
6.15755 0 1
6.2731 0 1
6.3887 0 1
6.50437 0 1
6.62009 0 1
6.73587 0 1
6.8517 0 1
6.96759 0 1
7.08353 0 1
7.19952 0 1
7.31557 0 1
7.43166 0 1
7.54781 0 1
7.664 0 1
7.78024 0 1
7.89653 0 1
8.01286 0 1
8.12924 0 1
8.24567 0 1
8.36213 0 1
8.47864 0 1
8.59519 0 1
8.71178 0 1
8.82841 0 1
8.94508 0 1
9.06179 0 1
9.17853 0 1
9.29531 0 1
9.41212 0 1
9.52897 0 1
9.64584 0 1
9.76276 0 1
9.8797 0 1
9.99667 0 1
10.1137 0 1
10.2307 0 1
10.3478 0 1
10.4648 0 1
10.5819 0 1
10.6991 0 1
10.8162 0 1
10.9334 0 1
11.0506 0 1
11.1678 0 1
11.285 0 1
11.4023 0 1
11.5196 0 1
11.6369 0 1
11.7542 0 1
11.8715 0 1
11.9888 0 1
12.1062 0 1
12.2235 0 1
12.3409 0 1
12.4582 0 1
12.5756 0 1
12.693 0 1
12.8104 0 1
12.9278 0 1
13.0452 0 1
13.1626 0 1
13.28 0 1
13.3974 0 1
13.5149 0 1
13.6323 0 1
13.7497 0 1
13.8671 0 1
13.9845 0 1
14.1019 0 1
14.2193 0 1
14.3367 0 1
14.4541 0 1
14.5714 0 1
14.6888 0 1
14.8062 0 1
14.9235 0 1
15.0408 0 0
15.1581 0 0
15.2755 0 0
15.3927 0 0
15.51 0 0
15.6273 0 0
15.7445 0 0
15.8617 0 0
15.9789 0 0
16.0961 0 0
16.2132 0 0
16.3304 0 0
16.4475 0 0
16.5646 0 0
16.6816 0 0
16.7986 0 0
16.9156 0 0
17.0326 0 0
17.1496 0 0
17.2665 0 0
17.3833 0 0
17.5002 0 0
17.617 0 0
17.7338 0 0
17.8505 0 0
17.9672 0 0
18.0839 0 0
18.2005 0 0
18.3171 0 0
18.4337 0 0
18.5502 0 0
18.6666 0 0
18.7831 0 0
18.8994 0 0
19.0158 0 0
19.1321 0 0
19.2483 0 0
19.3645 0 0
19.4806 0 0
19.5967 0 0
19.7128 0 0
19.8288 0 0
19.9447 0 0
20.0606 0 1
20.1764 0 1
20.2922 0 1
20.4079 0 1
20.5236 0 1
20.6392 0 1
20.7548 0 1
20.8702 0 1
23.3078 0 1
23.4233 0 1
23.539 0 1
23.6547 0 1
23.7704 0 1
23.8862 0 1
24.0021 0 1
24.118 0 1
24.234 0 1
24.35 0 1
24.4661 1229 35.0571
24.5822 1212 34.8138
24.6984 1241 35.2278
24.8146 1344 36.6606
24.9309 1437 37.9078
25.0472 1650 40.6202
25.1636 1790 42.3084
25.28 2098 45.8039
25.3965 2176 46.6476
25.513 2259 47.5289
25.6296 2450 49.4975
25.7462 2710 52.0577
25.8628 2747 52.4118
25.9795 2820 53.1037
26.0962 2779 52.7162
26.213 2712 52.0769
26.3298 2747 52.4118
26.4466 2596 50.951
26.5635 2661 51.5849
26.6804 2594 50.9313
26.7973 2692 51.8845
26.9143 2633 51.3128
27.0313 2672 51.6914
27.1483 2648 51.4587
27.2653 2700 51.9615
27.3824 2615 51.1371
27.4996 2692 51.8845
27.6167 2630 51.2835
27.7339 2584 50.8331
27.8511 2467 49.6689
27.9683 2413 49.1223
28.0855 2384 48.8262
28.2028 2145 46.3141
28.3201 1951 44.1701
28.4374 1972 44.4072
28.5547 2032 45.0777
28.6721 2007 44.7996
28.7894 2342 48.3942
28.9068 2422 49.2138
29.0242 2485 49.8498
29.1416 2512 50.1199
29.259 2421 49.2037
29.3764 2369 48.6724
29.4939 2444 49.4368
29.6113 2375 48.734
29.7288 2471 49.7092
29.8463 2426 49.2544
29.9638 2397 48.9592
30.0812 2447 49.4672
30.1987 2414 49.1325
30.3162 2478 49.7795
30.4337 2522 50.2195
30.5512 2438 49.3761
30.6687 2544 50.4381
30.7862 2595 50.9411
30.9037 2535 50.3488
31.0212 2565 50.6458
31.1387 2548 50.4777
31.2562 2445 49.4469
31.3737 2351 48.4871
31.4912 2303 47.9896
31.6087 2210 47.0106
31.7262 2037 45.1331
31.8436 1900 43.589
31.9611 1904 43.6348
32.0785 1943 44.0795
32.1959 2085 45.6618
32.3134 2253 47.4658
32.4308 2215 47.0638
32.5482 2300 47.9583
32.6655 2314 48.1041
32.7829 2280 47.7493
32.9002 2321 48.1768
33.0176 2390 48.8876
33.1349 2342 48.3942
33.2522 2408 49.0714
33.3694 2297 47.927
33.4867 2314 48.1041
33.6039 2341 48.3839
33.7211 2413 49.1223
33.8383 2404 49.0306
33.9554 2419 49.1833
34.0725 2449 49.4874
34.1896 2477 49.7695
34.3067 2452 49.5177
34.4237 2502 50.02
34.5407 2417 49.163
34.6577 2465 49.6488
34.7746 2397 48.9592
34.8915 2365 48.6313
35.0084 2428 49.2747
35.1252 2296 47.9166
35.242 2165 46.5296
35.3587 2145 46.3141
35.4755 1985 44.5533
35.5921 1747 41.7971
35.7088 1845 42.9535
35.8254 1798 42.4028
35.9419 1950 44.1588
36.0584 2104 45.8694
36.1749 2160 46.4758
36.2913 2148 46.3465
36.4077 2120 46.0435
36.524 2092 45.7384
36.6403 1973 44.4185
36.7565 1952 44.1814
36.8727 1887 43.4396
36.9889 1836 42.8486
37.1049 1731 41.6053
37.221 0 1
37.3369 0 1
37.4529 0 1
37.5687 0 1
37.6845 0 1
37.8003 0 1
37.916 0 1
38.0316 0 1
38.1472 0 1
40.5851 0 1
40.7008 0 1
40.8164 0 1
40.9322 0 1
41.048 0 1
41.1639 0 1
41.2798 0 1
41.3958 0 1
41.5118 0 1
41.6279 0 1
41.744 1087 32.9697
41.8602 1157 34.0147
41.9765 1310 36.1939
42.0928 1401 37.4299
42.2091 1361 36.8917
42.3255 1463 38.2492
42.4419 1539 39.2301
42.5584 1665 40.8044
42.675 1738 41.6893
42.7915 1871 43.2551
42.9081 1929 43.9204
43.0248 2072 45.5192
43.1415 1973 44.4185
43.2582 2103 45.8585
43.375 2159 46.465
43.4918 2109 45.9239
43.6087 2213 47.0425
43.7256 2086 45.6727
43.8425 2191 46.8081
43.9595 2066 45.4533
44.0765 2125 46.0977
44.1935 2006 44.7884
44.3106 1888 43.4511
44.4277 1795 42.3674
44.5448 1648 40.5956
44.6619 1799 42.4146
44.7791 1856 43.0813
44.8963 1927 43.8976
45.0136 1906 43.6578
45.1308 2013 44.8665
45.2481 1906 43.6578
45.3654 1933 43.9659
45.4827 1985 44.5533
45.6001 1893 43.5086
45.7174 1884 43.4051
45.8348 1884 43.4051
45.9522 1969 44.3734
46.0697 1913 43.7379
46.1871 2008 44.8107
46.3046 1971 44.3959
46.422 2067 45.4643
46.5395 2077 45.5741
46.657 2108 45.913
46.7745 2155 46.422
46.892 2181 46.7012
47.0096 2265 47.592
47.1271 2397 48.9592
47.2446 2201 46.9148
47.3622 2354 48.518
47.4797 2203 46.9361
47.5973 2225 47.1699
47.7149 2104 45.8694
47.8324 1942 44.0681
47.95 1842 42.9185
48.0675 1841 42.9069
48.1851 1841 42.9069
48.3027 1840 42.8952
48.4202 1951 44.1701
48.5378 1957 44.238
48.6554 2039 45.1553
48.7729 2000 44.7214
48.8904 1966 44.3396
49.008 1895 43.5316
49.1255 1824 42.7083
49.243 1863 43.1625
49.3605 1931 43.9431
49.478 1907 43.6692
49.5955 1895 43.5316
49.713 1871 43.2551
49.8304 2020 44.9444
49.9479 2042 45.1885
50.0653 1986 44.5646
50.1827 2099 45.8148
50.3001 2179 46.6798
50.4175 2295 47.9062
50.5348 2247 47.4025
50.6521 2383 48.816
50.7694 2327 48.239
50.8867 2273 47.676
51.004 2297 47.927
51.1212 2232 47.244
51.2384 2180 46.6905
51.3556 2120 46.0435
51.4727 1910 43.7035
51.5899 1820 42.6615
51.707 1817 42.6263
51.824 1762 41.9762
51.9411 1892 43.4971
52.0581 1932 43.9545
52.175 1897 43.5546
52.2919 1822 42.6849
52.4088 1918 43.795
52.5257 1823 42.6966
52.6425 1672 40.8901
52.7593 1713 41.3884
52.876 1832 42.8019
52.9927 1680 40.9878
53.1094 1764 42
53.226 1741 41.7253
53.3426 1701 41.2432
53.4591 1753 41.8688
53.5756 1783 42.2256
53.692 1802 42.45
53.8084 1810 42.5441
53.9248 1873 43.2782
54.0411 1802 42.45
54.1573 1722 41.497
54.2735 0 1
54.3896 0 1
54.5057 0 1
54.6217 0 1
54.7377 0 1
54.8537 0 1
54.9695 0 1
55.0853 0 1
55.2011 0 1
55.3168 0 1
55.4324 0 1
57.824 0 1
57.9396 0 1
58.0553 0 1
58.1711 0 1
58.2869 0 1
58.4028 0 1
58.5187 0 1
58.6347 0 1
58.7508 0 1
58.8669 0 1
58.983 1360 36.8782
59.0992 1531 39.128
59.2155 1634 40.4228
59.3318 1879 43.3474
59.4482 2103 45.8585
59.5646 2202 46.9255
59.681 2323 48.1975
59.7975 2336 48.3322
59.9141 2313 48.0937
60.0306 2189 46.7868
60.1473 2255 47.4868
60.2639 2123 46.076
60.3807 2132 46.1736
60.4974 2048 45.2548
60.6142 2159 46.465
60.731 2233 47.2546
60.8479 2208 46.9894
60.9648 2246 47.392
61.0818 2299 47.9479
61.1987 2173 46.6154
61.3158 2116 46
61.4328 2098 45.8039
61.5499 2126 46.1086
61.667 2010 44.833
61.7841 2100 45.8258
61.9013 2141 46.2709
62.0185 2226 47.1805
62.1357 2266 47.6025
62.253 2434 49.3356
62.3702 2469 49.689
62.4875 2655 51.5267
62.6049 2766 52.5928
62.7222 2726 52.2111
62.8396 2939 54.2125
62.9569 3021 54.9636
63.0743 2898 53.8331
63.1918 2922 54.0555
63.3092 2880 53.6656
63.4267 2951 54.3231
63.5441 2612 51.1077
63.6616 2573 50.7247
63.7791 2361 48.5901
63.8966 2288 47.833
64.0142 2226 47.1805
64.1317 2205 46.9574
64.2492 2217 47.085
64.3668 2083 45.6399
64.4843 2171 46.594
64.6019 2129 46.1411
64.7195 2221 47.1275
64.837 2097 45.793
64.9546 2096 45.7821
65.0722 2030 45.0555
65.1898 1998 44.699
65.3074 2030 45.0555
65.4249 2081 45.618
65.5425 2072 45.5192
65.6601 2133 46.1844
65.7777 2244 47.3709
65.8952 2355 48.5283
66.0128 2562 50.6162
66.1304 2649 51.4684
66.2479 2747 52.4118
66.3655 2757 52.5071
66.483 2966 54.461
66.6005 2907 53.9166
66.718 2954 54.3507
66.8355 2978 54.5711
66.953 2941 54.231
67.0705 2767 52.6023
67.1879 2657 51.5461
67.3054 2394 48.9285
67.4228 2322 48.1871
67.5402 2082 45.6289
67.6576 2059 45.3762
67.7749 1920 43.8178
67.8923 1863 43.1625
68.0096 1915 43.7607
68.1269 1990 44.6094
68.2442 2208 46.9894
68.3614 2117 46.0109
68.4787 2079 45.5961
68.5958 2035 45.111
68.713 1941 44.0568
68.8302 1961 44.2832
68.9473 1922 43.8406
69.0643 1840 42.8952
69.1814 1776 42.1426
69.2984 1864 43.1741
69.4154 1994 44.6542
69.5323 2100 45.8258
69.6492 2152 46.3897
69.7661 2350 48.4768
69.8829 2490 49.8999
69.9997 2470 49.6991
70.1165 2466 49.6588
70.2332 2458 49.5782
70.3499 2494 49.94
70.4665 2425 49.2443
70.5831 2295 47.9062
70.6996 2143 46.2925
70.8161 2058 45.3652
70.9326 1834 42.8252
71.049 1650 40.6202
71.1653 1383 37.1887
71.2817 1351 36.756
71.3979 1266 35.5809
71.5141 1198 34.6121
71.6303 1073 32.7567
71.7464 1019 31.9218
71.8624 0 1
71.9784 0 1
72.0944 0 1
72.2102 0 1
72.3261 0 1
72.4418 0 1
72.5575 0 1
72.6732 0 1
75.1054 0 1
75.2209 0 1
75.3365 0 1
75.4521 0 1
75.5678 0 1
75.6835 0 1
75.7993 0 1
75.9151 0 1
76.031 0 1
76.147 1460 38.2099
76.263 1499 38.7169
76.3791 1436 37.8946
76.4952 1353 36.7831
76.6113 1318 36.3043
76.7276 1367 36.973
76.8438 1443 37.9868
76.9601 1489 38.5876
77.0765 1479 38.4578
77.1929 1618 40.2244
77.3093 1794 42.3556
77.4258 1812 42.5676
77.5423 1806 42.4971
77.6589 1764 42
77.7755 1732 41.6173
77.8921 1805 42.4853
78.0088 1738 41.6893
78.1256 1676 40.939
78.2423 1604 40.05
78.3591 1727 41.5572
78.4759 1836 42.8486
78.5928 1983 44.5309
78.7097 2133 46.1844
78.8266 2589 50.8822
78.9436 2465 49.6488
79.0606 2566 50.6557
79.1776 2636 51.342
79.2946 2598 50.9706
79.4117 2632 51.303
79.5288 2523 50.2295
79.6459 2582 50.8134
79.7631 2349 48.4665
79.8802 2147 46.3357
79.9974 2061 45.3982
80.1147 1943 44.0795
80.2319 1825 42.72
80.3491 1671 40.8779
80.4664 1722 41.497
80.5837 1730 41.5933
80.701 1789 42.2966
80.8183 1846 42.9651
80.9357 1886 43.4281
81.053 1980 44.4972
81.1704 1981 44.5084
81.2877 1830 42.7785
81.4051 1874 43.2897
81.5225 1859 43.1161
81.6399 1725 41.5331
81.7573 1719 41.4608
81.8747 1642 40.5216
81.9922 1748 41.8091
82.1096 1799 42.4146
82.227 1992 44.6318
82.3444 2245 47.3814
82.4619 2468 49.679
82.5793 2579 50.7839
82.6967 2655 51.5267
82.8142 2696 51.923
82.9316 2719 52.144
83.049 2813 53.0377
83.1664 2724 52.192
83.2838 2452 49.5177
83.4012 2326 48.2286
83.5186 2242 47.3498
83.636 2106 45.8912
83.7534 1911 43.715
83.8708 1824 42.7083
83.9881 1766 42.0238
84.1055 1721 41.4849
84.2228 1739 41.7013
84.3401 1728 41.5692
84.4575 1827 42.7434
84.5747 1989 44.5982
84.692 2095 45.7712
84.8093 2105 45.8803
84.9265 1988 44.587
85.0437 1946 44.1135
85.1609 1810 42.5441
85.2781 1790 42.3084
85.3952 1816 42.6146
85.5123 1723 41.509
85.6294 1733 41.6293
85.7465 1916 43.7721
85.8636 2037 45.1331
85.9806 2259 47.5289
86.0976 2395 48.9387
86.2145 2472 49.7192
86.3315 2620 51.1859
86.4484 2606 51.049
86.5652 2552 50.5173
86.682 2598 50.9706
86.7988 2534 50.3389
86.9156 2387 48.8569
87.0323 2383 48.816
87.149 2194 46.8402
87.2657 2004 44.7661
87.3823 1973 44.4185
87.4988 1844 42.9418
87.6154 1671 40.8779
87.7318 1684 41.0366
87.8483 1610 40.1248
87.9647 1535 39.1791
88.081 1665 40.8044
88.1973 1660 40.7431
88.3136 1637 40.4599
88.4298 1495 38.6652
88.546 1298 36.0278
88.6621 1101 33.1813
88.7781 925 30.4138
88.8942 0 1
89.0101 0 1
89.126 0 1
89.2419 0 1
89.3577 0 1
89.4734 0 1
89.5891 0 1
89.7047 0 1
89.8203 0 1
89.9358 0 1
92.3269 0 1
92.4424 0 1
92.558 0 1
92.6736 0 1
92.7893 0 1
92.905 0 1
93.0208 0 1
93.1366 0 1
93.2525 0 1
93.3685 0 1
93.4845 0 1
93.6005 1170 34.2053
93.7167 1437 37.9078
93.8328 1694 41.1582
93.949 1759 41.9404
94.0653 1841 42.9069
94.1816 1806 42.4971
94.2979 1836 42.8486
94.4143 1864 43.1741
94.5307 1815 42.6028
94.6472 1801 42.4382
94.7637 1854 43.0581
94.8803 1906 43.6578
94.9969 2111 45.9456
95.1135 2181 46.7012
95.2302 2413 49.1223
95.3469 2569 50.6853
95.4637 2762 52.5547
95.5805 2767 52.6023
95.6973 2868 53.5537
95.8142 2886 53.7215
95.9311 2749 52.4309
96.048 2719 52.144
96.1649 2756 52.4976
96.2819 2452 49.5177
96.3989 2310 48.0625
96.516 2178 46.669
96.633 2107 45.9021
96.7501 1925 43.8748
96.8673 1833 42.8135
96.9844 1691 41.1218
97.1016 1701 41.2432
97.2188 1696 41.1825
97.336 1957 44.238
97.4532 2064 45.4313
97.5704 2257 47.5079
97.6877 2303 47.9896
97.805 2114 45.9783
97.9223 1991 44.6206
98.0396 1959 44.2606
98.1569 1881 43.3705
98.2743 1752 41.8569
98.3916 1832 42.8019
98.509 1905 43.6463
98.6264 2054 45.3211
98.7438 2136 46.2169
98.8612 2268 47.6235
98.9786 2526 50.2593
99.096 2737 52.3163
99.2134 2867 53.5444
99.3308 2842 53.3104
99.4482 2918 54.0185
99.5656 2802 52.9339
99.6831 2882 53.6843
99.8005 2695 51.9134
99.9179 2446 49.4571
100.035 2374 48.7237
100.153 2269 47.634
100.27 2149 46.3573
100.388 1891 43.4856
100.505 1838 42.8719
100.622 1794 42.3556
100.74 1820 42.6615
100.857 1831 42.7902
100.975 2058 45.3652
101.092 2191 46.8081
101.209 2273 47.676
101.327 2247 47.4025
101.444 2050 45.2769
101.561 2054 45.3211
101.679 1942 44.0681
101.796 1927 43.8976
101.913 1883 43.3935
102.03 1854 43.0581
102.148 2059 45.3762
102.265 2263 47.571
102.382 2581 50.8035
102.499 2737 52.3163
102.616 2886 53.7215
102.733 2906 53.9073
102.851 2967 54.4702
102.968 2965 54.4518
103.085 3205 56.6127
103.202 3225 56.7891
103.319 3062 55.3353
103.436 2877 53.6377
103.552 2614 51.1273
103.669 2468 49.679
103.786 2217 47.085
103.903 1998 44.699
104.02 1953 44.1928
104.137 1938 44.0227
104.253 1938 44.0227
104.37 2012 44.8553
104.487 2078 45.5851
104.603 2141 46.2709
104.72 2203 46.9361
104.836 2063 45.4203
104.953 1819 42.6497
105.069 1727 41.5572
105.186 1578 39.724
105.302 1518 38.9615
105.418 1528 39.0896
105.535 1467 38.3014
105.651 1399 37.4032
105.767 1498 38.704
105.883 1562 39.5221
105.999 1618 40.2244
106.115 0 1
106.231 0 1
106.347 0 1
106.463 0 1
106.579 0 1
106.694 0 1
106.81 0 1
106.926 0 1
107.041 0 1
107.157 0 1
109.576 0 1
109.692 0 1
109.807 0 1
109.923 0 1
110.039 0 1
110.155 0 1
110.27 0 1
110.386 0 1
110.502 0 1
110.618 1133 33.6601
110.735 1311 36.2077
110.851 1624 40.2989
110.967 1668 40.8412
111.083 1940 44.0454
111.199 2010 44.833
111.316 2195 46.8508
111.432 2304 48
111.549 2329 48.2597
111.665 2405 49.0408
111.782 2431 49.3052
111.898 2389 48.8774
112.015 2202 46.9255
112.132 2076 45.5631
112.248 1993 44.643
112.365 1960 44.2719
112.482 1807 42.5088
112.599 1740 41.7133
112.716 1682 41.0122
112.832 1691 41.1218
112.949 1692 41.1339
113.066 1775 42.1307
113.183 1958 44.2493
113.3 2028 45.0333
113.417 2027 45.0222
113.534 1961 44.2832
113.652 1915 43.7607
113.769 1843 42.9302
113.886 1818 42.638
114.003 1842 42.9185
114.12 1804 42.4735
114.238 2048 45.2548
114.355 2119 46.0326
114.472 2402 49.0102
114.589 2506 50.06
114.707 2783 52.7541
114.824 2832 53.2165
114.942 2949 54.3047
115.059 2907 53.9166
115.176 2881 53.6749
115.294 2896 53.8145
115.411 2842 53.3104
115.529 2769 52.6213
115.646 2431 49.3052
115.764 2278 47.7284
115.881 2125 46.0977
115.999 2081 45.618
116.116 1986 44.5646
116.234 1894 43.5201
116.351 1905 43.6463
116.469 1725 41.5331
116.586 1850 43.0116
116.704 1976 44.4522
116.821 2104 45.8694
116.939 2082 45.6289
117.056 2055 45.3321
117.174 2092 45.7384
117.291 2127 46.1194
117.409 2154 46.4112
117.526 2049 45.2659
117.644 2005 44.7772
117.761 2181 46.7012
117.879 2292 47.8748
117.996 2433 49.3254
118.114 2706 52.0192
118.231 2813 53.0377
118.349 2979 54.5802
118.466 2859 53.4696
118.584 2982 54.6077
118.701 2937 54.1941
118.819 3106 55.7315
118.936 2929 54.1202
119.053 2897 53.8238
119.171 2780 52.7257
119.288 2485 49.8498
119.405 2265 47.592
119.523 2133 46.1844
119.64 2064 45.4313
119.757 1949 44.1475
119.875 1874 43.2897
119.992 1812 42.5676
120.109 1692 41.1339
120.226 1739 41.7013
120.343 1813 42.5793
120.46 1911 43.715
120.578 1927 43.8976
120.695 2026 45.0111
120.812 1903 43.6234
120.929 1897 43.5546
121.046 1867 43.2088
121.163 1775 42.1307
121.279 1860 43.1277
121.396 1873 43.2782
121.513 1887 43.4396
121.63 2012 44.8553
121.747 2127 46.1194
121.863 2235 47.2758
121.98 2353 48.5077
122.097 2327 48.239
122.213 2357 48.5489
122.33 2223 47.1487
122.446 2178 46.669
122.563 2050 45.2769
122.679 1957 44.238
122.795 1864 43.1741
122.912 1705 41.2916
123.028 1561 39.5095
123.144 1372 37.0405
123.26 1252 35.3836
123.377 0 1
123.493 0 1
123.609 0 1
123.725 0 1
123.84 0 1
123.956 0 1
124.072 0 1
124.188 0 1
124.303 0 1
124.419 0 1
126.852 0 1
126.968 0 1
127.083 0 1
127.199 0 1
127.315 0 1
127.431 0 1
127.547 0 1
127.663 0 1
127.779 0 1
127.895 0 1
128.011 0 1
128.127 0 1
128.243 0 1
128.359 2340 48.3735
128.476 2259 47.5289
128.592 2214 47.0532
128.708 2189 46.7868
128.825 2199 46.8935
128.941 2019 44.9333
129.058 2040 45.1664
129.174 2060 45.3872
129.291 1949 44.1475
129.408 2084 45.6508
129.524 2094 45.7602
129.641 2269 47.634
129.758 2283 47.7807
129.875 2307 48.0312
129.992 2352 48.4974
130.108 2306 48.0208
130.225 2301 47.9687
130.342 2290 47.8539
130.459 2272 47.6655
130.576 2302 47.9792
130.693 2509 50.0899
130.81 2598 50.9706
130.928 2662 51.5946
131.045 2552 50.5173
131.162 2745 52.3927
131.279 2788 52.8015
131.396 2764 52.5738
131.513 2770 52.6308
131.631 2701 51.9711
131.748 2638 51.3615
131.865 2592 50.9117
131.983 2435 49.3457
132.1 2371 48.6929
132.217 2285 47.8017
132.335 2186 46.7547
132.452 2067 45.4643
132.57 2088 45.6946
132.687 2081 45.618
132.804 1958 44.2493
132.922 1990 44.6094
133.039 2040 45.1664
133.157 2100 45.8258
133.274 2201 46.9148
133.392 2210 47.0106
133.509 2174 46.6262
133.627 2316 48.1248
133.744 2255 47.4868
133.862 2226 47.1805
133.979 2183 46.7226
134.097 2192 46.8188
134.214 2307 48.0312
134.332 2442 49.4166
134.449 2506 50.06
134.567 2509 50.0899
134.684 2574 50.7346
134.802 2667 51.643
134.919 2683 51.7977
135.037 2650 51.4782
135.154 2581 50.8035
135.272 2557 50.5668
135.389 2556 50.5569
135.507 2417 49.163
135.624 2476 49.7594
135.742 2341 48.3839
135.859 2278 47.7284
135.977 2248 47.4131
136.094 2246 47.392
136.211 2153 46.4004
136.329 2055 45.3321
136.446 2113 45.9674
136.564 2054 45.3211
136.681 2174 46.6262
136.798 2253 47.4658
136.915 2224 47.1593
137.033 2313 48.0937
137.15 2339 48.3632
137.267 2459 49.5883
137.384 2333 48.3011
137.502 2286 47.8121
137.619 2296 47.9166
137.736 2274 47.6865
137.853 2095 45.7712
137.97 2246 47.392
138.087 2381 48.7955
138.204 2402 49.0102
138.321 2409 49.0816
138.438 2347 48.4458
138.555 2469 49.689
138.672 2351 48.4871
138.788 2415 49.1426
138.905 2202 46.9255
139.022 2109 45.9239
139.139 2127 46.1194
139.255 1939 44.0341
139.372 1908 43.6807
139.488 1802 42.45
139.605 1664 40.7922
139.721 1590 39.8748
139.838 1478 38.4448
139.954 1410 37.55
140.071 1306 36.1386
140.187 1211 34.7994
140.303 1223 34.9714
140.419 1176 34.2929
140.535 1138 33.7343
140.652 1166 34.1467
140.768 0 1
140.884 0 1
141 0 1
141.115 0 1
141.231 0 1
141.347 0 1
141.463 0 1
141.578 0 1
141.694 0 1
144.104 0 1
144.219 0 1
144.335 0 1
144.45 0 1
144.566 0 1
144.682 0 1
144.798 0 1
144.914 0 1
145.03 0 1
145.146 1534 39.1663
145.262 1550 39.37
145.378 1636 40.4475
145.494 1642 40.5216
145.61 1747 41.7971
145.726 1775 42.1307
145.842 1779 42.1782
145.959 1876 43.3128
146.075 1920 43.8178
146.192 1776 42.1426
146.308 1749 41.821
146.425 1746 41.7852
146.541 1733 41.6293
146.658 1821 42.6732
146.774 1863 43.1625
146.891 1947 44.1248
147.008 2052 45.299
147.125 2060 45.3872
147.241 2044 45.2106
147.358 2145 46.3141
147.475 2091 45.7275
147.592 1991 44.6206
147.709 2076 45.5631
147.826 1977 44.4635
147.943 2075 45.5522
148.06 2069 45.4863
148.177 2021 44.9555
148.294 1990 44.6094
148.411 1847 42.9767
148.528 1856 43.0813
148.645 1853 43.0465
148.762 1785 42.2493
148.88 1817 42.6263
148.997 1761 41.9643
149.114 1777 42.1545
149.231 1817 42.6263
149.349 1827 42.7434
149.466 1913 43.7379
149.583 1867 43.2088
149.701 1927 43.8976
149.818 1830 42.7785
149.935 1812 42.5676
150.053 1770 42.0714
150.17 1821 42.6732
150.287 1851 43.0232
150.405 1926 43.8862
150.522 1943 44.0795
150.64 2048 45.2548
150.757 2051 45.288
150.875 1988 44.587
150.992 2248 47.4131
151.11 2133 46.1844
151.227 2151 46.3789
151.344 2046 45.2327
151.462 2150 46.3681
151.579 2078 45.5851
151.697 2055 45.3321
151.814 2004 44.7661
151.932 1994 44.6542
152.049 2026 45.0111
152.167 1957 44.238
152.284 1891 43.4856
152.402 1877 43.3244
152.519 1894 43.5201
152.636 1880 43.359
152.754 1835 42.8369
152.871 1963 44.3058
152.989 1915 43.7607
153.106 1829 42.7668
153.223 1889 43.4626
153.341 2013 44.8665
153.458 2038 45.1442
153.575 1909 43.6921
153.693 1923 43.852
153.81 1919 43.8064
153.927 2015 44.8888
154.044 2144 46.3033
154.162 2231 47.2335
154.279 2223 47.1487
154.396 2276 47.7074
154.513 2318 48.1456
154.63 2333 48.3011
154.747 2396 48.949
154.864 2342 48.3942
154.981 2341 48.3839
155.098 2277 47.7179
155.215 2341 48.3839
155.332 2180 46.6905
155.449 2134 46.1952
155.566 2092 45.7384
155.683 2024 44.9889
155.8 1882 43.382
155.917 1948 44.1362
156.033 1834 42.8252
156.15 0 1
156.267 0 1
156.383 0 1
156.5 0 1
156.617 0 1
156.733 0 1
156.85 0 1
156.966 0 1
157.082 0 1
157.199 0 1
157.315 0 1
157.431 0 1
157.547 0 1
157.664 0 1
157.78 0 1
157.896 0 1
158.012 0 1
158.128 0 1
158.244 0 1
158.359 0 1
158.475 0 1
158.591 0 1
158.706 0 1
