
6.15755 0 1
6.2731 0 1
6.3887 0 1
6.50437 0 1
6.62009 0 1
6.73587 0 1
6.8517 0 1
6.96759 0 1
7.08353 0 1
7.19952 0 1
7.31557 0 1
7.43166 0 1
7.54781 0 1
7.664 0 1
7.78024 0 1
7.89653 0 1
8.01286 0 1
8.12924 0 1
8.24567 0 1
8.36213 0 1
8.47864 0 1
8.59519 0 1
8.71178 0 1
8.82841 0 1
8.94508 0 1
9.06179 0 1
9.17853 0 1
9.29531 0 1
9.41212 0 1
9.52897 0 1
9.64584 0 1
9.76276 0 1
9.8797 0 1
9.99667 0 1
10.1137 0 1
10.2307 0 1
10.3478 0 1
10.4648 0 1
10.5819 0 1
10.6991 0 1
10.8162 0 1
10.9334 0 1
11.0506 0 1
11.1678 0 1
11.285 0 1
11.4023 0 1
11.5196 0 1
11.6369 0 1
11.7542 0 1
11.8715 0 1
11.9888 0 1
12.1062 0 1
12.2235 0 1
12.3409 0 1
12.4582 0 1
12.5756 0 1
12.693 0 1
12.8104 0 1
12.9278 0 1
13.0452 0 1
13.1626 0 1
13.28 0 1
13.3974 0 1
13.5149 0 1
13.6323 0 1
13.7497 0 1
13.8671 0 1
13.9845 0 1
14.1019 0 1
14.2193 0 1
14.3367 0 1
14.4541 0 1
14.5714 0 1
14.6888 0 1
14.8062 0 1
14.9235 0 1
15.0408 0 0
15.1581 0 0
15.2755 0 0
15.3927 0 0
15.51 0 0
15.6273 0 0
15.7445 0 0
15.8617 0 0
15.9789 0 0
16.0961 0 0
16.2132 0 0
16.3304 0 0
16.4475 0 0
16.5646 0 0
16.6816 0 0
16.7986 0 0
16.9156 0 0
17.0326 0 0
17.1496 0 0
17.2665 0 0
17.3833 0 0
17.5002 0 0
17.617 0 0
17.7338 0 0
17.8505 0 0
17.9672 0 0
18.0839 0 0
18.2005 0 0
18.3171 0 0
18.4337 0 0
18.5502 0 0
18.6666 0 0
18.7831 0 0
18.8994 0 0
19.0158 0 0
19.1321 0 0
19.2483 0 0
19.3645 0 0
19.4806 0 0
19.5967 0 0
19.7128 0 0
19.8288 0 0
19.9447 0 0
20.0606 0 1
20.1764 0 1
20.2922 0 1
20.4079 0 1
20.5236 0 1
20.6392 0 1
20.7548 0 1
20.8702 0 1
23.3078 0 1
23.4233 0 1
23.539 0 1
23.6547 0 1
23.7704 0 1
23.8862 0 1
24.0021 0 1
24.118 0 1
24.234 0 1
24.35 0 1
24.4661 1485 38.5357
24.5822 1532 39.1408
24.6984 1576 39.6989
24.8146 1610 40.1248
24.9309 1779 42.1782
25.0472 1928 43.909
25.1636 2206 46.9681
25.28 2308 48.0416
25.3965 2503 50.03
25.513 2651 51.4879
25.6296 2876 53.6284
25.7462 3056 55.2811
25.8628 3142 56.0535
25.9795 3325 57.6628
26.0962 3222 56.7627
26.213 3202 56.5862
26.3298 3125 55.9017
26.4466 3165 56.2583
26.5635 3115 55.8122
26.6804 3084 55.5338
26.7973 3161 56.2228
26.9143 3099 55.6687
27.0313 3100 55.6776
27.1483 3176 56.356
27.2653 3216 56.7098
27.3824 3138 56.0179
27.4996 3183 56.4181
27.6167 3088 55.5698
27.7339 3233 56.8595
27.8511 3061 55.3263
27.9683 2986 54.6443
28.0855 2779 52.7162
28.2028 2716 52.1153
28.3201 2470 49.6991
28.4374 2338 48.3529
28.5547 2500 50
28.6721 2513 50.1298
28.7894 2625 51.2348
28.9068 2890 53.7587
29.0242 2916 54
29.1416 2932 54.1479
29.259 2896 53.8145
29.3764 2830 53.1977
29.4939 2792 52.8394
29.6113 2873 53.6004
29.7288 2925 54.0833
29.8463 2826 53.1601
29.9638 2935 54.1756
30.0812 3037 55.109
30.1987 2896 53.8145
30.3162 3103 55.7046
30.4337 2982 54.6077
30.5512 3007 54.8361
30.6687 3133 55.9732
30.7862 3080 55.4977
30.9037 3104 55.7136
31.0212 3147 56.0981
31.1387 3106 55.7315
31.2562 3079 55.4887
31.3737 2928 54.111
31.4912 2862 53.4977
31.6087 2754 52.4786
31.7262 2656 51.5364
31.8436 2352 48.4974
31.9611 2332 48.2908
32.0785 2275 47.697
32.1959 2420 49.1935
32.3134 2708 52.0384
32.4308 2770 52.6308
32.5482 2745 52.3927
32.6655 2699 51.9519
32.7829 2718 52.1344
32.9002 2710 52.0577
33.0176 2602 51.0098
33.1349 2822 53.1225
33.2522 2790 52.8205
33.3694 2703 51.9904
33.4867 2782 52.7447
33.6039 2842 53.3104
33.7211 2841 53.301
33.8383 2887 53.7308
33.9554 2909 53.9351
34.0725 2916 54
34.1896 2934 54.1664
34.3067 3016 54.9181
34.4237 3050 55.2268
34.5407 3022 54.9727
34.6577 3102 55.6956
34.7746 3041 55.1453
34.8915 2979 54.5802
35.0084 2874 53.6097
35.1252 2846 53.3479
35.242 2692 51.8845
35.3587 2651 51.4879
35.4755 2431 49.3052
35.5921 2267 47.613
35.7088 2186 46.7547
35.8254 2281 47.7598
35.9419 2440 49.3964
36.0584 2466 49.6588
36.1749 2527 50.2693
36.2913 2502 50.02
36.4077 2391 48.8979
36.524 2482 49.8197
36.6403 2356 48.5386
36.7565 2307 48.0312
36.8727 2108 45.913
36.9889 2188 46.7761
37.1049 2109 45.9239
37.221 0 1
37.3369 0 1
37.4529 0 1
37.5687 0 1
37.6845 0 1
37.8003 0 1
37.916 0 1
38.0316 0 1
38.1472 0 1
40.5851 0 1
40.7008 0 1
40.8164 0 1
40.9322 0 1
41.048 0 1
41.1639 0 1
41.2798 0 1
41.3958 0 1
41.5118 0 1
41.6279 0 1
41.744 1289 35.9026
41.8602 1391 37.2961
41.9765 1492 38.6264
42.0928 1708 41.328
42.2091 1691 41.1218
42.3255 1827 42.7434
42.4419 1921 43.8292
42.5584 1978 44.4747
42.675 2146 46.3249
42.7915 2176 46.6476
42.9081 2373 48.7134
43.0248 2503 50.03
43.1415 2540 50.3984
43.2582 2554 50.5371
43.375 2586 50.8527
43.4918 2593 50.9215
43.6087 2553 50.5272
43.7256 2707 52.0288
43.8425 2644 51.4198
43.9595 2708 52.0384
44.0765 2657 51.5461
44.1935 2516 50.1597
44.3106 2451 49.5076
44.4277 2322 48.1871
44.5448 2220 47.1169
44.6619 2224 47.1593
44.7791 2308 48.0416
44.8963 2431 49.3052
45.0136 2498 49.98
45.1308 2424 49.2341
45.2481 2426 49.2544
45.3654 2388 48.8672
45.4827 2369 48.6724
45.6001 2338 48.3529
45.7174 2363 48.6107
45.8348 2359 48.5695
45.9522 2300 47.9583
46.0697 2421 49.2037
46.1871 2449 49.4874
46.3046 2415 49.1426
46.422 2601 51
46.5395 2620 51.1859
46.657 2798 52.8961
46.7745 2837 53.2635
46.892 2766 52.5928
47.0096 2886 53.7215
47.1271 2979 54.5802
47.2446 2796 52.8772
47.3622 2696 51.923
47.4797 2843 53.3198
47.5973 2926 54.0925
47.7149 2757 52.5071
47.8324 2614 51.1273
47.95 2420 49.1935
48.0675 2396 48.949
48.1851 2372 48.7032
48.3027 2280 47.7493
48.4202 2432 49.3153
48.5378 2587 50.8626
48.6554 2499 49.99
48.7729 2544 50.4381
48.8904 2492 49.9199
49.008 2340 48.3735
49.1255 2338 48.3529
49.243 2233 47.2546
49.3605 2288 47.833
49.478 2273 47.676
49.5955 2488 49.8799
49.713 2440 49.3964
49.8304 2458 49.5782
49.9479 2560 50.5964
50.0653 2651 51.4879
50.1827 2746 52.4023
50.3001 2863 53.507
50.4175 2971 54.5069
50.5348 3013 54.8908
50.6521 3006 54.827
50.7694 2984 54.626
50.8867 2902 53.8702
51.004 3014 54.8999
51.1212 2879 53.6563
51.2384 2862 53.4977
51.3556 2704 52
51.4727 2560 50.5964
51.5899 2394 48.9285
51.707 2335 48.3218
51.824 2426 49.2544
51.9411 2435 49.3457
52.0581 2433 49.3254
52.175 2388 48.8672
52.2919 2359 48.5695
52.4088 2317 48.1352
52.5257 2250 47.4342
52.6425 2148 46.3465
52.7593 2064 45.4313
52.876 2010 44.833
52.9927 2095 45.7712
53.1094 2079 45.5961
53.226 2084 45.6508
53.3426 2164 46.5188
53.4591 2227 47.1911
53.5756 2225 47.1699
53.692 2331 48.2804
53.8084 2337 48.3425
53.9248 2401 49
54.0411 2261 47.55
54.1573 2215 47.0638
54.2735 0 1
54.3896 0 1
54.5057 0 1
54.6217 0 1
54.7377 0 1
54.8537 0 1
54.9695 0 1
55.0853 0 1
55.2011 0 1
55.3168 0 1
55.4324 0 1
57.824 0 1
57.9396 0 1
58.0553 0 1
58.1711 0 1
58.2869 0 1
58.4028 0 1
58.5187 0 1
58.6347 0 1
58.7508 0 1
58.8669 0 1
58.983 1839 42.8836
59.0992 1996 44.6766
59.2155 2247 47.4025
59.3318 2510 50.0999
59.4482 2620 51.1859
59.5646 2892 53.7773
59.681 2933 54.1572
59.7975 3030 55.0454
59.9141 3017 54.9272
60.0306 2951 54.3231
60.1473 2858 53.4603
60.2639 2769 52.6213
60.3807 2628 51.264
60.4974 2662 51.5946
60.6142 2684 51.8073
60.731 2785 52.7731
60.8479 2746 52.4023
60.9648 2842 53.3104
61.0818 2805 52.9623
61.1987 2897 53.8238
61.3158 2754 52.4786
61.4328 2705 52.0096
61.5499 2655 51.5267
61.667 2660 51.5752
61.7841 2686 51.8266
61.9013 2841 53.301
62.0185 2777 52.6972
62.1357 3014 54.8999
62.253 3031 55.0545
62.3702 3244 56.9561
62.4875 3488 59.0593
62.6049 3619 60.1581
62.7222 3715 60.9508
62.8396 3852 62.0645
62.9569 3892 62.3859
63.0743 4090 63.9531
63.1918 3942 62.7853
63.3092 4050 63.6396
63.4267 3597 59.975
63.5441 3664 60.531
63.6616 3392 58.2409
63.7791 3229 56.8243
63.8966 2961 54.4151
64.0142 2994 54.7175
64.1317 2810 53.0094
64.2492 2913 53.9722
64.3668 2710 52.0577
64.4843 2655 51.5267
64.6019 2794 52.8583
64.7195 2843 53.3198
64.837 2678 51.7494
64.9546 2659 51.5655
65.0722 2606 51.049
65.1898 2509 50.0899
65.3074 2526 50.2593
65.4249 2682 51.788
65.5425 2712 52.0769
65.6601 2779 52.7162
65.7777 2957 54.3783
65.8952 3184 56.4269
66.0128 3393 58.2495
66.1304 3566 59.716
66.2479 3598 59.9833
66.3655 3788 61.5467
66.483 3862 62.145
66.6005 3950 62.849
66.718 3981 63.0952
66.8355 3885 62.3298
66.953 3793 61.5873
67.0705 3522 59.3464
67.1879 3412 58.4123
67.3054 3277 57.2451
67.4228 3003 54.7996
67.5402 2759 52.5262
67.6576 2578 50.774
67.7749 2515 50.1498
67.8923 2579 50.7839
68.0096 2573 50.7247
68.1269 2677 51.7397
68.2442 2671 51.6817
68.3614 2805 52.9623
68.4787 2661 51.5849
68.5958 2604 51.0294
68.713 2545 50.448
68.8302 2523 50.2295
68.9473 2475 49.7494
69.0643 2482 49.8197
69.1814 2414 49.1325
69.2984 2464 49.6387
69.4154 2387 48.8569
69.5323 2660 51.5752
69.6492 2716 52.1153
69.7661 3086 55.5518
69.8829 3111 55.7763
69.9997 3193 56.5066
70.1165 3268 57.1664
70.2332 3304 57.4804
70.3499 3241 56.9298
70.4665 3123 55.8838
70.5831 2976 54.5527
70.6996 2817 53.0754
70.8161 2668 51.6527
70.9326 2374 48.7237
71.049 2303 47.9896
71.1653 1870 43.2435
71.2817 1868 43.2204
71.3979 1633 40.4104
71.5141 1556 39.4462
71.6303 1426 37.7624
71.7464 1282 35.805
71.8624 0 1
71.9784 0 1
72.0944 0 1
72.2102 0 1
72.3261 0 1
72.4418 0 1
72.5575 0 1
72.6732 0 1
75.1054 0 1
75.2209 0 1
75.3365 0 1
75.4521 0 1
75.5678 0 1
75.6835 0 1
75.7993 0 1
75.9151 0 1
76.031 0 1
76.147 1872 43.2666
76.263 1953 44.1928
76.3791 1918 43.795
76.4952 1710 41.3521
76.6113 1633 40.4104
76.7276 1723 41.509
76.8438 1652 40.6448
76.9601 1777 42.1545
77.0765 1957 44.238
77.1929 2034 45.0999
77.3093 2270 47.6445
77.4258 2372 48.7032
77.5423 2287 47.8226
77.6589 2262 47.5605
77.7755 2263 47.571
77.8921 2212 47.0319
78.0088 2188 46.7761
78.1256 2143 46.2925
78.2423 2124 46.0869
78.3591 2251 47.4447
78.4759 2389 48.8774
78.5928 2584 50.8331
78.7097 2813 53.0377
78.8266 3178 56.3738
78.9436 3292 57.376
79.0606 3420 58.4808
79.1776 3389 58.2151
79.2946 3498 59.1439
79.4117 3394 58.258
79.5288 3397 58.2838
79.6459 3388 58.2065
79.7631 3111 55.7763
79.8802 2888 53.7401
79.9974 2700 51.9615
80.1147 2580 50.7937
80.2319 2339 48.3632
80.3491 2220 47.1169
80.4664 2209 47
80.5837 2209 47
80.701 2207 46.9787
80.8183 2256 47.4974
80.9357 2347 48.4458
81.053 2645 51.4296
81.1704 2544 50.4381
81.2877 2465 49.6488
81.4051 2379 48.775
81.5225 2430 49.295
81.6399 2295 47.9062
81.7573 2245 47.3814
81.8747 2241 47.3392
81.9922 2280 47.7493
82.1096 2364 48.621
82.227 2532 50.319
82.3444 2831 53.2071
82.4619 3422 58.4979
82.5793 3532 59.4306
82.6967 3608 60.0666
82.8142 3537 59.4727
82.9316 3652 60.4318
83.049 3584 59.8665
83.1664 3668 60.564
83.2838 3454 58.7707
83.4012 3234 56.8683
83.5186 2866 53.535
83.636 2755 52.4881
83.7534 2672 51.6914
83.8708 2466 49.6588
83.9881 2338 48.3529
84.1055 2212 47.0319
84.2228 2194 46.8402
84.3401 2215 47.0638
84.4575 2375 48.734
84.5747 2611 51.0979
84.692 2753 52.469
84.8093 2782 52.7447
84.9265 2695 51.9134
85.0437 2450 49.4975
85.1609 2343 48.4045
85.2781 2356 48.5386
85.3952 2335 48.3218
85.5123 2190 46.7974
85.6294 2181 46.7012
85.7465 2443 49.4267
85.8636 2657 51.5461
85.9806 2875 53.619
86.0976 3090 55.5878
86.2145 3386 58.1893
86.3315 3456 58.7878
86.4484 3468 58.8897
86.5652 3416 58.4466
86.682 3304 57.4804
86.7988 3336 57.7581
86.9156 3186 56.4447
87.0323 2964 54.4426
87.149 2779 52.7162
87.2657 2911 53.9537
87.3823 2603 51.0196
87.4988 2394 48.9285
87.6154 2240 47.3286
87.7318 2022 44.9667
87.8483 2077 45.5741
87.9647 1984 44.5421
88.081 2076 45.5631
88.1973 2224 47.1593
88.3136 2235 47.2758
88.4298 2014 44.8776
88.546 1636 40.4475
88.6621 1347 36.7015
88.7781 1195 34.5688
88.8942 0 1
89.0101 0 1
89.126 0 1
89.2419 0 1
89.3577 0 1
89.4734 0 1
89.5891 0 1
89.7047 0 1
89.8203 0 1
89.9358 0 1
92.3269 0 1
92.4424 0 1
92.558 0 1
92.6736 0 1
92.7893 0 1
92.905 0 1
93.0208 0 1
93.1366 0 1
93.2525 0 1
93.3685 0 1
93.4845 0 1
93.6005 1500 38.7298
93.7167 1883 43.3935
93.8328 2091 45.7275
93.949 2324 48.2079
94.0653 2391 48.8979
94.1816 2393 48.9183
94.2979 2423 49.224
94.4143 2387 48.8569
94.5307 2357 48.5489
94.6472 2382 48.8057
94.7637 2451 49.5076
94.8803 2514 50.1398
94.9969 2693 51.8941
95.1135 3048 55.2087
95.2302 3167 56.2761
95.3469 3695 60.7865
95.4637 3802 61.6604
95.5805 3855 62.0886
95.6973 3852 62.0645
95.8142 4015 63.364
95.9311 3793 61.5873
96.048 3706 60.8769
96.1649 3467 58.8812
96.2819 3299 57.4369
96.3989 3075 55.4527
96.516 2841 53.301
96.633 2693 51.8941
96.7501 2545 50.448
96.8673 2366 48.6415
96.9844 2229 47.2123
97.1016 2345 48.4252
97.2188 2325 48.2183
97.336 2469 49.689
97.4532 2756 52.4976
97.5704 2945 54.2679
97.6877 2987 54.6535
97.805 2742 52.3641
97.9223 2620 51.1859
98.0396 2558 50.5767
98.1569 2418 49.1732
98.2743 2443 49.4267
98.3916 2482 49.8197
98.509 2492 49.9199
98.6264 2701 51.9711
98.7438 2918 54.0185
98.8612 3178 56.3738
98.9786 3328 57.6888
99.096 3612 60.0999
99.2134 3914 62.562
99.3308 3826 61.8547
99.4482 3739 61.1474
99.5656 3851 62.0564
99.6831 3812 61.7414
99.8005 3749 61.2291
99.9179 3411 58.4038
100.035 3210 56.6569
100.153 2871 53.5817
100.27 2898 53.8331
100.388 2469 49.689
100.505 2432 49.3153
100.622 2362 48.6004
100.74 2319 48.156
100.857 2340 48.3735
100.975 2682 51.788
101.092 3084 55.5338
101.209 3051 55.2359
101.327 2845 53.3385
101.444 2723 52.1824
101.561 2659 51.5655
101.679 2621 51.1957
101.796 2527 50.2693
101.913 2605 51.0392
102.03 2600 50.9902
102.148 2799 52.9056
102.265 3061 55.3263
102.382 3350 57.8792
102.499 3623 60.1914
102.616 3773 61.4248
102.733 3908 62.514
102.851 4029 63.4744
102.968 4066 63.7652
103.085 4161 64.5058
103.202 4116 64.1561
103.319 3864 62.1611
103.436 3608 60.0666
103.552 3377 58.112
103.669 3089 55.5788
103.786 3024 54.9909
103.903 2766 52.5928
104.02 2471 49.7092
104.137 2470 49.6991
104.253 2515 50.1498
104.37 2453 49.5278
104.487 2694 51.9038
104.603 2761 52.5452
104.72 2799 52.9056
104.836 2583 50.8232
104.953 2273 47.676
105.069 2207 46.9787
105.186 2034 45.0999
105.302 1981 44.5084
105.418 1886 43.4281
105.535 1880 43.359
105.651 1824 42.7083
105.767 1865 43.1856
105.883 2028 45.0333
105.999 2013 44.8665
106.115 0 1
106.231 0 1
106.347 0 1
106.463 0 1
106.579 0 1
106.694 0 1
106.81 0 1
106.926 0 1
107.041 0 1
107.157 0 1
109.576 0 1
109.692 0 1
109.807 0 1
109.923 0 1
110.039 0 1
110.155 0 1
110.27 0 1
110.386 0 1
110.502 0 1
110.618 1548 39.3446
110.735 1738 41.6893
110.851 2034 45.0999
110.967 2293 47.8853
111.083 2579 50.7839
111.199 2611 51.0979
111.316 2888 53.7401
111.432 2897 53.8238
111.549 3146 56.0892
111.665 3199 56.5597
111.782 3171 56.3116
111.898 3113 55.7943
112.015 2926 54.0925
112.132 2715 52.1057
112.248 2595 50.9411
112.365 2538 50.3786
112.482 2443 49.4267
112.599 2283 47.7807
112.716 2289 47.8435
112.832 2121 46.0543
112.949 2250 47.4342
113.066 2289 47.8435
113.183 2503 50.03
113.3 2578 50.774
113.417 2664 51.614
113.534 2549 50.4876
113.652 2469 49.689
113.769 2501 50.01
113.886 2467 49.6689
114.003 2434 49.3356
114.12 2504 50.04
114.238 2577 50.7642
114.355 2884 53.7029
114.472 3341 57.8014
114.589 3290 57.3585
114.707 3709 60.9016
114.824 3921 62.6179
114.942 3986 63.1348
115.059 3983 63.111
115.176 3940 62.7694
115.294 3934 62.7216
115.411 4012 63.3404
115.529 3583 59.8582
115.646 3275 57.2276
115.764 3115 55.8122
115.881 2838 53.2729
115.999 2670 51.672
116.116 2468 49.679
116.234 2414 49.1325
116.351 2351 48.4871
116.469 2282 47.7703
116.586 2379 48.775
116.704 2475 49.7494
116.821 2617 51.1566
116.939 2649 51.4684
117.056 2577 50.7642
117.174 2685 51.817
117.291 2705 52.0096
117.409 2642 51.4004
117.526 2622 51.2055
117.644 2546 50.4579
117.761 2838 53.2729
117.879 2941 54.231
117.996 3114 55.8032
118.114 3661 60.5062
118.231 3713 60.9344
118.349 3768 61.384
118.466 3911 62.538
118.584 3728 61.0574
118.701 3856 62.0967
118.819 3805 61.6847
118.936 3895 62.4099
119.053 3753 61.2617
119.171 3462 58.8388
119.288 3063 55.3444
119.405 2990 54.6809
119.523 2805 52.9623
119.64 2534 50.3389
119.757 2447 49.4672
119.875 2327 48.239
119.992 2345 48.4252
120.109 2232 47.244
120.226 2217 47.085
120.343 2276 47.7074
120.46 2505 50.05
120.578 2509 50.0899
120.695 2424 49.2341
120.812 2424 49.2341
120.929 2447 49.4672
121.046 2360 48.5798
121.163 2361 48.5901
121.279 2396 48.949
121.396 2377 48.7545
121.513 2381 48.7955
121.63 2698 51.9423
121.747 2818 53.0848
121.863 2896 53.8145
121.98 2961 54.4151
122.097 3060 55.3173
122.213 2959 54.3967
122.33 2898 53.8331
122.446 2883 53.6936
122.563 2744 52.3832
122.679 2575 50.7445
122.795 2379 48.775
122.912 2185 46.744
123.028 1958 44.2493
123.144 1883 43.3935
123.26 1667 40.8289
123.377 0 1
123.493 0 1
123.609 0 1
123.725 0 1
123.84 0 1
123.956 0 1
124.072 0 1
124.188 0 1
124.303 0 1
124.419 0 1
126.852 0 1
126.968 0 1
127.083 0 1
127.199 0 1
127.315 0 1
127.431 0 1
127.547 0 1
127.663 0 1
127.779 0 1
127.895 0 1
128.011 0 1
128.127 0 1
128.243 0 1
128.359 3069 55.3986
128.476 2908 53.9259
128.592 2829 53.1883
128.708 2772 52.6498
128.825 2775 52.6783
128.941 2664 51.614
129.058 2619 51.1762
129.174 2490 49.8999
129.291 2488 49.8799
129.408 2587 50.8626
129.524 2775 52.6783
129.641 2881 53.6749
129.758 2867 53.5444
129.875 2932 54.1479
129.992 2970 54.4977
130.108 3034 55.0818
130.225 2974 54.5344
130.342 3067 55.3805
130.459 3013 54.8908
130.576 3062 55.3353
130.693 3338 57.7754
130.81 3431 58.5747
130.928 3477 58.9661
131.045 3706 60.8769
131.162 3755 61.2781
131.279 3800 61.6441
131.396 3644 60.3656
131.513 3672 60.597
131.631 3631 60.2578
131.748 3525 59.3717
131.865 3306 57.4978
131.983 3248 56.9912
132.1 3067 55.3805
132.217 3084 55.5338
132.335 3003 54.7996
132.452 2786 52.7826
132.57 2704 52
132.687 2641 51.3907
132.804 2587 50.8626
132.922 2657 51.5461
133.039 2695 51.9134
133.157 2877 53.6377
133.274 2904 53.8888
133.392 2988 54.6626
133.509 3086 55.5518
133.627 3042 55.1543
133.744 3120 55.857
133.862 2932 54.1479
133.979 2971 54.5069
134.097 3157 56.1872
134.214 3160 56.2139
134.332 3312 57.55
134.449 3565 59.7076
134.567 3476 58.9576
134.684 3654 60.4483
134.802 3573 59.7746
134.919 3579 59.8247
135.037 3515 59.2874
135.154 3418 58.4637
135.272 3517 59.3043
135.389 3430 58.5662
135.507 3447 58.7112
135.624 3308 57.5152
135.742 3224 56.7803
135.859 3176 56.356
135.977 3058 55.2992
136.094 2981 54.5985
136.211 2877 53.6377
136.329 2808 52.9906
136.446 2767 52.6023
136.564 2734 52.2877
136.681 2909 53.9351
136.798 2963 54.4334
136.915 3000 54.7723
137.033 3111 55.7763
137.15 3189 56.4712
137.267 3212 56.6745
137.384 3118 55.8391
137.502 3051 55.2359
137.619 3031 55.0545
137.736 3090 55.5878
137.853 3044 55.1725
137.97 3187 56.4535
138.087 3386 58.1893
138.204 3327 57.6802
138.321 3273 57.2101
138.438 3300 57.4456
138.555 3214 56.6922
138.672 3316 57.5847
138.788 3119 55.848
138.905 3108 55.7494
139.022 2964 54.4426
139.139 2822 53.1225
139.255 2723 52.1824
139.372 2646 51.4393
139.488 2392 48.9081
139.605 2261 47.55
139.721 2107 45.9021
139.838 1961 44.2832
139.954 1843 42.9302
140.071 1772 42.0951
140.187 1670 40.8656
140.303 1592 39.8999
140.419 1572 39.6485
140.535 1429 37.8021
140.652 1452 38.1051
140.768 0 1
140.884 0 1
141 0 1
141.115 0 1
141.231 0 1
141.347 0 1
141.463 0 1
141.578 0 1
141.694 0 1
144.104 0 1
144.219 0 1
144.335 0 1
144.45 0 1
144.566 0 1
144.682 0 1
144.798 0 1
144.914 0 1
145.03 0 1
145.146 2081 45.618
145.262 2093 45.7493
145.378 2197 46.8722
145.494 2157 46.4435
145.61 2394 48.9285
145.726 2451 49.5076
145.842 2511 50.1099
145.959 2504 50.04
146.075 2530 50.2991
146.192 2531 50.309
146.308 2414 49.1325
146.425 2447 49.4672
146.541 2439 49.3862
146.658 2599 50.9804
146.774 2759 52.5262
146.891 2660 51.5752
147.008 2810 53.0094
147.125 2868 53.5537
147.241 2821 53.1131
147.358 2787 52.792
147.475 2847 53.3573
147.592 2925 54.0833
147.709 3016 54.9181
147.826 2838 53.2729
147.943 2844 53.3292
148.06 2855 53.4322
148.177 2716 52.1153
148.294 2582 50.8134
148.411 2614 51.1273
148.528 2613 51.1175
148.645 2633 51.3128
148.762 2474 49.7393
148.88 2541 50.4083
148.997 2530 50.2991
149.114 2487 49.8698
149.231 2501 50.01
149.349 2576 50.7543
149.466 2569 50.6853
149.583 2630 51.2835
149.701 2604 51.0294
149.818 2506 50.06
149.935 2594 50.9313
150.053 2506 50.06
150.17 2478 49.7795
150.287 2692 51.8845
150.405 2658 51.5558
150.522 2809 53
150.64 2780 52.7257
150.757 2874 53.6097
150.875 2879 53.6563
150.992 3002 54.7905
151.11 2975 54.5436
151.227 3067 55.3805
151.344 3019 54.9454
151.462 2925 54.0833
151.579 3023 54.9818
151.697 3014 54.8999
151.814 2870 53.5724
151.932 2774 52.6688
152.049 2765 52.5833
152.167 2768 52.6118
152.284 2685 51.817
152.402 2689 51.8556
152.519 2567 50.6656
152.636 2656 51.5364
152.754 2606 51.049
152.871 2656 51.5364
152.989 2689 51.8556
153.106 2746 52.4023
153.223 2829 53.1883
153.341 2707 52.0288
153.458 2651 51.4879
153.575 2650 51.4782
153.693 2607 51.0588
153.81 2684 51.8073
153.927 2796 52.8772
154.044 2860 53.479
154.162 2977 54.5619
154.279 3154 56.1605
154.396 3145 56.0803
154.513 3197 56.542
154.63 3310 57.5326
154.747 3226 56.7979
154.864 3159 56.205
154.981 3206 56.6216
155.098 3000 54.7723
155.215 2979 54.5802
155.332 2939 54.2125
155.449 2908 53.9259
155.566 2786 52.7826
155.683 2678 51.7494
155.8 2549 50.4876
155.917 2505 50.05
156.033 2453 49.5278
156.15 0 1
156.267 0 1
156.383 0 1
156.5 0 1
156.617 0 1
156.733 0 1
156.85 0 1
156.966 0 1
157.082 0 1
157.199 0 1
157.315 0 1
157.431 0 1
157.547 0 1
157.664 0 1
157.78 0 1
157.896 0 1
158.012 0 1
158.128 0 1
158.244 0 1
158.359 0 1
158.475 0 1
158.591 0 1
158.706 0 1
