
6.15755 0 1
6.2731 0 1
6.3887 0 1
6.50437 0 1
6.62009 0 1
6.73587 0 1
6.8517 0 1
6.96759 0 1
7.08353 0 1
7.19952 0 1
7.31557 0 1
7.43166 0 1
7.54781 0 1
7.664 0 1
7.78024 0 1
7.89653 0 1
8.01286 0 1
8.12924 0 1
8.24567 0 1
8.36213 0 1
8.47864 0 1
8.59519 0 1
8.71178 0 1
8.82841 0 1
8.94508 0 1
9.06179 0 1
9.17853 0 1
9.29531 0 1
9.41212 0 1
9.52897 0 1
9.64584 0 1
9.76276 0 1
9.8797 0 1
9.99667 0 1
10.1137 0 1
10.2307 0 1
10.3478 0 1
10.4648 0 1
10.5819 0 1
10.6991 0 1
10.8162 0 1
10.9334 0 1
11.0506 0 1
11.1678 0 1
11.285 0 1
11.4023 0 1
11.5196 0 1
11.6369 0 1
11.7542 0 1
11.8715 0 1
11.9888 0 1
12.1062 0 1
12.2235 0 1
12.3409 0 1
12.4582 0 1
12.5756 0 1
12.693 0 1
12.8104 0 1
12.9278 0 1
13.0452 0 1
13.1626 0 1
13.28 0 1
13.3974 0 1
13.5149 0 1
13.6323 0 1
13.7497 0 1
13.8671 0 1
13.9845 0 1
14.1019 0 1
14.2193 0 1
14.3367 0 1
14.4541 0 1
14.5714 0 1
14.6888 0 1
14.8062 0 1
14.9235 0 1
15.0408 0 0
15.1581 0 0
15.2755 0 0
15.3927 0 0
15.51 0 0
15.6273 0 0
15.7445 0 0
15.8617 0 0
15.9789 0 0
16.0961 0 0
16.2132 0 0
16.3304 0 0
16.4475 0 0
16.5646 0 0
16.6816 0 0
16.7986 0 0
16.9156 0 0
17.0326 0 0
17.1496 0 0
17.2665 0 0
17.3833 0 0
17.5002 0 0
17.617 0 0
17.7338 0 0
17.8505 0 0
17.9672 0 0
18.0839 0 0
18.2005 0 0
18.3171 0 0
18.4337 0 0
18.5502 0 0
18.6666 0 0
18.7831 0 0
18.8994 0 0
19.0158 0 0
19.1321 0 0
19.2483 0 0
19.3645 0 0
19.4806 0 0
19.5967 0 0
19.7128 0 0
19.8288 0 0
19.9447 0 0
20.0606 0 1
20.1764 0 1
20.2922 0 1
20.4079 0 1
20.5236 0 1
20.6392 0 1
20.7548 0 1
20.8702 0 1
23.3078 0 1
23.4233 0 1
23.539 0 1
23.6547 0 1
23.7704 0 1
23.8862 0 1
24.0021 0 1
24.118 0 1
24.234 0 1
24.35 0 1
24.4661 5542 74.4446
24.5822 5397 73.4643
24.6984 5339 73.0685
24.8146 5544 74.458
24.9309 5576 74.6726
25.0472 5511 74.2361
25.1636 5603 74.8532
25.28 5757 75.8749
25.3965 5828 76.3413
25.513 6001 77.4661
25.6296 6027 77.6338
25.7462 6238 78.981
25.8628 6016 77.5629
25.9795 6144 78.3837
26.0962 5840 76.4199
26.213 6134 78.3199
26.3298 6091 78.0449
26.4466 6084 78
26.5635 6103 78.1217
26.6804 6014 77.55
26.7973 5836 76.3937
26.9143 5517 74.2765
27.0313 5615 74.9333
27.1483 5741 75.7694
27.2653 5853 76.5049
27.3824 5991 77.4016
27.4996 6004 77.4855
27.6167 6030 77.6531
27.7339 5924 76.9675
27.8511 5728 75.6836
27.9683 5606 74.8732
28.0855 5526 74.3371
28.2028 5531 74.3707
28.3201 5408 73.5391
28.4374 5297 72.7805
28.5547 5124 71.5821
28.6721 5008 70.7672
28.7894 5189 72.0347
28.9068 5046 71.0352
29.0242 4971 70.5053
29.1416 4993 70.6612
29.259 4934 70.2424
29.3764 5208 72.1665
29.4939 5181 71.9792
29.6113 5485 74.0608
29.7288 5686 75.4056
29.8463 5763 75.9144
29.9638 5859 76.5441
30.0812 5951 77.1427
30.1987 5755 75.8617
30.3162 5614 74.9266
30.4337 5548 74.4849
30.5512 5492 74.108
30.6687 5585 74.7329
30.7862 5731 75.7034
30.9037 5843 76.4395
31.0212 5951 77.1427
31.1387 5721 75.6373
31.2562 5777 76.0066
31.3737 5626 75.0067
31.4912 5754 75.8551
31.6087 5532 74.3774
31.7262 5454 73.8512
31.8436 5291 72.7393
31.9611 5275 72.6292
32.0785 5425 73.6546
32.1959 5207 72.1595
32.3134 5183 71.9931
32.4308 5171 71.9097
32.5482 4875 69.8212
32.6655 4889 69.9214
32.7829 4988 70.6258
32.9002 4966 70.4699
33.0176 5078 71.2601
33.1349 5238 72.374
33.2522 5372 73.2939
33.3694 5781 76.0329
33.4867 5769 75.9539
33.6039 6070 77.9102
33.7211 6151 78.4283
33.8383 6092 78.0513
33.9554 5851 76.4918
34.0725 5701 75.505
34.1896 5636 75.0733
34.3067 5610 74.8999
34.4237 5557 74.5453
34.5407 5630 75.0333
34.6577 5803 76.1774
34.7746 5707 75.5447
34.8915 5705 75.5315
35.0084 5669 75.2928
35.1252 5652 75.1798
35.242 5544 74.458
35.3587 5578 74.686
35.4755 5574 74.6592
35.5921 5503 74.1822
35.7088 5413 73.5731
35.8254 5395 73.4507
35.9419 5324 72.9657
36.0584 5005 70.746
36.1749 4944 70.3136
36.2913 4962 70.4415
36.4077 4681 68.4178
36.524 4715 68.6659
36.6403 4666 68.3081
36.7565 4927 70.1926
36.8727 5221 72.2565
36.9889 5481 74.0338
37.1049 5639 75.0933
37.221 0 1
37.3369 0 1
37.4529 0 1
37.5687 0 1
37.6845 0 1
37.8003 0 1
37.916 0 1
38.0316 0 1
38.1472 0 1
40.5851 0 1
40.7008 0 1
40.8164 0 1
40.9322 0 1
41.048 0 1
41.1639 0 1
41.2798 0 1
41.3958 0 1
41.5118 0 1
41.6279 0 1
41.744 3676 60.63
41.8602 3899 62.442
41.9765 4064 63.7495
42.0928 4377 66.1589
42.2091 4657 68.2422
42.3255 5060 71.1337
42.4419 5199 72.1041
42.5584 5293 72.753
42.675 5292 72.7461
42.7915 5169 71.8958
42.9081 5014 70.8096
43.0248 4728 68.7605
43.1415 4991 70.647
43.2582 4818 69.4118
43.375 4921 70.1498
43.4918 5167 71.8818
43.6087 4854 69.6707
43.7256 4847 69.6204
43.8425 4805 69.3181
43.9595 4910 70.0714
44.0765 4950 70.3562
44.1935 4991 70.647
44.3106 5024 70.8802
44.4277 4891 69.9357
44.5448 4771 69.0724
44.6619 4483 66.9552
44.7791 4349 65.9469
44.8963 4147 64.3972
45.0136 3747 61.2127
45.1308 3538 59.4811
45.2481 3382 58.155
45.3654 3382 58.155
45.4827 3494 59.1101
45.6001 3727 61.0492
45.7174 3834 61.9193
45.8348 3872 62.2254
45.9522 4114 64.1405
46.0697 4212 64.8999
46.1871 4217 64.9384
46.3046 4229 65.0308
46.422 4196 64.7765
46.5395 4030 63.4823
46.657 4057 63.6946
46.7745 4148 64.405
46.892 4113 64.1327
47.0096 4010 63.3246
47.1271 4106 64.0781
47.2446 4104 64.0625
47.3622 3959 62.9206
47.4797 3996 63.2139
47.5973 4037 63.5374
47.7149 4088 63.9375
47.8324 3918 62.5939
47.95 3833 61.9112
48.0675 3726 61.041
48.1851 3534 59.4475
48.3027 3309 57.5239
48.4202 3107 55.7405
48.5378 3083 55.5248
48.6554 2798 52.8961
48.7729 2727 52.2207
48.8904 2766 52.5928
49.008 2840 53.2917
49.1255 3051 55.2359
49.243 3121 55.8659
49.3605 3190 56.4801
49.478 3387 58.1979
49.5955 3417 58.4551
49.713 3445 58.6941
49.8304 3796 61.6117
49.9479 3758 61.3025
50.0653 3661 60.5062
50.1827 3791 61.5711
50.3001 3807 61.7009
50.4175 4003 63.2693
50.5348 4111 64.1171
50.6521 4237 65.0922
50.7694 4343 65.9014
50.8867 4543 67.4018
51.004 4659 68.2569
51.1212 4753 68.942
51.2384 4983 70.5904
51.3556 5027 70.9013
51.4727 4877 69.8355
51.5899 4726 68.7459
51.707 4716 68.6731
51.824 4418 66.468
51.9411 4088 63.9375
52.0581 4075 63.8357
52.175 3862 62.145
52.2919 3721 61
52.4088 3600 60
52.5257 3701 60.8358
52.6425 4008 63.3088
52.7593 4224 64.9923
52.876 4382 66.1967
52.9927 4746 68.8912
53.1094 5248 72.4431
53.226 5342 73.089
53.3426 5554 74.5252
53.4591 5913 76.896
53.5756 5896 76.7854
53.692 5965 77.2334
53.8084 5969 77.2593
53.9248 5857 76.531
54.0411 6283 79.2654
54.1573 6343 79.643
54.2735 0 1
54.3896 0 1
54.5057 0 1
54.6217 0 1
54.7377 0 1
54.8537 0 1
54.9695 0 1
55.0853 0 1
55.2011 0 1
55.3168 0 1
55.4324 0 1
57.824 0 1
57.9396 0 1
58.0553 0 1
58.1711 0 1
58.2869 0 1
58.4028 0 1
58.5187 0 1
58.6347 0 1
58.7508 0 1
58.8669 0 1
58.983 6932 83.2586
59.0992 7066 84.0595
59.2155 7067 84.0655
59.3318 7738 87.9659
59.4482 7986 89.3644
59.5646 8174 90.4102
59.681 8380 91.5423
59.7975 8245 90.802
59.9141 8116 90.0888
60.0306 7738 87.9659
60.1473 7310 85.4985
60.2639 6878 82.9337
60.3807 6522 80.7589
60.4974 6242 79.0063
60.6142 5826 76.3282
60.731 5508 74.2159
60.8479 5066 71.1758
60.9648 5044 71.0211
61.0818 5166 71.8749
61.1987 5256 72.4983
61.3158 5380 73.3485
61.4328 5564 74.5922
61.5499 5560 74.5654
61.667 5838 76.4068
61.7841 5836 76.3937
61.9013 6165 78.5175
62.0185 6312 79.4481
62.1357 6373 79.8311
62.253 6529 80.8022
62.3702 6741 82.1036
62.4875 6795 82.4318
62.6049 6972 83.4985
62.7222 7433 86.2148
62.8396 7545 86.862
62.9569 7860 88.6566
63.0743 7934 89.073
63.1918 8016 89.5321
63.3092 7844 88.5664
63.4267 7655 87.4929
63.5441 7274 85.2877
63.6616 6718 81.9634
63.7791 6354 79.712
63.8966 5907 76.857
64.0142 5631 75.04
64.1317 5250 72.4569
64.2492 4895 69.9643
64.3668 4810 69.3542
64.4843 4754 68.9493
64.6019 4917 70.1213
64.7195 4948 70.342
64.837 5356 73.1847
64.9546 5155 71.7983
65.0722 5260 72.5259
65.1898 5387 73.3962
65.3074 5462 73.9053
65.4249 5741 75.7694
65.5425 5890 76.7463
65.6601 6040 77.7174
65.7777 6133 78.3135
65.8952 6309 79.4292
66.0128 6443 80.2683
66.1304 6784 82.365
66.2479 7082 84.1546
66.3655 7260 85.2056
66.483 7502 86.6141
66.6005 7844 88.5664
66.718 7717 87.8465
66.8355 7888 88.8144
66.953 7761 88.0965
67.0705 7286 85.3581
67.1879 6886 82.9819
67.3054 6200 78.7401
67.4228 5656 75.2064
67.5402 5407 73.5323
67.6576 5296 72.7736
67.7749 5245 72.4224
67.8923 5114 71.5122
68.0096 5031 70.9295
68.1269 5175 71.9375
68.2442 5519 74.29
68.3614 5804 76.184
68.4787 5978 77.3175
68.5958 5792 76.1052
68.713 5833 76.3741
68.8302 5726 75.6703
68.9473 5976 77.3046
69.0643 5966 77.2399
69.1814 6178 78.6003
69.2984 6502 80.635
69.4154 6682 81.7435
69.5323 6775 82.3104
69.6492 7272 85.276
69.7661 7535 86.8044
69.8829 7786 88.2383
69.9997 8050 89.7218
70.1165 8336 91.3017
70.2332 8400 91.6515
70.3499 8412 91.717
70.4665 8632 92.9086
70.5831 8361 91.4385
70.6996 7718 87.8521
70.8161 6983 83.5643
70.9326 6351 79.6932
71.049 6094 78.0641
71.1653 5959 77.1946
71.2817 5694 75.4586
71.3979 5644 75.1266
71.5141 5472 73.973
71.6303 5300 72.8011
71.7464 4831 69.5054
71.8624 0 1
71.9784 0 1
72.0944 0 1
72.2102 0 1
72.3261 0 1
72.4418 0 1
72.5575 0 1
72.6732 0 1
75.1054 0 1
75.2209 0 1
75.3365 0 1
75.4521 0 1
75.5678 0 1
75.6835 0 1
75.7993 0 1
75.9151 0 1
76.031 0 1
76.147 6552 80.9444
76.263 6410 80.0625
76.3791 6035 77.6853
76.4952 5844 76.4461
76.6113 5553 74.5185
76.7276 5439 73.7496
76.8438 5427 73.6682
76.9601 5293 72.753
77.0765 5381 73.3553
77.1929 5806 76.1971
77.3093 6495 80.5916
77.4258 6850 82.7647
77.5423 6802 82.4742
77.6589 6551 80.9382
77.7755 6314 79.4607
77.8921 6317 79.4796
78.0088 6394 79.9625
78.1256 6242 79.0063
78.2423 6702 81.8657
78.3591 6931 83.2526
78.4759 7427 86.18
78.5928 8095 89.9722
78.7097 8632 92.9086
78.8266 9350 96.6954
78.9436 9157 95.6922
79.0606 8931 94.504
79.1776 10266 101.321
79.2946 11389 106.719
79.4117 11205 105.854
79.5288 10626 103.082
79.6459 11155 105.617
79.7631 11258 106.104
79.8802 10764 103.75
79.9974 10328 101.627
80.1147 10396 101.961
80.2319 10089 100.444
80.3491 10031 100.155
80.4664 9936 99.6795
80.5837 10196 100.975
80.701 10109 100.544
80.8183 10360 101.784
80.9357 10787 103.86
81.053 11125 105.475
81.1704 11270 106.16
81.2877 10948 104.633
81.4051 10616 103.034
81.5225 10517 102.552
81.6399 9958 99.7898
81.7573 10311 101.543
81.8747 10027 100.135
81.9922 10043 100.215
82.1096 10212 101.054
82.227 10385 101.907
82.3444 11111 105.409
82.4619 11259 106.108
82.5793 11248 106.057
82.6967 9893 99.4636
82.8142 10254 101.262
82.9316 11272 106.17
83.049 11258 106.104
83.1664 9928 99.6393
83.2838 8774 93.6696
83.4012 9034 95.0474
83.5186 9488 97.4064
83.636 9410 97.0052
83.7534 9013 94.9368
83.8708 8924 94.4669
83.9881 8662 93.0699
84.1055 8531 92.3634
84.2228 8433 91.8314
84.3401 8670 93.1128
84.4575 8748 93.5307
84.5747 9230 96.0729
84.692 9732 98.6509
84.8093 9721 98.5951
84.9265 9121 95.5039
85.0437 8787 93.739
85.1609 8151 90.2829
85.2781 7967 89.2581
85.3952 7840 88.5438
85.5123 7720 87.8635
85.6294 7529 86.7698
85.7465 7577 87.046
85.8636 7609 87.2296
85.9806 8031 89.6158
86.0976 8163 90.3493
86.2145 7965 89.2468
86.3315 7800 88.3176
86.4484 7982 89.342
86.5652 8171 90.3936
86.682 7969 89.2693
86.7988 7502 86.6141
86.9156 6189 78.6702
87.0323 5645 75.1332
87.149 5177 71.9514
87.2657 5121 71.5612
87.3823 4917 70.1213
87.4988 4631 68.0515
87.6154 4529 67.2978
87.7318 4455 66.7458
87.8483 4352 65.9697
87.9647 4768 69.0507
88.081 5409 73.5459
88.1973 6090 78.0385
88.3136 6323 79.5173
88.4298 6038 77.7046
88.546 5468 73.9459
88.6621 5145 71.7287
88.7781 5084 71.3022
88.8942 0 1
89.0101 0 1
89.126 0 1
89.2419 0 1
89.3577 0 1
89.4734 0 1
89.5891 0 1
89.7047 0 1
89.8203 0 1
89.9358 0 1
92.3269 0 1
92.4424 0 1
92.558 0 1
92.6736 0 1
92.7893 0 1
92.905 0 1
93.0208 0 1
93.1366 0 1
93.2525 0 1
93.3685 0 1
93.4845 0 1
93.6005 4949 70.3491
93.7167 5455 73.858
93.8328 5273 72.6154
93.949 5067 71.1829
94.0653 4850 69.6419
94.1816 4580 67.6757
94.2979 4543 67.4018
94.4143 4487 66.9851
94.5307 4509 67.1491
94.6472 4656 68.2349
94.7637 4867 69.7639
94.8803 5004 70.739
94.9969 5728 75.6836
95.1135 6174 78.5748
95.2302 6827 82.6257
95.3469 6958 83.4146
95.4637 6957 83.4086
95.5805 6936 83.2827
95.6973 7019 83.7795
95.8142 6843 82.7224
95.9311 6432 80.1998
96.048 5664 75.2596
96.1649 4890 69.9285
96.2819 4585 67.7126
96.3989 4287 65.4752
96.516 4045 63.6003
96.633 3987 63.1427
96.7501 3819 61.7981
96.8673 3757 61.2944
96.9844 3718 60.9754
97.1016 3716 60.959
97.2188 4065 63.7574
97.336 4910 70.0714
97.4532 5123 71.5751
97.5704 5032 70.9366
97.6877 4645 68.1542
97.805 4240 65.1153
97.9223 3953 62.8729
98.0396 4032 63.498
98.1569 4057 63.6946
98.2743 4271 65.3529
98.3916 4248 65.1767
98.509 4501 67.0895
98.6264 4829 69.491
98.7438 5245 72.4224
98.8612 5747 75.809
98.9786 6512 80.697
99.096 6723 81.9939
99.2134 6775 82.3104
99.3308 6812 82.5348
99.4482 6676 81.7068
99.5656 6304 79.3977
99.6831 5435 73.7225
99.8005 4797 69.2604
99.9179 4430 66.5582
100.035 4229 65.0308
100.153 3943 62.7933
100.27 3576 59.7997
100.388 3570 59.7495
100.505 3435 58.6089
100.622 3386 58.1893
100.74 3539 59.4895
100.857 3959 62.9206
100.975 4526 67.2756
101.092 4798 69.2676
101.209 4638 68.1029
101.327 4186 64.6993
101.444 4036 63.5295
101.561 4036 63.5295
101.679 4077 63.8514
101.796 4201 64.8151
101.913 4414 66.4379
102.03 4633 68.0661
102.148 4821 69.4334
102.265 5953 77.1557
102.382 5825 76.3217
102.499 6624 81.388
102.616 7067 84.0655
102.733 7413 86.0988
102.851 7528 86.764
102.968 7132 84.4512
103.085 6835 82.6741
103.202 6178 78.6003
103.319 5563 74.5855
103.436 5176 71.9444
103.552 4729 68.7677
103.669 4219 64.9538
103.786 4017 63.3798
103.903 3909 62.522
104.02 3965 62.9682
104.137 3788 61.5467
104.253 4057 63.6946
104.37 4395 66.2948
104.487 4931 70.2211
104.603 5099 71.4073
104.72 4934 70.2424
104.836 4620 67.9706
104.953 4369 66.0984
105.069 4637 68.0955
105.186 4789 69.2026
105.302 4927 70.1926
105.418 5103 71.4353
105.535 5283 72.6842
105.651 5768 75.9474
105.767 6392 79.95
105.883 7371 85.8545
105.999 7884 88.7919
106.115 0 1
106.231 0 1
106.347 0 1
106.463 0 1
106.579 0 1
106.694 0 1
106.81 0 1
106.926 0 1
107.041 0 1
107.157 0 1
109.576 0 1
109.692 0 1
109.807 0 1
109.923 0 1
110.039 0 1
110.155 0 1
110.27 0 1
110.386 0 1
110.502 0 1
110.618 5196 72.0833
110.735 5735 75.7298
110.851 6384 79.8999
110.967 7177 84.7172
111.083 7320 85.557
111.199 7739 87.9716
111.316 7988 89.3756
111.432 8093 89.9611
111.549 7830 88.4873
111.665 7659 87.5157
111.782 6993 83.6242
111.898 6461 80.3803
112.015 5668 75.2861
112.132 5181 71.9792
112.248 4731 68.7823
112.365 4696 68.5274
112.482 4527 67.283
112.599 4356 66
112.716 4206 64.8537
112.832 4113 64.1327
112.949 4391 66.2646
113.066 4424 66.5132
113.183 4571 67.6092
113.3 4365 66.0681
113.417 4309 65.643
113.534 4515 67.1937
113.652 4589 67.7422
113.769 4845 69.606
113.886 5071 71.211
114.003 5279 72.6567
114.12 5674 75.326
114.238 6237 78.9747
114.355 6729 82.0305
114.472 7579 87.0575
114.589 7043 83.9226
114.707 7891 88.8313
114.824 8101 90.0056
114.942 8230 90.7193
115.059 8011 89.5042
115.176 8099 89.9944
115.294 7571 87.0115
115.411 7160 84.6168
115.529 6333 79.5801
115.646 5972 77.2787
115.764 5540 74.4312
115.881 5444 73.7835
115.999 5081 71.2811
116.116 4927 70.1926
116.234 4788 69.1954
116.351 4640 68.1175
116.469 4578 67.6609
116.586 4739 68.8404
116.704 4875 69.8212
116.821 4676 68.3813
116.939 4456 66.7533
117.056 4739 68.8404
117.174 4946 70.3278
117.291 5383 73.3689
117.409 5614 74.9266
117.526 5946 77.1103
117.644 6343 79.643
117.761 6816 82.5591
117.879 7283 85.3405
117.996 7389 85.9593
118.114 7780 88.2043
118.231 8056 89.7552
118.349 8277 90.978
118.466 8592 92.693
118.584 8750 93.5414
118.701 8785 93.7283
118.819 8370 91.4877
118.936 7837 88.5268
119.053 7590 87.1206
119.171 7207 84.8941
119.288 6777 82.3225
119.405 6414 80.0875
119.523 6062 77.8588
119.64 5947 77.1168
119.757 5462 73.9053
119.875 5372 73.2939
119.992 5001 70.7177
120.109 4783 69.1592
120.226 4886 69.8999
120.343 4603 67.8454
120.46 4508 67.1416
120.578 4698 68.542
120.695 4984 70.5975
120.812 5271 72.6017
120.929 5700 75.4983
121.046 6117 78.2113
121.163 6592 81.1911
121.279 6884 82.9699
121.396 7104 84.2852
121.513 7306 85.4751
121.63 7805 88.3459
121.747 8097 89.9833
121.863 7843 88.5607
121.98 8113 90.0722
122.097 8436 91.8477
122.213 8380 91.5423
122.33 8375 91.515
122.446 8331 91.2743
122.563 8051 89.7274
122.679 7705 87.7781
122.795 7571 87.0115
122.912 7305 85.4693
123.028 6781 82.3468
123.144 6581 81.1234
123.26 6158 78.4729
123.377 0 1
123.493 0 1
123.609 0 1
123.725 0 1
123.84 0 1
123.956 0 1
124.072 0 1
124.188 0 1
124.303 0 1
124.419 0 1
126.852 0 1
126.968 0 1
127.083 0 1
127.199 0 1
127.315 0 1
127.431 0 1
127.547 0 1
127.663 0 1
127.779 0 1
127.895 0 1
128.011 0 1
128.127 0 1
128.243 0 1
128.359 7758 88.0795
128.476 7578 87.0517
128.592 7344 85.6971
128.708 7148 84.5458
128.825 6676 81.7068
128.941 6573 81.074
129.058 6220 78.867
129.174 6100 78.1025
129.291 5550 74.4983
129.408 5589 74.7596
129.524 5710 75.5645
129.641 6119 78.224
129.758 6467 80.4177
129.875 6937 83.2887
129.992 7196 84.8292
130.108 7600 87.178
130.225 7691 87.6983
130.342 8085 89.9166
130.459 8065 89.8053
130.576 8387 91.5806
130.693 8243 90.791
130.81 8263 90.901
130.928 8249 90.824
131.045 8168 90.377
131.162 8308 91.1482
131.279 8390 91.5969
131.396 8479 92.0815
131.513 8461 91.9837
131.631 8386 91.5751
131.748 8248 90.8185
131.865 7799 88.3119
131.983 7657 87.5043
132.1 7560 86.9483
132.217 7036 83.8809
132.335 6932 83.2586
132.452 6840 82.7043
132.57 6211 78.8099
132.687 5854 76.5114
132.804 6221 78.8733
132.922 5697 75.4785
133.039 5994 77.4209
133.157 6018 77.5758
133.274 6391 79.9437
133.392 6653 81.5659
133.509 6967 83.4686
133.627 7197 84.8351
133.744 7618 87.2812
133.862 7827 88.4703
133.979 8047 89.7051
134.097 8269 90.934
134.214 8153 90.294
134.332 8182 90.4544
134.449 7969 89.2693
134.567 8221 90.6697
134.684 8497 92.1792
134.802 8640 92.9516
134.919 8623 92.8601
135.037 8769 93.6429
135.154 8817 93.8989
135.272 8949 94.5992
135.389 9023 94.9895
135.507 8920 94.4458
135.624 8908 94.3822
135.742 9114 95.4673
135.859 8702 93.2845
135.977 8330 91.2688
136.094 8096 89.9778
136.211 7715 87.8351
136.329 7772 88.1589
136.446 7548 86.8792
136.564 7593 87.1378
136.681 8059 89.7719
136.798 8343 91.34
136.915 8909 94.3875
137.033 9385 96.8762
137.15 9946 99.7296
137.267 10359 101.779
137.384 10660 103.247
137.502 10626 103.082
137.619 10925 104.523
137.736 11103 105.371
137.853 11093 105.323
137.97 11429 106.907
138.087 10940 104.594
138.204 11669 108.023
138.321 11924 109.197
138.438 11860 108.904
138.555 12111 110.05
138.672 11532 107.387
138.788 11754 108.416
138.905 11698 108.157
139.022 11661 107.986
139.139 12137 110.168
139.255 11943 109.284
139.372 11993 109.513
139.488 11725 108.282
139.605 11519 107.327
139.721 11010 104.929
139.838 10590 102.908
139.954 10255 101.267
140.071 9666 98.3158
140.187 9739 98.6864
140.303 9564 97.7957
140.419 9775 98.8686
140.535 9579 97.8724
140.652 9977 99.8849
140.768 0 1
140.884 0 1
141 0 1
141.115 0 1
141.231 0 1
141.347 0 1
141.463 0 1
141.578 0 1
141.694 0 1
144.104 0 1
144.219 0 1
144.335 0 1
144.45 0 1
144.566 0 1
144.682 0 1
144.798 0 1
144.914 0 1
145.03 0 1
145.146 9017 94.9579
145.262 9375 96.8246
145.378 9375 96.8246
145.494 9519 97.5654
145.61 9677 98.3717
145.726 9952 99.7597
145.842 10197 100.98
145.959 10097 100.484
146.075 9941 99.7046
146.192 10241 101.198
146.308 10276 101.371
146.425 10077 100.384
146.541 10185 100.921
146.658 10679 103.339
146.774 10501 102.474
146.891 10596 102.937
147.008 10898 104.393
147.125 11017 104.962
147.241 11089 105.304
147.358 10840 104.115
147.475 10437 102.162
147.592 10345 101.71
147.709 10328 101.627
147.826 10332 101.646
147.943 10698 103.431
148.06 10396 101.961
148.177 10502 102.479
148.294 10039 100.195
148.411 9942 99.7096
148.528 9744 98.7117
148.645 9259 96.2237
148.762 9494 97.4372
148.88 9361 96.7523
148.997 9465 97.2882
149.114 9587 97.9132
149.231 9527 97.6064
149.349 9884 99.4183
149.466 9490 97.4166
149.583 9738 98.6813
149.701 9657 98.27
149.818 9727 98.6256
149.935 9921 99.6042
150.053 9981 99.905
150.17 10145 100.722
150.287 10283 101.405
150.405 10344 101.705
150.522 10549 102.708
150.64 10657 103.233
150.757 10675 103.32
150.875 10658 103.238
150.992 10586 102.888
151.11 10408 102.02
151.227 10093 100.464
151.344 9837 99.1817
151.462 9805 99.0202
151.579 10097 100.484
151.697 10033 100.165
151.814 10188 100.936
151.932 10118 100.588
152.049 9594 97.949
152.167 9706 98.519
152.284 9286 96.3639
152.402 9399 96.9484
152.519 9386 96.8814
152.636 9412 97.0155
152.754 9517 97.5551
152.871 9546 97.7036
152.989 9724 98.6103
153.106 9729 98.6357
153.223 9764 98.813
153.341 9707 98.5241
153.458 9933 99.6644
153.575 10078 100.389
153.693 10200 100.995
153.81 10340 101.686
153.927 10525 102.591
154.044 10851 104.168
154.162 10986 104.814
154.279 11447 106.991
154.396 11325 106.419
154.513 11516 107.313
154.63 11629 107.838
154.747 11452 107.014
154.864 11318 106.386
154.981 11242 106.028
155.098 10825 104.043
155.215 10960 104.69
155.332 11036 105.052
155.449 11050 105.119
155.566 10741 103.639
155.683 10698 103.431
155.8 10330 101.637
155.917 10025 100.125
156.033 10035 100.175
156.15 0 1
156.267 0 1
156.383 0 1
156.5 0 1
156.617 0 1
156.733 0 1
156.85 0 1
156.966 0 1
157.082 0 1
157.199 0 1
157.315 0 1
157.431 0 1
157.547 0 1
157.664 0 1
157.78 0 1
157.896 0 1
158.012 0 1
158.128 0 1
158.244 0 1
158.359 0 1
158.475 0 1
158.591 0 1
158.706 0 1
