
6.15755 0 1
6.2731 0 1
6.3887 0 1
6.50437 0 1
6.62009 0 1
6.73587 0 1
6.8517 0 1
6.96759 0 1
7.08353 0 1
7.19952 0 1
7.31557 0 1
7.43166 0 1
7.54781 0 1
7.664 0 1
7.78024 0 1
7.89653 0 1
8.01286 0 1
8.12924 0 1
8.24567 0 1
8.36213 0 1
8.47864 0 1
8.59519 0 1
8.71178 0 1
8.82841 0 1
8.94508 0 1
9.06179 0 1
9.17853 0 1
9.29531 0 1
9.41212 0 1
9.52897 0 1
9.64584 0 1
9.76276 0 1
9.8797 0 1
9.99667 0 1
10.1137 0 1
10.2307 0 1
10.3478 0 1
10.4648 0 1
10.5819 0 1
10.6991 0 1
10.8162 0 1
10.9334 0 1
11.0506 0 1
11.1678 0 1
11.285 0 1
11.4023 0 1
11.5196 0 1
11.6369 0 1
11.7542 0 1
11.8715 0 1
11.9888 0 1
12.1062 0 1
12.2235 0 1
12.3409 0 1
12.4582 0 1
12.5756 0 1
12.693 0 1
12.8104 0 1
12.9278 0 1
13.0452 0 1
13.1626 0 1
13.28 0 1
13.3974 0 1
13.5149 0 1
13.6323 0 1
13.7497 0 1
13.8671 0 1
13.9845 0 1
14.1019 0 1
14.2193 0 1
14.3367 0 1
14.4541 0 1
14.5714 0 1
14.6888 0 1
14.8062 0 1
14.9235 0 1
15.0408 0 0
15.1581 0 0
15.2755 0 0
15.3927 0 0
15.51 0 0
15.6273 0 0
15.7445 0 0
15.8617 0 0
15.9789 0 0
16.0961 0 0
16.2132 0 0
16.3304 0 0
16.4475 0 0
16.5646 0 0
16.6816 0 0
16.7986 0 0
16.9156 0 0
17.0326 0 0
17.1496 0 0
17.2665 0 0
17.3833 0 0
17.5002 0 0
17.617 0 0
17.7338 0 0
17.8505 0 0
17.9672 0 0
18.0839 0 0
18.2005 0 0
18.3171 0 0
18.4337 0 0
18.5502 0 0
18.6666 0 0
18.7831 0 0
18.8994 0 0
19.0158 0 0
19.1321 0 0
19.2483 0 0
19.3645 0 0
19.4806 0 0
19.5967 0 0
19.7128 0 0
19.8288 0 0
19.9447 0 0
20.0606 0 1
20.1764 0 1
20.2922 0 1
20.4079 0 1
20.5236 0 1
20.6392 0 1
20.7548 0 1
20.8702 0 1
23.3078 0 1
23.4233 0 1
23.539 0 1
23.6547 0 1
23.7704 0 1
23.8862 0 1
24.0021 0 1
24.118 0 1
24.234 0 1
24.35 0 1
24.4661 4304 65.6049
24.5822 4231 65.0461
24.6984 4440 66.6333
24.8146 4565 67.5648
24.9309 4534 67.335
25.0472 4505 67.1193
25.1636 4759 68.9855
25.28 4672 68.352
25.3965 4863 69.7352
25.513 4778 69.1231
25.6296 4872 69.7997
25.7462 4936 70.2567
25.8628 4921 70.1498
25.9795 4918 70.1285
26.0962 4978 70.5549
26.213 4740 68.8477
26.3298 4663 68.2862
26.4466 4656 68.2349
26.5635 4515 67.1937
26.6804 4590 67.7495
26.7973 4382 66.1967
26.9143 4199 64.7997
27.0313 4124 64.2184
27.1483 4251 65.1997
27.2653 4121 64.195
27.3824 4342 65.8939
27.4996 4327 65.7799
27.6167 4052 63.6553
27.7339 3829 61.8789
27.8511 3723 61.0164
27.9683 3819 61.7981
28.0855 3641 60.3407
28.2028 3742 61.1719
28.3201 3681 60.6712
28.4374 3906 62.498
28.5547 3941 62.7774
28.6721 4017 63.3798
28.7894 4029 63.4744
28.9068 4015 63.364
29.0242 4045 63.6003
29.1416 4145 64.3817
29.259 4133 64.2884
29.3764 4207 64.8614
29.4939 3997 63.2218
29.6113 4156 64.467
29.7288 4097 64.0078
29.8463 4020 63.4035
29.9638 3988 63.1506
30.0812 4026 63.4508
30.1987 3921 62.6179
30.3162 3753 61.2617
30.4337 3611 60.0916
30.5512 3592 59.9333
30.6687 3439 58.643
30.7862 3575 59.7913
30.9037 3600 60
31.0212 3588 59.8999
31.1387 3513 59.2706
31.2562 3485 59.0339
31.3737 3334 57.7408
31.4912 3134 55.9821
31.6087 3229 56.8243
31.7262 3241 56.9298
31.8436 3289 57.3498
31.9611 3436 58.6174
32.0785 3570 59.7495
32.1959 3664 60.531
32.3134 3696 60.7947
32.4308 3660 60.4979
32.5482 3545 59.5399
32.6655 3722 61.0082
32.7829 3565 59.7076
32.9002 3566 59.716
33.0176 3680 60.663
33.1349 3628 60.2329
33.2522 3627 60.2246
33.3694 3544 59.5315
33.4867 3730 61.0737
33.6039 3511 59.2537
33.7211 3479 58.983
33.8383 3416 58.4466
33.9554 3500 59.1608
34.0725 3358 57.9483
34.1896 3243 56.9473
34.3067 3312 57.55
34.4237 3160 56.2139
34.5407 3186 56.4447
34.6577 3302 57.463
34.7746 3175 56.3471
34.8915 3103 55.7046
35.0084 3042 55.1543
35.1252 2923 54.0648
35.242 2868 53.5537
35.3587 2938 54.2033
35.4755 3023 54.9818
35.5921 3170 56.3028
35.7088 3172 56.3205
35.8254 3262 57.1139
35.9419 3345 57.836
36.0584 3278 57.2538
36.1749 3420 58.4808
36.2913 3455 58.7792
36.4077 3269 57.1752
36.524 3280 57.2713
36.6403 3247 56.9825
36.7565 3443 58.6771
36.8727 3313 57.5587
36.9889 3302 57.463
37.1049 3262 57.1139
37.221 0 1
37.3369 0 1
37.4529 0 1
37.5687 0 1
37.6845 0 1
37.8003 0 1
37.916 0 1
38.0316 0 1
38.1472 0 1
40.5851 0 1
40.7008 0 1
40.8164 0 1
40.9322 0 1
41.048 0 1
41.1639 0 1
41.2798 0 1
41.3958 0 1
41.5118 0 1
41.6279 0 1
41.744 2437 49.366
41.8602 2460 49.5984
41.9765 2492 49.9199
42.0928 2585 50.8429
42.2091 2488 49.8799
42.3255 2538 50.3786
42.4419 2486 49.8598
42.5584 2357 48.5489
42.675 2403 49.0204
42.7915 2396 48.949
42.9081 2324 48.2079
43.0248 2210 47.0106
43.1415 2256 47.4974
43.2582 2324 48.2079
43.375 2158 46.4543
43.4918 2213 47.0425
43.6087 2241 47.3392
43.7256 2109 45.9239
43.8425 2032 45.0777
43.9595 1943 44.0795
44.0765 1987 44.5758
44.1935 2001 44.7325
44.3106 2031 45.0666
44.4277 2097 45.793
44.5448 2170 46.5833
44.6619 2106 45.8912
44.7791 2028 45.0333
44.8963 2078 45.5851
45.0136 2107 45.9021
45.1308 2054 45.3211
45.2481 2021 44.9555
45.3654 1985 44.5533
45.4827 2087 45.6837
45.6001 2068 45.4753
45.7174 2062 45.4093
45.8348 1965 44.3283
45.9522 2019 44.9333
46.0697 1963 44.3058
46.1871 1960 44.2719
46.3046 1945 44.1022
46.422 1845 42.9535
46.5395 1810 42.5441
46.657 1771 42.0833
46.7745 1706 41.3038
46.892 1664 40.7922
47.0096 1680 40.9878
47.1271 1732 41.6173
47.2446 1665 40.8044
47.3622 1627 40.3361
47.4797 1444 38
47.5973 1552 39.3954
47.7149 1531 39.128
47.8324 1518 38.9615
47.95 1579 39.7366
48.0675 1616 40.1995
48.1851 1592 39.8999
48.3027 1686 41.0609
48.4202 1678 40.9634
48.5378 1558 39.4715
48.6554 1539 39.2301
48.7729 1591 39.8873
48.8904 1590 39.8748
49.008 1669 40.8534
49.1255 1615 40.1871
49.243 1616 40.1995
49.3605 1704 41.2795
49.478 1658 40.7185
49.5955 1649 40.6079
49.713 1697 41.1947
49.8304 1654 40.6694
49.9479 1754 41.8808
50.0653 1686 41.0609
50.1827 1587 39.8372
50.3001 1622 40.2741
50.4175 1583 39.7869
50.5348 1608 40.0999
50.6521 1646 40.5709
50.7694 1672 40.8901
50.8867 1602 40.025
51.004 1635 40.4351
51.1212 1581 39.7618
51.2384 1805 42.4853
51.3556 1775 42.1307
51.4727 1913 43.7379
51.5899 2120 46.0435
51.707 2039 45.1553
51.824 2139 46.2493
51.9411 2117 46.0109
52.0581 2217 47.085
52.175 2168 46.5618
52.2919 2151 46.3789
52.4088 2240 47.3286
52.5257 2231 47.2335
52.6425 2302 47.9792
52.7593 2318 48.1456
52.876 2277 47.7179
52.9927 2388 48.8672
53.1094 2363 48.6107
53.226 2405 49.0408
53.3426 2557 50.5668
53.4591 2443 49.4267
53.5756 2558 50.5767
53.692 2422 49.2138
53.8084 2430 49.295
53.9248 2302 47.9792
54.0411 2387 48.8569
54.1573 2261 47.55
54.2735 0 1
54.3896 0 1
54.5057 0 1
54.6217 0 1
54.7377 0 1
54.8537 0 1
54.9695 0 1
55.0853 0 1
55.2011 0 1
55.3168 0 1
55.4324 0 1
57.824 0 1
57.9396 0 1
58.0553 0 1
58.1711 0 1
58.2869 0 1
58.4028 0 1
58.5187 0 1
58.6347 0 1
58.7508 0 1
58.8669 0 1
58.983 2817 53.0754
59.0992 2815 53.0566
59.2155 2661 51.5849
59.3318 2643 51.4101
59.4482 2658 51.5558
59.5646 2594 50.9313
59.681 2575 50.7445
59.7975 2560 50.5964
59.9141 2694 51.9038
60.0306 2745 52.3927
60.1473 2762 52.5547
60.2639 2787 52.792
60.3807 2839 53.2823
60.4974 2865 53.5257
60.6142 2830 53.1977
60.731 2803 52.9434
60.8479 2779 52.7162
60.9648 2796 52.8772
61.0818 2803 52.9434
61.1987 2766 52.5928
61.3158 2737 52.3163
61.4328 2715 52.1057
61.5499 2666 51.6333
61.667 2769 52.6213
61.7841 2782 52.7447
61.9013 2665 51.6236
62.0185 2694 51.9038
62.1357 2659 51.5655
62.253 2661 51.5849
62.3702 2643 51.4101
62.4875 2568 50.6754
62.6049 2437 49.366
62.7222 2449 49.4874
62.8396 2537 50.3686
62.9569 2447 49.4672
63.0743 2385 48.8365
63.1918 2324 48.2079
63.3092 2356 48.5386
63.4267 2472 49.7192
63.5441 2504 50.04
63.6616 2546 50.4579
63.7791 2492 49.9199
63.8966 2552 50.5173
64.0142 2452 49.5177
64.1317 2535 50.3488
64.2492 2557 50.5668
64.3668 2519 50.1896
64.4843 2472 49.7192
64.6019 2493 49.93
64.7195 2545 50.448
64.837 2438 49.3761
64.9546 2482 49.8197
65.0722 2412 49.1121
65.1898 2473 49.7293
65.3074 2556 50.5569
65.4249 2501 50.01
65.5425 2486 49.8598
65.6601 2407 49.0612
65.7777 2486 49.8598
65.8952 2518 50.1797
66.0128 2379 48.775
66.1304 2363 48.6107
66.2479 2191 46.8081
66.3655 2248 47.4131
66.483 2290 47.8539
66.6005 2192 46.8188
66.718 2140 46.2601
66.8355 2130 46.1519
66.953 2241 47.3392
67.0705 2268 47.6235
67.1879 2424 49.2341
67.3054 2421 49.2037
67.4228 2432 49.3153
67.5402 2372 48.7032
67.6576 2398 48.9694
67.7749 2372 48.7032
67.8923 2502 50.02
68.0096 2391 48.8979
68.1269 2337 48.3425
68.2442 2472 49.7192
68.3614 2376 48.7442
68.4787 2488 49.8799
68.5958 2438 49.3761
68.713 2412 49.1121
68.8302 2458 49.5782
68.9473 2423 49.224
69.0643 2474 49.7393
69.1814 2411 49.1019
69.2984 2514 50.1398
69.4154 2458 49.5782
69.5323 2520 50.1996
69.6492 2482 49.8197
69.7661 2455 49.548
69.8829 2297 47.927
69.9997 2332 48.2908
70.1165 2236 47.2864
70.2332 2191 46.8081
70.3499 2124 46.0869
70.4665 2208 46.9894
70.5831 2242 47.3498
70.6996 2460 49.5984
70.8161 2435 49.3457
70.9326 2510 50.0999
71.049 2458 49.5782
71.1653 2448 49.4773
71.2817 2468 49.679
71.3979 2349 48.4665
71.5141 2370 48.6826
71.6303 2288 47.833
71.7464 2083 45.6399
71.8624 0 1
71.9784 0 1
72.0944 0 1
72.2102 0 1
72.3261 0 1
72.4418 0 1
72.5575 0 1
72.6732 0 1
75.1054 0 1
75.2209 0 1
75.3365 0 1
75.4521 0 1
75.5678 0 1
75.6835 0 1
75.7993 0 1
75.9151 0 1
76.031 0 1
76.147 2102 45.8476
76.263 2255 47.4868
76.3791 2350 48.4768
76.4952 2352 48.4974
76.6113 2447 49.4672
76.7276 2377 48.7545
76.8438 2420 49.1935
76.9601 2354 48.518
77.0765 2357 48.5489
77.1929 2278 47.7284
77.3093 2343 48.4045
77.4258 2317 48.1352
77.5423 2210 47.0106
77.6589 2264 47.5815
77.7755 2318 48.1456
77.8921 2277 47.7179
78.0088 2337 48.3425
78.1256 2302 47.9792
78.2423 2269 47.634
78.3591 2301 47.9687
78.4759 2324 48.2079
78.5928 2166 46.5403
78.7097 2200 46.9042
78.8266 2371 48.6929
78.9436 2055 45.3321
79.0606 1993 44.643
79.1776 1783 42.2256
79.2946 1748 41.8091
79.4117 1834 42.8252
79.5288 2007 44.7996
79.6459 2125 46.0977
79.7631 2088 45.6946
79.8802 2111 45.9456
79.9974 2011 44.8442
80.1147 2097 45.793
80.2319 2021 44.9555
80.3491 2044 45.2106
80.4664 2061 45.3982
80.5837 1985 44.5533
80.701 2036 45.1221
80.8183 2051 45.288
80.9357 2062 45.4093
81.053 2021 44.9555
81.1704 1900 43.589
81.2877 2041 45.1774
81.4051 1893 43.5086
81.5225 2038 45.1442
81.6399 1877 43.3244
81.7573 1956 44.2267
81.8747 1950 44.1588
81.9922 1834 42.8252
82.1096 1912 43.7264
82.227 1899 43.5775
82.3444 1896 43.5431
82.4619 1881 43.3705
82.5793 1888 43.4511
82.6967 1820 42.6615
82.8142 1556 39.4462
82.9316 1475 38.4057
83.049 1442 37.9737
83.1664 1632 40.398
83.2838 1700 41.2311
83.4012 1673 40.9023
83.5186 1742 41.7373
83.636 1746 41.7852
83.7534 1732 41.6173
83.8708 1762 41.9762
83.9881 1662 40.7676
84.1055 1678 40.9634
84.2228 1622 40.2741
84.3401 1667 40.8289
84.4575 1649 40.6079
84.5747 1712 41.3763
84.692 1652 40.6448
84.8093 1678 40.9634
84.9265 1650 40.6202
85.0437 1655 40.6817
85.1609 1655 40.6817
85.2781 1596 39.95
85.3952 1659 40.7308
85.5123 1610 40.1248
85.6294 1705 41.2916
85.7465 1594 39.9249
85.8636 1590 39.8748
85.9806 1661 40.7554
86.0976 1728 41.5692
86.2145 1665 40.8044
86.3315 1576 39.6989
86.4484 1449 38.0657
86.5652 1497 38.6911
86.682 1511 38.8716
86.7988 1680 40.9878
86.9156 1731 41.6053
87.0323 1679 40.9756
87.149 1587 39.8372
87.2657 1549 39.3573
87.3823 1577 39.7115
87.4988 1597 39.9625
87.6154 1600 40
87.7318 1600 40
87.8483 1650 40.6202
87.9647 1585 39.8121
88.081 1655 40.6817
88.1973 1589 39.8623
88.3136 1607 40.0874
88.4298 1605 40.0625
88.546 1622 40.2741
88.6621 1608 40.0999
88.7781 1488 38.5746
88.8942 0 1
89.0101 0 1
89.126 0 1
89.2419 0 1
89.3577 0 1
89.4734 0 1
89.5891 0 1
89.7047 0 1
89.8203 0 1
89.9358 0 1
92.3269 0 1
92.4424 0 1
92.558 0 1
92.6736 0 1
92.7893 0 1
92.905 0 1
93.0208 0 1
93.1366 0 1
93.2525 0 1
93.3685 0 1
93.4845 0 1
93.6005 1506 38.8072
93.7167 1649 40.6079
93.8328 1602 40.025
93.949 1535 39.1791
94.0653 1578 39.724
94.1816 1542 39.2683
94.2979 1576 39.6989
94.4143 1546 39.3192
94.5307 1619 40.2368
94.6472 1611 40.1373
94.7637 1649 40.6079
94.8803 1661 40.7554
94.9969 1620 40.2492
95.1135 1772 42.0951
95.2302 1777 42.1545
95.3469 1678 40.9634
95.4637 1664 40.7922
95.5805 1587 39.8372
95.6973 1449 38.0657
95.8142 1424 37.7359
95.9311 1725 41.5331
96.048 1804 42.4735
96.1649 1843 42.9302
96.2819 1767 42.0357
96.3989 1771 42.0833
96.516 1778 42.1663
96.633 1761 41.9643
96.7501 1771 42.0833
96.8673 1815 42.6028
96.9844 1696 41.1825
97.1016 1725 41.5331
97.2188 1730 41.5933
97.336 1794 42.3556
97.4532 1803 42.4617
97.5704 1770 42.0714
97.6877 1678 40.9634
97.805 1736 41.6653
97.9223 1655 40.6817
98.0396 1706 41.3038
98.1569 1672 40.8901
98.2743 1694 41.1582
98.3916 1649 40.6079
98.509 1715 41.4126
98.6264 1722 41.497
98.7438 1711 41.3642
98.8612 1618 40.2244
98.9786 1720 41.4729
99.096 1525 39.0512
99.2134 1571 39.6358
99.3308 1481 38.4838
99.4482 1580 39.7492
99.5656 1588 39.8497
99.6831 1621 40.2616
99.8005 1650 40.6202
99.9179 1687 41.0731
100.035 1736 41.6653
100.153 1619 40.2368
100.27 1633 40.4104
100.388 1606 40.0749
100.505 1609 40.1123
100.622 1652 40.6448
100.74 1708 41.328
100.857 1695 41.1704
100.975 1689 41.0974
101.092 1689 41.0974
101.209 1766 42.0238
101.327 1684 41.0366
101.444 1615 40.1871
101.561 1701 41.2432
101.679 1695 41.1704
101.796 1717 41.4367
101.913 1685 41.0488
102.03 1764 42
102.148 1660 40.7431
102.265 1844 42.9418
102.382 1656 40.694
102.499 1689 41.0974
102.616 1776 42.1426
102.733 1633 40.4104
102.851 1545 39.3065
102.968 1557 39.4588
103.085 1639 40.4846
103.202 1681 41
103.319 1719 41.4608
103.436 1769 42.0595
103.552 1693 41.1461
103.669 1601 40.0125
103.786 1642 40.5216
103.903 1631 40.3856
104.02 1621 40.2616
104.137 1572 39.6485
104.253 1518 38.9615
104.37 1566 39.5727
104.487 1571 39.6358
104.603 1644 40.5463
104.72 1514 38.9102
104.836 1448 38.0526
104.953 1483 38.5097
105.069 1430 37.8153
105.186 1444 38
105.302 1420 37.6829
105.418 1455 38.1445
105.535 1468 38.3145
105.651 1353 36.7831
105.767 1413 37.5899
105.883 1390 37.2827
105.999 1370 37.0135
106.115 0 1
106.231 0 1
106.347 0 1
106.463 0 1
106.579 0 1
106.694 0 1
106.81 0 1
106.926 0 1
107.041 0 1
107.157 0 1
109.576 0 1
109.692 0 1
109.807 0 1
109.923 0 1
110.039 0 1
110.155 0 1
110.27 0 1
110.386 0 1
110.502 0 1
110.618 794 28.178
110.735 850 29.1548
110.851 818 28.6007
110.967 874 29.5635
111.083 818 28.6007
111.199 803 28.3373
111.316 856 29.2575
111.432 834 28.8791
111.549 784 28
111.665 732 27.0555
111.782 728 26.9815
111.898 730 27.0185
112.015 769 27.7308
112.132 760 27.5681
112.248 810 28.4605
112.365 713 26.7021
112.482 726 26.9444
112.599 715 26.7395
112.716 785 28.0179
112.832 722 26.8701
112.949 714 26.7208
113.066 729 27
113.183 769 27.7308
113.3 739 27.1846
113.417 770 27.7489
113.534 693 26.3249
113.652 758 27.5318
113.769 681 26.096
113.886 736 27.1293
114.003 734 27.0924
114.12 781 27.9464
114.238 783 27.9821
114.355 708 26.6083
114.472 765 27.6586
114.589 667 25.8263
114.707 588 24.2487
114.824 788 28.0713
114.942 749 27.3679
115.059 846 29.0861
115.176 845 29.0689
115.294 789 28.0891
115.411 743 27.258
115.529 847 29.1033
115.646 802 28.3196
115.764 841 29
115.881 884 29.7321
115.999 898 29.9666
116.116 849 29.1376
116.234 851 29.1719
116.351 845 29.0689
116.469 857 29.2746
116.586 906 30.0998
116.704 890 29.8329
116.821 858 29.2916
116.939 878 29.6311
117.056 867 29.4449
117.174 964 31.0483
117.291 943 30.7083
117.409 948 30.7896
117.526 978 31.273
117.644 975 31.225
117.761 1046 32.3419
117.879 1038 32.218
117.996 951 30.8383
118.114 879 29.6479
118.231 851 29.1719
118.349 745 27.2947
118.466 991 31.4802
118.584 990 31.4643
118.701 1060 32.5576
118.819 1143 33.8083
118.936 1083 32.909
119.053 1058 32.5269
119.171 1066 32.6497
119.288 1098 33.1361
119.405 1120 33.4664
119.523 1083 32.909
119.64 1187 34.4529
119.757 1177 34.3074
119.875 1191 34.5109
119.992 1172 34.2345
120.109 1216 34.8712
120.226 1138 33.7343
120.343 1185 34.4238
120.46 1147 33.8674
120.578 1169 34.1906
120.695 1209 34.7707
120.812 1206 34.7275
120.929 1274 35.6931
121.046 1288 35.8887
121.163 1198 34.6121
121.279 1304 36.1109
121.396 1347 36.7015
121.513 1304 36.1109
121.63 1237 35.171
121.747 1163 34.1028
121.863 1034 32.1559
121.98 987 31.4166
122.097 961 31
122.213 1126 33.5559
122.33 1254 35.4119
122.446 1393 37.3229
122.563 1376 37.0945
122.679 1374 37.0675
122.795 1342 36.6333
122.912 1352 36.7696
123.028 1392 37.3095
123.144 1415 37.6165
123.26 1476 38.4187
123.377 0 1
123.493 0 1
123.609 0 1
123.725 0 1
123.84 0 1
123.956 0 1
124.072 0 1
124.188 0 1
124.303 0 1
124.419 0 1
126.852 0 1
126.968 0 1
127.083 0 1
127.199 0 1
127.315 0 1
127.431 0 1
127.547 0 1
127.663 0 1
127.779 0 1
127.895 0 1
128.011 0 1
128.127 0 1
128.243 0 1
128.359 1833 42.8135
128.476 1866 43.1972
128.592 1758 41.9285
128.708 1889 43.4626
128.825 1768 42.0476
128.941 1921 43.8292
129.058 1798 42.4028
129.174 1793 42.3438
129.291 1828 42.7551
129.408 1824 42.7083
129.524 1916 43.7721
129.641 1826 42.7317
129.758 1799 42.4146
129.875 1823 42.6966
129.992 1917 43.7836
130.108 1901 43.6005
130.225 1927 43.8976
130.342 1824 42.7083
130.459 1734 41.6413
130.576 1759 41.9404
130.693 1636 40.4475
130.81 1437 37.9078
130.928 1410 37.55
131.045 1443 37.9868
131.162 1614 40.1746
131.279 1775 42.1307
131.396 1912 43.7264
131.513 1981 44.5084
131.631 1901 43.6005
131.748 1994 44.6542
131.865 1922 43.8406
131.983 1942 44.0681
132.1 1989 44.5982
132.217 2023 44.9778
132.335 1941 44.0568
132.452 1986 44.5646
132.57 1952 44.1814
132.687 1953 44.1928
132.804 1988 44.587
132.922 1963 44.3058
133.039 1976 44.4522
133.157 2017 44.911
133.274 1970 44.3847
133.392 2033 45.0888
133.509 1966 44.3396
133.627 2077 45.5741
133.744 2006 44.7884
133.862 1958 44.2493
133.979 1991 44.6206
134.097 1773 42.107
134.214 1676 40.939
134.332 1623 40.2865
134.449 1573 39.6611
134.567 1669 40.8534
134.684 1755 41.8927
134.802 1916 43.7721
134.919 1968 44.3621
135.037 2069 45.4863
135.154 2066 45.4533
135.272 2166 46.5403
135.389 2127 46.1194
135.507 2063 45.4203
135.624 2094 45.7602
135.742 2103 45.8585
135.859 2159 46.465
135.977 2045 45.2217
136.094 2191 46.8081
136.211 2119 46.0326
136.329 2120 46.0435
136.446 2105 45.8803
136.564 2031 45.0666
136.681 2167 46.551
136.798 2147 46.3357
136.915 2185 46.744
137.033 2189 46.7868
137.15 2136 46.2169
137.267 2181 46.7012
137.384 2135 46.2061
137.502 2147 46.3357
137.619 2010 44.833
137.736 1934 43.9773
137.853 1763 41.9881
137.97 1752 41.8569
138.087 1828 42.7551
138.204 1785 42.2493
138.321 1900 43.589
138.438 1939 44.0341
138.555 2092 45.7384
138.672 2244 47.3709
138.788 2119 46.0326
138.905 2253 47.4658
139.022 2150 46.3681
139.139 2281 47.7598
139.255 2287 47.8226
139.372 2360 48.5798
139.488 2323 48.1975
139.605 2290 47.8539
139.721 2266 47.6025
139.838 2303 47.9896
139.954 2105 45.8803
140.071 2194 46.8402
140.187 2141 46.2709
140.303 2226 47.1805
140.419 2271 47.655
140.535 2236 47.2864
140.652 2235 47.2758
140.768 0 1
140.884 0 1
141 0 1
141.115 0 1
141.231 0 1
141.347 0 1
141.463 0 1
141.578 0 1
141.694 0 1
144.104 0 1
144.219 0 1
144.335 0 1
144.45 0 1
144.566 0 1
144.682 0 1
144.798 0 1
144.914 0 1
145.03 0 1
145.146 2014 44.8776
145.262 2053 45.31
145.378 2110 45.9347
145.494 2039 45.1553
145.61 2038 45.1442
145.726 1993 44.643
145.842 2033 45.0888
145.959 2058 45.3652
146.075 1980 44.4972
146.192 1915 43.7607
146.308 1782 42.2137
146.425 1694 41.1582
146.541 1732 41.6173
146.658 1675 40.9268
146.774 1721 41.4849
146.891 1760 41.9524
147.008 1838 42.8719
147.125 1888 43.4511
147.241 1961 44.2832
147.358 1925 43.8748
147.475 1908 43.6807
147.592 1926 43.8862
147.709 1998 44.699
147.826 2006 44.7884
147.943 2034 45.0999
148.06 1953 44.1928
148.177 2068 45.4753
148.294 2003 44.7549
148.411 1946 44.1135
148.528 2087 45.6837
148.645 2031 45.0666
148.762 1964 44.317
148.88 1992 44.6318
148.997 1859 43.1161
149.114 1982 44.5197
149.231 2015 44.8888
149.349 1940 44.0454
149.466 1880 43.359
149.583 1904 43.6348
149.701 1779 42.1782
149.818 1818 42.638
149.935 1721 41.4849
150.053 1668 40.8412
150.17 1597 39.9625
150.287 1597 39.9625
150.405 1647 40.5832
150.522 1712 41.3763
150.64 1714 41.4005
150.757 1889 43.4626
150.875 1829 42.7668
150.992 1883 43.3935
151.11 1758 41.9285
151.227 1871 43.2551
151.344 1990 44.6094
151.462 1952 44.1814
151.579 1923 43.852
151.697 1914 43.7493
151.814 1971 44.3959
151.932 1996 44.6766
152.049 1966 44.3396
152.167 2000 44.7214
152.284 1867 43.2088
152.402 2033 45.0888
152.519 1936 44
152.636 2031 45.0666
152.754 1956 44.2267
152.871 1922 43.8406
152.989 1941 44.0568
153.106 1938 44.0227
153.223 1852 43.0349
153.341 1838 42.8719
153.458 1747 41.7971
153.575 1747 41.7971
153.693 1711 41.3642
153.81 1621 40.2616
153.927 1755 41.8927
154.044 1651 40.6325
154.162 1721 41.4849
154.279 1927 43.8976
154.396 1947 44.1248
154.513 1932 43.9545
154.63 1963 44.3058
154.747 1886 43.4281
154.864 1946 44.1135
154.981 1954 44.2041
155.098 2128 46.1303
155.215 2100 45.8258
155.332 2085 45.6618
155.449 2042 45.1885
155.566 2089 45.7056
155.683 2000 44.7214
155.8 1954 44.2041
155.917 2070 45.4973
156.033 1963 44.3058
156.15 0 1
156.267 0 1
156.383 0 1
156.5 0 1
156.617 0 1
156.733 0 1
156.85 0 1
156.966 0 1
157.082 0 1
157.199 0 1
157.315 0 1
157.431 0 1
157.547 0 1
157.664 0 1
157.78 0 1
157.896 0 1
158.012 0 1
158.128 0 1
158.244 0 1
158.359 0 1
158.475 0 1
158.591 0 1
158.706 0 1
