
6.15755 0 1
6.2731 0 1
6.3887 0 1
6.50437 0 1
6.62009 0 1
6.73587 0 1
6.8517 0 1
6.96759 0 1
7.08353 0 1
7.19952 0 1
7.31557 0 1
7.43166 0 1
7.54781 0 1
7.664 0 1
7.78024 0 1
7.89653 0 1
8.01286 0 1
8.12924 0 1
8.24567 0 1
8.36213 0 1
8.47864 0 1
8.59519 0 1
8.71178 0 1
8.82841 0 1
8.94508 0 1
9.06179 0 1
9.17853 0 1
9.29531 0 1
9.41212 0 1
9.52897 0 1
9.64584 0 1
9.76276 0 1
9.8797 0 1
9.99667 0 1
10.1137 0 1
10.2307 0 1
10.3478 0 1
10.4648 0 1
10.5819 0 1
10.6991 0 1
10.8162 0 1
10.9334 0 1
11.0506 0 1
11.1678 0 1
11.285 0 1
11.4023 0 1
11.5196 0 1
11.6369 0 1
11.7542 0 1
11.8715 0 1
11.9888 0 1
12.1062 0 1
12.2235 0 1
12.3409 0 1
12.4582 0 1
12.5756 0 1
12.693 0 1
12.8104 0 1
12.9278 0 1
13.0452 0 1
13.1626 0 1
13.28 0 1
13.3974 0 1
13.5149 0 1
13.6323 0 1
13.7497 0 1
13.8671 0 1
13.9845 0 1
14.1019 0 1
14.2193 0 1
14.3367 0 1
14.4541 0 1
14.5714 0 1
14.6888 0 1
14.8062 0 1
14.9235 0 1
15.0408 3390 58.2237
15.1581 3463 58.8473
15.2755 3552 59.5987
15.3927 3503 59.1861
15.51 3501 59.1692
15.6273 3487 59.0508
15.7445 3240 56.921
15.8617 3302 57.463
15.9789 3427 58.5406
16.0961 3589 59.9083
16.2132 3758 61.3025
16.3304 3891 62.3779
16.4475 3852 62.0645
16.5646 3987 63.1427
16.6816 3971 63.0159
16.7986 3941 62.7774
16.9156 3919 62.6019
17.0326 3858 62.1128
17.1496 4007 63.3009
17.2665 3989 63.1585
17.3833 3895 62.4099
17.5002 3923 62.6339
17.617 3924 62.6418
17.7338 4034 63.5138
17.8505 4238 65.0999
17.9672 4220 64.9615
18.0839 4196 64.7765
18.2005 4304 65.6049
18.3171 4392 66.2722
18.4337 4518 67.2161
18.5502 4577 67.6535
18.6666 4538 67.3647
18.7831 4650 68.1909
18.8994 4563 67.55
19.0158 4437 66.6108
19.1321 4309 65.643
19.2483 4235 65.0769
19.3645 4195 64.7688
19.4806 4225 65
19.5967 4359 66.0227
19.7128 4479 66.9253
19.8288 4487 66.9851
19.9447 4168 64.56
20.0606 0 1
20.1764 0 1
20.2922 0 1
20.4079 0 1
20.5236 0 1
20.6392 0 1
20.7548 0 1
20.8702 0 1
23.3078 0 1
23.4233 0 1
23.539 0 1
23.6547 0 1
23.7704 0 1
23.8862 0 1
24.0021 0 1
24.118 0 1
24.234 0 1
24.35 0 1
24.4661 4225 65
24.5822 4310 65.6506
24.6984 4354 65.9848
24.8146 4413 66.4304
24.9309 4704 68.5857
25.0472 4685 68.4471
25.1636 4798 69.2676
25.28 4989 70.6329
25.3965 4912 70.0857
25.513 4831 69.5054
25.6296 4907 70.05
25.7462 4747 68.8985
25.8628 4805 69.3181
25.9795 4718 68.6877
26.0962 4712 68.644
26.213 4759 68.9855
26.3298 4958 70.4131
26.4466 4936 70.2567
26.5635 5245 72.4224
26.6804 5158 71.8192
26.7973 5245 72.4224
26.9143 5584 74.7262
27.0313 5463 73.9121
27.1483 5504 74.1889
27.2653 5558 74.552
27.3824 5602 74.8465
27.4996 5596 74.8064
27.6167 5391 73.4234
27.7339 5150 71.7635
27.8511 4952 70.3704
27.9683 4967 70.4769
28.0855 4673 68.3593
28.2028 4648 68.1762
28.3201 4669 68.3301
28.4374 4896 69.9714
28.5547 5079 71.2671
28.6721 5073 71.225
28.7894 5354 73.171
28.9068 5272 72.6085
29.0242 5159 71.8262
29.1416 5007 70.7602
29.259 4846 69.6132
29.3764 4741 68.8549
29.4939 4631 68.0515
29.6113 4678 68.3959
29.7288 4578 67.6609
29.8463 4657 68.2422
29.9638 5017 70.8308
30.0812 5243 72.4086
30.1987 5289 72.7255
30.3162 5421 73.6274
30.4337 5483 74.0473
30.5512 5558 74.552
30.6687 5503 74.1822
30.7862 5775 75.9934
30.9037 5692 75.4453
31.0212 5660 75.233
31.1387 5585 74.7329
31.2562 5428 73.675
31.3737 5450 73.8241
31.4912 5111 71.4913
31.6087 4964 70.4557
31.7262 4846 69.6132
31.8436 4794 69.2387
31.9611 5011 70.7884
32.0785 5187 72.0208
32.1959 5183 71.9931
32.3134 5326 72.9794
32.4308 5472 73.973
32.5482 5304 72.8286
32.6655 5405 73.5187
32.7829 5172 71.9166
32.9002 4868 69.7711
33.0176 4847 69.6204
33.1349 4665 68.3008
33.2522 4965 70.4628
33.3694 4888 69.9142
33.4867 4914 70.0999
33.6039 5236 72.3602
33.7211 5333 73.0274
33.8383 5323 72.9589
33.9554 5561 74.5721
34.0725 5626 75.0067
34.1896 5567 74.6123
34.3067 5743 75.7826
34.4237 5905 76.844
34.5407 5874 76.642
34.6577 5902 76.8245
34.7746 5643 75.1199
34.8915 5607 74.8799
35.0084 5475 73.9932
35.1252 5177 71.9514
35.242 5191 72.0486
35.3587 5203 72.1318
35.4755 4992 70.6541
35.5921 5106 71.4563
35.7088 5092 71.3583
35.8254 5303 72.8217
35.9419 5486 74.0675
36.0584 5518 74.2832
36.1749 5636 75.0733
36.2913 5508 74.2159
36.4077 5421 73.6274
36.524 5050 71.0634
36.6403 4946 70.3278
36.7565 4804 69.3109
36.8727 4903 70.0214
36.9889 4759 68.9855
37.1049 4914 70.0999
37.221 0 1
37.3369 0 1
37.4529 0 1
37.5687 0 1
37.6845 0 1
37.8003 0 1
37.916 0 1
38.0316 0 1
38.1472 0 1
40.5851 0 1
40.7008 0 1
40.8164 0 1
40.9322 0 1
41.048 0 1
41.1639 0 1
41.2798 0 1
41.3958 0 1
41.5118 0 1
41.6279 0 1
41.744 3892 62.3859
41.8602 4177 64.6297
41.9765 4155 64.4593
42.0928 4183 64.6761
42.2091 4360 66.0303
42.3255 4488 66.9925
42.4419 4651 68.1982
42.5584 4712 68.644
42.675 5101 71.4213
42.7915 5075 71.239
42.9081 5309 72.8629
43.0248 5376 73.3212
43.1415 5406 73.5255
43.2582 5206 72.1526
43.375 5406 73.5255
43.4918 5395 73.4507
43.6087 5291 72.7393
43.7256 5128 71.6101
43.8425 5006 70.7531
43.9595 4900 70
44.0765 4815 69.3902
44.1935 4457 66.7608
44.3106 4356 66
44.4277 4461 66.7907
44.5448 4492 67.0224
44.6619 4630 68.0441
44.7791 4735 68.8113
44.8963 4694 68.5128
45.0136 4548 67.4389
45.1308 4354 65.9848
45.2481 4156 64.467
45.3654 3723 61.0164
45.4827 3618 60.1498
45.6001 3846 62.0161
45.7174 3593 59.9416
45.8348 3674 60.6135
45.9522 3969 63
46.0697 4075 63.8357
46.1871 4048 63.6239
46.3046 4186 64.6993
46.422 4367 66.0833
46.5395 4409 66.4003
46.657 4500 67.082
46.7745 4397 66.3099
46.892 4469 66.8506
47.0096 4506 67.1267
47.1271 4404 66.3626
47.2446 4391 66.2646
47.3622 4255 65.2304
47.4797 4140 64.3428
47.5973 3996 63.2139
47.7149 3809 61.7171
47.8324 3852 62.0645
47.95 3753 61.2617
48.0675 3789 61.5549
48.1851 3808 61.709
48.3027 3880 62.2896
48.4202 3781 61.4898
48.5378 3697 60.803
48.6554 3629 60.2412
48.7729 3374 58.0861
48.8904 3324 57.6541
49.008 3098 55.6597
49.1255 3097 55.6507
49.243 3113 55.7943
49.3605 3098 55.6597
49.478 3340 57.7927
49.5955 3490 59.0762
49.713 3568 59.7327
49.8304 3801 61.6523
49.9479 3921 62.6179
50.0653 4031 63.4902
50.1827 3980 63.0872
50.3001 4171 64.5833
50.4175 4359 66.0227
50.5348 4255 65.2304
50.6521 4257 65.2457
50.7694 4412 66.4229
50.8867 4251 65.1997
51.004 4204 64.8383
51.1212 4343 65.9014
51.2384 4180 64.6529
51.3556 4098 64.0156
51.4727 4140 64.3428
51.5899 4357 66.0076
51.707 4583 67.6979
51.824 4815 69.3902
51.9411 4872 69.7997
52.0581 4777 69.1158
52.175 4682 68.4251
52.2919 4485 66.9701
52.4088 4403 66.3551
52.5257 4215 64.923
52.6425 4141 64.3506
52.7593 4135 64.304
52.876 4214 64.9153
52.9927 4516 67.2012
53.1094 4855 69.6778
53.226 5097 71.3933
53.3426 5395 73.4507
53.4591 5804 76.184
53.5756 5930 77.0065
53.692 6152 78.4347
53.8084 6300 79.3725
53.9248 6217 78.848
54.0411 6437 80.2309
54.1573 6372 79.8248
54.2735 0 1
54.3896 0 1
54.5057 0 1
54.6217 0 1
54.7377 0 1
54.8537 0 1
54.9695 0 1
55.0853 0 1
55.2011 0 1
55.3168 0 1
55.4324 0 1
57.824 0 1
57.9396 0 1
58.0553 0 1
58.1711 0 1
58.2869 0 1
58.4028 0 1
58.5187 0 1
58.6347 0 1
58.7508 0 1
58.8669 0 1
58.983 7244 85.1117
59.0992 7671 87.5842
59.2155 7738 87.9659
59.3318 7616 87.2697
59.4482 7607 87.2181
59.5646 7472 86.4407
59.681 7478 86.4754
59.7975 7214 84.9353
59.9141 7292 85.3932
60.0306 7199 84.8469
60.1473 6996 83.6421
60.2639 7166 84.6522
60.3807 6997 83.6481
60.4974 7173 84.6936
60.6142 7113 84.3386
60.731 6730 82.0366
60.8479 6374 79.8373
60.9648 6219 78.8606
61.0818 5763 75.9144
61.1987 5601 74.8398
61.3158 5513 74.2496
61.4328 5592 74.7797
61.5499 5784 76.0526
61.667 6013 77.5435
61.7841 6373 79.8311
61.9013 6708 81.9024
62.0185 6951 83.3727
62.1357 7163 84.6345
62.253 7216 84.947
62.3702 7514 86.6833
62.4875 7298 85.4283
62.6049 7499 86.5968
62.7222 7357 85.773
62.8396 7479 86.4812
62.9569 7443 86.2728
63.0743 7239 85.0823
63.1918 7058 84.0119
63.3092 6920 83.1865
63.4267 6921 83.1925
63.5441 6756 82.1949
63.6616 6723 81.9939
63.7791 6866 82.8613
63.8966 6675 81.7007
64.0142 6760 82.2192
64.1317 6690 81.7924
64.2492 6579 81.111
64.3668 6164 78.5111
64.4843 5951 77.1427
64.6019 5499 74.1552
64.7195 5290 72.7324
64.837 5101 71.4213
64.9546 5216 72.2219
65.0722 5422 73.6342
65.1898 5606 74.8732
65.3074 6086 78.0128
65.4249 6192 78.6893
65.5425 6518 80.7341
65.6601 6854 82.7889
65.7777 7149 84.5518
65.8952 7308 85.4868
66.0128 7547 86.8735
66.1304 7450 86.3134
66.2479 7437 86.238
66.3655 7341 85.6796
66.483 7400 86.0233
66.6005 7254 85.1704
66.718 7196 84.8292
66.8355 7235 85.0588
66.953 7044 83.9285
67.0705 7133 84.4571
67.1879 6931 83.2526
67.3054 7071 84.0892
67.4228 6933 83.2646
67.5402 7161 84.6227
67.6576 7185 84.7644
67.7749 7116 84.3564
67.8923 7110 84.3208
68.0096 6577 81.0987
68.1269 6258 79.1075
68.2442 5788 76.0789
68.3614 5724 75.6571
68.4787 5494 74.1215
68.5958 5481 74.0338
68.713 5738 75.7496
68.8302 6158 78.4729
68.9473 6481 80.5047
69.0643 7026 83.8212
69.1814 7531 86.7813
69.2984 7827 88.4703
69.4154 8015 89.5265
69.5323 8429 91.8096
69.6492 8455 91.9511
69.7661 8905 94.3663
69.8829 8685 93.1933
69.9997 8755 93.5682
70.1165 8783 93.7177
70.2332 8849 94.0691
70.3499 8902 94.3504
70.4665 8685 93.1933
70.5831 8636 92.9301
70.6996 8579 92.6229
70.8161 8463 91.9946
70.9326 8336 91.3017
71.049 8403 91.6679
71.1653 8518 92.293
71.2817 8506 92.228
71.3979 8373 91.5041
71.5141 7943 89.1235
71.6303 7520 86.7179
71.7464 6608 81.2896
71.8624 0 1
71.9784 0 1
72.0944 0 1
72.2102 0 1
72.3261 0 1
72.4418 0 1
72.5575 0 1
72.6732 0 1
75.1054 0 1
75.2209 0 1
75.3365 0 1
75.4521 0 1
75.5678 0 1
75.6835 0 1
75.7993 0 1
75.9151 0 1
76.031 0 1
76.147 8208 90.598
76.263 8731 93.4398
76.3791 9119 95.4935
76.4952 9616 98.0612
76.6113 9642 98.1937
76.7276 9802 99.0051
76.8438 9283 96.3483
76.9601 8499 92.19
77.0765 8135 90.1942
77.1929 7295 85.4108
77.3093 6752 82.1706
77.4258 6551 80.9382
77.5423 6411 80.0687
77.6589 6676 81.7068
77.7755 7237 85.0706
77.8921 8051 89.7274
78.0088 8488 92.1303
78.1256 9342 96.654
78.2423 9711 98.5444
78.3591 10229 101.139
78.4759 10451 102.23
78.5928 10619 103.049
78.7097 10673 103.31
78.8266 10260 101.292
78.9436 11012 104.938
79.0606 10664 103.267
79.1776 10393 101.946
79.2946 10419 102.074
79.4117 10329 101.632
79.5288 9936 99.6795
79.6459 10002 100.01
79.7631 9647 98.2191
79.8802 9712 98.5495
79.9974 9787 98.9293
80.1147 10011 100.055
80.2319 10008 100.04
80.3491 10089 100.444
80.4664 9870 99.3479
80.5837 9422 97.067
80.701 8590 92.6823
80.8183 8039 89.6605
80.9357 7040 83.9047
81.053 6708 81.9024
81.1704 6506 80.6598
81.2877 6479 80.4922
81.4051 6922 83.1986
81.5225 7528 86.764
81.6399 8317 91.1976
81.7573 9050 95.1315
81.8747 9553 97.7394
81.9922 10021 100.105
82.1096 10284 101.41
82.227 10445 102.201
82.3444 10439 102.171
82.4619 10421 102.083
82.5793 10475 102.347
82.6967 10237 101.178
82.8142 10068 100.339
82.9316 10136 100.678
83.049 9880 99.3982
83.1664 9855 99.2724
83.2838 9634 98.1529
83.4012 9370 96.7988
83.5186 9123 95.5144
83.636 9309 96.4832
83.7534 9361 96.7523
83.8708 9487 97.4012
83.9881 9624 98.102
84.1055 9549 97.719
84.2228 8892 94.2974
84.3401 8425 91.7878
84.4575 7787 88.244
84.5747 6939 83.3007
84.692 6487 80.5419
84.8093 6289 79.3032
84.9265 6366 79.7872
85.0437 6760 82.2192
85.1609 7447 86.296
85.2781 8486 92.1195
85.3952 9113 95.462
85.5123 9829 99.1413
85.6294 10487 102.406
85.7465 10968 104.728
85.8636 11140 105.546
85.9806 11370 106.63
86.0976 11471 107.103
86.2145 11689 108.116
86.3315 11971 109.412
86.4484 11389 106.719
86.5652 11878 108.986
86.682 12025 109.659
86.7988 12065 109.841
86.9156 11833 108.78
87.0323 11727 108.291
87.149 11912 109.142
87.2657 11825 108.743
87.3823 12064 109.836
87.4988 12416 111.427
87.6154 12716 112.765
87.7318 12203 110.467
87.8483 11514 107.303
87.9647 10506 102.499
88.081 9927 99.6343
88.1973 8827 93.9521
88.3136 8447 91.9076
88.4298 8275 90.967
88.546 8549 92.4608
88.6621 9316 96.5194
88.7781 10324 101.607
88.8942 0 1
89.0101 0 1
89.126 0 1
89.2419 0 1
89.3577 0 1
89.4734 0 1
89.5891 0 1
89.7047 0 1
89.8203 0 1
89.9358 0 1
92.3269 0 1
92.4424 0 1
92.558 0 1
92.6736 0 1
92.7893 0 1
92.905 0 1
93.0208 0 1
93.1366 0 1
93.2525 0 1
93.3685 0 1
93.4845 0 1
93.6005 9299 96.4313
93.7167 9256 96.2081
93.8328 9120 95.4987
93.949 9705 98.514
94.0653 10345 101.71
94.1816 11489 107.187
94.2979 12648 112.463
94.4143 13301 115.33
94.5307 14116 118.811
94.6472 14622 120.921
94.7637 14956 122.295
94.8803 15101 122.886
94.9969 15471 124.382
95.1135 15327 123.802
95.2302 15468 124.37
95.3469 15516 124.563
95.4637 15237 123.438
95.5805 15293 123.665
95.6973 15362 123.944
95.8142 15288 123.645
95.9311 15171 123.171
96.048 15115 122.943
96.1649 14917 122.135
96.2819 14704 121.26
96.3989 15010 122.515
96.516 14904 122.082
96.633 15520 124.579
96.7501 14886 122.008
96.8673 14593 120.801
96.9844 13414 115.819
97.1016 12491 111.763
97.2188 11497 107.224
97.336 10537 102.65
97.4532 9861 99.3026
97.5704 9749 98.737
97.6877 9721 98.5951
97.805 10642 103.16
97.9223 11659 107.977
98.0396 12967 113.873
98.1569 13902 117.907
98.2743 14452 120.216
98.3916 15465 124.358
98.509 15716 125.363
98.6264 16111 126.929
98.7438 15882 126.024
98.8612 16064 126.744
98.9786 16042 126.657
99.096 15982 126.42
99.2134 15739 125.455
99.3308 15839 125.853
99.4482 16045 126.669
99.5656 15841 125.861
99.6831 15636 125.044
99.8005 15350 123.895
99.9179 15236 123.434
100.035 15504 124.515
100.153 15467 124.366
100.27 15765 125.559
100.388 15897 126.083
100.505 15012 122.523
100.622 13919 117.979
100.74 12585 112.183
100.857 11678 108.065
100.975 10733 103.6
101.092 10124 100.618
101.209 10245 101.218
101.327 10433 102.142
101.444 11331 106.447
101.561 12549 112.022
101.679 13810 117.516
101.796 14978 122.385
101.913 15816 125.762
102.03 16283 127.605
102.148 16462 128.304
102.265 16201 127.283
102.382 17134 130.897
102.499 16594 128.818
102.616 16562 128.693
102.733 16198 127.271
102.851 16495 128.433
102.968 16478 128.367
103.085 16532 128.577
103.202 16157 127.11
103.319 16126 126.988
103.436 16053 126.7
103.552 15993 126.463
103.669 16202 127.287
103.786 16431 128.183
103.903 16529 128.565
104.02 15797 125.686
104.137 14861 121.906
104.253 14057 118.562
104.37 12689 112.645
104.487 11659 107.977
104.603 11389 106.719
104.72 10910 104.451
104.836 11337 106.475
104.953 12422 111.454
105.069 13392 115.724
105.186 14634 120.971
105.302 16013 126.542
105.418 16647 129.023
105.535 17482 132.22
105.651 17724 133.132
105.767 17610 132.703
105.883 17647 132.842
105.999 17880 133.716
106.115 0 1
106.231 0 1
106.347 0 1
106.463 0 1
106.579 0 1
106.694 0 1
106.81 0 1
106.926 0 1
107.041 0 1
107.157 0 1
109.576 0 1
109.692 0 1
109.807 0 1
109.923 0 1
110.039 0 1
110.155 0 1
110.27 0 1
110.386 0 1
110.502 0 1
110.618 15535 124.639
110.735 16087 126.835
110.851 16494 128.429
110.967 16447 128.246
111.083 16514 128.507
111.199 16251 127.479
111.316 16500 128.452
111.432 16757 129.449
111.549 16461 128.3
111.665 16213 127.33
111.782 15841 125.861
111.898 15542 124.668
112.015 15717 125.367
112.132 16127 126.992
112.248 15963 126.345
112.365 16017 126.558
112.482 14871 121.947
112.599 14830 121.778
112.716 13325 115.434
112.832 12491 111.763
112.949 11318 106.386
113.066 10713 103.504
113.183 10426 102.108
113.3 10443 102.191
113.417 11193 105.797
113.534 12019 109.631
113.652 12892 113.543
113.769 13646 116.816
113.886 14666 121.103
114.003 14766 121.515
114.12 15409 124.133
114.238 15422 124.185
114.355 15562 124.748
114.472 15524 124.595
114.589 15547 124.688
114.707 15110 122.923
114.824 14987 122.421
114.942 15393 124.069
115.059 15571 124.784
115.176 15552 124.708
115.294 15526 124.603
115.411 14761 121.495
115.529 14889 122.02
115.646 14991 122.438
115.764 15363 123.948
115.881 15262 123.539
115.999 15394 124.073
116.116 14554 120.64
116.234 14065 118.596
116.351 12921 113.671
116.469 12106 110.027
116.586 11092 105.319
116.704 10518 102.557
116.821 10223 101.109
116.939 10666 103.276
117.056 11053 105.133
117.174 11817 108.706
117.291 12762 112.969
117.409 13722 117.141
117.526 14375 119.896
117.644 15065 122.74
117.761 14962 122.319
117.879 15199 123.284
117.996 15355 123.915
118.114 15531 124.623
118.231 15005 122.495
118.349 14762 121.499
118.466 14805 121.676
118.584 14952 122.278
118.701 15063 122.731
118.819 15098 122.874
118.936 14938 122.221
119.053 14318 119.658
119.171 14302 119.591
119.288 14371 119.879
119.405 14759 121.487
119.523 14639 120.992
119.64 14598 120.822
119.757 14223 119.26
119.875 13638 116.782
119.992 12852 113.367
120.109 12136 110.164
120.226 11168 105.679
120.343 10633 103.116
120.46 10478 102.362
120.578 10102 100.509
120.695 10558 102.752
120.812 10857 104.197
120.929 11866 108.931
121.046 12641 112.432
121.163 13336 115.482
121.279 13778 117.38
121.396 14390 119.958
121.513 14445 120.187
121.63 14705 121.264
121.747 14364 119.85
121.863 14562 120.673
121.98 14249 119.369
122.097 14245 119.352
122.213 14123 118.84
122.33 14126 118.853
122.446 14298 119.574
122.563 14124 118.844
122.679 13764 117.32
122.795 13741 117.222
122.912 13642 116.799
123.028 13663 116.889
123.144 14030 118.448
123.26 13811 117.52
123.377 0 1
123.493 0 1
123.609 0 1
123.725 0 1
123.84 0 1
123.956 0 1
124.072 0 1
124.188 0 1
124.303 0 1
124.419 0 1
126.852 0 1
126.968 0 1
127.083 0 1
127.199 0 1
127.315 0 1
127.431 0 1
127.547 0 1
127.663 0 1
127.779 0 1
127.895 0 1
128.011 0 1
128.127 0 1
128.243 0 1
128.359 14700 121.244
128.476 14650 121.037
128.592 14722 121.334
128.708 14164 119.013
128.825 13335 115.477
128.941 12929 113.706
129.058 12343 111.099
129.174 11516 107.313
129.291 11409 106.813
129.408 11302 106.311
129.524 11356 106.565
129.641 11393 106.738
129.758 12498 111.794
129.875 12903 113.591
129.992 13564 116.465
130.108 14177 119.067
130.225 14152 118.962
130.342 14630 120.955
130.459 14442 120.175
130.576 14705 121.264
130.693 14304 119.599
130.81 13962 118.161
130.928 14117 118.815
131.045 14490 120.374
131.162 14685 121.182
131.279 14962 122.319
131.396 14780 121.573
131.513 14182 119.088
131.631 14327 119.695
131.748 14516 120.482
131.865 14617 120.901
131.983 14635 120.975
132.1 14277 119.486
132.217 14266 119.44
132.335 13580 116.533
132.452 13168 114.752
132.57 12404 111.373
132.687 11650 107.935
132.804 11624 107.815
132.922 11092 105.319
133.039 11145 105.57
133.157 11437 106.944
133.274 11617 107.782
133.392 12319 110.991
133.509 12781 113.053
133.627 13228 115.013
133.744 13788 117.422
133.862 13945 118.089
133.979 14069 118.613
134.097 14038 118.482
134.214 13842 117.652
134.332 13992 118.288
134.449 13416 115.827
134.567 13552 116.413
134.684 13900 117.898
134.802 14101 118.748
134.919 14264 119.432
135.037 14088 118.693
135.154 13734 117.192
135.272 13801 117.478
135.389 14045 118.512
135.507 14179 119.076
135.624 13900 117.898
135.742 13920 117.983
135.859 13518 116.267
135.977 13155 114.695
136.094 12491 111.763
136.211 12183 110.377
136.329 11458 107.042
136.446 11282 106.217
136.564 11108 105.394
136.681 10859 104.207
136.798 11335 106.466
136.915 11665 108.005
137.033 12087 109.941
137.15 12602 112.259
137.267 12914 113.64
137.384 12945 113.776
137.502 13273 115.209
137.619 13261 115.156
137.736 13337 115.486
137.853 13119 114.538
137.97 13133 114.599
138.087 12497 111.79
138.204 12879 113.486
138.321 13142 114.639
138.438 13382 115.681
138.555 13459 116.013
138.672 13521 116.28
138.788 13326 115.438
138.905 13500 116.19
139.022 13472 116.069
139.139 13746 117.243
139.255 13763 117.316
139.372 13666 116.902
139.488 13331 115.46
139.605 13044 114.21
139.721 12596 112.232
139.838 12201 110.458
139.954 11627 107.829
140.071 11013 104.943
140.187 10972 104.747
140.303 11039 105.067
140.419 10919 104.494
140.535 10619 103.049
140.652 11114 105.423
140.768 0 1
140.884 0 1
141 0 1
141.115 0 1
141.231 0 1
141.347 0 1
141.463 0 1
141.578 0 1
141.694 0 1
144.104 0 1
144.219 0 1
144.335 0 1
144.45 0 1
144.566 0 1
144.682 0 1
144.798 0 1
144.914 0 1
145.03 0 1
145.146 7688 87.6812
145.262 8434 91.8368
145.378 8520 92.3038
145.494 8755 93.5682
145.61 8913 94.4087
145.726 9208 95.9583
145.842 9493 97.432
145.959 9603 97.9949
146.075 9727 98.6256
146.192 10041 100.205
146.308 10160 100.797
146.425 10415 102.054
146.541 10104 100.519
146.658 9891 99.4535
146.774 9833 99.1615
146.891 9638 98.1733
147.008 9883 99.4133
147.125 9903 99.5138
147.241 10189 100.941
147.358 10343 101.701
147.475 10525 102.591
147.592 10413 102.044
147.709 10565 102.786
147.826 10644 103.17
147.943 10531 102.621
148.06 10500 102.47
148.177 10234 101.163
148.294 10321 101.592
148.411 9990 99.95
148.528 9945 99.7246
148.645 9783 98.909
148.762 9570 97.8264
148.88 9264 96.2497
148.997 8949 94.5992
149.114 9222 96.0312
149.231 9261 96.2341
149.349 9155 95.6818
149.466 9599 97.9745
149.583 9803 99.0101
149.701 9856 99.2774
149.818 10049 100.245
149.935 10099 100.494
150.053 10307 101.523
150.17 10324 101.607
150.287 10260 101.292
150.405 9966 99.8299
150.522 9788 98.9343
150.64 9919 99.5942
150.757 9974 99.8699
150.875 9994 99.97
150.992 10446 102.206
151.11 10667 103.281
151.227 10560 102.762
151.344 10477 102.357
151.462 10356 101.764
151.579 10913 104.465
151.697 10701 103.446
151.814 10682 103.354
151.932 10715 103.513
152.049 10383 101.897
152.167 10097 100.484
152.284 9995 99.975
152.402 9738 98.6813
152.519 9500 97.4679
152.636 9279 96.3276
152.754 9182 95.8228
152.871 9175 95.7862
152.989 9103 95.4096
153.106 9632 98.1428
153.223 9727 98.6256
153.341 9979 99.8949
153.458 10022 100.11
153.575 10373 101.848
153.693 10543 102.679
153.81 10211 101.049
153.927 10148 100.737
154.044 9985 99.925
154.162 10028 100.14
154.279 10040 100.2
154.396 10205 101.02
154.513 10450 102.225
154.63 10665 103.271
154.747 10877 104.293
154.864 11089 105.304
154.981 11165 105.665
155.098 11168 105.679
155.215 11164 105.66
155.332 11094 105.328
155.449 10849 104.159
155.566 10843 104.13
155.683 10699 103.436
155.8 10235 101.168
155.917 10441 102.181
156.033 10171 100.851
156.15 0 1
156.267 0 1
156.383 0 1
156.5 0 1
156.617 0 1
156.733 0 1
156.85 0 1
156.966 0 1
157.082 0 1
157.199 0 1
157.315 0 1
157.431 0 1
157.547 0 1
157.664 0 1
157.78 0 1
157.896 0 1
158.012 0 1
158.128 0 1
158.244 0 1
158.359 0 1
158.475 0 1
158.591 0 1
158.706 0 1
