
6.15755 0 1
6.2731 0 1
6.3887 0 1
6.50437 0 1
6.62009 0 1
6.73587 0 1
6.8517 0 1
6.96759 0 1
7.08353 0 1
7.19952 0 1
7.31557 0 1
7.43166 0 1
7.54781 0 1
7.664 0 1
7.78024 0 1
7.89653 0 1
8.01286 0 1
8.12924 0 1
8.24567 0 1
8.36213 0 1
8.47864 0 1
8.59519 0 1
8.71178 0 1
8.82841 0 1
8.94508 0 1
9.06179 0 1
9.17853 0 1
9.29531 0 1
9.41212 0 1
9.52897 0 1
9.64584 0 1
9.76276 0 1
9.8797 0 1
9.99667 0 1
10.1137 0 1
10.2307 0 1
10.3478 0 1
10.4648 0 1
10.5819 0 1
10.6991 0 1
10.8162 0 1
10.9334 0 1
11.0506 0 1
11.1678 0 1
11.285 0 1
11.4023 0 1
11.5196 0 1
11.6369 0 1
11.7542 0 1
11.8715 0 1
11.9888 0 1
12.1062 0 1
12.2235 0 1
12.3409 0 1
12.4582 0 1
12.5756 0 1
12.693 0 1
12.8104 0 1
12.9278 0 1
13.0452 0 1
13.1626 0 1
13.28 0 1
13.3974 0 1
13.5149 0 1
13.6323 0 1
13.7497 0 1
13.8671 0 1
13.9845 0 1
14.1019 0 1
14.2193 0 1
14.3367 0 1
14.4541 0 1
14.5714 0 1
14.6888 0 1
14.8062 0 1
14.9235 0 1
15.0408 0 0
15.1581 0 0
15.2755 0 0
15.3927 0 0
15.51 0 0
15.6273 0 0
15.7445 0 0
15.8617 0 0
15.9789 0 0
16.0961 0 0
16.2132 0 0
16.3304 0 0
16.4475 0 0
16.5646 0 0
16.6816 0 0
16.7986 0 0
16.9156 0 0
17.0326 0 0
17.1496 0 0
17.2665 0 0
17.3833 0 0
17.5002 0 0
17.617 0 0
17.7338 0 0
17.8505 0 0
17.9672 0 0
18.0839 0 0
18.2005 0 0
18.3171 0 0
18.4337 0 0
18.5502 0 0
18.6666 0 0
18.7831 0 0
18.8994 0 0
19.0158 0 0
19.1321 0 0
19.2483 0 0
19.3645 0 0
19.4806 0 0
19.5967 0 0
19.7128 0 0
19.8288 0 0
19.9447 0 0
20.0606 0 1
20.1764 0 1
20.2922 0 1
20.4079 0 1
20.5236 0 1
20.6392 0 1
20.7548 0 1
20.8702 0 1
23.3078 0 1
23.4233 0 1
23.539 0 1
23.6547 0 1
23.7704 0 1
23.8862 0 1
24.0021 0 1
24.118 0 1
24.234 0 1
24.35 0 1
24.4661 2005 44.7772
24.5822 2047 45.2438
24.6984 2008 44.8107
24.8146 1981 44.5084
24.9309 1909 43.6921
25.0472 1829 42.7668
25.1636 1762 41.9762
25.28 1799 42.4146
25.3965 1998 44.699
25.513 2085 45.6618
25.6296 2301 47.9687
25.7462 2503 50.03
25.8628 2492 49.9199
25.9795 2524 50.2394
26.0962 2502 50.02
26.213 2600 50.9902
26.3298 2581 50.8035
26.4466 2502 50.02
26.5635 2519 50.1896
26.6804 2388 48.8672
26.7973 2388 48.8672
26.9143 2457 49.5681
27.0313 2375 48.734
27.1483 2501 50.01
27.2653 2453 49.5278
27.3824 2531 50.309
27.4996 2558 50.5767
27.6167 2429 49.2849
27.7339 2416 49.1528
27.8511 2277 47.7179
27.9683 2197 46.8722
28.0855 2136 46.2169
28.2028 2100 45.8258
28.3201 2002 44.7437
28.4374 1828 42.7551
28.5547 1718 41.4488
28.6721 1592 39.8999
28.7894 1719 41.4608
28.9068 1876 43.3128
29.0242 1884 43.4051
29.1416 2194 46.8402
29.259 2334 48.3115
29.3764 2305 48.0104
29.4939 2385 48.8365
29.6113 2434 49.3356
29.7288 2469 49.689
29.8463 2380 48.7852
29.9638 2411 49.1019
30.0812 2322 48.1871
30.1987 2454 49.5379
30.3162 2306 48.0208
30.4337 2480 49.7996
30.5512 2359 48.5695
30.6687 2366 48.6415
30.7862 2420 49.1935
30.9037 2486 49.8598
31.0212 2396 48.949
31.1387 2354 48.518
31.2562 2353 48.5077
31.3737 2249 47.4236
31.4912 2167 46.551
31.6087 2144 46.3033
31.7262 2103 45.8585
31.8436 1955 44.2154
31.9611 1783 42.2256
32.0785 1632 40.398
32.1959 1582 39.7744
32.3134 1583 39.7869
32.4308 1739 41.7013
32.5482 1886 43.4281
32.6655 2002 44.7437
32.7829 2297 47.927
32.9002 2249 47.4236
33.0176 2297 47.927
33.1349 2388 48.8672
33.2522 2386 48.8467
33.3694 2232 47.244
33.4867 2372 48.7032
33.6039 2328 48.2494
33.7211 2312 48.0833
33.8383 2387 48.8569
33.9554 2444 49.4368
34.0725 2316 48.1248
34.1896 2373 48.7134
34.3067 2376 48.7442
34.4237 2338 48.3529
34.5407 2381 48.7955
34.6577 2473 49.7293
34.7746 2324 48.2079
34.8915 2199 46.8935
35.0084 2152 46.3897
35.1252 2165 46.5296
35.242 2013 44.8665
35.3587 2064 45.4313
35.4755 1951 44.1701
35.5921 1776 42.1426
35.7088 1629 40.3609
35.8254 1529 39.1024
35.9419 1405 37.4833
36.0584 1476 38.4187
36.1749 1612 40.1497
36.2913 1824 42.7083
36.4077 1918 43.795
36.524 2055 45.3321
36.6403 2296 47.9166
36.7565 2170 46.5833
36.8727 2191 46.8081
36.9889 2231 47.2335
37.1049 2211 47.0213
37.221 0 1
37.3369 0 1
37.4529 0 1
37.5687 0 1
37.6845 0 1
37.8003 0 1
37.916 0 1
38.0316 0 1
38.1472 0 1
40.5851 0 1
40.7008 0 1
40.8164 0 1
40.9322 0 1
41.048 0 1
41.1639 0 1
41.2798 0 1
41.3958 0 1
41.5118 0 1
41.6279 0 1
41.744 1631 40.3856
41.8602 1791 42.3202
41.9765 1804 42.4735
42.0928 1865 43.1856
42.2091 1821 42.6732
42.3255 1919 43.8064
42.4419 1835 42.8369
42.5584 1882 43.382
42.675 1863 43.1625
42.7915 1880 43.359
42.9081 1855 43.0697
43.0248 1761 41.9643
43.1415 1815 42.6028
43.2582 1797 42.391
43.375 1768 42.0476
43.4918 1734 41.6413
43.6087 1717 41.4367
43.7256 1670 40.8656
43.8425 1658 40.7185
43.9595 1603 40.0375
44.0765 1586 39.8246
44.1935 1415 37.6165
44.3106 1366 36.9594
44.4277 1270 35.6371
44.5448 1117 33.4215
44.6619 1003 31.6702
44.7791 931 30.5123
44.8963 1013 31.8277
45.0136 1065 32.6343
45.1308 1162 34.0881
45.2481 1248 35.327
45.3654 1347 36.7015
45.4827 1354 36.7967
45.6001 1289 35.9026
45.7174 1346 36.6879
45.8348 1323 36.3731
45.9522 1271 35.6511
46.0697 1266 35.5809
46.1871 1272 35.6651
46.3046 1207 34.7419
46.422 1249 35.3412
46.5395 1219 34.9142
46.657 1225 35
46.7745 1229 35.0571
46.892 1269 35.623
47.0096 1168 34.176
47.1271 1120 33.4664
47.2446 1156 34
47.3622 1096 33.1059
47.4797 1061 32.573
47.5973 1037 32.2025
47.7149 972 31.1769
47.8324 868 29.4618
47.95 886 29.7658
48.0675 812 28.4956
48.1851 767 27.6948
48.3027 729 27
48.4202 669 25.865
48.5378 689 26.2488
48.6554 759 27.55
48.7729 889 29.8161
48.8904 949 30.8058
49.008 920 30.3315
49.1255 951 30.8383
49.243 954 30.8869
49.3605 985 31.3847
49.478 1010 31.7805
49.5955 940 30.6594
49.713 990 31.4643
49.8304 993 31.5119
49.9479 972 31.1769
50.0653 1059 32.5423
50.1827 1032 32.1248
50.3001 1062 32.5883
50.4175 1060 32.5576
50.5348 1126 33.5559
50.6521 1119 33.4515
50.7694 1205 34.7131
50.8867 1175 34.2783
51.004 1201 34.6554
51.1212 1182 34.3802
51.2384 1201 34.6554
51.3556 1049 32.3883
51.4727 1086 32.9545
51.5899 968 31.1127
51.707 914 30.2324
51.824 865 29.4109
51.9411 913 30.2159
52.0581 1020 31.9374
52.175 1235 35.1426
52.2919 1342 36.6333
52.4088 1438 37.921
52.5257 1539 39.2301
52.6425 1600 40
52.7593 1680 40.9878
52.876 1568 39.598
52.9927 1686 41.0609
53.1094 1706 41.3038
53.226 1720 41.4729
53.3426 1758 41.9285
53.4591 1823 42.6966
53.5756 1786 42.2611
53.692 1800 42.4264
53.8084 1731 41.6053
53.9248 1937 44.0114
54.0411 1994 44.6542
54.1573 1953 44.1928
54.2735 0 1
54.3896 0 1
54.5057 0 1
54.6217 0 1
54.7377 0 1
54.8537 0 1
54.9695 0 1
55.0853 0 1
55.2011 0 1
55.3168 0 1
55.4324 0 1
57.824 0 1
57.9396 0 1
58.0553 0 1
58.1711 0 1
58.2869 0 1
58.4028 0 1
58.5187 0 1
58.6347 0 1
58.7508 0 1
58.8669 0 1
58.983 2047 45.2438
59.0992 2126 46.1086
59.2155 2205 46.9574
59.3318 2232 47.244
59.4482 2292 47.8748
59.5646 2158 46.4543
59.681 2278 47.7284
59.7975 2120 46.0435
59.9141 2080 45.607
60.0306 1898 43.566
60.1473 1773 42.107
60.2639 1611 40.1373
60.3807 1393 37.3229
60.4974 1290 35.9166
60.6142 1256 35.4401
60.731 1358 36.8511
60.8479 1511 38.8716
60.9648 1774 42.1189
61.0818 1815 42.6028
61.1987 1974 44.4297
61.3158 1917 43.7836
61.4328 1971 44.3959
61.5499 1953 44.1928
61.667 2037 45.1331
61.7841 2004 44.7661
61.9013 1962 44.2945
62.0185 1976 44.4522
62.1357 2002 44.7437
62.253 1987 44.5758
62.3702 2001 44.7325
62.4875 2026 45.0111
62.6049 1947 44.1248
62.7222 1977 44.4635
62.8396 2000 44.7214
62.9569 2043 45.1996
63.0743 2035 45.111
63.1918 1938 44.0227
63.3092 1860 43.1277
63.4267 1790 42.3084
63.5441 1708 41.328
63.6616 1542 39.2683
63.7791 1308 36.1663
63.8966 1205 34.7131
64.0142 1091 33.0303
64.1317 1127 33.5708
64.2492 1173 34.2491
64.3668 1326 36.4143
64.4843 1508 38.833
64.6019 1622 40.2741
64.7195 1732 41.6173
64.837 1748 41.8091
64.9546 1766 42.0238
65.0722 1708 41.328
65.1898 1760 41.9524
65.3074 1895 43.5316
65.4249 1762 41.9762
65.5425 1745 41.7732
65.6601 1739 41.7013
65.7777 1838 42.8719
65.8952 1929 43.9204
66.0128 1823 42.6966
66.1304 1868 43.2204
66.2479 1853 43.0465
66.3655 1859 43.1161
66.483 1852 43.0349
66.6005 1873 43.2782
66.718 1860 43.1277
66.8355 1820 42.6615
66.953 1843 42.9302
67.0705 1700 41.2311
67.1879 1653 40.6571
67.3054 1452 38.1051
67.4228 1295 35.9861
67.5402 1068 32.6803
67.6576 1072 32.7414
67.7749 974 31.209
67.8923 1066 32.6497
68.0096 1209 34.7707
68.1269 1504 38.7814
68.2442 1591 39.8873
68.3614 1737 41.6773
68.4787 1815 42.6028
68.5958 1856 43.0813
68.713 1748 41.8091
68.8302 1856 43.0813
68.9473 1813 42.5793
69.0643 1723 41.509
69.1814 1813 42.5793
69.2984 1875 43.3013
69.4154 1866 43.1972
69.5323 1931 43.9431
69.6492 1979 44.486
69.7661 1971 44.3959
69.8829 2069 45.4863
69.9997 1992 44.6318
70.1165 2068 45.4753
70.2332 2047 45.2438
70.3499 2080 45.607
70.4665 2068 45.4753
70.5831 2025 45
70.6996 1898 43.566
70.8161 1820 42.6615
70.9326 1621 40.2616
71.049 1495 38.6652
71.1653 1226 35.0143
71.2817 1028 32.0624
71.3979 958 30.9516
71.5141 1037 32.2025
71.6303 1135 33.6898
71.7464 1138 33.7343
71.8624 0 1
71.9784 0 1
72.0944 0 1
72.2102 0 1
72.3261 0 1
72.4418 0 1
72.5575 0 1
72.6732 0 1
75.1054 0 1
75.2209 0 1
75.3365 0 1
75.4521 0 1
75.5678 0 1
75.6835 0 1
75.7993 0 1
75.9151 0 1
76.031 0 1
76.147 1640 40.4969
76.263 1707 41.3159
76.3791 1672 40.8901
76.4952 1415 37.6165
76.6113 1164 34.1174
76.7276 971 31.1609
76.8438 1066 32.6497
76.9601 1162 34.0881
77.0765 1368 36.9865
77.1929 1734 41.6413
77.3093 1826 42.7317
77.4258 1935 43.9886
77.5423 2008 44.8107
77.6589 1981 44.5084
77.7755 1947 44.1248
77.8921 2002 44.7437
78.0088 1908 43.6807
78.1256 1906 43.6578
78.2423 1958 44.2493
78.3591 1914 43.7493
78.4759 1889 43.4626
78.5928 1927 43.8976
78.7097 1992 44.6318
78.8266 2001 44.7325
78.9436 2118 46.0217
79.0606 1977 44.4635
79.1776 2049 45.2659
79.2946 1949 44.1475
79.4117 1991 44.6206
79.5288 1972 44.4072
79.6459 1847 42.9767
79.7631 1855 43.0697
79.8802 1674 40.9145
79.9974 1620 40.2492
80.1147 1413 37.5899
80.2319 1066 32.6497
80.3491 1012 31.8119
80.4664 963 31.0322
80.5837 1029 32.078
80.701 1255 35.426
80.8183 1475 38.4057
80.9357 1588 39.8497
81.053 1669 40.8534
81.1704 1705 41.2916
81.2877 1735 41.6533
81.4051 1747 41.7971
81.5225 1668 40.8412
81.6399 1688 41.0853
81.7573 1701 41.2432
81.8747 1670 40.8656
81.9922 1725 41.5331
82.1096 1703 41.2674
82.227 1669 40.8534
82.3444 1689 41.0974
82.4619 1768 42.0476
82.5793 1802 42.45
82.6967 1815 42.6028
82.8142 1759 41.9404
82.9316 1635 40.4351
83.049 1720 41.4729
83.1664 1666 40.8167
83.2838 1757 41.9166
83.4012 1561 39.5095
83.5186 1461 38.223
83.636 1360 36.8782
83.7534 1193 34.5398
83.8708 992 31.496
83.9881 773 27.8029
84.1055 741 27.2213
84.2228 869 29.4788
84.3401 1001 31.6386
84.4575 1274 35.6931
84.5747 1487 38.5616
84.692 1521 39
84.8093 1571 39.6358
84.9265 1533 39.1535
85.0437 1592 39.8999
85.1609 1564 39.5474
85.2781 1592 39.8999
85.3952 1531 39.128
85.5123 1556 39.4462
85.6294 1675 40.9268
85.7465 1684 41.0366
85.8636 1690 41.1096
85.9806 1702 41.2553
86.0976 1775 42.1307
86.2145 1774 42.1189
86.3315 1878 43.3359
86.4484 1838 42.8719
86.5652 1843 42.9302
86.682 1876 43.3128
86.7988 1920 43.8178
86.9156 1753 41.8688
87.0323 1775 42.1307
87.149 1644 40.5463
87.2657 1541 39.2556
87.3823 1300 36.0555
87.4988 1053 32.45
87.6154 947 30.7734
87.7318 993 31.5119
87.8483 1161 34.0735
87.9647 1412 37.5766
88.081 1707 41.3159
88.1973 1922 43.8406
88.3136 1872 43.2666
88.4298 1892 43.4971
88.546 1907 43.6692
88.6621 1916 43.7721
88.7781 1984 44.5421
88.8942 0 1
89.0101 0 1
89.126 0 1
89.2419 0 1
89.3577 0 1
89.4734 0 1
89.5891 0 1
89.7047 0 1
89.8203 0 1
89.9358 0 1
92.3269 0 1
92.4424 0 1
92.558 0 1
92.6736 0 1
92.7893 0 1
92.905 0 1
93.0208 0 1
93.1366 0 1
93.2525 0 1
93.3685 0 1
93.4845 0 1
93.6005 1762 41.9762
93.7167 1919 43.8064
93.8328 1974 44.4297
93.949 1949 44.1475
94.0653 1922 43.8406
94.1816 1891 43.4856
94.2979 1933 43.9659
94.4143 1894 43.5201
94.5307 1910 43.7035
94.6472 2034 45.0999
94.7637 1954 44.2041
94.8803 2021 44.9555
94.9969 1991 44.6206
95.1135 1969 44.3734
95.2302 2063 45.4203
95.3469 2171 46.594
95.4637 2027 45.0222
95.5805 2136 46.2169
95.6973 2213 47.0425
95.8142 2073 45.5302
95.9311 2072 45.5192
96.048 1981 44.5084
96.1649 1895 43.5316
96.2819 1868 43.2204
96.3989 1710 41.3521
96.516 1513 38.8973
96.633 1369 37
96.7501 1144 33.8231
96.8673 1080 32.8634
96.9844 1117 33.4215
97.1016 1221 34.9428
97.2188 1505 38.7943
97.336 1684 41.0366
97.4532 1902 43.6119
97.5704 1908 43.6807
97.6877 1948 44.1362
97.805 1871 43.2551
97.9223 1903 43.6234
98.0396 1940 44.0454
98.1569 1895 43.5316
98.2743 1803 42.4617
98.3916 1855 43.0697
98.509 1936 44
98.6264 1904 43.6348
98.7438 1892 43.4971
98.8612 1953 44.1928
98.9786 2003 44.7549
99.096 1997 44.6878
99.2134 2008 44.8107
99.3308 2012 44.8553
99.4482 2086 45.6727
99.5656 2094 45.7602
99.6831 2033 45.0888
99.8005 1997 44.6878
99.9179 1746 41.7852
100.035 1802 42.45
100.153 1582 39.7744
100.27 1370 37.0135
100.388 1152 33.9411
100.505 1094 33.0757
100.622 1269 35.623
100.74 1486 38.5487
100.857 1709 41.3401
100.975 1943 44.0795
101.092 1944 44.0908
101.209 1880 43.359
101.327 1957 44.238
101.444 1867 43.2088
101.561 1900 43.589
101.679 2003 44.7549
101.796 1849 43
101.913 1889 43.4626
102.03 1950 44.1588
102.148 1955 44.2154
102.265 1955 44.2154
102.382 2117 46.0109
102.499 2089 45.7056
102.616 2113 45.9674
102.733 2100 45.8258
102.851 2134 46.1952
102.968 2210 47.0106
103.085 2147 46.3357
103.202 2085 45.6618
103.319 2025 45
103.436 1942 44.0681
103.552 1819 42.6497
103.669 1724 41.5211
103.786 1421 37.6962
103.903 1183 34.3948
104.02 1187 34.4529
104.137 1349 36.7287
104.253 1634 40.4228
104.37 1921 43.8292
104.487 2023 44.9778
104.603 2110 45.9347
104.72 2170 46.5833
104.836 2160 46.4758
104.953 2141 46.2709
105.069 2059 45.3762
105.186 2088 45.6946
105.302 2195 46.8508
105.418 2087 45.6837
105.535 2140 46.2601
105.651 2263 47.571
105.767 2326 48.2286
105.883 2296 47.9166
105.999 2338 48.3529
106.115 0 1
106.231 0 1
106.347 0 1
106.463 0 1
106.579 0 1
106.694 0 1
106.81 0 1
106.926 0 1
107.041 0 1
107.157 0 1
109.576 0 1
109.692 0 1
109.807 0 1
109.923 0 1
110.039 0 1
110.155 0 1
110.27 0 1
110.386 0 1
110.502 0 1
110.618 2132 46.1736
110.735 2129 46.1411
110.851 2262 47.5605
110.967 2253 47.4658
111.083 2275 47.697
111.199 2226 47.1805
111.316 2277 47.7179
111.432 2371 48.6929
111.549 2314 48.1041
111.665 2374 48.7237
111.782 2215 47.0638
111.898 2193 46.8295
112.015 2097 45.793
112.132 1948 44.1362
112.248 1765 42.0119
112.365 1543 39.281
112.482 1259 35.4824
112.599 1362 36.9053
112.716 1469 38.3275
112.832 1832 42.8019
112.949 2031 45.0666
113.066 2078 45.5851
113.183 2135 46.2061
113.3 2053 45.31
113.417 2099 45.8148
113.534 2070 45.4973
113.652 2119 46.0326
113.769 2096 45.7821
113.886 2124 46.0869
114.003 2095 45.7712
114.12 2155 46.422
114.238 2215 47.0638
114.355 2199 46.8935
114.472 2253 47.4658
114.589 2314 48.1041
114.707 2302 47.9792
114.824 2400 48.9898
114.942 2439 49.3862
115.059 2354 48.518
115.176 2386 48.8467
115.294 2348 48.4562
115.411 2334 48.3115
115.529 2138 46.2385
115.646 2180 46.6905
115.764 2008 44.8107
115.881 1789 42.2966
115.999 1513 38.8973
116.116 1544 39.2938
116.234 1650 40.6202
116.351 1879 43.3474
116.469 2110 45.9347
116.586 2339 48.3632
116.704 2313 48.0937
116.821 2351 48.4871
116.939 2304 48
117.056 2335 48.3218
117.174 2342 48.3942
117.291 2362 48.6004
117.409 2386 48.8467
117.526 2408 49.0714
117.644 2457 49.5681
117.761 2331 48.2804
117.879 2409 49.0816
117.996 2391 48.8979
118.114 2487 49.8698
118.231 2449 49.4874
118.349 2541 50.4083
118.466 2489 49.8899
118.584 2510 50.0999
118.701 2561 50.6063
118.819 2460 49.5984
118.936 2490 49.8999
119.053 2376 48.7442
119.171 2206 46.9681
119.288 2284 47.7912
119.405 2157 46.4435
119.523 1829 42.7668
119.64 1593 39.9124
119.757 1547 39.3319
119.875 1678 40.9634
119.992 1848 42.9884
120.109 2189 46.7868
120.226 2245 47.3814
120.343 2293 47.8853
120.46 2305 48.0104
120.578 2312 48.0833
120.695 2236 47.2864
120.812 2324 48.2079
120.929 2373 48.7134
121.046 2352 48.4974
121.163 2364 48.621
121.279 2312 48.0833
121.396 2281 47.7598
121.513 2396 48.949
121.63 2455 49.548
121.747 2334 48.3115
121.863 2354 48.518
121.98 2381 48.7955
122.097 2416 49.1528
122.213 2431 49.3052
122.33 2470 49.6991
122.446 2374 48.7237
122.563 2405 49.0408
122.679 2433 49.3254
122.795 2282 47.7703
122.912 2219 47.1063
123.028 2113 45.9674
123.144 1995 44.6654
123.26 1818 42.638
123.377 0 1
123.493 0 1
123.609 0 1
123.725 0 1
123.84 0 1
123.956 0 1
124.072 0 1
124.188 0 1
124.303 0 1
124.419 0 1
126.852 0 1
126.968 0 1
127.083 0 1
127.199 0 1
127.315 0 1
127.431 0 1
127.547 0 1
127.663 0 1
127.779 0 1
127.895 0 1
128.011 0 1
128.127 0 1
128.243 0 1
128.359 2149 46.3573
128.476 2004 44.7661
128.592 1811 42.5558
128.708 1653 40.6571
128.825 1915 43.7607
128.941 2049 45.2659
129.058 2274 47.6865
129.174 2410 49.0918
129.291 2426 49.2544
129.408 2497 49.97
129.524 2438 49.3761
129.641 2400 48.9898
129.758 2497 49.97
129.875 2477 49.7695
129.992 2456 49.558
130.108 2391 48.8979
130.225 2432 49.3153
130.342 2429 49.2849
130.459 2319 48.156
130.576 2510 50.0999
130.693 2507 50.07
130.81 2570 50.6952
130.928 2537 50.3686
131.045 2509 50.0899
131.162 2682 51.788
131.279 2656 51.5364
131.396 2558 50.5767
131.513 2521 50.2096
131.631 2522 50.2195
131.748 2437 49.366
131.865 2303 47.9896
131.983 2131 46.1628
132.1 1946 44.1135
132.217 1900 43.589
132.335 1927 43.8976
132.452 2077 45.5741
132.57 2351 48.4871
132.687 2493 49.93
132.804 2689 51.8556
132.922 2631 51.2933
133.039 2635 51.3323
133.157 2576 50.7543
133.274 2465 49.6488
133.392 2578 50.774
133.509 2605 51.0392
133.627 2649 51.4684
133.744 2515 50.1498
133.862 2453 49.5278
133.979 2419 49.1833
134.097 2459 49.5883
134.214 2437 49.366
134.332 2579 50.7839
134.449 2490 49.8999
134.567 2563 50.6261
134.684 2716 52.1153
134.802 2620 51.1859
134.919 2563 50.6261
135.037 2650 51.4782
135.154 2426 49.2544
135.272 2396 48.949
135.389 2341 48.3839
135.507 2185 46.744
135.624 2034 45.0999
135.742 1877 43.3244
135.859 1858 43.1045
135.977 2009 44.8219
136.094 2292 47.8748
136.211 2507 50.07
136.329 2519 50.1896
136.446 2538 50.3786
136.564 2616 51.1468
136.681 2673 51.7011
136.798 2616 51.1468
136.915 2522 50.2195
137.033 2605 51.0392
137.15 2529 50.2892
137.267 2389 48.8774
137.384 2378 48.7647
137.502 2407 49.0612
137.619 2435 49.3457
137.736 2426 49.2544
137.853 2388 48.8672
137.97 2473 49.7293
138.087 2460 49.5984
138.204 2500 50
138.321 2554 50.5371
138.438 2602 51.0098
138.555 2622 51.2055
138.672 2639 51.3712
138.788 2559 50.5866
138.905 2342 48.3942
139.022 2311 48.0729
139.139 2214 47.0532
139.255 2045 45.2217
139.372 1975 44.441
139.488 2061 45.3982
139.605 2128 46.1303
139.721 2237 47.2969
139.838 2436 49.3559
139.954 2561 50.6063
140.071 2455 49.548
140.187 2577 50.7642
140.303 2593 50.9215
140.419 2588 50.8724
140.535 2590 50.892
140.652 2496 49.96
140.768 0 1
140.884 0 1
141 0 1
141.115 0 1
141.231 0 1
141.347 0 1
141.463 0 1
141.578 0 1
141.694 0 1
144.104 0 1
144.219 0 1
144.335 0 1
144.45 0 1
144.566 0 1
144.682 0 1
144.798 0 1
144.914 0 1
145.03 0 1
145.146 1972 44.4072
145.262 2038 45.1442
145.378 2088 45.6946
145.494 2103 45.8585
145.61 2171 46.594
145.726 2046 45.2327
145.842 2018 44.9222
145.959 2077 45.5741
146.075 1979 44.486
146.192 1965 44.3283
146.308 1943 44.0795
146.425 2015 44.8888
146.541 1979 44.486
146.658 1977 44.4635
146.774 2146 46.3249
146.891 2194 46.8402
147.008 2198 46.8828
147.125 2152 46.3897
147.241 2160 46.4758
147.358 2237 47.2969
147.475 2253 47.4658
147.592 2169 46.5725
147.709 2120 46.0435
147.826 2108 45.913
147.943 2038 45.1442
148.06 1917 43.7836
148.177 1889 43.4626
148.294 1804 42.4735
148.411 1926 43.8862
148.528 1984 44.5421
148.645 2075 45.5522
148.762 2151 46.3789
148.88 2242 47.3498
148.997 2226 47.1805
149.114 2293 47.8853
149.231 2184 46.7333
149.349 2217 47.085
149.466 2387 48.8569
149.583 2170 46.5833
149.701 2196 46.8615
149.818 2198 46.8828
149.935 2034 45.0999
150.053 2058 45.3652
150.17 2080 45.607
150.287 2148 46.3465
150.405 2115 45.9891
150.522 2151 46.3789
150.64 2225 47.1699
150.757 2263 47.571
150.875 2243 47.3603
150.992 2243 47.3603
151.11 2269 47.634
151.227 2261 47.55
151.344 2235 47.2758
151.462 2135 46.2061
151.579 2108 45.913
151.697 2013 44.8665
151.814 1883 43.3935
151.932 1888 43.4511
152.049 1895 43.5316
152.167 2023 44.9778
152.284 2186 46.7547
152.402 2106 45.8912
152.519 2249 47.4236
152.636 2248 47.4131
152.754 2382 48.8057
152.871 2203 46.9361
152.989 2270 47.6445
153.106 2180 46.6905
153.223 2185 46.744
153.341 2149 46.3573
153.458 2189 46.7868
153.575 2065 45.4423
153.693 2045 45.2217
153.81 2148 46.3465
153.927 2072 45.5192
154.044 2246 47.392
154.162 2231 47.2335
154.279 2394 48.9285
154.396 2391 48.8979
154.513 2352 48.4974
154.63 2456 49.558
154.747 2515 50.1498
154.864 2404 49.0306
154.981 2494 49.94
155.098 2322 48.1871
155.215 2272 47.6655
155.332 2148 46.3465
155.449 2136 46.2169
155.566 2182 46.7119
155.683 2199 46.8935
155.8 2356 48.5386
155.917 2423 49.224
156.033 2453 49.5278
156.15 0 1
156.267 0 1
156.383 0 1
156.5 0 1
156.617 0 1
156.733 0 1
156.85 0 1
156.966 0 1
157.082 0 1
157.199 0 1
157.315 0 1
157.431 0 1
157.547 0 1
157.664 0 1
157.78 0 1
157.896 0 1
158.012 0 1
158.128 0 1
158.244 0 1
158.359 0 1
158.475 0 1
158.591 0 1
158.706 0 1
