
6.15755 0 1
6.2731 0 1
6.3887 0 1
6.50437 0 1
6.62009 0 1
6.73587 0 1
6.8517 0 1
6.96759 0 1
7.08353 0 1
7.19952 0 1
7.31557 0 1
7.43166 0 1
7.54781 0 1
7.664 0 1
7.78024 0 1
7.89653 0 1
8.01286 0 1
8.12924 0 1
8.24567 0 1
8.36213 0 1
8.47864 0 1
8.59519 0 1
8.71178 0 1
8.82841 0 1
8.94508 0 1
9.06179 0 1
9.17853 0 1
9.29531 0 1
9.41212 0 1
9.52897 0 1
9.64584 0 1
9.76276 0 1
9.8797 0 1
9.99667 0 1
10.1137 0 1
10.2307 0 1
10.3478 0 1
10.4648 0 1
10.5819 0 1
10.6991 0 1
10.8162 0 1
10.9334 0 1
11.0506 0 1
11.1678 0 1
11.285 0 1
11.4023 0 1
11.5196 0 1
11.6369 0 1
11.7542 0 1
11.8715 0 1
11.9888 0 1
12.1062 0 1
12.2235 0 1
12.3409 0 1
12.4582 0 1
12.5756 0 1
12.693 0 1
12.8104 0 1
12.9278 0 1
13.0452 0 1
13.1626 0 1
13.28 0 1
13.3974 0 1
13.5149 0 1
13.6323 0 1
13.7497 0 1
13.8671 0 1
13.9845 0 1
14.1019 0 1
14.2193 0 1
14.3367 0 1
14.4541 0 1
14.5714 0 1
14.6888 0 1
14.8062 0 1
14.9235 0 1
15.0408 0 0
15.1581 0 0
15.2755 0 0
15.3927 0 0
15.51 0 0
15.6273 0 0
15.7445 0 0
15.8617 0 0
15.9789 0 0
16.0961 0 0
16.2132 0 0
16.3304 0 0
16.4475 0 0
16.5646 0 0
16.6816 0 0
16.7986 0 0
16.9156 0 0
17.0326 0 0
17.1496 0 0
17.2665 0 0
17.3833 0 0
17.5002 0 0
17.617 0 0
17.7338 0 0
17.8505 0 0
17.9672 0 0
18.0839 0 0
18.2005 0 0
18.3171 0 0
18.4337 0 0
18.5502 0 0
18.6666 0 0
18.7831 0 0
18.8994 0 0
19.0158 0 0
19.1321 0 0
19.2483 0 0
19.3645 0 0
19.4806 0 0
19.5967 0 0
19.7128 0 0
19.8288 0 0
19.9447 0 0
20.0606 0 1
20.1764 0 1
20.2922 0 1
20.4079 0 1
20.5236 0 1
20.6392 0 1
20.7548 0 1
20.8702 0 1
23.3078 0 1
23.4233 0 1
23.539 0 1
23.6547 0 1
23.7704 0 1
23.8862 0 1
24.0021 0 1
24.118 0 1
24.234 0 1
24.35 0 1
24.4661 5606 74.8732
24.5822 6132 78.3071
24.6984 6878 82.9337
24.8146 7854 88.6228
24.9309 8887 94.2709
25.0472 9660 98.2853
25.1636 10762 103.74
25.28 11538 107.415
25.3965 12213 110.512
25.513 12815 113.203
25.6296 13752 117.269
25.7462 13977 118.224
25.8628 13988 118.271
25.9795 14119 118.823
26.0962 13720 117.132
26.213 13255 115.13
26.3298 12406 111.382
26.4466 12403 111.369
26.5635 11946 109.298
26.6804 11647 107.921
26.7973 11933 109.238
26.9143 11703 108.18
27.0313 11585 107.634
27.1483 12086 109.936
27.2653 12087 109.941
27.3824 12236 110.616
27.4996 12107 110.032
27.6167 12089 109.95
27.7339 11769 108.485
27.8511 11244 106.038
27.9683 10920 104.499
28.0855 10802 103.933
28.2028 10557 102.747
28.3201 10481 102.377
28.4374 10916 104.48
28.5547 11530 107.378
28.6721 11578 107.601
28.7894 12198 110.445
28.9068 12362 111.185
29.0242 12487 111.745
29.1416 12261 110.729
29.259 12177 110.349
29.3764 12251 110.684
29.4939 12337 111.072
29.6113 12164 110.291
29.7288 11878 108.986
29.8463 11479 107.14
29.9638 11514 107.303
30.0812 10905 104.427
30.1987 11145 105.57
30.3162 11166 105.669
30.4337 11238 106.009
30.5512 11330 106.442
30.6687 11585 107.634
30.7862 11829 108.761
30.9037 11944 109.289
31.0212 11918 109.17
31.1387 11679 108.069
31.2562 11347 106.522
31.3737 11171 105.693
31.4912 10762 103.74
31.6087 10563 102.776
31.7262 10307 101.523
31.8436 10545 102.689
31.9611 10801 103.928
32.0785 11051 105.124
32.1959 11449 107
32.3134 11841 108.816
32.4308 11816 108.701
32.5482 12006 109.572
32.6655 12119 110.086
32.7829 12050 109.772
32.9002 12004 109.563
33.0176 11941 109.275
33.1349 12146 110.209
33.2522 11789 108.577
33.3694 11609 107.745
33.4867 11283 106.221
33.6039 10995 104.857
33.7211 10721 103.542
33.8383 10848 104.154
33.9554 10678 103.334
34.0725 10831 104.072
34.1896 11042 105.081
34.3067 11399 106.766
34.4237 11543 107.438
34.5407 11478 107.135
34.6577 11727 108.291
34.7746 11588 107.648
34.8915 11195 105.806
35.0084 10738 103.624
35.1252 10786 103.856
35.242 10390 101.931
35.3587 10184 100.916
35.4755 10262 101.302
35.5921 10353 101.75
35.7088 10644 103.17
35.8254 11502 107.247
35.9419 11738 108.342
36.0584 11978 109.444
36.1749 11748 108.388
36.2913 11261 106.118
36.4077 11212 105.887
36.524 10914 104.47
36.6403 10564 102.781
36.7565 9997 99.985
36.8727 9545 97.6985
36.9889 8777 93.6856
37.1049 8145 90.2497
37.221 0 1
37.3369 0 1
37.4529 0 1
37.5687 0 1
37.6845 0 1
37.8003 0 1
37.916 0 1
38.0316 0 1
38.1472 0 1
40.5851 0 1
40.7008 0 1
40.8164 0 1
40.9322 0 1
41.048 0 1
41.1639 0 1
41.2798 0 1
41.3958 0 1
41.5118 0 1
41.6279 0 1
41.744 6681 81.7374
41.8602 7288 85.3698
41.9765 8024 89.5768
42.0928 8369 91.4822
42.2091 8468 92.0217
42.3255 8803 93.8243
42.4419 8400 91.6515
42.5584 8532 92.3688
42.675 8790 93.755
42.7915 9117 95.483
42.9081 9304 96.4572
43.0248 9616 98.0612
43.1415 9587 97.9132
43.2582 9960 99.7998
43.375 10120 100.598
43.4918 10120 100.598
43.6087 10073 100.364
43.7256 10118 100.588
43.8425 10142 100.707
43.9595 9961 99.8048
44.0765 9929 99.6444
44.1935 9832 99.1564
44.3106 9437 97.1442
44.4277 9629 98.1275
44.5448 10226 101.124
44.6619 10609 103
44.7791 11197 105.816
44.8963 11313 106.363
45.0136 11394 106.743
45.1308 11644 107.907
45.2481 11680 108.074
45.3654 11515 107.308
45.4827 11761 108.448
45.6001 11287 106.24
45.7174 11348 106.527
45.8348 10742 103.644
45.9522 10167 100.832
46.0697 9858 99.2875
46.1871 9548 97.7139
46.3046 9679 98.3819
46.422 9795 98.9697
46.5395 10289 101.435
46.657 10703 103.455
46.7745 10962 104.7
46.892 11049 105.114
47.0096 11400 106.771
47.1271 11737 108.337
47.2446 11785 108.559
47.3622 11791 108.586
47.4797 11648 107.926
47.5973 11632 107.852
47.7149 11518 107.322
47.8324 11147 105.579
47.95 10992 104.843
48.0675 11507 107.271
48.1851 11706 108.194
48.3027 12537 111.969
48.4202 12840 113.314
48.5378 13138 114.621
48.6554 13184 114.822
48.7729 13002 114.026
48.8904 13238 115.057
49.008 13049 114.232
49.1255 13033 114.162
49.243 12448 111.571
49.3605 11909 109.128
49.478 11280 106.207
49.5955 10800 103.923
49.713 10252 101.252
49.8304 10443 102.191
49.9479 11001 104.886
50.0653 11366 106.611
50.1827 11749 108.393
50.3001 12325 111.018
50.4175 12701 112.699
50.5348 13044 114.21
50.6521 13246 115.091
50.7694 13547 116.392
50.8867 13767 117.333
51.004 13487 116.134
51.1212 13611 116.666
51.2384 13540 116.362
51.3556 12938 113.745
51.4727 12965 113.864
51.5899 13324 115.43
51.707 13750 117.26
51.824 14796 121.639
51.9411 15150 123.085
52.0581 15397 124.085
52.175 15572 124.788
52.2919 15624 124.996
52.4088 15447 124.286
52.5257 15713 125.352
52.6425 15839 125.853
52.7593 15749 125.495
52.876 14964 122.327
52.9927 14484 120.349
53.1094 13508 116.224
53.226 13140 114.63
53.3426 12788 113.084
53.4591 12406 111.382
53.5756 12690 112.65
53.692 12536 111.964
53.8084 12365 111.198
53.9248 11968 109.398
54.0411 11553 107.485
54.1573 11120 105.451
54.2735 0 1
54.3896 0 1
54.5057 0 1
54.6217 0 1
54.7377 0 1
54.8537 0 1
54.9695 0 1
55.0853 0 1
55.2011 0 1
55.3168 0 1
55.4324 0 1
57.824 0 1
57.9396 0 1
58.0553 0 1
58.1711 0 1
58.2869 0 1
58.4028 0 1
58.5187 0 1
58.6347 0 1
58.7508 0 1
58.8669 0 1
58.983 14233 119.302
59.0992 17051 130.579
59.2155 19172 138.463
59.3318 21212 145.643
59.4482 23172 152.224
59.5646 24233 155.67
59.681 25424 159.449
59.7975 26060 161.431
59.9141 26708 163.426
60.0306 26310 162.204
60.1473 25822 160.692
60.2639 25486 159.643
60.3807 26045 161.385
60.4974 27694 166.415
60.6142 28627 169.195
60.731 29550 171.901
60.8479 29652 172.198
60.9648 29465 171.654
61.0818 29737 172.444
61.1987 29816 172.673
61.3158 29738 172.447
61.4328 28838 169.818
61.5499 27727 166.514
61.667 26138 161.673
61.7841 25230 158.84
61.9013 23990 154.887
62.0185 23864 154.48
62.1357 24264 155.769
62.253 25576 159.925
62.3702 27139 164.739
62.4875 28061 167.514
62.6049 29136 170.693
62.7222 30701 175.217
62.8396 31416 177.246
62.9569 32356 179.878
63.0743 32389 179.969
63.1918 33063 181.832
63.3092 32261 179.613
63.4267 32312 179.755
63.5441 31226 176.709
63.6616 29949 173.058
63.7791 28929 170.085
63.8966 29473 171.677
64.0142 30667 175.12
64.1317 31931 178.692
64.2492 32845 181.232
64.3668 33299 182.48
64.4843 33276 182.417
64.6019 33253 182.354
64.7195 33107 181.953
64.837 33143 182.052
64.9546 32992 181.637
65.0722 32127 179.24
65.1898 30094 173.476
65.3074 28221 167.991
65.4249 26941 164.137
65.5425 25279 158.994
65.6601 25381 159.314
65.7777 27095 164.606
65.8952 28133 167.729
66.0128 29947 173.052
66.1304 31150 176.494
66.2479 32218 179.494
66.3655 33478 182.97
66.483 34852 186.687
66.6005 35593 188.661
66.718 35217 187.662
66.8355 35210 187.643
66.953 34816 186.59
67.0705 34296 185.192
67.1879 33069 181.849
67.3054 31406 177.217
67.4228 30374 174.281
67.5402 30264 173.966
67.6576 30660 175.1
67.7749 32597 180.546
67.8923 33137 182.036
68.0096 34510 185.769
68.1269 34469 185.658
68.2442 34445 185.594
68.3614 34715 186.32
68.4787 34370 185.391
68.5958 34065 184.567
68.713 33201 182.211
68.8302 30999 176.065
68.9473 29117 170.637
69.0643 27019 164.375
69.1814 25531 159.784
69.2984 25666 160.206
69.4154 26857 163.881
69.5323 29016 170.341
69.6492 30205 173.796
69.7661 31783 178.278
69.8829 32781 181.055
69.9997 33202 182.214
70.1165 32683 180.784
70.2332 32336 179.822
70.3499 31098 176.346
70.4665 29314 171.213
70.5831 27881 166.976
70.6996 26426 162.561
70.8161 24138 155.364
70.9326 21703 147.319
71.049 18991 137.808
71.1653 16764 129.476
71.2817 16017 126.558
71.3979 15615 124.96
71.5141 15354 123.911
71.6303 14599 120.826
71.7464 12857 113.389
71.8624 0 1
71.9784 0 1
72.0944 0 1
72.2102 0 1
72.3261 0 1
72.4418 0 1
72.5575 0 1
72.6732 0 1
75.1054 0 1
75.2209 0 1
75.3365 0 1
75.4521 0 1
75.5678 0 1
75.6835 0 1
75.7993 0 1
75.9151 0 1
76.031 0 1
76.147 22991 151.628
76.263 24814 157.525
76.3791 25184 158.695
76.4952 24875 157.718
76.6113 24958 157.981
76.7276 26397 162.472
76.8438 27597 166.123
76.9601 28901 170.003
77.0765 30148 173.632
77.1929 30096 173.482
77.3093 30005 173.22
77.4258 30313 174.106
77.5423 30207 173.802
77.6589 29605 172.061
77.7755 28161 167.812
77.8921 26170 161.771
78.0088 23516 153.349
78.1256 21626 147.058
78.2423 20740 144.014
78.3591 20827 144.316
78.4759 22722 150.738
78.5928 24466 156.416
78.7097 25968 161.146
78.8266 28395 168.508
78.9436 28570 169.027
79.0606 29928 172.997
79.1776 31022 176.131
79.2946 31443 177.322
79.4117 31654 177.916
79.5288 31486 177.443
79.6459 31362 177.093
79.7631 30962 175.96
79.8802 29446 171.598
79.9974 27874 166.955
80.1147 27056 164.487
80.2319 25800 160.624
80.3491 26927 164.094
80.4664 28029 167.419
80.5837 29298 171.167
80.701 30741 175.331
80.8183 30783 175.451
80.9357 30987 176.031
81.053 31184 176.59
81.1704 30633 175.023
81.2877 31059 176.236
81.4051 30460 174.528
81.5225 29395 171.45
81.6399 26375 162.404
81.7573 23693 153.925
81.8747 21941 148.125
81.9922 21140 145.396
82.1096 21799 147.645
82.227 24133 155.348
82.3444 26401 162.484
82.4619 28362 168.41
82.5793 29956 173.078
82.6967 31298 176.912
82.8142 32031 178.972
82.9316 32633 180.646
83.049 32861 181.276
83.1664 32908 181.406
83.2838 32292 179.7
83.4012 31356 177.076
83.5186 30543 174.766
83.636 29110 170.617
83.7534 28223 167.997
83.8708 26624 163.169
83.9881 26677 163.331
84.1055 27429 165.617
84.2228 29035 170.397
84.3401 30044 173.332
84.4575 31282 176.867
84.5747 31347 177.051
84.692 31806 178.342
84.8093 31558 177.646
84.9265 31763 178.222
85.0437 30758 175.38
85.1609 28353 168.383
85.2781 25639 160.122
85.3952 23237 152.437
85.5123 21549 146.796
85.6294 21559 146.83
85.7465 23074 151.901
85.8636 25480 159.625
85.9806 27774 166.655
86.0976 29541 171.875
86.2145 30778 175.437
86.3315 31548 177.618
86.4484 33005 181.673
86.5652 33157 182.091
86.682 33269 182.398
86.7988 33183 182.162
86.9156 32848 181.24
87.0323 32192 179.421
87.149 31075 176.281
87.2657 29723 172.404
87.3823 26659 163.276
87.4988 24940 157.924
87.6154 23981 154.858
87.7318 23941 154.729
87.8483 24194 155.544
87.9647 24425 156.285
88.081 24488 156.486
88.1973 24060 155.113
88.3136 23115 152.036
88.4298 21856 147.838
88.546 20470 143.073
88.6621 18286 135.226
88.7781 15058 122.711
88.8942 0 1
89.0101 0 1
89.126 0 1
89.2419 0 1
89.3577 0 1
89.4734 0 1
89.5891 0 1
89.7047 0 1
89.8203 0 1
89.9358 0 1
92.3269 0 1
92.4424 0 1
92.558 0 1
92.6736 0 1
92.7893 0 1
92.905 0 1
93.0208 0 1
93.1366 0 1
93.2525 0 1
93.3685 0 1
93.4845 0 1
93.6005 26861 163.893
93.7167 27469 165.738
93.8328 28909 170.026
93.949 29657 172.212
94.0653 30199 173.779
94.1816 30899 175.781
94.2979 30081 173.439
94.4143 28576 169.044
94.5307 26283 162.12
94.6472 23259 152.509
94.7637 21730 147.411
94.8803 22265 149.215
94.9969 24894 157.778
95.1135 27273 165.145
95.2302 29316 171.219
95.3469 31563 177.66
95.4637 33015 181.7
95.5805 33954 184.266
95.6973 34375 185.405
95.8142 34249 185.065
95.9311 34239 185.038
96.048 33972 184.315
96.1649 33639 183.409
96.2819 32573 180.48
96.3989 32084 179.12
96.516 31030 176.153
96.633 29401 171.467
96.7501 27814 166.775
96.8673 27749 166.58
96.9844 28480 168.76
97.1016 29916 172.962
97.2188 31051 176.213
97.336 32830 181.191
97.4532 32913 181.419
97.5704 33339 182.59
97.6877 33626 183.374
97.805 33488 182.997
97.9223 32350 179.861
98.0396 30143 173.617
98.1569 26615 163.141
98.2743 23963 154.8
98.3916 21575 146.884
98.509 21467 146.516
98.6264 23997 154.91
98.7438 27325 165.303
98.8612 30418 174.408
98.9786 32626 180.627
99.096 34784 186.505
99.2134 35344 188
99.3308 36091 189.976
99.4482 36112 190.032
99.5656 36222 190.321
99.6831 36579 191.256
99.8005 35540 188.521
99.9179 35227 187.689
100.035 34460 185.634
100.153 32660 180.721
100.27 31012 176.102
100.388 29868 172.824
100.505 29899 172.913
100.622 31448 177.336
100.74 32979 181.601
100.857 34359 185.362
100.975 34870 186.735
101.092 35523 188.475
101.209 35574 188.611
101.327 35812 189.241
101.444 35400 188.149
101.561 34214 184.97
101.679 31285 176.876
101.796 27364 165.421
101.913 24353 156.054
102.03 22355 149.516
102.148 24410 156.237
102.265 27297 165.218
102.382 32497 180.269
102.499 34225 185
102.616 36546 191.17
102.733 37269 193.052
102.851 38205 195.461
102.968 37654 194.046
103.085 38111 195.22
103.202 37823 194.481
103.319 37197 192.865
103.436 36262 190.426
103.552 35504 188.425
103.669 33900 184.12
103.786 31918 178.656
103.903 30529 174.725
104.02 30804 175.511
104.137 32051 179.028
104.253 33598 183.298
104.37 35064 187.254
104.487 36492 191.029
104.603 36633 191.397
104.72 37020 192.406
104.836 35248 187.745
104.953 33001 181.662
105.069 30171 173.698
105.186 26766 163.603
105.302 23190 152.283
105.418 20285 142.425
105.535 18515 136.07
105.651 18850 137.295
105.767 20678 143.798
105.883 21702 147.316
105.999 21554 146.813
106.115 0 1
106.231 0 1
106.347 0 1
106.463 0 1
106.579 0 1
106.694 0 1
106.81 0 1
106.926 0 1
107.041 0 1
107.157 0 1
109.576 0 1
109.692 0 1
109.807 0 1
109.923 0 1
110.039 0 1
110.155 0 1
110.27 0 1
110.386 0 1
110.502 0 1
110.618 11145 105.57
110.735 13619 116.7
110.851 18396 135.632
110.967 22745 150.814
111.083 26222 161.932
111.199 28801 169.709
111.316 30982 176.017
111.432 31875 178.536
111.549 32341 179.836
111.665 32924 181.45
111.782 32824 181.174
111.898 32528 180.355
112.015 31846 178.454
112.132 30599 174.926
112.248 29753 172.491
112.365 27537 165.943
112.482 26584 163.046
112.599 26606 163.113
112.716 27427 165.611
112.832 28144 167.762
112.949 29749 172.479
113.066 30120 173.551
113.183 31031 176.156
113.3 31095 176.338
113.417 30883 175.736
113.534 30947 175.918
113.652 30230 173.868
113.769 28991 170.267
113.886 25839 160.745
114.003 22489 149.963
114.12 19423 139.366
114.238 19168 138.449
114.355 21658 147.167
114.472 26201 161.867
114.589 27512 165.867
114.707 29918 172.968
114.824 31403 177.209
114.942 31847 178.457
115.059 32083 179.117
115.176 32347 179.853
115.294 31866 178.511
115.411 31619 177.817
115.529 30213 173.819
115.646 29761 172.514
115.764 28370 168.434
115.881 27294 165.209
115.999 25603 160.009
116.116 25735 160.421
116.234 25784 160.574
116.351 26486 162.745
116.469 27513 165.87
116.586 28812 169.741
116.704 28973 170.215
116.821 29014 170.335
116.939 29006 170.311
117.056 29310 171.202
117.174 28847 169.844
117.291 28664 169.304
117.409 26398 162.475
117.526 23603 153.633
117.644 20310 142.513
117.761 18050 134.35
117.879 18991 137.808
117.996 22207 149.02
118.114 25954 161.102
118.231 27674 166.355
118.349 28972 170.212
118.466 29425 171.537
118.584 30172 173.701
118.701 29577 171.98
118.819 29656 172.209
118.936 29535 171.857
119.053 28972 170.212
119.171 28126 167.708
119.288 26974 164.238
119.405 26120 161.617
119.523 24833 157.585
119.64 23748 154.104
119.757 23666 153.838
119.875 24262 155.763
119.992 25174 158.663
120.109 26264 162.062
120.226 26938 164.128
120.343 27012 164.353
120.46 27319 165.285
120.578 27438 165.644
120.695 27147 164.763
120.812 27282 165.173
120.929 26821 163.771
121.046 25975 161.168
121.163 23355 152.823
121.279 20086 141.725
121.396 17778 133.334
121.513 17256 131.362
121.63 18751 136.934
121.747 20969 144.807
121.863 22133 148.772
121.98 22798 150.99
122.097 23343 152.784
122.213 22789 150.96
122.33 22718 150.725
122.446 22107 148.684
122.563 21377 146.209
122.679 20647 143.691
122.795 19767 140.595
122.912 17902 133.798
123.028 16371 127.949
123.144 14761 121.495
123.26 13424 115.862
123.377 0 1
123.493 0 1
123.609 0 1
123.725 0 1
123.84 0 1
123.956 0 1
124.072 0 1
124.188 0 1
124.303 0 1
124.419 0 1
126.852 0 1
126.968 0 1
127.083 0 1
127.199 0 1
127.315 0 1
127.431 0 1
127.547 0 1
127.663 0 1
127.779 0 1
127.895 0 1
128.011 0 1
128.127 0 1
128.243 0 1
128.359 28488 168.784
128.476 28650 169.263
128.592 28452 168.677
128.708 27289 165.194
128.825 27173 164.842
128.941 27670 166.343
129.058 28579 169.053
129.174 29171 170.795
129.291 29831 172.717
129.408 30996 176.057
129.524 30996 176.057
129.641 30803 175.508
129.758 30707 175.234
129.875 30991 176.043
129.992 30846 175.63
130.108 30135 173.594
130.225 27261 165.109
130.342 24115 155.29
130.459 21546 146.786
130.576 20203 142.137
130.693 22113 148.704
130.81 25727 160.396
130.928 27764 166.625
131.045 29419 171.52
131.162 30395 174.342
131.279 30655 175.086
131.396 30925 175.855
131.513 30959 175.952
131.631 30910 175.812
131.748 30590 174.9
131.865 29856 172.789
131.983 29434 171.563
132.1 28362 168.41
132.217 27642 166.259
132.335 27504 165.843
132.452 27599 166.129
132.57 28223 167.997
132.687 29431 171.555
132.804 29431 171.555
132.922 30239 173.894
133.039 30812 175.533
133.157 31081 176.298
133.274 31014 176.108
133.392 30961 175.957
133.509 31028 176.148
133.627 30948 175.92
133.744 28744 169.541
133.862 25915 160.981
133.979 22814 151.043
134.097 21208 145.63
134.214 22024 148.405
134.332 24568 156.742
134.449 26994 164.299
134.567 28776 169.635
134.684 29842 172.748
134.802 30047 173.341
134.919 30467 174.548
135.037 30500 174.642
135.154 30682 175.163
135.272 30456 174.516
135.389 29784 172.58
135.507 29305 171.187
135.624 28798 169.7
135.742 28504 168.831
135.859 27608 166.157
135.977 27926 167.111
136.094 28325 168.3
136.211 29138 170.699
136.329 29688 172.302
136.446 30425 174.428
136.564 30416 174.402
136.681 30709 175.24
136.798 30758 175.38
136.915 30706 175.231
137.033 31084 176.307
137.15 30698 175.208
137.267 30160 173.666
137.384 28336 168.333
137.502 25115 158.477
137.619 22747 150.821
137.736 20766 144.104
137.853 21080 145.19
137.97 23782 154.214
138.087 27079 164.557
138.204 27844 166.865
138.321 28787 169.667
138.438 29365 171.362
138.555 29714 172.377
138.672 30046 173.338
138.788 29813 172.664
138.905 28011 167.365
139.022 26576 163.021
139.139 25165 158.635
139.255 23790 154.24
139.372 23042 151.796
139.488 21796 147.635
139.605 20872 144.471
139.721 20656 143.722
139.838 20709 143.906
139.954 20697 143.865
140.071 20328 142.576
140.187 19148 138.376
140.303 18244 135.07
140.419 17752 133.237
140.535 17315 131.586
140.652 16487 128.402
140.768 0 1
140.884 0 1
141 0 1
141.115 0 1
141.231 0 1
141.347 0 1
141.463 0 1
141.578 0 1
141.694 0 1
144.104 0 1
144.219 0 1
144.335 0 1
144.45 0 1
144.566 0 1
144.682 0 1
144.798 0 1
144.914 0 1
145.03 0 1
145.146 21497 146.619
145.262 22723 150.742
145.378 23297 152.634
145.494 23653 153.795
145.61 23426 153.056
145.726 23879 154.528
145.842 23690 153.916
145.959 23971 154.826
146.075 23352 152.814
146.192 22145 148.812
146.308 19695 140.339
146.425 18037 134.302
146.541 16374 127.961
146.658 16553 128.658
146.774 18329 135.385
146.891 19500 139.642
147.008 21020 144.983
147.125 21490 146.595
147.241 21999 148.321
147.358 22620 150.399
147.475 22613 150.376
147.592 22473 149.91
147.709 22168 148.889
147.826 21616 147.024
147.943 21567 146.857
148.06 21611 147.007
148.177 21038 145.045
148.294 21134 145.375
148.411 21271 145.846
148.528 21714 147.357
148.645 21940 148.122
148.762 22225 149.081
148.88 22739 150.795
148.997 23141 152.122
149.114 22590 150.3
149.231 22885 151.278
149.349 22862 151.202
149.466 22972 151.565
149.583 22944 151.473
149.701 22924 151.407
149.818 21898 147.98
149.935 20625 143.614
150.053 18632 136.499
150.17 17005 130.403
150.287 16438 128.211
150.405 17237 131.29
150.522 18963 137.706
150.64 19748 140.528
150.757 20876 144.485
150.875 21582 146.908
150.992 21862 147.858
151.11 21738 147.438
151.227 21425 146.373
151.344 21193 145.578
151.462 20694 143.854
151.579 20846 144.381
151.697 20718 143.937
151.814 20591 143.496
151.932 20329 142.58
152.049 20764 144.097
152.167 21312 145.986
152.284 21094 145.238
152.402 21337 146.072
152.519 21613 147.014
152.636 21770 147.547
152.754 21612 147.01
152.871 21468 146.52
152.989 21894 147.966
153.106 21429 146.386
153.223 21414 146.335
153.341 20995 144.897
153.458 19928 141.167
153.575 18263 135.141
153.693 16630 128.957
153.81 15452 124.306
153.927 15987 126.44
154.044 17154 130.973
154.162 18246 135.078
154.279 18817 137.175
154.396 19841 140.858
154.513 20142 141.923
154.63 20692 143.847
154.747 20362 142.695
154.864 20326 142.569
154.981 19727 140.453
155.098 19256 138.766
155.215 19210 138.6
155.332 19150 138.384
155.449 18704 136.763
155.566 18921 137.554
155.683 19148 138.376
155.8 19328 139.025
155.917 19476 139.556
156.033 18898 137.47
156.15 0 1
156.267 0 1
156.383 0 1
156.5 0 1
156.617 0 1
156.733 0 1
156.85 0 1
156.966 0 1
157.082 0 1
157.199 0 1
157.315 0 1
157.431 0 1
157.547 0 1
157.664 0 1
157.78 0 1
157.896 0 1
158.012 0 1
158.128 0 1
158.244 0 1
158.359 0 1
158.475 0 1
158.591 0 1
158.706 0 1
