
6.15755 0 1
6.2731 0 1
6.3887 0 1
6.50437 0 1
6.62009 0 1
6.73587 0 1
6.8517 0 1
6.96759 0 1
7.08353 0 1
7.19952 0 1
7.31557 0 1
7.43166 0 1
7.54781 0 1
7.664 0 1
7.78024 0 1
7.89653 0 1
8.01286 0 1
8.12924 0 1
8.24567 0 1
8.36213 0 1
8.47864 0 1
8.59519 0 1
8.71178 0 1
8.82841 0 1
8.94508 0 1
9.06179 0 1
9.17853 0 1
9.29531 0 1
9.41212 0 1
9.52897 0 1
9.64584 0 1
9.76276 0 1
9.8797 0 1
9.99667 0 1
10.1137 0 1
10.2307 0 1
10.3478 0 1
10.4648 0 1
10.5819 0 1
10.6991 0 1
10.8162 0 1
10.9334 0 1
11.0506 0 1
11.1678 0 1
11.285 0 1
11.4023 0 1
11.5196 0 1
11.6369 0 1
11.7542 0 1
11.8715 0 1
11.9888 0 1
12.1062 0 1
12.2235 0 1
12.3409 0 1
12.4582 0 1
12.5756 0 1
12.693 0 1
12.8104 0 1
12.9278 0 1
13.0452 0 1
13.1626 0 1
13.28 0 1
13.3974 0 1
13.5149 0 1
13.6323 0 1
13.7497 0 1
13.8671 0 1
13.9845 0 1
14.1019 0 1
14.2193 0 1
14.3367 0 1
14.4541 0 1
14.5714 0 1
14.6888 0 1
14.8062 0 1
14.9235 0 1
15.0408 4654 68.2202
15.1581 4914 70.0999
15.2755 4859 69.7065
15.3927 4977 70.5479
15.51 4909 70.0643
15.6273 4870 69.7854
15.7445 4909 70.0643
15.8617 4880 69.857
15.9789 4962 70.4415
16.0961 5080 71.2741
16.2132 5140 71.6938
16.3304 5294 72.7599
16.4475 5498 74.1485
16.5646 5636 75.0733
16.6816 5830 76.3544
16.7986 5982 77.3434
16.9156 6103 78.1217
17.0326 6130 78.2943
17.1496 6358 79.7371
17.2665 6518 80.7341
17.3833 6486 80.5357
17.5002 6268 79.1707
17.617 6408 80.05
17.7338 6104 78.1281
17.8505 6017 77.5693
17.9672 5957 77.1816
18.0839 5958 77.1881
18.2005 6163 78.5048
18.3171 6393 79.9562
18.4337 6492 80.5729
18.5502 6760 82.2192
18.6666 6858 82.813
18.7831 6905 83.0963
18.8994 6931 83.2526
19.0158 6868 82.8734
19.1321 6719 81.9695
19.2483 6455 80.343
19.3645 6358 79.7371
19.4806 6377 79.8561
19.5967 6232 78.943
19.7128 6165 78.5175
19.8288 5999 77.4532
19.9447 5348 73.13
20.0606 0 1
20.1764 0 1
20.2922 0 1
20.4079 0 1
20.5236 0 1
20.6392 0 1
20.7548 0 1
20.8702 0 1
23.3078 0 1
23.4233 0 1
23.539 0 1
23.6547 0 1
23.7704 0 1
23.8862 0 1
24.0021 0 1
24.118 0 1
24.234 0 1
24.35 0 1
24.4661 6403 80.0187
24.5822 6344 79.6492
24.6984 6310 79.4355
24.8146 6288 79.2969
24.9309 6301 79.3788
25.0472 6281 79.2528
25.1636 6325 79.5299
25.28 6576 81.0925
25.3965 6810 82.5227
25.513 7191 84.7998
25.6296 7173 84.6936
25.7462 7364 85.8138
25.8628 7484 86.5101
25.9795 7473 86.4465
26.0962 7232 85.0412
26.213 7204 84.8764
26.3298 6962 83.4386
26.4466 6592 81.1911
26.5635 6430 80.1873
26.6804 6419 80.1187
26.7973 6688 81.7802
26.9143 6785 82.3711
27.0313 6960 83.4266
27.1483 7126 84.4156
27.2653 7194 84.8175
27.3824 7399 86.0174
27.4996 7363 85.8079
27.6167 7227 85.0118
27.7339 6989 83.6002
27.8511 6828 82.6317
27.9683 6720 81.9756
28.0855 6436 80.2247
28.2028 6540 80.8703
28.3201 6416 80.0999
28.4374 6359 79.7433
28.5547 6445 80.2808
28.6721 6347 79.6681
28.7894 6725 82.0061
28.9068 6697 81.8352
29.0242 6949 83.3607
29.1416 7057 84.006
29.259 7022 83.7974
29.3764 7227 85.0118
29.4939 7254 85.1704
29.6113 7271 85.2702
29.7288 6998 83.654
29.8463 6572 81.0679
29.9638 6419 80.1187
30.0812 6097 78.0833
30.1987 6090 78.0385
30.3162 6400 80
30.4337 6598 81.2281
30.5512 6768 82.2679
30.6687 6886 82.9819
30.7862 6987 83.5883
30.9037 7051 83.9702
31.0212 7151 84.5636
31.1387 7021 83.7914
31.2562 7083 84.1606
31.3737 6801 82.4682
31.4912 6701 81.8596
31.6087 6660 81.6088
31.7262 6499 80.6164
31.8436 6306 79.4103
31.9611 6413 80.0812
32.0785 6343 79.643
32.1959 6366 79.7872
32.3134 6415 80.0937
32.4308 6580 81.1172
32.5482 6579 81.111
32.6655 6871 82.8915
32.7829 6894 83.0301
32.9002 7003 83.6839
33.0176 7151 84.5636
33.1349 6890 83.006
33.2522 7187 84.7762
33.3694 6857 82.807
33.4867 6531 80.8146
33.6039 6096 78.0769
33.7211 5783 76.046
33.8383 5800 76.1577
33.9554 5890 76.7463
34.0725 6014 77.55
34.1896 6286 79.2843
34.3067 6424 80.1499
34.4237 6479 80.4922
34.5407 6554 80.9568
34.6577 6714 81.939
34.7746 6739 82.0914
34.8915 6708 81.9024
35.0084 6572 81.0679
35.1252 6334 79.5864
35.242 6358 79.7371
35.3587 6136 78.3326
35.4755 6123 78.2496
35.5921 6095 78.0705
35.7088 5873 76.6355
35.8254 5818 76.2758
35.9419 6093 78.0577
36.0584 5995 77.4274
36.1749 6356 79.7245
36.2913 6392 79.95
36.4077 6661 81.6149
36.524 6712 81.9268
36.6403 6772 82.2922
36.7565 6740 82.0975
36.8727 6576 81.0925
36.9889 6478 80.486
37.1049 6224 78.8923
37.221 0 1
37.3369 0 1
37.4529 0 1
37.5687 0 1
37.6845 0 1
37.8003 0 1
37.916 0 1
38.0316 0 1
38.1472 0 1
40.5851 0 1
40.7008 0 1
40.8164 0 1
40.9322 0 1
41.048 0 1
41.1639 0 1
41.2798 0 1
41.3958 0 1
41.5118 0 1
41.6279 0 1
41.744 5230 72.3187
41.8602 5463 73.9121
41.9765 5608 74.8866
42.0928 5633 75.0533
42.2091 5524 74.3236
42.3255 5181 71.9792
42.4419 4808 69.3397
42.5584 4657 68.2422
42.675 4484 66.9627
42.7915 4585 67.7126
42.9081 4892 69.9428
43.0248 5037 70.9718
43.1415 5178 71.9583
43.2582 5129 71.617
43.375 5162 71.8471
43.4918 5277 72.643
43.6087 5433 73.7089
43.7256 5130 71.624
43.8425 5201 72.118
43.9595 5069 71.1969
44.0765 4989 70.6329
44.1935 4838 69.5557
44.3106 4633 68.0661
44.4277 4651 68.1982
44.5448 4397 66.3099
44.6619 4418 66.468
44.7791 4248 65.1767
44.8963 4409 66.4003
45.0136 4464 66.8132
45.1308 4537 67.3573
45.2481 4587 67.7274
45.3654 4595 67.7864
45.4827 4495 67.0448
45.6001 4529 67.2978
45.7174 4480 66.9328
45.8348 4153 64.4438
45.9522 3878 62.2736
46.0697 3714 60.9426
46.1871 3455 58.7792
46.3046 3568 59.7327
46.422 3674 60.6135
46.5395 3793 61.5873
46.657 3941 62.7774
46.7745 3906 62.498
46.892 3922 62.6259
47.0096 4079 63.867
47.1271 4056 63.6867
47.2446 4203 64.8305
47.3622 3996 63.2139
47.4797 4095 63.9922
47.5973 4004 63.2772
47.7149 3744 61.1882
47.8324 3751 61.2454
47.95 3670 60.5805
48.0675 3592 59.9333
48.1851 3558 59.649
48.3027 3417 58.4551
48.4202 3491 59.0847
48.5378 3625 60.208
48.6554 3771 61.4085
48.7729 3727 61.0492
48.8904 3938 62.7535
49.008 3857 62.1048
49.1255 3827 61.8628
49.243 3716 60.959
49.3605 3488 59.0593
49.478 3348 57.8619
49.5955 3139 56.0268
49.713 3069 55.3986
49.8304 3021 54.9636
49.9479 3216 56.7098
50.0653 3386 58.1893
50.1827 3691 60.7536
50.3001 3784 61.5142
50.4175 3885 62.3298
50.5348 3873 62.2334
50.6521 4084 63.9062
50.7694 4050 63.6396
50.8867 4116 64.1561
51.004 4224 64.9923
51.1212 4158 64.4826
51.2384 4286 65.4675
51.3556 4262 65.284
51.4727 4292 65.5134
51.5899 4089 63.9453
51.707 4062 63.7338
51.824 4233 65.0615
51.9411 4193 64.7534
52.0581 4473 66.8805
52.175 4758 68.9783
52.2919 5006 70.7531
52.4088 4823 69.4478
52.5257 5030 70.9225
52.6425 5107 71.4633
52.7593 5007 70.7602
52.876 4826 69.4694
52.9927 4806 69.3253
53.1094 4413 66.4304
53.226 4160 64.4981
53.3426 4024 63.435
53.4591 4202 64.8228
53.5756 4444 66.6633
53.692 4616 67.9412
53.8084 4858 69.6994
53.9248 4985 70.6045
54.0411 5076 71.2461
54.1573 5096 71.3863
54.2735 0 1
54.3896 0 1
54.5057 0 1
54.6217 0 1
54.7377 0 1
54.8537 0 1
54.9695 0 1
55.0853 0 1
55.2011 0 1
55.3168 0 1
55.4324 0 1
57.824 0 1
57.9396 0 1
58.0553 0 1
58.1711 0 1
58.2869 0 1
58.4028 0 1
58.5187 0 1
58.6347 0 1
58.7508 0 1
58.8669 0 1
58.983 5603 74.8532
59.0992 5989 77.3886
59.2155 6387 79.9187
59.3318 6451 80.3181
59.4482 6471 80.4425
59.5646 6638 81.4739
59.681 6743 82.1158
59.7975 6539 80.8641
59.9141 6702 81.8657
60.0306 6467 80.4177
60.1473 6417 80.1062
60.2639 6009 77.5177
60.3807 5826 76.3282
60.4974 5716 75.6042
60.6142 5840 76.4199
60.731 5900 76.8115
60.8479 6032 77.666
60.9648 6170 78.5493
61.0818 6399 79.9937
61.1987 6247 79.038
61.3158 6385 79.9062
61.4328 6074 77.9359
61.5499 5933 77.026
61.667 5338 73.0616
61.7841 5202 72.1249
61.9013 4804 69.3109
62.0185 4802 69.2965
62.1357 5112 71.4983
62.253 5300 72.8011
62.3702 5558 74.552
62.4875 5788 76.0789
62.6049 6118 78.2176
62.7222 6121 78.2368
62.8396 6199 78.7337
62.9569 6297 79.3536
63.0743 6257 79.1012
63.1918 6509 80.6784
63.3092 6338 79.6116
63.4267 6215 78.8353
63.5441 6111 78.1729
63.6616 5996 77.4338
63.7791 5643 75.1199
63.8966 5538 74.4177
64.0142 5370 73.2803
64.1317 5464 73.9189
64.2492 5696 75.4718
64.3668 5724 75.6571
64.4843 5941 77.0779
64.6019 6077 77.9551
64.7195 6190 78.6766
64.837 6210 78.8036
64.9546 5888 76.7333
65.0722 5692 75.4453
65.1898 5171 71.9097
65.3074 4940 70.2851
65.4249 4644 68.1469
65.5425 4603 67.8454
65.6601 4523 67.2533
65.7777 4875 69.8212
65.8952 5078 71.2601
66.0128 5481 74.0338
66.1304 5735 75.7298
66.2479 5803 76.1774
66.3655 5965 77.2334
66.483 6143 78.3773
66.6005 6220 78.867
66.718 6280 79.2465
66.8355 6317 79.4796
66.953 6161 78.492
67.0705 6043 77.7367
67.1879 6044 77.7432
67.3054 5775 75.9934
67.4228 5635 75.0666
67.5402 5389 73.4098
67.6576 5252 72.4707
67.7749 5271 72.6017
67.8923 5362 73.2257
68.0096 5734 75.7232
68.1269 5876 76.6551
68.2442 6033 77.6724
68.3614 6117 78.2113
68.4787 6240 78.9937
68.5958 6116 78.2049
68.713 5839 76.4133
68.8302 5462 73.9053
68.9473 5217 72.2288
69.0643 4920 70.1427
69.1814 4591 67.7569
69.2984 4747 68.8985
69.4154 4921 70.1498
69.5323 5349 73.1369
69.6492 5695 75.4652
69.7661 5977 77.3111
69.8829 6206 78.7782
69.9997 6340 79.6241
70.1165 6451 80.3181
70.2332 6591 81.185
70.3499 6690 81.7924
70.4665 6733 82.0549
70.5831 6456 80.3492
70.6996 6534 80.8332
70.8161 6523 80.7651
70.9326 6355 79.7183
71.049 5902 76.8245
71.1653 5815 76.2561
71.2817 5349 73.1369
71.3979 5152 71.7774
71.5141 5107 71.4633
71.6303 5431 73.6953
71.7464 5490 74.0945
71.8624 0 1
71.9784 0 1
72.0944 0 1
72.2102 0 1
72.3261 0 1
72.4418 0 1
72.5575 0 1
72.6732 0 1
75.1054 0 1
75.2209 0 1
75.3365 0 1
75.4521 0 1
75.5678 0 1
75.6835 0 1
75.7993 0 1
75.9151 0 1
76.031 0 1
76.147 5731 75.7034
76.263 5842 76.433
76.3791 5641 75.1066
76.4952 5474 73.9865
76.6113 5383 73.3689
76.7276 5566 74.6056
76.8438 6193 78.6956
76.9601 6419 80.1187
77.0765 6353 79.7057
77.1929 6648 81.5353
77.3093 6493 80.5792
77.4258 6433 80.206
77.5423 6026 77.6273
77.6589 5652 75.1798
77.7755 5236 72.3602
77.8921 4768 69.0507
78.0088 4656 68.2349
78.1256 4626 68.0147
78.2423 4740 68.8477
78.3591 5265 72.5603
78.4759 5648 75.1532
78.5928 5943 77.0909
78.7097 6054 77.8075
78.8266 6176 78.5875
78.9436 6592 81.1911
79.0606 6667 81.6517
79.1776 6542 80.8826
79.2946 6611 81.3081
79.4117 6881 82.9518
79.5288 6635 81.4555
79.6459 6581 81.1234
79.7631 6302 79.3851
79.8802 6168 78.5366
79.9974 5761 75.9013
80.1147 5409 73.5459
80.2319 5241 72.3948
80.3491 5711 75.5712
80.4664 6067 77.8909
80.5837 6337 79.6053
80.701 6288 79.2969
80.8183 6460 80.3741
80.9357 6393 79.9562
81.053 6325 79.5299
81.1704 6220 78.867
81.2877 5715 75.5976
81.4051 5398 73.4711
81.5225 4959 70.4202
81.6399 4577 67.6535
81.7573 4601 67.8307
81.8747 4695 68.5201
81.9922 5084 71.3022
82.1096 5583 74.7195
82.227 5907 76.857
82.3444 6115 78.1985
82.4619 6288 79.2969
82.5793 6674 81.6946
82.6967 6563 81.0123
82.8142 6877 82.9277
82.9316 6567 81.037
83.049 6850 82.7647
83.1664 6614 81.3265
83.2838 6512 80.697
83.4012 6461 80.3803
83.5186 6229 78.924
83.636 5661 75.2396
83.7534 5412 73.5663
83.8708 5425 73.6546
83.9881 5584 74.7262
84.1055 6037 77.6981
84.2228 6550 80.9321
84.3401 6426 80.1623
84.4575 6685 81.7618
84.5747 6445 80.2808
84.692 6290 79.3095
84.8093 5981 77.3369
84.9265 5615 74.9333
85.0437 5153 71.7844
85.1609 4936 70.2567
85.2781 4553 67.4759
85.3952 4696 68.5274
85.5123 5031 70.9295
85.6294 5339 73.0685
85.7465 5855 76.518
85.8636 6238 78.981
85.9806 6422 80.1374
86.0976 6610 81.3019
86.2145 6798 82.45
86.3315 6937 83.2887
86.4484 7135 84.4689
86.5652 7139 84.4926
86.682 6961 83.4326
86.7988 6956 83.4026
86.9156 7097 84.2437
87.0323 6701 81.8596
87.149 6391 79.9437
87.2657 6104 78.1281
87.3823 5699 75.4917
87.4988 5880 76.6812
87.6154 6246 79.0316
87.7318 6586 81.1542
87.8483 6728 82.0244
87.9647 7000 83.666
88.081 6846 82.7406
88.1973 6845 82.7345
88.3136 6610 81.3019
88.4298 5814 76.2496
88.546 5586 74.7395
88.6621 5163 71.854
88.7781 4955 70.3918
88.8942 0 1
89.0101 0 1
89.126 0 1
89.2419 0 1
89.3577 0 1
89.4734 0 1
89.5891 0 1
89.7047 0 1
89.8203 0 1
89.9358 0 1
92.3269 0 1
92.4424 0 1
92.558 0 1
92.6736 0 1
92.7893 0 1
92.905 0 1
93.0208 0 1
93.1366 0 1
93.2525 0 1
93.3685 0 1
93.4845 0 1
93.6005 5757 75.8749
93.7167 5482 74.0405
93.8328 5197 72.0902
93.949 4873 69.8069
94.0653 4871 69.7925
94.1816 4858 69.6994
94.2979 4975 70.5337
94.4143 5345 73.1095
94.5307 5806 76.1971
94.6472 6079 77.9679
94.7637 6260 79.1202
94.8803 6388 79.925
94.9969 6537 80.8517
95.1135 6806 82.4985
95.2302 6717 81.9573
95.3469 7053 83.9821
95.4637 6924 83.2106
95.5805 6960 83.4266
95.6973 6954 83.3906
95.8142 6894 83.0301
95.9311 6731 82.0427
96.048 6506 80.6598
96.1649 6073 77.9295
96.2819 6015 77.5564
96.3989 5730 75.6968
96.516 5986 77.3692
96.633 6415 80.0937
96.7501 6712 81.9268
96.8673 6662 81.6211
96.9844 6565 81.0247
97.1016 6613 81.3204
97.2188 6388 79.925
97.336 6067 77.8909
97.4532 5741 75.7694
97.5704 5366 73.253
97.6877 5104 71.4423
97.805 4842 69.5845
97.9223 4824 69.455
98.0396 5026 70.8943
98.1569 5377 73.328
98.2743 5614 74.9266
98.3916 6104 78.1281
98.509 6298 79.3599
98.6264 6373 79.8311
98.7438 6513 80.7032
98.8612 6751 82.1645
98.9786 6863 82.8432
99.096 6893 83.0241
99.2134 6852 82.7768
99.3308 6638 81.4739
99.4482 6835 82.6741
99.5656 6580 81.1172
99.6831 6321 79.5047
99.8005 6094 78.0641
99.9179 5648 75.1532
100.035 5615 74.9333
100.153 6032 77.666
100.27 6388 79.925
100.388 6568 81.0432
100.505 6691 81.7985
100.622 6657 81.5904
100.74 6454 80.3368
100.857 6340 79.6241
100.975 5934 77.0325
101.092 5547 74.4782
101.209 5282 72.6774
101.327 4955 70.3918
101.444 4928 70.1997
101.561 4765 69.029
101.679 5138 71.6798
101.796 5521 74.3034
101.913 6030 77.6531
102.03 6295 79.341
102.148 6580 81.1172
102.265 6245 79.0253
102.382 7345 85.703
102.499 7010 83.7257
102.616 7055 83.994
102.733 7227 85.0118
102.851 7200 84.8528
102.968 7294 85.4049
103.085 7181 84.7408
103.202 7035 83.8749
103.319 6710 81.9146
103.436 6229 78.924
103.552 6104 78.1281
103.669 6424 80.1499
103.786 6833 82.662
103.903 7079 84.1368
104.02 7136 84.4748
104.137 7074 84.1071
104.253 7155 84.5872
104.37 6677 81.7129
104.487 6474 80.4612
104.603 6072 77.923
104.72 5611 74.9066
104.836 5631 75.04
104.953 5030 70.9225
105.069 5226 72.2911
105.186 5698 75.4851
105.302 6041 77.7239
105.418 6389 79.9312
105.535 6780 82.3408
105.651 6941 83.3127
105.767 7138 84.4867
105.883 7350 85.7321
105.999 7438 86.2438
106.115 0 1
106.231 0 1
106.347 0 1
106.463 0 1
106.579 0 1
106.694 0 1
106.81 0 1
106.926 0 1
107.041 0 1
107.157 0 1
109.576 0 1
109.692 0 1
109.807 0 1
109.923 0 1
110.039 0 1
110.155 0 1
110.27 0 1
110.386 0 1
110.502 0 1
110.618 5920 76.9415
110.735 6332 79.5739
110.851 6423 80.1436
110.967 6526 80.7837
111.083 6510 80.6846
111.199 6570 81.0555
111.316 6580 81.1172
111.432 6652 81.5598
111.549 6476 80.4736
111.665 6494 80.5854
111.782 5999 77.4532
111.898 5561 74.5721
112.015 5370 73.2803
112.132 5539 74.4245
112.248 5973 77.2852
112.365 6197 78.721
112.482 6226 78.905
112.599 6007 77.5048
112.716 6074 77.9359
112.832 5732 75.71
112.949 5282 72.6774
113.066 5058 71.1196
113.183 4710 68.6294
113.3 4476 66.9029
113.417 4226 65.0077
113.534 4186 64.6993
113.652 4275 65.3835
113.769 4458 66.7683
113.886 4800 69.282
114.003 4970 70.4982
114.12 5016 70.8237
114.238 5120 71.5542
114.355 5301 72.808
114.472 5301 72.808
114.589 5325 72.9726
114.707 5289 72.7255
114.824 5293 72.753
114.942 5356 73.1847
115.059 5211 72.1873
115.176 5045 71.0282
115.294 4954 70.3847
115.411 4642 68.1322
115.529 4296 65.5439
115.646 4284 65.4523
115.764 4453 66.7308
115.881 4641 68.1249
115.999 4600 67.8233
116.116 4644 68.1469
116.234 4562 67.5426
116.351 4464 66.8132
116.469 4127 64.2417
116.586 3969 63
116.704 3731 61.0819
116.821 3588 59.8999
116.939 3417 58.4551
117.056 3258 57.0789
117.174 3209 56.648
117.291 3381 58.1464
117.409 3514 59.279
117.526 3714 60.9426
117.644 3830 61.887
117.761 4073 63.8201
117.879 4126 64.2339
117.996 4234 65.0692
118.114 4098 64.0156
118.231 4474 66.888
118.349 4251 65.1997
118.466 4463 66.8057
118.584 4417 66.4605
118.701 4427 66.5357
118.819 4282 65.437
118.936 4176 64.622
119.053 3942 62.7853
119.171 3723 61.0164
119.288 3848 62.0322
119.405 4182 64.6684
119.523 4329 65.7951
119.64 4329 65.7951
119.757 4270 65.3452
119.875 4400 66.3325
119.992 4345 65.9166
120.109 4171 64.5833
120.226 4066 63.7652
120.343 3840 61.9677
120.46 3664 60.531
120.578 3652 60.4318
120.695 3552 59.5987
120.812 3501 59.1692
120.929 3475 58.9491
121.046 3861 62.1369
121.163 3980 63.0872
121.279 4087 63.9296
121.396 4322 65.7419
121.513 4597 67.8012
121.63 4576 67.6461
121.747 4802 69.2965
121.863 4926 70.1855
121.98 5006 70.7531
122.097 4912 70.0857
122.213 5073 71.225
122.33 5135 71.6589
122.446 5141 71.7008
122.563 4901 70.0071
122.679 4885 69.8928
122.795 4652 68.2056
122.912 4547 67.4314
123.028 4574 67.6314
123.144 4833 69.5198
123.26 5031 70.9295
123.377 0 1
123.493 0 1
123.609 0 1
123.725 0 1
123.84 0 1
123.956 0 1
124.072 0 1
124.188 0 1
124.303 0 1
124.419 0 1
126.852 0 1
126.968 0 1
127.083 0 1
127.199 0 1
127.315 0 1
127.431 0 1
127.547 0 1
127.663 0 1
127.779 0 1
127.895 0 1
128.011 0 1
128.127 0 1
128.243 0 1
128.359 5378 73.3348
128.476 5665 75.2662
128.592 5981 77.3369
128.708 6085 78.0064
128.825 6060 77.846
128.941 6228 78.9177
129.058 5875 76.6485
129.174 5864 76.5768
129.291 5435 73.7225
129.408 5280 72.6636
129.524 5179 71.9653
129.641 4972 70.5124
129.758 4768 69.0507
129.875 4529 67.2978
129.992 4813 69.3758
130.108 4889 69.9214
130.225 4982 70.5833
130.342 5194 72.0694
130.459 5318 72.9246
130.576 5341 73.0821
130.693 5370 73.2803
130.81 5472 73.973
130.928 5498 74.1485
131.045 5551 74.505
131.162 5647 75.1465
131.279 5541 74.4379
131.396 5448 73.8106
131.513 5506 74.2024
131.631 5289 72.7255
131.748 4893 69.95
131.865 4830 69.4982
131.983 4915 70.1071
132.1 5231 72.3257
132.217 5175 71.9375
132.335 5337 73.0548
132.452 5345 73.1095
132.57 5248 72.4431
132.687 5042 71.007
132.804 5067 71.1829
132.922 4593 67.7717
133.039 4559 67.5204
133.157 4326 65.7723
133.274 4162 64.5136
133.392 4057 63.6946
133.509 3955 62.8888
133.627 4164 64.5291
133.744 4192 64.7457
133.862 4347 65.9318
133.979 4448 66.6933
134.097 4372 66.1211
134.214 4430 66.5582
134.332 4454 66.7383
134.449 4563 67.55
134.567 4448 66.6933
134.684 4621 67.9779
134.802 4512 67.1714
134.919 4492 67.0224
135.037 4419 66.4756
135.154 4277 65.3988
135.272 4138 64.3273
135.389 3876 62.2575
135.507 3871 62.2174
135.624 4007 63.3009
135.742 4107 64.0859
135.859 4118 64.1716
135.977 4141 64.3506
136.094 3959 62.9206
136.211 4117 64.1639
136.329 3847 62.0242
136.446 3701 60.8358
136.564 3569 59.7411
136.681 3291 57.3672
136.798 3313 57.5587
136.915 3165 56.2583
137.033 3182 56.4092
137.15 3194 56.5155
137.267 3239 56.9122
137.384 3299 57.4369
137.502 3377 58.112
137.619 3374 58.0861
137.736 3471 58.9152
137.853 3430 58.5662
137.97 3583 59.8582
138.087 3668 60.564
138.204 3782 61.498
138.321 3928 62.6738
138.438 3849 62.0403
138.555 3986 63.1348
138.672 3912 62.546
138.788 3952 62.8649
138.905 3796 61.6117
139.022 3795 61.6036
139.139 3822 61.8223
139.255 4099 64.0234
139.372 4216 64.9307
139.488 4236 65.0846
139.605 4370 66.106
139.721 4403 66.3551
139.838 4383 66.2042
139.954 4299 65.5668
140.071 4196 64.7765
140.187 4169 64.5678
140.303 3887 62.3458
140.419 3850 62.0484
140.535 3821 61.8142
140.652 3767 61.3759
140.768 0 1
140.884 0 1
141 0 1
141.115 0 1
141.231 0 1
141.347 0 1
141.463 0 1
141.578 0 1
141.694 0 1
144.104 0 1
144.219 0 1
144.335 0 1
144.45 0 1
144.566 0 1
144.682 0 1
144.798 0 1
144.914 0 1
145.03 0 1
145.146 3624 60.1997
145.262 3580 59.8331
145.378 3548 59.5651
145.494 3374 58.0861
145.61 3255 57.0526
145.726 3184 56.4269
145.842 3181 56.4004
145.959 3063 55.3444
146.075 3220 56.745
146.192 3280 57.2713
146.308 3155 56.1694
146.425 3221 56.7539
146.541 3091 55.5968
146.658 3220 56.745
146.774 3266 57.1489
146.891 3427 58.5406
147.008 3357 57.9396
147.125 3334 57.7408
147.241 3320 57.6194
147.358 3189 56.4712
147.475 3123 55.8838
147.592 3081 55.5068
147.709 3050 55.2268
147.826 2952 54.3323
147.943 3051 55.2359
148.06 3026 55.0091
148.177 3092 55.6058
148.294 3158 56.1961
148.411 3107 55.7405
148.528 3037 55.109
148.645 3071 55.4166
148.762 2967 54.4702
148.88 2973 54.5252
148.997 2884 53.7029
149.114 2451 49.5076
149.231 2588 50.8724
149.349 2439 49.3862
149.466 2441 49.4065
149.583 2425 49.2443
149.701 2508 50.0799
149.818 2599 50.9804
149.935 2605 51.0392
150.053 2686 51.8266
150.17 2611 51.0979
150.287 2673 51.7011
150.405 2766 52.5928
150.522 2741 52.3546
150.64 2783 52.7541
150.757 2850 53.3854
150.875 2809 53
150.992 2890 53.7587
151.11 2817 53.0754
151.227 2812 53.0283
151.344 2674 51.7107
151.462 2693 51.8941
151.579 2760 52.5357
151.697 2850 53.3854
151.814 3026 55.0091
151.932 3121 55.8659
152.049 3204 56.6039
152.167 3041 55.1453
152.284 3028 55.0273
152.402 2913 53.9722
152.519 2916 54
152.636 2886 53.7215
152.754 2775 52.6783
152.871 2707 52.0288
152.989 2724 52.192
153.106 2701 51.9711
153.223 2732 52.2685
153.341 2744 52.3832
153.458 2816 53.066
153.575 2908 53.9259
153.693 3002 54.7905
153.81 3029 55.0364
153.927 3075 55.4527
154.044 3110 55.7674
154.162 3097 55.6507
154.279 3242 56.9386
154.396 3324 57.6541
154.513 3457 58.7963
154.63 3517 59.3043
154.747 3558 59.649
154.864 3380 58.1378
154.981 3305 57.4891
155.098 3448 58.7197
155.215 3478 58.9746
155.332 3622 60.1831
155.449 3651 60.4235
155.566 3675 60.6218
155.683 3791 61.5711
155.8 3726 61.041
155.917 3793 61.5873
156.033 3652 60.4318
156.15 0 1
156.267 0 1
156.383 0 1
156.5 0 1
156.617 0 1
156.733 0 1
156.85 0 1
156.966 0 1
157.082 0 1
157.199 0 1
157.315 0 1
157.431 0 1
157.547 0 1
157.664 0 1
157.78 0 1
157.896 0 1
158.012 0 1
158.128 0 1
158.244 0 1
158.359 0 1
158.475 0 1
158.591 0 1
158.706 0 1
