
6.15755 0 1
6.2731 0 1
6.3887 0 1
6.50437 0 1
6.62009 0 1
6.73587 0 1
6.8517 0 1
6.96759 0 1
7.08353 0 1
7.19952 0 1
7.31557 0 1
7.43166 0 1
7.54781 0 1
7.664 0 1
7.78024 0 1
7.89653 0 1
8.01286 0 1
8.12924 0 1
8.24567 0 1
8.36213 0 1
8.47864 0 1
8.59519 0 1
8.71178 0 1
8.82841 0 1
8.94508 0 1
9.06179 0 1
9.17853 0 1
9.29531 0 1
9.41212 0 1
9.52897 0 1
9.64584 0 1
9.76276 0 1
9.8797 0 1
9.99667 0 1
10.1137 0 1
10.2307 0 1
10.3478 0 1
10.4648 0 1
10.5819 0 1
10.6991 0 1
10.8162 0 1
10.9334 0 1
11.0506 0 1
11.1678 0 1
11.285 0 1
11.4023 0 1
11.5196 0 1
11.6369 0 1
11.7542 0 1
11.8715 0 1
11.9888 0 1
12.1062 0 1
12.2235 0 1
12.3409 0 1
12.4582 0 1
12.5756 0 1
12.693 0 1
12.8104 0 1
12.9278 0 1
13.0452 0 1
13.1626 0 1
13.28 0 1
13.3974 0 1
13.5149 0 1
13.6323 0 1
13.7497 0 1
13.8671 0 1
13.9845 0 1
14.1019 0 1
14.2193 0 1
14.3367 0 1
14.4541 0 1
14.5714 0 1
14.6888 0 1
14.8062 0 1
14.9235 0 1
15.0408 0 0
15.1581 0 0
15.2755 0 0
15.3927 0 0
15.51 0 0
15.6273 0 0
15.7445 0 0
15.8617 0 0
15.9789 0 0
16.0961 0 0
16.2132 0 0
16.3304 0 0
16.4475 0 0
16.5646 0 0
16.6816 0 0
16.7986 0 0
16.9156 0 0
17.0326 0 0
17.1496 0 0
17.2665 0 0
17.3833 0 0
17.5002 0 0
17.617 0 0
17.7338 0 0
17.8505 0 0
17.9672 0 0
18.0839 0 0
18.2005 0 0
18.3171 0 0
18.4337 0 0
18.5502 0 0
18.6666 0 0
18.7831 0 0
18.8994 0 0
19.0158 0 0
19.1321 0 0
19.2483 0 0
19.3645 0 0
19.4806 0 0
19.5967 0 0
19.7128 0 0
19.8288 0 0
19.9447 0 0
20.0606 0 1
20.1764 0 1
20.2922 0 1
20.4079 0 1
20.5236 0 1
20.6392 0 1
20.7548 0 1
20.8702 0 1
23.3078 0 1
23.4233 0 1
23.539 0 1
23.6547 0 1
23.7704 0 1
23.8862 0 1
24.0021 0 1
24.118 0 1
24.234 0 1
24.35 0 1
24.4661 1475 38.4057
24.5822 1403 37.4566
24.6984 1424 37.7359
24.8146 1297 36.0139
24.9309 1215 34.8569
25.0472 1248 35.327
25.1636 1343 36.647
25.28 1358 36.8511
25.3965 1443 37.9868
25.513 1484 38.5227
25.6296 1621 40.2616
25.7462 1606 40.0749
25.8628 1603 40.0375
25.9795 1688 41.0853
26.0962 1681 41
26.213 1638 40.4722
26.3298 1567 39.5854
26.4466 1586 39.8246
26.5635 1570 39.6232
26.6804 1431 37.8286
26.7973 1389 37.2693
26.9143 1508 38.833
27.0313 1487 38.5616
27.1483 1532 39.1408
27.2653 1541 39.2556
27.3824 1586 39.8246
27.4996 1592 39.8999
27.6167 1601 40.0125
27.7339 1525 39.0512
27.8511 1539 39.2301
27.9683 1377 37.108
28.0855 1441 37.9605
28.2028 1466 38.2884
28.3201 1284 35.8329
28.4374 1202 34.6699
28.5547 1154 33.9706
28.6721 1156 34
28.7894 1271 35.6511
28.9068 1294 35.9722
29.0242 1435 37.8814
29.1416 1424 37.7359
29.259 1491 38.6135
29.3764 1481 38.4838
29.4939 1619 40.2368
29.6113 1547 39.3319
29.7288 1508 38.833
29.8463 1542 39.2683
29.9638 1478 38.4448
30.0812 1444 38
30.1987 1409 37.5366
30.3162 1368 36.9865
30.4337 1412 37.5766
30.5512 1519 38.9744
30.6687 1430 37.8153
30.7862 1497 38.6911
30.9037 1466 38.2884
31.0212 1456 38.1576
31.1387 1531 39.128
31.2562 1550 39.37
31.3737 1538 39.2173
31.4912 1506 38.8072
31.6087 1427 37.7757
31.7262 1421 37.6962
31.8436 1249 35.3412
31.9611 1250 35.3553
32.0785 1200 34.641
32.1959 1201 34.6554
32.3134 1228 35.0428
32.4308 1283 35.819
32.5482 1410 37.55
32.6655 1497 38.6911
32.7829 1497 38.6911
32.9002 1592 39.8999
33.0176 1484 38.5227
33.1349 1567 39.5854
33.2522 1556 39.4462
33.3694 1614 40.1746
33.4867 1547 39.3319
33.6039 1515 38.923
33.7211 1437 37.9078
33.8383 1440 37.9473
33.9554 1438 37.921
34.0725 1365 36.9459
34.1896 1499 38.7169
34.3067 1530 39.1152
34.4237 1597 39.9625
34.5407 1555 39.4335
34.6577 1640 40.4969
34.7746 1559 39.4842
34.8915 1702 41.2553
35.0084 1591 39.8873
35.1252 1601 40.0125
35.242 1466 38.2884
35.3587 1492 38.6264
35.4755 1433 37.855
35.5921 1249 35.3412
35.7088 1172 34.2345
35.8254 1131 33.6303
35.9419 1115 33.3916
36.0584 1269 35.623
36.1749 1331 36.4829
36.2913 1381 37.1618
36.4077 1440 37.9473
36.524 1569 39.6106
36.6403 1524 39.0384
36.7565 1556 39.4462
36.8727 1520 38.9872
36.9889 1528 39.0896
37.1049 1535 39.1791
37.221 0 1
37.3369 0 1
37.4529 0 1
37.5687 0 1
37.6845 0 1
37.8003 0 1
37.916 0 1
38.0316 0 1
38.1472 0 1
40.5851 0 1
40.7008 0 1
40.8164 0 1
40.9322 0 1
41.048 0 1
41.1639 0 1
41.2798 0 1
41.3958 0 1
41.5118 0 1
41.6279 0 1
41.744 1292 35.9444
41.8602 1413 37.5899
41.9765 1421 37.6962
42.0928 1345 36.6742
42.2091 1448 38.0526
42.3255 1391 37.2961
42.4419 1342 36.6333
42.5584 1300 36.0555
42.675 1280 35.7771
42.7915 1333 36.5103
42.9081 1278 35.7491
43.0248 1246 35.2987
43.1415 1284 35.8329
43.2582 1317 36.2905
43.375 1388 37.2559
43.4918 1436 37.8946
43.6087 1362 36.9053
43.7256 1317 36.2905
43.8425 1367 36.973
43.9595 1317 36.2905
44.0765 1378 37.1214
44.1935 1200 34.641
44.3106 1084 32.9242
44.4277 1012 31.8119
44.5448 881 29.6816
44.6619 862 29.3598
44.7791 919 30.315
44.8963 1002 31.6544
45.0136 1111 33.3317
45.1308 1180 34.3511
45.2481 1135 33.6898
45.3654 1232 35.0999
45.4827 1216 34.8712
45.6001 1223 34.9714
45.7174 1209 34.7707
45.8348 1229 35.0571
45.9522 1169 34.1906
46.0697 1182 34.3802
46.1871 1149 33.8969
46.3046 1186 34.4384
46.422 1072 32.7414
46.5395 1083 32.909
46.657 1137 33.7194
46.7745 1144 33.8231
46.892 1130 33.6155
47.0096 1163 34.1028
47.1271 1194 34.5543
47.2446 1123 33.5112
47.3622 1091 33.0303
47.4797 1055 32.4808
47.5973 1052 32.4345
47.7149 1094 33.0757
47.8324 985 31.3847
47.95 956 30.9192
48.0675 805 28.3725
48.1851 759 27.55
48.3027 761 27.5862
48.4202 865 29.4109
48.5378 856 29.2575
48.6554 936 30.5941
48.7729 1037 32.2025
48.8904 1064 32.619
49.008 1091 33.0303
49.1255 1100 33.1662
49.243 1094 33.0757
49.3605 1044 32.311
49.478 1086 32.9545
49.5955 1051 32.4191
49.713 1112 33.3467
49.8304 1087 32.9697
49.9479 1048 32.3728
50.0653 1047 32.3574
50.1827 1165 34.1321
50.3001 1174 34.2637
50.4175 1203 34.6843
50.5348 1246 35.2987
50.6521 1296 36
50.7694 1390 37.2827
50.8867 1411 37.5633
51.004 1391 37.2961
51.1212 1337 36.565
51.2384 1354 36.7967
51.3556 1350 36.7423
51.4727 1187 34.4529
51.5899 1081 32.8786
51.707 1043 32.2955
51.824 1093 33.0606
51.9411 1266 35.5809
52.0581 1374 37.0675
52.175 1498 38.704
52.2919 1562 39.5221
52.4088 1680 40.9878
52.5257 1635 40.4351
52.6425 1737 41.6773
52.7593 1813 42.5793
52.876 1765 42.0119
52.9927 1852 43.0349
53.1094 1884 43.4051
53.226 1834 42.8252
53.3426 1723 41.509
53.4591 1785 42.2493
53.5756 1783 42.2256
53.692 1812 42.5676
53.8084 1794 42.3556
53.9248 1909 43.6921
54.0411 1953 44.1928
54.1573 1973 44.4185
54.2735 0 1
54.3896 0 1
54.5057 0 1
54.6217 0 1
54.7377 0 1
54.8537 0 1
54.9695 0 1
55.0853 0 1
55.2011 0 1
55.3168 0 1
55.4324 0 1
57.824 0 1
57.9396 0 1
58.0553 0 1
58.1711 0 1
58.2869 0 1
58.4028 0 1
58.5187 0 1
58.6347 0 1
58.7508 0 1
58.8669 0 1
58.983 2664 51.614
59.0992 2812 53.0283
59.2155 2761 52.5452
59.3318 2751 52.45
59.4482 2814 53.0471
59.5646 2766 52.5928
59.681 2846 53.3479
59.7975 2748 52.4214
59.9141 2592 50.9117
60.0306 2519 50.1896
60.1473 2345 48.4252
60.2639 2071 45.5082
60.3807 2023 44.9778
60.4974 2087 45.6837
60.6142 2176 46.6476
60.731 2487 49.8698
60.8479 2580 50.7937
60.9648 2743 52.3737
61.0818 2925 54.0833
61.1987 2880 53.6656
61.3158 2971 54.5069
61.4328 3036 55.0999
61.5499 2976 54.5527
61.667 2949 54.3047
61.7841 2906 53.9073
61.9013 2946 54.2771
62.0185 2919 54.0278
62.1357 3020 54.9545
62.253 2987 54.6535
62.3702 2983 54.6168
62.4875 3005 54.8179
62.6049 3052 55.2449
62.7222 3102 55.6956
62.8396 3099 55.6687
62.9569 3211 56.6657
63.0743 3018 54.9363
63.1918 3110 55.7674
63.3092 3063 55.3444
63.4267 2837 53.2635
63.5441 2758 52.5167
63.6616 2644 51.4198
63.7791 2329 48.2597
63.8966 2103 45.8585
64.0142 2074 45.5412
64.1317 2325 48.2183
64.2492 2696 51.923
64.3668 2923 54.0648
64.4843 3134 55.9821
64.6019 3220 56.745
64.7195 3302 57.463
64.837 3230 56.8331
64.9546 3358 57.9483
65.0722 3295 57.4021
65.1898 3110 55.7674
65.3074 3462 58.8388
65.4249 3239 56.9122
65.5425 3286 57.3236
65.6601 3250 57.0088
65.7777 3171 56.3116
65.8952 3173 56.3294
66.0128 3333 57.7321
66.1304 3245 56.9649
66.2479 3348 57.8619
66.3655 3546 59.5483
66.483 3599 59.9917
66.6005 3558 59.649
66.718 3431 58.5747
66.8355 3392 58.2409
66.953 3352 57.8965
67.0705 3301 57.4543
67.1879 3007 54.8361
67.3054 2780 52.7257
67.4228 2423 49.224
67.5402 2415 49.1426
67.6576 2388 48.8672
67.7749 2595 50.9411
67.8923 3014 54.8999
68.0096 3258 57.0789
68.1269 3441 58.66
68.2442 3733 61.0983
68.3614 3705 60.8687
68.4787 3620 60.1664
68.5958 3844 62
68.713 3825 61.8466
68.8302 3789 61.5549
68.9473 3855 62.0886
69.0643 3732 61.0901
69.1814 3701 60.8358
69.2984 3960 62.9285
69.4154 3922 62.6259
69.5323 3772 61.4166
69.6492 3882 62.3057
69.7661 3854 62.0806
69.8829 3919 62.6019
69.9997 4013 63.3482
70.1165 4132 64.2806
70.2332 4177 64.6297
70.3499 3993 63.1902
70.4665 3892 62.3859
70.5831 3927 62.6658
70.6996 3854 62.0806
70.8161 3537 59.4727
70.9326 3407 58.3695
71.049 2938 54.2033
71.1653 2661 51.5849
71.2817 2503 50.03
71.3979 2636 51.342
71.5141 3030 55.0454
71.6303 3342 57.81
71.7464 3211 56.6657
71.8624 0 1
71.9784 0 1
72.0944 0 1
72.2102 0 1
72.3261 0 1
72.4418 0 1
72.5575 0 1
72.6732 0 1
75.1054 0 1
75.2209 0 1
75.3365 0 1
75.4521 0 1
75.5678 0 1
75.6835 0 1
75.7993 0 1
75.9151 0 1
76.031 0 1
76.147 3369 58.0431
76.263 3487 59.0508
76.3791 3239 56.9122
76.4952 2803 52.9434
76.6113 2765 52.5833
76.7276 2922 54.0555
76.8438 3337 57.7668
76.9601 3780 61.4817
77.0765 4222 64.9769
77.1929 4337 65.8559
77.3093 4409 66.4003
77.4258 4479 66.9253
77.5423 4368 66.0908
77.6589 4430 66.5582
77.7755 4437 66.6108
77.8921 4375 66.1438
78.0088 4371 66.1135
78.1256 4374 66.1362
78.2423 4325 65.7647
78.3591 4269 65.3376
78.4759 4278 65.4064
78.5928 4323 65.7495
78.7097 4223 64.9846
78.8266 4431 66.5658
78.9436 4076 63.8436
79.0606 4305 65.6125
79.1776 4465 66.8207
79.2946 4381 66.1891
79.4117 4338 65.8635
79.5288 4356 66
79.6459 4220 64.9615
79.7631 3849 62.0403
79.8802 3717 60.9672
79.9974 3421 58.4893
80.1147 3019 54.9454
80.2319 2885 53.7122
80.3491 3006 54.827
80.4664 3288 57.3411
80.5837 3636 60.2993
80.701 4073 63.8201
80.8183 4300 65.5744
80.9357 4404 66.3626
81.053 4362 66.0454
81.1704 4345 65.9166
81.2877 4293 65.521
81.4051 4365 66.0681
81.5225 4406 66.3777
81.6399 4163 64.5213
81.7573 4296 65.5439
81.8747 4168 64.56
81.9922 4179 64.6452
82.1096 4156 64.467
82.227 4107 64.0859
82.3444 4092 63.9687
82.4619 4062 63.7338
82.5793 4003 63.2693
82.6967 4203 64.8305
82.8142 4125 64.2262
82.9316 4205 64.846
83.049 4090 63.9531
83.1664 4016 63.3719
83.2838 3971 63.0159
83.4012 3510 59.2453
83.5186 3411 58.4038
83.636 3094 55.6237
83.7534 2695 51.9134
83.8708 2588 50.8724
83.9881 2558 50.5767
84.1055 2936 54.1849
84.2228 3222 56.7627
84.3401 3735 61.1146
84.4575 3972 63.0238
84.5747 4032 63.498
84.692 4103 64.0547
84.8093 4128 64.2495
84.9265 4176 64.622
85.0437 4164 64.5291
85.1609 4191 64.7379
85.2781 4168 64.56
85.3952 4150 64.4205
85.5123 4300 65.5744
85.6294 4108 64.0937
85.7465 4216 64.9307
85.8636 4086 63.9218
85.9806 4183 64.6761
86.0976 4140 64.3428
86.2145 4339 65.8711
86.3315 4312 65.6658
86.4484 4516 67.2012
86.5652 4654 68.2202
86.682 4401 66.34
86.7988 4323 65.7495
86.9156 4171 64.5833
87.0323 3989 63.1585
87.149 3773 61.4248
87.2657 3486 59.0424
87.3823 3200 56.5685
87.4988 3110 55.7674
87.6154 3312 57.55
87.7318 3771 61.4085
87.8483 4123 64.2106
87.9647 4532 67.3201
88.081 4561 67.5352
88.1973 4860 69.7137
88.3136 4742 68.8622
88.4298 4754 68.9493
88.546 4745 68.884
88.6621 4762 69.0072
88.7781 4815 69.3902
88.8942 0 1
89.0101 0 1
89.126 0 1
89.2419 0 1
89.3577 0 1
89.4734 0 1
89.5891 0 1
89.7047 0 1
89.8203 0 1
89.9358 0 1
92.3269 0 1
92.4424 0 1
92.558 0 1
92.6736 0 1
92.7893 0 1
92.905 0 1
93.0208 0 1
93.1366 0 1
93.2525 0 1
93.3685 0 1
93.4845 0 1
93.6005 4778 69.1231
93.7167 4866 69.7567
93.8328 4924 70.1712
93.949 4806 69.3253
94.0653 4834 69.527
94.1816 4840 69.5701
94.2979 4750 68.9202
94.4143 4786 69.1809
94.5307 4809 69.347
94.6472 4795 69.2459
94.7637 4684 68.4398
94.8803 4912 70.0857
94.9969 4680 68.4105
95.1135 4732 68.7895
95.2302 4739 68.8404
95.3469 4814 69.383
95.4637 4889 69.9214
95.5805 4919 70.1356
95.6973 4929 70.2068
95.8142 4944 70.3136
95.9311 4852 69.6563
96.048 4597 67.8012
96.1649 4519 67.2235
96.2819 4085 63.914
96.3989 3890 62.3699
96.516 3519 59.3212
96.633 3263 57.1227
96.7501 3446 58.7026
96.8673 3629 60.2412
96.9844 4220 64.9615
97.1016 4599 67.8159
97.2188 4908 70.0571
97.336 5206 72.1526
97.4532 5238 72.374
97.5704 5124 71.5821
97.6877 5109 71.4773
97.805 5178 71.9583
97.9223 5133 71.645
98.0396 5026 70.8943
98.1569 5104 71.4423
98.2743 5078 71.2601
98.3916 5014 70.8096
98.509 5115 71.5192
98.6264 5033 70.9436
98.7438 4932 70.2282
98.8612 4895 69.9643
98.9786 5025 70.8872
99.096 5213 72.2011
99.2134 5207 72.1595
99.3308 5143 71.7147
99.4482 5219 72.2426
99.5656 5218 72.2357
99.6831 5066 71.1758
99.8005 4819 69.419
99.9179 4445 66.6708
100.035 4086 63.9218
100.153 3691 60.7536
100.27 3478 58.9746
100.388 3876 62.2575
100.505 4281 65.4294
100.622 4783 69.1592
100.74 5130 71.624
100.857 5274 72.6223
100.975 5255 72.4914
101.092 5266 72.5672
101.209 5317 72.9178
101.327 5351 73.1505
101.444 5231 72.3257
101.561 5281 72.6705
101.679 5422 73.6342
101.796 5337 73.0548
101.913 5466 73.9324
102.03 5473 73.9797
102.148 5393 73.437
102.265 5583 74.7195
102.382 5198 72.0972
102.499 5429 73.6817
102.616 5501 74.1687
102.733 5445 73.7902
102.851 5581 74.7061
102.968 5641 75.1066
103.085 5576 74.6726
103.202 5432 73.7021
103.319 5107 71.4633
103.436 4812 69.3686
103.552 4250 65.192
103.669 4013 63.3482
103.786 3900 62.45
103.903 4137 64.3195
104.02 4633 68.0661
104.137 5153 71.7844
104.253 5606 74.8732
104.37 5687 75.4122
104.487 5863 76.5702
104.603 5829 76.3479
104.72 5825 76.3217
104.836 5825 76.3217
104.953 5697 75.4785
105.069 5869 76.6094
105.186 5834 76.3806
105.302 5922 76.9545
105.418 5827 76.3348
105.535 5917 76.922
105.651 5689 75.4255
105.767 5828 76.3413
105.883 5842 76.433
105.999 5972 77.2787
106.115 0 1
106.231 0 1
106.347 0 1
106.463 0 1
106.579 0 1
106.694 0 1
106.81 0 1
106.926 0 1
107.041 0 1
107.157 0 1
109.576 0 1
109.692 0 1
109.807 0 1
109.923 0 1
110.039 0 1
110.155 0 1
110.27 0 1
110.386 0 1
110.502 0 1
110.618 5361 73.2189
110.735 5598 74.8198
110.851 5609 74.8933
110.967 5503 74.1822
111.083 5498 74.1485
111.199 5501 74.1687
111.316 5609 74.8933
111.432 5676 75.3392
111.549 5467 73.9392
111.665 5456 73.8647
111.782 5199 72.1041
111.898 4880 69.857
112.015 4334 65.8331
112.132 3875 62.2495
112.248 3572 59.7662
112.365 3903 62.474
112.482 4285 65.4599
112.599 4585 67.7126
112.716 5043 71.0141
112.832 5344 73.1027
112.949 5260 72.5259
113.066 5212 72.1942
113.183 5199 72.1041
113.3 5111 71.4913
113.417 5153 71.7844
113.534 5110 71.4843
113.652 4947 70.3349
113.769 5038 70.9789
113.886 5096 71.3863
114.003 4995 70.6753
114.12 4845 69.606
114.238 4983 70.5904
114.355 4828 69.4838
114.472 4809 69.347
114.589 4850 69.6419
114.707 4933 70.2353
114.824 4899 69.9929
114.942 4845 69.606
115.059 4985 70.6045
115.176 4818 69.4118
115.294 4669 68.3301
115.411 4328 65.7875
115.529 4187 64.707
115.646 3766 61.3677
115.764 3462 58.8388
115.881 3466 58.8727
115.999 3762 61.3351
116.116 4238 65.0999
116.234 4531 67.3127
116.351 4695 68.5201
116.469 4864 69.7424
116.586 4985 70.6045
116.704 4991 70.647
116.821 4943 70.3065
116.939 4967 70.4769
117.056 4939 70.278
117.174 4877 69.8355
117.291 4907 70.05
117.409 4887 69.9071
117.526 4995 70.6753
117.644 4824 69.455
117.761 4987 70.6187
117.879 4937 70.2638
117.996 4856 69.685
118.114 5034 70.9507
118.231 4899 69.9929
118.349 4851 69.6491
118.466 4957 70.406
118.584 5018 70.8378
118.701 5044 71.0211
118.819 4990 70.6399
118.936 4797 69.2604
119.053 4504 67.1118
119.171 4242 65.1306
119.288 3838 61.9516
119.405 3434 58.6003
119.523 3393 58.2495
119.64 3813 61.7495
119.757 4232 65.0538
119.875 4530 67.3053
119.992 4839 69.5629
120.109 4726 68.7459
120.226 4864 69.7424
120.343 4981 70.5762
120.46 4935 70.2496
120.578 4910 70.0714
120.695 4864 69.7424
120.812 4930 70.214
120.929 4970 70.4982
121.046 5034 70.9507
121.163 4902 70.0143
121.279 4804 69.3109
121.396 4846 69.6132
121.513 4884 69.8856
121.63 4787 69.1881
121.747 4863 69.7352
121.863 4738 68.8331
121.98 4787 69.1881
122.097 4759 68.9855
122.213 4843 69.5917
122.33 4850 69.6419
122.446 4805 69.3181
122.563 4736 68.8186
122.679 4519 67.2235
122.795 4312 65.6658
122.912 4102 64.0469
123.028 3750 61.2372
123.144 3385 58.1808
123.26 3432 58.5833
123.377 0 1
123.493 0 1
123.609 0 1
123.725 0 1
123.84 0 1
123.956 0 1
124.072 0 1
124.188 0 1
124.303 0 1
124.419 0 1
126.852 0 1
126.968 0 1
127.083 0 1
127.199 0 1
127.315 0 1
127.431 0 1
127.547 0 1
127.663 0 1
127.779 0 1
127.895 0 1
128.011 0 1
128.127 0 1
128.243 0 1
128.359 3909 62.522
128.476 3748 61.2209
128.592 4010 63.3246
128.708 4586 67.72
128.825 5019 70.8449
128.941 5485 74.0608
129.058 5269 72.5879
129.174 5437 73.736
129.291 5542 74.4446
129.408 5366 73.253
129.524 5387 73.3962
129.641 5413 73.5731
129.758 5263 72.5465
129.875 5518 74.2832
129.992 5372 73.2939
130.108 5321 72.9452
130.225 5242 72.4017
130.342 5313 72.8903
130.459 5107 71.4633
130.576 5447 73.8038
130.693 5298 72.7874
130.81 5288 72.7186
130.928 5181 71.9792
131.045 5250 72.4569
131.162 5147 71.7426
131.279 5147 71.7426
131.396 5184 72
131.513 5092 71.3583
131.631 4869 69.7782
131.748 4592 67.7643
131.865 4059 63.7103
131.983 3845 62.0081
132.1 3792 61.5792
132.217 4394 66.2873
132.335 4708 68.6149
132.452 4990 70.6399
132.57 5226 72.2911
132.687 5191 72.0486
132.804 5494 74.1215
132.922 5177 71.9514
133.039 5272 72.6085
133.157 5320 72.9383
133.274 5138 71.6798
133.392 5290 72.7324
133.509 5080 71.2741
133.627 5158 71.8192
133.744 5034 70.9507
133.862 4996 70.6824
133.979 5051 71.0704
134.097 4901 70.0071
134.214 5082 71.2881
134.332 4806 69.3253
134.449 5029 70.9154
134.567 5034 70.9507
134.684 4976 70.5408
134.802 5155 71.7983
134.919 5038 70.9789
135.037 5048 71.0493
135.154 4726 68.7459
135.272 4446 66.6783
135.389 4323 65.7495
135.507 3810 61.7252
135.624 3726 61.041
135.742 3968 62.9921
135.859 4280 65.4217
135.977 4919 70.1356
136.094 5056 71.1056
136.211 5119 71.5472
136.329 5378 73.3348
136.446 5238 72.374
136.564 5216 72.2219
136.681 5216 72.2219
136.798 5146 71.7356
136.915 5187 72.0208
137.033 5062 71.1477
137.15 5085 71.3092
137.267 4933 70.2353
137.384 4891 69.9357
137.502 4944 70.3136
137.619 4867 69.7639
137.736 4991 70.647
137.853 4714 68.6586
137.97 4748 68.9057
138.087 5091 71.3512
138.204 4887 69.9071
138.321 4972 70.5124
138.438 5116 71.5262
138.555 5077 71.2531
138.672 4880 69.857
138.788 4766 69.0362
138.905 4634 68.0735
139.022 4448 66.6933
139.139 3961 62.9365
139.255 3814 61.7576
139.372 3933 62.7136
139.488 4349 65.9469
139.605 4699 68.5493
139.721 4898 69.9857
139.838 5106 71.4563
139.954 5255 72.4914
140.071 5087 71.3232
140.187 5149 71.7565
140.303 5058 71.1196
140.419 4981 70.5762
140.535 5017 70.8308
140.652 4971 70.5053
140.768 0 1
140.884 0 1
141 0 1
141.115 0 1
141.231 0 1
141.347 0 1
141.463 0 1
141.578 0 1
141.694 0 1
144.104 0 1
144.219 0 1
144.335 0 1
144.45 0 1
144.566 0 1
144.682 0 1
144.798 0 1
144.914 0 1
145.03 0 1
145.146 4269 65.3376
145.262 4436 66.6033
145.378 4463 66.8057
145.494 4306 65.6201
145.61 4374 66.1362
145.726 4229 65.0308
145.842 4243 65.1383
145.959 4206 64.8537
146.075 4183 64.6761
146.192 4161 64.5058
146.308 4186 64.6993
146.425 4134 64.2962
146.541 4085 63.914
146.658 4076 63.8436
146.774 4013 63.3482
146.891 4132 64.2806
147.008 4243 65.1383
147.125 4265 65.307
147.241 4185 64.6916
147.358 4066 63.7652
147.475 3856 62.0967
147.592 3646 60.3821
147.709 3489 59.0678
147.826 3031 55.0545
147.943 3268 57.1664
148.06 3326 57.6715
148.177 3720 60.9918
148.294 4030 63.4823
148.411 4063 63.7417
148.528 4155 64.4593
148.645 4162 64.5136
148.762 4108 64.0937
148.88 4099 64.0234
148.997 3945 62.8092
149.114 4255 65.2304
149.231 3947 62.8252
149.349 3935 62.7296
149.466 3887 62.3458
149.583 3873 62.2334
149.701 3866 62.1772
149.818 3668 60.564
149.935 3792 61.5792
150.053 3622 60.1831
150.17 3750 61.2372
150.287 3793 61.5873
150.405 3770 61.4003
150.522 3874 62.2415
150.64 3912 62.546
150.757 3953 62.8729
150.875 3941 62.7774
150.992 3742 61.1719
151.11 3713 60.9344
151.227 3412 58.4123
151.344 3200 56.5685
151.462 2882 53.6843
151.579 3072 55.4256
151.697 3300 57.4456
151.814 3703 60.8523
151.932 3822 61.8223
152.049 4113 64.1327
152.167 4054 63.671
152.284 3944 62.8013
152.402 3996 63.2139
152.519 3959 62.9206
152.636 4007 63.3009
152.754 3852 62.0645
152.871 3823 61.8304
152.989 3888 62.3538
153.106 3725 61.0328
153.223 3912 62.546
153.341 3586 59.8832
153.458 3585 59.8749
153.575 3635 60.291
153.693 3625 60.208
153.81 3785 61.5224
153.927 3740 61.1555
154.044 3847 62.0242
154.162 3853 62.0725
154.279 3847 62.0242
154.396 3895 62.4099
154.513 3990 63.1664
154.63 4012 63.3404
154.747 3889 62.3618
154.864 3718 60.9754
154.981 3476 58.9576
155.098 3154 56.1605
155.215 3322 57.6368
155.332 3498 59.1439
155.449 3794 61.5955
155.566 3844 62
155.683 4072 63.8122
155.8 4060 63.7181
155.917 4010 63.3246
156.033 4074 63.8279
156.15 0 1
156.267 0 1
156.383 0 1
156.5 0 1
156.617 0 1
156.733 0 1
156.85 0 1
156.966 0 1
157.082 0 1
157.199 0 1
157.315 0 1
157.431 0 1
157.547 0 1
157.664 0 1
157.78 0 1
157.896 0 1
158.012 0 1
158.128 0 1
158.244 0 1
158.359 0 1
158.475 0 1
158.591 0 1
158.706 0 1
