
6.15755 0 1
6.2731 0 1
6.3887 0 1
6.50437 0 1
6.62009 0 1
6.73587 0 1
6.8517 0 1
6.96759 0 1
7.08353 0 1
7.19952 0 1
7.31557 0 1
7.43166 0 1
7.54781 0 1
7.664 0 1
7.78024 0 1
7.89653 0 1
8.01286 0 1
8.12924 0 1
8.24567 0 1
8.36213 0 1
8.47864 0 1
8.59519 0 1
8.71178 0 1
8.82841 0 1
8.94508 0 1
9.06179 0 1
9.17853 0 1
9.29531 0 1
9.41212 0 1
9.52897 0 1
9.64584 0 1
9.76276 0 1
9.8797 0 1
9.99667 0 1
10.1137 0 1
10.2307 0 1
10.3478 0 1
10.4648 0 1
10.5819 0 1
10.6991 0 1
10.8162 0 1
10.9334 0 1
11.0506 0 1
11.1678 0 1
11.285 0 1
11.4023 0 1
11.5196 0 1
11.6369 0 1
11.7542 0 1
11.8715 0 1
11.9888 0 1
12.1062 0 1
12.2235 0 1
12.3409 0 1
12.4582 0 1
12.5756 0 1
12.693 0 1
12.8104 0 1
12.9278 0 1
13.0452 0 1
13.1626 0 1
13.28 0 1
13.3974 0 1
13.5149 0 1
13.6323 0 1
13.7497 0 1
13.8671 0 1
13.9845 0 1
14.1019 0 1
14.2193 0 1
14.3367 0 1
14.4541 0 1
14.5714 0 1
14.6888 0 1
14.8062 0 1
14.9235 0 1
15.0408 1193 34.5398
15.1581 1261 35.5106
15.2755 1257 35.4542
15.3927 1196 34.5832
15.51 1297 36.0139
15.6273 1237 35.171
15.7445 1131 33.6303
15.8617 1153 33.9559
15.9789 1075 32.7872
16.0961 1211 34.7994
16.2132 1140 33.7639
16.3304 1155 33.9853
16.4475 1183 34.3948
16.5646 1120 33.4664
16.6816 1219 34.9142
16.7986 1203 34.6843
16.9156 1178 34.322
17.0326 1199 34.6266
17.1496 1188 34.4674
17.2665 1278 35.7491
17.3833 1247 35.3129
17.5002 1298 36.0278
17.617 1275 35.7071
17.7338 1341 36.6197
17.8505 1337 36.565
17.9672 1409 37.5366
18.0839 1400 37.4166
18.2005 1515 38.923
18.3171 1510 38.8587
18.4337 1522 39.0128
18.5502 1497 38.6911
18.6666 1473 38.3797
18.7831 1517 38.9487
18.8994 1471 38.3536
19.0158 1491 38.6135
19.1321 1386 37.229
19.2483 1323 36.3731
19.3645 1290 35.9166
19.4806 1276 35.7211
19.5967 1154 33.9706
19.7128 1208 34.7563
19.8288 1219 34.9142
19.9447 1095 33.0908
20.0606 0 1
20.1764 0 1
20.2922 0 1
20.4079 0 1
20.5236 0 1
20.6392 0 1
20.7548 0 1
20.8702 0 1
23.3078 0 1
23.4233 0 1
23.539 0 1
23.6547 0 1
23.7704 0 1
23.8862 0 1
24.0021 0 1
24.118 0 1
24.234 0 1
24.35 0 1
24.4661 1192 34.5254
24.5822 1152 33.9411
24.6984 1146 33.8526
24.8146 1123 33.5112
24.9309 1160 34.0588
25.0472 1162 34.0881
25.1636 1213 34.8281
25.28 1195 34.5688
25.3965 1190 34.4964
25.513 1271 35.6511
25.6296 1327 36.428
25.7462 1272 35.6651
25.8628 1374 37.0675
25.9795 1353 36.7831
26.0962 1381 37.1618
26.213 1376 37.0945
26.3298 1412 37.5766
26.4466 1411 37.5633
26.5635 1421 37.6962
26.6804 1464 38.2623
26.7973 1437 37.9078
26.9143 1539 39.2301
27.0313 1466 38.2884
27.1483 1583 39.7869
27.2653 1413 37.5899
27.3824 1471 38.3536
27.4996 1400 37.4166
27.6167 1372 37.0405
27.7339 1256 35.4401
27.8511 1190 34.4964
27.9683 1158 34.0294
28.0855 1202 34.6699
28.2028 1082 32.8938
28.3201 1183 34.3948
28.4374 1112 33.3467
28.5547 1132 33.6452
28.6721 1148 33.8821
28.7894 1181 34.3657
28.9068 1175 34.2783
29.0242 1209 34.7707
29.1416 1200 34.641
29.259 1246 35.2987
29.3764 1236 35.1568
29.4939 1213 34.8281
29.6113 1231 35.0856
29.7288 1276 35.7211
29.8463 1267 35.5949
29.9638 1277 35.7351
30.0812 1273 35.6791
30.1987 1382 37.1753
30.3162 1416 37.6298
30.4337 1378 37.1214
30.5512 1429 37.8021
30.6687 1347 36.7015
30.7862 1410 37.55
30.9037 1307 36.1525
31.0212 1353 36.7831
31.1387 1274 35.6931
31.2562 1268 35.609
31.3737 1159 34.0441
31.4912 1134 33.6749
31.6087 1094 33.0757
31.7262 1078 32.8329
31.8436 1090 33.0151
31.9611 1116 33.4066
32.0785 1087 32.9697
32.1959 1091 33.0303
32.3134 1140 33.7639
32.4308 1128 33.5857
32.5482 1194 34.5543
32.6655 1206 34.7275
32.7829 1239 35.1994
32.9002 1186 34.4384
33.0176 1198 34.6121
33.1349 1184 34.4093
33.2522 1231 35.0856
33.3694 1242 35.242
33.4867 1292 35.9444
33.6039 1233 35.1141
33.7211 1290 35.9166
33.8383 1232 35.0999
33.9554 1308 36.1663
34.0725 1266 35.5809
34.1896 1216 34.8712
34.3067 1246 35.2987
34.4237 1231 35.0856
34.5407 1284 35.8329
34.6577 1247 35.3129
34.7746 1223 34.9714
34.8915 1197 34.5977
35.0084 1131 33.6303
35.1252 1095 33.0908
35.242 1076 32.8024
35.3587 1047 32.3574
35.4755 1002 31.6544
35.5921 1026 32.0312
35.7088 1000 31.6228
35.8254 1052 32.4345
35.9419 1094 33.0757
36.0584 1154 33.9706
36.1749 1087 32.9697
36.2913 1101 33.1813
36.4077 1103 33.2114
36.524 1113 33.3617
36.6403 1070 32.7109
36.7565 1151 33.9264
36.8727 1140 33.7639
36.9889 1152 33.9411
37.1049 1145 33.8378
37.221 0 1
37.3369 0 1
37.4529 0 1
37.5687 0 1
37.6845 0 1
37.8003 0 1
37.916 0 1
38.0316 0 1
38.1472 0 1
40.5851 0 1
40.7008 0 1
40.8164 0 1
40.9322 0 1
41.048 0 1
41.1639 0 1
41.2798 0 1
41.3958 0 1
41.5118 0 1
41.6279 0 1
41.744 872 29.5296
41.8602 910 30.1662
41.9765 936 30.5941
42.0928 987 31.4166
42.2091 1014 31.8434
42.3255 998 31.5911
42.4419 1001 31.6386
42.5584 1047 32.3574
42.675 1049 32.3883
42.7915 1146 33.8526
42.9081 1051 32.4191
43.0248 1050 32.4037
43.1415 1087 32.9697
43.2582 1058 32.5269
43.375 1157 34.0147
43.4918 1147 33.8674
43.6087 1077 32.8177
43.7256 1125 33.541
43.8425 1092 33.0454
43.9595 992 31.496
44.0765 1015 31.8591
44.1935 996 31.5595
44.3106 939 30.6431
44.4277 962 31.0161
44.5448 975 31.225
44.6619 939 30.6431
44.7791 894 29.8998
44.8963 900 30
45.0136 928 30.4631
45.1308 906 30.0998
45.2481 904 30.0666
45.3654 818 28.6007
45.4827 837 28.931
45.6001 858 29.2916
45.7174 799 28.2666
45.8348 733 27.074
45.9522 758 27.5318
46.0697 764 27.6405
46.1871 735 27.1109
46.3046 717 26.7769
46.422 777 27.8747
46.5395 741 27.2213
46.657 719 26.8142
46.7745 712 26.6833
46.892 738 27.1662
47.0096 700 26.4575
47.1271 710 26.6458
47.2446 732 27.0555
47.3622 681 26.096
47.4797 693 26.3249
47.5973 659 25.671
47.7149 690 26.2679
47.8324 605 24.5967
47.95 605 24.5967
48.0675 653 25.5539
48.1851 663 25.7488
48.3027 621 24.9199
48.4202 604 24.5764
48.5378 552 23.4947
48.6554 553 23.516
48.7729 601 24.5153
48.8904 588 24.2487
49.008 598 24.454
49.1255 563 23.7276
49.243 617 24.8395
49.3605 567 23.8118
49.478 597 24.4336
49.5955 585 24.1868
49.713 560 23.6643
49.8304 587 24.2281
49.9479 632 25.1396
50.0653 590 24.2899
50.1827 615 24.7992
50.3001 676 26
50.4175 667 25.8263
50.5348 675 25.9808
50.6521 675 25.9808
50.7694 685 26.1725
50.8867 763 27.6225
51.004 715 26.7395
51.1212 731 27.037
51.2384 765 27.6586
51.3556 783 27.9821
51.4727 778 27.8927
51.5899 729 27
51.707 731 27.037
51.824 798 28.2489
51.9411 787 28.0535
52.0581 698 26.4197
52.175 717 26.7769
52.2919 757 27.5136
52.4088 754 27.4591
52.5257 765 27.6586
52.6425 760 27.5681
52.7593 757 27.5136
52.876 726 26.9444
52.9927 788 28.0713
53.1094 758 27.5318
53.226 833 28.8617
53.3426 799 28.2666
53.4591 825 28.7228
53.5756 896 29.9333
53.692 878 29.6311
53.8084 888 29.7993
53.9248 905 30.0832
54.0411 939 30.6431
54.1573 983 31.3528
54.2735 0 1
54.3896 0 1
54.5057 0 1
54.6217 0 1
54.7377 0 1
54.8537 0 1
54.9695 0 1
55.0853 0 1
55.2011 0 1
55.3168 0 1
55.4324 0 1
57.824 0 1
57.9396 0 1
58.0553 0 1
58.1711 0 1
58.2869 0 1
58.4028 0 1
58.5187 0 1
58.6347 0 1
58.7508 0 1
58.8669 0 1
58.983 1009 31.7648
59.0992 1155 33.9853
59.2155 1124 33.5261
59.3318 1145 33.8378
59.4482 1214 34.8425
59.5646 1149 33.8969
59.681 1235 35.1426
59.7975 1197 34.5977
59.9141 1232 35.0999
60.0306 1210 34.7851
60.1473 1146 33.8526
60.2639 1155 33.9853
60.3807 1139 33.7491
60.4974 1103 33.2114
60.6142 1030 32.0936
60.731 977 31.257
60.8479 936 30.5941
60.9648 904 30.0666
61.0818 946 30.7571
61.1987 880 29.6648
61.3158 901 30.0167
61.4328 939 30.6431
61.5499 1041 32.2645
61.667 1000 31.6228
61.7841 1020 31.9374
61.9013 994 31.5278
62.0185 1040 32.249
62.1357 1037 32.2025
62.253 1022 31.9687
62.3702 1066 32.6497
62.4875 1021 31.9531
62.6049 1062 32.5883
62.7222 1068 32.6803
62.8396 1062 32.5883
62.9569 1160 34.0588
63.0743 1123 33.5112
63.1918 1131 33.6303
63.3092 1186 34.4384
63.4267 1187 34.4529
63.5441 1153 33.9559
63.6616 1113 33.3617
63.7791 1101 33.1813
63.8966 1053 32.45
64.0142 1018 31.9061
64.1317 941 30.6757
64.2492 946 30.7571
64.3668 909 30.1496
64.4843 831 28.8271
64.6019 833 28.8617
64.7195 862 29.3598
64.837 812 28.4956
64.9546 879 29.6479
65.0722 928 30.4631
65.1898 921 30.348
65.3074 932 30.5287
65.4249 949 30.8058
65.5425 945 30.7409
65.6601 986 31.4006
65.7777 955 30.9031
65.8952 956 30.9192
66.0128 992 31.496
66.1304 1035 32.1714
66.2479 1008 31.749
66.3655 1047 32.3574
66.483 1090 33.0151
66.6005 1190 34.4964
66.718 1174 34.2637
66.8355 1224 34.9857
66.953 1161 34.0735
67.0705 1142 33.7935
67.1879 1095 33.0908
67.3054 1079 32.8481
67.4228 991 31.4802
67.5402 947 30.7734
67.6576 893 29.8831
67.7749 801 28.3019
67.8923 849 29.1376
68.0096 828 28.775
68.1269 823 28.688
68.2442 870 29.4958
68.3614 825 28.7228
68.4787 862 29.3598
68.5958 914 30.2324
68.713 953 30.8707
68.8302 899 29.9833
68.9473 929 30.4795
69.0643 925 30.4138
69.1814 954 30.8869
69.2984 975 31.225
69.4154 951 30.8383
69.5323 1016 31.8748
69.6492 1046 32.3419
69.7661 1062 32.5883
69.8829 1089 33
69.9997 1178 34.322
70.1165 1177 34.3074
70.2332 1202 34.6699
70.3499 1230 35.0714
70.4665 1215 34.8569
70.5831 1214 34.8425
70.6996 1173 34.2491
70.8161 1138 33.7343
70.9326 1122 33.4963
71.049 1038 32.218
71.1653 965 31.0644
71.2817 894 29.8998
71.3979 848 29.1204
71.5141 803 28.3373
71.6303 798 28.2489
71.7464 788 28.0713
71.8624 0 1
71.9784 0 1
72.0944 0 1
72.2102 0 1
72.3261 0 1
72.4418 0 1
72.5575 0 1
72.6732 0 1
75.1054 0 1
75.2209 0 1
75.3365 0 1
75.4521 0 1
75.5678 0 1
75.6835 0 1
75.7993 0 1
75.9151 0 1
76.031 0 1
76.147 977 31.257
76.263 979 31.289
76.3791 968 31.1127
76.4952 910 30.1662
76.6113 884 29.7321
76.7276 894 29.8998
76.8438 844 29.0517
76.9601 882 29.6985
77.0765 889 29.8161
77.1929 917 30.282
77.3093 817 28.5832
77.4258 868 29.4618
77.5423 901 30.0167
77.6589 953 30.8707
77.7755 943 30.7083
77.8921 895 29.9166
78.0088 926 30.4302
78.1256 955 30.9031
78.2423 940 30.6594
78.3591 1011 31.7962
78.4759 991 31.4802
78.5928 988 31.4325
78.7097 1132 33.6452
78.8266 1135 33.6898
78.9436 1250 35.3553
79.0606 1148 33.8821
79.1776 1121 33.4813
79.2946 1173 34.2491
79.4117 1255 35.426
79.5288 1200 34.641
79.6459 1136 33.7046
79.7631 1054 32.4654
79.8802 1029 32.078
79.9974 1019 31.9218
80.1147 923 30.3809
80.2319 885 29.7489
80.3491 882 29.6985
80.4664 880 29.6648
80.5837 872 29.5296
80.701 831 28.8271
80.8183 897 29.95
80.9357 852 29.189
81.053 888 29.7993
81.1704 925 30.4138
81.2877 958 30.9516
81.4051 915 30.249
81.5225 933 30.545
81.6399 860 29.3258
81.7573 936 30.5941
81.8747 921 30.348
81.9922 1008 31.749
82.1096 1001 31.6386
82.227 1026 32.0312
82.3444 1100 33.1662
82.4619 1168 34.176
82.5793 1168 34.176
82.6967 1221 34.9428
82.8142 1247 35.3129
82.9316 1199 34.6266
83.049 1215 34.8569
83.1664 1151 33.9264
83.2838 1182 34.3802
83.4012 1087 32.9697
83.5186 972 31.1769
83.636 940 30.6594
83.7534 876 29.5973
83.8708 963 31.0322
83.9881 886 29.7658
84.1055 892 29.8664
84.2228 897 29.95
84.3401 894 29.8998
84.4575 880 29.6648
84.5747 839 28.9655
84.692 913 30.2159
84.8093 1049 32.3883
84.9265 929 30.4795
85.0437 1019 31.9218
85.1609 939 30.6431
85.2781 862 29.3598
85.3952 960 30.9839
85.5123 1025 32.0156
85.6294 1067 32.665
85.7465 1078 32.8329
85.8636 1148 33.8821
85.9806 1278 35.7491
86.0976 1260 35.4965
86.2145 1266 35.5809
86.3315 1221 34.9428
86.4484 1259 35.4824
86.5652 1326 36.4143
86.682 1331 36.4829
86.7988 1308 36.1663
86.9156 1241 35.2278
87.0323 1161 34.0735
87.149 1104 33.2265
87.2657 1012 31.8119
87.3823 1003 31.6702
87.4988 983 31.3528
87.6154 938 30.6268
87.7318 989 31.4484
87.8483 944 30.7246
87.9647 954 30.8869
88.081 1007 31.7333
88.1973 1011 31.7962
88.3136 1034 32.1559
88.4298 1094 33.0757
88.546 1052 32.4345
88.6621 1028 32.0624
88.7781 932 30.5287
88.8942 0 1
89.0101 0 1
89.126 0 1
89.2419 0 1
89.3577 0 1
89.4734 0 1
89.5891 0 1
89.7047 0 1
89.8203 0 1
89.9358 0 1
92.3269 0 1
92.4424 0 1
92.558 0 1
92.6736 0 1
92.7893 0 1
92.905 0 1
93.0208 0 1
93.1366 0 1
93.2525 0 1
93.3685 0 1
93.4845 0 1
93.6005 923 30.3809
93.7167 1007 31.7333
93.8328 966 31.0805
93.949 946 30.7571
94.0653 887 29.7825
94.1816 964 31.0483
94.2979 1010 31.7805
94.4143 1013 31.8277
94.5307 1043 32.2955
94.6472 1155 33.9853
94.7637 1226 35.0143
94.8803 1263 35.5387
94.9969 1318 36.3043
95.1135 1327 36.428
95.2302 1229 35.0571
95.3469 1227 35.0286
95.4637 1257 35.4542
95.5805 1223 34.9714
95.6973 1274 35.6931
95.8142 1165 34.1321
95.9311 1226 35.0143
96.048 1083 32.909
96.1649 1073 32.7567
96.2819 1008 31.749
96.3989 1071 32.7261
96.516 1007 31.7333
96.633 934 30.5614
96.7501 978 31.273
96.8673 976 31.241
96.9844 950 30.8221
97.1016 956 30.9192
97.2188 970 31.1448
97.336 1018 31.9061
97.4532 959 30.9677
97.5704 960 30.9839
97.6877 904 30.0666
97.805 947 30.7734
97.9223 890 29.8329
98.0396 934 30.5614
98.1569 933 30.545
98.2743 977 31.257
98.3916 1081 32.8786
98.509 1085 32.9393
98.6264 1142 33.7935
98.7438 1180 34.3511
98.8612 1198 34.6121
98.9786 1185 34.4238
99.096 1191 34.5109
99.2134 1202 34.6699
99.3308 1230 35.0714
99.4482 1182 34.3802
99.5656 1162 34.0881
99.6831 1139 33.7491
99.8005 1052 32.4345
99.9179 1007 31.7333
100.035 975 31.225
100.153 924 30.3974
100.27 978 31.273
100.388 949 30.8058
100.505 911 30.1828
100.622 918 30.2985
100.74 871 29.5127
100.857 877 29.6142
100.975 947 30.7734
101.092 936 30.5941
101.209 897 29.95
101.327 925 30.4138
101.444 925 30.4138
101.561 902 30.0333
101.679 975 31.225
101.796 972 31.1769
101.913 1051 32.4191
102.03 1127 33.5708
102.148 1232 35.0999
102.265 1197 34.5977
102.382 1379 37.1349
102.499 1243 35.2562
102.616 1215 34.8569
102.733 1330 36.4692
102.851 1261 35.5106
102.968 1286 35.8608
103.085 1281 35.7911
103.202 1191 34.5109
103.319 1200 34.641
103.436 1147 33.8674
103.552 1066 32.6497
103.669 1060 32.5576
103.786 1068 32.6803
103.903 1038 32.218
104.02 1058 32.5269
104.137 1019 31.9218
104.253 983 31.3528
104.37 1080 32.8634
104.487 1027 32.0468
104.603 1050 32.4037
104.72 977 31.257
104.836 1018 31.9061
104.953 1014 31.8434
105.069 1009 31.7648
105.186 1130 33.6155
105.302 1140 33.7639
105.418 1186 34.4384
105.535 1228 35.0428
105.651 1299 36.0416
105.767 1283 35.819
105.883 1294 35.9722
105.999 1217 34.8855
106.115 0 1
106.231 0 1
106.347 0 1
106.463 0 1
106.579 0 1
106.694 0 1
106.81 0 1
106.926 0 1
107.041 0 1
107.157 0 1
109.576 0 1
109.692 0 1
109.807 0 1
109.923 0 1
110.039 0 1
110.155 0 1
110.27 0 1
110.386 0 1
110.502 0 1
110.618 1085 32.9393
110.735 1200 34.641
110.851 1099 33.1512
110.967 1117 33.4215
111.083 1119 33.4515
111.199 1115 33.3916
111.316 1160 34.0588
111.432 1190 34.4964
111.549 1134 33.6749
111.665 1071 32.7261
111.782 1058 32.5269
111.898 985 31.3847
112.015 1013 31.8277
112.132 997 31.5753
112.248 950 30.8221
112.365 915 30.249
112.482 910 30.1662
112.599 882 29.6985
112.716 802 28.3196
112.832 930 30.4959
112.949 810 28.4605
113.066 799 28.2666
113.183 803 28.3373
113.3 786 28.0357
113.417 823 28.688
113.534 772 27.7849
113.652 796 28.2135
113.769 839 28.9655
113.886 824 28.7054
114.003 889 29.8161
114.12 907 30.1164
114.238 945 30.7409
114.355 962 31.0161
114.472 937 30.6105
114.589 871 29.5127
114.707 855 29.2404
114.824 891 29.8496
114.942 947 30.7734
115.059 965 31.0644
115.176 906 30.0998
115.294 891 29.8496
115.411 851 29.1719
115.529 815 28.5482
115.646 780 27.9285
115.764 791 28.1247
115.881 747 27.3313
115.999 721 26.8514
116.116 686 26.1916
116.234 684 26.1534
116.351 683 26.1343
116.469 631 25.1197
116.586 629 25.0799
116.704 638 25.2587
116.821 658 25.6515
116.939 614 24.779
117.056 636 25.219
117.174 660 25.6905
117.291 658 25.6515
117.409 684 26.1534
117.526 675 25.9808
117.644 784 28
117.761 732 27.0555
117.879 770 27.7489
117.996 744 27.2764
118.114 741 27.2213
118.231 717 26.7769
118.349 701 26.4764
118.466 790 28.1069
118.584 807 28.4077
118.701 806 28.3901
118.819 790 28.1069
118.936 771 27.7669
119.053 774 27.8209
119.171 754 27.4591
119.288 750 27.3861
119.405 788 28.0713
119.523 738 27.1662
119.64 681 26.096
119.757 691 26.2869
119.875 676 26
119.992 652 25.5343
120.109 653 25.5539
120.226 646 25.4165
120.343 713 26.7021
120.46 658 25.6515
120.578 691 26.2869
120.695 743 27.258
120.812 712 26.6833
120.929 757 27.5136
121.046 777 27.8747
121.163 773 27.8029
121.279 748 27.3496
121.396 871 29.5127
121.513 842 29.0172
121.63 850 29.1548
121.747 819 28.6182
121.863 774 27.8209
121.98 797 28.2312
122.097 829 28.7924
122.213 875 29.5804
122.33 928 30.4631
122.446 913 30.2159
122.563 894 29.8998
122.679 907 30.1164
122.795 862 29.3598
122.912 897 29.95
123.028 952 30.8545
123.144 883 29.7153
123.26 893 29.8831
123.377 0 1
123.493 0 1
123.609 0 1
123.725 0 1
123.84 0 1
123.956 0 1
124.072 0 1
124.188 0 1
124.303 0 1
124.419 0 1
126.852 0 1
126.968 0 1
127.083 0 1
127.199 0 1
127.315 0 1
127.431 0 1
127.547 0 1
127.663 0 1
127.779 0 1
127.895 0 1
128.011 0 1
128.127 0 1
128.243 0 1
128.359 1122 33.4963
128.476 1052 32.4345
128.592 959 30.9677
128.708 1024 32
128.825 1008 31.749
128.941 964 31.0483
129.058 970 31.1448
129.174 1012 31.8119
129.291 901 30.0167
129.408 906 30.0998
129.524 891 29.8496
129.641 972 31.1769
129.758 879 29.6479
129.875 881 29.6816
129.992 956 30.9192
130.108 921 30.348
130.225 918 30.2985
130.342 971 31.1609
130.459 1001 31.6386
130.576 932 30.5287
130.693 802 28.3196
130.81 774 27.8209
130.928 676 26
131.045 751 27.4044
131.162 972 31.1769
131.279 925 30.4138
131.396 983 31.3528
131.513 985 31.3847
131.631 946 30.7571
131.748 915 30.249
131.865 887 29.7825
131.983 930 30.4959
132.1 900 30
132.217 889 29.8161
132.335 881 29.6816
132.452 894 29.8998
132.57 856 29.2575
132.687 841 29
132.804 853 29.2062
132.922 770 27.7489
133.039 779 27.9106
133.157 798 28.2489
133.274 761 27.5862
133.392 790 28.1069
133.509 750 27.3861
133.627 776 27.8568
133.744 755 27.4773
133.862 782 27.9643
133.979 772 27.7849
134.097 765 27.6586
134.214 679 26.0576
134.332 547 23.388
134.449 516 22.7156
134.567 582 24.1247
134.684 709 26.6271
134.802 742 27.2397
134.919 731 27.037
135.037 784 28
135.154 720 26.8328
135.272 724 26.9072
135.389 739 27.1846
135.507 686 26.1916
135.624 685 26.1725
135.742 741 27.2213
135.859 655 25.593
135.977 669 25.865
136.094 673 25.9422
136.211 667 25.8263
136.329 673 25.9422
136.446 608 24.6577
136.564 587 24.2281
136.681 603 24.5561
136.798 596 24.4131
136.915 578 24.0416
137.033 583 24.1454
137.15 630 25.0998
137.267 619 24.8797
137.384 621 24.9199
137.502 590 24.2899
137.619 596 24.4131
137.736 625 25
137.853 457 21.3776
137.97 399 19.975
138.087 472 21.7256
138.204 573 23.9374
138.321 641 25.318
138.438 640 25.2982
138.555 660 25.6905
138.672 657 25.632
138.788 660 25.6905
138.905 716 26.7582
139.022 673 25.9422
139.139 705 26.5518
139.255 679 26.0576
139.372 664 25.7682
139.488 717 26.7769
139.605 707 26.5895
139.721 728 26.9815
139.838 709 26.6271
139.954 693 26.3249
140.071 746 27.313
140.187 709 26.6271
140.303 740 27.2029
140.419 696 26.3818
140.535 707 26.5895
140.652 681 26.096
140.768 0 1
140.884 0 1
141 0 1
141.115 0 1
141.231 0 1
141.347 0 1
141.463 0 1
141.578 0 1
141.694 0 1
144.104 0 1
144.219 0 1
144.335 0 1
144.45 0 1
144.566 0 1
144.682 0 1
144.798 0 1
144.914 0 1
145.03 0 1
145.146 566 23.7908
145.262 644 25.3772
145.378 575 23.9792
145.494 588 24.2487
145.61 582 24.1247
145.726 556 23.5797
145.842 577 24.0208
145.959 559 23.6432
146.075 537 23.1733
146.192 538 23.1948
146.308 513 22.6495
146.425 494 22.2261
146.541 450 21.2132
146.658 398 19.9499
146.774 379 19.4679
146.891 400 20
147.008 475 21.7945
147.125 488 22.0907
147.241 502 22.4054
147.358 515 22.6936
147.475 527 22.9565
147.592 461 21.4709
147.709 486 22.0454
147.826 459 21.4243
147.943 440 20.9762
148.06 477 21.8403
148.177 480 21.9089
148.294 460 21.4476
148.411 433 20.8087
148.528 425 20.6155
148.645 405 20.1246
148.762 420 20.4939
148.88 414 20.347
148.997 427 20.664
149.114 373 19.3132
149.231 422 20.5426
149.349 412 20.2978
149.466 396 19.8997
149.583 376 19.3907
149.701 425 20.6155
149.818 440 20.9762
149.935 381 19.5192
150.053 353 18.7883
150.17 372 19.2873
150.287 320 17.8885
150.405 361 19
150.522 354 18.8149
150.64 373 19.3132
150.757 400 20
150.875 403 20.0749
150.992 379 19.4679
151.11 439 20.9523
151.227 394 19.8494
151.344 376 19.3907
151.462 410 20.2485
151.579 379 19.4679
151.697 375 19.3649
151.814 410 20.2485
151.932 411 20.2731
152.049 417 20.4206
152.167 354 18.8149
152.284 381 19.5192
152.402 364 19.0788
152.519 340 18.4391
152.636 373 19.3132
152.754 389 19.7231
152.871 387 19.6723
152.989 388 19.6977
153.106 373 19.3132
153.223 381 19.5192
153.341 400 20
153.458 359 18.9473
153.575 365 19.105
153.693 371 19.2614
153.81 326 18.0555
153.927 371 19.2614
154.044 388 19.6977
154.162 391 19.7737
154.279 443 21.0476
154.396 438 20.9284
154.513 481 21.9317
154.63 476 21.8174
154.747 489 22.1133
154.864 434 20.8327
154.981 445 21.095
155.098 445 21.095
155.215 484 22
155.332 515 22.6936
155.449 479 21.8861
155.566 475 21.7945
155.683 433 20.8087
155.8 449 21.1896
155.917 422 20.5426
156.033 412 20.2978
156.15 0 1
156.267 0 1
156.383 0 1
156.5 0 1
156.617 0 1
156.733 0 1
156.85 0 1
156.966 0 1
157.082 0 1
157.199 0 1
157.315 0 1
157.431 0 1
157.547 0 1
157.664 0 1
157.78 0 1
157.896 0 1
158.012 0 1
158.128 0 1
158.244 0 1
158.359 0 1
158.475 0 1
158.591 0 1
158.706 0 1
