
6.15755 0 1
6.2731 0 1
6.3887 0 1
6.50437 0 1
6.62009 0 1
6.73587 0 1
6.8517 0 1
6.96759 0 1
7.08353 0 1
7.19952 0 1
7.31557 0 1
7.43166 0 1
7.54781 0 1
7.664 0 1
7.78024 0 1
7.89653 0 1
8.01286 0 1
8.12924 0 1
8.24567 0 1
8.36213 0 1
8.47864 0 1
8.59519 0 1
8.71178 0 1
8.82841 0 1
8.94508 0 1
9.06179 0 1
9.17853 0 1
9.29531 0 1
9.41212 0 1
9.52897 0 1
9.64584 0 1
9.76276 0 1
9.8797 0 1
9.99667 0 1
10.1137 0 1
10.2307 0 1
10.3478 0 1
10.4648 0 1
10.5819 0 1
10.6991 0 1
10.8162 0 1
10.9334 0 1
11.0506 0 1
11.1678 0 1
11.285 0 1
11.4023 0 1
11.5196 0 1
11.6369 0 1
11.7542 0 1
11.8715 0 1
11.9888 0 1
12.1062 0 1
12.2235 0 1
12.3409 0 1
12.4582 0 1
12.5756 0 1
12.693 0 1
12.8104 0 1
12.9278 0 1
13.0452 0 1
13.1626 0 1
13.28 0 1
13.3974 0 1
13.5149 0 1
13.6323 0 1
13.7497 0 1
13.8671 0 1
13.9845 0 1
14.1019 0 1
14.2193 0 1
14.3367 0 1
14.4541 0 1
14.5714 0 1
14.6888 0 1
14.8062 0 1
14.9235 0 1
15.0408 2255 47.4868
15.1581 2403 49.0204
15.2755 2392 48.9081
15.3927 2401 49
15.51 2410 49.0918
15.6273 2463 49.6286
15.7445 2451 49.5076
15.8617 2381 48.7955
15.9789 2464 49.6387
16.0961 2400 48.9898
16.2132 2298 47.9375
16.3304 2361 48.5901
16.4475 2382 48.8057
16.5646 2457 49.5681
16.6816 2352 48.4974
16.7986 2406 49.051
16.9156 2500 50
17.0326 2564 50.636
17.1496 2576 50.7543
17.2665 2614 51.1273
17.3833 2503 50.03
17.5002 2532 50.319
17.617 2571 50.705
17.7338 2548 50.4777
17.8505 2506 50.06
17.9672 2593 50.9215
18.0839 2454 49.5379
18.2005 2470 49.6991
18.3171 2598 50.9706
18.4337 2676 51.7301
18.5502 2702 51.9808
18.6666 2795 52.8678
18.7831 2807 52.9811
18.8994 2734 52.2877
19.0158 2705 52.0096
19.1321 2591 50.9019
19.2483 2441 49.4065
19.3645 2357 48.5489
19.4806 2406 49.051
19.5967 2340 48.3735
19.7128 2167 46.551
19.8288 2012 44.8553
19.9447 1710 41.3521
20.0606 0 1
20.1764 0 1
20.2922 0 1
20.4079 0 1
20.5236 0 1
20.6392 0 1
20.7548 0 1
20.8702 0 1
23.3078 0 1
23.4233 0 1
23.539 0 1
23.6547 0 1
23.7704 0 1
23.8862 0 1
24.0021 0 1
24.118 0 1
24.234 0 1
24.35 0 1
24.4661 1234 35.1283
24.5822 1463 38.2492
24.6984 1590 39.8748
24.8146 1897 43.5546
24.9309 1992 44.6318
25.0472 2152 46.3897
25.1636 2357 48.5489
25.28 2332 48.2908
25.3965 2484 49.8397
25.513 2539 50.3885
25.6296 2696 51.923
25.7462 2784 52.7636
25.8628 2824 53.1413
25.9795 2787 52.792
26.0962 2909 53.9351
26.213 2980 54.5894
26.3298 2956 54.3691
26.4466 2945 54.2679
26.5635 2898 53.8331
26.6804 2951 54.3231
26.7973 2937 54.1941
26.9143 2853 53.4135
27.0313 3016 54.9181
27.1483 3121 55.8659
27.2653 2990 54.6809
27.3824 3140 56.0357
27.4996 3095 55.6327
27.6167 3006 54.827
27.7339 3031 55.0545
27.8511 2950 54.3139
27.9683 2960 54.4059
28.0855 2861 53.4883
28.2028 2956 54.3691
28.3201 2952 54.3323
28.4374 2973 54.5252
28.5547 3074 55.4437
28.6721 2873 53.6004
28.7894 2779 52.7162
28.9068 2655 51.5267
29.0242 2688 51.8459
29.1416 2694 51.9038
29.259 2669 51.6624
29.3764 2801 52.9245
29.4939 2910 53.9444
29.6113 2772 52.6498
29.7288 2921 54.0463
29.8463 2899 53.8424
29.9638 2899 53.8424
30.0812 2920 54.037
30.1987 2922 54.0555
30.3162 2959 54.3967
30.4337 3051 55.2359
30.5512 2901 53.8609
30.6687 2984 54.626
30.7862 3031 55.0545
30.9037 3137 56.0089
31.0212 3216 56.7098
31.1387 3151 56.1338
31.2562 3032 55.0636
31.3737 3090 55.5878
31.4912 2958 54.3875
31.6087 2958 54.3875
31.7262 2927 54.1018
31.8436 3017 54.9272
31.9611 2983 54.6168
32.0785 3020 54.9545
32.1959 2898 53.8331
32.3134 2750 52.4404
32.4308 2724 52.192
32.5482 2676 51.7301
32.6655 2786 52.7826
32.7829 2722 52.1728
32.9002 2727 52.2207
33.0176 2813 53.0377
33.1349 2850 53.3854
33.2522 2897 53.8238
33.3694 2951 54.3231
33.4867 2881 53.6749
33.6039 3053 55.254
33.7211 2913 53.9722
33.8383 3029 55.0364
33.9554 2931 54.1387
34.0725 3030 55.0454
34.1896 3056 55.2811
34.3067 2957 54.3783
34.4237 3044 55.1725
34.5407 3365 58.0086
34.6577 3129 55.9375
34.7746 3159 56.205
34.8915 3145 56.0803
35.0084 3053 55.254
35.1252 3111 55.7763
35.242 3007 54.8361
35.3587 3070 55.4076
35.4755 2993 54.7083
35.5921 3028 55.0273
35.7088 2752 52.4595
35.8254 2836 53.2541
35.9419 2675 51.7204
36.0584 2626 51.2445
36.1749 2455 49.548
36.2913 2357 48.5489
36.4077 2462 49.6185
36.524 2319 48.156
36.6403 2275 47.697
36.7565 2184 46.7333
36.8727 2183 46.7226
36.9889 2118 46.0217
37.1049 2042 45.1885
37.221 0 1
37.3369 0 1
37.4529 0 1
37.5687 0 1
37.6845 0 1
37.8003 0 1
37.916 0 1
38.0316 0 1
38.1472 0 1
40.5851 0 1
40.7008 0 1
40.8164 0 1
40.9322 0 1
41.048 0 1
41.1639 0 1
41.2798 0 1
41.3958 0 1
41.5118 0 1
41.6279 0 1
41.744 1355 36.8103
41.8602 1463 38.2492
41.9765 1648 40.5956
42.0928 1837 42.8602
42.2091 2087 45.6837
42.3255 2202 46.9255
42.4419 2327 48.239
42.5584 2520 50.1996
42.675 2538 50.3786
42.7915 2545 50.448
42.9081 2514 50.1398
43.0248 2743 52.3737
43.1415 2883 53.6936
43.2582 2911 53.9537
43.375 3009 54.8544
43.4918 3133 55.9732
43.6087 3076 55.4617
43.7256 3045 55.1815
43.8425 3076 55.4617
43.9595 3028 55.0273
44.0765 2972 54.5161
44.1935 3032 55.0636
44.3106 2990 54.6809
44.4277 3027 55.0182
44.5448 3030 55.0454
44.6619 2885 53.7122
44.7791 2830 53.1977
44.8963 2527 50.2693
45.0136 2514 50.1398
45.1308 2441 49.4065
45.2481 2428 49.2747
45.3654 2413 49.1223
45.4827 2445 49.4469
45.6001 2490 49.8999
45.7174 2743 52.3737
45.8348 2747 52.4118
45.9522 2907 53.9166
46.0697 2967 54.4702
46.1871 3037 55.109
46.3046 3097 55.6507
46.422 3080 55.4977
46.5395 3015 54.909
46.657 3201 56.5774
46.7745 3183 56.4181
46.892 3319 57.6108
47.0096 3333 57.7321
47.1271 3439 58.643
47.2446 3366 58.0172
47.3622 3399 58.3009
47.4797 3397 58.2838
47.5973 3310 57.5326
47.7149 3245 56.9649
47.8324 3356 57.931
47.95 3397 58.2838
48.0675 3198 56.5509
48.1851 3120 55.857
48.3027 3020 54.9545
48.4202 2793 52.8488
48.5378 2568 50.6754
48.6554 2509 50.0899
48.7729 2410 49.0918
48.8904 2412 49.1121
49.008 2321 48.1768
49.1255 2602 51.0098
49.243 2716 52.1153
49.3605 2869 53.563
49.478 3231 56.8419
49.5955 3207 56.6304
49.713 3221 56.7539
49.8304 3164 56.2494
49.9479 3090 55.5878
50.0653 3241 56.9298
50.1827 3347 57.8533
50.3001 3415 58.438
50.4175 3400 58.3095
50.5348 3539 59.4895
50.6521 3459 58.8133
50.7694 3550 59.5819
50.8867 3457 58.7963
51.004 3468 58.8897
51.1212 3468 58.8897
51.2384 3418 58.4637
51.3556 3416 58.4466
51.4727 3360 57.9655
51.5899 3452 58.7537
51.707 3420 58.4808
51.824 3085 55.5428
51.9411 2898 53.8331
52.0581 2638 51.3615
52.175 2540 50.3984
52.2919 2476 49.7594
52.4088 2404 49.0306
52.5257 2454 49.5379
52.6425 2534 50.3389
52.7593 2846 53.3479
52.876 3049 55.2178
52.9927 3018 54.9363
53.1094 3084 55.5338
53.226 3124 55.8928
53.3426 2930 54.1295
53.4591 2916 54
53.5756 2736 52.3068
53.692 2753 52.469
53.8084 2712 52.0769
53.9248 2544 50.4381
54.0411 2489 49.8899
54.1573 2405 49.0408
54.2735 0 1
54.3896 0 1
54.5057 0 1
54.6217 0 1
54.7377 0 1
54.8537 0 1
54.9695 0 1
55.0853 0 1
55.2011 0 1
55.3168 0 1
55.4324 0 1
57.824 0 1
57.9396 0 1
58.0553 0 1
58.1711 0 1
58.2869 0 1
58.4028 0 1
58.5187 0 1
58.6347 0 1
58.7508 0 1
58.8669 0 1
58.983 2744 52.3832
59.0992 3047 55.1996
59.2155 3317 57.5934
59.3318 3650 60.4152
59.4482 3832 61.9032
59.5646 3908 62.514
59.681 4176 64.622
59.7975 4176 64.622
59.9141 4173 64.5988
60.0306 4448 66.6933
60.1473 4385 66.2193
60.2639 4389 66.2495
60.3807 4362 66.0454
60.4974 4149 64.4127
60.6142 4031 63.4902
60.731 3605 60.0417
60.8479 3296 57.4108
60.9648 3214 56.6922
61.0818 2991 54.69
61.1987 3062 55.3353
61.3158 3224 56.7803
61.4328 3638 60.3158
61.5499 4025 63.4429
61.667 4432 66.5733
61.7841 4605 67.8602
61.9013 4575 67.6387
62.0185 4738 68.8331
62.1357 4608 67.8823
62.253 4695 68.5201
62.3702 4806 69.3253
62.4875 4792 69.2243
62.6049 4974 70.5266
62.7222 5126 71.5961
62.8396 5034 70.9507
62.9569 5046 71.0352
63.0743 5097 71.3933
63.1918 5045 71.0282
63.3092 5116 71.5262
63.4267 4932 70.2282
63.5441 4967 70.4769
63.6616 4894 69.9571
63.7791 4942 70.2994
63.8966 4821 69.4334
64.0142 4558 67.513
64.1317 4324 65.7571
64.2492 3844 62
64.3668 3462 58.8388
64.4843 3140 56.0357
64.6019 3093 55.6147
64.7195 3113 55.7943
64.837 3320 57.6194
64.9546 3586 59.8832
65.0722 3934 62.7216
65.1898 4388 66.242
65.3074 4738 68.8331
65.4249 4959 70.4202
65.5425 4865 69.7496
65.6601 5021 70.859
65.7777 4973 70.5195
65.8952 4953 70.3776
66.0128 4971 70.5053
66.1304 5073 71.225
66.2479 5260 72.5259
66.3655 5397 73.4643
66.483 5245 72.4224
66.6005 5363 73.2325
66.718 5258 72.5121
66.8355 5313 72.8903
66.953 5175 71.9375
67.0705 5150 71.7635
67.1879 5239 72.3809
67.3054 5186 72.0139
67.4228 5030 70.9225
67.5402 4923 70.1641
67.6576 4718 68.6877
67.7749 4353 65.9773
67.8923 3895 62.4099
68.0096 3360 57.9655
68.1269 3065 55.3624
68.2442 2962 54.4243
68.3614 3043 55.1634
68.4787 3169 56.2939
68.5958 3552 59.5987
68.713 4131 64.2729
68.8302 4571 67.6092
68.9473 4938 70.2709
69.0643 5152 71.7774
69.1814 5342 73.089
69.2984 5346 73.1163
69.4154 5165 71.8679
69.5323 4948 70.342
69.6492 4817 69.4046
69.7661 4936 70.2567
69.8829 5015 70.8167
69.9997 4905 70.0357
70.1165 4882 69.8713
70.2332 5031 70.9295
70.3499 4743 68.8694
70.4665 4646 68.1616
70.5831 4421 66.4906
70.6996 4318 65.7115
70.8161 3967 62.9841
70.9326 3849 62.0403
71.049 3788 61.5467
71.1653 3410 58.3952
71.2817 3211 56.6657
71.3979 2824 53.1413
71.5141 2463 49.6286
71.6303 1919 43.8064
71.7464 1308 36.1663
71.8624 0 1
71.9784 0 1
72.0944 0 1
72.2102 0 1
72.3261 0 1
72.4418 0 1
72.5575 0 1
72.6732 0 1
75.1054 0 1
75.2209 0 1
75.3365 0 1
75.4521 0 1
75.5678 0 1
75.6835 0 1
75.7993 0 1
75.9151 0 1
76.031 0 1
76.147 3731 61.0819
76.263 4062 63.7338
76.3791 4206 64.8537
76.4952 4174 64.6065
76.6113 4025 63.4429
76.7276 3838 61.9516
76.8438 3508 59.2284
76.9601 3171 56.3116
77.0765 2927 54.1018
77.1929 2895 53.8052
77.3093 2806 52.9717
77.4258 2787 52.792
77.5423 3235 56.8771
77.6589 3892 62.3859
77.7755 4617 67.9485
77.8921 5043 71.0141
78.0088 5517 74.2765
78.1256 5721 75.6373
78.2423 5667 75.2795
78.3591 5663 75.2529
78.4759 5601 74.8398
78.5928 5480 74.027
78.7097 5538 74.4177
78.8266 5495 74.1283
78.9436 6010 77.5242
79.0606 5988 77.3822
79.1776 5995 77.4274
79.2946 6163 78.5048
79.4117 6186 78.6511
79.5288 6198 78.7274
79.6459 6129 78.2879
79.7631 5959 77.1946
79.8802 6158 78.4729
79.9974 6092 78.0513
80.1147 6222 78.8797
80.2319 5954 77.1622
80.3491 5352 73.1574
80.4664 4997 70.6895
80.5837 4396 66.3023
80.701 3686 60.7124
80.8183 3306 57.4978
80.9357 3158 56.1961
81.053 3249 57
81.1704 3487 59.0508
81.2877 4009 63.3167
81.4051 4977 70.5479
81.5225 5653 75.1864
81.6399 6228 78.9177
81.7573 6483 80.5171
81.8747 6603 81.2588
81.9922 6656 81.5843
82.1096 6557 80.9753
82.227 6403 80.0187
82.3444 6390 79.9375
82.4619 6593 81.1973
82.5793 6604 81.265
82.6967 6773 82.2982
82.8142 6907 83.1084
82.9316 7083 84.1606
83.049 6915 83.1565
83.1664 6958 83.4146
83.2838 6903 83.0843
83.4012 6848 82.7526
83.5186 6771 82.2861
83.636 6835 82.6741
83.7534 6801 82.4682
83.8708 6635 81.4555
83.9881 6017 77.5693
84.1055 5448 73.8106
84.2228 4858 69.6994
84.3401 4171 64.5833
84.4575 3667 60.5558
84.5747 3281 57.28
84.692 3408 58.3781
84.8093 3835 61.9274
84.9265 4583 67.6979
85.0437 5599 74.8265
85.1609 6273 79.2023
85.2781 7036 83.8809
85.3952 7345 85.703
85.5123 7685 87.6641
85.6294 7584 87.0862
85.7465 7387 85.9477
85.8636 7123 84.3979
85.9806 7144 84.5222
86.0976 7239 85.0823
86.2145 7550 86.8907
86.3315 7785 88.2326
86.4484 7565 86.977
86.5652 7764 88.1136
86.682 7833 88.5042
86.7988 7430 86.1974
86.9156 7340 85.6738
87.0323 7086 84.1784
87.149 6904 83.0903
87.2657 6980 83.5464
87.3823 6800 82.4621
87.4988 6388 79.925
87.6154 5962 77.214
87.7318 5018 70.8378
87.8483 4264 65.2993
87.9647 3486 59.0424
88.081 2980 54.5894
88.1973 2825 53.1507
88.3136 2807 52.9811
88.4298 3007 54.8361
88.546 3485 59.0339
88.6621 4069 63.7887
88.7781 4472 66.873
88.8942 0 1
89.0101 0 1
89.126 0 1
89.2419 0 1
89.3577 0 1
89.4734 0 1
89.5891 0 1
89.7047 0 1
89.8203 0 1
89.9358 0 1
92.3269 0 1
92.4424 0 1
92.558 0 1
92.6736 0 1
92.7893 0 1
92.905 0 1
93.0208 0 1
93.1366 0 1
93.2525 0 1
93.3685 0 1
93.4845 0 1
93.6005 3296 57.4108
93.7167 3434 58.6003
93.8328 4017 63.3798
93.949 4768 69.0507
94.0653 5948 77.1233
94.1816 6758 82.2071
94.2979 7585 87.0919
94.4143 8295 91.0769
94.5307 8571 92.5797
94.6472 8520 92.3038
94.7637 8908 94.3822
94.8803 8692 93.2309
94.9969 8881 94.2391
95.1135 8714 93.3488
95.2302 8994 94.8367
95.3469 9079 95.2838
95.4637 9220 96.0208
95.5805 9223 96.0365
95.6973 9332 96.6023
95.8142 9320 96.5401
95.9311 9073 95.2523
96.048 8948 94.5939
96.1649 9056 95.163
96.2819 8996 94.8472
96.3989 8721 93.3863
96.516 8352 91.3893
96.633 8021 89.56
96.7501 7282 85.3346
96.8673 6505 80.6536
96.9844 5628 75.02
97.1016 5119 71.5472
97.2188 4664 68.2935
97.336 4457 66.7608
97.4532 4812 69.3686
97.5704 5150 71.7635
97.6877 6325 79.5299
97.805 7275 85.2936
97.9223 8175 90.4157
98.0396 8936 94.5304
98.1569 9164 95.7288
98.2743 9545 97.6985
98.3916 9416 97.0361
98.509 9176 95.7914
98.6264 8944 94.5727
98.7438 9183 95.828
98.8612 9556 97.7548
98.9786 9675 98.3616
99.096 9699 98.4835
99.2134 9835 99.1716
99.3308 9710 98.5393
99.4482 9948 99.7397
99.5656 9628 98.1224
99.6831 9568 97.8162
99.8005 9585 97.903
99.9179 9346 96.6747
100.035 9291 96.3898
100.153 9083 95.3048
100.27 8288 91.0385
100.388 7409 86.0755
100.505 6379 79.8686
100.622 5654 75.1931
100.74 5163 71.854
100.857 4629 68.0368
100.975 4808 69.3397
101.092 5165 71.8679
101.209 5990 77.3951
101.327 7307 85.481
101.444 8538 92.4013
101.561 9060 95.184
101.679 9650 98.2344
101.796 9934 99.6695
101.913 9885 99.4233
102.03 9410 97.0052
102.148 9483 97.3807
102.265 9435 97.1339
102.382 9549 97.719
102.499 9702 98.4987
102.616 9707 98.5241
102.733 10031 100.155
102.851 10078 100.389
102.968 10169 100.841
103.085 10058 100.29
103.202 9798 98.9848
103.319 9665 98.3107
103.436 9468 97.3036
103.552 9488 97.4064
103.669 9356 96.7264
103.786 9008 94.9105
103.903 8224 90.6863
104.02 7243 85.1058
104.137 6395 79.9687
104.253 5533 74.3841
104.37 5087 71.3232
104.487 5002 70.7248
104.603 5026 70.8943
104.72 5454 73.8512
104.836 6136 78.3326
104.953 6751 82.1645
105.069 7266 85.2408
105.186 7690 87.6926
105.302 7794 88.2836
105.418 7480 86.487
105.535 7180 84.7349
105.651 6903 83.0843
105.767 6332 79.5739
105.883 5833 76.3741
105.999 5453 73.8444
106.115 0 1
106.231 0 1
106.347 0 1
106.463 0 1
106.579 0 1
106.694 0 1
106.81 0 1
106.926 0 1
107.041 0 1
107.157 0 1
109.576 0 1
109.692 0 1
109.807 0 1
109.923 0 1
110.039 0 1
110.155 0 1
110.27 0 1
110.386 0 1
110.502 0 1
110.618 5650 75.1665
110.735 6179 78.6066
110.851 6317 79.4796
110.967 6598 81.2281
111.083 7104 84.2852
111.199 7621 87.2983
111.316 8070 89.8332
111.432 8446 91.9021
111.549 8540 92.4121
111.665 8895 94.3133
111.782 8920 94.4458
111.898 8866 94.1594
112.015 8486 92.1195
112.132 8589 92.6769
112.248 8452 91.9348
112.365 8602 92.747
112.482 8376 91.5205
112.599 7527 86.7583
112.716 6532 80.8208
112.832 5727 75.6769
112.949 5090 71.3442
113.066 4668 68.3228
113.183 4540 67.3795
113.3 4730 68.775
113.417 5163 71.854
113.534 6121 78.2368
113.652 7102 84.2734
113.769 7886 88.8032
113.886 8551 92.4716
114.003 8637 92.9355
114.12 8872 94.1913
114.238 8606 92.7685
114.355 8352 91.3893
114.472 8139 90.2164
114.589 8362 91.444
114.707 8393 91.6133
114.824 8562 92.5311
114.942 8725 93.4077
115.059 8655 93.0323
115.176 8878 94.2231
115.294 8488 92.1303
115.411 8525 92.3309
115.529 8361 91.4385
115.646 8123 90.1277
115.764 8076 89.8666
115.881 8037 89.6493
115.999 7877 88.7525
116.116 7548 86.8792
116.234 6728 82.0244
116.351 5981 77.3369
116.469 5145 71.7287
116.586 4895 69.9643
116.704 4528 67.2904
116.821 4407 66.3852
116.939 4534 67.335
117.056 5137 71.6729
117.174 5996 77.4338
117.291 6863 82.8432
117.409 7476 86.4639
117.526 7765 88.1192
117.644 7877 88.7525
117.761 8245 90.802
117.879 7966 89.2525
117.996 7502 86.6141
118.114 7663 87.5386
118.231 7669 87.5728
118.349 8068 89.822
118.466 8064 89.7998
118.584 8027 89.5935
118.701 8087 89.9277
118.819 7894 88.8482
118.936 7658 87.51
119.053 7652 87.4757
119.171 7456 86.3481
119.288 7445 86.2844
119.405 7102 84.2734
119.523 7224 84.9941
119.64 7029 83.8391
119.757 6960 83.4266
119.875 6376 79.8499
119.992 5678 75.3525
120.109 4962 70.4415
120.226 4593 67.7717
120.343 4426 66.5282
120.46 4211 64.8922
120.578 4299 65.5668
120.695 4509 67.1491
120.812 5262 72.5396
120.929 5780 76.0263
121.046 6194 78.702
121.163 6423 80.1436
121.279 6560 80.9938
121.396 6535 80.8393
121.513 6490 80.5605
121.63 6171 78.5557
121.747 6008 77.5113
121.863 5914 76.9025
121.98 5958 77.1881
122.097 5731 75.7034
122.213 5790 76.092
122.33 5766 75.9342
122.446 5818 76.2758
122.563 5341 73.0821
122.679 5120 71.5542
122.795 4873 69.8069
122.912 4487 66.9851
123.028 4242 65.1306
123.144 4023 63.4271
123.26 3635 60.291
123.377 0 1
123.493 0 1
123.609 0 1
123.725 0 1
123.84 0 1
123.956 0 1
124.072 0 1
124.188 0 1
124.303 0 1
124.419 0 1
126.852 0 1
126.968 0 1
127.083 0 1
127.199 0 1
127.315 0 1
127.431 0 1
127.547 0 1
127.663 0 1
127.779 0 1
127.895 0 1
128.011 0 1
128.127 0 1
128.243 0 1
128.359 6760 82.2192
128.476 6990 83.6062
128.592 7131 84.4452
128.708 7079 84.1368
128.825 7058 84.0119
128.941 6838 82.6922
129.058 6391 79.9437
129.174 6017 77.5693
129.291 5369 73.2735
129.408 5284 72.6911
129.524 5147 71.7426
129.641 4844 69.5989
129.758 5103 71.4353
129.875 5488 74.081
129.992 6138 78.3454
130.108 6545 80.9012
130.225 7026 83.8212
130.342 7258 85.1939
130.459 7365 85.8196
130.576 7501 86.6083
130.693 7361 85.7963
130.81 7236 85.0647
130.928 7433 86.2148
131.045 7732 87.9318
131.162 7690 87.6926
131.279 7742 87.9886
131.396 7888 88.8144
131.513 7763 88.1079
131.631 7661 87.5271
131.748 7560 86.9483
131.865 7510 86.6603
131.983 7199 84.8469
132.1 7235 85.0588
132.217 7356 85.7671
132.335 7172 84.6877
132.452 7110 84.3208
132.57 6753 82.1766
132.687 6026 77.6273
132.804 5883 76.7007
132.922 5444 73.7835
133.039 5192 72.0555
133.157 5021 70.859
133.274 5199 72.1041
133.392 5103 71.4353
133.509 5681 75.3724
133.627 6181 78.6193
133.744 6604 81.265
133.862 7069 84.0773
133.979 7038 83.8928
134.097 7184 84.7585
134.214 7096 84.2378
134.332 6938 83.2947
134.449 6987 83.5883
134.567 7261 85.2115
134.684 7458 86.3597
134.802 7436 86.2322
134.919 7564 86.9713
135.037 7393 85.9826
135.154 7217 84.9529
135.272 7128 84.4275
135.389 7204 84.8764
135.507 7094 84.2259
135.624 7078 84.1309
135.742 6948 83.3547
135.859 7008 83.7138
135.977 7049 83.9583
136.094 6864 82.8493
136.211 6470 80.4363
136.329 6061 77.8524
136.446 5754 75.8551
136.564 5517 74.2765
136.681 5290 72.7324
136.798 5237 72.3671
136.915 5076 71.2461
137.033 5228 72.3049
137.15 5553 74.5185
137.267 5952 77.1492
137.384 6341 79.6304
137.502 6559 80.9877
137.619 6771 82.2861
137.736 6892 83.0181
137.853 6454 80.3368
137.97 6569 81.0494
138.087 6625 81.3941
138.204 6853 82.7828
138.321 6825 82.6136
138.438 6709 81.9085
138.555 6746 82.134
138.672 6690 81.7924
138.788 6468 80.4239
138.905 6184 78.6384
139.022 5940 77.0714
139.139 5796 76.1315
139.255 5395 73.4507
139.372 5146 71.7356
139.488 5005 70.746
139.605 4988 70.6258
139.721 4647 68.1689
139.838 4301 65.582
139.954 4006 63.293
140.071 3595 59.9583
140.187 3190 56.4801
140.303 2838 53.2729
140.419 2705 52.0096
140.535 2431 49.3052
140.652 2311 48.0729
140.768 0 1
140.884 0 1
141 0 1
141.115 0 1
141.231 0 1
141.347 0 1
141.463 0 1
141.578 0 1
141.694 0 1
144.104 0 1
144.219 0 1
144.335 0 1
144.45 0 1
144.566 0 1
144.682 0 1
144.798 0 1
144.914 0 1
145.03 0 1
145.146 4116 64.1561
145.262 4126 64.2339
145.378 4108 64.0937
145.494 4168 64.56
145.61 4125 64.2262
145.726 3892 62.3859
145.842 3969 63
145.959 4178 64.6375
146.075 4303 65.5973
146.192 4641 68.1249
146.308 4621 67.9779
146.425 4785 69.1737
146.541 4828 69.4838
146.658 4755 68.9565
146.774 4630 68.0441
146.891 4695 68.5201
147.008 4938 70.2709
147.125 4959 70.4202
147.241 5007 70.7602
147.358 5198 72.0972
147.475 5114 71.5122
147.592 5130 71.624
147.709 5027 70.9013
147.826 4961 70.4344
147.943 4948 70.342
148.06 4813 69.3758
148.177 4781 69.1448
148.294 4697 68.5347
148.411 4786 69.1809
148.528 4738 68.8331
148.645 4881 69.8642
148.762 4695 68.5201
148.88 4541 67.3869
148.997 4529 67.2978
149.114 4316 65.6963
149.231 4280 65.4217
149.349 4217 64.9384
149.466 3968 62.9921
149.583 4067 63.773
149.701 4231 65.0461
149.818 4222 64.9769
149.935 4354 65.9848
150.053 4461 66.7907
150.17 4533 67.3276
150.287 4524 67.2607
150.405 4528 67.2904
150.522 4474 66.888
150.64 4633 68.0661
150.757 4721 68.7095
150.875 4850 69.6419
150.992 4893 69.95
151.11 4993 70.6612
151.227 4949 70.3491
151.344 4760 68.9928
151.462 4743 68.8694
151.579 4647 68.1689
151.697 4599 67.8159
151.814 4458 66.7683
151.932 4520 67.2309
152.049 4676 68.3813
152.167 4593 67.7717
152.284 4556 67.4981
152.402 4371 66.1135
152.519 4414 66.4379
152.636 4187 64.707
152.754 4257 65.2457
152.871 4206 64.8537
152.989 4086 63.9218
153.106 4121 64.195
153.223 3936 62.7375
153.341 3895 62.4099
153.458 4135 64.304
153.575 4072 63.8122
153.693 4212 64.8999
153.81 4194 64.7611
153.927 4177 64.6297
154.044 4204 64.8383
154.162 4113 64.1327
154.279 4250 65.192
154.396 4480 66.9328
154.513 4413 66.4304
154.63 4581 67.6831
154.747 4582 67.6905
154.864 4391 66.2646
154.981 4276 65.3911
155.098 4242 65.1306
155.215 4258 65.2534
155.332 4125 64.2262
155.449 4179 64.6452
155.566 4138 64.3273
155.683 4102 64.0469
155.8 3989 63.1585
155.917 3959 62.9206
156.033 3997 63.2218
156.15 0 1
156.267 0 1
156.383 0 1
156.5 0 1
156.617 0 1
156.733 0 1
156.85 0 1
156.966 0 1
157.082 0 1
157.199 0 1
157.315 0 1
157.431 0 1
157.547 0 1
157.664 0 1
157.78 0 1
157.896 0 1
158.012 0 1
158.128 0 1
158.244 0 1
158.359 0 1
158.475 0 1
158.591 0 1
158.706 0 1
