
6.15755 0 1
6.2731 0 1
6.3887 0 1
6.50437 0 1
6.62009 0 1
6.73587 0 1
6.8517 0 1
6.96759 0 1
7.08353 0 1
7.19952 0 1
7.31557 0 1
7.43166 0 1
7.54781 0 1
7.664 0 1
7.78024 0 1
7.89653 0 1
8.01286 0 1
8.12924 0 1
8.24567 0 1
8.36213 0 1
8.47864 0 1
8.59519 0 1
8.71178 0 1
8.82841 0 1
8.94508 0 1
9.06179 0 1
9.17853 0 1
9.29531 0 1
9.41212 0 1
9.52897 0 1
9.64584 0 1
9.76276 0 1
9.8797 0 1
9.99667 0 1
10.1137 0 1
10.2307 0 1
10.3478 0 1
10.4648 0 1
10.5819 0 1
10.6991 0 1
10.8162 0 1
10.9334 0 1
11.0506 0 1
11.1678 0 1
11.285 0 1
11.4023 0 1
11.5196 0 1
11.6369 0 1
11.7542 0 1
11.8715 0 1
11.9888 0 1
12.1062 0 1
12.2235 0 1
12.3409 0 1
12.4582 0 1
12.5756 0 1
12.693 0 1
12.8104 0 1
12.9278 0 1
13.0452 0 1
13.1626 0 1
13.28 0 1
13.3974 0 1
13.5149 0 1
13.6323 0 1
13.7497 0 1
13.8671 0 1
13.9845 0 1
14.1019 0 1
14.2193 0 1
14.3367 0 1
14.4541 0 1
14.5714 0 1
14.6888 0 1
14.8062 0 1
14.9235 0 1
15.0408 12804 113.155
15.1581 14124 118.844
15.2755 15403 124.109
15.3927 16257 127.503
15.51 16660 129.074
15.6273 16860 129.846
15.7445 16191 127.244
15.8617 15463 124.35
15.9789 14551 120.628
16.0961 14264 119.432
16.2132 13943 118.08
16.3304 13680 116.962
16.4475 13473 116.073
16.5646 13323 115.425
16.6816 13071 114.328
16.7986 12500 111.803
16.9156 12845 113.336
17.0326 12478 111.705
17.1496 12458 111.615
17.2665 12640 112.428
17.3833 12488 111.75
17.5002 12706 112.721
17.617 12822 113.234
17.7338 12914 113.64
17.8505 12736 112.854
17.9672 12732 112.836
18.0839 12817 113.212
18.2005 12848 113.349
18.3171 13407 115.789
18.4337 13613 116.675
18.5502 13832 117.61
18.6666 13691 117.009
18.7831 13793 117.444
18.8994 13574 116.508
19.0158 12866 113.428
19.1321 12297 110.892
19.2483 11783 108.55
19.3645 11311 106.353
19.4806 10697 103.426
19.5967 10156 100.777
19.7128 10152 100.757
19.8288 9625 98.1071
19.9447 9039 95.0737
20.0606 0 1
20.1764 0 1
20.2922 0 1
20.4079 0 1
20.5236 0 1
20.6392 0 1
20.7548 0 1
20.8702 0 1
23.3078 0 1
23.4233 0 1
23.539 0 1
23.6547 0 1
23.7704 0 1
23.8862 0 1
24.0021 0 1
24.118 0 1
24.234 0 1
24.35 0 1
24.4661 4389 66.2495
24.5822 4772 69.0797
24.6984 5399 73.4779
24.8146 6243 79.0127
24.9309 7410 86.0814
25.0472 8861 94.1329
25.1636 9954 99.7697
25.28 11132 105.508
25.3965 12158 110.263
25.513 12672 112.57
25.6296 13317 115.399
25.7462 13632 116.756
25.8628 13469 116.056
25.9795 13591 116.58
26.0962 13535 116.34
26.213 13537 116.349
26.3298 13693 117.017
26.4466 13397 115.745
26.5635 13370 115.629
26.6804 12999 114.013
26.7973 12697 112.681
26.9143 12232 110.598
27.0313 11905 109.11
27.1483 12100 110
27.2653 12141 110.186
27.3824 12620 112.339
27.4996 12572 112.125
27.6167 12280 110.815
27.7339 11938 109.261
27.8511 11648 107.926
27.9683 11392 106.733
28.0855 11064 105.186
28.2028 10891 104.36
28.3201 10978 104.776
28.4374 11350 106.536
28.5547 11769 108.485
28.6721 12088 109.945
28.7894 12511 111.853
28.9068 12335 111.063
29.0242 12670 112.561
29.1416 12766 112.987
29.259 12657 112.503
29.3764 12803 113.15
29.4939 12897 113.565
29.6113 13010 114.061
29.7288 13049 114.232
29.8463 13025 114.127
29.9638 13040 114.193
30.0812 13089 114.407
30.1987 12812 113.19
30.3162 12434 111.508
30.4337 12005 109.567
30.5512 11422 106.874
30.6687 11594 107.675
30.7862 11486 107.173
30.9037 11720 108.259
31.0212 11621 107.801
31.1387 11689 108.116
31.2562 11392 106.733
31.3737 10915 104.475
31.4912 10830 104.067
31.6087 10620 103.053
31.7262 10603 102.971
31.8436 10621 103.058
31.9611 10890 104.355
32.0785 11372 106.64
32.1959 11593 107.671
32.3134 11794 108.6
32.4308 11966 109.389
32.5482 11925 109.202
32.6655 11878 108.986
32.7829 12095 109.977
32.9002 12408 111.391
33.0176 12208 110.49
33.1349 12196 110.436
33.2522 12402 111.364
33.3694 12287 110.847
33.4867 12363 111.189
33.6039 12659 112.512
33.7211 12369 111.216
33.8383 12444 111.553
33.9554 12114 110.064
34.0725 11737 108.337
34.1896 11264 106.132
34.3067 11145 105.57
34.4237 10679 103.339
34.5407 10797 103.909
34.6577 11086 105.29
34.7746 10926 104.528
34.8915 10563 102.776
35.0084 10181 100.901
35.1252 10103 100.514
35.242 9655 98.2599
35.3587 9877 99.3831
35.4755 9952 99.7597
35.5921 10392 101.941
35.7088 10815 103.995
35.8254 11255 106.09
35.9419 11512 107.294
36.0584 11598 107.694
36.1749 11678 108.065
36.2913 11471 107.103
36.4077 11474 107.117
36.524 11369 106.626
36.6403 10907 104.437
36.7565 10509 102.513
36.8727 9903 99.5138
36.9889 9125 95.5249
37.1049 8319 91.2086
37.221 0 1
37.3369 0 1
37.4529 0 1
37.5687 0 1
37.6845 0 1
37.8003 0 1
37.916 0 1
38.0316 0 1
38.1472 0 1
40.5851 0 1
40.7008 0 1
40.8164 0 1
40.9322 0 1
41.048 0 1
41.1639 0 1
41.2798 0 1
41.3958 0 1
41.5118 0 1
41.6279 0 1
41.744 3835 61.9274
41.8602 4553 67.4759
41.9765 5474 73.9865
42.0928 6507 80.666
42.2091 7374 85.872
42.3255 8401 91.657
42.4419 9059 95.1788
42.5584 9433 97.1236
42.675 9771 98.8484
42.7915 9757 98.7775
42.9081 9773 98.8585
43.0248 9448 97.2008
43.1415 9147 95.6399
43.2582 8851 94.0798
43.375 8918 94.4352
43.4918 9193 95.8801
43.6087 9124 95.5196
43.7256 8812 93.8723
43.8425 8756 93.5735
43.9595 8301 91.1098
44.0765 8207 90.5925
44.1935 8409 91.7006
44.3106 8600 92.7362
44.4277 9348 96.6851
44.5448 9618 98.0714
44.6619 9563 97.7906
44.7791 9623 98.0969
44.8963 9379 96.8452
45.0136 9366 96.7781
45.1308 9253 96.1925
45.2481 9204 95.9375
45.3654 9130 95.551
45.4827 8900 94.3398
45.6001 9112 95.4568
45.7174 9405 96.9794
45.8348 9803 99.0101
45.9522 9732 98.6509
46.0697 9773 98.8585
46.1871 9713 98.5546
46.3046 9828 99.1363
46.422 9956 99.7798
46.5395 9819 99.0909
46.657 9972 99.8599
46.7745 9633 98.1478
46.892 9387 96.8865
47.0096 9395 96.9278
47.1271 9393 96.9175
47.2446 9334 96.6126
47.3622 8885 94.2603
47.4797 8585 92.6553
47.5973 8611 92.7955
47.7149 8338 91.3126
47.8324 8574 92.5959
47.95 9315 96.5142
48.0675 9567 97.811
48.1851 9582 97.8877
48.3027 9401 96.9588
48.4202 9231 96.0781
48.5378 9156 95.687
48.6554 8913 94.4087
48.7729 8818 93.9042
48.8904 8726 93.4131
49.008 8762 93.6056
49.1255 9019 94.9684
49.243 8897 94.3239
49.3605 9177 95.7967
49.478 9165 95.734
49.5955 9172 95.7706
49.713 9347 96.6799
49.8304 9313 96.5039
49.9479 9367 96.7833
50.0653 9706 98.519
50.1827 9843 99.2119
50.3001 9582 97.8877
50.4175 9074 95.2575
50.5348 8836 94
50.6521 8784 93.723
50.7694 8889 94.2815
50.8867 8505 92.2226
51.004 8257 90.868
51.1212 8153 90.294
51.2384 8211 90.6146
51.3556 8435 91.8423
51.4727 9100 95.3939
51.5899 9261 96.2341
51.707 9128 95.5406
51.824 9000 94.8683
51.9411 8744 93.5094
52.0581 8814 93.8829
52.175 8302 91.1153
52.2919 8043 89.6828
52.4088 7798 88.3063
52.5257 7831 88.4929
52.6425 7677 87.6185
52.7593 8037 89.6493
52.876 7899 88.8763
52.9927 8024 89.5768
53.1094 8002 89.4539
53.226 8207 90.5925
53.3426 8334 91.2907
53.4591 8307 91.1427
53.5756 8589 92.6769
53.692 8632 92.9086
53.8084 8570 92.5743
53.9248 7878 88.7581
54.0411 6955 83.3966
54.1573 6001 77.4661
54.2735 0 1
54.3896 0 1
54.5057 0 1
54.6217 0 1
54.7377 0 1
54.8537 0 1
54.9695 0 1
55.0853 0 1
55.2011 0 1
55.3168 0 1
55.4324 0 1
57.824 0 1
57.9396 0 1
58.0553 0 1
58.1711 0 1
58.2869 0 1
58.4028 0 1
58.5187 0 1
58.6347 0 1
58.7508 0 1
58.8669 0 1
58.983 4491 67.0149
59.0992 5358 73.1984
59.2155 5939 77.0649
59.3318 6479 80.4922
59.4482 6843 82.7224
59.5646 7255 85.1763
59.681 7567 86.9885
59.7975 7866 88.6905
59.9141 8205 90.5815
60.0306 8445 91.8967
60.1473 8915 94.4193
60.2639 9094 95.3625
60.3807 9081 95.2943
60.4974 8930 94.4987
60.6142 8686 93.1987
60.731 8468 92.0217
60.8479 8416 91.7388
60.9648 7755 88.0625
61.0818 7708 87.7952
61.1987 7748 88.0227
61.3158 7568 86.9943
61.4328 7608 87.2238
61.5499 7563 86.9655
61.667 7884 88.7919
61.7841 8032 89.6214
61.9013 8095 89.9722
62.0185 8036 89.6437
62.1357 8265 90.912
62.253 8386 91.5751
62.3702 8432 91.8259
62.4875 8601 92.7416
62.6049 8762 93.6056
62.7222 8978 94.7523
62.8396 9098 95.3834
62.9569 9307 96.4728
63.0743 8611 92.7955
63.1918 8105 90.0278
63.3092 7919 88.9888
63.4267 7824 88.4534
63.5441 8241 90.78
63.6616 8359 91.4276
63.7791 8335 91.2962
63.8966 7935 89.0786
64.0142 7885 88.7975
64.1317 7490 86.5448
64.2492 7076 84.119
64.3668 6592 81.1911
64.4843 6277 79.2275
64.6019 6202 78.7528
64.7195 6207 78.7845
64.837 6154 78.4474
64.9546 6027 77.6338
65.0722 6152 78.4347
65.1898 6298 79.3599
65.3074 6230 78.9303
65.4249 6319 79.4921
65.5425 6386 79.9125
65.6601 6512 80.697
65.7777 6708 81.9024
65.8952 6884 82.9699
66.0128 6839 82.6982
66.1304 7166 84.6522
66.2479 7249 85.1411
66.3655 7735 87.9488
66.483 7680 87.6356
66.6005 7839 88.5381
66.718 7150 84.5577
66.8355 6352 79.6994
66.953 6322 79.511
67.0705 6747 82.1401
67.1879 6897 83.0482
67.3054 6672 81.6823
67.4228 6262 79.1328
67.5402 5851 76.4918
67.6576 5408 73.5391
67.7749 5201 72.118
67.8923 4903 70.0214
68.0096 4692 68.4982
68.1269 4648 68.1762
68.2442 4767 69.0435
68.3614 4706 68.6003
68.4787 4830 69.4982
68.5958 4643 68.1396
68.713 4609 67.8896
68.8302 4552 67.4685
68.9473 4627 68.0221
69.0643 4451 66.7158
69.1814 4442 66.6483
69.2984 4368 66.0908
69.4154 4399 66.325
69.5323 4443 66.6558
69.6492 4678 68.3959
69.7661 4927 70.1926
69.8829 5126 71.5961
69.9997 5196 72.0833
70.1165 5345 73.1095
70.2332 5460 73.8918
70.3499 5487 74.0743
70.4665 5205 72.1457
70.5831 4305 65.6125
70.6996 4219 64.9538
70.8161 4196 64.7765
70.9326 4032 63.498
71.049 3448 58.7197
71.1653 3069 55.3986
71.2817 2797 52.8867
71.3979 2580 50.7937
71.5141 2384 48.8262
71.6303 2233 47.2546
71.7464 1946 44.1135
71.8624 0 1
71.9784 0 1
72.0944 0 1
72.2102 0 1
72.3261 0 1
72.4418 0 1
72.5575 0 1
72.6732 0 1
75.1054 0 1
75.2209 0 1
75.3365 0 1
75.4521 0 1
75.5678 0 1
75.6835 0 1
75.7993 0 1
75.9151 0 1
76.031 0 1
76.147 3581 59.8415
76.263 3835 61.9274
76.3791 4014 63.3561
76.4952 3856 62.0967
76.6113 3762 61.3351
76.7276 3897 62.426
76.8438 3795 61.6036
76.9601 3895 62.4099
77.0765 3780 61.4817
77.1929 4054 63.671
77.3093 4424 66.5132
77.4258 4872 69.7997
77.5423 4787 69.1881
77.6589 4926 70.1855
77.7755 4840 69.5701
77.8921 4957 70.406
78.0088 5200 72.111
78.1256 5202 72.1249
78.2423 5373 73.3008
78.3591 5355 73.1779
78.4759 5534 74.3909
78.5928 5813 76.243
78.7097 6371 79.8185
78.8266 7001 83.672
78.9436 7298 85.4283
79.0606 7111 84.3267
79.1776 6643 81.5046
79.2946 6683 81.7496
79.4117 7145 84.5281
79.5288 7803 88.3346
79.6459 7943 89.1235
79.7631 7970 89.2749
79.8802 7511 86.666
79.9974 7180 84.7349
80.1147 7015 83.7556
80.2319 6749 82.1523
80.3491 6956 83.4026
80.4664 6960 83.4266
80.5837 6835 82.6741
80.701 6853 82.7828
80.8183 6984 83.5703
80.9357 7473 86.4465
81.053 7714 87.8294
81.1704 7868 88.7017
81.2877 7770 88.1476
81.4051 7499 86.5968
81.5225 7518 86.7064
81.6399 7834 88.5099
81.7573 7628 87.3384
81.8747 7915 88.9663
81.9922 7649 87.4586
82.1096 7975 89.3029
82.227 8133 90.1831
82.3444 8647 92.9892
82.4619 9496 97.4474
82.5793 9776 98.8737
82.6967 9514 97.5397
82.8142 9102 95.4044
82.9316 8288 91.0385
83.049 8016 89.5321
83.1664 8927 94.4828
83.2838 9340 96.6437
83.4012 9232 96.0833
83.5186 8793 93.771
83.636 8496 92.1737
83.7534 8293 91.0659
83.8708 8184 90.4655
83.9881 8061 89.7831
84.1055 8016 89.5321
84.2228 7927 89.0337
84.3401 7927 89.0337
84.4575 8173 90.4046
84.5747 8695 93.247
84.692 9226 96.0521
84.8093 9490 97.4166
84.9265 8851 94.0798
85.0437 8761 93.6002
85.1609 8681 93.1719
85.2781 8722 93.3916
85.3952 8923 94.4616
85.5123 8989 94.8103
85.6294 8849 94.0691
85.7465 9078 95.2785
85.8636 9443 97.1751
85.9806 9713 98.5546
86.0976 10091 100.454
86.2145 10379 101.877
86.3315 10373 101.848
86.4484 9961 99.8048
86.5652 9007 94.9052
86.682 8846 94.0532
86.7988 9924 99.6193
86.9156 10231 101.148
87.0323 10025 100.125
87.149 9614 98.051
87.2657 9564 97.7957
87.3823 9348 96.6851
87.4988 9175 95.7862
87.6154 9279 96.3276
87.7318 8858 94.1169
87.8483 8745 93.5147
87.9647 8233 90.7359
88.081 7256 85.1822
88.1973 6135 78.3262
88.3136 5706 75.5381
88.4298 5274 72.6223
88.546 4583 67.6979
88.6621 4000 63.2456
88.7781 3652 60.4318
88.8942 0 1
89.0101 0 1
89.126 0 1
89.2419 0 1
89.3577 0 1
89.4734 0 1
89.5891 0 1
89.7047 0 1
89.8203 0 1
89.9358 0 1
92.3269 0 1
92.4424 0 1
92.558 0 1
92.6736 0 1
92.7893 0 1
92.905 0 1
93.0208 0 1
93.1366 0 1
93.2525 0 1
93.3685 0 1
93.4845 0 1
93.6005 3933 62.7136
93.7167 6101 78.1089
93.8328 7760 88.0909
93.949 8280 90.9945
94.0653 8285 91.022
94.1816 7930 89.0505
94.2979 8228 90.7083
94.4143 8111 90.0611
94.5307 8100 90
94.6472 8381 91.5478
94.7637 8443 91.8858
94.8803 8375 91.515
94.9969 8686 93.1987
95.1135 9183 95.828
95.2302 9241 96.1301
95.3469 9718 98.5799
95.4637 10073 100.364
95.5805 10164 100.817
95.6973 9387 96.8865
95.8142 7952 89.174
95.9311 7070 84.0833
96.048 8116 90.0888
96.1649 8489 92.1358
96.2819 7707 87.7895
96.3989 7034 83.8689
96.516 6729 82.0305
96.633 6185 78.6448
96.7501 6003 77.479
96.8673 5586 74.7395
96.9844 5101 71.4213
97.1016 4835 69.5342
97.2188 4725 68.7386
97.336 4790 69.2098
97.4532 5054 71.0915
97.5704 5195 72.0763
97.6877 5182 71.9861
97.805 4599 67.8159
97.9223 4153 64.4438
98.0396 3910 62.53
98.1569 3800 61.6441
98.2743 3607 60.0583
98.3916 3501 59.1692
98.509 3525 59.3717
98.6264 3651 60.4235
98.7438 3880 62.2896
98.8612 4019 63.3956
98.9786 4528 67.2904
99.096 4659 68.2569
99.2134 4895 69.9643
99.3308 4812 69.3686
99.4482 4935 70.2496
99.5656 4757 68.971
99.6831 4862 69.728
99.8005 4530 67.3053
99.9179 4043 63.5846
100.035 3590 59.9166
100.153 3308 57.5152
100.27 3203 56.5951
100.388 2978 54.5711
100.505 2826 53.1601
100.622 2702 51.9808
100.74 2734 52.2877
100.857 2817 53.0754
100.975 3248 56.9912
101.092 4069 63.7887
101.209 4115 64.1483
101.327 4044 63.5925
101.444 3799 61.636
101.561 3819 61.7981
101.679 3951 62.857
101.796 3989 63.1585
101.913 4383 66.2042
102.03 4444 66.6633
102.148 4883 69.8785
102.265 5086 71.3162
102.382 5734 75.7232
102.499 6184 78.6384
102.616 6676 81.7068
102.733 6505 80.6536
102.851 6316 79.4733
102.968 6973 83.5045
103.085 7665 87.55
103.202 7870 88.713
103.319 7729 87.9147
103.436 7138 84.4867
103.552 6878 82.9337
103.669 6618 81.3511
103.786 6558 80.9815
103.903 6069 77.9038
104.02 5927 76.987
104.137 5923 76.961
104.253 6053 77.801
104.37 6315 79.467
104.487 6654 81.5721
104.603 6866 82.8613
104.72 7040 83.9047
104.836 6604 81.265
104.953 6666 81.6456
105.069 6401 80.0062
105.186 6468 80.4239
105.302 6562 81.0062
105.418 5940 77.0714
105.535 4806 69.3253
105.651 4301 65.582
105.767 4283 65.4446
105.883 4226 65.0077
105.999 4286 65.4675
106.115 0 1
106.231 0 1
106.347 0 1
106.463 0 1
106.579 0 1
106.694 0 1
106.81 0 1
106.926 0 1
107.041 0 1
107.157 0 1
109.576 0 1
109.692 0 1
109.807 0 1
109.923 0 1
110.039 0 1
110.155 0 1
110.27 0 1
110.386 0 1
110.502 0 1
110.618 5377 73.328
110.735 6069 77.9038
110.851 6623 81.3818
110.967 7664 87.5443
111.083 8714 93.3488
111.199 9117 95.483
111.316 8995 94.842
111.432 9192 95.8749
111.549 9205 95.9427
111.665 9685 98.4124
111.782 10304 101.509
111.898 10322 101.597
112.015 9965 99.8248
112.132 9602 97.9898
112.248 9174 95.781
112.365 8935 94.5251
112.482 8698 93.2631
112.599 9038 95.0684
112.716 8755 93.5682
112.832 8661 93.0645
112.949 8492 92.152
113.066 8564 92.5419
113.183 8826 93.9468
113.3 9059 95.1788
113.417 8895 94.3133
113.534 8838 94.0106
113.652 8965 94.6837
113.769 9186 95.8436
113.886 9311 96.4935
114.003 9432 97.1185
114.12 9518 97.5602
114.238 9914 99.5691
114.355 10031 100.155
114.472 10015 100.075
114.589 11168 105.679
114.707 10524 102.587
114.824 10511 102.523
114.942 10596 102.937
115.059 11022 104.986
115.176 11053 105.133
115.294 11469 107.093
115.411 11831 108.77
115.529 11666 108.009
115.646 10977 104.771
115.764 10424 102.098
115.881 10048 100.24
115.999 9769 98.8383
116.116 9606 98.0102
116.234 9664 98.3056
116.351 9160 95.7079
116.469 9233 96.0885
116.586 9132 95.5615
116.704 9257 96.2133
116.821 9452 97.2214
116.939 9603 97.9949
117.056 9546 97.7036
117.174 9443 97.1751
117.291 9887 99.4334
117.409 9830 99.1464
117.526 10116 100.578
117.644 10118 100.588
117.761 10319 101.582
117.879 10673 103.31
117.996 10787 103.86
118.114 11104 105.376
118.231 11118 105.442
118.349 10836 104.096
118.466 10917 104.484
118.584 11146 105.575
118.701 11235 105.995
118.819 11017 104.962
118.936 11057 105.152
119.053 11515 107.308
119.171 11193 105.797
119.288 10971 104.743
119.405 10542 102.674
119.523 10131 100.653
119.64 9961 99.8048
119.757 9705 98.514
119.875 9501 97.4731
119.992 9327 96.5764
120.109 8937 94.5357
120.226 8958 94.6467
120.343 8720 93.3809
120.46 8929 94.4934
120.578 9045 95.1052
120.695 8870 94.1807
120.812 9070 95.2365
120.929 9389 96.8969
121.046 9087 95.3258
121.163 9506 97.4987
121.279 9594 97.949
121.396 9788 98.9343
121.513 10036 100.18
121.63 10273 101.356
121.747 10153 100.762
121.863 9867 99.3328
121.98 9527 97.6064
122.097 9290 96.3846
122.213 9108 95.4358
122.33 8449 91.9184
122.446 7676 87.6128
122.563 6862 82.8372
122.679 6370 79.8123
122.795 6142 78.3709
122.912 5950 77.1362
123.028 5800 76.1577
123.144 5573 74.6525
123.26 5172 71.9166
123.377 0 1
123.493 0 1
123.609 0 1
123.725 0 1
123.84 0 1
123.956 0 1
124.072 0 1
124.188 0 1
124.303 0 1
124.419 0 1
126.852 0 1
126.968 0 1
127.083 0 1
127.199 0 1
127.315 0 1
127.431 0 1
127.547 0 1
127.663 0 1
127.779 0 1
127.895 0 1
128.011 0 1
128.127 0 1
128.243 0 1
128.359 11200 105.83
128.476 11535 107.401
128.592 11605 107.727
128.708 11288 106.245
128.825 10919 104.494
128.941 10728 103.576
129.058 10573 102.825
129.174 10620 103.053
129.291 10349 101.73
129.408 10062 100.31
129.524 9973 99.8649
129.641 9924 99.6193
129.758 10057 100.285
129.875 10113 100.563
129.992 10602 102.966
130.108 10817 104.005
130.225 10913 104.465
130.342 11120 105.451
130.459 11269 106.156
130.576 11665 108.005
130.693 11159 105.636
130.81 10870 104.259
130.928 10504 102.489
131.045 10169 100.841
131.162 10592 102.917
131.279 10711 103.494
131.396 10639 103.146
131.513 10547 102.699
131.631 10421 102.083
131.748 10322 101.597
131.865 10636 103.131
131.983 10997 104.867
132.1 11034 105.043
132.217 11105 105.38
132.335 10808 103.962
132.452 10547 102.699
132.57 10422 102.088
132.687 10566 102.791
132.804 10128 100.638
132.922 10044 100.22
133.039 9769 98.8383
133.157 9944 99.7196
133.274 9926 99.6293
133.392 10344 101.705
133.509 10531 102.621
133.627 10392 101.941
133.744 10913 104.465
133.862 10784 103.846
133.979 10982 104.795
134.097 10859 104.207
134.214 10684 103.363
134.332 9971 99.8549
134.449 9890 99.4485
134.567 9663 98.3006
134.684 9838 99.1867
134.802 9905 99.5239
134.919 10122 100.608
135.037 9992 99.96
135.154 9746 98.7218
135.272 9636 98.1631
135.389 9939 99.6945
135.507 10123 100.613
135.624 10685 103.368
135.742 10953 104.657
135.859 10877 104.293
135.977 10898 104.393
136.094 10571 102.815
136.211 10666 103.276
136.329 10616 103.034
136.446 10504 102.489
136.564 10237 101.178
136.681 10137 100.683
136.798 9986 99.93
136.915 10280 101.39
137.033 10380 101.882
137.15 10477 102.357
137.267 10661 103.252
137.384 10606 102.985
137.502 10839 104.111
137.619 10665 103.271
137.736 10813 103.986
137.853 9686 98.4175
137.97 9587 97.9132
138.087 9121 95.5039
138.204 9109 95.4411
138.321 9166 95.7392
138.438 9277 96.3172
138.555 9371 96.8039
138.672 9491 97.4218
138.788 9097 95.3782
138.905 8943 94.5674
139.022 8883 94.2497
139.139 9029 95.0211
139.255 8884 94.255
139.372 8694 93.2416
139.488 8411 91.7115
139.605 7871 88.7187
139.721 7430 86.1974
139.838 6770 82.28
139.954 6490 80.5605
140.071 6136 78.3326
140.187 5872 76.629
140.303 5342 73.089
140.419 5336 73.0479
140.535 5079 71.2671
140.652 5045 71.0282
140.768 0 1
140.884 0 1
141 0 1
141.115 0 1
141.231 0 1
141.347 0 1
141.463 0 1
141.578 0 1
141.694 0 1
144.104 0 1
144.219 0 1
144.335 0 1
144.45 0 1
144.566 0 1
144.682 0 1
144.798 0 1
144.914 0 1
145.03 0 1
145.146 7834 88.5099
145.262 8154 90.2995
145.378 8132 90.1776
145.494 8142 90.233
145.61 8161 90.3383
145.726 8273 90.956
145.842 7947 89.1459
145.959 8167 90.3715
146.075 8263 90.901
146.192 8215 90.6366
146.308 8337 91.3072
146.425 8004 89.4651
146.541 7927 89.0337
146.658 7616 87.2697
146.774 7593 87.1378
146.891 7519 86.7122
147.008 7547 86.8735
147.125 7622 87.3041
147.241 7846 88.5776
147.358 7991 89.3924
147.475 8004 89.4651
147.592 7787 88.244
147.709 7585 87.0919
147.826 7856 88.6341
147.943 7560 86.9483
148.06 7690 87.6926
148.177 8097 89.9833
148.294 8138 90.2109
148.411 8327 91.2524
148.528 8651 93.0108
148.645 8621 92.8493
148.762 8463 91.9946
148.88 8539 92.4067
148.997 8801 93.8136
149.114 8240 90.7744
149.231 8315 91.1866
149.349 8315 91.1866
149.466 8143 90.2386
149.583 8364 91.4549
149.701 8142 90.233
149.818 8187 90.482
149.935 8286 91.0275
150.053 8053 89.7385
150.17 7822 88.4421
150.287 7740 87.9773
150.405 7529 86.7698
150.522 7703 87.7667
150.64 7863 88.6736
150.757 7805 88.3459
150.875 8149 90.2718
150.992 8228 90.7083
151.11 7999 89.4371
151.227 7923 89.0112
151.344 7986 89.3644
151.462 7790 88.261
151.579 7793 88.278
151.697 7919 88.9888
151.814 7914 88.9607
151.932 8255 90.857
152.049 8310 91.1592
152.167 8518 92.293
152.284 8543 92.4284
152.402 8550 92.4662
152.519 8717 93.3649
152.636 8800 93.8083
152.754 8630 92.8978
152.871 8098 89.9889
152.989 8234 90.7414
153.106 8477 92.0706
153.223 8400 91.6515
153.341 8167 90.3715
153.458 8182 90.4544
153.575 8077 89.8721
153.693 7986 89.3644
153.81 7738 87.9659
153.927 7818 88.4195
154.044 7935 89.0786
154.162 8017 89.5377
154.279 8006 89.4763
154.396 8368 91.4768
154.513 8663 93.0752
154.63 8662 93.0699
154.747 8676 93.145
154.864 8380 91.5423
154.981 8345 91.351
155.098 8165 90.3604
155.215 8276 90.9725
155.332 8136 90.1998
155.449 8210 90.6091
155.566 8258 90.8735
155.683 8332 91.2798
155.8 8443 91.8858
155.917 8344 91.3455
156.033 8226 90.6973
156.15 0 1
156.267 0 1
156.383 0 1
156.5 0 1
156.617 0 1
156.733 0 1
156.85 0 1
156.966 0 1
157.082 0 1
157.199 0 1
157.315 0 1
157.431 0 1
157.547 0 1
157.664 0 1
157.78 0 1
157.896 0 1
158.012 0 1
158.128 0 1
158.244 0 1
158.359 0 1
158.475 0 1
158.591 0 1
158.706 0 1
