
6.15755 0 1
6.2731 0 1
6.3887 0 1
6.50437 0 1
6.62009 0 1
6.73587 0 1
6.8517 0 1
6.96759 0 1
7.08353 0 1
7.19952 0 1
7.31557 0 1
7.43166 0 1
7.54781 0 1
7.664 0 1
7.78024 0 1
7.89653 0 1
8.01286 0 1
8.12924 0 1
8.24567 0 1
8.36213 0 1
8.47864 0 1
8.59519 0 1
8.71178 0 1
8.82841 0 1
8.94508 0 1
9.06179 0 1
9.17853 0 1
9.29531 0 1
9.41212 0 1
9.52897 0 1
9.64584 0 1
9.76276 0 1
9.8797 0 1
9.99667 0 1
10.1137 0 1
10.2307 0 1
10.3478 0 1
10.4648 0 1
10.5819 0 1
10.6991 0 1
10.8162 0 1
10.9334 0 1
11.0506 0 1
11.1678 0 1
11.285 0 1
11.4023 0 1
11.5196 0 1
11.6369 0 1
11.7542 0 1
11.8715 0 1
11.9888 0 1
12.1062 0 1
12.2235 0 1
12.3409 0 1
12.4582 0 1
12.5756 0 1
12.693 0 1
12.8104 0 1
12.9278 0 1
13.0452 0 1
13.1626 0 1
13.28 0 1
13.3974 0 1
13.5149 0 1
13.6323 0 1
13.7497 0 1
13.8671 0 1
13.9845 0 1
14.1019 0 1
14.2193 0 1
14.3367 0 1
14.4541 0 1
14.5714 0 1
14.6888 0 1
14.8062 0 1
14.9235 0 1
15.0408 0 0
15.1581 0 0
15.2755 0 0
15.3927 0 0
15.51 0 0
15.6273 0 0
15.7445 0 0
15.8617 0 0
15.9789 0 0
16.0961 0 0
16.2132 0 0
16.3304 0 0
16.4475 0 0
16.5646 0 0
16.6816 0 0
16.7986 0 0
16.9156 0 0
17.0326 0 0
17.1496 0 0
17.2665 0 0
17.3833 0 0
17.5002 0 0
17.617 0 0
17.7338 0 0
17.8505 0 0
17.9672 0 0
18.0839 0 0
18.2005 0 0
18.3171 0 0
18.4337 0 0
18.5502 0 0
18.6666 0 0
18.7831 0 0
18.8994 0 0
19.0158 0 0
19.1321 0 0
19.2483 0 0
19.3645 0 0
19.4806 0 0
19.5967 0 0
19.7128 0 0
19.8288 0 0
19.9447 0 0
20.0606 0 1
20.1764 0 1
20.2922 0 1
20.4079 0 1
20.5236 0 1
20.6392 0 1
20.7548 0 1
20.8702 0 1
23.3078 0 1
23.4233 0 1
23.539 0 1
23.6547 0 1
23.7704 0 1
23.8862 0 1
24.0021 0 1
24.118 0 1
24.234 0 1
24.35 0 1
24.4661 1125 33.541
24.5822 1184 34.4093
24.6984 1157 34.0147
24.8146 1109 33.3017
24.9309 1113 33.3617
25.0472 1155 33.9853
25.1636 1172 34.2345
25.28 1124 33.5261
25.3965 1182 34.3802
25.513 1248 35.327
25.6296 1205 34.7131
25.7462 1296 36
25.8628 1319 36.318
25.9795 1310 36.1939
26.0962 1355 36.8103
26.213 1307 36.1525
26.3298 1338 36.5787
26.4466 1394 37.3363
26.5635 1399 37.4032
26.6804 1289 35.9026
26.7973 1289 35.9026
26.9143 1206 34.7275
27.0313 1161 34.0735
27.1483 1302 36.0832
27.2653 1347 36.7015
27.3824 1344 36.6606
27.4996 1335 36.5377
27.6167 1345 36.6742
27.7339 1354 36.7967
27.8511 1389 37.2693
27.9683 1344 36.6606
28.0855 1337 36.565
28.2028 1348 36.7151
28.3201 1322 36.3593
28.4374 1341 36.6197
28.5547 1290 35.9166
28.6721 1232 35.0999
28.7894 1237 35.171
28.9068 1362 36.9053
29.0242 1406 37.4967
29.1416 1368 36.9865
29.259 1449 38.0657
29.3764 1407 37.51
29.4939 1417 37.6431
29.6113 1361 36.8917
29.7288 1376 37.0945
29.8463 1469 38.3275
29.9638 1466 38.2884
30.0812 1432 37.8418
30.1987 1292 35.9444
30.3162 1230 35.0714
30.4337 1224 34.9857
30.5512 1213 34.8281
30.6687 1225 35
30.7862 1338 36.5787
30.9037 1212 34.8138
31.0212 1280 35.7771
31.1387 1313 36.2353
31.2562 1334 36.524
31.3737 1257 35.4542
31.4912 1224 34.9857
31.6087 1317 36.2905
31.7262 1369 37
31.8436 1219 34.9142
31.9611 1207 34.7419
32.0785 1199 34.6266
32.1959 1122 33.4963
32.3134 1163 34.1028
32.4308 1195 34.5688
32.5482 1231 35.0856
32.6655 1263 35.5387
32.7829 1296 36
32.9002 1229 35.0571
33.0176 1204 34.6987
33.1349 1243 35.2562
33.2522 1237 35.171
33.3694 1325 36.4005
33.4867 1301 36.0694
33.6039 1279 35.7631
33.7211 1228 35.0428
33.8383 1097 33.121
33.9554 1116 33.4066
34.0725 1098 33.1361
34.1896 1136 33.7046
34.3067 1137 33.7194
34.4237 1179 34.3366
34.5407 1211 34.7994
34.6577 1156 34
34.7746 1231 35.0856
34.8915 1162 34.0881
35.0084 1090 33.0151
35.1252 1132 33.6452
35.242 1115 33.3916
35.3587 1159 34.0441
35.4755 1148 33.8821
35.5921 1105 33.2415
35.7088 1155 33.9853
35.8254 1030 32.0936
35.9419 1060 32.5576
36.0584 1018 31.9061
36.1749 1059 32.5423
36.2913 1141 33.7787
36.4077 1083 32.909
36.524 1126 33.5559
36.6403 1186 34.4384
36.7565 1140 33.7639
36.8727 1144 33.8231
36.9889 1190 34.4964
37.1049 1121 33.4813
37.221 0 1
37.3369 0 1
37.4529 0 1
37.5687 0 1
37.6845 0 1
37.8003 0 1
37.916 0 1
38.0316 0 1
38.1472 0 1
40.5851 0 1
40.7008 0 1
40.8164 0 1
40.9322 0 1
41.048 0 1
41.1639 0 1
41.2798 0 1
41.3958 0 1
41.5118 0 1
41.6279 0 1
41.744 992 31.496
41.8602 953 30.8707
41.9765 1015 31.8591
42.0928 1019 31.9218
42.2091 1081 32.8786
42.3255 968 31.1127
42.4419 1054 32.4654
42.5584 939 30.6431
42.675 991 31.4802
42.7915 895 29.9166
42.9081 828 28.775
43.0248 841 29
43.1415 921 30.348
43.2582 891 29.8496
43.375 950 30.8221
43.4918 962 31.0161
43.6087 946 30.7571
43.7256 911 30.1828
43.8425 892 29.8664
43.9595 862 29.3598
44.0765 807 28.4077
44.1935 880 29.6648
44.3106 870 29.4958
44.4277 759 27.55
44.5448 822 28.6705
44.6619 758 27.5318
44.7791 771 27.7669
44.8963 743 27.258
45.0136 727 26.9629
45.1308 754 27.4591
45.2481 807 28.4077
45.3654 825 28.7228
45.4827 805 28.3725
45.6001 797 28.2312
45.7174 762 27.6043
45.8348 794 28.178
45.9522 802 28.3196
46.0697 748 27.3496
46.1871 770 27.7489
46.3046 713 26.7021
46.422 661 25.7099
46.5395 644 25.3772
46.657 645 25.3969
46.7745 690 26.2679
46.892 710 26.6458
47.0096 681 26.096
47.1271 755 27.4773
47.2446 675 25.9808
47.3622 692 26.3059
47.4797 632 25.1396
47.5973 666 25.807
47.7149 627 25.04
47.8324 659 25.671
47.95 671 25.9037
48.0675 607 24.6374
48.1851 581 24.1039
48.3027 558 23.622
48.4202 600 24.4949
48.5378 580 24.0832
48.6554 580 24.0832
48.7729 637 25.2389
48.8904 627 25.04
49.008 631 25.1197
49.1255 624 24.98
49.243 635 25.1992
49.3605 600 24.4949
49.478 602 24.5357
49.5955 625 25
49.713 600 24.4949
49.8304 613 24.7588
49.9479 567 23.8118
50.0653 545 23.3452
50.1827 559 23.6432
50.3001 598 24.454
50.4175 656 25.6125
50.5348 662 25.7294
50.6521 660 25.6905
50.7694 654 25.5734
50.8867 641 25.318
51.004 656 25.6125
51.1212 622 24.9399
51.2384 644 25.3772
51.3556 746 27.313
51.4727 720 26.8328
51.5899 738 27.1662
51.707 713 26.7021
51.824 771 27.7669
51.9411 768 27.7128
52.0581 729 27
52.175 862 29.3598
52.2919 833 28.8617
52.4088 829 28.7924
52.5257 888 29.7993
52.6425 879 29.6479
52.7593 909 30.1496
52.876 941 30.6757
52.9927 925 30.4138
53.1094 931 30.5123
53.226 937 30.6105
53.3426 887 29.7825
53.4591 915 30.249
53.5756 834 28.8791
53.692 772 27.7849
53.8084 841 29
53.9248 837 28.931
54.0411 936 30.5941
54.1573 966 31.0805
54.2735 0 1
54.3896 0 1
54.5057 0 1
54.6217 0 1
54.7377 0 1
54.8537 0 1
54.9695 0 1
55.0853 0 1
55.2011 0 1
55.3168 0 1
55.4324 0 1
57.824 0 1
57.9396 0 1
58.0553 0 1
58.1711 0 1
58.2869 0 1
58.4028 0 1
58.5187 0 1
58.6347 0 1
58.7508 0 1
58.8669 0 1
58.983 916 30.2655
59.0992 1027 32.0468
59.2155 1074 32.7719
59.3318 1073 32.7567
59.4482 1159 34.0441
59.5646 1116 33.4066
59.681 1152 33.9411
59.7975 1085 32.9393
59.9141 1006 31.7175
60.0306 1011 31.7962
60.1473 1075 32.7872
60.2639 936 30.5941
60.3807 1029 32.078
60.4974 961 31
60.6142 1040 32.249
60.731 981 31.3209
60.8479 1012 31.8119
60.9648 984 31.3688
61.0818 1100 33.1662
61.1987 1087 32.9697
61.3158 1044 32.311
61.4328 1045 32.3265
61.5499 1002 31.6544
61.667 1056 32.4962
61.7841 1010 31.7805
61.9013 915 30.249
62.0185 983 31.3528
62.1357 886 29.7658
62.253 858 29.2916
62.3702 870 29.4958
62.4875 1036 32.187
62.6049 938 30.6268
62.7222 1008 31.749
62.8396 1038 32.218
62.9569 1127 33.5708
63.0743 968 31.1127
63.1918 973 31.1929
63.3092 902 30.0333
63.4267 919 30.315
63.5441 966 31.0805
63.6616 857 29.2746
63.7791 927 30.4467
63.8966 909 30.1496
64.0142 879 29.6479
64.1317 920 30.3315
64.2492 875 29.5804
64.3668 944 30.7246
64.4843 969 31.1288
64.6019 964 31.0483
64.7195 942 30.692
64.837 933 30.545
64.9546 971 31.1609
65.0722 941 30.6757
65.1898 937 30.6105
65.3074 947 30.7734
65.4249 929 30.4795
65.5425 864 29.3939
65.6601 812 28.4956
65.7777 841 29
65.8952 838 28.9482
66.0128 893 29.8831
66.1304 889 29.8161
66.2479 931 30.5123
66.3655 980 31.305
66.483 978 31.273
66.6005 948 30.7896
66.718 957 30.9354
66.8355 976 31.241
66.953 885 29.7489
67.0705 831 28.8271
67.1879 895 29.9166
67.3054 849 29.1376
67.4228 890 29.8329
67.5402 839 28.9655
67.6576 856 29.2575
67.7749 831 28.8271
67.8923 947 30.7734
68.0096 933 30.545
68.1269 894 29.8998
68.2442 904 30.0666
68.3614 941 30.6757
68.4787 994 31.5278
68.5958 978 31.273
68.713 971 31.1609
68.8302 885 29.7489
68.9473 986 31.4006
69.0643 971 31.1609
69.1814 936 30.5941
69.2984 970 31.1448
69.4154 914 30.2324
69.5323 863 29.3769
69.6492 900 30
69.7661 978 31.273
69.8829 1013 31.8277
69.9997 1061 32.573
70.1165 1122 33.4963
70.2332 1008 31.749
70.3499 1167 34.1614
70.4665 1066 32.6497
70.5831 967 31.0966
70.6996 915 30.249
70.8161 853 29.2062
70.9326 882 29.6985
71.049 844 29.0517
71.1653 848 29.1204
71.2817 923 30.3809
71.3979 926 30.4302
71.5141 1000 31.6228
71.6303 881 29.6816
71.7464 869 29.4788
71.8624 0 1
71.9784 0 1
72.0944 0 1
72.2102 0 1
72.3261 0 1
72.4418 0 1
72.5575 0 1
72.6732 0 1
75.1054 0 1
75.2209 0 1
75.3365 0 1
75.4521 0 1
75.5678 0 1
75.6835 0 1
75.7993 0 1
75.9151 0 1
76.031 0 1
76.147 777 27.8747
76.263 835 28.8964
76.3791 892 29.8664
76.4952 952 30.8545
76.6113 984 31.3688
76.7276 939 30.6431
76.8438 939 30.6431
76.9601 1009 31.7648
77.0765 1008 31.749
77.1929 1015 31.8591
77.3093 1058 32.5269
77.4258 1021 31.9531
77.5423 1054 32.4654
77.6589 961 31
77.7755 1034 32.1559
77.8921 1002 31.6544
78.0088 1002 31.6544
78.1256 968 31.1127
78.2423 921 30.348
78.3591 886 29.7658
78.4759 877 29.6142
78.5928 812 28.4956
78.7097 914 30.2324
78.8266 878 29.6311
78.9436 1039 32.2335
79.0606 1030 32.0936
79.1776 982 31.3369
79.2946 1057 32.5115
79.4117 1056 32.4962
79.5288 1066 32.6497
79.6459 968 31.1127
79.7631 894 29.8998
79.8802 775 27.8388
79.9974 801 28.3019
80.1147 870 29.4958
80.2319 883 29.7153
80.3491 851 29.1719
80.4664 900 30
80.5837 924 30.3974
80.701 919 30.315
80.8183 931 30.5123
80.9357 966 31.0805
81.053 1027 32.0468
81.1704 939 30.6431
81.2877 957 30.9354
81.4051 920 30.3315
81.5225 921 30.348
81.6399 879 29.6479
81.7573 874 29.5635
81.8747 819 28.6182
81.9922 809 28.4429
82.1096 807 28.4077
82.227 737 27.1477
82.3444 841 29
82.4619 900 30
82.5793 936 30.5941
82.6967 978 31.273
82.8142 944 30.7246
82.9316 961 31
83.049 1009 31.7648
83.1664 921 30.348
83.2838 862 29.3598
83.4012 779 27.9106
83.5186 719 26.8142
83.636 656 25.6125
83.7534 694 26.3439
83.8708 813 28.5132
83.9881 822 28.6705
84.1055 790 28.1069
84.2228 864 29.3939
84.3401 898 29.9666
84.4575 903 30.05
84.5747 857 29.2746
84.692 920 30.3315
84.8093 880 29.6648
84.9265 933 30.545
85.0437 907 30.1164
85.1609 942 30.692
85.2781 961 31
85.3952 851 29.1719
85.5123 814 28.5307
85.6294 823 28.688
85.7465 836 28.9137
85.8636 855 29.2404
85.9806 927 30.4467
86.0976 933 30.545
86.2145 1007 31.7333
86.3315 1085 32.9393
86.4484 1015 31.8591
86.5652 1075 32.7872
86.682 1057 32.5115
86.7988 1063 32.6037
86.9156 1051 32.4191
87.0323 951 30.8383
87.149 844 29.0517
87.2657 800 28.2843
87.3823 869 29.4788
87.4988 923 30.3809
87.6154 1060 32.5576
87.7318 1010 31.7805
87.8483 1020 31.9374
87.9647 1042 32.28
88.081 1092 33.0454
88.1973 1057 32.5115
88.3136 1076 32.8024
88.4298 1083 32.909
88.546 1053 32.45
88.6621 1082 32.8938
88.7781 1040 32.249
88.8942 0 1
89.0101 0 1
89.126 0 1
89.2419 0 1
89.3577 0 1
89.4734 0 1
89.5891 0 1
89.7047 0 1
89.8203 0 1
89.9358 0 1
92.3269 0 1
92.4424 0 1
92.558 0 1
92.6736 0 1
92.7893 0 1
92.905 0 1
93.0208 0 1
93.1366 0 1
93.2525 0 1
93.3685 0 1
93.4845 0 1
93.6005 1077 32.8177
93.7167 1075 32.7872
93.8328 1088 32.9848
93.949 1042 32.28
94.0653 1092 33.0454
94.1816 1087 32.9697
94.2979 999 31.607
94.4143 961 31
94.5307 945 30.7409
94.6472 963 31.0322
94.7637 914 30.2324
94.8803 988 31.4325
94.9969 1037 32.2025
95.1135 988 31.4325
95.2302 1086 32.9545
95.3469 1098 33.1361
95.4637 1140 33.7639
95.5805 1101 33.1813
95.6973 1114 33.3766
95.8142 1175 34.2783
95.9311 1108 33.2866
96.048 1112 33.3467
96.1649 1029 32.078
96.2819 874 29.5635
96.3989 934 30.5614
96.516 877 29.6142
96.633 883 29.7153
96.7501 990 31.4643
96.8673 1090 33.0151
96.9844 1110 33.3167
97.1016 1133 33.6601
97.2188 1118 33.4365
97.336 1144 33.8231
97.4532 1118 33.4365
97.5704 1070 32.7109
97.6877 1126 33.5559
97.805 1108 33.2866
97.9223 1000 31.6228
98.0396 973 31.1929
98.1569 971 31.1609
98.2743 1011 31.7962
98.3916 951 30.8383
98.509 1044 32.311
98.6264 1050 32.4037
98.7438 1072 32.7414
98.8612 1091 33.0303
98.9786 1087 32.9697
99.096 1168 34.176
99.2134 1121 33.4813
99.3308 1146 33.8526
99.4482 1183 34.3948
99.5656 1085 32.9393
99.6831 1074 32.7719
99.8005 1060 32.5576
99.9179 842 29.0172
100.035 837 28.931
100.153 909 30.1496
100.27 1013 31.8277
100.388 1052 32.4345
100.505 1103 33.2114
100.622 1127 33.5708
100.74 1198 34.6121
100.857 1182 34.3802
100.975 1129 33.6006
101.092 1160 34.0588
101.209 1102 33.1964
101.327 1043 32.2955
101.444 1129 33.6006
101.561 1054 32.4654
101.679 949 30.8058
101.796 937 30.6105
101.913 943 30.7083
102.03 974 31.209
102.148 1044 32.311
102.265 1069 32.6956
102.382 1173 34.2491
102.499 1138 33.7343
102.616 1227 35.0286
102.733 1212 34.8138
102.851 1252 35.3836
102.968 1214 34.8425
103.085 1180 34.3511
103.202 1188 34.4674
103.319 1092 33.0454
103.436 1073 32.7567
103.552 962 31.0161
103.669 881 29.6816
103.786 1081 32.8786
103.903 1127 33.5708
104.02 1134 33.6749
104.137 1158 34.0294
104.253 1208 34.7563
104.37 1217 34.8855
104.487 1185 34.4238
104.603 1201 34.6554
104.72 1160 34.0588
104.836 1269 35.623
104.953 1185 34.4238
105.069 1069 32.6956
105.186 1000 31.6228
105.302 990 31.4643
105.418 1040 32.249
105.535 1064 32.619
105.651 1204 34.6987
105.767 1230 35.0714
105.883 1224 34.9857
105.999 1235 35.1426
106.115 0 1
106.231 0 1
106.347 0 1
106.463 0 1
106.579 0 1
106.694 0 1
106.81 0 1
106.926 0 1
107.041 0 1
107.157 0 1
109.576 0 1
109.692 0 1
109.807 0 1
109.923 0 1
110.039 0 1
110.155 0 1
110.27 0 1
110.386 0 1
110.502 0 1
110.618 1061 32.573
110.735 1154 33.9706
110.851 1191 34.5109
110.967 1183 34.3948
111.083 1236 35.1568
111.199 1172 34.2345
111.316 1304 36.1109
111.432 1205 34.7131
111.549 1162 34.0881
111.665 1249 35.3412
111.782 1210 34.7851
111.898 1161 34.0735
112.015 1006 31.7175
112.132 948 30.7896
112.248 974 31.209
112.365 1028 32.0624
112.482 1083 32.909
112.599 1190 34.4964
112.716 1125 33.541
112.832 1172 34.2345
112.949 1183 34.3948
113.066 1174 34.2637
113.183 1143 33.8083
113.3 1102 33.1964
113.417 1085 32.9393
113.534 1041 32.2645
113.652 1028 32.0624
113.769 928 30.4631
113.886 968 31.1127
114.003 914 30.2324
114.12 1045 32.3265
114.238 1127 33.5708
114.355 1139 33.7491
114.472 1149 33.8969
114.589 1157 34.0147
114.707 1186 34.4384
114.824 1122 33.4963
114.942 1229 35.0571
115.059 1194 34.5543
115.176 1220 34.9285
115.294 1103 33.2114
115.411 1129 33.6006
115.529 1060 32.5576
115.646 927 30.4467
115.764 866 29.4279
115.881 895 29.9166
115.999 1072 32.7414
116.116 1101 33.1813
116.234 1149 33.8969
116.351 1125 33.541
116.469 1175 34.2783
116.586 1134 33.6749
116.704 1201 34.6554
116.821 1120 33.4664
116.939 1058 32.5269
117.056 1025 32.0156
117.174 999 31.607
117.291 991 31.4802
117.409 948 30.7896
117.526 911 30.1828
117.644 1001 31.6386
117.761 1091 33.0303
117.879 1149 33.8969
117.996 1125 33.541
118.114 1180 34.3511
118.231 1170 34.2053
118.349 1160 34.0588
118.466 1148 33.8821
118.584 1271 35.6511
118.701 1203 34.6843
118.819 1204 34.6987
118.936 1064 32.619
119.053 1132 33.6452
119.171 1048 32.3728
119.288 966 31.0805
119.405 859 29.3087
119.523 981 31.3209
119.64 1078 32.8329
119.757 1050 32.4037
119.875 1163 34.1028
119.992 1084 32.9242
120.109 1133 33.6601
120.226 1146 33.8526
120.343 1092 33.0454
120.46 1101 33.1813
120.578 1097 33.121
120.695 1092 33.0454
120.812 1013 31.8277
120.929 967 31.0966
121.046 953 30.8707
121.163 922 30.3645
121.279 971 31.1609
121.396 1026 32.0312
121.513 1011 31.7962
121.63 1108 33.2866
121.747 1109 33.3017
121.863 1152 33.9411
121.98 1174 34.2637
122.097 1111 33.3317
122.213 1179 34.3366
122.33 1147 33.8674
122.446 1154 33.9706
122.563 1172 34.2345
122.679 1126 33.5559
122.795 1149 33.8969
122.912 991 31.4802
123.028 909 30.1496
123.144 890 29.8329
123.26 910 30.1662
123.377 0 1
123.493 0 1
123.609 0 1
123.725 0 1
123.84 0 1
123.956 0 1
124.072 0 1
124.188 0 1
124.303 0 1
124.419 0 1
126.852 0 1
126.968 0 1
127.083 0 1
127.199 0 1
127.315 0 1
127.431 0 1
127.547 0 1
127.663 0 1
127.779 0 1
127.895 0 1
128.011 0 1
128.127 0 1
128.243 0 1
128.359 916 30.2655
128.476 957 30.9354
128.592 1030 32.0936
128.708 1146 33.8526
128.825 1171 34.2199
128.941 1189 34.4819
129.058 1182 34.3802
129.174 1225 35
129.291 1222 34.9571
129.408 1208 34.7563
129.524 1221 34.9428
129.641 1112 33.3467
129.758 1077 32.8177
129.875 1060 32.5576
129.992 1044 32.311
130.108 967 31.0966
130.225 1058 32.5269
130.342 1067 32.665
130.459 1163 34.1028
130.576 1252 35.3836
130.693 1226 35.0143
130.81 1121 33.4813
130.928 1207 34.7419
131.045 1268 35.609
131.162 1235 35.1426
131.279 1256 35.4401
131.396 1257 35.4542
131.513 1253 35.3977
131.631 1202 34.6699
131.748 1141 33.7787
131.865 1004 31.686
131.983 936 30.5941
132.1 1033 32.1403
132.217 1135 33.6898
132.335 1244 35.2704
132.452 1253 35.3977
132.57 1229 35.0571
132.687 1244 35.2704
132.804 1199 34.6266
132.922 1199 34.6266
133.039 1154 33.9706
133.157 1118 33.4365
133.274 1131 33.6303
133.392 1012 31.8119
133.509 1083 32.909
133.627 951 30.8383
133.744 1061 32.573
133.862 1064 32.619
133.979 1153 33.9559
134.097 1186 34.4384
134.214 1180 34.3511
134.332 1254 35.4119
134.449 1281 35.7911
134.567 1234 35.1283
134.684 1203 34.6843
134.802 1213 34.8281
134.919 1181 34.3657
135.037 1178 34.322
135.154 1224 34.9857
135.272 1195 34.5688
135.389 1015 31.8591
135.507 980 31.305
135.624 957 30.9354
135.742 1024 32
135.859 1172 34.2345
135.977 1152 33.9411
136.094 1288 35.8887
136.211 1199 34.6266
136.329 1199 34.6266
136.446 1198 34.6121
136.564 1109 33.3017
136.681 1183 34.3948
136.798 1167 34.1614
136.915 1103 33.2114
137.033 1069 32.6956
137.15 1057 32.5115
137.267 1021 31.9531
137.384 1017 31.8904
137.502 1069 32.6956
137.619 1151 33.9264
137.736 1155 33.9853
137.853 1134 33.6749
137.97 1270 35.6371
138.087 1239 35.1994
138.204 1168 34.176
138.321 1188 34.4674
138.438 1167 34.1614
138.555 1270 35.6371
138.672 1239 35.1994
138.788 1206 34.7275
138.905 1196 34.5832
139.022 1096 33.1059
139.139 996 31.5595
139.255 969 31.1288
139.372 1093 33.0606
139.488 1117 33.4215
139.605 1240 35.2136
139.721 1207 34.7419
139.838 1220 34.9285
139.954 1222 34.9571
140.071 1208 34.7563
140.187 1257 35.4542
140.303 1189 34.4819
140.419 1154 33.9706
140.535 1090 33.0151
140.652 1122 33.4963
140.768 0 1
140.884 0 1
141 0 1
141.115 0 1
141.231 0 1
141.347 0 1
141.463 0 1
141.578 0 1
141.694 0 1
144.104 0 1
144.219 0 1
144.335 0 1
144.45 0 1
144.566 0 1
144.682 0 1
144.798 0 1
144.914 0 1
145.03 0 1
145.146 840 28.9828
145.262 933 30.545
145.378 932 30.5287
145.494 921 30.348
145.61 896 29.9333
145.726 900 30
145.842 807 28.4077
145.959 840 28.9828
146.075 807 28.4077
146.192 820 28.6356
146.308 862 29.3598
146.425 952 30.8545
146.541 944 30.7246
146.658 945 30.7409
146.774 991 31.4802
146.891 1024 32
147.008 1016 31.8748
147.125 976 31.241
147.241 994 31.5278
147.358 967 31.0966
147.475 959 30.9677
147.592 948 30.7896
147.709 948 30.7896
147.826 921 30.348
147.943 837 28.931
148.06 775 27.8388
148.177 825 28.7228
148.294 859 29.3087
148.411 917 30.282
148.528 995 31.5436
148.645 969 31.1288
148.762 998 31.5911
148.88 956 30.9192
148.997 992 31.496
149.114 988 31.4325
149.231 929 30.4795
149.349 910 30.1662
149.466 879 29.6479
149.583 901 30.0167
149.701 886 29.7658
149.818 859 29.3087
149.935 795 28.1957
150.053 809 28.4429
150.17 821 28.6531
150.287 914 30.2324
150.405 918 30.2985
150.522 990 31.4643
150.64 960 30.9839
150.757 961 31
150.875 988 31.4325
150.992 1014 31.8434
151.11 1017 31.8904
151.227 1028 32.0624
151.344 956 30.9192
151.462 957 30.9354
151.579 863 29.3769
151.697 858 29.2916
151.814 784 28
151.932 836 28.9137
152.049 936 30.5941
152.167 976 31.241
152.284 968 31.1127
152.402 1057 32.5115
152.519 955 30.9031
152.636 989 31.4484
152.754 1055 32.4808
152.871 1006 31.7175
152.989 962 31.0161
153.106 909 30.1496
153.223 933 30.545
153.341 900 30
153.458 873 29.5466
153.575 858 29.2916
153.693 908 30.133
153.81 935 30.5778
153.927 965 31.0644
154.044 1013 31.8277
154.162 996 31.5595
154.279 1029 32.078
154.396 1089 33
154.513 1051 32.4191
154.63 1031 32.1092
154.747 1106 33.2566
154.864 1059 32.5423
154.981 1097 33.121
155.098 1018 31.9061
155.215 971 31.1609
155.332 908 30.133
155.449 952 30.8545
155.566 947 30.7734
155.683 1027 32.0468
155.8 1126 33.5559
155.917 1078 32.8329
156.033 1153 33.9559
156.15 0 1
156.267 0 1
156.383 0 1
156.5 0 1
156.617 0 1
156.733 0 1
156.85 0 1
156.966 0 1
157.082 0 1
157.199 0 1
157.315 0 1
157.431 0 1
157.547 0 1
157.664 0 1
157.78 0 1
157.896 0 1
158.012 0 1
158.128 0 1
158.244 0 1
158.359 0 1
158.475 0 1
158.591 0 1
158.706 0 1
