
6.15755 0 1
6.2731 0 1
6.3887 0 1
6.50437 0 1
6.62009 0 1
6.73587 0 1
6.8517 0 1
6.96759 0 1
7.08353 0 1
7.19952 0 1
7.31557 0 1
7.43166 0 1
7.54781 0 1
7.664 0 1
7.78024 0 1
7.89653 0 1
8.01286 0 1
8.12924 0 1
8.24567 0 1
8.36213 0 1
8.47864 0 1
8.59519 0 1
8.71178 0 1
8.82841 0 1
8.94508 0 1
9.06179 0 1
9.17853 0 1
9.29531 0 1
9.41212 0 1
9.52897 0 1
9.64584 0 1
9.76276 0 1
9.8797 0 1
9.99667 0 1
10.1137 0 1
10.2307 0 1
10.3478 0 1
10.4648 0 1
10.5819 0 1
10.6991 0 1
10.8162 0 1
10.9334 0 1
11.0506 0 1
11.1678 0 1
11.285 0 1
11.4023 0 1
11.5196 0 1
11.6369 0 1
11.7542 0 1
11.8715 0 1
11.9888 0 1
12.1062 0 1
12.2235 0 1
12.3409 0 1
12.4582 0 1
12.5756 0 1
12.693 0 1
12.8104 0 1
12.9278 0 1
13.0452 0 1
13.1626 0 1
13.28 0 1
13.3974 0 1
13.5149 0 1
13.6323 0 1
13.7497 0 1
13.8671 0 1
13.9845 0 1
14.1019 0 1
14.2193 0 1
14.3367 0 1
14.4541 0 1
14.5714 0 1
14.6888 0 1
14.8062 0 1
14.9235 0 1
15.0408 0 0
15.1581 0 0
15.2755 0 0
15.3927 0 0
15.51 0 0
15.6273 0 0
15.7445 0 0
15.8617 0 0
15.9789 0 0
16.0961 0 0
16.2132 0 0
16.3304 0 0
16.4475 0 0
16.5646 0 0
16.6816 0 0
16.7986 0 0
16.9156 0 0
17.0326 0 0
17.1496 0 0
17.2665 0 0
17.3833 0 0
17.5002 0 0
17.617 0 0
17.7338 0 0
17.8505 0 0
17.9672 0 0
18.0839 0 0
18.2005 0 0
18.3171 0 0
18.4337 0 0
18.5502 0 0
18.6666 0 0
18.7831 0 0
18.8994 0 0
19.0158 0 0
19.1321 0 0
19.2483 0 0
19.3645 0 0
19.4806 0 0
19.5967 0 0
19.7128 0 0
19.8288 0 0
19.9447 0 0
20.0606 0 1
20.1764 0 1
20.2922 0 1
20.4079 0 1
20.5236 0 1
20.6392 0 1
20.7548 0 1
20.8702 0 1
23.3078 0 1
23.4233 0 1
23.539 0 1
23.6547 0 1
23.7704 0 1
23.8862 0 1
24.0021 0 1
24.118 0 1
24.234 0 1
24.35 0 1
24.4661 1125 33.541
24.5822 1121 33.4813
24.6984 1066 32.6497
24.8146 1112 33.3467
24.9309 1049 32.3883
25.0472 987 31.4166
25.1636 998 31.5911
25.28 959 30.9677
25.3965 992 31.496
25.513 1011 31.7962
25.6296 1105 33.2415
25.7462 1111 33.3317
25.8628 1223 34.9714
25.9795 1232 35.0999
26.0962 1162 34.0881
26.213 1200 34.641
26.3298 1235 35.1426
26.4466 1210 34.7851
26.5635 1224 34.9857
26.6804 1193 34.5398
26.7973 1181 34.3657
26.9143 1173 34.2491
27.0313 1168 34.176
27.1483 1219 34.9142
27.2653 1290 35.9166
27.3824 1287 35.8748
27.4996 1260 35.4965
27.6167 1303 36.0971
27.7339 1222 34.9571
27.8511 1174 34.2637
27.9683 1232 35.0999
28.0855 1191 34.5109
28.2028 1187 34.4529
28.3201 1127 33.5708
28.4374 1069 32.6956
28.5547 1038 32.218
28.6721 927 30.4467
28.7894 890 29.8329
28.9068 951 30.8383
29.0242 932 30.5287
29.1416 920 30.3315
29.259 982 31.3369
29.3764 1003 31.6702
29.4939 1163 34.1028
29.6113 1131 33.6303
29.7288 1064 32.619
29.8463 1155 33.9853
29.9638 1154 33.9706
30.0812 1113 33.3617
30.1987 1146 33.8526
30.3162 1086 32.9545
30.4337 1107 33.2716
30.5512 1171 34.2199
30.6687 1217 34.8855
30.7862 1276 35.7211
30.9037 1173 34.2491
31.0212 1194 34.5543
31.1387 1257 35.4542
31.2562 1185 34.4238
31.3737 1176 34.2929
31.4912 1231 35.0856
31.6087 1069 32.6956
31.7262 1134 33.6749
31.8436 1118 33.4365
31.9611 1108 33.2866
32.0785 1024 32
32.1959 890 29.8329
32.3134 863 29.3769
32.4308 873 29.5466
32.5482 923 30.3809
32.6655 934 30.5614
32.7829 1036 32.187
32.9002 1070 32.7109
33.0176 1045 32.3265
33.1349 1101 33.1813
33.2522 1141 33.7787
33.3694 1092 33.0454
33.4867 1145 33.8378
33.6039 1150 33.9116
33.7211 1131 33.6303
33.8383 1104 33.2265
33.9554 1113 33.3617
34.0725 1115 33.3916
34.1896 1098 33.1361
34.3067 1084 32.9242
34.4237 1153 33.9559
34.5407 1148 33.8821
34.6577 1218 34.8999
34.7746 1225 35
34.8915 1133 33.6601
35.0084 1135 33.6898
35.1252 1167 34.1614
35.242 1103 33.2114
35.3587 1122 33.4963
35.4755 1080 32.8634
35.5921 1032 32.1248
35.7088 1004 31.686
35.8254 971 31.1609
35.9419 864 29.3939
36.0584 853 29.2062
36.1749 803 28.3373
36.2913 832 28.8444
36.4077 817 28.5832
36.524 913 30.2159
36.6403 947 30.7734
36.7565 939 30.6431
36.8727 1082 32.8938
36.9889 1027 32.0468
37.1049 1053 32.45
37.221 0 1
37.3369 0 1
37.4529 0 1
37.5687 0 1
37.6845 0 1
37.8003 0 1
37.916 0 1
38.0316 0 1
38.1472 0 1
40.5851 0 1
40.7008 0 1
40.8164 0 1
40.9322 0 1
41.048 0 1
41.1639 0 1
41.2798 0 1
41.3958 0 1
41.5118 0 1
41.6279 0 1
41.744 687 26.2107
41.8602 755 27.4773
41.9765 822 28.6705
42.0928 827 28.7576
42.2091 860 29.3258
42.3255 830 28.8097
42.4419 871 29.5127
42.5584 925 30.4138
42.675 892 29.8664
42.7915 860 29.3258
42.9081 818 28.6007
43.0248 877 29.6142
43.1415 884 29.7321
43.2582 889 29.8161
43.375 950 30.8221
43.4918 947 30.7734
43.6087 948 30.7896
43.7256 846 29.0861
43.8425 850 29.1548
43.9595 854 29.2233
44.0765 798 28.2489
44.1935 823 28.688
44.3106 819 28.6182
44.4277 781 27.9464
44.5448 724 26.9072
44.6619 607 24.6374
44.7791 611 24.7184
44.8963 534 23.1084
45.0136 603 24.5561
45.1308 569 23.8537
45.2481 572 23.9165
45.3654 661 25.7099
45.4827 633 25.1595
45.6001 680 26.0768
45.7174 659 25.671
45.8348 643 25.3574
45.9522 644 25.3772
46.0697 685 26.1725
46.1871 651 25.5147
46.3046 635 25.1992
46.422 655 25.593
46.5395 639 25.2784
46.657 665 25.7876
46.7745 674 25.9615
46.892 652 25.5343
47.0096 672 25.923
47.1271 662 25.7294
47.2446 656 25.6125
47.3622 627 25.04
47.4797 632 25.1396
47.5973 648 25.4558
47.7149 599 24.4745
47.8324 548 23.4094
47.95 563 23.7276
48.0675 529 23
48.1851 494 22.2261
48.3027 453 21.2838
48.4202 395 19.8746
48.5378 477 21.8403
48.6554 433 20.8087
48.7729 447 21.1424
48.8904 474 21.7715
49.008 499 22.3383
49.1255 522 22.8473
49.243 521 22.8254
49.3605 580 24.0832
49.478 526 22.9347
49.5955 539 23.2164
49.713 534 23.1084
49.8304 569 23.8537
49.9479 575 23.9792
50.0653 519 22.7816
50.1827 579 24.0624
50.3001 598 24.454
50.4175 621 24.9199
50.5348 645 25.3969
50.6521 633 25.1595
50.7694 663 25.7488
50.8867 677 26.0192
51.004 654 25.5734
51.1212 671 25.9037
51.2384 698 26.4197
51.3556 737 27.1477
51.4727 669 25.865
51.5899 670 25.8844
51.707 596 24.4131
51.824 569 23.8537
51.9411 561 23.6854
52.0581 538 23.1948
52.175 573 23.9374
52.2919 646 25.4165
52.4088 659 25.671
52.5257 693 26.3249
52.6425 782 27.9643
52.7593 801 28.3019
52.876 861 29.3428
52.9927 788 28.0713
53.1094 823 28.688
53.226 848 29.1204
53.3426 903 30.05
53.4591 910 30.1662
53.5756 904 30.0666
53.692 880 29.6648
53.8084 1007 31.7333
53.9248 931 30.5123
54.0411 987 31.4166
54.1573 1022 31.9687
54.2735 0 1
54.3896 0 1
54.5057 0 1
54.6217 0 1
54.7377 0 1
54.8537 0 1
54.9695 0 1
55.0853 0 1
55.2011 0 1
55.3168 0 1
55.4324 0 1
57.824 0 1
57.9396 0 1
58.0553 0 1
58.1711 0 1
58.2869 0 1
58.4028 0 1
58.5187 0 1
58.6347 0 1
58.7508 0 1
58.8669 0 1
58.983 1059 32.5423
59.0992 1057 32.5115
59.2155 1079 32.8481
59.3318 1220 34.9285
59.4482 1149 33.8969
59.5646 1226 35.0143
59.681 1182 34.3802
59.7975 1086 32.9545
59.9141 1105 33.2415
60.0306 1090 33.0151
60.1473 1006 31.7175
60.2639 947 30.7734
60.3807 842 29.0172
60.4974 744 27.2764
60.6142 773 27.8029
60.731 746 27.313
60.8479 853 29.2062
60.9648 848 29.1204
61.0818 942 30.692
61.1987 984 31.3688
61.3158 988 31.4325
61.4328 954 30.8869
61.5499 955 30.9031
61.667 939 30.6431
61.7841 976 31.241
61.9013 969 31.1288
62.0185 1006 31.7175
62.1357 1003 31.6702
62.253 989 31.4484
62.3702 1046 32.3419
62.4875 1110 33.3167
62.6049 1122 33.4963
62.7222 1107 33.2716
62.8396 1199 34.6266
62.9569 1173 34.2491
63.0743 1204 34.6987
63.1918 1142 33.7935
63.3092 1140 33.7639
63.4267 1154 33.9706
63.5441 1082 32.8938
63.6616 1036 32.187
63.7791 892 29.8664
63.8966 868 29.4618
64.0142 807 28.4077
64.1317 805 28.3725
64.2492 822 28.6705
64.3668 865 29.4109
64.4843 901 30.0167
64.6019 987 31.4166
64.7195 975 31.225
64.837 955 30.9031
64.9546 944 30.7246
65.0722 992 31.496
65.1898 987 31.4166
65.3074 1030 32.0936
65.4249 1031 32.1092
65.5425 949 30.8058
65.6601 1050 32.4037
65.7777 1037 32.2025
65.8952 968 31.1127
66.0128 1053 32.45
66.1304 1081 32.8786
66.2479 1089 33
66.3655 1116 33.4066
66.483 1109 33.3017
66.6005 1130 33.6155
66.718 1169 34.1906
66.8355 1130 33.6155
66.953 1082 32.8938
67.0705 1071 32.7261
67.1879 999 31.607
67.3054 916 30.2655
67.4228 799 28.2666
67.5402 752 27.4226
67.6576 650 25.4951
67.7749 676 26
67.8923 710 26.6458
68.0096 752 27.4226
68.1269 816 28.5657
68.2442 832 28.8444
68.3614 921 30.348
68.4787 872 29.5296
68.5958 908 30.133
68.713 895 29.9166
68.8302 901 30.0167
68.9473 886 29.7658
69.0643 859 29.3087
69.1814 916 30.2655
69.2984 968 31.1127
69.4154 927 30.4467
69.5323 949 30.8058
69.6492 954 30.8869
69.7661 1022 31.9687
69.8829 1051 32.4191
69.9997 1023 31.9844
70.1165 1177 34.3074
70.2332 1102 33.1964
70.3499 1112 33.3467
70.4665 1151 33.9264
70.5831 1003 31.6702
70.6996 1021 31.9531
70.8161 1006 31.7175
70.9326 869 29.4788
71.049 812 28.4956
71.1653 770 27.7489
71.2817 692 26.3059
71.3979 686 26.1916
71.5141 657 25.632
71.6303 717 26.7769
71.7464 680 26.0768
71.8624 0 1
71.9784 0 1
72.0944 0 1
72.2102 0 1
72.3261 0 1
72.4418 0 1
72.5575 0 1
72.6732 0 1
75.1054 0 1
75.2209 0 1
75.3365 0 1
75.4521 0 1
75.5678 0 1
75.6835 0 1
75.7993 0 1
75.9151 0 1
76.031 0 1
76.147 879 29.6479
76.263 951 30.8383
76.3791 867 29.4449
76.4952 790 28.1069
76.6113 667 25.8263
76.7276 687 26.2107
76.8438 723 26.8887
76.9601 772 27.7849
77.0765 858 29.2916
77.1929 902 30.0333
77.3093 975 31.225
77.4258 975 31.225
77.5423 955 30.9031
77.6589 989 31.4484
77.7755 915 30.249
77.8921 962 31.0161
78.0088 866 29.4279
78.1256 899 29.9833
78.2423 904 30.0666
78.3591 804 28.3549
78.4759 897 29.95
78.5928 954 30.8869
78.7097 1031 32.1092
78.8266 1057 32.5115
78.9436 1059 32.5423
79.0606 1096 33.1059
79.1776 1102 33.1964
79.2946 1133 33.6601
79.4117 1141 33.7787
79.5288 1042 32.28
79.6459 1049 32.3883
79.7631 980 31.305
79.8802 836 28.9137
79.9974 835 28.8964
80.1147 716 26.7582
80.2319 659 25.671
80.3491 631 25.1197
80.4664 680 26.0768
80.5837 737 27.1477
80.701 757 27.5136
80.8183 768 27.7128
80.9357 861 29.3428
81.053 836 28.9137
81.1704 880 29.6648
81.2877 857 29.2746
81.4051 806 28.3901
81.5225 818 28.6007
81.6399 789 28.0891
81.7573 788 28.0713
81.8747 802 28.3196
81.9922 810 28.4605
82.1096 816 28.5657
82.227 877 29.6142
82.3444 838 28.9482
82.4619 907 30.1164
82.5793 976 31.241
82.6967 934 30.5614
82.8142 934 30.5614
82.9316 951 30.8383
83.049 952 30.8545
83.1664 890 29.8329
83.2838 863 29.3769
83.4012 748 27.3496
83.5186 714 26.7208
83.636 673 25.9422
83.7534 651 25.5147
83.8708 576 24
83.9881 595 24.3926
84.1055 577 24.0208
84.2228 658 25.6515
84.3401 679 26.0576
84.4575 711 26.6646
84.5747 762 27.6043
84.692 846 29.0861
84.8093 846 29.0861
84.9265 735 27.1109
85.0437 762 27.6043
85.1609 731 27.037
85.2781 757 27.5136
85.3952 697 26.4008
85.5123 732 27.0555
85.6294 775 27.8388
85.7465 844 29.0517
85.8636 835 28.8964
85.9806 911 30.1828
86.0976 960 30.9839
86.2145 982 31.3369
86.3315 1088 32.9848
86.4484 1021 31.9531
86.5652 1065 32.6343
86.682 1088 32.9848
86.7988 1026 32.0312
86.9156 908 30.133
87.0323 879 29.6479
87.149 821 28.6531
87.2657 783 27.9821
87.3823 778 27.8927
87.4988 737 27.1477
87.6154 771 27.7669
87.7318 835 28.8964
87.8483 838 28.9482
87.9647 869 29.4788
88.081 986 31.4006
88.1973 952 30.8545
88.3136 940 30.6594
88.4298 948 30.7896
88.546 903 30.05
88.6621 953 30.8707
88.7781 932 30.5287
88.8942 0 1
89.0101 0 1
89.126 0 1
89.2419 0 1
89.3577 0 1
89.4734 0 1
89.5891 0 1
89.7047 0 1
89.8203 0 1
89.9358 0 1
92.3269 0 1
92.4424 0 1
92.558 0 1
92.6736 0 1
92.7893 0 1
92.905 0 1
93.0208 0 1
93.1366 0 1
93.2525 0 1
93.3685 0 1
93.4845 0 1
93.6005 905 30.0832
93.7167 950 30.8221
93.8328 954 30.8869
93.949 946 30.7571
94.0653 888 29.7993
94.1816 888 29.7993
94.2979 888 29.7993
94.4143 928 30.4631
94.5307 879 29.6479
94.6472 898 29.9666
94.7637 945 30.7409
94.8803 1045 32.3265
94.9969 1058 32.5269
95.1135 1082 32.8938
95.2302 1170 34.2053
95.3469 1122 33.4963
95.4637 1231 35.0856
95.5805 1146 33.8526
95.6973 1212 34.8138
95.8142 1162 34.0881
95.9311 1093 33.0606
96.048 1086 32.9545
96.1649 981 31.3209
96.2819 951 30.8383
96.3989 913 30.2159
96.516 822 28.6705
96.633 828 28.775
96.7501 823 28.688
96.8673 872 29.5296
96.9844 922 30.3645
97.1016 954 30.8869
97.2188 910 30.1662
97.336 1003 31.6702
97.4532 1028 32.0624
97.5704 1011 31.7962
97.6877 987 31.4166
97.805 934 30.5614
97.9223 904 30.0666
98.0396 926 30.4302
98.1569 880 29.6648
98.2743 862 29.3598
98.3916 926 30.4302
98.509 888 29.7993
98.6264 1048 32.3728
98.7438 1155 33.9853
98.8612 1149 33.8969
98.9786 1173 34.2491
99.096 1162 34.0881
99.2134 1187 34.4529
99.3308 1136 33.7046
99.4482 1147 33.8674
99.5656 1138 33.7343
99.6831 1057 32.5115
99.8005 1018 31.9061
99.9179 984 31.3688
100.035 937 30.6105
100.153 888 29.7993
100.27 842 29.0172
100.388 861 29.3428
100.505 933 30.545
100.622 886 29.7658
100.74 989 31.4484
100.857 977 31.257
100.975 1040 32.249
101.092 1082 32.8938
101.209 1034 32.1559
101.327 980 31.305
101.444 904 30.0666
101.561 942 30.692
101.679 915 30.249
101.796 932 30.5287
101.913 900 30
102.03 1016 31.8748
102.148 1078 32.8329
102.265 1124 33.5261
102.382 1279 35.7631
102.499 1254 35.4119
102.616 1287 35.8748
102.733 1238 35.1852
102.851 1295 35.9861
102.968 1244 35.2704
103.085 1234 35.1283
103.202 1179 34.3366
103.319 1065 32.6343
103.436 1019 31.9218
103.552 963 31.0322
103.669 926 30.4302
103.786 884 29.7321
103.903 1008 31.749
104.02 991 31.4802
104.137 955 30.9031
104.253 1078 32.8329
104.37 1072 32.7414
104.487 1164 34.1174
104.603 1065 32.6343
104.72 1087 32.9697
104.836 1020 31.9374
104.953 964 31.0483
105.069 947 30.7734
105.186 943 30.7083
105.302 972 31.1769
105.418 1080 32.8634
105.535 1155 33.9853
105.651 1245 35.2846
105.767 1288 35.8887
105.883 1367 36.973
105.999 1342 36.6333
106.115 0 1
106.231 0 1
106.347 0 1
106.463 0 1
106.579 0 1
106.694 0 1
106.81 0 1
106.926 0 1
107.041 0 1
107.157 0 1
109.576 0 1
109.692 0 1
109.807 0 1
109.923 0 1
110.039 0 1
110.155 0 1
110.27 0 1
110.386 0 1
110.502 0 1
110.618 1088 32.9848
110.735 1160 34.0588
110.851 1253 35.3977
110.967 1252 35.3836
111.083 1263 35.5387
111.199 1312 36.2215
111.316 1278 35.7491
111.432 1315 36.2629
111.549 1283 35.819
111.665 1213 34.8281
111.782 1159 34.0441
111.898 1100 33.1662
112.015 1092 33.0454
112.132 1043 32.2955
112.248 950 30.8221
112.365 943 30.7083
112.482 933 30.545
112.599 1005 31.7017
112.716 980 31.305
112.832 1018 31.9061
112.949 1091 33.0303
113.066 1105 33.2415
113.183 1024 32
113.3 1027 32.0468
113.417 956 30.9192
113.534 941 30.6757
113.652 892 29.8664
113.769 870 29.4958
113.886 935 30.5778
114.003 926 30.4302
114.12 1059 32.5423
114.238 1199 34.6266
114.355 1188 34.4674
114.472 1199 34.6266
114.589 1282 35.805
114.707 1272 35.6651
114.824 1289 35.9026
114.942 1364 36.9324
115.059 1278 35.7491
115.176 1244 35.2704
115.294 1211 34.7994
115.411 1155 33.9853
115.529 1147 33.8674
115.646 1117 33.4215
115.764 1014 31.8434
115.881 924 30.3974
115.999 975 31.225
116.116 968 31.1127
116.234 976 31.241
116.351 992 31.496
116.469 1119 33.4515
116.586 1129 33.6006
116.704 1101 33.1813
116.821 1031 32.1092
116.939 1053 32.45
117.056 1008 31.749
117.174 975 31.225
117.291 966 31.0805
117.409 944 30.7246
117.526 1058 32.5269
117.644 1136 33.7046
117.761 1186 34.4384
117.879 1165 34.1321
117.996 1255 35.426
118.114 1296 36
118.231 1273 35.6791
118.349 1327 36.428
118.466 1294 35.9722
118.584 1296 36
118.701 1350 36.7423
118.819 1252 35.3836
118.936 1206 34.7275
119.053 1141 33.7787
119.171 1114 33.3766
119.288 1034 32.1559
119.405 969 31.1288
119.523 970 31.1448
119.64 1005 31.7017
119.757 1024 32
119.875 963 31.0322
119.992 1061 32.573
120.109 1088 32.9848
120.226 1058 32.5269
120.343 998 31.5911
120.46 1033 32.1403
120.578 963 31.0322
120.695 978 31.273
120.812 981 31.3209
120.929 927 30.4467
121.046 1017 31.8904
121.163 995 31.5436
121.279 1086 32.9545
121.396 1078 32.8329
121.513 1164 34.1174
121.63 1283 35.819
121.747 1238 35.1852
121.863 1304 36.1109
121.98 1330 36.4692
122.097 1360 36.8782
122.213 1278 35.7491
122.33 1246 35.2987
122.446 1279 35.7631
122.563 1200 34.641
122.679 1138 33.7343
122.795 1142 33.7935
122.912 1153 33.9559
123.028 1074 32.7719
123.144 1048 32.3728
123.26 964 31.0483
123.377 0 1
123.493 0 1
123.609 0 1
123.725 0 1
123.84 0 1
123.956 0 1
124.072 0 1
124.188 0 1
124.303 0 1
124.419 0 1
126.852 0 1
126.968 0 1
127.083 0 1
127.199 0 1
127.315 0 1
127.431 0 1
127.547 0 1
127.663 0 1
127.779 0 1
127.895 0 1
128.011 0 1
128.127 0 1
128.243 0 1
128.359 1192 34.5254
128.476 1143 33.8083
128.592 1046 32.3419
128.708 1118 33.4365
128.825 1148 33.8821
128.941 1160 34.0588
129.058 1175 34.2783
129.174 1176 34.2929
129.291 1117 33.4215
129.408 1104 33.2265
129.524 1059 32.5423
129.641 1117 33.4215
129.758 1051 32.4191
129.875 1017 31.8904
129.992 1073 32.7567
130.108 1082 32.8938
130.225 1201 34.6554
130.342 1222 34.9571
130.459 1273 35.6791
130.576 1300 36.0555
130.693 1322 36.3593
130.81 1332 36.4966
130.928 1274 35.6931
131.045 1314 36.2491
131.162 1337 36.565
131.279 1293 35.9583
131.396 1361 36.8917
131.513 1322 36.3593
131.631 1266 35.5809
131.748 1227 35.0286
131.865 1145 33.8378
131.983 1128 33.5857
132.1 1053 32.45
132.217 1131 33.6303
132.335 1171 34.2199
132.452 1213 34.8281
132.57 1125 33.541
132.687 1129 33.6006
132.804 1146 33.8526
132.922 1126 33.5559
133.039 1136 33.7046
133.157 1063 32.6037
133.274 1072 32.7414
133.392 1091 33.0303
133.509 1107 33.2716
133.627 1087 32.9697
133.744 1123 33.5112
133.862 1251 35.3695
133.979 1262 35.5246
134.097 1296 36
134.214 1237 35.171
134.332 1300 36.0555
134.449 1264 35.5528
134.567 1305 36.1248
134.684 1315 36.2629
134.802 1333 36.5103
134.919 1321 36.3456
135.037 1273 35.6791
135.154 1176 34.2929
135.272 1232 35.0999
135.389 1335 36.5377
135.507 1205 34.7131
135.624 1128 33.5857
135.742 1080 32.8634
135.859 1165 34.1321
135.977 1206 34.7275
136.094 1210 34.7851
136.211 1261 35.5106
136.329 1145 33.8378
136.446 1122 33.4963
136.564 1150 33.9116
136.681 1110 33.3167
136.798 1141 33.7787
136.915 1088 32.9848
137.033 1099 33.1512
137.15 1036 32.187
137.267 1118 33.4365
137.384 1190 34.4964
137.502 1206 34.7275
137.619 1195 34.5688
137.736 1298 36.0278
137.853 1260 35.4965
137.97 1304 36.1109
138.087 1258 35.4683
138.204 1278 35.7491
138.321 1309 36.1801
138.438 1339 36.5923
138.555 1399 37.4032
138.672 1359 36.8646
138.788 1308 36.1663
138.905 1299 36.0416
139.022 1206 34.7275
139.139 1185 34.4238
139.255 1142 33.7935
139.372 1204 34.6987
139.488 1209 34.7707
139.605 1254 35.4119
139.721 1201 34.6554
139.838 1200 34.641
139.954 1227 35.0286
140.071 1162 34.0881
140.187 1243 35.2562
140.303 1128 33.5857
140.419 1064 32.619
140.535 1072 32.7414
140.652 1073 32.7567
140.768 0 1
140.884 0 1
141 0 1
141.115 0 1
141.231 0 1
141.347 0 1
141.463 0 1
141.578 0 1
141.694 0 1
144.104 0 1
144.219 0 1
144.335 0 1
144.45 0 1
144.566 0 1
144.682 0 1
144.798 0 1
144.914 0 1
145.03 0 1
145.146 856 29.2575
145.262 934 30.5614
145.378 904 30.0666
145.494 930 30.4959
145.61 892 29.8664
145.726 856 29.2575
145.842 860 29.3258
145.959 829 28.7924
146.075 872 29.5296
146.192 909 30.1496
146.308 928 30.4631
146.425 1007 31.7333
146.541 954 30.8869
146.658 1017 31.8904
146.774 1015 31.8591
146.891 1004 31.686
147.008 1035 32.1714
147.125 1079 32.8481
147.241 1017 31.8904
147.358 1115 33.3916
147.475 1131 33.6303
147.592 1097 33.121
147.709 1072 32.7414
147.826 1044 32.311
147.943 1077 32.8177
148.06 1014 31.8434
148.177 907 30.1164
148.294 941 30.6757
148.411 946 30.7571
148.528 981 31.3209
148.645 1010 31.7805
148.762 1067 32.665
148.88 992 31.496
148.997 920 30.3315
149.114 996 31.5595
149.231 959 30.9677
149.349 894 29.8998
149.466 921 30.348
149.583 946 30.7571
149.701 913 30.2159
149.818 879 29.6479
149.935 824 28.7054
150.053 922 30.3645
150.17 982 31.3369
150.287 963 31.0322
150.405 1044 32.311
150.522 1084 32.9242
150.64 1048 32.3728
150.757 1011 31.7962
150.875 1036 32.187
150.992 1103 33.2114
151.11 1122 33.4963
151.227 1148 33.8821
151.344 1081 32.8786
151.462 1120 33.4664
151.579 1069 32.6956
151.697 1064 32.619
151.814 979 31.289
151.932 945 30.7409
152.049 964 31.0483
152.167 1043 32.2955
152.284 1056 32.4962
152.402 1099 33.1512
152.519 1033 32.1403
152.636 1110 33.3167
152.754 1025 32.0156
152.871 1052 32.4345
152.989 981 31.3209
153.106 967 31.0966
153.223 912 30.1993
153.341 939 30.6431
153.458 939 30.6431
153.575 989 31.4484
153.693 983 31.3528
153.81 1073 32.7567
153.927 1044 32.311
154.044 1087 32.9697
154.162 1068 32.6803
154.279 1150 33.9116
154.396 1179 34.3366
154.513 1192 34.5254
154.63 1259 35.4824
154.747 1211 34.7994
154.864 1235 35.1426
154.981 1203 34.6843
155.098 1210 34.7851
155.215 1209 34.7707
155.332 1223 34.9714
155.449 1078 32.8329
155.566 1113 33.3617
155.683 1156 34
155.8 1142 33.7935
155.917 1181 34.3657
156.033 1191 34.5109
156.15 0 1
156.267 0 1
156.383 0 1
156.5 0 1
156.617 0 1
156.733 0 1
156.85 0 1
156.966 0 1
157.082 0 1
157.199 0 1
157.315 0 1
157.431 0 1
157.547 0 1
157.664 0 1
157.78 0 1
157.896 0 1
158.012 0 1
158.128 0 1
158.244 0 1
158.359 0 1
158.475 0 1
158.591 0 1
158.706 0 1
