
6.15755 0 1
6.2731 0 1
6.3887 0 1
6.50437 0 1
6.62009 0 1
6.73587 0 1
6.8517 0 1
6.96759 0 1
7.08353 0 1
7.19952 0 1
7.31557 0 1
7.43166 0 1
7.54781 0 1
7.664 0 1
7.78024 0 1
7.89653 0 1
8.01286 0 1
8.12924 0 1
8.24567 0 1
8.36213 0 1
8.47864 0 1
8.59519 0 1
8.71178 0 1
8.82841 0 1
8.94508 0 1
9.06179 0 1
9.17853 0 1
9.29531 0 1
9.41212 0 1
9.52897 0 1
9.64584 0 1
9.76276 0 1
9.8797 0 1
9.99667 0 1
10.1137 0 1
10.2307 0 1
10.3478 0 1
10.4648 0 1
10.5819 0 1
10.6991 0 1
10.8162 0 1
10.9334 0 1
11.0506 0 1
11.1678 0 1
11.285 0 1
11.4023 0 1
11.5196 0 1
11.6369 0 1
11.7542 0 1
11.8715 0 1
11.9888 0 1
12.1062 0 1
12.2235 0 1
12.3409 0 1
12.4582 0 1
12.5756 0 1
12.693 0 1
12.8104 0 1
12.9278 0 1
13.0452 0 1
13.1626 0 1
13.28 0 1
13.3974 0 1
13.5149 0 1
13.6323 0 1
13.7497 0 1
13.8671 0 1
13.9845 0 1
14.1019 0 1
14.2193 0 1
14.3367 0 1
14.4541 0 1
14.5714 0 1
14.6888 0 1
14.8062 0 1
14.9235 0 1
15.0408 1075 32.7872
15.1581 1062 32.5883
15.2755 1112 33.3467
15.3927 1077 32.8177
15.51 1040 32.249
15.6273 1023 31.9844
15.7445 1022 31.9687
15.8617 986 31.4006
15.9789 967 31.0966
16.0961 1005 31.7017
16.2132 1017 31.8904
16.3304 907 30.1164
16.4475 945 30.7409
16.5646 917 30.282
16.6816 929 30.4795
16.7986 934 30.5614
16.9156 987 31.4166
17.0326 881 29.6816
17.1496 937 30.6105
17.2665 913 30.2159
17.3833 924 30.3974
17.5002 933 30.545
17.617 900 30
17.7338 945 30.7409
17.8505 978 31.273
17.9672 929 30.4795
18.0839 936 30.5941
18.2005 900 30
18.3171 915 30.249
18.4337 994 31.5278
18.5502 958 30.9516
18.6666 962 31.0161
18.7831 954 30.8869
18.8994 899 29.9833
19.0158 858 29.2916
19.1321 880 29.6648
19.2483 806 28.3901
19.3645 804 28.3549
19.4806 778 27.8927
19.5967 743 27.258
19.7128 788 28.0713
19.8288 728 26.9815
19.9447 634 25.1794
20.0606 0 1
20.1764 0 1
20.2922 0 1
20.4079 0 1
20.5236 0 1
20.6392 0 1
20.7548 0 1
20.8702 0 1
23.3078 0 1
23.4233 0 1
23.539 0 1
23.6547 0 1
23.7704 0 1
23.8862 0 1
24.0021 0 1
24.118 0 1
24.234 0 1
24.35 0 1
24.4661 410 20.2485
24.5822 433 20.8087
24.6984 486 22.0454
24.8146 561 23.6854
24.9309 605 24.5967
25.0472 732 27.0555
25.1636 805 28.3725
25.28 925 30.4138
25.3965 945 30.7409
25.513 917 30.282
25.6296 961 31
25.7462 1021 31.9531
25.8628 1005 31.7017
25.9795 985 31.3847
26.0962 924 30.3974
26.213 959 30.9677
26.3298 904 30.0666
26.4466 848 29.1204
26.5635 882 29.6985
26.6804 801 28.3019
26.7973 783 27.9821
26.9143 820 28.6356
27.0313 888 29.7993
27.1483 890 29.8329
27.2653 818 28.6007
27.3824 840 28.9828
27.4996 860 29.3258
27.6167 833 28.8617
27.7339 796 28.2135
27.8511 789 28.0891
27.9683 807 28.4077
28.0855 877 29.6142
28.2028 897 29.95
28.3201 924 30.3974
28.4374 862 29.3598
28.5547 864 29.3939
28.6721 895 29.9166
28.7894 891 29.8496
28.9068 863 29.3769
29.0242 909 30.1496
29.1416 781 27.9464
29.259 884 29.7321
29.3764 828 28.775
29.4939 883 29.7153
29.6113 815 28.5482
29.7288 804 28.3549
29.8463 801 28.3019
29.9638 822 28.6705
30.0812 768 27.7128
30.1987 797 28.2312
30.3162 789 28.0891
30.4337 821 28.6531
30.5512 833 28.8617
30.6687 798 28.2489
30.7862 810 28.4605
30.9037 883 29.7153
31.0212 792 28.1425
31.1387 850 29.1548
31.2562 847 29.1033
31.3737 836 28.9137
31.4912 888 29.7993
31.6087 876 29.5973
31.7262 855 29.2404
31.8436 773 27.8029
31.9611 801 28.3019
32.0785 779 27.9106
32.1959 784 28
32.3134 801 28.3019
32.4308 787 28.0535
32.5482 793 28.1603
32.6655 796 28.2135
32.7829 804 28.3549
32.9002 759 27.55
33.0176 746 27.313
33.1349 741 27.2213
33.2522 771 27.7669
33.3694 717 26.7769
33.4867 772 27.7849
33.6039 778 27.8927
33.7211 799 28.2666
33.8383 746 27.313
33.9554 779 27.9106
34.0725 772 27.7849
34.1896 749 27.3679
34.3067 773 27.8029
34.4237 802 28.3196
34.5407 805 28.3725
34.6577 775 27.8388
34.7746 728 26.9815
34.8915 730 27.0185
35.0084 688 26.2298
35.1252 716 26.7582
35.242 772 27.7849
35.3587 784 28
35.4755 730 27.0185
35.5921 748 27.3496
35.7088 697 26.4008
35.8254 710 26.6458
35.9419 716 26.7582
36.0584 717 26.7769
36.1749 722 26.8701
36.2913 705 26.5518
36.4077 702 26.4953
36.524 709 26.6271
36.6403 666 25.807
36.7565 586 24.2074
36.8727 618 24.8596
36.9889 541 23.2594
37.1049 509 22.561
37.221 0 1
37.3369 0 1
37.4529 0 1
37.5687 0 1
37.6845 0 1
37.8003 0 1
37.916 0 1
38.0316 0 1
38.1472 0 1
40.5851 0 1
40.7008 0 1
40.8164 0 1
40.9322 0 1
41.048 0 1
41.1639 0 1
41.2798 0 1
41.3958 0 1
41.5118 0 1
41.6279 0 1
41.744 288 16.9706
41.8602 377 19.4165
41.9765 429 20.7123
42.0928 445 21.095
42.2091 509 22.561
42.3255 555 23.5584
42.4419 601 24.5153
42.5584 595 24.3926
42.675 554 23.5372
42.7915 617 24.8395
42.9081 592 24.3311
43.0248 603 24.5561
43.1415 526 22.9347
43.2582 527 22.9565
43.375 526 22.9347
43.4918 632 25.1396
43.6087 536 23.1517
43.7256 568 23.8328
43.8425 576 24
43.9595 589 24.2693
44.0765 580 24.0832
44.1935 579 24.0624
44.3106 588 24.2487
44.4277 539 23.2164
44.5448 519 22.7816
44.6619 500 22.3607
44.7791 525 22.9129
44.8963 524 22.891
45.0136 543 23.3024
45.1308 625 25
45.2481 576 24
45.3654 594 24.3721
45.4827 630 25.0998
45.6001 615 24.7992
45.7174 640 25.2982
45.8348 619 24.8797
45.9522 585 24.1868
46.0697 618 24.8596
46.1871 579 24.0624
46.3046 591 24.3105
46.422 610 24.6982
46.5395 551 23.4734
46.657 532 23.0651
46.7745 534 23.1084
46.892 544 23.3238
47.0096 550 23.4521
47.1271 591 24.3105
47.2446 561 23.6854
47.3622 556 23.5797
47.4797 558 23.622
47.5973 545 23.3452
47.7149 571 23.8956
47.8324 609 24.6779
47.95 606 24.6171
48.0675 549 23.4307
48.1851 515 22.6936
48.3027 508 22.5389
48.4202 530 23.0217
48.5378 533 23.0868
48.6554 576 24
48.7729 547 23.388
48.8904 592 24.3311
49.008 600 24.4949
49.1255 584 24.1661
49.243 601 24.5153
49.3605 584 24.1661
49.478 573 23.9374
49.5955 532 23.0651
49.713 562 23.7065
49.8304 535 23.1301
49.9479 570 23.8747
50.0653 517 22.7376
50.1827 496 22.2711
50.3001 479 21.8861
50.4175 529 23
50.5348 587 24.2281
50.6521 564 23.7487
50.7694 525 22.9129
50.8867 512 22.6274
51.004 541 23.2594
51.1212 536 23.1517
51.2384 535 23.1301
51.3556 578 24.0416
51.4727 514 22.6716
51.5899 496 22.2711
51.707 535 23.1301
51.824 500 22.3607
51.9411 545 23.3452
52.0581 490 22.1359
52.175 547 23.388
52.2919 533 23.0868
52.4088 549 23.4307
52.5257 532 23.0651
52.6425 580 24.0832
52.7593 553 23.516
52.876 560 23.6643
52.9927 597 24.4336
53.1094 537 23.1733
53.226 590 24.2899
53.3426 561 23.6854
53.4591 550 23.4521
53.5756 529 23
53.692 453 21.2838
53.8084 422 20.5426
53.9248 401 20.025
54.0411 394 19.8494
54.1573 392 19.799
54.2735 0 1
54.3896 0 1
54.5057 0 1
54.6217 0 1
54.7377 0 1
54.8537 0 1
54.9695 0 1
55.0853 0 1
55.2011 0 1
55.3168 0 1
55.4324 0 1
57.824 0 1
57.9396 0 1
58.0553 0 1
58.1711 0 1
58.2869 0 1
58.4028 0 1
58.5187 0 1
58.6347 0 1
58.7508 0 1
58.8669 0 1
58.983 346 18.6011
59.0992 432 20.7846
59.2155 517 22.7376
59.3318 608 24.6577
59.4482 637 25.2389
59.5646 635 25.1992
59.681 718 26.7955
59.7975 740 27.2029
59.9141 778 27.8927
60.0306 741 27.2213
60.1473 818 28.6007
60.2639 799 28.2666
60.3807 777 27.8747
60.4974 766 27.6767
60.6142 718 26.7955
60.731 753 27.4408
60.8479 792 28.1425
60.9648 786 28.0357
61.0818 738 27.1662
61.1987 801 28.3019
61.3158 815 28.5482
61.4328 800 28.2843
61.5499 838 28.9482
61.667 876 29.5973
61.7841 787 28.0535
61.9013 837 28.931
62.0185 787 28.0535
62.1357 729 27
62.253 732 27.0555
62.3702 693 26.3249
62.4875 663 25.7488
62.6049 643 25.3574
62.7222 707 26.5895
62.8396 762 27.6043
62.9569 738 27.1662
63.0743 746 27.313
63.1918 703 26.5141
63.3092 718 26.7955
63.4267 678 26.0384
63.5441 663 25.7488
63.6616 646 25.4165
63.7791 646 25.4165
63.8966 690 26.2679
64.0142 647 25.4362
64.1317 617 24.8395
64.2492 632 25.1396
64.3668 619 24.8797
64.4843 643 25.3574
64.6019 646 25.4165
64.7195 641 25.318
64.837 658 25.6515
64.9546 648 25.4558
65.0722 666 25.807
65.1898 667 25.8263
65.3074 720 26.8328
65.4249 690 26.2679
65.5425 681 26.096
65.6601 649 25.4755
65.7777 619 24.8797
65.8952 622 24.9399
66.0128 558 23.622
66.1304 610 24.6982
66.2479 602 24.5357
66.3655 688 26.2298
66.483 652 25.5343
66.6005 672 25.923
66.718 653 25.5539
66.8355 661 25.7099
66.953 667 25.8263
67.0705 668 25.8457
67.1879 604 24.5764
67.3054 632 25.1396
67.4228 594 24.3721
67.5402 617 24.8395
67.6576 586 24.2074
67.7749 598 24.454
67.8923 617 24.8395
68.0096 598 24.454
68.1269 589 24.2693
68.2442 651 25.5147
68.3614 632 25.1396
68.4787 652 25.5343
68.5958 649 25.4755
68.713 632 25.1396
68.8302 678 26.0384
68.9473 662 25.7294
69.0643 634 25.1794
69.1814 656 25.6125
69.2984 613 24.7588
69.4154 598 24.454
69.5323 572 23.9165
69.6492 602 24.5357
69.7661 583 24.1454
69.8829 596 24.4131
69.9997 598 24.454
70.1165 605 24.5967
70.2332 597 24.4336
70.3499 605 24.5967
70.4665 549 23.4307
70.5831 513 22.6495
70.6996 506 22.4944
70.8161 488 22.0907
70.9326 454 21.3073
71.049 390 19.7484
71.1653 359 18.9473
71.2817 322 17.9444
71.3979 309 17.5784
71.5141 305 17.4642
71.6303 248 15.748
71.7464 197 14.0357
71.8624 0 1
71.9784 0 1
72.0944 0 1
72.2102 0 1
72.3261 0 1
72.4418 0 1
72.5575 0 1
72.6732 0 1
75.1054 0 1
75.2209 0 1
75.3365 0 1
75.4521 0 1
75.5678 0 1
75.6835 0 1
75.7993 0 1
75.9151 0 1
76.031 0 1
76.147 401 20.025
76.263 474 21.7715
76.3791 474 21.7715
76.4952 440 20.9762
76.6113 475 21.7945
76.7276 450 21.2132
76.8438 452 21.2603
76.9601 528 22.9783
77.0765 513 22.6495
77.1929 559 23.6432
77.3093 518 22.7596
77.4258 556 23.5797
77.5423 577 24.0208
77.6589 581 24.1039
77.7755 567 23.8118
77.8921 612 24.7386
78.0088 599 24.4745
78.1256 560 23.6643
78.2423 560 23.6643
78.3591 561 23.6854
78.4759 547 23.388
78.5928 483 21.9773
78.7097 466 21.587
78.8266 454 21.3073
78.9436 526 22.9347
79.0606 557 23.6008
79.1776 554 23.5372
79.2946 608 24.6577
79.4117 581 24.1039
79.5288 591 24.3105
79.6459 622 24.9399
79.7631 568 23.8328
79.8802 557 23.6008
79.9974 592 24.3311
80.1147 550 23.4521
80.2319 545 23.3452
80.3491 514 22.6716
80.4664 505 22.4722
80.5837 528 22.9783
80.701 535 23.1301
80.8183 588 24.2487
80.9357 620 24.8998
81.053 587 24.2281
81.1704 554 23.5372
81.2877 575 23.9792
81.4051 595 24.3926
81.5225 608 24.6577
81.6399 598 24.454
81.7573 597 24.4336
81.8747 580 24.0832
81.9922 608 24.6577
82.1096 554 23.5372
82.227 546 23.3666
82.3444 508 22.5389
82.4619 528 22.9783
82.5793 545 23.3452
82.6967 558 23.622
82.8142 558 23.622
82.9316 572 23.9165
83.049 599 24.4745
83.1664 601 24.5153
83.2838 627 25.04
83.4012 619 24.8797
83.5186 550 23.4521
83.636 568 23.8328
83.7534 564 23.7487
83.8708 516 22.7156
83.9881 502 22.4054
84.1055 477 21.8403
84.2228 542 23.2809
84.3401 560 23.6643
84.4575 544 23.3238
84.5747 594 24.3721
84.692 603 24.5561
84.8093 600 24.4949
84.9265 561 23.6854
85.0437 619 24.8797
85.1609 609 24.6779
85.2781 606 24.6171
85.3952 569 23.8537
85.5123 641 25.318
85.6294 588 24.2487
85.7465 584 24.1661
85.8636 502 22.4054
85.9806 516 22.7156
86.0976 555 23.5584
86.2145 546 23.3666
86.3315 634 25.1794
86.4484 619 24.8797
86.5652 601 24.5153
86.682 589 24.2693
86.7988 634 25.1794
86.9156 594 24.3721
87.0323 602 24.5357
87.149 613 24.7588
87.2657 617 24.8395
87.3823 557 23.6008
87.4988 533 23.0868
87.6154 482 21.9545
87.7318 544 23.3238
87.8483 530 23.0217
87.9647 506 22.4944
88.081 431 20.7605
88.1973 445 21.095
88.3136 412 20.2978
88.4298 459 21.4243
88.546 395 19.8746
88.6621 354 18.8149
88.7781 298 17.2627
88.8942 0 1
89.0101 0 1
89.126 0 1
89.2419 0 1
89.3577 0 1
89.4734 0 1
89.5891 0 1
89.7047 0 1
89.8203 0 1
89.9358 0 1
92.3269 0 1
92.4424 0 1
92.558 0 1
92.6736 0 1
92.7893 0 1
92.905 0 1
93.0208 0 1
93.1366 0 1
93.2525 0 1
93.3685 0 1
93.4845 0 1
93.6005 482 21.9545
93.7167 501 22.383
93.8328 510 22.5832
93.949 538 23.1948
94.0653 623 24.96
94.1816 610 24.6982
94.2979 625 25
94.4143 662 25.7294
94.5307 604 24.5764
94.6472 615 24.7992
94.7637 647 25.4362
94.8803 534 23.1084
94.9969 546 23.3666
95.1135 596 24.4131
95.2302 599 24.4745
95.3469 600 24.4949
95.4637 613 24.7588
95.5805 621 24.9199
95.6973 635 25.1992
95.8142 650 25.4951
95.9311 665 25.7876
96.048 686 26.1916
96.1649 587 24.2281
96.2819 617 24.8395
96.3989 614 24.779
96.516 506 22.4944
96.633 559 23.6432
96.7501 578 24.0416
96.8673 575 23.9792
96.9844 604 24.5764
97.1016 622 24.9399
97.2188 600 24.4949
97.336 612 24.7386
97.4532 621 24.9199
97.5704 645 25.3969
97.6877 628 25.0599
97.805 646 25.4165
97.9223 672 25.923
98.0396 731 27.037
98.1569 715 26.7395
98.2743 686 26.1916
98.3916 686 26.1916
98.509 673 25.9422
98.6264 604 24.5764
98.7438 667 25.8263
98.8612 688 26.2298
98.9786 724 26.9072
99.096 730 27.0185
99.2134 735 27.1109
99.3308 748 27.3496
99.4482 769 27.7308
99.5656 775 27.8388
99.6831 749 27.3679
99.8005 735 27.1109
99.9179 704 26.533
100.035 647 25.4362
100.153 667 25.8263
100.27 726 26.9444
100.388 754 27.4591
100.505 735 27.1109
100.622 717 26.7769
100.74 695 26.3629
100.857 741 27.2213
100.975 734 27.0924
101.092 744 27.2764
101.209 704 26.533
101.327 711 26.6646
101.444 715 26.7395
101.561 721 26.8514
101.679 696 26.3818
101.796 686 26.1916
101.913 691 26.2869
102.03 659 25.671
102.148 668 25.8457
102.265 710 26.6458
102.382 642 25.3377
102.499 636 25.219
102.616 734 27.0924
102.733 685 26.1725
102.851 740 27.2029
102.968 758 27.5318
103.085 762 27.6043
103.202 777 27.8747
103.319 734 27.0924
103.436 680 26.0768
103.552 694 26.3439
103.669 723 26.8887
103.786 703 26.5141
103.903 767 27.6948
104.02 732 27.0555
104.137 725 26.9258
104.253 711 26.6646
104.37 689 26.2488
104.487 802 28.3196
104.603 720 26.8328
104.72 722 26.8701
104.836 733 27.074
104.953 695 26.3629
105.069 702 26.4953
105.186 642 25.3377
105.302 595 24.3926
105.418 580 24.0832
105.535 514 22.6716
105.651 493 22.2036
105.767 473 21.7486
105.883 430 20.7364
105.999 413 20.3224
106.115 0 1
106.231 0 1
106.347 0 1
106.463 0 1
106.579 0 1
106.694 0 1
106.81 0 1
106.926 0 1
107.041 0 1
107.157 0 1
109.576 0 1
109.692 0 1
109.807 0 1
109.923 0 1
110.039 0 1
110.155 0 1
110.27 0 1
110.386 0 1
110.502 0 1
110.618 320 17.8885
110.735 380 19.4936
110.851 444 21.0713
110.967 433 20.8087
111.083 568 23.8328
111.199 552 23.4947
111.316 617 24.8395
111.432 626 25.02
111.549 676 26
111.665 618 24.8596
111.782 713 26.7021
111.898 621 24.9199
112.015 647 25.4362
112.132 619 24.8797
112.248 634 25.1794
112.365 627 25.04
112.482 632 25.1396
112.599 597 24.4336
112.716 687 26.2107
112.832 666 25.807
112.949 602 24.5357
113.066 611 24.7184
113.183 615 24.7992
113.3 623 24.96
113.417 586 24.2074
113.534 580 24.0832
113.652 645 25.3969
113.769 660 25.6905
113.886 606 24.6171
114.003 584 24.1661
114.12 576 24
114.238 609 24.6779
114.355 553 23.516
114.472 579 24.0624
114.589 564 23.7487
114.707 607 24.6374
114.824 626 25.02
114.942 595 24.3926
115.059 639 25.2784
115.176 615 24.7992
115.294 586 24.2074
115.411 562 23.7065
115.529 545 23.3452
115.646 509 22.561
115.764 552 23.4947
115.881 561 23.6854
115.999 544 23.3238
116.116 572 23.9165
116.234 546 23.3666
116.351 549 23.4307
116.469 572 23.9165
116.586 527 22.9565
116.704 527 22.9565
116.821 545 23.3452
116.939 548 23.4094
117.056 562 23.7065
117.174 568 23.8328
117.291 551 23.4734
117.409 547 23.388
117.526 572 23.9165
117.644 521 22.8254
117.761 515 22.6936
117.879 504 22.4499
117.996 470 21.6795
118.114 509 22.561
118.231 546 23.3666
118.349 547 23.388
118.466 597 24.4336
118.584 562 23.7065
118.701 540 23.2379
118.819 510 22.5832
118.936 512 22.6274
119.053 487 22.0681
119.171 518 22.7596
119.288 475 21.7945
119.405 523 22.8692
119.523 516 22.7156
119.64 550 23.4521
119.757 532 23.0651
119.875 506 22.4944
119.992 529 23
120.109 528 22.9783
120.226 514 22.6716
120.343 508 22.5389
120.46 477 21.8403
120.578 496 22.2711
120.695 516 22.7156
120.812 508 22.5389
120.929 512 22.6274
121.046 505 22.4722
121.163 474 21.7715
121.279 511 22.6053
121.396 432 20.7846
121.513 424 20.5913
121.63 458 21.4009
121.747 450 21.2132
121.863 445 21.095
121.98 511 22.6053
122.097 462 21.4942
122.213 493 22.2036
122.33 408 20.199
122.446 424 20.5913
122.563 351 18.735
122.679 331 18.1934
122.795 296 17.2047
122.912 325 18.0278
123.028 293 17.1172
123.144 300 17.3205
123.26 252 15.8745
123.377 0 1
123.493 0 1
123.609 0 1
123.725 0 1
123.84 0 1
123.956 0 1
124.072 0 1
124.188 0 1
124.303 0 1
124.419 0 1
126.852 0 1
126.968 0 1
127.083 0 1
127.199 0 1
127.315 0 1
127.431 0 1
127.547 0 1
127.663 0 1
127.779 0 1
127.895 0 1
128.011 0 1
128.127 0 1
128.243 0 1
128.359 558 23.622
128.476 559 23.6432
128.592 521 22.8254
128.708 596 24.4131
128.825 588 24.2487
128.941 554 23.5372
129.058 585 24.1868
129.174 550 23.4521
129.291 623 24.96
129.408 586 24.2074
129.524 628 25.0599
129.641 595 24.3926
129.758 597 24.4336
129.875 596 24.4131
129.992 589 24.2693
130.108 652 25.5343
130.225 543 23.3024
130.342 605 24.5967
130.459 561 23.6854
130.576 598 24.454
130.693 555 23.5584
130.81 567 23.8118
130.928 664 25.7682
131.045 680 26.0768
131.162 693 26.3249
131.279 786 28.0357
131.396 830 28.8097
131.513 814 28.5307
131.631 737 27.1477
131.748 818 28.6007
131.865 833 28.8617
131.983 818 28.6007
132.1 901 30.0167
132.217 976 31.241
132.335 1062 32.5883
132.452 1090 33.0151
132.57 1177 34.3074
132.687 1211 34.7994
132.804 1208 34.7563
132.922 1204 34.6987
133.039 1214 34.8425
133.157 1301 36.0694
133.274 1319 36.318
133.392 1385 37.2156
133.509 1344 36.6606
133.627 1302 36.0832
133.744 1260 35.4965
133.862 1224 34.9857
133.979 1215 34.8569
134.097 1264 35.5528
134.214 1400 37.4166
134.332 1431 37.8286
134.449 1568 39.598
134.567 1634 40.4228
134.684 1711 41.3642
134.802 1668 40.8412
134.919 1715 41.4126
135.037 1767 42.0357
135.154 1615 40.1871
135.272 1521 39
135.389 1371 37.027
135.507 1507 38.8201
135.624 1571 39.6358
135.742 1681 41
135.859 1717 41.4367
135.977 1726 41.5452
136.094 1715 41.4126
136.211 1709 41.3401
136.329 1648 40.5956
136.446 1665 40.8044
136.564 1634 40.4228
136.681 1596 39.95
136.798 1594 39.9249
136.915 1512 38.8844
137.033 1588 39.8497
137.15 1507 38.8201
137.267 1392 37.3095
137.384 1214 34.8425
137.502 1169 34.1906
137.619 1160 34.0588
137.736 1119 33.4515
137.853 1203 34.6843
137.97 1276 35.7211
138.087 1182 34.3802
138.204 1214 34.8425
138.321 1265 35.5668
138.438 1363 36.9188
138.555 1375 37.081
138.672 1317 36.2905
138.788 1272 35.6651
138.905 1104 33.2265
139.022 1010 31.7805
139.139 1007 31.7333
139.255 1073 32.7567
139.372 1006 31.7175
139.488 1079 32.8481
139.605 1032 32.1248
139.721 947 30.7734
139.838 863 29.3769
139.954 784 28
140.071 736 27.1293
140.187 679 26.0576
140.303 649 25.4755
140.419 616 24.8193
140.535 610 24.6982
140.652 615 24.7992
140.768 0 1
140.884 0 1
141 0 1
141.115 0 1
141.231 0 1
141.347 0 1
141.463 0 1
141.578 0 1
141.694 0 1
144.104 0 1
144.219 0 1
144.335 0 1
144.45 0 1
144.566 0 1
144.682 0 1
144.798 0 1
144.914 0 1
145.03 0 1
145.146 1377 37.108
145.262 1370 37.0135
145.378 1421 37.6962
145.494 1485 38.5357
145.61 1457 38.1707
145.726 1548 39.3446
145.842 1622 40.2741
145.959 1664 40.7922
146.075 1592 39.8999
146.192 1635 40.4351
146.308 1614 40.1746
146.425 1540 39.2428
146.541 1612 40.1497
146.658 1591 39.8873
146.774 1655 40.6817
146.891 1623 40.2865
147.008 1702 41.2553
147.125 1729 41.5812
147.241 1834 42.8252
147.358 1807 42.5088
147.475 1847 42.9767
147.592 1694 41.1582
147.709 1556 39.4462
147.826 1584 39.7995
147.943 1579 39.7366
148.06 1639 40.4846
148.177 1837 42.8602
148.294 1878 43.3359
148.411 2002 44.7437
148.528 1943 44.0795
148.645 1944 44.0908
148.762 1962 44.2945
148.88 2135 46.2061
148.997 2286 47.8121
149.114 2253 47.4658
149.231 2436 49.3559
149.349 2548 50.4777
149.466 2757 52.5071
149.583 3073 55.4346
149.701 3225 56.7891
149.818 3375 58.0948
149.935 3438 58.6345
150.053 3532 59.4306
150.17 3723 61.0164
150.287 3945 62.8092
150.405 4323 65.7495
150.522 4507 67.1342
150.64 4740 68.8477
150.757 4961 70.4344
150.875 5066 71.1758
150.992 5489 74.0878
151.11 5122 71.5681
151.227 4531 67.3127
151.344 3506 59.2115
151.462 3863 62.153
151.579 5145 71.7287
151.697 6287 79.2906
151.814 6655 81.5782
151.932 6929 83.2406
152.049 6927 83.2286
152.167 6977 83.5284
152.284 7301 85.4459
152.402 7204 84.8764
152.519 7345 85.703
152.636 7370 85.8487
152.754 7521 86.7237
152.871 7481 86.4928
152.989 7550 86.8907
153.106 7646 87.4414
153.223 7389 85.9593
153.341 7451 86.3192
153.458 7420 86.1394
153.575 7231 85.0353
153.693 7247 85.1293
153.81 7235 85.0588
153.927 7169 84.6699
154.044 7004 83.6899
154.162 7024 83.8093
154.279 7057 84.006
154.396 7224 84.9941
154.513 7127 84.4216
154.63 6982 83.5584
154.747 6642 81.4985
154.864 6923 83.2046
154.981 7504 86.6256
155.098 8266 90.9175
155.215 8456 91.9565
155.332 8796 93.787
155.449 8992 94.8262
155.566 9546 97.7036
155.683 9552 97.7343
155.8 9750 98.7421
155.917 10062 100.31
156.033 10453 102.24
156.15 0 1
156.267 0 1
156.383 0 1
156.5 0 1
156.617 0 1
156.733 0 1
156.85 0 1
156.966 0 1
157.082 0 1
157.199 0 1
157.315 0 1
157.431 0 1
157.547 0 1
157.664 0 1
157.78 0 1
157.896 0 1
158.012 0 1
158.128 0 1
158.244 0 1
158.359 0 1
158.475 0 1
158.591 0 1
158.706 0 1
