
6.15755 0 1
6.2731 0 1
6.3887 0 1
6.50437 0 1
6.62009 0 1
6.73587 0 1
6.8517 0 1
6.96759 0 1
7.08353 0 1
7.19952 0 1
7.31557 0 1
7.43166 0 1
7.54781 0 1
7.664 0 1
7.78024 0 1
7.89653 0 1
8.01286 0 1
8.12924 0 1
8.24567 0 1
8.36213 0 1
8.47864 0 1
8.59519 0 1
8.71178 0 1
8.82841 0 1
8.94508 0 1
9.06179 0 1
9.17853 0 1
9.29531 0 1
9.41212 0 1
9.52897 0 1
9.64584 0 1
9.76276 0 1
9.8797 0 1
9.99667 0 1
10.1137 0 1
10.2307 0 1
10.3478 0 1
10.4648 0 1
10.5819 0 1
10.6991 0 1
10.8162 0 1
10.9334 0 1
11.0506 0 1
11.1678 0 1
11.285 0 1
11.4023 0 1
11.5196 0 1
11.6369 0 1
11.7542 0 1
11.8715 0 1
11.9888 0 1
12.1062 0 1
12.2235 0 1
12.3409 0 1
12.4582 0 1
12.5756 0 1
12.693 0 1
12.8104 0 1
12.9278 0 1
13.0452 0 1
13.1626 0 1
13.28 0 1
13.3974 0 1
13.5149 0 1
13.6323 0 1
13.7497 0 1
13.8671 0 1
13.9845 0 1
14.1019 0 1
14.2193 0 1
14.3367 0 1
14.4541 0 1
14.5714 0 1
14.6888 0 1
14.8062 0 1
14.9235 0 1
15.0408 309 17.5784
15.1581 306 17.4929
15.2755 287 16.9411
15.3927 310 17.6068
15.51 315 17.7482
15.6273 294 17.1464
15.7445 300 17.3205
15.8617 346 18.6011
15.9789 321 17.9165
16.0961 314 17.72
16.2132 301 17.3494
16.3304 329 18.1384
16.4475 316 17.7764
16.5646 322 17.9444
16.6816 326 18.0555
16.7986 362 19.0263
16.9156 304 17.4356
17.0326 335 18.303
17.1496 347 18.6279
17.2665 328 18.1108
17.3833 338 18.3848
17.5002 324 18
17.617 351 18.735
17.7338 340 18.4391
17.8505 295 17.1756
17.9672 331 18.1934
18.0839 333 18.2483
18.2005 324 18
18.3171 350 18.7083
18.4337 325 18.0278
18.5502 370 19.2354
18.6666 348 18.6548
18.7831 337 18.3576
18.8994 324 18
19.0158 361 19
19.1321 351 18.735
19.2483 327 18.0831
19.3645 330 18.1659
19.4806 308 17.5499
19.5967 282 16.7929
19.7128 281 16.7631
19.8288 239 15.4596
19.9447 232 15.2315
20.0606 0 1
20.1764 0 1
20.2922 0 1
20.4079 0 1
20.5236 0 1
20.6392 0 1
20.7548 0 1
20.8702 0 1
23.3078 0 1
23.4233 0 1
23.539 0 1
23.6547 0 1
23.7704 0 1
23.8862 0 1
24.0021 0 1
24.118 0 1
24.234 0 1
24.35 0 1
24.4661 163 12.7671
24.5822 227 15.0665
24.6984 234 15.2971
24.8146 249 15.7797
24.9309 284 16.8523
25.0472 293 17.1172
25.1636 309 17.5784
25.28 325 18.0278
25.3965 362 19.0263
25.513 369 19.2094
25.6296 348 18.6548
25.7462 359 18.9473
25.8628 360 18.9737
25.9795 381 19.5192
26.0962 391 19.7737
26.213 357 18.8944
26.3298 335 18.303
26.4466 374 19.3391
26.5635 353 18.7883
26.6804 363 19.0526
26.7973 363 19.0526
26.9143 339 18.412
27.0313 379 19.4679
27.1483 399 19.975
27.2653 400 20
27.3824 358 18.9209
27.4996 400 20
27.6167 395 19.8746
27.7339 396 19.8997
27.8511 385 19.6214
27.9683 396 19.8997
28.0855 398 19.9499
28.2028 403 20.0749
28.3201 390 19.7484
28.4374 395 19.8746
28.5547 362 19.0263
28.6721 359 18.9473
28.7894 345 18.5742
28.9068 320 17.8885
29.0242 373 19.3132
29.1416 350 18.7083
29.259 355 18.8414
29.3764 361 19
29.4939 345 18.5742
29.6113 372 19.2873
29.7288 371 19.2614
29.8463 363 19.0526
29.9638 375 19.3649
30.0812 378 19.4422
30.1987 386 19.6469
30.3162 383 19.5704
30.4337 364 19.0788
30.5512 402 20.0499
30.6687 379 19.4679
30.7862 402 20.0499
30.9037 397 19.9249
31.0212 408 20.199
31.1387 432 20.7846
31.2562 421 20.5183
31.3737 401 20.025
31.4912 366 19.1311
31.6087 395 19.8746
31.7262 424 20.5913
31.8436 418 20.445
31.9611 394 19.8494
32.0785 367 19.1572
32.1959 365 19.105
32.3134 319 17.8606
32.4308 321 17.9165
32.5482 346 18.6011
32.6655 365 19.105
32.7829 352 18.7617
32.9002 319 17.8606
33.0176 367 19.1572
33.1349 388 19.6977
33.2522 373 19.3132
33.3694 417 20.4206
33.4867 373 19.3132
33.6039 389 19.7231
33.7211 421 20.5183
33.8383 385 19.6214
33.9554 407 20.1742
34.0725 399 19.975
34.1896 364 19.0788
34.3067 411 20.2731
34.4237 413 20.3224
34.5407 402 20.0499
34.6577 402 20.0499
34.7746 396 19.8997
34.8915 415 20.3715
35.0084 413 20.3224
35.1252 399 19.975
35.242 372 19.2873
35.3587 441 21
35.4755 413 20.3224
35.5921 402 20.0499
35.7088 401 20.025
35.8254 410 20.2485
35.9419 368 19.1833
36.0584 320 17.8885
36.1749 326 18.0555
36.2913 300 17.3205
36.4077 298 17.2627
36.524 305 17.4642
36.6403 338 18.3848
36.7565 316 17.7764
36.8727 341 18.4662
36.9889 301 17.3494
37.1049 294 17.1464
37.221 0 1
37.3369 0 1
37.4529 0 1
37.5687 0 1
37.6845 0 1
37.8003 0 1
37.916 0 1
38.0316 0 1
38.1472 0 1
40.5851 0 1
40.7008 0 1
40.8164 0 1
40.9322 0 1
41.048 0 1
41.1639 0 1
41.2798 0 1
41.3958 0 1
41.5118 0 1
41.6279 0 1
41.744 174 13.1909
41.8602 210 14.4914
41.9765 247 15.7162
42.0928 230 15.1658
42.2091 276 16.6132
42.3255 280 16.7332
42.4419 302 17.3781
42.5584 348 18.6548
42.675 349 18.6815
42.7915 323 17.9722
42.9081 369 19.2094
43.0248 401 20.025
43.1415 397 19.9249
43.2582 425 20.6155
43.375 417 20.4206
43.4918 431 20.7605
43.6087 410 20.2485
43.7256 430 20.7364
43.8425 396 19.8997
43.9595 397 19.9249
44.0765 433 20.8087
44.1935 430 20.7364
44.3106 401 20.025
44.4277 431 20.7605
44.5448 401 20.025
44.6619 384 19.5959
44.7791 371 19.2614
44.8963 366 19.1311
45.0136 329 18.1384
45.1308 344 18.5472
45.2481 309 17.5784
45.3654 318 17.8326
45.4827 327 18.0831
45.6001 329 18.1384
45.7174 364 19.0788
45.8348 368 19.1833
45.9522 386 19.6469
46.0697 409 20.2237
46.1871 393 19.8242
46.3046 423 20.567
46.422 396 19.8997
46.5395 408 20.199
46.657 443 21.0476
46.7745 438 20.9284
46.892 442 21.0238
47.0096 430 20.7364
47.1271 482 21.9545
47.2446 451 21.2368
47.3622 467 21.6102
47.4797 484 22
47.5973 451 21.2368
47.7149 445 21.095
47.8324 477 21.8403
47.95 424 20.5913
48.0675 407 20.1742
48.1851 453 21.2838
48.3027 417 20.4206
48.4202 384 19.5959
48.5378 386 19.6469
48.6554 337 18.3576
48.7729 300 17.3205
48.8904 321 17.9165
49.008 310 17.6068
49.1255 402 20.0499
49.243 401 20.025
49.3605 462 21.4942
49.478 455 21.3307
49.5955 472 21.7256
49.713 443 21.0476
49.8304 435 20.8567
49.9479 449 21.1896
50.0653 440 20.9762
50.1827 444 21.0713
50.3001 457 21.3776
50.4175 459 21.4243
50.5348 466 21.587
50.6521 467 21.6102
50.7694 471 21.7025
50.8867 465 21.5639
51.004 468 21.6333
51.1212 457 21.3776
51.2384 521 22.8254
51.3556 468 21.6333
51.4727 435 20.8567
51.5899 468 21.6333
51.707 409 20.2237
51.824 399 19.975
51.9411 388 19.6977
52.0581 359 18.9473
52.175 372 19.2873
52.2919 327 18.0831
52.4088 352 18.7617
52.5257 353 18.7883
52.6425 344 18.5472
52.7593 428 20.6882
52.876 410 20.2485
52.9927 430 20.7364
53.1094 444 21.0713
53.226 426 20.6398
53.3426 409 20.2237
53.4591 421 20.5183
53.5756 408 20.199
53.692 400 20
53.8084 404 20.0998
53.9248 355 18.8414
54.0411 361 19
54.1573 326 18.0555
54.2735 0 1
54.3896 0 1
54.5057 0 1
54.6217 0 1
54.7377 0 1
54.8537 0 1
54.9695 0 1
55.0853 0 1
55.2011 0 1
55.3168 0 1
55.4324 0 1
57.824 0 1
57.9396 0 1
58.0553 0 1
58.1711 0 1
58.2869 0 1
58.4028 0 1
58.5187 0 1
58.6347 0 1
58.7508 0 1
58.8669 0 1
58.983 389 19.7231
59.0992 429 20.7123
59.2155 473 21.7486
59.3318 507 22.5167
59.4482 550 23.4521
59.5646 598 24.454
59.681 597 24.4336
59.7975 613 24.7588
59.9141 626 25.02
60.0306 626 25.02
60.1473 617 24.8395
60.2639 664 25.7682
60.3807 611 24.7184
60.4974 614 24.779
60.6142 578 24.0416
60.731 508 22.5389
60.8479 455 21.3307
60.9648 482 21.9545
61.0818 426 20.6398
61.1987 457 21.3776
61.3158 431 20.7605
61.4328 512 22.6274
61.5499 548 23.4094
61.667 659 25.671
61.7841 621 24.9199
61.9013 661 25.7099
62.0185 634 25.1794
62.1357 664 25.7682
62.253 688 26.2298
62.3702 683 26.1343
62.4875 663 25.7488
62.6049 717 26.7769
62.7222 687 26.2107
62.8396 711 26.6646
62.9569 736 27.1293
63.0743 695 26.3629
63.1918 714 26.7208
63.3092 730 27.0185
63.4267 722 26.8701
63.5441 703 26.5141
63.6616 701 26.4764
63.7791 722 26.8701
63.8966 698 26.4197
64.0142 682 26.1151
64.1317 634 25.1794
64.2492 564 23.7487
64.3668 548 23.4094
64.4843 467 21.6102
64.6019 404 20.0998
64.7195 432 20.7846
64.837 501 22.383
64.9546 545 23.3452
65.0722 534 23.1084
65.1898 657 25.632
65.3074 675 25.9808
65.4249 678 26.0384
65.5425 727 26.9629
65.6601 695 26.3629
65.7777 712 26.6833
65.8952 741 27.2213
66.0128 685 26.1725
66.1304 747 27.3313
66.2479 796 28.2135
66.3655 806 28.3901
66.483 794 28.178
66.6005 804 28.3549
66.718 735 27.1109
66.8355 756 27.4955
66.953 761 27.5862
67.0705 774 27.8209
67.1879 739 27.1846
67.3054 751 27.4044
67.4228 774 27.8209
67.5402 757 27.5136
67.6576 711 26.6646
67.7749 673 25.9422
67.8923 600 24.4949
68.0096 488 22.0907
68.1269 413 20.3224
68.2442 454 21.3073
68.3614 465 21.5639
68.4787 522 22.8473
68.5958 524 22.891
68.713 590 24.2899
68.8302 663 25.7488
68.9473 731 27.037
69.0643 809 28.4429
69.1814 784 28
69.2984 771 27.7669
69.4154 761 27.5862
69.5323 771 27.7669
69.6492 714 26.7208
69.7661 719 26.8142
69.8829 717 26.7769
69.9997 754 27.4591
70.1165 753 27.4408
70.2332 734 27.0924
70.3499 708 26.6083
70.4665 694 26.3439
70.5831 674 25.9615
70.6996 673 25.9422
70.8161 602 24.5357
70.9326 561 23.6854
71.049 563 23.7276
71.1653 537 23.1733
71.2817 494 22.2261
71.3979 481 21.9317
71.5141 344 18.5472
71.6303 295 17.1756
71.7464 196 14
71.8624 0 1
71.9784 0 1
72.0944 0 1
72.2102 0 1
72.3261 0 1
72.4418 0 1
72.5575 0 1
72.6732 0 1
75.1054 0 1
75.2209 0 1
75.3365 0 1
75.4521 0 1
75.5678 0 1
75.6835 0 1
75.7993 0 1
75.9151 0 1
76.031 0 1
76.147 514 22.6716
76.263 637 25.2389
76.3791 682 26.1151
76.4952 626 25.02
76.6113 626 25.02
76.7276 608 24.6577
76.8438 567 23.8118
76.9601 485 22.0227
77.0765 422 20.5426
77.1929 409 20.2237
77.3093 392 19.799
77.4258 420 20.4939
77.5423 427 20.664
77.6589 617 24.8395
77.7755 663 25.7488
77.8921 792 28.1425
78.0088 877 29.6142
78.1256 886 29.7658
78.2423 918 30.2985
78.3591 881 29.6816
78.4759 845 29.0689
78.5928 884 29.7321
78.7097 896 29.9333
78.8266 888 29.7993
78.9436 920 30.3315
79.0606 956 30.9192
79.1776 932 30.5287
79.2946 976 31.241
79.4117 915 30.249
79.5288 909 30.1496
79.6459 901 30.0167
79.7631 906 30.0998
79.8802 954 30.8869
79.9974 917 30.282
80.1147 993 31.5119
80.2319 956 30.9192
80.3491 893 29.8831
80.4664 736 27.1293
80.5837 641 25.318
80.701 576 24
80.8183 526 22.9347
80.9357 494 22.2261
81.053 471 21.7025
81.1704 532 23.0651
81.2877 594 24.3721
81.4051 735 27.1109
81.5225 926 30.4302
81.6399 993 31.5119
81.7573 1044 32.311
81.8747 1024 32
81.9922 1095 33.0908
82.1096 1025 32.0156
82.227 947 30.7734
82.3444 1012 31.8119
82.4619 1020 31.9374
82.5793 1053 32.45
82.6967 1122 33.4963
82.8142 1115 33.3916
82.9316 1150 33.9116
83.049 1084 32.9242
83.1664 1117 33.4215
83.2838 1118 33.4365
83.4012 1138 33.7343
83.5186 1053 32.45
83.636 1094 33.0757
83.7534 1114 33.3766
83.8708 1090 33.0151
83.9881 941 30.6757
84.1055 834 28.8791
84.2228 826 28.7402
84.3401 657 25.632
84.4575 563 23.7276
84.5747 548 23.4094
84.692 524 22.891
84.8093 602 24.5357
84.9265 755 27.4773
85.0437 864 29.3939
85.1609 974 31.209
85.2781 1160 34.0588
85.3952 1181 34.3657
85.5123 1293 35.9583
85.6294 1252 35.3836
85.7465 1151 33.9264
85.8636 1186 34.4384
85.9806 1159 34.0441
86.0976 1187 34.4529
86.2145 1266 35.5809
86.3315 1262 35.5246
86.4484 1216 34.8712
86.5652 1266 35.5809
86.682 1232 35.0999
86.7988 1226 35.0143
86.9156 1225 35
87.0323 1156 34
87.149 1155 33.9853
87.2657 1097 33.121
87.3823 1077 32.8177
87.4988 1048 32.3728
87.6154 988 31.4325
87.7318 862 29.3598
87.8483 729 27
87.9647 583 24.1454
88.081 470 21.6795
88.1973 391 19.7737
88.3136 448 21.166
88.4298 488 22.0907
88.546 557 23.6008
88.6621 605 24.5967
88.7781 717 26.7769
88.8942 0 1
89.0101 0 1
89.126 0 1
89.2419 0 1
89.3577 0 1
89.4734 0 1
89.5891 0 1
89.7047 0 1
89.8203 0 1
89.9358 0 1
92.3269 0 1
92.4424 0 1
92.558 0 1
92.6736 0 1
92.7893 0 1
92.905 0 1
93.0208 0 1
93.1366 0 1
93.2525 0 1
93.3685 0 1
93.4845 0 1
93.6005 501 22.383
93.7167 545 23.3452
93.8328 606 24.6171
93.949 764 27.6405
94.0653 950 30.8221
94.1816 1050 32.4037
94.2979 1216 34.8712
94.4143 1281 35.7911
94.5307 1352 36.7696
94.6472 1401 37.4299
94.7637 1429 37.8021
94.8803 1398 37.3898
94.9969 1419 37.6696
95.1135 1448 38.0526
95.2302 1433 37.855
95.3469 1465 38.2753
95.4637 1493 38.6394
95.5805 1510 38.8587
95.6973 1564 39.5474
95.8142 1462 38.2361
95.9311 1434 37.8682
96.048 1493 38.6394
96.1649 1441 37.9605
96.2819 1479 38.4578
96.3989 1454 38.1314
96.516 1442 37.9737
96.633 1359 36.8646
96.7501 1143 33.8083
96.8673 1024 32
96.9844 971 31.1609
97.1016 845 29.0689
97.2188 769 27.7308
97.336 727 26.9629
97.4532 707 26.5895
97.5704 820 28.6356
97.6877 1019 31.9218
97.805 1268 35.609
97.9223 1299 36.0416
98.0396 1395 37.3497
98.1569 1520 38.9872
98.2743 1460 38.2099
98.3916 1505 38.7943
98.509 1465 38.2753
98.6264 1470 38.3406
98.7438 1453 38.1182
98.8612 1489 38.5876
98.9786 1550 39.37
99.096 1534 39.1663
99.2134 1619 40.2368
99.3308 1561 39.5095
99.4482 1538 39.2173
99.5656 1639 40.4846
99.6831 1544 39.2938
99.8005 1548 39.3446
99.9179 1461 38.223
100.035 1510 38.8587
100.153 1515 38.923
100.27 1351 36.756
100.388 1220 34.9285
100.505 1080 32.8634
100.622 929 30.4795
100.74 816 28.5657
100.857 769 27.7308
100.975 751 27.4044
101.092 824 28.7054
101.209 949 30.8058
101.327 1092 33.0454
101.444 1267 35.5949
101.561 1412 37.5766
101.679 1517 38.9487
101.796 1533 39.1535
101.913 1562 39.5221
102.03 1552 39.3954
102.148 1466 38.2884
102.265 1536 39.1918
102.382 1480 38.4708
102.499 1540 39.2428
102.616 1565 39.5601
102.733 1564 39.5474
102.851 1604 40.05
102.968 1614 40.1746
103.085 1631 40.3856
103.202 1599 39.9875
103.319 1575 39.6863
103.436 1501 38.7427
103.552 1485 38.5357
103.669 1445 38.0132
103.786 1454 38.1314
103.903 1245 35.2846
104.02 1120 33.4664
104.137 1014 31.8434
104.253 910 30.1662
104.37 754 27.4591
104.487 722 26.8701
104.603 743 27.258
104.72 864 29.3939
104.836 979 31.289
104.953 1075 32.7872
105.069 1108 33.2866
105.186 1233 35.1141
105.302 1233 35.1141
105.418 1167 34.1614
105.535 1166 34.1467
105.651 1176 34.2929
105.767 1008 31.749
105.883 933 30.545
105.999 823 28.688
106.115 0 1
106.231 0 1
106.347 0 1
106.463 0 1
106.579 0 1
106.694 0 1
106.81 0 1
106.926 0 1
107.041 0 1
107.157 0 1
109.576 0 1
109.692 0 1
109.807 0 1
109.923 0 1
110.039 0 1
110.155 0 1
110.27 0 1
110.386 0 1
110.502 0 1
110.618 929 30.4795
110.735 915 30.249
110.851 970 31.1448
110.967 1042 32.28
111.083 1091 33.0303
111.199 1259 35.4824
111.316 1332 36.4966
111.432 1247 35.3129
111.549 1382 37.1753
111.665 1341 36.6197
111.782 1351 36.756
111.898 1344 36.6606
112.015 1331 36.4829
112.132 1284 35.8329
112.248 1314 36.2491
112.365 1304 36.1109
112.482 1307 36.1525
112.599 1146 33.8526
112.716 979 31.289
112.832 845 29.0689
112.949 759 27.55
113.066 653 25.5539
113.183 688 26.2298
113.3 710 26.6458
113.417 786 28.0357
113.534 902 30.0333
113.652 1031 32.1092
113.769 1213 34.8281
113.886 1264 35.5528
114.003 1317 36.2905
114.12 1308 36.1663
114.238 1272 35.6651
114.355 1269 35.623
114.472 1257 35.4542
114.589 1240 35.2136
114.707 1258 35.4683
114.824 1335 36.5377
114.942 1300 36.0555
115.059 1334 36.524
115.176 1348 36.7151
115.294 1289 35.9026
115.411 1228 35.0428
115.529 1240 35.2136
115.646 1195 34.5688
115.764 1177 34.3074
115.881 1170 34.2053
115.999 1137 33.7194
116.116 1102 33.1964
116.234 1003 31.6702
116.351 900 30
116.469 750 27.3861
116.586 712 26.6833
116.704 677 26.0192
116.821 647 25.4362
116.939 620 24.8998
117.056 800 28.2843
117.174 853 29.2062
117.291 975 31.225
117.409 1041 32.2645
117.526 1157 34.0147
117.644 1220 34.9285
117.761 1238 35.1852
117.879 1118 33.4365
117.996 1139 33.7491
118.114 1124 33.5261
118.231 1037 32.2025
118.349 1200 34.641
118.466 1205 34.7131
118.584 1227 35.0286
118.701 1206 34.7275
118.819 1191 34.5109
118.936 1127 33.5708
119.053 1147 33.8674
119.171 1121 33.4813
119.288 1038 32.218
119.405 1018 31.9061
119.523 1072 32.7414
119.64 1056 32.4962
119.757 997 31.5753
119.875 915 30.249
119.992 809 28.4429
120.109 709 26.6271
120.226 623 24.96
120.343 643 25.3574
120.46 594 24.3721
120.578 613 24.7588
120.695 682 26.1151
120.812 759 27.55
120.929 868 29.4618
121.046 934 30.5614
121.163 936 30.5941
121.279 986 31.4006
121.396 932 30.5287
121.513 912 30.1993
121.63 942 30.692
121.747 861 29.3428
121.863 907 30.1164
121.98 877 29.6142
122.097 861 29.3428
122.213 864 29.3939
122.33 874 29.5635
122.446 844 29.0517
122.563 777 27.8747
122.679 760 27.5681
122.795 711 26.6646
122.912 666 25.807
123.028 633 25.1595
123.144 588 24.2487
123.26 528 22.9783
123.377 0 1
123.493 0 1
123.609 0 1
123.725 0 1
123.84 0 1
123.956 0 1
124.072 0 1
124.188 0 1
124.303 0 1
124.419 0 1
126.852 0 1
126.968 0 1
127.083 0 1
127.199 0 1
127.315 0 1
127.431 0 1
127.547 0 1
127.663 0 1
127.779 0 1
127.895 0 1
128.011 0 1
128.127 0 1
128.243 0 1
128.359 943 30.7083
128.476 1001 31.6386
128.592 1007 31.7333
128.708 1032 32.1248
128.825 1030 32.0936
128.941 982 31.3369
129.058 878 29.6311
129.174 798 28.2489
129.291 735 27.1109
129.408 732 27.0555
129.524 708 26.6083
129.641 687 26.2107
129.758 744 27.2764
129.875 789 28.0891
129.992 827 28.7576
130.108 907 30.1164
130.225 987 31.4166
130.342 1096 33.1059
130.459 1033 32.1403
130.576 1048 32.3728
130.693 1054 32.4654
130.81 1022 31.9687
130.928 1092 33.0454
131.045 1081 32.8786
131.162 1082 32.8938
131.279 1124 33.5261
131.396 1112 33.3467
131.513 1069 32.6956
131.631 1103 33.2114
131.748 1055 32.4808
131.865 1013 31.8277
131.983 986 31.4006
132.1 1015 31.8591
132.217 970 31.1448
132.335 1002 31.6544
132.452 985 31.3847
132.57 879 29.6479
132.687 869 29.4788
132.804 778 27.8927
132.922 752 27.4226
133.039 723 26.8887
133.157 708 26.6083
133.274 697 26.4008
133.392 704 26.533
133.509 841 29
133.627 890 29.8329
133.744 933 30.545
133.862 987 31.4166
133.979 1041 32.2645
134.097 1004 31.686
134.214 998 31.5911
134.332 938 30.6268
134.449 1005 31.7017
134.567 1086 32.9545
134.684 1013 31.8277
134.802 1113 33.3617
134.919 1035 32.1714
135.037 1014 31.8434
135.154 1014 31.8434
135.272 1009 31.7648
135.389 969 31.1288
135.507 975 31.225
135.624 989 31.4484
135.742 990 31.4643
135.859 975 31.225
135.977 1029 32.078
136.094 963 31.0322
136.211 955 30.9031
136.329 777 27.8747
136.446 779 27.9106
136.564 753 27.4408
136.681 752 27.4226
136.798 747 27.3313
136.915 685 26.1725
137.033 729 27
137.15 729 27
137.267 810 28.4605
137.384 915 30.249
137.502 919 30.315
137.619 910 30.1662
137.736 980 31.305
137.853 885 29.7489
137.97 897 29.95
138.087 933 30.545
138.204 939 30.6431
138.321 985 31.3847
138.438 941 30.6757
138.555 959 30.9677
138.672 916 30.2655
138.788 911 30.1828
138.905 940 30.6594
139.022 855 29.2404
139.139 780 27.9285
139.255 769 27.7308
139.372 750 27.3861
139.488 755 27.4773
139.605 755 27.4773
139.721 632 25.1396
139.838 648 25.4558
139.954 557 23.6008
140.071 497 22.2935
140.187 476 21.8174
140.303 366 19.1311
140.419 350 18.7083
140.535 343 18.5203
140.652 345 18.5742
140.768 0 1
140.884 0 1
141 0 1
141.115 0 1
141.231 0 1
141.347 0 1
141.463 0 1
141.578 0 1
141.694 0 1
144.104 0 1
144.219 0 1
144.335 0 1
144.45 0 1
144.566 0 1
144.682 0 1
144.798 0 1
144.914 0 1
145.03 0 1
145.146 534 23.1084
145.262 596 24.4131
145.378 509 22.561
145.494 580 24.0832
145.61 560 23.6643
145.726 557 23.6008
145.842 533 23.0868
145.959 570 23.8747
146.075 609 24.6779
146.192 624 24.98
146.308 605 24.5967
146.425 628 25.0599
146.541 630 25.0998
146.658 604 24.5764
146.774 605 24.5967
146.891 625 25
147.008 628 25.0599
147.125 641 25.318
147.241 723 26.8887
147.358 666 25.807
147.475 654 25.5734
147.592 698 26.4197
147.709 717 26.7769
147.826 656 25.6125
147.943 608 24.6577
148.06 614 24.779
148.177 638 25.2587
148.294 635 25.1992
148.411 650 25.4951
148.528 628 25.0599
148.645 664 25.7682
148.762 643 25.3574
148.88 608 24.6577
148.997 683 26.1343
149.114 572 23.9165
149.231 509 22.561
149.349 595 24.3926
149.466 584 24.1661
149.583 581 24.1039
149.701 561 23.6854
149.818 544 23.3238
149.935 563 23.7276
150.053 562 23.7065
150.17 646 25.4165
150.287 588 24.2487
150.405 660 25.6905
150.522 644 25.3772
150.64 614 24.779
150.757 639 25.2784
150.875 609 24.6779
150.992 648 25.4558
151.11 667 25.8263
151.227 664 25.7682
151.344 616 24.8193
151.462 648 25.4558
151.579 590 24.2899
151.697 606 24.6171
151.814 606 24.6171
151.932 592 24.3311
152.049 635 25.1992
152.167 594 24.3721
152.284 606 24.6171
152.402 590 24.2899
152.519 540 23.2379
152.636 579 24.0624
152.754 572 23.9165
152.871 552 23.4947
152.989 497 22.2935
153.106 545 23.3452
153.223 525 22.9129
153.341 482 21.9545
153.458 493 22.2036
153.575 549 23.4307
153.693 575 23.9792
153.81 563 23.7276
153.927 585 24.1868
154.044 539 23.2164
154.162 530 23.0217
154.279 530 23.0217
154.396 584 24.1661
154.513 570 23.8747
154.63 595 24.3926
154.747 605 24.5967
154.864 627 25.04
154.981 593 24.3516
155.098 593 24.3516
155.215 523 22.8692
155.332 519 22.7816
155.449 571 23.8956
155.566 543 23.3024
155.683 517 22.7376
155.8 517 22.7376
155.917 538 23.1948
156.033 490 22.1359
156.15 0 1
156.267 0 1
156.383 0 1
156.5 0 1
156.617 0 1
156.733 0 1
156.85 0 1
156.966 0 1
157.082 0 1
157.199 0 1
157.315 0 1
157.431 0 1
157.547 0 1
157.664 0 1
157.78 0 1
157.896 0 1
158.012 0 1
158.128 0 1
158.244 0 1
158.359 0 1
158.475 0 1
158.591 0 1
158.706 0 1
