
6.15755 0 1
6.2731 0 1
6.3887 0 1
6.50437 0 1
6.62009 0 1
6.73587 0 1
6.8517 0 1
6.96759 0 1
7.08353 0 1
7.19952 0 1
7.31557 0 1
7.43166 0 1
7.54781 0 1
7.664 0 1
7.78024 0 1
7.89653 0 1
8.01286 0 1
8.12924 0 1
8.24567 0 1
8.36213 0 1
8.47864 0 1
8.59519 0 1
8.71178 0 1
8.82841 0 1
8.94508 0 1
9.06179 0 1
9.17853 0 1
9.29531 0 1
9.41212 0 1
9.52897 0 1
9.64584 0 1
9.76276 0 1
9.8797 0 1
9.99667 0 1
10.1137 0 1
10.2307 0 1
10.3478 0 1
10.4648 0 1
10.5819 0 1
10.6991 0 1
10.8162 0 1
10.9334 0 1
11.0506 0 1
11.1678 0 1
11.285 0 1
11.4023 0 1
11.5196 0 1
11.6369 0 1
11.7542 0 1
11.8715 0 1
11.9888 0 1
12.1062 0 1
12.2235 0 1
12.3409 0 1
12.4582 0 1
12.5756 0 1
12.693 0 1
12.8104 0 1
12.9278 0 1
13.0452 0 1
13.1626 0 1
13.28 0 1
13.3974 0 1
13.5149 0 1
13.6323 0 1
13.7497 0 1
13.8671 0 1
13.9845 0 1
14.1019 0 1
14.2193 0 1
14.3367 0 1
14.4541 0 1
14.5714 0 1
14.6888 0 1
14.8062 0 1
14.9235 0 1
15.0408 115355 339.64
15.1581 121131 348.039
15.2755 123561 351.512
15.3927 125045 353.617
15.51 123609 351.581
15.6273 123413 351.302
15.7445 123794 351.844
15.8617 123721 351.74
15.9789 123521 351.456
16.0961 126575 355.774
16.2132 128567 358.562
16.3304 132212 363.61
16.4475 135748 368.44
16.5646 141491 376.153
16.6816 146195 382.355
16.7986 148748 385.679
16.9156 153879 392.274
17.0326 157010 396.245
17.1496 160043 400.054
17.2665 164383 405.442
17.3833 165879 407.282
17.5002 168307 410.252
17.617 169754 412.012
17.7338 169604 411.83
17.8505 172166 414.929
17.9672 168762 410.807
18.0839 161498 401.868
18.2005 155842 394.768
18.3171 156415 395.493
18.4337 162541 403.164
18.5502 169722 411.973
18.6666 173313 416.309
18.7831 175562 419.001
18.8994 175059 418.401
19.0158 171994 414.722
19.1321 169398 411.58
19.2483 165099 406.324
19.3645 162244 402.795
19.4806 160566 400.707
19.5967 157405 396.743
19.7128 155018 393.723
19.8288 150903 388.462
19.9447 137367 370.631
20.0606 0 1
20.1764 0 1
20.2922 0 1
20.4079 0 1
20.5236 0 1
20.6392 0 1
20.7548 0 1
20.8702 0 1
23.3078 0 1
23.4233 0 1
23.539 0 1
23.6547 0 1
23.7704 0 1
23.8862 0 1
24.0021 0 1
24.118 0 1
24.234 0 1
24.35 0 1
24.4661 156451 395.539
24.5822 156640 395.778
24.6984 157528 396.898
24.8146 155554 394.403
24.9309 155521 394.362
25.0472 154324 392.841
25.1636 154650 393.256
25.28 158214 397.761
25.3965 161804 402.249
25.513 167370 409.109
25.6296 173805 416.899
25.7462 177377 421.161
25.8628 181665 426.222
25.9795 182892 427.659
26.0962 185411 430.594
26.213 186265 431.584
26.3298 186422 431.766
26.4466 185218 430.37
26.5635 181738 426.307
26.6804 174955 418.276
26.7973 166053 407.496
26.9143 162972 403.698
27.0313 168485 410.469
27.1483 176619 420.261
27.2653 179617 423.812
27.3824 181724 426.291
27.4996 179980 424.24
27.6167 176870 420.559
27.7339 173181 416.15
27.8511 170798 413.277
27.9683 166594 408.159
28.0855 164333 405.38
28.2028 162639 403.285
28.3201 159160 398.949
28.4374 158426 398.028
28.5547 156115 395.114
28.6721 155466 394.292
28.7894 154169 392.644
28.9068 157985 397.473
29.0242 160881 401.1
29.1416 164326 405.371
29.259 168387 410.35
29.3764 172227 415.002
29.4939 175519 418.95
29.6113 178377 422.347
29.7288 179816 424.047
29.8463 179730 423.946
29.9638 179663 423.867
30.0812 176890 420.583
30.1987 170003 412.314
30.3162 159147 398.932
30.4337 152779 390.87
30.5512 154862 393.525
30.6687 161505 401.877
30.7862 170122 412.458
30.9037 170865 413.358
31.0212 173967 417.094
31.1387 172396 415.206
31.2562 170360 412.747
31.3737 167478 409.241
31.4912 164358 405.411
31.6087 162543 403.166
31.7262 158992 398.738
31.8436 157202 396.487
31.9611 155908 394.852
32.0785 152756 390.84
32.1959 151763 389.568
32.3134 149517 386.674
32.4308 151378 389.073
32.5482 154950 393.637
32.6655 158672 398.337
32.7829 162212 402.756
32.9002 165123 406.353
33.0176 169958 412.26
33.1349 172897 415.809
33.2522 176225 419.792
33.3694 173311 416.306
33.4867 174462 417.686
33.6039 174282 417.471
33.7211 172152 414.912
33.8383 167036 408.7
33.9554 157127 396.392
34.0725 147888 384.562
34.1896 144150 379.671
34.3067 150564 388.026
34.4237 157166 396.442
34.5407 161913 402.384
34.6577 164195 405.21
34.7746 164084 405.073
34.8915 163793 404.713
35.0084 162146 402.674
35.1252 159562 399.452
35.242 157560 396.938
35.3587 153762 392.125
35.4755 152761 390.847
35.5921 151388 389.086
35.7088 148555 385.428
35.8254 146564 382.837
35.9419 145020 380.815
36.0584 142514 377.51
36.1749 143087 378.268
36.2913 146390 382.609
36.4077 149953 387.238
36.524 153302 391.538
36.6403 155423 394.237
36.7565 160841 401.05
36.8727 163344 404.158
36.9889 164811 405.969
37.1049 164169 405.178
37.221 0 1
37.3369 0 1
37.4529 0 1
37.5687 0 1
37.6845 0 1
37.8003 0 1
37.916 0 1
38.0316 0 1
38.1472 0 1
40.5851 0 1
40.7008 0 1
40.8164 0 1
40.9322 0 1
41.048 0 1
41.1639 0 1
41.2798 0 1
41.3958 0 1
41.5118 0 1
41.6279 0 1
41.744 118349 344.019
41.8602 128982 359.141
41.9765 134552 366.813
42.0928 138532 372.199
42.2091 140472 374.796
42.3255 140168 374.39
42.4419 138987 372.81
42.5584 138304 371.892
42.675 134498 366.74
42.7915 126561 355.754
42.9081 118261 343.891
43.0248 114181 337.907
43.1415 117888 343.348
43.2582 122729 350.327
43.375 126988 356.354
43.4918 129220 359.472
43.6087 130588 361.37
43.7256 129428 359.761
43.8425 127383 356.908
43.9595 124454 352.78
44.0765 123238 351.053
44.1935 119244 345.317
44.3106 117209 342.358
44.4277 113144 336.369
44.5448 110749 332.79
44.6619 106410 326.205
44.7791 103138 321.151
44.8963 100982 317.777
45.0136 99103 314.806
45.1308 99092 314.789
45.2481 101839 319.122
45.3654 103285 321.38
45.4827 105372 324.611
45.6001 107343 327.632
45.7174 108987 330.132
45.8348 108896 329.994
45.9522 108166 328.886
46.0697 107512 327.89
46.1871 104983 324.011
46.3046 100308 316.714
46.422 93813 306.289
46.5395 87356 295.56
46.657 86357 293.866
46.7745 90319 300.531
46.892 93932 306.483
47.0096 96529 310.691
47.1271 98230 313.417
47.2446 97974 313.008
47.3622 97711 312.588
47.4797 96127 310.044
47.5973 94448 307.324
47.7149 92286 303.786
47.8324 91105 301.836
47.95 89225 298.706
48.0675 86668 294.394
48.1851 85326 292.106
48.3027 82694 287.566
48.4202 80471 283.674
48.5378 78968 281.012
48.6554 79827 282.537
48.7729 82624 287.444
48.8904 84143 290.074
49.008 87411 295.654
49.1255 90783 301.302
49.243 93963 306.534
49.3605 94770 307.847
49.478 95338 308.769
49.5955 95223 308.582
49.713 93910 306.447
49.8304 89941 299.902
49.9479 84032 289.883
50.0653 79679 282.275
50.1827 79845 282.569
50.3001 84502 290.692
50.4175 89547 299.244
50.5348 94571 307.524
50.6521 98884 314.458
50.7694 101890 319.202
50.8867 104049 322.566
51.004 105080 324.16
51.1212 105923 325.458
51.2384 106970 327.063
51.3556 106048 325.65
51.4727 106308 326.049
51.5899 106405 326.198
51.707 105719 325.145
51.824 103496 321.708
51.9411 102985 320.913
52.0581 102134 319.584
52.175 104359 323.046
52.2919 107875 328.443
52.4088 111850 334.44
52.5257 118081 343.629
52.6425 121996 349.279
52.7593 126357 355.467
52.876 128559 358.551
52.9927 129581 359.974
53.1094 131586 362.748
53.226 131012 361.956
53.3426 131067 362.032
53.4591 125363 354.066
53.5756 117437 342.691
53.692 110638 332.623
53.8084 108599 329.544
53.9248 113978 337.606
54.0411 121537 348.622
54.1573 126834 356.138
54.2735 0 1
54.3896 0 1
54.5057 0 1
54.6217 0 1
54.7377 0 1
54.8537 0 1
54.9695 0 1
55.0853 0 1
55.2011 0 1
55.3168 0 1
55.4324 0 1
57.824 0 1
57.9396 0 1
58.0553 0 1
58.1711 0 1
58.2869 0 1
58.4028 0 1
58.5187 0 1
58.6347 0 1
58.7508 0 1
58.8669 0 1
58.983 127983 357.747
59.0992 138647 372.353
59.2155 147564 384.141
59.3318 154552 393.131
59.4482 160400 400.5
59.5646 164031 405.007
59.681 166152 407.617
59.7975 165924 407.338
59.9141 165422 406.721
60.0306 163032 403.772
60.1473 159958 399.947
60.2639 156158 395.168
60.3807 153006 391.16
60.4974 148421 385.254
60.6142 142980 378.127
60.731 139937 374.082
60.8479 137607 370.954
60.9648 139293 373.22
61.0818 142204 377.099
61.1987 146276 382.46
61.3158 153056 391.224
61.4328 157782 397.218
61.5499 159883 399.854
61.667 160653 400.815
61.7841 159194 398.991
61.9013 157252 396.55
62.0185 151022 388.615
62.1357 140899 375.365
62.253 132355 363.806
62.3702 129330 359.625
62.4875 132634 364.19
62.6049 139139 373.013
62.7222 145094 380.912
62.8396 153421 391.69
62.9569 156807 395.989
63.0743 157620 397.014
63.1918 159968 399.96
63.3092 159179 398.972
63.4267 158427 398.029
63.5441 155967 394.927
63.6616 153702 392.048
63.7791 150349 387.749
63.8966 147214 383.685
64.0142 141314 375.918
64.1317 136231 369.095
64.2492 130414 361.129
64.3668 128030 357.813
64.4843 129085 359.284
64.6019 133718 365.675
64.7195 138079 371.59
64.837 144136 379.652
64.9546 150229 387.594
65.0722 153198 391.405
65.1898 152333 390.299
65.3074 156247 395.281
65.4249 151221 388.871
65.5425 149755 386.982
65.6601 140687 375.083
65.7777 131150 362.146
65.8952 122617 350.167
66.0128 121978 349.253
66.1304 126435 355.577
66.2479 134760 367.097
66.3655 140964 375.452
66.483 147895 384.571
66.6005 152562 390.592
66.718 155122 393.855
66.8355 156436 395.52
66.953 155901 394.843
67.0705 154860 393.523
67.1879 153469 391.751
67.3054 150686 388.183
67.4228 149048 386.067
67.5402 145322 381.211
67.6576 140333 374.61
67.7749 132285 363.71
67.8923 128512 358.486
68.0096 124617 353.011
68.1269 127011 356.386
68.2442 130612 361.403
68.3614 135509 368.115
68.4787 142181 377.069
68.5958 150106 387.435
68.713 154022 392.456
68.8302 155923 394.871
68.9473 157651 397.053
69.0643 157681 397.091
69.1814 155577 394.433
69.2984 149009 386.017
69.4154 139274 373.194
69.5323 128982 359.141
69.6492 125701 354.543
69.7661 130141 360.751
69.8829 138667 372.38
69.9997 149292 386.383
70.1165 154771 393.409
70.2332 159295 399.118
70.3499 162734 403.403
70.4665 166382 407.899
70.5831 166765 408.369
70.6996 166423 407.95
70.8161 165114 406.342
70.9326 163002 403.735
71.049 158928 398.658
71.1653 154388 392.922
71.2817 150393 387.805
71.3979 142969 378.112
71.5141 133946 365.986
71.6303 124842 353.33
71.7464 116316 341.051
71.8624 0 1
71.9784 0 1
72.0944 0 1
72.2102 0 1
72.3261 0 1
72.4418 0 1
72.5575 0 1
72.6732 0 1
75.1054 0 1
75.2209 0 1
75.3365 0 1
75.4521 0 1
75.5678 0 1
75.6835 0 1
75.7993 0 1
75.9151 0 1
76.031 0 1
76.147 149114 386.153
76.263 154304 392.815
76.3791 153754 392.115
76.4952 148914 385.894
76.6113 144622 380.292
76.7276 135389 367.952
76.8438 131570 362.726
76.9601 132828 364.456
77.0765 138095 371.611
77.1929 145359 381.26
77.3093 154118 392.579
77.4258 162685 403.342
77.5423 166635 408.21
77.6589 167216 408.921
77.7755 167576 409.36
77.8921 165174 406.416
78.0088 160231 400.289
78.1256 148958 385.951
78.2423 136962 370.084
78.3591 127364 356.881
78.4759 121483 348.544
78.5928 125400 354.119
78.7097 135935 368.694
78.8266 143083 378.263
78.9436 159009 398.759
79.0606 159652 399.565
79.1776 163273 404.071
79.2946 166513 408.06
79.4117 168370 410.329
79.5288 167474 409.236
79.6459 167678 409.485
79.7631 163895 404.839
79.8802 161518 401.893
79.9974 156266 395.305
80.1147 152689 390.754
80.2319 145327 381.218
80.3491 137296 370.535
80.4664 129729 360.179
80.5837 130188 360.816
80.701 134920 367.315
80.8183 143311 378.564
80.9357 153678 392.018
81.053 160272 400.34
81.1704 164673 405.799
81.2877 165794 407.178
81.4051 165689 407.049
81.5225 165604 406.945
81.6399 159264 399.079
81.7573 153809 392.185
81.8747 138340 371.941
81.9922 129320 359.611
82.1096 123407 351.293
82.227 126675 355.914
82.3444 136177 369.022
82.4619 148670 385.577
82.5793 157256 396.555
82.6967 158315 397.888
82.8142 163390 404.215
82.9316 165860 407.259
83.049 168237 410.167
83.1664 167726 409.544
83.2838 166876 408.505
83.4012 165623 406.968
83.5186 161870 402.331
83.636 159236 399.044
83.7534 154364 392.892
83.8708 147684 384.297
83.9881 138768 372.516
84.1055 130249 360.9
84.2228 131607 362.777
84.3401 135108 367.57
84.4575 143226 378.452
84.5747 152908 391.035
84.692 163618 404.497
84.8093 169205 411.345
84.9265 170931 413.438
85.0437 171804 414.492
85.1609 169108 411.227
85.2781 160165 400.206
85.3952 146861 383.224
85.5123 137373 370.639
85.6294 129608 360.011
85.7465 127588 357.195
85.8636 135124 367.592
85.9806 147252 383.734
86.0976 157560 396.938
86.2145 164756 405.901
86.3315 169425 411.613
86.4484 173722 416.8
86.5652 176406 420.007
86.682 177898 421.78
86.7988 178640 422.658
86.9156 177601 421.427
87.0323 175324 418.717
87.149 172232 415.008
87.2657 168274 410.212
87.3823 162743 403.414
87.4988 155157 393.9
87.6154 144035 379.519
87.7318 140472 374.796
87.8483 142427 377.395
87.9647 150489 387.929
88.081 160576 400.719
88.1973 171857 414.556
88.3136 177676 421.516
88.4298 178600 422.611
88.546 177884 421.763
88.6621 175825 419.315
88.7781 169816 412.087
88.8942 0 1
89.0101 0 1
89.126 0 1
89.2419 0 1
89.3577 0 1
89.4734 0 1
89.5891 0 1
89.7047 0 1
89.8203 0 1
89.9358 0 1
92.3269 0 1
92.4424 0 1
92.558 0 1
92.6736 0 1
92.7893 0 1
92.905 0 1
93.0208 0 1
93.1366 0 1
93.2525 0 1
93.3685 0 1
93.4845 0 1
93.6005 169110 411.23
93.7167 170500 412.916
93.8328 169030 411.133
93.949 165947 407.366
94.0653 158366 397.952
94.1816 149145 386.193
94.2979 141487 376.148
94.4143 136063 368.867
94.5307 134380 366.579
94.6472 138143 371.676
94.7637 147703 384.321
94.8803 156354 395.416
94.9969 162327 402.898
95.1135 167362 409.099
95.2302 170295 412.668
95.3469 174299 417.491
95.4637 177110 420.844
95.5805 178807 422.856
95.6973 179785 424.011
95.8142 180216 424.519
95.9311 178344 422.308
96.048 174145 417.307
96.1649 170480 412.892
96.2819 165473 406.784
96.3989 157561 396.94
96.516 149618 386.805
96.633 141473 376.129
96.7501 141137 375.682
96.8673 147551 384.124
96.9844 155002 393.703
97.1016 165804 407.19
97.2188 172498 415.329
97.336 177824 421.692
97.4532 176322 419.907
97.5704 175317 418.709
97.6877 171187 413.748
97.805 160640 400.799
97.9223 150444 387.871
98.0396 140584 374.945
98.1569 136640 369.648
98.2743 135476 368.071
98.3916 139332 373.272
98.509 149775 387.008
98.6264 156402 395.477
98.7438 163302 404.106
98.8612 168241 410.172
98.9786 172488 415.317
99.096 173991 417.122
99.2134 176669 420.32
99.3308 176048 419.581
99.4482 176206 419.769
99.5656 174186 417.356
99.6831 170883 413.38
99.8005 166965 408.614
99.9179 162567 403.196
100.035 154054 392.497
100.153 144551 380.199
100.27 137514 370.829
100.388 139381 373.338
100.505 147420 383.953
100.622 159227 399.033
100.74 167784 409.614
100.857 172700 415.572
100.975 176101 419.644
101.092 173585 416.635
101.209 174224 417.401
101.327 168549 410.547
101.444 158737 398.418
101.561 149118 386.158
101.679 142299 377.225
101.796 137368 370.632
101.913 137026 370.17
102.03 145276 381.151
102.148 156594 395.72
102.265 152590 390.628
102.382 183539 428.415
102.499 175265 418.647
102.616 179459 423.626
102.733 182293 426.958
102.851 183592 428.476
102.968 185650 430.871
103.085 184832 429.921
103.202 181933 426.536
103.319 179908 424.156
103.436 174788 418.077
103.552 167633 409.43
103.669 156179 395.195
103.786 148069 384.797
103.903 150209 387.568
104.02 158994 398.741
104.137 170857 413.349
104.253 180621 424.995
104.37 186058 431.344
104.487 188788 434.497
104.603 188331 433.971
104.72 184941 430.048
104.836 177894 421.775
104.953 166768 408.372
105.069 156702 395.856
105.186 149330 386.432
105.302 146179 382.334
105.418 149598 386.779
105.535 159082 398.851
105.651 168996 411.091
105.767 175640 419.094
105.883 181793 426.372
105.999 184528 429.567
106.115 0 1
106.231 0 1
106.347 0 1
106.463 0 1
106.579 0 1
106.694 0 1
106.81 0 1
106.926 0 1
107.041 0 1
107.157 0 1
109.576 0 1
109.692 0 1
109.807 0 1
109.923 0 1
110.039 0 1
110.155 0 1
110.27 0 1
110.386 0 1
110.502 0 1
110.618 141843 376.62
110.735 153374 391.63
110.851 158551 398.185
110.967 162360 402.939
111.083 164568 405.67
111.199 166588 408.152
111.316 168242 410.173
111.432 169359 411.533
111.549 167071 408.743
111.665 162879 403.583
111.782 160069 400.086
111.898 154164 392.637
112.015 145593 381.567
112.132 136280 369.161
112.248 127868 357.586
112.365 128408 358.341
112.482 139584 373.609
112.599 144122 379.634
112.716 153065 391.235
112.832 154665 393.275
112.949 153744 392.102
113.066 153821 392.2
113.183 149773 387.005
113.3 142450 377.425
113.417 133509 365.389
113.534 124589 352.972
113.652 119316 345.421
113.769 114802 338.824
113.886 113815 337.365
114.003 118331 343.993
114.12 126009 354.977
114.238 129757 360.218
114.355 132916 364.576
114.472 137158 370.348
114.589 134469 366.7
114.707 137176 370.373
114.824 137247 370.469
114.942 137099 370.269
115.059 135235 367.743
115.176 133381 365.214
115.294 129772 360.239
115.411 125437 354.171
115.529 119087 345.09
115.646 110842 332.929
115.764 103253 321.33
115.881 101455 318.52
115.999 104206 322.81
116.116 110762 332.809
116.234 115928 340.482
116.351 117941 343.425
116.469 117757 343.157
116.586 116776 341.725
116.704 115710 340.162
116.821 111718 334.242
116.939 105694 325.106
117.056 100105 316.394
117.174 94446 307.321
117.291 91075 301.786
117.409 89231 298.716
117.526 91257 302.088
117.644 96404 310.49
117.761 100611 317.192
117.879 104797 323.724
117.996 106547 326.415
118.114 109144 330.369
118.231 112395 335.254
118.349 111409 333.78
118.466 112671 335.665
118.584 114173 337.895
118.701 113866 337.44
118.819 112456 335.345
118.936 111035 333.219
119.053 108956 330.085
119.171 105383 324.627
119.288 99933 316.122
119.405 95002 308.224
119.523 96006 309.848
119.64 99947 316.144
119.757 107076 327.225
119.875 113334 336.651
119.992 115265 339.507
120.109 116325 341.065
120.226 116447 341.243
120.343 117246 342.412
120.46 115355 339.64
120.578 111601 334.067
120.695 106354 326.12
120.812 102754 320.553
120.929 99510 315.452
121.046 98152 313.292
121.163 98382 313.659
121.279 103912 322.354
121.396 109145 330.371
121.513 114939 339.027
121.63 118503 344.243
121.747 122856 350.508
121.863 124448 352.772
121.98 128395 358.322
122.097 129513 359.879
122.213 130457 361.188
122.33 132289 363.716
122.446 131988 363.302
122.563 131456 362.569
122.679 129532 359.906
122.795 126982 356.345
122.912 124116 352.301
123.028 116951 341.981
123.144 112126 334.852
123.26 111945 334.582
123.377 0 1
123.493 0 1
123.609 0 1
123.725 0 1
123.84 0 1
123.956 0 1
124.072 0 1
124.188 0 1
124.303 0 1
124.419 0 1
126.852 0 1
126.968 0 1
127.083 0 1
127.199 0 1
127.315 0 1
127.431 0 1
127.547 0 1
127.663 0 1
127.779 0 1
127.895 0 1
128.011 0 1
128.127 0 1
128.243 0 1
128.359 134269 366.427
128.476 130990 361.925
128.592 135476 368.071
128.708 144341 379.922
128.825 152641 390.693
128.941 157058 396.305
129.058 157608 396.999
129.174 157430 396.774
129.291 155905 394.848
129.408 152960 391.101
129.524 145733 381.75
129.641 138867 372.649
129.758 132838 364.469
129.875 128520 358.497
129.992 124132 352.324
130.108 123164 350.947
130.225 126327 355.425
130.342 131527 362.667
130.459 134908 367.298
130.576 134806 367.159
130.693 138359 371.966
130.81 139724 373.797
130.928 141097 375.629
131.045 141803 376.567
131.162 143344 378.608
131.279 144436 380.047
131.396 141887 376.679
131.513 141217 375.789
131.631 137585 370.925
131.748 131739 362.959
131.865 125187 353.818
131.983 119639 345.889
132.1 121285 348.26
132.217 127458 357.013
132.335 133937 365.974
132.452 137166 370.359
132.57 136780 369.838
132.687 132535 364.054
132.804 139996 374.16
132.922 133573 365.476
133.039 127117 356.535
133.157 121310 348.296
133.274 115926 340.479
133.392 111245 333.534
133.509 106209 325.897
133.627 105589 324.945
133.744 106014 325.598
133.862 110036 331.717
133.979 111503 333.921
134.097 113241 336.513
134.214 115154 339.343
134.332 113637 337.101
134.449 115695 340.14
134.567 115181 339.383
134.684 116189 340.865
134.802 115336 339.612
134.919 114950 339.043
135.037 113163 336.397
135.154 109717 331.236
135.272 105545 324.877
135.389 101341 318.341
135.507 95302 308.71
135.624 94064 306.699
135.742 97013 311.469
135.859 102038 319.434
135.977 104720 323.605
136.094 104528 323.308
136.211 104392 323.098
136.329 102461 320.095
136.446 101669 318.856
136.564 98854 314.411
136.681 93089 305.105
136.798 90984 301.636
136.915 87172 295.249
137.033 84496 290.682
137.15 81729 285.883
137.267 81285 285.105
137.384 83610 289.154
137.502 87026 295.002
137.619 87960 296.581
137.736 90959 301.594
137.853 91019 301.694
137.97 93170 305.238
138.087 95647 309.268
138.204 97210 311.785
138.321 98640 314.07
138.438 101354 318.361
138.555 102699 320.467
138.672 102710 320.484
138.788 101784 319.036
138.905 99402 315.281
139.022 96413 310.504
139.139 94309 307.098
139.255 95855 309.605
139.372 101374 318.393
139.488 107333 327.617
139.605 112599 335.558
139.721 113621 337.077
139.838 115359 339.645
139.954 116018 340.614
140.071 113726 337.233
140.187 115801 340.295
140.303 110224 332
140.419 106717 326.676
140.535 103999 322.489
140.652 101296 318.27
140.768 0 1
140.884 0 1
141 0 1
141.115 0 1
141.231 0 1
141.347 0 1
141.463 0 1
141.578 0 1
141.694 0 1
144.104 0 1
144.219 0 1
144.335 0 1
144.45 0 1
144.566 0 1
144.682 0 1
144.798 0 1
144.914 0 1
145.03 0 1
145.146 98809 314.339
145.262 97860 312.826
145.378 95225 308.585
145.494 91987 303.294
145.61 89080 298.463
145.726 85724 292.787
145.842 83261 288.55
145.959 81844 286.084
146.075 82042 286.43
146.192 83727 289.356
146.308 84058 289.928
146.425 85532 292.459
146.541 85178 291.853
146.658 85468 292.349
146.774 85248 291.973
146.891 85757 292.843
147.008 86271 293.719
147.125 86516 294.136
147.241 86520 294.143
147.358 85353 292.152
147.475 83322 288.656
147.592 80226 283.242
147.709 76024 275.725
147.826 74314 272.606
147.943 74906 273.69
148.06 77315 278.056
148.177 79998 282.839
148.294 81415 285.333
148.411 81333 285.189
148.528 81002 284.609
148.645 79382 281.748
148.762 78438 280.068
148.88 76310 276.243
148.997 76931 277.364
149.114 67899 260.574
149.231 68914 262.515
149.349 66521 257.917
149.466 65629 256.182
149.583 64504 253.976
149.701 65139 255.223
149.818 67245 259.316
149.935 67470 259.75
150.053 68474 261.675
150.17 69336 263.317
150.287 70570 265.65
150.405 71127 266.696
150.522 72700 269.629
150.64 73122 270.411
150.757 73502 271.113
150.875 74583 273.099
150.992 74026 272.077
151.11 74301 272.582
151.227 71882 268.108
151.344 69681 263.972
151.462 68016 260.799
151.579 69597 263.812
151.697 73217 270.586
151.814 77334 278.09
151.932 79336 281.666
152.049 79763 282.423
152.167 79627 282.183
152.284 80530 283.778
152.402 79367 281.721
152.519 77595 278.559
152.636 75889 275.48
152.754 74589 273.11
152.871 73557 271.214
152.989 72221 268.74
153.106 71367 267.146
153.223 71171 266.779
153.341 72467 269.197
153.458 74218 272.43
153.575 75439 274.662
153.693 76898 277.305
153.81 78139 279.534
153.927 79263 281.537
154.044 81252 285.047
154.162 82050 286.444
154.279 84291 290.329
154.396 86686 294.425
154.513 87826 296.355
154.63 89348 298.911
154.747 88647 297.736
154.864 86998 294.954
154.981 84651 290.948
155.098 83680 289.275
155.215 86431 293.991
155.332 90707 301.176
155.449 93755 306.194
155.566 94921 308.093
155.683 95956 309.768
155.8 96375 310.443
155.917 96475 310.604
156.033 96102 310.003
156.15 0 1
156.267 0 1
156.383 0 1
156.5 0 1
156.617 0 1
156.733 0 1
156.85 0 1
156.966 0 1
157.082 0 1
157.199 0 1
157.315 0 1
157.431 0 1
157.547 0 1
157.664 0 1
157.78 0 1
157.896 0 1
158.012 0 1
158.128 0 1
158.244 0 1
158.359 0 1
158.475 0 1
158.591 0 1
158.706 0 1
