
6.15755 0 1
6.2731 0 1
6.3887 0 1
6.50437 0 1
6.62009 0 1
6.73587 0 1
6.8517 0 1
6.96759 0 1
7.08353 0 1
7.19952 0 1
7.31557 0 1
7.43166 0 1
7.54781 0 1
7.664 0 1
7.78024 0 1
7.89653 0 1
8.01286 0 1
8.12924 0 1
8.24567 0 1
8.36213 0 1
8.47864 0 1
8.59519 0 1
8.71178 0 1
8.82841 0 1
8.94508 0 1
9.06179 0 1
9.17853 0 1
9.29531 0 1
9.41212 0 1
9.52897 0 1
9.64584 0 1
9.76276 0 1
9.8797 0 1
9.99667 0 1
10.1137 0 1
10.2307 0 1
10.3478 0 1
10.4648 0 1
10.5819 0 1
10.6991 0 1
10.8162 0 1
10.9334 0 1
11.0506 0 1
11.1678 0 1
11.285 0 1
11.4023 0 1
11.5196 0 1
11.6369 0 1
11.7542 0 1
11.8715 0 1
11.9888 0 1
12.1062 0 1
12.2235 0 1
12.3409 0 1
12.4582 0 1
12.5756 0 1
12.693 0 1
12.8104 0 1
12.9278 0 1
13.0452 0 1
13.1626 0 1
13.28 0 1
13.3974 0 1
13.5149 0 1
13.6323 0 1
13.7497 0 1
13.8671 0 1
13.9845 0 1
14.1019 0 1
14.2193 0 1
14.3367 0 1
14.4541 0 1
14.5714 0 1
14.6888 0 1
14.8062 0 1
14.9235 0 1
15.0408 9100 95.3939
15.1581 9202 95.9271
15.2755 9298 96.4261
15.3927 9360 96.7471
15.51 9095 95.3677
15.6273 9107 95.4306
15.7445 9045 95.1052
15.8617 8819 93.9095
15.9789 9149 95.6504
16.0961 9520 97.5705
16.2132 9876 99.3781
16.3304 10346 101.715
16.4475 10542 102.674
16.5646 10478 102.362
16.6816 10605 102.981
16.7986 10449 102.22
16.9156 10403 101.995
17.0326 10505 102.494
17.1496 10439 102.171
17.2665 10218 101.084
17.3833 10214 101.064
17.5002 10230 101.143
17.617 10551 102.718
17.7338 10724 103.557
17.8505 10758 103.721
17.9672 11043 105.086
18.0839 11438 106.949
18.2005 11503 107.252
18.3171 11692 108.13
18.4337 12046 109.754
18.5502 12216 110.526
18.6666 12502 111.812
18.7831 12306 110.932
18.8994 12176 110.345
19.0158 12064 109.836
19.1321 11601 107.708
19.2483 11309 106.344
19.3645 11008 104.919
19.4806 11049 105.114
19.5967 11711 108.217
19.7128 11776 108.517
19.8288 11946 109.298
19.9447 11048 105.109
20.0606 0 1
20.1764 0 1
20.2922 0 1
20.4079 0 1
20.5236 0 1
20.6392 0 1
20.7548 0 1
20.8702 0 1
23.3078 0 1
23.4233 0 1
23.539 0 1
23.6547 0 1
23.7704 0 1
23.8862 0 1
24.0021 0 1
24.118 0 1
24.234 0 1
24.35 0 1
24.4661 11564 107.536
24.5822 11576 107.592
24.6984 11729 108.301
24.8146 12038 109.718
24.9309 12383 111.279
25.0472 12970 113.886
25.1636 13005 114.039
25.28 13299 115.321
25.3965 13348 115.534
25.513 13070 114.324
25.6296 12873 113.459
25.7462 12894 113.552
25.8628 12874 113.464
25.9795 12696 112.677
26.0962 12667 112.548
26.213 12929 113.706
26.3298 13263 115.165
26.4466 13573 116.503
26.5635 13663 116.889
26.6804 14017 118.393
26.7973 14499 120.412
26.9143 14426 120.108
27.0313 14847 121.848
27.1483 14960 122.311
27.2653 14880 121.984
27.3824 15282 123.62
27.4996 14712 121.293
27.6167 14126 118.853
27.7339 14307 119.612
27.8511 13503 116.202
27.9683 13301 115.33
28.0855 12636 112.41
28.2028 12751 112.92
28.3201 12492 111.768
28.4374 12981 113.934
28.5547 13507 116.22
28.6721 13824 117.576
28.7894 14210 119.206
28.9068 14144 118.929
29.0242 13890 117.856
29.1416 13449 115.97
29.259 12933 113.723
29.3764 12807 113.168
29.4939 12601 112.254
29.6113 12439 111.53
29.7288 12780 113.049
29.8463 13031 114.153
29.9638 13396 115.741
30.0812 13742 117.226
30.1987 14213 119.218
30.3162 14395 119.979
30.4337 14681 121.165
30.5512 15038 122.63
30.6687 15172 123.175
30.7862 15326 123.798
30.9037 15293 123.665
31.0212 15314 123.75
31.1387 15124 122.98
31.2562 14733 121.38
31.3737 14272 119.465
31.4912 13996 118.305
31.6087 13522 116.284
31.7262 13101 114.46
31.8436 13186 114.83
31.9611 13675 116.94
32.0785 14091 118.706
32.1959 14515 120.478
32.3134 14893 122.037
32.4308 14896 122.049
32.5482 14697 121.231
32.6655 14221 119.252
32.7829 13861 117.733
32.9002 13537 116.349
33.0176 13269 115.191
33.1349 13169 114.756
33.2522 13269 115.191
33.3694 13020 114.105
33.4867 13405 115.78
33.6039 14114 118.802
33.7211 14400 120
33.8383 14923 122.16
33.9554 15163 123.138
34.0725 15447 124.286
34.1896 15806 125.722
34.3067 15916 126.159
34.4237 16037 126.637
34.5407 15806 125.722
34.6577 16097 126.874
34.7746 15953 126.305
34.8915 15189 123.244
35.0084 14917 122.135
35.1252 14574 120.723
35.242 14077 118.647
35.3587 13803 117.486
35.4755 13652 116.842
35.5921 13969 118.191
35.7088 14281 119.503
35.8254 14651 121.041
35.9419 15085 122.821
36.0584 15074 122.776
36.1749 15429 124.214
36.2913 15004 122.491
36.4077 14604 120.847
36.524 13954 118.127
36.6403 13600 116.619
36.7565 13365 115.607
36.8727 13245 115.087
36.9889 13185 114.826
37.1049 13304 115.343
37.221 0 1
37.3369 0 1
37.4529 0 1
37.5687 0 1
37.6845 0 1
37.8003 0 1
37.916 0 1
38.0316 0 1
38.1472 0 1
40.5851 0 1
40.7008 0 1
40.8164 0 1
40.9322 0 1
41.048 0 1
41.1639 0 1
41.2798 0 1
41.3958 0 1
41.5118 0 1
41.6279 0 1
41.744 11458 107.042
41.8602 11600 107.703
41.9765 11622 107.805
42.0928 11522 107.341
42.2091 11690 108.12
42.3255 12332 111.05
42.4419 12757 112.947
42.5584 13105 114.477
42.675 13612 116.67
42.7915 14205 119.185
42.9081 14497 120.403
43.0248 14355 119.812
43.1415 14668 121.112
43.2582 14787 121.602
43.375 14726 121.351
43.4918 14531 120.545
43.6087 14421 120.087
43.7256 13868 117.762
43.8425 13547 116.392
43.9595 13212 114.943
44.0765 13017 114.092
44.1935 12391 111.315
44.3106 12297 110.892
44.4277 12033 109.695
44.5448 12309 110.946
44.6619 12772 113.013
44.7791 12875 113.468
44.8963 12731 112.832
45.0136 12451 111.584
45.1308 11872 108.959
45.2481 11308 106.339
45.3654 10877 104.293
45.4827 10124 100.618
45.6001 10216 101.074
45.7174 10157 100.782
45.8348 10386 101.912
45.9522 10591 102.913
46.0697 11071 105.219
46.1871 11673 108.042
46.3046 11877 108.982
46.422 12399 111.351
46.5395 12531 111.942
46.657 12513 111.862
46.7745 12855 113.38
46.892 12615 112.317
47.0096 12430 111.49
47.1271 12490 111.759
47.2446 12199 110.449
47.3622 11831 108.77
47.4797 11540 107.424
47.5973 11164 105.66
47.7149 10718 103.528
47.8324 10349 101.73
47.95 10354 101.755
48.0675 10255 101.267
48.1851 10679 103.339
48.3027 10617 103.039
48.4202 10771 103.783
48.5378 10434 102.147
48.6554 10093 100.464
48.7729 9492 97.4269
48.8904 8999 94.8631
49.008 8739 93.4826
49.1255 8512 92.2605
49.243 8423 91.7769
49.3605 8694 93.2416
49.478 9124 95.5196
49.5955 9680 98.387
49.713 9965 99.8248
49.8304 10435 102.152
49.9479 10972 104.747
50.0653 11369 106.626
50.1827 11541 107.429
50.3001 11777 108.522
50.4175 11984 109.471
50.5348 12105 110.023
50.6521 12032 109.69
50.7694 12006 109.572
50.8867 11924 109.197
51.004 11999 109.54
51.1212 11769 108.485
51.2384 11632 107.852
51.3556 11493 107.205
51.4727 11455 107.028
51.5899 12070 109.864
51.707 12547 112.013
51.824 13131 114.591
51.9411 13602 116.628
52.0581 13467 116.047
52.175 13393 115.728
52.2919 12847 113.345
52.4088 11987 109.485
52.5257 11777 108.522
52.6425 11436 106.939
52.7593 11529 107.373
52.876 11774 108.508
52.9927 12648 112.463
53.1094 13565 116.469
53.226 14351 119.796
53.3426 15206 123.313
53.4591 16420 128.141
53.5756 16934 130.131
53.692 17077 130.679
53.8084 17692 133.011
53.9248 17842 133.574
54.0411 18220 134.981
54.1573 18273 135.178
54.2735 0 1
54.3896 0 1
54.5057 0 1
54.6217 0 1
54.7377 0 1
54.8537 0 1
54.9695 0 1
55.0853 0 1
55.2011 0 1
55.3168 0 1
55.4324 0 1
57.824 0 1
57.9396 0 1
58.0553 0 1
58.1711 0 1
58.2869 0 1
58.4028 0 1
58.5187 0 1
58.6347 0 1
58.7508 0 1
58.8669 0 1
58.983 20656 143.722
59.0992 21786 147.601
59.2155 21971 148.226
59.3318 22292 149.305
59.4482 22008 148.351
59.5646 21755 147.496
59.681 21300 145.945
59.7975 21009 144.945
59.9141 20731 143.983
60.0306 20349 142.65
60.1473 20351 142.657
60.2639 20339 142.615
60.3807 20353 142.664
60.4974 20319 142.545
60.6142 20266 142.359
60.731 19725 140.446
60.8479 18513 136.062
60.9648 17780 133.342
61.0818 16742 129.391
61.1987 16138 127.035
61.3158 15754 125.515
61.4328 15848 125.889
61.5499 16504 128.468
61.667 16948 130.184
61.7841 18021 134.242
61.9013 19081 138.134
62.0185 19762 140.577
62.1357 20646 143.687
62.253 20865 144.447
62.3702 21212 145.643
62.4875 21596 146.956
62.6049 21641 147.109
62.7222 21521 146.7
62.8396 21429 146.386
62.9569 21355 146.134
63.0743 20925 144.655
63.1918 20706 143.896
63.3092 20329 142.58
63.4267 19561 139.861
63.5441 19728 140.456
63.6616 19543 139.796
63.7791 19532 139.757
63.8966 19642 140.15
64.0142 19860 140.926
64.1317 19729 140.46
64.2492 19127 138.3
64.3668 18288 135.233
64.4843 17093 130.74
64.6019 16069 126.764
64.7195 15481 124.423
64.837 14933 122.201
64.9546 15061 122.723
65.0722 15283 123.624
65.1898 15869 125.972
65.3074 17462 132.144
65.4249 18004 134.179
65.5425 19233 138.683
65.6601 20174 142.035
65.7777 20791 144.191
65.8952 21141 145.399
66.0128 21338 146.075
66.1304 21495 146.612
66.2479 21821 147.719
66.3655 21830 147.75
66.483 21796 147.635
66.6005 21828 147.743
66.718 21416 146.342
66.8355 21179 145.53
66.953 20712 143.917
67.0705 20592 143.499
67.1879 20567 143.412
67.3054 20117 141.834
67.4228 20422 142.906
67.5402 20884 144.513
67.6576 21069 145.152
67.7749 20603 143.537
67.8923 20554 143.367
68.0096 19657 140.203
68.1269 18498 136.007
68.2442 17485 132.231
68.3614 16616 128.903
68.4787 16017 126.558
68.5958 15984 126.428
68.713 16643 129.008
68.8302 17586 132.612
68.9473 18835 137.241
69.0643 20753 144.059
69.1814 21727 147.401
69.2984 23188 152.276
69.4154 24164 155.448
69.5323 24634 156.952
69.6492 25150 158.588
69.7661 25807 160.646
69.8829 25858 160.804
69.9997 26128 161.642
70.1165 26222 161.932
70.2332 26643 163.227
70.3499 25987 161.205
70.4665 25427 159.458
70.5831 25649 160.153
70.6996 25272 158.972
70.8161 24765 157.369
70.9326 24871 157.705
71.049 25027 158.199
71.1653 25161 158.622
71.2817 25175 158.666
71.3979 25085 158.382
71.5141 24286 155.84
71.6303 22438 149.793
71.7464 19201 138.568
71.8624 0 1
71.9784 0 1
72.0944 0 1
72.2102 0 1
72.3261 0 1
72.4418 0 1
72.5575 0 1
72.6732 0 1
75.1054 0 1
75.2209 0 1
75.3365 0 1
75.4521 0 1
75.5678 0 1
75.6835 0 1
75.7993 0 1
75.9151 0 1
76.031 0 1
76.147 25158 158.613
76.263 26434 162.585
76.3791 27231 165.018
76.4952 28258 168.101
76.6113 28966 170.194
76.7276 29296 171.161
76.8438 28673 169.331
76.9601 26771 163.618
77.0765 25234 158.852
77.1929 22805 151.013
77.3093 21109 145.289
77.4258 19787 140.666
77.5423 19782 140.648
77.6589 19949 141.241
77.7755 21192 145.575
77.8921 23300 152.643
78.0088 25576 159.925
78.1256 27495 165.816
78.2423 29493 171.735
78.3591 30879 175.724
78.4759 31409 177.226
78.5928 32036 178.986
78.7097 32137 179.268
78.8266 31158 176.516
78.9436 33726 183.646
79.0606 31955 178.76
79.1776 31721 178.104
79.2946 31636 177.865
79.4117 31266 176.822
79.5288 30893 175.764
79.6459 30694 175.197
79.7631 29710 172.366
79.8802 29678 172.273
79.9974 29316 171.219
80.1147 29609 172.073
80.2319 30503 174.651
80.3491 31222 176.697
80.4664 30685 175.171
80.5837 29184 170.833
80.701 27364 165.421
80.8183 24653 157.013
80.9357 22125 148.745
81.053 20501 143.182
81.1704 19812 140.755
81.2877 19836 140.84
81.4051 20471 143.077
81.5225 22095 148.644
81.6399 24815 157.528
81.7573 27276 165.154
81.8747 28681 169.355
81.9922 30213 173.819
82.1096 31495 177.468
82.227 31733 178.138
82.3444 31824 178.393
82.4619 31811 178.356
82.5793 32416 180.044
82.6967 31766 178.23
82.8142 31192 176.613
82.9316 30983 176.02
83.049 30050 173.349
83.1664 29763 172.52
83.2838 29322 171.237
83.4012 28832 169.8
83.5186 28802 169.712
83.636 28071 167.544
83.7534 28489 168.787
83.8708 29193 170.86
83.9881 29591 172.02
84.1055 29786 172.586
84.2228 28286 168.184
84.3401 26709 163.429
84.4575 23933 154.703
84.5747 21851 147.821
84.692 20688 143.833
84.8093 19675 140.268
84.9265 19720 140.428
85.0437 20974 144.824
85.1609 23099 151.984
85.2781 25714 160.356
85.3952 28146 167.768
85.5123 30273 173.991
85.6294 32407 180.019
85.7465 33993 184.372
85.8636 35157 187.502
85.9806 35544 188.531
86.0976 35671 188.868
86.2145 36656 191.458
86.3315 37794 194.407
86.4484 35697 188.936
86.5652 37241 192.979
86.682 37278 193.075
86.7988 37118 192.66
86.9156 36949 192.221
87.0323 36762 191.734
87.149 36514 191.086
87.2657 36570 191.233
87.3823 37763 194.327
87.4988 38623 196.527
87.6154 39561 198.899
87.7318 38997 197.477
87.8483 36959 192.247
87.9647 33665 183.48
88.081 31095 176.338
88.1973 28648 169.257
88.3136 26186 161.821
88.4298 26063 161.44
88.546 26865 163.905
88.6621 29257 171.047
88.7781 32181 179.391
88.8942 0 1
89.0101 0 1
89.126 0 1
89.2419 0 1
89.3577 0 1
89.4734 0 1
89.5891 0 1
89.7047 0 1
89.8203 0 1
89.9358 0 1
92.3269 0 1
92.4424 0 1
92.558 0 1
92.6736 0 1
92.7893 0 1
92.905 0 1
93.0208 0 1
93.1366 0 1
93.2525 0 1
93.3685 0 1
93.4845 0 1
93.6005 30110 173.522
93.7167 29003 170.303
93.8328 29350 171.318
93.949 30495 174.628
94.0653 32168 179.354
94.1816 35773 189.138
94.2979 38669 196.644
94.4143 41719 204.252
94.5307 44380 210.666
94.6472 46602 215.875
94.7637 47709 218.424
94.8803 48403 220.007
94.9969 48915 221.167
95.1135 48872 221.07
95.2302 49406 222.275
95.3469 49308 222.054
95.4637 49807 223.175
95.5805 48978 221.31
95.6973 49069 221.515
95.8142 49111 221.61
95.9311 48452 220.118
96.048 47972 219.025
96.1649 47131 217.097
96.2819 46424 215.462
96.3989 47150 217.141
96.516 47536 218.028
96.633 48075 219.26
96.7501 48081 219.274
96.8673 46799 216.331
96.9844 43680 208.998
97.1016 40497 201.239
97.2188 37429 193.466
97.336 34404 185.483
97.4532 31702 178.051
97.5704 30959 175.952
97.6877 31425 177.271
97.805 33433 182.847
97.9223 36224 190.326
98.0396 39798 199.494
98.1569 43514 208.6
98.2743 45503 213.314
98.3916 48342 219.868
98.509 49951 223.497
98.6264 51053 225.949
98.7438 51121 226.1
98.8612 50924 225.663
98.9786 51199 226.272
99.096 51098 226.049
99.2134 50565 224.867
99.3308 51091 226.033
99.4482 51082 226.013
99.5656 50639 225.031
99.6831 50263 224.194
99.8005 48772 220.844
99.9179 48622 220.504
100.035 49030 221.427
100.153 50023 223.658
100.27 50664 225.087
100.388 50845 225.488
100.505 48719 220.724
100.622 45311 212.864
100.74 42174 205.363
100.857 38170 195.371
100.975 34953 186.957
101.092 32390 179.972
101.209 31953 178.754
101.327 33405 182.77
101.444 35951 189.607
101.561 40112 200.28
101.679 43497 208.559
101.796 46926 216.624
101.913 50279 224.23
102.03 51726 227.434
102.148 52693 229.55
102.265 51541 227.026
102.382 54610 233.688
102.499 53652 231.629
102.616 53702 231.737
102.733 52605 229.358
102.851 52167 228.401
102.968 52796 229.774
103.085 52912 230.026
103.202 52629 229.41
103.319 51528 226.998
103.436 50935 225.688
103.552 50873 225.55
103.669 51629 227.22
103.786 52893 229.985
103.903 53195 230.64
104.02 51687 227.348
104.137 48784 220.871
104.253 45530 213.378
104.37 41621 204.012
104.487 37978 194.879
104.603 35401 188.152
104.72 35025 187.15
104.836 35675 188.878
104.953 38000 194.936
105.069 41980 204.89
105.186 46212 214.97
105.302 50363 224.417
105.418 53511 231.324
105.535 55299 235.157
105.651 56427 237.544
105.767 56943 238.627
105.883 57528 239.85
105.999 56795 238.317
106.115 0 1
106.231 0 1
106.347 0 1
106.463 0 1
106.579 0 1
106.694 0 1
106.81 0 1
106.926 0 1
107.041 0 1
107.157 0 1
109.576 0 1
109.692 0 1
109.807 0 1
109.923 0 1
110.039 0 1
110.155 0 1
110.27 0 1
110.386 0 1
110.502 0 1
110.618 50221 224.1
110.735 51479 226.89
110.851 52424 228.963
110.967 52434 228.985
111.083 52751 229.676
111.199 52004 228.044
111.316 52441 229
111.432 53014 230.248
111.549 53056 230.339
111.665 51518 226.976
111.782 50478 224.673
111.898 49859 223.291
112.015 49476 222.432
112.132 50870 225.544
112.248 50986 225.801
112.365 51064 225.973
112.482 48305 219.784
112.599 47676 218.348
112.716 43123 207.661
112.832 40080 200.2
112.949 37093 192.595
113.066 33972 184.315
113.183 32727 180.906
113.3 33165 182.113
113.417 34457 185.626
113.534 37024 192.416
113.652 39647 199.116
113.769 43243 207.95
113.886 45896 214.234
114.003 47096 217.016
114.12 48468 220.154
114.238 49608 222.729
114.355 49373 222.2
114.472 49227 221.872
114.589 49608 222.729
114.707 48093 219.301
114.824 47845 218.735
114.942 48081 219.274
115.059 48604 220.463
115.176 48743 220.778
115.294 48247 219.652
115.411 46577 215.817
115.529 46902 216.569
115.646 46909 216.585
115.764 48104 219.326
115.881 48332 219.845
115.999 47932 218.934
116.116 46306 215.188
116.234 43723 209.1
116.351 41264 203.135
116.469 38503 196.222
116.586 35313 187.918
116.704 33371 182.677
116.821 32647 180.685
116.939 33106 181.951
117.056 34215 184.973
117.174 36535 191.141
117.291 38771 196.904
117.409 41987 204.907
117.526 44375 210.654
117.644 46227 215.005
117.761 46985 216.76
117.879 47681 218.36
117.996 47644 218.275
118.114 47951 218.977
118.231 47421 217.764
118.349 46468 215.564
118.466 46378 215.356
118.584 46661 216.012
118.701 47152 217.145
118.819 47025 216.852
118.936 45873 214.18
119.053 44779 211.61
119.171 44305 210.488
119.288 44944 212
119.405 46278 215.123
119.523 46516 215.676
119.64 45971 214.408
119.757 44585 211.152
119.875 42796 206.872
119.992 40220 200.549
120.109 37707 194.183
120.226 35470 188.335
120.343 33414 182.795
120.46 31964 178.785
120.578 31971 178.804
120.695 32292 179.7
120.812 33896 184.109
120.929 36453 190.927
121.046 38686 196.688
121.163 40947 202.354
121.279 42807 206.899
121.396 44248 210.352
121.513 44590 211.163
121.63 46227 215.005
121.747 45446 213.181
121.863 45111 212.394
121.98 44958 212.033
122.097 44271 210.407
122.213 43685 209.01
122.33 44339 210.568
122.446 44738 211.514
122.563 44113 210.031
122.679 43405 208.339
122.795 41970 204.866
122.912 42188 205.397
123.028 42428 205.981
123.144 42700 206.64
123.26 42792 206.862
123.377 0 1
123.493 0 1
123.609 0 1
123.725 0 1
123.84 0 1
123.956 0 1
124.072 0 1
124.188 0 1
124.303 0 1
124.419 0 1
126.852 0 1
126.968 0 1
127.083 0 1
127.199 0 1
127.315 0 1
127.431 0 1
127.547 0 1
127.663 0 1
127.779 0 1
127.895 0 1
128.011 0 1
128.127 0 1
128.243 0 1
128.359 45152 212.49
128.476 45370 213.002
128.592 45618 213.584
128.708 43828 209.351
128.825 42351 205.794
128.941 40282 200.704
129.058 37965 194.846
129.174 36165 190.171
129.291 34961 186.979
129.408 34557 185.895
129.524 34410 185.499
129.641 35482 188.367
129.758 37677 194.106
129.875 39833 199.582
129.992 41417 203.512
130.108 43127 207.67
130.225 44264 210.39
130.342 44923 211.95
130.459 43975 209.702
130.576 46362 215.318
130.693 44382 210.67
130.81 43638 208.897
130.928 43687 209.014
131.045 43429 208.396
131.162 44563 211.1
131.279 45238 212.692
131.396 44949 212.012
131.513 44421 210.763
131.631 43893 209.507
131.748 43968 209.685
131.865 45194 212.589
131.983 44988 212.104
132.1 44831 211.733
132.217 43208 207.865
132.335 42005 204.951
132.452 40389 200.97
132.57 38406 195.974
132.687 36009 189.76
132.804 35263 187.784
132.922 34017 184.437
133.039 33755 183.725
133.157 34213 184.968
133.274 35808 189.23
133.392 37236 192.966
133.509 38959 197.38
133.627 40935 202.324
133.744 41786 204.416
133.862 42563 206.308
133.979 42700 206.64
134.097 43264 208
134.214 42885 207.087
134.332 42495 206.143
134.449 41225 203.039
134.567 40870 202.163
134.684 41980 204.89
134.802 43043 207.468
134.919 42850 207.002
135.037 42736 206.727
135.154 41720 204.255
135.272 41875 204.634
135.389 42358 205.811
135.507 42854 207.012
135.624 42717 206.681
135.742 42672 206.572
135.859 41268 203.145
135.977 39976 199.94
136.094 38174 195.382
136.211 37115 192.653
136.329 35201 187.619
136.446 33534 183.123
136.564 33298 182.477
136.681 33224 182.275
136.798 34148 184.792
136.915 34658 186.167
137.033 36404 190.798
137.15 37515 193.688
137.267 38848 197.099
137.384 39725 199.311
137.502 39902 199.755
137.619 40132 200.33
137.736 40701 201.745
137.853 39826 199.565
137.97 39692 199.229
138.087 38546 196.331
138.204 38840 197.079
138.321 39796 199.489
138.438 41106 202.746
138.555 41118 202.776
138.672 40761 201.894
138.788 40356 200.888
138.905 40375 200.935
139.022 40941 202.339
139.139 41682 204.162
139.255 41321 203.276
139.372 41247 203.094
139.488 40221 200.552
139.605 39030 197.56
139.721 38081 195.144
139.838 36352 190.662
139.954 34526 185.812
140.071 33759 183.736
140.187 33289 182.453
140.303 32749 180.967
140.419 32915 181.425
140.535 32970 181.576
140.652 33332 182.571
140.768 0 1
140.884 0 1
141 0 1
141.115 0 1
141.231 0 1
141.347 0 1
141.463 0 1
141.578 0 1
141.694 0 1
144.104 0 1
144.219 0 1
144.335 0 1
144.45 0 1
144.566 0 1
144.682 0 1
144.798 0 1
144.914 0 1
145.03 0 1
145.146 22742 150.805
145.262 24939 157.921
145.378 25525 159.765
145.494 25733 160.415
145.61 26449 162.631
145.726 26901 164.015
145.842 27979 167.269
145.959 28673 169.331
146.075 29271 171.088
146.192 29490 171.727
146.308 29664 172.232
146.425 29772 172.546
146.541 29826 172.702
146.658 29492 171.732
146.774 29319 171.228
146.891 28650 169.263
147.008 28936 170.106
147.125 29303 171.181
147.241 30316 174.115
147.358 30633 175.023
147.475 30606 174.946
147.592 30520 174.7
147.709 30376 174.287
147.826 31059 176.236
147.943 31060 176.238
148.06 31523 177.547
148.177 30889 175.753
148.294 30268 173.977
148.411 30011 173.237
148.528 29222 170.944
148.645 28451 168.674
148.762 28072 167.547
148.88 26966 164.213
148.997 26727 163.484
149.114 27480 165.771
149.231 26647 163.239
149.349 26618 163.15
149.466 27713 166.472
149.583 28275 168.152
149.701 28661 169.296
149.818 29500 171.756
149.935 29953 173.069
150.053 30082 173.442
150.17 30187 173.744
150.287 30331 174.158
150.405 29840 172.743
150.522 29509 171.782
150.64 29240 170.997
150.757 29397 171.456
150.875 29982 173.153
150.992 30124 173.563
151.11 30976 176
151.227 31278 176.856
151.344 30770 175.414
151.462 30761 175.388
151.579 31613 177.8
151.697 31661 177.935
151.814 30950 175.926
151.932 31125 176.423
152.049 30355 174.227
152.167 29800 172.627
152.284 29201 170.883
152.402 28475 168.745
152.519 27886 166.991
152.636 27946 167.171
152.754 27501 165.834
152.871 27649 166.28
152.989 28138 167.744
153.106 28167 167.83
153.223 28376 168.452
153.341 29216 170.927
153.458 29868 172.824
153.575 30145 173.623
153.693 30342 174.19
153.81 30756 175.374
153.927 30326 174.144
154.044 29968 173.113
154.162 29198 170.874
154.279 29467 171.66
154.396 29698 172.331
154.513 30970 175.983
154.63 31611 177.795
154.747 32306 179.739
154.864 32179 179.385
154.981 32582 180.505
155.098 32434 180.094
155.215 32435 180.097
155.332 32347 179.853
155.449 32100 179.165
155.566 31709 178.07
155.683 31181 176.581
155.8 31010 176.097
155.917 30331 174.158
156.033 29443 171.59
156.15 0 1
156.267 0 1
156.383 0 1
156.5 0 1
156.617 0 1
156.733 0 1
156.85 0 1
156.966 0 1
157.082 0 1
157.199 0 1
157.315 0 1
157.431 0 1
157.547 0 1
157.664 0 1
157.78 0 1
157.896 0 1
158.012 0 1
158.128 0 1
158.244 0 1
158.359 0 1
158.475 0 1
158.591 0 1
158.706 0 1
