
6.15755 0 1
6.2731 0 1
6.3887 0 1
6.50437 0 1
6.62009 0 1
6.73587 0 1
6.8517 0 1
6.96759 0 1
7.08353 0 1
7.19952 0 1
7.31557 0 1
7.43166 0 1
7.54781 0 1
7.664 0 1
7.78024 0 1
7.89653 0 1
8.01286 0 1
8.12924 0 1
8.24567 0 1
8.36213 0 1
8.47864 0 1
8.59519 0 1
8.71178 0 1
8.82841 0 1
8.94508 0 1
9.06179 0 1
9.17853 0 1
9.29531 0 1
9.41212 0 1
9.52897 0 1
9.64584 0 1
9.76276 0 1
9.8797 0 1
9.99667 0 1
10.1137 0 1
10.2307 0 1
10.3478 0 1
10.4648 0 1
10.5819 0 1
10.6991 0 1
10.8162 0 1
10.9334 0 1
11.0506 0 1
11.1678 0 1
11.285 0 1
11.4023 0 1
11.5196 0 1
11.6369 0 1
11.7542 0 1
11.8715 0 1
11.9888 0 1
12.1062 0 1
12.2235 0 1
12.3409 0 1
12.4582 0 1
12.5756 0 1
12.693 0 1
12.8104 0 1
12.9278 0 1
13.0452 0 1
13.1626 0 1
13.28 0 1
13.3974 0 1
13.5149 0 1
13.6323 0 1
13.7497 0 1
13.8671 0 1
13.9845 0 1
14.1019 0 1
14.2193 0 1
14.3367 0 1
14.4541 0 1
14.5714 0 1
14.6888 0 1
14.8062 0 1
14.9235 0 1
15.0408 1037 32.2025
15.1581 1145 33.8378
15.2755 1119 33.4515
15.3927 1161 34.0735
15.51 1168 34.176
15.6273 1144 33.8231
15.7445 1102 33.1964
15.8617 1152 33.9411
15.9789 1096 33.1059
16.0961 1042 32.28
16.2132 1075 32.7872
16.3304 1079 32.8481
16.4475 1075 32.7872
16.5646 1029 32.078
16.6816 1081 32.8786
16.7986 1074 32.7719
16.9156 1076 32.8024
17.0326 1134 33.6749
17.1496 1104 33.2265
17.2665 1089 33
17.3833 1087 32.9697
17.5002 1172 34.2345
17.617 1171 34.2199
17.7338 1225 35
17.8505 1187 34.4529
17.9672 1288 35.8887
18.0839 1349 36.7287
18.2005 1366 36.9594
18.3171 1397 37.3765
18.4337 1409 37.5366
18.5502 1424 37.7359
18.6666 1334 36.524
18.7831 1413 37.5899
18.8994 1338 36.5787
19.0158 1270 35.6371
19.1321 1288 35.8887
19.2483 1236 35.1568
19.3645 1217 34.8855
19.4806 1157 34.0147
19.5967 1076 32.8024
19.7128 1132 33.6452
19.8288 1049 32.3883
19.9447 980 31.305
20.0606 0 1
20.1764 0 1
20.2922 0 1
20.4079 0 1
20.5236 0 1
20.6392 0 1
20.7548 0 1
20.8702 0 1
23.3078 0 1
23.4233 0 1
23.539 0 1
23.6547 0 1
23.7704 0 1
23.8862 0 1
24.0021 0 1
24.118 0 1
24.234 0 1
24.35 0 1
24.4661 1169 34.1906
24.5822 1131 33.6303
24.6984 1030 32.0936
24.8146 1188 34.4674
24.9309 1140 33.7639
25.0472 1141 33.7787
25.1636 1072 32.7414
25.28 1090 33.0151
25.3965 1068 32.6803
25.513 1138 33.7343
25.6296 1205 34.7131
25.7462 1153 33.9559
25.8628 1170 34.2053
25.9795 1279 35.7631
26.0962 1260 35.4965
26.213 1307 36.1525
26.3298 1279 35.7631
26.4466 1258 35.4683
26.5635 1267 35.5949
26.6804 1403 37.4566
26.7973 1304 36.1109
26.9143 1318 36.3043
27.0313 1298 36.0278
27.1483 1345 36.6742
27.2653 1355 36.8103
27.3824 1309 36.1801
27.4996 1334 36.524
27.6167 1186 34.4384
27.7339 1212 34.8138
27.8511 1104 33.2265
27.9683 1085 32.9393
28.0855 1048 32.3728
28.2028 1093 33.0606
28.3201 1106 33.2566
28.4374 1024 32
28.5547 1133 33.6601
28.6721 1139 33.7491
28.7894 1038 32.218
28.9068 1088 32.9848
29.0242 1059 32.5423
29.1416 1086 32.9545
29.259 1070 32.7109
29.3764 1085 32.9393
29.4939 1058 32.5269
29.6113 1212 34.8138
29.7288 1195 34.5688
29.8463 1249 35.3412
29.9638 1191 34.5109
30.0812 1237 35.171
30.1987 1263 35.5387
30.3162 1334 36.524
30.4337 1325 36.4005
30.5512 1211 34.7994
30.6687 1275 35.7071
30.7862 1292 35.9444
30.9037 1192 34.5254
31.0212 1238 35.1852
31.1387 1169 34.1906
31.2562 1165 34.1321
31.3737 1055 32.4808
31.4912 1090 33.0151
31.6087 1073 32.7567
31.7262 1047 32.3574
31.8436 1015 31.8591
31.9611 1010 31.7805
32.0785 979 31.289
32.1959 1032 32.1248
32.3134 1124 33.5261
32.4308 1046 32.3419
32.5482 1039 32.2335
32.6655 1097 33.121
32.7829 1054 32.4654
32.9002 1044 32.311
33.0176 1025 32.0156
33.1349 1162 34.0881
33.2522 1040 32.249
33.3694 1087 32.9697
33.4867 1164 34.1174
33.6039 1183 34.3948
33.7211 1168 34.176
33.8383 1231 35.0856
33.9554 1292 35.9444
34.0725 1260 35.4965
34.1896 1279 35.7631
34.3067 1224 34.9857
34.4237 1202 34.6699
34.5407 1194 34.5543
34.6577 1116 33.4066
34.7746 1076 32.8024
34.8915 1070 32.7109
35.0084 1068 32.6803
35.1252 1036 32.187
35.242 1014 31.8434
35.3587 959 30.9677
35.4755 976 31.241
35.5921 1026 32.0312
35.7088 970 31.1448
35.8254 1066 32.6497
35.9419 1042 32.28
36.0584 1084 32.9242
36.1749 1096 33.1059
36.2913 1137 33.7194
36.4077 1062 32.5883
36.524 1078 32.8329
36.6403 1061 32.573
36.7565 1062 32.5883
36.8727 1036 32.187
36.9889 1072 32.7414
37.1049 1073 32.7567
37.221 0 1
37.3369 0 1
37.4529 0 1
37.5687 0 1
37.6845 0 1
37.8003 0 1
37.916 0 1
38.0316 0 1
38.1472 0 1
40.5851 0 1
40.7008 0 1
40.8164 0 1
40.9322 0 1
41.048 0 1
41.1639 0 1
41.2798 0 1
41.3958 0 1
41.5118 0 1
41.6279 0 1
41.744 804 28.3549
41.8602 876 29.5973
41.9765 925 30.4138
42.0928 910 30.1662
42.2091 953 30.8707
42.3255 945 30.7409
42.4419 926 30.4302
42.5584 974 31.209
42.675 969 31.1288
42.7915 1116 33.4066
42.9081 994 31.5278
43.0248 1056 32.4962
43.1415 916 30.2655
43.2582 1038 32.218
43.375 963 31.0322
43.4918 1027 32.0468
43.6087 1017 31.8904
43.7256 997 31.5753
43.8425 991 31.4802
43.9595 957 30.9354
44.0765 963 31.0322
44.1935 902 30.0333
44.3106 959 30.9677
44.4277 966 31.0805
44.5448 892 29.8664
44.6619 811 28.4781
44.7791 895 29.9166
44.8963 864 29.3939
45.0136 852 29.189
45.1308 828 28.775
45.2481 864 29.3939
45.3654 859 29.3087
45.4827 845 29.0689
45.6001 811 28.4781
45.7174 795 28.1957
45.8348 765 27.6586
45.9522 762 27.6043
46.0697 730 27.0185
46.1871 761 27.5862
46.3046 770 27.7489
46.422 713 26.7021
46.5395 745 27.2947
46.657 760 27.5681
46.7745 726 26.9444
46.892 764 27.6405
47.0096 728 26.9815
47.1271 718 26.7955
47.2446 665 25.7876
47.3622 640 25.2982
47.4797 668 25.8457
47.5973 709 26.6271
47.7149 648 25.4558
47.8324 657 25.632
47.95 692 26.3059
48.0675 641 25.318
48.1851 607 24.6374
48.3027 602 24.5357
48.4202 574 23.9583
48.5378 532 23.0651
48.6554 612 24.7386
48.7729 604 24.5764
48.8904 570 23.8747
49.008 578 24.0416
49.1255 558 23.622
49.243 589 24.2693
49.3605 526 22.9347
49.478 613 24.7588
49.5955 522 22.8473
49.713 558 23.622
49.8304 577 24.0208
49.9479 572 23.9165
50.0653 591 24.3105
50.1827 595 24.3926
50.3001 631 25.1197
50.4175 591 24.3105
50.5348 671 25.9037
50.6521 683 26.1343
50.7694 613 24.7588
50.8867 674 25.9615
51.004 668 25.8457
51.1212 695 26.3629
51.2384 726 26.9444
51.3556 774 27.8209
51.4727 796 28.2135
51.5899 775 27.8388
51.707 745 27.2947
51.824 793 28.1603
51.9411 736 27.1293
52.0581 711 26.6646
52.175 778 27.8927
52.2919 754 27.4591
52.4088 818 28.6007
52.5257 806 28.3901
52.6425 741 27.2213
52.7593 780 27.9285
52.876 755 27.4773
52.9927 770 27.7489
53.1094 816 28.5657
53.226 778 27.8927
53.3426 832 28.8444
53.4591 796 28.2135
53.5756 870 29.4958
53.692 831 28.8271
53.8084 867 29.4449
53.9248 906 30.0998
54.0411 911 30.1828
54.1573 927 30.4467
54.2735 0 1
54.3896 0 1
54.5057 0 1
54.6217 0 1
54.7377 0 1
54.8537 0 1
54.9695 0 1
55.0853 0 1
55.2011 0 1
55.3168 0 1
55.4324 0 1
57.824 0 1
57.9396 0 1
58.0553 0 1
58.1711 0 1
58.2869 0 1
58.4028 0 1
58.5187 0 1
58.6347 0 1
58.7508 0 1
58.8669 0 1
58.983 1026 32.0312
59.0992 1024 32
59.2155 1136 33.7046
59.3318 1090 33.0151
59.4482 1145 33.8378
59.5646 1163 34.1028
59.681 1282 35.805
59.7975 1155 33.9853
59.9141 1166 34.1467
60.0306 1233 35.1141
60.1473 1234 35.1283
60.2639 1173 34.2491
60.3807 1127 33.5708
60.4974 1071 32.7261
60.6142 1019 31.9218
60.731 984 31.3688
60.8479 947 30.7734
60.9648 909 30.1496
61.0818 890 29.8329
61.1987 858 29.2916
61.3158 924 30.3974
61.4328 929 30.4795
61.5499 909 30.1496
61.667 943 30.7083
61.7841 957 30.9354
61.9013 962 31.0161
62.0185 927 30.4467
62.1357 974 31.209
62.253 954 30.8869
62.3702 953 30.8707
62.4875 991 31.4802
62.6049 1013 31.8277
62.7222 993 31.5119
62.8396 1087 32.9697
62.9569 1078 32.8329
63.0743 1133 33.6601
63.1918 1182 34.3802
63.3092 1164 34.1174
63.4267 1186 34.4384
63.5441 1140 33.7639
63.6616 1109 33.3017
63.7791 1084 32.9242
63.8966 1113 33.3617
64.0142 978 31.273
64.1317 888 29.7993
64.2492 907 30.1164
64.3668 824 28.7054
64.4843 835 28.8964
64.6019 772 27.7849
64.7195 750 27.3861
64.837 764 27.6405
64.9546 839 28.9655
65.0722 790 28.1069
65.1898 906 30.0998
65.3074 873 29.5466
65.4249 869 29.4788
65.5425 891 29.8496
65.6601 950 30.8221
65.7777 922 30.3645
65.8952 950 30.8221
66.0128 889 29.8161
66.1304 981 31.3209
66.2479 948 30.7896
66.3655 1065 32.6343
66.483 1095 33.0908
66.6005 1077 32.8177
66.718 1166 34.1467
66.8355 1166 34.1467
66.953 1095 33.0908
67.0705 1140 33.7639
67.1879 1078 32.8329
67.3054 1096 33.1059
67.4228 1062 32.5883
67.5402 943 30.7083
67.6576 817 28.5832
67.7749 759 27.55
67.8923 810 28.4605
68.0096 799 28.2666
68.1269 838 28.9482
68.2442 801 28.3019
68.3614 814 28.5307
68.4787 829 28.7924
68.5958 844 29.0517
68.713 883 29.7153
68.8302 902 30.0333
68.9473 920 30.3315
69.0643 918 30.2985
69.1814 909 30.1496
69.2984 922 30.3645
69.4154 946 30.7571
69.5323 922 30.3645
69.6492 977 31.257
69.7661 1022 31.9687
69.8829 1072 32.7414
69.9997 1084 32.9242
70.1165 1159 34.0441
70.2332 1237 35.171
70.3499 1143 33.8083
70.4665 1224 34.9857
70.5831 1256 35.4401
70.6996 1215 34.8569
70.8161 1173 34.2491
70.9326 1091 33.0303
71.049 960 30.9839
71.1653 925 30.4138
71.2817 888 29.7993
71.3979 839 28.9655
71.5141 813 28.5132
71.6303 795 28.1957
71.7464 754 27.4591
71.8624 0 1
71.9784 0 1
72.0944 0 1
72.2102 0 1
72.3261 0 1
72.4418 0 1
72.5575 0 1
72.6732 0 1
75.1054 0 1
75.2209 0 1
75.3365 0 1
75.4521 0 1
75.5678 0 1
75.6835 0 1
75.7993 0 1
75.9151 0 1
76.031 0 1
76.147 1014 31.8434
76.263 1038 32.218
76.3791 962 31.0161
76.4952 915 30.249
76.6113 899 29.9833
76.7276 909 30.1496
76.8438 817 28.5832
76.9601 899 29.9833
77.0765 868 29.4618
77.1929 763 27.6225
77.3093 872 29.5296
77.4258 835 28.8964
77.5423 931 30.5123
77.6589 955 30.9031
77.7755 925 30.4138
77.8921 906 30.0998
78.0088 864 29.3939
78.1256 925 30.4138
78.2423 950 30.8221
78.3591 994 31.5278
78.4759 990 31.4643
78.5928 1007 31.7333
78.7097 1032 32.1248
78.8266 1086 32.9545
78.9436 1154 33.9706
79.0606 1170 34.2053
79.1776 1206 34.7275
79.2946 1233 35.1141
79.4117 1196 34.5832
79.5288 1214 34.8425
79.6459 1211 34.7994
79.7631 1159 34.0441
79.8802 1086 32.9545
79.9974 1007 31.7333
80.1147 985 31.3847
80.2319 912 30.1993
80.3491 903 30.05
80.4664 846 29.0861
80.5837 793 28.1603
80.701 842 29.0172
80.8183 884 29.7321
80.9357 889 29.8161
81.053 856 29.2575
81.1704 923 30.3809
81.2877 924 30.3974
81.4051 941 30.6757
81.5225 919 30.315
81.6399 932 30.5287
81.7573 950 30.8221
81.8747 933 30.545
81.9922 985 31.3847
82.1096 990 31.4643
82.227 1061 32.573
82.3444 1054 32.4654
82.4619 1207 34.7419
82.5793 1197 34.5977
82.6967 1188 34.4674
82.8142 1262 35.5246
82.9316 1228 35.0428
83.049 1222 34.9571
83.1664 1170 34.2053
83.2838 1141 33.7787
83.4012 1110 33.3167
83.5186 1045 32.3265
83.636 927 30.4467
83.7534 917 30.282
83.8708 900 30
83.9881 907 30.1164
84.1055 910 30.1662
84.2228 872 29.5296
84.3401 887 29.7825
84.4575 859 29.3087
84.5747 972 31.1769
84.692 939 30.6431
84.8093 945 30.7409
84.9265 1014 31.8434
85.0437 1052 32.4345
85.1609 935 30.5778
85.2781 948 30.7896
85.3952 1033 32.1403
85.5123 932 30.5287
85.6294 1087 32.9697
85.7465 1116 33.4066
85.8636 1166 34.1467
85.9806 1193 34.5398
86.0976 1178 34.322
86.2145 1210 34.7851
86.3315 1314 36.2491
86.4484 1283 35.819
86.5652 1304 36.1109
86.682 1280 35.7771
86.7988 1344 36.6606
86.9156 1272 35.6651
87.0323 1197 34.5977
87.149 1107 33.2716
87.2657 1059 32.5423
87.3823 1057 32.5115
87.4988 1019 31.9218
87.6154 1035 32.1714
87.7318 977 31.257
87.8483 945 30.7409
87.9647 971 31.1609
88.081 942 30.692
88.1973 1027 32.0468
88.3136 1073 32.7567
88.4298 1085 32.9393
88.546 1058 32.5269
88.6621 973 31.1929
88.7781 979 31.289
88.8942 0 1
89.0101 0 1
89.126 0 1
89.2419 0 1
89.3577 0 1
89.4734 0 1
89.5891 0 1
89.7047 0 1
89.8203 0 1
89.9358 0 1
92.3269 0 1
92.4424 0 1
92.558 0 1
92.6736 0 1
92.7893 0 1
92.905 0 1
93.0208 0 1
93.1366 0 1
93.2525 0 1
93.3685 0 1
93.4845 0 1
93.6005 954 30.8869
93.7167 1059 32.5423
93.8328 946 30.7571
93.949 945 30.7409
94.0653 972 31.1769
94.1816 983 31.3528
94.2979 872 29.5296
94.4143 989 31.4484
94.5307 1026 32.0312
94.6472 1107 33.2716
94.7637 1136 33.7046
94.8803 1157 34.0147
94.9969 1238 35.1852
95.1135 1249 35.3412
95.2302 1243 35.2562
95.3469 1203 34.6843
95.4637 1268 35.609
95.5805 1262 35.5246
95.6973 1221 34.9428
95.8142 1201 34.6554
95.9311 1131 33.6303
96.048 1126 33.5559
96.1649 1063 32.6037
96.2819 1046 32.3419
96.3989 979 31.289
96.516 1001 31.6386
96.633 956 30.9192
96.7501 978 31.273
96.8673 973 31.1929
96.9844 974 31.209
97.1016 983 31.3528
97.2188 967 31.0966
97.336 1047 32.3574
97.4532 1011 31.7962
97.5704 946 30.7571
97.6877 940 30.6594
97.805 964 31.0483
97.9223 916 30.2655
98.0396 912 30.1993
98.1569 968 31.1127
98.2743 972 31.1769
98.3916 1100 33.1662
98.509 1091 33.0303
98.6264 1114 33.3766
98.7438 1097 33.121
98.8612 1160 34.0588
98.9786 1172 34.2345
99.096 1213 34.8281
99.2134 1198 34.6121
99.3308 1258 35.4683
99.4482 1214 34.8425
99.5656 1161 34.0735
99.6831 1146 33.8526
99.8005 1090 33.0151
99.9179 1013 31.8277
100.035 995 31.5436
100.153 993 31.5119
100.27 978 31.273
100.388 899 29.9833
100.505 893 29.8831
100.622 920 30.3315
100.74 874 29.5635
100.857 904 30.0666
100.975 1002 31.6544
101.092 965 31.0644
101.209 960 30.9839
101.327 886 29.7658
101.444 915 30.249
101.561 956 30.9192
101.679 942 30.692
101.796 1037 32.2025
101.913 1013 31.8277
102.03 1090 33.0151
102.148 1167 34.1614
102.265 1110 33.3167
102.382 1342 36.6333
102.499 1206 34.7275
102.616 1320 36.3318
102.733 1221 34.9428
102.851 1295 35.9861
102.968 1321 36.3456
103.085 1270 35.6371
103.202 1167 34.1614
103.319 1120 33.4664
103.436 1073 32.7567
103.552 1063 32.6037
103.669 1004 31.686
103.786 928 30.4631
103.903 1060 32.5576
104.02 978 31.273
104.137 1006 31.7175
104.253 1011 31.7962
104.37 1069 32.6956
104.487 1040 32.249
104.603 992 31.496
104.72 1056 32.4962
104.836 926 30.4302
104.953 967 31.0966
105.069 1006 31.7175
105.186 1013 31.8277
105.302 1134 33.6749
105.418 1130 33.6155
105.535 1222 34.9571
105.651 1203 34.6843
105.767 1278 35.7491
105.883 1242 35.242
105.999 1164 34.1174
106.115 0 1
106.231 0 1
106.347 0 1
106.463 0 1
106.579 0 1
106.694 0 1
106.81 0 1
106.926 0 1
107.041 0 1
107.157 0 1
109.576 0 1
109.692 0 1
109.807 0 1
109.923 0 1
110.039 0 1
110.155 0 1
110.27 0 1
110.386 0 1
110.502 0 1
110.618 1074 32.7719
110.735 1106 33.2566
110.851 1102 33.1964
110.967 1107 33.2716
111.083 1024 32
111.199 1094 33.0757
111.316 1187 34.4529
111.432 1211 34.7994
111.549 1154 33.9706
111.665 1120 33.4664
111.782 1147 33.8674
111.898 1040 32.249
112.015 960 30.9839
112.132 973 31.1929
112.248 1011 31.7962
112.365 953 30.8707
112.482 932 30.5287
112.599 858 29.2916
112.716 860 29.3258
112.832 825 28.7228
112.949 844 29.0517
113.066 817 28.5832
113.183 793 28.1603
113.3 759 27.55
113.417 853 29.2062
113.534 791 28.1247
113.652 783 27.9821
113.769 862 29.3598
113.886 873 29.5466
114.003 899 29.9833
114.12 947 30.7734
114.238 935 30.5778
114.355 912 30.1993
114.472 868 29.4618
114.589 828 28.775
114.707 863 29.3769
114.824 963 31.0322
114.942 989 31.4484
115.059 901 30.0167
115.176 906 30.0998
115.294 907 30.1164
115.411 851 29.1719
115.529 841 29
115.646 821 28.6531
115.764 761 27.5862
115.881 781 27.9464
115.999 681 26.096
116.116 672 25.923
116.234 712 26.6833
116.351 625 25
116.469 663 25.7488
116.586 648 25.4558
116.704 648 25.4558
116.821 580 24.0832
116.939 606 24.6171
117.056 602 24.5357
117.174 685 26.1725
117.291 645 25.3969
117.409 706 26.5707
117.526 753 27.4408
117.644 707 26.5895
117.761 717 26.7769
117.879 779 27.9106
117.996 731 27.037
118.114 720 26.8328
118.231 663 25.7488
118.349 751 27.4044
118.466 730 27.0185
118.584 825 28.7228
118.701 821 28.6531
118.819 829 28.7924
118.936 811 28.4781
119.053 777 27.8747
119.171 714 26.7208
119.288 744 27.2764
119.405 749 27.3679
119.523 712 26.6833
119.64 721 26.8514
119.757 666 25.807
119.875 658 25.6515
119.992 599 24.4745
120.109 617 24.8395
120.226 625 25
120.343 687 26.2107
120.46 665 25.7876
120.578 662 25.7294
120.695 700 26.4575
120.812 745 27.2947
120.929 741 27.2213
121.046 734 27.0924
121.163 746 27.313
121.279 750 27.3861
121.396 822 28.6705
121.513 856 29.2575
121.63 846 29.0861
121.747 753 27.4408
121.863 684 26.1534
121.98 797 28.2312
122.097 827 28.7576
122.213 873 29.5466
122.33 916 30.2655
122.446 913 30.2159
122.563 899 29.9833
122.679 942 30.692
122.795 905 30.0832
122.912 920 30.3315
123.028 875 29.5804
123.144 833 28.8617
123.26 866 29.4279
123.377 0 1
123.493 0 1
123.609 0 1
123.725 0 1
123.84 0 1
123.956 0 1
124.072 0 1
124.188 0 1
124.303 0 1
124.419 0 1
126.852 0 1
126.968 0 1
127.083 0 1
127.199 0 1
127.315 0 1
127.431 0 1
127.547 0 1
127.663 0 1
127.779 0 1
127.895 0 1
128.011 0 1
128.127 0 1
128.243 0 1
128.359 1022 31.9687
128.476 940 30.6594
128.592 953 30.8707
128.708 942 30.692
128.825 938 30.6268
128.941 925 30.4138
129.058 922 30.3645
129.174 886 29.7658
129.291 815 28.5482
129.408 849 29.1376
129.524 836 28.9137
129.641 840 28.9828
129.758 875 29.5804
129.875 889 29.8161
129.992 872 29.5296
130.108 942 30.692
130.225 874 29.5635
130.342 858 29.2916
130.459 883 29.7153
130.576 882 29.6985
130.693 723 26.8887
130.81 629 25.0799
130.928 665 25.7876
131.045 860 29.3258
131.162 862 29.3598
131.279 936 30.5941
131.396 907 30.1164
131.513 870 29.4958
131.631 868 29.4618
131.748 887 29.7825
131.865 867 29.4449
131.983 922 30.3645
132.1 770 27.7489
132.217 832 28.8444
132.335 850 29.1548
132.452 763 27.6225
132.57 790 28.1069
132.687 757 27.5136
132.804 814 28.5307
132.922 852 29.189
133.039 753 27.4408
133.157 765 27.6586
133.274 729 27
133.392 749 27.3679
133.509 763 27.6225
133.627 778 27.8927
133.744 740 27.2029
133.862 738 27.1662
133.979 771 27.7669
134.097 729 27
134.214 641 25.318
134.332 491 22.1585
134.449 511 22.6053
134.567 689 26.2488
134.684 712 26.6833
134.802 712 26.6833
134.919 702 26.4953
135.037 719 26.8142
135.154 772 27.7849
135.272 702 26.4953
135.389 736 27.1293
135.507 718 26.7955
135.624 717 26.7769
135.742 696 26.3818
135.859 706 26.5707
135.977 685 26.1725
136.094 646 25.4165
136.211 621 24.9199
136.329 620 24.8998
136.446 634 25.1794
136.564 634 25.1794
136.681 635 25.1992
136.798 575 23.9792
136.915 655 25.593
137.033 578 24.0416
137.15 607 24.6374
137.267 640 25.2982
137.384 588 24.2487
137.502 659 25.671
137.619 575 23.9792
137.736 562 23.7065
137.853 482 21.9545
137.97 406 20.1494
138.087 444 21.0713
138.204 545 23.3452
138.321 601 24.5153
138.438 589 24.2693
138.555 664 25.7682
138.672 570 23.8747
138.788 624 24.98
138.905 640 25.2982
139.022 701 26.4764
139.139 690 26.2679
139.255 648 25.4558
139.372 676 26
139.488 675 25.9808
139.605 702 26.4953
139.721 710 26.6458
139.838 681 26.096
139.954 641 25.318
140.071 673 25.9422
140.187 716 26.7582
140.303 725 26.9258
140.419 703 26.5141
140.535 711 26.6646
140.652 645 25.3969
140.768 0 1
140.884 0 1
141 0 1
141.115 0 1
141.231 0 1
141.347 0 1
141.463 0 1
141.578 0 1
141.694 0 1
144.104 0 1
144.219 0 1
144.335 0 1
144.45 0 1
144.566 0 1
144.682 0 1
144.798 0 1
144.914 0 1
145.03 0 1
145.146 570 23.8747
145.262 547 23.388
145.378 540 23.2379
145.494 535 23.1301
145.61 531 23.0434
145.726 473 21.7486
145.842 524 22.891
145.959 513 22.6495
146.075 539 23.2164
146.192 472 21.7256
146.308 485 22.0227
146.425 448 21.166
146.541 430 20.7364
146.658 424 20.5913
146.774 411 20.2731
146.891 418 20.445
147.008 428 20.6882
147.125 472 21.7256
147.241 494 22.2261
147.358 458 21.4009
147.475 457 21.3776
147.592 443 21.0476
147.709 443 21.0476
147.826 429 20.7123
147.943 462 21.4942
148.06 463 21.5174
148.177 405 20.1246
148.294 460 21.4476
148.411 412 20.2978
148.528 436 20.8806
148.645 363 19.0526
148.762 404 20.0998
148.88 377 19.4165
148.997 382 19.5448
149.114 379 19.4679
149.231 362 19.0263
149.349 396 19.8997
149.466 383 19.5704
149.583 349 18.6815
149.701 405 20.1246
149.818 352 18.7617
149.935 346 18.6011
150.053 347 18.6279
150.17 372 19.2873
150.287 353 18.7883
150.405 356 18.868
150.522 378 19.4422
150.64 435 20.8567
150.757 390 19.7484
150.875 383 19.5704
150.992 337 18.3576
151.11 426 20.6398
151.227 411 20.2731
151.344 421 20.5183
151.462 383 19.5704
151.579 393 19.8242
151.697 415 20.3715
151.814 388 19.6977
151.932 395 19.8746
152.049 403 20.0749
152.167 378 19.4422
152.284 408 20.199
152.402 391 19.7737
152.519 384 19.5959
152.636 344 18.5472
152.754 416 20.3961
152.871 419 20.4695
152.989 423 20.567
153.106 368 19.1833
153.223 378 19.4422
153.341 386 19.6469
153.458 400 20
153.575 359 18.9473
153.693 356 18.868
153.81 404 20.0998
153.927 425 20.6155
154.044 437 20.9045
154.162 448 21.166
154.279 496 22.2711
154.396 526 22.9347
154.513 472 21.7256
154.63 487 22.0681
154.747 515 22.6936
154.864 479 21.8861
154.981 499 22.3383
155.098 520 22.8035
155.215 540 23.2379
155.332 520 22.8035
155.449 514 22.6716
155.566 512 22.6274
155.683 538 23.1948
155.8 529 23
155.917 475 21.7945
156.033 488 22.0907
156.15 0 1
156.267 0 1
156.383 0 1
156.5 0 1
156.617 0 1
156.733 0 1
156.85 0 1
156.966 0 1
157.082 0 1
157.199 0 1
157.315 0 1
157.431 0 1
157.547 0 1
157.664 0 1
157.78 0 1
157.896 0 1
158.012 0 1
158.128 0 1
158.244 0 1
158.359 0 1
158.475 0 1
158.591 0 1
158.706 0 1
