
6.15755 0 1
6.2731 0 1
6.3887 0 1
6.50437 0 1
6.62009 0 1
6.73587 0 1
6.8517 0 1
6.96759 0 1
7.08353 0 1
7.19952 0 1
7.31557 0 1
7.43166 0 1
7.54781 0 1
7.664 0 1
7.78024 0 1
7.89653 0 1
8.01286 0 1
8.12924 0 1
8.24567 0 1
8.36213 0 1
8.47864 0 1
8.59519 0 1
8.71178 0 1
8.82841 0 1
8.94508 0 1
9.06179 0 1
9.17853 0 1
9.29531 0 1
9.41212 0 1
9.52897 0 1
9.64584 0 1
9.76276 0 1
9.8797 0 1
9.99667 0 1
10.1137 0 1
10.2307 0 1
10.3478 0 1
10.4648 0 1
10.5819 0 1
10.6991 0 1
10.8162 0 1
10.9334 0 1
11.0506 0 1
11.1678 0 1
11.285 0 1
11.4023 0 1
11.5196 0 1
11.6369 0 1
11.7542 0 1
11.8715 0 1
11.9888 0 1
12.1062 0 1
12.2235 0 1
12.3409 0 1
12.4582 0 1
12.5756 0 1
12.693 0 1
12.8104 0 1
12.9278 0 1
13.0452 0 1
13.1626 0 1
13.28 0 1
13.3974 0 1
13.5149 0 1
13.6323 0 1
13.7497 0 1
13.8671 0 1
13.9845 0 1
14.1019 0 1
14.2193 0 1
14.3367 0 1
14.4541 0 1
14.5714 0 1
14.6888 0 1
14.8062 0 1
14.9235 0 1
15.0408 1113 33.3617
15.1581 1189 34.4819
15.2755 1141 33.7787
15.3927 1185 34.4238
15.51 1098 33.1361
15.6273 1065 32.6343
15.7445 1002 31.6544
15.8617 979 31.289
15.9789 1060 32.5576
16.0961 1039 32.2335
16.2132 1001 31.6386
16.3304 976 31.241
16.4475 1026 32.0312
16.5646 970 31.1448
16.6816 926 30.4302
16.7986 890 29.8329
16.9156 892 29.8664
17.0326 936 30.5941
17.1496 871 29.5127
17.2665 828 28.775
17.3833 910 30.1662
17.5002 894 29.8998
17.617 831 28.8271
17.7338 881 29.6816
17.8505 834 28.8791
17.9672 888 29.7993
18.0839 870 29.4958
18.2005 839 28.9655
18.3171 862 29.3598
18.4337 888 29.7993
18.5502 849 29.1376
18.6666 879 29.6479
18.7831 897 29.95
18.8994 878 29.6311
19.0158 842 29.0172
19.1321 768 27.7128
19.2483 786 28.0357
19.3645 697 26.4008
19.4806 671 25.9037
19.5967 674 25.9615
19.7128 690 26.2679
19.8288 648 25.4558
19.9447 590 24.2899
20.0606 0 1
20.1764 0 1
20.2922 0 1
20.4079 0 1
20.5236 0 1
20.6392 0 1
20.7548 0 1
20.8702 0 1
23.3078 0 1
23.4233 0 1
23.539 0 1
23.6547 0 1
23.7704 0 1
23.8862 0 1
24.0021 0 1
24.118 0 1
24.234 0 1
24.35 0 1
24.4661 329 18.1384
24.5822 400 20
24.6984 454 21.3073
24.8146 563 23.7276
24.9309 690 26.2679
25.0472 746 27.313
25.1636 869 29.4788
25.28 944 30.7246
25.3965 903 30.05
25.513 950 30.8221
25.6296 1016 31.8748
25.7462 1046 32.3419
25.8628 979 31.289
25.9795 944 30.7246
26.0962 989 31.4484
26.213 940 30.6594
26.3298 933 30.545
26.4466 848 29.1204
26.5635 756 27.4955
26.6804 843 29.0345
26.7973 811 28.4781
26.9143 824 28.7054
27.0313 692 26.3059
27.1483 787 28.0535
27.2653 796 28.2135
27.3824 821 28.6531
27.4996 835 28.8964
27.6167 845 29.0689
27.7339 811 28.4781
27.8511 820 28.6356
27.9683 788 28.0713
28.0855 762 27.6043
28.2028 795 28.1957
28.3201 850 29.1548
28.4374 909 30.1496
28.5547 899 29.9833
28.6721 844 29.0517
28.7894 910 30.1662
28.9068 858 29.2916
29.0242 882 29.6985
29.1416 869 29.4788
29.259 851 29.1719
29.3764 892 29.8664
29.4939 817 28.5832
29.6113 837 28.931
29.7288 778 27.8927
29.8463 797 28.2312
29.9638 776 27.8568
30.0812 756 27.4955
30.1987 733 27.074
30.3162 736 27.1293
30.4337 752 27.4226
30.5512 740 27.2029
30.6687 741 27.2213
30.7862 777 27.8747
30.9037 859 29.3087
31.0212 886 29.7658
31.1387 859 29.3087
31.2562 865 29.4109
31.3737 891 29.8496
31.4912 842 29.0172
31.6087 790 28.1069
31.7262 824 28.7054
31.8436 877 29.6142
31.9611 861 29.3428
32.0785 871 29.5127
32.1959 808 28.4253
32.3134 804 28.3549
32.4308 814 28.5307
32.5482 780 27.9285
32.6655 790 28.1069
32.7829 806 28.3901
32.9002 716 26.7582
33.0176 735 27.1109
33.1349 755 27.4773
33.2522 728 26.9815
33.3694 699 26.4386
33.4867 753 27.4408
33.6039 741 27.2213
33.7211 703 26.5141
33.8383 740 27.2029
33.9554 686 26.1916
34.0725 649 25.4755
34.1896 701 26.4764
34.3067 696 26.3818
34.4237 698 26.4197
34.5407 769 27.7308
34.6577 766 27.6767
34.7746 807 28.4077
34.8915 768 27.7128
35.0084 781 27.9464
35.1252 718 26.7955
35.242 696 26.3818
35.3587 701 26.4764
35.4755 702 26.4953
35.5921 711 26.6646
35.7088 716 26.7582
35.8254 710 26.6458
35.9419 766 27.6767
36.0584 724 26.9072
36.1749 647 25.4362
36.2913 697 26.4008
36.4077 633 25.1595
36.524 673 25.9422
36.6403 591 24.3105
36.7565 594 24.3721
36.8727 566 23.7908
36.9889 499 22.3383
37.1049 446 21.1187
37.221 0 1
37.3369 0 1
37.4529 0 1
37.5687 0 1
37.6845 0 1
37.8003 0 1
37.916 0 1
38.0316 0 1
38.1472 0 1
40.5851 0 1
40.7008 0 1
40.8164 0 1
40.9322 0 1
41.048 0 1
41.1639 0 1
41.2798 0 1
41.3958 0 1
41.5118 0 1
41.6279 0 1
41.744 303 17.4069
41.8602 400 20
41.9765 419 20.4695
42.0928 481 21.9317
42.2091 527 22.9565
42.3255 522 22.8473
42.4419 572 23.9165
42.5584 562 23.7065
42.675 540 23.2379
42.7915 507 22.5167
42.9081 529 23
43.0248 492 22.1811
43.1415 491 22.1585
43.2582 543 23.3024
43.375 592 24.3311
43.4918 567 23.8118
43.6087 587 24.2281
43.7256 563 23.7276
43.8425 563 23.7276
43.9595 567 23.8118
44.0765 546 23.3666
44.1935 554 23.5372
44.3106 587 24.2281
44.4277 540 23.2379
44.5448 597 24.4336
44.6619 570 23.8747
44.7791 606 24.6171
44.8963 609 24.6779
45.0136 607 24.6374
45.1308 566 23.7908
45.2481 560 23.6643
45.3654 605 24.5967
45.4827 605 24.5967
45.6001 597 24.4336
45.7174 602 24.5357
45.8348 604 24.5764
45.9522 618 24.8596
46.0697 577 24.0208
46.1871 566 23.7908
46.3046 506 22.4944
46.422 488 22.0907
46.5395 489 22.1133
46.657 489 22.1133
46.7745 542 23.2809
46.892 545 23.3452
47.0096 548 23.4094
47.1271 590 24.2899
47.2446 586 24.2074
47.3622 578 24.0416
47.4797 553 23.516
47.5973 553 23.516
47.7149 552 23.4947
47.8324 524 22.891
47.95 583 24.1454
48.0675 538 23.1948
48.1851 558 23.622
48.3027 555 23.5584
48.4202 569 23.8537
48.5378 568 23.8328
48.6554 565 23.7697
48.7729 576 24
48.8904 591 24.3105
49.008 591 24.3105
49.1255 574 23.9583
49.243 606 24.6171
49.3605 597 24.4336
49.478 621 24.9199
49.5955 558 23.622
49.713 534 23.1084
49.8304 523 22.8692
49.9479 519 22.7816
50.0653 468 21.6333
50.1827 510 22.5832
50.3001 507 22.5167
50.4175 559 23.6432
50.5348 538 23.1948
50.6521 520 22.8035
50.7694 579 24.0624
50.8867 559 23.6432
51.004 558 23.622
51.1212 558 23.622
51.2384 556 23.5797
51.3556 539 23.2164
51.4727 509 22.561
51.5899 512 22.6274
51.707 545 23.3452
51.824 566 23.7908
51.9411 596 24.4131
52.0581 555 23.5584
52.175 561 23.6854
52.2919 580 24.0832
52.4088 580 24.0832
52.5257 578 24.0416
52.6425 569 23.8537
52.7593 535 23.1301
52.876 586 24.2074
52.9927 547 23.388
53.1094 550 23.4521
53.226 540 23.2379
53.3426 507 22.5167
53.4591 504 22.4499
53.5756 514 22.6716
53.692 430 20.7364
53.8084 423 20.567
53.9248 491 22.1585
54.0411 663 25.7488
54.1573 751 27.4044
54.2735 0 1
54.3896 0 1
54.5057 0 1
54.6217 0 1
54.7377 0 1
54.8537 0 1
54.9695 0 1
55.0853 0 1
55.2011 0 1
55.3168 0 1
55.4324 0 1
57.824 0 1
57.9396 0 1
58.0553 0 1
58.1711 0 1
58.2869 0 1
58.4028 0 1
58.5187 0 1
58.6347 0 1
58.7508 0 1
58.8669 0 1
58.983 97323 311.966
59.0992 123822 351.884
59.2155 143023 378.184
59.3318 155075 393.796
59.4482 164940 406.128
59.5646 172914 415.829
59.681 178487 422.477
59.7975 179925 424.176
59.9141 179491 423.664
60.0306 177061 420.786
60.1473 173401 416.414
60.2639 168479 410.462
60.3807 162088 402.602
60.4974 155358 394.155
60.6142 146078 382.202
60.731 138113 371.636
60.8479 128255 358.127
60.9648 120435 347.037
61.0818 112795 335.85
61.1987 104887 323.863
61.3158 94924 308.097
61.4328 83699 289.308
61.5499 70416 265.36
61.667 57267 239.305
61.7841 45441 213.169
61.9013 35965 189.644
62.0185 30041 173.323
62.1357 28060 167.511
62.253 27632 166.229
62.3702 26454 162.647
62.4875 25227 158.83
62.6049 22976 151.578
62.7222 19889 141.028
62.8396 17421 131.989
62.9569 14567 120.694
63.0743 12170 110.318
63.1918 10168 100.837
63.3092 8530 92.358
63.4267 6825 82.6136
63.5441 5405 73.5187
63.6616 4025 63.4429
63.7791 3040 55.1362
63.8966 2191 46.8081
64.0142 1612 40.1497
64.1317 1217 34.8855
64.2492 964 31.0483
64.3668 824 28.7054
64.4843 763 27.6225
64.6019 769 27.7308
64.7195 666 25.807
64.837 622 24.9399
64.9546 636 25.219
65.0722 649 25.4755
65.1898 593 24.3516
65.3074 589 24.2693
65.4249 590 24.2899
65.5425 562 23.7065
65.6601 550 23.4521
65.7777 558 23.622
65.8952 550 23.4521
66.0128 524 22.891
66.1304 536 23.1517
66.2479 554 23.5372
66.3655 603 24.5561
66.483 595 24.3926
66.6005 546 23.3666
66.718 603 24.5561
66.8355 652 25.5343
66.953 652 25.5343
67.0705 685 26.1725
67.1879 721 26.8514
67.3054 749 27.3679
67.4228 742 27.2397
67.5402 720 26.8328
67.6576 759 27.55
67.7749 709 26.6271
67.8923 736 27.1293
68.0096 682 26.1151
68.1269 750 27.3861
68.2442 702 26.4953
68.3614 663 25.7488
68.4787 649 25.4755
68.5958 632 25.1396
68.713 639 25.2784
68.8302 561 23.6854
68.9473 550 23.4521
69.0643 556 23.5797
69.1814 534 23.1084
69.2984 483 21.9773
69.4154 542 23.2809
69.5323 509 22.561
69.6492 514 22.6716
69.7661 560 23.6643
69.8829 474 21.7715
69.9997 531 23.0434
70.1165 490 22.1359
70.2332 535 23.1301
70.3499 475 21.7945
70.4665 511 22.6053
70.5831 527 22.9565
70.6996 482 21.9545
70.8161 480 21.9089
70.9326 418 20.445
71.049 408 20.199
71.1653 363 19.0526
71.2817 298 17.2627
71.3979 326 18.0555
71.5141 330 18.1659
71.6303 275 16.5831
71.7464 268 16.3707
71.8624 0 1
71.9784 0 1
72.0944 0 1
72.2102 0 1
72.3261 0 1
72.4418 0 1
72.5575 0 1
72.6732 0 1
75.1054 0 1
75.2209 0 1
75.3365 0 1
75.4521 0 1
75.5678 0 1
75.6835 0 1
75.7993 0 1
75.9151 0 1
76.031 0 1
76.147 406 20.1494
76.263 462 21.4942
76.3791 463 21.5174
76.4952 464 21.5407
76.6113 519 22.7816
76.7276 468 21.6333
76.8438 514 22.6716
76.9601 541 23.2594
77.0765 496 22.2711
77.1929 508 22.5389
77.3093 500 22.3607
77.4258 492 22.1811
77.5423 512 22.6274
77.6589 506 22.4944
77.7755 495 22.2486
77.8921 475 21.7945
78.0088 531 23.0434
78.1256 429 20.7123
78.2423 491 22.1585
78.3591 489 22.1133
78.4759 453 21.2838
78.5928 437 20.9045
78.7097 475 21.7945
78.8266 430 20.7364
78.9436 470 21.6795
79.0606 448 21.166
79.1776 481 21.9317
79.2946 441 21
79.4117 550 23.4521
79.5288 511 22.6053
79.6459 527 22.9565
79.7631 509 22.561
79.8802 546 23.3666
79.9974 531 23.0434
80.1147 529 23
80.2319 498 22.3159
80.3491 519 22.7816
80.4664 520 22.8035
80.5837 516 22.7156
80.701 537 23.1733
80.8183 528 22.9783
80.9357 469 21.6564
81.053 521 22.8254
81.1704 483 21.9773
81.2877 484 22
81.4051 478 21.8632
81.5225 492 22.1811
81.6399 499 22.3383
81.7573 510 22.5832
81.8747 489 22.1133
81.9922 477 21.8403
82.1096 576 24
82.227 493 22.2036
82.3444 438 20.9284
82.4619 467 21.6102
82.5793 468 21.6333
82.6967 488 22.0907
82.8142 483 21.9773
82.9316 519 22.7816
83.049 530 23.0217
83.1664 516 22.7156
83.2838 586 24.2074
83.4012 531 23.0434
83.5186 521 22.8254
83.636 564 23.7487
83.7534 558 23.622
83.8708 526 22.9347
83.9881 531 23.0434
84.1055 542 23.2809
84.2228 539 23.2164
84.3401 540 23.2379
84.4575 564 23.7487
84.5747 481 21.9317
84.692 495 22.2486
84.8093 526 22.9347
84.9265 492 22.1811
85.0437 477 21.8403
85.1609 469 21.6564
85.2781 496 22.2711
85.3952 494 22.2261
85.5123 488 22.0907
85.6294 525 22.9129
85.7465 555 23.5584
85.8636 488 22.0907
85.9806 505 22.4722
86.0976 494 22.2261
86.2145 525 22.9129
86.3315 504 22.4499
86.4484 532 23.0651
86.5652 551 23.4734
86.682 527 22.9565
86.7988 517 22.7376
86.9156 545 23.3452
87.0323 554 23.5372
87.149 526 22.9347
87.2657 549 23.4307
87.3823 512 22.6274
87.4988 481 21.9317
87.6154 508 22.5389
87.7318 486 22.0454
87.8483 464 21.5407
87.9647 405 20.1246
88.081 357 18.8944
88.1973 371 19.2614
88.3136 389 19.7231
88.4298 281 16.7631
88.546 313 17.6918
88.6621 274 16.5529
88.7781 267 16.3401
88.8942 0 1
89.0101 0 1
89.126 0 1
89.2419 0 1
89.3577 0 1
89.4734 0 1
89.5891 0 1
89.7047 0 1
89.8203 0 1
89.9358 0 1
92.3269 0 1
92.4424 0 1
92.558 0 1
92.6736 0 1
92.7893 0 1
92.905 0 1
93.0208 0 1
93.1366 0 1
93.2525 0 1
93.3685 0 1
93.4845 0 1
93.6005 440 20.9762
93.7167 453 21.2838
93.8328 471 21.7025
93.949 488 22.0907
94.0653 463 21.5174
94.1816 485 22.0227
94.2979 485 22.0227
94.4143 480 21.9089
94.5307 449 21.1896
94.6472 485 22.0227
94.7637 518 22.7596
94.8803 558 23.622
94.9969 565 23.7697
95.1135 516 22.7156
95.2302 506 22.4944
95.3469 504 22.4499
95.4637 566 23.7908
95.5805 534 23.1084
95.6973 517 22.7376
95.8142 539 23.2164
95.9311 526 22.9347
96.048 522 22.8473
96.1649 538 23.1948
96.2819 570 23.8747
96.3989 543 23.3024
96.516 521 22.8254
96.633 520 22.8035
96.7501 536 23.1517
96.8673 559 23.6432
96.9844 540 23.2379
97.1016 504 22.4499
97.2188 540 23.2379
97.336 525 22.9129
97.4532 534 23.1084
97.5704 489 22.1133
97.6877 465 21.5639
97.805 465 21.5639
97.9223 505 22.4722
98.0396 514 22.6716
98.1569 523 22.8692
98.2743 533 23.0868
98.3916 525 22.9129
98.509 523 22.8692
98.6264 563 23.7276
98.7438 544 23.3238
98.8612 519 22.7816
98.9786 544 23.3238
99.096 484 22
99.2134 596 24.4131
99.3308 595 24.3926
99.4482 542 23.2809
99.5656 571 23.8956
99.6831 600 24.4949
99.8005 579 24.0624
99.9179 567 23.8118
100.035 596 24.4131
100.153 562 23.7065
100.27 568 23.8328
100.388 573 23.9374
100.505 566 23.7908
100.622 605 24.5967
100.74 552 23.4947
100.857 558 23.622
100.975 509 22.561
101.092 525 22.9129
101.209 516 22.7156
101.327 487 22.0681
101.444 531 23.0434
101.561 529 23
101.679 496 22.2711
101.796 572 23.9165
101.913 559 23.6432
102.03 615 24.7992
102.148 617 24.8395
102.265 617 24.8395
102.382 640 25.2982
102.499 600 24.4949
102.616 598 24.454
102.733 657 25.632
102.851 650 25.4951
102.968 656 25.6125
103.085 672 25.923
103.202 693 26.3249
103.319 662 25.7294
103.436 631 25.1197
103.552 664 25.7682
103.669 729 27
103.786 658 25.6515
103.903 715 26.7395
104.02 664 25.7682
104.137 716 26.7582
104.253 662 25.7294
104.37 631 25.1197
104.487 600 24.4949
104.603 598 24.454
104.72 623 24.96
104.836 586 24.2074
104.953 529 23
105.069 530 23.0217
105.186 512 22.6274
105.302 512 22.6274
105.418 488 22.0907
105.535 488 22.0907
105.651 405 20.1246
105.767 374 19.3391
105.883 372 19.2873
105.999 336 18.3303
106.115 0 1
106.231 0 1
106.347 0 1
106.463 0 1
106.579 0 1
106.694 0 1
106.81 0 1
106.926 0 1
107.041 0 1
107.157 0 1
109.576 0 1
109.692 0 1
109.807 0 1
109.923 0 1
110.039 0 1
110.155 0 1
110.27 0 1
110.386 0 1
110.502 0 1
110.618 344 18.5472
110.735 405 20.1246
110.851 498 22.3159
110.967 504 22.4499
111.083 495 22.2486
111.199 534 23.1084
111.316 563 23.7276
111.432 596 24.4131
111.549 648 25.4558
111.665 571 23.8956
111.782 555 23.5584
111.898 556 23.5797
112.015 567 23.8118
112.132 595 24.3926
112.248 606 24.6171
112.365 668 25.8457
112.482 663 25.7488
112.599 651 25.5147
112.716 704 26.533
112.832 659 25.671
112.949 657 25.632
113.066 646 25.4165
113.183 668 25.8457
113.3 647 25.4362
113.417 709 26.6271
113.534 709 26.6271
113.652 666 25.807
113.769 743 27.258
113.886 674 25.9615
114.003 773 27.8029
114.12 756 27.4955
114.238 881 29.6816
114.355 852 29.189
114.472 883 29.7153
114.589 825 28.7228
114.707 820 28.6356
114.824 786 28.0357
114.942 674 25.9615
115.059 625 25
115.176 620 24.8998
115.294 547 23.388
115.411 570 23.8747
115.529 579 24.0624
115.646 510 22.5832
115.764 522 22.8473
115.881 514 22.6716
115.999 565 23.7697
116.116 542 23.2809
116.234 522 22.8473
116.351 463 21.5174
116.469 499 22.3383
116.586 461 21.4709
116.704 477 21.8403
116.821 473 21.7486
116.939 463 21.5174
117.056 427 20.664
117.174 431 20.7605
117.291 430 20.7364
117.409 377 19.4165
117.526 449 21.1896
117.644 453 21.2838
117.761 463 21.5174
117.879 458 21.4009
117.996 470 21.6795
118.114 492 22.1811
118.231 497 22.2935
118.349 489 22.1133
118.466 454 21.3073
118.584 506 22.4944
118.701 514 22.6716
118.819 493 22.2036
118.936 461 21.4709
119.053 466 21.587
119.171 456 21.3542
119.288 444 21.0713
119.405 480 21.9089
119.523 516 22.7156
119.64 486 22.0454
119.757 490 22.1359
119.875 443 21.0476
119.992 495 22.2486
120.109 459 21.4243
120.226 451 21.2368
120.343 453 21.2838
120.46 430 20.7364
120.578 454 21.3073
120.695 398 19.9499
120.812 385 19.6214
120.929 361 19
121.046 388 19.6977
121.163 356 18.868
121.279 395 19.8746
121.396 394 19.8494
121.513 417 20.4206
121.63 417 20.4206
121.747 391 19.7737
121.863 385 19.6214
121.98 439 20.9523
122.097 405 20.1246
122.213 375 19.3649
122.33 360 18.9737
122.446 336 18.3303
122.563 332 18.2209
122.679 293 17.1172
122.795 267 16.3401
122.912 278 16.6733
123.028 256 16
123.144 269 16.4012
123.26 261 16.1555
123.377 0 1
123.493 0 1
123.609 0 1
123.725 0 1
123.84 0 1
123.956 0 1
124.072 0 1
124.188 0 1
124.303 0 1
124.419 0 1
126.852 0 1
126.968 0 1
127.083 0 1
127.199 0 1
127.315 0 1
127.431 0 1
127.547 0 1
127.663 0 1
127.779 0 1
127.895 0 1
128.011 0 1
128.127 0 1
128.243 0 1
128.359 460 21.4476
128.476 502 22.4054
128.592 550 23.4521
128.708 500 22.3607
128.825 568 23.8328
128.941 589 24.2693
129.058 517 22.7376
129.174 547 23.388
129.291 585 24.1868
129.408 516 22.7156
129.524 575 23.9792
129.641 512 22.6274
129.758 503 22.4277
129.875 483 21.9773
129.992 460 21.4476
130.108 449 21.1896
130.225 473 21.7486
130.342 514 22.6716
130.459 502 22.4054
130.576 590 24.2899
130.693 576 24
130.81 560 23.6643
130.928 623 24.96
131.045 642 25.3377
131.162 626 25.02
131.279 723 26.8887
131.396 773 27.8029
131.513 771 27.7669
131.631 769 27.7308
131.748 797 28.2312
131.865 840 28.9828
131.983 857 29.2746
132.1 877 29.6142
132.217 963 31.0322
132.335 1024 32
132.452 1038 32.218
132.57 1081 32.8786
132.687 1056 32.4962
132.804 1078 32.8329
132.922 1118 33.4365
133.039 1185 34.4238
133.157 1177 34.3074
133.274 1145 33.8378
133.392 1196 34.5832
133.509 1131 33.6303
133.627 1113 33.3617
133.744 1063 32.6037
133.862 1065 32.6343
133.979 1162 34.0881
134.097 1159 34.0441
134.214 1148 33.8821
134.332 1226 35.0143
134.449 1196 34.5832
134.567 1138 33.7343
134.684 1154 33.9706
134.802 1197 34.5977
134.919 1187 34.4529
135.037 1147 33.8674
135.154 1152 33.9411
135.272 1165 34.1321
135.389 1103 33.2114
135.507 1153 33.9559
135.624 1209 34.7707
135.742 1257 35.4542
135.859 1224 34.9857
135.977 1297 36.0139
136.094 1276 35.7211
136.211 1348 36.7151
136.329 1214 34.8425
136.446 1335 36.5377
136.564 1299 36.0416
136.681 1235 35.1426
136.798 1253 35.3977
136.915 1248 35.327
137.033 1224 34.9857
137.15 1206 34.7275
137.267 1211 34.7994
137.384 1188 34.4674
137.502 1121 33.4813
137.619 1133 33.6601
137.736 1151 33.9264
137.853 1165 34.1321
137.97 1233 35.1141
138.087 1261 35.5106
138.204 1258 35.4683
138.321 1219 34.9142
138.438 1220 34.9285
138.555 1267 35.5949
138.672 1259 35.4824
138.788 1223 34.9714
138.905 1151 33.9264
139.022 1131 33.6303
139.139 1191 34.5109
139.255 1299 36.0416
139.372 1244 35.2704
139.488 1197 34.5977
139.605 1111 33.3317
139.721 1014 31.8434
139.838 928 30.4631
139.954 935 30.5778
140.071 901 30.0167
140.187 877 29.6142
140.303 820 28.6356
140.419 822 28.6705
140.535 748 27.3496
140.652 750 27.3861
140.768 0 1
140.884 0 1
141 0 1
141.115 0 1
141.231 0 1
141.347 0 1
141.463 0 1
141.578 0 1
141.694 0 1
144.104 0 1
144.219 0 1
144.335 0 1
144.45 0 1
144.566 0 1
144.682 0 1
144.798 0 1
144.914 0 1
145.03 0 1
145.146 1037 32.2025
145.262 967 31.0966
145.378 1086 32.9545
145.494 1081 32.8786
145.61 1093 33.0606
145.726 1157 34.0147
145.842 1151 33.9264
145.959 1103 33.2114
146.075 1116 33.4066
146.192 1067 32.665
146.308 1031 32.1092
146.425 1045 32.3265
146.541 1107 33.2716
146.658 1121 33.4813
146.774 1083 32.909
146.891 1133 33.6601
147.008 1048 32.3728
147.125 1072 32.7414
147.241 1060 32.5576
147.358 1147 33.8674
147.475 1135 33.6898
147.592 1093 33.0606
147.709 1053 32.45
147.826 1028 32.0624
147.943 984 31.3688
148.06 1084 32.9242
148.177 1154 33.9706
148.294 1100 33.1662
148.411 1109 33.3017
148.528 1099 33.1512
148.645 1139 33.7491
148.762 1115 33.3916
148.88 1092 33.0454
148.997 1141 33.7787
149.114 1104 33.2265
149.231 1082 32.8938
149.349 1142 33.7935
149.466 1113 33.3617
149.583 1150 33.9116
149.701 1104 33.2265
149.818 1074 32.7719
149.935 1059 32.5423
150.053 1081 32.8786
150.17 1016 31.8748
150.287 1123 33.5112
150.405 1061 32.573
150.522 1101 33.1813
150.64 1049 32.3883
150.757 1057 32.5115
150.875 1040 32.249
150.992 1057 32.5115
151.11 1027 32.0468
151.227 1018 31.9061
151.344 1005 31.7017
151.462 995 31.5436
151.579 901 30.0167
151.697 945 30.7409
151.814 998 31.5911
151.932 1046 32.3419
152.049 1096 33.1059
152.167 1164 34.1174
152.284 1053 32.45
152.402 1106 33.2566
152.519 1102 33.1964
152.636 1018 31.9061
152.754 1132 33.6452
152.871 1127 33.5708
152.989 1061 32.573
153.106 1036 32.187
153.223 1045 32.3265
153.341 1017 31.8904
153.458 951 30.8383
153.575 904 30.0666
153.693 929 30.4795
153.81 897 29.95
153.927 900 30
154.044 944 30.7246
154.162 930 30.4959
154.279 811 28.4781
154.396 802 28.3196
154.513 876 29.5973
154.63 913 30.2159
154.747 878 29.6311
154.864 914 30.2324
154.981 902 30.0333
155.098 761 27.5862
155.215 829 28.7924
155.332 805 28.3725
155.449 859 29.3087
155.566 909 30.1496
155.683 915 30.249
155.8 880 29.6648
155.917 810 28.4605
156.033 835 28.8964
156.15 0 1
156.267 0 1
156.383 0 1
156.5 0 1
156.617 0 1
156.733 0 1
156.85 0 1
156.966 0 1
157.082 0 1
157.199 0 1
157.315 0 1
157.431 0 1
157.547 0 1
157.664 0 1
157.78 0 1
157.896 0 1
158.012 0 1
158.128 0 1
158.244 0 1
158.359 0 1
158.475 0 1
158.591 0 1
158.706 0 1
