
6.15755 0 1
6.2731 0 1
6.3887 0 1
6.50437 0 1
6.62009 0 1
6.73587 0 1
6.8517 0 1
6.96759 0 1
7.08353 0 1
7.19952 0 1
7.31557 0 1
7.43166 0 1
7.54781 0 1
7.664 0 1
7.78024 0 1
7.89653 0 1
8.01286 0 1
8.12924 0 1
8.24567 0 1
8.36213 0 1
8.47864 0 1
8.59519 0 1
8.71178 0 1
8.82841 0 1
8.94508 0 1
9.06179 0 1
9.17853 0 1
9.29531 0 1
9.41212 0 1
9.52897 0 1
9.64584 0 1
9.76276 0 1
9.8797 0 1
9.99667 0 1
10.1137 0 1
10.2307 0 1
10.3478 0 1
10.4648 0 1
10.5819 0 1
10.6991 0 1
10.8162 0 1
10.9334 0 1
11.0506 0 1
11.1678 0 1
11.285 0 1
11.4023 0 1
11.5196 0 1
11.6369 0 1
11.7542 0 1
11.8715 0 1
11.9888 0 1
12.1062 0 1
12.2235 0 1
12.3409 0 1
12.4582 0 1
12.5756 0 1
12.693 0 1
12.8104 0 1
12.9278 0 1
13.0452 0 1
13.1626 0 1
13.28 0 1
13.3974 0 1
13.5149 0 1
13.6323 0 1
13.7497 0 1
13.8671 0 1
13.9845 0 1
14.1019 0 1
14.2193 0 1
14.3367 0 1
14.4541 0 1
14.5714 0 1
14.6888 0 1
14.8062 0 1
14.9235 0 1
15.0408 8873 94.1966
15.1581 9305 96.4624
15.2755 9450 97.2111
15.3927 9343 96.6592
15.51 9304 96.4572
15.6273 9020 94.9737
15.7445 8799 93.803
15.8617 8916 94.4246
15.9789 9254 96.1977
16.0961 9533 97.6371
16.2132 9892 99.4585
16.3304 10294 101.459
16.4475 10610 103.005
16.5646 10564 102.781
16.6816 10584 102.879
16.7986 10509 102.513
16.9156 10337 101.671
17.0326 10531 102.621
17.1496 10404 102
17.2665 10266 101.321
17.3833 10141 100.703
17.5002 10295 101.464
17.617 10456 102.255
17.7338 10945 104.618
17.8505 10773 103.793
17.9672 11069 105.209
18.0839 11396 106.752
18.2005 11543 107.438
18.3171 11811 108.678
18.4337 11978 109.444
18.5502 12181 110.368
18.6666 12198 110.445
18.7831 12358 111.167
18.8994 12076 109.891
19.0158 11829 108.761
19.1321 11467 107.084
19.2483 11194 105.802
19.3645 10911 104.456
19.4806 11019 104.971
19.5967 11783 108.55
19.7128 11880 108.995
19.8288 12158 110.263
19.9447 10796 103.904
20.0606 0 1
20.1764 0 1
20.2922 0 1
20.4079 0 1
20.5236 0 1
20.6392 0 1
20.7548 0 1
20.8702 0 1
23.3078 0 1
23.4233 0 1
23.539 0 1
23.6547 0 1
23.7704 0 1
23.8862 0 1
24.0021 0 1
24.118 0 1
24.234 0 1
24.35 0 1
24.4661 11557 107.503
24.5822 11347 106.522
24.6984 11595 107.68
24.8146 11929 109.22
24.9309 12532 111.946
25.0472 12831 113.274
25.1636 13046 114.219
25.28 13272 115.204
25.3965 12948 113.789
25.513 12904 113.596
25.6296 12789 113.088
25.7462 12887 113.521
25.8628 12398 111.346
25.9795 12715 112.761
26.0962 12911 113.627
26.213 12700 112.694
26.3298 13048 114.228
26.4466 13343 115.512
26.5635 13783 117.401
26.6804 13965 118.174
26.7973 14244 119.348
26.9143 14429 120.121
27.0313 14672 121.128
27.1483 14867 121.93
27.2653 15072 122.768
27.3824 14785 121.594
27.4996 14811 121.7
27.6167 14518 120.491
27.7339 14037 118.478
27.8511 13764 117.32
27.9683 13230 115.022
28.0855 12655 112.494
28.2028 12739 112.867
28.3201 12232 110.598
28.4374 13027 114.136
28.5547 13272 115.204
28.6721 14065 118.596
28.7894 14141 118.916
28.9068 14047 118.52
29.0242 13776 117.371
29.1416 13468 116.052
29.259 13003 114.031
29.3764 12756 112.942
29.4939 12610 112.294
29.6113 12368 111.212
29.7288 12454 111.597
29.8463 13141 114.634
29.9638 13158 114.708
30.0812 13713 117.103
30.1987 14121 118.832
30.3162 14402 120.008
30.4337 14586 120.773
30.5512 14952 122.278
30.6687 14918 122.139
30.7862 15456 124.322
30.9037 15426 124.201
31.0212 15507 124.527
31.1387 15030 122.597
31.2562 14776 121.557
31.3737 14208 119.197
31.4912 13909 117.936
31.6087 13719 117.128
31.7262 13338 115.49
31.8436 13087 114.398
31.9611 13736 117.201
32.0785 13957 118.14
32.1959 14566 120.69
32.3134 14333 119.721
32.4308 14681 121.165
32.5482 14513 120.47
32.6655 14297 119.57
32.7829 13795 117.452
32.9002 13467 116.047
33.0176 13223 114.991
33.1349 13037 114.18
33.2522 13141 114.634
33.3694 13079 114.363
33.4867 13332 115.464
33.6039 13964 118.169
33.7211 14157 118.983
33.8383 14692 121.211
33.9554 15170 123.167
34.0725 15286 123.637
34.1896 15532 124.627
34.3067 15756 125.523
34.4237 15755 125.519
34.5407 16153 127.094
34.6577 15914 126.151
34.7746 15554 124.716
34.8915 14975 122.372
35.0084 14899 122.061
35.1252 14350 119.791
35.242 13929 118.021
35.3587 13982 118.246
35.4755 13696 117.03
35.5921 13546 116.387
35.7088 14200 119.164
35.8254 14531 120.545
35.9419 15195 123.268
36.0584 15019 122.552
36.1749 15317 123.762
36.2913 15165 123.146
36.4077 14350 119.791
36.524 13964 118.169
36.6403 13422 115.853
36.7565 13169 114.756
36.8727 13300 115.326
36.9889 13200 114.891
37.1049 13226 115.004
37.221 0 1
37.3369 0 1
37.4529 0 1
37.5687 0 1
37.6845 0 1
37.8003 0 1
37.916 0 1
38.0316 0 1
38.1472 0 1
40.5851 0 1
40.7008 0 1
40.8164 0 1
40.9322 0 1
41.048 0 1
41.1639 0 1
41.2798 0 1
41.3958 0 1
41.5118 0 1
41.6279 0 1
41.744 11230 105.972
41.8602 11470 107.098
41.9765 11533 107.392
42.0928 11469 107.093
42.2091 11798 108.619
42.3255 12275 110.793
42.4419 12572 112.125
42.5584 13350 115.542
42.675 13516 116.258
42.7915 13987 118.267
42.9081 14161 119
43.0248 14446 120.192
43.1415 14510 120.457
43.2582 14462 120.258
43.375 14600 120.83
43.4918 14557 120.652
43.6087 14391 119.962
43.7256 14038 118.482
43.8425 13555 116.426
43.9595 13181 114.809
44.0765 13019 114.101
44.1935 12437 111.521
44.3106 11914 109.151
44.4277 12122 110.1
44.5448 12424 111.463
44.6619 12442 111.544
44.7791 12869 113.442
44.8963 12695 112.672
45.0136 12473 111.683
45.1308 11994 109.517
45.2481 11072 105.224
45.3654 10936 104.575
45.4827 10257 101.277
45.6001 10231 101.148
45.7174 10215 101.069
45.8348 10296 101.469
45.9522 10737 103.619
46.0697 11033 105.038
46.1871 11480 107.145
46.3046 12068 109.854
46.422 12142 110.191
46.5395 12241 110.639
46.657 12553 112.04
46.7745 12475 111.692
46.892 12417 111.432
47.0096 12512 111.857
47.1271 12305 110.928
47.2446 12280 110.815
47.3622 11658 107.972
47.4797 11508 107.275
47.5973 11172 105.698
47.7149 10705 103.465
47.8324 10371 101.838
47.95 10478 102.362
48.0675 10188 100.936
48.1851 10671 103.301
48.3027 10719 103.533
48.4202 10838 104.106
48.5378 10234 101.163
48.6554 10081 100.404
48.7729 9580 97.8775
48.8904 9046 95.1105
49.008 8719 93.3756
49.1255 8580 92.6283
49.243 8497 92.1792
49.3605 8689 93.2148
49.478 9139 95.5981
49.5955 9738 98.6813
49.713 9821 99.101
49.8304 10325 101.612
49.9479 10902 104.413
50.0653 11533 107.392
50.1827 11593 107.671
50.3001 11865 108.927
50.4175 11852 108.867
50.5348 12122 110.1
50.6521 11985 109.476
50.7694 12255 110.702
50.8867 11881 109
51.004 11821 108.724
51.1212 11799 108.623
51.2384 11445 106.981
51.3556 11424 106.883
51.4727 11623 107.81
51.5899 11768 108.48
51.707 12569 112.112
51.824 12784 113.066
51.9411 13281 115.243
52.0581 13291 115.287
52.175 13176 114.787
52.2919 12918 113.657
52.4088 12046 109.754
52.5257 11731 108.31
52.6425 11583 107.624
52.7593 11661 107.986
52.876 11829 108.761
52.9927 12520 111.893
53.1094 13364 115.603
53.226 14201 119.168
53.3426 15206 123.313
53.4591 16205 127.299
53.5756 16485 128.394
53.692 16982 130.315
53.8084 17687 132.992
53.9248 17392 131.879
54.0411 18145 134.703
54.1573 18049 134.347
54.2735 0 1
54.3896 0 1
54.5057 0 1
54.6217 0 1
54.7377 0 1
54.8537 0 1
54.9695 0 1
55.0853 0 1
55.2011 0 1
55.3168 0 1
55.4324 0 1
57.824 0 1
57.9396 0 1
58.0553 0 1
58.1711 0 1
58.2869 0 1
58.4028 0 1
58.5187 0 1
58.6347 0 1
58.7508 0 1
58.8669 0 1
58.983 20497 143.168
59.0992 21730 147.411
59.2155 21883 147.929
59.3318 22061 148.529
59.4482 21571 146.871
59.5646 21428 146.383
59.681 21466 146.513
59.7975 21175 145.516
59.9141 20533 143.293
60.0306 20226 142.218
60.1473 20201 142.13
60.2639 20281 142.411
60.3807 20080 141.704
60.4974 20208 142.155
60.6142 20123 141.856
60.731 19692 140.328
60.8479 18566 136.257
60.9648 17667 132.917
61.0818 16463 128.308
61.1987 15986 126.436
61.3158 15616 124.964
61.4328 16019 126.566
61.5499 16487 128.402
61.667 17410 131.947
61.7841 18089 134.495
61.9013 18903 137.488
62.0185 19456 139.485
62.1357 20376 142.745
62.253 21159 145.461
62.3702 21025 145
62.4875 21541 146.769
62.6049 21578 146.895
62.7222 21467 146.516
62.8396 21465 146.509
62.9569 21088 145.217
63.0743 20860 144.43
63.1918 20318 142.541
63.3092 20094 141.753
63.4267 19545 139.803
63.5441 19292 138.896
63.6616 19490 139.607
63.7791 19552 139.828
63.8966 19648 140.171
64.0142 19577 139.918
64.1317 19867 140.95
64.2492 18840 137.259
64.3668 18080 134.462
64.4843 17088 130.721
64.6019 15981 126.416
64.7195 15420 124.177
64.837 14863 121.914
64.9546 14797 121.643
65.0722 15262 123.539
65.1898 16113 126.937
65.3074 17057 130.602
65.4249 17889 133.75
65.5425 18785 137.058
65.6601 19549 139.818
65.7777 20773 144.128
65.8952 20792 144.194
66.0128 21129 145.358
66.1304 21460 146.492
66.2479 21767 147.536
66.3655 21690 147.275
66.483 21656 147.16
66.6005 21440 146.424
66.718 21108 145.286
66.8355 21017 144.972
66.953 20705 143.892
67.0705 20214 142.176
67.1879 20556 143.374
67.3054 20103 141.785
67.4228 20461 143.042
67.5402 20782 144.16
67.6576 20926 144.658
67.7749 20682 143.812
67.8923 20792 144.194
68.0096 19559 139.853
68.1269 18616 136.44
68.2442 17618 132.733
68.3614 16468 128.328
68.4787 15984 126.428
68.5958 15772 125.587
68.713 16685 129.17
68.8302 17388 131.864
68.9473 18752 136.938
69.0643 20180 142.056
69.1814 21421 146.359
69.2984 22963 151.535
69.4154 23536 153.414
69.5323 24330 155.981
69.6492 24734 157.27
69.7661 25548 159.837
69.8829 25504 159.7
69.9997 26196 161.852
70.1165 26206 161.883
70.2332 26141 161.682
70.3499 26274 162.093
70.4665 25406 159.393
70.5831 25351 159.22
70.6996 24866 157.69
70.8161 24781 157.42
70.9326 24520 156.589
71.049 24584 156.793
71.1653 24863 157.68
71.2817 24962 157.994
71.3979 24686 157.118
71.5141 24029 155.013
71.6303 22145 148.812
71.7464 19012 137.884
71.8624 0 1
71.9784 0 1
72.0944 0 1
72.2102 0 1
72.3261 0 1
72.4418 0 1
72.5575 0 1
72.6732 0 1
75.1054 0 1
75.2209 0 1
75.3365 0 1
75.4521 0 1
75.5678 0 1
75.6835 0 1
75.7993 0 1
75.9151 0 1
76.031 0 1
76.147 24586 156.799
76.263 26124 161.629
76.3791 26987 164.277
76.4952 28307 168.247
76.6113 28559 168.994
76.7276 29264 171.067
76.8438 28702 169.417
76.9601 26776 163.634
77.0765 25024 158.19
77.1929 22782 150.937
77.3093 20717 143.934
77.4258 19608 140.029
77.5423 19530 139.75
77.6589 19828 140.812
77.7755 21128 145.355
77.8921 23171 152.22
78.0088 25395 159.358
78.1256 27300 165.227
78.2423 29083 170.537
78.3591 30798 175.494
78.4759 31217 176.683
78.5928 31993 178.866
78.7097 31891 178.581
78.8266 31026 176.142
78.9436 33367 182.666
79.0606 31706 178.062
79.1776 31513 177.519
79.2946 31488 177.449
79.4117 31252 176.782
79.5288 30682 175.163
79.6459 30146 173.626
79.7631 29521 171.817
79.8802 29276 171.102
79.9974 28795 169.691
80.1147 29171 170.795
80.2319 29642 172.169
80.3491 30427 174.433
80.4664 30491 174.617
80.5837 29191 170.854
80.701 27266 165.124
80.8183 24303 155.894
80.9357 22490 149.967
81.053 20648 143.694
81.1704 19819 140.78
81.2877 19471 139.539
81.4051 20420 142.899
81.5225 22095 148.644
81.6399 24775 157.401
81.7573 27253 165.085
81.8747 28560 168.997
81.9922 30606 174.946
82.1096 31164 176.533
82.227 31670 177.961
82.3444 31736 178.146
82.4619 31929 178.687
82.5793 32203 179.452
82.6967 31033 176.162
82.8142 31276 176.85
82.9316 30985 176.026
83.049 30402 174.362
83.1664 29865 172.815
83.2838 29075 170.514
83.4012 28602 169.121
83.5186 28426 168.6
83.636 28142 167.756
83.7534 28120 167.69
83.8708 29300 171.172
83.9881 29656 172.209
84.1055 29272 171.091
84.2228 27828 166.817
84.3401 25949 161.087
84.4575 24109 155.271
84.5747 21860 147.851
84.692 20094 141.753
84.8093 19428 139.384
84.9265 19322 139.004
85.0437 20610 143.562
85.1609 22875 151.245
85.2781 25623 160.072
85.3952 28032 167.428
85.5123 30315 174.112
85.6294 32798 181.102
85.7465 33803 183.856
85.8636 34832 186.633
85.9806 35944 189.589
86.0976 35929 189.549
86.2145 36406 190.804
86.3315 37830 194.499
86.4484 35671 188.868
86.5652 36668 191.489
86.682 37431 193.471
86.7988 37031 192.434
86.9156 37005 192.367
87.0323 36765 191.742
87.149 36382 190.741
87.2657 36317 190.57
87.3823 37697 194.157
87.4988 38456 196.102
87.6154 39212 198.02
87.7318 38130 195.269
87.8483 36368 190.704
87.9647 33873 184.046
88.081 30922 175.847
88.1973 28215 167.973
88.3136 26511 162.822
88.4298 26018 161.301
88.546 26917 164.064
88.6621 28904 170.012
88.7781 31653 177.913
88.8942 0 1
89.0101 0 1
89.126 0 1
89.2419 0 1
89.3577 0 1
89.4734 0 1
89.5891 0 1
89.7047 0 1
89.8203 0 1
89.9358 0 1
92.3269 0 1
92.4424 0 1
92.558 0 1
92.6736 0 1
92.7893 0 1
92.905 0 1
93.0208 0 1
93.1366 0 1
93.2525 0 1
93.3685 0 1
93.4845 0 1
93.6005 29522 171.82
93.7167 29004 170.306
93.8328 29198 170.874
93.949 30074 173.419
94.0653 31898 178.6
94.1816 35145 187.47
94.2979 38407 195.977
94.4143 41774 204.387
94.5307 43917 209.564
94.6472 46633 215.947
94.7637 47333 217.561
94.8803 47611 218.199
94.9969 48299 219.77
95.1135 48865 221.054
95.2302 49204 221.82
95.3469 48829 220.973
95.4637 49004 221.368
95.5805 48509 220.248
95.6973 49094 221.572
95.8142 48450 220.114
95.9311 47774 218.573
96.048 47152 217.145
96.1649 46353 215.297
96.2819 46261 215.084
96.3989 46865 216.483
96.516 47445 217.819
96.633 47802 218.637
96.7501 48032 219.162
96.8673 46867 216.488
96.9844 43918 209.566
97.1016 40231 200.577
97.2188 37092 192.593
97.336 34372 185.397
97.4532 31393 177.181
97.5704 30439 174.468
97.6877 31078 176.29
97.805 32878 181.323
97.9223 35891 189.449
98.0396 39402 198.499
98.1569 42830 206.954
98.2743 45700 213.776
98.3916 47644 218.275
98.509 49460 222.396
98.6264 50368 224.428
98.7438 51038 225.916
98.8612 50974 225.774
98.9786 51699 227.374
99.096 50747 225.271
99.2134 50028 223.669
99.3308 50553 224.84
99.4482 50537 224.804
99.5656 50307 224.292
99.6831 49461 222.398
99.8005 48837 220.991
99.9179 47923 218.913
100.035 48528 220.291
100.153 49633 222.785
100.27 50242 224.147
100.388 50708 225.184
100.505 48389 219.975
100.622 45073 212.304
100.74 41783 204.409
100.857 38491 196.191
100.975 34744 186.397
101.092 32480 180.222
101.209 31709 178.07
101.327 32614 180.593
101.444 35579 188.624
101.561 39527 198.814
101.679 43143 207.709
101.796 46317 215.214
101.913 49926 223.441
102.03 51603 227.163
102.148 52480 229.085
102.265 51003 225.838
102.382 54169 232.742
102.499 53146 230.534
102.616 52947 230.102
102.733 52016 228.07
102.851 51957 227.941
102.968 53007 230.232
103.085 52763 229.702
103.202 52055 228.156
103.319 51175 226.219
103.436 50803 225.395
103.552 50260 224.187
103.669 50653 225.062
103.786 52210 228.495
103.903 52833 229.854
104.02 51639 227.242
104.137 48220 219.591
104.253 45523 213.361
104.37 41383 203.428
104.487 37795 194.409
104.603 35354 188.027
104.72 34993 187.064
104.836 35487 188.38
104.953 37716 194.206
105.069 41629 204.032
105.186 46163 214.856
105.302 49814 223.191
105.418 52813 229.811
105.535 55041 234.608
105.651 55805 236.231
105.767 56350 237.382
105.883 56182 237.027
105.999 56528 237.756
106.115 0 1
106.231 0 1
106.347 0 1
106.463 0 1
106.579 0 1
106.694 0 1
106.81 0 1
106.926 0 1
107.041 0 1
107.157 0 1
109.576 0 1
109.692 0 1
109.807 0 1
109.923 0 1
110.039 0 1
110.155 0 1
110.27 0 1
110.386 0 1
110.502 0 1
110.618 49024 221.414
110.735 50468 224.651
110.851 51476 226.883
110.967 52480 229.085
111.083 52213 228.502
111.199 51823 227.647
111.316 51996 228.026
111.432 52432 228.98
111.549 52287 228.664
111.665 51531 227.004
111.782 50046 223.71
111.898 49008 221.378
112.015 49267 221.962
112.132 49730 223.002
112.248 50538 224.807
112.365 50648 225.051
112.482 47217 217.295
112.599 47051 216.912
112.716 42878 207.07
112.832 39602 199.003
112.949 36497 191.042
113.066 33851 183.986
113.183 32700 180.831
113.3 32872 181.306
113.417 33783 183.802
113.534 36532 191.133
113.652 39805 199.512
113.769 42308 205.689
113.886 45719 213.82
114.003 46733 216.178
114.12 48077 219.265
114.238 48806 220.921
114.355 48975 221.303
114.472 48796 220.898
114.589 49113 221.615
114.707 47468 217.872
114.824 47441 217.81
114.942 47969 219.018
115.059 48386 219.968
115.176 47988 219.062
115.294 47868 218.788
115.411 46408 215.425
115.529 46497 215.632
115.646 47123 217.078
115.764 47300 217.486
115.881 48437 220.084
115.999 47491 217.924
116.116 45914 214.276
116.234 43580 208.758
116.351 40908 202.257
116.469 38165 195.359
116.586 35213 187.651
116.704 33291 182.458
116.821 31856 178.482
116.939 32323 179.786
117.056 33864 184.022
117.174 36370 190.709
117.291 38811 197.005
117.409 42067 205.102
117.526 44053 209.888
117.644 45983 214.436
117.761 46631 215.942
117.879 47718 218.445
117.996 47205 217.267
118.114 47623 218.227
118.231 47174 217.196
118.349 45936 214.327
118.466 45952 214.364
118.584 47358 217.619
118.701 47193 217.239
118.819 46853 216.456
118.936 45766 213.93
119.053 44371 210.644
119.171 44508 210.969
119.288 44635 211.27
119.405 45426 213.134
119.523 45756 213.907
119.64 45503 213.314
119.757 44094 209.986
119.875 41708 204.225
119.992 40255 200.636
120.109 37902 194.684
120.226 34956 186.965
120.343 32737 180.934
120.46 31871 178.525
120.578 31591 177.739
120.695 32521 180.336
120.812 33752 183.717
120.929 36158 190.153
121.046 38211 195.476
121.163 40608 201.514
121.279 42543 206.26
121.396 43696 209.036
121.513 44289 210.45
121.63 45392 213.054
121.747 44885 211.861
121.863 44672 211.358
121.98 44397 210.706
122.097 44147 210.112
122.213 43308 208.106
122.33 43574 208.744
122.446 44074 209.938
122.563 43537 208.655
122.679 43229 207.916
122.795 41948 204.812
122.912 41542 203.819
123.028 41721 204.257
123.144 42771 206.812
123.26 42104 205.193
123.377 0 1
123.493 0 1
123.609 0 1
123.725 0 1
123.84 0 1
123.956 0 1
124.072 0 1
124.188 0 1
124.303 0 1
124.419 0 1
126.852 0 1
126.968 0 1
127.083 0 1
127.199 0 1
127.315 0 1
127.431 0 1
127.547 0 1
127.663 0 1
127.779 0 1
127.895 0 1
128.011 0 1
128.127 0 1
128.243 0 1
128.359 44493 210.934
128.476 44781 211.615
128.592 44949 212.012
128.708 43657 208.943
128.825 41980 204.89
128.941 39832 199.58
129.058 37707 194.183
129.174 35856 189.357
129.291 34662 186.177
129.408 34345 185.324
129.524 34274 185.132
129.641 35598 188.674
129.758 37280 193.08
129.875 39263 198.149
129.992 41138 202.825
130.108 42737 206.729
130.225 43436 208.413
130.342 44550 211.069
130.459 43889 209.497
130.576 45814 214.042
130.693 43932 209.6
130.81 43623 208.861
130.928 42957 207.261
131.045 43618 208.849
131.162 44401 210.715
131.279 45100 212.368
131.396 44872 211.83
131.513 44068 209.924
131.631 43234 207.928
131.748 44009 209.783
131.865 44852 211.783
131.983 44881 211.851
132.1 44262 210.385
132.217 42804 206.891
132.335 41531 203.792
132.452 40333 200.831
132.57 37988 194.905
132.687 35260 187.776
132.804 35204 187.627
132.922 33723 183.638
133.039 33725 183.644
133.157 34044 184.51
133.274 35402 188.154
133.392 37127 192.684
133.509 39066 197.651
133.627 39979 199.947
133.744 41465 203.63
133.862 41977 204.883
133.979 42541 206.255
134.097 42805 206.894
134.214 42113 205.215
134.332 41996 204.929
134.449 40877 202.181
134.567 40901 202.24
134.684 41852 204.578
134.802 42724 206.698
134.919 43089 207.579
135.037 42405 205.925
135.154 41645 204.071
135.272 42120 205.232
135.389 41521 203.767
135.507 42848 206.998
135.624 42132 205.261
135.742 41835 204.536
135.859 41306 203.239
135.977 39545 198.859
136.094 38580 196.418
136.211 36714 191.609
136.329 34910 186.842
136.446 33485 182.989
136.564 32898 181.378
136.681 32714 180.87
136.798 33227 182.283
136.915 34234 185.024
137.033 35701 188.947
137.15 36944 192.208
137.267 38294 195.689
137.384 39223 198.048
137.502 39935 199.837
137.619 39895 199.737
137.736 40290 200.724
137.853 39754 199.384
137.97 39336 198.333
138.087 37955 194.82
138.204 38695 196.71
138.321 39440 198.595
138.438 40199 200.497
138.555 40945 202.349
138.672 40909 202.26
138.788 40402 201.002
138.905 40351 200.876
139.022 41028 202.554
139.139 41610 203.985
139.255 41347 203.34
139.372 40747 201.859
139.488 40070 200.175
139.605 39023 197.542
139.721 38090 195.167
139.838 36486 191.013
139.954 34735 186.373
140.071 32817 181.155
140.187 33236 182.307
140.303 32299 179.719
140.419 32396 179.989
140.535 32424 180.067
140.652 33059 181.821
140.768 0 1
140.884 0 1
141 0 1
141.115 0 1
141.231 0 1
141.347 0 1
141.463 0 1
141.578 0 1
141.694 0 1
144.104 0 1
144.219 0 1
144.335 0 1
144.45 0 1
144.566 0 1
144.682 0 1
144.798 0 1
144.914 0 1
145.03 0 1
145.146 22907 151.351
145.262 24585 156.796
145.378 25052 158.278
145.494 25888 160.897
145.61 26421 162.545
145.726 26958 164.189
145.842 27570 166.042
145.959 28501 168.822
146.075 29101 170.59
146.192 29676 172.267
146.308 29855 172.786
146.425 29627 172.125
146.541 29904 172.928
146.658 29299 171.17
146.774 28804 169.717
146.891 28256 168.095
147.008 29387 171.426
147.125 29119 170.643
147.241 30368 174.264
147.358 30655 175.086
147.475 30655 175.086
147.592 30490 174.614
147.709 30437 174.462
147.826 30712 175.248
147.943 30977 176.003
148.06 30980 176.011
148.177 30725 175.285
148.294 29868 172.824
148.411 29430 171.552
148.528 29393 171.444
148.645 28138 167.744
148.762 27754 166.595
148.88 27261 165.109
148.997 26343 162.305
149.114 26852 163.866
149.231 26606 163.113
149.349 26847 163.851
149.466 27386 165.487
149.583 28058 167.505
149.701 28842 169.829
149.818 29172 170.798
149.935 29933 173.012
150.053 30119 173.548
150.17 29861 172.803
150.287 29960 173.09
150.405 29712 172.372
150.522 29042 170.417
150.64 28740 169.529
150.757 29296 171.161
150.875 29632 172.139
150.992 30221 173.842
151.11 30880 175.727
151.227 30965 175.969
151.344 30675 175.143
151.462 30472 174.562
151.579 31283 176.87
151.697 31273 176.842
151.814 30792 175.476
151.932 30483 174.594
152.049 30148 173.632
152.167 29618 172.099
152.284 28938 170.112
152.402 28121 167.693
152.519 27320 165.288
152.636 27597 166.123
152.754 26936 164.122
152.871 27465 165.726
152.989 27620 166.193
153.106 28056 167.499
153.223 28547 168.959
153.341 29009 170.32
153.458 29784 172.58
153.575 30122 173.557
153.693 30413 174.393
153.81 30408 174.379
153.927 30263 173.963
154.044 29705 172.351
154.162 29112 170.622
154.279 29124 170.658
154.396 29911 172.948
154.513 30476 174.574
154.63 31544 177.606
154.747 31949 178.743
154.864 32101 179.168
154.981 32112 179.198
155.098 32175 179.374
155.215 32184 179.399
155.332 32179 179.385
155.449 31813 178.362
155.566 31301 176.921
155.683 30937 175.889
155.8 30559 174.811
155.917 29687 172.299
156.033 29570 171.959
156.15 0 1
156.267 0 1
156.383 0 1
156.5 0 1
156.617 0 1
156.733 0 1
156.85 0 1
156.966 0 1
157.082 0 1
157.199 0 1
157.315 0 1
157.431 0 1
157.547 0 1
157.664 0 1
157.78 0 1
157.896 0 1
158.012 0 1
158.128 0 1
158.244 0 1
158.359 0 1
158.475 0 1
158.591 0 1
158.706 0 1
