
6.15755 0 1
6.2731 0 1
6.3887 0 1
6.50437 0 1
6.62009 0 1
6.73587 0 1
6.8517 0 1
6.96759 0 1
7.08353 0 1
7.19952 0 1
7.31557 0 1
7.43166 0 1
7.54781 0 1
7.664 0 1
7.78024 0 1
7.89653 0 1
8.01286 0 1
8.12924 0 1
8.24567 0 1
8.36213 0 1
8.47864 0 1
8.59519 0 1
8.71178 0 1
8.82841 0 1
8.94508 0 1
9.06179 0 1
9.17853 0 1
9.29531 0 1
9.41212 0 1
9.52897 0 1
9.64584 0 1
9.76276 0 1
9.8797 0 1
9.99667 0 1
10.1137 0 1
10.2307 0 1
10.3478 0 1
10.4648 0 1
10.5819 0 1
10.6991 0 1
10.8162 0 1
10.9334 0 1
11.0506 0 1
11.1678 0 1
11.285 0 1
11.4023 0 1
11.5196 0 1
11.6369 0 1
11.7542 0 1
11.8715 0 1
11.9888 0 1
12.1062 0 1
12.2235 0 1
12.3409 0 1
12.4582 0 1
12.5756 0 1
12.693 0 1
12.8104 0 1
12.9278 0 1
13.0452 0 1
13.1626 0 1
13.28 0 1
13.3974 0 1
13.5149 0 1
13.6323 0 1
13.7497 0 1
13.8671 0 1
13.9845 0 1
14.1019 0 1
14.2193 0 1
14.3367 0 1
14.4541 0 1
14.5714 0 1
14.6888 0 1
14.8062 0 1
14.9235 0 1
15.0408 0 0
15.1581 0 0
15.2755 0 0
15.3927 0 0
15.51 0 0
15.6273 0 0
15.7445 0 0
15.8617 0 0
15.9789 0 0
16.0961 0 0
16.2132 0 0
16.3304 0 0
16.4475 0 0
16.5646 0 0
16.6816 0 0
16.7986 0 0
16.9156 0 0
17.0326 0 0
17.1496 0 0
17.2665 0 0
17.3833 0 0
17.5002 0 0
17.617 0 0
17.7338 0 0
17.8505 0 0
17.9672 0 0
18.0839 0 0
18.2005 0 0
18.3171 0 0
18.4337 0 0
18.5502 0 0
18.6666 0 0
18.7831 0 0
18.8994 0 0
19.0158 0 0
19.1321 0 0
19.2483 0 0
19.3645 0 0
19.4806 0 0
19.5967 0 0
19.7128 0 0
19.8288 0 0
19.9447 0 0
20.0606 0 1
20.1764 0 1
20.2922 0 1
20.4079 0 1
20.5236 0 1
20.6392 0 1
20.7548 0 1
20.8702 0 1
23.3078 0 1
23.4233 0 1
23.539 0 1
23.6547 0 1
23.7704 0 1
23.8862 0 1
24.0021 0 1
24.118 0 1
24.234 0 1
24.35 0 1
24.4661 18179 134.83
24.5822 18146 134.707
24.6984 18151 134.726
24.8146 17960 134.015
24.9309 17447 132.087
25.0472 17000 130.384
25.1636 17197 131.137
25.28 17459 132.133
25.3965 17875 133.697
25.513 18296 135.263
25.6296 18900 137.477
25.7462 19278 138.845
25.8628 19297 138.914
25.9795 19561 139.861
26.0962 19911 141.106
26.213 19736 140.485
26.3298 19150 138.384
26.4466 18780 137.04
26.5635 17596 132.65
26.6804 17389 131.867
26.7973 17605 132.684
26.9143 18362 135.506
27.0313 18701 136.752
27.1483 19453 139.474
27.2653 19602 140.007
27.3824 19613 140.046
27.4996 19855 140.908
27.6167 19560 139.857
27.7339 19312 138.968
27.8511 18761 136.971
27.9683 18688 136.704
28.0855 18511 136.055
28.2028 18210 134.944
28.3201 17047 130.564
28.4374 17023 130.472
28.5547 16194 127.256
28.6721 16186 127.224
28.7894 16222 127.366
28.9068 16471 128.339
29.0242 16706 129.252
29.1416 16934 130.131
29.259 17721 133.12
29.3764 17988 134.119
29.4939 17688 132.996
29.6113 18058 134.38
29.7288 17920 133.866
29.8463 17394 131.886
29.9638 17085 130.71
30.0812 16457 128.285
30.1987 16103 126.898
30.3162 16481 128.378
30.4337 16757 129.449
30.5512 17450 132.098
30.6687 18009 134.198
30.7862 18651 136.569
30.9037 18552 136.206
31.0212 18719 136.817
31.1387 18767 136.993
31.2562 18421 135.724
31.3737 18074 134.44
31.4912 18098 134.529
31.6087 17765 133.285
31.7262 17314 131.583
31.8436 17354 131.735
31.9611 16800 129.615
32.0785 16031 126.614
32.1959 15829 125.813
32.3134 15690 125.26
32.4308 15992 126.459
32.5482 16361 127.91
32.6655 16856 129.831
32.7829 17014 130.438
32.9002 17164 131.011
33.0176 17111 130.809
33.1349 17534 132.416
33.2522 17550 132.476
33.3694 17550 132.476
33.4867 17508 132.318
33.6039 16617 128.907
33.7211 16299 127.668
33.8383 16107 126.913
33.9554 16316 127.734
34.0725 16689 129.186
34.1896 17266 131.4
34.3067 17675 132.947
34.4237 18109 134.57
34.5407 18388 135.602
34.6577 18782 137.047
34.7746 18512 136.059
34.8915 18474 135.919
35.0084 18067 134.414
35.1252 17985 134.108
35.242 17879 133.712
35.3587 17826 133.514
35.4755 17132 130.889
35.5921 16905 130.019
35.7088 16199 127.275
35.8254 15730 125.419
35.9419 15540 124.66
36.0584 15485 124.439
36.1749 15754 125.515
36.2913 15819 125.774
36.4077 16501 128.456
36.524 16528 128.561
36.6403 16841 129.773
36.7565 16818 129.684
36.8727 17072 130.66
36.9889 17320 131.605
37.1049 16922 130.085
37.221 0 1
37.3369 0 1
37.4529 0 1
37.5687 0 1
37.6845 0 1
37.8003 0 1
37.916 0 1
38.0316 0 1
38.1472 0 1
40.5851 0 1
40.7008 0 1
40.8164 0 1
40.9322 0 1
41.048 0 1
41.1639 0 1
41.2798 0 1
41.3958 0 1
41.5118 0 1
41.6279 0 1
41.744 13654 116.85
41.8602 14253 119.386
41.9765 14467 120.279
42.0928 14755 121.47
42.2091 14849 121.856
42.3255 14342 119.758
42.4419 13875 117.792
42.5584 13464 116.034
42.675 13684 116.979
42.7915 13825 117.58
42.9081 14550 120.623
43.0248 15039 122.634
43.1415 15247 123.479
43.2582 15483 124.431
43.375 15710 125.34
43.4918 16167 127.15
43.6087 15736 125.443
43.7256 15827 125.805
43.8425 15498 124.491
43.9595 15199 123.284
44.0765 14964 122.327
44.1935 14588 120.781
44.3106 14115 118.807
44.4277 13463 116.03
44.5448 12894 113.552
44.6619 12228 110.58
44.7791 12228 110.58
44.8963 12111 110.05
45.0136 12371 111.225
45.1308 12746 112.898
45.2481 12752 112.925
45.3654 12876 113.472
45.4827 12876 113.472
45.6001 13026 114.132
45.7174 12982 113.939
45.8348 12512 111.857
45.9522 12239 110.63
46.0697 11844 108.83
46.1871 11323 106.41
46.3046 11400 106.771
46.422 11970 109.407
46.5395 12423 111.459
46.657 12686 112.632
46.7745 12815 113.203
46.892 12923 113.679
47.0096 13154 114.691
47.1271 13189 114.843
47.2446 12896 113.561
47.3622 12815 113.203
47.4797 12796 113.119
47.5973 12261 110.729
47.7149 11982 109.462
47.8324 11641 107.893
47.95 11240 106.019
48.0675 10454 102.245
48.1851 10069 100.344
48.3027 9765 98.818
48.4202 9752 98.7522
48.5378 9984 99.92
48.6554 10293 101.454
48.7729 10427 102.113
48.8904 10513 102.533
49.008 10978 104.776
49.1255 10920 104.499
49.243 10960 104.69
49.3605 11022 104.986
49.478 10440 102.176
49.5955 10244 101.213
49.713 10460 102.274
49.8304 10438 102.167
49.9479 10864 104.231
50.0653 11750 108.397
50.1827 12450 111.58
50.3001 12868 113.437
50.4175 13253 115.122
50.5348 13453 115.987
50.6521 14280 119.499
50.7694 14464 120.266
50.8867 14688 121.194
51.004 14586 120.773
51.1212 15006 122.499
51.2384 15016 122.54
51.3556 14622 120.921
51.4727 14456 120.233
51.5899 13705 117.068
51.707 13318 115.404
51.824 13100 114.455
51.9411 13273 115.209
52.0581 13830 117.601
52.175 14006 118.347
52.2919 14431 120.129
52.4088 14607 120.859
52.5257 15174 123.183
52.6425 15353 123.907
52.7593 15526 124.603
52.876 15607 124.928
52.9927 15418 124.169
53.1094 14789 121.61
53.226 14621 120.917
53.3426 14498 120.408
53.4591 14716 121.31
53.5756 16007 126.519
53.692 16897 129.988
53.8084 17575 132.571
53.9248 18122 134.618
54.0411 18534 136.14
54.1573 18991 137.808
54.2735 0 1
54.3896 0 1
54.5057 0 1
54.6217 0 1
54.7377 0 1
54.8537 0 1
54.9695 0 1
55.0853 0 1
55.2011 0 1
55.3168 0 1
55.4324 0 1
57.824 0 1
57.9396 0 1
58.0553 0 1
58.1711 0 1
58.2869 0 1
58.4028 0 1
58.5187 0 1
58.6347 0 1
58.7508 0 1
58.8669 0 1
58.983 20752 144.056
59.0992 21551 146.803
59.2155 22478 149.927
59.3318 22656 150.519
59.4482 23282 152.584
59.5646 22884 151.275
59.681 22785 150.947
59.7975 22630 150.433
59.9141 21756 147.499
60.0306 20838 144.354
60.1473 19679 140.282
60.2639 18835 137.241
60.3807 17734 133.169
60.4974 17185 131.092
60.6142 17117 130.832
60.731 17510 132.325
60.8479 17743 133.203
60.9648 18284 135.218
61.0818 18642 136.536
61.1987 18712 136.792
61.3158 18658 136.594
61.4328 18633 136.503
61.5499 18022 134.246
61.667 17593 132.639
61.7841 17198 131.141
61.9013 16909 130.035
62.0185 17458 132.129
62.1357 18192 134.878
62.253 19167 138.445
62.3702 19671 140.253
62.4875 20425 142.916
62.6049 20779 144.149
62.7222 21890 147.953
62.8396 21620 147.037
62.9569 21950 148.155
63.0743 21764 147.526
63.1918 21668 147.201
63.3092 21157 145.454
63.4267 20559 143.384
63.5441 19788 140.67
63.6616 18550 136.198
63.7791 17307 131.556
63.8966 16423 128.152
64.0142 15726 125.403
64.1317 15834 125.833
64.2492 16039 126.645
64.3668 16585 128.783
64.4843 16934 130.131
64.6019 17195 131.13
64.7195 17266 131.4
64.837 17631 132.782
64.9546 17438 132.053
65.0722 17097 130.755
65.1898 16519 128.526
65.3074 16266 127.538
65.4249 15622 124.988
65.5425 15733 125.431
65.6601 16489 128.41
65.7777 17360 131.757
65.8952 17971 134.056
66.0128 19138 138.34
66.1304 19858 140.918
66.2479 20074 141.683
66.3655 20676 143.792
66.483 21102 145.265
66.6005 20987 144.869
66.718 20977 144.834
66.8355 20703 143.885
66.953 20329 142.58
67.0705 19665 140.232
67.1879 18537 136.151
67.3054 17622 132.748
67.4228 16169 127.157
67.5402 15273 123.584
67.6576 14916 122.131
67.7749 14460 120.25
67.8923 15602 124.908
68.0096 16213 127.33
68.1269 16880 129.923
68.2442 17191 131.114
68.3614 17674 132.944
68.4787 18023 134.25
68.5958 17927 133.892
68.713 17345 131.7
68.8302 16880 129.923
68.9473 16187 127.228
69.0643 15932 126.222
69.1814 15990 126.452
69.2984 16692 129.198
69.4154 18013 134.213
69.5323 19317 138.986
69.6492 19889 141.028
69.7661 20864 144.444
69.8829 21408 146.315
69.9997 21941 148.125
70.1165 22294 149.312
70.2332 22507 150.023
70.3499 22063 148.536
70.4665 22321 149.402
70.5831 21989 148.287
70.6996 21055 145.103
70.8161 19722 140.435
70.9326 18976 137.753
71.049 17577 132.578
71.1653 16165 127.142
71.2817 15435 124.238
71.3979 14955 122.291
71.5141 15447 124.286
71.6303 15708 125.332
71.7464 15354 123.911
71.8624 0 1
71.9784 0 1
72.0944 0 1
72.2102 0 1
72.3261 0 1
72.4418 0 1
72.5575 0 1
72.6732 0 1
75.1054 0 1
75.2209 0 1
75.3365 0 1
75.4521 0 1
75.5678 0 1
75.6835 0 1
75.7993 0 1
75.9151 0 1
76.031 0 1
76.147 19032 137.957
76.263 19343 139.079
76.3791 18158 134.752
76.4952 16684 129.167
76.6113 16067 126.756
76.7276 16463 128.308
76.8438 16465 128.316
76.9601 17171 131.038
77.0765 18200 134.907
77.1929 18461 135.871
77.3093 19131 138.315
77.4258 19568 139.886
77.5423 20209 142.158
77.6589 19274 138.831
77.7755 18526 136.11
77.8921 17598 132.657
78.0088 17164 131.011
78.1256 16592 128.81
78.2423 16575 128.744
78.3591 17667 132.917
78.4759 18689 136.708
78.5928 19863 140.936
78.7097 20992 144.886
78.8266 22595 150.316
78.9436 21410 146.322
79.0606 22638 150.459
79.1776 22674 150.579
79.2946 22981 151.595
79.4117 22616 150.386
79.5288 22367 149.556
79.6459 21797 147.638
79.7631 20879 144.496
79.8802 20148 141.944
79.9974 18505 136.033
80.1147 16976 130.292
80.2319 15693 125.272
80.3491 15382 124.024
80.4664 15539 124.656
80.5837 16279 127.589
80.701 16834 129.746
80.8183 17356 131.742
80.9357 17674 132.944
81.053 18130 134.648
81.1704 18136 134.67
81.2877 18045 134.332
81.4051 17186 131.095
81.5225 16610 128.88
81.6399 15488 124.451
81.7573 15356 123.919
81.8747 15207 123.317
81.9922 15612 124.948
82.1096 16975 130.288
82.227 18146 134.707
82.3444 19188 138.521
82.4619 19819 140.78
82.5793 19828 140.812
82.6967 21197 145.592
82.8142 20639 143.663
82.9316 20803 144.232
83.049 20481 143.112
83.1664 20271 142.376
83.2838 19393 139.259
83.4012 18708 136.777
83.5186 17582 132.597
83.636 16177 127.189
83.7534 15004 122.491
83.8708 14323 119.679
83.9881 13883 117.826
84.1055 14172 119.046
84.2228 14542 120.59
84.3401 15533 124.631
84.4575 16344 127.844
84.5747 16897 129.988
84.692 17550 132.476
84.8093 17291 131.495
84.9265 17167 131.023
85.0437 15930 126.214
85.1609 15214 123.345
85.2781 14914 122.123
85.3952 14408 120.033
85.5123 14722 121.334
85.6294 15664 125.156
85.7465 17384 131.848
85.8636 18558 136.228
85.9806 19519 139.71
86.0976 20614 143.576
86.2145 21487 146.584
86.3315 21248 145.767
86.4484 22847 151.152
86.5652 22425 149.75
86.682 22296 149.318
86.7988 22222 149.07
86.9156 21409 146.318
87.0323 20413 142.874
87.149 19438 139.42
87.2657 17998 134.157
87.3823 17081 130.694
87.4988 16180 127.201
87.6154 16294 127.648
87.7318 17144 130.935
87.8483 17925 133.884
87.9647 18719 136.817
88.081 19682 140.293
88.1973 20458 143.031
88.3136 20673 143.781
88.4298 20360 142.688
88.546 19225 138.654
88.6621 17944 133.955
88.7781 16752 129.43
88.8942 0 1
89.0101 0 1
89.126 0 1
89.2419 0 1
89.3577 0 1
89.4734 0 1
89.5891 0 1
89.7047 0 1
89.8203 0 1
89.9358 0 1
92.3269 0 1
92.4424 0 1
92.558 0 1
92.6736 0 1
92.7893 0 1
92.905 0 1
93.0208 0 1
93.1366 0 1
93.2525 0 1
93.3685 0 1
93.4845 0 1
93.6005 27406 165.548
93.7167 28536 168.926
93.8328 29524 171.825
93.949 29841 172.745
94.0653 29719 172.392
94.1816 29109 170.614
94.2979 28857 169.873
94.4143 28988 170.259
94.5307 29415 171.508
94.6472 31273 176.842
94.7637 33589 183.273
94.8803 37220 192.925
94.9969 39305 198.255
95.1135 41906 204.71
95.2302 43412 208.355
95.3469 45597 213.535
95.4637 46726 216.162
95.5805 48345 219.875
95.6973 49884 223.347
95.8142 50623 224.996
95.9311 50386 224.468
96.048 50199 224.051
96.1649 49381 222.218
96.2819 47585 218.14
96.3989 45619 213.586
96.516 43365 208.243
96.633 40374 200.933
96.7501 40266 200.664
96.8673 41557 203.855
96.9844 44329 210.545
97.1016 47963 219.005
97.2188 50581 224.902
97.336 52540 229.216
97.4532 52389 228.886
97.5704 52223 228.524
97.6877 50298 224.272
97.805 47586 218.142
97.9223 44335 210.559
98.0396 41711 204.233
98.1569 40423 201.055
98.2743 40044 200.11
98.3916 41959 204.839
98.509 45996 214.467
98.6264 48173 219.483
98.7438 50016 223.643
98.8612 51675 227.321
98.9786 53990 232.357
99.096 54531 233.519
99.2134 55449 235.476
99.3308 55556 235.703
99.4482 55989 236.62
99.5656 55184 234.913
99.6831 54276 232.972
99.8005 52429 228.974
99.9179 50408 224.517
100.035 47968 219.016
100.153 44575 211.128
100.27 41817 204.492
100.388 41612 203.99
100.505 44036 209.848
100.622 47484 217.908
100.74 49776 223.105
100.857 50431 224.568
100.975 51281 226.453
101.092 50721 225.213
101.209 49965 223.529
101.327 48090 219.294
101.444 44375 210.654
101.561 41172 202.909
101.679 38909 197.254
101.796 37824 194.484
101.913 37669 194.085
102.03 39718 199.294
102.148 42948 207.239
102.265 46508 215.657
102.382 43723 209.1
102.499 45902 214.248
102.616 46288 215.146
102.733 45864 214.159
102.851 45186 212.57
102.968 44612 211.216
103.085 43122 207.658
103.202 41107 202.749
103.319 38922 197.287
103.436 36313 190.56
103.552 33520 183.085
103.669 30285 174.026
103.786 27634 166.235
103.903 26451 162.638
104.02 26918 164.067
104.137 27750 166.583
104.253 29149 170.731
104.37 27538 165.946
104.487 28053 167.49
104.603 27226 165.003
104.72 26427 162.564
104.836 24351 156.048
104.953 22078 148.587
105.069 21015 144.966
105.186 20257 142.327
105.302 19981 141.354
105.418 20484 143.122
105.535 21915 148.037
105.651 23383 152.915
105.767 24630 156.939
105.883 25452 159.537
105.999 25920 160.997
106.115 0 1
106.231 0 1
106.347 0 1
106.463 0 1
106.579 0 1
106.694 0 1
106.81 0 1
106.926 0 1
107.041 0 1
107.157 0 1
109.576 0 1
109.692 0 1
109.807 0 1
109.923 0 1
110.039 0 1
110.155 0 1
110.27 0 1
110.386 0 1
110.502 0 1
110.618 19948 141.237
110.735 21676 147.228
110.851 22830 151.096
110.967 24066 155.132
111.083 24769 157.382
111.199 24997 158.104
111.316 25045 158.256
111.432 24815 157.528
111.549 24658 157.029
111.665 24750 157.321
111.782 23394 152.951
111.898 22551 150.17
112.015 21427 146.38
112.132 19697 140.346
112.248 18355 135.481
112.365 17994 134.142
112.482 18340 135.425
112.599 18420 135.72
112.716 19113 138.25
112.832 19770 140.606
112.949 19896 141.053
113.066 19813 140.759
113.183 19383 139.223
113.3 19010 137.877
113.417 17942 133.948
113.534 17392 131.879
113.652 17074 130.668
113.769 16908 130.031
113.886 17270 131.415
114.003 17733 133.165
114.12 19537 139.775
114.238 20317 142.538
114.355 21573 146.877
114.472 22458 149.86
114.589 22653 150.509
114.707 23238 152.44
114.824 23720 154.013
114.942 23860 154.467
115.059 23885 154.548
115.176 23491 153.268
115.294 23395 152.954
115.411 22318 149.392
115.529 21564 146.847
115.646 20397 142.818
115.764 18988 137.797
115.881 18046 134.335
115.999 17973 134.063
116.116 18666 136.624
116.234 19519 139.71
116.351 19827 140.808
116.469 19987 141.375
116.586 20104 141.789
116.704 20029 141.524
116.821 19877 140.986
116.939 18823 137.197
117.056 18614 136.433
117.174 17946 133.963
117.291 17844 133.581
117.409 18030 134.276
117.526 17982 134.097
117.644 19968 141.308
117.761 20983 144.855
117.879 22334 149.446
117.996 23090 151.954
118.114 23784 154.221
118.231 24606 156.863
118.349 24347 156.035
118.466 24883 157.743
118.584 24954 157.968
118.701 25162 158.625
118.819 24433 156.311
118.936 24130 155.338
119.053 23504 153.31
119.171 22374 149.579
119.288 21195 145.585
119.405 20054 141.612
119.523 19035 137.967
119.64 19049 138.018
119.757 19230 138.672
119.875 20129 141.877
119.992 20400 142.829
120.109 20269 142.369
120.226 20225 142.215
120.343 20046 141.584
120.46 20016 141.478
120.578 19824 140.798
120.695 19020 137.913
120.812 18548 136.191
120.929 18286 135.226
121.046 18281 135.207
121.163 18578 136.301
121.279 19262 138.788
121.396 20663 143.746
121.513 21623 147.048
121.63 22808 151.023
121.747 23549 153.457
121.863 24183 155.509
121.98 24639 156.968
122.097 24560 156.716
122.213 24757 157.344
122.33 24937 157.915
122.446 24263 155.766
122.563 24185 155.515
122.679 23550 153.46
122.795 23254 152.493
122.912 22409 149.696
123.028 21302 145.952
123.144 20069 141.665
123.26 19092 138.174
123.377 0 1
123.493 0 1
123.609 0 1
123.725 0 1
123.84 0 1
123.956 0 1
124.072 0 1
124.188 0 1
124.303 0 1
124.419 0 1
126.852 0 1
126.968 0 1
127.083 0 1
127.199 0 1
127.315 0 1
127.431 0 1
127.547 0 1
127.663 0 1
127.779 0 1
127.895 0 1
128.011 0 1
128.127 0 1
128.243 0 1
128.359 22856 151.182
128.476 21824 147.729
128.592 21337 146.072
128.708 21809 147.679
128.825 22550 150.167
128.941 23543 153.437
129.058 23330 152.742
129.174 23158 152.178
129.291 22723 150.742
129.408 22650 150.499
129.524 22117 148.718
129.641 21384 146.233
129.758 20691 143.844
129.875 21011 144.952
129.992 20624 143.611
130.108 20662 143.743
130.225 21832 147.757
130.342 22806 151.017
130.459 23807 154.295
130.576 24957 157.978
130.693 25287 159.019
130.81 25401 159.377
130.928 25845 160.764
131.045 26000 161.245
131.162 26211 161.898
131.279 26111 161.589
131.396 26364 162.37
131.513 25622 160.069
131.631 24818 157.537
131.748 24262 155.763
131.865 23065 151.872
131.983 21606 146.99
132.1 21344 146.096
132.217 21441 146.427
132.335 22302 149.339
132.452 22678 150.592
132.57 22982 151.598
132.687 22103 148.671
132.804 23246 152.466
132.922 22258 149.191
133.039 22053 148.503
133.157 21535 146.748
133.274 21122 145.334
133.392 20762 144.09
133.509 20531 143.286
133.627 20294 142.457
133.744 20933 144.682
133.862 22152 148.835
133.979 23267 152.535
134.097 24004 154.932
134.214 24631 156.943
134.332 24731 157.261
134.449 25377 159.302
134.567 25557 159.866
134.684 25593 159.978
134.802 26220 161.926
134.919 25926 161.016
135.037 25750 160.468
135.154 25210 158.777
135.272 24862 157.677
135.389 24068 155.139
135.507 22850 151.162
135.624 21998 148.317
135.742 21815 147.699
135.859 22323 149.409
135.977 22519 150.063
136.094 23296 152.63
136.211 23373 152.882
136.329 23745 154.094
136.446 23377 152.895
136.564 23186 152.269
136.681 22853 151.172
136.798 21534 146.745
136.915 21399 146.284
137.033 21273 145.853
137.15 20872 144.471
137.267 21002 144.921
137.384 21559 146.83
137.502 22638 150.459
137.619 23100 151.987
137.736 24359 156.074
137.853 24315 155.933
137.97 24354 156.058
138.087 25834 160.73
138.204 25467 159.584
138.321 25921 161
138.438 26402 162.487
138.555 26123 161.626
138.672 26408 162.505
138.788 25506 159.706
138.905 25268 158.959
139.022 24576 156.767
139.139 23401 152.974
139.255 22833 151.106
139.372 22453 149.843
139.488 22847 151.152
139.605 23377 152.895
139.721 23780 154.208
139.838 23949 154.755
139.954 23857 154.457
140.071 23213 152.358
140.187 23306 152.663
140.303 22570 150.233
140.419 21787 147.604
140.535 21238 145.733
140.652 20440 142.969
140.768 0 1
140.884 0 1
141 0 1
141.115 0 1
141.231 0 1
141.347 0 1
141.463 0 1
141.578 0 1
141.694 0 1
144.104 0 1
144.219 0 1
144.335 0 1
144.45 0 1
144.566 0 1
144.682 0 1
144.798 0 1
144.914 0 1
145.03 0 1
145.146 22034 148.439
145.262 22009 148.354
145.378 21339 146.079
145.494 20736 144
145.61 20364 142.702
145.726 20594 143.506
145.842 20379 142.755
145.959 20296 142.464
146.075 20838 144.354
146.192 21365 146.168
146.308 22380 149.599
146.425 22550 150.167
146.541 23247 152.47
146.658 23276 152.565
146.774 23580 153.558
146.891 23939 154.722
147.008 24310 155.917
147.125 24330 155.981
147.241 24352 156.051
147.358 23962 154.797
147.475 23673 153.86
147.592 22924 151.407
147.709 22421 149.736
147.826 21281 145.88
147.943 21014 144.962
148.06 21049 145.083
148.177 21594 146.949
148.294 22080 148.593
148.411 22453 149.843
148.528 22370 149.566
148.645 22058 148.519
148.762 21916 148.041
148.88 21547 146.789
148.997 20532 143.29
149.114 21469 146.523
149.231 20427 142.923
149.349 20249 142.299
149.466 19721 140.431
149.583 19729 140.46
149.701 20372 142.731
149.818 21394 146.267
149.935 21713 147.353
150.053 22456 149.853
150.17 22697 150.655
150.287 22880 151.261
150.405 23351 152.81
150.522 24075 155.161
150.64 24243 155.702
150.757 24788 157.442
150.875 24362 156.083
150.992 24771 157.388
151.11 23478 153.225
151.227 23570 153.525
151.344 22600 150.333
151.462 21862 147.858
151.579 21680 147.241
151.697 22055 148.509
151.814 22643 150.476
151.932 23108 152.013
152.049 23403 152.98
152.167 23377 152.895
152.284 23055 151.839
152.402 23191 152.286
152.519 22537 150.123
152.636 22307 149.355
152.754 21857 147.841
152.871 21314 145.993
152.989 21381 146.222
153.106 21038 145.045
153.223 21371 146.188
153.341 21790 147.614
153.458 22646 150.486
153.575 23030 151.756
153.693 23584 153.571
153.81 23670 153.851
153.927 24174 155.48
154.044 24692 157.137
154.162 25412 159.411
154.279 26103 161.564
154.396 25928 161.022
154.513 26275 162.096
154.63 25929 161.025
154.747 25624 160.075
154.864 25086 158.386
154.981 24470 156.429
155.098 23688 153.909
155.215 23237 152.437
155.332 23541 153.431
155.449 24183 155.509
155.566 24420 156.269
155.683 24372 156.115
155.8 24216 155.615
155.917 24182 155.506
156.033 24011 154.955
156.15 0 1
156.267 0 1
156.383 0 1
156.5 0 1
156.617 0 1
156.733 0 1
156.85 0 1
156.966 0 1
157.082 0 1
157.199 0 1
157.315 0 1
157.431 0 1
157.547 0 1
157.664 0 1
157.78 0 1
157.896 0 1
158.012 0 1
158.128 0 1
158.244 0 1
158.359 0 1
158.475 0 1
158.591 0 1
158.706 0 1
