
6.15755 0 1
6.2731 0 1
6.3887 0 1
6.50437 0 1
6.62009 0 1
6.73587 0 1
6.8517 0 1
6.96759 0 1
7.08353 0 1
7.19952 0 1
7.31557 0 1
7.43166 0 1
7.54781 0 1
7.664 0 1
7.78024 0 1
7.89653 0 1
8.01286 0 1
8.12924 0 1
8.24567 0 1
8.36213 0 1
8.47864 0 1
8.59519 0 1
8.71178 0 1
8.82841 0 1
8.94508 0 1
9.06179 0 1
9.17853 0 1
9.29531 0 1
9.41212 0 1
9.52897 0 1
9.64584 0 1
9.76276 0 1
9.8797 0 1
9.99667 0 1
10.1137 0 1
10.2307 0 1
10.3478 0 1
10.4648 0 1
10.5819 0 1
10.6991 0 1
10.8162 0 1
10.9334 0 1
11.0506 0 1
11.1678 0 1
11.285 0 1
11.4023 0 1
11.5196 0 1
11.6369 0 1
11.7542 0 1
11.8715 0 1
11.9888 0 1
12.1062 0 1
12.2235 0 1
12.3409 0 1
12.4582 0 1
12.5756 0 1
12.693 0 1
12.8104 0 1
12.9278 0 1
13.0452 0 1
13.1626 0 1
13.28 0 1
13.3974 0 1
13.5149 0 1
13.6323 0 1
13.7497 0 1
13.8671 0 1
13.9845 0 1
14.1019 0 1
14.2193 0 1
14.3367 0 1
14.4541 0 1
14.5714 0 1
14.6888 0 1
14.8062 0 1
14.9235 0 1
15.0408 6681 81.7374
15.1581 7111 84.3267
15.2755 7534 86.7986
15.3927 7650 87.4643
15.51 7741 87.983
15.6273 7840 88.5438
15.7445 7622 87.3041
15.8617 7364 85.8138
15.9789 6835 82.6741
16.0961 6852 82.7768
16.2132 7261 85.2115
16.3304 7636 87.3842
16.4475 8137 90.2053
16.5646 8292 91.0604
16.6816 8182 90.4544
16.7986 8181 90.4489
16.9156 8161 90.3383
17.0326 8216 90.6422
17.1496 7967 89.2581
17.2665 8005 89.4707
17.3833 8184 90.4655
17.5002 8130 90.1665
17.617 8152 90.2884
17.7338 7902 88.8932
17.8505 8088 89.9333
17.9672 7957 89.202
18.0839 7678 87.6242
18.2005 7953 89.1796
18.3171 7915 88.9663
18.4337 8213 90.6256
18.5502 8543 92.4284
18.6666 8690 93.2202
18.7831 8767 93.6323
18.8994 8777 93.6856
19.0158 8324 91.236
19.1321 8218 90.6532
19.2483 7747 88.017
19.3645 7501 86.6083
19.4806 6974 83.5105
19.5967 6770 82.28
19.7128 7055 83.994
19.8288 7270 85.2643
19.9447 7064 84.0476
20.0606 0 1
20.1764 0 1
20.2922 0 1
20.4079 0 1
20.5236 0 1
20.6392 0 1
20.7548 0 1
20.8702 0 1
23.3078 0 1
23.4233 0 1
23.539 0 1
23.6547 0 1
23.7704 0 1
23.8862 0 1
24.0021 0 1
24.118 0 1
24.234 0 1
24.35 0 1
24.4661 7443 86.2728
24.5822 7220 84.9706
24.6984 6884 82.9699
24.8146 7103 84.2793
24.9309 7815 88.4025
25.0472 8239 90.7689
25.1636 8596 92.7146
25.28 8739 93.4826
25.3965 8781 93.707
25.513 8598 92.7254
25.6296 8753 93.5575
25.7462 8991 94.8209
25.8628 8944 94.5727
25.9795 8781 93.707
26.0962 8838 94.0106
26.213 8548 92.4554
26.3298 8681 93.1719
26.4466 8330 91.2688
26.5635 8256 90.8625
26.6804 8193 90.5152
26.7973 8217 90.6477
26.9143 8240 90.7744
27.0313 8321 91.2195
27.1483 8477 92.0706
27.2653 8717 93.3649
27.3824 8710 93.3274
27.4996 8844 94.0425
27.6167 8590 92.6823
27.7339 8566 92.5527
27.8511 8146 90.2552
27.9683 7798 88.3063
28.0855 7507 86.6429
28.2028 7010 83.7257
28.3201 6896 83.0422
28.4374 7324 85.5804
28.5547 7871 88.7187
28.6721 8352 91.3893
28.7894 8527 92.3418
28.9068 8454 91.9456
29.0242 8417 91.7442
29.1416 8404 91.6733
29.259 8466 92.0109
29.3764 8389 91.5915
29.4939 8274 90.9615
29.6113 8136 90.1998
29.7288 8032 89.6214
29.8463 8001 89.4483
29.9638 7929 89.0449
30.0812 7615 87.264
30.1987 7564 86.9713
30.3162 7727 87.9034
30.4337 7668 87.5671
30.5512 7731 87.9261
30.6687 7797 88.3006
30.7862 8295 91.0769
30.9037 8111 90.0611
31.0212 8306 91.1373
31.1387 8247 90.813
31.2562 8014 89.5209
31.3737 8024 89.5768
31.4912 7542 86.8447
31.6087 7152 84.5695
31.7262 6897 83.0482
31.8436 6755 82.1888
31.9611 7109 84.3149
32.0785 7506 86.6372
32.1959 7972 89.2861
32.3134 8371 91.4932
32.4308 8221 90.6697
32.5482 8284 91.0165
32.6655 8210 90.6091
32.7829 7998 89.4315
32.9002 8199 90.5483
33.0176 8160 90.3327
33.1349 8131 90.1721
33.2522 8041 89.6716
33.3694 7811 88.3799
33.4867 7895 88.8538
33.6039 7633 87.367
33.7211 7419 86.1336
33.8383 7323 85.5745
33.9554 7319 85.5512
34.0725 7516 86.6949
34.1896 7486 86.5217
34.3067 7543 86.8504
34.4237 7500 86.6025
34.5407 7843 88.5607
34.6577 7992 89.398
34.7746 7872 88.7243
34.8915 7996 89.4204
35.0084 7593 87.1378
35.1252 7504 86.6256
35.242 7142 84.5104
35.3587 6682 81.7435
35.4755 6359 79.7433
35.5921 6521 80.7527
35.7088 6740 82.0975
35.8254 7112 84.3327
35.9419 7790 88.261
36.0584 7727 87.9034
36.1749 7876 88.7468
36.2913 7797 88.3006
36.4077 7983 89.3476
36.524 7779 88.1986
36.6403 7969 89.2693
36.7565 7972 89.2861
36.8727 7801 88.3233
36.9889 7667 87.5614
37.1049 7460 86.3713
37.221 0 1
37.3369 0 1
37.4529 0 1
37.5687 0 1
37.6845 0 1
37.8003 0 1
37.916 0 1
38.0316 0 1
38.1472 0 1
40.5851 0 1
40.7008 0 1
40.8164 0 1
40.9322 0 1
41.048 0 1
41.1639 0 1
41.2798 0 1
41.3958 0 1
41.5118 0 1
41.6279 0 1
41.744 6093 78.0577
41.8602 6444 80.2745
41.9765 6449 80.3057
42.0928 6441 80.2558
42.2091 6351 79.6932
42.3255 5955 77.1686
42.4419 5861 76.5572
42.5584 5841 76.4264
42.675 5616 74.94
42.7915 5670 75.2994
42.9081 5709 75.5579
43.0248 5923 76.961
43.1415 5766 75.9342
43.2582 6043 77.7367
43.375 5989 77.3886
43.4918 5911 76.883
43.6087 5993 77.4145
43.7256 5959 77.1946
43.8425 5741 75.7694
43.9595 5568 74.619
44.0765 5322 72.952
44.1935 4864 69.7424
44.3106 4731 68.7823
44.4277 4494 67.0373
44.5448 4391 66.2646
44.6619 4583 67.6979
44.7791 4942 70.2994
44.8963 5011 70.7884
45.0136 5007 70.7602
45.1308 4933 70.2353
45.2481 5017 70.8308
45.3654 4853 69.6635
45.4827 4825 69.4622
45.6001 4574 67.6314
45.7174 4601 67.8307
45.8348 4630 68.0441
45.9522 4312 65.6658
46.0697 4333 65.8255
46.1871 4138 64.3273
46.3046 4095 63.9922
46.422 3990 63.1664
46.5395 4197 64.7843
46.657 4202 64.8228
46.7745 4145 64.3817
46.892 4171 64.5833
47.0096 4212 64.8999
47.1271 4219 64.9538
47.2446 4137 64.3195
47.3622 4026 63.4508
47.4797 3914 62.562
47.5973 3873 62.2334
47.7149 3684 60.696
47.8324 3353 57.9051
47.95 3199 56.5597
48.0675 3179 56.3826
48.1851 3302 57.463
48.3027 3584 59.8665
48.4202 3741 61.1637
48.5378 3850 62.0484
48.6554 3794 61.5955
48.7729 3822 61.8223
48.8904 3871 62.2174
49.008 3785 61.5224
49.1255 3843 61.9919
49.243 3706 60.8769
49.3605 3808 61.709
49.478 3581 59.8415
49.5955 3563 59.6909
49.713 3640 60.3324
49.8304 3599 59.9917
49.9479 3744 61.1882
50.0653 4014 63.3561
50.1827 4001 63.2535
50.3001 4170 64.5755
50.4175 4279 65.4141
50.5348 4379 66.174
50.6521 4659 68.2569
50.7694 4648 68.1762
50.8867 4825 69.4622
51.004 4913 70.0928
51.1212 4997 70.6895
51.2384 4961 70.4344
51.3556 4688 68.469
51.4727 4563 67.55
51.5899 4653 68.2129
51.707 4905 70.0357
51.824 5570 74.6324
51.9411 6057 77.8267
52.0581 6230 78.9303
52.175 6424 80.1499
52.2919 6644 81.5107
52.4088 6787 82.3833
52.5257 6914 83.1505
52.6425 6811 82.5288
52.7593 7081 84.1487
52.876 7073 84.1011
52.9927 6958 83.4146
53.1094 6898 83.0542
53.226 6798 82.45
53.3426 6662 81.6211
53.4591 6937 83.2887
53.5756 7060 84.0238
53.692 7284 85.3464
53.8084 7656 87.4986
53.9248 7743 87.9943
54.0411 7809 88.3685
54.1573 8214 90.6311
54.2735 0 1
54.3896 0 1
54.5057 0 1
54.6217 0 1
54.7377 0 1
54.8537 0 1
54.9695 0 1
55.0853 0 1
55.2011 0 1
55.3168 0 1
55.4324 0 1
57.824 0 1
57.9396 0 1
58.0553 0 1
58.1711 0 1
58.2869 0 1
58.4028 0 1
58.5187 0 1
58.6347 0 1
58.7508 0 1
58.8669 0 1
58.983 8268 90.9285
59.0992 8845 94.0479
59.2155 8901 94.3451
59.3318 9058 95.1735
59.4482 9210 95.9687
59.5646 9107 95.4306
59.681 9064 95.205
59.7975 8940 94.5516
59.9141 8849 94.0691
60.0306 8549 92.4608
60.1473 8041 89.6716
60.2639 7752 88.0454
60.3807 7680 87.6356
60.4974 7926 89.0281
60.6142 8411 91.7115
60.731 8896 94.3186
60.8479 9012 94.9316
60.9648 9239 96.1197
61.0818 9184 95.8332
61.1987 9000 94.8683
61.3158 9019 94.9684
61.4328 8827 93.9521
61.5499 8598 92.7254
61.667 8354 91.4002
61.7841 8194 90.5207
61.9013 7886 88.8032
62.0185 7660 87.5214
62.1357 7735 87.9488
62.253 7896 88.8594
62.3702 8221 90.6697
62.4875 8407 91.6897
62.6049 8497 92.1792
62.7222 8438 91.8586
62.8396 8672 93.1236
62.9569 8703 93.2899
63.0743 8697 93.2577
63.1918 8590 92.6823
63.3092 8172 90.3991
63.4267 8158 90.3216
63.5441 7734 87.9432
63.6616 7517 86.7006
63.7791 6950 83.3667
63.8966 6903 83.0843
64.0142 6970 83.4865
64.1317 7456 86.3481
64.2492 7968 89.2637
64.3668 8167 90.3715
64.4843 8268 90.9285
64.6019 8201 90.5594
64.7195 8225 90.6918
64.837 8055 89.7497
64.9546 8007 89.4818
65.0722 7842 88.5551
65.1898 7558 86.9368
65.3074 7450 86.3134
65.4249 7135 84.4689
65.5425 6876 82.9216
65.6601 6925 83.2166
65.7777 7070 84.0833
65.8952 7385 85.936
66.0128 7579 87.0575
66.1304 7822 88.4421
66.2479 7897 88.8651
66.3655 8076 89.8666
66.483 8200 90.5539
66.6005 8300 91.1043
66.718 8431 91.8205
66.8355 8317 91.1976
66.953 8459 91.9728
67.0705 8147 90.2607
67.1879 8139 90.2164
67.3054 7850 88.6002
67.4228 7427 86.18
67.5402 7326 85.5921
67.6576 7816 88.4081
67.7749 8228 90.7083
67.8923 9011 94.9263
68.0096 9402 96.9639
68.1269 9457 97.2471
68.2442 9838 99.1867
68.3614 9630 98.1326
68.4787 9748 98.732
68.5958 9941 99.7046
68.713 9833 99.1615
68.8302 9388 96.8917
68.9473 9168 95.7497
69.0643 9051 95.1367
69.1814 8644 92.9731
69.2984 8699 93.2684
69.4154 9089 95.3362
69.5323 9360 96.7471
69.6492 9919 99.5942
69.7661 10085 100.424
69.8829 10205 101.02
69.9997 10274 101.361
70.1165 10544 102.684
70.2332 10658 103.238
70.3499 10697 103.426
70.4665 10551 102.718
70.5831 10424 102.098
70.6996 10422 102.088
70.8161 10167 100.832
70.9326 9561 97.7804
71.049 9218 96.0104
71.1653 8456 91.9565
71.2817 8418 91.7497
71.3979 8496 92.1737
71.5141 8959 94.652
71.6303 9458 97.2522
71.7464 9350 96.6954
71.8624 0 1
71.9784 0 1
72.0944 0 1
72.2102 0 1
72.3261 0 1
72.4418 0 1
72.5575 0 1
72.6732 0 1
75.1054 0 1
75.2209 0 1
75.3365 0 1
75.4521 0 1
75.5678 0 1
75.6835 0 1
75.7993 0 1
75.9151 0 1
76.031 0 1
76.147 7146 84.534
76.263 7257 85.188
76.3791 7086 84.1784
76.4952 6684 81.7557
76.6113 6883 82.9638
76.7276 7408 86.0697
76.8438 7971 89.2805
76.9601 8420 91.7606
77.0765 8468 92.0217
77.1929 8223 90.6808
77.3093 8170 90.3881
77.4258 8110 90.0555
77.5423 8169 90.3825
77.6589 7780 88.2043
77.7755 7572 87.0172
77.8921 7216 84.947
78.0088 6743 82.1158
78.1256 6579 81.111
78.2423 6816 82.5591
78.3591 6770 82.28
78.4759 7245 85.1176
78.5928 7458 86.3597
78.7097 7443 86.2728
78.8266 7410 86.0814
78.9436 7883 88.7863
79.0606 7705 87.7781
79.1776 7556 86.9253
79.2946 7729 87.9147
79.4117 7788 88.2496
79.5288 7749 88.0284
79.6459 7493 86.5621
79.7631 7420 86.1394
79.8802 7074 84.1071
79.9974 6812 82.5348
80.1147 6220 78.867
80.2319 6424 80.1499
80.3491 6835 82.6741
80.4664 7689 87.6869
80.5837 7907 88.9213
80.701 7694 87.7154
80.8183 7823 88.4477
80.9357 7742 87.9886
81.053 7763 88.1079
81.1704 7635 87.3785
81.2877 7683 87.6527
81.4051 7433 86.2148
81.5225 7054 83.9881
81.6399 6521 80.7527
81.7573 6574 81.0802
81.8747 6299 79.3662
81.9922 6636 81.4616
82.1096 6907 83.1084
82.227 7200 84.8528
82.3444 7332 85.6271
82.4619 7550 86.8907
82.5793 7620 87.2926
82.6967 7578 87.0517
82.8142 7514 86.6833
82.9316 7812 88.3855
83.049 7869 88.7074
83.1664 7831 88.4929
83.2838 7675 87.6071
83.4012 7504 86.6256
83.5186 7157 84.5991
83.636 6888 82.994
83.7534 6418 80.1124
83.8708 6478 80.486
83.9881 6888 82.994
84.1055 7406 86.0581
84.2228 8106 90.0333
84.3401 8221 90.6697
84.4575 8094 89.9667
84.5747 8312 91.1702
84.692 8244 90.7965
84.8093 8182 90.4544
84.9265 8107 90.0389
85.0437 7586 87.0976
85.1609 7177 84.7172
85.2781 6951 83.3727
85.3952 6828 82.6317
85.5123 6871 82.8915
85.6294 7431 86.2032
85.7465 7819 88.4251
85.8636 8034 89.6326
85.9806 8247 90.813
86.0976 8441 91.8749
86.2145 8510 92.2497
86.3315 8582 92.6391
86.4484 8899 94.3345
86.5652 9023 94.9895
86.682 9160 95.7079
86.7988 9346 96.6747
86.9156 9246 96.1561
87.0323 9085 95.3153
87.149 8657 93.043
87.2657 8242 90.7855
87.3823 8046 89.6995
87.4988 8199 90.5483
87.6154 9101 95.3992
87.7318 10114 100.568
87.8483 10593 102.922
87.9647 10912 104.461
88.081 10805 103.947
88.1973 11087 105.295
88.3136 11214 105.896
88.4298 11161 105.646
88.546 10809 103.966
88.6621 10282 101.4
88.7781 9655 98.2599
88.8942 0 1
89.0101 0 1
89.126 0 1
89.2419 0 1
89.3577 0 1
89.4734 0 1
89.5891 0 1
89.7047 0 1
89.8203 0 1
89.9358 0 1
92.3269 0 1
92.4424 0 1
92.558 0 1
92.6736 0 1
92.7893 0 1
92.905 0 1
93.0208 0 1
93.1366 0 1
93.2525 0 1
93.3685 0 1
93.4845 0 1
93.6005 12793 113.106
93.7167 12553 112.04
93.8328 12151 110.232
93.949 11644 107.907
94.0653 11095 105.333
94.1816 10587 102.893
94.2979 10530 102.616
94.4143 10573 102.825
94.5307 10813 103.986
94.6472 11622 107.805
94.7637 12068 109.854
94.8803 12522 111.902
94.9969 12660 112.517
95.1135 12845 113.336
95.2302 12833 113.283
95.3469 13041 114.197
95.4637 13086 114.394
95.5805 13203 114.904
95.6973 13309 115.365
95.8142 13452 115.983
95.9311 13154 114.691
96.048 12971 113.89
96.1649 12428 111.481
96.2819 11565 107.541
96.3989 10696 103.421
96.516 10785 103.851
96.633 11408 106.808
96.7501 12148 110.218
96.8673 12838 113.305
96.9844 13487 116.134
97.1016 13028 114.14
97.2188 13095 114.433
97.336 13176 114.787
97.4532 12849 113.353
97.5704 12106 110.027
97.6877 11570 107.564
97.805 10450 102.225
97.9223 9813 99.0606
98.0396 9517 97.5551
98.1569 9448 97.2008
98.2743 9861 99.3026
98.3916 10466 102.303
98.509 10755 103.706
98.6264 10967 104.723
98.7438 10803 103.937
98.8612 10890 104.355
98.9786 10902 104.413
99.096 10838 104.106
99.2134 10734 103.605
99.3308 10646 103.179
99.4482 10619 103.049
99.5656 10383 101.897
99.6831 10301 101.494
99.8005 9779 98.8888
99.9179 9204 95.9375
100.035 8339 91.3181
100.153 8453 91.9402
100.27 8620 92.844
100.388 9207 95.9531
100.505 9886 99.4284
100.622 10090 100.449
100.74 9716 98.5698
100.857 9995 99.975
100.975 9869 99.3428
101.092 9804 99.0152
101.209 9603 97.9949
101.327 8844 94.0425
101.444 8250 90.8295
101.561 7943 89.1235
101.679 7812 88.3855
101.796 7557 86.931
101.913 8004 89.4651
102.03 8624 92.8655
102.148 8992 94.8262
102.265 8598 92.7254
102.382 9755 98.7674
102.499 9219 96.0156
102.616 9281 96.3379
102.733 9389 96.8969
102.851 9164 95.7288
102.968 9470 97.3139
103.085 9259 96.2237
103.202 9090 95.3415
103.319 8888 94.2762
103.436 8527 92.3418
103.552 7916 88.9719
103.669 7512 86.6718
103.786 7950 89.1628
103.903 8272 90.9505
104.02 9050 95.1315
104.137 8998 94.8578
104.253 9080 95.289
104.37 8959 94.652
104.487 8983 94.7787
104.603 8936 94.5304
104.72 8475 92.0598
104.836 8026 89.5879
104.953 7374 85.872
105.069 7033 83.863
105.186 6686 81.768
105.302 6821 82.5893
105.418 7180 84.7349
105.535 7843 88.5607
105.651 7864 88.6792
105.767 8034 89.6326
105.883 8083 89.9055
105.999 8155 90.305
106.115 0 1
106.231 0 1
106.347 0 1
106.463 0 1
106.579 0 1
106.694 0 1
106.81 0 1
106.926 0 1
107.041 0 1
107.157 0 1
109.576 0 1
109.692 0 1
109.807 0 1
109.923 0 1
110.039 0 1
110.155 0 1
110.27 0 1
110.386 0 1
110.502 0 1
110.618 6513 80.7032
110.735 6983 83.5643
110.851 7299 85.4342
110.967 7259 85.1998
111.083 7305 85.4693
111.199 7498 86.591
111.316 7440 86.2554
111.432 7721 87.8692
111.549 7588 87.1091
111.665 7556 86.9253
111.782 7442 86.267
111.898 7183 84.7526
112.015 6953 83.3847
112.132 6412 80.075
112.248 6148 78.4092
112.365 6475 80.4674
112.482 6885 82.9759
112.599 7207 84.8941
112.716 7447 86.296
112.832 7499 86.5968
112.949 7460 86.3713
113.066 7584 87.0862
113.183 7402 86.0349
113.3 7108 84.309
113.417 7054 83.9881
113.534 6435 80.2185
113.652 5900 76.8115
113.769 5509 74.2226
113.886 5367 73.2598
114.003 5488 74.081
114.12 6185 78.6448
114.238 6433 80.206
114.355 6750 82.1584
114.472 6808 82.5106
114.589 6733 82.0549
114.707 6788 82.3893
114.824 6973 83.5045
114.942 6903 83.0843
115.059 6891 83.012
115.176 6774 82.3043
115.294 6531 80.8146
115.411 6549 80.9259
115.529 6132 78.3071
115.646 5829 76.3479
115.764 5308 72.856
115.881 5350 73.1437
115.999 5538 74.4177
116.116 5875 76.6485
116.234 6170 78.5493
116.351 6248 79.0443
116.469 6219 78.8606
116.586 6104 78.1281
116.704 6251 79.0633
116.821 6140 78.3582
116.939 6092 78.0513
117.056 5944 77.0973
117.174 5351 73.1505
117.291 4915 70.1071
117.409 4768 69.0507
117.526 4566 67.5722
117.644 4802 69.2965
117.761 5298 72.7874
117.879 5766 75.9342
117.996 5960 77.201
118.114 6032 77.666
118.231 6169 78.543
118.349 6138 78.3454
118.466 6212 78.8162
118.584 6409 80.0562
118.701 6321 79.5047
118.819 6546 80.9074
118.936 6204 78.7655
119.053 6174 78.5748
119.171 5987 77.3757
119.288 5863 76.5702
119.405 5357 73.1915
119.523 5407 73.5323
119.64 5668 75.2861
119.757 6024 77.6144
119.875 6491 80.5667
119.992 6720 81.9756
120.109 6806 82.4985
120.226 7038 83.8928
120.343 6831 82.6499
120.46 6957 83.4086
120.578 7049 83.9583
120.695 6900 83.0662
120.812 6428 80.1748
120.929 6053 77.801
121.046 5657 75.213
121.163 5468 73.9459
121.279 5446 73.797
121.396 5898 76.7984
121.513 6509 80.6784
121.63 7051 83.9702
121.747 7451 86.3192
121.863 7564 86.9713
121.98 7644 87.43
122.097 7590 87.1206
122.213 7665 87.55
122.33 7729 87.9147
122.446 7844 88.5664
122.563 7726 87.8977
122.679 7657 87.5043
122.795 7524 86.741
122.912 7352 85.7438
123.028 7140 84.4985
123.144 6576 81.0925
123.26 6379 79.8686
123.377 0 1
123.493 0 1
123.609 0 1
123.725 0 1
123.84 0 1
123.956 0 1
124.072 0 1
124.188 0 1
124.303 0 1
124.419 0 1
126.852 0 1
126.968 0 1
127.083 0 1
127.199 0 1
127.315 0 1
127.431 0 1
127.547 0 1
127.663 0 1
127.779 0 1
127.895 0 1
128.011 0 1
128.127 0 1
128.243 0 1
128.359 7965 89.2468
128.476 7733 87.9375
128.592 7155 84.5872
128.708 7097 84.2437
128.825 7431 86.2032
128.941 7913 88.955
129.058 8285 91.022
129.174 8697 93.2577
129.291 8572 92.5851
129.408 8671 93.1182
129.524 8601 92.7416
129.641 8515 92.2768
129.758 8400 91.6515
129.875 7881 88.775
129.992 7216 84.947
130.108 6878 82.9337
130.225 6626 81.4002
130.342 6211 78.8099
130.459 6463 80.3928
130.576 6797 82.4439
130.693 7249 85.1411
130.81 7478 86.4754
130.928 7833 88.5042
131.045 8020 89.5545
131.162 8063 89.7942
131.279 7962 89.23
131.396 7977 89.3141
131.513 7940 89.1067
131.631 7777 88.1873
131.748 7518 86.7064
131.865 7470 86.4292
131.983 7084 84.1665
132.1 6582 81.1295
132.217 6518 80.7341
132.335 6360 79.7496
132.452 6778 82.3286
132.57 7128 84.4275
132.687 7151 84.5636
132.804 7615 87.264
132.922 7257 85.188
133.039 7350 85.7321
133.157 7211 84.9176
133.274 7046 83.9405
133.392 6834 82.668
133.509 6360 79.7496
133.627 5925 76.974
133.744 5457 73.8715
133.862 5295 72.7668
133.979 5125 71.5891
134.097 5547 74.4782
134.214 5949 77.1298
134.332 5999 77.4532
134.449 6076 77.9487
134.567 6464 80.399
134.684 6462 80.3866
134.802 6373 79.8311
134.919 6414 80.0875
135.037 6338 79.6116
135.154 6123 78.2496
135.272 5972 77.2787
135.389 5799 76.1512
135.507 5781 76.0329
135.624 5414 73.5799
135.742 5197 72.0902
135.859 4913 70.0928
135.977 5098 71.4003
136.094 5294 72.7599
136.211 5586 74.7395
136.329 5696 75.4718
136.446 5616 74.94
136.564 5532 74.3774
136.681 5583 74.7195
136.798 5601 74.8398
136.915 5453 73.8444
137.033 5214 72.208
137.15 4910 70.0714
137.267 4520 67.2309
137.384 4435 66.5958
137.502 4088 63.9375
137.619 4275 65.3835
137.736 4672 68.352
137.853 4824 69.455
137.97 5134 71.6519
138.087 5404 73.5119
138.204 5642 75.1132
138.321 5762 75.9078
138.438 5756 75.8683
138.555 5917 76.922
138.672 5802 76.1709
138.788 5889 76.7398
138.905 5881 76.6877
139.022 5707 75.5447
139.139 5563 74.5855
139.255 5460 73.8918
139.372 5249 72.45
139.488 5317 72.9178
139.605 5464 73.9189
139.721 5786 76.0658
139.838 6259 79.1138
139.954 6435 80.2185
140.071 6301 79.3788
140.187 6495 80.5916
140.303 6582 81.1295
140.419 6657 81.5904
140.535 6452 80.3243
140.652 6191 78.6829
140.768 0 1
140.884 0 1
141 0 1
141.115 0 1
141.231 0 1
141.347 0 1
141.463 0 1
141.578 0 1
141.694 0 1
144.104 0 1
144.219 0 1
144.335 0 1
144.45 0 1
144.566 0 1
144.682 0 1
144.798 0 1
144.914 0 1
145.03 0 1
145.146 5562 74.5788
145.262 5704 75.5248
145.378 5746 75.8024
145.494 5705 75.5315
145.61 5593 74.7864
145.726 5442 73.7699
145.842 5203 72.1318
145.959 4941 70.2922
146.075 4511 67.164
146.192 4330 65.8027
146.308 4104 64.0625
146.425 4210 64.8845
146.541 4222 64.9769
146.658 4454 66.7383
146.774 4509 67.1491
146.891 4715 68.6659
147.008 4938 70.2709
147.125 5056 71.1056
147.241 4927 70.1926
147.358 4934 70.2424
147.475 4884 69.8856
147.592 4790 69.2098
147.709 4745 68.884
147.826 4639 68.1102
147.943 4466 66.8281
148.06 4085 63.914
148.177 4032 63.498
148.294 4121 64.195
148.411 4152 64.436
148.528 4378 66.1665
148.645 4450 66.7083
148.762 4385 66.2193
148.88 4507 67.1342
148.997 4364 66.0606
149.114 4263 65.2917
149.231 4468 66.8431
149.349 4177 64.6297
149.466 4166 64.5446
149.583 3943 62.7933
149.701 3513 59.2706
149.818 3434 58.6003
149.935 3319 57.6108
150.053 3441 58.66
150.17 3542 59.5147
150.287 3824 61.8385
150.405 3742 61.1719
150.522 3979 63.0793
150.64 4184 64.6838
150.757 4179 64.6452
150.875 4238 65.0999
150.992 4292 65.5134
151.11 4438 66.6183
151.227 4403 66.3551
151.344 4366 66.0757
151.462 4311 65.6582
151.579 4090 63.9531
151.697 3907 62.506
151.814 3940 62.7694
151.932 3891 62.3779
152.049 4083 63.8984
152.167 4184 64.6838
152.284 4420 66.4831
152.402 4574 67.6314
152.519 4530 67.3053
152.636 4598 67.8086
152.754 4521 67.2384
152.871 4653 68.2129
152.989 4494 67.0373
153.106 4395 66.2948
153.223 4015 63.364
153.341 3884 62.3217
153.458 3749 61.2291
153.575 3599 59.9917
153.693 3754 61.2699
153.81 4007 63.3009
153.927 4371 66.1135
154.044 4591 67.7569
154.162 4620 67.9706
154.279 4880 69.857
154.396 5078 71.2601
154.513 5224 72.2772
154.63 5383 73.3689
154.747 5304 72.8286
154.864 5201 72.118
154.981 5257 72.5052
155.098 5262 72.5396
155.215 5235 72.3533
155.332 5188 72.0278
155.449 5041 71
155.566 5063 71.1548
155.683 5362 73.2257
155.8 5449 73.8173
155.917 5790 76.092
156.033 5836 76.3937
156.15 0 1
156.267 0 1
156.383 0 1
156.5 0 1
156.617 0 1
156.733 0 1
156.85 0 1
156.966 0 1
157.082 0 1
157.199 0 1
157.315 0 1
157.431 0 1
157.547 0 1
157.664 0 1
157.78 0 1
157.896 0 1
158.012 0 1
158.128 0 1
158.244 0 1
158.359 0 1
158.475 0 1
158.591 0 1
158.706 0 1
