
6.15755 0 1
6.2731 0 1
6.3887 0 1
6.50437 0 1
6.62009 0 1
6.73587 0 1
6.8517 0 1
6.96759 0 1
7.08353 0 1
7.19952 0 1
7.31557 0 1
7.43166 0 1
7.54781 0 1
7.664 0 1
7.78024 0 1
7.89653 0 1
8.01286 0 1
8.12924 0 1
8.24567 0 1
8.36213 0 1
8.47864 0 1
8.59519 0 1
8.71178 0 1
8.82841 0 1
8.94508 0 1
9.06179 0 1
9.17853 0 1
9.29531 0 1
9.41212 0 1
9.52897 0 1
9.64584 0 1
9.76276 0 1
9.8797 0 1
9.99667 0 1
10.1137 0 1
10.2307 0 1
10.3478 0 1
10.4648 0 1
10.5819 0 1
10.6991 0 1
10.8162 0 1
10.9334 0 1
11.0506 0 1
11.1678 0 1
11.285 0 1
11.4023 0 1
11.5196 0 1
11.6369 0 1
11.7542 0 1
11.8715 0 1
11.9888 0 1
12.1062 0 1
12.2235 0 1
12.3409 0 1
12.4582 0 1
12.5756 0 1
12.693 0 1
12.8104 0 1
12.9278 0 1
13.0452 0 1
13.1626 0 1
13.28 0 1
13.3974 0 1
13.5149 0 1
13.6323 0 1
13.7497 0 1
13.8671 0 1
13.9845 0 1
14.1019 0 1
14.2193 0 1
14.3367 0 1
14.4541 0 1
14.5714 0 1
14.6888 0 1
14.8062 0 1
14.9235 0 1
15.0408 1029 32.078
15.1581 1101 33.1813
15.2755 1170 34.2053
15.3927 1155 33.9853
15.51 1197 34.5977
15.6273 1145 33.8378
15.7445 1167 34.1614
15.8617 1130 33.6155
15.9789 1075 32.7872
16.0961 1082 32.8938
16.2132 1077 32.8177
16.3304 1035 32.1714
16.4475 1035 32.1714
16.5646 1037 32.2025
16.6816 972 31.1769
16.7986 982 31.3369
16.9156 927 30.4467
17.0326 922 30.3645
17.1496 974 31.209
17.2665 923 30.3809
17.3833 937 30.6105
17.5002 878 29.6311
17.617 930 30.4959
17.7338 822 28.6705
17.8505 913 30.2159
17.9672 897 29.95
18.0839 895 29.9166
18.2005 887 29.7825
18.3171 912 30.1993
18.4337 862 29.3598
18.5502 937 30.6105
18.6666 945 30.7409
18.7831 959 30.9677
18.8994 940 30.6594
19.0158 868 29.4618
19.1321 890 29.8329
19.2483 845 29.0689
19.3645 777 27.8747
19.4806 727 26.9629
19.5967 735 27.1109
19.7128 713 26.7021
19.8288 608 24.6577
19.9447 553 23.516
20.0606 0 1
20.1764 0 1
20.2922 0 1
20.4079 0 1
20.5236 0 1
20.6392 0 1
20.7548 0 1
20.8702 0 1
23.3078 0 1
23.4233 0 1
23.539 0 1
23.6547 0 1
23.7704 0 1
23.8862 0 1
24.0021 0 1
24.118 0 1
24.234 0 1
24.35 0 1
24.4661 410 20.2485
24.5822 439 20.9523
24.6984 503 22.4277
24.8146 592 24.3311
24.9309 680 26.0768
25.0472 769 27.7308
25.1636 878 29.6311
25.28 877 29.6142
25.3965 946 30.7571
25.513 928 30.4631
25.6296 923 30.3809
25.7462 1017 31.8904
25.8628 905 30.0832
25.9795 955 30.9031
26.0962 934 30.5614
26.213 915 30.249
26.3298 825 28.7228
26.4466 853 29.2062
26.5635 850 29.1548
26.6804 860 29.3258
26.7973 822 28.6705
26.9143 822 28.6705
27.0313 740 27.2029
27.1483 694 26.3439
27.2653 778 27.8927
27.3824 800 28.2843
27.4996 850 29.1548
27.6167 820 28.6356
27.7339 876 29.5973
27.8511 821 28.6531
27.9683 836 28.9137
28.0855 817 28.5832
28.2028 844 29.0517
28.3201 908 30.133
28.4374 845 29.0689
28.5547 872 29.5296
28.6721 888 29.7993
28.7894 862 29.3598
28.9068 847 29.1033
29.0242 831 28.8271
29.1416 829 28.7924
29.259 832 28.8444
29.3764 841 29
29.4939 798 28.2489
29.6113 746 27.313
29.7288 759 27.55
29.8463 747 27.3313
29.9638 717 26.7769
30.0812 793 28.1603
30.1987 783 27.9821
30.3162 806 28.3901
30.4337 734 27.0924
30.5512 786 28.0357
30.6687 774 27.8209
30.7862 825 28.7228
30.9037 816 28.5657
31.0212 843 29.0345
31.1387 876 29.5973
31.2562 852 29.189
31.3737 872 29.5296
31.4912 797 28.2312
31.6087 837 28.931
31.7262 865 29.4109
31.8436 848 29.1204
31.9611 805 28.3725
32.0785 797 28.2312
32.1959 810 28.4605
32.3134 823 28.688
32.4308 764 27.6405
32.5482 779 27.9106
32.6655 753 27.4408
32.7829 738 27.1662
32.9002 695 26.3629
33.0176 729 27
33.1349 658 25.6515
33.2522 673 25.9422
33.3694 669 25.865
33.4867 661 25.7099
33.6039 686 26.1916
33.7211 744 27.2764
33.8383 728 26.9815
33.9554 747 27.3313
34.0725 769 27.7308
34.1896 769 27.7308
34.3067 703 26.5141
34.4237 701 26.4764
34.5407 687 26.2107
34.6577 811 28.4781
34.7746 724 26.9072
34.8915 720 26.8328
35.0084 726 26.9444
35.1252 685 26.1725
35.242 751 27.4044
35.3587 736 27.1293
35.4755 720 26.8328
35.5921 789 28.0891
35.7088 735 27.1109
35.8254 694 26.3439
35.9419 712 26.6833
36.0584 695 26.3629
36.1749 684 26.1534
36.2913 664 25.7682
36.4077 696 26.3818
36.524 607 24.6374
36.6403 545 23.3452
36.7565 606 24.6171
36.8727 503 22.4277
36.9889 442 21.0238
37.1049 435 20.8567
37.221 0 1
37.3369 0 1
37.4529 0 1
37.5687 0 1
37.6845 0 1
37.8003 0 1
37.916 0 1
38.0316 0 1
38.1472 0 1
40.5851 0 1
40.7008 0 1
40.8164 0 1
40.9322 0 1
41.048 0 1
41.1639 0 1
41.2798 0 1
41.3958 0 1
41.5118 0 1
41.6279 0 1
41.744 345 18.5742
41.8602 368 19.1833
41.9765 452 21.2603
42.0928 464 21.5407
42.2091 446 21.1187
42.3255 513 22.6495
42.4419 518 22.7596
42.5584 555 23.5584
42.675 593 24.3516
42.7915 593 24.3516
42.9081 594 24.3721
43.0248 551 23.4734
43.1415 580 24.0832
43.2582 541 23.2594
43.375 570 23.8747
43.4918 561 23.6854
43.6087 578 24.0416
43.7256 570 23.8747
43.8425 532 23.0651
43.9595 543 23.3024
44.0765 538 23.1948
44.1935 540 23.2379
44.3106 601 24.5153
44.4277 593 24.3516
44.5448 608 24.6577
44.6619 526 22.9347
44.7791 583 24.1454
44.8963 630 25.0998
45.0136 546 23.3666
45.1308 599 24.4745
45.2481 572 23.9165
45.3654 555 23.5584
45.4827 563 23.7276
45.6001 577 24.0208
45.7174 551 23.4734
45.8348 523 22.8692
45.9522 537 23.1733
46.0697 535 23.1301
46.1871 527 22.9565
46.3046 553 23.516
46.422 563 23.7276
46.5395 546 23.3666
46.657 528 22.9783
46.7745 545 23.3452
46.892 559 23.6432
47.0096 598 24.454
47.1271 575 23.9792
47.2446 541 23.2594
47.3622 520 22.8035
47.4797 522 22.8473
47.5973 559 23.6432
47.7149 575 23.9792
47.8324 514 22.6716
47.95 561 23.6854
48.0675 571 23.8956
48.1851 589 24.2693
48.3027 603 24.5561
48.4202 569 23.8537
48.5378 604 24.5764
48.6554 582 24.1247
48.7729 597 24.4336
48.8904 546 23.3666
49.008 563 23.7276
49.1255 560 23.6643
49.243 590 24.2899
49.3605 545 23.3452
49.478 537 23.1733
49.5955 532 23.0651
49.713 553 23.516
49.8304 619 24.8797
49.9479 547 23.388
50.0653 598 24.454
50.1827 527 22.9565
50.3001 540 23.2379
50.4175 487 22.0681
50.5348 597 24.4336
50.6521 577 24.0208
50.7694 595 24.3926
50.8867 543 23.3024
51.004 491 22.1585
51.1212 532 23.0651
51.2384 594 24.3721
51.3556 613 24.7588
51.4727 573 23.9374
51.5899 631 25.1197
51.707 579 24.0624
51.824 575 23.9792
51.9411 614 24.779
52.0581 555 23.5584
52.175 541 23.2594
52.2919 585 24.1868
52.4088 546 23.3666
52.5257 557 23.6008
52.6425 540 23.2379
52.7593 529 23
52.876 490 22.1359
52.9927 478 21.8632
53.1094 498 22.3159
53.226 480 21.9089
53.3426 491 22.1585
53.4591 538 23.1948
53.5756 548 23.4094
53.692 630 25.0998
53.8084 641 25.318
53.9248 685 26.1725
54.0411 629 25.0799
54.1573 598 24.454
54.2735 0 1
54.3896 0 1
54.5057 0 1
54.6217 0 1
54.7377 0 1
54.8537 0 1
54.9695 0 1
55.0853 0 1
55.2011 0 1
55.3168 0 1
55.4324 0 1
57.824 0 1
57.9396 0 1
58.0553 0 1
58.1711 0 1
58.2869 0 1
58.4028 0 1
58.5187 0 1
58.6347 0 1
58.7508 0 1
58.8669 0 1
58.983 6501 80.6288
59.0992 8301 91.1098
59.2155 9684 98.4073
59.3318 10616 103.034
59.4482 11448 106.995
59.5646 12256 110.707
59.681 13484 116.121
59.7975 14248 119.365
59.9141 14945 122.25
60.0306 16415 128.121
60.1473 17926 133.888
60.2639 18353 135.473
60.3807 18780 137.04
60.4974 18389 135.606
60.6142 17495 132.269
60.731 16685 129.17
60.8479 15416 124.161
60.9648 13761 117.307
61.0818 11913 109.147
61.1987 9967 99.8349
61.3158 8510 92.2497
61.4328 6803 82.4803
61.5499 5735 75.7298
61.667 4472 66.873
61.7841 3939 62.7615
61.9013 3203 56.5951
62.0185 2737 52.3163
62.1357 2250 47.4342
62.253 1740 41.7133
62.3702 1443 37.9868
62.4875 1168 34.176
62.6049 930 30.4959
62.7222 883 29.7153
62.8396 780 27.9285
62.9569 802 28.3196
63.0743 734 27.0924
63.1918 713 26.7021
63.3092 668 25.8457
63.4267 693 26.3249
63.5441 703 26.5141
63.6616 700 26.4575
63.7791 702 26.4953
63.8966 756 27.4955
64.0142 703 26.5141
64.1317 714 26.7208
64.2492 697 26.4008
64.3668 653 25.5539
64.4843 672 25.923
64.6019 642 25.3377
64.7195 647 25.4362
64.837 679 26.0576
64.9546 623 24.96
65.0722 620 24.8998
65.1898 547 23.388
65.3074 607 24.6374
65.4249 582 24.1247
65.5425 564 23.7487
65.6601 570 23.8747
65.7777 634 25.1794
65.8952 635 25.1992
66.0128 636 25.219
66.1304 657 25.632
66.2479 678 26.0384
66.3655 635 25.1992
66.483 676 26
66.6005 655 25.593
66.718 674 25.9615
66.8355 621 24.9199
66.953 625 25
67.0705 623 24.96
67.1879 640 25.2982
67.3054 686 26.1916
67.4228 660 25.6905
67.5402 665 25.7876
67.6576 667 25.8263
67.7749 700 26.4575
67.8923 604 24.5764
68.0096 701 26.4764
68.1269 689 26.2488
68.2442 607 24.6374
68.3614 627 25.04
68.4787 599 24.4745
68.5958 609 24.6779
68.713 594 24.3721
68.8302 626 25.02
68.9473 571 23.8956
69.0643 554 23.5372
69.1814 609 24.6779
69.2984 627 25.04
69.4154 643 25.3574
69.5323 604 24.5764
69.6492 688 26.2298
69.7661 655 25.593
69.8829 599 24.4745
69.9997 655 25.593
70.1165 570 23.8747
70.2332 583 24.1454
70.3499 577 24.0208
70.4665 533 23.0868
70.5831 487 22.0681
70.6996 428 20.6882
70.8161 469 21.6564
70.9326 472 21.7256
71.049 401 20.025
71.1653 383 19.5704
71.2817 403 20.0749
71.3979 362 19.0263
71.5141 329 18.1384
71.6303 289 17
71.7464 228 15.0997
71.8624 0 1
71.9784 0 1
72.0944 0 1
72.2102 0 1
72.3261 0 1
72.4418 0 1
72.5575 0 1
72.6732 0 1
75.1054 0 1
75.2209 0 1
75.3365 0 1
75.4521 0 1
75.5678 0 1
75.6835 0 1
75.7993 0 1
75.9151 0 1
76.031 0 1
76.147 394 19.8494
76.263 439 20.9523
76.3791 496 22.2711
76.4952 527 22.9565
76.6113 550 23.4521
76.7276 575 23.9792
76.8438 563 23.7276
76.9601 595 24.3926
77.0765 556 23.5797
77.1929 527 22.9565
77.3093 563 23.7276
77.4258 591 24.3105
77.5423 526 22.9347
77.6589 530 23.0217
77.7755 522 22.8473
77.8921 473 21.7486
78.0088 464 21.5407
78.1256 512 22.6274
78.2423 476 21.8174
78.3591 533 23.0868
78.4759 529 23
78.5928 564 23.7487
78.7097 577 24.0208
78.8266 550 23.4521
78.9436 573 23.9374
79.0606 533 23.0868
79.1776 538 23.1948
79.2946 550 23.4521
79.4117 584 24.1661
79.5288 519 22.7816
79.6459 557 23.6008
79.7631 572 23.9165
79.8802 522 22.8473
79.9974 578 24.0416
80.1147 575 23.9792
80.2319 607 24.6374
80.3491 583 24.1454
80.4664 603 24.5561
80.5837 624 24.98
80.701 596 24.4131
80.8183 568 23.8328
80.9357 563 23.7276
81.053 562 23.7065
81.1704 560 23.6643
81.2877 555 23.5584
81.4051 551 23.4734
81.5225 507 22.5167
81.6399 486 22.0454
81.7573 505 22.4722
81.8747 461 21.4709
81.9922 498 22.3159
82.1096 500 22.3607
82.227 597 24.4336
82.3444 579 24.0624
82.4619 598 24.454
82.5793 567 23.8118
82.6967 566 23.7908
82.8142 602 24.5357
82.9316 618 24.8596
83.049 553 23.516
83.1664 590 24.2899
83.2838 548 23.4094
83.4012 570 23.8747
83.5186 554 23.5372
83.636 583 24.1454
83.7534 583 24.1454
83.8708 634 25.1794
83.9881 610 24.6982
84.1055 589 24.2693
84.2228 637 25.2389
84.3401 600 24.4949
84.4575 623 24.96
84.5747 589 24.2693
84.692 581 24.1039
84.8093 586 24.2074
84.9265 578 24.0416
85.0437 523 22.8692
85.1609 565 23.7697
85.2781 544 23.3238
85.3952 507 22.5167
85.5123 452 21.2603
85.6294 516 22.7156
85.7465 565 23.7697
85.8636 595 24.3926
85.9806 662 25.7294
86.0976 551 23.4734
86.2145 599 24.4745
86.3315 630 25.0998
86.4484 616 24.8193
86.5652 623 24.96
86.682 643 25.3574
86.7988 602 24.5357
86.9156 610 24.6982
87.0323 567 23.8118
87.149 632 25.1396
87.2657 609 24.6779
87.3823 556 23.5797
87.4988 633 25.1595
87.6154 586 24.2074
87.7318 560 23.6643
87.8483 572 23.9165
87.9647 513 22.6495
88.081 459 21.4243
88.1973 431 20.7605
88.3136 426 20.6398
88.4298 388 19.6977
88.546 359 18.9473
88.6621 337 18.3576
88.7781 302 17.3781
88.8942 0 1
89.0101 0 1
89.126 0 1
89.2419 0 1
89.3577 0 1
89.4734 0 1
89.5891 0 1
89.7047 0 1
89.8203 0 1
89.9358 0 1
92.3269 0 1
92.4424 0 1
92.558 0 1
92.6736 0 1
92.7893 0 1
92.905 0 1
93.0208 0 1
93.1366 0 1
93.2525 0 1
93.3685 0 1
93.4845 0 1
93.6005 458 21.4009
93.7167 500 22.3607
93.8328 521 22.8254
93.949 538 23.1948
94.0653 641 25.318
94.1816 597 24.4336
94.2979 588 24.2487
94.4143 549 23.4307
94.5307 529 23
94.6472 510 22.5832
94.7637 522 22.8473
94.8803 580 24.0832
94.9969 556 23.5797
95.1135 586 24.2074
95.2302 635 25.1992
95.3469 607 24.6374
95.4637 642 25.3377
95.5805 604 24.5764
95.6973 651 25.5147
95.8142 585 24.1868
95.9311 627 25.04
96.048 573 23.9374
96.1649 583 24.1454
96.2819 616 24.8193
96.3989 588 24.2487
96.516 586 24.2074
96.633 616 24.8193
96.7501 647 25.4362
96.8673 624 24.98
96.9844 623 24.96
97.1016 607 24.6374
97.2188 581 24.1039
97.336 605 24.5967
97.4532 591 24.3105
97.5704 581 24.1039
97.6877 592 24.3311
97.805 580 24.0832
97.9223 608 24.6577
98.0396 593 24.3516
98.1569 608 24.6577
98.2743 573 23.9374
98.3916 540 23.2379
98.509 566 23.7908
98.6264 629 25.0799
98.7438 621 24.9199
98.8612 570 23.8747
98.9786 633 25.1595
99.096 623 24.96
99.2134 636 25.219
99.3308 646 25.4165
99.4482 662 25.7294
99.5656 611 24.7184
99.6831 617 24.8395
99.8005 622 24.9399
99.9179 565 23.7697
100.035 640 25.2982
100.153 656 25.6125
100.27 660 25.6905
100.388 650 25.4951
100.505 643 25.3574
100.622 636 25.219
100.74 605 24.5967
100.857 585 24.1868
100.975 612 24.7386
101.092 589 24.2693
101.209 651 25.5147
101.327 670 25.8844
101.444 667 25.8263
101.561 621 24.9199
101.679 594 24.3721
101.796 615 24.7992
101.913 612 24.7386
102.03 621 24.9199
102.148 627 25.04
102.265 668 25.8457
102.382 588 24.2487
102.499 659 25.671
102.616 646 25.4165
102.733 708 26.6083
102.851 688 26.2298
102.968 743 27.258
103.085 729 27
103.202 693 26.3249
103.319 669 25.865
103.436 643 25.3574
103.552 622 24.9399
103.669 622 24.9399
103.786 673 25.9422
103.903 733 27.074
104.02 679 26.0576
104.137 672 25.923
104.253 679 26.0576
104.37 623 24.96
104.487 682 26.1151
104.603 634 25.1794
104.72 644 25.3772
104.836 688 26.2298
104.953 614 24.779
105.069 600 24.4949
105.186 603 24.5561
105.302 525 22.9129
105.418 506 22.4944
105.535 485 22.0227
105.651 444 21.0713
105.767 423 20.567
105.883 368 19.1833
105.999 334 18.2757
106.115 0 1
106.231 0 1
106.347 0 1
106.463 0 1
106.579 0 1
106.694 0 1
106.81 0 1
106.926 0 1
107.041 0 1
107.157 0 1
109.576 0 1
109.692 0 1
109.807 0 1
109.923 0 1
110.039 0 1
110.155 0 1
110.27 0 1
110.386 0 1
110.502 0 1
110.618 322 17.9444
110.735 358 18.9209
110.851 422 20.5426
110.967 419 20.4695
111.083 506 22.4944
111.199 535 23.1301
111.316 589 24.2693
111.432 597 24.4336
111.549 633 25.1595
111.665 629 25.0799
111.782 644 25.3772
111.898 625 25
112.015 643 25.3574
112.132 601 24.5153
112.248 569 23.8537
112.365 585 24.1868
112.482 627 25.04
112.599 602 24.5357
112.716 619 24.8797
112.832 609 24.6779
112.949 604 24.5764
113.066 590 24.2899
113.183 603 24.5561
113.3 603 24.5561
113.417 597 24.4336
113.534 612 24.7386
113.652 589 24.2693
113.769 633 25.1595
113.886 614 24.779
114.003 621 24.9199
114.12 574 23.9583
114.238 555 23.5584
114.355 530 23.0217
114.472 526 22.9347
114.589 531 23.0434
114.707 517 22.7376
114.824 607 24.6374
114.942 595 24.3926
115.059 655 25.593
115.176 613 24.7588
115.294 597 24.4336
115.411 574 23.9583
115.529 616 24.8193
115.646 568 23.8328
115.764 595 24.3926
115.881 553 23.516
115.999 562 23.7065
116.116 570 23.8747
116.234 554 23.5372
116.351 561 23.6854
116.469 601 24.5153
116.586 577 24.0208
116.704 564 23.7487
116.821 578 24.0416
116.939 511 22.6053
117.056 570 23.8747
117.174 613 24.7588
117.291 558 23.622
117.409 572 23.9165
117.526 578 24.0416
117.644 537 23.1733
117.761 584 24.1661
117.879 575 23.9792
117.996 517 22.7376
118.114 465 21.5639
118.231 554 23.5372
118.349 585 24.1868
118.466 649 25.4755
118.584 683 26.1343
118.701 745 27.2947
118.819 718 26.7955
118.936 654 25.5734
119.053 624 24.98
119.171 680 26.0768
119.288 586 24.2074
119.405 594 24.3721
119.523 568 23.8328
119.64 608 24.6577
119.757 601 24.5153
119.875 540 23.2379
119.992 564 23.7487
120.109 524 22.891
120.226 533 23.0868
120.343 478 21.8632
120.46 546 23.3666
120.578 512 22.6274
120.695 481 21.9317
120.812 474 21.7715
120.929 498 22.3159
121.046 494 22.2261
121.163 449 21.1896
121.279 493 22.2036
121.396 462 21.4942
121.513 484 22
121.63 417 20.4206
121.747 422 20.5426
121.863 390 19.7484
121.98 428 20.6882
122.097 390 19.7484
122.213 413 20.3224
122.33 403 20.0749
122.446 424 20.5913
122.563 377 19.4165
122.679 349 18.6815
122.795 353 18.7883
122.912 291 17.0587
123.028 280 16.7332
123.144 267 16.3401
123.26 252 15.8745
123.377 0 1
123.493 0 1
123.609 0 1
123.725 0 1
123.84 0 1
123.956 0 1
124.072 0 1
124.188 0 1
124.303 0 1
124.419 0 1
126.852 0 1
126.968 0 1
127.083 0 1
127.199 0 1
127.315 0 1
127.431 0 1
127.547 0 1
127.663 0 1
127.779 0 1
127.895 0 1
128.011 0 1
128.127 0 1
128.243 0 1
128.359 476 21.8174
128.476 451 21.2368
128.592 522 22.8473
128.708 506 22.4944
128.825 527 22.9565
128.941 527 22.9565
129.058 543 23.3024
129.174 530 23.0217
129.291 549 23.4307
129.408 558 23.622
129.524 544 23.3238
129.641 565 23.7697
129.758 573 23.9374
129.875 589 24.2693
129.992 590 24.2899
130.108 588 24.2487
130.225 626 25.02
130.342 575 23.9792
130.459 608 24.6577
130.576 580 24.0832
130.693 567 23.8118
130.81 642 25.3377
130.928 624 24.98
131.045 769 27.7308
131.162 828 28.775
131.279 815 28.5482
131.396 964 31.0483
131.513 924 30.3974
131.631 949 30.8058
131.748 1009 31.7648
131.865 1082 32.8938
131.983 1187 34.4529
132.1 1237 35.171
132.217 1432 37.8418
132.335 1751 41.845
132.452 2060 45.3872
132.57 2483 49.8297
132.687 2797 52.8867
132.804 3602 60.0167
132.922 4290 65.4981
133.039 5228 72.3049
133.157 6223 78.886
133.274 6729 82.0305
133.392 7474 86.4523
133.509 8380 91.5423
133.627 9161 95.7131
133.744 10010 100.05
133.862 10521 102.572
133.979 10865 104.235
134.097 10752 103.692
134.214 9644 98.2039
134.332 6970 83.4865
134.449 5334 73.0342
134.567 7816 88.4081
134.684 11340 106.489
134.802 13004 114.035
134.919 14179 119.076
135.037 14515 120.478
135.154 14630 120.955
135.272 14713 121.297
135.389 14993 122.446
135.507 15231 123.414
135.624 16177 127.189
135.742 16782 129.545
135.859 17944 133.955
135.977 18398 135.639
136.094 19587 139.954
136.211 20137 141.905
136.329 20949 144.738
136.446 21840 147.784
136.564 22489 149.963
136.681 23862 154.473
136.798 24509 156.554
136.915 25705 160.328
137.033 26867 163.912
137.15 28109 167.657
137.267 29482 171.703
137.384 30962 175.96
137.502 32285 179.68
137.619 33755 183.725
137.736 34383 185.427
137.853 32355 179.875
137.97 30009 173.231
138.087 26010 161.276
138.204 28343 168.354
138.321 36821 191.888
138.438 45711 213.801
138.555 51792 227.579
138.672 54665 233.805
138.788 57102 238.96
138.905 58225 241.299
139.022 58305 241.464
139.139 56400 237.487
139.255 53046 230.317
139.372 49262 221.95
139.488 47798 218.628
139.605 47247 217.364
139.721 47322 217.536
139.838 46907 216.58
139.954 46549 215.752
140.071 44533 211.028
140.187 43280 208.038
140.303 41292 203.204
140.419 39129 197.811
140.535 38851 197.107
140.652 36109 190.024
140.768 0 1
140.884 0 1
141 0 1
141.115 0 1
141.231 0 1
141.347 0 1
141.463 0 1
141.578 0 1
141.694 0 1
144.104 0 1
144.219 0 1
144.335 0 1
144.45 0 1
144.566 0 1
144.682 0 1
144.798 0 1
144.914 0 1
145.03 0 1
145.146 23311 152.679
145.262 25757 160.49
145.378 26784 163.658
145.494 26470 162.696
145.61 25431 159.471
145.726 24840 157.607
145.842 24490 156.493
145.959 23948 154.751
146.075 22754 150.844
146.192 22054 148.506
146.308 21377 146.209
146.425 20088 141.732
146.541 18811 137.153
146.658 17770 133.304
146.774 16579 128.759
146.891 15973 126.384
147.008 16173 127.173
147.125 15496 124.483
147.241 14447 120.196
147.358 13764 117.32
147.475 12558 112.062
147.592 11442 106.967
147.709 10162 100.807
147.826 9912 99.559
147.943 9647 98.2191
148.06 9241 96.1301
148.177 8762 93.6056
148.294 8598 92.7254
148.411 8350 91.3783
148.528 8101 90.0056
148.645 7665 87.55
148.762 7215 84.9412
148.88 6796 82.4379
148.997 6769 82.2739
149.114 6239 78.9873
149.231 5796 76.1315
149.349 5662 75.2463
149.466 5394 73.4439
149.583 5229 72.3118
149.701 4820 69.4262
149.818 4663 68.2862
149.935 4357 66.0076
150.053 3973 63.0317
150.17 3700 60.8276
150.287 3281 57.28
150.405 3019 54.9454
150.522 3012 54.8817
150.64 3090 55.5878
150.757 3159 56.205
150.875 3049 55.2178
150.992 3096 55.6417
151.11 2816 53.066
151.227 2580 50.7937
151.344 2454 49.5379
151.462 2430 49.295
151.579 2357 48.5489
151.697 2438 49.3761
151.814 2369 48.6724
151.932 2296 47.9166
152.049 2374 48.7237
152.167 2263 47.571
152.284 2250 47.4342
152.402 2239 47.3181
152.519 2147 46.3357
152.636 2311 48.0729
152.754 2228 47.2017
152.871 2157 46.4435
152.989 2096 45.7821
153.106 2146 46.3249
153.223 2134 46.1952
153.341 2163 46.5081
153.458 2031 45.0666
153.575 1881 43.3705
153.693 1843 42.9302
153.81 1606 40.0749
153.927 1487 38.5616
154.044 1525 39.0512
154.162 1621 40.2616
154.279 1832 42.8019
154.396 1876 43.3128
154.513 1930 43.9318
154.63 1964 44.317
154.747 2018 44.9222
154.864 2005 44.7772
154.981 1937 44.0114
155.098 1960 44.2719
155.215 1932 43.9545
155.332 2029 45.0444
155.449 2079 45.5961
155.566 2090 45.7165
155.683 2165 46.5296
155.8 2106 45.8912
155.917 2165 46.5296
156.033 2241 47.3392
156.15 0 1
156.267 0 1
156.383 0 1
156.5 0 1
156.617 0 1
156.733 0 1
156.85 0 1
156.966 0 1
157.082 0 1
157.199 0 1
157.315 0 1
157.431 0 1
157.547 0 1
157.664 0 1
157.78 0 1
157.896 0 1
158.012 0 1
158.128 0 1
158.244 0 1
158.359 0 1
158.475 0 1
158.591 0 1
158.706 0 1
