
6.15755 0 1
6.2731 0 1
6.3887 0 1
6.50437 0 1
6.62009 0 1
6.73587 0 1
6.8517 0 1
6.96759 0 1
7.08353 0 1
7.19952 0 1
7.31557 0 1
7.43166 0 1
7.54781 0 1
7.664 0 1
7.78024 0 1
7.89653 0 1
8.01286 0 1
8.12924 0 1
8.24567 0 1
8.36213 0 1
8.47864 0 1
8.59519 0 1
8.71178 0 1
8.82841 0 1
8.94508 0 1
9.06179 0 1
9.17853 0 1
9.29531 0 1
9.41212 0 1
9.52897 0 1
9.64584 0 1
9.76276 0 1
9.8797 0 1
9.99667 0 1
10.1137 0 1
10.2307 0 1
10.3478 0 1
10.4648 0 1
10.5819 0 1
10.6991 0 1
10.8162 0 1
10.9334 0 1
11.0506 0 1
11.1678 0 1
11.285 0 1
11.4023 0 1
11.5196 0 1
11.6369 0 1
11.7542 0 1
11.8715 0 1
11.9888 0 1
12.1062 0 1
12.2235 0 1
12.3409 0 1
12.4582 0 1
12.5756 0 1
12.693 0 1
12.8104 0 1
12.9278 0 1
13.0452 0 1
13.1626 0 1
13.28 0 1
13.3974 0 1
13.5149 0 1
13.6323 0 1
13.7497 0 1
13.8671 0 1
13.9845 0 1
14.1019 0 1
14.2193 0 1
14.3367 0 1
14.4541 0 1
14.5714 0 1
14.6888 0 1
14.8062 0 1
14.9235 0 1
15.0408 0 0
15.1581 0 0
15.2755 0 0
15.3927 0 0
15.51 0 0
15.6273 0 0
15.7445 0 0
15.8617 0 0
15.9789 0 0
16.0961 0 0
16.2132 0 0
16.3304 0 0
16.4475 0 0
16.5646 0 0
16.6816 0 0
16.7986 0 0
16.9156 0 0
17.0326 0 0
17.1496 0 0
17.2665 0 0
17.3833 0 0
17.5002 0 0
17.617 0 0
17.7338 0 0
17.8505 0 0
17.9672 0 0
18.0839 0 0
18.2005 0 0
18.3171 0 0
18.4337 0 0
18.5502 0 0
18.6666 0 0
18.7831 0 0
18.8994 0 0
19.0158 0 0
19.1321 0 0
19.2483 0 0
19.3645 0 0
19.4806 0 0
19.5967 0 0
19.7128 0 0
19.8288 0 0
19.9447 0 0
20.0606 0 1
20.1764 0 1
20.2922 0 1
20.4079 0 1
20.5236 0 1
20.6392 0 1
20.7548 0 1
20.8702 0 1
23.3078 0 1
23.4233 0 1
23.539 0 1
23.6547 0 1
23.7704 0 1
23.8862 0 1
24.0021 0 1
24.118 0 1
24.234 0 1
24.35 0 1
24.4661 868 29.4618
24.5822 899 29.9833
24.6984 846 29.0861
24.8146 929 30.4795
24.9309 905 30.0832
25.0472 901 30.0167
25.1636 963 31.0322
25.28 982 31.3369
25.3965 985 31.3847
25.513 1045 32.3265
25.6296 1010 31.7805
25.7462 980 31.305
25.8628 968 31.1127
25.9795 941 30.6757
26.0962 996 31.5595
26.213 943 30.7083
26.3298 981 31.3209
26.4466 947 30.7734
26.5635 1002 31.6544
26.6804 966 31.0805
26.7973 894 29.8998
26.9143 871 29.5127
27.0313 856 29.2575
27.1483 810 28.4605
27.2653 870 29.4958
27.3824 887 29.7825
27.4996 879 29.6479
27.6167 860 29.3258
27.7339 863 29.3769
27.8511 869 29.4788
27.9683 834 28.8791
28.0855 897 29.95
28.2028 825 28.7228
28.3201 909 30.1496
28.4374 871 29.5127
28.5547 946 30.7571
28.6721 896 29.9333
28.7894 859 29.3087
28.9068 953 30.8707
29.0242 884 29.7321
29.1416 914 30.2324
29.259 919 30.315
29.3764 931 30.5123
29.4939 887 29.7825
29.6113 888 29.7993
29.7288 934 30.5614
29.8463 993 31.5119
29.9638 919 30.315
30.0812 931 30.5123
30.1987 865 29.4109
30.3162 908 30.133
30.4337 790 28.1069
30.5512 822 28.6705
30.6687 789 28.0891
30.7862 787 28.0535
30.9037 802 28.3196
31.0212 894 29.8998
31.1387 855 29.2404
31.2562 850 29.1548
31.3737 776 27.8568
31.4912 848 29.1204
31.6087 786 28.0357
31.7262 812 28.4956
31.8436 830 28.8097
31.9611 883 29.7153
32.0785 888 29.7993
32.1959 876 29.5973
32.3134 925 30.4138
32.4308 895 29.9166
32.5482 870 29.4958
32.6655 905 30.0832
32.7829 935 30.5778
32.9002 915 30.249
33.0176 867 29.4449
33.1349 917 30.282
33.2522 905 30.0832
33.3694 895 29.9166
33.4867 900 30
33.6039 930 30.4959
33.7211 839 28.9655
33.8383 868 29.4618
33.9554 845 29.0689
34.0725 823 28.688
34.1896 768 27.7128
34.3067 724 26.9072
34.4237 722 26.8701
34.5407 819 28.6182
34.6577 810 28.4605
34.7746 743 27.258
34.8915 820 28.6356
35.0084 777 27.8747
35.1252 792 28.1425
35.242 823 28.688
35.3587 806 28.3901
35.4755 803 28.3373
35.5921 791 28.1247
35.7088 828 28.775
35.8254 805 28.3725
35.9419 843 29.0345
36.0584 926 30.4302
36.1749 876 29.5973
36.2913 933 30.545
36.4077 858 29.2916
36.524 896 29.9333
36.6403 880 29.6648
36.7565 793 28.1603
36.8727 852 29.189
36.9889 829 28.7924
37.1049 826 28.7402
37.221 0 1
37.3369 0 1
37.4529 0 1
37.5687 0 1
37.6845 0 1
37.8003 0 1
37.916 0 1
38.0316 0 1
38.1472 0 1
40.5851 0 1
40.7008 0 1
40.8164 0 1
40.9322 0 1
41.048 0 1
41.1639 0 1
41.2798 0 1
41.3958 0 1
41.5118 0 1
41.6279 0 1
41.744 705 26.5518
41.8602 737 27.1477
41.9765 679 26.0576
42.0928 705 26.5518
42.2091 743 27.258
42.3255 770 27.7489
42.4419 723 26.8887
42.5584 715 26.7395
42.675 682 26.1151
42.7915 678 26.0384
42.9081 678 26.0384
43.0248 676 26
43.1415 635 25.1992
43.2582 677 26.0192
43.375 679 26.0576
43.4918 703 26.5141
43.6087 665 25.7876
43.7256 628 25.0599
43.8425 651 25.5147
43.9595 563 23.7276
44.0765 592 24.3311
44.1935 629 25.0799
44.3106 643 25.3574
44.4277 682 26.1151
44.5448 625 25
44.6619 622 24.9399
44.7791 661 25.7099
44.8963 654 25.5734
45.0136 667 25.8263
45.1308 646 25.4165
45.2481 606 24.6171
45.3654 589 24.2693
45.4827 594 24.3721
45.6001 612 24.7386
45.7174 625 25
45.8348 571 23.8956
45.9522 553 23.516
46.0697 589 24.2693
46.1871 607 24.6374
46.3046 544 23.3238
46.422 597 24.4336
46.5395 510 22.5832
46.657 496 22.2711
46.7745 462 21.4942
46.892 469 21.6564
47.0096 507 22.5167
47.1271 534 23.1084
47.2446 494 22.2261
47.3622 488 22.0907
47.4797 463 21.5174
47.5973 478 21.8632
47.7149 475 21.7945
47.8324 486 22.0454
47.95 467 21.6102
48.0675 499 22.3383
48.1851 479 21.8861
48.3027 485 22.0227
48.4202 457 21.3776
48.5378 522 22.8473
48.6554 518 22.7596
48.7729 469 21.6564
48.8904 482 21.9545
49.008 462 21.4942
49.1255 458 21.4009
49.243 460 21.4476
49.3605 467 21.6102
49.478 483 21.9773
49.5955 471 21.7025
49.713 508 22.5389
49.8304 509 22.561
49.9479 511 22.6053
50.0653 516 22.7156
50.1827 425 20.6155
50.3001 439 20.9523
50.4175 374 19.3391
50.5348 445 21.095
50.6521 480 21.9089
50.7694 511 22.6053
50.8867 511 22.6053
51.004 493 22.2036
51.1212 498 22.3159
51.2384 553 23.516
51.3556 554 23.5372
51.4727 566 23.7908
51.5899 618 24.8596
51.707 596 24.4131
51.824 544 23.3238
51.9411 638 25.2587
52.0581 591 24.3105
52.175 638 25.2587
52.2919 616 24.8193
52.4088 666 25.807
52.5257 642 25.3377
52.6425 655 25.593
52.7593 678 26.0384
52.876 679 26.0576
52.9927 668 25.8457
53.1094 620 24.8998
53.226 663 25.7488
53.3426 671 25.9037
53.4591 737 27.1477
53.5756 639 25.2784
53.692 652 25.5343
53.8084 624 24.98
53.9248 582 24.1247
54.0411 600 24.4949
54.1573 551 23.4734
54.2735 0 1
54.3896 0 1
54.5057 0 1
54.6217 0 1
54.7377 0 1
54.8537 0 1
54.9695 0 1
55.0853 0 1
55.2011 0 1
55.3168 0 1
55.4324 0 1
57.824 0 1
57.9396 0 1
58.0553 0 1
58.1711 0 1
58.2869 0 1
58.4028 0 1
58.5187 0 1
58.6347 0 1
58.7508 0 1
58.8669 0 1
58.983 706 26.5707
59.0992 619 24.8797
59.2155 618 24.8596
59.3318 658 25.6515
59.4482 627 25.04
59.5646 650 25.4951
59.681 654 25.5734
59.7975 693 26.3249
59.9141 707 26.5895
60.0306 676 26
60.1473 697 26.4008
60.2639 733 27.074
60.3807 657 25.632
60.4974 700 26.4575
60.6142 736 27.1293
60.731 731 27.037
60.8479 754 27.4591
60.9648 686 26.1916
61.0818 692 26.3059
61.1987 706 26.5707
61.3158 657 25.632
61.4328 686 26.1916
61.5499 694 26.3439
61.667 672 25.923
61.7841 703 26.5141
61.9013 701 26.4764
62.0185 682 26.1151
62.1357 673 25.9422
62.253 630 25.0998
62.3702 641 25.318
62.4875 569 23.8537
62.6049 566 23.7908
62.7222 556 23.5797
62.8396 526 22.9347
62.9569 586 24.2074
63.0743 624 24.98
63.1918 610 24.6982
63.3092 610 24.6982
63.4267 644 25.3772
63.5441 620 24.8998
63.6616 627 25.04
63.7791 636 25.219
63.8966 623 24.96
64.0142 636 25.219
64.1317 605 24.5967
64.2492 606 24.6171
64.3668 569 23.8537
64.4843 647 25.4362
64.6019 643 25.3574
64.7195 587 24.2281
64.837 611 24.7184
64.9546 556 23.5797
65.0722 596 24.4131
65.1898 559 23.6432
65.3074 600 24.4949
65.4249 597 24.4336
65.5425 594 24.3721
65.6601 545 23.3452
65.7777 583 24.1454
65.8952 598 24.454
66.0128 596 24.4131
66.1304 547 23.388
66.2479 514 22.6716
66.3655 479 21.8861
66.483 480 21.9089
66.6005 520 22.8035
66.718 514 22.6716
66.8355 523 22.8692
66.953 560 23.6643
67.0705 530 23.0217
67.1879 561 23.6854
67.3054 637 25.2389
67.4228 576 24
67.5402 521 22.8254
67.6576 578 24.0416
67.7749 522 22.8473
67.8923 545 23.3452
68.0096 510 22.5832
68.1269 536 23.1517
68.2442 547 23.388
68.3614 556 23.5797
68.4787 534 23.1084
68.5958 582 24.1247
68.713 545 23.3452
68.8302 543 23.3024
68.9473 539 23.2164
69.0643 489 22.1133
69.1814 506 22.4944
69.2984 547 23.388
69.4154 570 23.8747
69.5323 493 22.2036
69.6492 573 23.9374
69.7661 524 22.891
69.8829 469 21.6564
69.9997 432 20.7846
70.1165 448 21.166
70.2332 474 21.7715
70.3499 461 21.4709
70.4665 468 21.6333
70.5831 454 21.3073
70.6996 466 21.587
70.8161 522 22.8473
70.9326 513 22.6495
71.049 493 22.2036
71.1653 505 22.4722
71.2817 476 21.8174
71.3979 418 20.445
71.5141 450 21.2132
71.6303 445 21.095
71.7464 425 20.6155
71.8624 0 1
71.9784 0 1
72.0944 0 1
72.2102 0 1
72.3261 0 1
72.4418 0 1
72.5575 0 1
72.6732 0 1
75.1054 0 1
75.2209 0 1
75.3365 0 1
75.4521 0 1
75.5678 0 1
75.6835 0 1
75.7993 0 1
75.9151 0 1
76.031 0 1
76.147 363 19.0526
76.263 376 19.3907
76.3791 406 20.1494
76.4952 404 20.0998
76.6113 371 19.2614
76.7276 376 19.3907
76.8438 385 19.6214
76.9601 383 19.5704
77.0765 369 19.2094
77.1929 362 19.0263
77.3093 355 18.8414
77.4258 358 18.9209
77.5423 334 18.2757
77.6589 310 17.6068
77.7755 320 17.8885
77.8921 335 18.303
78.0088 326 18.0555
78.1256 320 17.8885
78.2423 342 18.4932
78.3591 339 18.412
78.4759 337 18.3576
78.5928 318 17.8326
78.7097 325 18.0278
78.8266 341 18.4662
78.9436 294 17.1464
79.0606 265 16.2788
79.1776 229 15.1327
79.2946 209 14.4568
79.4117 252 15.8745
79.5288 291 17.0587
79.6459 296 17.2047
79.7631 286 16.9115
79.8802 274 16.5529
79.9974 271 16.4621
80.1147 251 15.843
80.2319 237 15.3948
80.3491 265 16.2788
80.4664 235 15.3297
80.5837 220 14.8324
80.701 216 14.6969
80.8183 201 14.1774
80.9357 235 15.3297
81.053 204 14.2829
81.1704 193 13.8924
81.2877 199 14.1067
81.4051 195 13.9642
81.5225 175 13.2288
81.6399 197 14.0357
81.7573 173 13.1529
81.8747 152 12.3288
81.9922 166 12.8841
82.1096 169 13
82.227 166 12.8841
82.3444 162 12.7279
82.4619 150 12.2474
82.5793 133 11.5326
82.6967 143 11.9583
82.8142 136 11.6619
82.9316 100 10
83.049 108 10.3923
83.1664 128 11.3137
83.2838 119 10.9087
83.4012 106 10.2956
83.5186 107 10.3441
83.636 99 9.94987
83.7534 98 9.89949
83.8708 98 9.89949
83.9881 75 8.66025
84.1055 90 9.48683
84.2228 77 8.77496
84.3401 74 8.60233
84.4575 65 8.06226
84.5747 66 8.12404
84.692 75 8.66025
84.8093 82 9.05539
84.9265 80 8.94427
85.0437 61 7.81025
85.1609 62 7.87401
85.2781 55 7.4162
85.3952 49 7
85.5123 75 8.66025
85.6294 54 7.34847
85.7465 72 8.48528
85.8636 68 8.24621
85.9806 69 8.30662
86.0976 58 7.61577
86.2145 46 6.78233
86.3315 62 7.87401
86.4484 72 8.48528
86.5652 71 8.42615
86.682 81 9
86.7988 96 9.79796
86.9156 92 9.59166
87.0323 82 9.05539
87.149 100 10
87.2657 95 9.74679
87.3823 91 9.53939
87.4988 100 10
87.6154 100 10
87.7318 146 12.083
87.8483 121 11
87.9647 148 12.1655
88.081 146 12.083
88.1973 141 11.8743
88.3136 160 12.6491
88.4298 148 12.1655
88.546 162 12.7279
88.6621 153 12.3693
88.7781 156 12.49
88.8942 0 1
89.0101 0 1
89.126 0 1
89.2419 0 1
89.3577 0 1
89.4734 0 1
89.5891 0 1
89.7047 0 1
89.8203 0 1
89.9358 0 1
92.3269 0 1
92.4424 0 1
92.558 0 1
92.6736 0 1
92.7893 0 1
92.905 0 1
93.0208 0 1
93.1366 0 1
93.2525 0 1
93.3685 0 1
93.4845 0 1
93.6005 284 16.8523
93.7167 279 16.7033
93.8328 276 16.6132
93.949 266 16.3095
94.0653 231 15.1987
94.1816 235 15.3297
94.2979 224 14.9666
94.4143 242 15.5563
94.5307 201 14.1774
94.6472 245 15.6525
94.7637 212 14.5602
94.8803 199 14.1067
94.9969 207 14.3875
95.1135 223 14.9332
95.2302 175 13.2288
95.3469 170 13.0384
95.4637 152 12.3288
95.5805 146 12.083
95.6973 226 15.0333
95.8142 211 14.5258
95.9311 239 15.4596
96.048 233 15.2643
96.1649 258 16.0624
96.2819 253 15.906
96.3989 266 16.3095
96.516 269 16.4012
96.633 278 16.6733
96.7501 262 16.1864
96.8673 257 16.0312
96.9844 300 17.3205
97.1016 318 17.8326
97.2188 299 17.2916
97.336 295 17.1756
97.4532 352 18.7617
97.5704 344 18.5472
97.6877 340 18.4391
97.805 297 17.2337
97.9223 392 19.799
98.0396 393 19.8242
98.1569 352 18.7617
98.2743 378 19.4422
98.3916 355 18.8414
98.509 399 19.975
98.6264 399 19.975
98.7438 352 18.7617
98.8612 384 19.5959
98.9786 358 18.9209
99.096 282 16.7929
99.2134 287 16.9411
99.3308 351 18.735
99.4482 465 21.5639
99.5656 442 21.0238
99.6831 490 22.1359
99.8005 473 21.7486
99.9179 471 21.7025
100.035 509 22.561
100.153 472 21.7256
100.27 540 23.2379
100.388 489 22.1133
100.505 486 22.0454
100.622 506 22.4944
100.74 479 21.8861
100.857 491 22.1585
100.975 579 24.0624
101.092 569 23.8537
101.209 538 23.1948
101.327 574 23.9583
101.444 534 23.1084
101.561 575 23.9792
101.679 565 23.7697
101.796 494 22.2261
101.913 575 23.9792
102.03 525 22.9129
102.148 520 22.8035
102.265 569 23.8537
102.382 503 22.4277
102.499 524 22.891
102.616 434 20.8327
102.733 357 18.8944
102.851 438 20.9284
102.968 538 23.1948
103.085 548 23.4094
103.202 581 24.1039
103.319 560 23.6643
103.436 613 24.7588
103.552 579 24.0624
103.669 566 23.7908
103.786 595 24.3926
103.903 555 23.5584
104.02 571 23.8956
104.137 579 24.0624
104.253 596 24.4131
104.37 628 25.0599
104.487 606 24.6171
104.603 612 24.7386
104.72 621 24.9199
104.836 583 24.1454
104.953 587 24.2281
105.069 651 25.5147
105.186 602 24.5357
105.302 617 24.8395
105.418 598 24.454
105.535 636 25.219
105.651 609 24.6779
105.767 553 23.516
105.883 544 23.3238
105.999 496 22.2711
106.115 0 1
106.231 0 1
106.347 0 1
106.463 0 1
106.579 0 1
106.694 0 1
106.81 0 1
106.926 0 1
107.041 0 1
107.157 0 1
109.576 0 1
109.692 0 1
109.807 0 1
109.923 0 1
110.039 0 1
110.155 0 1
110.27 0 1
110.386 0 1
110.502 0 1
110.618 449 21.1896
110.735 463 21.5174
110.851 460 21.4476
110.967 445 21.095
111.083 418 20.445
111.199 349 18.6815
111.316 348 18.6548
111.432 401 20.025
111.549 397 19.9249
111.665 435 20.8567
111.782 441 21
111.898 440 20.9762
112.015 414 20.347
112.132 452 21.2603
112.248 406 20.1494
112.365 427 20.664
112.482 405 20.1246
112.599 351 18.735
112.716 426 20.6398
112.832 392 19.799
112.949 400 20
113.066 335 18.303
113.183 367 19.1572
113.3 376 19.3907
113.417 353 18.7883
113.534 330 18.1659
113.652 356 18.868
113.769 345 18.5742
113.886 358 18.9209
114.003 357 18.8944
114.12 376 19.3907
114.238 290 17.0294
114.355 329 18.1384
114.472 329 18.1384
114.589 335 18.303
114.707 296 17.2047
114.824 301 17.3494
114.942 313 17.6918
115.059 300 17.3205
115.176 272 16.4924
115.294 333 18.2483
115.411 340 18.4391
115.529 347 18.6279
115.646 323 17.9722
115.764 329 18.1384
115.881 329 18.1384
115.999 294 17.1464
116.116 339 18.412
116.234 319 17.8606
116.351 315 17.7482
116.469 350 18.7083
116.586 272 16.4924
116.704 331 18.1934
116.821 326 18.0555
116.939 314 17.72
117.056 315 17.7482
117.174 348 18.6548
117.291 326 18.0555
117.409 326 18.0555
117.526 304 17.4356
117.644 296 17.2047
117.761 329 18.1384
117.879 274 16.5529
117.996 261 16.1555
118.114 234 15.2971
118.231 261 16.1555
118.349 279 16.7033
118.466 298 17.2627
118.584 290 17.0294
118.701 289 17
118.819 349 18.6815
118.936 305 17.4642
119.053 316 17.7764
119.171 335 18.303
119.288 317 17.8045
119.405 344 18.5472
119.523 338 18.3848
119.64 331 18.1934
119.757 350 18.7083
119.875 314 17.72
119.992 337 18.3576
120.109 326 18.0555
120.226 353 18.7883
120.343 342 18.4932
120.46 318 17.8326
120.578 336 18.3303
120.695 324 18
120.812 371 19.2614
120.929 364 19.0788
121.046 333 18.2483
121.163 344 18.5472
121.279 329 18.1384
121.396 286 16.9115
121.513 300 17.3205
121.63 241 15.5242
121.747 217 14.7309
121.863 254 15.9374
121.98 287 16.9411
122.097 307 17.5214
122.213 341 18.4662
122.33 336 18.3303
122.446 358 18.9209
122.563 334 18.2757
122.679 343 18.5203
122.795 347 18.6279
122.912 366 19.1311
123.028 376 19.3907
123.144 369 19.2094
123.26 384 19.5959
123.377 0 1
123.493 0 1
123.609 0 1
123.725 0 1
123.84 0 1
123.956 0 1
124.072 0 1
124.188 0 1
124.303 0 1
124.419 0 1
126.852 0 1
126.968 0 1
127.083 0 1
127.199 0 1
127.315 0 1
127.431 0 1
127.547 0 1
127.663 0 1
127.779 0 1
127.895 0 1
128.011 0 1
128.127 0 1
128.243 0 1
128.359 446 21.1187
128.476 467 21.6102
128.592 473 21.7486
128.708 453 21.2838
128.825 451 21.2368
128.941 440 20.9762
129.058 485 22.0227
129.174 463 21.5174
129.291 494 22.2261
129.408 497 22.2935
129.524 494 22.2261
129.641 420 20.4939
129.758 466 21.587
129.875 509 22.561
129.992 467 21.6102
130.108 462 21.4942
130.225 420 20.4939
130.342 492 22.1811
130.459 375 19.3649
130.576 335 18.303
130.693 343 18.5203
130.81 320 17.8885
130.928 338 18.3848
131.045 386 19.6469
131.162 462 21.4942
131.279 499 22.3383
131.396 492 22.1811
131.513 465 21.5639
131.631 487 22.0681
131.748 538 23.1948
131.865 499 22.3383
131.983 497 22.2935
132.1 516 22.7156
132.217 521 22.8254
132.335 492 22.1811
132.452 490 22.1359
132.57 502 22.4054
132.687 467 21.6102
132.804 529 23
132.922 515 22.6936
133.039 525 22.9129
133.157 508 22.5389
133.274 502 22.4054
133.392 510 22.5832
133.509 497 22.2935
133.627 519 22.7816
133.744 491 22.1585
133.862 432 20.7846
133.979 433 20.8087
134.097 415 20.3715
134.214 387 19.6723
134.332 358 18.9209
134.449 362 19.0263
134.567 394 19.8494
134.684 427 20.664
134.802 496 22.2711
134.919 525 22.9129
135.037 562 23.7065
135.154 492 22.1811
135.272 551 23.4734
135.389 535 23.1301
135.507 568 23.8328
135.624 547 23.388
135.742 540 23.2379
135.859 550 23.4521
135.977 572 23.9165
136.094 535 23.1301
136.211 525 22.9129
136.329 580 24.0832
136.446 550 23.4521
136.564 566 23.7908
136.681 572 23.9165
136.798 568 23.8328
136.915 551 23.4734
137.033 603 24.5561
137.15 554 23.5372
137.267 552 23.4947
137.384 522 22.8473
137.502 496 22.2711
137.619 506 22.4944
137.736 464 21.5407
137.853 425 20.6155
137.97 391 19.7737
138.087 453 21.2838
138.204 453 21.2838
138.321 513 22.6495
138.438 555 23.5584
138.555 583 24.1454
138.672 576 24
138.788 557 23.6008
138.905 609 24.6779
139.022 602 24.5357
139.139 605 24.5967
139.255 626 25.02
139.372 635 25.1992
139.488 629 25.0799
139.605 629 25.0799
139.721 624 24.98
139.838 623 24.96
139.954 613 24.7588
140.071 608 24.6577
140.187 613 24.7588
140.303 639 25.2784
140.419 644 25.3772
140.535 583 24.1454
140.652 616 24.8193
140.768 0 1
140.884 0 1
141 0 1
141.115 0 1
141.231 0 1
141.347 0 1
141.463 0 1
141.578 0 1
141.694 0 1
144.104 0 1
144.219 0 1
144.335 0 1
144.45 0 1
144.566 0 1
144.682 0 1
144.798 0 1
144.914 0 1
145.03 0 1
145.146 623 24.96
145.262 600 24.4949
145.378 588 24.2487
145.494 629 25.0799
145.61 572 23.9165
145.726 600 24.4949
145.842 607 24.6374
145.959 579 24.0624
146.075 530 23.0217
146.192 536 23.1517
146.308 497 22.2935
146.425 477 21.8403
146.541 442 21.0238
146.658 448 21.166
146.774 471 21.7025
146.891 510 22.5832
147.008 518 22.7596
147.125 513 22.6495
147.241 547 23.388
147.358 589 24.2693
147.475 589 24.2693
147.592 556 23.5797
147.709 562 23.7065
147.826 624 24.98
147.943 609 24.6779
148.06 565 23.7697
148.177 600 24.4949
148.294 630 25.0998
148.411 591 24.3105
148.528 558 23.622
148.645 569 23.8537
148.762 575 23.9792
148.88 584 24.1661
148.997 591 24.3105
149.114 598 24.454
149.231 568 23.8328
149.349 604 24.5764
149.466 541 23.2594
149.583 548 23.4094
149.701 520 22.8035
149.818 544 23.3238
149.935 438 20.9284
150.053 457 21.3776
150.17 460 21.4476
150.287 453 21.2838
150.405 468 21.6333
150.522 479 21.8861
150.64 502 22.4054
150.757 496 22.2711
150.875 560 23.6643
150.992 612 24.7386
151.11 587 24.2281
151.227 585 24.1868
151.344 590 24.2899
151.462 624 24.98
151.579 564 23.7487
151.697 606 24.6171
151.814 571 23.8956
151.932 638 25.2587
152.049 550 23.4521
152.167 540 23.2379
152.284 614 24.779
152.402 631 25.1197
152.519 617 24.8395
152.636 618 24.8596
152.754 553 23.516
152.871 615 24.7992
152.989 573 23.9374
153.106 562 23.7065
153.223 566 23.7908
153.341 533 23.0868
153.458 511 22.6053
153.575 523 22.8692
153.693 470 21.6795
153.81 500 22.3607
153.927 488 22.0907
154.044 529 23
154.162 548 23.4094
154.279 575 23.9792
154.396 587 24.2281
154.513 610 24.6982
154.63 604 24.5764
154.747 590 24.2899
154.864 612 24.7386
154.981 575 23.9792
155.098 697 26.4008
155.215 617 24.8395
155.332 622 24.9399
155.449 609 24.6779
155.566 652 25.5343
155.683 598 24.454
155.8 639 25.2784
155.917 641 25.318
156.033 621 24.9199
156.15 0 1
156.267 0 1
156.383 0 1
156.5 0 1
156.617 0 1
156.733 0 1
156.85 0 1
156.966 0 1
157.082 0 1
157.199 0 1
157.315 0 1
157.431 0 1
157.547 0 1
157.664 0 1
157.78 0 1
157.896 0 1
158.012 0 1
158.128 0 1
158.244 0 1
158.359 0 1
158.475 0 1
158.591 0 1
158.706 0 1
