
6.15755 0 1
6.2731 0 1
6.3887 0 1
6.50437 0 1
6.62009 0 1
6.73587 0 1
6.8517 0 1
6.96759 0 1
7.08353 0 1
7.19952 0 1
7.31557 0 1
7.43166 0 1
7.54781 0 1
7.664 0 1
7.78024 0 1
7.89653 0 1
8.01286 0 1
8.12924 0 1
8.24567 0 1
8.36213 0 1
8.47864 0 1
8.59519 0 1
8.71178 0 1
8.82841 0 1
8.94508 0 1
9.06179 0 1
9.17853 0 1
9.29531 0 1
9.41212 0 1
9.52897 0 1
9.64584 0 1
9.76276 0 1
9.8797 0 1
9.99667 0 1
10.1137 0 1
10.2307 0 1
10.3478 0 1
10.4648 0 1
10.5819 0 1
10.6991 0 1
10.8162 0 1
10.9334 0 1
11.0506 0 1
11.1678 0 1
11.285 0 1
11.4023 0 1
11.5196 0 1
11.6369 0 1
11.7542 0 1
11.8715 0 1
11.9888 0 1
12.1062 0 1
12.2235 0 1
12.3409 0 1
12.4582 0 1
12.5756 0 1
12.693 0 1
12.8104 0 1
12.9278 0 1
13.0452 0 1
13.1626 0 1
13.28 0 1
13.3974 0 1
13.5149 0 1
13.6323 0 1
13.7497 0 1
13.8671 0 1
13.9845 0 1
14.1019 0 1
14.2193 0 1
14.3367 0 1
14.4541 0 1
14.5714 0 1
14.6888 0 1
14.8062 0 1
14.9235 0 1
15.0408 0 0
15.1581 0 0
15.2755 0 0
15.3927 0 0
15.51 0 0
15.6273 0 0
15.7445 0 0
15.8617 0 0
15.9789 0 0
16.0961 0 0
16.2132 0 0
16.3304 0 0
16.4475 0 0
16.5646 0 0
16.6816 0 0
16.7986 0 0
16.9156 0 0
17.0326 0 0
17.1496 0 0
17.2665 0 0
17.3833 0 0
17.5002 0 0
17.617 0 0
17.7338 0 0
17.8505 0 0
17.9672 0 0
18.0839 0 0
18.2005 0 0
18.3171 0 0
18.4337 0 0
18.5502 0 0
18.6666 0 0
18.7831 0 0
18.8994 0 0
19.0158 0 0
19.1321 0 0
19.2483 0 0
19.3645 0 0
19.4806 0 0
19.5967 0 0
19.7128 0 0
19.8288 0 0
19.9447 0 0
20.0606 0 1
20.1764 0 1
20.2922 0 1
20.4079 0 1
20.5236 0 1
20.6392 0 1
20.7548 0 1
20.8702 0 1
23.3078 0 1
23.4233 0 1
23.539 0 1
23.6547 0 1
23.7704 0 1
23.8862 0 1
24.0021 0 1
24.118 0 1
24.234 0 1
24.35 0 1
24.4661 344 18.5472
24.5822 356 18.868
24.6984 367 19.1572
24.8146 432 20.7846
24.9309 529 23
25.0472 600 24.4949
25.1636 699 26.4386
25.28 723 26.8887
25.3965 727 26.9629
25.513 700 26.4575
25.6296 728 26.9815
25.7462 707 26.5895
25.8628 703 26.5141
25.9795 746 27.313
26.0962 744 27.2764
26.213 715 26.7395
26.3298 740 27.2029
26.4466 743 27.258
26.5635 791 28.1247
26.6804 820 28.6356
26.7973 741 27.2213
26.9143 693 26.3249
27.0313 601 24.5153
27.1483 708 26.6083
27.2653 680 26.0768
27.3824 660 25.6905
27.4996 604 24.5764
27.6167 618 24.8596
27.7339 586 24.2074
27.8511 640 25.2982
27.9683 638 25.2587
28.0855 688 26.2298
28.2028 641 25.318
28.3201 653 25.5539
28.4374 612 24.7386
28.5547 656 25.6125
28.6721 671 25.9037
28.7894 699 26.4386
28.9068 660 25.6905
29.0242 699 26.4386
29.1416 695 26.3629
29.259 731 27.037
29.3764 734 27.0924
29.4939 650 25.4951
29.6113 658 25.6515
29.7288 652 25.5343
29.8463 648 25.4558
29.9638 642 25.3377
30.0812 659 25.671
30.1987 679 26.0576
30.3162 665 25.7876
30.4337 664 25.7682
30.5512 703 26.5141
30.6687 661 25.7099
30.7862 696 26.3818
30.9037 598 24.454
31.0212 619 24.8797
31.1387 638 25.2587
31.2562 667 25.8263
31.3737 718 26.7955
31.4912 700 26.4575
31.6087 637 25.2389
31.7262 697 26.4008
31.8436 696 26.3818
31.9611 663 25.7488
32.0785 696 26.3818
32.1959 726 26.9444
32.3134 661 25.7099
32.4308 627 25.04
32.5482 662 25.7294
32.6655 601 24.5153
32.7829 598 24.454
32.9002 617 24.8395
33.0176 570 23.8747
33.1349 582 24.1247
33.2522 572 23.9165
33.3694 580 24.0832
33.4867 655 25.593
33.6039 619 24.8797
33.7211 647 25.4362
33.8383 627 25.04
33.9554 636 25.219
34.0725 618 24.8596
34.1896 665 25.7876
34.3067 631 25.1197
34.4237 640 25.2982
34.5407 619 24.8797
34.6577 620 24.8998
34.7746 646 25.4165
34.8915 638 25.2587
35.0084 607 24.6374
35.1252 666 25.807
35.242 711 26.6646
35.3587 686 26.1916
35.4755 640 25.2982
35.5921 640 25.2982
35.7088 661 25.7099
35.8254 584 24.1661
35.9419 597 24.4336
36.0584 549 23.4307
36.1749 586 24.2074
36.2913 580 24.0832
36.4077 548 23.4094
36.524 507 22.5167
36.6403 448 21.166
36.7565 371 19.2614
36.8727 354 18.8149
36.9889 349 18.6815
37.1049 297 17.2337
37.221 0 1
37.3369 0 1
37.4529 0 1
37.5687 0 1
37.6845 0 1
37.8003 0 1
37.916 0 1
38.0316 0 1
38.1472 0 1
40.5851 0 1
40.7008 0 1
40.8164 0 1
40.9322 0 1
41.048 0 1
41.1639 0 1
41.2798 0 1
41.3958 0 1
41.5118 0 1
41.6279 0 1
41.744 284 16.8523
41.8602 327 18.0831
41.9765 424 20.5913
42.0928 466 21.587
42.2091 460 21.4476
42.3255 477 21.8403
42.4419 544 23.3238
42.5584 584 24.1661
42.675 620 24.8998
42.7915 643 25.3574
42.9081 737 27.1477
43.0248 821 28.6531
43.1415 925 30.4138
43.2582 888 29.7993
43.375 921 30.348
43.4918 957 30.9354
43.6087 1053 32.45
43.7256 1123 33.5112
43.8425 1213 34.8281
43.9595 1260 35.4965
44.0765 1295 35.9861
44.1935 1304 36.1109
44.3106 1410 37.55
44.4277 1380 37.1484
44.5448 1408 37.5233
44.6619 1317 36.2905
44.7791 1430 37.8153
44.8963 1388 37.2559
45.0136 1443 37.9868
45.1308 1347 36.7015
45.2481 1356 36.8239
45.3654 1325 36.4005
45.4827 1249 35.3412
45.6001 1217 34.8855
45.7174 1144 33.8231
45.8348 1124 33.5261
45.9522 1076 32.8024
46.0697 1072 32.7414
46.1871 1043 32.2955
46.3046 960 30.9839
46.422 989 31.4484
46.5395 901 30.0167
46.657 814 28.5307
46.7745 735 27.1109
46.892 667 25.8263
47.0096 639 25.2784
47.1271 614 24.779
47.2446 593 24.3516
47.3622 584 24.1661
47.4797 591 24.3105
47.5973 549 23.4307
47.7149 566 23.7908
47.8324 570 23.8747
47.95 521 22.8254
48.0675 519 22.7816
48.1851 537 23.1733
48.3027 502 22.4054
48.4202 532 23.0651
48.5378 471 21.7025
48.6554 503 22.4277
48.7729 489 22.1133
48.8904 484 22
49.008 498 22.3159
49.1255 483 21.9773
49.243 498 22.3159
49.3605 490 22.1359
49.478 510 22.5832
49.5955 527 22.9565
49.713 531 23.0434
49.8304 551 23.4734
49.9479 539 23.2164
50.0653 560 23.6643
50.1827 536 23.1517
50.3001 503 22.4277
50.4175 447 21.1424
50.5348 449 21.1896
50.6521 453 21.2838
50.7694 522 22.8473
50.8867 578 24.0416
51.004 576 24
51.1212 542 23.2809
51.2384 594 24.3721
51.3556 536 23.1517
51.4727 536 23.1517
51.5899 539 23.2164
51.707 509 22.561
51.824 536 23.1517
51.9411 494 22.2261
52.0581 552 23.4947
52.175 454 21.3073
52.2919 500 22.3607
52.4088 473 21.7486
52.5257 480 21.9089
52.6425 470 21.6795
52.7593 487 22.0681
52.876 489 22.1133
52.9927 458 21.4009
53.1094 503 22.4277
53.226 493 22.2036
53.3426 478 21.8632
53.4591 439 20.9523
53.5756 416 20.3961
53.692 381 19.5192
53.8084 323 17.9722
53.9248 321 17.9165
54.0411 285 16.8819
54.1573 268 16.3707
54.2735 0 1
54.3896 0 1
54.5057 0 1
54.6217 0 1
54.7377 0 1
54.8537 0 1
54.9695 0 1
55.0853 0 1
55.2011 0 1
55.3168 0 1
55.4324 0 1
57.824 0 1
57.9396 0 1
58.0553 0 1
58.1711 0 1
58.2869 0 1
58.4028 0 1
58.5187 0 1
58.6347 0 1
58.7508 0 1
58.8669 0 1
58.983 420 20.4939
59.0992 468 21.6333
59.2155 487 22.0681
59.3318 494 22.2261
59.4482 542 23.2809
59.5646 580 24.0832
59.681 586 24.2074
59.7975 645 25.3969
59.9141 640 25.2982
60.0306 623 24.96
60.1473 660 25.6905
60.2639 606 24.6171
60.3807 643 25.3574
60.4974 645 25.3969
60.6142 645 25.3969
60.731 613 24.7588
60.8479 687 26.2107
60.9648 589 24.2693
61.0818 694 26.3439
61.1987 632 25.1396
61.3158 649 25.4755
61.4328 602 24.5357
61.5499 615 24.7992
61.667 619 24.8797
61.7841 615 24.7992
61.9013 649 25.4755
62.0185 643 25.3574
62.1357 651 25.5147
62.253 642 25.3377
62.3702 637 25.2389
62.4875 589 24.2693
62.6049 560 23.6643
62.7222 609 24.6779
62.8396 596 24.4131
62.9569 640 25.2982
63.0743 665 25.7876
63.1918 694 26.3439
63.3092 699 26.4386
63.4267 696 26.3818
63.5441 643 25.3574
63.6616 658 25.6515
63.7791 663 25.7488
63.8966 676 26
64.0142 672 25.923
64.1317 658 25.6515
64.2492 685 26.1725
64.3668 645 25.3969
64.4843 692 26.3059
64.6019 637 25.2389
64.7195 675 25.9808
64.837 604 24.5764
64.9546 607 24.6374
65.0722 584 24.1661
65.1898 545 23.3452
65.3074 605 24.5967
65.4249 612 24.7386
65.5425 631 25.1197
65.6601 655 25.593
65.7777 626 25.02
65.8952 632 25.1396
66.0128 581 24.1039
66.1304 523 22.8692
66.2479 555 23.5584
66.3655 523 22.8692
66.483 615 24.7992
66.6005 598 24.454
66.718 624 24.98
66.8355 665 25.7876
66.953 621 24.9199
67.0705 644 25.3772
67.1879 584 24.1661
67.3054 635 25.1992
67.4228 660 25.6905
67.5402 613 24.7588
67.6576 661 25.7099
67.7749 662 25.7294
67.8923 643 25.3574
68.0096 670 25.8844
68.1269 632 25.1396
68.2442 654 25.5734
68.3614 640 25.2982
68.4787 632 25.1396
68.5958 578 24.0416
68.713 603 24.5561
68.8302 569 23.8537
68.9473 582 24.1247
69.0643 570 23.8747
69.1814 564 23.7487
69.2984 612 24.7386
69.4154 627 25.04
69.5323 592 24.3311
69.6492 553 23.516
69.7661 531 23.0434
69.8829 462 21.4942
69.9997 496 22.2711
70.1165 570 23.8747
70.2332 561 23.6854
70.3499 488 22.0907
70.4665 452 21.2603
70.5831 456 21.3542
70.6996 422 20.5426
70.8161 387 19.6723
70.9326 365 19.105
71.049 371 19.2614
71.1653 316 17.7764
71.2817 323 17.9722
71.3979 336 18.3303
71.5141 301 17.3494
71.6303 317 17.8045
71.7464 282 16.7929
71.8624 0 1
71.9784 0 1
72.0944 0 1
72.2102 0 1
72.3261 0 1
72.4418 0 1
72.5575 0 1
72.6732 0 1
75.1054 0 1
75.2209 0 1
75.3365 0 1
75.4521 0 1
75.5678 0 1
75.6835 0 1
75.7993 0 1
75.9151 0 1
76.031 0 1
76.147 521 22.8254
76.263 579 24.0624
76.3791 532 23.0651
76.4952 544 23.3238
76.6113 565 23.7697
76.7276 595 24.3926
76.8438 578 24.0416
76.9601 626 25.02
77.0765 619 24.8797
77.1929 640 25.2982
77.3093 641 25.318
77.4258 598 24.454
77.5423 603 24.5561
77.6589 594 24.3721
77.7755 560 23.6643
77.8921 596 24.4131
78.0088 617 24.8395
78.1256 582 24.1247
78.2423 576 24
78.3591 589 24.2693
78.4759 647 25.4362
78.5928 616 24.8193
78.7097 538 23.1948
78.8266 509 22.561
78.9436 433 20.8087
79.0606 423 20.567
79.1776 509 22.561
79.2946 617 24.8395
79.4117 621 24.9199
79.5288 656 25.6125
79.6459 647 25.4362
79.7631 619 24.8797
79.8802 628 25.0599
79.9974 624 24.98
80.1147 634 25.1794
80.2319 614 24.779
80.3491 614 24.779
80.4664 657 25.632
80.5837 680 26.0768
80.701 659 25.671
80.8183 606 24.6171
80.9357 633 25.1595
81.053 668 25.8457
81.1704 624 24.98
81.2877 590 24.2899
81.4051 634 25.1794
81.5225 565 23.7697
81.6399 582 24.1247
81.7573 604 24.5764
81.8747 615 24.7992
81.9922 666 25.807
82.1096 640 25.2982
82.227 633 25.1595
82.3444 603 24.5561
82.4619 524 22.891
82.5793 477 21.8403
82.6967 466 21.587
82.8142 520 22.8035
82.9316 578 24.0416
83.049 628 25.0599
83.1664 617 24.8395
83.2838 611 24.7184
83.4012 642 25.3377
83.5186 636 25.219
83.636 675 25.9808
83.7534 678 26.0384
83.8708 612 24.7386
83.9881 656 25.6125
84.1055 706 26.5707
84.2228 628 25.0599
84.3401 687 26.2107
84.4575 710 26.6458
84.5747 662 25.7294
84.692 698 26.4197
84.8093 687 26.2107
84.9265 630 25.0998
85.0437 628 25.0599
85.1609 659 25.671
85.2781 638 25.2587
85.3952 626 25.02
85.5123 651 25.5147
85.6294 600 24.4949
85.7465 636 25.219
85.8636 619 24.8797
85.9806 546 23.3666
86.0976 478 21.8632
86.2145 447 21.1424
86.3315 500 22.3607
86.4484 599 24.4745
86.5652 642 25.3377
86.682 645 25.3969
86.7988 632 25.1396
86.9156 606 24.6171
87.0323 638 25.2587
87.149 640 25.2982
87.2657 589 24.2693
87.3823 601 24.5153
87.4988 611 24.7184
87.6154 553 23.516
87.7318 529 23
87.8483 482 21.9545
87.9647 489 22.1133
88.081 475 21.7945
88.1973 450 21.2132
88.3136 487 22.0681
88.4298 433 20.8087
88.546 391 19.7737
88.6621 357 18.8944
88.7781 362 19.0263
88.8942 0 1
89.0101 0 1
89.126 0 1
89.2419 0 1
89.3577 0 1
89.4734 0 1
89.5891 0 1
89.7047 0 1
89.8203 0 1
89.9358 0 1
92.3269 0 1
92.4424 0 1
92.558 0 1
92.6736 0 1
92.7893 0 1
92.905 0 1
93.0208 0 1
93.1366 0 1
93.2525 0 1
93.3685 0 1
93.4845 0 1
93.6005 717 26.7769
93.7167 782 27.9643
93.8328 787 28.0535
93.949 727 26.9629
94.0653 789 28.0891
94.1816 740 27.2029
94.2979 854 29.2233
94.4143 858 29.2916
94.5307 872 29.5296
94.6472 898 29.9666
94.7637 977 31.257
94.8803 865 29.4109
94.9969 840 28.9828
95.1135 810 28.4605
95.2302 972 31.1769
95.3469 1101 33.1813
95.4637 1281 35.7911
95.5805 1450 38.0789
95.6973 1510 38.8587
95.8142 1598 39.975
95.9311 1671 40.8779
96.048 1667 40.8289
96.1649 1721 41.4849
96.2819 1818 42.638
96.3989 1883 43.3935
96.516 1774 42.1189
96.633 1872 43.2666
96.7501 1933 43.9659
96.8673 1878 43.3359
96.9844 1902 43.6119
97.1016 1913 43.7379
97.2188 1841 42.9069
97.336 1936 44
97.4532 1839 42.8836
97.5704 1796 42.3792
97.6877 1787 42.2729
97.805 1831 42.7902
97.9223 1909 43.6921
98.0396 1797 42.391
98.1569 1800 42.4264
98.2743 1731 41.6053
98.3916 1538 39.2173
98.509 1303 36.0971
98.6264 1130 33.6155
98.7438 1264 35.5528
98.8612 1434 37.8682
98.9786 1688 41.0853
99.096 1780 42.19
99.2134 1772 42.0951
99.3308 1809 42.5323
99.4482 1822 42.6849
99.5656 1799 42.4146
99.6831 1817 42.6263
99.8005 1771 42.0833
99.9179 1895 43.5316
100.035 1823 42.6966
100.153 1793 42.3438
100.27 1786 42.2611
100.388 1829 42.7668
100.505 1803 42.4617
100.622 1853 43.0465
100.74 1813 42.5793
100.857 1869 43.2319
100.975 1801 42.4382
101.092 1745 41.7732
101.209 1775 42.1307
101.327 1809 42.5323
101.444 1741 41.7253
101.561 1818 42.638
101.679 1792 42.332
101.796 1791 42.3202
101.913 1581 39.7618
102.03 1374 37.0675
102.148 1224 34.9857
102.265 1080 32.8634
102.382 1214 34.8425
102.499 1424 37.7359
102.616 1562 39.5221
102.733 1428 37.7889
102.851 1482 38.4968
102.968 1383 37.1887
103.085 1331 36.4829
103.202 1231 35.0856
103.319 1170 34.2053
103.436 1107 33.2716
103.552 1117 33.4215
103.669 949 30.8058
103.786 935 30.5778
103.903 932 30.5287
104.02 878 29.6311
104.137 841 29
104.253 819 28.6182
104.37 745 27.2947
104.487 753 27.4408
104.603 680 26.0768
104.72 699 26.4386
104.836 651 25.5147
104.953 597 24.4336
105.069 524 22.891
105.186 430 20.7364
105.302 414 20.347
105.418 381 19.5192
105.535 346 18.6011
105.651 328 18.1108
105.767 261 16.1555
105.883 214 14.6287
105.999 200 14.1421
106.115 0 1
106.231 0 1
106.347 0 1
106.463 0 1
106.579 0 1
106.694 0 1
106.81 0 1
106.926 0 1
107.041 0 1
107.157 0 1
109.576 0 1
109.692 0 1
109.807 0 1
109.923 0 1
110.039 0 1
110.155 0 1
110.27 0 1
110.386 0 1
110.502 0 1
110.618 710 26.6458
110.735 739 27.1846
110.851 678 26.0384
110.967 638 25.2587
111.083 638 25.2587
111.199 734 27.0924
111.316 775 27.8388
111.432 765 27.6586
111.549 780 27.9285
111.665 804 28.3549
111.782 819 28.6182
111.898 833 28.8617
112.015 801 28.3019
112.132 878 29.6311
112.248 851 29.1719
112.365 826 28.7402
112.482 833 28.8617
112.599 871 29.5127
112.716 823 28.688
112.832 917 30.282
112.949 901 30.0167
113.066 947 30.7734
113.183 886 29.7658
113.3 847 29.1033
113.417 909 30.1496
113.534 944 30.7246
113.652 877 29.6142
113.769 875 29.5804
113.886 886 29.7658
114.003 833 28.8617
114.12 908 30.133
114.238 874 29.5635
114.355 796 28.2135
114.472 734 27.0924
114.589 685 26.1725
114.707 727 26.9629
114.824 832 28.8444
114.942 814 28.5307
115.059 842 29.0172
115.176 833 28.8617
115.294 884 29.7321
115.411 833 28.8617
115.529 816 28.5657
115.646 856 29.2575
115.764 826 28.7402
115.881 869 29.4788
115.999 821 28.6531
116.116 827 28.7576
116.234 882 29.6985
116.351 929 30.4795
116.469 922 30.3645
116.586 941 30.6757
116.704 908 30.133
116.821 906 30.0998
116.939 949 30.8058
117.056 942 30.692
117.174 962 31.0161
117.291 967 31.0966
117.409 922 30.3645
117.526 880 29.6648
117.644 896 29.9333
117.761 923 30.3809
117.879 904 30.0666
117.996 796 28.2135
118.114 781 27.9464
118.231 698 26.4197
118.349 753 27.4408
118.466 843 29.0345
118.584 819 28.6182
118.701 849 29.1376
118.819 863 29.3769
118.936 856 29.2575
119.053 851 29.1719
119.171 833 28.8617
119.288 830 28.8097
119.405 816 28.5657
119.523 830 28.8097
119.64 779 27.9106
119.757 817 28.5832
119.875 863 29.3769
119.992 836 28.9137
120.109 834 28.8791
120.226 870 29.4958
120.343 870 29.4958
120.46 860 29.3258
120.578 901 30.0167
120.695 863 29.3769
120.812 780 27.9285
120.929 870 29.4958
121.046 838 28.9482
121.163 838 28.9482
121.279 877 29.6142
121.396 793 28.1603
121.513 781 27.9464
121.63 693 26.3249
121.747 672 25.923
121.863 575 23.9792
121.98 574 23.9583
122.097 591 24.3105
122.213 573 23.9374
122.33 585 24.1868
122.446 539 23.2164
122.563 534 23.1084
122.679 518 22.7596
122.795 521 22.8254
122.912 486 22.0454
123.028 526 22.9347
123.144 464 21.5407
123.26 493 22.2036
123.377 0 1
123.493 0 1
123.609 0 1
123.725 0 1
123.84 0 1
123.956 0 1
124.072 0 1
124.188 0 1
124.303 0 1
124.419 0 1
126.852 0 1
126.968 0 1
127.083 0 1
127.199 0 1
127.315 0 1
127.431 0 1
127.547 0 1
127.663 0 1
127.779 0 1
127.895 0 1
128.011 0 1
128.127 0 1
128.243 0 1
128.359 983 31.3528
128.476 935 30.5778
128.592 947 30.7734
128.708 1020 31.9374
128.825 1000 31.6228
128.941 965 31.0644
129.058 979 31.289
129.174 1016 31.8748
129.291 1047 32.3574
129.408 1082 32.8938
129.524 1087 32.9697
129.641 1180 34.3511
129.758 1157 34.0147
129.875 1209 34.7707
129.992 1120 33.4664
130.108 1212 34.8138
130.225 1225 35
130.342 1233 35.1141
130.459 1122 33.4963
130.576 1102 33.1964
130.693 1019 31.9218
130.81 1020 31.9374
130.928 985 31.3847
131.045 1056 32.4962
131.162 1112 33.3467
131.279 1118 33.4365
131.396 1118 33.4365
131.513 1182 34.3802
131.631 1126 33.5559
131.748 1136 33.7046
131.865 1057 32.5115
131.983 1168 34.176
132.1 1132 33.6452
132.217 1084 32.9242
132.335 1128 33.5857
132.452 1081 32.8786
132.57 1138 33.7343
132.687 1043 32.2955
132.804 1159 34.0441
132.922 1094 33.0757
133.039 1117 33.4215
133.157 1115 33.3916
133.274 1122 33.4963
133.392 1112 33.3467
133.509 1118 33.4365
133.627 1245 35.2846
133.744 1174 34.2637
133.862 1244 35.2704
133.979 1178 34.322
134.097 1179 34.3366
134.214 1228 35.0428
134.332 1132 33.6452
134.449 1117 33.4215
134.567 1191 34.5109
134.684 1225 35
134.802 1251 35.3695
134.919 1232 35.0999
135.037 1201 34.6554
135.154 1244 35.2704
135.272 1182 34.3802
135.389 1256 35.4401
135.507 1114 33.3766
135.624 1137 33.7194
135.742 1155 33.9853
135.859 1193 34.5398
135.977 1078 32.8329
136.094 1101 33.1813
136.211 1104 33.2265
136.329 1129 33.6006
136.446 1111 33.3317
136.564 1206 34.7275
136.681 1092 33.0454
136.798 1096 33.1059
136.915 1208 34.7563
137.033 1173 34.2491
137.15 1163 34.1028
137.267 1206 34.7275
137.384 1191 34.5109
137.502 1225 35
137.619 1170 34.2053
137.736 1079 32.8481
137.853 1110 33.3167
137.97 1106 33.2566
138.087 1022 31.9687
138.204 1119 33.4515
138.321 1141 33.7787
138.438 1131 33.6303
138.555 1175 34.2783
138.672 1101 33.1813
138.788 1158 34.0294
138.905 1046 32.3419
139.022 1062 32.5883
139.139 978 31.273
139.255 970 31.1448
139.372 932 30.5287
139.488 859 29.3087
139.605 880 29.6648
139.721 866 29.4279
139.838 799 28.2666
139.954 751 27.4044
140.071 723 26.8887
140.187 757 27.5136
140.303 761 27.5862
140.419 746 27.313
140.535 772 27.7849
140.652 774 27.8209
140.768 0 1
140.884 0 1
141 0 1
141.115 0 1
141.231 0 1
141.347 0 1
141.463 0 1
141.578 0 1
141.694 0 1
144.104 0 1
144.219 0 1
144.335 0 1
144.45 0 1
144.566 0 1
144.682 0 1
144.798 0 1
144.914 0 1
145.03 0 1
145.146 1165 34.1321
145.262 1149 33.8969
145.378 1120 33.4664
145.494 1139 33.7491
145.61 1130 33.6155
145.726 1226 35.0143
145.842 1166 34.1467
145.959 1242 35.242
146.075 1160 34.0588
146.192 1209 34.7707
146.308 1174 34.2637
146.425 1164 34.1174
146.541 1120 33.4664
146.658 999 31.607
146.774 938 30.6268
146.891 961 31
147.008 978 31.273
147.125 1090 33.0151
147.241 1110 33.3167
147.358 1095 33.0908
147.475 1140 33.7639
147.592 1144 33.8231
147.709 1126 33.5559
147.826 1182 34.3802
147.943 1182 34.3802
148.06 1149 33.8969
148.177 1136 33.7046
148.294 1190 34.4964
148.411 1161 34.0735
148.528 1190 34.4964
148.645 1136 33.7046
148.762 1189 34.4819
148.88 1144 33.8231
148.997 1157 34.0147
149.114 1255 35.426
149.231 1174 34.2637
149.349 1185 34.4238
149.466 1160 34.0588
149.583 1226 35.0143
149.701 1217 34.8855
149.818 1188 34.4674
149.935 1215 34.8569
150.053 1201 34.6554
150.17 1123 33.5112
150.287 1109 33.3017
150.405 969 31.1288
150.522 983 31.3528
150.64 909 30.1496
150.757 970 31.1448
150.875 1012 31.8119
150.992 986 31.4006
151.11 917 30.282
151.227 1008 31.749
151.344 943 30.7083
151.462 953 30.8707
151.579 942 30.692
151.697 934 30.5614
151.814 945 30.7409
151.932 962 31.0161
152.049 889 29.8161
152.167 914 30.2324
152.284 990 31.4643
152.402 1003 31.6702
152.519 879 29.6479
152.636 957 30.9354
152.754 1032 32.1248
152.871 999 31.607
152.989 996 31.5595
153.106 1108 33.2866
153.223 1093 33.0606
153.341 1081 32.8786
153.458 1029 32.078
153.575 1062 32.5883
153.693 1075 32.7872
153.81 1073 32.7567
153.927 1001 31.6386
154.044 1012 31.8119
154.162 967 31.0966
154.279 1019 31.9218
154.396 1016 31.8748
154.513 1072 32.7414
154.63 1047 32.3574
154.747 1060 32.5576
154.864 999 31.607
154.981 1005 31.7017
155.098 1002 31.6544
155.215 996 31.5595
155.332 886 29.7658
155.449 886 29.7658
155.566 828 28.775
155.683 795 28.1957
155.8 792 28.1425
155.917 742 27.2397
156.033 669 25.865
156.15 0 1
156.267 0 1
156.383 0 1
156.5 0 1
156.617 0 1
156.733 0 1
156.85 0 1
156.966 0 1
157.082 0 1
157.199 0 1
157.315 0 1
157.431 0 1
157.547 0 1
157.664 0 1
157.78 0 1
157.896 0 1
158.012 0 1
158.128 0 1
158.244 0 1
158.359 0 1
158.475 0 1
158.591 0 1
158.706 0 1
