
6.15755 0 1
6.2731 0 1
6.3887 0 1
6.50437 0 1
6.62009 0 1
6.73587 0 1
6.8517 0 1
6.96759 0 1
7.08353 0 1
7.19952 0 1
7.31557 0 1
7.43166 0 1
7.54781 0 1
7.664 0 1
7.78024 0 1
7.89653 0 1
8.01286 0 1
8.12924 0 1
8.24567 0 1
8.36213 0 1
8.47864 0 1
8.59519 0 1
8.71178 0 1
8.82841 0 1
8.94508 0 1
9.06179 0 1
9.17853 0 1
9.29531 0 1
9.41212 0 1
9.52897 0 1
9.64584 0 1
9.76276 0 1
9.8797 0 1
9.99667 0 1
10.1137 0 1
10.2307 0 1
10.3478 0 1
10.4648 0 1
10.5819 0 1
10.6991 0 1
10.8162 0 1
10.9334 0 1
11.0506 0 1
11.1678 0 1
11.285 0 1
11.4023 0 1
11.5196 0 1
11.6369 0 1
11.7542 0 1
11.8715 0 1
11.9888 0 1
12.1062 0 1
12.2235 0 1
12.3409 0 1
12.4582 0 1
12.5756 0 1
12.693 0 1
12.8104 0 1
12.9278 0 1
13.0452 0 1
13.1626 0 1
13.28 0 1
13.3974 0 1
13.5149 0 1
13.6323 0 1
13.7497 0 1
13.8671 0 1
13.9845 0 1
14.1019 0 1
14.2193 0 1
14.3367 0 1
14.4541 0 1
14.5714 0 1
14.6888 0 1
14.8062 0 1
14.9235 0 1
15.0408 0 0
15.1581 0 0
15.2755 1 1
15.3927 0 0
15.51 0 0
15.6273 0 0
15.7445 0 0
15.8617 0 0
15.9789 0 0
16.0961 0 0
16.2132 0 0
16.3304 0 0
16.4475 0 0
16.5646 0 0
16.6816 0 0
16.7986 0 0
16.9156 0 0
17.0326 0 0
17.1496 0 0
17.2665 0 0
17.3833 0 0
17.5002 0 0
17.617 0 0
17.7338 0 0
17.8505 0 0
17.9672 0 0
18.0839 0 0
18.2005 0 0
18.3171 0 0
18.4337 0 0
18.5502 0 0
18.6666 0 0
18.7831 0 0
18.8994 0 0
19.0158 0 0
19.1321 0 0
19.2483 0 0
19.3645 0 0
19.4806 0 0
19.5967 0 0
19.7128 0 0
19.8288 0 0
19.9447 0 0
20.0606 0 1
20.1764 0 1
20.2922 0 1
20.4079 0 1
20.5236 0 1
20.6392 0 1
20.7548 0 1
20.8702 0 1
23.3078 0 1
23.4233 0 1
23.539 0 1
23.6547 0 1
23.7704 0 1
23.8862 0 1
24.0021 0 1
24.118 0 1
24.234 0 1
24.35 0 1
24.4661 1148 33.8821
24.5822 1142 33.7935
24.6984 1100 33.1662
24.8146 1126 33.5559
24.9309 1041 32.2645
25.0472 1125 33.541
25.1636 1073 32.7567
25.28 1136 33.7046
25.3965 1054 32.4654
25.513 1066 32.6497
25.6296 1187 34.4529
25.7462 1222 34.9571
25.8628 1164 34.1174
25.9795 1235 35.1426
26.0962 1247 35.3129
26.213 1196 34.5832
26.3298 1185 34.4238
26.4466 1213 34.8281
26.5635 1158 34.0294
26.6804 1110 33.3167
26.7973 1147 33.8674
26.9143 1155 33.9853
27.0313 1215 34.8569
27.1483 1271 35.6511
27.2653 1324 36.3868
27.3824 1310 36.1939
27.4996 1284 35.8329
27.6167 1235 35.1426
27.7339 1221 34.9428
27.8511 1153 33.9559
27.9683 1176 34.2929
28.0855 1155 33.9853
28.2028 1181 34.3657
28.3201 1103 33.2114
28.4374 1100 33.1662
28.5547 1109 33.3017
28.6721 1007 31.7333
28.7894 1039 32.2335
28.9068 1116 33.4066
29.0242 1053 32.45
29.1416 1020 31.9374
29.259 1046 32.3419
29.3764 1097 33.121
29.4939 1077 32.8177
29.6113 1115 33.3916
29.7288 1150 33.9116
29.8463 1131 33.6303
29.9638 1094 33.0757
30.0812 1075 32.7872
30.1987 1120 33.4664
30.3162 1127 33.5708
30.4337 1083 32.909
30.5512 1159 34.0441
30.6687 1127 33.5708
30.7862 1155 33.9853
30.9037 1190 34.4964
31.0212 1167 34.1614
31.1387 1232 35.0999
31.2562 1179 34.3366
31.3737 1148 33.8821
31.4912 1173 34.2491
31.6087 1126 33.5559
31.7262 1100 33.1662
31.8436 1061 32.573
31.9611 1086 32.9545
32.0785 1073 32.7567
32.1959 976 31.241
32.3134 1004 31.686
32.4308 960 30.9839
32.5482 998 31.5911
32.6655 1039 32.2335
32.7829 1005 31.7017
32.9002 1057 32.5115
33.0176 1054 32.4654
33.1349 1063 32.6037
33.2522 1105 33.2415
33.3694 1125 33.541
33.4867 1155 33.9853
33.6039 1088 32.9848
33.7211 1120 33.4664
33.8383 1056 32.4962
33.9554 1060 32.5576
34.0725 1085 32.9393
34.1896 1138 33.7343
34.3067 1151 33.9264
34.4237 1198 34.6121
34.5407 1211 34.7994
34.6577 1115 33.3916
34.7746 1149 33.8969
34.8915 1148 33.8821
35.0084 1200 34.641
35.1252 1145 33.8378
35.242 1125 33.541
35.3587 1080 32.8634
35.4755 1062 32.5883
35.5921 1083 32.909
35.7088 1014 31.8434
35.8254 968 31.1127
35.9419 960 30.9839
36.0584 910 30.1662
36.1749 892 29.8664
36.2913 975 31.225
36.4077 988 31.4325
36.524 1007 31.7333
36.6403 996 31.5595
36.7565 1022 31.9687
36.8727 1054 32.4654
36.9889 1103 33.2114
37.1049 1036 32.187
37.221 0 1
37.3369 0 1
37.4529 0 1
37.5687 0 1
37.6845 0 1
37.8003 0 1
37.916 0 1
38.0316 0 1
38.1472 0 1
40.5851 0 1
40.7008 0 1
40.8164 0 1
40.9322 0 1
41.048 0 1
41.1639 0 1
41.2798 0 1
41.3958 0 1
41.5118 0 1
41.6279 0 1
41.744 709 26.6271
41.8602 787 28.0535
41.9765 844 29.0517
42.0928 889 29.8161
42.2091 931 30.5123
42.3255 876 29.5973
42.4419 875 29.5804
42.5584 832 28.8444
42.675 829 28.7924
42.7915 800 28.2843
42.9081 824 28.7054
43.0248 878 29.6311
43.1415 886 29.7658
43.2582 879 29.6479
43.375 884 29.7321
43.4918 852 29.189
43.6087 903 30.05
43.7256 818 28.6007
43.8425 855 29.2404
43.9595 848 29.1204
44.0765 817 28.5832
44.1935 801 28.3019
44.3106 728 26.9815
44.4277 737 27.1477
44.5448 691 26.2869
44.6619 672 25.923
44.7791 562 23.7065
44.8963 562 23.7065
45.0136 589 24.2693
45.1308 547 23.388
45.2481 587 24.2281
45.3654 592 24.3311
45.4827 612 24.7386
45.6001 652 25.5343
45.7174 640 25.2982
45.8348 679 26.0576
45.9522 619 24.8797
46.0697 590 24.2899
46.1871 631 25.1197
46.3046 586 24.2074
46.422 623 24.96
46.5395 610 24.6982
46.657 560 23.6643
46.7745 616 24.8193
46.892 636 25.219
47.0096 618 24.8596
47.1271 650 25.4951
47.2446 619 24.8797
47.3622 617 24.8395
47.4797 623 24.96
47.5973 595 24.3926
47.7149 566 23.7908
47.8324 528 22.9783
47.95 528 22.9783
48.0675 458 21.4009
48.1851 430 20.7364
48.3027 393 19.8242
48.4202 397 19.9249
48.5378 428 20.6882
48.6554 458 21.4009
48.7729 386 19.6469
48.8904 477 21.8403
49.008 425 20.6155
49.1255 448 21.166
49.243 525 22.9129
49.3605 503 22.4277
49.478 495 22.2486
49.5955 476 21.8174
49.713 483 21.9773
49.8304 490 22.1359
49.9479 496 22.2711
50.0653 500 22.3607
50.1827 532 23.0651
50.3001 583 24.1454
50.4175 600 24.4949
50.5348 587 24.2281
50.6521 647 25.4362
50.7694 607 24.6374
50.8867 657 25.632
51.004 637 25.2389
51.1212 613 24.7588
51.2384 669 25.865
51.3556 670 25.8844
51.4727 653 25.5539
51.5899 642 25.3377
51.707 562 23.7065
51.824 574 23.9583
51.9411 568 23.8328
52.0581 561 23.6854
52.175 593 24.3516
52.2919 646 25.4165
52.4088 686 26.1916
52.5257 682 26.1151
52.6425 692 26.3059
52.7593 774 27.8209
52.876 784 28
52.9927 778 27.8927
53.1094 859 29.3087
53.226 797 28.2312
53.3426 877 29.6142
53.4591 788 28.0713
53.5756 797 28.2312
53.692 882 29.6985
53.8084 913 30.2159
53.9248 852 29.189
54.0411 971 31.1609
54.1573 1032 32.1248
54.2735 0 1
54.3896 0 1
54.5057 0 1
54.6217 0 1
54.7377 0 1
54.8537 0 1
54.9695 0 1
55.0853 0 1
55.2011 0 1
55.3168 0 1
55.4324 0 1
57.824 0 1
57.9396 0 1
58.0553 0 1
58.1711 0 1
58.2869 0 1
58.4028 0 1
58.5187 0 1
58.6347 0 1
58.7508 0 1
58.8669 0 1
58.983 989 31.4484
59.0992 1058 32.5269
59.2155 1152 33.9411
59.3318 1112 33.3467
59.4482 1187 34.4529
59.5646 1171 34.2199
59.681 1176 34.2929
59.7975 1088 32.9848
59.9141 1133 33.6601
60.0306 1027 32.0468
60.1473 995 31.5436
60.2639 926 30.4302
60.3807 852 29.189
60.4974 785 28.0179
60.6142 763 27.6225
60.731 796 28.2135
60.8479 817 28.5832
60.9648 791 28.1247
61.0818 880 29.6648
61.1987 924 30.3974
61.3158 908 30.133
61.4328 964 31.0483
61.5499 972 31.1769
61.667 942 30.692
61.7841 959 30.9677
61.9013 936 30.5941
62.0185 967 31.0966
62.1357 933 30.545
62.253 959 30.9677
62.3702 993 31.5119
62.4875 1040 32.249
62.6049 1068 32.6803
62.7222 1079 32.8481
62.8396 1144 33.8231
62.9569 1156 34
63.0743 1097 33.121
63.1918 1108 33.2866
63.3092 1140 33.7639
63.4267 1120 33.4664
63.5441 1015 31.8591
63.6616 1004 31.686
63.7791 918 30.2985
63.8966 838 28.9482
64.0142 760 27.5681
64.1317 775 27.8388
64.2492 751 27.4044
64.3668 861 29.3428
64.4843 850 29.1548
64.6019 864 29.3939
64.7195 945 30.7409
64.837 933 30.545
64.9546 1003 31.6702
65.0722 970 31.1448
65.1898 994 31.5278
65.3074 967 31.0966
65.4249 959 30.9677
65.5425 895 29.9166
65.6601 980 31.305
65.7777 887 29.7825
65.8952 962 31.0161
66.0128 962 31.0161
66.1304 1017 31.8904
66.2479 1041 32.2645
66.3655 1166 34.1467
66.483 1093 33.0606
66.6005 1105 33.2415
66.718 1070 32.7109
66.8355 1058 32.5269
66.953 1043 32.2955
67.0705 995 31.5436
67.1879 978 31.273
67.3054 870 29.4958
67.4228 852 29.189
67.5402 778 27.8927
67.6576 742 27.2397
67.7749 710 26.6458
67.8923 701 26.4764
68.0096 731 27.037
68.1269 757 27.5136
68.2442 821 28.6531
68.3614 933 30.545
68.4787 881 29.6816
68.5958 870 29.4958
68.713 960 30.9839
68.8302 911 30.1828
68.9473 889 29.8161
69.0643 934 30.5614
69.1814 856 29.2575
69.2984 855 29.2404
69.4154 843 29.0345
69.5323 905 30.0832
69.6492 963 31.0322
69.7661 1015 31.8591
69.8829 1052 32.4345
69.9997 1050 32.4037
70.1165 1079 32.8481
70.2332 1112 33.3467
70.3499 1029 32.078
70.4665 1064 32.619
70.5831 1078 32.8329
70.6996 1037 32.2025
70.8161 952 30.8545
70.9326 883 29.7153
71.049 844 29.0517
71.1653 819 28.6182
71.2817 726 26.9444
71.3979 658 25.6515
71.5141 677 26.0192
71.6303 660 25.6905
71.7464 690 26.2679
71.8624 0 1
71.9784 0 1
72.0944 0 1
72.2102 0 1
72.3261 0 1
72.4418 0 1
72.5575 0 1
72.6732 0 1
75.1054 0 1
75.2209 0 1
75.3365 0 1
75.4521 0 1
75.5678 0 1
75.6835 0 1
75.7993 0 1
75.9151 0 1
76.031 0 1
76.147 890 29.8329
76.263 960 30.9839
76.3791 822 28.6705
76.4952 845 29.0689
76.6113 749 27.3679
76.7276 691 26.2869
76.8438 751 27.4044
76.9601 734 27.0924
77.0765 796 28.2135
77.1929 833 28.8617
77.3093 983 31.3528
77.4258 962 31.0161
77.5423 984 31.3688
77.6589 958 30.9516
77.7755 922 30.3645
77.8921 919 30.315
78.0088 924 30.3974
78.1256 901 30.0167
78.2423 874 29.5635
78.3591 877 29.6142
78.4759 880 29.6648
78.5928 922 30.3645
78.7097 990 31.4643
78.8266 970 31.1448
78.9436 1106 33.2566
79.0606 1082 32.8938
79.1776 1131 33.6303
79.2946 1143 33.8083
79.4117 1146 33.8526
79.5288 1104 33.2265
79.6459 1088 32.9848
79.7631 946 30.7571
79.8802 942 30.692
79.9974 862 29.3598
80.1147 763 27.6225
80.2319 691 26.2869
80.3491 665 25.7876
80.4664 615 24.7992
80.5837 661 25.7099
80.701 698 26.4197
80.8183 777 27.8747
80.9357 789 28.0891
81.053 798 28.2489
81.1704 906 30.0998
81.2877 826 28.7402
81.4051 796 28.2135
81.5225 821 28.6531
81.6399 824 28.7054
81.7573 765 27.6586
81.8747 759 27.55
81.9922 715 26.7395
82.1096 756 27.4955
82.227 817 28.5832
82.3444 898 29.9666
82.4619 906 30.0998
82.5793 952 30.8545
82.6967 895 29.9166
82.8142 934 30.5614
82.9316 964 31.0483
83.049 990 31.4643
83.1664 899 29.9833
83.2838 873 29.5466
83.4012 841 29
83.5186 718 26.7955
83.636 701 26.4764
83.7534 674 25.9615
83.8708 572 23.9165
83.9881 558 23.622
84.1055 548 23.4094
84.2228 595 24.3926
84.3401 612 24.7386
84.4575 687 26.2107
84.5747 737 27.1477
84.692 838 28.9482
84.8093 758 27.5318
84.9265 787 28.0535
85.0437 704 26.533
85.1609 683 26.1343
85.2781 688 26.2298
85.3952 676 26
85.5123 719 26.8142
85.6294 740 27.2029
85.7465 770 27.7489
85.8636 868 29.4618
85.9806 893 29.8831
86.0976 963 31.0322
86.2145 973 31.1929
86.3315 1038 32.218
86.4484 946 30.7571
86.5652 1034 32.1559
86.682 1070 32.7109
86.7988 999 31.607
86.9156 961 31
87.0323 872 29.5296
87.149 838 28.9482
87.2657 773 27.8029
87.3823 718 26.7955
87.4988 648 25.4558
87.6154 653 25.5539
87.7318 716 26.7582
87.8483 767 27.6948
87.9647 835 28.8964
88.081 913 30.2159
88.1973 986 31.4006
88.3136 995 31.5436
88.4298 997 31.5753
88.546 972 31.1769
88.6621 880 29.6648
88.7781 905 30.0832
88.8942 0 1
89.0101 0 1
89.126 0 1
89.2419 0 1
89.3577 0 1
89.4734 0 1
89.5891 0 1
89.7047 0 1
89.8203 0 1
89.9358 0 1
92.3269 0 1
92.4424 0 1
92.558 0 1
92.6736 0 1
92.7893 0 1
92.905 0 1
93.0208 0 1
93.1366 0 1
93.2525 0 1
93.3685 0 1
93.4845 0 1
93.6005 915 30.249
93.7167 985 31.3847
93.8328 909 30.1496
93.949 982 31.3369
94.0653 860 29.3258
94.1816 926 30.4302
94.2979 862 29.3598
94.4143 848 29.1204
94.5307 907 30.1164
94.6472 871 29.5127
94.7637 889 29.8161
94.8803 971 31.1609
94.9969 1029 32.078
95.1135 1023 31.9844
95.2302 1050 32.4037
95.3469 1180 34.3511
95.4637 1147 33.8674
95.5805 1210 34.7851
95.6973 1151 33.9264
95.8142 1098 33.1361
95.9311 1104 33.2265
96.048 1092 33.0454
96.1649 1026 32.0312
96.2819 1001 31.6386
96.3989 936 30.5941
96.516 774 27.8209
96.633 753 27.4408
96.7501 726 26.9444
96.8673 754 27.4591
96.9844 819 28.6182
97.1016 832 28.8444
97.2188 883 29.7153
97.336 1035 32.1714
97.4532 975 31.225
97.5704 967 31.0966
97.6877 1008 31.749
97.805 950 30.8221
97.9223 871 29.5127
98.0396 839 28.9655
98.1569 858 29.2916
98.2743 791 28.1247
98.3916 906 30.0998
98.509 905 30.0832
98.6264 1003 31.6702
98.7438 1096 33.1059
98.8612 1120 33.4664
98.9786 1140 33.7639
99.096 1138 33.7343
99.2134 1136 33.7046
99.3308 1184 34.4093
99.4482 1188 34.4674
99.5656 1088 32.9848
99.6831 1052 32.4345
99.8005 1011 31.7962
99.9179 958 30.9516
100.035 873 29.5466
100.153 802 28.3196
100.27 711 26.6646
100.388 735 27.1109
100.505 782 27.9643
100.622 836 28.9137
100.74 911 30.1828
100.857 933 30.545
100.975 1023 31.9844
101.092 1012 31.8119
101.209 933 30.545
101.327 908 30.133
101.444 881 29.6816
101.561 841 29
101.679 875 29.5804
101.796 832 28.8444
101.913 902 30.0333
102.03 956 30.9192
102.148 1049 32.3883
102.265 1088 32.9848
102.382 1232 35.0999
102.499 1165 34.1321
102.616 1210 34.7851
102.733 1254 35.4119
102.851 1226 35.0143
102.968 1211 34.7994
103.085 1142 33.7935
103.202 1172 34.2345
103.319 1130 33.6155
103.436 1032 32.1248
103.552 934 30.5614
103.669 855 29.2404
103.786 835 28.8964
103.903 859 29.3087
104.02 859 29.3087
104.137 972 31.1769
104.253 982 31.3369
104.37 1101 33.1813
104.487 1080 32.8634
104.603 1054 32.4654
104.72 1057 32.5115
104.836 993 31.5119
104.953 937 30.6105
105.069 916 30.2655
105.186 954 30.8869
105.302 965 31.0644
105.418 1020 31.9374
105.535 1160 34.0588
105.651 1165 34.1321
105.767 1239 35.1994
105.883 1318 36.3043
105.999 1320 36.3318
106.115 0 1
106.231 0 1
106.347 0 1
106.463 0 1
106.579 0 1
106.694 0 1
106.81 0 1
106.926 0 1
107.041 0 1
107.157 0 1
109.576 0 1
109.692 0 1
109.807 0 1
109.923 0 1
110.039 0 1
110.155 0 1
110.27 0 1
110.386 0 1
110.502 0 1
110.618 1084 32.9242
110.735 1093 33.0606
110.851 1272 35.6651
110.967 1322 36.3593
111.083 1221 34.9428
111.199 1239 35.1994
111.316 1319 36.318
111.432 1316 36.2767
111.549 1280 35.7771
111.665 1212 34.8138
111.782 1194 34.5543
111.898 1170 34.2053
112.015 1028 32.0624
112.132 987 31.4166
112.248 893 29.8831
112.365 857 29.2746
112.482 844 29.0517
112.599 883 29.7153
112.716 952 30.8545
112.832 1027 32.0468
112.949 1011 31.7962
113.066 1066 32.6497
113.183 1056 32.4962
113.3 989 31.4484
113.417 933 30.545
113.534 921 30.348
113.652 905 30.0832
113.769 980 31.305
113.886 910 30.1662
114.003 943 30.7083
114.12 1081 32.8786
114.238 1170 34.2053
114.355 1218 34.8999
114.472 1230 35.0714
114.589 1278 35.7491
114.707 1219 34.9142
114.824 1297 36.0139
114.942 1210 34.7851
115.059 1237 35.171
115.176 1182 34.3802
115.294 1189 34.4819
115.411 1110 33.3167
115.529 1073 32.7567
115.646 1015 31.8591
115.764 948 30.7896
115.881 797 28.2312
115.999 944 30.7246
116.116 918 30.2985
116.234 950 30.8221
116.351 1024 32
116.469 1048 32.3728
116.586 1034 32.1559
116.704 1057 32.5115
116.821 983 31.3528
116.939 1034 32.1559
117.056 1021 31.9531
117.174 966 31.0805
117.291 999 31.607
117.409 985 31.3847
117.526 1032 32.1248
117.644 1034 32.1559
117.761 1131 33.6303
117.879 1244 35.2704
117.996 1253 35.3977
118.114 1270 35.6371
118.231 1333 36.5103
118.349 1389 37.2693
118.466 1281 35.7911
118.584 1339 36.5923
118.701 1308 36.1663
118.819 1299 36.0416
118.936 1173 34.2491
119.053 1177 34.3074
119.171 1125 33.541
119.288 1020 31.9374
119.405 948 30.7896
119.523 936 30.5941
119.64 940 30.6594
119.757 967 31.0966
119.875 996 31.5595
119.992 1093 33.0606
120.109 1009 31.7648
120.226 1114 33.3766
120.343 990 31.4643
120.46 1053 32.45
120.578 1002 31.6544
120.695 950 30.8221
120.812 910 30.1662
120.929 983 31.3528
121.046 961 31
121.163 1057 32.5115
121.279 1056 32.4962
121.396 1107 33.2716
121.513 1245 35.2846
121.63 1339 36.5923
121.747 1173 34.2491
121.863 1261 35.5106
121.98 1348 36.7151
122.097 1231 35.0856
122.213 1300 36.0555
122.33 1256 35.4401
122.446 1301 36.0694
122.563 1220 34.9285
122.679 1141 33.7787
122.795 1154 33.9706
122.912 1103 33.2114
123.028 1084 32.9242
123.144 997 31.5753
123.26 897 29.95
123.377 0 1
123.493 0 1
123.609 0 1
123.725 0 1
123.84 0 1
123.956 0 1
124.072 0 1
124.188 0 1
124.303 0 1
124.419 0 1
126.852 0 1
126.968 0 1
127.083 0 1
127.199 0 1
127.315 0 1
127.431 0 1
127.547 0 1
127.663 0 1
127.779 0 1
127.895 0 1
128.011 0 1
128.127 0 1
128.243 0 1
128.359 1122 33.4963
128.476 1027 32.0468
128.592 1011 31.7962
128.708 1072 32.7414
128.825 1102 33.1964
128.941 1172 34.2345
129.058 1173 34.2491
129.174 1106 33.2566
129.291 1186 34.4384
129.408 1079 32.8481
129.524 1069 32.6956
129.641 1112 33.3467
129.758 1094 33.0757
129.875 1069 32.6956
129.992 1073 32.7567
130.108 1155 33.9853
130.225 1191 34.5109
130.342 1215 34.8569
130.459 1278 35.7491
130.576 1329 36.4555
130.693 1347 36.7015
130.81 1365 36.9459
130.928 1340 36.606
131.045 1401 37.4299
131.162 1308 36.1663
131.279 1362 36.9053
131.396 1354 36.7967
131.513 1293 35.9583
131.631 1303 36.0971
131.748 1229 35.0571
131.865 1124 33.5261
131.983 1085 32.9393
132.1 991 31.4802
132.217 1069 32.6956
132.335 1080 32.8634
132.452 1205 34.7131
132.57 1179 34.3366
132.687 1182 34.3802
132.804 1181 34.3657
132.922 1141 33.7787
133.039 1107 33.2716
133.157 1134 33.6749
133.274 1130 33.6155
133.392 1054 32.4654
133.509 1074 32.7719
133.627 1078 32.8329
133.744 1103 33.2114
133.862 1302 36.0832
133.979 1366 36.9594
134.097 1384 37.2022
134.214 1319 36.318
134.332 1346 36.6879
134.449 1312 36.2215
134.567 1332 36.4966
134.684 1389 37.2693
134.802 1406 37.4967
134.919 1300 36.0555
135.037 1363 36.9188
135.154 1271 35.6511
135.272 1199 34.6266
135.389 1196 34.5832
135.507 1077 32.8177
135.624 1111 33.3317
135.742 1116 33.4066
135.859 1179 34.3366
135.977 1176 34.2929
136.094 1272 35.6651
136.211 1206 34.7275
136.329 1145 33.8378
136.446 1099 33.1512
136.564 1148 33.8821
136.681 1133 33.6601
136.798 1124 33.5261
136.915 1068 32.6803
137.033 1128 33.5857
137.15 1106 33.2566
137.267 1088 32.9848
137.384 1173 34.2491
137.502 1201 34.6554
137.619 1284 35.8329
137.736 1338 36.5787
137.853 1298 36.0278
137.97 1324 36.3868
138.087 1371 37.027
138.204 1323 36.3731
138.321 1363 36.9188
138.438 1339 36.5923
138.555 1304 36.1109
138.672 1341 36.6197
138.788 1290 35.9166
138.905 1221 34.9428
139.022 1174 34.2637
139.139 1142 33.7935
139.255 1075 32.7872
139.372 1185 34.4238
139.488 1197 34.5977
139.605 1151 33.9264
139.721 1150 33.9116
139.838 1210 34.7851
139.954 1174 34.2637
140.071 1162 34.0881
140.187 1188 34.4674
140.303 1180 34.3511
140.419 1123 33.5112
140.535 1078 32.8329
140.652 1060 32.5576
140.768 0 1
140.884 0 1
141 0 1
141.115 0 1
141.231 0 1
141.347 0 1
141.463 0 1
141.578 0 1
141.694 0 1
144.104 0 1
144.219 0 1
144.335 0 1
144.45 0 1
144.566 0 1
144.682 0 1
144.798 0 1
144.914 0 1
145.03 0 1
145.146 875 29.5804
145.262 881 29.6816
145.378 886 29.7658
145.494 876 29.5973
145.61 886 29.7658
145.726 931 30.5123
145.842 848 29.1204
145.959 936 30.5941
146.075 946 30.7571
146.192 937 30.6105
146.308 947 30.7734
146.425 975 31.225
146.541 1000 31.6228
146.658 1052 32.4345
146.774 1055 32.4808
146.891 1080 32.8634
147.008 1048 32.3728
147.125 1099 33.1512
147.241 1034 32.1559
147.358 1132 33.6452
147.475 1068 32.6803
147.592 1030 32.0936
147.709 1048 32.3728
147.826 1054 32.4654
147.943 926 30.4302
148.06 964 31.0483
148.177 887 29.7825
148.294 959 30.9677
148.411 953 30.8707
148.528 1018 31.9061
148.645 959 30.9677
148.762 1008 31.749
148.88 1010 31.7805
148.997 968 31.1127
149.114 1015 31.8591
149.231 916 30.2655
149.349 912 30.1993
149.466 930 30.4959
149.583 914 30.2324
149.701 968 31.1127
149.818 896 29.9333
149.935 993 31.5119
150.053 946 30.7571
150.17 953 30.8707
150.287 1030 32.0936
150.405 1047 32.3574
150.522 1021 31.9531
150.64 1084 32.9242
150.757 1122 33.4963
150.875 1032 32.1248
150.992 1060 32.5576
151.11 1093 33.0606
151.227 1121 33.4813
151.344 1080 32.8634
151.462 1062 32.5883
151.579 1066 32.6497
151.697 1009 31.7648
151.814 943 30.7083
151.932 962 31.0161
152.049 1018 31.9061
152.167 1033 32.1403
152.284 1032 32.1248
152.402 1032 32.1248
152.519 1048 32.3728
152.636 1021 31.9531
152.754 975 31.225
152.871 1008 31.749
152.989 1001 31.6386
153.106 1000 31.6228
153.223 968 31.1127
153.341 982 31.3369
153.458 1017 31.8904
153.575 1009 31.7648
153.693 986 31.4006
153.81 976 31.241
153.927 1122 33.4963
154.044 1051 32.4191
154.162 1167 34.1614
154.279 1138 33.7343
154.396 1174 34.2637
154.513 1165 34.1321
154.63 1214 34.8425
154.747 1292 35.9444
154.864 1233 35.1141
154.981 1211 34.7994
155.098 1142 33.7935
155.215 1137 33.7194
155.332 1126 33.5559
155.449 1086 32.9545
155.566 1168 34.176
155.683 1191 34.5109
155.8 1090 33.0151
155.917 1168 34.176
156.033 1133 33.6601
156.15 0 1
156.267 0 1
156.383 0 1
156.5 0 1
156.617 0 1
156.733 0 1
156.85 0 1
156.966 0 1
157.082 0 1
157.199 0 1
157.315 0 1
157.431 0 1
157.547 0 1
157.664 0 1
157.78 0 1
157.896 0 1
158.012 0 1
158.128 0 1
158.244 0 1
158.359 0 1
158.475 0 1
158.591 0 1
158.706 0 1
