
6.15755 0 1
6.2731 0 1
6.3887 0 1
6.50437 0 1
6.62009 0 1
6.73587 0 1
6.8517 0 1
6.96759 0 1
7.08353 0 1
7.19952 0 1
7.31557 0 1
7.43166 0 1
7.54781 0 1
7.664 0 1
7.78024 0 1
7.89653 0 1
8.01286 0 1
8.12924 0 1
8.24567 0 1
8.36213 0 1
8.47864 0 1
8.59519 0 1
8.71178 0 1
8.82841 0 1
8.94508 0 1
9.06179 0 1
9.17853 0 1
9.29531 0 1
9.41212 0 1
9.52897 0 1
9.64584 0 1
9.76276 0 1
9.8797 0 1
9.99667 0 1
10.1137 0 1
10.2307 0 1
10.3478 0 1
10.4648 0 1
10.5819 0 1
10.6991 0 1
10.8162 0 1
10.9334 0 1
11.0506 0 1
11.1678 0 1
11.285 0 1
11.4023 0 1
11.5196 0 1
11.6369 0 1
11.7542 0 1
11.8715 0 1
11.9888 0 1
12.1062 0 1
12.2235 0 1
12.3409 0 1
12.4582 0 1
12.5756 0 1
12.693 0 1
12.8104 0 1
12.9278 0 1
13.0452 0 1
13.1626 0 1
13.28 0 1
13.3974 0 1
13.5149 0 1
13.6323 0 1
13.7497 0 1
13.8671 0 1
13.9845 0 1
14.1019 0 1
14.2193 0 1
14.3367 0 1
14.4541 0 1
14.5714 0 1
14.6888 0 1
14.8062 0 1
14.9235 0 1
15.0408 0 0
15.1581 0 0
15.2755 0 0
15.3927 0 0
15.51 0 0
15.6273 0 0
15.7445 0 0
15.8617 0 0
15.9789 0 0
16.0961 0 0
16.2132 0 0
16.3304 0 0
16.4475 0 0
16.5646 0 0
16.6816 0 0
16.7986 0 0
16.9156 0 0
17.0326 0 0
17.1496 0 0
17.2665 0 0
17.3833 0 0
17.5002 0 0
17.617 0 0
17.7338 0 0
17.8505 0 0
17.9672 0 0
18.0839 0 0
18.2005 0 0
18.3171 0 0
18.4337 0 0
18.5502 0 0
18.6666 0 0
18.7831 0 0
18.8994 0 0
19.0158 0 0
19.1321 0 0
19.2483 0 0
19.3645 0 0
19.4806 0 0
19.5967 0 0
19.7128 0 0
19.8288 0 0
19.9447 0 0
20.0606 0 1
20.1764 0 1
20.2922 0 1
20.4079 0 1
20.5236 0 1
20.6392 0 1
20.7548 0 1
20.8702 0 1
23.3078 0 1
23.4233 0 1
23.539 0 1
23.6547 0 1
23.7704 0 1
23.8862 0 1
24.0021 0 1
24.118 0 1
24.234 0 1
24.35 0 1
24.4661 710 26.6458
24.5822 721 26.8514
24.6984 729 27
24.8146 706 26.5707
24.9309 748 27.3496
25.0472 700 26.4575
25.1636 741 27.2213
25.28 711 26.6646
25.3965 765 27.6586
25.513 786 28.0357
25.6296 793 28.1603
25.7462 760 27.5681
25.8628 764 27.6405
25.9795 805 28.3725
26.0962 779 27.9106
26.213 793 28.1603
26.3298 777 27.8747
26.4466 750 27.3861
26.5635 734 27.0924
26.6804 779 27.9106
26.7973 690 26.2679
26.9143 690 26.2679
27.0313 643 25.3574
27.1483 659 25.671
27.2653 687 26.2107
27.3824 699 26.4386
27.4996 692 26.3059
27.6167 674 25.9615
27.7339 686 26.1916
27.8511 662 25.7294
27.9683 628 25.0599
28.0855 663 25.7488
28.2028 656 25.6125
28.3201 694 26.3439
28.4374 687 26.2107
28.5547 726 26.9444
28.6721 697 26.4008
28.7894 761 27.5862
28.9068 745 27.2947
29.0242 656 25.6125
29.1416 767 27.6948
29.259 718 26.7955
29.3764 714 26.7208
29.4939 700 26.4575
29.6113 742 27.2397
29.7288 717 26.7769
29.8463 727 26.9629
29.9638 766 27.6767
30.0812 739 27.1846
30.1987 700 26.4575
30.3162 686 26.1916
30.4337 644 25.3772
30.5512 618 24.8596
30.6687 619 24.8797
30.7862 661 25.7099
30.9037 583 24.1454
31.0212 687 26.2107
31.1387 693 26.3249
31.2562 626 25.02
31.3737 616 24.8193
31.4912 626 25.02
31.6087 637 25.2389
31.7262 668 25.8457
31.8436 662 25.7294
31.9611 607 24.6374
32.0785 690 26.2679
32.1959 655 25.593
32.3134 665 25.7876
32.4308 680 26.0768
32.5482 728 26.9815
32.6655 754 27.4591
32.7829 704 26.533
32.9002 703 26.5141
33.0176 711 26.6646
33.1349 703 26.5141
33.2522 685 26.1725
33.3694 715 26.7395
33.4867 721 26.8514
33.6039 756 27.4955
33.7211 712 26.6833
33.8383 661 25.7099
33.9554 641 25.318
34.0725 619 24.8797
34.1896 609 24.6779
34.3067 525 22.9129
34.4237 587 24.2281
34.5407 595 24.3926
34.6577 643 25.3574
34.7746 652 25.5343
34.8915 661 25.7099
35.0084 640 25.2982
35.1252 619 24.8797
35.242 616 24.8193
35.3587 609 24.6779
35.4755 615 24.7992
35.5921 630 25.0998
35.7088 609 24.6779
35.8254 689 26.2488
35.9419 669 25.865
36.0584 658 25.6515
36.1749 676 26
36.2913 701 26.4764
36.4077 672 25.923
36.524 709 26.6271
36.6403 668 25.8457
36.7565 645 25.3969
36.8727 667 25.8263
36.9889 700 26.4575
37.1049 687 26.2107
37.221 0 1
37.3369 0 1
37.4529 0 1
37.5687 0 1
37.6845 0 1
37.8003 0 1
37.916 0 1
38.0316 0 1
38.1472 0 1
40.5851 0 1
40.7008 0 1
40.8164 0 1
40.9322 0 1
41.048 0 1
41.1639 0 1
41.2798 0 1
41.3958 0 1
41.5118 0 1
41.6279 0 1
41.744 558 23.622
41.8602 585 24.1868
41.9765 556 23.5797
42.0928 591 24.3105
42.2091 606 24.6171
42.3255 567 23.8118
42.4419 568 23.8328
42.5584 570 23.8747
42.675 614 24.779
42.7915 586 24.2074
42.9081 541 23.2594
43.0248 535 23.1301
43.1415 485 22.0227
43.2582 477 21.8403
43.375 520 22.8035
43.4918 520 22.8035
43.6087 558 23.622
43.7256 566 23.7908
43.8425 531 23.0434
43.9595 519 22.7816
44.0765 507 22.5167
44.1935 532 23.0651
44.3106 513 22.6495
44.4277 485 22.0227
44.5448 540 23.2379
44.6619 492 22.1811
44.7791 480 21.9089
44.8963 512 22.6274
45.0136 500 22.3607
45.1308 484 22
45.2481 507 22.5167
45.3654 490 22.1359
45.4827 478 21.8632
45.6001 484 22
45.7174 484 22
45.8348 479 21.8861
45.9522 437 20.9045
46.0697 464 21.5407
46.1871 465 21.5639
46.3046 494 22.2261
46.422 451 21.2368
46.5395 440 20.9762
46.657 385 19.6214
46.7745 372 19.2873
46.892 393 19.8242
47.0096 394 19.8494
47.1271 433 20.8087
47.2446 408 20.199
47.3622 369 19.2094
47.4797 352 18.7617
47.5973 376 19.3907
47.7149 362 19.0263
47.8324 397 19.9249
47.95 381 19.5192
48.0675 351 18.735
48.1851 362 19.0263
48.3027 358 18.9209
48.4202 403 20.0749
48.5378 381 19.5192
48.6554 360 18.9737
48.7729 389 19.7231
48.8904 367 19.1572
49.008 401 20.025
49.1255 390 19.7484
49.243 402 20.0499
49.3605 401 20.025
49.478 349 18.6815
49.5955 396 19.8997
49.713 379 19.4679
49.8304 407 20.1742
49.9479 436 20.8806
50.0653 383 19.5704
50.1827 389 19.7231
50.3001 345 18.5742
50.4175 362 19.0263
50.5348 335 18.303
50.6521 383 19.5704
50.7694 406 20.1494
50.8867 348 18.6548
51.004 410 20.2485
51.1212 405 20.1246
51.2384 416 20.3961
51.3556 448 21.166
51.4727 471 21.7025
51.5899 477 21.8403
51.707 488 22.0907
51.824 473 21.7486
51.9411 508 22.5389
52.0581 508 22.5389
52.175 495 22.2486
52.2919 529 23
52.4088 477 21.8403
52.5257 547 23.388
52.6425 484 22
52.7593 514 22.6716
52.876 506 22.4944
52.9927 546 23.3666
53.1094 556 23.5797
53.226 499 22.3383
53.3426 526 22.9347
53.4591 550 23.4521
53.5756 541 23.2594
53.692 516 22.7156
53.8084 483 21.9773
53.9248 447 21.1424
54.0411 437 20.9045
54.1573 434 20.8327
54.2735 0 1
54.3896 0 1
54.5057 0 1
54.6217 0 1
54.7377 0 1
54.8537 0 1
54.9695 0 1
55.0853 0 1
55.2011 0 1
55.3168 0 1
55.4324 0 1
57.824 0 1
57.9396 0 1
58.0553 0 1
58.1711 0 1
58.2869 0 1
58.4028 0 1
58.5187 0 1
58.6347 0 1
58.7508 0 1
58.8669 0 1
58.983 506 22.4944
59.0992 503 22.4277
59.2155 553 23.516
59.3318 494 22.2261
59.4482 498 22.3159
59.5646 531 23.0434
59.681 561 23.6854
59.7975 557 23.6008
59.9141 510 22.5832
60.0306 571 23.8956
60.1473 577 24.0208
60.2639 585 24.1868
60.3807 612 24.7386
60.4974 535 23.1301
60.6142 542 23.2809
60.731 588 24.2487
60.8479 544 23.3238
60.9648 556 23.5797
61.0818 601 24.5153
61.1987 590 24.2899
61.3158 519 22.7816
61.4328 544 23.3238
61.5499 518 22.7596
61.667 533 23.0868
61.7841 493 22.2036
61.9013 508 22.5389
62.0185 535 23.1301
62.1357 555 23.5584
62.253 517 22.7376
62.3702 527 22.9565
62.4875 491 22.1585
62.6049 441 21
62.7222 434 20.8327
62.8396 425 20.6155
62.9569 456 21.3542
63.0743 465 21.5639
63.1918 461 21.4709
63.3092 499 22.3383
63.4267 516 22.7156
63.5441 468 21.6333
63.6616 496 22.2711
63.7791 528 22.9783
63.8966 506 22.4944
64.0142 522 22.8473
64.1317 478 21.8632
64.2492 527 22.9565
64.3668 464 21.5407
64.4843 483 21.9773
64.6019 476 21.8174
64.7195 492 22.1811
64.837 465 21.5639
64.9546 496 22.2711
65.0722 498 22.3159
65.1898 499 22.3383
65.3074 495 22.2486
65.4249 477 21.8403
65.5425 459 21.4243
65.6601 479 21.8861
65.7777 433 20.8087
65.8952 489 22.1133
66.0128 461 21.4709
66.1304 419 20.4695
66.2479 417 20.4206
66.3655 362 19.0263
66.483 375 19.3649
66.6005 415 20.3715
66.718 401 20.025
66.8355 416 20.3961
66.953 411 20.2731
67.0705 461 21.4709
67.1879 426 20.6398
67.3054 453 21.2838
67.4228 458 21.4009
67.5402 443 21.0476
67.6576 443 21.0476
67.7749 425 20.6155
67.8923 444 21.0713
68.0096 423 20.567
68.1269 408 20.199
68.2442 430 20.7364
68.3614 421 20.5183
68.4787 455 21.3307
68.5958 398 19.9499
68.713 426 20.6398
68.8302 462 21.4942
68.9473 424 20.5913
69.0643 427 20.664
69.1814 403 20.0749
69.2984 411 20.2731
69.4154 412 20.2978
69.5323 413 20.3224
69.6492 422 20.5426
69.7661 421 20.5183
69.8829 397 19.9249
69.9997 386 19.6469
70.1165 324 18
70.2332 347 18.6279
70.3499 383 19.5704
70.4665 347 18.6279
70.5831 352 18.7617
70.6996 395 19.8746
70.8161 356 18.868
70.9326 400 20
71.049 355 18.8414
71.1653 403 20.0749
71.2817 365 19.105
71.3979 349 18.6815
71.5141 409 20.2237
71.6303 365 19.105
71.7464 321 17.9165
71.8624 0 1
71.9784 0 1
72.0944 0 1
72.2102 0 1
72.3261 0 1
72.4418 0 1
72.5575 0 1
72.6732 0 1
75.1054 0 1
75.2209 0 1
75.3365 0 1
75.4521 0 1
75.5678 0 1
75.6835 0 1
75.7993 0 1
75.9151 0 1
76.031 0 1
76.147 282 16.7929
76.263 289 17
76.3791 324 18
76.4952 338 18.3848
76.6113 316 17.7764
76.7276 306 17.4929
76.8438 304 17.4356
76.9601 310 17.6068
77.0765 261 16.1555
77.1929 318 17.8326
77.3093 302 17.3781
77.4258 313 17.6918
77.5423 288 16.9706
77.6589 287 16.9411
77.7755 286 16.9115
77.8921 266 16.3095
78.0088 285 16.8819
78.1256 246 15.6844
78.2423 293 17.1172
78.3591 257 16.0312
78.4759 266 16.3095
78.5928 272 16.4924
78.7097 264 16.2481
78.8266 265 16.2788
78.9436 236 15.3623
79.0606 229 15.1327
79.1776 178 13.3417
79.2946 159 12.6095
79.4117 202 14.2127
79.5288 204 14.2829
79.6459 204 14.2829
79.7631 208 14.4222
79.8802 197 14.0357
79.9974 216 14.6969
80.1147 221 14.8661
80.2319 198 14.0712
80.3491 187 13.6748
80.4664 185 13.6015
80.5837 203 14.2478
80.701 210 14.4914
80.8183 201 14.1774
80.9357 163 12.7671
81.053 172 13.1149
81.1704 161 12.6886
81.2877 150 12.2474
81.4051 161 12.6886
81.5225 183 13.5277
81.6399 137 11.7047
81.7573 144 12
81.8747 132 11.4891
81.9922 147 12.1244
82.1096 150 12.2474
82.227 138 11.7473
82.3444 127 11.2694
82.4619 127 11.2694
82.5793 116 10.7703
82.6967 99 9.94987
82.8142 98 9.89949
82.9316 95 9.74679
83.049 118 10.8628
83.1664 94 9.69536
83.2838 88 9.38083
83.4012 77 8.77496
83.5186 80 8.94427
83.636 90 9.48683
83.7534 60 7.74597
83.8708 68 8.24621
83.9881 85 9.21954
84.1055 65 8.06226
84.2228 52 7.2111
84.3401 70 8.3666
84.4575 55 7.4162
84.5747 64 8
84.692 62 7.87401
84.8093 59 7.68115
84.9265 69 8.30662
85.0437 63 7.93725
85.1609 53 7.28011
85.2781 38 6.16441
85.3952 47 6.85565
85.5123 50 7.07107
85.6294 55 7.4162
85.7465 59 7.68115
85.8636 53 7.28011
85.9806 54 7.34847
86.0976 43 6.55744
86.2145 41 6.40312
86.3315 38 6.16441
86.4484 62 7.87401
86.5652 63 7.93725
86.682 69 8.30662
86.7988 65 8.06226
86.9156 67 8.18535
87.0323 72 8.48528
87.149 78 8.83176
87.2657 85 9.21954
87.3823 81 9
87.4988 95 9.74679
87.6154 88 9.38083
87.7318 99 9.94987
87.8483 106 10.2956
87.9647 96 9.79796
88.081 97 9.84886
88.1973 129 11.3578
88.3136 120 10.9545
88.4298 139 11.7898
88.546 134 11.5758
88.6621 121 11
88.7781 133 11.5326
88.8942 0 1
89.0101 0 1
89.126 0 1
89.2419 0 1
89.3577 0 1
89.4734 0 1
89.5891 0 1
89.7047 0 1
89.8203 0 1
89.9358 0 1
92.3269 0 1
92.4424 0 1
92.558 0 1
92.6736 0 1
92.7893 0 1
92.905 0 1
93.0208 0 1
93.1366 0 1
93.2525 0 1
93.3685 0 1
93.4845 0 1
93.6005 232 15.2315
93.7167 204 14.2829
93.8328 230 15.1658
93.949 198 14.0712
94.0653 217 14.7309
94.1816 177 13.3041
94.2979 183 13.5277
94.4143 180 13.4164
94.5307 161 12.6886
94.6472 165 12.8452
94.7637 173 13.1529
94.8803 169 13
94.9969 158 12.5698
95.1135 172 13.1149
95.2302 163 12.7671
95.3469 140 11.8322
95.4637 127 11.2694
95.5805 126 11.225
95.6973 142 11.9164
95.8142 185 13.6015
95.9311 190 13.784
96.048 197 14.0357
96.1649 211 14.5258
96.2819 184 13.5647
96.3989 213 14.5945
96.516 206 14.3527
96.633 237 15.3948
96.7501 241 15.5242
96.8673 236 15.3623
96.9844 215 14.6629
97.1016 233 15.2643
97.2188 249 15.7797
97.336 252 15.8745
97.4532 268 16.3707
97.5704 246 15.6844
97.6877 294 17.1464
97.805 268 16.3707
97.9223 274 16.5529
98.0396 312 17.6635
98.1569 302 17.3781
98.2743 270 16.4317
98.3916 292 17.088
98.509 301 17.3494
98.6264 307 17.5214
98.7438 306 17.4929
98.8612 319 17.8606
98.9786 297 17.2337
99.096 209 14.4568
99.2134 222 14.8997
99.3308 288 16.9706
99.4482 387 19.6723
99.5656 332 18.2209
99.6831 361 19
99.8005 348 18.6548
99.9179 364 19.0788
100.035 394 19.8494
100.153 393 19.8242
100.27 365 19.105
100.388 390 19.7484
100.505 426 20.6398
100.622 438 20.9284
100.74 450 21.2132
100.857 405 20.1246
100.975 424 20.5913
101.092 454 21.3073
101.209 423 20.567
101.327 441 21
101.444 415 20.3715
101.561 459 21.4243
101.679 431 20.7605
101.796 421 20.5183
101.913 457 21.3776
102.03 406 20.1494
102.148 411 20.2731
102.265 460 21.4476
102.382 404 20.0998
102.499 438 20.9284
102.616 313 17.6918
102.733 249 15.7797
102.851 372 19.2873
102.968 443 21.0476
103.085 457 21.3776
103.202 471 21.7025
103.319 479 21.8861
103.436 485 22.0227
103.552 450 21.2132
103.669 432 20.7846
103.786 466 21.587
103.903 439 20.9523
104.02 437 20.9045
104.137 467 21.6102
104.253 501 22.383
104.37 479 21.8861
104.487 457 21.3776
104.603 448 21.166
104.72 451 21.2368
104.836 434 20.8327
104.953 459 21.4243
105.069 455 21.3307
105.186 505 22.4722
105.302 470 21.6795
105.418 493 22.2036
105.535 485 22.0227
105.651 475 21.7945
105.767 477 21.8403
105.883 431 20.7605
105.999 450 21.2132
106.115 0 1
106.231 0 1
106.347 0 1
106.463 0 1
106.579 0 1
106.694 0 1
106.81 0 1
106.926 0 1
107.041 0 1
107.157 0 1
109.576 0 1
109.692 0 1
109.807 0 1
109.923 0 1
110.039 0 1
110.155 0 1
110.27 0 1
110.386 0 1
110.502 0 1
110.618 348 18.6548
110.735 375 19.3649
110.851 389 19.7231
110.967 349 18.6815
111.083 328 18.1108
111.199 294 17.1464
111.316 286 16.9115
111.432 305 17.4642
111.549 372 19.2873
111.665 337 18.3576
111.782 336 18.3303
111.898 317 17.8045
112.015 324 18
112.132 312 17.6635
112.248 328 18.1108
112.365 357 18.8944
112.482 345 18.5742
112.599 288 16.9706
112.716 299 17.2916
112.832 347 18.6279
112.949 280 16.7332
113.066 274 16.5529
113.183 279 16.7033
113.3 319 17.8606
113.417 278 16.6733
113.534 241 15.5242
113.652 275 16.5831
113.769 265 16.2788
113.886 254 15.9374
114.003 254 15.9374
114.12 282 16.7929
114.238 292 17.088
114.355 286 16.9115
114.472 272 16.4924
114.589 256 16
114.707 243 15.5885
114.824 223 14.9332
114.942 231 15.1987
115.059 209 14.4568
115.176 264 16.2481
115.294 245 15.6525
115.411 282 16.7929
115.529 246 15.6844
115.646 251 15.843
115.764 252 15.8745
115.881 288 16.9706
115.999 273 16.5227
116.116 274 16.5529
116.234 236 15.3623
116.351 237 15.3948
116.469 248 15.748
116.586 244 15.6205
116.704 241 15.5242
116.821 253 15.906
116.939 266 16.3095
117.056 249 15.7797
117.174 242 15.5563
117.291 266 16.3095
117.409 239 15.4596
117.526 229 15.1327
117.644 277 16.6433
117.761 225 15
117.879 255 15.9687
117.996 196 14
118.114 199 14.1067
118.231 171 13.0767
118.349 246 15.6844
118.466 266 16.3095
118.584 244 15.6205
118.701 238 15.4272
118.819 274 16.5529
118.936 273 16.5227
119.053 242 15.5563
119.171 259 16.0935
119.288 238 15.4272
119.405 289 17
119.523 288 16.9706
119.64 243 15.5885
119.757 276 16.6132
119.875 287 16.9411
119.992 223 14.9332
120.109 271 16.4621
120.226 244 15.6205
120.343 261 16.1555
120.46 274 16.5529
120.578 264 16.2481
120.695 286 16.9115
120.812 302 17.3781
120.929 300 17.3205
121.046 285 16.8819
121.163 255 15.9687
121.279 300 17.3205
121.396 260 16.1245
121.513 246 15.6844
121.63 228 15.0997
121.747 204 14.2829
121.863 209 14.4568
121.98 228 15.0997
122.097 241 15.5242
122.213 274 16.5529
122.33 281 16.7631
122.446 286 16.9115
122.563 275 16.5831
122.679 293 17.1172
122.795 303 17.4069
122.912 282 16.7929
123.028 323 17.9722
123.144 286 16.9115
123.26 306 17.4929
123.377 0 1
123.493 0 1
123.609 0 1
123.725 0 1
123.84 0 1
123.956 0 1
124.072 0 1
124.188 0 1
124.303 0 1
124.419 0 1
126.852 0 1
126.968 0 1
127.083 0 1
127.199 0 1
127.315 0 1
127.431 0 1
127.547 0 1
127.663 0 1
127.779 0 1
127.895 0 1
128.011 0 1
128.127 0 1
128.243 0 1
128.359 370 19.2354
128.476 385 19.6214
128.592 376 19.3907
128.708 345 18.5742
128.825 367 19.1572
128.941 354 18.8149
129.058 393 19.8242
129.174 369 19.2094
129.291 393 19.8242
129.408 364 19.0788
129.524 364 19.0788
129.641 393 19.8242
129.758 389 19.7231
129.875 389 19.7231
129.992 391 19.7737
130.108 364 19.0788
130.225 352 18.7617
130.342 323 17.9722
130.459 303 17.4069
130.576 299 17.2916
130.693 258 16.0624
130.81 239 15.4596
130.928 283 16.8226
131.045 323 17.9722
131.162 389 19.7231
131.279 424 20.5913
131.396 381 19.5192
131.513 410 20.2485
131.631 414 20.347
131.748 416 20.3961
131.865 416 20.3961
131.983 383 19.5704
132.1 431 20.7605
132.217 394 19.8494
132.335 414 20.347
132.452 386 19.6469
132.57 403 20.0749
132.687 393 19.8242
132.804 431 20.7605
132.922 437 20.9045
133.039 382 19.5448
133.157 429 20.7123
133.274 385 19.6214
133.392 391 19.7737
133.509 403 20.0749
133.627 392 19.799
133.744 442 21.0238
133.862 422 20.5426
133.979 383 19.5704
134.097 314 17.72
134.214 299 17.2916
134.332 280 16.7332
134.449 318 17.8326
134.567 298 17.2627
134.684 318 17.8326
134.802 420 20.4939
134.919 405 20.1246
135.037 438 20.9284
135.154 446 21.1187
135.272 446 21.1187
135.389 443 21.0476
135.507 461 21.4709
135.624 488 22.0907
135.742 435 20.8567
135.859 436 20.8806
135.977 438 20.9284
136.094 429 20.7123
136.211 447 21.1424
136.329 467 21.6102
136.446 435 20.8567
136.564 470 21.6795
136.681 438 20.9284
136.798 492 22.1811
136.915 405 20.1246
137.033 474 21.7715
137.15 438 20.9284
137.267 411 20.2731
137.384 421 20.5183
137.502 430 20.7364
137.619 402 20.0499
137.736 387 19.6723
137.853 367 19.1572
137.97 343 18.5203
138.087 355 18.8414
138.204 357 18.8944
138.321 377 19.4165
138.438 429 20.7123
138.555 453 21.2838
138.672 490 22.1359
138.788 486 22.0454
138.905 480 21.9089
139.022 522 22.8473
139.139 503 22.4277
139.255 480 21.9089
139.372 473 21.7486
139.488 536 23.1517
139.605 486 22.0454
139.721 497 22.2935
139.838 511 22.6053
139.954 520 22.8035
140.071 501 22.383
140.187 473 21.7486
140.303 502 22.4054
140.419 523 22.8692
140.535 525 22.9129
140.652 492 22.1811
140.768 0 1
140.884 0 1
141 0 1
141.115 0 1
141.231 0 1
141.347 0 1
141.463 0 1
141.578 0 1
141.694 0 1
144.104 0 1
144.219 0 1
144.335 0 1
144.45 0 1
144.566 0 1
144.682 0 1
144.798 0 1
144.914 0 1
145.03 0 1
145.146 471 21.7025
145.262 570 23.8747
145.378 477 21.8403
145.494 477 21.8403
145.61 496 22.2711
145.726 489 22.1133
145.842 434 20.8327
145.959 453 21.2838
146.075 409 20.2237
146.192 407 20.1742
146.308 419 20.4695
146.425 354 18.8149
146.541 389 19.7231
146.658 394 19.8494
146.774 408 20.199
146.891 399 19.975
147.008 384 19.5959
147.125 459 21.4243
147.241 478 21.8632
147.358 494 22.2261
147.475 494 22.2261
147.592 481 21.9317
147.709 475 21.7945
147.826 427 20.664
147.943 504 22.4499
148.06 421 20.5183
148.177 476 21.8174
148.294 496 22.2711
148.411 517 22.7376
148.528 467 21.6102
148.645 487 22.0681
148.762 479 21.8861
148.88 495 22.2486
148.997 453 21.2838
149.114 465 21.5639
149.231 461 21.4709
149.349 462 21.4942
149.466 458 21.4009
149.583 429 20.7123
149.701 424 20.5913
149.818 411 20.2731
149.935 404 20.0998
150.053 372 19.2873
150.17 348 18.6548
150.287 388 19.6977
150.405 418 20.445
150.522 408 20.199
150.64 430 20.7364
150.757 470 21.6795
150.875 451 21.2368
150.992 476 21.8174
151.11 477 21.8403
151.227 513 22.6495
151.344 535 23.1301
151.462 474 21.7715
151.579 515 22.6936
151.697 515 22.6936
151.814 482 21.9545
151.932 509 22.561
152.049 512 22.6274
152.167 463 21.5174
152.284 502 22.4054
152.402 446 21.1187
152.519 512 22.6274
152.636 498 22.3159
152.754 473 21.7486
152.871 451 21.2368
152.989 462 21.4942
153.106 508 22.5389
153.223 458 21.4009
153.341 462 21.4942
153.458 418 20.445
153.575 397 19.9249
153.693 433 20.8087
153.81 417 20.4206
153.927 410 20.2485
154.044 452 21.2603
154.162 383 19.5704
154.279 483 21.9773
154.396 487 22.0681
154.513 503 22.4277
154.63 473 21.7486
154.747 489 22.1133
154.864 484 22
154.981 510 22.5832
155.098 488 22.0907
155.215 513 22.6495
155.332 544 23.3238
155.449 510 22.5832
155.566 494 22.2261
155.683 529 23
155.8 489 22.1133
155.917 511 22.6053
156.033 532 23.0651
156.15 0 1
156.267 0 1
156.383 0 1
156.5 0 1
156.617 0 1
156.733 0 1
156.85 0 1
156.966 0 1
157.082 0 1
157.199 0 1
157.315 0 1
157.431 0 1
157.547 0 1
157.664 0 1
157.78 0 1
157.896 0 1
158.012 0 1
158.128 0 1
158.244 0 1
158.359 0 1
158.475 0 1
158.591 0 1
158.706 0 1
