
6.15755 0 1
6.2731 0 1
6.3887 0 1
6.50437 0 1
6.62009 0 1
6.73587 0 1
6.8517 0 1
6.96759 0 1
7.08353 0 1
7.19952 0 1
7.31557 0 1
7.43166 0 1
7.54781 0 1
7.664 0 1
7.78024 0 1
7.89653 0 1
8.01286 0 1
8.12924 0 1
8.24567 0 1
8.36213 0 1
8.47864 0 1
8.59519 0 1
8.71178 0 1
8.82841 0 1
8.94508 0 1
9.06179 0 1
9.17853 0 1
9.29531 0 1
9.41212 0 1
9.52897 0 1
9.64584 0 1
9.76276 0 1
9.8797 0 1
9.99667 0 1
10.1137 0 1
10.2307 0 1
10.3478 0 1
10.4648 0 1
10.5819 0 1
10.6991 0 1
10.8162 0 1
10.9334 0 1
11.0506 0 1
11.1678 0 1
11.285 0 1
11.4023 0 1
11.5196 0 1
11.6369 0 1
11.7542 0 1
11.8715 0 1
11.9888 0 1
12.1062 0 1
12.2235 0 1
12.3409 0 1
12.4582 0 1
12.5756 0 1
12.693 0 1
12.8104 0 1
12.9278 0 1
13.0452 0 1
13.1626 0 1
13.28 0 1
13.3974 0 1
13.5149 0 1
13.6323 0 1
13.7497 0 1
13.8671 0 1
13.9845 0 1
14.1019 0 1
14.2193 0 1
14.3367 0 1
14.4541 0 1
14.5714 0 1
14.6888 0 1
14.8062 0 1
14.9235 0 1
15.0408 0 0
15.1581 0 0
15.2755 0 0
15.3927 0 0
15.51 0 0
15.6273 0 0
15.7445 0 0
15.8617 0 0
15.9789 0 0
16.0961 0 0
16.2132 0 0
16.3304 0 0
16.4475 0 0
16.5646 0 0
16.6816 0 0
16.7986 0 0
16.9156 0 0
17.0326 0 0
17.1496 0 0
17.2665 0 0
17.3833 0 0
17.5002 0 0
17.617 0 0
17.7338 0 0
17.8505 0 0
17.9672 0 0
18.0839 0 0
18.2005 0 0
18.3171 0 0
18.4337 0 0
18.5502 0 0
18.6666 0 0
18.7831 0 0
18.8994 0 0
19.0158 0 0
19.1321 0 0
19.2483 0 0
19.3645 0 0
19.4806 0 0
19.5967 0 0
19.7128 0 0
19.8288 0 0
19.9447 0 0
20.0606 0 1
20.1764 0 1
20.2922 0 1
20.4079 0 1
20.5236 0 1
20.6392 0 1
20.7548 0 1
20.8702 0 1
23.3078 0 1
23.4233 0 1
23.539 0 1
23.6547 0 1
23.7704 0 1
23.8862 0 1
24.0021 0 1
24.118 0 1
24.234 0 1
24.35 0 1
24.4661 17430 132.023
24.5822 17648 132.846
24.6984 17453 132.11
24.8146 17209 131.183
24.9309 16889 129.958
25.0472 16439 128.215
25.1636 16563 128.697
25.28 16595 128.822
25.3965 17119 130.84
25.513 17343 131.693
25.6296 17823 133.503
25.7462 18634 136.506
25.8628 18656 136.587
25.9795 19010 137.877
26.0962 18997 137.83
26.213 18644 136.543
26.3298 18448 135.823
26.4466 17705 133.06
26.5635 17263 131.389
26.6804 16725 129.325
26.7973 17187 131.099
26.9143 17543 132.45
27.0313 17576 132.575
27.1483 18502 136.022
27.2653 18726 136.843
27.3824 18783 137.051
27.4996 18959 137.692
27.6167 18835 137.241
27.7339 18576 136.294
27.8511 18105 134.555
27.9683 17936 133.925
28.0855 17584 132.605
28.2028 17233 131.275
28.3201 16603 128.853
28.4374 16115 126.945
28.5547 15672 125.188
28.6721 15447 124.286
28.7894 15681 125.224
28.9068 16128 126.996
29.0242 16080 126.807
29.1416 16301 127.675
29.259 16787 129.565
29.3764 16941 130.158
29.4939 16939 130.15
29.6113 17026 130.484
29.7288 17066 130.637
29.8463 16899 129.996
29.9638 16374 127.961
30.0812 15605 124.92
30.1987 15584 124.836
30.3162 15652 125.108
30.4337 16156 127.106
30.5512 16746 129.406
30.6687 16944 130.169
30.7862 17726 133.139
30.9037 17830 133.529
31.0212 17986 134.112
31.1387 17852 133.611
31.2562 17969 134.048
31.3737 17459 132.133
31.4912 17473 132.185
31.6087 16950 130.192
31.7262 16854 129.823
31.8436 16494 128.429
31.9611 15924 126.19
32.0785 15469 124.374
32.1959 15211 123.333
32.3134 15245 123.471
32.4308 15661 125.144
32.5482 15668 125.172
32.6655 16300 127.671
32.7829 16636 128.981
32.9002 16388 128.016
33.0176 16640 128.996
33.1349 16876 129.908
33.2522 16880 129.923
33.3694 16970 130.269
33.4867 16337 127.816
33.6039 16081 126.811
33.7211 15695 125.28
33.8383 15372 123.984
33.9554 15485 124.439
34.0725 15776 125.603
34.1896 16518 128.522
34.3067 17223 131.236
34.4237 17310 131.567
34.5407 17606 132.688
34.6577 17720 133.116
34.7746 17554 132.492
34.8915 17782 133.349
35.0084 17578 132.582
35.1252 17201 131.153
35.242 16905 130.019
35.3587 16921 130.081
35.4755 16300 127.671
35.5921 16082 126.815
35.7088 15381 124.02
35.8254 15059 122.715
35.9419 14923 122.16
36.0584 14648 121.029
36.1749 15182 123.215
36.2913 15347 123.883
36.4077 15619 124.976
36.524 15855 125.917
36.6403 16172 127.169
36.7565 16342 127.836
36.8727 16204 127.295
36.9889 16212 127.326
37.1049 16048 126.681
37.221 0 1
37.3369 0 1
37.4529 0 1
37.5687 0 1
37.6845 0 1
37.8003 0 1
37.916 0 1
38.0316 0 1
38.1472 0 1
40.5851 0 1
40.7008 0 1
40.8164 0 1
40.9322 0 1
41.048 0 1
41.1639 0 1
41.2798 0 1
41.3958 0 1
41.5118 0 1
41.6279 0 1
41.744 13316 115.395
41.8602 13830 117.601
41.9765 13988 118.271
42.0928 14134 118.887
42.2091 13824 117.576
42.3255 13757 117.29
42.4419 13285 115.261
42.5584 12851 113.362
42.675 12823 113.239
42.7915 13500 116.19
42.9081 13755 117.282
43.0248 14268 119.449
43.1415 14691 121.206
43.2582 15031 122.601
43.375 14886 122.008
43.4918 15082 122.809
43.6087 14966 122.336
43.7256 15168 123.158
43.8425 14894 122.041
43.9595 14673 121.132
44.0765 14263 119.428
44.1935 13845 117.665
44.3106 13475 116.082
44.4277 12968 113.877
44.5448 12448 111.571
44.6619 11738 108.342
44.7791 11714 108.231
44.8963 11750 108.397
45.0136 11492 107.201
45.1308 12008 109.581
45.2481 12083 109.923
45.3654 12239 110.63
45.4827 12242 110.644
45.6001 12552 112.036
45.7174 12364 111.194
45.8348 12228 110.58
45.9522 11675 108.051
46.0697 11227 105.958
46.1871 10857 104.197
46.3046 10923 104.513
46.422 11237 106.005
46.5395 11474 107.117
46.657 12035 109.704
46.7745 12357 111.162
46.892 12373 111.234
47.0096 12607 112.281
47.1271 12392 111.319
47.2446 12545 112.004
47.3622 11921 109.183
47.4797 12058 109.809
47.5973 11728 108.296
47.7149 11367 106.616
47.8324 10864 104.231
47.95 10759 103.726
48.0675 10069 100.344
48.1851 9426 97.0876
48.3027 9347 96.6799
48.4202 9224 96.0417
48.5378 9343 96.6592
48.6554 9938 99.6895
48.7729 9921 99.6042
48.8904 9984 99.92
49.008 10237 101.178
49.1255 10523 102.582
49.243 10766 103.759
49.3605 10208 101.035
49.478 9800 98.9949
49.5955 9741 98.6965
49.713 9824 99.1161
49.8304 9887 99.4334
49.9479 10396 101.961
50.0653 11206 105.858
50.1827 11836 108.793
50.3001 12106 110.027
50.4175 12543 111.996
50.5348 12713 112.752
50.6521 13906 117.924
50.7694 13662 116.885
50.8867 13919 117.979
51.004 14060 118.575
51.1212 14265 119.436
51.2384 14328 119.7
51.3556 14045 118.512
51.4727 13625 116.726
51.5899 13124 114.56
51.707 12567 112.103
51.824 12522 111.902
51.9411 12661 112.521
52.0581 13166 114.743
52.175 13552 116.413
52.2919 13775 117.367
52.4088 14394 119.975
52.5257 14335 119.729
52.6425 14416 120.067
52.7593 14643 121.008
52.876 14693 121.215
52.9927 14398 119.992
53.1094 13974 118.212
53.226 13765 117.324
53.3426 13749 117.256
53.4591 14100 118.743
53.5756 14949 122.266
53.692 16047 126.677
53.8084 16728 129.337
53.9248 17156 130.981
54.0411 17523 132.374
54.1573 18214 134.959
54.2735 0 1
54.3896 0 1
54.5057 0 1
54.6217 0 1
54.7377 0 1
54.8537 0 1
54.9695 0 1
55.0853 0 1
55.2011 0 1
55.3168 0 1
55.4324 0 1
57.824 0 1
57.9396 0 1
58.0553 0 1
58.1711 0 1
58.2869 0 1
58.4028 0 1
58.5187 0 1
58.6347 0 1
58.7508 0 1
58.8669 0 1
58.983 19456 139.485
59.0992 20442 142.976
59.2155 20995 144.897
59.3318 21549 146.796
59.4482 21752 147.486
59.5646 21594 146.949
59.681 21553 146.809
59.7975 21380 146.219
59.9141 20873 144.475
60.0306 19988 141.379
60.1473 18659 136.598
60.2639 17882 133.724
60.3807 16825 129.711
60.4974 16417 128.129
60.6142 16269 127.55
60.731 16548 128.639
60.8479 17153 130.969
60.9648 17490 132.25
61.0818 17800 133.417
61.1987 17979 134.086
61.3158 18002 134.172
61.4328 17581 132.593
61.5499 17006 130.407
61.667 16470 128.335
61.7841 16156 127.106
61.9013 16103 126.898
62.0185 16566 128.709
62.1357 17119 130.84
62.253 17890 133.754
62.3702 19045 138.004
62.4875 19406 139.305
62.6049 20153 141.961
62.7222 20547 143.342
62.8396 20410 142.864
62.9569 20938 144.7
63.0743 20752 144.056
63.1918 20474 143.087
63.3092 19924 141.152
63.4267 19524 139.728
63.5441 18733 136.869
63.6616 17697 133.03
63.7791 16213 127.33
63.8966 15648 125.092
64.0142 15011 122.519
64.1317 15166 123.15
64.2492 15089 122.837
64.3668 15521 124.583
64.4843 16064 126.744
64.6019 16129 127
64.7195 16480 128.374
64.837 16701 129.232
64.9546 16734 129.36
65.0722 16115 126.945
65.1898 15429 124.214
65.3074 15248 123.483
65.4249 14625 120.934
65.5425 14683 121.173
65.6601 15468 124.37
65.7777 16521 128.534
65.8952 17228 131.255
66.0128 18064 134.402
66.1304 18409 135.68
66.2479 19233 138.683
66.3655 19702 140.364
66.483 19801 140.716
66.6005 19910 141.103
66.718 20030 141.527
66.8355 19285 138.87
66.953 19074 138.109
67.0705 18569 136.268
67.1879 17686 132.989
67.3054 16573 128.736
67.4228 15192 123.256
67.5402 14184 119.097
67.6576 14257 119.403
67.7749 14302 119.591
67.8923 14935 122.209
68.0096 15471 124.382
68.1269 16127 126.992
68.2442 16416 128.125
68.3614 16689 129.186
68.4787 16995 130.365
68.5958 16902 130.008
68.713 16443 128.23
68.8302 15908 126.127
68.9473 15201 123.292
69.0643 15042 122.646
69.1814 14901 122.07
69.2984 15808 125.73
69.4154 17024 130.476
69.5323 18063 134.399
69.6492 18729 136.854
69.7661 19818 140.776
69.8829 20356 142.674
69.9997 20892 144.541
70.1165 21033 145.028
70.2332 21242 145.746
70.3499 21432 146.397
70.4665 20911 144.606
70.5831 20976 144.831
70.6996 19841 140.858
70.8161 18624 136.47
70.9326 17676 132.951
71.049 16376 127.969
71.1653 15254 123.507
71.2817 14602 120.839
71.3979 14384 119.933
71.5141 14571 120.71
71.6303 15039 122.634
71.7464 14412 120.05
71.8624 0 1
71.9784 0 1
72.0944 0 1
72.2102 0 1
72.3261 0 1
72.4418 0 1
72.5575 0 1
72.6732 0 1
75.1054 0 1
75.2209 0 1
75.3365 0 1
75.4521 0 1
75.5678 0 1
75.6835 0 1
75.7993 0 1
75.9151 0 1
76.031 0 1
76.147 18284 135.218
76.263 18241 135.059
76.3791 17657 132.88
76.4952 16142 127.051
76.6113 15381 124.02
76.7276 15809 125.734
76.8438 15838 125.849
76.9601 16517 128.518
77.0765 17437 132.049
77.1929 17846 133.589
77.3093 18267 135.155
77.4258 18603 136.393
77.5423 18859 137.328
77.6589 18447 135.82
77.7755 17316 131.59
77.8921 16524 128.546
78.0088 16106 126.909
78.1256 15636 125.044
78.2423 15778 125.611
78.3591 16701 129.232
78.4759 18121 134.614
78.5928 19287 138.878
78.7097 19858 140.918
78.8266 21619 147.034
78.9436 20653 143.712
79.0606 21490 146.595
79.1776 21696 147.296
79.2946 21886 147.939
79.4117 21836 147.77
79.5288 21754 147.492
79.6459 20889 144.53
79.7631 19498 139.635
79.8802 18688 136.704
79.9974 17464 132.151
80.1147 15945 126.274
80.2319 14688 121.194
80.3491 14619 120.909
80.4664 14735 121.388
80.5837 15521 124.583
80.701 16128 126.996
80.8183 16472 128.343
80.9357 16509 128.487
81.053 17225 131.244
81.1704 17249 131.335
81.2877 17100 130.767
81.4051 16514 128.507
81.5225 15869 125.972
81.6399 14629 120.95
81.7573 14290 119.541
81.8747 14205 119.185
81.9922 14784 121.589
82.1096 16415 128.121
82.227 17201 131.153
82.3444 18051 134.354
82.4619 18773 137.015
82.5793 18967 137.721
82.6967 19904 141.082
82.8142 19597 139.989
82.9316 19895 141.05
83.049 19431 139.395
83.1664 19020 137.913
83.2838 18355 135.481
83.4012 17766 133.289
83.5186 16634 128.973
83.636 15514 124.555
83.7534 14310 119.624
83.8708 13359 115.581
83.9881 13380 115.672
84.1055 13313 115.382
84.2228 13881 117.818
84.3401 14614 120.888
84.4575 15518 124.571
84.5747 15974 126.388
84.692 16367 127.934
84.8093 16620 128.919
84.9265 16078 126.799
85.0437 14935 122.209
85.1609 14623 120.926
85.2781 13957 118.14
85.3952 13524 116.293
85.5123 14141 118.916
85.6294 14947 122.258
85.7465 16447 128.246
85.8636 17743 133.203
85.9806 18641 136.532
86.0976 19405 139.302
86.2145 20209 142.158
86.3315 20035 141.545
86.4484 21759 147.509
86.5652 21220 145.671
86.682 21173 145.509
86.7988 20797 144.212
86.9156 20550 143.353
87.0323 19573 139.904
87.149 18412 135.691
87.2657 17145 130.939
87.3823 16026 126.594
87.4988 15587 124.848
87.6154 15681 125.224
87.7318 16181 127.205
87.8483 17122 130.851
87.9647 18144 134.7
88.081 18499 136.011
88.1973 19406 139.305
88.3136 19543 139.796
88.4298 18958 137.688
88.546 18050 134.35
88.6621 16697 129.217
88.7781 15707 125.328
88.8942 0 1
89.0101 0 1
89.126 0 1
89.2419 0 1
89.3577 0 1
89.4734 0 1
89.5891 0 1
89.7047 0 1
89.8203 0 1
89.9358 0 1
92.3269 0 1
92.4424 0 1
92.558 0 1
92.6736 0 1
92.7893 0 1
92.905 0 1
93.0208 0 1
93.1366 0 1
93.2525 0 1
93.3685 0 1
93.4845 0 1
93.6005 25729 160.403
93.7167 27251 165.079
93.8328 27923 167.102
93.949 28760 169.588
94.0653 28520 168.879
94.1816 27682 166.379
94.2979 27643 166.262
94.4143 27985 167.287
94.5307 28623 169.183
94.6472 30260 173.954
94.7637 32280 179.666
94.8803 36032 189.821
94.9969 37982 194.89
95.1135 40460 201.147
95.2302 42211 205.453
95.3469 44321 210.526
95.4637 45833 214.086
95.5805 47237 217.341
95.6973 48591 220.434
95.8142 49439 222.349
95.9311 49177 221.759
96.048 48884 221.097
96.1649 47982 219.048
96.2819 46905 216.576
96.3989 44770 211.589
96.516 42173 205.361
96.633 39849 199.622
96.7501 39538 198.842
96.8673 41166 202.894
96.9844 43629 208.876
97.1016 47541 218.039
97.2188 50106 223.844
97.336 51715 227.409
97.4532 51653 227.273
97.5704 51305 226.506
97.6877 49359 222.169
97.805 45723 213.829
97.9223 43342 208.187
98.0396 40978 202.43
98.1569 39565 198.91
98.2743 39619 199.045
98.3916 41742 204.309
98.509 44750 211.542
98.6264 47485 217.911
98.7438 49709 222.955
98.8612 51053 225.949
98.9786 52613 229.375
99.096 53296 230.859
99.2134 53897 232.157
99.3308 54510 233.474
99.4482 54813 234.122
99.5656 54152 232.706
99.6831 53007 230.232
99.8005 51277 226.444
99.9179 49285 222.002
100.035 47161 217.166
100.153 43163 207.757
100.27 40764 201.901
100.388 40959 202.383
100.505 43490 208.543
100.622 47370 217.647
100.74 49032 221.432
100.857 50313 224.306
100.975 50457 224.626
101.092 50203 224.06
101.209 49098 221.581
101.327 46739 216.192
101.444 43228 207.913
101.561 40027 200.067
101.679 38059 195.087
101.796 36893 192.076
101.913 37256 193.018
102.03 39364 198.404
102.148 42111 205.21
102.265 45713 213.806
102.382 42340 205.767
102.499 45047 212.243
102.616 45175 212.544
102.733 44948 212.009
102.851 44494 210.936
102.968 43495 208.555
103.085 42571 206.327
103.202 40581 201.447
103.319 38431 196.038
103.436 35510 188.441
103.552 32778 181.047
103.669 29889 172.884
103.786 26821 163.771
103.903 26335 162.281
104.02 26471 162.699
104.137 27158 164.797
104.253 28685 169.366
104.37 26860 163.89
104.487 27180 164.864
104.603 26255 162.034
104.72 25063 158.313
104.836 23146 152.138
104.953 21249 145.77
105.069 19943 141.22
105.186 19446 139.449
105.302 19242 138.716
105.418 19308 138.953
105.535 21394 146.267
105.651 22292 149.305
105.767 23025 151.74
105.883 24111 155.277
105.999 24631 156.943
106.115 0 1
106.231 0 1
106.347 0 1
106.463 0 1
106.579 0 1
106.694 0 1
106.81 0 1
106.926 0 1
107.041 0 1
107.157 0 1
109.576 0 1
109.692 0 1
109.807 0 1
109.923 0 1
110.039 0 1
110.155 0 1
110.27 0 1
110.386 0 1
110.502 0 1
110.618 18855 137.314
110.735 20335 142.601
110.851 21811 147.685
110.967 22785 150.947
111.083 23101 151.99
111.199 23199 152.312
111.316 23689 153.912
111.432 23649 153.782
111.549 23656 153.805
111.665 22885 151.278
111.782 22252 149.171
111.898 21121 145.331
112.015 19982 141.358
112.132 18875 137.386
112.248 17368 131.788
112.365 17005 130.403
112.482 17235 131.282
112.599 17473 132.185
112.716 18285 135.222
112.832 18940 137.623
112.949 18742 136.901
113.066 18718 136.814
113.183 18462 135.875
113.3 17945 133.959
113.417 16905 130.019
113.534 16341 127.832
113.652 16098 126.878
113.769 15761 125.543
113.886 16026 126.594
114.003 16603 128.853
114.12 18370 135.536
114.238 19596 139.986
114.355 20425 142.916
114.472 21477 146.55
114.589 21611 147.007
114.707 22158 148.856
114.824 22099 148.657
114.942 22543 150.143
115.059 22545 150.15
115.176 22226 149.084
115.294 21928 148.081
115.411 21446 146.445
115.529 20511 143.217
115.646 19051 138.025
115.764 18094 134.514
115.881 17299 131.526
115.999 17188 131.103
116.116 17852 133.611
116.234 18549 136.195
116.351 18732 136.865
116.469 19055 138.04
116.586 18773 137.015
116.704 18909 137.51
116.821 18592 136.352
116.939 18065 134.406
117.056 17529 132.397
117.174 17281 131.457
117.291 17315 131.586
117.409 16937 130.142
117.526 17657 132.88
117.644 18884 137.419
117.761 20498 143.171
117.879 20958 144.769
117.996 22294 149.312
118.114 22792 150.97
118.231 23573 153.535
118.349 23406 152.99
118.466 23978 154.848
118.584 23745 154.094
118.701 23642 153.76
118.819 23602 153.629
118.936 23117 152.043
119.053 22031 148.428
119.171 21427 146.38
119.288 20280 142.408
119.405 19167 138.445
119.523 18309 135.311
119.64 18223 134.993
119.757 18539 136.158
119.875 19180 138.492
119.992 19338 139.061
120.109 19486 139.592
120.226 19416 139.341
120.343 19245 138.726
120.46 19110 138.239
120.578 18755 136.949
120.695 18008 134.194
120.812 17715 133.098
120.929 17397 131.898
121.046 17231 131.267
121.163 17435 132.042
121.279 18436 135.779
121.396 19734 140.478
121.513 20952 144.748
121.63 22186 148.95
121.747 22607 150.356
121.863 22860 151.195
121.98 23570 153.525
122.097 23509 153.326
122.213 23370 152.872
122.33 23165 152.201
122.446 23316 152.696
122.563 22791 150.967
122.679 22526 150.087
122.795 21778 147.574
122.912 21633 147.082
123.028 20153 141.961
123.144 19155 138.402
123.26 18457 135.857
123.377 0 1
123.493 0 1
123.609 0 1
123.725 0 1
123.84 0 1
123.956 0 1
124.072 0 1
124.188 0 1
124.303 0 1
124.419 0 1
126.852 0 1
126.968 0 1
127.083 0 1
127.199 0 1
127.315 0 1
127.431 0 1
127.547 0 1
127.663 0 1
127.779 0 1
127.895 0 1
128.011 0 1
128.127 0 1
128.243 0 1
128.359 22279 149.262
128.476 21082 145.196
128.592 20620 143.597
128.708 21158 145.458
128.825 21808 147.675
128.941 22198 148.99
129.058 22476 149.92
129.174 22305 149.349
129.291 21984 148.27
129.408 21343 146.092
129.524 21063 145.131
129.641 20213 142.172
129.758 20230 142.232
129.875 19878 140.989
129.992 19387 139.237
130.108 19657 140.203
130.225 20403 142.839
130.342 21955 148.172
130.459 22181 148.933
130.576 24109 155.271
130.693 23948 154.751
130.81 24016 154.971
130.928 24105 155.258
131.045 24517 156.579
131.162 24776 157.404
131.279 24686 157.118
131.396 24557 156.707
131.513 24089 155.206
131.631 23527 153.385
131.748 22804 151.01
131.865 21713 147.353
131.983 20685 143.823
132.1 20359 142.685
132.217 20313 142.524
132.335 21296 145.931
132.452 21470 146.526
132.57 21797 147.638
132.687 20938 144.7
132.804 22059 148.523
132.922 21145 145.413
133.039 20773 144.128
133.157 20271 142.376
133.274 19818 140.776
133.392 19498 139.635
133.509 19492 139.614
133.627 19503 139.653
133.744 19913 141.113
133.862 20898 144.561
133.979 21872 147.892
134.097 22858 151.189
134.214 23410 153.003
134.332 23267 152.535
134.449 23818 154.331
134.567 24005 154.935
134.684 24251 155.727
134.802 24392 156.179
134.919 24653 157.013
135.037 24440 156.333
135.154 23842 154.409
135.272 23376 152.892
135.389 22614 150.38
135.507 21584 146.915
135.624 20400 142.829
135.742 20376 142.745
135.859 20996 144.9
135.977 21799 147.645
136.094 22392 149.64
136.211 22248 149.158
136.329 22267 149.221
136.446 21919 148.051
136.564 21569 146.864
136.681 21440 146.424
136.798 20740 144.014
136.915 20371 142.727
137.033 20019 141.489
137.15 19985 141.368
137.267 19867 140.95
137.384 20465 143.056
137.502 21011 144.952
137.619 22320 149.399
137.736 22699 150.662
137.853 22960 151.526
137.97 23119 152.049
138.087 24398 156.199
138.204 24188 155.525
138.321 24424 156.282
138.438 25148 158.581
138.555 24926 157.88
138.672 24455 156.381
138.788 24028 155.01
138.905 24227 155.65
139.022 23380 152.905
139.139 22657 150.522
139.255 21722 147.384
139.372 21323 146.024
139.488 21707 147.333
139.605 22300 149.332
139.721 22559 150.197
139.838 22515 150.05
139.954 22430 149.766
140.071 22073 148.57
140.187 21991 148.294
140.303 21356 146.137
140.419 20843 144.371
140.535 20271 142.376
140.652 19580 139.929
140.768 0 1
140.884 0 1
141 0 1
141.115 0 1
141.231 0 1
141.347 0 1
141.463 0 1
141.578 0 1
141.694 0 1
144.104 0 1
144.219 0 1
144.335 0 1
144.45 0 1
144.566 0 1
144.682 0 1
144.798 0 1
144.914 0 1
145.03 0 1
145.146 20715 143.927
145.262 20851 144.399
145.378 20167 142.011
145.494 19949 141.241
145.61 19248 138.737
145.726 19039 137.982
145.842 19292 138.896
145.959 19238 138.701
146.075 19587 139.954
146.192 20222 142.204
146.308 20830 144.326
146.425 21374 146.198
146.541 21743 147.455
146.658 21998 148.317
146.774 22074 148.573
146.891 22399 149.663
147.008 22862 151.202
147.125 22829 151.093
147.241 22781 150.934
147.358 22914 151.374
147.475 22576 150.253
147.592 21586 146.922
147.709 21032 145.024
147.826 20019 141.489
147.943 19941 141.213
148.06 20008 141.45
148.177 20632 143.638
148.294 21141 145.399
148.411 21101 145.262
148.528 21050 145.086
148.645 20634 143.645
148.762 20643 143.677
148.88 20406 142.85
148.997 19469 139.531
149.114 20338 142.611
149.231 19155 138.402
149.349 18734 136.872
149.466 18263 135.141
149.583 18618 136.448
149.701 19110 138.239
149.818 19628 140.1
149.935 20479 143.105
150.053 21039 145.048
150.17 21104 145.272
150.287 21850 147.817
150.405 21899 147.983
150.522 22093 148.637
150.64 22868 151.222
150.757 22988 151.618
150.875 23099 151.984
150.992 23219 152.378
151.11 22210 149.03
151.227 22097 148.651
151.344 21242 145.746
151.462 20717 143.934
151.579 20672 143.778
151.697 20589 143.489
151.814 21320 146.014
151.932 22140 148.795
152.049 22280 149.265
152.167 22427 149.756
152.284 21823 147.726
152.402 21793 147.625
152.519 21474 146.54
152.636 20906 144.589
152.754 20816 144.278
152.871 20377 142.748
152.989 20357 142.678
153.106 19886 141.018
153.223 19990 141.386
153.341 20488 143.136
153.458 21253 145.784
153.575 22028 148.418
153.693 22272 149.238
153.81 22962 151.532
153.927 23239 152.443
154.044 23825 154.353
154.162 24029 155.013
154.279 24650 157.003
154.396 24728 157.251
154.513 24796 157.467
154.63 24973 158.028
154.747 24506 156.544
154.864 23893 154.574
154.981 23703 153.958
155.098 22772 150.904
155.215 22285 149.282
155.332 22509 150.03
155.449 22966 151.545
155.566 23079 151.918
155.683 23196 152.302
155.8 23273 152.555
155.917 23308 152.67
156.033 23019 151.72
156.15 0 1
156.267 0 1
156.383 0 1
156.5 0 1
156.617 0 1
156.733 0 1
156.85 0 1
156.966 0 1
157.082 0 1
157.199 0 1
157.315 0 1
157.431 0 1
157.547 0 1
157.664 0 1
157.78 0 1
157.896 0 1
158.012 0 1
158.128 0 1
158.244 0 1
158.359 0 1
158.475 0 1
158.591 0 1
158.706 0 1
