
6.15755 0 1
6.2731 0 1
6.3887 0 1
6.50437 0 1
6.62009 0 1
6.73587 0 1
6.8517 0 1
6.96759 0 1
7.08353 0 1
7.19952 0 1
7.31557 0 1
7.43166 0 1
7.54781 0 1
7.664 0 1
7.78024 0 1
7.89653 0 1
8.01286 0 1
8.12924 0 1
8.24567 0 1
8.36213 0 1
8.47864 0 1
8.59519 0 1
8.71178 0 1
8.82841 0 1
8.94508 0 1
9.06179 0 1
9.17853 0 1
9.29531 0 1
9.41212 0 1
9.52897 0 1
9.64584 0 1
9.76276 0 1
9.8797 0 1
9.99667 0 1
10.1137 0 1
10.2307 0 1
10.3478 0 1
10.4648 0 1
10.5819 0 1
10.6991 0 1
10.8162 0 1
10.9334 0 1
11.0506 0 1
11.1678 0 1
11.285 0 1
11.4023 0 1
11.5196 0 1
11.6369 0 1
11.7542 0 1
11.8715 0 1
11.9888 0 1
12.1062 0 1
12.2235 0 1
12.3409 0 1
12.4582 0 1
12.5756 0 1
12.693 0 1
12.8104 0 1
12.9278 0 1
13.0452 0 1
13.1626 0 1
13.28 0 1
13.3974 0 1
13.5149 0 1
13.6323 0 1
13.7497 0 1
13.8671 0 1
13.9845 0 1
14.1019 0 1
14.2193 0 1
14.3367 0 1
14.4541 0 1
14.5714 0 1
14.6888 0 1
14.8062 0 1
14.9235 0 1
15.0408 1194 34.5543
15.1581 1274 35.6931
15.2755 1149 33.8969
15.3927 1285 35.8469
15.51 1202 34.6699
15.6273 1212 34.8138
15.7445 1195 34.5688
15.8617 1202 34.6699
15.9789 1147 33.8674
16.0961 1156 34
16.2132 1129 33.6006
16.3304 1118 33.4365
16.4475 1122 33.4963
16.5646 1159 34.0441
16.6816 1188 34.4674
16.7986 1204 34.6987
16.9156 1211 34.7994
17.0326 1168 34.176
17.1496 1244 35.2704
17.2665 1268 35.609
17.3833 1212 34.8138
17.5002 1250 35.3553
17.617 1304 36.1109
17.7338 1276 35.7211
17.8505 1378 37.1214
17.9672 1345 36.6742
18.0839 1420 37.6829
18.2005 1424 37.7359
18.3171 1526 39.064
18.4337 1459 38.1969
18.5502 1474 38.3927
18.6666 1545 39.3065
18.7831 1542 39.2683
18.8994 1467 38.3014
19.0158 1345 36.6742
19.1321 1350 36.7423
19.2483 1352 36.7696
19.3645 1270 35.6371
19.4806 1254 35.4119
19.5967 1195 34.5688
19.7128 1216 34.8712
19.8288 1158 34.0294
19.9447 1067 32.665
20.0606 0 1
20.1764 0 1
20.2922 0 1
20.4079 0 1
20.5236 0 1
20.6392 0 1
20.7548 0 1
20.8702 0 1
23.3078 0 1
23.4233 0 1
23.539 0 1
23.6547 0 1
23.7704 0 1
23.8862 0 1
24.0021 0 1
24.118 0 1
24.234 0 1
24.35 0 1
24.4661 1214 34.8425
24.5822 1196 34.5832
24.6984 1202 34.6699
24.8146 1230 35.0714
24.9309 1232 35.0999
25.0472 1146 33.8526
25.1636 1165 34.1321
25.28 1195 34.5688
25.3965 1253 35.3977
25.513 1259 35.4824
25.6296 1307 36.1525
25.7462 1293 35.9583
25.8628 1369 37
25.9795 1411 37.5633
26.0962 1306 36.1386
26.213 1323 36.3731
26.3298 1339 36.5923
26.4466 1303 36.0971
26.5635 1393 37.3229
26.6804 1471 38.3536
26.7973 1418 37.6563
26.9143 1448 38.0526
27.0313 1485 38.5357
27.1483 1512 38.8844
27.2653 1430 37.8153
27.3824 1470 38.3406
27.4996 1462 38.2361
27.6167 1374 37.0675
27.7339 1280 35.7771
27.8511 1333 36.5103
27.9683 1228 35.0428
28.0855 1203 34.6843
28.2028 1190 34.4964
28.3201 1192 34.5254
28.4374 1133 33.6601
28.5547 1121 33.4813
28.6721 1223 34.9714
28.7894 1183 34.3948
28.9068 1211 34.7994
29.0242 1177 34.3074
29.1416 1191 34.5109
29.259 1216 34.8712
29.3764 1210 34.7851
29.4939 1238 35.1852
29.6113 1244 35.2704
29.7288 1270 35.6371
29.8463 1311 36.2077
29.9638 1295 35.9861
30.0812 1361 36.8917
30.1987 1319 36.318
30.3162 1390 37.2827
30.4337 1370 37.0135
30.5512 1397 37.3765
30.6687 1366 36.9594
30.7862 1415 37.6165
30.9037 1329 36.4555
31.0212 1305 36.1248
31.1387 1320 36.3318
31.2562 1239 35.1994
31.3737 1181 34.3657
31.4912 1128 33.5857
31.6087 1131 33.6303
31.7262 1088 32.9848
31.8436 1047 32.3574
31.9611 1054 32.4654
32.0785 1089 33
32.1959 1137 33.7194
32.3134 1129 33.6006
32.4308 1098 33.1361
32.5482 1199 34.6266
32.6655 1227 35.0286
32.7829 1151 33.9264
32.9002 1237 35.171
33.0176 1211 34.7994
33.1349 1209 34.7707
33.2522 1210 34.7851
33.3694 1196 34.5832
33.4867 1191 34.5109
33.6039 1237 35.171
33.7211 1285 35.8469
33.8383 1319 36.318
33.9554 1345 36.6742
34.0725 1277 35.7351
34.1896 1390 37.2827
34.3067 1269 35.623
34.4237 1188 34.4674
34.5407 1251 35.3695
34.6577 1197 34.5977
34.7746 1170 34.2053
34.8915 1205 34.7131
35.0084 1112 33.3467
35.1252 1024 32
35.242 1082 32.8938
35.3587 984 31.3688
35.4755 1060 32.5576
35.5921 1069 32.6956
35.7088 1038 32.218
35.8254 1083 32.909
35.9419 1126 33.5559
36.0584 1188 34.4674
36.1749 1194 34.5543
36.2913 1149 33.8969
36.4077 1169 34.1906
36.524 1091 33.0303
36.6403 1152 33.9411
36.7565 1145 33.8378
36.8727 1067 32.665
36.9889 1146 33.8526
37.1049 1123 33.5112
37.221 0 1
37.3369 0 1
37.4529 0 1
37.5687 0 1
37.6845 0 1
37.8003 0 1
37.916 0 1
38.0316 0 1
38.1472 0 1
40.5851 0 1
40.7008 0 1
40.8164 0 1
40.9322 0 1
41.048 0 1
41.1639 0 1
41.2798 0 1
41.3958 0 1
41.5118 0 1
41.6279 0 1
41.744 855 29.2404
41.8602 963 31.0322
41.9765 967 31.0966
42.0928 1060 32.5576
42.2091 1003 31.6702
42.3255 1045 32.3265
42.4419 1007 31.7333
42.5584 1021 31.9531
42.675 1150 33.9116
42.7915 1051 32.4191
42.9081 1056 32.4962
43.0248 1067 32.665
43.1415 1015 31.8591
43.2582 1153 33.9559
43.375 1125 33.541
43.4918 1154 33.9706
43.6087 1099 33.1512
43.7256 1069 32.6956
43.8425 1014 31.8434
43.9595 974 31.209
44.0765 948 30.7896
44.1935 1001 31.6386
44.3106 995 31.5436
44.4277 928 30.4631
44.5448 998 31.5911
44.6619 966 31.0805
44.7791 914 30.2324
44.8963 918 30.2985
45.0136 864 29.3939
45.1308 860 29.3258
45.2481 911 30.1828
45.3654 873 29.5466
45.4827 864 29.3939
45.6001 771 27.7669
45.7174 805 28.3725
45.8348 770 27.7489
45.9522 817 28.5832
46.0697 765 27.6586
46.1871 767 27.6948
46.3046 765 27.6586
46.422 750 27.3861
46.5395 698 26.4197
46.657 713 26.7021
46.7745 728 26.9815
46.892 691 26.2869
47.0096 766 27.6767
47.1271 694 26.3439
47.2446 690 26.2679
47.3622 656 25.6125
47.4797 668 25.8457
47.5973 659 25.671
47.7149 675 25.9808
47.8324 658 25.6515
47.95 655 25.593
48.0675 606 24.6171
48.1851 605 24.5967
48.3027 587 24.2281
48.4202 604 24.5764
48.5378 597 24.4336
48.6554 557 23.6008
48.7729 597 24.4336
48.8904 594 24.3721
49.008 586 24.2074
49.1255 561 23.6854
49.243 563 23.7276
49.3605 568 23.8328
49.478 556 23.5797
49.5955 585 24.1868
49.713 608 24.6577
49.8304 619 24.8797
49.9479 607 24.6374
50.0653 600 24.4949
50.1827 610 24.6982
50.3001 630 25.0998
50.4175 694 26.3439
50.5348 673 25.9422
50.6521 637 25.2389
50.7694 691 26.2869
50.8867 672 25.923
51.004 721 26.8514
51.1212 728 26.9815
51.2384 704 26.533
51.3556 717 26.7769
51.4727 778 27.8927
51.5899 741 27.2213
51.707 793 28.1603
51.824 830 28.8097
51.9411 730 27.0185
52.0581 738 27.1662
52.175 777 27.8747
52.2919 769 27.7308
52.4088 801 28.3019
52.5257 742 27.2397
52.6425 737 27.1477
52.7593 761 27.5862
52.876 820 28.6356
52.9927 767 27.6948
53.1094 805 28.3725
53.226 835 28.8964
53.3426 807 28.4077
53.4591 860 29.3258
53.5756 866 29.4279
53.692 847 29.1033
53.8084 921 30.348
53.9248 910 30.1662
54.0411 970 31.1448
54.1573 917 30.282
54.2735 0 1
54.3896 0 1
54.5057 0 1
54.6217 0 1
54.7377 0 1
54.8537 0 1
54.9695 0 1
55.0853 0 1
55.2011 0 1
55.3168 0 1
55.4324 0 1
57.824 0 1
57.9396 0 1
58.0553 0 1
58.1711 0 1
58.2869 0 1
58.4028 0 1
58.5187 0 1
58.6347 0 1
58.7508 0 1
58.8669 0 1
58.983 1017 31.8904
59.0992 1167 34.1614
59.2155 1111 33.3317
59.3318 1190 34.4964
59.4482 1123 33.5112
59.5646 1211 34.7994
59.681 1236 35.1568
59.7975 1275 35.7071
59.9141 1230 35.0714
60.0306 1231 35.0856
60.1473 1167 34.1614
60.2639 1172 34.2345
60.3807 1119 33.4515
60.4974 1097 33.121
60.6142 1066 32.6497
60.731 1011 31.7962
60.8479 965 31.0644
60.9648 954 30.8869
61.0818 916 30.2655
61.1987 888 29.7993
61.3158 915 30.249
61.4328 931 30.5123
61.5499 978 31.273
61.667 1007 31.7333
61.7841 977 31.257
61.9013 995 31.5436
62.0185 999 31.607
62.1357 1077 32.8177
62.253 1016 31.8748
62.3702 1045 32.3265
62.4875 1029 32.078
62.6049 1068 32.6803
62.7222 1054 32.4654
62.8396 1125 33.541
62.9569 1119 33.4515
63.0743 1230 35.0714
63.1918 1158 34.0294
63.3092 1184 34.4093
63.4267 1208 34.7563
63.5441 1092 33.0454
63.6616 1102 33.1964
63.7791 1057 32.5115
63.8966 1024 32
64.0142 964 31.0483
64.1317 912 30.1993
64.2492 868 29.4618
64.3668 924 30.3974
64.4843 845 29.0689
64.6019 833 28.8617
64.7195 824 28.7054
64.837 855 29.2404
64.9546 914 30.2324
65.0722 913 30.2159
65.1898 945 30.7409
65.3074 928 30.4631
65.4249 907 30.1164
65.5425 939 30.6431
65.6601 887 29.7825
65.7777 1020 31.9374
65.8952 988 31.4325
66.0128 1035 32.1714
66.1304 1033 32.1403
66.2479 1032 32.1248
66.3655 1103 33.2114
66.483 1168 34.176
66.6005 1220 34.9285
66.718 1133 33.6601
66.8355 1154 33.9706
66.953 1185 34.4238
67.0705 1127 33.5708
67.1879 1143 33.8083
67.3054 1098 33.1361
67.4228 1038 32.218
67.5402 970 31.1448
67.6576 899 29.9833
67.7749 830 28.8097
67.8923 831 28.8271
68.0096 799 28.2666
68.1269 822 28.6705
68.2442 803 28.3373
68.3614 837 28.931
68.4787 828 28.775
68.5958 903 30.05
68.713 893 29.8831
68.8302 939 30.6431
68.9473 950 30.8221
69.0643 883 29.7153
69.1814 946 30.7571
69.2984 945 30.7409
69.4154 1023 31.9844
69.5323 973 31.1929
69.6492 996 31.5595
69.7661 1035 32.1714
69.8829 1109 33.3017
69.9997 1142 33.7935
70.1165 1194 34.5543
70.2332 1197 34.5977
70.3499 1307 36.1525
70.4665 1249 35.3412
70.5831 1199 34.6266
70.6996 1214 34.8425
70.8161 1166 34.1467
70.9326 1132 33.6452
71.049 1007 31.7333
71.1653 881 29.6816
71.2817 884 29.7321
71.3979 824 28.7054
71.5141 838 28.9482
71.6303 780 27.9285
71.7464 761 27.5862
71.8624 0 1
71.9784 0 1
72.0944 0 1
72.2102 0 1
72.3261 0 1
72.4418 0 1
72.5575 0 1
72.6732 0 1
75.1054 0 1
75.2209 0 1
75.3365 0 1
75.4521 0 1
75.5678 0 1
75.6835 0 1
75.7993 0 1
75.9151 0 1
76.031 0 1
76.147 1015 31.8591
76.263 1013 31.8277
76.3791 958 30.9516
76.4952 865 29.4109
76.6113 900 30
76.7276 856 29.2575
76.8438 850 29.1548
76.9601 855 29.2404
77.0765 895 29.9166
77.1929 901 30.0167
77.3093 883 29.7153
77.4258 913 30.2159
77.5423 887 29.7825
77.6589 915 30.249
77.7755 945 30.7409
77.8921 911 30.1828
78.0088 933 30.545
78.1256 934 30.5614
78.2423 1019 31.9218
78.3591 952 30.8545
78.4759 979 31.289
78.5928 1063 32.6037
78.7097 1186 34.4384
78.8266 1093 33.0606
78.9436 1211 34.7994
79.0606 1192 34.5254
79.1776 1205 34.7131
79.2946 1174 34.2637
79.4117 1227 35.0286
79.5288 1173 34.2491
79.6459 1126 33.5559
79.7631 1088 32.9848
79.8802 1108 33.2866
79.9974 996 31.5595
80.1147 915 30.249
80.2319 930 30.4959
80.3491 889 29.8161
80.4664 879 29.6479
80.5837 844 29.0517
80.701 868 29.4618
80.8183 843 29.0345
80.9357 872 29.5296
81.053 874 29.5635
81.1704 865 29.4109
81.2877 899 29.9833
81.4051 938 30.6268
81.5225 885 29.7489
81.6399 882 29.6985
81.7573 973 31.1929
81.8747 1012 31.8119
81.9922 965 31.0644
82.1096 981 31.3209
82.227 1050 32.4037
82.3444 1115 33.3916
82.4619 1162 34.0881
82.5793 1250 35.3553
82.6967 1197 34.5977
82.8142 1235 35.1426
82.9316 1216 34.8712
83.049 1331 36.4829
83.1664 1163 34.1028
83.2838 1166 34.1467
83.4012 1099 33.1512
83.5186 1001 31.6386
83.636 962 31.0161
83.7534 914 30.2324
83.8708 908 30.133
83.9881 929 30.4795
84.1055 923 30.3809
84.2228 921 30.348
84.3401 845 29.0689
84.4575 874 29.5635
84.5747 946 30.7571
84.692 969 31.1288
84.8093 989 31.4484
84.9265 1015 31.8591
85.0437 938 30.6268
85.1609 1027 32.0468
85.2781 931 30.5123
85.3952 952 30.8545
85.5123 959 30.9677
85.6294 1105 33.2415
85.7465 1083 32.909
85.8636 1161 34.0735
85.9806 1256 35.4401
86.0976 1280 35.7771
86.2145 1331 36.4829
86.3315 1283 35.819
86.4484 1357 36.8375
86.5652 1286 35.8608
86.682 1337 36.565
86.7988 1358 36.8511
86.9156 1246 35.2987
87.0323 1169 34.1906
87.149 1074 32.7719
87.2657 951 30.8383
87.3823 1039 32.2335
87.4988 962 31.0161
87.6154 952 30.8545
87.7318 997 31.5753
87.8483 1023 31.9844
87.9647 1001 31.6386
88.081 1035 32.1714
88.1973 995 31.5436
88.3136 1034 32.1559
88.4298 1024 32
88.546 1047 32.3574
88.6621 1026 32.0312
88.7781 981 31.3209
88.8942 0 1
89.0101 0 1
89.126 0 1
89.2419 0 1
89.3577 0 1
89.4734 0 1
89.5891 0 1
89.7047 0 1
89.8203 0 1
89.9358 0 1
92.3269 0 1
92.4424 0 1
92.558 0 1
92.6736 0 1
92.7893 0 1
92.905 0 1
93.0208 0 1
93.1366 0 1
93.2525 0 1
93.3685 0 1
93.4845 0 1
93.6005 1006 31.7175
93.7167 934 30.5614
93.8328 951 30.8383
93.949 918 30.2985
94.0653 956 30.9192
94.1816 1004 31.686
94.2979 978 31.273
94.4143 1009 31.7648
94.5307 1059 32.5423
94.6472 1129 33.6006
94.7637 1220 34.9285
94.8803 1165 34.1321
94.9969 1290 35.9166
95.1135 1301 36.0694
95.2302 1295 35.9861
95.3469 1222 34.9571
95.4637 1284 35.8329
95.5805 1270 35.6371
95.6973 1176 34.2929
95.8142 1247 35.3129
95.9311 1187 34.4529
96.048 1068 32.6803
96.1649 1044 32.311
96.2819 1016 31.8748
96.3989 983 31.3528
96.516 1048 32.3728
96.633 1014 31.8434
96.7501 1016 31.8748
96.8673 961 31
96.9844 973 31.1929
97.1016 964 31.0483
97.2188 1012 31.8119
97.336 1027 32.0468
97.4532 946 30.7571
97.5704 961 31
97.6877 938 30.6268
97.805 917 30.282
97.9223 894 29.8998
98.0396 980 31.305
98.1569 1025 32.0156
98.2743 1060 32.5576
98.3916 1088 32.9848
98.509 1104 33.2265
98.6264 1140 33.7639
98.7438 1247 35.3129
98.8612 1274 35.6931
98.9786 1206 34.7275
99.096 1218 34.8999
99.2134 1178 34.322
99.3308 1252 35.3836
99.4482 1217 34.8855
99.5656 1164 34.1174
99.6831 1146 33.8526
99.8005 1044 32.311
99.9179 999 31.607
100.035 1036 32.187
100.153 911 30.1828
100.27 925 30.4138
100.388 921 30.348
100.505 918 30.2985
100.622 1024 32
100.74 898 29.9666
100.857 895 29.9166
100.975 998 31.5911
101.092 956 30.9192
101.209 911 30.1828
101.327 912 30.1993
101.444 900 30
101.561 919 30.315
101.679 953 30.8707
101.796 1017 31.8904
101.913 1025 32.0156
102.03 1181 34.3657
102.148 1196 34.5832
102.265 1192 34.5254
102.382 1370 37.0135
102.499 1243 35.2562
102.616 1306 36.1386
102.733 1196 34.5832
102.851 1227 35.0286
102.968 1288 35.8887
103.085 1247 35.3129
103.202 1168 34.176
103.319 1192 34.5254
103.436 1147 33.8674
103.552 1136 33.7046
103.669 1069 32.6956
103.786 1048 32.3728
103.903 1032 32.1248
104.02 1011 31.7962
104.137 984 31.3688
104.253 1012 31.8119
104.37 1046 32.3419
104.487 1074 32.7719
104.603 1040 32.249
104.72 997 31.5753
104.836 987 31.4166
104.953 1018 31.9061
105.069 988 31.4325
105.186 1051 32.4191
105.302 1132 33.6452
105.418 1214 34.8425
105.535 1221 34.9428
105.651 1291 35.9305
105.767 1302 36.0832
105.883 1275 35.7071
105.999 1273 35.6791
106.115 0 1
106.231 0 1
106.347 0 1
106.463 0 1
106.579 0 1
106.694 0 1
106.81 0 1
106.926 0 1
107.041 0 1
107.157 0 1
109.576 0 1
109.692 0 1
109.807 0 1
109.923 0 1
110.039 0 1
110.155 0 1
110.27 0 1
110.386 0 1
110.502 0 1
110.618 1088 32.9848
110.735 1138 33.7343
110.851 1181 34.3657
110.967 1117 33.4215
111.083 1090 33.0151
111.199 1092 33.0454
111.316 1192 34.5254
111.432 1272 35.6651
111.549 1152 33.9411
111.665 1161 34.0735
111.782 1009 31.7648
111.898 1096 33.1059
112.015 1000 31.6228
112.132 1023 31.9844
112.248 922 30.3645
112.365 928 30.4631
112.482 963 31.0322
112.599 868 29.4618
112.716 885 29.7489
112.832 889 29.8161
112.949 835 28.8964
113.066 799 28.2666
113.183 837 28.931
113.3 802 28.3196
113.417 829 28.7924
113.534 801 28.3019
113.652 865 29.4109
113.769 852 29.189
113.886 863 29.3769
114.003 853 29.2062
114.12 955 30.9031
114.238 919 30.315
114.355 894 29.8998
114.472 972 31.1769
114.589 867 29.4449
114.707 853 29.2062
114.824 910 30.1662
114.942 944 30.7246
115.059 854 29.2233
115.176 917 30.282
115.294 919 30.315
115.411 829 28.7924
115.529 869 29.4788
115.646 815 28.5482
115.764 773 27.8029
115.881 804 28.3549
115.999 746 27.313
116.116 668 25.8457
116.234 696 26.3818
116.351 691 26.2869
116.469 655 25.593
116.586 640 25.2982
116.704 628 25.0599
116.821 610 24.6982
116.939 637 25.2389
117.056 633 25.1595
117.174 683 26.1343
117.291 691 26.2869
117.409 691 26.2869
117.526 739 27.1846
117.644 687 26.2107
117.761 745 27.2947
117.879 778 27.8927
117.996 747 27.3313
118.114 767 27.6948
118.231 741 27.2213
118.349 746 27.313
118.466 848 29.1204
118.584 820 28.6356
118.701 813 28.5132
118.819 824 28.7054
118.936 805 28.3725
119.053 788 28.0713
119.171 785 28.0179
119.288 785 28.0179
119.405 716 26.7582
119.523 778 27.8927
119.64 727 26.9629
119.757 718 26.7955
119.875 723 26.8887
119.992 651 25.5147
120.109 714 26.7208
120.226 644 25.3772
120.343 641 25.318
120.46 642 25.3377
120.578 705 26.5518
120.695 649 25.4755
120.812 746 27.313
120.929 764 27.6405
121.046 773 27.8029
121.163 783 27.9821
121.279 750 27.3861
121.396 791 28.1247
121.513 865 29.4109
121.63 888 29.7993
121.747 860 29.3258
121.863 754 27.4591
121.98 810 28.4605
122.097 803 28.3373
122.213 887 29.7825
122.33 929 30.4795
122.446 954 30.8869
122.563 940 30.6594
122.679 923 30.3809
122.795 934 30.5614
122.912 886 29.7658
123.028 963 31.0322
123.144 930 30.4959
123.26 867 29.4449
123.377 0 1
123.493 0 1
123.609 0 1
123.725 0 1
123.84 0 1
123.956 0 1
124.072 0 1
124.188 0 1
124.303 0 1
124.419 0 1
126.852 0 1
126.968 0 1
127.083 0 1
127.199 0 1
127.315 0 1
127.431 0 1
127.547 0 1
127.663 0 1
127.779 0 1
127.895 0 1
128.011 0 1
128.127 0 1
128.243 0 1
128.359 1139 33.7491
128.476 1051 32.4191
128.592 1044 32.311
128.708 1021 31.9531
128.825 966 31.0805
128.941 1011 31.7962
129.058 886 29.7658
129.174 909 30.1496
129.291 938 30.6268
129.408 964 31.0483
129.524 901 30.0167
129.641 910 30.1662
129.758 886 29.7658
129.875 950 30.8221
129.992 856 29.2575
130.108 872 29.5296
130.225 908 30.133
130.342 966 31.0805
130.459 958 30.9516
130.576 888 29.7993
130.693 806 28.3901
130.81 727 26.9629
130.928 659 25.671
131.045 826 28.7402
131.162 895 29.9166
131.279 992 31.496
131.396 1002 31.6544
131.513 947 30.7734
131.631 959 30.9677
131.748 960 30.9839
131.865 969 31.1288
131.983 872 29.5296
132.1 945 30.7409
132.217 888 29.7993
132.335 834 28.8791
132.452 885 29.7489
132.57 853 29.2062
132.687 796 28.2135
132.804 893 29.8831
132.922 847 29.1033
133.039 749 27.3679
133.157 841 29
133.274 811 28.4781
133.392 797 28.2312
133.509 762 27.6043
133.627 799 28.2666
133.744 766 27.6767
133.862 811 28.4781
133.979 751 27.4044
134.097 781 27.9464
134.214 733 27.074
134.332 544 23.3238
134.449 509 22.561
134.567 624 24.98
134.684 729 27
134.802 775 27.8388
134.919 734 27.0924
135.037 791 28.1247
135.154 789 28.0891
135.272 712 26.6833
135.389 730 27.0185
135.507 701 26.4764
135.624 770 27.7489
135.742 662 25.7294
135.859 684 26.1534
135.977 647 25.4362
136.094 707 26.5895
136.211 664 25.7682
136.329 655 25.593
136.446 625 25
136.564 644 25.3772
136.681 675 25.9808
136.798 616 24.8193
136.915 564 23.7487
137.033 579 24.0624
137.15 623 24.96
137.267 616 24.8193
137.384 599 24.4745
137.502 620 24.8998
137.619 637 25.2389
137.736 575 23.9792
137.853 478 21.8632
137.97 401 20.025
138.087 466 21.587
138.204 593 24.3516
138.321 651 25.5147
138.438 632 25.1396
138.555 693 26.3249
138.672 648 25.4558
138.788 663 25.7488
138.905 631 25.1197
139.022 683 26.1343
139.139 683 26.1343
139.255 731 27.037
139.372 695 26.3629
139.488 757 27.5136
139.605 735 27.1109
139.721 709 26.6271
139.838 720 26.8328
139.954 722 26.8701
140.071 712 26.6833
140.187 745 27.2947
140.303 716 26.7582
140.419 733 27.074
140.535 727 26.9629
140.652 713 26.7021
140.768 0 1
140.884 0 1
141 0 1
141.115 0 1
141.231 0 1
141.347 0 1
141.463 0 1
141.578 0 1
141.694 0 1
144.104 0 1
144.219 0 1
144.335 0 1
144.45 0 1
144.566 0 1
144.682 0 1
144.798 0 1
144.914 0 1
145.03 0 1
145.146 579 24.0624
145.262 597 24.4336
145.378 619 24.8797
145.494 600 24.4949
145.61 590 24.2899
145.726 574 23.9583
145.842 539 23.2164
145.959 548 23.4094
146.075 529 23
146.192 562 23.7065
146.308 513 22.6495
146.425 543 23.3024
146.541 487 22.0681
146.658 427 20.664
146.774 395 19.8746
146.891 465 21.5639
147.008 488 22.0907
147.125 477 21.8403
147.241 511 22.6053
147.358 497 22.2935
147.475 495 22.2486
147.592 472 21.7256
147.709 493 22.2036
147.826 489 22.1133
147.943 491 22.1585
148.06 455 21.3307
148.177 460 21.4476
148.294 463 21.5174
148.411 485 22.0227
148.528 470 21.6795
148.645 474 21.7715
148.762 431 20.7605
148.88 425 20.6155
148.997 445 21.095
149.114 396 19.8997
149.231 376 19.3907
149.349 370 19.2354
149.466 425 20.6155
149.583 382 19.5448
149.701 416 20.3961
149.818 379 19.4679
149.935 358 18.9209
150.053 366 19.1311
150.17 344 18.5472
150.287 368 19.1833
150.405 376 19.3907
150.522 356 18.868
150.64 369 19.2094
150.757 364 19.0788
150.875 368 19.1833
150.992 433 20.8087
151.11 391 19.7737
151.227 429 20.7123
151.344 401 20.025
151.462 381 19.5192
151.579 411 20.2731
151.697 388 19.6977
151.814 376 19.3907
151.932 420 20.4939
152.049 376 19.3907
152.167 402 20.0499
152.284 401 20.025
152.402 397 19.9249
152.519 377 19.4165
152.636 383 19.5704
152.754 407 20.1742
152.871 395 19.8746
152.989 347 18.6279
153.106 385 19.6214
153.223 390 19.7484
153.341 421 20.5183
153.458 396 19.8997
153.575 423 20.567
153.693 379 19.4679
153.81 372 19.2873
153.927 379 19.4679
154.044 374 19.3391
154.162 397 19.9249
154.279 441 21
154.396 462 21.4942
154.513 447 21.1424
154.63 441 21
154.747 472 21.7256
154.864 471 21.7025
154.981 498 22.3159
155.098 507 22.5167
155.215 441 21
155.332 454 21.3073
155.449 469 21.6564
155.566 473 21.7486
155.683 505 22.4722
155.8 456 21.3542
155.917 412 20.2978
156.033 431 20.7605
156.15 0 1
156.267 0 1
156.383 0 1
156.5 0 1
156.617 0 1
156.733 0 1
156.85 0 1
156.966 0 1
157.082 0 1
157.199 0 1
157.315 0 1
157.431 0 1
157.547 0 1
157.664 0 1
157.78 0 1
157.896 0 1
158.012 0 1
158.128 0 1
158.244 0 1
158.359 0 1
158.475 0 1
158.591 0 1
158.706 0 1
