
6.15755 0 1
6.2731 0 1
6.3887 0 1
6.50437 0 1
6.62009 0 1
6.73587 0 1
6.8517 0 1
6.96759 0 1
7.08353 0 1
7.19952 0 1
7.31557 0 1
7.43166 0 1
7.54781 0 1
7.664 0 1
7.78024 0 1
7.89653 0 1
8.01286 0 1
8.12924 0 1
8.24567 0 1
8.36213 0 1
8.47864 0 1
8.59519 0 1
8.71178 0 1
8.82841 0 1
8.94508 0 1
9.06179 0 1
9.17853 0 1
9.29531 0 1
9.41212 0 1
9.52897 0 1
9.64584 0 1
9.76276 0 1
9.8797 0 1
9.99667 0 1
10.1137 0 1
10.2307 0 1
10.3478 0 1
10.4648 0 1
10.5819 0 1
10.6991 0 1
10.8162 0 1
10.9334 0 1
11.0506 0 1
11.1678 0 1
11.285 0 1
11.4023 0 1
11.5196 0 1
11.6369 0 1
11.7542 0 1
11.8715 0 1
11.9888 0 1
12.1062 0 1
12.2235 0 1
12.3409 0 1
12.4582 0 1
12.5756 0 1
12.693 0 1
12.8104 0 1
12.9278 0 1
13.0452 0 1
13.1626 0 1
13.28 0 1
13.3974 0 1
13.5149 0 1
13.6323 0 1
13.7497 0 1
13.8671 0 1
13.9845 0 1
14.1019 0 1
14.2193 0 1
14.3367 0 1
14.4541 0 1
14.5714 0 1
14.6888 0 1
14.8062 0 1
14.9235 0 1
15.0408 0 0
15.1581 0 0
15.2755 0 0
15.3927 0 0
15.51 0 0
15.6273 0 0
15.7445 0 0
15.8617 0 0
15.9789 0 0
16.0961 0 0
16.2132 0 0
16.3304 0 0
16.4475 0 0
16.5646 0 0
16.6816 0 0
16.7986 0 0
16.9156 0 0
17.0326 0 0
17.1496 0 0
17.2665 0 0
17.3833 0 0
17.5002 0 0
17.617 0 0
17.7338 0 0
17.8505 0 0
17.9672 0 0
18.0839 0 0
18.2005 0 0
18.3171 0 0
18.4337 0 0
18.5502 0 0
18.6666 0 0
18.7831 0 0
18.8994 0 0
19.0158 0 0
19.1321 0 0
19.2483 0 0
19.3645 0 0
19.4806 0 0
19.5967 0 0
19.7128 0 0
19.8288 0 0
19.9447 0 0
20.0606 0 1
20.1764 0 1
20.2922 0 1
20.4079 0 1
20.5236 0 1
20.6392 0 1
20.7548 0 1
20.8702 0 1
23.3078 0 1
23.4233 0 1
23.539 0 1
23.6547 0 1
23.7704 0 1
23.8862 0 1
24.0021 0 1
24.118 0 1
24.234 0 1
24.35 0 1
24.4661 1589 39.8623
24.5822 1703 41.2674
24.6984 1720 41.4729
24.8146 1814 42.5911
24.9309 2054 45.3211
25.0472 2227 47.1911
25.1636 2372 48.7032
25.28 2743 52.3737
25.3965 2906 53.9073
25.513 3066 55.3715
25.6296 3220 56.745
25.7462 3498 59.1439
25.8628 3636 60.2993
25.9795 3684 60.696
26.0962 3628 60.2329
26.213 3696 60.7947
26.3298 3577 59.808
26.4466 3565 59.7076
26.5635 3547 59.5567
26.6804 3558 59.649
26.7973 3641 60.3407
26.9143 3682 60.6795
27.0313 3746 61.2046
27.1483 3692 60.7618
27.2653 3712 60.9262
27.3824 3730 61.0737
27.4996 3758 61.3025
27.6167 3678 60.6465
27.7339 3577 59.808
27.8511 3434 58.6003
27.9683 3515 59.2874
28.0855 3372 58.0689
28.2028 3123 55.8838
28.3201 2916 54
28.4374 2715 52.1057
28.5547 2912 53.963
28.6721 3084 55.5338
28.7894 3174 56.3383
28.9068 3325 57.6628
29.0242 3490 59.0762
29.1416 3298 57.4282
29.259 3250 57.0088
29.3764 3280 57.2713
29.4939 3332 57.7235
29.6113 3343 57.8187
29.7288 3470 58.9067
29.8463 3332 57.7235
29.9638 3344 57.8273
30.0812 3450 58.7367
30.1987 3408 58.3781
30.3162 3481 59
30.4337 3569 59.7411
30.5512 3512 59.2621
30.6687 3567 59.7244
30.7862 3628 60.2329
30.9037 3546 59.5483
31.0212 3595 59.9583
31.1387 3703 60.8523
31.2562 3578 59.8164
31.3737 3512 59.2621
31.4912 3285 57.3149
31.6087 3238 56.9034
31.7262 3073 55.4346
31.8436 2881 53.6749
31.9611 2769 52.6213
32.0785 2862 53.4977
32.1959 2991 54.69
32.3134 3057 55.2901
32.4308 3329 57.6975
32.5482 3211 56.6657
32.6655 3252 57.0263
32.7829 3293 57.3847
32.9002 3069 55.3986
33.0176 3123 55.8838
33.1349 3229 56.8243
33.2522 3229 56.8243
33.3694 3276 57.2364
33.4867 3331 57.7148
33.6039 3230 56.8331
33.7211 3413 58.4209
33.8383 3415 58.438
33.9554 3428 58.5491
34.0725 3386 58.1893
34.1896 3598 59.9833
34.3067 3532 59.4306
34.4237 3568 59.7327
34.5407 3501 59.1692
34.6577 3686 60.7124
34.7746 3499 59.1523
34.8915 3513 59.2706
35.0084 3387 58.1979
35.1252 3313 57.5587
35.242 3285 57.3149
35.3587 3129 55.9375
35.4755 2805 52.9623
35.5921 2551 50.5074
35.7088 2653 51.5073
35.8254 2634 51.3225
35.9419 2909 53.9351
36.0584 2902 53.8702
36.1749 3056 55.2811
36.2913 3001 54.7814
36.4077 2975 54.5436
36.524 2774 52.6688
36.6403 2758 52.5167
36.7565 2628 51.264
36.8727 2585 50.8429
36.9889 2407 49.0612
37.1049 2362 48.6004
37.221 0 1
37.3369 0 1
37.4529 0 1
37.5687 0 1
37.6845 0 1
37.8003 0 1
37.916 0 1
38.0316 0 1
38.1472 0 1
40.5851 0 1
40.7008 0 1
40.8164 0 1
40.9322 0 1
41.048 0 1
41.1639 0 1
41.2798 0 1
41.3958 0 1
41.5118 0 1
41.6279 0 1
41.744 1494 38.6523
41.8602 1624 40.2989
41.9765 1739 41.7013
42.0928 1974 44.4297
42.2091 2048 45.2548
42.3255 2116 46
42.4419 2242 47.3498
42.5584 2319 48.156
42.675 2504 50.04
42.7915 2649 51.4684
42.9081 2736 52.3068
43.0248 2847 53.3573
43.1415 2862 53.4977
43.2582 2975 54.5436
43.375 3151 56.1338
43.4918 3043 55.1634
43.6087 3093 55.6147
43.7256 3018 54.9363
43.8425 3150 56.1249
43.9595 3043 55.1634
44.0765 3061 55.3263
44.1935 2908 53.9259
44.3106 2756 52.4976
44.4277 2657 51.5461
44.5448 2517 50.1697
44.6619 2579 50.7839
44.7791 2636 51.342
44.8963 2753 52.469
45.0136 2945 54.2679
45.1308 2868 53.5537
45.2481 2758 52.5167
45.3654 2774 52.6688
45.4827 2771 52.6403
45.6001 2679 51.7591
45.7174 2835 53.2447
45.8348 2734 52.2877
45.9522 2802 52.9339
46.0697 2716 52.1153
46.1871 2876 53.6284
46.3046 3027 55.0182
46.422 3091 55.5968
46.5395 3062 55.3353
46.657 3147 56.0981
46.7745 3302 57.463
46.892 3352 57.8965
47.0096 3264 57.1314
47.1271 3379 58.1292
47.2446 3357 57.9396
47.3622 3319 57.6108
47.4797 3278 57.2538
47.5973 3241 56.9298
47.7149 3308 57.5152
47.8324 3155 56.1694
47.95 2868 53.5537
48.0675 2758 52.5167
48.1851 2672 51.6914
48.3027 2822 53.1225
48.4202 2875 53.619
48.5378 2910 53.9444
48.6554 2930 54.1295
48.7729 2968 54.4794
48.8904 2895 53.8052
49.008 2821 53.1131
49.1255 2727 52.2207
49.243 2693 51.8941
49.3605 2781 52.7352
49.478 2753 52.469
49.5955 2830 53.1977
49.713 2860 53.479
49.8304 2844 53.3292
49.9479 3056 55.2811
50.0653 3159 56.205
50.1827 3325 57.6628
50.3001 3318 57.6021
50.4175 3504 59.1946
50.5348 3486 59.0424
50.6521 3571 59.7578
50.7694 3519 59.3212
50.8867 3511 59.2537
51.004 3592 59.9333
51.1212 3497 59.1354
51.2384 3295 57.4021
51.3556 3235 56.8771
51.4727 3012 54.8817
51.5899 2794 52.8583
51.707 2834 53.2353
51.824 2680 51.7687
51.9411 2877 53.6377
52.0581 2945 54.2679
52.175 2872 53.591
52.2919 2751 52.45
52.4088 2752 52.4595
52.5257 2607 51.0588
52.6425 2505 50.05
52.7593 2493 49.93
52.876 2444 49.4368
52.9927 2500 50
53.1094 2516 50.1597
53.226 2548 50.4777
53.3426 2537 50.3686
53.4591 2566 50.6557
53.5756 2572 50.7149
53.692 2765 52.5833
53.8084 2771 52.6403
53.9248 2672 51.6914
54.0411 2711 52.0673
54.1573 2643 51.4101
54.2735 0 1
54.3896 0 1
54.5057 0 1
54.6217 0 1
54.7377 0 1
54.8537 0 1
54.9695 0 1
55.0853 0 1
55.2011 0 1
55.3168 0 1
55.4324 0 1
57.824 0 1
57.9396 0 1
58.0553 0 1
58.1711 0 1
58.2869 0 1
58.4028 0 1
58.5187 0 1
58.6347 0 1
58.7508 0 1
58.8669 0 1
58.983 2013 44.8665
59.0992 2377 48.7545
59.2155 2748 52.4214
59.3318 2868 53.5537
59.4482 3170 56.3028
59.5646 3389 58.2151
59.681 3636 60.2993
59.7975 3540 59.4979
59.9141 3525 59.3717
60.0306 3517 59.3043
60.1473 3411 58.4038
60.2639 3205 56.6127
60.3807 3266 57.1489
60.4974 3091 55.5968
60.6142 3189 56.4712
60.731 3205 56.6127
60.8479 3368 58.0345
60.9648 3294 57.3934
61.0818 3402 58.3267
61.1987 3500 59.1608
61.3158 3272 57.2014
61.4328 3353 57.9051
61.5499 3126 55.9106
61.667 3078 55.4797
61.7841 3226 56.7979
61.9013 3325 57.6628
62.0185 3420 58.4808
62.1357 3475 58.9491
62.253 3729 61.0655
62.3702 3842 61.9839
62.4875 4103 64.0547
62.6049 4225 65
62.7222 4394 66.2873
62.8396 4444 66.6633
62.9569 4630 68.0441
63.0743 4796 69.2532
63.1918 4748 68.9057
63.3092 4513 67.1789
63.4267 4395 66.2948
63.5441 4190 64.7302
63.6616 3933 62.7136
63.7791 3843 61.9919
63.8966 3623 60.1914
64.0142 3331 57.7148
64.1317 3359 57.9569
64.2492 3336 57.7581
64.3668 3245 56.9649
64.4843 3211 56.6657
64.6019 3291 57.3672
64.7195 3264 57.1314
64.837 3296 57.4108
64.9546 3075 55.4527
65.0722 3081 55.5068
65.1898 3165 56.2583
65.3074 3075 55.4527
65.4249 3126 55.9106
65.5425 3196 56.5332
65.6601 3321 57.6281
65.7777 3387 58.1979
65.8952 3514 59.279
66.0128 3842 61.9839
66.1304 4074 63.8279
66.2479 4386 66.2269
66.3655 4596 67.7938
66.483 4529 67.2978
66.6005 4708 68.6149
66.718 4645 68.1542
66.8355 4554 67.4833
66.953 4418 66.468
67.0705 4353 65.9773
67.1879 3988 63.1506
67.3054 3844 62
67.4228 3583 59.8582
67.5402 3263 57.1227
67.6576 3012 54.8817
67.7749 3012 54.8817
67.8923 2988 54.6626
68.0096 3068 55.3895
68.1269 3181 56.4004
68.2442 3272 57.2014
68.3614 3284 57.3062
68.4787 3119 55.848
68.5958 3086 55.5518
68.713 3059 55.3082
68.8302 2912 53.963
68.9473 2933 54.1572
69.0643 2802 52.9339
69.1814 2889 53.7494
69.2984 2923 54.0648
69.4154 2924 54.074
69.5323 3229 56.8243
69.6492 3395 58.2666
69.7661 3625 60.208
69.8829 3995 63.206
69.9997 3960 62.9285
70.1165 3896 62.4179
70.2332 3782 61.498
70.3499 3786 61.5305
70.4665 3695 60.7865
70.5831 3485 59.0339
70.6996 3249 57
70.8161 3173 56.3294
70.9326 2787 52.792
71.049 2670 51.672
71.1653 2316 48.1248
71.2817 2160 46.4758
71.3979 1912 43.7264
71.5141 1898 43.566
71.6303 1684 41.0366
71.7464 1630 40.3733
71.8624 0 1
71.9784 0 1
72.0944 0 1
72.2102 0 1
72.3261 0 1
72.4418 0 1
72.5575 0 1
72.6732 0 1
75.1054 0 1
75.2209 0 1
75.3365 0 1
75.4521 0 1
75.5678 0 1
75.6835 0 1
75.7993 0 1
75.9151 0 1
76.031 0 1
76.147 2171 46.594
76.263 2287 47.8226
76.3791 2207 46.9787
76.4952 1991 44.6206
76.6113 2037 45.1331
76.7276 2019 44.9333
76.8438 1981 44.5084
76.9601 2087 45.6837
77.0765 2278 47.7284
77.1929 2500 50
77.3093 2608 51.0686
77.4258 2788 52.8015
77.5423 2759 52.5262
77.6589 2734 52.2877
77.7755 2692 51.8845
77.8921 2748 52.4214
78.0088 2560 50.5964
78.1256 2612 51.1077
78.2423 2576 50.7543
78.3591 2678 51.7494
78.4759 2830 53.1977
78.5928 2992 54.6992
78.7097 3255 57.0526
78.8266 3789 61.5549
78.9436 4041 63.5689
79.0606 4058 63.7024
79.1776 4072 63.8122
79.2946 3969 63
79.4117 4168 64.56
79.5288 4086 63.9218
79.6459 3887 62.3458
79.7631 3775 61.441
79.8802 3505 59.203
79.9974 3098 55.6597
80.1147 2953 54.3415
80.2319 2833 53.2259
80.3491 2661 51.5849
80.4664 2529 50.2892
80.5837 2590 50.892
80.701 2596 50.951
80.8183 2706 52.0192
80.9357 2976 54.5527
81.053 3103 55.7046
81.1704 2951 54.3231
81.2877 2889 53.7494
81.4051 2709 52.0481
81.5225 2859 53.4696
81.6399 2791 52.8299
81.7573 2677 51.7397
81.8747 2697 51.9326
81.9922 2682 51.788
82.1096 2857 53.4509
82.227 3230 56.8331
82.3444 3398 58.2924
82.4619 3847 62.0242
82.5793 4108 64.0937
82.6967 4237 65.0922
82.8142 4325 65.7647
82.9316 4247 65.169
83.049 4316 65.6963
83.1664 4247 65.169
83.2838 4009 63.3167
83.4012 3738 61.1392
83.5186 3351 57.8878
83.636 3250 57.0088
83.7534 3097 55.6507
83.8708 2850 53.3854
83.9881 2813 53.0377
84.1055 2714 52.0961
84.2228 2604 51.0294
84.3401 2664 51.614
84.4575 2806 52.9717
84.5747 3125 55.9017
84.692 3420 58.4808
84.8093 3398 58.2924
84.9265 3109 55.7584
85.0437 2972 54.5161
85.1609 2878 53.647
85.2781 2719 52.144
85.3952 2699 51.9519
85.5123 2655 51.5267
85.6294 2742 52.3641
85.7465 2953 54.3415
85.8636 3151 56.1338
85.9806 3395 58.2666
86.0976 3682 60.6795
86.2145 3936 62.7375
86.3315 4093 63.9766
86.4484 4193 64.7534
86.5652 3992 63.1823
86.682 4009 63.3167
86.7988 4037 63.5374
86.9156 3872 62.2254
87.0323 3635 60.291
87.149 3373 58.0775
87.2657 3191 56.4889
87.3823 3000 54.7723
87.4988 2816 53.066
87.6154 2634 51.3225
87.7318 2526 50.2593
87.8483 2307 48.0312
87.9647 2415 49.1426
88.081 2597 50.9608
88.1973 2555 50.547
88.3136 2500 50
88.4298 2252 47.4552
88.546 1944 44.0908
88.6621 1584 39.7995
88.7781 1489 38.5876
88.8942 0 1
89.0101 0 1
89.126 0 1
89.2419 0 1
89.3577 0 1
89.4734 0 1
89.5891 0 1
89.7047 0 1
89.8203 0 1
89.9358 0 1
92.3269 0 1
92.4424 0 1
92.558 0 1
92.6736 0 1
92.7893 0 1
92.905 0 1
93.0208 0 1
93.1366 0 1
93.2525 0 1
93.3685 0 1
93.4845 0 1
93.6005 1744 41.7612
93.7167 2154 46.4112
93.8328 2506 50.06
93.949 2766 52.5928
94.0653 2877 53.6377
94.1816 2939 54.2125
94.2979 2910 53.9444
94.4143 2920 54.037
94.5307 2818 53.0848
94.6472 2784 52.7636
94.7637 2863 53.507
94.8803 3008 54.8452
94.9969 3292 57.376
95.1135 3552 59.5987
95.2302 3678 60.6465
95.3469 4000 63.2456
95.4637 4442 66.6483
95.5805 4423 66.5056
95.6973 4467 66.8356
95.8142 4481 66.9403
95.9311 4543 67.4018
96.048 4280 65.4217
96.1649 4159 64.4903
96.2819 3729 61.0655
96.3989 3494 59.1101
96.516 3211 56.6657
96.633 3078 55.4797
96.7501 3031 55.0545
96.8673 2879 53.6563
96.9844 2758 52.5167
97.1016 2786 52.7826
97.2188 2708 52.0384
97.336 3000 54.7723
97.4532 3263 57.1227
97.5704 3645 60.3738
97.6877 3634 60.2827
97.805 3407 58.3695
97.9223 3247 56.9825
98.0396 3109 55.7584
98.1569 2994 54.7175
98.2743 2911 53.9537
98.3916 2898 53.8331
98.509 2994 54.7175
98.6264 3273 57.2101
98.7438 3385 58.1808
98.8612 3648 60.3987
98.9786 4062 63.7338
99.096 4306 65.6201
99.2134 4432 66.5733
99.3308 4482 66.9477
99.4482 4717 68.6804
99.5656 4670 68.3374
99.6831 4578 67.6609
99.8005 4208 64.8691
99.9179 4123 64.2106
100.035 3803 61.6685
100.153 3461 58.8303
100.27 3340 57.7927
100.388 3134 55.9821
100.505 2847 53.3573
100.622 2839 53.2823
100.74 2811 53.0189
100.857 2982 54.6077
100.975 3304 57.4804
101.092 3656 60.4649
101.209 3642 60.349
101.327 3446 58.7026
101.444 3376 58.1034
101.561 3258 57.0789
101.679 3143 56.0625
101.796 3145 56.0803
101.913 3090 55.5878
102.03 3145 56.0803
102.148 3555 59.6238
102.265 3595 59.9583
102.382 4013 63.3482
102.499 4288 65.4828
102.616 4646 68.1616
102.733 4710 68.6294
102.851 4833 69.5198
102.968 4833 69.5198
103.085 4873 69.8069
103.202 4849 69.6348
103.319 4814 69.383
103.436 4243 65.1383
103.552 4056 63.6867
103.669 3793 61.5873
103.786 3446 58.7026
103.903 3263 57.1227
104.02 3081 55.5068
104.137 2925 54.0833
104.253 2903 53.8795
104.37 2923 54.0648
104.487 3116 55.8211
104.603 3461 58.8303
104.72 3281 57.28
104.836 3032 55.0636
104.953 2767 52.6023
105.069 2625 51.2348
105.186 2516 50.1597
105.302 2371 48.6929
105.418 2387 48.8569
105.535 2237 47.2969
105.651 2233 47.2546
105.767 2251 47.4447
105.883 2311 48.0729
105.999 2383 48.816
106.115 0 1
106.231 0 1
106.347 0 1
106.463 0 1
106.579 0 1
106.694 0 1
106.81 0 1
106.926 0 1
107.041 0 1
107.157 0 1
109.576 0 1
109.692 0 1
109.807 0 1
109.923 0 1
110.039 0 1
110.155 0 1
110.27 0 1
110.386 0 1
110.502 0 1
110.618 1916 43.7721
110.735 2157 46.4435
110.851 2590 50.892
110.967 2662 51.5946
111.083 3017 54.9272
111.199 3178 56.3738
111.316 3479 58.983
111.432 3585 59.8749
111.549 3718 60.9754
111.665 3713 60.9344
111.782 3879 62.2816
111.898 3681 60.6712
112.015 3485 59.0339
112.132 3245 56.9649
112.248 3144 56.0714
112.365 2954 54.3507
112.482 2803 52.9434
112.599 2659 51.5655
112.716 2668 51.6527
112.832 2686 51.8266
112.949 2605 51.0392
113.066 2783 52.7541
113.183 3089 55.5788
113.3 3183 56.4181
113.417 2994 54.7175
113.534 3086 55.5518
113.652 3099 55.6687
113.769 2924 54.074
113.886 2878 53.647
114.003 2919 54.0278
114.12 3005 54.8179
114.238 3193 56.5066
114.355 3378 58.1206
114.472 3949 62.8411
114.589 3906 62.498
114.707 4323 65.7495
114.824 4464 66.8132
114.942 4563 67.55
115.059 4562 67.5426
115.176 4557 67.5056
115.294 4590 67.7495
115.411 4483 66.9552
115.529 4217 64.9384
115.646 3739 61.1474
115.764 3506 59.2115
115.881 3232 56.8507
115.999 3158 56.1961
116.116 3017 54.9272
116.234 2658 51.5558
116.351 2748 52.4214
116.469 2687 51.8363
116.586 2787 52.792
116.704 3007 54.8361
116.821 3189 56.4712
116.939 3156 56.1783
117.056 3191 56.4889
117.174 3157 56.1872
117.291 3165 56.2583
117.409 3135 55.9911
117.526 3116 55.8211
117.644 3006 54.827
117.761 3169 56.2939
117.879 3392 58.2409
117.996 3763 61.3433
118.114 4017 63.3798
118.231 4171 64.5833
118.349 4409 66.4003
118.466 4484 66.9627
118.584 4639 68.1102
118.701 4504 67.1118
118.819 4527 67.283
118.936 4501 67.0895
119.053 4280 65.4217
119.171 4014 63.3561
119.288 3733 61.0983
119.405 3414 58.4294
119.523 3137 56.0089
119.64 2993 54.7083
119.757 3009 54.8544
119.875 2725 52.2015
119.992 2701 51.9711
120.109 2603 51.0196
120.226 2602 51.0098
120.343 2727 52.2207
120.46 2932 54.1479
120.578 2945 54.2679
120.695 2878 53.647
120.812 2818 53.0848
120.929 2907 53.9166
121.046 2761 52.5452
121.163 2781 52.7352
121.279 2675 51.7204
121.396 2712 52.0769
121.513 2841 53.301
121.63 3113 55.7943
121.747 3225 56.7891
121.863 3281 57.28
121.98 3586 59.8832
122.097 3508 59.2284
122.213 3515 59.2874
122.33 3312 57.55
122.446 3253 57.0351
122.563 2975 54.5436
122.679 3022 54.9727
122.795 2783 52.7541
122.912 2492 49.9199
123.028 2284 47.7912
123.144 2116 46
123.26 1916 43.7721
123.377 0 1
123.493 0 1
123.609 0 1
123.725 0 1
123.84 0 1
123.956 0 1
124.072 0 1
124.188 0 1
124.303 0 1
124.419 0 1
126.852 0 1
126.968 0 1
127.083 0 1
127.199 0 1
127.315 0 1
127.431 0 1
127.547 0 1
127.663 0 1
127.779 0 1
127.895 0 1
128.011 0 1
128.127 0 1
128.243 0 1
128.359 3513 59.2706
128.476 3400 58.3095
128.592 3331 57.7148
128.708 3254 57.0438
128.825 3181 56.4004
128.941 3218 56.7274
129.058 2964 54.4426
129.174 2944 54.2586
129.291 2916 54
129.408 2995 54.7266
129.524 3226 56.7979
129.641 3370 58.0517
129.758 3341 57.8014
129.875 3443 58.6771
129.992 3494 59.1101
130.108 3494 59.1101
130.225 3470 58.9067
130.342 3515 59.2874
130.459 3574 59.7829
130.576 3693 60.7701
130.693 3864 62.1611
130.81 4042 63.5767
130.928 4176 64.622
131.045 4378 66.1665
131.162 4318 65.7115
131.279 4495 67.0448
131.396 4338 65.8635
131.513 4308 65.6354
131.631 4128 64.2495
131.748 4038 63.5453
131.865 4090 63.9531
131.983 3874 62.2415
132.1 3729 61.0655
132.217 3613 60.1082
132.335 3532 59.4306
132.452 3381 58.1464
132.57 3274 57.2189
132.687 3201 56.5774
132.804 3006 54.827
132.922 3153 56.1516
133.039 3242 56.9386
133.157 3279 57.2626
133.274 3361 57.9741
133.392 3488 59.0593
133.509 3618 60.1498
133.627 3620 60.1664
133.744 3607 60.0583
133.862 3606 60.05
133.979 3589 59.9083
134.097 3583 59.8582
134.214 3724 61.0246
134.332 3897 62.426
134.449 4023 63.4271
134.567 4089 63.9453
134.684 4226 65.0077
134.802 4274 65.3758
134.919 4206 64.8537
135.037 4299 65.5668
135.154 4179 64.6452
135.272 4186 64.6993
135.389 4098 64.0156
135.507 4106 64.0781
135.624 3934 62.7216
135.742 3837 61.9435
135.859 3641 60.3407
135.977 3575 59.7913
136.094 3341 57.8014
136.211 3234 56.8683
136.329 3242 56.9386
136.446 3202 56.5862
136.564 3298 57.4282
136.681 3397 58.2838
136.798 3434 58.6003
136.915 3486 59.0424
137.033 3555 59.6238
137.15 3762 61.3351
137.267 3633 60.2744
137.384 3603 60.025
137.502 3611 60.0916
137.619 3473 58.9322
137.736 3476 58.9576
137.853 3577 59.808
137.97 3694 60.7783
138.087 3900 62.45
138.204 3977 63.0635
138.321 3858 62.1128
138.438 3908 62.514
138.555 3920 62.6099
138.672 3830 61.887
138.788 3682 60.6795
138.905 3544 59.5315
139.022 3504 59.1946
139.139 3284 57.3062
139.255 3219 56.7362
139.372 3050 55.2268
139.488 2833 53.2259
139.605 2624 51.225
139.721 2523 50.2295
139.838 2381 48.7955
139.954 2180 46.6905
140.071 2147 46.3357
140.187 1907 43.6692
140.303 1892 43.4971
140.419 1760 41.9524
140.535 1622 40.2741
140.652 1704 41.2795
140.768 0 1
140.884 0 1
141 0 1
141.115 0 1
141.231 0 1
141.347 0 1
141.463 0 1
141.578 0 1
141.694 0 1
144.104 0 1
144.219 0 1
144.335 0 1
144.45 0 1
144.566 0 1
144.682 0 1
144.798 0 1
144.914 0 1
145.03 0 1
145.146 2322 48.1871
145.262 2452 49.5177
145.378 2542 50.4183
145.494 2686 51.8266
145.61 2747 52.4118
145.726 2816 53.066
145.842 2828 53.1789
145.959 3005 54.8179
146.075 2900 53.8516
146.192 2989 54.6717
146.308 2932 54.1479
146.425 2811 53.0189
146.541 2964 54.4426
146.658 3047 55.1996
146.774 3136 56
146.891 3341 57.8014
147.008 3399 58.3009
147.125 3334 57.7408
147.241 3388 58.2065
147.358 3516 59.2959
147.475 3341 57.8014
147.592 3527 59.3886
147.709 3440 58.6515
147.826 3431 58.5747
147.943 3185 56.4358
148.06 3304 57.4804
148.177 3071 55.4166
148.294 3104 55.7136
148.411 3161 56.2228
148.528 2989 54.6717
148.645 2888 53.7401
148.762 2888 53.7401
148.88 2986 54.6443
148.997 2978 54.5711
149.114 2818 53.0848
149.231 2988 54.6626
149.349 3007 54.8361
149.466 3234 56.8683
149.583 3093 55.6147
149.701 3083 55.5248
149.818 2937 54.1941
149.935 2914 53.9815
150.053 2981 54.5985
150.17 2926 54.0925
150.287 3073 55.4346
150.405 3188 56.4624
150.522 3303 57.4717
150.64 3418 58.4637
150.757 3445 58.6941
150.875 3563 59.6909
150.992 3633 60.2744
151.11 3502 59.1777
151.227 3604 60.0333
151.344 3540 59.4979
151.462 3548 59.5651
151.579 3527 59.3886
151.697 3458 58.8048
151.814 3356 57.931
151.932 3297 57.4195
152.049 3227 56.8067
152.167 3150 56.1249
152.284 3028 55.0273
152.402 3132 55.9643
152.519 3063 55.3444
152.636 2952 54.3323
152.754 2992 54.6992
152.871 3071 55.4166
152.989 3224 56.7803
153.106 3317 57.5934
153.223 3213 56.6833
153.341 3145 56.0803
153.458 3234 56.8683
153.575 3113 55.7943
153.693 3005 54.8179
153.81 3181 56.4004
153.927 3323 57.6455
154.044 3395 58.2666
154.162 3531 59.4222
154.279 3537 59.4727
154.396 3614 60.1166
154.513 3683 60.6877
154.63 3674 60.6135
154.747 3800 61.6441
154.864 3658 60.4814
154.981 3619 60.1581
155.098 3433 58.5918
155.215 3543 59.5231
155.332 3470 58.9067
155.449 3236 56.8859
155.566 3129 55.9375
155.683 3071 55.4166
155.8 3063 55.3444
155.917 2943 54.2494
156.033 2768 52.6118
156.15 0 1
156.267 0 1
156.383 0 1
156.5 0 1
156.617 0 1
156.733 0 1
156.85 0 1
156.966 0 1
157.082 0 1
157.199 0 1
157.315 0 1
157.431 0 1
157.547 0 1
157.664 0 1
157.78 0 1
157.896 0 1
158.012 0 1
158.128 0 1
158.244 0 1
158.359 0 1
158.475 0 1
158.591 0 1
158.706 0 1
