
6.15755 0 1
6.2731 0 1
6.3887 0 1
6.50437 0 1
6.62009 0 1
6.73587 0 1
6.8517 0 1
6.96759 0 1
7.08353 0 1
7.19952 0 1
7.31557 0 1
7.43166 0 1
7.54781 0 1
7.664 0 1
7.78024 0 1
7.89653 0 1
8.01286 0 1
8.12924 0 1
8.24567 0 1
8.36213 0 1
8.47864 0 1
8.59519 0 1
8.71178 0 1
8.82841 0 1
8.94508 0 1
9.06179 0 1
9.17853 0 1
9.29531 0 1
9.41212 0 1
9.52897 0 1
9.64584 0 1
9.76276 0 1
9.8797 0 1
9.99667 0 1
10.1137 0 1
10.2307 0 1
10.3478 0 1
10.4648 0 1
10.5819 0 1
10.6991 0 1
10.8162 0 1
10.9334 0 1
11.0506 0 1
11.1678 0 1
11.285 0 1
11.4023 0 1
11.5196 0 1
11.6369 0 1
11.7542 0 1
11.8715 0 1
11.9888 0 1
12.1062 0 1
12.2235 0 1
12.3409 0 1
12.4582 0 1
12.5756 0 1
12.693 0 1
12.8104 0 1
12.9278 0 1
13.0452 0 1
13.1626 0 1
13.28 0 1
13.3974 0 1
13.5149 0 1
13.6323 0 1
13.7497 0 1
13.8671 0 1
13.9845 0 1
14.1019 0 1
14.2193 0 1
14.3367 0 1
14.4541 0 1
14.5714 0 1
14.6888 0 1
14.8062 0 1
14.9235 0 1
15.0408 852 29.189
15.1581 857 29.2746
15.2755 886 29.7658
15.3927 919 30.315
15.51 873 29.5466
15.6273 862 29.3598
15.7445 869 29.4788
15.8617 855 29.2404
15.9789 896 29.9333
16.0961 843 29.0345
16.2132 817 28.5832
16.3304 787 28.0535
16.4475 770 27.7489
16.5646 810 28.4605
16.6816 782 27.9643
16.7986 804 28.3549
16.9156 845 29.0689
17.0326 839 28.9655
17.1496 825 28.7228
17.2665 805 28.3725
17.3833 798 28.2489
17.5002 847 29.1033
17.617 802 28.3196
17.7338 856 29.2575
17.8505 861 29.3428
17.9672 849 29.1376
18.0839 791 28.1247
18.2005 843 29.0345
18.3171 752 27.4226
18.4337 772 27.7849
18.5502 774 27.8209
18.6666 786 28.0357
18.7831 835 28.8964
18.8994 774 27.8209
19.0158 732 27.0555
19.1321 724 26.9072
19.2483 686 26.1916
19.3645 707 26.5895
19.4806 709 26.6271
19.5967 676 26
19.7128 584 24.1661
19.8288 536 23.1517
19.9447 463 21.5174
20.0606 0 1
20.1764 0 1
20.2922 0 1
20.4079 0 1
20.5236 0 1
20.6392 0 1
20.7548 0 1
20.8702 0 1
23.3078 0 1
23.4233 0 1
23.539 0 1
23.6547 0 1
23.7704 0 1
23.8862 0 1
24.0021 0 1
24.118 0 1
24.234 0 1
24.35 0 1
24.4661 329 18.1384
24.5822 343 18.5203
24.6984 391 19.7737
24.8146 502 22.4054
24.9309 592 24.3311
25.0472 591 24.3105
25.1636 657 25.632
25.28 702 26.4953
25.3965 805 28.3725
25.513 803 28.3373
25.6296 818 28.6007
25.7462 838 28.9482
25.8628 825 28.7228
25.9795 884 29.7321
26.0962 874 29.5635
26.213 841 29
26.3298 823 28.688
26.4466 785 28.0179
26.5635 790 28.1069
26.6804 728 26.9815
26.7973 759 27.55
26.9143 670 25.8844
27.0313 586 24.2074
27.1483 636 25.219
27.2653 681 26.096
27.3824 729 27
27.4996 806 28.3901
27.6167 762 27.6043
27.7339 761 27.5862
27.8511 777 27.8747
27.9683 801 28.3019
28.0855 778 27.8927
28.2028 709 26.6271
28.3201 733 27.074
28.4374 682 26.1151
28.5547 692 26.3059
28.6721 717 26.7769
28.7894 731 27.037
28.9068 726 26.9444
29.0242 727 26.9629
29.1416 757 27.5136
29.259 781 27.9464
29.3764 739 27.1846
29.4939 704 26.533
29.6113 693 26.3249
29.7288 684 26.1534
29.8463 739 27.1846
29.9638 735 27.1109
30.0812 728 26.9815
30.1987 670 25.8844
30.3162 667 25.8263
30.4337 612 24.7386
30.5512 637 25.2389
30.6687 623 24.96
30.7862 676 26
30.9037 752 27.4226
31.0212 765 27.6586
31.1387 752 27.4226
31.2562 799 28.2666
31.3737 802 28.3196
31.4912 790 28.1069
31.6087 698 26.4197
31.7262 682 26.1151
31.8436 655 25.593
31.9611 638 25.2587
32.0785 698 26.4197
32.1959 670 25.8844
32.3134 666 25.807
32.4308 696 26.3818
32.5482 656 25.6125
32.6655 651 25.5147
32.7829 682 26.1151
32.9002 670 25.8844
33.0176 667 25.8263
33.1349 642 25.3377
33.2522 675 25.9808
33.3694 670 25.8844
33.4867 679 26.0576
33.6039 682 26.1151
33.7211 733 27.074
33.8383 727 26.9629
33.9554 641 25.318
34.0725 613 24.7588
34.1896 590 24.2899
34.3067 628 25.0599
34.4237 677 26.0192
34.5407 696 26.3818
34.6577 735 27.1109
34.7746 761 27.5862
34.8915 693 26.3249
35.0084 727 26.9629
35.1252 738 27.1662
35.242 704 26.533
35.3587 694 26.3439
35.4755 704 26.533
35.5921 627 25.04
35.7088 619 24.8797
35.8254 591 24.3105
35.9419 651 25.5147
36.0584 568 23.8328
36.1749 679 26.0576
36.2913 635 25.1992
36.4077 623 24.96
36.524 577 24.0208
36.6403 536 23.1517
36.7565 544 23.3238
36.8727 508 22.5389
36.9889 418 20.445
37.1049 499 22.3383
37.221 0 1
37.3369 0 1
37.4529 0 1
37.5687 0 1
37.6845 0 1
37.8003 0 1
37.916 0 1
38.0316 0 1
38.1472 0 1
40.5851 0 1
40.7008 0 1
40.8164 0 1
40.9322 0 1
41.048 0 1
41.1639 0 1
41.2798 0 1
41.3958 0 1
41.5118 0 1
41.6279 0 1
41.744 274 16.5529
41.8602 343 18.5203
41.9765 369 19.2094
42.0928 433 20.8087
42.2091 495 22.2486
42.3255 515 22.6936
42.4419 491 22.1585
42.5584 504 22.4499
42.675 476 21.8174
42.7915 540 23.2379
42.9081 464 21.5407
43.0248 459 21.4243
43.1415 451 21.2368
43.2582 491 22.1585
43.375 525 22.9129
43.4918 515 22.6936
43.6087 508 22.5389
43.7256 527 22.9565
43.8425 503 22.4277
43.9595 551 23.4734
44.0765 535 23.1301
44.1935 524 22.891
44.3106 473 21.7486
44.4277 484 22
44.5448 406 20.1494
44.6619 434 20.8327
44.7791 452 21.2603
44.8963 516 22.7156
45.0136 505 22.4722
45.1308 493 22.2036
45.2481 505 22.4722
45.3654 516 22.7156
45.4827 518 22.7596
45.6001 519 22.7816
45.7174 524 22.891
45.8348 547 23.388
45.9522 544 23.3238
46.0697 513 22.6495
46.1871 517 22.7376
46.3046 479 21.8861
46.422 459 21.4243
46.5395 419 20.4695
46.657 430 20.7364
46.7745 457 21.3776
46.892 495 22.2486
47.0096 479 21.8861
47.1271 475 21.7945
47.2446 516 22.7156
47.3622 487 22.0681
47.4797 498 22.3159
47.5973 527 22.9565
47.7149 526 22.9347
47.8324 466 21.587
47.95 447 21.1424
48.0675 407 20.1742
48.1851 434 20.8327
48.3027 462 21.4942
48.4202 487 22.0681
48.5378 533 23.0868
48.6554 487 22.0681
48.7729 540 23.2379
48.8904 519 22.7816
49.008 502 22.4054
49.1255 511 22.6053
49.243 542 23.2809
49.3605 499 22.3383
49.478 501 22.383
49.5955 492 22.1811
49.713 449 21.1896
49.8304 402 20.0499
49.9479 390 19.7484
50.0653 386 19.6469
50.1827 408 20.199
50.3001 398 19.9499
50.4175 430 20.7364
50.5348 439 20.9523
50.6521 508 22.5389
50.7694 480 21.9089
50.8867 444 21.0713
51.004 461 21.4709
51.1212 490 22.1359
51.2384 467 21.6102
51.3556 429 20.7123
51.4727 412 20.2978
51.5899 412 20.2978
51.707 413 20.3224
51.824 487 22.0681
51.9411 467 21.6102
52.0581 482 21.9545
52.175 452 21.2603
52.2919 476 21.8174
52.4088 487 22.0681
52.5257 479 21.8861
52.6425 443 21.0476
52.7593 457 21.3776
52.876 454 21.3073
52.9927 441 21
53.1094 494 22.2261
53.226 446 21.1187
53.3426 462 21.4942
53.4591 390 19.7484
53.5756 382 19.5448
53.692 342 18.4932
53.8084 345 18.5742
53.9248 329 18.1384
54.0411 334 18.2757
54.1573 334 18.2757
54.2735 0 1
54.3896 0 1
54.5057 0 1
54.6217 0 1
54.7377 0 1
54.8537 0 1
54.9695 0 1
55.0853 0 1
55.2011 0 1
55.3168 0 1
55.4324 0 1
57.824 0 1
57.9396 0 1
58.0553 0 1
58.1711 0 1
58.2869 0 1
58.4028 0 1
58.5187 0 1
58.6347 0 1
58.7508 0 1
58.8669 0 1
58.983 406 20.1494
59.0992 514 22.6716
59.2155 617 24.8395
59.3318 709 26.6271
59.4482 792 28.1425
59.5646 802 28.3196
59.681 850 29.1548
59.7975 856 29.2575
59.9141 809 28.4429
60.0306 873 29.5466
60.1473 877 29.6142
60.2639 788 28.0713
60.3807 819 28.6182
60.4974 927 30.4467
60.6142 904 30.0666
60.731 848 29.1204
60.8479 860 29.3258
60.9648 859 29.3087
61.0818 817 28.5832
61.1987 728 26.9815
61.3158 786 28.0357
61.4328 782 27.9643
61.5499 834 28.8791
61.667 759 27.55
61.7841 751 27.4044
61.9013 636 25.219
62.0185 654 25.5734
62.1357 623 24.96
62.253 612 24.7386
62.3702 662 25.7294
62.4875 607 24.6374
62.6049 572 23.9165
62.7222 625 25
62.8396 608 24.6577
62.9569 585 24.1868
63.0743 575 23.9792
63.1918 615 24.7992
63.3092 569 23.8537
63.4267 541 23.2594
63.5441 579 24.0624
63.6616 505 22.4722
63.7791 526 22.9347
63.8966 503 22.4277
64.0142 491 22.1585
64.1317 546 23.3666
64.2492 530 23.0217
64.3668 521 22.8254
64.4843 534 23.1084
64.6019 545 23.3452
64.7195 535 23.1301
64.837 556 23.5797
64.9546 515 22.6936
65.0722 531 23.0434
65.1898 521 22.8254
65.3074 498 22.3159
65.4249 517 22.7376
65.5425 518 22.7596
65.6601 475 21.7945
65.7777 497 22.2935
65.8952 477 21.8403
66.0128 496 22.2711
66.1304 534 23.1084
66.2479 503 22.4277
66.3655 504 22.4499
66.483 564 23.7487
66.6005 539 23.2164
66.718 530 23.0217
66.8355 515 22.6936
66.953 521 22.8254
67.0705 518 22.7596
67.1879 508 22.5389
67.3054 506 22.4944
67.4228 512 22.6274
67.5402 496 22.2711
67.6576 538 23.1948
67.7749 531 23.0434
67.8923 534 23.1084
68.0096 533 23.0868
68.1269 520 22.8035
68.2442 506 22.4944
68.3614 533 23.0868
68.4787 516 22.7156
68.5958 490 22.1359
68.713 533 23.0868
68.8302 479 21.8861
68.9473 494 22.2261
69.0643 498 22.3159
69.1814 452 21.2603
69.2984 475 21.7945
69.4154 426 20.6398
69.5323 473 21.7486
69.6492 456 21.3542
69.7661 447 21.1424
69.8829 538 23.1948
69.9997 514 22.6716
70.1165 485 22.0227
70.2332 480 21.9089
70.3499 470 21.6795
70.4665 454 21.3073
70.5831 373 19.3132
70.6996 375 19.3649
70.8161 359 18.9473
70.9326 347 18.6279
71.049 272 16.4924
71.1653 312 17.6635
71.2817 268 16.3707
71.3979 243 15.5885
71.5141 239 15.4596
71.6303 230 15.1658
71.7464 192 13.8564
71.8624 0 1
71.9784 0 1
72.0944 0 1
72.2102 0 1
72.3261 0 1
72.4418 0 1
72.5575 0 1
72.6732 0 1
75.1054 0 1
75.2209 0 1
75.3365 0 1
75.4521 0 1
75.5678 0 1
75.6835 0 1
75.7993 0 1
75.9151 0 1
76.031 0 1
76.147 310 17.6068
76.263 334 18.2757
76.3791 394 19.8494
76.4952 362 19.0263
76.6113 410 20.2485
76.7276 437 20.9045
76.8438 438 20.9284
76.9601 428 20.6882
77.0765 417 20.4206
77.1929 434 20.8327
77.3093 378 19.4422
77.4258 417 20.4206
77.5423 408 20.199
77.6589 422 20.5426
77.7755 460 21.4476
77.8921 401 20.025
78.0088 418 20.445
78.1256 404 20.0998
78.2423 362 19.0263
78.3591 390 19.7484
78.4759 372 19.2873
78.5928 352 18.7617
78.7097 398 19.9499
78.8266 401 20.025
78.9436 422 20.5426
79.0606 431 20.7605
79.1776 460 21.4476
79.2946 431 20.7605
79.4117 482 21.9545
79.5288 423 20.567
79.6459 426 20.6398
79.7631 412 20.2978
79.8802 418 20.445
79.9974 435 20.8567
80.1147 451 21.2368
80.2319 420 20.4939
80.3491 424 20.5913
80.4664 436 20.8806
80.5837 462 21.4942
80.701 450 21.2132
80.8183 438 20.9284
80.9357 478 21.8632
81.053 449 21.1896
81.1704 467 21.6102
81.2877 461 21.4709
81.4051 415 20.3715
81.5225 486 22.0454
81.6399 469 21.6564
81.7573 424 20.5913
81.8747 414 20.347
81.9922 395 19.8746
82.1096 404 20.0998
82.227 403 20.0749
82.3444 380 19.4936
82.4619 426 20.6398
82.5793 437 20.9045
82.6967 446 21.1187
82.8142 488 22.0907
82.9316 456 21.3542
83.049 453 21.2838
83.1664 437 20.9045
83.2838 451 21.2368
83.4012 443 21.0476
83.5186 441 21
83.636 447 21.1424
83.7534 387 19.6723
83.8708 463 21.5174
83.9881 472 21.7256
84.1055 467 21.6102
84.2228 462 21.4942
84.3401 447 21.1424
84.4575 434 20.8327
84.5747 461 21.4709
84.692 467 21.6102
84.8093 475 21.7945
84.9265 420 20.4939
85.0437 420 20.4939
85.1609 435 20.8567
85.2781 410 20.2485
85.3952 408 20.199
85.5123 437 20.9045
85.6294 431 20.7605
85.7465 430 20.7364
85.8636 397 19.9249
85.9806 458 21.4009
86.0976 412 20.2978
86.2145 460 21.4476
86.3315 479 21.8861
86.4484 467 21.6102
86.5652 478 21.8632
86.682 471 21.7025
86.7988 487 22.0681
86.9156 444 21.0713
87.0323 437 20.9045
87.149 474 21.7715
87.2657 518 22.7596
87.3823 496 22.2711
87.4988 429 20.7123
87.6154 436 20.8806
87.7318 426 20.6398
87.8483 407 20.1742
87.9647 366 19.1311
88.081 380 19.4936
88.1973 342 18.4932
88.3136 296 17.2047
88.4298 299 17.2916
88.546 263 16.2173
88.6621 247 15.7162
88.7781 275 16.5831
88.8942 0 1
89.0101 0 1
89.126 0 1
89.2419 0 1
89.3577 0 1
89.4734 0 1
89.5891 0 1
89.7047 0 1
89.8203 0 1
89.9358 0 1
92.3269 0 1
92.4424 0 1
92.558 0 1
92.6736 0 1
92.7893 0 1
92.905 0 1
93.0208 0 1
93.1366 0 1
93.2525 0 1
93.3685 0 1
93.4845 0 1
93.6005 392 19.799
93.7167 345 18.5742
93.8328 418 20.445
93.949 463 21.5174
94.0653 452 21.2603
94.1816 460 21.4476
94.2979 457 21.3776
94.4143 446 21.1187
94.5307 437 20.9045
94.6472 473 21.7486
94.7637 418 20.445
94.8803 415 20.3715
94.9969 460 21.4476
95.1135 454 21.3073
95.2302 463 21.5174
95.3469 481 21.9317
95.4637 486 22.0454
95.5805 518 22.7596
95.6973 462 21.4942
95.8142 463 21.5174
95.9311 458 21.4009
96.048 455 21.3307
96.1649 452 21.2603
96.2819 523 22.8692
96.3989 459 21.4243
96.516 513 22.6495
96.633 498 22.3159
96.7501 534 23.1084
96.8673 490 22.1359
96.9844 509 22.561
97.1016 468 21.6333
97.2188 442 21.0238
97.336 465 21.5639
97.4532 451 21.2368
97.5704 486 22.0454
97.6877 485 22.0227
97.805 491 22.1585
97.9223 533 23.0868
98.0396 486 22.0454
98.1569 462 21.4942
98.2743 473 21.7486
98.3916 486 22.0454
98.509 474 21.7715
98.6264 478 21.8632
98.7438 477 21.8403
98.8612 487 22.0681
98.9786 519 22.7816
99.096 561 23.6854
99.2134 538 23.1948
99.3308 519 22.7816
99.4482 534 23.1084
99.5656 524 22.891
99.6831 522 22.8473
99.8005 542 23.2809
99.9179 532 23.0651
100.035 523 22.8692
100.153 542 23.2809
100.27 569 23.8537
100.388 552 23.4947
100.505 559 23.6432
100.622 519 22.7816
100.74 494 22.2261
100.857 491 22.1585
100.975 506 22.4944
101.092 519 22.7816
101.209 549 23.4307
101.327 562 23.7065
101.444 517 22.7376
101.561 540 23.2379
101.679 505 22.4722
101.796 556 23.5797
101.913 547 23.388
102.03 513 22.6495
102.148 490 22.1359
102.265 510 22.5832
102.382 512 22.6274
102.499 535 23.1301
102.616 566 23.7908
102.733 583 24.1454
102.851 576 24
102.968 595 24.3926
103.085 580 24.0832
103.202 501 22.383
103.319 575 23.9792
103.436 574 23.9583
103.552 559 23.6432
103.669 565 23.7697
103.786 600 24.4949
103.903 556 23.5797
104.02 608 24.6577
104.137 598 24.454
104.253 556 23.5797
104.37 595 24.3926
104.487 604 24.5764
104.603 560 23.6643
104.72 548 23.4094
104.836 532 23.0651
104.953 567 23.8118
105.069 511 22.6053
105.186 528 22.9783
105.302 498 22.3159
105.418 458 21.4009
105.535 411 20.2731
105.651 378 19.4422
105.767 364 19.0788
105.883 317 17.8045
105.999 258 16.0624
106.115 0 1
106.231 0 1
106.347 0 1
106.463 0 1
106.579 0 1
106.694 0 1
106.81 0 1
106.926 0 1
107.041 0 1
107.157 0 1
109.576 0 1
109.692 0 1
109.807 0 1
109.923 0 1
110.039 0 1
110.155 0 1
110.27 0 1
110.386 0 1
110.502 0 1
110.618 281 16.7631
110.735 345 18.5742
110.851 356 18.868
110.967 388 19.6977
111.083 452 21.2603
111.199 520 22.8035
111.316 521 22.8254
111.432 499 22.3383
111.549 569 23.8537
111.665 559 23.6432
111.782 523 22.8692
111.898 502 22.4054
112.015 536 23.1517
112.132 529 23
112.248 560 23.6643
112.365 565 23.7697
112.482 562 23.7065
112.599 546 23.3666
112.716 530 23.0217
112.832 581 24.1039
112.949 520 22.8035
113.066 506 22.4944
113.183 522 22.8473
113.3 467 21.6102
113.417 500 22.3607
113.534 501 22.383
113.652 484 22
113.769 508 22.5389
113.886 498 22.3159
114.003 512 22.6274
114.12 511 22.6053
114.238 458 21.4009
114.355 449 21.1896
114.472 452 21.2603
114.589 439 20.9523
114.707 466 21.587
114.824 511 22.6053
114.942 519 22.7816
115.059 527 22.9565
115.176 606 24.6171
115.294 472 21.7256
115.411 478 21.8632
115.529 506 22.4944
115.646 498 22.3159
115.764 466 21.587
115.881 520 22.8035
115.999 506 22.4944
116.116 487 22.0681
116.234 499 22.3383
116.351 492 22.1811
116.469 474 21.7715
116.586 491 22.1585
116.704 452 21.2603
116.821 477 21.8403
116.939 459 21.4243
117.056 452 21.2603
117.174 499 22.3383
117.291 503 22.4277
117.409 498 22.3159
117.526 460 21.4476
117.644 471 21.7025
117.761 474 21.7715
117.879 462 21.4942
117.996 419 20.4695
118.114 464 21.5407
118.231 440 20.9762
118.349 467 21.6102
118.466 474 21.7715
118.584 502 22.4054
118.701 480 21.9089
118.819 484 22
118.936 473 21.7486
119.053 482 21.9545
119.171 474 21.7715
119.288 475 21.7945
119.405 456 21.3542
119.523 478 21.8632
119.64 491 22.1585
119.757 447 21.1424
119.875 469 21.6564
119.992 466 21.587
120.109 478 21.8632
120.226 456 21.3542
120.343 442 21.0238
120.46 465 21.5639
120.578 422 20.5426
120.695 440 20.9762
120.812 441 21
120.929 405 20.1246
121.046 492 22.1811
121.163 430 20.7364
121.279 434 20.8327
121.396 417 20.4206
121.513 396 19.8997
121.63 384 19.5959
121.747 377 19.4165
121.863 397 19.9249
121.98 388 19.6977
122.097 334 18.2757
122.213 387 19.6723
122.33 384 19.5959
122.446 343 18.5203
122.563 325 18.0278
122.679 305 17.4642
122.795 307 17.5214
122.912 288 16.9706
123.028 280 16.7332
123.144 246 15.6844
123.26 280 16.7332
123.377 0 1
123.493 0 1
123.609 0 1
123.725 0 1
123.84 0 1
123.956 0 1
124.072 0 1
124.188 0 1
124.303 0 1
124.419 0 1
126.852 0 1
126.968 0 1
127.083 0 1
127.199 0 1
127.315 0 1
127.431 0 1
127.547 0 1
127.663 0 1
127.779 0 1
127.895 0 1
128.011 0 1
128.127 0 1
128.243 0 1
128.359 454 21.3073
128.476 480 21.9089
128.592 482 21.9545
128.708 491 22.1585
128.825 530 23.0217
128.941 478 21.8632
129.058 487 22.0681
129.174 504 22.4499
129.291 461 21.4709
129.408 517 22.7376
129.524 465 21.5639
129.641 518 22.7596
129.758 498 22.3159
129.875 556 23.5797
129.992 539 23.2164
130.108 533 23.0868
130.225 540 23.2379
130.342 515 22.6936
130.459 477 21.8403
130.576 487 22.0681
130.693 490 22.1359
130.81 509 22.561
130.928 503 22.4277
131.045 582 24.1247
131.162 567 23.8118
131.279 663 25.7488
131.396 635 25.1992
131.513 614 24.779
131.631 722 26.8701
131.748 681 26.096
131.865 728 26.9815
131.983 649 25.4755
132.1 702 26.4953
132.217 748 27.3496
132.335 772 27.7849
132.452 816 28.5657
132.57 831 28.8271
132.687 908 30.133
132.804 915 30.249
132.922 926 30.4302
133.039 900 30
133.157 889 29.8161
133.274 967 31.0966
133.392 1017 31.8904
133.509 1013 31.8277
133.627 959 30.9677
133.744 929 30.4795
133.862 924 30.3974
133.979 933 30.545
134.097 907 30.1164
134.214 801 28.3019
134.332 890 29.8329
134.449 887 29.7825
134.567 858 29.2916
134.684 943 30.7083
134.802 994 31.5278
134.919 917 30.282
135.037 961 31
135.154 937 30.6105
135.272 924 30.3974
135.389 897 29.95
135.507 830 28.8097
135.624 838 28.9482
135.742 919 30.315
135.859 945 30.7409
135.977 945 30.7409
136.094 900 30
136.211 972 31.1769
136.329 951 30.8383
136.446 975 31.225
136.564 1003 31.6702
136.681 976 31.241
136.798 1016 31.8748
136.915 972 31.1769
137.033 968 31.1127
137.15 1000 31.6228
137.267 882 29.6985
137.384 959 30.9677
137.502 1011 31.7962
137.619 919 30.315
137.736 885 29.7489
137.853 840 28.9828
137.97 905 30.0832
138.087 872 29.5296
138.204 919 30.315
138.321 919 30.315
138.438 1002 31.6544
138.555 977 31.257
138.672 982 31.3369
138.788 1000 31.6228
138.905 1060 32.5576
139.022 930 30.4959
139.139 853 29.2062
139.255 806 28.3901
139.372 760 27.5681
139.488 773 27.8029
139.605 778 27.8927
139.721 724 26.9072
139.838 759 27.55
139.954 700 26.4575
140.071 608 24.6577
140.187 589 24.2693
140.303 575 23.9792
140.419 577 24.0208
140.535 555 23.5584
140.652 556 23.5797
140.768 0 1
140.884 0 1
141 0 1
141.115 0 1
141.231 0 1
141.347 0 1
141.463 0 1
141.578 0 1
141.694 0 1
144.104 0 1
144.219 0 1
144.335 0 1
144.45 0 1
144.566 0 1
144.682 0 1
144.798 0 1
144.914 0 1
145.03 0 1
145.146 1125 33.541
145.262 1225 35
145.378 1206 34.7275
145.494 1239 35.1994
145.61 1353 36.7831
145.726 1449 38.0657
145.842 1430 37.8153
145.959 1462 38.2361
146.075 1445 38.0132
146.192 1527 39.0768
146.308 1568 39.598
146.425 1568 39.598
146.541 1550 39.37
146.658 1514 38.9102
146.774 1536 39.1918
146.891 1591 39.8873
147.008 1627 40.3361
147.125 1498 38.704
147.241 1456 38.1576
147.358 1615 40.1871
147.475 1729 41.5812
147.592 1837 42.8602
147.709 1785 42.2493
147.826 1754 41.8808
147.943 1717 41.4367
148.06 1702 41.2553
148.177 1698 41.2068
148.294 1703 41.2674
148.411 1817 42.6263
148.528 1785 42.2493
148.645 1812 42.5676
148.762 1816 42.6146
148.88 1827 42.7434
148.997 1846 42.9651
149.114 1848 42.9884
149.231 1806 42.4971
149.349 1875 43.3013
149.466 1801 42.4382
149.583 1765 42.0119
149.701 1739 41.7013
149.818 1638 40.4722
149.935 1662 40.7676
150.053 1588 39.8497
150.17 1548 39.3446
150.287 1564 39.5474
150.405 1517 38.9487
150.522 1486 38.5487
150.64 1580 39.7492
150.757 1397 37.3765
150.875 1399 37.4032
150.992 1521 39
151.11 1503 38.7685
151.227 1520 38.9872
151.344 1582 39.7744
151.462 1559 39.4842
151.579 1456 38.1576
151.697 1499 38.7169
151.814 1476 38.4187
151.932 1455 38.1445
152.049 1514 38.9102
152.167 1544 39.2938
152.284 1505 38.7943
152.402 1618 40.2244
152.519 1517 38.9487
152.636 1518 38.9615
152.754 1564 39.5474
152.871 1467 38.3014
152.989 1521 39
153.106 1460 38.2099
153.223 1458 38.1838
153.341 1481 38.4838
153.458 1436 37.8946
153.575 1390 37.2827
153.693 1311 36.2077
153.81 1291 35.9305
153.927 1302 36.0832
154.044 1350 36.7423
154.162 1250 35.3553
154.279 1205 34.7131
154.396 1165 34.1321
154.513 1246 35.2987
154.63 1364 36.9324
154.747 1420 37.6829
154.864 1445 38.0132
154.981 1478 38.4448
155.098 1347 36.7015
155.215 1407 37.51
155.332 1335 36.5377
155.449 1395 37.3497
155.566 1410 37.55
155.683 1405 37.4833
155.8 1466 38.2884
155.917 1400 37.4166
156.033 1414 37.6032
156.15 0 1
156.267 0 1
156.383 0 1
156.5 0 1
156.617 0 1
156.733 0 1
156.85 0 1
156.966 0 1
157.082 0 1
157.199 0 1
157.315 0 1
157.431 0 1
157.547 0 1
157.664 0 1
157.78 0 1
157.896 0 1
158.012 0 1
158.128 0 1
158.244 0 1
158.359 0 1
158.475 0 1
158.591 0 1
158.706 0 1
