
6.15755 0 1
6.2731 0 1
6.3887 0 1
6.50437 0 1
6.62009 0 1
6.73587 0 1
6.8517 0 1
6.96759 0 1
7.08353 0 1
7.19952 0 1
7.31557 0 1
7.43166 0 1
7.54781 0 1
7.664 0 1
7.78024 0 1
7.89653 0 1
8.01286 0 1
8.12924 0 1
8.24567 0 1
8.36213 0 1
8.47864 0 1
8.59519 0 1
8.71178 0 1
8.82841 0 1
8.94508 0 1
9.06179 0 1
9.17853 0 1
9.29531 0 1
9.41212 0 1
9.52897 0 1
9.64584 0 1
9.76276 0 1
9.8797 0 1
9.99667 0 1
10.1137 0 1
10.2307 0 1
10.3478 0 1
10.4648 0 1
10.5819 0 1
10.6991 0 1
10.8162 0 1
10.9334 0 1
11.0506 0 1
11.1678 0 1
11.285 0 1
11.4023 0 1
11.5196 0 1
11.6369 0 1
11.7542 0 1
11.8715 0 1
11.9888 0 1
12.1062 0 1
12.2235 0 1
12.3409 0 1
12.4582 0 1
12.5756 0 1
12.693 0 1
12.8104 0 1
12.9278 0 1
13.0452 0 1
13.1626 0 1
13.28 0 1
13.3974 0 1
13.5149 0 1
13.6323 0 1
13.7497 0 1
13.8671 0 1
13.9845 0 1
14.1019 0 1
14.2193 0 1
14.3367 0 1
14.4541 0 1
14.5714 0 1
14.6888 0 1
14.8062 0 1
14.9235 0 1
15.0408 0 0
15.1581 0 0
15.2755 0 0
15.3927 0 0
15.51 0 0
15.6273 0 0
15.7445 0 0
15.8617 0 0
15.9789 0 0
16.0961 0 0
16.2132 0 0
16.3304 0 0
16.4475 0 0
16.5646 0 0
16.6816 0 0
16.7986 0 0
16.9156 0 0
17.0326 0 0
17.1496 0 0
17.2665 0 0
17.3833 0 0
17.5002 0 0
17.617 0 0
17.7338 0 0
17.8505 0 0
17.9672 0 0
18.0839 0 0
18.2005 0 0
18.3171 0 0
18.4337 0 0
18.5502 0 0
18.6666 0 0
18.7831 0 0
18.8994 0 0
19.0158 0 0
19.1321 0 0
19.2483 0 0
19.3645 0 0
19.4806 0 0
19.5967 0 0
19.7128 0 0
19.8288 0 0
19.9447 0 0
20.0606 0 1
20.1764 0 1
20.2922 0 1
20.4079 0 1
20.5236 0 1
20.6392 0 1
20.7548 0 1
20.8702 0 1
23.3078 0 1
23.4233 0 1
23.539 0 1
23.6547 0 1
23.7704 0 1
23.8862 0 1
24.0021 0 1
24.118 0 1
24.234 0 1
24.35 0 1
24.4661 1383 37.1887
24.5822 1499 38.7169
24.6984 1637 40.4599
24.8146 1882 43.382
24.9309 2152 46.3897
25.0472 2469 49.689
25.1636 2681 51.7784
25.28 2879 53.6563
25.3965 2956 54.3691
25.513 2841 53.301
25.6296 2990 54.6809
25.7462 2917 54.0093
25.8628 2830 53.1977
25.9795 2886 53.7215
26.0962 2988 54.6626
26.213 3022 54.9727
26.3298 3047 55.1996
26.4466 3058 55.2992
26.5635 3057 55.2901
26.6804 2916 54
26.7973 2963 54.4334
26.9143 2812 53.0283
27.0313 2768 52.6118
27.1483 2835 53.2447
27.2653 2714 52.0961
27.3824 2667 51.643
27.4996 2659 51.5655
27.6167 2473 49.7293
27.7339 2342 48.3942
27.8511 2492 49.9199
27.9683 2683 51.7977
28.0855 2726 52.2111
28.2028 2837 53.2635
28.3201 2757 52.5071
28.4374 2641 51.3907
28.5547 2669 51.6624
28.6721 2812 53.0283
28.7894 2733 52.2781
28.9068 2765 52.5833
29.0242 2829 53.1883
29.1416 2786 52.7826
29.259 2859 53.4696
29.3764 2720 52.1536
29.4939 2733 52.2781
29.6113 2617 51.1566
29.7288 2646 51.4393
29.8463 2599 50.9804
29.9638 2577 50.7642
30.0812 2616 51.1468
30.1987 2630 51.2835
30.3162 2695 51.9134
30.4337 2731 52.259
30.5512 2812 53.0283
30.6687 2766 52.5928
30.7862 2762 52.5547
30.9037 2554 50.5371
31.0212 2419 49.1833
31.1387 2530 50.2991
31.2562 2616 51.1468
31.3737 2669 51.6624
31.4912 2845 53.3385
31.6087 2779 52.7162
31.7262 2738 52.3259
31.8436 2772 52.6498
31.9611 2726 52.2111
32.0785 2800 52.915
32.1959 2723 52.1824
32.3134 2553 50.5272
32.4308 2690 51.8652
32.5482 2698 51.9423
32.6655 2526 50.2593
32.7829 2462 49.6185
32.9002 2618 51.1664
33.0176 2400 48.9898
33.1349 2386 48.8467
33.2522 2351 48.4871
33.3694 2392 48.9081
33.4867 2469 49.689
33.6039 2494 49.94
33.7211 2545 50.448
33.8383 2553 50.5272
33.9554 2579 50.7839
34.0725 2637 51.3517
34.1896 2673 51.7011
34.3067 2644 51.4198
34.4237 2654 51.517
34.5407 2472 49.7192
34.6577 2539 50.3885
34.7746 2540 50.3984
34.8915 2451 49.5076
35.0084 2556 50.5569
35.1252 2873 53.6004
35.242 2736 52.3068
35.3587 2734 52.2877
35.4755 2646 51.4393
35.5921 2620 51.1859
35.7088 2626 51.2445
35.8254 2425 49.2443
35.9419 2407 49.0612
36.0584 2380 48.7852
36.1749 2245 47.3814
36.2913 2260 47.5395
36.4077 2157 46.4435
36.524 2099 45.8148
36.6403 1939 44.0341
36.7565 1690 41.1096
36.8727 1617 40.2119
36.9889 1480 38.4708
37.1049 1521 39
37.221 0 1
37.3369 0 1
37.4529 0 1
37.5687 0 1
37.6845 0 1
37.8003 0 1
37.916 0 1
38.0316 0 1
38.1472 0 1
40.5851 0 1
40.7008 0 1
40.8164 0 1
40.9322 0 1
41.048 0 1
41.1639 0 1
41.2798 0 1
41.3958 0 1
41.5118 0 1
41.6279 0 1
41.744 2018 44.9222
41.8602 2594 50.9313
41.9765 3115 55.8122
42.0928 3327 57.6802
42.2091 3383 58.1636
42.3255 3465 58.8643
42.4419 3423 58.5064
42.5584 3437 58.6259
42.675 3520 59.3296
42.7915 3604 60.0333
42.9081 3708 60.8933
43.0248 3802 61.6604
43.1415 3726 61.041
43.2582 3639 60.3241
43.375 3253 57.0351
43.4918 3288 57.3411
43.6087 3443 58.6771
43.7256 3475 58.9491
43.8425 3572 59.7662
43.9595 3673 60.6053
44.0765 3634 60.2827
44.1935 3684 60.696
44.3106 3526 59.3801
44.4277 3436 58.6174
44.5448 3378 58.1206
44.6619 3282 57.2887
44.7791 3201 56.5774
44.8963 3030 55.0454
45.0136 2959 54.3967
45.1308 2846 53.3479
45.2481 2684 51.8073
45.3654 2626 51.2445
45.4827 2503 50.03
45.6001 2452 49.5177
45.7174 2403 49.0204
45.8348 2268 47.6235
45.9522 2296 47.9166
46.0697 2233 47.2546
46.1871 2314 48.1041
46.3046 2334 48.3115
46.422 2291 47.8644
46.5395 2301 47.9687
46.657 2338 48.3529
46.7745 2374 48.7237
46.892 2203 46.9361
47.0096 2061 45.3982
47.1271 2234 47.2652
47.2446 2244 47.3709
47.3622 2411 49.1019
47.4797 2286 47.8121
47.5973 2254 47.4763
47.7149 2268 47.6235
47.8324 2304 48
47.95 2247 47.4025
48.0675 2253 47.4658
48.1851 2251 47.4447
48.3027 2170 46.5833
48.4202 2221 47.1275
48.5378 2099 45.8148
48.6554 2115 45.9891
48.7729 2001 44.7325
48.8904 2016 44.8999
49.008 1964 44.317
49.1255 1978 44.4747
49.243 2029 45.0444
49.3605 2046 45.2327
49.478 2004 44.7661
49.5955 2139 46.2493
49.713 2134 46.1952
49.8304 2180 46.6905
49.9479 2201 46.9148
50.0653 2279 47.7389
50.1827 2172 46.6047
50.3001 1962 44.2945
50.4175 1804 42.4735
50.5348 1764 42
50.6521 1825 42.72
50.7694 2039 45.1553
50.8867 2139 46.2493
51.004 2203 46.9361
51.1212 2286 47.8121
51.2384 2247 47.4025
51.3556 2291 47.8644
51.4727 2188 46.7761
51.5899 2206 46.9681
51.707 2285 47.8017
51.824 2146 46.3249
51.9411 2139 46.2493
52.0581 2060 45.3872
52.175 2112 45.9565
52.2919 2089 45.7056
52.4088 2033 45.0888
52.5257 2088 45.6946
52.6425 1952 44.1814
52.7593 2049 45.2659
52.876 1955 44.2154
52.9927 1891 43.4856
53.1094 1979 44.486
53.226 2015 44.8888
53.3426 2112 45.9565
53.4591 1997 44.6878
53.5756 1773 42.107
53.692 1544 39.2938
53.8084 1418 37.6563
53.9248 1246 35.2987
54.0411 1141 33.7787
54.1573 1128 33.5857
54.2735 0 1
54.3896 0 1
54.5057 0 1
54.6217 0 1
54.7377 0 1
54.8537 0 1
54.9695 0 1
55.0853 0 1
55.2011 0 1
55.3168 0 1
55.4324 0 1
57.824 0 1
57.9396 0 1
58.0553 0 1
58.1711 0 1
58.2869 0 1
58.4028 0 1
58.5187 0 1
58.6347 0 1
58.7508 0 1
58.8669 0 1
58.983 1775 42.1307
59.0992 1873 43.2782
59.2155 1935 43.9886
59.3318 1999 44.7102
59.4482 2268 47.6235
59.5646 2281 47.7598
59.681 2519 50.1896
59.7975 2571 50.705
59.9141 2544 50.4381
60.0306 2535 50.3488
60.1473 2577 50.7642
60.2639 2590 50.892
60.3807 2670 51.672
60.4974 2640 51.3809
60.6142 2706 52.0192
60.731 2648 51.4587
60.8479 2758 52.5167
60.9648 2640 51.3809
61.0818 2628 51.264
61.1987 2675 51.7204
61.3158 2548 50.4777
61.4328 2445 49.4469
61.5499 2548 50.4777
61.667 2425 49.2443
61.7841 2540 50.3984
61.9013 2506 50.06
62.0185 2625 51.2348
62.1357 2584 50.8331
62.253 2640 51.3809
62.3702 2543 50.4282
62.4875 2458 49.5782
62.6049 2216 47.0744
62.7222 2289 47.8435
62.8396 2383 48.816
62.9569 2616 51.1468
63.0743 2648 51.4587
63.1918 2737 52.3163
63.3092 2671 51.6817
63.4267 2692 51.8845
63.5441 2699 51.9519
63.6616 2610 51.0882
63.7791 2785 52.7731
63.8966 2741 52.3546
64.0142 2659 51.5655
64.1317 2699 51.9519
64.2492 2641 51.3907
64.3668 2732 52.2685
64.4843 2578 50.774
64.6019 2613 51.1175
64.7195 2514 50.1398
64.837 2568 50.6754
64.9546 2475 49.7494
65.0722 2457 49.5681
65.1898 2430 49.295
65.3074 2513 50.1298
65.4249 2429 49.2849
65.5425 2538 50.3786
65.6601 2497 49.97
65.7777 2592 50.9117
65.8952 2605 51.0392
66.0128 2483 49.8297
66.1304 2147 46.3357
66.2479 2064 45.4313
66.3655 2157 46.4435
66.483 2430 49.295
66.6005 2611 51.0979
66.718 2697 51.9326
66.8355 2663 51.6043
66.953 2760 52.5357
67.0705 2560 50.5964
67.1879 2648 51.4587
67.3054 2616 51.1468
67.4228 2541 50.4083
67.5402 2564 50.636
67.6576 2617 51.1566
67.7749 2572 50.7149
67.8923 2645 51.4296
68.0096 2580 50.7937
68.1269 2730 52.2494
68.2442 2599 50.9804
68.3614 2547 50.4678
68.4787 2569 50.6853
68.5958 2432 49.3153
68.713 2493 49.93
68.8302 2404 49.0306
68.9473 2355 48.5283
69.0643 2275 47.697
69.1814 2340 48.3735
69.2984 2454 49.5379
69.4154 2553 50.5272
69.5323 2428 49.2747
69.6492 2273 47.676
69.7661 2076 45.5631
69.8829 1826 42.7317
69.9997 1959 44.2606
70.1165 2149 46.3573
70.2332 2256 47.4974
70.3499 2102 45.8476
70.4665 1964 44.317
70.5831 1795 42.3674
70.6996 1757 41.9166
70.8161 1664 40.7922
70.9326 1613 40.1622
71.049 1488 38.5746
71.1653 1482 38.4968
71.2817 1448 38.0526
71.3979 1320 36.3318
71.5141 1349 36.7287
71.6303 1281 35.7911
71.7464 1122 33.4963
71.8624 0 1
71.9784 0 1
72.0944 0 1
72.2102 0 1
72.3261 0 1
72.4418 0 1
72.5575 0 1
72.6732 0 1
75.1054 0 1
75.2209 0 1
75.3365 0 1
75.4521 0 1
75.5678 0 1
75.6835 0 1
75.7993 0 1
75.9151 0 1
76.031 0 1
76.147 1907 43.6692
76.263 2216 47.0744
76.3791 2210 47.0106
76.4952 2308 48.0416
76.6113 2285 47.8017
76.7276 2411 49.1019
76.8438 2393 48.9183
76.9601 2382 48.8057
77.0765 2485 49.8498
77.1929 2482 49.8197
77.3093 2453 49.5278
77.4258 2295 47.9062
77.5423 2275 47.697
77.6589 2387 48.8569
77.7755 2284 47.7912
77.8921 2268 47.6235
78.0088 2288 47.833
78.1256 2270 47.6445
78.2423 2368 48.6621
78.3591 2408 49.0714
78.4759 2363 48.6107
78.5928 2312 48.0833
78.7097 2132 46.1736
78.8266 1832 42.8019
78.9436 1593 39.9124
79.0606 1690 41.1096
79.1776 2082 45.6289
79.2946 2286 47.8121
79.4117 2403 49.0204
79.5288 2524 50.2394
79.6459 2468 49.679
79.7631 2440 49.3964
79.8802 2415 49.1426
79.9974 2500 50
80.1147 2482 49.8197
80.2319 2533 50.3289
80.3491 2518 50.1797
80.4664 2468 49.679
80.5837 2512 50.1199
80.701 2606 51.049
80.8183 2564 50.636
80.9357 2597 50.9608
81.053 2460 49.5984
81.1704 2491 49.9099
81.2877 2510 50.0999
81.4051 2531 50.309
81.5225 2535 50.3488
81.6399 2445 49.4469
81.7573 2497 49.97
81.8747 2671 51.6817
81.9922 2790 52.8205
82.1096 2782 52.7447
82.227 2861 53.4883
82.3444 2692 51.8845
82.4619 2384 48.8262
82.5793 2250 47.4342
82.6967 2387 48.8569
82.8142 2867 53.5444
82.9316 3364 58
83.049 3686 60.7124
83.1664 3909 62.522
83.2838 4005 63.2851
83.4012 4147 64.3972
83.5186 4226 65.0077
83.636 4270 65.3452
83.7534 4355 65.9924
83.8708 4265 65.307
83.9881 4399 66.325
84.1055 4403 66.3551
84.2228 4402 66.3476
84.3401 4655 68.2276
84.4575 4474 66.888
84.5747 4646 68.1616
84.692 4556 67.4981
84.8093 4559 67.5204
84.9265 4421 66.4906
85.0437 4490 67.0075
85.1609 4429 66.5507
85.2781 4419 66.4756
85.3952 4379 66.174
85.5123 4405 66.3702
85.6294 4352 65.9697
85.7465 4272 65.3605
85.8636 3976 63.0555
85.9806 3394 58.258
86.0976 2819 53.0943
86.2145 2788 52.8015
86.3315 3158 56.1961
86.4484 3942 62.7853
86.5652 4122 64.2028
86.682 4445 66.6708
86.7988 4416 66.453
86.9156 4324 65.7571
87.0323 4411 66.4154
87.149 4376 66.1513
87.2657 4344 65.909
87.3823 4337 65.8559
87.4988 4137 64.3195
87.6154 3731 61.0819
87.7318 3470 58.9067
87.8483 3317 57.5934
87.9647 3198 56.5509
88.081 3218 56.7274
88.1973 3025 55
88.3136 2849 53.376
88.4298 2733 52.2781
88.546 2651 51.4879
88.6621 2565 50.6458
88.7781 2448 49.4773
88.8942 0 1
89.0101 0 1
89.126 0 1
89.2419 0 1
89.3577 0 1
89.4734 0 1
89.5891 0 1
89.7047 0 1
89.8203 0 1
89.9358 0 1
92.3269 0 1
92.4424 0 1
92.558 0 1
92.6736 0 1
92.7893 0 1
92.905 0 1
93.0208 0 1
93.1366 0 1
93.2525 0 1
93.3685 0 1
93.4845 0 1
93.6005 4639 68.1102
93.7167 4555 67.4907
93.8328 4588 67.7348
93.949 4612 67.9117
94.0653 4559 67.5204
94.1816 4521 67.2384
94.2979 4579 67.6683
94.4143 4444 66.6633
94.5307 4553 67.4759
94.6472 4369 66.0984
94.7637 4337 65.8559
94.8803 3996 63.2139
94.9969 3479 58.983
95.1135 3267 57.1577
95.2302 3328 57.6888
95.3469 3840 61.9677
95.4637 4396 66.3023
95.5805 4527 67.283
95.6973 4654 68.2202
95.8142 4594 67.7791
95.9311 4627 68.0221
96.048 4628 68.0294
96.1649 4734 68.8041
96.2819 4711 68.6367
96.3989 4750 68.9202
96.516 4679 68.4032
96.633 4824 69.455
96.7501 4967 70.4769
96.8673 4829 69.491
96.9844 4834 69.527
97.1016 4789 69.2026
97.2188 4788 69.1954
97.336 4751 68.9275
97.4532 4730 68.775
97.5704 4692 68.4982
97.6877 4689 68.4763
97.805 4671 68.3447
97.9223 4704 68.5857
98.0396 4691 68.4909
98.1569 4657 68.2422
98.2743 4582 67.6905
98.3916 4086 63.9218
98.509 3638 60.3158
98.6264 3313 57.5587
98.7438 3408 58.3781
98.8612 3809 61.7171
98.9786 4468 66.8431
99.096 4563 67.55
99.2134 4628 68.0294
99.3308 4487 66.9851
99.4482 4661 68.2715
99.5656 4407 66.3852
99.6831 4471 66.8655
99.8005 4382 66.1967
99.9179 4225 65
100.035 4198 64.792
100.153 4122 64.2028
100.27 4077 63.8514
100.388 4106 64.0781
100.505 4066 63.7652
100.622 3895 62.4099
100.74 3824 61.8385
100.857 3695 60.7865
100.975 3573 59.7746
101.092 3585 59.8749
101.209 3420 58.4808
101.327 3231 56.8419
101.444 3325 57.6628
101.561 3147 56.0981
101.679 3271 57.1927
101.796 3215 56.701
101.913 3104 55.7136
102.03 2692 51.8845
102.148 2484 49.8397
102.265 2305 48.0104
102.382 2627 51.2543
102.499 2829 53.1883
102.616 2970 54.4977
102.733 3047 55.1996
102.851 3037 55.109
102.968 3052 55.2449
103.085 3007 54.8361
103.202 2998 54.754
103.319 2983 54.6168
103.436 3008 54.8452
103.552 2881 53.6749
103.669 2985 54.6352
103.786 2851 53.3948
103.903 2832 53.2165
104.02 2923 54.0648
104.137 3067 55.3805
104.253 3160 56.2139
104.37 2956 54.3691
104.487 2929 54.1202
104.603 2851 53.3948
104.72 2761 52.5452
104.836 2553 50.5272
104.953 2280 47.7493
105.069 2169 46.5725
105.186 1874 43.2897
105.302 1838 42.8719
105.418 1633 40.4104
105.535 1501 38.7427
105.651 1272 35.6651
105.767 1086 32.9545
105.883 919 30.315
105.999 864 29.3939
106.115 0 1
106.231 0 1
106.347 0 1
106.463 0 1
106.579 0 1
106.694 0 1
106.81 0 1
106.926 0 1
107.041 0 1
107.157 0 1
109.576 0 1
109.692 0 1
109.807 0 1
109.923 0 1
110.039 0 1
110.155 0 1
110.27 0 1
110.386 0 1
110.502 0 1
110.618 2812 53.0283
110.735 2968 54.4794
110.851 2914 53.9815
110.967 2642 51.4004
111.083 2564 50.636
111.199 2841 53.301
111.316 3088 55.5698
111.432 3169 56.2939
111.549 3324 57.6541
111.665 3290 57.3585
111.782 3268 57.1664
111.898 3246 56.9737
112.015 3234 56.8683
112.132 3153 56.1516
112.248 3255 57.0526
112.365 3182 56.4092
112.482 3214 56.6922
112.599 3376 58.1034
112.716 3371 58.0603
112.832 3498 59.1439
112.949 3542 59.5147
113.066 3598 59.9833
113.183 3613 60.1082
113.3 3639 60.3241
113.417 3652 60.4318
113.534 3446 58.7026
113.652 3700 60.8276
113.769 3553 59.607
113.886 3524 59.3633
114.003 3489 59.0678
114.12 3553 59.607
114.238 3438 58.6345
114.355 3121 55.8659
114.472 2806 52.9717
114.589 2724 52.192
114.707 2762 52.5547
114.824 3079 55.4887
114.942 3279 57.2626
115.059 3345 57.836
115.176 3412 58.4123
115.294 3416 58.4466
115.411 3298 57.4282
115.529 3300 57.4456
115.646 3256 57.0614
115.764 3375 58.0948
115.881 3290 57.3585
115.999 3328 57.6888
116.116 3296 57.4108
116.234 3414 58.4294
116.351 3461 58.8303
116.469 3543 59.5231
116.586 3610 60.0833
116.704 3681 60.6712
116.821 3596 59.9667
116.939 3759 61.3107
117.056 3506 59.2115
117.174 3570 59.7495
117.291 3666 60.5475
117.409 3749 61.2291
117.526 3466 58.8727
117.644 3536 59.4643
117.761 3496 59.127
117.879 3477 58.9661
117.996 3086 55.5518
118.114 2943 54.2494
118.231 2898 53.8331
118.349 3004 54.8088
118.466 3194 56.5155
118.584 3334 57.7408
118.701 3294 57.3934
118.819 3404 58.3438
118.936 3267 57.1577
119.053 3302 57.463
119.171 3302 57.463
119.288 3177 56.3649
119.405 3231 56.8419
119.523 3270 57.1839
119.64 3188 56.4624
119.757 3228 56.8155
119.875 3168 56.285
119.992 3320 57.6194
120.109 3356 57.931
120.226 3478 58.9746
120.343 3407 58.3695
120.46 3463 58.8473
120.578 3398 58.2924
120.695 3360 57.9655
120.812 3305 57.4891
120.929 3373 58.0775
121.046 3351 57.8878
121.163 3248 56.9912
121.279 3244 56.9561
121.396 3368 58.0345
121.513 3154 56.1605
121.63 2954 54.3507
121.747 2610 51.0882
121.863 2290 47.8539
121.98 2339 48.3632
122.097 2231 47.2335
122.213 2256 47.4974
122.33 2352 48.4974
122.446 2329 48.2597
122.563 2192 46.8188
122.679 2162 46.4973
122.795 2116 46
122.912 1990 44.6094
123.028 2031 45.0666
123.144 2009 44.8219
123.26 2008 44.8107
123.377 0 1
123.493 0 1
123.609 0 1
123.725 0 1
123.84 0 1
123.956 0 1
124.072 0 1
124.188 0 1
124.303 0 1
124.419 0 1
126.852 0 1
126.968 0 1
127.083 0 1
127.199 0 1
127.315 0 1
127.431 0 1
127.547 0 1
127.663 0 1
127.779 0 1
127.895 0 1
128.011 0 1
128.127 0 1
128.243 0 1
128.359 3780 61.4817
128.476 3758 61.3025
128.592 3843 61.9919
128.708 3918 62.5939
128.825 3904 62.482
128.941 3902 62.466
129.058 3986 63.1348
129.174 4115 64.1483
129.291 4042 63.5767
129.408 4124 64.2184
129.524 4182 64.6684
129.641 4440 66.6333
129.758 4427 66.5357
129.875 4537 67.3573
129.992 4634 68.0735
130.108 4540 67.3795
130.225 4602 67.838
130.342 4525 67.2681
130.459 4279 65.4141
130.576 4330 65.8027
130.693 4125 64.2262
130.81 4048 63.6239
130.928 4020 63.4035
131.045 4129 64.2573
131.162 4231 65.0461
131.279 4427 66.5357
131.396 4354 65.9848
131.513 4373 66.1287
131.631 4412 66.4229
131.748 4414 66.4379
131.865 4295 65.5362
131.983 4279 65.4141
132.1 4272 65.3605
132.217 4232 65.0538
132.335 4090 63.9531
132.452 4080 63.8749
132.57 4227 65.0154
132.687 4158 64.4826
132.804 4488 66.9925
132.922 4245 65.1537
133.039 4392 66.2722
133.157 4505 67.1193
133.274 4509 67.1491
133.392 4574 67.6314
133.509 4630 68.0441
133.627 4745 68.884
133.744 4697 68.5347
133.862 4961 70.4344
133.979 4879 69.8498
134.097 4681 68.4178
134.214 4680 68.4105
134.332 4328 65.7875
134.449 4414 66.4379
134.567 4362 66.0454
134.684 4627 68.0221
134.802 4788 69.1954
134.919 4761 69
135.037 4754 68.9493
135.154 4737 68.8259
135.272 4547 67.4314
135.389 4749 68.913
135.507 4645 68.1542
135.624 4532 67.3201
135.742 4482 66.9477
135.859 4472 66.873
135.977 4393 66.2797
136.094 4461 66.7907
136.211 4515 67.1937
136.329 4481 66.9403
136.446 4477 66.9104
136.564 4422 66.4981
136.681 4495 67.0448
136.798 4543 67.4018
136.915 4611 67.9043
137.033 4606 67.8675
137.15 4653 68.2129
137.267 4576 67.6461
137.384 4761 69
137.502 4732 68.7895
137.619 4592 67.7643
137.736 4490 67.0075
137.853 4397 66.3099
137.97 4209 64.8768
138.087 4089 63.9453
138.204 4245 65.1537
138.321 4255 65.2304
138.438 4462 66.7982
138.555 4506 67.1267
138.672 4525 67.2681
138.788 4412 66.4229
138.905 4383 66.2042
139.022 4306 65.6201
139.139 4063 63.7417
139.255 3949 62.8411
139.372 3732 61.0901
139.488 3506 59.2115
139.605 3344 57.8273
139.721 3307 57.5065
139.838 3232 56.8507
139.954 3101 55.6866
140.071 3070 55.4076
140.187 3093 55.6147
140.303 3052 55.2449
140.419 3156 56.1783
140.535 3175 56.3471
140.652 3193 56.5066
140.768 0 1
140.884 0 1
141 0 1
141.115 0 1
141.231 0 1
141.347 0 1
141.463 0 1
141.578 0 1
141.694 0 1
144.104 0 1
144.219 0 1
144.335 0 1
144.45 0 1
144.566 0 1
144.682 0 1
144.798 0 1
144.914 0 1
145.03 0 1
145.146 8953 94.6203
145.262 9204 95.9375
145.378 9256 96.2081
145.494 9445 97.1854
145.61 9336 96.623
145.726 9417 97.0412
145.842 9372 96.8091
145.959 9466 97.2934
146.075 9465 97.2882
146.192 9470 97.3139
146.308 9594 97.949
146.425 9165 95.734
146.541 8403 91.6679
146.658 7289 85.3756
146.774 6410 80.0625
146.891 6032 77.666
147.008 6840 82.7043
147.125 8233 90.7359
147.241 8954 94.6256
147.358 9216 96
147.475 9463 97.278
147.592 9341 96.6488
147.709 9428 97.0979
147.826 9327 96.5764
147.943 9331 96.5971
148.06 9246 96.1561
148.177 9548 97.7139
148.294 9458 97.2522
148.411 9408 96.9948
148.528 9470 97.3139
148.645 9352 96.7057
148.762 9501 97.4731
148.88 9492 97.4269
148.997 9152 95.6661
149.114 9833 99.1615
149.231 9480 97.3653
149.349 9750 98.7421
149.466 9598 97.9694
149.583 9656 98.2649
149.701 9679 98.3819
149.818 9704 98.5089
149.935 9721 98.5951
150.053 9554 97.7446
150.17 9188 95.8541
150.287 8181 90.4489
150.405 6858 82.813
150.522 6405 80.0312
150.64 6727 82.0183
150.757 8090 89.9444
150.875 8909 94.3875
150.992 9223 96.0365
151.11 8994 94.8367
151.227 9054 95.1525
151.344 9065 95.2103
151.462 9052 95.142
151.579 9316 96.5194
151.697 9171 95.7653
151.814 9288 96.3743
151.932 9313 96.5039
152.049 9262 96.2393
152.167 9199 95.9114
152.284 9462 97.2728
152.402 9305 96.4624
152.519 9277 96.3172
152.636 9470 97.3139
152.754 9523 97.5859
152.871 9795 98.9697
152.989 9687 98.4226
153.106 9936 99.6795
153.223 9608 98.0204
153.341 9763 98.8079
153.458 9933 99.6644
153.575 9834 99.1665
153.693 9695 98.4632
153.81 9224 96.0417
153.927 8558 92.5095
154.044 7335 85.6446
154.162 6655 81.5782
154.279 7295 85.4108
154.396 8601 92.7416
154.513 9289 96.3795
154.63 9868 99.3378
154.747 9600 97.9796
154.864 9611 98.0357
154.981 9472 97.3242
155.098 9401 96.9588
155.215 9356 96.7264
155.332 8908 94.3822
155.449 8829 93.9628
155.566 8849 94.0691
155.683 8603 92.7524
155.8 8370 91.4877
155.917 8064 89.7998
156.033 7916 88.9719
156.15 0 1
156.267 0 1
156.383 0 1
156.5 0 1
156.617 0 1
156.733 0 1
156.85 0 1
156.966 0 1
157.082 0 1
157.199 0 1
157.315 0 1
157.431 0 1
157.547 0 1
157.664 0 1
157.78 0 1
157.896 0 1
158.012 0 1
158.128 0 1
158.244 0 1
158.359 0 1
158.475 0 1
158.591 0 1
158.706 0 1
