
6.15755 0 1
6.2731 0 1
6.3887 0 1
6.50437 0 1
6.62009 0 1
6.73587 0 1
6.8517 0 1
6.96759 0 1
7.08353 0 1
7.19952 0 1
7.31557 0 1
7.43166 0 1
7.54781 0 1
7.664 0 1
7.78024 0 1
7.89653 0 1
8.01286 0 1
8.12924 0 1
8.24567 0 1
8.36213 0 1
8.47864 0 1
8.59519 0 1
8.71178 0 1
8.82841 0 1
8.94508 0 1
9.06179 0 1
9.17853 0 1
9.29531 0 1
9.41212 0 1
9.52897 0 1
9.64584 0 1
9.76276 0 1
9.8797 0 1
9.99667 0 1
10.1137 0 1
10.2307 0 1
10.3478 0 1
10.4648 0 1
10.5819 0 1
10.6991 0 1
10.8162 0 1
10.9334 0 1
11.0506 0 1
11.1678 0 1
11.285 0 1
11.4023 0 1
11.5196 0 1
11.6369 0 1
11.7542 0 1
11.8715 0 1
11.9888 0 1
12.1062 0 1
12.2235 0 1
12.3409 0 1
12.4582 0 1
12.5756 0 1
12.693 0 1
12.8104 0 1
12.9278 0 1
13.0452 0 1
13.1626 0 1
13.28 0 1
13.3974 0 1
13.5149 0 1
13.6323 0 1
13.7497 0 1
13.8671 0 1
13.9845 0 1
14.1019 0 1
14.2193 0 1
14.3367 0 1
14.4541 0 1
14.5714 0 1
14.6888 0 1
14.8062 0 1
14.9235 0 1
15.0408 39076 197.677
15.1581 40064 200.16
15.2755 42634 206.48
15.3927 42544 206.262
15.51 41533 203.796
15.6273 40883 202.195
15.7445 40457 201.139
15.8617 40514 201.281
15.9789 40694 201.728
16.0961 41751 204.331
16.2132 41596 203.951
16.3304 41056 202.623
16.4475 40223 200.557
16.5646 39805 199.512
16.6816 39643 199.105
16.7986 39354 198.378
16.9156 39049 197.608
17.0326 37889 194.651
17.1496 37982 194.89
17.2665 37760 194.319
17.3833 37683 194.121
17.5002 37866 194.592
17.617 38066 195.105
17.7338 38791 196.954
17.8505 38774 196.911
17.9672 39419 198.542
18.0839 39117 197.78
18.2005 38616 196.51
18.3171 37584 193.866
18.4337 37058 192.505
18.5502 37485 193.61
18.6666 37939 194.779
18.7831 38849 197.101
18.8994 38859 197.127
19.0158 36950 192.224
19.1321 36248 190.389
19.2483 35172 187.542
19.3645 34746 186.403
19.4806 34858 186.703
19.5967 34887 186.781
19.7128 33967 184.301
19.8288 31584 177.719
19.9447 27314 165.269
20.0606 0 1
20.1764 0 1
20.2922 0 1
20.4079 0 1
20.5236 0 1
20.6392 0 1
20.7548 0 1
20.8702 0 1
23.3078 0 1
23.4233 0 1
23.539 0 1
23.6547 0 1
23.7704 0 1
23.8862 0 1
24.0021 0 1
24.118 0 1
24.234 0 1
24.35 0 1
24.4661 13824 117.576
24.5822 15943 126.266
24.6984 18307 135.303
24.8146 21533 146.741
24.9309 25832 160.723
25.0472 29809 172.653
25.1636 33112 181.967
25.28 35934 189.563
25.3965 38522 196.27
25.513 40567 201.413
25.6296 42042 205.041
25.7462 41984 204.9
25.8628 42479 206.104
25.9795 42109 205.205
26.0962 42229 205.497
26.213 42353 205.798
26.3298 41309 203.246
26.4466 41004 202.494
26.5635 40058 200.145
26.6804 40290 200.724
26.7973 39034 197.57
26.9143 37505 193.662
27.0313 35901 189.476
27.1483 36213 190.297
27.2653 36351 190.659
27.3824 37761 194.322
27.4996 38261 195.604
27.6167 37242 192.982
27.7339 36038 189.837
27.8511 35141 187.459
27.9683 34584 185.968
28.0855 34280 185.149
28.2028 35401 188.152
28.3201 36405 190.801
28.4374 37416 193.432
28.5547 38543 196.324
28.6721 39153 197.871
28.7894 39020 197.535
28.9068 39602 199.003
29.0242 39685 199.211
29.1416 39836 199.59
29.259 39655 199.136
29.3764 39468 198.666
29.4939 39577 198.94
29.6113 39873 199.682
29.7288 39640 199.098
29.8463 39263 198.149
29.9638 39792 199.479
30.0812 38869 197.152
30.1987 38342 195.811
30.3162 36708 191.593
30.4337 35115 187.39
30.5512 34340 185.311
30.6687 33990 184.364
30.7862 34680 186.226
30.9037 36277 190.465
31.0212 36847 191.956
31.1387 36568 191.228
31.2562 35385 188.109
31.3737 34642 186.124
31.4912 33622 183.363
31.6087 33674 183.505
31.7262 33924 184.185
31.8436 34969 187
31.9611 35996 189.726
32.0785 36732 191.656
32.1959 37249 193
32.3134 37692 194.144
32.4308 37735 194.255
32.5482 37658 194.057
32.6655 37890 194.654
32.7829 38149 195.318
32.9002 37657 194.054
33.0176 38138 195.29
33.1349 38191 195.425
33.2522 38309 195.727
33.3694 38191 195.425
33.4867 38283 195.66
33.6039 37858 194.571
33.7211 37140 192.717
33.8383 36449 190.916
33.9554 35160 187.51
34.0725 33580 183.248
34.1896 32950 181.521
34.3067 32552 180.422
34.4237 33440 182.866
34.5407 34709 186.304
34.6577 35280 187.83
34.7746 35396 188.138
34.8915 34169 184.849
35.0084 33055 181.81
35.1252 32449 180.136
35.242 32044 179.008
35.3587 32194 179.427
35.4755 32388 179.967
35.5921 34393 185.453
35.7088 34810 186.574
35.8254 35907 189.491
35.9419 36555 191.194
36.0584 36909 192.117
36.1749 37156 192.759
36.2913 37115 192.653
36.4077 36020 189.789
36.524 35100 187.35
36.6403 33509 183.055
36.7565 31738 178.152
36.8727 29963 173.098
36.9889 27883 166.982
37.1049 25361 159.251
37.221 0 1
37.3369 0 1
37.4529 0 1
37.5687 0 1
37.6845 0 1
37.8003 0 1
37.916 0 1
38.0316 0 1
38.1472 0 1
40.5851 0 1
40.7008 0 1
40.8164 0 1
40.9322 0 1
41.048 0 1
41.1639 0 1
41.2798 0 1
41.3958 0 1
41.5118 0 1
41.6279 0 1
41.744 15781 125.622
41.8602 18763 136.978
41.9765 21814 147.696
42.0928 24067 155.135
42.2091 26292 162.148
42.3255 27694 166.415
42.4419 28669 169.319
42.5584 28923 170.068
42.675 29158 170.757
42.7915 27825 166.808
42.9081 26565 162.988
43.0248 26784 163.658
43.1415 27256 165.094
43.2582 28224 168
43.375 28784 169.658
43.4918 29754 172.493
43.6087 29717 172.386
43.7256 28866 169.9
43.8425 28254 168.089
43.9595 27907 167.054
44.0765 27325 165.303
44.1935 27603 166.142
44.3106 27548 165.976
44.4277 28968 170.2
44.5448 29413 171.502
44.6619 29866 172.818
44.7791 30048 173.344
44.8963 30843 175.622
45.0136 31069 176.264
45.1308 31272 176.839
45.2481 31098 176.346
45.3654 31031 176.156
45.4827 31178 176.573
45.6001 31139 176.462
45.7174 31089 176.321
45.8348 31170 176.55
45.9522 30844 175.625
46.0697 30961 175.957
46.1871 29731 172.427
46.3046 28261 168.11
46.422 27362 165.415
46.5395 26926 164.091
46.657 27114 164.663
46.7745 28018 167.386
46.892 28930 170.088
47.0096 30035 173.306
47.1271 30727 175.291
47.2446 30465 174.542
47.3622 30310 174.098
47.4797 29552 171.907
47.5973 28753 169.567
47.7149 28053 167.49
47.8324 28686 169.369
47.95 29221 170.942
48.0675 30215 173.825
48.1851 30569 174.84
48.3027 31220 176.692
48.4202 31366 177.104
48.5378 32063 179.061
48.6554 31512 177.516
48.7729 31955 178.76
48.8904 31960 178.774
49.008 32103 179.173
49.1255 31999 178.883
49.243 31588 177.73
49.3605 31141 176.468
49.478 31165 176.536
49.5955 30380 174.299
49.713 29180 170.822
49.8304 27543 165.961
49.9479 26274 162.093
50.0653 25547 159.834
50.1827 26527 162.871
50.3001 26788 163.67
50.4175 28601 169.118
50.5348 29185 170.836
50.6521 29810 172.656
50.7694 30011 173.237
50.8867 29340 171.289
51.004 28954 170.159
51.1212 28653 169.272
51.2384 28230 168.018
51.3556 28401 168.526
51.4727 29201 170.883
51.5899 29376 171.394
51.707 30285 174.026
51.824 31186 176.596
51.9411 31435 177.299
52.0581 31490 177.454
52.175 32075 179.095
52.2919 31778 178.264
52.4088 31928 178.684
52.5257 31725 178.115
52.6425 31933 178.698
52.7593 31998 178.88
52.876 31653 177.913
52.9927 31571 177.682
53.1094 31820 178.382
53.226 30536 174.746
53.3426 29758 172.505
53.4591 28104 167.642
53.5756 26565 162.988
53.692 25045 158.256
53.8084 23894 154.577
53.9248 22693 150.642
54.0411 21803 147.658
54.1573 20327 142.573
54.2735 0 1
54.3896 0 1
54.5057 0 1
54.6217 0 1
54.7377 0 1
54.8537 0 1
54.9695 0 1
55.0853 0 1
55.2011 0 1
55.3168 0 1
55.4324 0 1
57.824 0 1
57.9396 0 1
58.0553 0 1
58.1711 0 1
58.2869 0 1
58.4028 0 1
58.5187 0 1
58.6347 0 1
58.7508 0 1
58.8669 0 1
58.983 19116 138.261
59.0992 23647 153.776
59.2155 27679 166.37
59.3318 31498 177.477
59.4482 34385 185.432
59.5646 36707 191.591
59.681 38126 195.259
59.7975 39032 197.565
59.9141 39137 197.831
60.0306 39853 199.632
60.1473 39797 199.492
60.2639 40782 201.946
60.3807 41901 204.697
60.4974 42879 207.072
60.6142 42819 206.928
60.731 43541 208.665
60.8479 43567 208.727
60.9648 43278 208.034
61.0818 43360 208.231
61.1987 42900 207.123
61.3158 42855 207.014
61.4328 42724 206.698
61.5499 42690 206.616
61.667 42501 206.158
61.7841 41936 204.783
61.9013 40306 200.764
62.0185 38092 195.172
62.1357 37304 193.142
62.253 36051 189.871
62.3702 37001 192.356
62.4875 37269 193.052
62.6049 39186 197.955
62.7222 40432 201.077
62.8396 42278 205.616
62.9569 43153 207.733
63.0743 43198 207.841
63.1918 42124 205.241
63.3092 41126 202.795
63.4267 40255 200.636
63.5441 39641 199.1
63.6616 39727 199.316
63.7791 40117 200.292
63.8966 40386 200.963
64.0142 41153 202.862
64.1317 41079 202.68
64.2492 41597 203.953
64.3668 41470 203.642
64.4843 40945 202.349
64.6019 41077 202.675
64.7195 40576 201.435
64.837 40426 201.062
64.9546 40150 200.375
65.0722 40227 200.567
65.1898 40432 201.077
65.3074 39042 197.59
65.4249 38586 196.433
65.5425 36947 192.216
65.6601 35086 187.313
65.7777 33830 183.929
65.8952 33298 182.477
66.0128 34575 185.944
66.1304 35688 188.913
66.2479 37185 192.834
66.3655 38458 196.107
66.483 40263 200.656
66.6005 40468 201.167
66.718 39811 199.527
66.8355 38994 197.469
66.953 38213 195.481
67.0705 37812 194.453
67.1879 37107 192.632
67.3054 36612 191.343
67.4228 36814 191.87
67.5402 36827 191.904
67.6576 37466 193.561
67.7749 37728 194.237
67.8923 37363 193.295
68.0096 38280 195.653
68.1269 38096 195.182
68.2442 38370 195.883
68.3614 38096 195.182
68.4787 37960 194.833
68.5958 38005 194.949
68.713 38337 195.798
68.8302 38084 195.151
68.9473 37036 192.447
69.0643 36400 190.788
69.1814 34667 186.191
69.2984 33771 183.769
69.4154 32204 179.455
69.5323 32240 179.555
69.6492 33102 181.94
69.7661 34913 186.85
69.8829 36286 190.489
69.9997 37350 193.261
70.1165 37675 194.1
70.2332 37364 193.298
70.3499 35780 189.156
70.4665 33505 183.044
70.5831 31216 176.681
70.6996 29027 170.373
70.8161 26663 163.288
70.9326 24450 156.365
71.049 22373 149.576
71.1653 20656 143.722
71.2817 19516 139.7
71.3979 18458 135.86
71.5141 17563 132.525
71.6303 16245 127.456
71.7464 14341 119.754
71.8624 0 1
71.9784 0 1
72.0944 0 1
72.2102 0 1
72.3261 0 1
72.4418 0 1
72.5575 0 1
72.6732 0 1
75.1054 0 1
75.2209 0 1
75.3365 0 1
75.4521 0 1
75.5678 0 1
75.6835 0 1
75.7993 0 1
75.9151 0 1
76.031 0 1
76.147 23888 154.557
76.263 26271 162.083
76.3791 28044 167.463
76.4952 29456 171.628
76.6113 30955 175.94
76.7276 31467 177.389
76.8438 32783 181.061
76.9601 33434 182.85
77.0765 33388 182.724
77.1929 33917 184.166
77.3093 34423 185.534
77.4258 34531 185.825
77.5423 34659 186.169
77.6589 35099 187.347
77.7755 34677 186.218
77.8921 34620 186.065
78.0088 33717 183.622
78.1256 32260 179.611
78.2423 31185 176.593
78.3591 29642 172.169
78.4759 28268 168.131
78.5928 28972 170.212
78.7097 30452 174.505
78.8266 32166 179.349
78.9436 34206 184.949
79.0606 35240 187.723
79.1776 36194 190.247
79.2946 37464 193.556
79.4117 37632 193.99
79.5288 37151 192.746
79.6459 36802 191.838
79.7631 36110 190.026
79.8802 35169 187.534
79.9974 35021 187.139
80.1147 35318 187.931
80.2319 35421 188.205
80.3491 36222 190.321
80.4664 37016 192.395
80.5837 37204 192.883
80.701 38398 195.954
80.8183 39318 198.288
80.9357 39914 199.785
81.053 40650 201.618
81.1704 40986 202.45
81.2877 41464 203.627
81.4051 41687 204.174
81.5225 41465 203.63
81.6399 41872 204.626
81.7573 39921 199.802
81.8747 38594 196.454
81.9922 36526 191.118
82.1096 36082 189.953
82.227 36561 191.209
82.3444 37352 193.267
82.4619 40288 200.719
82.5793 42298 205.665
82.6967 43411 208.353
82.8142 44692 211.405
82.9316 45299 212.836
83.049 45607 213.558
83.1664 44714 211.457
83.2838 44627 211.251
83.4012 43426 208.389
83.5186 42417 205.954
83.636 42079 205.132
83.7534 41851 204.575
83.8708 41714 204.24
83.9881 41693 204.189
84.1055 42177 205.37
84.2228 42885 207.087
84.3401 44001 209.764
84.4575 44597 211.18
84.5747 45563 213.455
84.692 46227 215.005
84.8093 46988 216.767
84.9265 46170 214.872
85.0437 46312 215.202
85.1609 45853 214.133
85.2781 44458 210.851
85.3952 41979 204.888
85.5123 40114 200.285
85.6294 37900 194.679
85.7465 37474 193.582
85.8636 37843 194.533
85.9806 39489 198.718
86.0976 41260 203.126
86.2145 42869 207.048
86.3315 43539 208.66
86.4484 44915 211.932
86.5652 45495 213.296
86.682 44892 211.877
86.7988 44053 209.888
86.9156 42845 206.99
87.0323 41839 204.546
87.149 41024 202.544
87.2657 40197 200.492
87.3823 40384 200.958
87.4988 39297 198.235
87.6154 37861 194.579
87.7318 36927 192.164
87.8483 35360 188.043
87.9647 33672 183.499
88.081 32550 180.416
88.1973 30540 174.757
88.3136 28691 169.384
88.4298 26182 161.809
88.546 24184 155.512
88.6621 22190 148.963
88.7781 20317 142.538
88.8942 0 1
89.0101 0 1
89.126 0 1
89.2419 0 1
89.3577 0 1
89.4734 0 1
89.5891 0 1
89.7047 0 1
89.8203 0 1
89.9358 0 1
92.3269 0 1
92.4424 0 1
92.558 0 1
92.6736 0 1
92.7893 0 1
92.905 0 1
93.0208 0 1
93.1366 0 1
93.2525 0 1
93.3685 0 1
93.4845 0 1
93.6005 26191 161.836
93.7167 28961 170.179
93.8328 31145 176.479
93.949 32959 181.546
94.0653 34681 186.228
94.1816 35158 187.505
94.2979 35761 189.106
94.4143 35784 189.167
94.5307 35512 188.446
94.6472 34387 185.437
94.7637 32766 181.014
94.8803 31574 177.691
94.9969 30722 175.277
95.1135 30699 175.211
95.2302 31772 178.247
95.3469 32569 180.469
95.4637 33939 184.225
95.5805 35275 187.816
95.6973 35826 189.278
95.8142 36092 189.979
95.9311 35321 187.939
96.048 34477 185.68
96.1649 34311 185.232
96.2819 33713 183.611
96.3989 32753 180.978
96.516 32950 181.521
96.633 33641 183.415
96.7501 34038 184.494
96.8673 34329 185.281
96.9844 34443 185.588
97.1016 34875 186.748
97.2188 34880 186.762
97.336 35296 187.872
97.4532 35326 187.952
97.5704 35641 188.788
97.6877 35886 189.436
97.805 36074 189.932
97.9223 35498 188.409
98.0396 35392 188.128
98.1569 35138 187.451
98.2743 34433 185.561
98.3916 33096 181.923
98.509 31324 176.986
98.6264 30884 175.738
98.7438 30426 174.431
98.8612 30969 175.98
98.9786 32466 180.183
99.096 34058 184.548
99.2134 35351 188.019
99.3308 36486 191.013
99.4482 37200 192.873
99.5656 37140 192.717
99.6831 36835 191.924
99.8005 35920 189.526
99.9179 35651 188.815
100.035 35085 187.31
100.153 35826 189.278
100.27 36193 190.245
100.388 35912 189.505
100.505 35806 189.225
100.622 35891 189.449
100.74 35510 188.441
100.857 35850 189.341
100.975 35856 189.357
101.092 36091 189.976
101.209 36196 190.252
101.327 36065 189.908
101.444 36525 191.115
101.561 36068 189.916
101.679 35828 189.283
101.796 35706 188.96
101.913 34328 185.278
102.03 33129 182.014
102.148 32131 179.251
102.265 31061 176.241
102.382 31978 178.824
102.499 32745 180.956
102.616 34400 185.472
102.733 36036 189.832
102.851 37504 193.659
102.968 37788 194.391
103.085 38081 195.144
103.202 37919 194.728
103.319 36500 191.05
103.436 36241 190.371
103.552 35814 189.246
103.669 35892 189.452
103.786 36800 191.833
103.903 36983 192.31
104.02 36440 190.893
104.137 36069 189.918
104.253 35629 188.756
104.37 37194 192.857
104.487 37014 192.39
104.603 36768 191.75
104.72 37530 193.727
104.836 36597 191.303
104.953 36391 190.764
105.069 35181 187.566
105.186 33578 183.243
105.302 31371 177.119
105.418 29233 170.977
105.535 25850 160.779
105.651 22891 151.298
105.767 20235 142.25
105.883 18401 135.65
105.999 17953 133.989
106.115 0 1
106.231 0 1
106.347 0 1
106.463 0 1
106.579 0 1
106.694 0 1
106.81 0 1
106.926 0 1
107.041 0 1
107.157 0 1
109.576 0 1
109.692 0 1
109.807 0 1
109.923 0 1
110.039 0 1
110.155 0 1
110.27 0 1
110.386 0 1
110.502 0 1
110.618 17617 132.729
110.735 19964 141.294
110.851 21401 146.291
110.967 23606 153.642
111.083 25565 159.891
111.199 27652 166.289
111.316 30337 174.175
111.432 31767 178.233
111.549 32503 180.286
111.665 31677 177.98
111.782 31069 176.264
111.898 29949 173.058
112.015 30169 173.692
112.132 30189 173.75
112.248 30353 174.221
112.365 30685 175.171
112.482 30526 174.717
112.599 31415 177.243
112.716 30673 175.137
112.832 30243 173.905
112.949 30176 173.712
113.066 29974 173.13
113.183 30292 174.046
113.3 30389 174.324
113.417 30334 174.167
113.534 30083 173.445
113.652 30175 173.71
113.769 30092 173.47
113.886 29987 173.168
114.003 29720 172.395
114.12 28787 169.667
114.238 27854 166.895
114.355 26895 163.997
114.472 25561 159.878
114.589 28698 169.405
114.707 28747 169.549
114.824 30672 175.134
114.942 31387 177.164
115.059 32383 179.953
115.176 32184 179.399
115.294 31378 177.138
115.411 30933 175.878
115.529 30714 175.254
115.646 30402 174.362
115.764 29802 172.633
115.881 30027 173.283
115.999 30263 173.963
116.116 29842 172.748
116.234 29644 172.174
116.351 29928 172.997
116.469 29514 171.796
116.586 29339 171.286
116.704 29691 172.311
116.821 29826 172.702
116.939 29752 172.488
117.056 29939 173.029
117.174 29690 172.308
117.291 29936 173.02
117.409 29766 172.528
117.526 29798 172.621
117.644 29293 171.152
117.761 29074 170.511
117.879 28052 167.487
117.996 27266 165.124
118.114 27682 166.379
118.231 28985 170.25
118.349 29595 172.032
118.466 30590 174.9
118.584 31321 176.977
118.701 31400 177.2
118.819 31072 176.273
118.936 30047 173.341
119.053 29761 172.514
119.171 29435 171.566
119.288 29467 171.66
119.405 29042 170.417
119.523 29011 170.326
119.64 29530 171.843
119.757 28552 168.973
119.875 28586 169.074
119.992 28293 168.205
120.109 28280 168.167
120.226 27756 166.601
120.343 28094 167.613
120.46 28298 168.22
120.578 28394 168.505
120.695 28327 168.306
120.812 28416 168.57
120.929 28447 168.662
121.046 28527 168.899
121.163 28155 167.795
121.279 27944 167.165
121.396 27744 166.565
121.513 27472 165.747
121.63 26697 163.392
121.747 25796 160.611
121.863 25026 158.196
121.98 24819 157.54
122.097 24763 157.363
122.213 24253 155.734
122.33 23540 153.428
122.446 21667 147.197
122.563 20186 142.077
122.679 18840 137.259
122.795 17857 133.63
122.912 17181 131.076
123.028 16329 127.785
123.144 15952 126.301
123.26 15073 122.772
123.377 0 1
123.493 0 1
123.609 0 1
123.725 0 1
123.84 0 1
123.956 0 1
124.072 0 1
124.188 0 1
124.303 0 1
124.419 0 1
126.852 0 1
126.968 0 1
127.083 0 1
127.199 0 1
127.315 0 1
127.431 0 1
127.547 0 1
127.663 0 1
127.779 0 1
127.895 0 1
128.011 0 1
128.127 0 1
128.243 0 1
128.359 31079 176.292
128.476 31749 178.182
128.592 32082 179.114
128.708 31971 178.804
128.825 31992 178.863
128.941 31547 177.615
129.058 31345 177.045
129.174 31545 177.609
129.291 31297 176.91
129.408 31698 178.039
129.524 31788 178.292
129.641 31667 177.952
129.758 31853 178.474
129.875 31667 177.952
129.992 32484 180.233
130.108 32088 179.131
130.225 31935 178.704
130.342 31771 178.244
130.459 31205 176.649
130.576 31381 177.147
130.693 30352 174.218
130.81 28857 169.873
130.928 27695 166.418
131.045 27001 164.32
131.162 27913 167.072
131.279 28956 170.165
131.396 29971 173.121
131.513 29592 172.023
131.631 29213 170.918
131.748 29622 172.11
131.865 29862 172.806
131.983 30354 174.224
132.1 30399 174.353
132.217 30666 175.117
132.335 30441 174.473
132.452 30443 174.479
132.57 30200 173.781
132.687 30391 174.33
132.804 29931 173.006
132.922 30300 174.069
133.039 30392 174.333
133.157 30502 174.648
133.274 30520 174.7
133.392 30798 175.494
133.509 30899 175.781
133.627 30940 175.898
133.744 31154 176.505
133.862 30504 174.654
133.979 30592 174.906
134.097 30022 173.269
134.214 29773 172.549
134.332 27888 166.997
134.449 26888 163.976
134.567 25619 160.059
134.684 25514 159.731
134.802 26369 162.385
134.919 27516 165.879
135.037 27657 166.304
135.154 27304 165.239
135.272 28099 167.628
135.389 28503 168.828
135.507 29254 171.038
135.624 29788 172.592
135.742 29607 172.067
135.859 29818 172.679
135.977 29932 173.009
136.094 29603 172.055
136.211 29621 172.108
136.329 29954 173.072
136.446 29876 172.847
136.564 30162 173.672
136.681 30191 173.756
136.798 30024 173.274
136.915 30095 173.479
137.033 30270 173.983
137.15 30049 173.346
137.267 30025 173.277
137.384 30271 173.986
137.502 29909 172.942
137.619 29190 170.851
137.736 29402 171.47
137.853 27461 165.714
137.97 27395 165.514
138.087 25593 159.978
138.204 24217 155.618
138.321 23894 154.577
138.438 25024 158.19
138.555 25952 161.096
138.672 26809 163.735
138.788 26426 162.561
138.905 26944 164.146
139.022 27934 167.135
139.139 28080 167.571
139.255 27459 165.708
139.372 25379 159.308
139.488 23107 152.01
139.605 21042 145.059
139.721 19333 139.043
139.838 18801 137.117
139.954 18567 136.261
140.071 18094 134.514
140.187 17537 132.427
140.303 16889 129.958
140.419 16285 127.613
140.535 16142 127.051
140.652 15202 123.296
140.768 0 1
140.884 0 1
141 0 1
141.115 0 1
141.231 0 1
141.347 0 1
141.463 0 1
141.578 0 1
141.694 0 1
144.104 0 1
144.219 0 1
144.335 0 1
144.45 0 1
144.566 0 1
144.682 0 1
144.798 0 1
144.914 0 1
145.03 0 1
145.146 20274 142.387
145.262 21355 146.134
145.378 21327 146.038
145.494 21409 146.318
145.61 21520 146.697
145.726 21580 146.901
145.842 21823 147.726
145.959 21546 146.786
146.075 21432 146.397
146.192 21180 145.534
146.308 21331 146.051
146.425 21105 145.276
146.541 20684 143.819
146.658 20617 143.586
146.774 20293 142.454
146.891 19156 138.405
147.008 18470 135.904
147.125 17057 130.602
147.241 16981 130.311
147.358 17734 133.169
147.475 18692 136.719
147.592 19079 138.127
147.709 20028 141.52
147.826 20273 142.383
147.943 20139 141.912
148.06 20375 142.741
148.177 20204 142.141
148.294 20340 142.618
148.411 20713 143.92
148.528 20400 142.829
148.645 20587 143.482
148.762 20762 144.09
148.88 20445 142.986
148.997 20741 144.017
149.114 20097 141.764
149.231 20423 142.909
149.349 20207 142.151
149.466 20326 142.569
149.583 20370 142.724
149.701 20208 142.155
149.818 19892 141.039
149.935 19745 140.517
150.053 19605 140.018
150.17 19257 138.77
150.287 19686 140.307
150.405 19599 139.996
150.522 18972 137.739
150.64 17938 133.933
150.757 16515 128.511
150.875 16180 127.201
150.992 16349 127.863
151.11 16923 130.088
151.227 17766 133.289
151.344 18503 136.026
151.462 18791 137.08
151.579 18960 137.695
151.697 18884 137.419
151.814 18898 137.47
151.932 18873 137.379
152.049 18758 136.96
152.167 18631 136.495
152.284 18575 136.29
152.402 18425 135.739
152.519 18265 135.148
152.636 18328 135.381
152.754 17850 133.604
152.871 17848 133.596
152.989 17414 131.962
153.106 17830 133.529
153.223 17585 132.608
153.341 17462 132.144
153.458 17182 131.08
153.575 16968 130.261
153.693 16975 130.288
153.81 16992 130.353
153.927 17013 130.434
154.044 16634 128.973
154.162 16376 127.969
154.279 15405 124.117
154.396 14938 122.221
154.513 15061 122.723
154.63 15488 124.451
154.747 15794 125.674
154.864 15980 126.412
154.981 16090 126.846
155.098 16055 126.708
155.215 15681 125.224
155.332 15340 123.855
155.449 14962 122.319
155.566 14690 121.202
155.683 14211 119.21
155.8 13990 118.279
155.917 13169 114.756
156.033 12897 113.565
156.15 0 1
156.267 0 1
156.383 0 1
156.5 0 1
156.617 0 1
156.733 0 1
156.85 0 1
156.966 0 1
157.082 0 1
157.199 0 1
157.315 0 1
157.431 0 1
157.547 0 1
157.664 0 1
157.78 0 1
157.896 0 1
158.012 0 1
158.128 0 1
158.244 0 1
158.359 0 1
158.475 0 1
158.591 0 1
158.706 0 1
