
6.15755 0 1
6.2731 0 1
6.3887 0 1
6.50437 0 1
6.62009 0 1
6.73587 0 1
6.8517 0 1
6.96759 0 1
7.08353 0 1
7.19952 0 1
7.31557 0 1
7.43166 0 1
7.54781 0 1
7.664 0 1
7.78024 0 1
7.89653 0 1
8.01286 0 1
8.12924 0 1
8.24567 0 1
8.36213 0 1
8.47864 0 1
8.59519 0 1
8.71178 0 1
8.82841 0 1
8.94508 0 1
9.06179 0 1
9.17853 0 1
9.29531 0 1
9.41212 0 1
9.52897 0 1
9.64584 0 1
9.76276 0 1
9.8797 0 1
9.99667 0 1
10.1137 0 1
10.2307 0 1
10.3478 0 1
10.4648 0 1
10.5819 0 1
10.6991 0 1
10.8162 0 1
10.9334 0 1
11.0506 0 1
11.1678 0 1
11.285 0 1
11.4023 0 1
11.5196 0 1
11.6369 0 1
11.7542 0 1
11.8715 0 1
11.9888 0 1
12.1062 0 1
12.2235 0 1
12.3409 0 1
12.4582 0 1
12.5756 0 1
12.693 0 1
12.8104 0 1
12.9278 0 1
13.0452 0 1
13.1626 0 1
13.28 0 1
13.3974 0 1
13.5149 0 1
13.6323 0 1
13.7497 0 1
13.8671 0 1
13.9845 0 1
14.1019 0 1
14.2193 0 1
14.3367 0 1
14.4541 0 1
14.5714 0 1
14.6888 0 1
14.8062 0 1
14.9235 0 1
15.0408 0 0
15.1581 0 0
15.2755 0 0
15.3927 0 0
15.51 0 0
15.6273 0 0
15.7445 0 0
15.8617 0 0
15.9789 0 0
16.0961 0 0
16.2132 0 0
16.3304 0 0
16.4475 0 0
16.5646 0 0
16.6816 0 0
16.7986 0 0
16.9156 0 0
17.0326 0 0
17.1496 0 0
17.2665 0 0
17.3833 0 0
17.5002 0 0
17.617 0 0
17.7338 0 0
17.8505 0 0
17.9672 0 0
18.0839 0 0
18.2005 0 0
18.3171 0 0
18.4337 0 0
18.5502 0 0
18.6666 0 0
18.7831 0 0
18.8994 0 0
19.0158 0 0
19.1321 0 0
19.2483 0 0
19.3645 0 0
19.4806 0 0
19.5967 0 0
19.7128 0 0
19.8288 0 0
19.9447 0 0
20.0606 0 1
20.1764 0 1
20.2922 0 1
20.4079 0 1
20.5236 0 1
20.6392 0 1
20.7548 0 1
20.8702 0 1
23.3078 0 1
23.4233 0 1
23.539 0 1
23.6547 0 1
23.7704 0 1
23.8862 0 1
24.0021 0 1
24.118 0 1
24.234 0 1
24.35 0 1
24.4661 1641 40.5093
24.5822 1598 39.975
24.6984 1582 39.7744
24.8146 1607 40.0874
24.9309 1571 39.6358
25.0472 1501 38.7427
25.1636 1350 36.7423
25.28 1354 36.7967
25.3965 1467 38.3014
25.513 1406 37.4967
25.6296 1565 39.5601
25.7462 1608 40.0999
25.8628 1711 41.3642
25.9795 1787 42.2729
26.0962 1726 41.5452
26.213 1778 42.1663
26.3298 1791 42.3202
26.4466 1675 40.9268
26.5635 1683 41.0244
26.6804 1612 40.1497
26.7973 1707 41.3159
26.9143 1663 40.7799
27.0313 1550 39.37
27.1483 1655 40.6817
27.2653 1697 41.1947
27.3824 1749 41.821
27.4996 1702 41.2553
27.6167 1783 42.2256
27.7339 1714 41.4005
27.8511 1743 41.7493
27.9683 1641 40.5093
28.0855 1720 41.4729
28.2028 1665 40.8044
28.3201 1629 40.3609
28.4374 1658 40.7185
28.5547 1430 37.8153
28.6721 1350 36.7423
28.7894 1372 37.0405
28.9068 1341 36.6197
29.0242 1453 38.1182
29.1416 1436 37.8946
29.259 1619 40.2368
29.3764 1674 40.9145
29.4939 1693 41.1461
29.6113 1646 40.5709
29.7288 1604 40.05
29.8463 1676 40.939
29.9638 1652 40.6448
30.0812 1632 40.398
30.1987 1635 40.4351
30.3162 1560 39.4968
30.4337 1501 38.7427
30.5512 1585 39.8121
30.6687 1565 39.5601
30.7862 1673 40.9023
30.9037 1678 40.9634
31.0212 1657 40.7063
31.1387 1721 41.4849
31.2562 1685 41.0488
31.3737 1687 41.0731
31.4912 1752 41.8569
31.6087 1747 41.7971
31.7262 1697 41.1947
31.8436 1590 39.8748
31.9611 1645 40.5586
32.0785 1488 38.5746
32.1959 1457 38.1707
32.3134 1349 36.7287
32.4308 1412 37.5766
32.5482 1408 37.5233
32.6655 1458 38.1838
32.7829 1550 39.37
32.9002 1637 40.4599
33.0176 1613 40.1622
33.1349 1628 40.3485
33.2522 1701 41.2432
33.3694 1674 40.9145
33.4867 1678 40.9634
33.6039 1604 40.05
33.7211 1517 38.9487
33.8383 1534 39.1663
33.9554 1507 38.8201
34.0725 1496 38.6782
34.1896 1536 39.1918
34.3067 1538 39.2173
34.4237 1634 40.4228
34.5407 1710 41.3521
34.6577 1737 41.6773
34.7746 1678 40.9634
34.8915 1684 41.0366
35.0084 1674 40.9145
35.1252 1654 40.6694
35.242 1705 41.2916
35.3587 1700 41.2311
35.4755 1643 40.5339
35.5921 1613 40.1622
35.7088 1463 38.2492
35.8254 1427 37.7757
35.9419 1371 37.027
36.0584 1345 36.6742
36.1749 1366 36.9594
36.2913 1334 36.524
36.4077 1469 38.3275
36.524 1539 39.2301
36.6403 1532 39.1408
36.7565 1560 39.4968
36.8727 1611 40.1373
36.9889 1634 40.4228
37.1049 1566 39.5727
37.221 0 1
37.3369 0 1
37.4529 0 1
37.5687 0 1
37.6845 0 1
37.8003 0 1
37.916 0 1
38.0316 0 1
38.1472 0 1
40.5851 0 1
40.7008 0 1
40.8164 0 1
40.9322 0 1
41.048 0 1
41.1639 0 1
41.2798 0 1
41.3958 0 1
41.5118 0 1
41.6279 0 1
41.744 1138 33.7343
41.8602 1289 35.9026
41.9765 1321 36.3456
42.0928 1349 36.7287
42.2091 1330 36.4692
42.3255 1355 36.8103
42.4419 1242 35.242
42.5584 1255 35.426
42.675 1112 33.3467
42.7915 1212 34.8138
42.9081 1176 34.2929
43.0248 1200 34.641
43.1415 1232 35.0999
43.2582 1249 35.3412
43.375 1315 36.2629
43.4918 1365 36.9459
43.6087 1267 35.5949
43.7256 1345 36.6742
43.8425 1268 35.609
43.9595 1250 35.3553
44.0765 1256 35.4401
44.1935 1263 35.5387
44.3106 1258 35.4683
44.4277 1144 33.8231
44.5448 1077 32.8177
44.6619 984 31.3688
44.7791 995 31.5436
44.8963 947 30.7734
45.0136 928 30.4631
45.1308 1016 31.8748
45.2481 1135 33.6898
45.3654 1119 33.4515
45.4827 1096 33.1059
45.6001 1067 32.665
45.7174 1039 32.2335
45.8348 1070 32.7109
45.9522 1057 32.5115
46.0697 914 30.2324
46.1871 882 29.6985
46.3046 804 28.3549
46.422 808 28.4253
46.5395 816 28.5657
46.657 864 29.3939
46.7745 974 31.209
46.892 990 31.4643
47.0096 1024 32
47.1271 971 31.1609
47.2446 1019 31.9218
47.3622 1009 31.7648
47.4797 939 30.6431
47.5973 968 31.1127
47.7149 1023 31.9844
47.8324 955 30.9031
47.95 913 30.2159
48.0675 850 29.1548
48.1851 792 28.1425
48.3027 786 28.0357
48.4202 780 27.9285
48.5378 787 28.0535
48.6554 773 27.8029
48.7729 877 29.6142
48.8904 868 29.4618
49.008 896 29.9333
49.1255 873 29.5466
49.243 909 30.1496
49.3605 924 30.3974
49.478 848 29.1204
49.5955 775 27.8388
49.713 677 26.0192
49.8304 675 25.9808
49.9479 712 26.6833
50.0653 819 28.6182
50.1827 890 29.8329
50.3001 889 29.8161
50.4175 917 30.282
50.5348 946 30.7571
50.6521 957 30.9354
50.7694 992 31.496
50.8867 962 31.0161
51.004 1042 32.28
51.1212 1071 32.7261
51.2384 1052 32.4345
51.3556 1083 32.909
51.4727 1050 32.4037
51.5899 937 30.6105
51.707 917 30.282
51.824 976 31.241
51.9411 986 31.4006
52.0581 1022 31.9687
52.175 1094 33.0757
52.2919 1178 34.322
52.4088 1145 33.8378
52.5257 1178 34.322
52.6425 1164 34.1174
52.7593 1189 34.4819
52.876 1250 35.3553
52.9927 1093 33.0606
53.1094 1177 34.3074
53.226 1044 32.311
53.3426 972 31.1769
53.4591 1035 32.1714
53.5756 1075 32.7872
53.692 1187 34.4529
53.8084 1207 34.7419
53.9248 1252 35.3836
54.0411 1305 36.1248
54.1573 1324 36.3868
54.2735 0 1
54.3896 0 1
54.5057 0 1
54.6217 0 1
54.7377 0 1
54.8537 0 1
54.9695 0 1
55.0853 0 1
55.2011 0 1
55.3168 0 1
55.4324 0 1
57.824 0 1
57.9396 0 1
58.0553 0 1
58.1711 0 1
58.2869 0 1
58.4028 0 1
58.5187 0 1
58.6347 0 1
58.7508 0 1
58.8669 0 1
58.983 1426 37.7624
59.0992 1433 37.855
59.2155 1414 37.6032
59.3318 1580 39.7492
59.4482 1573 39.6611
59.5646 1592 39.8999
59.681 1604 40.05
59.7975 1579 39.7366
59.9141 1540 39.2428
60.0306 1557 39.4588
60.1473 1436 37.8946
60.2639 1395 37.3497
60.3807 1277 35.7351
60.4974 1328 36.4417
60.6142 1230 35.0714
60.731 1322 36.3593
60.8479 1334 36.524
60.9648 1400 37.4166
61.0818 1361 36.8917
61.1987 1454 38.1314
61.3158 1421 37.6962
61.4328 1394 37.3363
61.5499 1331 36.4829
61.667 1287 35.8748
61.7841 1152 33.9411
61.9013 1121 33.4813
62.0185 1132 33.6452
62.1357 1231 35.0856
62.253 1311 36.2077
62.3702 1398 37.3898
62.4875 1516 38.9358
62.6049 1560 39.4968
62.7222 1625 40.3113
62.8396 1678 40.9634
62.9569 1708 41.328
63.0743 1723 41.509
63.1918 1706 41.3038
63.3092 1673 40.9023
63.4267 1664 40.7922
63.5441 1635 40.4351
63.6616 1537 39.2046
63.7791 1457 38.1707
63.8966 1431 37.8286
64.0142 1444 38
64.1317 1500 38.7298
64.2492 1482 38.4968
64.3668 1565 39.5601
64.4843 1608 40.0999
64.6019 1619 40.2368
64.7195 1619 40.2368
64.837 1584 39.7995
64.9546 1543 39.281
65.0722 1457 38.1707
65.1898 1385 37.2156
65.3074 1278 35.7491
65.4249 1184 34.4093
65.5425 1180 34.3511
65.6601 1200 34.641
65.7777 1283 35.819
65.8952 1394 37.3363
66.0128 1537 39.2046
66.1304 1532 39.1408
66.2479 1614 40.1746
66.3655 1687 41.0731
66.483 1684 41.0366
66.6005 1697 41.1947
66.718 1605 40.0625
66.8355 1675 40.9268
66.953 1654 40.6694
67.0705 1510 38.8587
67.1879 1546 39.3192
67.3054 1472 38.3667
67.4228 1359 36.8646
67.5402 1276 35.7211
67.6576 1297 36.0139
67.7749 1370 37.0135
67.8923 1373 37.054
68.0096 1407 37.51
68.1269 1487 38.5616
68.2442 1338 36.5787
68.3614 1315 36.2629
68.4787 1361 36.8917
68.5958 1336 36.5513
68.713 1274 35.6931
68.8302 1194 34.5543
68.9473 1015 31.8591
69.0643 954 30.8869
69.1814 934 30.5614
69.2984 966 31.0805
69.4154 1068 32.6803
69.5323 1257 35.4542
69.6492 1305 36.1248
69.7661 1382 37.1753
69.8829 1496 38.6782
69.9997 1499 38.7169
70.1165 1504 38.7814
70.2332 1455 38.1445
70.3499 1542 39.2683
70.4665 1438 37.921
70.5831 1483 38.5097
70.6996 1405 37.4833
70.8161 1313 36.2353
70.9326 1278 35.7491
71.049 1193 34.5398
71.1653 1175 34.2783
71.2817 1165 34.1321
71.3979 1143 33.8083
71.5141 1207 34.7419
71.6303 1158 34.0294
71.7464 1066 32.6497
71.8624 0 1
71.9784 0 1
72.0944 0 1
72.2102 0 1
72.3261 0 1
72.4418 0 1
72.5575 0 1
72.6732 0 1
75.1054 0 1
75.2209 0 1
75.3365 0 1
75.4521 0 1
75.5678 0 1
75.6835 0 1
75.7993 0 1
75.9151 0 1
76.031 0 1
76.147 1228 35.0428
76.263 1204 34.6987
76.3791 1112 33.3467
76.4952 1162 34.0881
76.6113 1192 34.5254
76.7276 1232 35.0999
76.8438 1208 34.7563
76.9601 1300 36.0555
77.0765 1204 34.6987
77.1929 1269 35.623
77.3093 1322 36.3593
77.4258 1246 35.2987
77.5423 1345 36.6742
77.6589 1241 35.2278
77.7755 1037 32.2025
77.8921 1030 32.0936
78.0088 894 29.8998
78.1256 851 29.1719
78.2423 795 28.1957
78.3591 947 30.7734
78.4759 1115 33.3916
78.5928 1187 34.4529
78.7097 1280 35.7771
78.8266 1261 35.5106
78.9436 1459 38.1969
79.0606 1430 37.8153
79.1776 1440 37.9473
79.2946 1378 37.1214
79.4117 1376 37.0945
79.5288 1356 36.8239
79.6459 1332 36.4966
79.7631 1232 35.0999
79.8802 1154 33.9706
79.9974 1142 33.7935
80.1147 1072 32.7414
80.2319 1155 33.9853
80.3491 1200 34.641
80.4664 1140 33.7639
80.5837 1188 34.4674
80.701 1142 33.7935
80.8183 1170 34.2053
80.9357 1124 33.5261
81.053 1141 33.7787
81.1704 1230 35.0714
81.2877 1135 33.6898
81.4051 1058 32.5269
81.5225 869 29.4788
81.6399 834 28.8791
81.7573 802 28.3196
81.8747 725 26.9258
81.9922 777 27.8747
82.1096 931 30.5123
82.227 1090 33.0151
82.3444 1151 33.9264
82.4619 1234 35.1283
82.5793 1270 35.6371
82.6967 1287 35.8748
82.8142 1251 35.3695
82.9316 1250 35.3553
83.049 1293 35.9583
83.1664 1229 35.0571
83.2838 1164 34.1174
83.4012 1077 32.8177
83.5186 1044 32.311
83.636 1016 31.8748
83.7534 1032 32.1248
83.8708 1000 31.6228
83.9881 1049 32.3883
84.1055 1060 32.5576
84.2228 1064 32.619
84.3401 1141 33.7787
84.4575 1069 32.6956
84.5747 1091 33.0303
84.692 1140 33.7639
84.8093 1115 33.3916
84.9265 1012 31.8119
85.0437 914 30.2324
85.1609 820 28.6356
85.2781 668 25.8457
85.3952 687 26.2107
85.5123 732 27.0555
85.6294 881 29.6816
85.7465 987 31.4166
85.8636 1097 33.121
85.9806 1150 33.9116
86.0976 1260 35.4965
86.2145 1343 36.647
86.3315 1401 37.4299
86.4484 1245 35.2846
86.5652 1334 36.524
86.682 1352 36.7696
86.7988 1365 36.9459
86.9156 1227 35.0286
87.0323 1210 34.7851
87.149 1188 34.4674
87.2657 1188 34.4674
87.3823 1170 34.2053
87.4988 1216 34.8712
87.6154 1199 34.6266
87.7318 1210 34.7851
87.8483 1162 34.0881
87.9647 1190 34.4964
88.081 1264 35.5528
88.1973 1277 35.7351
88.3136 1268 35.609
88.4298 1259 35.4824
88.546 1081 32.8786
88.6621 926 30.4302
88.7781 840 28.9828
88.8942 0 1
89.0101 0 1
89.126 0 1
89.2419 0 1
89.3577 0 1
89.4734 0 1
89.5891 0 1
89.7047 0 1
89.8203 0 1
89.9358 0 1
92.3269 0 1
92.4424 0 1
92.558 0 1
92.6736 0 1
92.7893 0 1
92.905 0 1
93.0208 0 1
93.1366 0 1
93.2525 0 1
93.3685 0 1
93.4845 0 1
93.6005 1264 35.5528
93.7167 1257 35.4542
93.8328 1251 35.3695
93.949 1199 34.6266
94.0653 1022 31.9687
94.1816 944 30.7246
94.2979 879 29.6479
94.4143 785 28.0179
94.5307 833 28.8617
94.6472 903 30.05
94.7637 1068 32.6803
94.8803 1224 34.9857
94.9969 1296 36
95.1135 1406 37.4967
95.2302 1370 37.0135
95.3469 1462 38.2361
95.4637 1535 39.1791
95.5805 1463 38.2492
95.6973 1529 39.1024
95.8142 1408 37.5233
95.9311 1492 38.6264
96.048 1410 37.55
96.1649 1372 37.0405
96.2819 1367 36.973
96.3989 1311 36.2077
96.516 1377 37.108
96.633 1333 36.5103
96.7501 1327 36.428
96.8673 1386 37.229
96.9844 1441 37.9605
97.1016 1389 37.2693
97.2188 1378 37.1214
97.336 1323 36.3731
97.4532 1350 36.7423
97.5704 1284 35.8329
97.6877 1176 34.2929
97.805 997 31.5753
97.9223 871 29.5127
98.0396 820 28.6356
98.1569 792 28.1425
98.2743 929 30.4795
98.3916 1058 32.5269
98.509 1178 34.322
98.6264 1401 37.4299
98.7438 1323 36.3731
98.8612 1439 37.9342
98.9786 1496 38.6782
99.096 1560 39.4968
99.2134 1590 39.8748
99.3308 1579 39.7366
99.4482 1539 39.2301
99.5656 1521 39
99.6831 1423 37.7227
99.8005 1439 37.9342
99.9179 1394 37.3363
100.035 1434 37.8682
100.153 1358 36.8511
100.27 1391 37.2961
100.388 1392 37.3095
100.505 1355 36.8103
100.622 1462 38.2361
100.74 1391 37.2961
100.857 1424 37.7359
100.975 1507 38.8201
101.092 1451 38.092
101.209 1327 36.428
101.327 1123 33.5112
101.444 1014 31.8434
101.561 798 28.2489
101.679 828 28.775
101.796 900 30
101.913 1059 32.5423
102.03 1201 34.6554
102.148 1402 37.4433
102.265 1388 37.2559
102.382 1561 39.5095
102.499 1595 39.9375
102.616 1599 39.9875
102.733 1645 40.5586
102.851 1669 40.8534
102.968 1639 40.4846
103.085 1645 40.5586
103.202 1620 40.2492
103.319 1550 39.37
103.436 1488 38.5746
103.552 1509 38.8458
103.669 1428 37.7889
103.786 1463 38.2492
103.903 1487 38.5616
104.02 1465 38.2753
104.137 1456 38.1576
104.253 1480 38.4708
104.37 1586 39.8246
104.487 1519 38.9744
104.603 1554 39.4208
104.72 1380 37.1484
104.836 1137 33.7194
104.953 980 31.305
105.069 884 29.7321
105.186 865 29.4109
105.302 943 30.7083
105.418 1102 33.1964
105.535 1389 37.2693
105.651 1562 39.5221
105.767 1628 40.3485
105.883 1712 41.3763
105.999 1739 41.7013
106.115 0 1
106.231 0 1
106.347 0 1
106.463 0 1
106.579 0 1
106.694 0 1
106.81 0 1
106.926 0 1
107.041 0 1
107.157 0 1
109.576 0 1
109.692 0 1
109.807 0 1
109.923 0 1
110.039 0 1
110.155 0 1
110.27 0 1
110.386 0 1
110.502 0 1
110.618 1370 37.0135
110.735 1565 39.5601
110.851 1616 40.1995
110.967 1683 41.0244
111.083 1691 41.1218
111.199 1724 41.5211
111.316 1627 40.3361
111.432 1726 41.5452
111.549 1700 41.2311
111.665 1581 39.7618
111.782 1611 40.1373
111.898 1621 40.2616
112.015 1504 38.7814
112.132 1520 38.9872
112.248 1462 38.2361
112.365 1474 38.3927
112.482 1431 37.8286
112.599 1477 38.4318
112.716 1450 38.0789
112.832 1467 38.3014
112.949 1473 38.3797
113.066 1450 38.0789
113.183 1348 36.7151
113.3 1250 35.3553
113.417 1095 33.0908
113.534 903 30.05
113.652 900 30
113.769 832 28.8444
113.886 967 31.0966
114.003 1037 32.2025
114.12 1268 35.609
114.238 1473 38.3797
114.355 1424 37.7359
114.472 1459 38.1969
114.589 1625 40.3113
114.707 1548 39.3446
114.824 1570 39.6232
114.942 1565 39.5601
115.059 1552 39.3954
115.176 1618 40.2244
115.294 1571 39.6358
115.411 1538 39.2173
115.529 1453 38.1182
115.646 1514 38.9102
115.764 1472 38.3667
115.881 1448 38.0526
115.999 1455 38.1445
116.116 1356 36.8239
116.234 1504 38.7814
116.351 1485 38.5357
116.469 1413 37.5899
116.586 1416 37.6298
116.704 1424 37.7359
116.821 1396 37.3631
116.939 1184 34.4093
117.056 1097 33.121
117.174 951 30.8383
117.291 896 29.9333
117.409 903 30.05
117.526 944 30.7246
117.644 1193 34.5398
117.761 1257 35.4542
117.879 1458 38.1838
117.996 1408 37.5233
118.114 1450 38.0789
118.231 1600 40
118.349 1534 39.1663
118.466 1546 39.3192
118.584 1567 39.5854
118.701 1530 39.1152
118.819 1565 39.5601
118.936 1541 39.2556
119.053 1525 39.0512
119.171 1504 38.7814
119.288 1443 37.9868
119.405 1518 38.9615
119.523 1511 38.8716
119.64 1409 37.5366
119.757 1407 37.51
119.875 1412 37.5766
119.992 1387 37.2424
120.109 1370 37.0135
120.226 1388 37.2559
120.343 1394 37.3363
120.46 1255 35.426
120.578 1137 33.7194
120.695 1080 32.8634
120.812 952 30.8545
120.929 869 29.4788
121.046 847 29.1033
121.163 950 30.8221
121.279 1070 32.7109
121.396 1209 34.7707
121.513 1387 37.2424
121.63 1390 37.2827
121.747 1474 38.3927
121.863 1388 37.2559
121.98 1494 38.6523
122.097 1565 39.5601
122.213 1509 38.8458
122.33 1503 38.7685
122.446 1526 39.064
122.563 1560 39.4968
122.679 1479 38.4578
122.795 1485 38.5357
122.912 1401 37.4299
123.028 1343 36.647
123.144 1383 37.1887
123.26 1434 37.8682
123.377 0 1
123.493 0 1
123.609 0 1
123.725 0 1
123.84 0 1
123.956 0 1
124.072 0 1
124.188 0 1
124.303 0 1
124.419 0 1
126.852 0 1
126.968 0 1
127.083 0 1
127.199 0 1
127.315 0 1
127.431 0 1
127.547 0 1
127.663 0 1
127.779 0 1
127.895 0 1
128.011 0 1
128.127 0 1
128.243 0 1
128.359 1593 39.9124
128.476 1572 39.6485
128.592 1544 39.2938
128.708 1558 39.4715
128.825 1544 39.2938
128.941 1618 40.2244
129.058 1492 38.6264
129.174 1560 39.4968
129.291 1554 39.4208
129.408 1445 38.0132
129.524 1276 35.7211
129.641 1167 34.1614
129.758 1104 33.2265
129.875 1038 32.218
129.992 1001 31.6386
130.108 972 31.1769
130.225 1141 33.7787
130.342 1283 35.819
130.459 1397 37.3765
130.576 1521 39
130.693 1530 39.1152
130.81 1528 39.0896
130.928 1599 39.9875
131.045 1666 40.8167
131.162 1626 40.3237
131.279 1655 40.6817
131.396 1605 40.0625
131.513 1684 41.0366
131.631 1572 39.6485
131.748 1640 40.4969
131.865 1653 40.6571
131.983 1534 39.1663
132.1 1619 40.2368
132.217 1569 39.6106
132.335 1620 40.2492
132.452 1567 39.5854
132.57 1603 40.0375
132.687 1542 39.2683
132.804 1502 38.7556
132.922 1454 38.1314
133.039 1353 36.7831
133.157 1276 35.7211
133.274 1106 33.2566
133.392 1067 32.665
133.509 1033 32.1403
133.627 990 31.4643
133.744 1149 33.8969
133.862 1309 36.1801
133.979 1347 36.7015
134.097 1352 36.7696
134.214 1437 37.9078
134.332 1485 38.5357
134.449 1561 39.5095
134.567 1615 40.1871
134.684 1638 40.4722
134.802 1530 39.1152
134.919 1648 40.5956
135.037 1597 39.9625
135.154 1492 38.6264
135.272 1587 39.8372
135.389 1551 39.3827
135.507 1564 39.5474
135.624 1503 38.7685
135.742 1521 39
135.859 1531 39.128
135.977 1540 39.2428
136.094 1492 38.6264
136.211 1517 38.9487
136.329 1564 39.5474
136.446 1485 38.5357
136.564 1485 38.5357
136.681 1319 36.318
136.798 1158 34.0294
136.915 1129 33.6006
137.033 1016 31.8748
137.15 993 31.5119
137.267 950 30.8221
137.384 1108 33.2866
137.502 1203 34.6843
137.619 1255 35.426
137.736 1384 37.2022
137.853 1348 36.7151
137.97 1484 38.5227
138.087 1532 39.1408
138.204 1588 39.8497
138.321 1609 40.1123
138.438 1689 41.0974
138.555 1627 40.3361
138.672 1697 41.1947
138.788 1695 41.1704
138.905 1701 41.2432
139.022 1664 40.7922
139.139 1751 41.845
139.255 1626 40.3237
139.372 1715 41.4126
139.488 1621 40.2616
139.605 1616 40.1995
139.721 1642 40.5216
139.838 1689 41.0974
139.954 1581 39.7618
140.071 1587 39.8372
140.187 1479 38.4578
140.303 1465 38.2753
140.419 1344 36.6606
140.535 1244 35.2704
140.652 1172 34.2345
140.768 0 1
140.884 0 1
141 0 1
141.115 0 1
141.231 0 1
141.347 0 1
141.463 0 1
141.578 0 1
141.694 0 1
144.104 0 1
144.219 0 1
144.335 0 1
144.45 0 1
144.566 0 1
144.682 0 1
144.798 0 1
144.914 0 1
145.03 0 1
145.146 1100 33.1662
145.262 1088 32.9848
145.378 1130 33.6155
145.494 1005 31.7017
145.61 1001 31.6386
145.726 942 30.692
145.842 854 29.2233
145.959 824 28.7054
146.075 848 29.1204
146.192 853 29.2062
146.308 892 29.8664
146.425 914 30.2324
146.541 929 30.4795
146.658 1051 32.4191
146.774 1116 33.4066
146.891 1152 33.9411
147.008 1190 34.4964
147.125 1224 34.9857
147.241 1252 35.3836
147.358 1301 36.0694
147.475 1213 34.8281
147.592 1280 35.7771
147.709 1260 35.4965
147.826 1325 36.4005
147.943 1235 35.1426
148.06 1241 35.2278
148.177 1186 34.4384
148.294 1277 35.7351
148.411 1232 35.0999
148.528 1217 34.8855
148.645 1155 33.9853
148.762 1222 34.9571
148.88 1160 34.0588
148.997 1096 33.1059
149.114 1199 34.6266
149.231 1140 33.7639
149.349 1010 31.7805
149.466 948 30.7896
149.583 988 31.4325
149.701 870 29.4958
149.818 870 29.4958
149.935 776 27.8568
150.053 869 29.4788
150.17 867 29.4449
150.287 896 29.9333
150.405 998 31.5911
150.522 1143 33.8083
150.64 1200 34.641
150.757 1265 35.5668
150.875 1223 34.9714
150.992 1243 35.2562
151.11 1266 35.5809
151.227 1319 36.318
151.344 1254 35.4119
151.462 1275 35.7071
151.579 1243 35.2562
151.697 1176 34.2929
151.814 1223 34.9714
151.932 1260 35.4965
152.049 1233 35.1141
152.167 1267 35.5949
152.284 1227 35.0286
152.402 1241 35.2278
152.519 1251 35.3695
152.636 1183 34.3948
152.754 1229 35.0571
152.871 1142 33.7935
152.989 1110 33.3167
153.106 961 31
153.223 986 31.4006
153.341 868 29.4618
153.458 851 29.1719
153.575 857 29.2746
153.693 868 29.4618
153.81 921 30.348
153.927 1032 32.1248
154.044 1102 33.1964
154.162 1243 35.2562
154.279 1310 36.1939
154.396 1297 36.0139
154.513 1281 35.7911
154.63 1340 36.606
154.747 1378 37.1214
154.864 1402 37.4433
154.981 1389 37.2693
155.098 1414 37.6032
155.215 1396 37.3631
155.332 1340 36.606
155.449 1315 36.2629
155.566 1376 37.0945
155.683 1394 37.3363
155.8 1383 37.1887
155.917 1327 36.428
156.033 1355 36.8103
156.15 0 1
156.267 0 1
156.383 0 1
156.5 0 1
156.617 0 1
156.733 0 1
156.85 0 1
156.966 0 1
157.082 0 1
157.199 0 1
157.315 0 1
157.431 0 1
157.547 0 1
157.664 0 1
157.78 0 1
157.896 0 1
158.012 0 1
158.128 0 1
158.244 0 1
158.359 0 1
158.475 0 1
158.591 0 1
158.706 0 1
