
6.15755 0 1
6.2731 0 1
6.3887 0 1
6.50437 0 1
6.62009 0 1
6.73587 0 1
6.8517 0 1
6.96759 0 1
7.08353 0 1
7.19952 0 1
7.31557 0 1
7.43166 0 1
7.54781 0 1
7.664 0 1
7.78024 0 1
7.89653 0 1
8.01286 0 1
8.12924 0 1
8.24567 0 1
8.36213 0 1
8.47864 0 1
8.59519 0 1
8.71178 0 1
8.82841 0 1
8.94508 0 1
9.06179 0 1
9.17853 0 1
9.29531 0 1
9.41212 0 1
9.52897 0 1
9.64584 0 1
9.76276 0 1
9.8797 0 1
9.99667 0 1
10.1137 0 1
10.2307 0 1
10.3478 0 1
10.4648 0 1
10.5819 0 1
10.6991 0 1
10.8162 0 1
10.9334 0 1
11.0506 0 1
11.1678 0 1
11.285 0 1
11.4023 0 1
11.5196 0 1
11.6369 0 1
11.7542 0 1
11.8715 0 1
11.9888 0 1
12.1062 0 1
12.2235 0 1
12.3409 0 1
12.4582 0 1
12.5756 0 1
12.693 0 1
12.8104 0 1
12.9278 0 1
13.0452 0 1
13.1626 0 1
13.28 0 1
13.3974 0 1
13.5149 0 1
13.6323 0 1
13.7497 0 1
13.8671 0 1
13.9845 0 1
14.1019 0 1
14.2193 0 1
14.3367 0 1
14.4541 0 1
14.5714 0 1
14.6888 0 1
14.8062 0 1
14.9235 0 1
15.0408 1189 34.4819
15.1581 1208 34.7563
15.2755 1200 34.641
15.3927 1331 36.4829
15.51 1279 35.7631
15.6273 1293 35.9583
15.7445 1201 34.6554
15.8617 1281 35.7911
15.9789 1217 34.8855
16.0961 1202 34.6699
16.2132 1193 34.5398
16.3304 1151 33.9264
16.4475 1178 34.322
16.5646 1224 34.9857
16.6816 1224 34.9857
16.7986 1225 35
16.9156 1297 36.0139
17.0326 1211 34.7994
17.1496 1169 34.1906
17.2665 1206 34.7275
17.3833 1199 34.6266
17.5002 1169 34.1906
17.617 1238 35.1852
17.7338 1184 34.4093
17.8505 1189 34.4819
17.9672 1149 33.8969
18.0839 1269 35.623
18.2005 1242 35.242
18.3171 1321 36.3456
18.4337 1360 36.8782
18.5502 1429 37.8021
18.6666 1424 37.7359
18.7831 1366 36.9594
18.8994 1337 36.565
19.0158 1323 36.3731
19.1321 1332 36.4966
19.2483 1223 34.9714
19.3645 1186 34.4384
19.4806 1162 34.0881
19.5967 1068 32.6803
19.7128 1029 32.078
19.8288 1070 32.7109
19.9447 955 30.9031
20.0606 0 1
20.1764 0 1
20.2922 0 1
20.4079 0 1
20.5236 0 1
20.6392 0 1
20.7548 0 1
20.8702 0 1
23.3078 0 1
23.4233 0 1
23.539 0 1
23.6547 0 1
23.7704 0 1
23.8862 0 1
24.0021 0 1
24.118 0 1
24.234 0 1
24.35 0 1
24.4661 1126 33.5559
24.5822 1119 33.4515
24.6984 1096 33.1059
24.8146 1066 32.6497
24.9309 1088 32.9848
25.0472 1131 33.6303
25.1636 1201 34.6554
25.28 1222 34.9571
25.3965 1242 35.242
25.513 1304 36.1109
25.6296 1283 35.819
25.7462 1337 36.565
25.8628 1296 36
25.9795 1247 35.3129
26.0962 1202 34.6699
26.213 1127 33.5708
26.3298 1163 34.1028
26.4466 1148 33.8821
26.5635 1130 33.6155
26.6804 1155 33.9853
26.7973 1200 34.641
26.9143 1232 35.0999
27.0313 1294 35.9722
27.1483 1249 35.3412
27.2653 1319 36.318
27.3824 1305 36.1248
27.4996 1295 35.9861
27.6167 1195 34.5688
27.7339 1267 35.5949
27.8511 1271 35.6511
27.9683 1158 34.0294
28.0855 1196 34.5832
28.2028 1182 34.3802
28.3201 1192 34.5254
28.4374 1075 32.7872
28.5547 1064 32.619
28.6721 1103 33.2114
28.7894 1174 34.2637
28.9068 1114 33.3766
29.0242 1207 34.7419
29.1416 1201 34.6554
29.259 1244 35.2704
29.3764 1104 33.2265
29.4939 1201 34.6554
29.6113 1153 33.9559
29.7288 1145 33.8378
29.8463 1098 33.1361
29.9638 1089 33
30.0812 1115 33.3916
30.1987 1068 32.6803
30.3162 1122 33.4963
30.4337 1113 33.3617
30.5512 1199 34.6266
30.6687 1213 34.8281
30.7862 1214 34.8425
30.9037 1150 33.9116
31.0212 1182 34.3802
31.1387 1257 35.4542
31.2562 1218 34.8999
31.3737 1204 34.6987
31.4912 1215 34.8569
31.6087 1177 34.3074
31.7262 1079 32.8481
31.8436 1090 33.0151
31.9611 1076 32.8024
32.0785 1086 32.9545
32.1959 1119 33.4515
32.3134 1073 32.7567
32.4308 1146 33.8526
32.5482 1149 33.8969
32.6655 1193 34.5398
32.7829 1134 33.6749
32.9002 1155 33.9853
33.0176 1127 33.5708
33.1349 1189 34.4819
33.2522 1199 34.6266
33.3694 1136 33.7046
33.4867 1083 32.909
33.6039 1039 32.2335
33.7211 1015 31.8591
33.8383 1012 31.8119
33.9554 1110 33.3167
34.0725 1042 32.28
34.1896 1139 33.7491
34.3067 1240 35.2136
34.4237 1175 34.2783
34.5407 1221 34.9428
34.6577 1176 34.2929
34.7746 1173 34.2491
34.8915 1172 34.2345
35.0084 1211 34.7994
35.1252 1170 34.2053
35.242 1099 33.1512
35.3587 1067 32.665
35.4755 1097 33.121
35.5921 1016 31.8748
35.7088 1058 32.5269
35.8254 1009 31.7648
35.9419 1041 32.2645
36.0584 1006 31.7175
36.1749 1078 32.8329
36.2913 1170 34.2053
36.4077 1118 33.4365
36.524 1171 34.2199
36.6403 1151 33.9264
36.7565 1129 33.6006
36.8727 1063 32.6037
36.9889 1043 32.2955
37.1049 997 31.5753
37.221 0 1
37.3369 0 1
37.4529 0 1
37.5687 0 1
37.6845 0 1
37.8003 0 1
37.916 0 1
38.0316 0 1
38.1472 0 1
40.5851 0 1
40.7008 0 1
40.8164 0 1
40.9322 0 1
41.048 0 1
41.1639 0 1
41.2798 0 1
41.3958 0 1
41.5118 0 1
41.6279 0 1
41.744 897 29.95
41.8602 994 31.5278
41.9765 924 30.3974
42.0928 926 30.4302
42.2091 1011 31.7962
42.3255 936 30.5941
42.4419 908 30.133
42.5584 896 29.9333
42.675 797 28.2312
42.7915 844 29.0517
42.9081 850 29.1548
43.0248 906 30.0998
43.1415 927 30.4467
43.2582 959 30.9677
43.375 943 30.7083
43.4918 912 30.1993
43.6087 953 30.8707
43.7256 905 30.0832
43.8425 925 30.4138
43.9595 898 29.9666
44.0765 917 30.282
44.1935 831 28.8271
44.3106 850 29.1548
44.4277 818 28.6007
44.5448 798 28.2489
44.6619 703 26.5141
44.7791 700 26.4575
44.8963 701 26.4764
45.0136 698 26.4197
45.1308 660 25.6905
45.2481 660 25.6905
45.3654 716 26.7582
45.4827 705 26.5518
45.6001 719 26.8142
45.7174 737 27.1477
45.8348 746 27.313
45.9522 783 27.9821
46.0697 639 25.2784
46.1871 654 25.5734
46.3046 633 25.1595
46.422 695 26.3629
46.5395 611 24.7184
46.657 664 25.7682
46.7745 717 26.7769
46.892 660 25.6905
47.0096 705 26.5518
47.1271 748 27.3496
47.2446 760 27.5681
47.3622 707 26.5895
47.4797 686 26.1916
47.5973 648 25.4558
47.7149 674 25.9615
47.8324 643 25.3574
47.95 621 24.9199
48.0675 571 23.8956
48.1851 627 25.04
48.3027 572 23.9165
48.4202 594 24.3721
48.5378 561 23.6854
48.6554 621 24.9199
48.7729 551 23.4734
48.8904 612 24.7386
49.008 617 24.8395
49.1255 630 25.0998
49.243 679 26.0576
49.3605 634 25.1794
49.478 618 24.8596
49.5955 587 24.2281
49.713 575 23.9792
49.8304 580 24.0832
49.9479 601 24.5153
50.0653 616 24.8193
50.1827 626 25.02
50.3001 704 26.533
50.4175 712 26.6833
50.5348 722 26.8701
50.6521 747 27.3313
50.7694 762 27.6043
50.8867 788 28.0713
51.004 783 27.9821
51.1212 783 27.9821
51.2384 785 28.0179
51.3556 801 28.3019
51.4727 803 28.3373
51.5899 732 27.0555
51.707 747 27.3313
51.824 694 26.3439
51.9411 783 27.9821
52.0581 786 28.0357
52.175 812 28.4956
52.2919 809 28.4429
52.4088 915 30.249
52.5257 910 30.1662
52.6425 971 31.1609
52.7593 938 30.6268
52.876 1014 31.8434
52.9927 947 30.7734
53.1094 950 30.8221
53.226 907 30.1164
53.3426 924 30.3974
53.4591 904 30.0666
53.5756 900 30
53.692 944 30.7246
53.8084 973 31.1929
53.9248 1019 31.9218
54.0411 1020 31.9374
54.1573 1105 33.2415
54.2735 0 1
54.3896 0 1
54.5057 0 1
54.6217 0 1
54.7377 0 1
54.8537 0 1
54.9695 0 1
55.0853 0 1
55.2011 0 1
55.3168 0 1
55.4324 0 1
57.824 0 1
57.9396 0 1
58.0553 0 1
58.1711 0 1
58.2869 0 1
58.4028 0 1
58.5187 0 1
58.6347 0 1
58.7508 0 1
58.8669 0 1
58.983 1193 34.5398
59.0992 1256 35.4401
59.2155 1328 36.4417
59.3318 1338 36.5787
59.4482 1333 36.5103
59.5646 1349 36.7287
59.681 1384 37.2022
59.7975 1388 37.2559
59.9141 1392 37.3095
60.0306 1374 37.0675
60.1473 1342 36.6333
60.2639 1245 35.2846
60.3807 1259 35.4824
60.4974 1212 34.8138
60.6142 1118 33.4365
60.731 1132 33.6452
60.8479 1166 34.1467
60.9648 1159 34.0441
61.0818 1195 34.5688
61.1987 1250 35.3553
61.3158 1225 35
61.4328 1311 36.2077
61.5499 1308 36.1663
61.667 1220 34.9285
61.7841 1220 34.9285
61.9013 1281 35.7911
62.0185 1128 33.5857
62.1357 1140 33.7639
62.253 1094 33.0757
62.3702 1174 34.2637
62.4875 1185 34.4238
62.6049 1254 35.4119
62.7222 1184 34.4093
62.8396 1192 34.5254
62.9569 1293 35.9583
63.0743 1216 34.8712
63.1918 1202 34.6699
63.3092 1234 35.1283
63.4267 1226 35.0143
63.5441 1258 35.4683
63.6616 1235 35.1426
63.7791 1148 33.8821
63.8966 1193 34.5398
64.0142 1080 32.8634
64.1317 1087 32.9697
64.2492 999 31.607
64.3668 990 31.4643
64.4843 1075 32.7872
64.6019 1123 33.5112
64.7195 1121 33.4813
64.837 1194 34.5543
64.9546 1197 34.5977
65.0722 1142 33.7935
65.1898 1169 34.1906
65.3074 1175 34.2783
65.4249 1098 33.1361
65.5425 1098 33.1361
65.6601 1035 32.1714
65.7777 993 31.5119
65.8952 1017 31.8904
66.0128 1057 32.5115
66.1304 1195 34.5688
66.2479 1159 34.0441
66.3655 1146 33.8526
66.483 1273 35.6791
66.6005 1244 35.2704
66.718 1168 34.176
66.8355 1225 35
66.953 1233 35.1141
67.0705 1279 35.7631
67.1879 1264 35.5528
67.3054 1165 34.1321
67.4228 1238 35.1852
67.5402 1169 34.1906
67.6576 1023 31.9844
67.7749 1063 32.6037
67.8923 1019 31.9218
68.0096 1107 33.2716
68.1269 1102 33.1964
68.2442 1147 33.8674
68.3614 1141 33.7787
68.4787 1144 33.8231
68.5958 1148 33.8821
68.713 1194 34.5543
68.8302 1264 35.5528
68.9473 1242 35.242
69.0643 1259 35.4824
69.1814 1179 34.3366
69.2984 1188 34.4674
69.4154 1058 32.5269
69.5323 1124 33.5261
69.6492 1160 34.0588
69.7661 1192 34.5254
69.8829 1287 35.8748
69.9997 1255 35.426
70.1165 1239 35.1994
70.2332 1313 36.2353
70.3499 1282 35.805
70.4665 1312 36.2215
70.5831 1300 36.0555
70.6996 1370 37.0135
70.8161 1356 36.8239
70.9326 1321 36.3456
71.049 1287 35.8748
71.1653 1325 36.4005
71.2817 1192 34.5254
71.3979 1151 33.9264
71.5141 1109 33.3017
71.6303 1081 32.8786
71.7464 978 31.273
71.8624 0 1
71.9784 0 1
72.0944 0 1
72.2102 0 1
72.3261 0 1
72.4418 0 1
72.5575 0 1
72.6732 0 1
75.1054 0 1
75.2209 0 1
75.3365 0 1
75.4521 0 1
75.5678 0 1
75.6835 0 1
75.7993 0 1
75.9151 0 1
76.031 0 1
76.147 1126 33.5559
76.263 1261 35.5106
76.3791 1259 35.4824
76.4952 1234 35.1283
76.6113 1219 34.9142
76.7276 1145 33.8378
76.8438 1168 34.176
76.9601 1108 33.2866
77.0765 1129 33.6006
77.1929 1160 34.0588
77.3093 1199 34.6266
77.4258 1315 36.2629
77.5423 1220 34.9285
77.6589 1275 35.7071
77.7755 1311 36.2077
77.8921 1308 36.1663
78.0088 1235 35.1426
78.1256 1246 35.2987
78.2423 1134 33.6749
78.3591 1076 32.8024
78.4759 1077 32.8177
78.5928 1093 33.0606
78.7097 1125 33.541
78.8266 1236 35.1568
78.9436 1295 35.9861
79.0606 1282 35.805
79.1776 1287 35.8748
79.2946 1267 35.5949
79.4117 1287 35.8748
79.5288 1318 36.3043
79.6459 1318 36.3043
79.7631 1339 36.5923
79.8802 1345 36.6742
79.9974 1320 36.3318
80.1147 1296 36
80.2319 1222 34.9571
80.3491 1153 33.9559
80.4664 1117 33.4215
80.5837 1090 33.0151
80.701 1075 32.7872
80.8183 1216 34.8712
80.9357 1214 34.8425
81.053 1269 35.623
81.1704 1298 36.0278
81.2877 1334 36.524
81.4051 1351 36.756
81.5225 1392 37.3095
81.6399 1301 36.0694
81.7573 1224 34.9857
81.8747 1208 34.7563
81.9922 1079 32.8481
82.1096 1060 32.5576
82.227 1125 33.541
82.3444 1126 33.5559
82.4619 1195 34.5688
82.5793 1234 35.1283
82.6967 1243 35.2562
82.8142 1278 35.7491
82.9316 1310 36.1939
83.049 1312 36.2215
83.1664 1305 36.1248
83.2838 1314 36.2491
83.4012 1358 36.8511
83.5186 1347 36.7015
83.636 1302 36.0832
83.7534 1325 36.4005
83.8708 1292 35.9444
83.9881 1148 33.8821
84.1055 1134 33.6749
84.2228 1081 32.8786
84.3401 1120 33.4664
84.4575 1204 34.6987
84.5747 1175 34.2783
84.692 1343 36.647
84.8093 1357 36.8375
84.9265 1351 36.756
85.0437 1422 37.7094
85.1609 1399 37.4032
85.2781 1325 36.4005
85.3952 1264 35.5528
85.5123 1188 34.4674
85.6294 1121 33.4813
85.7465 1065 32.6343
85.8636 1167 34.1614
85.9806 1269 35.623
86.0976 1262 35.5246
86.2145 1278 35.7491
86.3315 1358 36.8511
86.4484 1431 37.8286
86.5652 1435 37.8814
86.682 1451 38.092
86.7988 1489 38.5876
86.9156 1429 37.8021
87.0323 1409 37.5366
87.149 1352 36.7696
87.2657 1326 36.4143
87.3823 1337 36.565
87.4988 1282 35.805
87.6154 1227 35.0286
87.7318 1214 34.8425
87.8483 1232 35.0999
87.9647 1194 34.5543
88.081 1281 35.7911
88.1973 1360 36.8782
88.3136 1331 36.4829
88.4298 1390 37.2827
88.546 1410 37.55
88.6621 1433 37.855
88.7781 1474 38.3927
88.8942 0 1
89.0101 0 1
89.126 0 1
89.2419 0 1
89.3577 0 1
89.4734 0 1
89.5891 0 1
89.7047 0 1
89.8203 0 1
89.9358 0 1
92.3269 0 1
92.4424 0 1
92.558 0 1
92.6736 0 1
92.7893 0 1
92.905 0 1
93.0208 0 1
93.1366 0 1
93.2525 0 1
93.3685 0 1
93.4845 0 1
93.6005 1305 36.1248
93.7167 1337 36.565
93.8328 1328 36.4417
93.949 1292 35.9444
94.0653 1389 37.2693
94.1816 1266 35.5809
94.2979 1233 35.1141
94.4143 1201 34.6554
94.5307 1071 32.7261
94.6472 1117 33.4215
94.7637 1095 33.0908
94.8803 1164 34.1174
94.9969 1233 35.1141
95.1135 1286 35.8608
95.2302 1359 36.8646
95.3469 1247 35.3129
95.4637 1311 36.2077
95.5805 1370 37.0135
95.6973 1390 37.2827
95.8142 1436 37.8946
95.9311 1483 38.5097
96.048 1366 36.9594
96.1649 1385 37.2156
96.2819 1313 36.2353
96.3989 1329 36.4555
96.516 1232 35.0999
96.633 1194 34.5543
96.7501 1074 32.7719
96.8673 1121 33.4813
96.9844 1167 34.1614
97.1016 1168 34.176
97.2188 1192 34.5254
97.336 1358 36.8511
97.4532 1306 36.1386
97.5704 1311 36.2077
97.6877 1413 37.5899
97.805 1346 36.6879
97.9223 1361 36.8917
98.0396 1226 35.0143
98.1569 1177 34.3074
98.2743 1100 33.1662
98.3916 1055 32.4808
98.509 1103 33.2114
98.6264 1212 34.8138
98.7438 1296 36
98.8612 1243 35.2562
98.9786 1318 36.3043
99.096 1349 36.7287
99.2134 1265 35.5668
99.3308 1361 36.8917
99.4482 1405 37.4833
99.5656 1255 35.426
99.6831 1308 36.1663
99.8005 1305 36.1248
99.9179 1309 36.1801
100.035 1240 35.2136
100.153 1198 34.6121
100.27 1158 34.0294
100.388 1061 32.573
100.505 1069 32.6956
100.622 1197 34.5977
100.74 1189 34.4819
100.857 1221 34.9428
100.975 1280 35.7771
101.092 1324 36.3868
101.209 1302 36.0832
101.327 1317 36.2905
101.444 1323 36.3731
101.561 1258 35.4683
101.679 1247 35.3129
101.796 1179 34.3366
101.913 1049 32.3883
102.03 1034 32.1559
102.148 1110 33.3167
102.265 1197 34.5977
102.382 1335 36.5377
102.499 1355 36.8103
102.616 1364 36.9324
102.733 1407 37.51
102.851 1353 36.7831
102.968 1404 37.47
103.085 1340 36.606
103.202 1354 36.7967
103.319 1409 37.5366
103.436 1371 37.027
103.552 1341 36.6197
103.669 1316 36.2767
103.786 1175 34.2783
103.903 1188 34.4674
104.02 1185 34.4238
104.137 1273 35.6791
104.253 1230 35.0714
104.37 1346 36.6879
104.487 1304 36.1109
104.603 1420 37.6829
104.72 1440 37.9473
104.836 1421 37.6962
104.953 1362 36.9053
105.069 1349 36.7287
105.186 1219 34.9142
105.302 1158 34.0294
105.418 1122 33.4963
105.535 1175 34.2783
105.651 1276 35.7211
105.767 1318 36.3043
105.883 1328 36.4417
105.999 1344 36.6606
106.115 0 1
106.231 0 1
106.347 0 1
106.463 0 1
106.579 0 1
106.694 0 1
106.81 0 1
106.926 0 1
107.041 0 1
107.157 0 1
109.576 0 1
109.692 0 1
109.807 0 1
109.923 0 1
110.039 0 1
110.155 0 1
110.27 0 1
110.386 0 1
110.502 0 1
110.618 1018 31.9061
110.735 1074 32.7719
110.851 1167 34.1614
110.967 1186 34.4384
111.083 1224 34.9857
111.199 1318 36.3043
111.316 1262 35.5246
111.432 1314 36.2491
111.549 1293 35.9583
111.665 1281 35.7911
111.782 1214 34.8425
111.898 1287 35.8748
112.015 1151 33.9264
112.132 1265 35.5668
112.248 1118 33.4365
112.365 1060 32.5576
112.482 1065 32.6343
112.599 1039 32.2335
112.716 1114 33.3766
112.832 1007 31.7333
112.949 1116 33.4066
113.066 1088 32.9848
113.183 1223 34.9714
113.3 1257 35.4542
113.417 1180 34.3511
113.534 1219 34.9142
113.652 1049 32.3883
113.769 1055 32.4808
113.886 905 30.0832
114.003 914 30.2324
114.12 939 30.6431
114.238 957 30.9354
114.355 1016 31.8748
114.472 1053 32.45
114.589 1042 32.28
114.707 1069 32.6956
114.824 1098 33.1361
114.942 1076 32.8024
115.059 1068 32.6803
115.176 1088 32.9848
115.294 984 31.3688
115.411 952 30.8545
115.529 1004 31.686
115.646 975 31.225
115.764 1003 31.6702
115.881 933 30.545
115.999 839 28.9655
116.116 849 29.1376
116.234 855 29.2404
116.351 847 29.1033
116.469 909 30.1496
116.586 904 30.0666
116.704 954 30.8869
116.821 957 30.9354
116.939 937 30.6105
117.056 960 30.9839
117.174 982 31.3369
117.291 869 29.4788
117.409 845 29.0689
117.526 800 28.2843
117.644 736 27.1293
117.761 785 28.0179
117.879 834 28.8791
117.996 853 29.2062
118.114 952 30.8545
118.231 927 30.4467
118.349 953 30.8707
118.466 895 29.9166
118.584 957 30.9354
118.701 942 30.692
118.819 956 30.9192
118.936 998 31.5911
119.053 928 30.4631
119.171 935 30.5778
119.288 864 29.3939
119.405 928 30.4631
119.523 861 29.3428
119.64 836 28.9137
119.757 848 29.1204
119.875 863 29.3769
119.992 874 29.5635
120.109 942 30.692
120.226 869 29.4788
120.343 978 31.273
120.46 946 30.7571
120.578 1041 32.2645
120.695 1013 31.8277
120.812 989 31.4484
120.929 977 31.257
121.046 915 30.249
121.163 946 30.7571
121.279 830 28.8097
121.396 881 29.6816
121.513 866 29.4279
121.63 928 30.4631
121.747 948 30.7896
121.863 1110 33.3167
121.98 1075 32.7872
122.097 1044 32.311
122.213 1136 33.7046
122.33 1144 33.8231
122.446 1067 32.665
122.563 1063 32.6037
122.679 1133 33.6601
122.795 1079 32.8481
122.912 1061 32.573
123.028 1051 32.4191
123.144 1068 32.6803
123.26 973 31.1929
123.377 0 1
123.493 0 1
123.609 0 1
123.725 0 1
123.84 0 1
123.956 0 1
124.072 0 1
124.188 0 1
124.303 0 1
124.419 0 1
126.852 0 1
126.968 0 1
127.083 0 1
127.199 0 1
127.315 0 1
127.431 0 1
127.547 0 1
127.663 0 1
127.779 0 1
127.895 0 1
128.011 0 1
128.127 0 1
128.243 0 1
128.359 1215 34.8569
128.476 1198 34.6121
128.592 1231 35.0856
128.708 1169 34.1906
128.825 1090 33.0151
128.941 1124 33.5261
129.058 1170 34.2053
129.174 1164 34.1174
129.291 1204 34.6987
129.408 1233 35.1141
129.524 1285 35.8469
129.641 1258 35.4683
129.758 1310 36.1939
129.875 1312 36.2215
129.992 1257 35.4542
130.108 1174 34.2637
130.225 1043 32.2955
130.342 1077 32.8177
130.459 1038 32.218
130.576 1014 31.8434
130.693 1124 33.5261
130.81 1208 34.7563
130.928 1195 34.5688
131.045 1325 36.4005
131.162 1287 35.8748
131.279 1253 35.3977
131.396 1328 36.4417
131.513 1258 35.4683
131.631 1200 34.641
131.748 1257 35.4542
131.865 1173 34.2491
131.983 1203 34.6843
132.1 1190 34.4964
132.217 1158 34.0294
132.335 1098 33.1361
132.452 1157 34.0147
132.57 1117 33.4215
132.687 1051 32.4191
132.804 1244 35.2704
132.922 1148 33.8821
133.039 1185 34.4238
133.157 1205 34.7131
133.274 1257 35.4542
133.392 1247 35.3129
133.509 1157 34.0147
133.627 1166 34.1467
133.744 1065 32.6343
133.862 1036 32.187
133.979 1009 31.7648
134.097 1030 32.0936
134.214 1103 33.2114
134.332 1136 33.7046
134.449 1248 35.327
134.567 1163 34.1028
134.684 1192 34.5254
134.802 1258 35.4683
134.919 1197 34.5977
135.037 1175 34.2783
135.154 1164 34.1174
135.272 1089 33
135.389 1057 32.5115
135.507 1046 32.3419
135.624 1018 31.9061
135.742 947 30.7734
135.859 946 30.7571
135.977 941 30.6757
136.094 970 31.1448
136.211 981 31.3209
136.329 1014 31.8434
136.446 993 31.5119
136.564 1002 31.6544
136.681 949 30.8058
136.798 1043 32.2955
136.915 1029 32.078
137.033 1019 31.9218
137.15 965 31.0644
137.267 939 30.6431
137.384 861 29.3428
137.502 913 30.2159
137.619 800 28.2843
137.736 924 30.3974
137.853 945 30.7409
137.97 978 31.273
138.087 1000 31.6228
138.204 1113 33.3617
138.321 1025 32.0156
138.438 1075 32.7872
138.555 1111 33.3317
138.672 1087 32.9697
138.788 1072 32.7414
138.905 1084 32.9242
139.022 1105 33.2415
139.139 1076 32.8024
139.255 1082 32.8938
139.372 985 31.3847
139.488 985 31.3847
139.605 1091 33.0303
139.721 1009 31.7648
139.838 1066 32.6497
139.954 1179 34.3366
140.071 1088 32.9848
140.187 1182 34.3802
140.303 1191 34.5109
140.419 1190 34.4964
140.535 1246 35.2987
140.652 1239 35.1994
140.768 0 1
140.884 0 1
141 0 1
141.115 0 1
141.231 0 1
141.347 0 1
141.463 0 1
141.578 0 1
141.694 0 1
144.104 0 1
144.219 0 1
144.335 0 1
144.45 0 1
144.566 0 1
144.682 0 1
144.798 0 1
144.914 0 1
145.03 0 1
145.146 1633 40.4104
145.262 1868 43.2204
145.378 1931 43.9431
145.494 2082 45.6289
145.61 2140 46.2601
145.726 2215 47.0638
145.842 2386 48.8467
145.959 2218 47.0956
146.075 2286 47.8121
146.192 2213 47.0425
146.308 2273 47.676
146.425 2256 47.4974
146.541 2615 51.1371
146.658 2676 51.7301
146.774 2871 53.5817
146.891 3094 55.6237
147.008 3328 57.6888
147.125 3431 58.5747
147.241 3495 59.1185
147.358 3635 60.291
147.475 3540 59.4979
147.592 3568 59.7327
147.709 3603 60.025
147.826 3565 59.7076
147.943 3558 59.649
148.06 3408 58.3781
148.177 3398 58.2924
148.294 3206 56.6216
148.411 3362 57.9828
148.528 3607 60.0583
148.645 3504 59.1946
148.762 3565 59.7076
148.88 3774 61.4329
148.997 3830 61.887
149.114 3634 60.2827
149.231 3744 61.1882
149.349 3638 60.3158
149.466 3709 60.9016
149.583 3313 57.5587
149.701 3154 56.1605
149.818 3069 55.3986
149.935 3002 54.7905
150.053 3009 54.8544
150.17 3164 56.2494
150.287 3288 57.3411
150.405 3378 58.1206
150.522 3366 58.0172
150.64 3494 59.1101
150.757 3578 59.8164
150.875 3586 59.8832
150.992 3632 60.2661
151.11 3679 60.6548
151.227 3503 59.1861
151.344 3572 59.7662
151.462 3489 59.0678
151.579 3526 59.3801
151.697 3446 58.7026
151.814 3271 57.1927
151.932 3327 57.6802
152.049 3450 58.7367
152.167 3400 58.3095
152.284 3526 59.3801
152.402 3775 61.441
152.519 3869 62.2013
152.636 3983 63.111
152.754 3866 62.1772
152.871 4094 63.9844
152.989 3873 62.2334
153.106 3853 62.0725
153.223 3527 59.3886
153.341 3393 58.2495
153.458 3336 57.7581
153.575 3338 57.7754
153.693 3460 58.8218
153.81 3506 59.2115
153.927 3670 60.5805
154.044 3953 62.8729
154.162 3978 63.0714
154.279 4015 63.364
154.396 4344 65.909
154.513 4252 65.2074
154.63 4400 66.3325
154.747 4243 65.1383
154.864 4311 65.6582
154.981 4188 64.7148
155.098 4250 65.192
155.215 4183 64.6761
155.332 4111 64.1171
155.449 4123 64.2106
155.566 3936 62.7375
155.683 4170 64.5755
155.8 4283 65.4446
155.917 4550 67.4537
156.033 4621 67.9779
156.15 0 1
156.267 0 1
156.383 0 1
156.5 0 1
156.617 0 1
156.733 0 1
156.85 0 1
156.966 0 1
157.082 0 1
157.199 0 1
157.315 0 1
157.431 0 1
157.547 0 1
157.664 0 1
157.78 0 1
157.896 0 1
158.012 0 1
158.128 0 1
158.244 0 1
158.359 0 1
158.475 0 1
158.591 0 1
158.706 0 1
