
6.15755 0 1
6.2731 0 1
6.3887 0 1
6.50437 0 1
6.62009 0 1
6.73587 0 1
6.8517 0 1
6.96759 0 1
7.08353 0 1
7.19952 0 1
7.31557 0 1
7.43166 0 1
7.54781 0 1
7.664 0 1
7.78024 0 1
7.89653 0 1
8.01286 0 1
8.12924 0 1
8.24567 0 1
8.36213 0 1
8.47864 0 1
8.59519 0 1
8.71178 0 1
8.82841 0 1
8.94508 0 1
9.06179 0 1
9.17853 0 1
9.29531 0 1
9.41212 0 1
9.52897 0 1
9.64584 0 1
9.76276 0 1
9.8797 0 1
9.99667 0 1
10.1137 0 1
10.2307 0 1
10.3478 0 1
10.4648 0 1
10.5819 0 1
10.6991 0 1
10.8162 0 1
10.9334 0 1
11.0506 0 1
11.1678 0 1
11.285 0 1
11.4023 0 1
11.5196 0 1
11.6369 0 1
11.7542 0 1
11.8715 0 1
11.9888 0 1
12.1062 0 1
12.2235 0 1
12.3409 0 1
12.4582 0 1
12.5756 0 1
12.693 0 1
12.8104 0 1
12.9278 0 1
13.0452 0 1
13.1626 0 1
13.28 0 1
13.3974 0 1
13.5149 0 1
13.6323 0 1
13.7497 0 1
13.8671 0 1
13.9845 0 1
14.1019 0 1
14.2193 0 1
14.3367 0 1
14.4541 0 1
14.5714 0 1
14.6888 0 1
14.8062 0 1
14.9235 0 1
15.0408 0 0
15.1581 0 0
15.2755 0 0
15.3927 0 0
15.51 0 0
15.6273 0 0
15.7445 0 0
15.8617 0 0
15.9789 0 0
16.0961 0 0
16.2132 0 0
16.3304 0 0
16.4475 0 0
16.5646 0 0
16.6816 0 0
16.7986 0 0
16.9156 0 0
17.0326 0 0
17.1496 0 0
17.2665 0 0
17.3833 0 0
17.5002 0 0
17.617 0 0
17.7338 0 0
17.8505 0 0
17.9672 0 0
18.0839 0 0
18.2005 0 0
18.3171 0 0
18.4337 0 0
18.5502 0 0
18.6666 0 0
18.7831 0 0
18.8994 0 0
19.0158 0 0
19.1321 0 0
19.2483 0 0
19.3645 0 0
19.4806 0 0
19.5967 0 0
19.7128 0 0
19.8288 0 0
19.9447 0 0
20.0606 0 1
20.1764 0 1
20.2922 0 1
20.4079 0 1
20.5236 0 1
20.6392 0 1
20.7548 0 1
20.8702 0 1
23.3078 0 1
23.4233 0 1
23.539 0 1
23.6547 0 1
23.7704 0 1
23.8862 0 1
24.0021 0 1
24.118 0 1
24.234 0 1
24.35 0 1
24.4661 4578 67.6609
24.5822 5625 75
24.6984 6547 80.9135
24.8146 7226 85.0059
24.9309 7916 88.9719
25.0472 8565 92.5473
25.1636 9217 96.0052
25.28 10194 100.965
25.3965 10563 102.776
25.513 11150 105.594
25.6296 11790 108.582
25.7462 12141 110.186
25.8628 12163 110.286
25.9795 12366 111.203
26.0962 12151 110.232
26.213 11641 107.893
26.3298 11014 104.948
26.4466 10379 101.877
26.5635 10016 100.08
26.6804 10175 100.871
26.7973 10531 102.621
26.9143 10677 103.33
27.0313 10806 103.952
27.1483 11423 106.878
27.2653 11650 107.935
27.3824 11651 107.94
27.4996 11579 107.606
27.6167 11626 107.824
27.7339 11084 105.281
27.8511 10859 104.207
27.9683 10645 103.175
28.0855 10631 103.107
28.2028 10158 100.787
28.3201 9918 99.5892
28.4374 10089 100.444
28.5547 10136 100.678
28.6721 10525 102.591
28.7894 10831 104.072
28.9068 11357 106.569
29.0242 11425 106.888
29.1416 11787 108.568
29.259 11607 107.736
29.3764 11494 107.21
29.4939 11546 107.452
29.6113 11336 106.471
29.7288 10879 104.302
29.8463 10293 101.454
29.9638 9931 99.6544
30.0812 9593 97.9439
30.1987 9727 98.6256
30.3162 10157 100.782
30.4337 10367 101.818
30.5512 10489 102.416
30.6687 10488 102.411
30.7862 10978 104.776
30.9037 11150 105.594
31.0212 11401 106.775
31.1387 11366 106.611
31.2562 10991 104.838
31.3737 10835 104.091
31.4912 10603 102.971
31.6087 10216 101.074
31.7262 9918 99.5892
31.8436 9557 97.7599
31.9611 9568 97.8162
32.0785 9758 98.7826
32.1959 10126 100.628
32.3134 10703 103.455
32.4308 10890 104.355
32.5482 11410 106.818
32.6655 11285 106.231
32.7829 11263 106.127
32.9002 11219 105.92
33.0176 11132 105.508
33.1349 11148 105.584
33.2522 11093 105.323
33.3694 10558 102.752
33.4867 10128 100.638
33.6039 9606 98.0102
33.7211 9598 97.9694
33.8383 9722 98.6002
33.9554 9800 98.9949
34.0725 10002 100.01
34.1896 10363 101.799
34.3067 10593 102.922
34.4237 10832 104.077
34.5407 11010 104.929
34.6577 10953 104.657
34.7746 11073 105.228
34.8915 10878 104.298
35.0084 10684 103.363
35.1252 10352 101.745
35.242 9864 99.3177
35.3587 9783 98.909
35.4755 9462 97.2728
35.5921 9073 95.2523
35.7088 8920 94.4458
35.8254 9317 96.5246
35.9419 9537 97.6576
36.0584 10131 100.653
36.1749 10298 101.479
36.2913 10381 101.887
36.4077 10284 101.41
36.524 9891 99.4535
36.6403 9452 97.2214
36.7565 9230 96.0729
36.8727 8967 94.6942
36.9889 8322 91.225
37.1049 7256 85.1822
37.221 0 1
37.3369 0 1
37.4529 0 1
37.5687 0 1
37.6845 0 1
37.8003 0 1
37.916 0 1
38.0316 0 1
38.1472 0 1
40.5851 0 1
40.7008 0 1
40.8164 0 1
40.9322 0 1
41.048 0 1
41.1639 0 1
41.2798 0 1
41.3958 0 1
41.5118 0 1
41.6279 0 1
41.744 5145 71.7287
41.8602 5824 76.3151
41.9765 6418 80.1124
42.0928 6749 82.1523
42.2091 6786 82.3772
42.3255 6519 80.7403
42.4419 6637 81.4678
42.5584 6761 82.2253
42.675 7375 85.8778
42.7915 8010 89.4986
42.9081 8476 92.0652
43.0248 8722 93.3916
43.1415 8833 93.984
43.2582 8979 94.7576
43.375 9237 96.1093
43.4918 9248 96.1665
43.6087 9421 97.0618
43.7256 9443 97.1751
43.8425 9141 95.6086
43.9595 9031 95.0316
44.0765 8591 92.6876
44.1935 8411 91.7115
44.3106 7973 89.2917
44.4277 7705 87.7781
44.5448 7536 86.8101
44.6619 7694 87.7154
44.7791 8154 90.2995
44.8963 8632 92.9086
45.0136 9212 95.9792
45.1308 9312 96.4987
45.2481 9336 96.623
45.3654 9419 97.0515
45.4827 9473 97.3293
45.6001 9257 96.2133
45.7174 9012 94.9316
45.8348 8577 92.6121
45.9522 8442 91.8804
46.0697 8152 90.2884
46.1871 8114 90.0777
46.3046 8364 91.4549
46.422 8583 92.6445
46.5395 8874 94.2019
46.657 9133 95.5667
46.7745 9216 96
46.892 9188 95.8541
47.0096 9672 98.3463
47.1271 9723 98.6053
47.2446 9898 99.4887
47.3622 9560 97.7753
47.4797 9326 96.5712
47.5973 9296 96.4158
47.7149 8774 93.6696
47.8324 8461 91.9837
47.95 7765 88.1192
48.0675 7655 87.4929
48.1851 7610 87.2353
48.3027 8080 89.8888
48.4202 8496 92.1737
48.5378 9118 95.4882
48.6554 9803 99.0101
48.7729 9676 98.3667
48.8904 9545 97.6985
49.008 9528 97.6115
49.1255 9330 96.5919
49.243 9027 95.0105
49.3605 8541 92.4175
49.478 8513 92.2659
49.5955 8122 90.1221
49.713 8161 90.3383
49.8304 8223 90.6808
49.9479 8597 92.72
50.0653 8768 93.6376
50.1827 9283 96.3483
50.3001 9296 96.4158
50.4175 9377 96.8349
50.5348 9620 98.0816
50.6521 9721 98.5951
50.7694 9743 98.7066
50.8867 9410 97.0052
51.004 9302 96.4469
51.1212 9282 96.3431
51.2384 8928 94.4881
51.3556 8555 92.4932
51.4727 7715 87.8351
51.5899 7442 86.267
51.707 7436 86.2322
51.824 7783 88.2213
51.9411 8466 92.0109
52.0581 9421 97.0618
52.175 9694 98.4581
52.2919 9622 98.0918
52.4088 9673 98.3514
52.5257 9787 98.9293
52.6425 9753 98.7573
52.7593 9630 98.1326
52.876 9347 96.6799
52.9927 8884 94.255
53.1094 8620 92.844
53.226 8336 91.3017
53.3426 8148 90.2663
53.4591 8084 89.9111
53.5756 8390 91.5969
53.692 8319 91.2086
53.8084 7971 89.2805
53.9248 8046 89.6995
54.0411 7682 87.647
54.1573 7393 85.9826
54.2735 0 1
54.3896 0 1
54.5057 0 1
54.6217 0 1
54.7377 0 1
54.8537 0 1
54.9695 0 1
55.0853 0 1
55.2011 0 1
55.3168 0 1
55.4324 0 1
57.824 0 1
57.9396 0 1
58.0553 0 1
58.1711 0 1
58.2869 0 1
58.4028 0 1
58.5187 0 1
58.6347 0 1
58.7508 0 1
58.8669 0 1
58.983 5809 76.2168
59.0992 6783 82.359
59.2155 7529 86.7698
59.3318 8477 92.0706
59.4482 9191 95.8697
59.5646 9768 98.8332
59.681 10224 101.114
59.7975 10374 101.853
59.9141 10358 101.774
60.0306 10017 100.085
60.1473 9718 98.5799
60.2639 9258 96.2185
60.3807 8992 94.8262
60.4974 9148 95.6452
60.6142 9612 98.0408
60.731 10575 102.835
60.8479 11027 105.01
60.9648 11219 105.92
61.0818 11778 108.526
61.1987 11635 107.866
61.3158 11444 106.977
61.4328 11419 106.86
61.5499 11035 105.048
61.667 10634 103.121
61.7841 10262 101.302
61.9013 10257 101.277
62.0185 10215 101.069
62.1357 10251 101.247
62.253 10731 103.591
62.3702 11213 105.891
62.4875 11496 107.219
62.6049 11863 108.917
62.7222 11863 108.917
62.8396 11940 109.27
62.9569 12120 110.091
63.0743 12167 110.304
63.1918 11999 109.54
63.3092 11660 107.981
63.4267 11426 106.892
63.5441 10706 103.47
63.6616 10085 100.424
63.7791 9030 95.0263
63.8966 8629 92.8924
64.0142 8845 94.0479
64.1317 9300 96.4365
64.2492 9916 99.5791
64.3668 10472 102.333
64.4843 11058 105.157
64.6019 11263 106.127
64.7195 11157 105.627
64.837 11336 106.471
64.9546 11159 105.636
65.0722 10718 103.528
65.1898 10698 103.431
65.3074 10089 100.444
65.4249 9957 99.7848
65.5425 9703 98.5038
65.6601 9801 99
65.7777 10297 101.474
65.8952 10687 103.378
66.0128 10837 104.101
66.1304 11190 105.783
66.2479 11445 106.981
66.3655 11628 107.833
66.483 11734 108.324
66.6005 11728 108.296
66.718 11860 108.904
66.8355 11513 107.299
66.953 11436 106.939
67.0705 10873 104.274
67.1879 10604 102.976
67.3054 9511 97.5244
67.4228 8554 92.4878
67.5402 7854 88.6228
67.6576 7858 88.6454
67.7749 8489 92.1358
67.8923 9370 96.7988
68.0096 10066 100.329
68.1269 10637 103.136
68.2442 10881 104.312
68.3614 10851 104.168
68.4787 10933 104.561
68.5958 10521 102.572
68.713 10455 102.25
68.8302 10203 101.01
68.9473 9855 99.2724
69.0643 9555 97.7497
69.1814 9330 96.5919
69.2984 9450 97.2111
69.4154 9494 97.4372
69.5323 10056 100.28
69.6492 10484 102.391
69.7661 10647 103.184
69.8829 10715 103.513
69.9997 10849 104.159
70.1165 10655 103.223
70.2332 10613 103.019
70.3499 10127 100.633
70.4665 10018 100.09
70.5831 9773 98.8585
70.6996 9018 94.9632
70.8161 8549 92.4608
70.9326 7647 87.4471
71.049 6283 79.2654
71.1653 5132 71.638
71.2817 4220 64.9615
71.3979 3961 62.9365
71.5141 3871 62.2174
71.6303 3876 62.2575
71.7464 3521 59.338
71.8624 0 1
71.9784 0 1
72.0944 0 1
72.2102 0 1
72.3261 0 1
72.4418 0 1
72.5575 0 1
72.6732 0 1
75.1054 0 1
75.2209 0 1
75.3365 0 1
75.4521 0 1
75.5678 0 1
75.6835 0 1
75.7993 0 1
75.9151 0 1
76.031 0 1
76.147 5584 74.7262
76.263 5723 75.6505
76.3791 5689 75.4255
76.4952 5388 73.403
76.6113 5420 73.6206
76.7276 5812 76.2365
76.8438 6527 80.7899
76.9601 7752 88.0454
77.0765 8725 93.4077
77.1929 8905 94.3663
77.3093 9184 95.8332
77.4258 9352 96.7057
77.5423 9386 96.8814
77.6589 9051 95.1367
77.7755 8975 94.7365
77.8921 8604 92.7577
78.0088 8439 91.864
78.1256 8244 90.7965
78.2423 8289 91.0439
78.3591 8332 91.2798
78.4759 8630 92.8978
78.5928 8963 94.6731
78.7097 9244 96.1457
78.8266 9858 99.2875
78.9436 9651 98.2395
79.0606 9914 99.5691
79.1776 9913 99.564
79.2946 9991 99.955
79.4117 9881 99.4032
79.5288 9809 99.0404
79.6459 9561 97.7804
79.7631 9374 96.8194
79.8802 8946 94.5833
79.9974 8029 89.6047
80.1147 6780 82.3408
80.2319 6154 78.4474
80.3491 6221 78.8733
80.4664 6853 82.7828
80.5837 7807 88.3572
80.701 9009 94.9158
80.8183 9218 96.0104
80.9357 9476 97.3447
81.053 9743 98.7066
81.1704 9520 97.5705
81.2877 9343 96.6592
81.4051 9403 96.9691
81.5225 9156 95.687
81.6399 8665 93.086
81.7573 8514 92.2713
81.8747 8448 91.913
81.9922 8498 92.1846
82.1096 8790 93.755
82.227 8989 94.8103
82.3444 9279 96.3276
82.4619 10027 100.135
82.5793 10081 100.404
82.6967 10011 100.055
82.8142 10462 102.284
82.9316 10248 101.232
83.049 10324 101.607
83.1664 10145 100.722
83.2838 9853 99.2623
83.4012 9508 97.509
83.5186 9021 94.9789
83.636 8498 92.1846
83.7534 7282 85.3346
83.8708 6261 79.1265
83.9881 5911 76.883
84.1055 6311 79.4418
84.2228 7203 84.8705
84.3401 8276 90.9725
84.4575 9278 96.3224
84.5747 9656 98.2649
84.692 9964 99.8198
84.8093 9693 98.453
84.9265 9715 98.5647
85.0437 9215 95.9948
85.1609 9108 95.4358
85.2781 8674 93.1343
85.3952 8787 93.739
85.5123 8428 91.8041
85.6294 8761 93.6002
85.7465 8945 94.578
85.8636 9138 95.5929
85.9806 9571 97.8315
86.0976 9754 98.7623
86.2145 10051 100.255
86.3315 9953 99.7647
86.4484 10218 101.084
86.5652 10226 101.124
86.682 10120 100.598
86.7988 9987 99.935
86.9156 9748 98.732
87.0323 9278 96.3224
87.149 8890 94.2868
87.2657 7869 88.7074
87.3823 6650 81.5475
87.4988 5640 75.0999
87.6154 5723 75.6505
87.7318 6119 78.224
87.8483 7091 84.2081
87.9647 8184 90.4655
88.081 8518 92.293
88.1973 8640 92.9516
88.3136 8225 90.6918
88.4298 7918 88.9831
88.546 7273 85.2819
88.6621 5945 77.1038
88.7781 4823 69.4478
88.8942 0 1
89.0101 0 1
89.126 0 1
89.2419 0 1
89.3577 0 1
89.4734 0 1
89.5891 0 1
89.7047 0 1
89.8203 0 1
89.9358 0 1
92.3269 0 1
92.4424 0 1
92.558 0 1
92.6736 0 1
92.7893 0 1
92.905 0 1
93.0208 0 1
93.1366 0 1
93.2525 0 1
93.3685 0 1
93.4845 0 1
93.6005 5497 74.1418
93.7167 6145 78.3901
93.8328 6643 81.5046
93.949 7125 84.4097
94.0653 7482 86.4986
94.1816 7938 89.0955
94.2979 8364 91.4549
94.4143 8726 93.4131
94.5307 8831 93.9734
94.6472 8827 93.9521
94.7637 8959 94.652
94.8803 9394 96.9226
94.9969 9348 96.6851
95.1135 9544 97.6934
95.2302 9878 99.3881
95.3469 10146 100.727
95.4637 10223 101.109
95.5805 10359 101.779
95.6973 10550 102.713
95.8142 10429 102.122
95.9311 10157 100.782
96.048 10330 101.637
96.1649 9952 99.7597
96.2819 9534 97.6422
96.3989 8845 94.0479
96.516 8020 89.5545
96.633 6765 82.2496
96.7501 5787 76.0723
96.8673 5821 76.2955
96.9844 6250 79.0569
97.1016 7160 84.6168
97.2188 8466 92.0109
97.336 9387 96.8865
97.4532 9828 99.1363
97.5704 10086 100.429
97.6877 9927 99.6343
97.805 9777 98.8787
97.9223 9607 98.0153
98.0396 9209 95.9635
98.1569 9070 95.2365
98.2743 8725 93.4077
98.3916 9059 95.1788
98.509 9106 95.4254
98.6264 9391 96.9072
98.7438 9815 99.0707
98.8612 9949 99.7447
98.9786 9996 99.98
99.096 10427 102.113
99.2134 10680 103.344
99.3308 10747 103.668
99.4482 10756 103.711
99.5656 10589 102.903
99.6831 10493 102.435
99.8005 10129 100.643
99.9179 9601 97.9847
100.035 8983 94.7787
100.153 7809 88.3685
100.27 6555 80.963
100.388 6361 79.7559
100.505 6633 81.4432
100.622 7668 87.5671
100.74 8971 94.7154
100.857 9465 97.2882
100.975 10187 100.931
101.092 10199 100.99
101.209 10227 101.129
101.327 10208 101.035
101.444 9924 99.6193
101.561 9538 97.6627
101.679 9546 97.7036
101.796 9344 96.6644
101.913 9294 96.4054
102.03 9579 97.8724
102.148 9745 98.7168
102.265 9957 99.7848
102.382 10595 102.932
102.499 10440 102.176
102.616 10829 104.062
102.733 10960 104.69
102.851 10868 104.25
102.968 11097 105.342
103.085 11236 106
103.202 11163 105.655
103.319 10668 103.286
103.436 9824 99.1161
103.552 9260 96.2289
103.669 8086 89.9222
103.786 6891 83.012
103.903 6382 79.8874
104.02 6787 82.3833
104.137 7691 87.6983
104.253 9142 95.6138
104.37 9835 99.1716
104.487 10509 102.513
104.603 10464 102.294
104.72 10533 102.63
104.836 10170 100.846
104.953 9673 98.3514
105.069 9554 97.7446
105.186 9027 95.0105
105.302 8821 93.9202
105.418 8720 93.3809
105.535 8920 94.4458
105.651 8906 94.3716
105.767 8721 93.3863
105.883 8349 91.3729
105.999 7565 86.977
106.115 0 1
106.231 0 1
106.347 0 1
106.463 0 1
106.579 0 1
106.694 0 1
106.81 0 1
106.926 0 1
107.041 0 1
107.157 0 1
109.576 0 1
109.692 0 1
109.807 0 1
109.923 0 1
110.039 0 1
110.155 0 1
110.27 0 1
110.386 0 1
110.502 0 1
110.618 3870 62.2093
110.735 4826 69.4694
110.851 5605 74.8665
110.967 6242 79.0063
111.083 6879 82.9397
111.199 7580 87.0632
111.316 8202 90.5649
111.432 8661 93.0645
111.549 9112 95.4568
111.665 9473 97.3293
111.782 9633 98.1478
111.898 9369 96.7936
112.015 8787 93.739
112.132 7905 88.9101
112.248 6894 83.0301
112.365 5738 75.7496
112.482 5563 74.5855
112.599 6077 77.9551
112.716 6781 82.3468
112.832 7870 88.713
112.949 8890 94.2868
113.066 8977 94.747
113.183 9090 95.3415
113.3 9199 95.9114
113.417 9211 95.974
113.534 9003 94.8841
113.652 8870 94.1807
113.769 8628 92.887
113.886 8311 91.1647
114.003 8751 93.5468
114.12 8603 92.7524
114.238 9098 95.3834
114.355 9447 97.1957
114.472 9812 99.0555
114.589 9293 96.4002
114.707 9841 99.2018
114.824 10120 100.598
114.942 9974 99.8699
115.059 10122 100.608
115.176 10130 100.648
115.294 9913 99.564
115.411 9776 98.8737
115.529 9187 95.8488
115.646 8542 92.4229
115.764 7591 87.1263
115.881 6540 80.8703
115.999 5590 74.7663
116.116 5832 76.3675
116.234 6355 79.7183
116.351 7551 86.8965
116.469 8390 91.5969
116.586 8933 94.5145
116.704 9083 95.3048
116.821 9083 95.3048
116.939 9280 96.3328
117.056 9003 94.8841
117.174 8837 94.0053
117.291 8621 92.8493
117.409 8491 92.1466
117.526 8472 92.0435
117.644 8514 92.2713
117.761 8745 93.5147
117.879 8922 94.4563
117.996 9370 96.7988
118.114 9446 97.1905
118.231 9690 98.4378
118.349 9797 98.9798
118.466 9741 98.6965
118.584 9863 99.3126
118.701 9670 98.3362
118.819 9852 99.2572
118.936 9572 97.8366
119.053 9290 96.3846
119.171 8692 93.2309
119.288 8079 89.8833
119.405 7014 83.7496
119.523 5773 75.9803
119.64 5376 73.3212
119.757 5694 75.4586
119.875 6358 79.7371
119.992 7099 84.2556
120.109 8063 89.7942
120.226 8399 91.6461
120.343 8458 91.9674
120.46 8738 93.4773
120.578 8498 92.1846
120.695 8670 93.1128
120.812 8467 92.0163
120.929 8325 91.2414
121.046 8080 89.8888
121.163 8142 90.233
121.279 8189 90.4931
121.396 8105 90.0278
121.513 8273 90.956
121.63 8622 92.8547
121.747 8629 92.8924
121.863 8594 92.7038
121.98 8867 94.1647
122.097 8738 93.4773
122.213 8691 93.2255
122.33 8606 92.7685
122.446 8240 90.7744
122.563 7962 89.23
122.679 7314 85.5219
122.795 6815 82.553
122.912 5896 76.7854
123.028 4704 68.5857
123.144 3592 59.9333
123.26 2894 53.7959
123.377 0 1
123.493 0 1
123.609 0 1
123.725 0 1
123.84 0 1
123.956 0 1
124.072 0 1
124.188 0 1
124.303 0 1
124.419 0 1
126.852 0 1
126.968 0 1
127.083 0 1
127.199 0 1
127.315 0 1
127.431 0 1
127.547 0 1
127.663 0 1
127.779 0 1
127.895 0 1
128.011 0 1
128.127 0 1
128.243 0 1
128.359 7116 84.3564
128.476 7241 85.0941
128.592 6725 82.0061
128.708 5956 77.1751
128.825 5889 76.7398
128.941 6477 80.4798
129.058 7231 85.0353
129.174 8472 92.0435
129.291 9117 95.483
129.408 9489 97.4115
129.524 9609 98.0255
129.641 9407 96.9897
129.758 9384 96.871
129.875 9283 96.3483
129.992 9094 95.3625
130.108 9086 95.3205
130.225 9137 95.5877
130.342 9123 95.5144
130.459 9410 97.0052
130.576 9476 97.3447
130.693 9508 97.509
130.81 9668 98.326
130.928 9755 98.7674
131.045 9958 99.7898
131.162 9947 99.7346
131.279 10011 100.055
131.396 9720 98.5901
131.513 9708 98.5292
131.631 9263 96.2445
131.748 9278 96.3224
131.865 8901 94.3451
131.983 8320 91.214
132.1 7237 85.0706
132.217 6061 77.8524
132.335 5909 76.87
132.452 6375 79.8436
132.57 7107 84.303
132.687 8249 90.824
132.804 8882 94.2444
132.922 8948 94.5939
133.039 9167 95.7445
133.157 9303 96.4521
133.274 9227 96.0573
133.392 9328 96.5816
133.509 9081 95.2943
133.627 9256 96.2081
133.744 8901 94.3451
133.862 8954 94.6256
133.979 9171 95.7653
134.097 9024 94.9947
134.214 9304 96.4572
134.332 9642 98.1937
134.449 9628 98.1224
134.567 9598 97.9694
134.684 9785 98.9192
134.802 9504 97.4885
134.919 9722 98.6002
135.037 9565 97.8008
135.154 9328 96.5816
135.272 9157 95.6922
135.389 8872 94.1913
135.507 8417 91.7442
135.624 7535 86.8044
135.742 6654 81.5721
135.859 5889 76.7398
135.977 6260 79.1202
136.094 6868 82.8734
136.211 7702 87.761
136.329 8476 92.0652
136.446 8898 94.3292
136.564 9110 95.4463
136.681 9187 95.8488
136.798 9198 95.9062
136.915 9170 95.7601
137.033 9279 96.3276
137.15 9012 94.9316
137.267 9046 95.1105
137.384 8752 93.5521
137.502 8770 93.6483
137.619 8895 94.3133
137.736 8824 93.9361
137.853 8660 93.0591
137.97 8823 93.9308
138.087 9462 97.2728
138.204 9146 95.6347
138.321 9366 96.7781
138.438 9124 95.5196
138.555 9215 95.9948
138.672 9105 95.4201
138.788 8788 93.7443
138.905 8447 91.9076
139.022 7955 89.1908
139.139 7694 87.7154
139.255 7069 84.0773
139.372 6089 78.032
139.488 5274 72.6223
139.605 5178 71.9583
139.721 5355 73.1779
139.838 5829 76.3479
139.954 6367 79.7935
140.071 6168 78.5366
140.187 5249 72.45
140.303 4705 68.593
140.419 4130 64.2651
140.535 4024 63.435
140.652 3817 61.7819
140.768 0 1
140.884 0 1
141 0 1
141.115 0 1
141.231 0 1
141.347 0 1
141.463 0 1
141.578 0 1
141.694 0 1
144.104 0 1
144.219 0 1
144.335 0 1
144.45 0 1
144.566 0 1
144.682 0 1
144.798 0 1
144.914 0 1
145.03 0 1
145.146 5214 72.208
145.262 6019 77.5822
145.378 6551 80.9382
145.494 6815 82.553
145.61 7125 84.4097
145.726 6971 83.4925
145.842 7056 84
145.959 6983 83.5643
146.075 6888 82.994
146.192 6858 82.813
146.308 6744 82.1219
146.425 6700 81.8535
146.541 6828 82.6317
146.658 6950 83.3667
146.774 7102 84.2734
146.891 7044 83.9285
147.008 7189 84.788
147.125 7122 84.3919
147.241 7137 84.4808
147.358 7139 84.4926
147.475 6976 83.5225
147.592 6816 82.5591
147.709 6760 82.2192
147.826 6465 80.4052
147.943 6084 78
148.06 5865 76.5833
148.177 5291 72.7393
148.294 4779 69.1303
148.411 5108 71.4703
148.528 5398 73.4711
148.645 5980 77.3305
148.762 6534 80.8332
148.88 6998 83.654
148.997 7100 84.2615
149.114 6869 82.8794
149.231 6932 83.2586
149.349 6833 82.662
149.466 6878 82.9337
149.583 6894 83.0301
149.701 6802 82.4742
149.818 6641 81.4923
149.935 6833 82.662
150.053 6774 82.3043
150.17 6934 83.2706
150.287 6771 82.2861
150.405 6998 83.654
150.522 6998 83.654
150.64 6970 83.4865
150.757 7089 84.1962
150.875 7085 84.1724
150.992 7189 84.788
151.11 6985 83.5763
151.227 6904 83.0903
151.344 6782 82.3529
151.462 6504 80.6474
151.579 6251 79.0633
151.697 5881 76.6877
151.814 5299 72.7942
151.932 5012 70.7955
152.049 4856 69.685
152.167 5469 73.9527
152.284 5881 76.6877
152.402 6452 80.3243
152.519 6798 82.45
152.636 6935 83.2766
152.754 7005 83.6959
152.871 6961 83.4326
152.989 6916 83.1625
153.106 6945 83.3367
153.223 6945 83.3367
153.341 6744 82.1219
153.458 6784 82.365
153.575 6768 82.2679
153.693 6747 82.1401
153.81 6814 82.547
153.927 6892 83.0181
154.044 6952 83.3787
154.162 6940 83.3067
154.279 7063 84.0417
154.396 7114 84.3445
154.513 7109 84.3149
154.63 7115 84.3505
154.747 7137 84.4808
154.864 6871 82.8915
154.981 6572 81.0679
155.098 6410 80.0625
155.215 6029 77.6466
155.332 5782 76.0395
155.449 5232 72.3326
155.566 5056 71.1056
155.683 5303 72.8217
155.8 5479 74.0203
155.917 6101 78.1089
156.033 6382 79.8874
156.15 0 1
156.267 0 1
156.383 0 1
156.5 0 1
156.617 0 1
156.733 0 1
156.85 0 1
156.966 0 1
157.082 0 1
157.199 0 1
157.315 0 1
157.431 0 1
157.547 0 1
157.664 0 1
157.78 0 1
157.896 0 1
158.012 0 1
158.128 0 1
158.244 0 1
158.359 0 1
158.475 0 1
158.591 0 1
158.706 0 1
