
6.15755 0 1
6.2731 0 1
6.3887 0 1
6.50437 0 1
6.62009 0 1
6.73587 0 1
6.8517 0 1
6.96759 0 1
7.08353 0 1
7.19952 0 1
7.31557 0 1
7.43166 0 1
7.54781 0 1
7.664 0 1
7.78024 0 1
7.89653 0 1
8.01286 0 1
8.12924 0 1
8.24567 0 1
8.36213 0 1
8.47864 0 1
8.59519 0 1
8.71178 0 1
8.82841 0 1
8.94508 0 1
9.06179 0 1
9.17853 0 1
9.29531 0 1
9.41212 0 1
9.52897 0 1
9.64584 0 1
9.76276 0 1
9.8797 0 1
9.99667 0 1
10.1137 0 1
10.2307 0 1
10.3478 0 1
10.4648 0 1
10.5819 0 1
10.6991 0 1
10.8162 0 1
10.9334 0 1
11.0506 0 1
11.1678 0 1
11.285 0 1
11.4023 0 1
11.5196 0 1
11.6369 0 1
11.7542 0 1
11.8715 0 1
11.9888 0 1
12.1062 0 1
12.2235 0 1
12.3409 0 1
12.4582 0 1
12.5756 0 1
12.693 0 1
12.8104 0 1
12.9278 0 1
13.0452 0 1
13.1626 0 1
13.28 0 1
13.3974 0 1
13.5149 0 1
13.6323 0 1
13.7497 0 1
13.8671 0 1
13.9845 0 1
14.1019 0 1
14.2193 0 1
14.3367 0 1
14.4541 0 1
14.5714 0 1
14.6888 0 1
14.8062 0 1
14.9235 0 1
15.0408 0 0
15.1581 0 0
15.2755 0 0
15.3927 0 0
15.51 0 0
15.6273 0 0
15.7445 0 0
15.8617 0 0
15.9789 0 0
16.0961 0 0
16.2132 0 0
16.3304 0 0
16.4475 0 0
16.5646 0 0
16.6816 0 0
16.7986 0 0
16.9156 0 0
17.0326 0 0
17.1496 0 0
17.2665 0 0
17.3833 0 0
17.5002 0 0
17.617 0 0
17.7338 0 0
17.8505 0 0
17.9672 0 0
18.0839 0 0
18.2005 0 0
18.3171 0 0
18.4337 0 0
18.5502 0 0
18.6666 0 0
18.7831 0 0
18.8994 0 0
19.0158 0 0
19.1321 0 0
19.2483 0 0
19.3645 0 0
19.4806 0 0
19.5967 0 0
19.7128 0 0
19.8288 0 0
19.9447 0 0
20.0606 0 1
20.1764 0 1
20.2922 0 1
20.4079 0 1
20.5236 0 1
20.6392 0 1
20.7548 0 1
20.8702 0 1
23.3078 0 1
23.4233 0 1
23.539 0 1
23.6547 0 1
23.7704 0 1
23.8862 0 1
24.0021 0 1
24.118 0 1
24.234 0 1
24.35 0 1
24.4661 406 20.1494
24.5822 519 22.7816
24.6984 578 24.0416
24.8146 635 25.1992
24.9309 720 26.8328
25.0472 749 27.3679
25.1636 866 29.4279
25.28 865 29.4109
25.3965 965 31.0644
25.513 1006 31.7175
25.6296 1075 32.7872
25.7462 1073 32.7567
25.8628 1047 32.3574
25.9795 1035 32.1714
26.0962 1047 32.3574
26.213 998 31.5911
26.3298 925 30.4138
26.4466 893 29.8831
26.5635 873 29.5466
26.6804 872 29.5296
26.7973 935 30.5778
26.9143 929 30.4795
27.0313 935 30.5778
27.1483 963 31.0322
27.2653 958 30.9516
27.3824 1002 31.6544
27.4996 989 31.4484
27.6167 949 30.8058
27.7339 1040 32.249
27.8511 980 31.305
27.9683 953 30.8707
28.0855 876 29.5973
28.2028 878 29.6311
28.3201 820 28.6356
28.4374 841 29
28.5547 924 30.3974
28.6721 922 30.3645
28.7894 950 30.8221
28.9068 999 31.607
29.0242 1055 32.4808
29.1416 1057 32.5115
29.259 1041 32.2645
29.3764 1061 32.573
29.4939 1026 32.0312
29.6113 1082 32.8938
29.7288 968 31.1127
29.8463 890 29.8329
29.9638 886 29.7658
30.0812 804 28.3549
30.1987 901 30.0167
30.3162 876 29.5973
30.4337 901 30.0167
30.5512 870 29.4958
30.6687 916 30.2655
30.7862 932 30.5287
30.9037 981 31.3209
31.0212 958 30.9516
31.1387 939 30.6431
31.2562 918 30.2985
31.3737 952 30.8545
31.4912 897 29.95
31.6087 885 29.7489
31.7262 870 29.4958
31.8436 879 29.6479
31.9611 786 28.0357
32.0785 767 27.6948
32.1959 859 29.3087
32.3134 923 30.3809
32.4308 1009 31.7648
32.5482 1026 32.0312
32.6655 977 31.257
32.7829 1022 31.9687
32.9002 1046 32.3419
33.0176 985 31.3847
33.1349 1039 32.2335
33.2522 992 31.496
33.3694 900 30
33.4867 856 29.2575
33.6039 790 28.1069
33.7211 830 28.8097
33.8383 828 28.775
33.9554 773 27.8029
34.0725 835 28.8964
34.1896 867 29.4449
34.3067 865 29.4109
34.4237 966 31.0805
34.5407 978 31.273
34.6577 944 30.7246
34.7746 919 30.315
34.8915 944 30.7246
35.0084 864 29.3939
35.1252 889 29.8161
35.242 855 29.2404
35.3587 799 28.2666
35.4755 814 28.5307
35.5921 795 28.1957
35.7088 788 28.0713
35.8254 773 27.8029
35.9419 860 29.3258
36.0584 904 30.0666
36.1749 909 30.1496
36.2913 971 31.1609
36.4077 904 30.0666
36.524 852 29.189
36.6403 868 29.4618
36.7565 868 29.4618
36.8727 815 28.5482
36.9889 727 26.9629
37.1049 640 25.2982
37.221 0 1
37.3369 0 1
37.4529 0 1
37.5687 0 1
37.6845 0 1
37.8003 0 1
37.916 0 1
38.0316 0 1
38.1472 0 1
40.5851 0 1
40.7008 0 1
40.8164 0 1
40.9322 0 1
41.048 0 1
41.1639 0 1
41.2798 0 1
41.3958 0 1
41.5118 0 1
41.6279 0 1
41.744 456 21.3542
41.8602 482 21.9545
41.9765 598 24.454
42.0928 604 24.5764
42.2091 638 25.2587
42.3255 547 23.388
42.4419 538 23.1948
42.5584 565 23.7697
42.675 583 24.1454
42.7915 665 25.7876
42.9081 721 26.8514
43.0248 682 26.1151
43.1415 744 27.2764
43.2582 705 26.5518
43.375 790 28.1069
43.4918 791 28.1247
43.6087 796 28.2135
43.7256 754 27.4591
43.8425 773 27.8029
43.9595 740 27.2029
44.0765 756 27.4955
44.1935 663 25.7488
44.3106 668 25.8457
44.4277 595 24.3926
44.5448 582 24.1247
44.6619 655 25.593
44.7791 704 26.533
44.8963 763 27.6225
45.0136 772 27.7849
45.1308 803 28.3373
45.2481 795 28.1957
45.3654 847 29.1033
45.4827 773 27.8029
45.6001 812 28.4956
45.7174 873 29.5466
45.8348 772 27.7849
45.9522 745 27.2947
46.0697 687 26.2107
46.1871 649 25.4755
46.3046 672 25.923
46.422 718 26.7955
46.5395 762 27.6043
46.657 727 26.9629
46.7745 798 28.2489
46.892 767 27.6948
47.0096 784 28
47.1271 861 29.3428
47.2446 776 27.8568
47.3622 755 27.4773
47.4797 720 26.8328
47.5973 765 27.6586
47.7149 718 26.7955
47.8324 739 27.1846
47.95 671 25.9037
48.0675 662 25.7294
48.1851 671 25.9037
48.3027 704 26.533
48.4202 688 26.2298
48.5378 756 27.4955
48.6554 831 28.8271
48.7729 800 28.2843
48.8904 834 28.8791
49.008 797 28.2312
49.1255 819 28.6182
49.243 730 27.0185
49.3605 753 27.4408
49.478 689 26.2488
49.5955 653 25.5539
49.713 626 25.02
49.8304 660 25.6905
49.9479 733 27.074
50.0653 681 26.096
50.1827 725 26.9258
50.3001 722 26.8701
50.4175 788 28.0713
50.5348 772 27.7849
50.6521 791 28.1247
50.7694 787 28.0535
50.8867 791 28.1247
51.004 758 27.5318
51.1212 816 28.5657
51.2384 735 27.1109
51.3556 641 25.318
51.4727 667 25.8263
51.5899 615 24.7992
51.707 617 24.8395
51.824 642 25.3377
51.9411 744 27.2764
52.0581 829 28.7924
52.175 889 29.8161
52.2919 796 28.2135
52.4088 813 28.5132
52.5257 826 28.7402
52.6425 822 28.6705
52.7593 798 28.2489
52.876 749 27.3679
52.9927 853 29.2062
53.1094 727 26.9629
53.226 695 26.3629
53.3426 684 26.1534
53.4591 692 26.3059
53.5756 663 25.7488
53.692 691 26.2869
53.8084 717 26.7769
53.9248 670 25.8844
54.0411 646 25.4165
54.1573 656 25.6125
54.2735 0 1
54.3896 0 1
54.5057 0 1
54.6217 0 1
54.7377 0 1
54.8537 0 1
54.9695 0 1
55.0853 0 1
55.2011 0 1
55.3168 0 1
55.4324 0 1
57.824 0 1
57.9396 0 1
58.0553 0 1
58.1711 0 1
58.2869 0 1
58.4028 0 1
58.5187 0 1
58.6347 0 1
58.7508 0 1
58.8669 0 1
58.983 467 21.6102
59.0992 545 23.3452
59.2155 617 24.8395
59.3318 682 26.1151
59.4482 798 28.2489
59.5646 836 28.9137
59.681 833 28.8617
59.7975 896 29.9333
59.9141 895 29.9166
60.0306 859 29.3087
60.1473 858 29.2916
60.2639 792 28.1425
60.3807 801 28.3019
60.4974 767 27.6948
60.6142 839 28.9655
60.731 949 30.8058
60.8479 940 30.6594
60.9648 997 31.5753
61.0818 999 31.607
61.1987 989 31.4484
61.3158 984 31.3688
61.4328 1019 31.9218
61.5499 966 31.0805
61.667 893 29.8831
61.7841 854 29.2233
61.9013 878 29.6311
62.0185 866 29.4279
62.1357 847 29.1033
62.253 923 30.3809
62.3702 898 29.9666
62.4875 921 30.348
62.6049 977 31.257
62.7222 992 31.496
62.8396 1011 31.7962
62.9569 1028 32.0624
63.0743 921 30.348
63.1918 979 31.289
63.3092 1005 31.7017
63.4267 955 30.9031
63.5441 855 29.2404
63.6616 829 28.7924
63.7791 746 27.313
63.8966 700 26.4575
64.0142 720 26.8328
64.1317 780 27.9285
64.2492 847 29.1033
64.3668 937 30.6105
64.4843 950 30.8221
64.6019 935 30.5778
64.7195 1006 31.7175
64.837 969 31.1288
64.9546 945 30.7409
65.0722 940 30.6594
65.1898 903 30.05
65.3074 901 30.0167
65.4249 809 28.4429
65.5425 898 29.9666
65.6601 822 28.6705
65.7777 822 28.6705
65.8952 890 29.8329
66.0128 897 29.95
66.1304 952 30.8545
66.2479 954 30.8869
66.3655 1025 32.0156
66.483 996 31.5595
66.6005 996 31.5595
66.718 974 31.209
66.8355 961 31
66.953 944 30.7246
67.0705 907 30.1164
67.1879 852 29.189
67.3054 747 27.3313
67.4228 698 26.4197
67.5402 609 24.6779
67.6576 717 26.7769
67.7749 678 26.0384
67.8923 788 28.0713
68.0096 848 29.1204
68.1269 870 29.4958
68.2442 925 30.4138
68.3614 911 30.1828
68.4787 920 30.3315
68.5958 893 29.8831
68.713 922 30.3645
68.8302 865 29.4109
68.9473 796 28.2135
69.0643 864 29.3939
69.1814 801 28.3019
69.2984 809 28.4429
69.4154 809 28.4429
69.5323 872 29.5296
69.6492 885 29.7489
69.7661 844 29.0517
69.8829 910 30.1662
69.9997 905 30.0832
70.1165 923 30.3809
70.2332 885 29.7489
70.3499 900 30
70.4665 837 28.931
70.5831 782 27.9643
70.6996 782 27.9643
70.8161 756 27.4955
70.9326 661 25.7099
71.049 478 21.8632
71.1653 404 20.0998
71.2817 350 18.7083
71.3979 338 18.3848
71.5141 308 17.5499
71.6303 329 18.1384
71.7464 294 17.1464
71.8624 0 1
71.9784 0 1
72.0944 0 1
72.2102 0 1
72.3261 0 1
72.4418 0 1
72.5575 0 1
72.6732 0 1
75.1054 0 1
75.2209 0 1
75.3365 0 1
75.4521 0 1
75.5678 0 1
75.6835 0 1
75.7993 0 1
75.9151 0 1
76.031 0 1
76.147 443 21.0476
76.263 473 21.7486
76.3791 493 22.2036
76.4952 399 19.975
76.6113 484 22
76.7276 473 21.7486
76.8438 572 23.9165
76.9601 714 26.7208
77.0765 797 28.2312
77.1929 794 28.178
77.3093 792 28.1425
77.4258 834 28.8791
77.5423 812 28.4956
77.6589 802 28.3196
77.7755 751 27.4044
77.8921 726 26.9444
78.0088 740 27.2029
78.1256 725 26.9258
78.2423 651 25.5147
78.3591 730 27.0185
78.4759 695 26.3629
78.5928 729 27
78.7097 752 27.4226
78.8266 818 28.6007
78.9436 833 28.8617
79.0606 794 28.178
79.1776 817 28.5832
79.2946 812 28.4956
79.4117 836 28.9137
79.5288 726 26.9444
79.6459 780 27.9285
79.7631 747 27.3313
79.8802 729 27
79.9974 652 25.5343
80.1147 536 23.1517
80.2319 467 21.6102
80.3491 491 22.1585
80.4664 610 24.6982
80.5837 671 25.9037
80.701 760 27.5681
80.8183 833 28.8617
80.9357 774 27.8209
81.053 787 28.0535
81.1704 797 28.2312
81.2877 842 29.0172
81.4051 798 28.2489
81.5225 809 28.4429
81.6399 760 27.5681
81.7573 750 27.3861
81.8747 699 26.4386
81.9922 673 25.9422
82.1096 738 27.1662
82.227 708 26.6083
82.3444 765 27.6586
82.4619 845 29.0689
82.5793 769 27.7308
82.6967 863 29.3769
82.8142 808 28.4253
82.9316 816 28.5657
83.049 832 28.8444
83.1664 800 28.2843
83.2838 779 27.9106
83.4012 700 26.4575
83.5186 746 27.313
83.636 636 25.219
83.7534 577 24.0208
83.8708 501 22.383
83.9881 491 22.1585
84.1055 486 22.0454
84.2228 631 25.1197
84.3401 701 26.4764
84.4575 797 28.2312
84.5747 764 27.6405
84.692 780 27.9285
84.8093 810 28.4605
84.9265 789 28.0891
85.0437 778 27.8927
85.1609 726 26.9444
85.2781 724 26.9072
85.3952 748 27.3496
85.5123 725 26.9258
85.6294 747 27.3313
85.7465 759 27.55
85.8636 748 27.3496
85.9806 780 27.9285
86.0976 787 28.0535
86.2145 777 27.8747
86.3315 810 28.4605
86.4484 794 28.178
86.5652 855 29.2404
86.682 840 28.9828
86.7988 794 28.178
86.9156 805 28.3725
87.0323 814 28.5307
87.149 707 26.5895
87.2657 688 26.2298
87.3823 461 21.4709
87.4988 452 21.2603
87.6154 462 21.4942
87.7318 569 23.8537
87.8483 652 25.5343
87.9647 739 27.1846
88.081 755 27.4773
88.1973 706 26.5707
88.3136 703 26.5141
88.4298 701 26.4764
88.546 622 24.9399
88.6621 570 23.8747
88.7781 400 20
88.8942 0 1
89.0101 0 1
89.126 0 1
89.2419 0 1
89.3577 0 1
89.4734 0 1
89.5891 0 1
89.7047 0 1
89.8203 0 1
89.9358 0 1
92.3269 0 1
92.4424 0 1
92.558 0 1
92.6736 0 1
92.7893 0 1
92.905 0 1
93.0208 0 1
93.1366 0 1
93.2525 0 1
93.3685 0 1
93.4845 0 1
93.6005 477 21.8403
93.7167 547 23.388
93.8328 547 23.388
93.949 606 24.6171
94.0653 610 24.6982
94.1816 663 25.7488
94.2979 711 26.6646
94.4143 740 27.2029
94.5307 720 26.8328
94.6472 729 27
94.7637 707 26.5895
94.8803 769 27.7308
94.9969 745 27.2947
95.1135 759 27.55
95.2302 784 28
95.3469 784 28
95.4637 810 28.4605
95.5805 797 28.2312
95.6973 831 28.8271
95.8142 855 29.2404
95.9311 813 28.5132
96.048 801 28.3019
96.1649 858 29.2916
96.2819 725 26.9258
96.3989 674 25.9615
96.516 630 25.0998
96.633 519 22.7816
96.7501 441 21
96.8673 462 21.4942
96.9844 509 22.561
97.1016 582 24.1247
97.2188 727 26.9629
97.336 794 28.178
97.4532 824 28.7054
97.5704 780 27.9285
97.6877 799 28.2666
97.805 777 27.8747
97.9223 749 27.3679
98.0396 763 27.6225
98.1569 689 26.2488
98.2743 713 26.7021
98.3916 716 26.7582
98.509 807 28.4077
98.6264 774 27.8209
98.7438 773 27.8029
98.8612 793 28.1603
98.9786 870 29.4958
99.096 821 28.6531
99.2134 833 28.8617
99.3308 801 28.3019
99.4482 830 28.8097
99.5656 843 29.0345
99.6831 879 29.6479
99.8005 808 28.4253
99.9179 793 28.1603
100.035 706 26.5707
100.153 608 24.6577
100.27 542 23.2809
100.388 470 21.6795
100.505 560 23.6643
100.622 631 25.1197
100.74 786 28.0357
100.857 806 28.3901
100.975 817 28.5832
101.092 853 29.2062
101.209 780 27.9285
101.327 813 28.5132
101.444 815 28.5482
101.561 812 28.4956
101.679 763 27.6225
101.796 739 27.1846
101.913 751 27.4044
102.03 765 27.6586
102.148 696 26.3818
102.265 792 28.1425
102.382 865 29.4109
102.499 837 28.931
102.616 882 29.6985
102.733 874 29.5635
102.851 899 29.9833
102.968 879 29.6479
103.085 873 29.5466
103.202 863 29.3769
103.319 843 29.0345
103.436 807 28.4077
103.552 725 26.9258
103.669 608 24.6577
103.786 564 23.7487
103.903 476 21.8174
104.02 536 23.1517
104.137 666 25.807
104.253 796 28.2135
104.37 900 30
104.487 883 29.7153
104.603 857 29.2746
104.72 853 29.2062
104.836 787 28.0535
104.953 838 28.9482
105.069 835 28.8964
105.186 772 27.7849
105.302 842 29.0172
105.418 761 27.5862
105.535 725 26.9258
105.651 785 28.0179
105.767 760 27.5681
105.883 722 26.8701
105.999 626 25.02
106.115 0 1
106.231 0 1
106.347 0 1
106.463 0 1
106.579 0 1
106.694 0 1
106.81 0 1
106.926 0 1
107.041 0 1
107.157 0 1
109.576 0 1
109.692 0 1
109.807 0 1
109.923 0 1
110.039 0 1
110.155 0 1
110.27 0 1
110.386 0 1
110.502 0 1
110.618 288 16.9706
110.735 371 19.2614
110.851 390 19.7484
110.967 498 22.3159
111.083 544 23.3238
111.199 608 24.6577
111.316 681 26.096
111.432 702 26.4953
111.549 750 27.3861
111.665 782 27.9643
111.782 733 27.074
111.898 771 27.7669
112.015 640 25.2982
112.132 632 25.1396
112.248 524 22.891
112.365 419 20.4695
112.482 448 21.166
112.599 438 20.9284
112.716 544 23.3238
112.832 646 25.4165
112.949 719 26.8142
113.066 736 27.1293
113.183 732 27.0555
113.3 759 27.55
113.417 762 27.6043
113.534 746 27.313
113.652 721 26.8514
113.769 705 26.5518
113.886 692 26.3059
114.003 733 27.074
114.12 720 26.8328
114.238 717 26.7769
114.355 759 27.55
114.472 758 27.5318
114.589 701 26.4764
114.707 775 27.8388
114.824 758 27.5318
114.942 790 28.1069
115.059 791 28.1247
115.176 756 27.4955
115.294 779 27.9106
115.411 757 27.5136
115.529 733 27.074
115.646 661 25.7099
115.764 559 23.6432
115.881 459 21.4243
115.999 445 21.095
116.116 417 20.4206
116.234 518 22.7596
116.351 639 25.2784
116.469 675 25.9808
116.586 713 26.7021
116.704 722 26.8701
116.821 758 27.5318
116.939 728 26.9815
117.056 727 26.9629
117.174 697 26.4008
117.291 763 27.6225
117.409 703 26.5141
117.526 678 26.0384
117.644 656 25.6125
117.761 692 26.3059
117.879 740 27.2029
117.996 726 26.9444
118.114 741 27.2213
118.231 748 27.3496
118.349 741 27.2213
118.466 782 27.9643
118.584 771 27.7669
118.701 726 26.9444
118.819 751 27.4044
118.936 712 26.6833
119.053 626 25.02
119.171 669 25.865
119.288 620 24.8998
119.405 552 23.4947
119.523 457 21.3776
119.64 418 20.445
119.757 460 21.4476
119.875 470 21.6795
119.992 567 23.8118
120.109 658 25.6515
120.226 683 26.1343
120.343 685 26.1725
120.46 737 27.1477
120.578 687 26.2107
120.695 726 26.9444
120.812 710 26.6458
120.929 713 26.7021
121.046 682 26.1151
121.163 689 26.2488
121.279 656 25.6125
121.396 615 24.7992
121.513 656 25.6125
121.63 705 26.5518
121.747 719 26.8142
121.863 710 26.6458
121.98 704 26.533
122.097 704 26.533
122.213 671 25.9037
122.33 653 25.5539
122.446 669 25.865
122.563 653 25.5539
122.679 569 23.8537
122.795 540 23.2379
122.912 481 21.9317
123.028 356 18.868
123.144 291 17.0587
123.26 237 15.3948
123.377 0 1
123.493 0 1
123.609 0 1
123.725 0 1
123.84 0 1
123.956 0 1
124.072 0 1
124.188 0 1
124.303 0 1
124.419 0 1
126.852 0 1
126.968 0 1
127.083 0 1
127.199 0 1
127.315 0 1
127.431 0 1
127.547 0 1
127.663 0 1
127.779 0 1
127.895 0 1
128.011 0 1
128.127 0 1
128.243 0 1
128.359 580 24.0832
128.476 553 23.516
128.592 546 23.3666
128.708 435 20.8567
128.825 495 22.2486
128.941 554 23.5372
129.058 636 25.219
129.174 671 25.9037
129.291 778 27.8927
129.408 798 28.2489
129.524 775 27.8388
129.641 768 27.7128
129.758 752 27.4226
129.875 760 27.5681
129.992 736 27.1293
130.108 763 27.6225
130.225 726 26.9444
130.342 733 27.074
130.459 707 26.5895
130.576 744 27.2764
130.693 745 27.2947
130.81 742 27.2397
130.928 763 27.6225
131.045 752 27.4226
131.162 768 27.7128
131.279 742 27.2397
131.396 736 27.1293
131.513 726 26.9444
131.631 733 27.074
131.748 703 26.5141
131.865 685 26.1725
131.983 591 24.3105
132.1 536 23.1517
132.217 419 20.4695
132.335 414 20.347
132.452 490 22.1359
132.57 585 24.1868
132.687 677 26.0192
132.804 721 26.8514
132.922 730 27.0185
133.039 738 27.1662
133.157 726 26.9444
133.274 780 27.9285
133.392 745 27.2947
133.509 741 27.2213
133.627 770 27.7489
133.744 673 25.9422
133.862 732 27.0555
133.979 703 26.5141
134.097 682 26.1151
134.214 760 27.5681
134.332 752 27.4226
134.449 744 27.2764
134.567 721 26.8514
134.684 764 27.6405
134.802 697 26.4008
134.919 742 27.2397
135.037 730 27.0185
135.154 686 26.1916
135.272 674 25.9615
135.389 608 24.6577
135.507 657 25.632
135.624 532 23.0651
135.742 460 21.4476
135.859 428 20.6882
135.977 467 21.6102
136.094 520 22.8035
136.211 612 24.7386
136.329 678 26.0384
136.446 741 27.2213
136.564 703 26.5141
136.681 742 27.2397
136.798 723 26.8887
136.915 756 27.4955
137.033 713 26.7021
137.15 688 26.2298
137.267 707 26.5895
137.384 756 27.4955
137.502 711 26.6646
137.619 680 26.0768
137.736 643 25.3574
137.853 718 26.7955
137.97 720 26.8328
138.087 738 27.1662
138.204 695 26.3629
138.321 700 26.4575
138.438 724 26.9072
138.555 657 25.632
138.672 741 27.2213
138.788 656 25.6125
138.905 629 25.0799
139.022 662 25.7294
139.139 581 24.1039
139.255 533 23.0868
139.372 454 21.3073
139.488 384 19.5959
139.605 469 21.6564
139.721 419 20.4695
139.838 469 21.6564
139.954 539 23.2164
140.071 507 22.5167
140.187 402 20.0499
140.303 365 19.105
140.419 375 19.3649
140.535 356 18.868
140.652 309 17.5784
140.768 0 1
140.884 0 1
141 0 1
141.115 0 1
141.231 0 1
141.347 0 1
141.463 0 1
141.578 0 1
141.694 0 1
144.104 0 1
144.219 0 1
144.335 0 1
144.45 0 1
144.566 0 1
144.682 0 1
144.798 0 1
144.914 0 1
145.03 0 1
145.146 414 20.347
145.262 422 20.5426
145.378 558 23.622
145.494 520 22.8035
145.61 522 22.8473
145.726 520 22.8035
145.842 538 23.1948
145.959 584 24.1661
146.075 493 22.2036
146.192 490 22.1359
146.308 509 22.561
146.425 514 22.6716
146.541 518 22.7596
146.658 528 22.9783
146.774 529 23
146.891 507 22.5167
147.008 506 22.4944
147.125 476 21.8174
147.241 555 23.5584
147.358 504 22.4499
147.475 496 22.2711
147.592 491 22.1585
147.709 491 22.1585
147.826 428 20.6882
147.943 398 19.9499
148.06 386 19.6469
148.177 362 19.0263
148.294 317 17.8045
148.411 334 18.2757
148.528 395 19.8746
148.645 403 20.0749
148.762 496 22.2711
148.88 516 22.7156
148.997 532 23.0651
149.114 521 22.8254
149.231 537 23.1733
149.349 555 23.5584
149.466 541 23.2594
149.583 546 23.3666
149.701 522 22.8473
149.818 467 21.6102
149.935 537 23.1733
150.053 500 22.3607
150.17 508 22.5389
150.287 537 23.1733
150.405 523 22.8692
150.522 520 22.8035
150.64 524 22.891
150.757 539 23.2164
150.875 508 22.5389
150.992 481 21.9317
151.11 488 22.0907
151.227 512 22.6274
151.344 489 22.1133
151.462 476 21.8174
151.579 439 20.9523
151.697 427 20.664
151.814 358 18.9209
151.932 334 18.2757
152.049 377 19.4165
152.167 379 19.4679
152.284 449 21.1896
152.402 461 21.4709
152.519 510 22.5832
152.636 550 23.4521
152.754 506 22.4944
152.871 480 21.9089
152.989 523 22.8692
153.106 583 24.1454
153.223 544 23.3238
153.341 502 22.4054
153.458 514 22.6716
153.575 457 21.3776
153.693 520 22.8035
153.81 474 21.7715
153.927 455 21.3307
154.044 493 22.2036
154.162 522 22.8473
154.279 545 23.3452
154.396 552 23.4947
154.513 504 22.4499
154.63 556 23.5797
154.747 533 23.0868
154.864 479 21.8861
154.981 503 22.4277
155.098 399 19.975
155.215 405 20.1246
155.332 403 20.0749
155.449 360 18.9737
155.566 327 18.0831
155.683 384 19.5959
155.8 415 20.3715
155.917 460 21.4476
156.033 474 21.7715
156.15 0 1
156.267 0 1
156.383 0 1
156.5 0 1
156.617 0 1
156.733 0 1
156.85 0 1
156.966 0 1
157.082 0 1
157.199 0 1
157.315 0 1
157.431 0 1
157.547 0 1
157.664 0 1
157.78 0 1
157.896 0 1
158.012 0 1
158.128 0 1
158.244 0 1
158.359 0 1
158.475 0 1
158.591 0 1
158.706 0 1
