
6.15755 0 1
6.2731 0 1
6.3887 0 1
6.50437 0 1
6.62009 0 1
6.73587 0 1
6.8517 0 1
6.96759 0 1
7.08353 0 1
7.19952 0 1
7.31557 0 1
7.43166 0 1
7.54781 0 1
7.664 0 1
7.78024 0 1
7.89653 0 1
8.01286 0 1
8.12924 0 1
8.24567 0 1
8.36213 0 1
8.47864 0 1
8.59519 0 1
8.71178 0 1
8.82841 0 1
8.94508 0 1
9.06179 0 1
9.17853 0 1
9.29531 0 1
9.41212 0 1
9.52897 0 1
9.64584 0 1
9.76276 0 1
9.8797 0 1
9.99667 0 1
10.1137 0 1
10.2307 0 1
10.3478 0 1
10.4648 0 1
10.5819 0 1
10.6991 0 1
10.8162 0 1
10.9334 0 1
11.0506 0 1
11.1678 0 1
11.285 0 1
11.4023 0 1
11.5196 0 1
11.6369 0 1
11.7542 0 1
11.8715 0 1
11.9888 0 1
12.1062 0 1
12.2235 0 1
12.3409 0 1
12.4582 0 1
12.5756 0 1
12.693 0 1
12.8104 0 1
12.9278 0 1
13.0452 0 1
13.1626 0 1
13.28 0 1
13.3974 0 1
13.5149 0 1
13.6323 0 1
13.7497 0 1
13.8671 0 1
13.9845 0 1
14.1019 0 1
14.2193 0 1
14.3367 0 1
14.4541 0 1
14.5714 0 1
14.6888 0 1
14.8062 0 1
14.9235 0 1
15.0408 0 0
15.1581 0 0
15.2755 0 0
15.3927 0 0
15.51 0 0
15.6273 0 0
15.7445 0 0
15.8617 0 0
15.9789 0 0
16.0961 0 0
16.2132 0 0
16.3304 0 0
16.4475 0 0
16.5646 0 0
16.6816 0 0
16.7986 0 0
16.9156 0 0
17.0326 0 0
17.1496 0 0
17.2665 0 0
17.3833 0 0
17.5002 0 0
17.617 0 0
17.7338 0 0
17.8505 0 0
17.9672 0 0
18.0839 0 0
18.2005 0 0
18.3171 0 0
18.4337 0 0
18.5502 0 0
18.6666 0 0
18.7831 0 0
18.8994 0 0
19.0158 0 0
19.1321 0 0
19.2483 0 0
19.3645 0 0
19.4806 0 0
19.5967 0 0
19.7128 0 0
19.8288 0 0
19.9447 0 0
20.0606 0 1
20.1764 0 1
20.2922 0 1
20.4079 0 1
20.5236 0 1
20.6392 0 1
20.7548 0 1
20.8702 0 1
23.3078 0 1
23.4233 0 1
23.539 0 1
23.6547 0 1
23.7704 0 1
23.8862 0 1
24.0021 0 1
24.118 0 1
24.234 0 1
24.35 0 1
24.4661 1807 42.5088
24.5822 1813 42.5793
24.6984 1724 41.5211
24.8146 1661 40.7554
24.9309 1641 40.5093
25.0472 1608 40.0999
25.1636 1665 40.8044
25.28 1768 42.0476
25.3965 1830 42.7785
25.513 1919 43.8064
25.6296 1979 44.486
25.7462 1964 44.317
25.8628 1961 44.2832
25.9795 1920 43.8178
26.0962 1997 44.6878
26.213 1993 44.643
26.3298 1918 43.795
26.4466 1814 42.5911
26.5635 1775 42.1307
26.6804 1761 41.9643
26.7973 1688 41.0853
26.9143 1822 42.6849
27.0313 1859 43.1161
27.1483 1900 43.589
27.2653 1923 43.852
27.3824 1966 44.3396
27.4996 1959 44.2606
27.6167 1908 43.6807
27.7339 1884 43.4051
27.8511 1858 43.1045
27.9683 1725 41.5331
28.0855 1731 41.6053
28.2028 1728 41.5692
28.3201 1666 40.8167
28.4374 1687 41.0731
28.5547 1642 40.5216
28.6721 1569 39.6106
28.7894 1624 40.2989
28.9068 1652 40.6448
29.0242 1790 42.3084
29.1416 1841 42.9069
29.259 1848 42.9884
29.3764 2020 44.9444
29.4939 1827 42.7434
29.6113 1880 43.359
29.7288 1921 43.8292
29.8463 1848 42.9884
29.9638 1753 41.8688
30.0812 1732 41.6173
30.1987 1749 41.821
30.3162 1735 41.6533
30.4337 1824 42.7083
30.5512 1783 42.2256
30.6687 1813 42.5793
30.7862 1992 44.6318
30.9037 1929 43.9204
31.0212 1883 43.3935
31.1387 1938 44.0227
31.2562 1818 42.638
31.3737 1936 44
31.4912 1900 43.589
31.6087 1866 43.1972
31.7262 1774 42.1189
31.8436 1706 41.3038
31.9611 1636 40.4475
32.0785 1593 39.9124
32.1959 1600 40
32.3134 1660 40.7431
32.4308 1742 41.7373
32.5482 1748 41.8091
32.6655 1834 42.8252
32.7829 1840 42.8952
32.9002 1910 43.7035
33.0176 1848 42.9884
33.1349 1869 43.2319
33.2522 1849 43
33.3694 1900 43.589
33.4867 1943 44.0795
33.6039 1813 42.5793
33.7211 1783 42.2256
33.8383 1758 41.9285
33.9554 1683 41.0244
34.0725 1750 41.833
34.1896 1738 41.6893
34.3067 1855 43.0697
34.4237 1850 43.0116
34.5407 1896 43.5431
34.6577 1935 43.9886
34.7746 1895 43.5316
34.8915 1863 43.1625
35.0084 1875 43.3013
35.1252 1829 42.7668
35.242 1825 42.72
35.3587 1731 41.6053
35.4755 1676 40.939
35.5921 1687 41.0731
35.7088 1546 39.3192
35.8254 1603 40.0375
35.9419 1598 39.975
36.0584 1643 40.5339
36.1749 1663 40.7799
36.2913 1777 42.1545
36.4077 1783 42.2256
36.524 1810 42.5441
36.6403 1976 44.4522
36.7565 1967 44.3509
36.8727 1881 43.3705
36.9889 1910 43.7035
37.1049 1840 42.8952
37.221 0 1
37.3369 0 1
37.4529 0 1
37.5687 0 1
37.6845 0 1
37.8003 0 1
37.916 0 1
38.0316 0 1
38.1472 0 1
40.5851 0 1
40.7008 0 1
40.8164 0 1
40.9322 0 1
41.048 0 1
41.1639 0 1
41.2798 0 1
41.3958 0 1
41.5118 0 1
41.6279 0 1
41.744 1537 39.2046
41.8602 1606 40.0749
41.9765 1616 40.1995
42.0928 1647 40.5832
42.2091 1627 40.3361
42.3255 1627 40.3361
42.4419 1567 39.5854
42.5584 1542 39.2683
42.675 1472 38.3667
42.7915 1507 38.8201
42.9081 1481 38.4838
43.0248 1649 40.6079
43.1415 1647 40.5832
43.2582 1643 40.5339
43.375 1684 41.0366
43.4918 1684 41.0366
43.6087 1651 40.6325
43.7256 1619 40.2368
43.8425 1596 39.95
43.9595 1586 39.8246
44.0765 1418 37.6563
44.1935 1452 38.1051
44.3106 1454 38.1314
44.4277 1312 36.2215
44.5448 1211 34.7994
44.6619 1163 34.1028
44.7791 1233 35.1141
44.8963 1312 36.2215
45.0136 1336 36.5513
45.1308 1404 37.47
45.2481 1381 37.1618
45.3654 1382 37.1753
45.4827 1327 36.428
45.6001 1380 37.1484
45.7174 1378 37.1214
45.8348 1425 37.7492
45.9522 1280 35.7771
46.0697 1274 35.6931
46.1871 1174 34.2637
46.3046 1164 34.1174
46.422 1144 33.8231
46.5395 1307 36.1525
46.657 1276 35.7211
46.7745 1292 35.9444
46.892 1351 36.756
47.0096 1324 36.3868
47.1271 1308 36.1663
47.2446 1411 37.5633
47.3622 1271 35.6511
47.4797 1249 35.3412
47.5973 1187 34.4529
47.7149 1205 34.7131
47.8324 1201 34.6554
47.95 1081 32.8786
48.0675 941 30.6757
48.1851 976 31.241
48.3027 979 31.289
48.4202 990 31.4643
48.5378 1046 32.3419
48.6554 1120 33.4664
48.7729 1191 34.5109
48.8904 1189 34.4819
49.008 1182 34.3802
49.1255 1209 34.7707
49.243 1140 33.7639
49.3605 1122 33.4963
49.478 1104 33.2265
49.5955 1077 32.8177
49.713 1066 32.6497
49.8304 975 31.225
49.9479 1093 33.0606
50.0653 1208 34.7563
50.1827 1274 35.6931
50.3001 1290 35.9166
50.4175 1329 36.4555
50.5348 1283 35.819
50.6521 1411 37.5633
50.7694 1511 38.8716
50.8867 1510 38.8587
51.004 1464 38.2623
51.1212 1403 37.4566
51.2384 1454 38.1314
51.3556 1453 38.1182
51.4727 1369 37
51.5899 1285 35.8469
51.707 1246 35.2987
51.824 1334 36.524
51.9411 1341 36.6197
52.0581 1473 38.3797
52.175 1540 39.2428
52.2919 1705 41.2916
52.4088 1686 41.0609
52.5257 1710 41.3521
52.6425 1671 40.8779
52.7593 1737 41.6773
52.876 1771 42.0833
52.9927 1702 41.2553
53.1094 1722 41.497
53.226 1745 41.7732
53.3426 1621 40.2616
53.4591 1631 40.3856
53.5756 1741 41.7253
53.692 1826 42.7317
53.8084 1858 43.1045
53.9248 1953 44.1928
54.0411 1944 44.0908
54.1573 1954 44.2041
54.2735 0 1
54.3896 0 1
54.5057 0 1
54.6217 0 1
54.7377 0 1
54.8537 0 1
54.9695 0 1
55.0853 0 1
55.2011 0 1
55.3168 0 1
55.4324 0 1
57.824 0 1
57.9396 0 1
58.0553 0 1
58.1711 0 1
58.2869 0 1
58.4028 0 1
58.5187 0 1
58.6347 0 1
58.7508 0 1
58.8669 0 1
58.983 2348 48.4562
59.0992 2302 47.9792
59.2155 2454 49.5379
59.3318 2550 50.4975
59.4482 2614 51.1273
59.5646 2568 50.6754
59.681 2481 49.8096
59.7975 2439 49.3862
59.9141 2249 47.4236
60.0306 2254 47.4763
60.1473 2130 46.1519
60.2639 1919 43.8064
60.3807 1789 42.2966
60.4974 1800 42.4264
60.6142 1835 42.8369
60.731 1971 44.3959
60.8479 2180 46.6905
60.9648 2220 47.1169
61.0818 2300 47.9583
61.1987 2453 49.5278
61.3158 2431 49.3052
61.4328 2316 48.1248
61.5499 2312 48.0833
61.667 2270 47.6445
61.7841 2163 46.5081
61.9013 2012 44.8553
62.0185 2078 45.5851
62.1357 2169 46.5725
62.253 2123 46.076
62.3702 2307 48.0312
62.4875 2290 47.8539
62.6049 2329 48.2597
62.7222 2477 49.7695
62.8396 2455 49.548
62.9569 2454 49.5379
63.0743 2502 50.02
63.1918 2413 49.1223
63.3092 2364 48.621
63.4267 2393 48.9183
63.5441 2240 47.3286
63.6616 2049 45.2659
63.7791 1914 43.7493
63.8966 1780 42.19
64.0142 1848 42.9884
64.1317 1845 42.9535
64.2492 1947 44.1248
64.3668 2113 45.9674
64.4843 2195 46.8508
64.6019 2356 48.5386
64.7195 2256 47.4974
64.837 2336 48.3322
64.9546 2336 48.3322
65.0722 2246 47.392
65.1898 2188 46.7761
65.3074 2142 46.2817
65.4249 2115 45.9891
65.5425 2130 46.1519
65.6601 2176 46.6476
65.7777 2128 46.1303
65.8952 2231 47.2335
66.0128 2310 48.0625
66.1304 2463 49.6286
66.2479 2432 49.3153
66.3655 2499 49.99
66.483 2512 50.1199
66.6005 2548 50.4777
66.718 2460 49.5984
66.8355 2434 49.3356
66.953 2403 49.0204
67.0705 2330 48.2701
67.1879 2199 46.8935
67.3054 2026 45.0111
67.4228 1975 44.441
67.5402 1736 41.6653
67.6576 1805 42.4853
67.7749 1955 44.2154
67.8923 2155 46.422
68.0096 2228 47.2017
68.1269 2370 48.6826
68.2442 2397 48.9592
68.3614 2486 49.8598
68.4787 2383 48.816
68.5958 2603 51.0196
68.713 2528 50.2792
68.8302 2499 49.99
68.9473 2499 49.99
69.0643 2280 47.7493
69.1814 2230 47.2229
69.2984 2252 47.4552
69.4154 2349 48.4665
69.5323 2397 48.9592
69.6492 2573 50.7247
69.7661 2688 51.8459
69.8829 2691 51.8748
69.9997 2767 52.6023
70.1165 2820 53.1037
70.2332 2930 54.1295
70.3499 2920 54.037
70.4665 2904 53.8888
70.5831 2769 52.6213
70.6996 2657 51.5461
70.8161 2521 50.2096
70.9326 2321 48.1768
71.049 2146 46.3249
71.1653 1939 44.0341
71.2817 1843 42.9302
71.3979 1941 44.0568
71.5141 2030 45.0555
71.6303 2121 46.0543
71.7464 2171 46.594
71.8624 0 1
71.9784 0 1
72.0944 0 1
72.2102 0 1
72.3261 0 1
72.4418 0 1
72.5575 0 1
72.6732 0 1
75.1054 0 1
75.2209 0 1
75.3365 0 1
75.4521 0 1
75.5678 0 1
75.6835 0 1
75.7993 0 1
75.9151 0 1
76.031 0 1
76.147 2499 49.99
76.263 2565 50.6458
76.3791 2370 48.6826
76.4952 2040 45.1664
76.6113 2135 46.2061
76.7276 2147 46.3357
76.8438 2387 48.8569
76.9601 2602 51.0098
77.0765 2886 53.7215
77.1929 2988 54.6626
77.3093 3218 56.7274
77.4258 3205 56.6127
77.5423 3124 55.8928
77.6589 3104 55.7136
77.7755 3074 55.4437
77.8921 3044 55.1725
78.0088 2816 53.066
78.1256 2873 53.6004
78.2423 2725 52.2015
78.3591 2787 52.792
78.4759 2867 53.5444
78.5928 2998 54.754
78.7097 3050 55.2268
78.8266 3343 57.8187
78.9436 3180 56.3915
79.0606 3315 57.576
79.1776 3401 58.3181
79.2946 3324 57.6541
79.4117 3241 56.9298
79.5288 3348 57.8619
79.6459 3343 57.8187
79.7631 3105 55.7225
79.8802 3016 54.9181
79.9974 2640 51.3809
80.1147 2504 50.04
80.2319 2293 47.8853
80.3491 2305 48.0104
80.4664 2584 50.8331
80.5837 2798 52.8961
80.701 2985 54.6352
80.8183 3224 56.7803
80.9357 3250 57.0088
81.053 3339 57.7841
81.1704 3328 57.6888
81.2877 3343 57.8187
81.4051 3326 57.6715
81.5225 3224 56.7803
81.6399 3183 56.4181
81.7573 2976 54.5527
81.8747 2984 54.626
81.9922 2950 54.3139
82.1096 2993 54.7083
82.227 3158 56.1961
82.3444 3083 55.5248
82.4619 3401 58.3181
82.5793 3356 57.931
82.6967 3455 58.7792
82.8142 3492 59.0931
82.9316 3615 60.1249
83.049 3585 59.8749
83.1664 3351 57.8878
83.2838 3291 57.3672
83.4012 3142 56.0535
83.5186 3104 55.7136
83.636 2878 53.647
83.7534 2575 50.7445
83.8708 2270 47.6445
83.9881 2243 47.3603
84.1055 2541 50.4083
84.2228 2611 51.0979
84.3401 3040 55.1362
84.4575 3290 57.3585
84.5747 3451 58.7452
84.692 3598 59.9833
84.8093 3617 60.1415
84.9265 3677 60.6383
85.0437 3475 58.9491
85.1609 3471 58.9152
85.2781 3386 58.1893
85.3952 3239 56.9122
85.5123 3122 55.8749
85.6294 3177 56.3649
85.7465 3282 57.2887
85.8636 3492 59.0931
85.9806 3646 60.3821
86.0976 3768 61.384
86.2145 3973 63.0317
86.3315 4037 63.5374
86.4484 4286 65.4675
86.5652 4120 64.1872
86.682 4283 65.4446
86.7988 4232 65.0538
86.9156 3978 63.0714
87.0323 4069 63.7887
87.149 3796 61.6117
87.2657 3437 58.6259
87.3823 3137 56.0089
87.4988 2927 54.1018
87.6154 3151 56.1338
87.7318 3333 57.7321
87.8483 3862 62.145
87.9647 4309 65.643
88.081 4665 68.3008
88.1973 4597 67.8012
88.3136 4651 68.1982
88.4298 4764 69.0217
88.546 4692 68.4982
88.6621 4575 67.6387
88.7781 4442 66.6483
88.8942 0 1
89.0101 0 1
89.126 0 1
89.2419 0 1
89.3577 0 1
89.4734 0 1
89.5891 0 1
89.7047 0 1
89.8203 0 1
89.9358 0 1
92.3269 0 1
92.4424 0 1
92.558 0 1
92.6736 0 1
92.7893 0 1
92.905 0 1
93.0208 0 1
93.1366 0 1
93.2525 0 1
93.3685 0 1
93.4845 0 1
93.6005 5107 71.4633
93.7167 4973 70.5195
93.8328 5280 72.6636
93.949 5261 72.5328
94.0653 5179 71.9653
94.1816 5021 70.859
94.2979 4787 69.1881
94.4143 4778 69.1231
94.5307 4711 68.6367
94.6472 4709 68.6222
94.7637 4770 69.0652
94.8803 4749 68.913
94.9969 4964 70.4557
95.1135 5144 71.7217
95.2302 5327 72.9863
95.3469 5544 74.458
95.4637 5584 74.7262
95.5805 5614 74.9266
95.6973 5842 76.433
95.8142 5572 74.6458
95.9311 5555 74.5319
96.048 5481 74.0338
96.1649 5238 72.374
96.2819 5167 71.8818
96.3989 4837 69.5485
96.516 4407 66.3852
96.633 4165 64.5368
96.7501 3908 62.514
96.8673 4165 64.5368
96.9844 4611 67.9043
97.1016 5026 70.8943
97.2188 5519 74.29
97.336 5818 76.2758
97.4532 6044 77.7432
97.5704 6053 77.801
97.6877 5938 77.0584
97.805 5799 76.1512
97.9223 5703 75.5182
98.0396 5611 74.9066
98.1569 5535 74.3976
98.2743 5247 72.4362
98.3916 5113 71.5052
98.509 5418 73.6071
98.6264 5472 73.973
98.7438 5931 77.013
98.8612 5845 76.4526
98.9786 6230 78.9303
99.096 6163 78.5048
99.2134 6346 79.6618
99.3308 6356 79.7245
99.4482 6449 80.3057
99.5656 6327 79.5424
99.6831 6256 79.0949
99.8005 6064 77.8717
99.9179 5804 76.184
100.035 5282 72.6774
100.153 4985 70.6045
100.27 4574 67.6314
100.388 4400 66.3325
100.505 4902 70.0143
100.622 5515 74.263
100.74 6052 77.7946
100.857 6497 80.604
100.975 6588 81.1665
101.092 6547 80.9135
101.209 6580 81.1172
101.327 6514 80.7094
101.444 6372 79.8248
101.561 6444 80.2745
101.679 6344 79.6492
101.796 5966 77.2399
101.913 5893 76.7659
102.03 6011 77.5306
102.148 6115 78.1985
102.265 6572 81.0679
102.382 6207 78.7845
102.499 6619 81.3572
102.616 7008 83.7138
102.733 7087 84.1843
102.851 7069 84.0773
102.968 7099 84.2556
103.085 7100 84.2615
103.202 6986 83.5823
103.319 6615 81.3327
103.436 6401 80.0062
103.552 6098 78.0897
103.669 5441 73.7631
103.786 5088 71.3302
103.903 4988 70.6258
104.02 5366 73.253
104.137 6201 78.7464
104.253 7013 83.7437
104.37 7103 84.2793
104.487 7256 85.1822
104.603 7435 86.2264
104.72 7285 85.3522
104.836 7453 86.3308
104.953 7332 85.6271
105.069 7228 85.0176
105.186 6943 83.3247
105.302 6654 81.5721
105.418 6731 82.0427
105.535 6600 81.2404
105.651 6885 82.9759
105.767 6974 83.5105
105.883 7260 85.2056
105.999 7305 85.4693
106.115 0 1
106.231 0 1
106.347 0 1
106.463 0 1
106.579 0 1
106.694 0 1
106.81 0 1
106.926 0 1
107.041 0 1
107.157 0 1
109.576 0 1
109.692 0 1
109.807 0 1
109.923 0 1
110.039 0 1
110.155 0 1
110.27 0 1
110.386 0 1
110.502 0 1
110.618 6209 78.7972
110.735 6746 82.134
110.851 6674 81.6946
110.967 6755 82.1888
111.083 7101 84.2674
111.199 7105 84.2912
111.316 7227 85.0118
111.432 7104 84.2852
111.549 7095 84.2318
111.665 6843 82.7224
111.782 6500 80.6226
111.898 6320 79.4984
112.015 5778 76.0132
112.132 5456 73.8647
112.248 4859 69.7065
112.365 4652 68.2056
112.482 4974 70.5266
112.599 5330 73.0068
112.716 6063 77.8653
112.832 6366 79.7872
112.949 6384 79.8999
113.066 6329 79.555
113.183 6415 80.0937
113.3 6149 78.4156
113.417 6227 78.9113
113.534 6034 77.6788
113.652 5799 76.1512
113.769 5718 75.6175
113.886 5460 73.8918
114.003 5434 73.7157
114.12 5481 74.0338
114.238 5587 74.7462
114.355 5730 75.6968
114.472 5864 76.5768
114.589 5799 76.1512
114.707 5772 75.9737
114.824 5941 77.0779
114.942 5978 77.3175
115.059 6010 77.5242
115.176 6013 77.5435
115.294 5870 76.6159
115.411 5527 74.3438
115.529 5524 74.3236
115.646 5132 71.638
115.764 4598 67.8086
115.881 4157 64.4748
115.999 4425 66.5207
116.116 4552 67.4685
116.234 5040 70.993
116.351 5629 75.0267
116.469 5754 75.8551
116.586 5816 76.2627
116.704 5907 76.857
116.821 6006 77.4984
116.939 5873 76.6355
117.056 5664 75.2596
117.174 5696 75.4718
117.291 5518 74.2832
117.409 5491 74.1013
117.526 5215 72.215
117.644 5143 71.7147
117.761 5379 73.3417
117.879 5489 74.0878
117.996 5461 73.8986
118.114 5735 75.7298
118.231 5710 75.5645
118.349 5728 75.6836
118.466 5967 77.2464
118.584 5893 76.7659
118.701 5899 76.8049
118.819 5771 75.9671
118.936 5709 75.5579
119.053 5520 74.2967
119.171 5219 72.2426
119.288 4931 70.2211
119.405 4531 67.3127
119.523 4138 64.3273
119.64 4155 64.4593
119.757 4451 66.7158
119.875 4895 69.9643
119.992 5417 73.6003
120.109 5339 73.0685
120.226 5463 73.9121
120.343 5563 74.5855
120.46 5580 74.6994
120.578 5577 74.6793
120.695 5487 74.0743
120.812 5516 74.2698
120.929 5339 73.0685
121.046 5230 72.3187
121.163 5170 71.9027
121.279 4966 70.4699
121.396 4928 70.1997
121.513 5049 71.0563
121.63 5307 72.8492
121.747 5238 72.374
121.863 5333 73.0274
121.98 5327 72.9863
122.097 5332 73.0205
122.213 5388 73.403
122.33 5529 74.3572
122.446 5395 73.4507
122.563 5495 74.1283
122.679 5320 72.9383
122.795 5024 70.8802
122.912 5009 70.7743
123.028 4648 68.1762
123.144 4255 65.2304
123.26 3967 62.9841
123.377 0 1
123.493 0 1
123.609 0 1
123.725 0 1
123.84 0 1
123.956 0 1
124.072 0 1
124.188 0 1
124.303 0 1
124.419 0 1
126.852 0 1
126.968 0 1
127.083 0 1
127.199 0 1
127.315 0 1
127.431 0 1
127.547 0 1
127.663 0 1
127.779 0 1
127.895 0 1
128.011 0 1
128.127 0 1
128.243 0 1
128.359 4650 68.1909
128.476 4259 65.261
128.592 4311 65.6582
128.708 4583 67.6979
128.825 5113 71.5052
128.941 5417 73.6003
129.058 5889 76.7398
129.174 5818 76.2758
129.291 5656 75.2064
129.408 5644 75.1266
129.524 5792 76.1052
129.641 5667 75.2795
129.758 5635 75.0666
129.875 5468 73.9459
129.992 5338 73.0616
130.108 5325 72.9726
130.225 5227 72.298
130.342 5362 73.2257
130.459 5382 73.3621
130.576 5700 75.4983
130.693 5658 75.2197
130.81 5602 74.8465
130.928 5389 73.4098
131.045 5530 74.364
131.162 5663 75.2529
131.279 5701 75.505
131.396 5671 75.306
131.513 5526 74.3371
131.631 5267 72.5741
131.748 5084 71.3022
131.865 4789 69.2026
131.983 4208 64.8691
132.1 4007 63.3009
132.217 4367 66.0833
132.335 4670 68.3374
132.452 5168 71.8888
132.57 5424 73.6478
132.687 5260 72.5259
132.804 5734 75.7232
132.922 5637 75.08
133.039 5458 73.8783
133.157 5435 73.7225
133.274 5551 74.505
133.392 5316 72.9109
133.509 5092 71.3583
133.627 5143 71.7147
133.744 5065 71.1688
133.862 4979 70.562
133.979 5143 71.7147
134.097 5181 71.9792
134.214 5358 73.1984
134.332 5246 72.4293
134.449 5282 72.6774
134.567 5220 72.2496
134.684 5145 71.7287
134.802 5337 73.0548
134.919 5170 71.9027
135.037 5299 72.7942
135.154 5294 72.7599
135.272 5017 70.8308
135.389 4797 69.2604
135.507 4373 66.1287
135.624 3984 63.1189
135.742 4010 63.3246
135.859 4261 65.2763
135.977 4625 68.0074
136.094 5052 71.0774
136.211 5228 72.3049
136.329 5470 73.9594
136.446 5256 72.4983
136.564 5444 73.7835
136.681 5378 73.3348
136.798 5188 72.0278
136.915 5254 72.4845
137.033 5050 71.0634
137.15 5123 71.5751
137.267 4848 69.6276
137.384 4954 70.3847
137.502 5010 70.7814
137.619 4900 70
137.736 5102 71.4283
137.853 4878 69.8427
137.97 4899 69.9929
138.087 5161 71.8401
138.204 5202 72.1249
138.321 5109 71.4773
138.438 5156 71.8053
138.555 5224 72.2772
138.672 5148 71.7496
138.788 5117 71.5332
138.905 4978 70.5549
139.022 4722 68.7168
139.139 4523 67.2533
139.255 4123 64.2106
139.372 3974 63.0397
139.488 4110 64.1093
139.605 4512 67.1714
139.721 4938 70.2709
139.838 5177 71.9514
139.954 5025 70.8872
140.071 5077 71.2531
140.187 5381 73.3553
140.303 5178 71.9583
140.419 5083 71.2952
140.535 5083 71.2952
140.652 4950 70.3562
140.768 0 1
140.884 0 1
141 0 1
141.115 0 1
141.231 0 1
141.347 0 1
141.463 0 1
141.578 0 1
141.694 0 1
144.104 0 1
144.219 0 1
144.335 0 1
144.45 0 1
144.566 0 1
144.682 0 1
144.798 0 1
144.914 0 1
145.03 0 1
145.146 4476 66.9029
145.262 4420 66.4831
145.378 4473 66.8805
145.494 4464 66.8132
145.61 4246 65.1613
145.726 4272 65.3605
145.842 4152 64.436
145.959 4155 64.4593
146.075 4118 64.1716
146.192 4083 63.8984
146.308 4158 64.4826
146.425 4289 65.4905
146.541 4239 65.1076
146.658 4275 65.3835
146.774 4223 64.9846
146.891 4374 66.1362
147.008 4232 65.0538
147.125 4286 65.4675
147.241 4261 65.2763
147.358 4287 65.4752
147.475 4202 64.8228
147.592 3964 62.9603
147.709 3827 61.8628
147.826 3350 57.8792
147.943 3256 57.0614
148.06 3542 59.5147
148.177 3676 60.63
148.294 4023 63.4271
148.411 4273 65.3682
148.528 4217 64.9384
148.645 4217 64.9384
148.762 4155 64.4593
148.88 4091 63.9609
148.997 3949 62.8411
149.114 4312 65.6658
149.231 4087 63.9296
149.349 4045 63.6003
149.466 3884 62.3217
149.583 3842 61.9839
149.701 3841 61.9758
149.818 3797 61.6198
149.935 3862 62.145
150.053 3978 63.0714
150.17 3868 62.1932
150.287 4004 63.2772
150.405 3960 62.9285
150.522 3934 62.7216
150.64 3858 62.1128
150.757 4014 63.3561
150.875 3963 62.9524
150.992 4017 63.3798
151.11 3850 62.0484
151.227 3717 60.9672
151.344 3592 59.9333
151.462 3302 57.463
151.579 3190 56.4801
151.697 3391 58.2323
151.814 3557 59.6406
151.932 3802 61.6604
152.049 3991 63.1744
152.167 4180 64.6529
152.284 4164 64.5291
152.402 4027 63.4586
152.519 4060 63.7181
152.636 4173 64.5988
152.754 4016 63.3719
152.871 4069 63.7887
152.989 3974 63.0397
153.106 3904 62.482
153.223 3974 63.0397
153.341 3813 61.7495
153.458 3749 61.2291
153.575 3819 61.7981
153.693 3850 62.0484
153.81 3943 62.7933
153.927 3918 62.5939
154.044 3888 62.3538
154.162 4061 63.726
154.279 4165 64.5368
154.396 4055 63.6789
154.513 4137 64.3195
154.63 4075 63.8357
154.747 4071 63.8044
154.864 3856 62.0967
154.981 3698 60.8112
155.098 3592 59.9333
155.215 3204 56.6039
155.332 3551 59.5903
155.449 3743 61.1801
155.566 3917 62.5859
155.683 4187 64.707
155.8 4029 63.4744
155.917 4109 64.1015
156.033 4266 65.3146
156.15 0 1
156.267 0 1
156.383 0 1
156.5 0 1
156.617 0 1
156.733 0 1
156.85 0 1
156.966 0 1
157.082 0 1
157.199 0 1
157.315 0 1
157.431 0 1
157.547 0 1
157.664 0 1
157.78 0 1
157.896 0 1
158.012 0 1
158.128 0 1
158.244 0 1
158.359 0 1
158.475 0 1
158.591 0 1
158.706 0 1
