
6.15755 0 1
6.2731 0 1
6.3887 0 1
6.50437 0 1
6.62009 0 1
6.73587 0 1
6.8517 0 1
6.96759 0 1
7.08353 0 1
7.19952 0 1
7.31557 0 1
7.43166 0 1
7.54781 0 1
7.664 0 1
7.78024 0 1
7.89653 0 1
8.01286 0 1
8.12924 0 1
8.24567 0 1
8.36213 0 1
8.47864 0 1
8.59519 0 1
8.71178 0 1
8.82841 0 1
8.94508 0 1
9.06179 0 1
9.17853 0 1
9.29531 0 1
9.41212 0 1
9.52897 0 1
9.64584 0 1
9.76276 0 1
9.8797 0 1
9.99667 0 1
10.1137 0 1
10.2307 0 1
10.3478 0 1
10.4648 0 1
10.5819 0 1
10.6991 0 1
10.8162 0 1
10.9334 0 1
11.0506 0 1
11.1678 0 1
11.285 0 1
11.4023 0 1
11.5196 0 1
11.6369 0 1
11.7542 0 1
11.8715 0 1
11.9888 0 1
12.1062 0 1
12.2235 0 1
12.3409 0 1
12.4582 0 1
12.5756 0 1
12.693 0 1
12.8104 0 1
12.9278 0 1
13.0452 0 1
13.1626 0 1
13.28 0 1
13.3974 0 1
13.5149 0 1
13.6323 0 1
13.7497 0 1
13.8671 0 1
13.9845 0 1
14.1019 0 1
14.2193 0 1
14.3367 0 1
14.4541 0 1
14.5714 0 1
14.6888 0 1
14.8062 0 1
14.9235 0 1
15.0408 0 0
15.1581 0 0
15.2755 0 0
15.3927 0 0
15.51 0 0
15.6273 0 0
15.7445 0 0
15.8617 0 0
15.9789 0 0
16.0961 0 0
16.2132 0 0
16.3304 0 0
16.4475 0 0
16.5646 0 0
16.6816 0 0
16.7986 0 0
16.9156 0 0
17.0326 0 0
17.1496 0 0
17.2665 0 0
17.3833 0 0
17.5002 0 0
17.617 0 0
17.7338 0 0
17.8505 0 0
17.9672 0 0
18.0839 0 0
18.2005 0 0
18.3171 0 0
18.4337 0 0
18.5502 0 0
18.6666 0 0
18.7831 0 0
18.8994 0 0
19.0158 0 0
19.1321 0 0
19.2483 0 0
19.3645 0 0
19.4806 0 0
19.5967 0 0
19.7128 0 0
19.8288 0 0
19.9447 0 0
20.0606 0 1
20.1764 0 1
20.2922 0 1
20.4079 0 1
20.5236 0 1
20.6392 0 1
20.7548 0 1
20.8702 0 1
23.3078 0 1
23.4233 0 1
23.539 0 1
23.6547 0 1
23.7704 0 1
23.8862 0 1
24.0021 0 1
24.118 0 1
24.234 0 1
24.35 0 1
24.4661 10589 102.903
24.5822 10943 104.609
24.6984 10948 104.633
24.8146 10692 103.402
24.9309 10777 103.812
25.0472 10554 102.733
25.1636 10515 102.543
25.28 11028 105.014
25.3965 11404 106.79
25.513 11894 109.06
25.6296 12013 109.604
25.7462 12647 112.459
25.8628 12714 112.756
25.9795 12727 112.814
26.0962 12813 113.195
26.213 12527 111.924
26.3298 12299 110.901
26.4466 12029 109.677
26.5635 11324 106.414
26.6804 11054 105.138
26.7973 11215 105.901
26.9143 11165 105.665
27.0313 11369 106.626
27.1483 12037 109.713
27.2653 11948 109.307
27.3824 12382 111.274
27.4996 12275 110.793
27.6167 11999 109.54
27.7339 11777 108.522
27.8511 11547 107.457
27.9683 11387 106.71
28.0855 11167 105.674
28.2028 10869 104.254
28.3201 10750 103.682
28.4374 10624 103.073
28.5547 10504 102.489
28.6721 10262 101.302
28.7894 10978 104.776
28.9068 11028 105.014
29.0242 11455 107.028
29.1416 11579 107.606
29.259 11997 109.531
29.3764 12104 110.018
29.4939 12382 111.274
29.6113 12340 111.086
29.7288 12259 110.72
29.8463 11694 108.139
29.9638 11349 106.532
30.0812 10794 103.894
30.1987 10315 101.563
30.3162 10392 101.941
30.4337 10700 103.441
30.5512 11087 105.295
30.6687 11365 106.607
30.7862 11346 106.518
30.9037 11747 108.384
31.0212 12028 109.672
31.1387 11967 109.394
31.2562 11811 108.678
31.3737 11692 108.13
31.4912 11434 106.93
31.6087 11135 105.523
31.7262 10990 104.833
31.8436 10699 103.436
31.9611 10613 103.019
32.0785 10387 101.917
32.1959 10309 101.533
32.3134 10772 103.788
32.4308 10889 104.35
32.5482 11274 106.179
32.6655 11786 108.563
32.7829 11908 109.124
32.9002 12209 110.494
33.0176 12043 109.741
33.1349 12265 110.747
33.2522 11851 108.862
33.3694 12174 110.336
33.4867 11836 108.793
33.6039 11188 105.773
33.7211 10696 103.421
33.8383 10234 101.163
33.9554 10086 100.429
34.0725 10263 101.306
34.1896 10885 104.331
34.3067 11058 105.157
34.4237 11171 105.693
34.5407 11447 106.991
34.6577 11695 108.143
34.7746 11663 107.995
34.8915 11662 107.991
35.0084 11573 107.578
35.1252 11405 106.794
35.242 11244 106.038
35.3587 11060 105.167
35.4755 10818 104.01
35.5921 10595 102.932
35.7088 10384 101.902
35.8254 10182 100.906
35.9419 10296 101.469
36.0584 10606 102.985
36.1749 10768 103.769
36.2913 11163 105.655
36.4077 11509 107.28
36.524 11798 108.619
36.6403 11918 109.17
36.7565 11706 108.194
36.8727 12085 109.932
36.9889 11701 108.171
37.1049 11303 106.316
37.221 0 1
37.3369 0 1
37.4529 0 1
37.5687 0 1
37.6845 0 1
37.8003 0 1
37.916 0 1
38.0316 0 1
38.1472 0 1
40.5851 0 1
40.7008 0 1
40.8164 0 1
40.9322 0 1
41.048 0 1
41.1639 0 1
41.2798 0 1
41.3958 0 1
41.5118 0 1
41.6279 0 1
41.744 9247 96.1613
41.8602 9561 97.7804
41.9765 9656 98.2649
42.0928 9678 98.3768
42.2091 9540 97.6729
42.3255 9016 94.9526
42.4419 8432 91.8259
42.5584 8168 90.377
42.675 7660 87.5214
42.7915 8040 89.666
42.9081 8498 92.1846
43.0248 8706 93.3059
43.1415 8944 94.5727
43.2582 9171 95.7653
43.375 9126 95.5301
43.4918 9221 96.026
43.6087 9145 95.6295
43.7256 9092 95.352
43.8425 8730 93.4345
43.9595 8648 92.9946
44.0765 8540 92.4121
44.1935 8251 90.835
44.3106 8054 89.7441
44.4277 7685 87.6641
44.5448 7432 86.209
44.6619 7360 85.7904
44.7791 7433 86.2148
44.8963 7530 86.7756
45.0136 7758 88.0795
45.1308 8200 90.5539
45.2481 8157 90.3161
45.3654 8122 90.1221
45.4827 8158 90.3216
45.6001 7896 88.8594
45.7174 7932 89.0618
45.8348 7635 87.3785
45.9522 7122 84.3919
46.0697 6525 80.7775
46.1871 5993 77.4145
46.3046 6191 78.6829
46.422 6303 79.3914
46.5395 6693 81.8108
46.657 6902 83.0783
46.7745 6908 83.1144
46.892 7120 84.3801
47.0096 7189 84.788
47.1271 7150 84.5577
47.2446 7173 84.6936
47.3622 6989 83.6002
47.4797 6683 81.7496
47.5973 6548 80.9197
47.7149 6408 80.05
47.8324 6026 77.6273
47.95 5841 76.4264
48.0675 5735 75.7298
48.1851 5428 73.675
48.3027 5383 73.3689
48.4202 5650 75.1665
48.5378 5814 76.2496
48.6554 6097 78.0833
48.7729 6143 78.3773
48.8904 6479 80.4922
49.008 6200 78.7401
49.1255 6113 78.1857
49.243 6036 77.6917
49.3605 5816 76.2627
49.478 5433 73.7089
49.5955 5052 71.0774
49.713 4782 69.152
49.8304 4907 70.05
49.9479 5263 72.5465
50.0653 5759 75.8881
50.1827 6016 77.5629
50.3001 6111 78.1729
50.4175 6520 80.7465
50.5348 6724 82
50.6521 6760 82.2192
50.7694 6793 82.4197
50.8867 7024 83.8093
51.004 7125 84.4097
51.1212 7096 84.2378
51.2384 7099 84.2556
51.3556 6939 83.3007
51.4727 6693 81.8108
51.5899 6678 81.719
51.707 6724 82
51.824 6979 83.5404
51.9411 7280 85.3229
52.0581 7935 89.0786
52.175 8288 91.0385
52.2919 8491 92.1466
52.4088 8731 93.4398
52.5257 8948 94.5939
52.6425 8847 94.0585
52.7593 8887 94.2709
52.876 8760 93.5949
52.9927 8061 89.7831
53.1094 7701 87.7553
53.226 7309 85.4927
53.3426 7077 84.1249
53.4591 7259 85.1998
53.5756 8174 90.4102
53.692 8877 94.2178
53.8084 9198 95.9062
53.9248 9695 98.4632
54.0411 9809 99.0404
54.1573 10105 100.524
54.2735 0 1
54.3896 0 1
54.5057 0 1
54.6217 0 1
54.7377 0 1
54.8537 0 1
54.9695 0 1
55.0853 0 1
55.2011 0 1
55.3168 0 1
55.4324 0 1
57.824 0 1
57.9396 0 1
58.0553 0 1
58.1711 0 1
58.2869 0 1
58.4028 0 1
58.5187 0 1
58.6347 0 1
58.7508 0 1
58.8669 0 1
58.983 10890 104.355
59.0992 11383 106.691
59.2155 11919 109.174
59.3318 12056 109.8
59.4482 12141 110.186
59.5646 12077 109.895
59.681 12112 110.055
59.7975 11859 108.899
59.9141 11478 107.135
60.0306 10980 104.785
60.1473 10645 103.175
60.2639 10265 101.316
60.3807 10120 100.598
60.4974 10226 101.124
60.6142 10294 101.459
60.731 10848 104.154
60.8479 11095 105.333
60.9648 11196 105.811
61.0818 11479 107.14
61.1987 11310 106.348
61.3158 10904 104.422
61.4328 10527 102.601
61.5499 9950 99.7497
61.667 9048 95.121
61.7841 8594 92.7038
61.9013 8469 92.0272
62.0185 8498 92.1846
62.1357 9121 95.5039
62.253 9481 97.3704
62.3702 10109 100.544
62.4875 10405 102.005
62.6049 10677 103.33
62.7222 11011 104.933
62.8396 10836 104.096
62.9569 10900 104.403
63.0743 10889 104.35
63.1918 10540 102.665
63.3092 10524 102.587
63.4267 10263 101.306
63.5441 9849 99.2421
63.6616 9392 96.9123
63.7791 9203 95.9323
63.8966 9129 95.5458
64.0142 9074 95.2575
64.1317 9426 97.0876
64.2492 9813 99.0606
64.3668 10119 100.593
64.4843 10121 100.603
64.6019 10265 101.316
64.7195 10219 101.089
64.837 9995 99.975
64.9546 9789 98.9394
65.0722 9222 96.0312
65.1898 8382 91.5533
65.3074 7952 89.174
65.4249 7209 84.9058
65.5425 7306 85.4751
65.6601 7919 88.9888
65.7777 8422 91.7715
65.8952 9024 94.9947
66.0128 9340 96.6437
66.1304 9769 98.8383
66.2479 9985 99.925
66.3655 10098 100.489
66.483 10155 100.772
66.6005 10342 101.696
66.718 10051 100.255
66.8355 10052 100.26
66.953 10008 100.04
67.0705 9701 98.4937
67.1879 9323 96.5557
67.3054 8939 94.5463
67.4228 8664 93.0806
67.5402 8669 93.1075
67.6576 8730 93.4345
67.7749 9191 95.8697
67.8923 9582 97.8877
68.0096 9986 99.93
68.1269 10150 100.747
68.2442 10498 102.46
68.3614 10558 102.752
68.4787 10766 103.759
68.5958 10408 102.02
68.713 9980 99.8999
68.8302 9322 96.5505
68.9473 8593 92.6984
69.0643 8404 91.6733
69.1814 8696 93.2523
69.2984 9367 96.7833
69.4154 10162 100.807
69.5323 11098 105.347
69.6492 11753 108.411
69.7661 12401 111.36
69.8829 13204 114.909
69.9997 13385 115.694
70.1165 13775 117.367
70.2332 14366 119.858
70.3499 14337 119.737
70.4665 14430 120.125
70.5831 14346 119.775
70.6996 14231 119.294
70.8161 13687 116.991
70.9326 13284 115.256
71.049 12848 113.349
71.1653 12695 112.672
71.2817 12977 113.917
71.3979 13335 115.477
71.5141 14105 118.764
71.6303 14515 120.478
71.7464 13774 117.363
71.8624 0 1
71.9784 0 1
72.0944 0 1
72.2102 0 1
72.3261 0 1
72.4418 0 1
72.5575 0 1
72.6732 0 1
75.1054 0 1
75.2209 0 1
75.3365 0 1
75.4521 0 1
75.5678 0 1
75.6835 0 1
75.7993 0 1
75.9151 0 1
76.031 0 1
76.147 14381 119.921
76.263 14637 120.983
76.3791 13884 117.83
76.4952 13588 116.568
76.6113 13639 116.786
76.7276 13730 117.175
76.8438 14628 120.946
76.9601 15317 123.762
77.0765 15428 124.21
77.1929 15329 123.81
77.3093 15099 122.878
77.4258 14859 121.897
77.5423 14173 119.05
77.6589 12759 112.956
77.7755 11466 107.079
77.8921 10262 101.302
78.0088 9455 97.2368
78.1256 8710 93.3274
78.2423 8668 93.1021
78.3591 9449 97.206
78.4759 10441 102.181
78.5928 11041 105.076
78.7097 11416 106.846
78.8266 11539 107.42
78.9436 12028 109.672
79.0606 11731 108.31
79.1776 11783 108.55
79.2946 11732 108.314
79.4117 11199 105.825
79.5288 11023 104.99
79.6459 10858 104.202
79.7631 10324 101.607
79.8802 9718 98.5799
79.9974 9319 96.535
80.1147 8660 93.0591
80.2319 8618 92.8332
80.3491 8917 94.4299
80.4664 9407 96.9897
80.5837 9666 98.3158
80.701 9877 99.3831
80.8183 9823 99.111
80.9357 9979 99.8949
81.053 9736 98.6712
81.1704 9734 98.661
81.2877 9255 96.2029
81.4051 8323 91.2305
81.5225 7834 88.5099
81.6399 6868 82.8734
81.7573 6468 80.4239
81.8747 6422 80.1374
81.9922 6971 83.4925
82.1096 7918 88.9831
82.227 8266 90.9175
82.3444 8611 92.7955
82.4619 9137 95.5877
82.5793 9465 97.2882
82.6967 8982 94.7734
82.8142 9420 97.0567
82.9316 9525 97.5961
83.049 9617 98.0663
83.1664 9306 96.4676
83.2838 9272 96.2912
83.4012 9031 95.0316
83.5186 8793 93.771
83.636 7965 89.2468
83.7534 7533 86.7929
83.8708 7810 88.3742
83.9881 7972 89.2861
84.1055 8535 92.3851
84.2228 9435 97.1339
84.3401 9541 97.678
84.4575 9862 99.3076
84.5747 9973 99.8649
84.692 9942 99.7096
84.8093 9602 97.9898
84.9265 9040 95.0789
85.0437 8148 90.2663
85.1609 7526 86.7525
85.2781 7268 85.2526
85.3952 6981 83.5524
85.5123 7493 86.5621
85.6294 8531 92.3634
85.7465 9334 96.6126
85.8636 9915 99.5741
85.9806 10505 102.494
86.0976 10893 104.37
86.2145 11429 106.907
86.3315 11799 108.623
86.4484 12088 109.945
86.5652 12314 110.968
86.682 12315 110.973
86.7988 12323 111.009
86.9156 12127 110.123
87.0323 11436 106.939
87.149 11143 105.56
87.2657 10693 103.407
87.3823 10490 102.421
87.4988 10694 103.412
87.6154 11414 106.836
87.7318 12076 109.891
87.8483 12877 113.477
87.9647 12946 113.78
88.081 12989 113.969
88.1973 13026 114.132
88.3136 12843 113.327
88.4298 11829 108.761
88.546 11128 105.489
88.6621 10101 100.504
88.7781 9453 97.2265
88.8942 0 1
89.0101 0 1
89.126 0 1
89.2419 0 1
89.3577 0 1
89.4734 0 1
89.5891 0 1
89.7047 0 1
89.8203 0 1
89.9358 0 1
92.3269 0 1
92.4424 0 1
92.558 0 1
92.6736 0 1
92.7893 0 1
92.905 0 1
93.0208 0 1
93.1366 0 1
93.2525 0 1
93.3685 0 1
93.4845 0 1
93.6005 11852 108.867
93.7167 11680 108.074
93.8328 11237 106.005
93.949 10584 102.879
94.0653 9554 97.7446
94.1816 8768 93.6376
94.2979 8229 90.7138
94.4143 7900 88.8819
94.5307 8367 91.4713
94.6472 9045 95.1052
94.7637 9587 97.9132
94.8803 10116 100.578
94.9969 10547 102.699
95.1135 10878 104.298
95.2302 11221 105.929
95.3469 11309 106.344
95.4637 11580 107.61
95.5805 11764 108.462
95.6973 11731 108.31
95.8142 11718 108.25
95.9311 11637 107.875
96.048 11324 106.414
96.1649 10804 103.942
96.2819 10403 101.995
96.3989 10054 100.27
96.516 9753 98.7573
96.633 9858 99.2875
96.7501 10264 101.311
96.8673 10675 103.32
96.9844 11149 105.589
97.1016 11395 106.747
97.2188 11411 106.822
97.336 11216 105.906
97.4532 10913 104.465
97.5704 10275 101.366
97.6877 9332 96.6023
97.805 8736 93.4666
97.9223 8101 90.0056
98.0396 7615 87.264
98.1569 7872 88.7243
98.2743 8408 91.6951
98.3916 8943 94.5674
98.509 9793 98.9596
98.6264 10266 101.321
98.7438 10555 102.738
98.8612 10810 103.971
98.9786 11192 105.792
99.096 11497 107.224
99.2134 11586 107.638
99.3308 11565 107.541
99.4482 11665 108.005
99.5656 11314 106.367
99.6831 11469 107.093
99.8005 10722 103.547
99.9179 10358 101.774
100.035 10017 100.085
100.153 9827 99.1312
100.27 10359 101.779
100.388 10974 104.757
100.505 11176 105.717
100.622 11344 106.508
100.74 11397 106.757
100.857 11524 107.35
100.975 11094 105.328
101.092 10909 104.446
101.209 10362 101.794
101.327 9497 97.4526
101.444 8798 93.7977
101.561 8051 89.7274
101.679 7958 89.2076
101.796 8011 89.5042
101.913 8873 94.1966
102.03 9690 98.4378
102.148 10179 100.891
102.265 11488 107.182
102.382 10400 101.98
102.499 11632 107.852
102.616 11825 108.743
102.733 12111 110.05
102.851 12283 110.829
102.968 12179 110.359
103.085 12004 109.563
103.202 12049 109.768
103.319 11717 108.245
103.436 11292 106.264
103.552 10578 102.849
103.669 10558 102.752
103.786 10673 103.31
103.903 11222 105.934
104.02 11963 109.375
104.137 12080 109.909
104.253 12637 112.414
104.37 11799 108.623
104.487 12502 111.812
104.603 11767 108.476
104.72 10976 104.766
104.836 10460 102.274
104.953 9347 96.6799
105.069 8827 93.9521
105.186 8699 93.2684
105.302 8872 94.1913
105.418 10099 100.494
105.535 10770 103.779
105.651 11136 105.527
105.767 11541 107.429
105.883 12189 110.404
105.999 12622 112.348
106.115 0 1
106.231 0 1
106.347 0 1
106.463 0 1
106.579 0 1
106.694 0 1
106.81 0 1
106.926 0 1
107.041 0 1
107.157 0 1
109.576 0 1
109.692 0 1
109.807 0 1
109.923 0 1
110.039 0 1
110.155 0 1
110.27 0 1
110.386 0 1
110.502 0 1
110.618 10268 101.331
110.735 11140 105.546
110.851 11617 107.782
110.967 11984 109.471
111.083 12286 110.842
111.199 12206 110.481
111.316 12487 111.745
111.432 12665 112.539
111.549 12721 112.787
111.665 12544 112
111.782 12244 110.653
111.898 11876 108.977
112.015 11451 107.009
112.132 10735 103.61
112.248 10734 103.605
112.365 11124 105.47
112.482 12081 109.914
112.599 11790 108.582
112.716 12117 110.077
112.832 12207 110.485
112.949 12146 110.209
113.066 11913 109.147
113.183 11169 105.683
113.3 10414 102.049
113.417 9617 98.0663
113.534 8812 93.8723
113.652 8398 91.6406
113.769 8127 90.1499
113.886 8475 92.0598
114.003 9168 95.7497
114.12 10066 100.329
114.238 10548 102.703
114.355 10769 103.774
114.472 12187 110.395
114.589 11078 105.252
114.707 11582 107.62
114.824 11912 109.142
114.942 11886 109.023
115.059 12095 109.977
115.176 12244 110.653
115.294 12134 110.154
115.411 11926 109.206
115.529 11316 106.377
115.646 10695 103.417
115.764 10558 102.752
115.881 10902 104.413
115.999 11576 107.592
116.116 11804 108.646
116.234 12258 110.716
116.351 12340 111.086
116.469 12254 110.698
116.586 12189 110.404
116.704 11788 108.573
116.821 11181 105.74
116.939 10170 100.846
117.056 9675 98.3616
117.174 9113 95.462
117.291 8537 92.3959
117.409 8513 92.2659
117.526 8972 94.7206
117.644 9856 99.2774
117.761 10453 102.24
117.879 10948 104.633
117.996 11104 105.376
118.114 11761 108.448
118.231 11746 108.379
118.349 11844 108.83
118.466 11963 109.375
118.584 12283 110.829
118.701 12167 110.304
118.819 12341 111.09
118.936 11917 109.165
119.053 11703 108.18
119.171 11514 107.303
119.288 10949 104.637
119.405 10897 104.389
119.523 11093 105.323
119.64 11571 107.569
119.757 12077 109.895
119.875 12043 109.741
119.992 12173 110.331
120.109 12141 110.186
120.226 11968 109.398
120.343 11958 109.353
120.46 11478 107.135
120.578 10623 103.068
120.695 9925 99.6243
120.812 9285 96.3587
120.929 8888 94.2762
121.046 8569 92.5689
121.163 8878 94.2231
121.279 9533 97.6371
121.396 9900 99.4987
121.513 10666 103.276
121.63 11084 105.281
121.747 11522 107.341
121.863 11813 108.688
121.98 11869 108.945
122.097 12315 110.973
122.213 12310 110.95
122.33 12393 111.324
122.446 12209 110.494
122.563 12186 110.39
122.679 12017 109.622
122.795 11731 108.31
122.912 11445 106.981
123.028 10918 104.489
123.144 11044 105.09
123.26 11072 105.224
123.377 0 1
123.493 0 1
123.609 0 1
123.725 0 1
123.84 0 1
123.956 0 1
124.072 0 1
124.188 0 1
124.303 0 1
124.419 0 1
126.852 0 1
126.968 0 1
127.083 0 1
127.199 0 1
127.315 0 1
127.431 0 1
127.547 0 1
127.663 0 1
127.779 0 1
127.895 0 1
128.011 0 1
128.127 0 1
128.243 0 1
128.359 12780 113.049
128.476 13282 115.248
128.592 13969 118.191
128.708 14415 120.062
128.825 14735 121.388
128.941 14790 121.614
129.058 14998 122.466
129.174 14607 120.859
129.291 14144 118.929
129.408 13600 116.619
129.524 13029 114.145
129.641 12045 109.75
129.758 11403 106.785
129.875 10992 104.843
129.992 10777 103.812
130.108 11093 105.323
130.225 11661 107.986
130.342 12039 109.722
130.459 12499 111.799
130.576 13111 114.503
130.693 13583 116.546
130.81 13620 116.705
130.928 13812 117.524
131.045 14133 118.882
131.162 14349 119.787
131.279 14534 120.557
131.396 14505 120.437
131.513 14318 119.658
131.631 13787 117.418
131.748 13621 116.709
131.865 13559 116.443
131.983 13629 116.743
132.1 14032 118.457
132.217 14108 118.777
132.335 14706 121.268
132.452 14796 121.639
132.57 14650 121.037
132.687 14372 119.883
132.804 14729 121.363
132.922 13779 117.384
133.039 12928 113.701
133.157 12421 111.45
133.274 11613 107.764
133.392 11214 105.896
133.509 10505 102.494
133.627 10941 104.599
133.744 11294 106.273
133.862 11775 108.513
133.979 12200 110.454
134.097 12552 112.036
134.214 13016 114.088
134.332 13198 114.883
134.449 13784 117.405
134.567 13787 117.418
134.684 14245 119.352
134.802 14224 119.264
134.919 14136 118.895
135.037 13867 117.758
135.154 13677 116.949
135.272 13580 116.533
135.389 13192 114.856
135.507 13327 115.443
135.624 13324 115.43
135.742 13953 118.123
135.859 14105 118.764
135.977 14545 120.603
136.094 14340 119.75
136.211 14406 120.025
136.329 14336 119.733
136.446 14143 118.924
136.564 13446 115.957
136.681 12905 113.6
136.798 12239 110.63
136.915 11596 107.685
137.033 10994 104.852
137.15 10806 103.952
137.267 10826 104.048
137.384 11249 106.061
137.502 11761 108.448
137.619 12078 109.9
137.736 12343 111.099
137.853 12631 112.388
137.97 13141 114.634
138.087 13010 114.061
138.204 13667 116.906
138.321 14043 118.503
138.438 14107 118.773
138.555 14288 119.532
138.672 14199 119.16
138.788 13680 116.962
138.905 13799 117.469
139.022 13714 117.107
139.139 13296 115.308
139.255 13883 117.826
139.372 13966 118.178
139.488 14532 120.549
139.605 14683 121.173
139.721 14692 121.211
139.838 14862 121.91
139.954 14824 121.754
140.071 14166 119.021
140.187 14033 118.461
140.303 13199 114.887
140.419 12494 111.777
140.535 12178 110.354
140.652 11564 107.536
140.768 0 1
140.884 0 1
141 0 1
141.115 0 1
141.231 0 1
141.347 0 1
141.463 0 1
141.578 0 1
141.694 0 1
144.104 0 1
144.219 0 1
144.335 0 1
144.45 0 1
144.566 0 1
144.682 0 1
144.798 0 1
144.914 0 1
145.03 0 1
145.146 13105 114.477
145.262 12852 113.367
145.378 12457 111.611
145.494 12092 109.964
145.61 11729 108.301
145.726 11031 105.029
145.842 10930 104.547
145.959 11269 106.156
146.075 11466 107.079
146.192 12049 109.768
146.308 12358 111.167
146.425 12585 112.183
146.541 12693 112.663
146.658 12993 113.987
146.774 13110 114.499
146.891 13379 115.668
147.008 13700 117.047
147.125 13862 117.737
147.241 13984 118.254
147.358 13718 117.124
147.475 13528 116.31
147.592 12983 113.943
147.709 12596 112.232
147.826 13144 114.647
147.943 13400 115.758
148.06 13772 117.354
148.177 13754 117.277
148.294 14035 118.469
148.411 13873 117.784
148.528 13924 118
148.645 13791 117.435
148.762 13615 116.683
148.88 13110 114.499
148.997 12261 110.729
149.114 12216 110.526
149.231 11410 106.818
149.349 11295 106.278
149.466 10524 102.587
149.583 10656 103.228
149.701 10839 104.111
149.818 11059 105.162
149.935 11314 106.367
150.053 11572 107.573
150.17 11891 109.046
150.287 11964 109.38
150.405 12432 111.499
150.522 12463 111.638
150.64 12865 113.424
150.757 13022 114.114
150.875 12951 113.802
150.992 12737 112.858
151.11 12579 112.156
151.227 12519 111.888
151.344 12228 110.58
151.462 11974 109.426
151.579 12641 112.432
151.697 13025 114.127
151.814 13352 115.551
151.932 13466 116.043
152.049 13314 115.386
152.167 13276 115.222
152.284 13241 115.07
152.402 12945 113.776
152.519 12324 111.014
152.636 12122 110.1
152.754 11700 108.167
152.871 11407 106.804
152.989 10836 104.096
153.106 10375 101.858
153.223 10333 101.651
153.341 10958 104.68
153.458 10958 104.68
153.575 11179 105.731
153.693 11462 107.061
153.81 11645 107.912
153.927 12129 110.132
154.044 12451 111.584
154.162 12583 112.174
154.279 13026 114.132
154.396 13096 114.438
154.513 13264 115.169
154.63 13113 114.512
154.747 12851 113.362
154.864 12811 113.186
154.981 12546 112.009
155.098 12733 112.841
155.215 12783 113.062
155.332 13133 114.599
155.449 13307 115.356
155.566 13527 116.306
155.683 13527 116.306
155.8 13431 115.892
155.917 13466 116.043
156.033 13372 115.637
156.15 0 1
156.267 0 1
156.383 0 1
156.5 0 1
156.617 0 1
156.733 0 1
156.85 0 1
156.966 0 1
157.082 0 1
157.199 0 1
157.315 0 1
157.431 0 1
157.547 0 1
157.664 0 1
157.78 0 1
157.896 0 1
158.012 0 1
158.128 0 1
158.244 0 1
158.359 0 1
158.475 0 1
158.591 0 1
158.706 0 1
