
6.15755 0 1
6.2731 0 1
6.3887 0 1
6.50437 0 1
6.62009 0 1
6.73587 0 1
6.8517 0 1
6.96759 0 1
7.08353 0 1
7.19952 0 1
7.31557 0 1
7.43166 0 1
7.54781 0 1
7.664 0 1
7.78024 0 1
7.89653 0 1
8.01286 0 1
8.12924 0 1
8.24567 0 1
8.36213 0 1
8.47864 0 1
8.59519 0 1
8.71178 0 1
8.82841 0 1
8.94508 0 1
9.06179 0 1
9.17853 0 1
9.29531 0 1
9.41212 0 1
9.52897 0 1
9.64584 0 1
9.76276 0 1
9.8797 0 1
9.99667 0 1
10.1137 0 1
10.2307 0 1
10.3478 0 1
10.4648 0 1
10.5819 0 1
10.6991 0 1
10.8162 0 1
10.9334 0 1
11.0506 0 1
11.1678 0 1
11.285 0 1
11.4023 0 1
11.5196 0 1
11.6369 0 1
11.7542 0 1
11.8715 0 1
11.9888 0 1
12.1062 0 1
12.2235 0 1
12.3409 0 1
12.4582 0 1
12.5756 0 1
12.693 0 1
12.8104 0 1
12.9278 0 1
13.0452 0 1
13.1626 0 1
13.28 0 1
13.3974 0 1
13.5149 0 1
13.6323 0 1
13.7497 0 1
13.8671 0 1
13.9845 0 1
14.1019 0 1
14.2193 0 1
14.3367 0 1
14.4541 0 1
14.5714 0 1
14.6888 0 1
14.8062 0 1
14.9235 0 1
15.0408 7926 89.0281
15.1581 8491 92.1466
15.2755 8825 93.9415
15.3927 8914 94.414
15.51 8995 94.842
15.6273 8583 92.6445
15.7445 8635 92.9247
15.8617 8585 92.6553
15.9789 8457 91.9619
16.0961 8261 90.89
16.2132 7995 89.4148
16.3304 8125 90.1388
16.4475 7739 87.9716
16.5646 7593 87.1378
16.6816 7513 86.6776
16.7986 7477 86.4696
16.9156 7193 84.8116
17.0326 7007 83.7078
17.1496 6975 83.5165
17.2665 6957 83.4086
17.3833 6883 82.9638
17.5002 6985 83.5763
17.617 6970 83.4865
17.7338 7039 83.8987
17.8505 7289 85.3756
17.9672 7546 86.8677
18.0839 7798 88.3063
18.2005 7875 88.7412
18.3171 7727 87.9034
18.4337 8039 89.6605
18.5502 7925 89.0225
18.6666 8039 89.6605
18.7831 8407 91.6897
18.8994 8348 91.3674
19.0158 7857 88.6397
19.1321 7654 87.4871
19.2483 7338 85.6621
19.3645 7033 83.863
19.4806 6731 82.0427
19.5967 6299 79.3662
19.7128 5892 76.7594
19.8288 5508 74.2159
19.9447 4981 70.5762
20.0606 0 1
20.1764 0 1
20.2922 0 1
20.4079 0 1
20.5236 0 1
20.6392 0 1
20.7548 0 1
20.8702 0 1
23.3078 0 1
23.4233 0 1
23.539 0 1
23.6547 0 1
23.7704 0 1
23.8862 0 1
24.0021 0 1
24.118 0 1
24.234 0 1
24.35 0 1
24.4661 3474 58.9406
24.5822 4008 63.3088
24.6984 4309 65.643
24.8146 4869 69.7782
24.9309 5587 74.7462
25.0472 6211 78.8099
25.1636 6667 81.6517
25.28 7046 83.9405
25.3965 7450 86.3134
25.513 7614 87.2582
25.6296 8173 90.4046
25.7462 8020 89.5545
25.8628 8041 89.6716
25.9795 8381 91.5478
26.0962 8223 90.6808
26.213 7957 89.202
26.3298 8069 89.8276
26.4466 8171 90.3936
26.5635 8225 90.6918
26.6804 8340 91.3236
26.7973 8344 91.3455
26.9143 8348 91.3674
27.0313 8458 91.9674
27.1483 8266 90.9175
27.2653 8395 91.6242
27.3824 8671 93.1182
27.4996 8737 93.4719
27.6167 8666 93.0914
27.7339 8486 92.1195
27.8511 8388 91.586
27.9683 8115 90.0833
28.0855 8101 90.0056
28.2028 8107 90.0389
28.3201 8074 89.8554
28.4374 7986 89.3644
28.5547 8017 89.5377
28.6721 8246 90.8075
28.7894 8328 91.2579
28.9068 8339 91.3181
29.0242 8352 91.3893
29.1416 8199 90.5483
29.259 8146 90.2552
29.3764 8008 89.4874
29.4939 7817 88.4138
29.6113 7771 88.1533
29.7288 7961 89.2244
29.8463 8126 90.1443
29.9638 7983 89.3476
30.0812 8244 90.7965
30.1987 8287 91.033
30.3162 8410 91.7061
30.4337 8273 90.956
30.5512 8082 89.8999
30.6687 8372 91.4986
30.7862 8418 91.7497
30.9037 8585 92.6553
31.0212 8838 94.0106
31.1387 8897 94.3239
31.2562 8831 93.9734
31.3737 8646 92.9839
31.4912 8519 92.2984
31.6087 8526 92.3363
31.7262 8389 91.5915
31.8436 8490 92.1412
31.9611 8363 91.4494
32.0785 8419 91.7551
32.1959 8373 91.5041
32.3134 8381 91.5478
32.4308 8664 93.0806
32.5482 8512 92.2605
32.6655 8508 92.2388
32.7829 8426 91.7932
32.9002 8107 90.0389
33.0176 8125 90.1388
33.1349 8133 90.1831
33.2522 8052 89.7329
33.3694 8028 89.5991
33.4867 8094 89.9667
33.6039 8146 90.2552
33.7211 8422 91.7715
33.8383 8648 92.9946
33.9554 8513 92.2659
34.0725 8503 92.2117
34.1896 8414 91.7279
34.3067 8413 91.7224
34.4237 8651 93.0108
34.5407 8995 94.842
34.6577 8977 94.747
34.7746 9032 95.0368
34.8915 8866 94.1594
35.0084 8854 94.0957
35.1252 8815 93.8882
35.242 8738 93.4773
35.3587 8613 92.8062
35.4755 8439 91.864
35.5921 8477 92.0706
35.7088 8391 91.6024
35.8254 8315 91.1866
35.9419 8278 90.9835
36.0584 8485 92.1141
36.1749 8226 90.6973
36.2913 8248 90.8185
36.4077 7901 88.8876
36.524 7395 85.9942
36.6403 6811 82.5288
36.7565 6405 80.0312
36.8727 5886 76.7203
36.9889 5461 73.8986
37.1049 5058 71.1196
37.221 0 1
37.3369 0 1
37.4529 0 1
37.5687 0 1
37.6845 0 1
37.8003 0 1
37.916 0 1
38.0316 0 1
38.1472 0 1
40.5851 0 1
40.7008 0 1
40.8164 0 1
40.9322 0 1
41.048 0 1
41.1639 0 1
41.2798 0 1
41.3958 0 1
41.5118 0 1
41.6279 0 1
41.744 4416 66.453
41.8602 5266 72.5672
41.9765 6018 77.5758
42.0928 6784 82.365
42.2091 7384 85.9302
42.3255 7816 88.4081
42.4419 8402 91.6624
42.5584 8689 93.2148
42.675 8893 94.3027
42.7915 9194 95.8853
42.9081 9093 95.3572
43.0248 9227 96.0573
43.1415 9405 96.9794
43.2582 9880 99.3982
43.375 10658 103.238
43.4918 10922 104.508
43.6087 11427 106.897
43.7256 11557 107.503
43.8425 11713 108.227
43.9595 11797 108.614
44.0765 11899 109.083
44.1935 12213 110.512
44.3106 12362 111.185
44.4277 12402 111.364
44.5448 12415 111.423
44.6619 12323 111.009
44.7791 12381 111.27
44.8963 12296 110.887
45.0136 12379 111.261
45.1308 12667 112.548
45.2481 12447 111.566
45.3654 12487 111.745
45.4827 11951 109.321
45.6001 11711 108.217
45.7174 11921 109.183
45.8348 11704 108.185
45.9522 11126 105.48
46.0697 11260 106.113
46.1871 10963 104.704
46.3046 10613 103.019
46.422 10066 100.329
46.5395 9902 99.5088
46.657 10249 101.237
46.7745 10439 102.171
46.892 10621 103.058
47.0096 10897 104.389
47.1271 11078 105.252
47.2446 11237 106.005
47.3622 10770 103.779
47.4797 10699 103.436
47.5973 10428 102.118
47.7149 10356 101.764
47.8324 10072 100.359
47.95 9965 99.8248
48.0675 9950 99.7497
48.1851 9509 97.5141
48.3027 9430 97.1082
48.4202 9456 97.242
48.5378 9358 96.7368
48.6554 9300 96.4365
48.7729 9092 95.352
48.8904 9319 96.535
49.008 8934 94.5198
49.1255 9180 95.8123
49.243 8958 94.6467
49.3605 8917 94.4299
49.478 9094 95.3625
49.5955 8669 93.1075
49.713 8750 93.5414
49.8304 8699 93.2684
49.9479 8479 92.0815
50.0653 8564 92.5419
50.1827 8875 94.2072
50.3001 9245 96.1509
50.4175 9589 97.9234
50.5348 9871 99.3529
50.6521 10183 100.911
50.7694 10182 100.906
50.8867 10234 101.163
51.004 10399 101.975
51.1212 10378 101.872
51.2384 10304 101.509
51.3556 10213 101.059
51.4727 10060 100.3
51.5899 9830 99.1464
51.707 9967 99.8349
51.824 9902 99.5088
51.9411 9582 97.8877
52.0581 9805 99.0202
52.175 9449 97.206
52.2919 9071 95.2418
52.4088 9307 96.4728
52.5257 9359 96.7419
52.6425 9034 95.0474
52.7593 8857 94.1116
52.876 8961 94.6626
52.9927 9008 94.9105
53.1094 8897 94.3239
53.226 8643 92.9677
53.3426 8429 91.8096
53.4591 7963 89.2356
53.5756 7712 87.818
53.692 7407 86.0639
53.8084 7281 85.3288
53.9248 6915 83.1565
54.0411 6476 80.4736
54.1573 5848 76.4722
54.2735 0 1
54.3896 0 1
54.5057 0 1
54.6217 0 1
54.7377 0 1
54.8537 0 1
54.9695 0 1
55.0853 0 1
55.2011 0 1
55.3168 0 1
55.4324 0 1
57.824 0 1
57.9396 0 1
58.0553 0 1
58.1711 0 1
58.2869 0 1
58.4028 0 1
58.5187 0 1
58.6347 0 1
58.7508 0 1
58.8669 0 1
58.983 7901 88.8876
59.0992 9099 95.3887
59.2155 9963 99.8148
59.3318 11067 105.2
59.4482 12015 109.613
59.5646 12752 112.925
59.681 13333 115.469
59.7975 13372 115.637
59.9141 13557 116.435
60.0306 13541 116.366
60.1473 13031 114.153
60.2639 13410 115.802
60.3807 13040 114.193
60.4974 13206 114.917
60.6142 13192 114.856
60.731 13035 114.171
60.8479 12789 113.088
60.9648 12478 111.705
61.0818 12676 112.588
61.1987 12830 113.27
61.3158 12946 113.78
61.4328 12632 112.392
61.5499 12745 112.894
61.667 12708 112.73
61.7841 12703 112.708
61.9013 12705 112.716
62.0185 12361 111.18
62.1357 12575 112.138
62.253 12728 112.818
62.3702 13079 114.363
62.4875 13696 117.03
62.6049 14088 118.693
62.7222 14781 121.577
62.8396 15009 122.511
62.9569 15541 124.664
63.0743 15819 125.774
63.1918 15638 125.052
63.3092 15391 124.06
63.4267 15190 123.248
63.5441 14704 121.26
63.6616 14254 119.39
63.7791 14250 119.373
63.8966 13970 118.195
64.0142 13744 117.235
64.1317 13721 117.137
64.2492 13492 116.155
64.3668 12924 113.684
64.4843 13023 114.118
64.6019 13045 114.215
64.7195 12907 113.609
64.837 13156 114.7
64.9546 13018 114.096
65.0722 13068 114.315
65.1898 13147 114.66
65.3074 13191 114.852
65.4249 12819 113.221
65.5425 12642 112.437
65.6601 12574 112.134
65.7777 12762 112.969
65.8952 13159 114.713
66.0128 13693 117.017
66.1304 14285 119.52
66.2479 14492 120.383
66.3655 15272 123.58
66.483 15725 125.399
66.6005 16255 127.495
66.718 16115 126.945
66.8355 15874 125.992
66.953 15935 126.234
67.0705 15396 124.081
67.1879 14868 121.934
67.3054 14635 120.975
67.4228 14101 118.748
67.5402 14020 118.406
67.6576 13782 117.397
67.7749 13780 117.388
67.8923 13471 116.065
68.0096 13194 114.865
68.1269 13121 114.547
68.2442 13279 115.235
68.3614 13398 115.75
68.4787 13678 116.953
68.5958 13609 116.658
68.713 13182 114.813
68.8302 13326 115.438
68.9473 13001 114.022
69.0643 12766 112.987
69.1814 12342 111.095
69.2984 12222 110.553
69.4154 11945 109.293
69.5323 12524 111.911
69.6492 13286 115.265
69.7661 13679 116.957
69.8829 13981 118.241
69.9997 13920 117.983
70.1165 14212 119.214
70.2332 13928 118.017
70.3499 13429 115.884
70.4665 12680 112.606
70.5831 11992 109.508
70.6996 10928 104.537
70.8161 9881 99.4032
70.9326 9044 95.0999
71.049 8141 90.2275
71.1653 7664 87.5443
71.2817 7288 85.3698
71.3979 6719 81.9695
71.5141 6509 80.6784
71.6303 5909 76.87
71.7464 5177 71.9514
71.8624 0 1
71.9784 0 1
72.0944 0 1
72.2102 0 1
72.3261 0 1
72.4418 0 1
72.5575 0 1
72.6732 0 1
75.1054 0 1
75.2209 0 1
75.3365 0 1
75.4521 0 1
75.5678 0 1
75.6835 0 1
75.7993 0 1
75.9151 0 1
76.031 0 1
76.147 10962 104.7
76.263 11699 108.162
76.3791 11900 109.087
76.4952 11811 108.678
76.6113 12070 109.864
76.7276 12122 110.1
76.8438 12340 111.086
76.9601 12408 111.391
77.0765 12224 110.562
77.1929 12618 112.33
77.3093 13273 115.209
77.4258 13686 116.987
77.5423 13552 116.413
77.6589 13459 116.013
77.7755 13573 116.503
77.8921 13194 114.865
78.0088 12714 112.756
78.1256 12177 110.349
78.2423 11873 108.963
78.3591 11983 109.467
78.4759 12278 110.806
78.5928 13347 115.529
78.7097 13963 118.165
78.8266 14875 121.963
78.9436 15322 123.782
79.0606 15498 124.491
79.1776 16005 126.511
79.2946 16579 128.759
79.4117 16951 130.196
79.5288 16751 129.426
79.6459 16565 128.705
79.7631 16038 126.641
79.8802 15320 123.774
79.9974 15055 122.699
80.1147 14520 120.499
80.2319 14631 120.959
80.3491 14590 120.789
80.4664 14824 121.754
80.5837 14611 120.876
80.701 14453 120.221
80.8183 14369 119.871
80.9357 14677 121.149
81.053 14986 122.417
81.1704 15285 123.633
81.2877 15178 123.199
81.4051 15241 123.454
81.5225 14757 121.478
81.6399 14910 122.107
81.7573 13895 117.877
81.8747 13272 115.204
81.9922 13075 114.346
82.1096 13158 114.708
82.227 14496 120.399
82.3444 15632 125.028
82.4619 16645 129.016
82.5793 17140 130.92
82.6967 17139 130.916
82.8142 17409 131.943
82.9316 18486 135.963
83.049 18484 135.956
83.1664 18501 136.018
83.2838 18269 135.163
83.4012 17588 132.62
83.5186 16707 129.256
83.636 16368 127.937
83.7534 15912 126.143
83.8708 16166 127.146
83.9881 16299 127.668
84.1055 16254 127.491
84.2228 16460 128.297
84.3401 16264 127.53
84.4575 16122 126.972
84.5747 16714 129.283
84.692 17096 130.752
84.8093 17426 132.008
84.9265 17056 130.599
85.0437 16827 129.719
85.1609 16239 127.432
85.2781 15327 123.802
85.3952 14589 120.785
85.5123 14236 119.315
85.6294 14248 119.365
85.7465 15132 123.012
85.8636 16398 128.055
85.9806 17029 130.495
86.0976 17917 133.854
86.2145 18578 136.301
86.3315 18562 136.242
86.4484 19099 138.199
86.5652 19205 138.582
86.682 19533 139.761
86.7988 19360 139.14
86.9156 19113 138.25
87.0323 18282 135.211
87.149 17912 133.836
87.2657 17500 132.288
87.3823 17083 130.702
87.4988 16202 127.287
87.6154 15736 125.443
87.7318 14827 121.766
87.8483 14202 119.172
87.9647 13241 115.07
88.081 12489 111.754
88.1973 11976 109.435
88.3136 11324 106.414
88.4298 10435 102.152
88.546 9548 97.7139
88.6621 8776 93.6803
88.7781 7867 88.6961
88.8942 0 1
89.0101 0 1
89.126 0 1
89.2419 0 1
89.3577 0 1
89.4734 0 1
89.5891 0 1
89.7047 0 1
89.8203 0 1
89.9358 0 1
92.3269 0 1
92.4424 0 1
92.558 0 1
92.6736 0 1
92.7893 0 1
92.905 0 1
93.0208 0 1
93.1366 0 1
93.2525 0 1
93.3685 0 1
93.4845 0 1
93.6005 15475 124.399
93.7167 16911 130.042
93.8328 18381 135.577
93.949 19407 139.309
94.0653 20093 141.75
94.1816 20081 141.707
94.2979 19855 140.908
94.4143 19104 138.217
94.5307 18251 135.096
94.6472 17385 131.852
94.7637 17145 130.939
94.8803 17546 132.461
94.9969 18593 136.356
95.1135 19896 141.053
95.2302 20582 143.464
95.3469 21837 147.773
95.4637 22478 149.927
95.5805 22580 150.266
95.6973 23099 151.984
95.8142 23677 153.873
95.9311 23319 152.706
96.048 23460 153.167
96.1649 23338 152.768
96.2819 22725 150.748
96.3989 22109 148.691
96.516 21551 146.803
96.633 21869 147.882
96.7501 21339 146.079
96.8673 21570 146.867
96.9844 21593 146.946
97.1016 21422 146.363
97.2188 21345 146.099
97.336 21911 148.024
97.4532 22400 149.666
97.5704 22874 151.242
97.6877 23128 152.079
97.805 23062 151.862
97.9223 22587 150.29
98.0396 21155 145.448
98.1569 20019 141.489
98.2743 18948 137.652
98.3916 18135 134.666
98.509 18378 135.565
98.6264 19329 139.029
98.7438 20637 143.656
98.8612 22180 148.93
98.9786 23283 152.588
99.096 24072 155.152
99.2134 24418 156.263
99.3308 25050 158.272
99.4482 25631 160.097
99.5656 25789 160.59
99.6831 25515 159.734
99.8005 25011 158.149
99.9179 24633 156.949
100.035 23696 153.935
100.153 23471 153.202
100.27 22961 151.529
100.388 23204 152.329
100.505 23119 152.049
100.622 22510 150.033
100.74 22312 149.372
100.857 22505 150.017
100.975 22778 150.924
101.092 23552 153.467
101.209 23924 154.674
101.327 23909 154.625
101.444 23841 154.405
101.561 22847 151.152
101.679 21946 148.142
101.796 20266 142.359
101.913 19392 139.255
102.03 19081 138.134
102.148 20139 141.912
102.265 20956 144.762
102.382 22994 151.638
102.499 24114 155.287
102.616 25083 158.376
102.733 25227 158.83
102.851 25795 160.608
102.968 26184 161.815
103.085 26709 163.429
103.202 26387 162.441
103.319 26294 162.154
103.436 24645 156.987
103.552 24366 156.096
103.669 23659 153.815
103.786 23927 154.684
103.903 23129 152.082
104.02 23338 152.768
104.137 22914 151.374
104.253 22068 148.553
104.37 23145 152.135
104.487 22913 151.37
104.603 23254 152.493
104.72 23130 152.086
104.836 22191 148.966
104.953 20986 144.865
105.069 18917 137.539
105.186 17133 130.893
105.302 15848 125.889
105.418 14154 118.971
105.535 12569 112.112
105.651 11609 107.745
105.767 11510 107.285
105.883 11057 105.152
105.999 10799 103.918
106.115 0 1
106.231 0 1
106.347 0 1
106.463 0 1
106.579 0 1
106.694 0 1
106.81 0 1
106.926 0 1
107.041 0 1
107.157 0 1
109.576 0 1
109.692 0 1
109.807 0 1
109.923 0 1
110.039 0 1
110.155 0 1
110.27 0 1
110.386 0 1
110.502 0 1
110.618 10520 102.567
110.735 12842 113.323
110.851 15111 122.927
110.967 17534 132.416
111.083 19282 138.86
111.199 21048 145.079
111.316 21535 146.748
111.432 22270 149.231
111.549 22666 150.552
111.665 23049 151.819
111.782 22765 150.881
111.898 22863 151.205
112.015 22550 150.167
112.132 21962 148.196
112.248 21528 146.724
112.365 21492 146.602
112.482 20579 143.454
112.599 21279 145.873
112.716 21031 145.021
112.832 20848 144.388
112.949 20635 143.649
113.066 20832 144.333
113.183 21243 145.75
113.3 21762 147.519
113.417 21859 147.848
113.534 21331 146.051
113.652 20800 144.222
113.769 19999 141.418
113.886 18879 137.401
114.003 17650 132.853
114.12 17217 131.214
114.238 17422 131.992
114.355 18647 136.554
114.472 19004 137.855
114.589 22149 148.825
114.707 22748 150.824
114.824 23210 152.348
114.942 23703 153.958
115.059 23463 153.176
115.176 23700 153.948
115.294 23602 153.629
115.411 23380 152.905
115.529 22985 151.608
115.646 22456 149.853
115.764 21708 147.336
115.881 21376 146.205
115.999 20784 144.167
116.116 20521 143.252
116.234 20088 141.732
116.351 20075 141.686
116.469 19908 141.096
116.586 19739 140.496
116.704 20266 142.359
116.821 20807 144.246
116.939 20954 144.755
117.056 20865 144.447
117.174 20500 143.178
117.291 19753 140.545
117.409 18964 137.71
117.526 17879 133.712
117.644 17046 130.56
117.761 16812 129.661
117.879 17338 131.674
117.996 18466 135.89
118.114 19684 140.3
118.231 21519 146.694
118.349 21649 147.136
118.466 22018 148.385
118.584 22135 148.778
118.701 22353 149.509
118.819 22052 148.499
118.936 21947 148.145
119.053 21647 147.129
119.171 21111 145.296
119.288 20658 143.729
119.405 19962 141.287
119.523 19718 140.421
119.64 19115 138.257
119.757 18867 137.357
119.875 18766 136.989
119.992 18225 135
120.109 18444 135.809
120.226 18140 134.685
120.343 18291 135.244
120.46 18713 136.795
120.578 19400 139.284
120.695 19066 138.08
120.812 18372 135.543
120.929 17791 133.383
121.046 16829 129.727
121.163 15869 125.972
121.279 14975 122.372
121.396 14209 119.202
121.513 14142 118.92
121.63 14502 120.424
121.747 15104 122.898
121.863 15622 124.988
121.98 16391 128.027
122.097 15868 125.968
122.213 15253 123.503
122.33 14757 121.478
122.446 13548 116.396
122.563 12528 111.929
122.679 12323 111.009
122.795 11792 108.591
122.912 10734 103.605
123.028 10014 100.07
123.144 9297 96.421
123.26 8729 93.4291
123.377 0 1
123.493 0 1
123.609 0 1
123.725 0 1
123.84 0 1
123.956 0 1
124.072 0 1
124.188 0 1
124.303 0 1
124.419 0 1
126.852 0 1
126.968 0 1
127.083 0 1
127.199 0 1
127.315 0 1
127.431 0 1
127.547 0 1
127.663 0 1
127.779 0 1
127.895 0 1
128.011 0 1
128.127 0 1
128.243 0 1
128.359 19028 137.942
128.476 19103 138.214
128.592 19187 138.517
128.708 19020 137.913
128.825 18452 135.838
128.941 18414 135.698
129.058 18448 135.823
129.174 18148 134.715
129.291 18372 135.543
129.408 18602 136.389
129.524 18650 136.565
129.641 18907 137.503
129.758 18896 137.463
129.875 18468 135.897
129.992 18307 135.303
130.108 17801 133.42
130.225 16685 129.17
130.342 15983 126.424
130.459 15430 124.218
130.576 15620 124.98
130.693 16039 126.645
130.81 17187 131.099
130.928 18268 135.159
131.045 19379 139.208
131.162 19565 139.875
131.279 19852 140.897
131.396 20128 141.873
131.513 19914 141.117
131.631 19806 140.734
131.748 19605 140.018
131.865 19653 140.189
131.983 19276 138.838
132.1 19273 138.827
132.217 18846 137.281
132.335 18522 136.096
132.452 18148 134.715
132.57 18075 134.443
132.687 18397 135.636
132.804 18078 134.454
132.922 18088 134.492
133.039 18482 135.949
133.157 18618 136.448
133.274 18543 136.173
133.392 18659 136.598
133.509 18571 136.275
133.627 18316 135.337
133.744 17867 133.667
133.862 17094 130.744
133.979 16161 127.126
134.097 15919 126.171
134.214 16215 127.338
134.332 17141 130.924
134.449 18615 136.437
134.567 19834 140.833
134.684 20504 143.192
134.802 20715 143.927
134.919 20826 144.312
135.037 20654 143.715
135.154 20551 143.356
135.272 20686 143.826
135.389 20817 144.281
135.507 20971 144.814
135.624 20732 143.986
135.742 20735 143.997
135.859 20552 143.36
135.977 20631 143.635
136.094 20606 143.548
136.211 19857 140.915
136.329 20608 143.555
136.446 20229 142.229
136.564 20288 142.436
136.681 20427 142.923
136.798 20386 142.78
136.915 20579 143.454
137.033 20607 143.551
137.15 20266 142.359
137.267 19776 140.627
137.384 19235 138.69
137.502 18229 135.015
137.619 17415 131.966
137.736 17198 131.141
137.853 16378 127.977
137.97 17711 133.083
138.087 18770 137.004
138.204 19964 141.294
138.321 20461 143.042
138.438 20751 144.052
138.555 20844 144.375
138.672 20196 142.113
138.788 20004 141.435
138.905 19085 138.148
139.022 18184 134.848
139.139 17588 132.62
139.255 16899 129.996
139.372 16287 127.621
139.488 15270 123.572
139.605 14170 119.038
139.721 13121 114.547
139.838 12467 111.656
139.954 11969 109.403
140.071 11485 107.168
140.187 10762 103.74
140.303 10015 100.075
140.419 9576 97.857
140.535 9278 96.3224
140.652 8758 93.5842
140.768 0 1
140.884 0 1
141 0 1
141.115 0 1
141.231 0 1
141.347 0 1
141.463 0 1
141.578 0 1
141.694 0 1
144.104 0 1
144.219 0 1
144.335 0 1
144.45 0 1
144.566 0 1
144.682 0 1
144.798 0 1
144.914 0 1
145.03 0 1
145.146 14814 121.713
145.262 15195 123.268
145.378 15325 123.794
145.494 15585 124.84
145.61 15630 125.02
145.726 15726 125.403
145.842 15678 125.212
145.959 15754 125.515
146.075 15181 123.211
146.192 14975 122.372
146.308 14528 120.532
146.425 13881 117.818
146.541 13520 116.276
146.658 13470 116.06
146.774 13870 117.771
146.891 14469 120.287
147.008 15346 123.879
147.125 15810 125.738
147.241 16134 127.02
147.358 16331 127.793
147.475 16181 127.205
147.592 16192 127.248
147.709 15914 126.151
147.826 16018 126.562
147.943 15922 126.182
148.06 16153 127.094
148.177 16104 126.902
148.294 16138 127.035
148.411 16256 127.499
148.528 16319 127.746
148.645 15985 126.432
148.762 16021 126.574
148.88 15763 125.551
148.997 15743 125.471
149.114 15273 123.584
149.231 15602 124.908
149.349 15508 124.531
149.466 15462 124.346
149.583 15483 124.431
149.701 15487 124.447
149.818 15247 123.479
149.935 14937 122.217
150.053 14456 120.233
150.17 14006 118.347
150.287 13610 116.662
150.405 13650 116.833
150.522 14432 120.133
150.64 14866 121.926
150.757 15891 126.06
150.875 15938 126.246
150.992 15924 126.19
151.11 16226 127.381
151.227 15671 125.184
151.344 15622 124.988
151.462 15560 124.74
151.579 16008 126.523
151.697 16166 127.146
151.814 15980 126.412
151.932 16067 126.756
152.049 15915 126.155
152.167 16050 126.689
152.284 15372 123.984
152.402 15555 124.72
152.519 15646 125.084
152.636 15082 122.809
152.754 14786 121.598
152.871 15103 122.894
152.989 15047 122.666
153.106 15157 123.114
153.223 14985 122.413
153.341 14960 122.311
153.458 14587 120.777
153.575 14424 120.1
153.693 13568 116.482
153.81 13182 114.813
153.927 13045 114.215
154.044 13192 114.856
154.162 14092 118.71
154.279 14563 120.677
154.396 15497 124.487
154.513 15473 124.391
154.63 15618 124.972
154.747 15626 125.004
154.864 15479 124.415
154.981 15226 123.394
155.098 15062 122.727
155.215 15121 122.967
155.332 15125 122.984
155.449 15173 123.179
155.566 14757 121.478
155.683 14597 120.818
155.8 14399 119.996
155.917 13848 117.678
156.033 13175 114.782
156.15 0 1
156.267 0 1
156.383 0 1
156.5 0 1
156.617 0 1
156.733 0 1
156.85 0 1
156.966 0 1
157.082 0 1
157.199 0 1
157.315 0 1
157.431 0 1
157.547 0 1
157.664 0 1
157.78 0 1
157.896 0 1
158.012 0 1
158.128 0 1
158.244 0 1
158.359 0 1
158.475 0 1
158.591 0 1
158.706 0 1
