
6.15755 0 1
6.2731 0 1
6.3887 0 1
6.50437 0 1
6.62009 0 1
6.73587 0 1
6.8517 0 1
6.96759 0 1
7.08353 0 1
7.19952 0 1
7.31557 0 1
7.43166 0 1
7.54781 0 1
7.664 0 1
7.78024 0 1
7.89653 0 1
8.01286 0 1
8.12924 0 1
8.24567 0 1
8.36213 0 1
8.47864 0 1
8.59519 0 1
8.71178 0 1
8.82841 0 1
8.94508 0 1
9.06179 0 1
9.17853 0 1
9.29531 0 1
9.41212 0 1
9.52897 0 1
9.64584 0 1
9.76276 0 1
9.8797 0 1
9.99667 0 1
10.1137 0 1
10.2307 0 1
10.3478 0 1
10.4648 0 1
10.5819 0 1
10.6991 0 1
10.8162 0 1
10.9334 0 1
11.0506 0 1
11.1678 0 1
11.285 0 1
11.4023 0 1
11.5196 0 1
11.6369 0 1
11.7542 0 1
11.8715 0 1
11.9888 0 1
12.1062 0 1
12.2235 0 1
12.3409 0 1
12.4582 0 1
12.5756 0 1
12.693 0 1
12.8104 0 1
12.9278 0 1
13.0452 0 1
13.1626 0 1
13.28 0 1
13.3974 0 1
13.5149 0 1
13.6323 0 1
13.7497 0 1
13.8671 0 1
13.9845 0 1
14.1019 0 1
14.2193 0 1
14.3367 0 1
14.4541 0 1
14.5714 0 1
14.6888 0 1
14.8062 0 1
14.9235 0 1
15.0408 4657 68.2422
15.1581 4993 70.6612
15.2755 5067 71.1829
15.3927 4919 70.1356
15.51 5023 70.8731
15.6273 4895 69.9643
15.7445 5034 70.9507
15.8617 5064 71.1618
15.9789 5124 71.5821
16.0961 5066 71.1758
16.2132 5234 72.3464
16.3304 5308 72.856
16.4475 5501 74.1687
16.5646 5814 76.2496
16.6816 5823 76.3086
16.7986 6058 77.8332
16.9156 6189 78.6702
17.0326 6200 78.7401
17.1496 6581 81.1234
17.2665 6530 80.8084
17.3833 6594 81.2034
17.5002 6719 81.9695
17.617 6626 81.4002
17.7338 6264 79.1454
17.8505 6086 78.0128
17.9672 5912 76.8895
18.0839 5948 77.1233
18.2005 6091 78.0449
18.3171 6476 80.4736
18.4337 6550 80.9321
18.5502 6843 82.7224
18.6666 6908 83.1144
18.7831 6916 83.1625
18.8994 7048 83.9524
19.0158 6891 83.012
19.1321 6713 81.9329
19.2483 6777 82.3225
19.3645 6596 81.2158
19.4806 6424 80.1499
19.5967 6388 79.925
19.7128 6156 78.4602
19.8288 6079 77.9679
19.9447 5493 74.1148
20.0606 0 1
20.1764 0 1
20.2922 0 1
20.4079 0 1
20.5236 0 1
20.6392 0 1
20.7548 0 1
20.8702 0 1
23.3078 0 1
23.4233 0 1
23.539 0 1
23.6547 0 1
23.7704 0 1
23.8862 0 1
24.0021 0 1
24.118 0 1
24.234 0 1
24.35 0 1
24.4661 6550 80.9321
24.5822 6510 80.6846
24.6984 6400 80
24.8146 6292 79.3221
24.9309 6272 79.196
25.0472 6326 79.5362
25.1636 6414 80.0875
25.28 6510 80.6846
25.3965 6973 83.5045
25.513 7091 84.2081
25.6296 7411 86.0872
25.7462 7386 85.9418
25.8628 7587 87.1034
25.9795 7238 85.0764
26.0962 7358 85.7788
26.213 7258 85.1939
26.3298 7007 83.7078
26.4466 6865 82.8553
26.5635 6457 80.3555
26.6804 6561 81
26.7973 6627 81.4064
26.9143 6914 83.1505
27.0313 6982 83.5584
27.1483 7290 85.3815
27.2653 7279 85.3171
27.3824 7335 85.6446
27.4996 7397 86.0058
27.6167 7213 84.9294
27.7339 7113 84.3386
27.8511 6825 82.6136
27.9683 6919 83.1805
28.0855 6625 81.3941
28.2028 6497 80.604
28.3201 6541 80.8764
28.4374 6491 80.5667
28.5547 6498 80.6102
28.6721 6492 80.5729
28.7894 6583 81.1357
28.9068 6885 82.9759
29.0242 7067 84.0655
29.1416 7179 84.729
29.259 7188 84.7821
29.3764 7378 85.8953
29.4939 7245 85.1176
29.6113 7104 84.2852
29.7288 7077 84.1249
29.8463 6753 82.1766
29.9638 6369 79.806
30.0812 6145 78.3901
30.1987 6069 77.9038
30.3162 6283 79.2654
30.4337 6392 79.95
30.5512 6847 82.7466
30.6687 6873 82.9036
30.7862 7000 83.666
30.9037 6973 83.5045
31.0212 7180 84.7349
31.1387 7002 83.678
31.2562 7010 83.7257
31.3737 6906 83.1023
31.4912 6840 82.7043
31.6087 6452 80.3243
31.7262 6622 81.3757
31.8436 6374 79.8373
31.9611 6352 79.6994
32.0785 6241 79
32.1959 6430 80.1873
32.3134 6406 80.0375
32.4308 6679 81.7251
32.5482 6896 83.0422
32.6655 7041 83.9107
32.7829 6990 83.6062
32.9002 6917 83.1685
33.0176 7124 84.4038
33.1349 7218 84.9588
33.2522 7223 84.9882
33.3694 6885 82.9759
33.4867 6551 80.9382
33.6039 6128 78.2815
33.7211 5971 77.2722
33.8383 5969 77.2593
33.9554 6009 77.5177
34.0725 6187 78.6575
34.1896 6552 80.9444
34.3067 6431 80.1935
34.4237 6579 81.111
34.5407 6709 81.9085
34.6577 6743 82.1158
34.7746 6680 81.7313
34.8915 6742 82.1097
35.0084 6563 81.0123
35.1252 6309 79.4292
35.242 6585 81.148
35.3587 6277 79.2275
35.4755 6110 78.1665
35.5921 6237 78.9747
35.7088 6083 77.9936
35.8254 6007 77.5048
35.9419 6152 78.4347
36.0584 6125 78.2624
36.1749 6299 79.3662
36.2913 6653 81.5659
36.4077 6778 82.3286
36.524 6717 81.9573
36.6403 6861 82.8312
36.7565 6880 82.9458
36.8727 6850 82.7647
36.9889 6563 81.0123
37.1049 6074 77.9359
37.221 0 1
37.3369 0 1
37.4529 0 1
37.5687 0 1
37.6845 0 1
37.8003 0 1
37.916 0 1
38.0316 0 1
38.1472 0 1
40.5851 0 1
40.7008 0 1
40.8164 0 1
40.9322 0 1
41.048 0 1
41.1639 0 1
41.2798 0 1
41.3958 0 1
41.5118 0 1
41.6279 0 1
41.744 5238 72.374
41.8602 5499 74.1552
41.9765 5721 75.6373
42.0928 5840 76.4199
42.2091 5621 74.9733
42.3255 5392 73.4302
42.4419 4802 69.2965
42.5584 4545 67.4166
42.675 4470 66.8581
42.7915 4747 68.8985
42.9081 4962 70.4415
43.0248 5050 71.0634
43.1415 5241 72.3948
43.2582 5221 72.2565
43.375 5267 72.5741
43.4918 5267 72.5741
43.6087 5302 72.8148
43.7256 5289 72.7255
43.8425 5287 72.7118
43.9595 5061 71.1407
44.0765 5068 71.1899
44.1935 4894 69.9571
44.3106 4786 69.1809
44.4277 4730 68.775
44.5448 4569 67.5944
44.6619 4356 66
44.7791 4323 65.7495
44.8963 4446 66.6783
45.0136 4385 66.2193
45.1308 4587 67.7274
45.2481 4531 67.3127
45.3654 4613 67.9191
45.4827 4665 68.3008
45.6001 4630 68.0441
45.7174 4560 67.5278
45.8348 4297 65.5515
45.9522 4064 63.7495
46.0697 3675 60.6218
46.1871 3485 59.0339
46.3046 3530 59.4138
46.422 3745 61.1964
46.5395 3873 62.2334
46.657 3855 62.0886
46.7745 4013 63.3482
46.892 4106 64.0781
47.0096 4128 64.2495
47.1271 4134 64.2962
47.2446 4162 64.5136
47.3622 3967 62.9841
47.4797 3967 62.9841
47.5973 3977 63.0635
47.7149 4016 63.3719
47.8324 3776 61.4492
47.95 3635 60.291
48.0675 3585 59.8749
48.1851 3425 58.5235
48.3027 3471 58.9152
48.4202 3482 59.0085
48.5378 3667 60.5558
48.6554 3730 61.0737
48.7729 3855 62.0886
48.8904 4043 63.5846
49.008 3888 62.3538
49.1255 3888 62.3538
49.243 3842 61.9839
49.3605 3425 58.5235
49.478 3436 58.6174
49.5955 3194 56.5155
49.713 2935 54.1756
49.8304 3054 55.263
49.9479 3282 57.2887
50.0653 3413 58.4209
50.1827 3726 61.041
50.3001 3772 61.4166
50.4175 3867 62.1852
50.5348 3933 62.7136
50.6521 4146 64.3894
50.7694 4120 64.1872
50.8867 4272 65.3605
51.004 4295 65.5362
51.1212 4255 65.2304
51.2384 4311 65.6582
51.3556 4329 65.7951
51.4727 4282 65.437
51.5899 4102 64.0469
51.707 4182 64.6684
51.824 4286 65.4675
51.9411 4327 65.7799
52.0581 4509 67.1491
52.175 4802 69.2965
52.2919 5038 70.9789
52.4088 5091 71.3512
52.5257 5165 71.8679
52.6425 5224 72.2772
52.7593 4999 70.7036
52.876 4960 70.4273
52.9927 4641 68.1249
53.1094 4325 65.7647
53.226 4210 64.8845
53.3426 4039 63.5531
53.4591 4135 64.304
53.5756 4408 66.3928
53.692 4688 68.469
53.8084 4952 70.3704
53.9248 5023 70.8731
54.0411 5090 71.3442
54.1573 5296 72.7736
54.2735 0 1
54.3896 0 1
54.5057 0 1
54.6217 0 1
54.7377 0 1
54.8537 0 1
54.9695 0 1
55.0853 0 1
55.2011 0 1
55.3168 0 1
55.4324 0 1
57.824 0 1
57.9396 0 1
58.0553 0 1
58.1711 0 1
58.2869 0 1
58.4028 0 1
58.5187 0 1
58.6347 0 1
58.7508 0 1
58.8669 0 1
58.983 5621 74.9733
59.0992 6185 78.6448
59.2155 6327 79.5424
59.3318 6510 80.6846
59.4482 6652 81.5598
59.5646 6720 81.9756
59.681 6763 82.2375
59.7975 6755 82.1888
59.9141 6583 81.1357
60.0306 6576 81.0925
60.1473 6292 79.3221
60.2639 6039 77.711
60.3807 5886 76.7203
60.4974 5827 76.3348
60.6142 5850 76.4853
60.731 6083 77.9936
60.8479 6106 78.1409
60.9648 6428 80.1748
61.0818 6457 80.3555
61.1987 6368 79.7997
61.3158 6387 79.9187
61.4328 6141 78.3645
61.5499 5910 76.8765
61.667 5426 73.6614
61.7841 5133 71.645
61.9013 5123 71.5751
62.0185 4874 69.814
62.1357 5070 71.2039
62.253 5291 72.7393
62.3702 5719 75.6241
62.4875 5822 76.302
62.6049 5978 77.3175
62.7222 6219 78.8606
62.8396 6290 79.3095
62.9569 6452 80.3243
63.0743 6319 79.4921
63.1918 6369 79.806
63.3092 6396 79.975
63.4267 6393 79.9562
63.5441 6121 78.2368
63.6616 5956 77.1751
63.7791 5800 76.1577
63.8966 5704 75.5248
64.0142 5395 73.4507
64.1317 5589 74.7596
64.2492 5518 74.2832
64.3668 5970 77.2658
64.4843 5989 77.3886
64.6019 6304 79.3977
64.7195 6102 78.1153
64.837 6004 77.4855
64.9546 6069 77.9038
65.0722 5894 76.7724
65.1898 5231 72.3257
65.3074 5086 71.3162
65.4249 4755 68.9565
65.5425 4625 68.0074
65.6601 4577 67.6535
65.7777 5071 71.211
65.8952 5247 72.4362
66.0128 5523 74.3169
66.1304 5636 75.0733
66.2479 5879 76.6746
66.3655 6125 78.2624
66.483 6232 78.943
66.6005 6353 79.7057
66.718 6535 80.8393
66.8355 6487 80.5419
66.953 6364 79.7747
67.0705 6355 79.7183
67.1879 6191 78.6829
67.3054 5996 77.4338
67.4228 5712 75.5778
67.5402 5380 73.3485
67.6576 5304 72.8286
67.7749 5281 72.6705
67.8923 5467 73.9392
68.0096 5819 76.2824
68.1269 6127 78.2752
68.2442 6097 78.0833
68.3614 6235 78.962
68.4787 6180 78.613
68.5958 6132 78.3071
68.713 5925 76.974
68.8302 5460 73.8918
68.9473 5203 72.1318
69.0643 4932 70.2282
69.1814 4638 68.1029
69.2984 4694 68.5128
69.4154 5000 70.7107
69.5323 5375 73.3144
69.6492 5850 76.4853
69.7661 5911 76.883
69.8829 6181 78.6193
69.9997 6386 79.9125
70.1165 6498 80.6102
70.2332 6640 81.4862
70.3499 6638 81.4739
70.4665 6659 81.6027
70.5831 6813 82.5409
70.6996 6712 81.9268
70.8161 6600 81.2404
70.9326 6375 79.8436
71.049 6149 78.4156
71.1653 5839 76.4133
71.2817 5401 73.4915
71.3979 5186 72.0139
71.5141 5404 73.5119
71.6303 5433 73.7089
71.7464 5411 73.5595
71.8624 0 1
71.9784 0 1
72.0944 0 1
72.2102 0 1
72.3261 0 1
72.4418 0 1
72.5575 0 1
72.6732 0 1
75.1054 0 1
75.2209 0 1
75.3365 0 1
75.4521 0 1
75.5678 0 1
75.6835 0 1
75.7993 0 1
75.9151 0 1
76.031 0 1
76.147 5800 76.1577
76.263 6034 77.6788
76.3791 5719 75.6241
76.4952 5367 73.2598
76.6113 5529 74.3572
76.7276 5722 75.6439
76.8438 6189 78.6702
76.9601 6465 80.4052
77.0765 6562 81.0062
77.1929 6399 79.9937
77.3093 6647 81.5291
77.4258 6467 80.4177
77.5423 6251 79.0633
77.6589 5620 74.9667
77.7755 5264 72.5534
77.8921 4957 70.406
78.0088 4705 68.593
78.1256 4468 66.8431
78.2423 4803 69.3037
78.3591 5212 72.1942
78.4759 5732 75.71
78.5928 6172 78.5621
78.7097 6062 77.8588
78.8266 6201 78.7464
78.9436 6637 81.4678
79.0606 6568 81.0432
79.1776 6679 81.7251
79.2946 6862 82.8372
79.4117 6926 83.2226
79.5288 6763 82.2375
79.6459 6650 81.5475
79.7631 6466 80.4114
79.8802 6161 78.492
79.9974 5974 77.2917
80.1147 5548 74.4849
80.2319 5490 74.0945
80.3491 5852 76.4984
80.4664 6203 78.7591
80.5837 6412 80.075
80.701 6505 80.6536
80.8183 6452 80.3243
80.9357 6535 80.8393
81.053 6405 80.0312
81.1704 6248 79.0443
81.2877 5832 76.3675
81.4051 5424 73.6478
81.5225 5011 70.7884
81.6399 4654 68.2202
81.7573 4605 67.8602
81.8747 4673 68.3593
81.9922 5243 72.4086
82.1096 5630 75.0333
82.227 5913 76.896
82.3444 6023 77.608
82.4619 6472 80.4487
82.5793 6796 82.4379
82.6967 6654 81.5721
82.8142 6670 81.6701
82.9316 6665 81.6395
83.049 6792 82.4136
83.1664 6987 83.5883
83.2838 6818 82.5712
83.4012 6640 81.4862
83.5186 6102 78.1153
83.636 5881 76.6877
83.7534 5578 74.686
83.8708 5407 73.5323
83.9881 5747 75.809
84.1055 6151 78.4283
84.2228 6540 80.8703
84.3401 6744 82.1219
84.4575 6541 80.8764
84.5747 6690 81.7924
84.692 6477 80.4798
84.8093 5915 76.909
84.9265 5655 75.1997
85.0437 5226 72.2911
85.1609 4844 69.5989
85.2781 4596 67.7938
85.3952 4615 67.9338
85.5123 5036 70.9648
85.6294 5527 74.3438
85.7465 6005 77.4919
85.8636 6299 79.3662
85.9806 6403 80.0187
86.0976 6587 81.1603
86.2145 6801 82.4682
86.3315 6990 83.6062
86.4484 7086 84.1784
86.5652 6992 83.6182
86.682 7047 83.9464
86.7988 7078 84.1309
86.9156 7131 84.4452
87.0323 6832 82.6559
87.149 6526 80.7837
87.2657 6117 78.2113
87.3823 5847 76.4657
87.4988 5894 76.7724
87.6154 6355 79.7183
87.7318 6753 82.1766
87.8483 6921 83.1925
87.9647 6865 82.8553
88.081 7073 84.1011
88.1973 6964 83.4506
88.3136 6530 80.8084
88.4298 6172 78.5621
88.546 5588 74.7529
88.6621 5195 72.0763
88.7781 4909 70.0643
88.8942 0 1
89.0101 0 1
89.126 0 1
89.2419 0 1
89.3577 0 1
89.4734 0 1
89.5891 0 1
89.7047 0 1
89.8203 0 1
89.9358 0 1
92.3269 0 1
92.4424 0 1
92.558 0 1
92.6736 0 1
92.7893 0 1
92.905 0 1
93.0208 0 1
93.1366 0 1
93.2525 0 1
93.3685 0 1
93.4845 0 1
93.6005 5830 76.3544
93.7167 5579 74.6927
93.8328 5254 72.4845
93.949 4880 69.857
94.0653 4963 70.4486
94.1816 4761 69
94.2979 5054 71.0915
94.4143 5410 73.5527
94.5307 5816 76.2627
94.6472 6166 78.5239
94.7637 6330 79.5613
94.8803 6346 79.6618
94.9969 6680 81.7313
95.1135 6808 82.5106
95.2302 6965 83.4566
95.3469 7109 84.3149
95.4637 7090 84.2021
95.5805 7123 84.3979
95.6973 7045 83.9345
95.8142 6931 83.2526
95.9311 6748 82.1462
96.048 6505 80.6536
96.1649 6090 78.0385
96.2819 5907 76.857
96.3989 5836 76.3937
96.516 5854 76.5114
96.633 6558 80.9815
96.7501 6736 82.0731
96.8673 6563 81.0123
96.9844 6893 83.0241
97.1016 6719 81.9695
97.2188 6456 80.3492
97.336 6099 78.0961
97.4532 5671 75.306
97.5704 5312 72.8835
97.6877 5060 71.1337
97.805 4797 69.2604
97.9223 4707 68.6076
98.0396 4964 70.4557
98.1569 5462 73.9053
98.2743 5744 75.7892
98.3916 5926 76.9805
98.509 6288 79.2969
98.6264 6491 80.5667
98.7438 6639 81.4801
98.8612 6665 81.6395
98.9786 6904 83.0903
99.096 6808 82.5106
99.2134 6880 82.9458
99.3308 7109 84.3149
99.4482 6697 81.8352
99.5656 6751 82.1645
99.6831 6546 80.9074
99.8005 6120 78.2304
99.9179 5782 76.0395
100.035 5668 75.2861
100.153 5891 76.7529
100.27 6394 79.9625
100.388 6512 80.697
100.505 6575 81.0864
100.622 6838 82.6922
100.74 6647 81.5291
100.857 6325 79.5299
100.975 6059 77.8396
101.092 5553 74.5185
101.209 5396 73.4575
101.327 5105 71.4493
101.444 4964 70.4557
101.561 4933 70.2353
101.679 5137 71.6729
101.796 5628 75.02
101.913 6020 77.5887
102.03 6182 78.6257
102.148 6505 80.6536
102.265 6348 79.6743
102.382 7538 86.8217
102.499 7204 84.8764
102.616 7145 84.5281
102.733 7293 85.3991
102.851 7290 85.3815
102.968 7318 85.5453
103.085 7267 85.2467
103.202 7048 83.9524
103.319 6526 80.7837
103.436 6301 79.3788
103.552 6167 78.5302
103.669 6507 80.666
103.786 7061 84.0298
103.903 7263 85.2232
104.02 7208 84.8999
104.137 7355 85.7613
104.253 7170 84.6759
104.37 6757 82.201
104.487 6566 81.0309
104.603 6083 77.9936
104.72 5813 76.243
104.836 5437 73.736
104.953 5246 72.4293
105.069 5430 73.6885
105.186 5654 75.1931
105.302 6168 78.5366
105.418 6459 80.3679
105.535 6873 82.9036
105.651 7137 84.4808
105.767 7374 85.872
105.883 7600 87.178
105.999 7291 85.3874
106.115 0 1
106.231 0 1
106.347 0 1
106.463 0 1
106.579 0 1
106.694 0 1
106.81 0 1
106.926 0 1
107.041 0 1
107.157 0 1
109.576 0 1
109.692 0 1
109.807 0 1
109.923 0 1
110.039 0 1
110.155 0 1
110.27 0 1
110.386 0 1
110.502 0 1
110.618 5934 77.0325
110.735 6236 78.9683
110.851 6430 80.1873
110.967 6504 80.6474
111.083 6574 81.0802
111.199 6697 81.8352
111.316 6650 81.5475
111.432 6741 82.1036
111.549 6582 81.1295
111.665 6308 79.4229
111.782 6067 77.8909
111.898 5624 74.9933
112.015 5381 73.3553
112.132 5751 75.8353
112.248 5964 77.2269
112.365 6285 79.278
112.482 6343 79.643
112.599 6213 78.8226
112.716 6058 77.8332
112.832 5840 76.4199
112.949 5572 74.6458
113.066 5128 71.6101
113.183 4873 69.8069
113.3 4630 68.0441
113.417 4360 66.0303
113.534 4198 64.792
113.652 4175 64.6142
113.769 4550 67.4537
113.886 4696 68.5274
114.003 4997 70.6895
114.12 5222 72.2634
114.238 5301 72.808
114.355 5196 72.0833
114.472 5498 74.1485
114.589 5356 73.1847
114.707 5372 73.2939
114.824 5346 73.1163
114.942 5363 73.2325
115.059 5296 72.7736
115.176 5086 71.3162
115.294 4879 69.8498
115.411 4686 68.4544
115.529 4488 66.9925
115.646 4400 66.3325
115.764 4522 67.2458
115.881 4670 68.3374
115.999 4755 68.9565
116.116 4676 68.3813
116.234 4746 68.8912
116.351 4524 67.2607
116.469 4275 65.3835
116.586 3954 62.8808
116.704 3889 62.3618
116.821 3502 59.1777
116.939 3432 58.5833
117.056 3340 57.7927
117.174 3173 56.3294
117.291 3468 58.8897
117.409 3647 60.3904
117.526 3831 61.8951
117.644 3940 62.7694
117.761 4025 63.4429
117.879 4169 64.5678
117.996 4142 64.3584
118.114 4351 65.9621
118.231 4415 66.4455
118.349 4339 65.8711
118.466 4462 66.7982
118.584 4577 67.6535
118.701 4509 67.1491
118.819 4396 66.3023
118.936 4056 63.6867
119.053 3952 62.8649
119.171 3720 60.9918
119.288 3917 62.5859
119.405 4116 64.1561
119.523 4378 66.1665
119.64 4386 66.2269
119.757 4258 65.2534
119.875 4528 67.2904
119.992 4558 67.513
120.109 4324 65.7571
120.226 4039 63.5531
120.343 3965 62.9682
120.46 3787 61.5386
120.578 3792 61.5792
120.695 3683 60.6877
120.812 3564 59.6992
120.929 3649 60.407
121.046 3867 62.1852
121.163 4092 63.9687
121.279 4175 64.6142
121.396 4486 66.9776
121.513 4636 68.0882
121.63 4880 69.857
121.747 4708 68.6149
121.863 4837 69.5485
121.98 5179 71.9653
122.097 4995 70.6753
122.213 5038 70.9789
122.33 5196 72.0833
122.446 5062 71.1477
122.563 5001 70.7177
122.679 5015 70.8167
122.795 4748 68.9057
122.912 4605 67.8602
123.028 4677 68.3886
123.144 4830 69.4982
123.26 5196 72.0833
123.377 0 1
123.493 0 1
123.609 0 1
123.725 0 1
123.84 0 1
123.956 0 1
124.072 0 1
124.188 0 1
124.303 0 1
124.419 0 1
126.852 0 1
126.968 0 1
127.083 0 1
127.199 0 1
127.315 0 1
127.431 0 1
127.547 0 1
127.663 0 1
127.779 0 1
127.895 0 1
128.011 0 1
128.127 0 1
128.243 0 1
128.359 5508 74.2159
128.476 5789 76.0855
128.592 5918 76.9285
128.708 6077 77.9551
128.825 6085 78.0064
128.941 6322 79.511
129.058 6143 78.3773
129.174 5862 76.5637
129.291 5564 74.5922
129.408 5348 73.13
129.524 5046 71.0352
129.641 4994 70.6682
129.758 4784 69.1665
129.875 4713 68.6513
129.992 4715 68.6659
130.108 4896 69.9714
130.225 4994 70.6682
130.342 5343 73.0958
130.459 5132 71.638
130.576 5294 72.7599
130.693 5372 73.2939
130.81 5635 75.0666
130.928 5456 73.8647
131.045 5624 74.9933
131.162 5569 74.6257
131.279 5845 76.4526
131.396 5543 74.4513
131.513 5514 74.2563
131.631 5308 72.856
131.748 5192 72.0555
131.865 4933 70.2353
131.983 5191 72.0486
132.1 5284 72.6911
132.217 5448 73.8106
132.335 5510 74.2294
132.452 5304 72.8286
132.57 5312 72.8835
132.687 5028 70.9084
132.804 5083 71.2952
132.922 4749 68.913
133.039 4522 67.2458
133.157 4422 66.4981
133.274 4297 65.5515
133.392 3986 63.1348
133.509 4225 65
133.627 4218 64.9461
133.744 4248 65.1767
133.862 4399 66.325
133.979 4419 66.4756
134.097 4418 66.468
134.214 4535 67.3424
134.332 4511 67.164
134.449 4591 67.7569
134.567 4443 66.6558
134.684 4615 67.9338
134.802 4630 68.0441
134.919 4497 67.0597
135.037 4347 65.9318
135.154 4370 66.106
135.272 4122 64.2028
135.389 3897 62.426
135.507 4077 63.8514
135.624 4123 64.2106
135.742 4274 65.3758
135.859 4190 64.7302
135.977 4084 63.9062
136.094 4066 63.7652
136.211 4038 63.5453
136.329 3945 62.8092
136.446 3715 60.9508
136.564 3497 59.1354
136.681 3456 58.7878
136.798 3361 57.9741
136.915 3160 56.2139
137.033 3105 55.7225
137.15 3123 55.8838
137.267 3326 57.6715
137.384 3359 57.9569
137.502 3396 58.2752
137.619 3562 59.6825
137.736 3472 58.9237
137.853 3597 59.975
137.97 3563 59.6909
138.087 3689 60.7371
138.204 3668 60.564
138.321 3905 62.49
138.438 3970 63.0079
138.555 3948 62.8331
138.672 4049 63.6318
138.788 4002 63.2614
138.905 3859 62.1208
139.022 3774 61.4329
139.139 3886 62.3378
139.255 3963 62.9524
139.372 4273 65.3682
139.488 4307 65.6277
139.605 4483 66.9552
139.721 4571 67.6092
139.838 4549 67.4463
139.954 4555 67.4907
140.071 4302 65.5896
140.187 4155 64.4593
140.303 3982 63.1031
140.419 3977 63.0635
140.535 3770 61.4003
140.652 3775 61.441
140.768 0 1
140.884 0 1
141 0 1
141.115 0 1
141.231 0 1
141.347 0 1
141.463 0 1
141.578 0 1
141.694 0 1
144.104 0 1
144.219 0 1
144.335 0 1
144.45 0 1
144.566 0 1
144.682 0 1
144.798 0 1
144.914 0 1
145.03 0 1
145.146 3611 60.0916
145.262 3562 59.6825
145.378 3497 59.1354
145.494 3347 57.8533
145.61 3270 57.1839
145.726 3083 55.5248
145.842 3100 55.6776
145.959 3195 56.5243
146.075 3261 57.1052
146.192 3353 57.9051
146.308 3244 56.9561
146.425 3369 58.0431
146.541 3238 56.9034
146.658 3298 57.4282
146.774 3130 55.9464
146.891 3283 57.2975
147.008 3390 58.2237
147.125 3368 58.0345
147.241 3403 58.3352
147.358 3296 57.4108
147.475 3335 57.7495
147.592 3184 56.4269
147.709 3022 54.9727
147.826 3019 54.9454
147.943 3037 55.109
148.06 3174 56.3383
148.177 3088 55.5698
148.294 3156 56.1783
148.411 3131 55.9553
148.528 3140 56.0357
148.645 3015 54.909
148.762 3074 55.4437
148.88 2817 53.0754
148.997 2843 53.3198
149.114 2621 51.1957
149.231 2542 50.4183
149.349 2536 50.3587
149.466 2499 49.99
149.583 2487 49.8698
149.701 2474 49.7393
149.818 2568 50.6754
149.935 2625 51.2348
150.053 2593 50.9215
150.17 2599 50.9804
150.287 2721 52.1632
150.405 2684 51.8073
150.522 2713 52.0865
150.64 2865 53.5257
150.757 2927 54.1018
150.875 2947 54.2863
150.992 2859 53.4696
151.11 2915 53.9907
151.227 2903 53.8795
151.344 2734 52.2877
151.462 2734 52.2877
151.579 2960 54.4059
151.697 2977 54.5619
151.814 3024 54.9909
151.932 3005 54.8179
152.049 3127 55.9196
152.167 3130 55.9464
152.284 3079 55.4887
152.402 3040 55.1362
152.519 2936 54.1849
152.636 2896 53.8145
152.754 2892 53.7773
152.871 2791 52.8299
152.989 2701 51.9711
153.106 2800 52.915
153.223 2674 51.7107
153.341 2804 52.9528
153.458 3020 54.9545
153.575 3051 55.2359
153.693 3011 54.8726
153.81 3038 55.1181
153.927 3034 55.0818
154.044 3164 56.2494
154.162 3218 56.7274
154.279 3348 57.8619
154.396 3403 58.3352
154.513 3509 59.2368
154.63 3515 59.2874
154.747 3436 58.6174
154.864 3466 58.8727
154.981 3428 58.5491
155.098 3420 58.4808
155.215 3545 59.5399
155.332 3628 60.2329
155.449 3642 60.349
155.566 3669 60.5723
155.683 3889 62.3618
155.8 3780 61.4817
155.917 3774 61.4329
156.033 3616 60.1332
156.15 0 1
156.267 0 1
156.383 0 1
156.5 0 1
156.617 0 1
156.733 0 1
156.85 0 1
156.966 0 1
157.082 0 1
157.199 0 1
157.315 0 1
157.431 0 1
157.547 0 1
157.664 0 1
157.78 0 1
157.896 0 1
158.012 0 1
158.128 0 1
158.244 0 1
158.359 0 1
158.475 0 1
158.591 0 1
158.706 0 1
