
6.15755 0 1
6.2731 0 1
6.3887 0 1
6.50437 0 1
6.62009 0 1
6.73587 0 1
6.8517 0 1
6.96759 0 1
7.08353 0 1
7.19952 0 1
7.31557 0 1
7.43166 0 1
7.54781 0 1
7.664 0 1
7.78024 0 1
7.89653 0 1
8.01286 0 1
8.12924 0 1
8.24567 0 1
8.36213 0 1
8.47864 0 1
8.59519 0 1
8.71178 0 1
8.82841 0 1
8.94508 0 1
9.06179 0 1
9.17853 0 1
9.29531 0 1
9.41212 0 1
9.52897 0 1
9.64584 0 1
9.76276 0 1
9.8797 0 1
9.99667 0 1
10.1137 0 1
10.2307 0 1
10.3478 0 1
10.4648 0 1
10.5819 0 1
10.6991 0 1
10.8162 0 1
10.9334 0 1
11.0506 0 1
11.1678 0 1
11.285 0 1
11.4023 0 1
11.5196 0 1
11.6369 0 1
11.7542 0 1
11.8715 0 1
11.9888 0 1
12.1062 0 1
12.2235 0 1
12.3409 0 1
12.4582 0 1
12.5756 0 1
12.693 0 1
12.8104 0 1
12.9278 0 1
13.0452 0 1
13.1626 0 1
13.28 0 1
13.3974 0 1
13.5149 0 1
13.6323 0 1
13.7497 0 1
13.8671 0 1
13.9845 0 1
14.1019 0 1
14.2193 0 1
14.3367 0 1
14.4541 0 1
14.5714 0 1
14.6888 0 1
14.8062 0 1
14.9235 0 1
15.0408 0 0
15.1581 0 0
15.2755 0 0
15.3927 0 0
15.51 0 0
15.6273 0 0
15.7445 0 0
15.8617 0 0
15.9789 0 0
16.0961 0 0
16.2132 0 0
16.3304 0 0
16.4475 0 0
16.5646 0 0
16.6816 0 0
16.7986 0 0
16.9156 0 0
17.0326 0 0
17.1496 0 0
17.2665 0 0
17.3833 0 0
17.5002 0 0
17.617 0 0
17.7338 0 0
17.8505 0 0
17.9672 0 0
18.0839 0 0
18.2005 0 0
18.3171 0 0
18.4337 0 0
18.5502 0 0
18.6666 0 0
18.7831 0 0
18.8994 0 0
19.0158 0 0
19.1321 0 0
19.2483 0 0
19.3645 0 0
19.4806 0 0
19.5967 0 0
19.7128 0 0
19.8288 0 0
19.9447 0 0
20.0606 0 1
20.1764 0 1
20.2922 0 1
20.4079 0 1
20.5236 0 1
20.6392 0 1
20.7548 0 1
20.8702 0 1
23.3078 0 1
23.4233 0 1
23.539 0 1
23.6547 0 1
23.7704 0 1
23.8862 0 1
24.0021 0 1
24.118 0 1
24.234 0 1
24.35 0 1
24.4661 207040 455.016
24.5822 236732 486.551
24.6984 263561 513.382
24.8146 288604 537.219
24.9309 311574 558.188
25.0472 331596 575.844
25.1636 350323 591.881
25.28 370308 608.529
25.3965 383907 619.602
25.513 398180 631.015
25.6296 410652 640.821
25.7462 416950 645.717
25.8628 418325 646.78
25.9795 419416 647.623
26.0962 419849 647.958
26.213 418885 647.213
26.3298 415742 644.781
26.4466 413395 642.958
26.5635 413114 642.739
26.6804 418032 646.554
26.7973 423451 650.731
26.9143 428541 654.63
27.0313 427860 654.11
27.1483 441552 664.494
27.2653 448031 669.351
27.3824 454222 673.96
27.4996 454417 674.105
27.6167 450002 670.822
27.7339 441187 664.219
27.8511 430284 655.96
27.9683 424124 651.248
28.0855 417264 645.96
28.2028 411291 641.32
28.3201 410511 640.711
28.4374 406251 637.378
28.5547 408374 639.041
28.6721 407853 638.634
28.7894 408299 638.983
28.9068 407102 638.045
29.0242 406730 637.754
29.1416 404600 636.082
29.259 404583 636.068
29.3764 402879 634.728
29.4939 399062 631.714
29.6113 396626 629.783
29.7288 396286 629.513
29.8463 395322 628.746
29.9638 396187 629.434
30.0812 398799 631.505
30.1987 406810 637.817
30.3162 409813 640.166
30.4337 414668 643.947
30.5512 418554 646.957
30.6687 425472 652.282
30.7862 435602 660.002
30.9037 439951 663.288
31.0212 444203 666.486
31.1387 443042 665.614
31.2562 435046 659.58
31.3737 428648 654.712
31.4912 421994 649.611
31.6087 412304 642.109
31.7262 411517 641.496
31.8436 406629 637.675
31.9611 402991 634.816
32.0785 402043 634.069
32.1959 402094 634.109
32.3134 402041 634.067
32.4308 402963 634.794
32.5482 402729 634.609
32.6655 402032 634.06
32.7829 403682 635.36
32.9002 401510 633.648
33.0176 399801 632.298
33.1349 394619 628.187
33.2522 390906 625.225
33.3694 386832 621.958
33.4867 386451 621.652
33.6039 387684 622.643
33.7211 389386 624.008
33.8383 393980 627.678
33.9554 398517 631.282
34.0725 403809 635.46
34.1896 410087 640.38
34.3067 417149 645.871
34.4237 424596 651.61
34.5407 430013 655.754
34.6577 437725 661.608
34.7746 435673 660.055
34.8915 430166 655.87
35.0084 421401 649.154
35.1252 416848 645.638
35.242 409854 640.198
35.3587 404017 635.623
35.4755 401089 633.316
35.5921 398403 631.192
35.7088 394129 627.797
35.8254 388413 623.228
35.9419 384876 620.384
36.0584 378831 615.492
36.1749 371711 609.681
36.2913 362449 602.037
36.4077 354394 595.31
36.524 344193 586.68
36.6403 334529 578.385
36.7565 323350 568.639
36.8727 311406 558.038
36.9889 296884 544.871
37.1049 279329 528.516
37.221 0 1
37.3369 0 1
37.4529 0 1
37.5687 0 1
37.6845 0 1
37.8003 0 1
37.916 0 1
38.0316 0 1
38.1472 0 1
40.5851 0 1
40.7008 0 1
40.8164 0 1
40.9322 0 1
41.048 0 1
41.1639 0 1
41.2798 0 1
41.3958 0 1
41.5118 0 1
41.6279 0 1
41.744 183814 428.735
41.8602 202224 449.693
41.9765 216737 465.55
42.0928 230515 480.12
42.2091 244034 493.998
42.3255 256817 506.771
42.4419 269376 519.014
42.5584 284378 533.271
42.675 297833 545.741
42.7915 309391 556.229
42.9081 320409 566.047
43.0248 330224 574.651
43.1415 343208 585.84
43.2582 348738 590.54
43.375 357651 598.039
43.4918 362100 601.747
43.6087 363734 603.104
43.7256 357994 598.326
43.8425 352309 593.556
43.9595 347219 589.253
44.0765 340735 583.725
44.1935 336887 580.42
44.3106 332866 576.945
44.4277 331043 575.363
44.5448 325943 570.914
44.6619 321962 567.417
44.7791 324166 569.356
44.8963 319902 565.599
45.0136 320877 566.46
45.1308 316475 562.561
45.2481 313208 559.65
45.3654 310581 557.298
45.4827 308636 555.55
45.6001 306999 554.075
45.7174 303794 551.175
45.8348 305057 552.32
45.9522 308952 555.835
46.0697 314841 561.107
46.1871 318940 564.748
46.3046 325743 570.739
46.422 331656 575.896
46.5395 334902 578.707
46.657 344612 587.037
46.7745 351232 592.648
46.892 356549 597.117
47.0096 361909 601.589
47.1271 367338 606.084
47.2446 365684 604.718
47.3622 361395 601.161
47.4797 353828 594.834
47.5973 348887 590.667
47.7149 343048 585.703
47.8324 337713 581.131
47.95 331402 575.675
48.0675 333557 577.544
48.1851 328726 573.346
48.3027 325439 570.473
48.4202 321716 567.2
48.5378 316750 562.805
48.6554 312319 558.855
48.7729 307950 554.932
48.8904 303536 550.941
49.008 298689 546.524
49.1255 295573 543.666
49.243 292727 541.043
49.3605 295507 543.606
49.478 297960 545.857
49.5955 303465 550.877
49.713 307776 554.776
49.8304 313914 560.28
49.9479 319527 565.267
50.0653 323932 569.15
50.1827 331074 575.39
50.3001 338230 581.575
50.4175 342945 585.615
50.5348 349664 591.324
50.6521 353392 594.468
50.7694 355589 596.313
50.8867 350609 592.122
51.004 345485 587.78
51.1212 339562 582.719
51.2384 335204 578.968
51.3556 329720 574.213
51.4727 327912 572.636
51.5899 325036 570.119
51.707 322876 568.222
51.824 323786 569.022
51.9411 324410 569.57
52.0581 322055 567.499
52.175 317148 563.159
52.2919 313613 560.012
52.4088 311656 558.262
52.5257 311067 557.734
52.6425 312677 559.175
52.7593 305806 552.997
52.876 303078 550.525
52.9927 301525 549.113
53.1094 302514 550.013
53.226 302155 549.686
53.3426 303215 550.65
53.4591 300364 548.055
53.5756 298225 546.1
53.692 291661 540.056
53.8084 282662 531.66
53.9248 275740 525.11
54.0411 265194 514.97
54.1573 253443 503.431
54.2735 0 1
54.3896 0 1
54.5057 0 1
54.6217 0 1
54.7377 0 1
54.8537 0 1
54.9695 0 1
55.0853 0 1
55.2011 0 1
55.3168 0 1
55.4324 0 1
57.824 0 1
57.9396 0 1
58.0553 0 1
58.1711 0 1
58.2869 0 1
58.4028 0 1
58.5187 0 1
58.6347 0 1
58.7508 0 1
58.8669 0 1
58.983 256836 506.79
59.0992 293214 541.492
59.2155 324479 569.631
59.3318 350567 592.087
59.4482 371487 609.497
59.5646 388510 623.306
59.681 400430 632.795
59.7975 403771 635.43
59.9141 409430 639.867
60.0306 410638 640.81
60.1473 412641 642.371
60.2639 414181 643.569
60.3807 416153 645.099
60.4974 413522 643.057
60.6142 408944 639.487
60.731 405545 636.824
60.8479 398182 631.017
60.9648 389613 624.19
61.0818 382300 618.304
61.1987 374970 612.348
61.3158 369274 607.679
61.4328 368383 606.946
61.5499 369035 607.483
61.667 374648 612.085
61.7841 381070 617.309
61.9013 390297 624.738
62.0185 397810 630.722
62.1357 405335 636.659
62.253 414854 644.092
62.3702 423130 650.484
62.4875 429296 655.207
62.6049 437861 661.711
62.7222 443511 665.966
62.8396 448741 669.881
62.9569 452624 672.773
63.0743 449376 670.355
63.1918 444703 666.861
63.3092 438141 661.922
63.4267 432169 657.396
63.5441 423342 650.647
63.6616 419427 647.632
63.7791 414714 643.983
63.8966 410922 641.032
64.0142 405967 637.155
64.1317 402905 634.748
64.2492 400208 632.62
64.3668 391091 625.373
64.4843 386144 621.405
64.6019 377579 614.475
64.7195 371618 609.605
64.837 366289 605.218
64.9546 361787 601.487
65.0722 359447 599.539
65.1898 362220 601.847
65.3074 364018 603.339
65.4249 373299 610.982
65.5425 380096 616.519
65.6601 389930 624.444
65.7777 397894 630.788
65.8952 406167 637.312
66.0128 412465 642.234
66.1304 418756 647.114
66.2479 425923 652.628
66.3655 430421 656.065
66.483 435736 660.103
66.6005 436506 660.686
66.718 435028 659.567
66.8355 429686 655.504
66.953 421613 649.317
67.0705 417746 646.333
67.1879 409815 640.168
67.3054 404235 635.795
67.4228 398353 631.152
67.5402 396431 629.628
67.6576 392446 626.455
67.7749 387152 622.215
67.8923 382476 618.446
68.0096 375966 613.161
68.1269 367244 606.007
68.2442 360831 600.692
68.3614 353651 594.686
68.4787 347291 589.314
68.5958 342752 585.45
68.713 341769 584.61
68.8302 343352 585.962
68.9473 350326 591.883
69.0643 360137 600.114
69.1814 369516 607.878
69.2984 378217 614.993
69.4154 384555 620.125
69.5323 390601 624.981
69.6492 392740 626.69
69.7661 395728 629.069
69.8829 393275 627.116
69.9997 393665 627.427
70.1165 391942 626.053
70.2332 388018 622.911
70.3499 375309 612.625
70.4665 360957 600.797
70.5831 343300 585.918
70.6996 326276 571.206
70.8161 308250 555.203
70.9326 291866 540.246
71.049 272838 522.339
71.1653 255078 505.052
71.2817 239448 489.334
71.3979 219707 468.729
71.5141 198951 446.039
71.6303 177418 421.21
71.7464 148539 385.408
71.8624 0 1
71.9784 0 1
72.0944 0 1
72.2102 0 1
72.3261 0 1
72.4418 0 1
72.5575 0 1
72.6732 0 1
75.1054 0 1
75.2209 0 1
75.3365 0 1
75.4521 0 1
75.5678 0 1
75.6835 0 1
75.7993 0 1
75.9151 0 1
76.031 0 1
76.147 261782 511.646
76.263 283763 532.694
76.3791 297353 545.301
76.4952 307443 554.475
76.6113 313828 560.204
76.7276 318867 564.683
76.8438 318855 564.672
76.9601 318608 564.454
77.0765 313194 559.637
77.1929 309404 556.241
77.3093 304176 551.522
77.4258 299347 547.126
77.5423 295432 543.537
77.6589 293413 541.676
77.7755 291864 540.244
77.8921 295768 543.846
78.0088 303665 551.058
78.1256 311058 557.726
78.2423 317887 563.815
78.3591 327276 572.08
78.4759 333207 577.241
78.5928 339819 582.94
78.7097 343920 586.447
78.8266 357778 598.145
78.9436 353383 594.46
79.0606 361771 601.474
79.1776 368245 606.832
79.2946 369775 608.091
79.4117 370131 608.384
79.5288 363835 603.187
79.6459 361211 601.008
79.7631 358827 599.022
79.8802 353606 594.648
79.9974 351869 593.185
80.1147 348372 590.23
80.2319 344936 587.313
80.3491 342313 585.075
80.4664 340552 583.568
80.5837 335616 579.324
80.701 330778 575.133
80.8183 325034 570.118
80.9357 319460 565.208
81.053 315661 561.837
81.1704 309128 555.993
81.2877 308837 555.731
81.4051 305122 552.378
81.5225 309460 556.291
81.6399 310335 557.077
81.7573 315529 561.72
81.8747 330139 574.577
81.9922 335141 578.914
82.1096 346126 588.325
82.227 349141 590.882
82.3444 356801 597.328
82.4619 368944 607.408
82.5793 372838 610.605
82.6967 382356 618.349
82.8142 384506 620.085
82.9316 389071 623.756
83.049 388403 623.22
83.1664 384111 619.767
83.2838 380442 616.8
83.4012 376754 613.803
83.5186 373518 611.161
83.636 368842 607.324
83.7534 365046 604.19
83.8708 361254 601.044
83.9881 358115 598.427
84.1055 353104 594.226
84.2228 348686 590.496
84.3401 337506 580.953
84.4575 332362 576.508
84.5747 324798 569.911
84.692 319491 565.235
84.8093 308927 555.812
84.9265 307097 554.163
85.0437 307993 554.971
85.1609 311615 558.225
85.2781 317111 563.126
85.3952 328201 572.888
85.5123 336336 579.945
85.6294 344826 587.219
85.7465 355743 596.442
85.8636 360445 600.371
85.9806 368186 606.783
86.0976 374255 611.764
86.2145 380336 616.714
86.3315 383699 619.434
86.4484 395223 628.668
86.5652 394990 628.482
86.682 394315 627.945
86.7988 387253 622.297
86.9156 383480 619.258
87.0323 372734 610.519
87.149 361216 601.012
87.2657 352746 593.924
87.3823 339055 582.284
87.4988 328473 573.126
87.6154 315219 561.444
87.7318 305460 552.684
87.8483 290043 538.556
87.9647 275835 525.2
88.081 262759 512.6
88.1973 248453 498.451
88.3136 233382 483.096
88.4298 220654 469.738
88.546 208729 456.869
88.6621 196643 443.444
88.7781 183778 428.693
88.8942 0 1
89.0101 0 1
89.126 0 1
89.2419 0 1
89.3577 0 1
89.4734 0 1
89.5891 0 1
89.7047 0 1
89.8203 0 1
89.9358 0 1
92.3269 0 1
92.4424 0 1
92.558 0 1
92.6736 0 1
92.7893 0 1
92.905 0 1
93.0208 0 1
93.1366 0 1
93.2525 0 1
93.3685 0 1
93.4845 0 1
93.6005 263136 512.968
93.7167 269468 519.103
93.8328 276469 525.803
93.949 282221 531.245
94.0653 284396 533.288
94.1816 290247 538.746
94.2979 295078 543.211
94.4143 307281 554.329
94.5307 317873 563.802
94.6472 329657 574.158
94.7637 340536 583.555
94.8803 352312 593.559
94.9969 359121 599.267
95.1135 364837 604.017
95.2302 373475 611.126
95.3469 381541 617.69
95.4637 385344 620.761
95.5805 390004 624.503
95.6973 394849 628.37
95.8142 391533 625.726
95.9311 385085 620.552
96.048 381861 617.949
96.1649 379513 616.046
96.2819 375879 613.09
96.3989 372216 610.095
96.516 368366 606.932
96.633 365769 604.788
96.7501 362277 601.895
96.8673 359902 599.918
96.9844 354257 595.195
97.1016 346761 588.864
97.2188 340119 583.197
97.336 333633 577.61
97.4532 325773 570.765
97.5704 319030 564.827
97.6877 314379 560.695
97.805 312145 558.699
97.9223 310661 557.37
98.0396 314274 560.601
98.1569 321544 567.048
98.2743 329664 574.164
98.3916 338493 581.802
98.509 350934 592.397
98.6264 358379 598.648
98.7438 366813 605.651
98.8612 376075 613.25
98.9786 383023 618.889
99.096 389232 623.885
99.2134 396523 629.701
99.3308 402127 634.135
99.4482 404040 635.641
99.5656 401586 633.708
99.6831 398331 631.135
99.8005 391371 625.597
99.9179 389616 624.192
100.035 385647 621.005
100.153 381220 617.43
100.27 379798 616.278
100.388 375989 613.179
100.505 371606 609.595
100.622 364569 603.795
100.74 359569 599.641
100.857 350951 592.411
100.975 343190 585.824
101.092 338171 581.525
101.209 332385 576.528
101.327 328270 572.949
101.444 325137 570.208
101.561 326544 571.44
101.679 331987 576.183
101.796 337695 581.115
101.913 344266 586.742
102.03 353546 594.597
102.148 364013 603.335
102.265 361850 601.54
102.382 387729 622.679
102.499 388578 623.36
102.616 395277 628.711
102.733 401843 633.911
102.851 410761 640.906
102.968 410226 640.489
103.085 408010 638.757
103.202 403152 634.943
103.319 396591 629.755
103.436 393912 627.624
103.552 388242 623.091
103.669 386458 621.657
103.786 383874 619.576
103.903 381403 617.578
104.02 376052 613.231
104.137 372592 610.403
104.253 365731 604.757
104.37 357423 597.849
104.487 354055 595.025
104.603 345431 587.734
104.72 336807 580.351
104.836 329577 574.088
104.953 319881 565.58
105.069 312204 558.752
105.186 305761 552.957
105.302 303089 550.535
105.418 297658 545.58
105.535 290277 538.774
105.651 280571 529.69
105.767 273710 523.173
105.883 262057 511.915
105.999 247498 497.492
106.115 0 1
106.231 0 1
106.347 0 1
106.463 0 1
106.579 0 1
106.694 0 1
106.81 0 1
106.926 0 1
107.041 0 1
107.157 0 1
109.576 0 1
109.692 0 1
109.807 0 1
109.923 0 1
110.039 0 1
110.155 0 1
110.27 0 1
110.386 0 1
110.502 0 1
110.618 191416 437.511
110.735 225601 474.975
110.851 252119 502.115
110.967 276052 525.407
111.083 296989 544.967
111.199 319120 564.907
111.316 336201 579.828
111.432 347294 589.317
111.549 354832 595.678
111.665 357918 598.262
111.782 357273 597.723
111.898 354186 595.135
112.015 350690 592.191
112.132 345027 587.39
112.248 341971 584.783
112.365 337976 581.357
112.482 337865 581.262
112.599 333416 577.422
112.716 328577 573.216
112.832 321692 567.179
112.949 316497 562.581
113.066 309592 556.41
113.183 305730 552.929
113.3 301322 548.928
113.417 297475 545.413
113.534 294202 542.404
113.652 291503 539.91
113.769 294144 542.35
113.886 296938 544.92
114.003 302682 550.165
114.12 308449 555.382
114.238 313779 560.16
114.355 321865 567.331
114.472 338928 582.175
114.589 323669 568.919
114.707 340534 583.553
114.824 347605 589.58
114.942 354754 595.612
115.059 356474 597.054
115.176 356473 597.054
115.294 352181 593.448
115.411 347288 589.311
115.529 342178 584.96
115.646 337770 581.18
115.764 332799 576.887
115.881 330777 575.132
115.999 325919 570.893
116.116 323387 568.671
116.234 322192 567.62
116.351 317048 563.07
116.469 310927 557.608
116.586 306586 553.702
116.704 301613 549.193
116.821 297920 545.82
116.939 294003 542.22
117.056 292056 540.422
117.174 287537 536.225
117.291 288159 536.804
117.409 290605 539.078
117.526 292802 541.112
117.644 295168 543.294
117.761 300849 548.497
117.879 306065 553.231
117.996 310790 557.485
118.114 319984 565.671
118.231 324413 569.573
118.349 333656 577.63
118.466 336478 580.067
118.584 340683 583.681
118.701 341860 584.688
118.819 337577 581.014
118.936 333217 577.25
119.053 327929 572.651
119.171 322915 568.256
119.288 317822 563.757
119.405 314568 560.864
119.523 312642 559.144
119.64 309321 556.166
119.757 306120 553.281
119.875 303458 550.87
119.992 298649 546.488
120.109 296044 544.099
120.226 292459 540.795
120.343 289035 537.62
120.46 286311 535.08
120.578 283051 532.025
120.695 279506 528.683
120.812 277005 526.313
120.929 273454 522.928
121.046 272159 521.689
121.163 271451 521.01
121.279 271715 521.263
121.396 271644 521.195
121.513 272967 522.462
121.63 271272 520.838
121.747 272317 521.84
121.863 271420 520.98
121.98 273751 523.212
122.097 273331 522.811
122.213 269555 519.187
122.33 265122 514.9
122.446 256676 506.632
122.563 243001 492.951
122.679 230401 480.001
122.795 217499 466.368
122.912 204937 452.7
123.028 191021 437.059
123.144 179584 423.774
123.26 165900 407.308
123.377 0 1
123.493 0 1
123.609 0 1
123.725 0 1
123.84 0 1
123.956 0 1
124.072 0 1
124.188 0 1
124.303 0 1
124.419 0 1
126.852 0 1
126.968 0 1
127.083 0 1
127.199 0 1
127.315 0 1
127.431 0 1
127.547 0 1
127.663 0 1
127.779 0 1
127.895 0 1
128.011 0 1
128.127 0 1
128.243 0 1
128.359 319146 564.93
128.476 324560 569.702
128.592 329302 573.848
128.708 331704 575.937
128.825 334625 578.468
128.941 334427 578.297
129.058 333134 577.178
129.174 331216 575.514
129.291 329182 573.744
129.408 324630 569.763
129.524 323560 568.823
129.641 318484 564.344
129.758 313022 559.484
129.875 309885 556.673
129.992 307444 554.476
130.108 305870 553.055
130.225 306011 553.183
130.342 308582 555.502
130.459 314771 561.045
130.576 311728 558.326
130.693 319856 565.558
130.81 328435 573.092
130.928 333667 577.639
131.045 341769 584.61
131.162 349131 590.873
131.279 356007 596.663
131.396 358687 598.905
131.513 358178 598.48
131.631 353781 594.795
131.748 347175 589.216
131.865 343502 586.09
131.983 340958 583.916
132.1 335816 579.496
132.217 334720 578.55
132.335 334367 578.245
132.452 331853 576.067
132.57 329903 574.372
132.687 333816 577.768
132.804 323404 568.686
132.922 323142 568.456
133.039 321882 567.346
133.157 319127 564.913
133.274 315398 561.603
133.392 311436 558.065
133.509 308251 555.204
133.627 308841 555.735
133.744 304953 552.225
133.862 308087 555.056
133.979 311294 557.937
134.097 312938 559.409
134.214 319625 565.354
134.332 322741 568.103
134.449 331142 575.449
134.567 337434 580.891
134.684 344243 586.722
134.802 350221 591.795
134.919 353922 594.913
135.037 354677 595.548
135.154 345882 588.117
135.272 342731 585.432
135.389 337901 581.293
135.507 335158 578.928
135.624 333286 577.309
135.742 332899 576.974
135.859 328810 573.42
135.977 327198 572.012
136.094 326107 571.058
136.211 324767 569.883
136.329 322009 567.458
136.446 321358 566.884
136.564 318734 564.565
136.681 316311 562.415
136.798 314280 560.607
136.915 310549 557.269
137.033 307284 554.332
137.15 302754 550.231
137.267 302385 549.895
137.384 300387 548.076
137.502 300065 547.782
137.619 301722 549.292
137.736 300655 548.32
137.853 298663 546.501
137.97 302878 550.344
138.087 324057 569.26
138.204 325693 570.695
138.321 330895 575.235
138.438 334105 578.018
138.555 339671 582.813
138.672 334859 578.67
138.788 325741 570.737
138.905 314324 560.646
139.022 301902 549.456
139.139 292302 540.65
139.255 280002 529.152
139.372 270261 519.866
139.488 256216 506.178
139.605 244953 494.927
139.721 233796 483.525
139.838 222622 471.828
139.954 211752 460.165
140.071 202434 449.927
140.187 184910 430.012
140.303 176731 420.394
140.419 166302 407.801
140.535 157156 396.429
140.652 145810 381.851
140.768 0 1
140.884 0 1
141 0 1
141.115 0 1
141.231 0 1
141.347 0 1
141.463 0 1
141.578 0 1
141.694 0 1
144.104 0 1
144.219 0 1
144.335 0 1
144.45 0 1
144.566 0 1
144.682 0 1
144.798 0 1
144.914 0 1
145.03 0 1
145.146 220755 469.846
145.262 229905 479.484
145.378 234225 483.968
145.494 234347 484.094
145.61 234688 484.446
145.726 232962 482.661
145.842 232354 482.031
145.959 230396 479.996
146.075 227730 477.211
146.192 227118 476.569
146.308 224978 474.318
146.425 225039 474.383
146.541 226240 475.647
146.658 228744 478.272
146.774 231343 480.981
146.891 234790 484.551
147.008 242546 492.49
147.125 243764 493.725
147.241 249041 499.04
147.358 252060 502.056
147.475 251975 501.971
147.592 250123 500.123
147.709 245358 495.336
147.826 240350 490.255
147.943 237112 486.941
148.06 235878 485.673
148.177 232616 482.303
148.294 233707 483.433
148.411 234827 484.59
148.528 233917 483.65
148.645 236484 486.296
148.762 236460 486.272
148.88 236648 486.465
148.997 241981 491.916
149.114 232257 481.93
149.231 234562 484.316
149.349 232861 482.557
149.466 229134 478.679
149.583 229507 479.069
149.701 226038 475.435
149.818 223560 472.821
149.935 224206 473.504
150.053 224163 473.459
150.17 225843 475.229
150.287 227117 476.568
150.405 230717 480.33
150.522 234259 484.003
150.64 240389 490.295
150.757 242847 492.795
150.875 246075 496.059
150.992 251393 501.391
151.11 249735 499.735
151.227 247023 497.014
151.344 243115 493.067
151.462 237464 487.303
151.579 238852 488.725
151.697 234308 484.054
151.814 232693 482.383
151.932 231313 480.95
152.049 231756 481.41
152.167 232081 481.748
152.284 231009 480.634
152.402 230271 479.866
152.519 230948 480.57
152.636 230910 480.531
152.754 230745 480.359
152.871 229243 478.793
152.989 227553 477.025
153.106 222938 472.163
153.223 222005 471.174
153.341 219178 468.165
153.458 217079 465.917
153.575 216771 465.587
153.693 215899 464.649
153.81 217948 466.849
153.927 219153 468.138
154.044 224128 473.422
154.162 225289 474.646
154.279 230178 479.769
154.396 234237 483.98
154.513 237918 487.768
154.63 238918 488.792
154.747 238639 488.507
154.864 233952 483.686
154.981 229052 478.594
155.098 224237 473.537
155.215 223519 472.778
155.332 218685 467.638
155.449 216717 465.529
155.566 214991 463.671
155.683 213671 462.246
155.8 210887 459.224
155.917 208856 457.008
156.033 203990 451.653
156.15 0 1
156.267 0 1
156.383 0 1
156.5 0 1
156.617 0 1
156.733 0 1
156.85 0 1
156.966 0 1
157.082 0 1
157.199 0 1
157.315 0 1
157.431 0 1
157.547 0 1
157.664 0 1
157.78 0 1
157.896 0 1
158.012 0 1
158.128 0 1
158.244 0 1
158.359 0 1
158.475 0 1
158.591 0 1
158.706 0 1
