
6.15755 0 1
6.2731 0 1
6.3887 0 1
6.50437 0 1
6.62009 0 1
6.73587 0 1
6.8517 0 1
6.96759 0 1
7.08353 0 1
7.19952 0 1
7.31557 0 1
7.43166 0 1
7.54781 0 1
7.664 0 1
7.78024 0 1
7.89653 0 1
8.01286 0 1
8.12924 0 1
8.24567 0 1
8.36213 0 1
8.47864 0 1
8.59519 0 1
8.71178 0 1
8.82841 0 1
8.94508 0 1
9.06179 0 1
9.17853 0 1
9.29531 0 1
9.41212 0 1
9.52897 0 1
9.64584 0 1
9.76276 0 1
9.8797 0 1
9.99667 0 1
10.1137 0 1
10.2307 0 1
10.3478 0 1
10.4648 0 1
10.5819 0 1
10.6991 0 1
10.8162 0 1
10.9334 0 1
11.0506 0 1
11.1678 0 1
11.285 0 1
11.4023 0 1
11.5196 0 1
11.6369 0 1
11.7542 0 1
11.8715 0 1
11.9888 0 1
12.1062 0 1
12.2235 0 1
12.3409 0 1
12.4582 0 1
12.5756 0 1
12.693 0 1
12.8104 0 1
12.9278 0 1
13.0452 0 1
13.1626 0 1
13.28 0 1
13.3974 0 1
13.5149 0 1
13.6323 0 1
13.7497 0 1
13.8671 0 1
13.9845 0 1
14.1019 0 1
14.2193 0 1
14.3367 0 1
14.4541 0 1
14.5714 0 1
14.6888 0 1
14.8062 0 1
14.9235 0 1
15.0408 0 0
15.1581 0 0
15.2755 0 0
15.3927 0 0
15.51 0 0
15.6273 0 0
15.7445 0 0
15.8617 0 0
15.9789 0 0
16.0961 0 0
16.2132 0 0
16.3304 0 0
16.4475 0 0
16.5646 0 0
16.6816 0 0
16.7986 0 0
16.9156 0 0
17.0326 0 0
17.1496 0 0
17.2665 0 0
17.3833 0 0
17.5002 0 0
17.617 0 0
17.7338 0 0
17.8505 0 0
17.9672 0 0
18.0839 0 0
18.2005 0 0
18.3171 0 0
18.4337 0 0
18.5502 0 0
18.6666 0 0
18.7831 0 0
18.8994 0 0
19.0158 0 0
19.1321 0 0
19.2483 0 0
19.3645 0 0
19.4806 0 0
19.5967 0 0
19.7128 0 0
19.8288 0 0
19.9447 0 0
20.0606 0 1
20.1764 0 1
20.2922 0 1
20.4079 0 1
20.5236 0 1
20.6392 0 1
20.7548 0 1
20.8702 0 1
23.3078 0 1
23.4233 0 1
23.539 0 1
23.6547 0 1
23.7704 0 1
23.8862 0 1
24.0021 0 1
24.118 0 1
24.234 0 1
24.35 0 1
24.4661 433 20.8087
24.5822 440 20.9762
24.6984 448 21.166
24.8146 440 20.9762
24.9309 414 20.347
25.0472 445 21.095
25.1636 444 21.0713
25.28 423 20.567
25.3965 480 21.9089
25.513 471 21.7025
25.6296 465 21.5639
25.7462 430 20.7364
25.8628 519 22.7816
25.9795 498 22.3159
26.0962 486 22.0454
26.213 490 22.1359
26.3298 476 21.8174
26.4466 474 21.7715
26.5635 489 22.1133
26.6804 426 20.6398
26.7973 425 20.6155
26.9143 430 20.7364
27.0313 425 20.6155
27.1483 397 19.9249
27.2653 409 20.2237
27.3824 446 21.1187
27.4996 450 21.2132
27.6167 420 20.4939
27.7339 434 20.8327
27.8511 387 19.6723
27.9683 359 18.9473
28.0855 379 19.4679
28.2028 405 20.1246
28.3201 434 20.8327
28.4374 454 21.3073
28.5547 444 21.0713
28.6721 417 20.4206
28.7894 415 20.3715
28.9068 444 21.0713
29.0242 446 21.1187
29.1416 428 20.6882
29.259 427 20.664
29.3764 454 21.3073
29.4939 452 21.2603
29.6113 422 20.5426
29.7288 438 20.9284
29.8463 470 21.6795
29.9638 479 21.8861
30.0812 453 21.2838
30.1987 438 20.9284
30.3162 389 19.7231
30.4337 369 19.2094
30.5512 417 20.4206
30.6687 371 19.2614
30.7862 387 19.6723
30.9037 426 20.6398
31.0212 445 21.095
31.1387 375 19.3649
31.2562 410 20.2485
31.3737 392 19.799
31.4912 403 20.0749
31.6087 418 20.445
31.7262 388 19.6977
31.8436 382 19.5448
31.9611 419 20.4695
32.0785 436 20.8806
32.1959 403 20.0749
32.3134 442 21.0238
32.4308 462 21.4942
32.5482 438 20.9284
32.6655 431 20.7605
32.7829 465 21.5639
32.9002 423 20.567
33.0176 427 20.664
33.1349 443 21.0476
33.2522 427 20.664
33.3694 460 21.4476
33.4867 443 21.0476
33.6039 456 21.3542
33.7211 440 20.9762
33.8383 419 20.4695
33.9554 413 20.3224
34.0725 421 20.5183
34.1896 390 19.7484
34.3067 357 18.8944
34.4237 376 19.3907
34.5407 375 19.3649
34.6577 392 19.799
34.7746 353 18.7883
34.8915 351 18.735
35.0084 408 20.199
35.1252 406 20.1494
35.242 401 20.025
35.3587 380 19.4936
35.4755 388 19.6977
35.5921 361 19
35.7088 396 19.8997
35.8254 447 21.1424
35.9419 447 21.1424
36.0584 392 19.799
36.1749 443 21.0476
36.2913 429 20.7123
36.4077 426 20.6398
36.524 429 20.7123
36.6403 415 20.3715
36.7565 444 21.0713
36.8727 479 21.8861
36.9889 387 19.6723
37.1049 405 20.1246
37.221 0 1
37.3369 0 1
37.4529 0 1
37.5687 0 1
37.6845 0 1
37.8003 0 1
37.916 0 1
38.0316 0 1
38.1472 0 1
40.5851 0 1
40.7008 0 1
40.8164 0 1
40.9322 0 1
41.048 0 1
41.1639 0 1
41.2798 0 1
41.3958 0 1
41.5118 0 1
41.6279 0 1
41.744 332 18.2209
41.8602 325 18.0278
41.9765 367 19.1572
42.0928 360 18.9737
42.2091 340 18.4391
42.3255 338 18.3848
42.4419 309 17.5784
42.5584 374 19.3391
42.675 366 19.1311
42.7915 343 18.5203
42.9081 312 17.6635
43.0248 329 18.1384
43.1415 302 17.3781
43.2582 290 17.0294
43.375 328 18.1108
43.4918 332 18.2209
43.6087 322 17.9444
43.7256 333 18.2483
43.8425 308 17.5499
43.9595 321 17.9165
44.0765 300 17.3205
44.1935 322 17.9444
44.3106 306 17.4929
44.4277 321 17.9165
44.5448 334 18.2757
44.6619 329 18.1384
44.7791 287 16.9411
44.8963 325 18.0278
45.0136 293 17.1172
45.1308 333 18.2483
45.2481 324 18
45.3654 312 17.6635
45.4827 290 17.0294
45.6001 301 17.3494
45.7174 307 17.5214
45.8348 331 18.1934
45.9522 288 16.9706
46.0697 319 17.8606
46.1871 306 17.4929
46.3046 304 17.4356
46.422 267 16.3401
46.5395 263 16.2173
46.657 258 16.0624
46.7745 254 15.9374
46.892 224 14.9666
47.0096 258 16.0624
47.1271 257 16.0312
47.2446 257 16.0312
47.3622 234 15.2971
47.4797 247 15.7162
47.5973 236 15.3623
47.7149 213 14.5945
47.8324 238 15.4272
47.95 250 15.8114
48.0675 216 14.6969
48.1851 248 15.748
48.3027 258 16.0624
48.4202 242 15.5563
48.5378 214 14.6287
48.6554 241 15.5242
48.7729 254 15.9374
48.8904 240 15.4919
49.008 251 15.843
49.1255 245 15.6525
49.243 235 15.3297
49.3605 265 16.2788
49.478 252 15.8745
49.5955 244 15.6205
49.713 240 15.4919
49.8304 219 14.7986
49.9479 234 15.2971
50.0653 265 16.2788
50.1827 225 15
50.3001 229 15.1327
50.4175 226 15.0333
50.5348 238 15.4272
50.6521 259 16.0935
50.7694 253 15.906
50.8867 221 14.8661
51.004 258 16.0624
51.1212 237 15.3948
51.2384 309 17.5784
51.3556 272 16.4924
51.4727 317 17.8045
51.5899 282 16.7929
51.707 315 17.7482
51.824 309 17.5784
51.9411 336 18.3303
52.0581 319 17.8606
52.175 338 18.3848
52.2919 300 17.3205
52.4088 307 17.5214
52.5257 332 18.2209
52.6425 273 16.5227
52.7593 312 17.6635
52.876 354 18.8149
52.9927 306 17.4929
53.1094 309 17.5784
53.226 332 18.2209
53.3426 343 18.5203
53.4591 350 18.7083
53.5756 326 18.0555
53.692 355 18.8414
53.8084 328 18.1108
53.9248 284 16.8523
54.0411 299 17.2916
54.1573 323 17.9722
54.2735 0 1
54.3896 0 1
54.5057 0 1
54.6217 0 1
54.7377 0 1
54.8537 0 1
54.9695 0 1
55.0853 0 1
55.2011 0 1
55.3168 0 1
55.4324 0 1
57.824 0 1
57.9396 0 1
58.0553 0 1
58.1711 0 1
58.2869 0 1
58.4028 0 1
58.5187 0 1
58.6347 0 1
58.7508 0 1
58.8669 0 1
58.983 330 18.1659
59.0992 348 18.6548
59.2155 336 18.3303
59.3318 321 17.9165
59.4482 342 18.4932
59.5646 326 18.0555
59.681 359 18.9473
59.7975 342 18.4932
59.9141 380 19.4936
60.0306 389 19.7231
60.1473 349 18.6815
60.2639 372 19.2873
60.3807 364 19.0788
60.4974 392 19.799
60.6142 365 19.105
60.731 347 18.6279
60.8479 384 19.5959
60.9648 365 19.105
61.0818 360 18.9737
61.1987 336 18.3303
61.3158 343 18.5203
61.4328 346 18.6011
61.5499 342 18.4932
61.667 315 17.7482
61.7841 371 19.2614
61.9013 354 18.8149
62.0185 328 18.1108
62.1357 308 17.5499
62.253 332 18.2209
62.3702 289 17
62.4875 329 18.1384
62.6049 308 17.5499
62.7222 290 17.0294
62.8396 252 15.8745
62.9569 285 16.8819
63.0743 273 16.5227
63.1918 285 16.8819
63.3092 322 17.9444
63.4267 312 17.6635
63.5441 293 17.1172
63.6616 342 18.4932
63.7791 317 17.8045
63.8966 277 16.6433
64.0142 330 18.1659
64.1317 315 17.7482
64.2492 297 17.2337
64.3668 306 17.4929
64.4843 313 17.6918
64.6019 334 18.2757
64.7195 314 17.72
64.837 287 16.9411
64.9546 301 17.3494
65.0722 316 17.7764
65.1898 295 17.1756
65.3074 306 17.4929
65.4249 307 17.5214
65.5425 294 17.1464
65.6601 313 17.6918
65.7777 334 18.2757
65.8952 300 17.3205
66.0128 301 17.3494
66.1304 302 17.3781
66.2479 266 16.3095
66.3655 265 16.2788
66.483 260 16.1245
66.6005 258 16.0624
66.718 287 16.9411
66.8355 261 16.1555
66.953 296 17.2047
67.0705 292 17.088
67.1879 316 17.7764
67.3054 299 17.2916
67.4228 308 17.5499
67.5402 270 16.4317
67.6576 286 16.9115
67.7749 282 16.7929
67.8923 279 16.7033
68.0096 274 16.5529
68.1269 278 16.6733
68.2442 243 15.5885
68.3614 278 16.6733
68.4787 275 16.5831
68.5958 276 16.6132
68.713 257 16.0312
68.8302 254 15.9374
68.9473 275 16.5831
69.0643 262 16.1864
69.1814 274 16.5529
69.2984 290 17.0294
69.4154 267 16.3401
69.5323 271 16.4621
69.6492 254 15.9374
69.7661 276 16.6132
69.8829 242 15.5563
69.9997 232 15.2315
70.1165 231 15.1987
70.2332 252 15.8745
70.3499 218 14.7648
70.4665 234 15.2971
70.5831 241 15.5242
70.6996 280 16.7332
70.8161 260 16.1245
70.9326 253 15.906
71.049 264 16.2481
71.1653 237 15.3948
71.2817 244 15.6205
71.3979 250 15.8114
71.5141 231 15.1987
71.6303 233 15.2643
71.7464 230 15.1658
71.8624 0 1
71.9784 0 1
72.0944 0 1
72.2102 0 1
72.3261 0 1
72.4418 0 1
72.5575 0 1
72.6732 0 1
75.1054 0 1
75.2209 0 1
75.3365 0 1
75.4521 0 1
75.5678 0 1
75.6835 0 1
75.7993 0 1
75.9151 0 1
76.031 0 1
76.147 188 13.7113
76.263 197 14.0357
76.3791 209 14.4568
76.4952 202 14.2127
76.6113 213 14.5945
76.7276 214 14.6287
76.8438 210 14.4914
76.9601 205 14.3178
77.0765 193 13.8924
77.1929 205 14.3178
77.3093 183 13.5277
77.4258 170 13.0384
77.5423 196 14
77.6589 196 14
77.7755 171 13.0767
77.8921 166 12.8841
78.0088 196 14
78.1256 167 12.9228
78.2423 173 13.1529
78.3591 168 12.9615
78.4759 159 12.6095
78.5928 174 13.1909
78.7097 167 12.9228
78.8266 171 13.0767
78.9436 152 12.3288
79.0606 152 12.3288
79.1776 115 10.7238
79.2946 106 10.2956
79.4117 115 10.7238
79.5288 158 12.5698
79.6459 160 12.6491
79.7631 130 11.4018
79.8802 146 12.083
79.9974 140 11.8322
80.1147 121 11
80.2319 125 11.1803
80.3491 128 11.3137
80.4664 114 10.6771
80.5837 100 10
80.701 112 10.583
80.8183 109 10.4403
80.9357 95 9.74679
81.053 106 10.2956
81.1704 95 9.74679
81.2877 105 10.247
81.4051 102 10.0995
81.5225 94 9.69536
81.6399 96 9.79796
81.7573 90 9.48683
81.8747 87 9.32738
81.9922 93 9.64365
82.1096 69 8.30662
82.227 94 9.69536
82.3444 72 8.48528
82.4619 68 8.24621
82.5793 76 8.7178
82.6967 89 9.43398
82.8142 80 8.94427
82.9316 56 7.48331
83.049 62 7.87401
83.1664 56 7.48331
83.2838 58 7.61577
83.4012 63 7.93725
83.5186 58 7.61577
83.636 63 7.93725
83.7534 43 6.55744
83.8708 51 7.14143
83.9881 41 6.40312
84.1055 50 7.07107
84.2228 42 6.48074
84.3401 36 6
84.4575 51 7.14143
84.5747 37 6.08276
84.692 55 7.4162
84.8093 51 7.14143
84.9265 42 6.48074
85.0437 29 5.38516
85.1609 44 6.63325
85.2781 34 5.83095
85.3952 40 6.32456
85.5123 33 5.74456
85.6294 39 6.245
85.7465 40 6.32456
85.8636 37 6.08276
85.9806 31 5.56776
86.0976 33 5.74456
86.2145 32 5.65685
86.3315 33 5.74456
86.4484 47 6.85565
86.5652 57 7.54983
86.682 45 6.7082
86.7988 42 6.48074
86.9156 52 7.2111
87.0323 54 7.34847
87.149 50 7.07107
87.2657 50 7.07107
87.3823 56 7.48331
87.4988 51 7.14143
87.6154 63 7.93725
87.7318 59 7.68115
87.8483 71 8.42615
87.9647 62 7.87401
88.081 77 8.77496
88.1973 70 8.3666
88.3136 80 8.94427
88.4298 93 9.64365
88.546 70 8.3666
88.6621 99 9.94987
88.7781 80 8.94427
88.8942 0 1
89.0101 0 1
89.126 0 1
89.2419 0 1
89.3577 0 1
89.4734 0 1
89.5891 0 1
89.7047 0 1
89.8203 0 1
89.9358 0 1
92.3269 0 1
92.4424 0 1
92.558 0 1
92.6736 0 1
92.7893 0 1
92.905 0 1
93.0208 0 1
93.1366 0 1
93.2525 0 1
93.3685 0 1
93.4845 0 1
93.6005 143 11.9583
93.7167 142 11.9164
93.8328 142 11.9164
93.949 142 11.9164
94.0653 135 11.619
94.1816 133 11.5326
94.2979 147 12.1244
94.4143 122 11.0454
94.5307 95 9.74679
94.6472 116 10.7703
94.7637 114 10.6771
94.8803 95 9.74679
94.9969 111 10.5357
95.1135 105 10.247
95.2302 93 9.64365
95.3469 117 10.8167
95.4637 84 9.16515
95.5805 87 9.32738
95.6973 95 9.74679
95.8142 107 10.3441
95.9311 106 10.2956
96.048 168 12.9615
96.1649 126 11.225
96.2819 148 12.1655
96.3989 139 11.7898
96.516 144 12
96.633 125 11.1803
96.7501 143 11.9583
96.8673 158 12.5698
96.9844 130 11.4018
97.1016 165 12.8452
97.2188 154 12.4097
97.336 196 14
97.4532 152 12.3288
97.5704 177 13.3041
97.6877 184 13.5647
97.805 159 12.6095
97.9223 180 13.4164
98.0396 175 13.2288
98.1569 174 13.1909
98.2743 188 13.7113
98.3916 188 13.7113
98.509 194 13.9284
98.6264 172 13.1149
98.7438 183 13.5277
98.8612 184 13.5647
98.9786 170 13.0384
99.096 141 11.8743
99.2134 133 11.5326
99.3308 205 14.3178
99.4482 214 14.6287
99.5656 227 15.0665
99.6831 231 15.1987
99.8005 223 14.9332
99.9179 253 15.906
100.035 239 15.4596
100.153 254 15.9374
100.27 221 14.8661
100.388 255 15.9687
100.505 295 17.1756
100.622 244 15.6205
100.74 271 16.4621
100.857 261 16.1555
100.975 261 16.1555
101.092 233 15.2643
101.209 280 16.7332
101.327 285 16.8819
101.444 263 16.2173
101.561 286 16.9115
101.679 247 15.7162
101.796 262 16.1864
101.913 233 15.2643
102.03 289 17
102.148 260 16.1245
102.265 268 16.3707
102.382 234 15.2971
102.499 255 15.9687
102.616 201 14.1774
102.733 216 14.6969
102.851 215 14.6629
102.968 267 16.3401
103.085 300 17.3205
103.202 280 16.7332
103.319 264 16.2481
103.436 322 17.9444
103.552 243 15.5885
103.669 295 17.1756
103.786 347 18.6279
103.903 259 16.0935
104.02 275 16.5831
104.137 288 16.9706
104.253 311 17.6352
104.37 297 17.2337
104.487 317 17.8045
104.603 279 16.7033
104.72 298 17.2627
104.836 305 17.4642
104.953 285 16.8819
105.069 251 15.843
105.186 276 16.6132
105.302 306 17.4929
105.418 275 16.5831
105.535 303 17.4069
105.651 282 16.7929
105.767 300 17.3205
105.883 293 17.1172
105.999 246 15.6844
106.115 0 1
106.231 0 1
106.347 0 1
106.463 0 1
106.579 0 1
106.694 0 1
106.81 0 1
106.926 0 1
107.041 0 1
107.157 0 1
109.576 0 1
109.692 0 1
109.807 0 1
109.923 0 1
110.039 0 1
110.155 0 1
110.27 0 1
110.386 0 1
110.502 0 1
110.618 222 14.8997
110.735 253 15.906
110.851 220 14.8324
110.967 252 15.8745
111.083 217 14.7309
111.199 179 13.3791
111.316 202 14.2127
111.432 216 14.6969
111.549 226 15.0333
111.665 244 15.6205
111.782 235 15.3297
111.898 208 14.4222
112.015 225 15
112.132 189 13.7477
112.248 225 15
112.365 197 14.0357
112.482 188 13.7113
112.599 233 15.2643
112.716 204 14.2829
112.832 191 13.8203
112.949 211 14.5258
113.066 213 14.5945
113.183 189 13.7477
113.3 188 13.7113
113.417 197 14.0357
113.534 191 13.8203
113.652 186 13.6382
113.769 191 13.8203
113.886 213 14.5945
114.003 160 12.6491
114.12 201 14.1774
114.238 183 13.5277
114.355 188 13.7113
114.472 159 12.6095
114.589 146 12.083
114.707 158 12.5698
114.824 166 12.8841
114.942 142 11.9164
115.059 185 13.6015
115.176 175 13.2288
115.294 168 12.9615
115.411 176 13.2665
115.529 183 13.5277
115.646 153 12.3693
115.764 186 13.6382
115.881 155 12.4499
115.999 173 13.1529
116.116 167 12.9228
116.234 169 13
116.351 175 13.2288
116.469 159 12.6095
116.586 171 13.0767
116.704 175 13.2288
116.821 180 13.4164
116.939 166 12.8841
117.056 167 12.9228
117.174 175 13.2288
117.291 163 12.7671
117.409 151 12.2882
117.526 157 12.53
117.644 165 12.8452
117.761 152 12.3288
117.879 138 11.7473
117.996 136 11.6619
118.114 138 11.7473
118.231 137 11.7047
118.349 159 12.6095
118.466 165 12.8452
118.584 162 12.7279
118.701 168 12.9615
118.819 157 12.53
118.936 178 13.3417
119.053 186 13.6382
119.171 192 13.8564
119.288 161 12.6886
119.405 178 13.3417
119.523 159 12.6095
119.64 166 12.8841
119.757 150 12.2474
119.875 162 12.7279
119.992 189 13.7477
120.109 171 13.0767
120.226 143 11.9583
120.343 179 13.3791
120.46 162 12.7279
120.578 144 12
120.695 150 12.2474
120.812 193 13.8924
120.929 170 13.0384
121.046 201 14.1774
121.163 186 13.6382
121.279 178 13.3417
121.396 161 12.6886
121.513 160 12.6491
121.63 143 11.9583
121.747 119 10.9087
121.863 149 12.2066
121.98 159 12.6095
122.097 145 12.0416
122.213 187 13.6748
122.33 180 13.4164
122.446 185 13.6015
122.563 162 12.7279
122.679 176 13.2665
122.795 173 13.1529
122.912 185 13.6015
123.028 186 13.6382
123.144 183 13.5277
123.26 178 13.3417
123.377 0 1
123.493 0 1
123.609 0 1
123.725 0 1
123.84 0 1
123.956 0 1
124.072 0 1
124.188 0 1
124.303 0 1
124.419 0 1
126.852 0 1
126.968 0 1
127.083 0 1
127.199 0 1
127.315 0 1
127.431 0 1
127.547 0 1
127.663 0 1
127.779 0 1
127.895 0 1
128.011 0 1
128.127 0 1
128.243 0 1
128.359 231 15.1987
128.476 230 15.1658
128.592 256 16
128.708 210 14.4914
128.825 215 14.6629
128.941 252 15.8745
129.058 253 15.906
129.174 225 15
129.291 248 15.748
129.408 253 15.906
129.524 247 15.7162
129.641 227 15.0665
129.758 225 15
129.875 249 15.7797
129.992 235 15.3297
130.108 234 15.2971
130.225 222 14.8997
130.342 212 14.5602
130.459 207 14.3875
130.576 191 13.8203
130.693 169 13
130.81 168 12.9615
130.928 165 12.8452
131.045 200 14.1421
131.162 237 15.3948
131.279 220 14.8324
131.396 260 16.1245
131.513 245 15.6525
131.631 242 15.5563
131.748 260 16.1245
131.865 266 16.3095
131.983 280 16.7332
132.1 302 17.3781
132.217 249 15.7797
132.335 240 15.4919
132.452 217 14.7309
132.57 269 16.4012
132.687 261 16.1555
132.804 257 16.0312
132.922 230 15.1658
133.039 229 15.1327
133.157 271 16.4621
133.274 271 16.4621
133.392 287 16.9411
133.509 282 16.7929
133.627 267 16.3401
133.744 266 16.3095
133.862 242 15.5563
133.979 220 14.8324
134.097 211 14.5258
134.214 198 14.0712
134.332 204 14.2829
134.449 210 14.4914
134.567 197 14.0357
134.684 217 14.7309
134.802 271 16.4621
134.919 278 16.6733
135.037 256 16
135.154 272 16.4924
135.272 257 16.0312
135.389 262 16.1864
135.507 297 17.2337
135.624 279 16.7033
135.742 270 16.4317
135.859 261 16.1555
135.977 256 16
136.094 273 16.5227
136.211 291 17.0587
136.329 274 16.5529
136.446 280 16.7332
136.564 295 17.1756
136.681 281 16.7631
136.798 285 16.8819
136.915 257 16.0312
137.033 305 17.4642
137.15 298 17.2627
137.267 283 16.8226
137.384 284 16.8523
137.502 238 15.4272
137.619 263 16.2173
137.736 233 15.2643
137.853 216 14.6969
137.97 214 14.6287
138.087 219 14.7986
138.204 252 15.8745
138.321 255 15.9687
138.438 262 16.1864
138.555 271 16.4621
138.672 261 16.1555
138.788 318 17.8326
138.905 285 16.8819
139.022 298 17.2627
139.139 285 16.8819
139.255 331 18.1934
139.372 342 18.4932
139.488 331 18.1934
139.605 331 18.1934
139.721 294 17.1464
139.838 320 17.8885
139.954 316 17.7764
140.071 299 17.2916
140.187 264 16.2481
140.303 301 17.3494
140.419 272 16.4924
140.535 295 17.1756
140.652 298 17.2627
140.768 0 1
140.884 0 1
141 0 1
141.115 0 1
141.231 0 1
141.347 0 1
141.463 0 1
141.578 0 1
141.694 0 1
144.104 0 1
144.219 0 1
144.335 0 1
144.45 0 1
144.566 0 1
144.682 0 1
144.798 0 1
144.914 0 1
145.03 0 1
145.146 311 17.6352
145.262 293 17.1172
145.378 300 17.3205
145.494 268 16.3707
145.61 312 17.6635
145.726 338 18.3848
145.842 307 17.5214
145.959 311 17.6352
146.075 283 16.8226
146.192 283 16.8226
146.308 235 15.3297
146.425 283 16.8226
146.541 239 15.4596
146.658 225 15
146.774 244 15.6205
146.891 246 15.6844
147.008 262 16.1864
147.125 268 16.3707
147.241 293 17.1172
147.358 290 17.0294
147.475 319 17.8606
147.592 331 18.1934
147.709 313 17.6918
147.826 293 17.1172
147.943 315 17.7482
148.06 300 17.3205
148.177 340 18.4391
148.294 272 16.4924
148.411 259 16.0935
148.528 318 17.8326
148.645 283 16.8226
148.762 323 17.9722
148.88 279 16.7033
148.997 308 17.5499
149.114 292 17.088
149.231 318 17.8326
149.349 294 17.1464
149.466 283 16.8226
149.583 285 16.8819
149.701 283 16.8226
149.818 278 16.6733
149.935 252 15.8745
150.053 234 15.2971
150.17 250 15.8114
150.287 255 15.9687
150.405 233 15.2643
150.522 270 16.4317
150.64 266 16.3095
150.757 268 16.3707
150.875 283 16.8226
150.992 278 16.6733
151.11 295 17.1756
151.227 328 18.1108
151.344 283 16.8226
151.462 306 17.4929
151.579 303 17.4069
151.697 302 17.3781
151.814 294 17.1464
151.932 297 17.2337
152.049 305 17.4642
152.167 319 17.8606
152.284 297 17.2337
152.402 315 17.7482
152.519 304 17.4356
152.636 339 18.412
152.754 279 16.7033
152.871 327 18.0831
152.989 275 16.5831
153.106 295 17.1756
153.223 305 17.4642
153.341 275 16.5831
153.458 326 18.0555
153.575 282 16.7929
153.693 258 16.0624
153.81 249 15.7797
153.927 266 16.3095
154.044 303 17.4069
154.162 280 16.7332
154.279 297 17.2337
154.396 315 17.7482
154.513 292 17.088
154.63 329 18.1384
154.747 319 17.8606
154.864 350 18.7083
154.981 326 18.0555
155.098 346 18.6011
155.215 316 17.7764
155.332 336 18.3303
155.449 333 18.2483
155.566 292 17.088
155.683 362 19.0263
155.8 341 18.4662
155.917 328 18.1108
156.033 329 18.1384
156.15 0 1
156.267 0 1
156.383 0 1
156.5 0 1
156.617 0 1
156.733 0 1
156.85 0 1
156.966 0 1
157.082 0 1
157.199 0 1
157.315 0 1
157.431 0 1
157.547 0 1
157.664 0 1
157.78 0 1
157.896 0 1
158.012 0 1
158.128 0 1
158.244 0 1
158.359 0 1
158.475 0 1
158.591 0 1
158.706 0 1
