
6.15755 0 1
6.2731 0 1
6.3887 0 1
6.50437 0 1
6.62009 0 1
6.73587 0 1
6.8517 0 1
6.96759 0 1
7.08353 0 1
7.19952 0 1
7.31557 0 1
7.43166 0 1
7.54781 0 1
7.664 0 1
7.78024 0 1
7.89653 0 1
8.01286 0 1
8.12924 0 1
8.24567 0 1
8.36213 0 1
8.47864 0 1
8.59519 0 1
8.71178 0 1
8.82841 0 1
8.94508 0 1
9.06179 0 1
9.17853 0 1
9.29531 0 1
9.41212 0 1
9.52897 0 1
9.64584 0 1
9.76276 0 1
9.8797 0 1
9.99667 0 1
10.1137 0 1
10.2307 0 1
10.3478 0 1
10.4648 0 1
10.5819 0 1
10.6991 0 1
10.8162 0 1
10.9334 0 1
11.0506 0 1
11.1678 0 1
11.285 0 1
11.4023 0 1
11.5196 0 1
11.6369 0 1
11.7542 0 1
11.8715 0 1
11.9888 0 1
12.1062 0 1
12.2235 0 1
12.3409 0 1
12.4582 0 1
12.5756 0 1
12.693 0 1
12.8104 0 1
12.9278 0 1
13.0452 0 1
13.1626 0 1
13.28 0 1
13.3974 0 1
13.5149 0 1
13.6323 0 1
13.7497 0 1
13.8671 0 1
13.9845 0 1
14.1019 0 1
14.2193 0 1
14.3367 0 1
14.4541 0 1
14.5714 0 1
14.6888 0 1
14.8062 0 1
14.9235 0 1
15.0408 0 0
15.1581 0 0
15.2755 0 0
15.3927 0 0
15.51 0 0
15.6273 0 0
15.7445 0 0
15.8617 0 0
15.9789 0 0
16.0961 0 0
16.2132 0 0
16.3304 0 0
16.4475 0 0
16.5646 0 0
16.6816 0 0
16.7986 0 0
16.9156 0 0
17.0326 0 0
17.1496 0 0
17.2665 0 0
17.3833 0 0
17.5002 0 0
17.617 0 0
17.7338 0 0
17.8505 0 0
17.9672 0 0
18.0839 0 0
18.2005 0 0
18.3171 0 0
18.4337 0 0
18.5502 0 0
18.6666 0 0
18.7831 0 0
18.8994 0 0
19.0158 0 0
19.1321 0 0
19.2483 0 0
19.3645 0 0
19.4806 0 0
19.5967 0 0
19.7128 0 0
19.8288 0 0
19.9447 0 0
20.0606 0 1
20.1764 0 1
20.2922 0 1
20.4079 0 1
20.5236 0 1
20.6392 0 1
20.7548 0 1
20.8702 0 1
23.3078 0 1
23.4233 0 1
23.539 0 1
23.6547 0 1
23.7704 0 1
23.8862 0 1
24.0021 0 1
24.118 0 1
24.234 0 1
24.35 0 1
24.4661 30657 175.091
24.5822 31080 176.295
24.6984 31179 176.576
24.8146 31014 176.108
24.9309 31369 177.113
25.0472 31327 176.994
25.1636 32076 179.098
25.28 31986 178.846
25.3965 32303 179.73
25.513 32331 179.808
25.6296 32732 180.92
25.7462 33334 182.576
25.8628 33135 182.03
25.9795 32903 181.392
26.0962 33325 182.551
26.213 33146 182.06
26.3298 32317 179.769
26.4466 31689 178.014
26.5635 30248 173.92
26.6804 27967 167.233
26.7973 26461 162.668
26.9143 27247 165.067
27.0313 28989 170.262
27.1483 30577 174.863
27.2653 31987 178.849
27.3824 32181 179.391
27.4996 32709 180.856
27.6167 32602 180.56
27.7339 32242 179.561
27.8511 31574 177.691
27.9683 31600 177.764
28.0855 31648 177.899
28.2028 31316 176.963
28.3201 30782 175.448
28.4374 31272 176.839
28.5547 31308 176.941
28.6721 31205 176.649
28.7894 32091 179.14
28.9068 32022 178.947
29.0242 31908 178.628
29.1416 31912 178.639
29.259 31856 178.482
29.3764 32156 179.321
29.4939 31834 178.421
29.6113 32029 178.966
29.7288 31833 178.418
29.8463 31500 177.482
29.9638 30622 174.991
30.0812 28714 169.452
30.1987 26653 163.257
30.3162 25702 160.318
30.4337 26068 161.456
30.5512 27702 166.439
30.6687 29169 170.789
30.7862 31019 176.122
30.9037 31465 177.384
31.0212 32343 179.842
31.1387 32571 180.474
31.2562 32104 179.176
31.3737 32271 179.641
31.4912 31914 178.645
31.6087 31464 177.381
31.7262 31336 177.02
31.8436 31488 177.449
31.9611 31710 178.073
32.0785 31455 177.356
32.1959 32219 179.497
32.3134 32230 179.527
32.4308 32248 179.577
32.5482 32562 180.449
32.6655 32672 180.754
32.7829 32581 180.502
32.9002 32487 180.242
33.0176 32726 180.903
33.1349 32427 180.075
33.2522 32499 180.275
33.3694 32662 180.726
33.4867 32306 179.739
33.6039 31678 177.983
33.7211 29436 171.569
33.8383 27440 165.65
33.9554 26144 161.691
34.0725 26130 161.648
34.1896 27804 166.745
34.3067 29398 171.458
34.4237 30912 175.818
34.5407 31914 178.645
34.6577 32882 181.334
34.7746 32992 181.637
34.8915 32991 181.634
35.0084 32543 180.397
35.1252 32278 179.661
35.242 31902 178.611
35.3587 31903 178.614
35.4755 32010 178.913
35.5921 31564 177.663
35.7088 31534 177.578
35.8254 32001 178.888
35.9419 32521 180.336
36.0584 32360 179.889
36.1749 32393 179.981
36.2913 32844 181.229
36.4077 32509 180.303
36.524 32578 180.494
36.6403 32739 180.939
36.7565 32588 180.521
36.8727 32485 180.236
36.9889 32581 180.502
37.1049 32538 180.383
37.221 0 1
37.3369 0 1
37.4529 0 1
37.5687 0 1
37.6845 0 1
37.8003 0 1
37.916 0 1
38.0316 0 1
38.1472 0 1
40.5851 0 1
40.7008 0 1
40.8164 0 1
40.9322 0 1
41.048 0 1
41.1639 0 1
41.2798 0 1
41.3958 0 1
41.5118 0 1
41.6279 0 1
41.744 28138 167.744
41.8602 28386 168.481
41.9765 29043 170.42
42.0928 29123 170.655
42.2091 29411 171.496
42.3255 28950 170.147
42.4419 27743 166.562
42.5584 25619 160.059
42.675 23582 153.564
42.7915 22601 150.336
42.9081 23535 153.411
43.0248 25579 159.934
43.1415 27163 164.812
43.2582 28242 168.054
43.375 28773 169.626
43.4918 29332 171.266
43.6087 28949 170.144
43.7256 29233 170.977
43.8425 28855 169.868
43.9595 27502 165.837
44.0765 27218 164.979
44.1935 27064 164.511
44.3106 26244 162
44.4277 26101 161.558
44.5448 25685 160.265
44.6619 25580 159.937
44.7791 25683 160.259
44.8963 26061 161.434
45.0136 25900 160.935
45.1308 26151 161.713
45.2481 25813 160.664
45.3654 25546 159.831
45.4827 25659 160.184
45.6001 25428 159.462
45.7174 25527 159.772
45.8348 25350 159.217
45.9522 24652 157.01
46.0697 23300 152.643
46.1871 20983 144.855
46.3046 19614 140.05
46.422 19283 138.863
46.5395 20448 142.997
46.657 22411 149.703
46.7745 23071 151.891
46.892 24142 155.377
47.0096 24065 155.129
47.1271 24372 156.115
47.2446 24227 155.65
47.3622 23878 154.525
47.4797 23283 152.588
47.5973 23085 151.937
47.7149 22394 149.646
47.8324 21608 146.997
47.95 21091 145.227
48.0675 20789 144.184
48.1851 20550 143.353
48.3027 20419 142.895
48.4202 21333 146.058
48.5378 21497 146.619
48.6554 22159 148.859
48.7729 22217 149.054
48.8904 22706 150.685
49.008 22646 150.486
49.1255 22892 151.301
49.243 23060 151.855
49.3605 23069 151.885
49.478 22287 149.288
49.5955 20936 144.693
49.713 19428 139.384
49.8304 18399 135.643
49.9479 18004 134.179
50.0653 19849 140.886
50.1827 22734 150.778
50.3001 24804 157.493
50.4175 26168 161.765
50.5348 26852 163.866
50.6521 28537 168.929
50.7694 29038 170.405
50.8867 29306 171.19
51.004 29683 172.288
51.1212 29995 173.191
51.2384 30190 173.753
51.3556 29962 173.095
51.4727 29829 172.711
51.5899 30008 173.228
51.707 30252 173.931
51.824 30987 176.031
51.9411 32193 179.424
52.0581 32965 181.563
52.175 33817 183.894
52.2919 34102 184.667
52.4088 35285 187.843
52.5257 35690 188.918
52.6425 36075 189.934
52.7593 36447 190.911
52.876 36641 191.418
52.9927 36793 191.815
53.1094 36067 189.913
53.226 33939 184.225
53.3426 31431 177.288
53.4591 28945 170.132
53.5756 28995 170.279
53.692 31882 178.555
53.8084 35828 189.283
53.9248 38470 196.138
54.0411 40116 200.29
54.1573 41301 203.226
54.2735 0 1
54.3896 0 1
54.5057 0 1
54.6217 0 1
54.7377 0 1
54.8537 0 1
54.9695 0 1
55.0853 0 1
55.2011 0 1
55.3168 0 1
55.4324 0 1
57.824 0 1
57.9396 0 1
58.0553 0 1
58.1711 0 1
58.2869 0 1
58.4028 0 1
58.5187 0 1
58.6347 0 1
58.7508 0 1
58.8669 0 1
58.983 48608 220.472
59.0992 52649 229.454
59.2155 54749 233.985
59.3318 55511 235.608
59.4482 56728 238.176
59.5646 57043 238.837
59.681 56315 237.308
59.7975 55825 236.273
59.9141 54609 233.686
60.0306 52977 230.167
60.1473 51759 227.506
60.2639 51093 226.038
60.3807 50420 224.544
60.4974 51732 227.447
60.6142 52686 229.534
60.731 53888 232.138
60.8479 55425 235.425
60.9648 55815 236.252
61.0818 56984 238.713
61.1987 57040 238.83
61.3158 57622 240.046
61.4328 56648 238.008
61.5499 56036 236.719
61.667 53315 230.9
61.7841 50122 223.879
61.9013 46813 216.363
62.0185 44633 211.265
62.1357 44473 210.886
62.253 47919 218.904
62.3702 52656 229.469
62.4875 56538 237.777
62.6049 58450 241.764
62.7222 60223 245.404
62.8396 60624 246.219
62.9569 61595 248.183
63.0743 61111 247.206
63.1918 60874 246.727
63.3092 60052 245.055
63.4267 58072 240.981
63.5441 56520 237.739
63.6616 55225 235
63.7791 53520 231.344
63.8966 53271 230.805
64.0142 54823 234.143
64.1317 55458 235.495
64.2492 57043 238.837
64.3668 59165 243.239
64.4843 60240 245.438
64.6019 60981 246.943
64.7195 61714 248.423
64.837 62508 250.016
64.9546 61802 248.6
65.0722 61228 247.443
65.1898 59457 243.838
65.3074 56919 238.577
65.4249 51270 226.429
65.5425 47698 218.399
65.6601 46192 214.923
65.7777 47927 218.922
65.8952 53075 230.38
66.0128 58173 241.191
66.1304 61493 247.978
66.2479 64436 253.842
66.3655 65610 256.144
66.483 66417 257.715
66.6005 67151 259.135
66.718 66755 258.37
66.8355 65779 256.474
66.953 65600 256.125
67.0705 63060 251.118
67.1879 61491 247.974
67.3054 60016 244.982
67.4228 58233 241.315
67.5402 57248 239.266
67.6576 59043 242.988
67.7749 59963 244.873
67.8923 63342 251.678
68.0096 65049 255.047
68.1269 67088 259.014
68.2442 69130 262.926
68.3614 69313 263.274
68.4787 69715 264.036
68.5958 70373 265.279
68.713 70183 264.921
68.8302 68320 261.381
68.9473 65726 256.371
69.0643 60324 245.609
69.1814 55644 235.89
69.2984 53020 230.261
69.4154 54350 233.131
69.5323 60196 245.349
69.6492 66449 257.777
69.7661 71889 268.121
69.8829 74011 272.05
69.9997 77007 277.501
70.1165 77292 278.014
70.2332 78925 280.936
70.3499 78058 279.389
70.4665 77286 278.004
70.5831 75447 274.676
70.6996 73885 271.818
70.8161 71307 267.034
70.9326 69202 263.063
71.049 66158 257.212
71.1653 64123 253.225
71.2817 63390 251.774
71.3979 64615 254.195
71.5141 65969 256.844
71.6303 67221 259.27
71.7464 64597 254.159
71.8624 0 1
71.9784 0 1
72.0944 0 1
72.2102 0 1
72.3261 0 1
72.4418 0 1
72.5575 0 1
72.6732 0 1
75.1054 0 1
75.2209 0 1
75.3365 0 1
75.4521 0 1
75.5678 0 1
75.6835 0 1
75.7993 0 1
75.9151 0 1
76.031 0 1
76.147 68606 261.927
76.263 71264 266.953
76.3791 69466 263.564
76.4952 66651 258.169
76.6113 66998 258.84
76.7276 69307 263.262
76.8438 71740 267.843
76.9601 75219 274.261
77.0765 78625 280.401
77.1929 80633 283.96
77.3093 81913 286.204
77.4258 81785 285.981
77.5423 83042 288.17
77.6589 82044 286.433
77.7755 80484 283.697
77.8921 76746 277.031
78.0088 71100 266.646
78.1256 64683 254.329
78.2423 60277 245.514
78.3591 57378 239.537
78.4759 59709 244.354
78.5928 65744 256.406
78.7097 72538 269.329
78.8266 81476 285.44
78.9436 78972 281.02
79.0606 82883 287.894
79.1776 82363 286.99
79.2946 83483 288.934
79.4117 82667 287.519
79.5288 82555 287.324
79.6459 80781 284.22
79.7631 78500 280.179
79.8802 75344 274.489
79.9974 71676 267.724
80.1147 67992 260.753
80.2319 66612 258.093
80.3491 67058 258.956
80.4664 69724 264.053
80.5837 73217 270.586
80.701 77016 277.518
80.8183 78077 279.423
80.9357 80037 282.908
81.053 80308 283.387
81.1704 80443 283.625
81.2877 80401 283.551
81.4051 79297 281.597
81.5225 78019 279.319
81.6399 72293 268.874
81.7573 67607 260.013
81.8747 61141 247.267
81.9922 57625 240.052
82.1096 58307 241.468
82.227 62801 250.601
82.3444 67931 260.636
82.4619 73857 271.766
82.5793 75458 274.696
82.6967 80359 283.477
82.8142 79303 281.608
82.9316 79131 281.302
83.049 78601 280.359
83.1664 77398 278.205
83.2838 75815 275.345
83.4012 73087 270.346
83.5186 70676 265.85
83.636 68166 261.086
83.7534 63804 252.595
83.8708 61101 247.186
83.9881 61317 247.623
84.1055 63684 252.357
84.2228 66611 258.091
84.3401 70464 265.451
84.4575 74375 272.718
84.5747 76623 276.809
84.692 77619 278.602
84.8093 78000 279.285
84.9265 77569 278.512
85.0437 76248 276.13
85.1609 73337 270.808
85.2781 67882 260.542
85.3952 62865 250.729
85.5123 59663 244.26
85.6294 58355 241.568
85.7465 61517 248.026
85.8636 67202 259.233
85.9806 71952 268.239
86.0976 77235 277.912
86.2145 80980 284.57
86.3315 81691 285.816
86.4484 87610 295.99
86.5652 86158 293.527
86.682 85547 292.484
86.7988 84348 290.427
86.9156 83368 288.735
87.0323 81398 285.303
87.149 78993 281.057
87.2657 74713 273.337
87.3823 71575 267.535
87.4988 68840 262.374
87.6154 70654 265.808
87.7318 74889 273.659
87.8483 79856 282.588
87.9647 84301 290.346
88.081 86971 294.908
88.1973 89443 299.07
88.3136 90197 300.328
88.4298 89703 299.505
88.546 88795 297.985
88.6621 86744 294.523
88.7781 81925 286.225
88.8942 0 1
89.0101 0 1
89.126 0 1
89.2419 0 1
89.3577 0 1
89.4734 0 1
89.5891 0 1
89.7047 0 1
89.8203 0 1
89.9358 0 1
92.3269 0 1
92.4424 0 1
92.558 0 1
92.6736 0 1
92.7893 0 1
92.905 0 1
93.0208 0 1
93.1366 0 1
93.2525 0 1
93.3685 0 1
93.4845 0 1
93.6005 86588 294.258
93.7167 88366 297.264
93.8328 88411 297.34
93.949 87663 296.079
94.0653 87057 295.054
94.1816 84142 290.072
94.2979 80998 284.601
94.4143 75701 275.138
94.5307 72259 268.81
94.6472 69668 263.947
94.7637 69272 263.196
94.8803 73927 271.895
94.9969 77754 278.844
95.1135 81801 286.009
95.2302 84644 290.936
95.3469 87926 296.523
95.4637 91155 301.919
95.5805 92891 304.78
95.6973 94199 306.919
95.8142 94340 307.148
95.9311 92895 304.787
96.048 90828 301.377
96.1649 89292 298.818
96.2819 86284 293.741
96.3989 83064 288.208
96.516 78472 280.129
96.633 73424 270.969
96.7501 72707 269.642
96.8673 74620 273.167
96.9844 79268 281.546
97.1016 84946 291.455
97.2188 89975 299.958
97.336 93559 305.874
97.4532 94360 307.181
97.5704 94781 307.865
97.6877 94011 306.612
97.805 91792 302.972
97.9223 89556 299.259
98.0396 84545 290.766
98.1569 78365 279.937
98.2743 73640 271.367
98.3916 72975 270.139
98.509 74973 273.812
98.6264 79066 281.187
98.7438 83495 288.955
98.8612 86736 294.51
98.9786 90841 301.398
99.096 94108 306.77
99.2134 96753 311.051
99.3308 98020 313.081
99.4482 98645 314.078
99.5656 97972 313.005
99.6831 96178 310.126
99.8005 93841 306.335
99.9179 90462 300.769
100.035 87414 295.659
100.153 81071 284.73
100.27 75850 275.409
100.388 75681 275.102
100.505 81123 284.821
100.622 87312 295.486
100.74 93239 305.351
100.857 96614 310.828
100.975 97923 312.927
101.092 98607 314.018
101.209 99190 314.944
101.327 98269 313.479
101.444 97054 311.535
101.561 93986 306.571
101.679 88529 297.538
101.796 82214 286.73
101.913 78698 280.532
102.03 78336 279.886
102.148 81845 286.086
102.265 92613 304.324
102.382 88395 297.313
102.499 95174 308.503
102.616 98573 313.963
102.733 102075 319.492
102.851 104931 323.931
102.968 105669 325.068
103.085 104500 323.265
103.202 102913 320.801
103.319 101135 318.017
103.436 98375 313.648
103.552 94895 308.05
103.669 88052 296.736
103.786 80957 284.529
103.903 80244 283.274
104.02 85631 292.628
104.137 93061 305.059
104.253 102825 320.663
104.37 102162 319.628
104.487 106283 326.011
104.603 106993 327.098
104.72 107200 327.414
104.836 106808 326.815
104.953 104270 322.909
105.069 100963 317.747
105.186 95562 309.131
105.302 88912 298.181
105.418 85827 292.962
105.535 87102 295.13
105.651 92346 303.885
105.767 97866 312.835
105.883 101328 318.321
105.999 104205 322.808
106.115 0 1
106.231 0 1
106.347 0 1
106.463 0 1
106.579 0 1
106.694 0 1
106.81 0 1
106.926 0 1
107.041 0 1
107.157 0 1
109.576 0 1
109.692 0 1
109.807 0 1
109.923 0 1
110.039 0 1
110.155 0 1
110.27 0 1
110.386 0 1
110.502 0 1
110.618 83265 288.557
110.735 90183 300.305
110.851 95037 308.281
110.967 97257 311.861
111.083 99627 315.637
111.199 101737 318.962
111.316 104045 322.56
111.432 105580 324.931
111.549 104498 323.262
111.665 103441 321.622
111.782 100648 317.251
111.898 96232 310.213
112.015 91697 302.815
112.132 85032 291.602
112.248 77209 277.865
112.365 74647 273.216
112.482 79119 281.281
112.599 83729 289.36
112.716 91349 302.24
112.832 95699 309.353
112.949 96851 311.209
113.066 97182 311.74
113.183 96020 309.871
113.3 94920 308.091
113.417 93878 306.395
113.534 91780 302.952
113.652 87900 296.479
113.769 83332 288.673
113.886 78574 280.311
114.003 76292 276.21
114.12 76095 275.853
114.238 79111 281.267
114.355 83957 289.753
114.472 85666 292.688
114.589 86859 294.719
114.707 87884 296.452
114.824 90219 300.365
114.942 91774 302.942
115.059 93730 306.154
115.176 93797 306.263
115.294 92123 303.518
115.411 89714 299.523
115.529 86278 293.731
115.646 81324 285.174
115.764 74707 273.326
115.881 69381 263.403
115.999 69867 264.324
116.116 74556 273.049
116.234 82637 287.467
116.351 87901 296.481
116.469 90850 301.413
116.586 91404 302.331
116.704 92846 304.706
116.821 91516 302.516
116.939 92411 303.992
117.056 91016 301.689
117.174 88620 297.691
117.291 86670 294.398
117.409 82547 287.31
117.526 78867 280.833
117.644 76851 277.22
117.761 77739 278.817
117.879 81800 286.007
117.996 84999 291.546
118.114 88099 296.815
118.231 89683 299.471
118.349 89556 299.259
118.466 91790 302.969
118.584 93374 305.572
118.701 94880 308.026
118.819 94574 307.529
118.936 92726 304.509
119.053 90419 300.698
119.171 87483 295.775
119.288 82010 286.374
119.405 74271 272.527
119.523 68563 261.845
119.64 70128 264.817
119.757 74653 273.227
119.875 81820 286.042
119.992 86672 294.401
120.109 89769 299.615
120.226 91079 301.793
120.343 91266 302.103
120.46 91688 302.8
120.578 90810 301.347
120.695 90383 300.638
120.812 89187 298.642
120.929 87585 295.948
121.046 84722 291.07
121.163 81411 285.326
121.279 78756 280.635
121.396 76257 276.147
121.513 77601 278.57
121.63 81337 285.196
121.747 83826 289.527
121.863 86424 293.98
121.98 87424 295.675
122.097 87650 296.057
122.213 89583 299.304
122.33 91380 302.291
122.446 91169 301.942
122.563 91451 302.409
122.679 89964 299.94
122.795 87625 296.015
122.912 84732 291.088
123.028 78759 280.64
123.144 72237 268.769
123.26 67506 259.819
123.377 0 1
123.493 0 1
123.609 0 1
123.725 0 1
123.84 0 1
123.956 0 1
124.072 0 1
124.188 0 1
124.303 0 1
124.419 0 1
126.852 0 1
126.968 0 1
127.083 0 1
127.199 0 1
127.315 0 1
127.431 0 1
127.547 0 1
127.663 0 1
127.779 0 1
127.895 0 1
128.011 0 1
128.127 0 1
128.243 0 1
128.359 78973 281.021
128.476 73922 271.886
128.592 74830 273.551
128.708 82040 286.426
128.825 91364 302.265
128.941 97459 312.184
129.058 99954 316.155
129.174 101162 318.06
129.291 101783 319.034
129.408 100886 317.626
129.524 100119 316.416
129.641 100688 317.314
129.758 99006 314.652
129.875 97392 312.077
129.992 94479 307.374
130.108 91498 302.486
130.225 88544 297.563
130.342 87113 295.149
130.459 85723 292.785
130.576 91685 302.795
130.693 92769 304.58
130.81 95327 308.751
130.928 96350 310.403
131.045 96372 310.438
131.162 98127 313.252
131.279 99517 315.463
131.396 99956 316.158
131.513 98316 313.554
131.631 96678 310.931
131.748 92329 303.857
131.865 83627 289.183
131.983 75501 274.774
132.1 73824 271.706
132.217 78562 280.289
132.335 86506 294.119
132.452 92075 303.439
132.57 96686 310.944
132.687 94529 307.456
132.804 101365 318.379
132.922 97839 312.792
133.039 97826 312.771
133.157 97569 312.36
133.274 97034 311.503
133.392 96098 309.997
133.509 93466 305.722
133.627 91966 303.259
133.744 89611 299.351
133.862 86509 294.124
133.979 85682 292.715
134.097 86147 293.508
134.214 89889 299.815
134.332 90423 300.704
134.449 93793 306.256
134.567 93853 306.354
134.684 95546 309.105
134.802 96399 310.482
134.919 97209 311.784
135.037 96991 311.434
135.154 95801 309.517
135.272 92579 304.268
135.389 86450 294.024
135.507 77935 279.168
135.624 72133 268.576
135.742 73680 271.441
135.859 80097 283.014
135.977 86975 294.915
136.094 93573 305.897
136.211 95185 308.521
136.329 97015 311.472
136.446 96879 311.254
136.564 96994 311.439
136.681 98006 313.059
136.798 94901 308.06
136.915 96409 310.498
137.033 95111 308.401
137.15 93460 305.712
137.267 91574 302.612
137.384 89431 299.05
137.502 86247 293.678
137.619 85530 292.455
137.736 85694 292.735
137.853 85196 291.884
137.97 87201 295.298
138.087 93711 306.123
138.204 92961 304.895
138.321 93516 305.804
138.438 94814 307.919
138.555 95093 308.372
138.672 95849 309.595
138.788 94238 306.982
138.905 92829 304.679
139.022 87247 295.376
139.139 79742 282.386
139.255 73185 270.527
139.372 74222 272.437
139.488 78597 280.352
139.605 85517 292.433
139.721 91741 302.888
139.838 94953 308.144
139.954 95232 308.597
140.071 94883 308.031
140.187 95725 309.395
140.303 94862 307.997
140.419 95203 308.55
140.535 93645 306.015
140.652 93008 304.972
140.768 0 1
140.884 0 1
141 0 1
141.115 0 1
141.231 0 1
141.347 0 1
141.463 0 1
141.578 0 1
141.694 0 1
144.104 0 1
144.219 0 1
144.335 0 1
144.45 0 1
144.566 0 1
144.682 0 1
144.798 0 1
144.914 0 1
145.03 0 1
145.146 83092 288.257
145.262 83873 289.608
145.378 83647 289.218
145.494 83782 289.451
145.61 83309 288.633
145.726 82392 287.04
145.842 80906 284.44
145.959 79647 282.218
146.075 78515 280.205
146.192 76635 276.83
146.308 76064 275.797
146.425 75763 275.251
146.541 76465 276.523
146.658 77763 278.86
146.774 79176 281.382
146.891 81034 284.665
147.008 80881 284.396
147.125 81030 284.658
147.241 80246 283.277
147.358 79487 281.934
147.475 77302 278.032
147.592 73222 270.596
147.709 67635 260.067
147.826 61899 248.795
147.943 61300 247.588
148.06 65082 255.112
148.177 71295 267.011
148.294 75438 274.66
148.411 78643 280.434
148.528 79606 282.145
148.645 79220 281.46
148.762 79161 281.356
148.88 79089 281.228
148.997 75779 275.28
149.114 81087 284.758
149.231 78686 280.51
149.349 77603 278.573
149.466 75520 274.809
149.583 74191 272.38
149.701 73718 271.511
149.818 72955 270.102
149.935 71383 267.176
150.053 70957 266.378
150.17 71744 267.851
150.287 73022 270.226
150.405 74156 272.316
150.522 75672 275.085
150.64 76926 277.355
150.757 76951 277.4
150.875 75706 275.147
150.992 75418 274.623
151.11 71636 267.649
151.227 69324 263.295
151.344 63904 252.792
151.462 59744 244.426
151.579 59135 243.177
151.697 62785 250.569
151.814 69096 262.861
151.932 73616 271.323
152.049 76902 277.312
152.167 76976 277.445
152.284 77530 278.442
152.402 77859 279.032
152.519 77667 278.688
152.636 77891 279.09
152.754 77308 278.043
152.871 76934 277.37
152.989 75979 275.643
153.106 75669 275.08
153.223 75291 274.392
153.341 73814 271.687
153.458 73008 270.2
153.575 72018 268.362
153.693 71439 267.281
153.81 71933 268.203
153.927 72790 269.796
154.044 74106 272.224
154.162 76554 276.684
154.279 77581 278.534
154.396 77722 278.787
154.513 77932 279.163
154.63 76413 276.429
154.747 74590 273.112
154.864 71941 268.218
154.981 68285 261.314
155.098 63721 252.43
155.215 62385 249.77
155.332 66442 257.763
155.449 70967 266.396
155.566 75535 274.836
155.683 77006 277.5
155.8 78406 280.011
155.917 78583 280.327
156.033 77783 278.896
156.15 0 1
156.267 0 1
156.383 0 1
156.5 0 1
156.617 0 1
156.733 0 1
156.85 0 1
156.966 0 1
157.082 0 1
157.199 0 1
157.315 0 1
157.431 0 1
157.547 0 1
157.664 0 1
157.78 0 1
157.896 0 1
158.012 0 1
158.128 0 1
158.244 0 1
158.359 0 1
158.475 0 1
158.591 0 1
158.706 0 1
