
6.15755 0 1
6.2731 0 1
6.3887 0 1
6.50437 0 1
6.62009 0 1
6.73587 0 1
6.8517 0 1
6.96759 0 1
7.08353 0 1
7.19952 0 1
7.31557 0 1
7.43166 0 1
7.54781 0 1
7.664 0 1
7.78024 0 1
7.89653 0 1
8.01286 0 1
8.12924 0 1
8.24567 0 1
8.36213 0 1
8.47864 0 1
8.59519 0 1
8.71178 0 1
8.82841 0 1
8.94508 0 1
9.06179 0 1
9.17853 0 1
9.29531 0 1
9.41212 0 1
9.52897 0 1
9.64584 0 1
9.76276 0 1
9.8797 0 1
9.99667 0 1
10.1137 0 1
10.2307 0 1
10.3478 0 1
10.4648 0 1
10.5819 0 1
10.6991 0 1
10.8162 0 1
10.9334 0 1
11.0506 0 1
11.1678 0 1
11.285 0 1
11.4023 0 1
11.5196 0 1
11.6369 0 1
11.7542 0 1
11.8715 0 1
11.9888 0 1
12.1062 0 1
12.2235 0 1
12.3409 0 1
12.4582 0 1
12.5756 0 1
12.693 0 1
12.8104 0 1
12.9278 0 1
13.0452 0 1
13.1626 0 1
13.28 0 1
13.3974 0 1
13.5149 0 1
13.6323 0 1
13.7497 0 1
13.8671 0 1
13.9845 0 1
14.1019 0 1
14.2193 0 1
14.3367 0 1
14.4541 0 1
14.5714 0 1
14.6888 0 1
14.8062 0 1
14.9235 0 1
15.0408 1000 31.6228
15.1581 995 31.5436
15.2755 1106 33.2566
15.3927 1062 32.5883
15.51 1030 32.0936
15.6273 994 31.5278
15.7445 950 30.8221
15.8617 1006 31.7175
15.9789 992 31.496
16.0961 937 30.6105
16.2132 926 30.4302
16.3304 973 31.1929
16.4475 926 30.4302
16.5646 995 31.5436
16.6816 880 29.6648
16.7986 879 29.6479
16.9156 906 30.0998
17.0326 900 30
17.1496 855 29.2404
17.2665 884 29.7321
17.3833 845 29.0689
17.5002 825 28.7228
17.617 869 29.4788
17.7338 896 29.9333
17.8505 905 30.0832
17.9672 881 29.6816
18.0839 867 29.4449
18.2005 865 29.4109
18.3171 828 28.775
18.4337 872 29.5296
18.5502 909 30.1496
18.6666 899 29.9833
18.7831 929 30.4795
18.8994 841 29
19.0158 809 28.4429
19.1321 781 27.9464
19.2483 764 27.6405
19.3645 714 26.7208
19.4806 695 26.3629
19.5967 704 26.533
19.7128 690 26.2679
19.8288 666 25.807
19.9447 604 24.5764
20.0606 0 1
20.1764 0 1
20.2922 0 1
20.4079 0 1
20.5236 0 1
20.6392 0 1
20.7548 0 1
20.8702 0 1
23.3078 0 1
23.4233 0 1
23.539 0 1
23.6547 0 1
23.7704 0 1
23.8862 0 1
24.0021 0 1
24.118 0 1
24.234 0 1
24.35 0 1
24.4661 348 18.6548
24.5822 410 20.2485
24.6984 481 21.9317
24.8146 552 23.4947
24.9309 636 25.219
25.0472 712 26.6833
25.1636 738 27.1662
25.28 833 28.8617
25.3965 907 30.1164
25.513 974 31.209
25.6296 929 30.4795
25.7462 998 31.5911
25.8628 1066 32.6497
25.9795 922 30.3645
26.0962 964 31.0483
26.213 977 31.257
26.3298 847 29.1033
26.4466 853 29.2062
26.5635 789 28.0891
26.6804 759 27.55
26.7973 747 27.3313
26.9143 762 27.6043
27.0313 732 27.0555
27.1483 842 29.0172
27.2653 759 27.55
27.3824 791 28.1247
27.4996 808 28.4253
27.6167 818 28.6007
27.7339 813 28.5132
27.8511 713 26.7021
27.9683 709 26.6271
28.0855 714 26.7208
28.2028 864 29.3939
28.3201 872 29.5296
28.4374 821 28.6531
28.5547 855 29.2404
28.6721 859 29.3087
28.7894 873 29.5466
28.9068 874 29.5635
29.0242 882 29.6985
29.1416 844 29.0517
29.259 778 27.8927
29.3764 816 28.5657
29.4939 763 27.6225
29.6113 776 27.8568
29.7288 801 28.3019
29.8463 808 28.4253
29.9638 700 26.4575
30.0812 710 26.6458
30.1987 741 27.2213
30.3162 736 27.1293
30.4337 767 27.6948
30.5512 787 28.0535
30.6687 789 28.0891
30.7862 838 28.9482
30.9037 878 29.6311
31.0212 876 29.5973
31.1387 814 28.5307
31.2562 826 28.7402
31.3737 734 27.0924
31.4912 724 26.9072
31.6087 825 28.7228
31.7262 803 28.3373
31.8436 821 28.6531
31.9611 829 28.7924
32.0785 783 27.9821
32.1959 808 28.4253
32.3134 771 27.7669
32.4308 785 28.0179
32.5482 748 27.3496
32.6655 731 27.037
32.7829 762 27.6043
32.9002 749 27.3679
33.0176 721 26.8514
33.1349 679 26.0576
33.2522 706 26.5707
33.3694 686 26.1916
33.4867 723 26.8887
33.6039 704 26.533
33.7211 660 25.6905
33.8383 752 27.4226
33.9554 678 26.0384
34.0725 736 27.1293
34.1896 678 26.0384
34.3067 743 27.258
34.4237 759 27.55
34.5407 762 27.6043
34.6577 802 28.3196
34.7746 765 27.6586
34.8915 766 27.6767
35.0084 682 26.1151
35.1252 632 25.1396
35.242 673 25.9422
35.3587 691 26.2869
35.4755 752 27.4226
35.5921 749 27.3679
35.7088 717 26.7769
35.8254 739 27.1846
35.9419 718 26.7955
36.0584 742 27.2397
36.1749 726 26.9444
36.2913 685 26.1725
36.4077 649 25.4755
36.524 679 26.0576
36.6403 601 24.5153
36.7565 580 24.0832
36.8727 554 23.5372
36.9889 568 23.8328
37.1049 442 21.0238
37.221 0 1
37.3369 0 1
37.4529 0 1
37.5687 0 1
37.6845 0 1
37.8003 0 1
37.916 0 1
38.0316 0 1
38.1472 0 1
40.5851 0 1
40.7008 0 1
40.8164 0 1
40.9322 0 1
41.048 0 1
41.1639 0 1
41.2798 0 1
41.3958 0 1
41.5118 0 1
41.6279 0 1
41.744 315 17.7482
41.8602 420 20.4939
41.9765 437 20.9045
42.0928 490 22.1359
42.2091 497 22.2935
42.3255 481 21.9317
42.4419 526 22.9347
42.5584 578 24.0416
42.675 545 23.3452
42.7915 586 24.2074
42.9081 534 23.1084
43.0248 565 23.7697
43.1415 524 22.891
43.2582 619 24.8797
43.375 603 24.5561
43.4918 650 25.4951
43.6087 607 24.6374
43.7256 559 23.6432
43.8425 551 23.4734
43.9595 485 22.0227
44.0765 511 22.6053
44.1935 534 23.1084
44.3106 592 24.3311
44.4277 581 24.1039
44.5448 567 23.8118
44.6619 579 24.0624
44.7791 647 25.4362
44.8963 626 25.02
45.0136 610 24.6982
45.1308 596 24.4131
45.2481 618 24.8596
45.3654 631 25.1197
45.4827 608 24.6577
45.6001 595 24.3926
45.7174 636 25.219
45.8348 601 24.5153
45.9522 554 23.5372
46.0697 541 23.2594
46.1871 576 24
46.3046 555 23.5584
46.422 555 23.5584
46.5395 552 23.4947
46.657 534 23.1084
46.7745 532 23.0651
46.892 565 23.7697
47.0096 542 23.2809
47.1271 599 24.4745
47.2446 605 24.5967
47.3622 558 23.622
47.4797 580 24.0832
47.5973 506 22.4944
47.7149 521 22.8254
47.8324 562 23.7065
47.95 585 24.1868
48.0675 566 23.7908
48.1851 599 24.4745
48.3027 596 24.4131
48.4202 590 24.2899
48.5378 612 24.7386
48.6554 602 24.5357
48.7729 620 24.8998
48.8904 575 23.9792
49.008 591 24.3105
49.1255 644 25.3772
49.243 631 25.1197
49.3605 529 23
49.478 531 23.0434
49.5955 501 22.383
49.713 531 23.0434
49.8304 505 22.4722
49.9479 491 22.1585
50.0653 558 23.622
50.1827 495 22.2486
50.3001 522 22.8473
50.4175 513 22.6495
50.5348 546 23.3666
50.6521 533 23.0868
50.7694 561 23.6854
50.8867 539 23.2164
51.004 522 22.8473
51.1212 521 22.8254
51.2384 492 22.1811
51.3556 540 23.2379
51.4727 553 23.516
51.5899 595 24.3926
51.707 567 23.8118
51.824 584 24.1661
51.9411 595 24.3926
52.0581 554 23.5372
52.175 570 23.8747
52.2919 552 23.4947
52.4088 511 22.6053
52.5257 588 24.2487
52.6425 550 23.4521
52.7593 531 23.0434
52.876 559 23.6432
52.9927 592 24.3311
53.1094 522 22.8473
53.226 533 23.0868
53.3426 500 22.3607
53.4591 515 22.6936
53.5756 463 21.5174
53.692 451 21.2368
53.8084 431 20.7605
53.9248 395 19.8746
54.0411 385 19.6214
54.1573 393 19.8242
54.2735 0 1
54.3896 0 1
54.5057 0 1
54.6217 0 1
54.7377 0 1
54.8537 0 1
54.9695 0 1
55.0853 0 1
55.2011 0 1
55.3168 0 1
55.4324 0 1
57.824 0 1
57.9396 0 1
58.0553 0 1
58.1711 0 1
58.2869 0 1
58.4028 0 1
58.5187 0 1
58.6347 0 1
58.7508 0 1
58.8669 0 1
58.983 890 29.8329
59.0992 1214 34.8425
59.2155 1502 38.7556
59.3318 1876 43.3128
59.4482 2298 47.9375
59.5646 2497 49.97
59.681 2592 50.9117
59.7975 2828 53.1789
59.9141 2849 53.376
60.0306 2884 53.7029
60.1473 2987 54.6535
60.2639 2974 54.5344
60.3807 3047 55.1996
60.4974 3080 55.4977
60.6142 3005 54.8179
60.731 3087 55.5608
60.8479 2972 54.5161
60.9648 2831 53.2071
61.0818 2749 52.4309
61.1987 2712 52.0769
61.3158 2563 50.6261
61.4328 2476 49.7594
61.5499 2348 48.4562
61.667 2186 46.7547
61.7841 1923 43.852
61.9013 1765 42.0119
62.0185 1582 39.7744
62.1357 1473 38.3797
62.253 1281 35.7911
62.3702 1326 36.4143
62.4875 1256 35.4401
62.6049 1349 36.7287
62.7222 1312 36.2215
62.8396 1333 36.5103
62.9569 1283 35.819
63.0743 1319 36.318
63.1918 1295 35.9861
63.3092 1178 34.322
63.4267 1059 32.5423
63.5441 989 31.4484
63.6616 877 29.6142
63.7791 812 28.4956
63.8966 750 27.3861
64.0142 733 27.074
64.1317 705 26.5518
64.2492 681 26.096
64.3668 647 25.4362
64.4843 632 25.1396
64.6019 630 25.0998
64.7195 663 25.7488
64.837 654 25.5734
64.9546 619 24.8797
65.0722 643 25.3574
65.1898 659 25.671
65.3074 577 24.0208
65.4249 587 24.2281
65.5425 604 24.5764
65.6601 574 23.9583
65.7777 560 23.6643
65.8952 590 24.2899
66.0128 535 23.1301
66.1304 544 23.3238
66.2479 597 24.4336
66.3655 584 24.1661
66.483 653 25.5539
66.6005 635 25.1992
66.718 650 25.4951
66.8355 601 24.5153
66.953 603 24.5561
67.0705 575 23.9792
67.1879 564 23.7487
67.3054 588 24.2487
67.4228 614 24.779
67.5402 595 24.3926
67.6576 622 24.9399
67.7749 637 25.2389
67.8923 647 25.4362
68.0096 618 24.8596
68.1269 657 25.632
68.2442 625 25
68.3614 589 24.2693
68.4787 626 25.02
68.5958 586 24.2074
68.713 627 25.04
68.8302 587 24.2281
68.9473 593 24.3516
69.0643 594 24.3721
69.1814 616 24.8193
69.2984 591 24.3105
69.4154 564 23.7487
69.5323 551 23.4734
69.6492 547 23.388
69.7661 531 23.0434
69.8829 599 24.4745
69.9997 575 23.9792
70.1165 608 24.6577
70.2332 616 24.8193
70.3499 602 24.5357
70.4665 566 23.7908
70.5831 489 22.1133
70.6996 469 21.6564
70.8161 425 20.6155
70.9326 364 19.0788
71.049 391 19.7737
71.1653 353 18.7883
71.2817 379 19.4679
71.3979 300 17.3205
71.5141 306 17.4929
71.6303 272 16.4924
71.7464 237 15.3948
71.8624 0 1
71.9784 0 1
72.0944 0 1
72.2102 0 1
72.3261 0 1
72.4418 0 1
72.5575 0 1
72.6732 0 1
75.1054 0 1
75.2209 0 1
75.3365 0 1
75.4521 0 1
75.5678 0 1
75.6835 0 1
75.7993 0 1
75.9151 0 1
76.031 0 1
76.147 355 18.8414
76.263 408 20.199
76.3791 501 22.383
76.4952 489 22.1133
76.6113 484 22
76.7276 493 22.2036
76.8438 492 22.1811
76.9601 555 23.5584
77.0765 506 22.4944
77.1929 497 22.2935
77.3093 535 23.1301
77.4258 527 22.9565
77.5423 547 23.388
77.6589 509 22.561
77.7755 541 23.2594
77.8921 543 23.3024
78.0088 508 22.5389
78.1256 505 22.4722
78.2423 503 22.4277
78.3591 451 21.2368
78.4759 490 22.1359
78.5928 446 21.1187
78.7097 468 21.6333
78.8266 465 21.5639
78.9436 503 22.4277
79.0606 487 22.0681
79.1776 472 21.7256
79.2946 511 22.6053
79.4117 494 22.2261
79.5288 504 22.4499
79.6459 550 23.4521
79.7631 533 23.0868
79.8802 515 22.6936
79.9974 507 22.5167
80.1147 532 23.0651
80.2319 532 23.0651
80.3491 542 23.2809
80.4664 569 23.8537
80.5837 539 23.2164
80.701 507 22.5167
80.8183 504 22.4499
80.9357 559 23.6432
81.053 532 23.0651
81.1704 561 23.6854
81.2877 561 23.6854
81.4051 592 24.3311
81.5225 579 24.0624
81.6399 579 24.0624
81.7573 533 23.0868
81.8747 500 22.3607
81.9922 523 22.8692
82.1096 457 21.3776
82.227 431 20.7605
82.3444 459 21.4243
82.4619 471 21.7025
82.5793 495 22.2486
82.6967 547 23.388
82.8142 504 22.4499
82.9316 514 22.6716
83.049 566 23.7908
83.1664 574 23.9583
83.2838 559 23.6432
83.4012 558 23.622
83.5186 587 24.2281
83.636 561 23.6854
83.7534 579 24.0624
83.8708 595 24.3926
83.9881 537 23.1733
84.1055 562 23.7065
84.2228 567 23.8118
84.3401 548 23.4094
84.4575 609 24.6779
84.5747 524 22.891
84.692 548 23.4094
84.8093 567 23.8118
84.9265 543 23.3024
85.0437 619 24.8797
85.1609 557 23.6008
85.2781 583 24.1454
85.3952 532 23.0651
85.5123 520 22.8035
85.6294 501 22.383
85.7465 536 23.1517
85.8636 472 21.7256
85.9806 548 23.4094
86.0976 520 22.8035
86.2145 527 22.9565
86.3315 562 23.7065
86.4484 532 23.0651
86.5652 543 23.3024
86.682 611 24.7184
86.7988 577 24.0208
86.9156 556 23.5797
87.0323 592 24.3311
87.149 557 23.6008
87.2657 544 23.3238
87.3823 555 23.5584
87.4988 556 23.5797
87.6154 542 23.2809
87.7318 514 22.6716
87.8483 505 22.4722
87.9647 473 21.7486
88.081 446 21.1187
88.1973 395 19.8746
88.3136 406 20.1494
88.4298 360 18.9737
88.546 342 18.4932
88.6621 352 18.7617
88.7781 310 17.6068
88.8942 0 1
89.0101 0 1
89.126 0 1
89.2419 0 1
89.3577 0 1
89.4734 0 1
89.5891 0 1
89.7047 0 1
89.8203 0 1
89.9358 0 1
92.3269 0 1
92.4424 0 1
92.558 0 1
92.6736 0 1
92.7893 0 1
92.905 0 1
93.0208 0 1
93.1366 0 1
93.2525 0 1
93.3685 0 1
93.4845 0 1
93.6005 471 21.7025
93.7167 513 22.6495
93.8328 578 24.0416
93.949 565 23.7697
94.0653 568 23.8328
94.1816 583 24.1454
94.2979 584 24.1661
94.4143 569 23.8537
94.5307 559 23.6432
94.6472 550 23.4521
94.7637 535 23.1301
94.8803 507 22.5167
94.9969 525 22.9129
95.1135 536 23.1517
95.2302 540 23.2379
95.3469 578 24.0416
95.4637 603 24.5561
95.5805 613 24.7588
95.6973 597 24.4336
95.8142 638 25.2587
95.9311 621 24.9199
96.048 585 24.1868
96.1649 610 24.6982
96.2819 651 25.5147
96.3989 581 24.1039
96.516 633 25.1595
96.633 599 24.4745
96.7501 561 23.6854
96.8673 605 24.5967
96.9844 631 25.1197
97.1016 583 24.1454
97.2188 574 23.9583
97.336 589 24.2693
97.4532 626 25.02
97.5704 599 24.4745
97.6877 557 23.6008
97.805 569 23.8537
97.9223 593 24.3516
98.0396 609 24.6779
98.1569 591 24.3105
98.2743 560 23.6643
98.3916 539 23.2164
98.509 549 23.4307
98.6264 531 23.0434
98.7438 610 24.6982
98.8612 565 23.7697
98.9786 599 24.4745
99.096 616 24.8193
99.2134 683 26.1343
99.3308 625 25
99.4482 704 26.533
99.5656 628 25.0599
99.6831 670 25.8844
99.8005 600 24.4949
99.9179 650 25.4951
100.035 666 25.807
100.153 678 26.0384
100.27 641 25.318
100.388 662 25.7294
100.505 603 24.5561
100.622 623 24.96
100.74 590 24.2899
100.857 610 24.6982
100.975 586 24.2074
101.092 629 25.0799
101.209 610 24.6982
101.327 636 25.219
101.444 616 24.8193
101.561 613 24.7588
101.679 661 25.7099
101.796 643 25.3574
101.913 644 25.3772
102.03 590 24.2899
102.148 609 24.6779
102.265 595 24.3926
102.382 631 25.1197
102.499 640 25.2982
102.616 658 25.6515
102.733 643 25.3574
102.851 722 26.8701
102.968 703 26.5141
103.085 683 26.1343
103.202 745 27.2947
103.319 675 25.9808
103.436 638 25.2587
103.552 653 25.5539
103.669 656 25.6125
103.786 678 26.0384
103.903 638 25.2587
104.02 689 26.2488
104.137 685 26.1725
104.253 664 25.7682
104.37 664 25.7682
104.487 672 25.923
104.603 677 26.0192
104.72 638 25.2587
104.836 559 23.6432
104.953 626 25.02
105.069 625 25
105.186 560 23.6643
105.302 511 22.6053
105.418 487 22.0681
105.535 451 21.2368
105.651 425 20.6155
105.767 394 19.8494
105.883 368 19.1833
105.999 312 17.6635
106.115 0 1
106.231 0 1
106.347 0 1
106.463 0 1
106.579 0 1
106.694 0 1
106.81 0 1
106.926 0 1
107.041 0 1
107.157 0 1
109.576 0 1
109.692 0 1
109.807 0 1
109.923 0 1
110.039 0 1
110.155 0 1
110.27 0 1
110.386 0 1
110.502 0 1
110.618 355 18.8414
110.735 412 20.2978
110.851 416 20.3961
110.967 463 21.5174
111.083 467 21.6102
111.199 542 23.2809
111.316 570 23.8747
111.432 641 25.318
111.549 627 25.04
111.665 620 24.8998
111.782 651 25.5147
111.898 644 25.3772
112.015 665 25.7876
112.132 610 24.6982
112.248 579 24.0624
112.365 598 24.454
112.482 661 25.7099
112.599 592 24.3311
112.716 604 24.5764
112.832 608 24.6577
112.949 571 23.8956
113.066 597 24.4336
113.183 594 24.3721
113.3 636 25.219
113.417 568 23.8328
113.534 552 23.4947
113.652 547 23.388
113.769 513 22.6495
113.886 539 23.2164
114.003 525 22.9129
114.12 563 23.7276
114.238 592 24.3311
114.355 600 24.4949
114.472 579 24.0624
114.589 547 23.388
114.707 518 22.7596
114.824 542 23.2809
114.942 595 24.3926
115.059 607 24.6374
115.176 615 24.7992
115.294 573 23.9374
115.411 549 23.4307
115.529 587 24.2281
115.646 559 23.6432
115.764 603 24.5561
115.881 594 24.3721
115.999 579 24.0624
116.116 541 23.2594
116.234 557 23.6008
116.351 585 24.1868
116.469 552 23.4947
116.586 550 23.4521
116.704 521 22.8254
116.821 513 22.6495
116.939 560 23.6643
117.056 501 22.383
117.174 522 22.8473
117.291 522 22.8473
117.409 492 22.1811
117.526 519 22.7816
117.644 564 23.7487
117.761 525 22.9129
117.879 522 22.8473
117.996 509 22.561
118.114 522 22.8473
118.231 462 21.4942
118.349 550 23.4521
118.466 554 23.5372
118.584 573 23.9374
118.701 552 23.4947
118.819 519 22.7816
118.936 540 23.2379
119.053 558 23.622
119.171 539 23.2164
119.288 522 22.8473
119.405 547 23.388
119.523 546 23.3666
119.64 500 22.3607
119.757 517 22.7376
119.875 516 22.7156
119.992 527 22.9565
120.109 536 23.1517
120.226 501 22.383
120.343 488 22.0907
120.46 523 22.8692
120.578 443 21.0476
120.695 470 21.6795
120.812 439 20.9523
120.929 484 22
121.046 458 21.4009
121.163 483 21.9773
121.279 476 21.8174
121.396 463 21.5174
121.513 460 21.4476
121.63 486 22.0454
121.747 451 21.2368
121.863 471 21.7025
121.98 435 20.8567
122.097 391 19.7737
122.213 425 20.6155
122.33 418 20.445
122.446 389 19.7231
122.563 364 19.0788
122.679 353 18.7883
122.795 287 16.9411
122.912 283 16.8226
123.028 290 17.0294
123.144 312 17.6635
123.26 276 16.6132
123.377 0 1
123.493 0 1
123.609 0 1
123.725 0 1
123.84 0 1
123.956 0 1
124.072 0 1
124.188 0 1
124.303 0 1
124.419 0 1
126.852 0 1
126.968 0 1
127.083 0 1
127.199 0 1
127.315 0 1
127.431 0 1
127.547 0 1
127.663 0 1
127.779 0 1
127.895 0 1
128.011 0 1
128.127 0 1
128.243 0 1
128.359 531 23.0434
128.476 528 22.9783
128.592 551 23.4734
128.708 569 23.8537
128.825 544 23.3238
128.941 568 23.8328
129.058 593 24.3516
129.174 584 24.1661
129.291 566 23.7908
129.408 594 24.3721
129.524 569 23.8537
129.641 542 23.2809
129.758 539 23.2164
129.875 532 23.0651
129.992 523 22.8692
130.108 516 22.7156
130.225 562 23.7065
130.342 555 23.5584
130.459 637 25.2389
130.576 647 25.4362
130.693 662 25.7294
130.81 644 25.3772
130.928 673 25.9422
131.045 682 26.1151
131.162 744 27.2764
131.279 862 29.3598
131.396 875 29.5804
131.513 879 29.6479
131.631 843 29.0345
131.748 863 29.3769
131.865 964 31.0483
131.983 968 31.1127
132.1 1040 32.249
132.217 1064 32.619
132.335 1081 32.8786
132.452 1083 32.909
132.57 1167 34.1614
132.687 1203 34.6843
132.804 1268 35.609
132.922 1243 35.2562
133.039 1225 35
133.157 1310 36.1939
133.274 1318 36.3043
133.392 1311 36.2077
133.509 1330 36.4692
133.627 1236 35.1568
133.744 1263 35.5387
133.862 1338 36.5787
133.979 1304 36.1109
134.097 1331 36.4829
134.214 1353 36.7831
134.332 1280 35.7771
134.449 1222 34.9571
134.567 1275 35.7071
134.684 1191 34.5109
134.802 1285 35.8469
134.919 1352 36.7696
135.037 1328 36.4417
135.154 1250 35.3553
135.272 1139 33.7491
135.389 1271 35.6511
135.507 1341 36.6197
135.624 1380 37.1484
135.742 1388 37.2559
135.859 1404 37.47
135.977 1441 37.9605
136.094 1488 38.5746
136.211 1466 38.2884
136.329 1454 38.1314
136.446 1412 37.5766
136.564 1492 38.6264
136.681 1492 38.6264
136.798 1460 38.2099
136.915 1372 37.0405
137.033 1420 37.6829
137.15 1376 37.0945
137.267 1354 36.7967
137.384 1331 36.4829
137.502 1284 35.8329
137.619 1338 36.5787
137.736 1308 36.1663
137.853 1271 35.6511
137.97 1237 35.171
138.087 1280 35.7771
138.204 1268 35.609
138.321 1201 34.6554
138.438 1237 35.171
138.555 1275 35.7071
138.672 1269 35.623
138.788 1194 34.5543
138.905 1018 31.9061
139.022 1133 33.6601
139.139 1155 33.9853
139.255 1196 34.5832
139.372 1171 34.2199
139.488 1116 33.4066
139.605 1093 33.0606
139.721 971 31.1609
139.838 905 30.0832
139.954 782 27.9643
140.071 772 27.7849
140.187 808 28.4253
140.303 694 26.3439
140.419 681 26.096
140.535 704 26.533
140.652 592 24.3311
140.768 0 1
140.884 0 1
141 0 1
141.115 0 1
141.231 0 1
141.347 0 1
141.463 0 1
141.578 0 1
141.694 0 1
144.104 0 1
144.219 0 1
144.335 0 1
144.45 0 1
144.566 0 1
144.682 0 1
144.798 0 1
144.914 0 1
145.03 0 1
145.146 1160 34.0588
145.262 1193 34.5398
145.378 1216 34.8712
145.494 1240 35.2136
145.61 1303 36.0971
145.726 1243 35.2562
145.842 1296 36
145.959 1424 37.7359
146.075 1295 35.9861
146.192 1260 35.4965
146.308 1264 35.5528
146.425 1220 34.9285
146.541 1209 34.7707
146.658 1359 36.8646
146.774 1420 37.6829
146.891 1411 37.5633
147.008 1475 38.4057
147.125 1397 37.3765
147.241 1474 38.3927
147.358 1512 38.8844
147.475 1428 37.7889
147.592 1429 37.8021
147.709 1249 35.3412
147.826 1275 35.7071
147.943 1362 36.9053
148.06 1394 37.3363
148.177 1432 37.8418
148.294 1442 37.9737
148.411 1433 37.855
148.528 1405 37.4833
148.645 1398 37.3898
148.762 1368 36.9865
148.88 1336 36.5513
148.997 1376 37.0945
149.114 1308 36.1663
149.231 1298 36.0278
149.349 1329 36.4555
149.466 1300 36.0555
149.583 1231 35.0856
149.701 1230 35.0714
149.818 1103 33.2114
149.935 1176 34.2929
150.053 1148 33.8821
150.17 1199 34.6266
150.287 1225 35
150.405 1249 35.3412
150.522 1209 34.7707
150.64 1256 35.4401
150.757 1172 34.2345
150.875 1214 34.8425
150.992 1181 34.3657
151.11 1188 34.4674
151.227 1106 33.2566
151.344 1107 33.2716
151.462 1000 31.6228
151.579 1128 33.5857
151.697 1137 33.7194
151.814 1193 34.5398
151.932 1230 35.0714
152.049 1173 34.2491
152.167 1156 34
152.284 1191 34.5109
152.402 1199 34.6266
152.519 1141 33.7787
152.636 1158 34.0294
152.754 1144 33.8231
152.871 1195 34.5688
152.989 1141 33.7787
153.106 1109 33.3017
153.223 998 31.5911
153.341 987 31.4166
153.458 981 31.3209
153.575 1006 31.7175
153.693 1009 31.7648
153.81 1014 31.8434
153.927 1022 31.9687
154.044 1013 31.8277
154.162 1057 32.5115
154.279 890 29.8329
154.396 994 31.5278
154.513 913 30.2159
154.63 946 30.7571
154.747 957 30.9354
154.864 953 30.8707
154.981 868 29.4618
155.098 888 29.7993
155.215 902 30.0333
155.332 911 30.1828
155.449 947 30.7734
155.566 995 31.5436
155.683 1035 32.1714
155.8 995 31.5436
155.917 1013 31.8277
156.033 942 30.692
156.15 0 1
156.267 0 1
156.383 0 1
156.5 0 1
156.617 0 1
156.733 0 1
156.85 0 1
156.966 0 1
157.082 0 1
157.199 0 1
157.315 0 1
157.431 0 1
157.547 0 1
157.664 0 1
157.78 0 1
157.896 0 1
158.012 0 1
158.128 0 1
158.244 0 1
158.359 0 1
158.475 0 1
158.591 0 1
158.706 0 1
