
6.15755 0 1
6.2731 0 1
6.3887 0 1
6.50437 0 1
6.62009 0 1
6.73587 0 1
6.8517 0 1
6.96759 0 1
7.08353 0 1
7.19952 0 1
7.31557 0 1
7.43166 0 1
7.54781 0 1
7.664 0 1
7.78024 0 1
7.89653 0 1
8.01286 0 1
8.12924 0 1
8.24567 0 1
8.36213 0 1
8.47864 0 1
8.59519 0 1
8.71178 0 1
8.82841 0 1
8.94508 0 1
9.06179 0 1
9.17853 0 1
9.29531 0 1
9.41212 0 1
9.52897 0 1
9.64584 0 1
9.76276 0 1
9.8797 0 1
9.99667 0 1
10.1137 0 1
10.2307 0 1
10.3478 0 1
10.4648 0 1
10.5819 0 1
10.6991 0 1
10.8162 0 1
10.9334 0 1
11.0506 0 1
11.1678 0 1
11.285 0 1
11.4023 0 1
11.5196 0 1
11.6369 0 1
11.7542 0 1
11.8715 0 1
11.9888 0 1
12.1062 0 1
12.2235 0 1
12.3409 0 1
12.4582 0 1
12.5756 0 1
12.693 0 1
12.8104 0 1
12.9278 0 1
13.0452 0 1
13.1626 0 1
13.28 0 1
13.3974 0 1
13.5149 0 1
13.6323 0 1
13.7497 0 1
13.8671 0 1
13.9845 0 1
14.1019 0 1
14.2193 0 1
14.3367 0 1
14.4541 0 1
14.5714 0 1
14.6888 0 1
14.8062 0 1
14.9235 0 1
15.0408 0 0
15.1581 0 0
15.2755 0 0
15.3927 0 0
15.51 0 0
15.6273 0 0
15.7445 0 0
15.8617 0 0
15.9789 0 0
16.0961 0 0
16.2132 0 0
16.3304 0 0
16.4475 0 0
16.5646 0 0
16.6816 0 0
16.7986 0 0
16.9156 0 0
17.0326 0 0
17.1496 0 0
17.2665 0 0
17.3833 0 0
17.5002 0 0
17.617 0 0
17.7338 0 0
17.8505 0 0
17.9672 0 0
18.0839 0 0
18.2005 0 0
18.3171 0 0
18.4337 0 0
18.5502 0 0
18.6666 0 0
18.7831 0 0
18.8994 0 0
19.0158 0 0
19.1321 0 0
19.2483 0 0
19.3645 0 0
19.4806 0 0
19.5967 0 0
19.7128 0 0
19.8288 0 0
19.9447 0 0
20.0606 0 1
20.1764 0 1
20.2922 0 1
20.4079 0 1
20.5236 0 1
20.6392 0 1
20.7548 0 1
20.8702 0 1
23.3078 0 1
23.4233 0 1
23.539 0 1
23.6547 0 1
23.7704 0 1
23.8862 0 1
24.0021 0 1
24.118 0 1
24.234 0 1
24.35 0 1
24.4661 409 20.2237
24.5822 434 20.8327
24.6984 413 20.3224
24.8146 418 20.445
24.9309 439 20.9523
25.0472 442 21.0238
25.1636 409 20.2237
25.28 426 20.6398
25.3965 440 20.9762
25.513 463 21.5174
25.6296 445 21.095
25.7462 478 21.8632
25.8628 415 20.3715
25.9795 455 21.3307
26.0962 452 21.2603
26.213 419 20.4695
26.3298 445 21.095
26.4466 453 21.2838
26.5635 420 20.4939
26.6804 459 21.4243
26.7973 415 20.3715
26.9143 419 20.4695
27.0313 399 19.975
27.1483 393 19.8242
27.2653 367 19.1572
27.3824 392 19.799
27.4996 428 20.6882
27.6167 414 20.347
27.7339 390 19.7484
27.8511 419 20.4695
27.9683 389 19.7231
28.0855 398 19.9499
28.2028 429 20.7123
28.3201 397 19.9249
28.4374 397 19.9249
28.5547 411 20.2731
28.6721 401 20.025
28.7894 415 20.3715
28.9068 416 20.3961
29.0242 445 21.095
29.1416 452 21.2603
29.259 430 20.7364
29.3764 403 20.0749
29.4939 436 20.8806
29.6113 413 20.3224
29.7288 403 20.0749
29.8463 432 20.7846
29.9638 415 20.3715
30.0812 444 21.0713
30.1987 398 19.9499
30.3162 364 19.0788
30.4337 386 19.6469
30.5512 352 18.7617
30.6687 343 18.5203
30.7862 349 18.6815
30.9037 349 18.6815
31.0212 377 19.4165
31.1387 362 19.0263
31.2562 344 18.5472
31.3737 363 19.0526
31.4912 347 18.6279
31.6087 336 18.3303
31.7262 375 19.3649
31.8436 344 18.5472
31.9611 373 19.3132
32.0785 438 20.9284
32.1959 406 20.1494
32.3134 394 19.8494
32.4308 393 19.8242
32.5482 364 19.0788
32.6655 453 21.2838
32.7829 419 20.4695
32.9002 398 19.9499
33.0176 446 21.1187
33.1349 412 20.2978
33.2522 393 19.8242
33.3694 411 20.2731
33.4867 423 20.567
33.6039 404 20.0998
33.7211 441 21
33.8383 430 20.7364
33.9554 421 20.5183
34.0725 353 18.7883
34.1896 367 19.1572
34.3067 319 17.8606
34.4237 338 18.3848
34.5407 334 18.2757
34.6577 362 19.0263
34.7746 356 18.868
34.8915 371 19.2614
35.0084 359 18.9473
35.1252 330 18.1659
35.242 357 18.8944
35.3587 352 18.7617
35.4755 349 18.6815
35.5921 365 19.105
35.7088 399 19.975
35.8254 394 19.8494
35.9419 420 20.4939
36.0584 406 20.1494
36.1749 370 19.2354
36.2913 403 20.0749
36.4077 374 19.3391
36.524 377 19.4165
36.6403 354 18.8149
36.7565 394 19.8494
36.8727 369 19.2094
36.9889 404 20.0998
37.1049 388 19.6977
37.221 0 1
37.3369 0 1
37.4529 0 1
37.5687 0 1
37.6845 0 1
37.8003 0 1
37.916 0 1
38.0316 0 1
38.1472 0 1
40.5851 0 1
40.7008 0 1
40.8164 0 1
40.9322 0 1
41.048 0 1
41.1639 0 1
41.2798 0 1
41.3958 0 1
41.5118 0 1
41.6279 0 1
41.744 341 18.4662
41.8602 332 18.2209
41.9765 336 18.3303
42.0928 339 18.412
42.2091 309 17.5784
42.3255 377 19.4165
42.4419 354 18.8149
42.5584 324 18
42.675 357 18.8944
42.7915 311 17.6352
42.9081 337 18.3576
43.0248 302 17.3781
43.1415 290 17.0294
43.2582 269 16.4012
43.375 289 17
43.4918 318 17.8326
43.6087 332 18.2209
43.7256 311 17.6352
43.8425 267 16.3401
43.9595 267 16.3401
44.0765 320 17.8885
44.1935 275 16.5831
44.3106 313 17.6918
44.4277 299 17.2916
44.5448 303 17.4069
44.6619 287 16.9411
44.7791 320 17.8885
44.8963 307 17.5214
45.0136 269 16.4012
45.1308 277 16.6433
45.2481 298 17.2627
45.3654 307 17.5214
45.4827 268 16.3707
45.6001 276 16.6132
45.7174 275 16.5831
45.8348 297 17.2337
45.9522 253 15.906
46.0697 242 15.5563
46.1871 248 15.748
46.3046 278 16.6733
46.422 260 16.1245
46.5395 228 15.0997
46.657 217 14.7309
46.7745 229 15.1327
46.892 189 13.7477
47.0096 230 15.1658
47.1271 237 15.3948
47.2446 227 15.0665
47.3622 225 15
47.4797 214 14.6287
47.5973 229 15.1327
47.7149 197 14.0357
47.8324 213 14.5945
47.95 231 15.1987
48.0675 214 14.6287
48.1851 211 14.5258
48.3027 199 14.1067
48.4202 200 14.1421
48.5378 229 15.1327
48.6554 221 14.8661
48.7729 224 14.9666
48.8904 231 15.1987
49.008 207 14.3875
49.1255 216 14.6969
49.243 232 15.2315
49.3605 204 14.2829
49.478 222 14.8997
49.5955 227 15.0665
49.713 226 15.0333
49.8304 225 15
49.9479 242 15.5563
50.0653 220 14.8324
50.1827 217 14.7309
50.3001 210 14.4914
50.4175 198 14.0712
50.5348 225 15
50.6521 219 14.7986
50.7694 266 16.3095
50.8867 223 14.9332
51.004 229 15.1327
51.1212 234 15.2971
51.2384 251 15.843
51.3556 255 15.9687
51.4727 243 15.5885
51.5899 251 15.843
51.707 277 16.6433
51.824 270 16.4317
51.9411 267 16.3401
52.0581 277 16.6433
52.175 280 16.7332
52.2919 290 17.0294
52.4088 305 17.4642
52.5257 307 17.5214
52.6425 269 16.4012
52.7593 290 17.0294
52.876 302 17.3781
52.9927 284 16.8523
53.1094 322 17.9444
53.226 308 17.5499
53.3426 306 17.4929
53.4591 322 17.9444
53.5756 322 17.9444
53.692 301 17.3494
53.8084 308 17.5499
53.9248 280 16.7332
54.0411 236 15.3623
54.1573 262 16.1864
54.2735 0 1
54.3896 0 1
54.5057 0 1
54.6217 0 1
54.7377 0 1
54.8537 0 1
54.9695 0 1
55.0853 0 1
55.2011 0 1
55.3168 0 1
55.4324 0 1
57.824 0 1
57.9396 0 1
58.0553 0 1
58.1711 0 1
58.2869 0 1
58.4028 0 1
58.5187 0 1
58.6347 0 1
58.7508 0 1
58.8669 0 1
58.983 327 18.0831
59.0992 298 17.2627
59.2155 300 17.3205
59.3318 302 17.3781
59.4482 323 17.9722
59.5646 316 17.7764
59.681 302 17.3781
59.7975 298 17.2627
59.9141 350 18.7083
60.0306 325 18.0278
60.1473 316 17.7764
60.2639 355 18.8414
60.3807 317 17.8045
60.4974 307 17.5214
60.6142 347 18.6279
60.731 293 17.1172
60.8479 366 19.1311
60.9648 332 18.2209
61.0818 317 17.8045
61.1987 320 17.8885
61.3158 309 17.5784
61.4328 297 17.2337
61.5499 288 16.9706
61.667 328 18.1108
61.7841 347 18.6279
61.9013 310 17.6068
62.0185 289 17
62.1357 292 17.088
62.253 297 17.2337
62.3702 278 16.6733
62.4875 286 16.9115
62.6049 266 16.3095
62.7222 262 16.1864
62.8396 232 15.2315
62.9569 271 16.4621
63.0743 239 15.4596
63.1918 286 16.9115
63.3092 296 17.2047
63.4267 289 17
63.5441 277 16.6433
63.6616 258 16.0624
63.7791 272 16.4924
63.8966 288 16.9706
64.0142 291 17.0587
64.1317 289 17
64.2492 276 16.6132
64.3668 280 16.7332
64.4843 272 16.4924
64.6019 268 16.3707
64.7195 273 16.5227
64.837 278 16.6733
64.9546 224 14.9666
65.0722 251 15.843
65.1898 268 16.3707
65.3074 250 15.8114
65.4249 233 15.2643
65.5425 260 16.1245
65.6601 250 15.8114
65.7777 301 17.3494
65.8952 243 15.5885
66.0128 269 16.4012
66.1304 280 16.7332
66.2479 226 15.0333
66.3655 239 15.4596
66.483 230 15.1658
66.6005 224 14.9666
66.718 199 14.1067
66.8355 231 15.1987
66.953 245 15.6525
67.0705 238 15.4272
67.1879 247 15.7162
67.3054 255 15.9687
67.4228 253 15.906
67.5402 267 16.3401
67.6576 231 15.1987
67.7749 254 15.9374
67.8923 262 16.1864
68.0096 253 15.906
68.1269 263 16.2173
68.2442 257 16.0312
68.3614 219 14.7986
68.4787 242 15.5563
68.5958 253 15.906
68.713 251 15.843
68.8302 232 15.2315
68.9473 256 16
69.0643 249 15.7797
69.1814 228 15.0997
69.2984 248 15.748
69.4154 251 15.843
69.5323 255 15.9687
69.6492 240 15.4919
69.7661 229 15.1327
69.8829 245 15.6525
69.9997 207 14.3875
70.1165 186 13.6382
70.2332 205 14.3178
70.3499 206 14.3527
70.4665 222 14.8997
70.5831 215 14.6629
70.6996 235 15.3297
70.8161 214 14.6287
70.9326 230 15.1658
71.049 236 15.3623
71.1653 216 14.6969
71.2817 201 14.1774
71.3979 198 14.0712
71.5141 211 14.5258
71.6303 197 14.0357
71.7464 187 13.6748
71.8624 0 1
71.9784 0 1
72.0944 0 1
72.2102 0 1
72.3261 0 1
72.4418 0 1
72.5575 0 1
72.6732 0 1
75.1054 0 1
75.2209 0 1
75.3365 0 1
75.4521 0 1
75.5678 0 1
75.6835 0 1
75.7993 0 1
75.9151 0 1
76.031 0 1
76.147 158 12.5698
76.263 175 13.2288
76.3791 174 13.1909
76.4952 180 13.4164
76.6113 189 13.7477
76.7276 180 13.4164
76.8438 174 13.1909
76.9601 179 13.3791
77.0765 170 13.0384
77.1929 171 13.0767
77.3093 159 12.6095
77.4258 161 12.6886
77.5423 161 12.6886
77.6589 173 13.1529
77.7755 163 12.7671
77.8921 137 11.7047
78.0088 173 13.1529
78.1256 139 11.7898
78.2423 165 12.8452
78.3591 160 12.6491
78.4759 127 11.2694
78.5928 148 12.1655
78.7097 155 12.4499
78.8266 174 13.1909
78.9436 137 11.7047
79.0606 121 11
79.1776 97 9.84886
79.2946 93 9.64365
79.4117 106 10.2956
79.5288 124 11.1355
79.6459 134 11.5758
79.7631 129 11.3578
79.8802 121 11
79.9974 131 11.4455
80.1147 107 10.3441
80.2319 113 10.6301
80.3491 111 10.5357
80.4664 98 9.89949
80.5837 93 9.64365
80.701 103 10.1489
80.8183 101 10.0499
80.9357 94 9.69536
81.053 81 9
81.1704 97 9.84886
81.2877 84 9.16515
81.4051 99 9.94987
81.5225 88 9.38083
81.6399 89 9.43398
81.7573 62 7.87401
81.8747 62 7.87401
81.9922 78 8.83176
82.1096 69 8.30662
82.227 66 8.12404
82.3444 72 8.48528
82.4619 77 8.77496
82.5793 60 7.74597
82.6967 49 7
82.8142 61 7.81025
82.9316 47 6.85565
83.049 58 7.61577
83.1664 48 6.9282
83.2838 47 6.85565
83.4012 59 7.68115
83.5186 47 6.85565
83.636 51 7.14143
83.7534 40 6.32456
83.8708 38 6.16441
83.9881 38 6.16441
84.1055 45 6.7082
84.2228 38 6.16441
84.3401 30 5.47723
84.4575 26 5.09902
84.5747 20 4.47214
84.692 30 5.47723
84.8093 31 5.56776
84.9265 32 5.65685
85.0437 33 5.74456
85.1609 36 6
85.2781 22 4.69042
85.3952 29 5.38516
85.5123 30 5.47723
85.6294 24 4.89898
85.7465 24 4.89898
85.8636 25 5
85.9806 33 5.74456
86.0976 28 5.2915
86.2145 25 5
86.3315 27 5.19615
86.4484 43 6.55744
86.5652 41 6.40312
86.682 37 6.08276
86.7988 41 6.40312
86.9156 34 5.83095
87.0323 32 5.65685
87.149 40 6.32456
87.2657 62 7.87401
87.3823 48 6.9282
87.4988 56 7.48331
87.6154 42 6.48074
87.7318 53 7.28011
87.8483 56 7.48331
87.9647 57 7.54983
88.081 51 7.14143
88.1973 63 7.93725
88.3136 76 8.7178
88.4298 57 7.54983
88.546 63 7.93725
88.6621 72 8.48528
88.7781 77 8.77496
88.8942 0 1
89.0101 0 1
89.126 0 1
89.2419 0 1
89.3577 0 1
89.4734 0 1
89.5891 0 1
89.7047 0 1
89.8203 0 1
89.9358 0 1
92.3269 0 1
92.4424 0 1
92.558 0 1
92.6736 0 1
92.7893 0 1
92.905 0 1
93.0208 0 1
93.1366 0 1
93.2525 0 1
93.3685 0 1
93.4845 0 1
93.6005 100 10
93.7167 118 10.8628
93.8328 138 11.7473
93.949 106 10.2956
94.0653 125 11.1803
94.1816 117 10.8167
94.2979 102 10.0995
94.4143 105 10.247
94.5307 110 10.4881
94.6472 108 10.3923
94.7637 102 10.0995
94.8803 89 9.43398
94.9969 76 8.7178
95.1135 98 9.89949
95.2302 85 9.21954
95.3469 97 9.84886
95.4637 82 9.05539
95.5805 69 8.30662
95.6973 88 9.38083
95.8142 110 10.4881
95.9311 110 10.4881
96.048 105 10.247
96.1649 84 9.16515
96.2819 109 10.4403
96.3989 128 11.3137
96.516 137 11.7047
96.633 125 11.1803
96.7501 137 11.7047
96.8673 144 12
96.9844 127 11.2694
97.1016 141 11.8743
97.2188 153 12.3693
97.336 132 11.4891
97.4532 169 13
97.5704 163 12.7671
97.6877 160 12.6491
97.805 162 12.7279
97.9223 155 12.4499
98.0396 139 11.7898
98.1569 174 13.1909
98.2743 172 13.1149
98.3916 191 13.8203
98.509 168 12.9615
98.6264 175 13.2288
98.7438 194 13.9284
98.8612 164 12.8062
98.9786 184 13.5647
99.096 126 11.225
99.2134 123 11.0905
99.3308 182 13.4907
99.4482 200 14.1421
99.5656 218 14.7648
99.6831 213 14.5945
99.8005 194 13.9284
99.9179 214 14.6287
100.035 221 14.8661
100.153 198 14.0712
100.27 253 15.906
100.388 212 14.5602
100.505 228 15.0997
100.622 245 15.6525
100.74 245 15.6525
100.857 222 14.8997
100.975 238 15.4272
101.092 238 15.4272
101.209 224 14.9666
101.327 263 16.2173
101.444 240 15.4919
101.561 259 16.0935
101.679 209 14.4568
101.796 263 16.2173
101.913 267 16.3401
102.03 264 16.2481
102.148 257 16.0312
102.265 258 16.0624
102.382 242 15.5563
102.499 242 15.5563
102.616 207 14.3875
102.733 157 12.53
102.851 212 14.5602
102.968 243 15.5885
103.085 269 16.4012
103.202 278 16.6733
103.319 261 16.1555
103.436 262 16.1864
103.552 276 16.6132
103.669 239 15.4596
103.786 261 16.1555
103.903 257 16.0312
104.02 269 16.4012
104.137 256 16
104.253 252 15.8745
104.37 277 16.6433
104.487 269 16.4012
104.603 267 16.3401
104.72 268 16.3707
104.836 259 16.0935
104.953 282 16.7929
105.069 290 17.0294
105.186 274 16.5529
105.302 281 16.7631
105.418 255 15.9687
105.535 277 16.6433
105.651 243 15.5885
105.767 276 16.6132
105.883 242 15.5563
105.999 216 14.6969
106.115 0 1
106.231 0 1
106.347 0 1
106.463 0 1
106.579 0 1
106.694 0 1
106.81 0 1
106.926 0 1
107.041 0 1
107.157 0 1
109.576 0 1
109.692 0 1
109.807 0 1
109.923 0 1
110.039 0 1
110.155 0 1
110.27 0 1
110.386 0 1
110.502 0 1
110.618 215 14.6629
110.735 212 14.5602
110.851 218 14.7648
110.967 212 14.5602
111.083 189 13.7477
111.199 173 13.1529
111.316 167 12.9228
111.432 197 14.0357
111.549 201 14.1774
111.665 177 13.3041
111.782 183 13.5277
111.898 187 13.6748
112.015 185 13.6015
112.132 191 13.8203
112.248 170 13.0384
112.365 178 13.3417
112.482 180 13.4164
112.599 176 13.2665
112.716 189 13.7477
112.832 185 13.6015
112.949 163 12.7671
113.066 178 13.3417
113.183 155 12.4499
113.3 173 13.1529
113.417 161 12.6886
113.534 172 13.1149
113.652 154 12.4097
113.769 176 13.2665
113.886 159 12.6095
114.003 155 12.4499
114.12 125 11.1803
114.238 131 11.4455
114.355 132 11.4891
114.472 131 11.4455
114.589 167 12.9228
114.707 125 11.1803
114.824 104 10.198
114.942 121 11
115.059 146 12.083
115.176 152 12.3288
115.294 145 12.0416
115.411 156 12.49
115.529 146 12.083
115.646 135 11.619
115.764 133 11.5326
115.881 131 11.4455
115.999 150 12.2474
116.116 143 11.9583
116.234 104 10.198
116.351 152 12.3288
116.469 150 12.2474
116.586 145 12.0416
116.704 147 12.1244
116.821 145 12.0416
116.939 152 12.3288
117.056 145 12.0416
117.174 159 12.6095
117.291 119 10.9087
117.409 150 12.2474
117.526 147 12.1244
117.644 120 10.9545
117.761 127 11.2694
117.879 139 11.7898
117.996 127 11.2694
118.114 120 10.9545
118.231 122 11.0454
118.349 146 12.083
118.466 136 11.6619
118.584 136 11.6619
118.701 136 11.6619
118.819 131 11.4455
118.936 164 12.8062
119.053 158 12.5698
119.171 169 13
119.288 136 11.6619
119.405 125 11.1803
119.523 154 12.4097
119.64 145 12.0416
119.757 124 11.1355
119.875 126 11.225
119.992 160 12.6491
120.109 127 11.2694
120.226 149 12.2066
120.343 141 11.8743
120.46 139 11.7898
120.578 156 12.49
120.695 166 12.8841
120.812 148 12.1655
120.929 149 12.2066
121.046 164 12.8062
121.163 164 12.8062
121.279 146 12.083
121.396 147 12.1244
121.513 145 12.0416
121.63 116 10.7703
121.747 107 10.3441
121.863 130 11.4018
121.98 139 11.7898
122.097 137 11.7047
122.213 149 12.2066
122.33 140 11.8322
122.446 162 12.7279
122.563 129 11.3578
122.679 152 12.3288
122.795 151 12.2882
122.912 146 12.083
123.028 167 12.9228
123.144 157 12.53
123.26 171 13.0767
123.377 0 1
123.493 0 1
123.609 0 1
123.725 0 1
123.84 0 1
123.956 0 1
124.072 0 1
124.188 0 1
124.303 0 1
124.419 0 1
126.852 0 1
126.968 0 1
127.083 0 1
127.199 0 1
127.315 0 1
127.431 0 1
127.547 0 1
127.663 0 1
127.779 0 1
127.895 0 1
128.011 0 1
128.127 0 1
128.243 0 1
128.359 206 14.3527
128.476 194 13.9284
128.592 205 14.3178
128.708 214 14.6287
128.825 203 14.2478
128.941 190 13.784
129.058 220 14.8324
129.174 227 15.0665
129.291 220 14.8324
129.408 211 14.5258
129.524 208 14.4222
129.641 203 14.2478
129.758 221 14.8661
129.875 218 14.7648
129.992 237 15.3948
130.108 206 14.3527
130.225 184 13.5647
130.342 203 14.2478
130.459 186 13.6382
130.576 174 13.1909
130.693 152 12.3288
130.81 130 11.4018
130.928 172 13.1149
131.045 171 13.0767
131.162 206 14.3527
131.279 223 14.9332
131.396 203 14.2478
131.513 207 14.3875
131.631 220 14.8324
131.748 236 15.3623
131.865 219 14.7986
131.983 219 14.7986
132.1 240 15.4919
132.217 241 15.5242
132.335 241 15.5242
132.452 208 14.4222
132.57 246 15.6844
132.687 228 15.0997
132.804 226 15.0333
132.922 231 15.1987
133.039 225 15
133.157 226 15.0333
133.274 244 15.6205
133.392 213 14.5945
133.509 226 15.0333
133.627 242 15.5563
133.744 243 15.5885
133.862 258 16.0624
133.979 195 13.9642
134.097 190 13.784
134.214 162 12.7279
134.332 168 12.9615
134.449 175 13.2288
134.567 178 13.3417
134.684 218 14.7648
134.802 224 14.9666
134.919 246 15.6844
135.037 210 14.4914
135.154 245 15.6525
135.272 255 15.9687
135.389 240 15.4919
135.507 274 16.5529
135.624 257 16.0312
135.742 255 15.9687
135.859 214 14.6287
135.977 246 15.6844
136.094 275 16.5831
136.211 259 16.0935
136.329 267 16.3401
136.446 260 16.1245
136.564 268 16.3707
136.681 259 16.0935
136.798 268 16.3707
136.915 270 16.4317
137.033 288 16.9706
137.15 247 15.7162
137.267 237 15.3948
137.384 261 16.1555
137.502 242 15.5563
137.619 219 14.7986
137.736 196 14
137.853 195 13.9642
137.97 176 13.2665
138.087 229 15.1327
138.204 225 15
138.321 225 15
138.438 251 15.843
138.555 248 15.748
138.672 276 16.6132
138.788 259 16.0935
138.905 267 16.3401
139.022 297 17.2337
139.139 267 16.3401
139.255 300 17.3205
139.372 272 16.4924
139.488 304 17.4356
139.605 244 15.6205
139.721 293 17.1172
139.838 296 17.2047
139.954 282 16.7929
140.071 339 18.412
140.187 257 16.0312
140.303 275 16.5831
140.419 286 16.9115
140.535 278 16.6733
140.652 270 16.4317
140.768 0 1
140.884 0 1
141 0 1
141.115 0 1
141.231 0 1
141.347 0 1
141.463 0 1
141.578 0 1
141.694 0 1
144.104 0 1
144.219 0 1
144.335 0 1
144.45 0 1
144.566 0 1
144.682 0 1
144.798 0 1
144.914 0 1
145.03 0 1
145.146 252 15.8745
145.262 245 15.6525
145.378 280 16.7332
145.494 265 16.2788
145.61 306 17.4929
145.726 276 16.6132
145.842 266 16.3095
145.959 247 15.7162
146.075 239 15.4596
146.192 224 14.9666
146.308 233 15.2643
146.425 228 15.0997
146.541 208 14.4222
146.658 204 14.2829
146.774 195 13.9642
146.891 238 15.4272
147.008 235 15.3297
147.125 232 15.2315
147.241 242 15.5563
147.358 268 16.3707
147.475 262 16.1864
147.592 276 16.6132
147.709 284 16.8523
147.826 259 16.0935
147.943 286 16.9115
148.06 265 16.2788
148.177 257 16.0312
148.294 274 16.5529
148.411 274 16.5529
148.528 269 16.4012
148.645 240 15.4919
148.762 290 17.0294
148.88 272 16.4924
148.997 259 16.0935
149.114 286 16.9115
149.231 254 15.9374
149.349 260 16.1245
149.466 249 15.7797
149.583 262 16.1864
149.701 220 14.8324
149.818 236 15.3623
149.935 235 15.3297
150.053 224 14.9666
150.17 208 14.4222
150.287 235 15.3297
150.405 204 14.2829
150.522 208 14.4222
150.64 238 15.4272
150.757 230 15.1658
150.875 277 16.6433
150.992 265 16.2788
151.11 256 16
151.227 276 16.6132
151.344 279 16.7033
151.462 241 15.5242
151.579 268 16.3707
151.697 255 15.9687
151.814 279 16.7033
151.932 282 16.7929
152.049 289 17
152.167 283 16.8226
152.284 261 16.1555
152.402 264 16.2481
152.519 283 16.8226
152.636 277 16.6433
152.754 256 16
152.871 265 16.2788
152.989 275 16.5831
153.106 271 16.4621
153.223 250 15.8114
153.341 282 16.7929
153.458 252 15.8745
153.575 221 14.8661
153.693 225 15
153.81 223 14.9332
153.927 220 14.8324
154.044 228 15.0997
154.162 238 15.4272
154.279 266 16.3095
154.396 271 16.4621
154.513 288 16.9706
154.63 297 17.2337
154.747 288 16.9706
154.864 302 17.3781
154.981 285 16.8819
155.098 266 16.3095
155.215 291 17.0587
155.332 274 16.5529
155.449 281 16.7631
155.566 304 17.4356
155.683 266 16.3095
155.8 279 16.7033
155.917 302 17.3781
156.033 323 17.9722
156.15 0 1
156.267 0 1
156.383 0 1
156.5 0 1
156.617 0 1
156.733 0 1
156.85 0 1
156.966 0 1
157.082 0 1
157.199 0 1
157.315 0 1
157.431 0 1
157.547 0 1
157.664 0 1
157.78 0 1
157.896 0 1
158.012 0 1
158.128 0 1
158.244 0 1
158.359 0 1
158.475 0 1
158.591 0 1
158.706 0 1
