
6.15755 0 1
6.2731 0 1
6.3887 0 1
6.50437 0 1
6.62009 0 1
6.73587 0 1
6.8517 0 1
6.96759 0 1
7.08353 0 1
7.19952 0 1
7.31557 0 1
7.43166 0 1
7.54781 0 1
7.664 0 1
7.78024 0 1
7.89653 0 1
8.01286 0 1
8.12924 0 1
8.24567 0 1
8.36213 0 1
8.47864 0 1
8.59519 0 1
8.71178 0 1
8.82841 0 1
8.94508 0 1
9.06179 0 1
9.17853 0 1
9.29531 0 1
9.41212 0 1
9.52897 0 1
9.64584 0 1
9.76276 0 1
9.8797 0 1
9.99667 0 1
10.1137 0 1
10.2307 0 1
10.3478 0 1
10.4648 0 1
10.5819 0 1
10.6991 0 1
10.8162 0 1
10.9334 0 1
11.0506 0 1
11.1678 0 1
11.285 0 1
11.4023 0 1
11.5196 0 1
11.6369 0 1
11.7542 0 1
11.8715 0 1
11.9888 0 1
12.1062 0 1
12.2235 0 1
12.3409 0 1
12.4582 0 1
12.5756 0 1
12.693 0 1
12.8104 0 1
12.9278 0 1
13.0452 0 1
13.1626 0 1
13.28 0 1
13.3974 0 1
13.5149 0 1
13.6323 0 1
13.7497 0 1
13.8671 0 1
13.9845 0 1
14.1019 0 1
14.2193 0 1
14.3367 0 1
14.4541 0 1
14.5714 0 1
14.6888 0 1
14.8062 0 1
14.9235 0 1
15.0408 910 30.1662
15.1581 1007 31.7333
15.2755 1066 32.6497
15.3927 1027 32.0468
15.51 1016 31.8748
15.6273 963 31.0322
15.7445 946 30.7571
15.8617 914 30.2324
15.9789 869 29.4788
16.0961 970 31.1448
16.2132 982 31.3369
16.3304 874 29.5635
16.4475 832 28.8444
16.5646 864 29.3939
16.6816 886 29.7658
16.7986 794 28.178
16.9156 854 29.2233
17.0326 792 28.1425
17.1496 804 28.3549
17.2665 865 29.4109
17.3833 756 27.4955
17.5002 777 27.8747
17.617 810 28.4605
17.7338 816 28.5657
17.8505 810 28.4605
17.9672 767 27.6948
18.0839 825 28.7228
18.2005 805 28.3725
18.3171 801 28.3019
18.4337 759 27.55
18.5502 779 27.9106
18.6666 790 28.1069
18.7831 870 29.4958
18.8994 765 27.6586
19.0158 792 28.1425
19.1321 753 27.4408
19.2483 692 26.3059
19.3645 655 25.593
19.4806 618 24.8596
19.5967 648 25.4558
19.7128 655 25.593
19.8288 595 24.3926
19.9447 540 23.2379
20.0606 0 1
20.1764 0 1
20.2922 0 1
20.4079 0 1
20.5236 0 1
20.6392 0 1
20.7548 0 1
20.8702 0 1
23.3078 0 1
23.4233 0 1
23.539 0 1
23.6547 0 1
23.7704 0 1
23.8862 0 1
24.0021 0 1
24.118 0 1
24.234 0 1
24.35 0 1
24.4661 319 17.8606
24.5822 344 18.5472
24.6984 451 21.2368
24.8146 530 23.0217
24.9309 617 24.8395
25.0472 661 25.7099
25.1636 729 27
25.28 728 26.9815
25.3965 784 28
25.513 776 27.8568
25.6296 855 29.2404
25.7462 889 29.8161
25.8628 864 29.3939
25.9795 870 29.4958
26.0962 807 28.4077
26.213 803 28.3373
26.3298 800 28.2843
26.4466 707 26.5895
26.5635 726 26.9444
26.6804 668 25.8457
26.7973 704 26.533
26.9143 647 25.4362
27.0313 599 24.4745
27.1483 664 25.7682
27.2653 715 26.7395
27.3824 669 25.865
27.4996 725 26.9258
27.6167 675 25.9808
27.7339 708 26.6083
27.8511 747 27.3313
27.9683 703 26.5141
28.0855 635 25.1992
28.2028 697 26.4008
28.3201 685 26.1725
28.4374 712 26.6833
28.5547 742 27.2397
28.6721 752 27.4226
28.7894 774 27.8209
28.9068 824 28.7054
29.0242 703 26.5141
29.1416 709 26.6271
29.259 751 27.4044
29.3764 689 26.2488
29.4939 690 26.2679
29.6113 678 26.0384
29.7288 700 26.4575
29.8463 667 25.8263
29.9638 625 25
30.0812 646 25.4165
30.1987 646 25.4165
30.3162 608 24.6577
30.4337 642 25.3377
30.5512 634 25.1794
30.6687 620 24.8998
30.7862 655 25.593
30.9037 699 26.4386
31.0212 741 27.2213
31.1387 748 27.3496
31.2562 693 26.3249
31.3737 732 27.0555
31.4912 697 26.4008
31.6087 655 25.593
31.7262 694 26.3439
31.8436 727 26.9629
31.9611 720 26.8328
32.0785 702 26.4953
32.1959 697 26.4008
32.3134 720 26.8328
32.4308 652 25.5343
32.5482 690 26.2679
32.6655 629 25.0799
32.7829 646 25.4165
32.9002 606 24.6171
33.0176 650 25.4951
33.1349 629 25.0799
33.2522 622 24.9399
33.3694 638 25.2587
33.4867 613 24.7588
33.6039 698 26.4197
33.7211 613 24.7588
33.8383 587 24.2281
33.9554 593 24.3516
34.0725 584 24.1661
34.1896 610 24.6982
34.3067 574 23.9583
34.4237 603 24.5561
34.5407 636 25.219
34.6577 698 26.4197
34.7746 677 26.0192
34.8915 703 26.5141
35.0084 701 26.4764
35.1252 663 25.7488
35.242 677 26.0192
35.3587 601 24.5153
35.4755 668 25.8457
35.5921 660 25.6905
35.7088 632 25.1396
35.8254 651 25.5147
35.9419 677 26.0192
36.0584 616 24.8193
36.1749 609 24.6779
36.2913 595 24.3926
36.4077 587 24.2281
36.524 587 24.2281
36.6403 511 22.6053
36.7565 448 21.166
36.8727 482 21.9545
36.9889 416 20.3961
37.1049 395 19.8746
37.221 0 1
37.3369 0 1
37.4529 0 1
37.5687 0 1
37.6845 0 1
37.8003 0 1
37.916 0 1
38.0316 0 1
38.1472 0 1
40.5851 0 1
40.7008 0 1
40.8164 0 1
40.9322 0 1
41.048 0 1
41.1639 0 1
41.2798 0 1
41.3958 0 1
41.5118 0 1
41.6279 0 1
41.744 298 17.2627
41.8602 370 19.2354
41.9765 394 19.8494
42.0928 438 20.9284
42.2091 488 22.0907
42.3255 511 22.6053
42.4419 490 22.1359
42.5584 503 22.4277
42.675 470 21.6795
42.7915 510 22.5832
42.9081 456 21.3542
43.0248 461 21.4709
43.1415 464 21.5407
43.2582 513 22.6495
43.375 485 22.0227
43.4918 525 22.9129
43.6087 485 22.0227
43.7256 504 22.4499
43.8425 493 22.2036
43.9595 499 22.3383
44.0765 515 22.6936
44.1935 481 21.9317
44.3106 517 22.7376
44.4277 545 23.3452
44.5448 490 22.1359
44.6619 526 22.9347
44.7791 559 23.6432
44.8963 538 23.1948
45.0136 528 22.9783
45.1308 582 24.1247
45.2481 507 22.5167
45.3654 532 23.0651
45.4827 551 23.4734
45.6001 496 22.2711
45.7174 542 23.2809
45.8348 545 23.3452
45.9522 480 21.9089
46.0697 517 22.7376
46.1871 477 21.8403
46.3046 427 20.664
46.422 409 20.2237
46.5395 427 20.664
46.657 424 20.5913
46.7745 489 22.1133
46.892 456 21.3542
47.0096 523 22.8692
47.1271 486 22.0454
47.2446 442 21.0238
47.3622 497 22.2935
47.4797 498 22.3159
47.5973 481 21.9317
47.7149 408 20.199
47.8324 441 21
47.95 466 21.587
48.0675 457 21.3776
48.1851 522 22.8473
48.3027 501 22.383
48.4202 490 22.1359
48.5378 556 23.5797
48.6554 510 22.5832
48.7729 552 23.4947
48.8904 549 23.4307
49.008 555 23.5584
49.1255 550 23.4521
49.243 582 24.1247
49.3605 548 23.4094
49.478 500 22.3607
49.5955 491 22.1585
49.713 426 20.6398
49.8304 437 20.9045
49.9479 434 20.8327
50.0653 446 21.1187
50.1827 430 20.7364
50.3001 461 21.4709
50.4175 474 21.7715
50.5348 465 21.5639
50.6521 471 21.7025
50.7694 468 21.6333
50.8867 426 20.6398
51.004 500 22.3607
51.1212 479 21.8861
51.2384 474 21.7715
51.3556 429 20.7123
51.4727 469 21.6564
51.5899 506 22.4944
51.707 474 21.7715
51.824 508 22.5389
51.9411 473 21.7486
52.0581 469 21.6564
52.175 495 22.2486
52.2919 481 21.9317
52.4088 473 21.7486
52.5257 484 22
52.6425 503 22.4277
52.7593 515 22.6936
52.876 446 21.1187
52.9927 449 21.1896
53.1094 459 21.4243
53.226 439 20.9523
53.3426 399 19.975
53.4591 373 19.3132
53.5756 331 18.1934
53.692 363 19.0526
53.8084 376 19.3907
53.9248 383 19.5704
54.0411 458 21.4009
54.1573 493 22.2036
54.2735 0 1
54.3896 0 1
54.5057 0 1
54.6217 0 1
54.7377 0 1
54.8537 0 1
54.9695 0 1
55.0853 0 1
55.2011 0 1
55.3168 0 1
55.4324 0 1
57.824 0 1
57.9396 0 1
58.0553 0 1
58.1711 0 1
58.2869 0 1
58.4028 0 1
58.5187 0 1
58.6347 0 1
58.7508 0 1
58.8669 0 1
58.983 1502 38.7556
59.0992 1684 41.0366
59.2155 1941 44.0568
59.3318 2396 48.949
59.4482 3022 54.9727
59.5646 3615 60.1249
59.681 3818 61.79
59.7975 3757 61.2944
59.9141 3686 60.7124
60.0306 3523 59.3549
60.1473 3311 57.5413
60.2639 2927 54.1018
60.3807 2613 51.1175
60.4974 2292 47.8748
60.6142 1927 43.8976
60.731 1699 41.2189
60.8479 1522 39.0128
60.9648 1336 36.5513
61.0818 1133 33.6601
61.1987 1084 32.9242
61.3158 1057 32.5115
61.4328 966 31.0805
61.5499 908 30.133
61.667 844 29.0517
61.7841 729 27
61.9013 812 28.4956
62.0185 757 27.5136
62.1357 706 26.5707
62.253 680 26.0768
62.3702 624 24.98
62.4875 674 25.9615
62.6049 628 25.0599
62.7222 596 24.4131
62.8396 603 24.5561
62.9569 639 25.2784
63.0743 608 24.6577
63.1918 621 24.9199
63.3092 571 23.8956
63.4267 564 23.7487
63.5441 569 23.8537
63.6616 506 22.4944
63.7791 581 24.1039
63.8966 586 24.2074
64.0142 557 23.6008
64.1317 530 23.0217
64.2492 571 23.8956
64.3668 526 22.9347
64.4843 529 23
64.6019 493 22.2036
64.7195 562 23.7065
64.837 526 22.9347
64.9546 530 23.0217
65.0722 496 22.2711
65.1898 502 22.4054
65.3074 496 22.2711
65.4249 496 22.2711
65.5425 474 21.7715
65.6601 443 21.0476
65.7777 533 23.0868
65.8952 499 22.3383
66.0128 459 21.4243
66.1304 498 22.3159
66.2479 507 22.5167
66.3655 481 21.9317
66.483 519 22.7816
66.6005 513 22.6495
66.718 496 22.2711
66.8355 525 22.9129
66.953 572 23.9165
67.0705 515 22.6936
67.1879 553 23.516
67.3054 518 22.7596
67.4228 501 22.383
67.5402 522 22.8473
67.6576 578 24.0416
67.7749 537 23.1733
67.8923 519 22.7816
68.0096 508 22.5389
68.1269 559 23.6432
68.2442 485 22.0227
68.3614 487 22.0681
68.4787 473 21.7486
68.5958 493 22.2036
68.713 475 21.7945
68.8302 506 22.4944
68.9473 455 21.3307
69.0643 448 21.166
69.1814 466 21.587
69.2984 495 22.2486
69.4154 485 22.0227
69.5323 516 22.7156
69.6492 479 21.8861
69.7661 471 21.7025
69.8829 467 21.6102
69.9997 460 21.4476
70.1165 477 21.8403
70.2332 483 21.9773
70.3499 467 21.6102
70.4665 443 21.0476
70.5831 376 19.3907
70.6996 398 19.9499
70.8161 334 18.2757
70.9326 347 18.6279
71.049 322 17.9444
71.1653 272 16.4924
71.2817 305 17.4642
71.3979 266 16.3095
71.5141 259 16.0935
71.6303 232 15.2315
71.7464 177 13.3041
71.8624 0 1
71.9784 0 1
72.0944 0 1
72.2102 0 1
72.3261 0 1
72.4418 0 1
72.5575 0 1
72.6732 0 1
75.1054 0 1
75.2209 0 1
75.3365 0 1
75.4521 0 1
75.5678 0 1
75.6835 0 1
75.7993 0 1
75.9151 0 1
76.031 0 1
76.147 335 18.303
76.263 339 18.412
76.3791 382 19.5448
76.4952 388 19.6977
76.6113 442 21.0238
76.7276 431 20.7605
76.8438 440 20.9762
76.9601 396 19.8997
77.0765 470 21.6795
77.1929 433 20.8087
77.3093 428 20.6882
77.4258 418 20.445
77.5423 385 19.6214
77.6589 385 19.6214
77.7755 387 19.6723
77.8921 383 19.5704
78.0088 427 20.664
78.1256 356 18.868
78.2423 386 19.6469
78.3591 414 20.347
78.4759 354 18.8149
78.5928 425 20.6155
78.7097 379 19.4679
78.8266 362 19.0263
78.9436 412 20.2978
79.0606 402 20.0499
79.1776 432 20.7846
79.2946 499 22.3383
79.4117 479 21.8861
79.5288 405 20.1246
79.6459 446 21.1187
79.7631 472 21.7256
79.8802 425 20.6155
79.9974 469 21.6564
80.1147 416 20.3961
80.2319 465 21.5639
80.3491 448 21.166
80.4664 462 21.4942
80.5837 405 20.1246
80.701 407 20.1742
80.8183 444 21.0713
80.9357 482 21.9545
81.053 401 20.025
81.1704 405 20.1246
81.2877 417 20.4206
81.4051 451 21.2368
81.5225 387 19.6723
81.6399 381 19.5192
81.7573 395 19.8746
81.8747 362 19.0263
81.9922 466 21.587
82.1096 408 20.199
82.227 418 20.445
82.3444 410 20.2485
82.4619 409 20.2237
82.5793 400 20
82.6967 431 20.7605
82.8142 446 21.1187
82.9316 476 21.8174
83.049 480 21.9089
83.1664 437 20.9045
83.2838 432 20.7846
83.4012 447 21.1424
83.5186 449 21.1896
83.636 411 20.2731
83.7534 451 21.2368
83.8708 500 22.3607
83.9881 459 21.4243
84.1055 486 22.0454
84.2228 447 21.1424
84.3401 516 22.7156
84.4575 402 20.0499
84.5747 437 20.9045
84.692 458 21.4009
84.8093 416 20.3961
84.9265 391 19.7737
85.0437 395 19.8746
85.1609 415 20.3715
85.2781 404 20.0998
85.3952 410 20.2485
85.5123 429 20.7123
85.6294 470 21.6795
85.7465 442 21.0238
85.8636 475 21.7945
85.9806 441 21
86.0976 445 21.095
86.2145 433 20.8087
86.3315 462 21.4942
86.4484 420 20.4939
86.5652 481 21.9317
86.682 455 21.3307
86.7988 440 20.9762
86.9156 421 20.5183
87.0323 435 20.8567
87.149 397 19.9249
87.2657 431 20.7605
87.3823 421 20.5183
87.4988 432 20.7846
87.6154 421 20.5183
87.7318 412 20.2978
87.8483 347 18.6279
87.9647 340 18.4391
88.081 342 18.4932
88.1973 288 16.9706
88.3136 290 17.0294
88.4298 233 15.2643
88.546 239 15.4596
88.6621 227 15.0665
88.7781 198 14.0712
88.8942 0 1
89.0101 0 1
89.126 0 1
89.2419 0 1
89.3577 0 1
89.4734 0 1
89.5891 0 1
89.7047 0 1
89.8203 0 1
89.9358 0 1
92.3269 0 1
92.4424 0 1
92.558 0 1
92.6736 0 1
92.7893 0 1
92.905 0 1
93.0208 0 1
93.1366 0 1
93.2525 0 1
93.3685 0 1
93.4845 0 1
93.6005 364 19.0788
93.7167 380 19.4936
93.8328 378 19.4422
93.949 421 20.5183
94.0653 426 20.6398
94.1816 393 19.8242
94.2979 435 20.8567
94.4143 415 20.3715
94.5307 426 20.6398
94.6472 413 20.3224
94.7637 400 20
94.8803 434 20.8327
94.9969 401 20.025
95.1135 444 21.0713
95.2302 443 21.0476
95.3469 437 20.9045
95.4637 441 21
95.5805 452 21.2603
95.6973 457 21.3776
95.8142 452 21.2603
95.9311 434 20.8327
96.048 420 20.4939
96.1649 458 21.4009
96.2819 431 20.7605
96.3989 432 20.7846
96.516 481 21.9317
96.633 459 21.4243
96.7501 486 22.0454
96.8673 487 22.0681
96.9844 438 20.9284
97.1016 432 20.7846
97.2188 432 20.7846
97.336 420 20.4939
97.4532 456 21.3542
97.5704 395 19.8746
97.6877 418 20.445
97.805 388 19.6977
97.9223 390 19.7484
98.0396 412 20.2978
98.1569 410 20.2485
98.2743 429 20.7123
98.3916 455 21.3307
98.509 470 21.6795
98.6264 488 22.0907
98.7438 467 21.6102
98.8612 478 21.8632
98.9786 473 21.7486
99.096 511 22.6053
99.2134 500 22.3607
99.3308 489 22.1133
99.4482 470 21.6795
99.5656 455 21.3307
99.6831 499 22.3383
99.8005 494 22.2261
99.9179 520 22.8035
100.035 485 22.0227
100.153 481 21.9317
100.27 553 23.516
100.388 504 22.4499
100.505 503 22.4277
100.622 465 21.5639
100.74 435 20.8567
100.857 504 22.4499
100.975 481 21.9317
101.092 504 22.4499
101.209 507 22.5167
101.327 497 22.2935
101.444 554 23.5372
101.561 557 23.6008
101.679 659 25.671
101.796 708 26.6083
101.913 792 28.1425
102.03 852 29.189
102.148 850 29.1548
102.265 849 29.1376
102.382 846 29.0861
102.499 813 28.5132
102.616 788 28.0713
102.733 845 29.0689
102.851 861 29.3428
102.968 884 29.7321
103.085 1041 32.2645
103.202 1130 33.6155
103.319 1364 36.9324
103.436 1579 39.7366
103.552 1798 42.4028
103.669 1958 44.2493
103.786 2071 45.5082
103.903 2248 47.4131
104.02 2380 48.7852
104.137 2373 48.7134
104.253 2465 49.6488
104.37 2360 48.5798
104.487 2447 49.4672
104.603 2322 48.1871
104.72 2013 44.8665
104.836 1542 39.2683
104.953 1172 34.2345
105.069 830 28.8097
105.186 720 26.8328
105.302 819 28.6182
105.418 989 31.4484
105.535 1275 35.7071
105.651 1301 36.0694
105.767 1357 36.8375
105.883 1398 37.3898
105.999 1259 35.4824
106.115 0 1
106.231 0 1
106.347 0 1
106.463 0 1
106.579 0 1
106.694 0 1
106.81 0 1
106.926 0 1
107.041 0 1
107.157 0 1
109.576 0 1
109.692 0 1
109.807 0 1
109.923 0 1
110.039 0 1
110.155 0 1
110.27 0 1
110.386 0 1
110.502 0 1
110.618 4593 67.7717
110.735 6389 79.9312
110.851 7276 85.2995
110.967 7954 89.1852
111.083 8653 93.0215
111.199 9200 95.9166
111.316 9916 99.5791
111.432 10467 102.308
111.549 11154 105.612
111.665 11714 108.231
111.782 11918 109.17
111.898 12436 111.517
112.015 13436 115.914
112.132 14309 119.62
112.248 14846 121.844
112.365 15492 124.467
112.482 16303 127.683
112.599 16428 128.172
112.716 17157 130.985
112.832 17290 131.491
112.949 17670 132.929
113.066 17561 132.518
113.183 17556 132.499
113.3 17002 130.392
113.417 14879 121.98
113.534 12385 111.288
113.652 10707 103.475
113.769 9517 97.5551
113.886 9122 95.5092
114.003 9590 97.9285
114.12 10785 103.851
114.238 11033 105.038
114.355 10406 102.01
114.472 9110 95.4463
114.589 7694 87.7154
114.707 6398 79.9875
114.824 5397 73.4643
114.942 4855 69.6778
115.059 4469 66.8506
115.176 4051 63.6475
115.294 3732 61.0901
115.411 3262 57.1139
115.529 2948 54.2955
115.646 2636 51.342
115.764 2449 49.4874
115.881 1929 43.9204
115.999 1562 39.5221
116.116 1136 33.7046
116.234 874 29.5635
116.351 665 25.7876
116.469 605 24.5967
116.586 511 22.6053
116.704 462 21.4942
116.821 405 20.1246
116.939 402 20.0499
117.056 409 20.2237
117.174 398 19.9499
117.291 356 18.868
117.409 368 19.1833
117.526 321 17.9165
117.644 369 19.2094
117.761 447 21.1424
117.879 385 19.6214
117.996 391 19.7737
118.114 407 20.1742
118.231 453 21.2838
118.349 438 20.9284
118.466 408 20.199
118.584 401 20.025
118.701 407 20.1742
118.819 433 20.8087
118.936 405 20.1246
119.053 365 19.105
119.171 390 19.7484
119.288 384 19.5959
119.405 416 20.3961
119.523 389 19.7231
119.64 406 20.1494
119.757 378 19.4422
119.875 405 20.1246
119.992 423 20.567
120.109 410 20.2485
120.226 392 19.799
120.343 389 19.7231
120.46 404 20.0998
120.578 390 19.7484
120.695 388 19.6977
120.812 369 19.2094
120.929 328 18.1108
121.046 311 17.6352
121.163 294 17.1464
121.279 345 18.5742
121.396 328 18.1108
121.513 355 18.8414
121.63 395 19.8746
121.747 359 18.9473
121.863 342 18.4932
121.98 376 19.3907
122.097 317 17.8045
122.213 353 18.7883
122.33 328 18.1108
122.446 313 17.6918
122.563 280 16.7332
122.679 242 15.5563
122.795 258 16.0624
122.912 219 14.7986
123.028 227 15.0665
123.144 238 15.4272
123.26 246 15.6844
123.377 0 1
123.493 0 1
123.609 0 1
123.725 0 1
123.84 0 1
123.956 0 1
124.072 0 1
124.188 0 1
124.303 0 1
124.419 0 1
126.852 0 1
126.968 0 1
127.083 0 1
127.199 0 1
127.315 0 1
127.431 0 1
127.547 0 1
127.663 0 1
127.779 0 1
127.895 0 1
128.011 0 1
128.127 0 1
128.243 0 1
128.359 410 20.2485
128.476 430 20.7364
128.592 417 20.4206
128.708 434 20.8327
128.825 458 21.4009
128.941 485 22.0227
129.058 464 21.5407
129.174 434 20.8327
129.291 431 20.7605
129.408 445 21.095
129.524 448 21.166
129.641 460 21.4476
129.758 444 21.0713
129.875 437 20.9045
129.992 407 20.1742
130.108 415 20.3715
130.225 384 19.5959
130.342 402 20.0499
130.459 421 20.5183
130.576 487 22.0681
130.693 531 23.0434
130.81 521 22.8254
130.928 504 22.4499
131.045 535 23.1301
131.162 554 23.5372
131.279 651 25.5147
131.396 608 24.6577
131.513 619 24.8797
131.631 642 25.3377
131.748 650 25.4951
131.865 682 26.1151
131.983 725 26.9258
132.1 759 27.55
132.217 818 28.6007
132.335 821 28.6531
132.452 834 28.8791
132.57 888 29.7993
132.687 866 29.4279
132.804 908 30.133
132.922 887 29.7825
133.039 904 30.0666
133.157 957 30.9354
133.274 957 30.9354
133.392 996 31.5595
133.509 954 30.8869
133.627 889 29.8161
133.744 905 30.0832
133.862 859 29.3087
133.979 998 31.5911
134.097 949 30.8058
134.214 1031 32.1092
134.332 995 31.5436
134.449 1061 32.573
134.567 959 30.9677
134.684 995 31.5436
134.802 988 31.4325
134.919 1012 31.8119
135.037 1014 31.8434
135.154 923 30.3809
135.272 985 31.3847
135.389 893 29.8831
135.507 956 30.9192
135.624 979 31.289
135.742 1016 31.8748
135.859 1090 33.0151
135.977 1072 32.7414
136.094 1064 32.619
136.211 1013 31.8277
136.329 1026 32.0312
136.446 1052 32.4345
136.564 1028 32.0624
136.681 1004 31.686
136.798 1042 32.28
136.915 994 31.5278
137.033 1006 31.7175
137.15 955 30.9031
137.267 945 30.7409
137.384 957 30.9354
137.502 886 29.7658
137.619 887 29.7825
137.736 889 29.8161
137.853 903 30.05
137.97 994 31.5278
138.087 963 31.0322
138.204 935 30.5778
138.321 918 30.2985
138.438 913 30.2159
138.555 1025 32.0156
138.672 1002 31.6544
138.788 960 30.9839
138.905 903 30.05
139.022 822 28.6705
139.139 896 29.9333
139.255 913 30.2159
139.372 893 29.8831
139.488 827 28.7576
139.605 732 27.0555
139.721 753 27.4408
139.838 721 26.8514
139.954 664 25.7682
140.071 626 25.02
140.187 630 25.0998
140.303 596 24.4131
140.419 551 23.4734
140.535 546 23.3666
140.652 495 22.2486
140.768 0 1
140.884 0 1
141 0 1
141.115 0 1
141.231 0 1
141.347 0 1
141.463 0 1
141.578 0 1
141.694 0 1
144.104 0 1
144.219 0 1
144.335 0 1
144.45 0 1
144.566 0 1
144.682 0 1
144.798 0 1
144.914 0 1
145.03 0 1
145.146 864 29.3939
145.262 822 28.6705
145.378 851 29.1719
145.494 799 28.2666
145.61 887 29.7825
145.726 908 30.133
145.842 890 29.8329
145.959 870 29.4958
146.075 927 30.4467
146.192 929 30.4795
146.308 922 30.3645
146.425 903 30.05
146.541 965 31.0644
146.658 994 31.5278
146.774 987 31.4166
146.891 947 30.7734
147.008 943 30.7083
147.125 939 30.6431
147.241 1054 32.4654
147.358 1065 32.6343
147.475 1037 32.2025
147.592 995 31.5436
147.709 960 30.9839
147.826 998 31.5911
147.943 932 30.5287
148.06 1001 31.6386
148.177 992 31.496
148.294 1077 32.8177
148.411 1030 32.0936
148.528 1138 33.7343
148.645 1085 32.9393
148.762 1079 32.8481
148.88 1093 33.0606
148.997 1136 33.7046
149.114 1112 33.3467
149.231 1157 34.0147
149.349 1107 33.2716
149.466 1101 33.1813
149.583 1232 35.0999
149.701 1188 34.4674
149.818 1192 34.5254
149.935 1164 34.1174
150.053 1212 34.8138
150.17 1290 35.9166
150.287 1336 36.5513
150.405 1426 37.7624
150.522 1510 38.8587
150.64 1707 41.3159
150.757 1939 44.0341
150.875 2052 45.299
150.992 2214 47.0532
151.11 2540 50.3984
151.227 3042 55.1543
151.344 3331 57.7148
151.462 3444 58.6856
151.579 3578 59.8164
151.697 3921 62.6179
151.814 4152 64.436
151.932 4461 66.7907
152.049 4714 68.6586
152.167 4795 69.2459
152.284 4901 70.0071
152.402 5211 72.1873
152.519 5184 72
152.636 5312 72.8835
152.754 5497 74.1418
152.871 5710 75.5645
152.989 5808 76.2102
153.106 5928 76.9935
153.223 6112 78.1793
153.341 6277 79.2275
153.458 6250 79.0569
153.575 6172 78.5621
153.693 6481 80.5047
153.81 6609 81.2958
153.927 6793 82.4197
154.044 7046 83.9405
154.162 6506 80.6598
154.279 5794 76.1183
154.396 5209 72.1734
154.513 6479 80.4922
154.63 7675 87.6071
154.747 8180 90.4434
154.864 8405 91.6788
154.981 8304 91.1263
155.098 8414 91.7279
155.215 8346 91.3564
155.332 8510 92.2497
155.449 8712 93.3381
155.566 9002 94.8789
155.683 8933 94.5145
155.8 9105 95.4201
155.917 9248 96.1665
156.033 9703 98.5038
156.15 0 1
156.267 0 1
156.383 0 1
156.5 0 1
156.617 0 1
156.733 0 1
156.85 0 1
156.966 0 1
157.082 0 1
157.199 0 1
157.315 0 1
157.431 0 1
157.547 0 1
157.664 0 1
157.78 0 1
157.896 0 1
158.012 0 1
158.128 0 1
158.244 0 1
158.359 0 1
158.475 0 1
158.591 0 1
158.706 0 1
