
6.15755 0 1
6.2731 0 1
6.3887 0 1
6.50437 0 1
6.62009 0 1
6.73587 0 1
6.8517 0 1
6.96759 0 1
7.08353 0 1
7.19952 0 1
7.31557 0 1
7.43166 0 1
7.54781 0 1
7.664 0 1
7.78024 0 1
7.89653 0 1
8.01286 0 1
8.12924 0 1
8.24567 0 1
8.36213 0 1
8.47864 0 1
8.59519 0 1
8.71178 0 1
8.82841 0 1
8.94508 0 1
9.06179 0 1
9.17853 0 1
9.29531 0 1
9.41212 0 1
9.52897 0 1
9.64584 0 1
9.76276 0 1
9.8797 0 1
9.99667 0 1
10.1137 0 1
10.2307 0 1
10.3478 0 1
10.4648 0 1
10.5819 0 1
10.6991 0 1
10.8162 0 1
10.9334 0 1
11.0506 0 1
11.1678 0 1
11.285 0 1
11.4023 0 1
11.5196 0 1
11.6369 0 1
11.7542 0 1
11.8715 0 1
11.9888 0 1
12.1062 0 1
12.2235 0 1
12.3409 0 1
12.4582 0 1
12.5756 0 1
12.693 0 1
12.8104 0 1
12.9278 0 1
13.0452 0 1
13.1626 0 1
13.28 0 1
13.3974 0 1
13.5149 0 1
13.6323 0 1
13.7497 0 1
13.8671 0 1
13.9845 0 1
14.1019 0 1
14.2193 0 1
14.3367 0 1
14.4541 0 1
14.5714 0 1
14.6888 0 1
14.8062 0 1
14.9235 0 1
15.0408 1029 32.078
15.1581 995 31.5436
15.2755 1190 34.4964
15.3927 1127 33.5708
15.51 1144 33.8231
15.6273 1129 33.6006
15.7445 1085 32.9393
15.8617 1150 33.9116
15.9789 1140 33.7639
16.0961 1092 33.0454
16.2132 1103 33.2114
16.3304 1131 33.6303
16.4475 1028 32.0624
16.5646 1226 35.0143
16.6816 1291 35.9305
16.7986 1284 35.8329
16.9156 1383 37.1887
17.0326 1366 36.9594
17.1496 1338 36.5787
17.2665 1394 37.3363
17.3833 1321 36.3456
17.5002 1309 36.1801
17.617 1258 35.4683
17.7338 1200 34.641
17.8505 1128 33.5857
17.9672 1212 34.8138
18.0839 1177 34.3074
18.2005 1165 34.1321
18.3171 1256 35.4401
18.4337 1210 34.7851
18.5502 1320 36.3318
18.6666 1257 35.4542
18.7831 1286 35.8608
18.8994 1302 36.0832
19.0158 1276 35.7211
19.1321 1287 35.8748
19.2483 1167 34.1614
19.3645 1169 34.1906
19.4806 1071 32.7261
19.5967 1012 31.8119
19.7128 880 29.6648
19.8288 817 28.5832
19.9447 784 28
20.0606 0 1
20.1764 0 1
20.2922 0 1
20.4079 0 1
20.5236 0 1
20.6392 0 1
20.7548 0 1
20.8702 0 1
23.3078 0 1
23.4233 0 1
23.539 0 1
23.6547 0 1
23.7704 0 1
23.8862 0 1
24.0021 0 1
24.118 0 1
24.234 0 1
24.35 0 1
24.4661 544 23.3238
24.5822 665 25.7876
24.6984 705 26.5518
24.8146 785 28.0179
24.9309 845 29.0689
25.0472 893 29.8831
25.1636 959 30.9677
25.28 1124 33.5261
25.3965 1211 34.7994
25.513 1264 35.5528
25.6296 1334 36.524
25.7462 1426 37.7624
25.8628 1439 37.9342
25.9795 1404 37.47
26.0962 1413 37.5899
26.213 1367 36.973
26.3298 1344 36.6606
26.4466 1246 35.2987
26.5635 1164 34.1174
26.6804 1217 34.8855
26.7973 1230 35.0714
26.9143 1253 35.3977
27.0313 1319 36.318
27.1483 1347 36.7015
27.2653 1374 37.0675
27.3824 1280 35.7771
27.4996 1387 37.2424
27.6167 1354 36.7967
27.7339 1281 35.7911
27.8511 1285 35.8469
27.9683 1255 35.426
28.0855 1202 34.6699
28.2028 1176 34.2929
28.3201 1156 34
28.4374 1084 32.9242
28.5547 1145 33.8378
28.6721 1188 34.4674
28.7894 1226 35.0143
28.9068 1293 35.9583
29.0242 1357 36.8375
29.1416 1421 37.6962
29.259 1408 37.5233
29.3764 1377 37.108
29.4939 1350 36.7423
29.6113 1330 36.4692
29.7288 1288 35.8887
29.8463 1253 35.3977
29.9638 1202 34.6699
30.0812 1124 33.5261
30.1987 1135 33.6898
30.3162 1153 33.9559
30.4337 1224 34.9857
30.5512 1233 35.1141
30.6687 1263 35.5387
30.7862 1213 34.8281
30.9037 1353 36.7831
31.0212 1338 36.5787
31.1387 1282 35.805
31.2562 1339 36.5923
31.3737 1214 34.8425
31.4912 1274 35.6931
31.6087 1185 34.4238
31.7262 1212 34.8138
31.8436 1122 33.4963
31.9611 1110 33.3167
32.0785 1137 33.7194
32.1959 1117 33.4215
32.3134 1158 34.0294
32.4308 1213 34.8281
32.5482 1248 35.327
32.6655 1319 36.318
32.7829 1332 36.4966
32.9002 1330 36.4692
33.0176 1340 36.606
33.1349 1356 36.8239
33.2522 1277 35.7351
33.3694 1247 35.3129
33.4867 1143 33.8083
33.6039 1074 32.7719
33.7211 1100 33.1662
33.8383 1063 32.6037
33.9554 1063 32.6037
34.0725 1139 33.7491
34.1896 1138 33.7343
34.3067 1204 34.6987
34.4237 1178 34.322
34.5407 1215 34.8569
34.6577 1268 35.609
34.7746 1207 34.7419
34.8915 1198 34.6121
35.0084 1194 34.5543
35.1252 1195 34.5688
35.242 1185 34.4238
35.3587 1140 33.7639
35.4755 1126 33.5559
35.5921 1020 31.9374
35.7088 1012 31.8119
35.8254 1055 32.4808
35.9419 1089 33
36.0584 1110 33.3167
36.1749 1148 33.8821
36.2913 1132 33.6452
36.4077 1108 33.2866
36.524 1203 34.6843
36.6403 1050 32.4037
36.7565 1071 32.7261
36.8727 992 31.496
36.9889 960 30.9839
37.1049 806 28.3901
37.221 0 1
37.3369 0 1
37.4529 0 1
37.5687 0 1
37.6845 0 1
37.8003 0 1
37.916 0 1
38.0316 0 1
38.1472 0 1
40.5851 0 1
40.7008 0 1
40.8164 0 1
40.9322 0 1
41.048 0 1
41.1639 0 1
41.2798 0 1
41.3958 0 1
41.5118 0 1
41.6279 0 1
41.744 578 24.0416
41.8602 664 25.7682
41.9765 769 27.7308
42.0928 808 28.4253
42.2091 765 27.6586
42.3255 744 27.2764
42.4419 708 26.6083
42.5584 699 26.4386
42.675 773 27.8029
42.7915 843 29.0345
42.9081 947 30.7734
43.0248 934 30.5614
43.1415 923 30.3809
43.2582 966 31.0805
43.375 1058 32.5269
43.4918 1075 32.7872
43.6087 1018 31.9061
43.7256 996 31.5595
43.8425 974 31.209
43.9595 969 31.1288
44.0765 1000 31.6228
44.1935 931 30.5123
44.3106 939 30.6431
44.4277 874 29.5635
44.5448 865 29.4109
44.6619 873 29.5466
44.7791 893 29.8831
44.8963 971 31.1609
45.0136 971 31.1609
45.1308 1106 33.2566
45.2481 1070 32.7109
45.3654 1011 31.7962
45.4827 1027 32.0468
45.6001 1017 31.8904
45.7174 1021 31.9531
45.8348 958 30.9516
45.9522 829 28.7924
46.0697 902 30.0333
46.1871 819 28.6182
46.3046 820 28.6356
46.422 984 31.3688
46.5395 967 31.0966
46.657 1043 32.2955
46.7745 991 31.4802
46.892 1009 31.7648
47.0096 1041 32.2645
47.1271 1057 32.5115
47.2446 987 31.4166
47.3622 1060 32.5576
47.4797 1021 31.9531
47.5973 987 31.4166
47.7149 979 31.289
47.8324 1004 31.686
47.95 918 30.2985
48.0675 854 29.2233
48.1851 850 29.1548
48.3027 857 29.2746
48.4202 869 29.4788
48.5378 1025 32.0156
48.6554 1052 32.4345
48.7729 994 31.5278
48.8904 1055 32.4808
49.008 1082 32.8938
49.1255 1049 32.3883
49.243 1034 32.1559
49.3605 1003 31.6702
49.478 879 29.6479
49.5955 929 30.4795
49.713 807 28.4077
49.8304 851 29.1719
49.9479 902 30.0333
50.0653 964 31.0483
50.1827 1017 31.8904
50.3001 1024 32
50.4175 1078 32.8329
50.5348 1065 32.6343
50.6521 1088 32.9848
50.7694 1077 32.8177
50.8867 1078 32.8329
51.004 1147 33.8674
51.1212 1182 34.3802
51.2384 1020 31.9374
51.3556 1068 32.6803
51.4727 971 31.1609
51.5899 1015 31.8591
51.707 944 30.7246
51.824 1057 32.5115
51.9411 1101 33.1813
52.0581 1249 35.3412
52.175 1333 36.5103
52.2919 1340 36.606
52.4088 1453 38.1182
52.5257 1460 38.2099
52.6425 1489 38.5876
52.7593 1477 38.4318
52.876 1523 39.0256
52.9927 1358 36.8511
53.1094 1291 35.9305
53.226 1317 36.2905
53.3426 1274 35.6931
53.4591 1281 35.7911
53.5756 1334 36.524
53.692 1248 35.327
53.8084 1243 35.2562
53.9248 1309 36.1801
54.0411 1184 34.4093
54.1573 1097 33.121
54.2735 0 1
54.3896 0 1
54.5057 0 1
54.6217 0 1
54.7377 0 1
54.8537 0 1
54.9695 0 1
55.0853 0 1
55.2011 0 1
55.3168 0 1
55.4324 0 1
57.824 0 1
57.9396 0 1
58.0553 0 1
58.1711 0 1
58.2869 0 1
58.4028 0 1
58.5187 0 1
58.6347 0 1
58.7508 0 1
58.8669 0 1
58.983 899 29.9833
59.0992 935 30.5778
59.2155 986 31.4006
59.3318 1077 32.8177
59.4482 1176 34.2929
59.5646 1210 34.7851
59.681 1158 34.0294
59.7975 1193 34.5398
59.9141 1234 35.1283
60.0306 1206 34.7275
60.1473 1183 34.3948
60.2639 1124 33.5261
60.3807 1095 33.0908
60.4974 1111 33.3317
60.6142 1164 34.1174
60.731 1208 34.7563
60.8479 1297 36.0139
60.9648 1286 35.8608
61.0818 1333 36.5103
61.1987 1349 36.7287
61.3158 1331 36.4829
61.4328 1260 35.4965
61.5499 1216 34.8712
61.667 1151 33.9264
61.7841 1069 32.6956
61.9013 1006 31.7175
62.0185 1041 32.2645
62.1357 1036 32.187
62.253 1123 33.5112
62.3702 1171 34.2199
62.4875 1217 34.8855
62.6049 1330 36.4692
62.7222 1285 35.8469
62.8396 1360 36.8782
62.9569 1329 36.4555
63.0743 1267 35.5949
63.1918 1255 35.426
63.3092 1326 36.4143
63.4267 1222 34.9571
63.5441 1179 34.3366
63.6616 1139 33.7491
63.7791 1035 32.1714
63.8966 1054 32.4654
64.0142 996 31.5595
64.1317 1116 33.4066
64.2492 1195 34.5688
64.3668 1305 36.1248
64.4843 1350 36.7423
64.6019 1386 37.229
64.7195 1317 36.2905
64.837 1315 36.2629
64.9546 1250 35.3553
65.0722 1285 35.8469
65.1898 1177 34.3074
65.3074 1104 33.2265
65.4249 956 30.9192
65.5425 924 30.3974
65.6601 948 30.7896
65.7777 1081 32.8786
65.8952 1177 34.3074
66.0128 1143 33.8083
66.1304 1212 34.8138
66.2479 1166 34.1467
66.3655 1277 35.7351
66.483 1287 35.8748
66.6005 1285 35.8469
66.718 1317 36.2905
66.8355 1311 36.2077
66.953 1225 35
67.0705 1228 35.0428
67.1879 1201 34.6554
67.3054 1084 32.9242
67.4228 1024 32
67.5402 969 31.1288
67.6576 1000 31.6228
67.7749 1049 32.3883
67.8923 1087 32.9697
68.0096 1230 35.0714
68.1269 1309 36.1801
68.2442 1266 35.5809
68.3614 1190 34.4964
68.4787 1251 35.3695
68.5958 1231 35.0856
68.713 1237 35.171
68.8302 1142 33.7935
68.9473 1037 32.2025
69.0643 1007 31.7333
69.1814 925 30.4138
69.2984 872 29.5296
69.4154 998 31.5911
69.5323 1005 31.7017
69.6492 1159 34.0441
69.7661 1212 34.8138
69.8829 1180 34.3511
69.9997 1201 34.6554
70.1165 1152 33.9411
70.2332 1197 34.5977
70.3499 1053 32.45
70.4665 1081 32.8786
70.5831 1017 31.8904
70.6996 870 29.4958
70.8161 851 29.1719
70.9326 761 27.5862
71.049 711 26.6646
71.1653 600 24.4949
71.2817 505 22.4722
71.3979 488 22.0907
71.5141 451 21.2368
71.6303 433 20.8087
71.7464 393 19.8242
71.8624 0 1
71.9784 0 1
72.0944 0 1
72.2102 0 1
72.3261 0 1
72.4418 0 1
72.5575 0 1
72.6732 0 1
75.1054 0 1
75.2209 0 1
75.3365 0 1
75.4521 0 1
75.5678 0 1
75.6835 0 1
75.7993 0 1
75.9151 0 1
76.031 0 1
76.147 757 27.5136
76.263 831 28.8271
76.3791 769 27.7308
76.4952 815 28.5482
76.6113 844 29.0517
76.7276 862 29.3598
76.8438 931 30.5123
76.9601 1022 31.9687
77.0765 1079 32.8481
77.1929 1078 32.8329
77.3093 1118 33.4365
77.4258 1067 32.665
77.5423 1024 32
77.6589 1021 31.9531
77.7755 988 31.4325
77.8921 951 30.8383
78.0088 818 28.6007
78.1256 766 27.6767
78.2423 761 27.5862
78.3591 792 28.1425
78.4759 858 29.2916
78.5928 869 29.4788
78.7097 1001 31.6386
78.8266 1028 32.0624
78.9436 988 31.4325
79.0606 1129 33.6006
79.1776 1040 32.249
79.2946 1104 33.2265
79.4117 1123 33.5112
79.5288 1151 33.9264
79.6459 1116 33.4066
79.7631 1092 33.0454
79.8802 1056 32.4962
79.9974 920 30.3315
80.1147 912 30.1993
80.2319 858 29.2916
80.3491 914 30.2324
80.4664 931 30.5123
80.5837 1012 31.8119
80.701 1042 32.28
80.8183 1139 33.7491
80.9357 1050 32.4037
81.053 1144 33.8231
81.1704 1122 33.4963
81.2877 1143 33.8083
81.4051 1117 33.4215
81.5225 959 30.9677
81.6399 929 30.4795
81.7573 914 30.2324
81.8747 848 29.1204
81.9922 844 29.0517
82.1096 885 29.7489
82.227 914 30.2324
82.3444 1025 32.0156
82.4619 1084 32.9242
82.5793 1117 33.4215
82.6967 1145 33.8378
82.8142 1145 33.8378
82.9316 1178 34.322
83.049 1150 33.9116
83.1664 1044 32.311
83.2838 1173 34.2491
83.4012 1126 33.5559
83.5186 1080 32.8634
83.636 1022 31.9687
83.7534 979 31.289
83.8708 902 30.0333
83.9881 866 29.4279
84.1055 911 30.1828
84.2228 977 31.257
84.3401 1057 32.5115
84.4575 1102 33.1964
84.5747 1141 33.7787
84.692 1109 33.3017
84.8093 1128 33.5857
84.9265 1124 33.5261
85.0437 1105 33.2415
85.1609 906 30.0998
85.2781 892 29.8664
85.3952 883 29.7153
85.5123 810 28.4605
85.6294 852 29.189
85.7465 942 30.692
85.8636 949 30.8058
85.9806 1076 32.8024
86.0976 1025 32.0156
86.2145 1109 33.3017
86.3315 1140 33.7639
86.4484 1230 35.0714
86.5652 1269 35.623
86.682 1144 33.8231
86.7988 1099 33.1512
86.9156 1139 33.7491
87.0323 995 31.5436
87.149 1062 32.5883
87.2657 1055 32.4808
87.3823 899 29.9833
87.4988 767 27.6948
87.6154 749 27.3679
87.7318 778 27.8927
87.8483 865 29.4109
87.9647 900 30
88.081 905 30.0832
88.1973 919 30.315
88.3136 875 29.5804
88.4298 845 29.0689
88.546 779 27.9106
88.6621 671 25.9037
88.7781 594 24.3721
88.8942 0 1
89.0101 0 1
89.126 0 1
89.2419 0 1
89.3577 0 1
89.4734 0 1
89.5891 0 1
89.7047 0 1
89.8203 0 1
89.9358 0 1
92.3269 0 1
92.4424 0 1
92.558 0 1
92.6736 0 1
92.7893 0 1
92.905 0 1
93.0208 0 1
93.1366 0 1
93.2525 0 1
93.3685 0 1
93.4845 0 1
93.6005 857 29.2746
93.7167 937 30.6105
93.8328 979 31.289
93.949 991 31.4802
94.0653 998 31.5911
94.1816 1009 31.7648
94.2979 941 30.6757
94.4143 932 30.5287
94.5307 905 30.0832
94.6472 798 28.2489
94.7637 873 29.5466
94.8803 941 30.6757
94.9969 1082 32.8938
95.1135 1062 32.5883
95.2302 1121 33.4813
95.3469 1100 33.1662
95.4637 1183 34.3948
95.5805 1179 34.3366
95.6973 1202 34.6699
95.8142 1155 33.9853
95.9311 1169 34.1906
96.048 1190 34.4964
96.1649 1160 34.0588
96.2819 1122 33.4963
96.3989 1129 33.6006
96.516 1028 32.0624
96.633 1002 31.6544
96.7501 901 30.0167
96.8673 893 29.8831
96.9844 932 30.5287
97.1016 1025 32.0156
97.2188 1098 33.1361
97.336 1179 34.3366
97.4532 1241 35.2278
97.5704 1195 34.5688
97.6877 1213 34.8281
97.805 1200 34.641
97.9223 1142 33.7935
98.0396 1039 32.2335
98.1569 894 29.8998
98.2743 820 28.6356
98.3916 905 30.0832
98.509 883 29.7153
98.6264 1009 31.7648
98.7438 1063 32.6037
98.8612 1111 33.3317
98.9786 1203 34.6843
99.096 1206 34.7275
99.2134 1268 35.609
99.3308 1242 35.242
99.4482 1217 34.8855
99.5656 1259 35.4824
99.6831 1212 34.8138
99.8005 1238 35.1852
99.9179 1242 35.242
100.035 1179 34.3366
100.153 1096 33.1059
100.27 996 31.5595
100.388 1042 32.28
100.505 1073 32.7567
100.622 1074 32.7719
100.74 1156 34
100.857 1297 36.0139
100.975 1217 34.8855
101.092 1269 35.623
101.209 1299 36.0416
101.327 1260 35.4965
101.444 1241 35.2278
101.561 1155 33.9853
101.679 1036 32.187
101.796 911 30.1828
101.913 941 30.6757
102.03 949 30.8058
102.148 988 31.4325
102.265 1089 33
102.382 1236 35.1568
102.499 1222 34.9571
102.616 1194 34.5543
102.733 1292 35.9444
102.851 1346 36.6879
102.968 1298 36.0278
103.085 1319 36.318
103.202 1325 36.4005
103.319 1280 35.7771
103.436 1212 34.8138
103.552 1197 34.5977
103.669 1186 34.4384
103.786 1143 33.8083
103.903 1087 32.9697
104.02 1087 32.9697
104.137 1150 33.9116
104.253 1174 34.2637
104.37 1295 35.9861
104.487 1369 37
104.603 1305 36.1248
104.72 1369 37
104.836 1290 35.9166
104.953 1243 35.2562
105.069 1159 34.0441
105.186 1008 31.749
105.302 816 28.5657
105.418 789 28.0891
105.535 775 27.8388
105.651 889 29.8161
105.767 849 29.1376
105.883 871 29.5127
105.999 848 29.1204
106.115 0 1
106.231 0 1
106.347 0 1
106.463 0 1
106.579 0 1
106.694 0 1
106.81 0 1
106.926 0 1
107.041 0 1
107.157 0 1
109.576 0 1
109.692 0 1
109.807 0 1
109.923 0 1
110.039 0 1
110.155 0 1
110.27 0 1
110.386 0 1
110.502 0 1
110.618 522 22.8473
110.735 718 26.7955
110.851 771 27.7669
110.967 899 29.9833
111.083 1031 32.1092
111.199 1097 33.121
111.316 1164 34.1174
111.432 1133 33.6601
111.549 1220 34.9285
111.665 1142 33.7935
111.782 1152 33.9411
111.898 1180 34.3511
112.015 1215 34.8569
112.132 1186 34.4384
112.248 1118 33.4365
112.365 985 31.3847
112.482 987 31.4166
112.599 1103 33.2114
112.716 1171 34.2199
112.832 1208 34.7563
112.949 1250 35.3553
113.066 1241 35.2278
113.183 1304 36.1109
113.3 1316 36.2767
113.417 1259 35.4824
113.534 1195 34.5688
113.652 1079 32.8481
113.769 1002 31.6544
113.886 944 30.7246
114.003 894 29.8998
114.12 942 30.692
114.238 1074 32.7719
114.355 1119 33.4515
114.472 1188 34.4674
114.589 1301 36.0694
114.707 1270 35.6371
114.824 1275 35.7071
114.942 1291 35.9305
115.059 1261 35.5106
115.176 1282 35.805
115.294 1290 35.9166
115.411 1305 36.1248
115.529 1178 34.322
115.646 1188 34.4674
115.764 1145 33.8378
115.881 1066 32.6497
115.999 1074 32.7719
116.116 1099 33.1512
116.234 1143 33.8083
116.351 1163 34.1028
116.469 1219 34.9142
116.586 1256 35.4401
116.704 1287 35.8748
116.821 1239 35.1994
116.939 1299 36.0416
117.056 1276 35.7211
117.174 1211 34.7994
117.291 1109 33.3017
117.409 973 31.1929
117.526 893 29.8831
117.644 923 30.3809
117.761 988 31.4325
117.879 1065 32.6343
117.996 1144 33.8231
118.114 1159 34.0441
118.231 1127 33.5708
118.349 1271 35.6511
118.466 1239 35.1994
118.584 1269 35.623
118.701 1291 35.9305
118.819 1206 34.7275
118.936 1219 34.9142
119.053 1214 34.8425
119.171 1213 34.8281
119.288 1181 34.3657
119.405 1125 33.541
119.523 1025 32.0156
119.64 952 30.8545
119.757 1028 32.0624
119.875 1089 33
119.992 1087 32.9697
120.109 1241 35.2278
120.226 1115 33.3916
120.343 1155 33.9853
120.46 1145 33.8378
120.578 1172 34.2345
120.695 1141 33.7787
120.812 1132 33.6452
120.929 1062 32.5883
121.046 897 29.95
121.163 848 29.1204
121.279 816 28.5657
121.396 778 27.8927
121.513 902 30.0333
121.63 882 29.6985
121.747 903 30.05
121.863 921 30.348
121.98 982 31.3369
122.097 940 30.6594
122.213 950 30.8221
122.33 939 30.6431
122.446 901 30.0167
122.563 887 29.7825
122.679 819 28.6182
122.795 753 27.4408
122.912 652 25.5343
123.028 589 24.2693
123.144 500 22.3607
123.26 440 20.9762
123.377 0 1
123.493 0 1
123.609 0 1
123.725 0 1
123.84 0 1
123.956 0 1
124.072 0 1
124.188 0 1
124.303 0 1
124.419 0 1
126.852 0 1
126.968 0 1
127.083 0 1
127.199 0 1
127.315 0 1
127.431 0 1
127.547 0 1
127.663 0 1
127.779 0 1
127.895 0 1
128.011 0 1
128.127 0 1
128.243 0 1
128.359 1107 33.2716
128.476 1053 32.45
128.592 1046 32.3419
128.708 1042 32.28
128.825 1066 32.6497
128.941 1093 33.0606
129.058 1212 34.8138
129.174 1221 34.9428
129.291 1281 35.7911
129.408 1265 35.5668
129.524 1268 35.609
129.641 1236 35.1568
129.758 1302 36.0832
129.875 1108 33.2866
129.992 1097 33.121
130.108 960 30.9839
130.225 911 30.1828
130.342 927 30.4467
130.459 986 31.4006
130.576 1078 32.8329
130.693 1110 33.3167
130.81 1140 33.7639
130.928 1170 34.2053
131.045 1182 34.3802
131.162 1232 35.0999
131.279 1276 35.7211
131.396 1318 36.3043
131.513 1284 35.8329
131.631 1255 35.426
131.748 1189 34.4819
131.865 1155 33.9853
131.983 1146 33.8526
132.1 1094 33.0757
132.217 1101 33.1813
132.335 1131 33.6303
132.452 1085 32.9393
132.57 1149 33.8969
132.687 1261 35.5106
132.804 1235 35.1426
132.922 1293 35.9583
133.039 1364 36.9324
133.157 1258 35.4683
133.274 1293 35.9583
133.392 1290 35.9166
133.509 1110 33.3167
133.627 1044 32.311
133.744 1000 31.6228
133.862 925 30.4138
133.979 982 31.3369
134.097 1050 32.4037
134.214 1064 32.619
134.332 1152 33.9411
134.449 1280 35.7771
134.567 1273 35.6791
134.684 1215 34.8569
134.802 1324 36.3868
134.919 1255 35.426
135.037 1286 35.8608
135.154 1250 35.3553
135.272 1206 34.7275
135.389 1227 35.0286
135.507 1164 34.1174
135.624 1156 34
135.742 1111 33.3317
135.859 1103 33.2114
135.977 1054 32.4654
136.094 1095 33.0908
136.211 1249 35.3412
136.329 1283 35.819
136.446 1298 36.0278
136.564 1281 35.7911
136.681 1342 36.6333
136.798 1276 35.7211
136.915 1273 35.6791
137.033 1313 36.2353
137.15 1127 33.5708
137.267 1072 32.7414
137.384 1038 32.218
137.502 934 30.5614
137.619 940 30.6594
137.736 1023 31.9844
137.853 1083 32.909
137.97 1157 34.0147
138.087 1170 34.2053
138.204 1235 35.1426
138.321 1236 35.1568
138.438 1281 35.7911
138.555 1238 35.1852
138.672 1272 35.6651
138.788 1218 34.8999
138.905 1148 33.8821
139.022 1071 32.7261
139.139 1071 32.7261
139.255 945 30.7409
139.372 887 29.7825
139.488 824 28.7054
139.605 888 29.7993
139.721 776 27.8568
139.838 838 28.9482
139.954 873 29.5466
140.071 835 28.8964
140.187 831 28.8271
140.303 717 26.7769
140.419 642 25.3377
140.535 650 25.4951
140.652 564 23.7487
140.768 0 1
140.884 0 1
141 0 1
141.115 0 1
141.231 0 1
141.347 0 1
141.463 0 1
141.578 0 1
141.694 0 1
144.104 0 1
144.219 0 1
144.335 0 1
144.45 0 1
144.566 0 1
144.682 0 1
144.798 0 1
144.914 0 1
145.03 0 1
145.146 901 30.0167
145.262 984 31.3688
145.378 1049 32.3883
145.494 1037 32.2025
145.61 1077 32.8177
145.726 1017 31.8904
145.842 917 30.282
145.959 888 29.7993
146.075 862 29.3598
146.192 789 28.0891
146.308 809 28.4429
146.425 751 27.4044
146.541 823 28.688
146.658 918 30.2985
146.774 914 30.2324
146.891 924 30.3974
147.008 964 31.0483
147.125 1019 31.9218
147.241 949 30.8058
147.358 980 31.305
147.475 964 31.0483
147.592 951 30.8383
147.709 942 30.692
147.826 999 31.607
147.943 922 30.3645
148.06 851 29.1719
148.177 891 29.8496
148.294 881 29.6816
148.411 894 29.8998
148.528 914 30.2324
148.645 962 31.0161
148.762 986 31.4006
148.88 1029 32.078
148.997 1045 32.3265
149.114 976 31.241
149.231 953 30.8707
149.349 974 31.209
149.466 922 30.3645
149.583 883 29.7153
149.701 846 29.0861
149.818 799 28.2666
149.935 745 27.2947
150.053 800 28.2843
150.17 792 28.1425
150.287 839 28.9655
150.405 869 29.4788
150.522 918 30.2985
150.64 924 30.3974
150.757 947 30.7734
150.875 947 30.7734
150.992 961 31
151.11 923 30.3809
151.227 938 30.6268
151.344 918 30.2985
151.462 887 29.7825
151.579 907 30.1164
151.697 886 29.7658
151.814 835 28.8964
151.932 836 28.9137
152.049 812 28.4956
152.167 819 28.6182
152.284 885 29.7489
152.402 915 30.249
152.519 958 30.9516
152.636 956 30.9192
152.754 937 30.6105
152.871 955 30.9031
152.989 972 31.1769
153.106 923 30.3809
153.223 861 29.3428
153.341 796 28.2135
153.458 779 27.9106
153.575 731 27.037
153.693 755 27.4773
153.81 764 27.6405
153.927 820 28.6356
154.044 850 29.1548
154.162 851 29.1719
154.279 823 28.688
154.396 860 29.3258
154.513 891 29.8496
154.63 886 29.7658
154.747 883 29.7153
154.864 880 29.6648
154.981 845 29.0689
155.098 825 28.7228
155.215 776 27.8568
155.332 772 27.7849
155.449 782 27.9643
155.566 736 27.1293
155.683 799 28.2666
155.8 819 28.6182
155.917 817 28.5832
156.033 835 28.8964
156.15 0 1
156.267 0 1
156.383 0 1
156.5 0 1
156.617 0 1
156.733 0 1
156.85 0 1
156.966 0 1
157.082 0 1
157.199 0 1
157.315 0 1
157.431 0 1
157.547 0 1
157.664 0 1
157.78 0 1
157.896 0 1
158.012 0 1
158.128 0 1
158.244 0 1
158.359 0 1
158.475 0 1
158.591 0 1
158.706 0 1
