
6.15755 0 1
6.2731 0 1
6.3887 0 1
6.50437 0 1
6.62009 0 1
6.73587 0 1
6.8517 0 1
6.96759 0 1
7.08353 0 1
7.19952 0 1
7.31557 0 1
7.43166 0 1
7.54781 0 1
7.664 0 1
7.78024 0 1
7.89653 0 1
8.01286 0 1
8.12924 0 1
8.24567 0 1
8.36213 0 1
8.47864 0 1
8.59519 0 1
8.71178 0 1
8.82841 0 1
8.94508 0 1
9.06179 0 1
9.17853 0 1
9.29531 0 1
9.41212 0 1
9.52897 0 1
9.64584 0 1
9.76276 0 1
9.8797 0 1
9.99667 0 1
10.1137 0 1
10.2307 0 1
10.3478 0 1
10.4648 0 1
10.5819 0 1
10.6991 0 1
10.8162 0 1
10.9334 0 1
11.0506 0 1
11.1678 0 1
11.285 0 1
11.4023 0 1
11.5196 0 1
11.6369 0 1
11.7542 0 1
11.8715 0 1
11.9888 0 1
12.1062 0 1
12.2235 0 1
12.3409 0 1
12.4582 0 1
12.5756 0 1
12.693 0 1
12.8104 0 1
12.9278 0 1
13.0452 0 1
13.1626 0 1
13.28 0 1
13.3974 0 1
13.5149 0 1
13.6323 0 1
13.7497 0 1
13.8671 0 1
13.9845 0 1
14.1019 0 1
14.2193 0 1
14.3367 0 1
14.4541 0 1
14.5714 0 1
14.6888 0 1
14.8062 0 1
14.9235 0 1
15.0408 1597 39.9625
15.1581 1595 39.9375
15.2755 1560 39.4968
15.3927 1587 39.8372
15.51 1602 40.025
15.6273 1513 38.8973
15.7445 1515 38.923
15.8617 1526 39.064
15.9789 1554 39.4208
16.0961 1557 39.4588
16.2132 1583 39.7869
16.3304 1513 38.8973
16.4475 1574 39.6737
16.5646 1454 38.1314
16.6816 1508 38.833
16.7986 1502 38.7556
16.9156 1500 38.7298
17.0326 1489 38.5876
17.1496 1467 38.3014
17.2665 1470 38.3406
17.3833 1471 38.3536
17.5002 1462 38.2361
17.617 1407 37.51
17.7338 1419 37.6696
17.8505 1425 37.7492
17.9672 1451 38.092
18.0839 1572 39.6485
18.2005 1551 39.3827
18.3171 1616 40.1995
18.4337 1630 40.3733
18.5502 1646 40.5709
18.6666 1669 40.8534
18.7831 1625 40.3113
18.8994 1672 40.8901
19.0158 1565 39.5601
19.1321 1543 39.281
19.2483 1573 39.6611
19.3645 1559 39.4842
19.4806 1509 38.8458
19.5967 1456 38.1576
19.7128 1363 36.9188
19.8288 915 30.249
19.9447 352 18.7617
20.0606 0 1
20.1764 0 1
20.2922 0 1
20.4079 0 1
20.5236 0 1
20.6392 0 1
20.7548 0 1
20.8702 0 1
23.3078 0 1
23.4233 0 1
23.539 0 1
23.6547 0 1
23.7704 0 1
23.8862 0 1
24.0021 0 1
24.118 0 1
24.234 0 1
24.35 0 1
24.4661 1505 38.7943
24.5822 1520 38.9872
24.6984 1531 39.128
24.8146 1551 39.3827
24.9309 1463 38.2492
25.0472 1483 38.5097
25.1636 1497 38.6911
25.28 1419 37.6696
25.3965 1551 39.3827
25.513 1554 39.4208
25.6296 1582 39.7744
25.7462 1563 39.5348
25.8628 1667 40.8289
25.9795 1621 40.2616
26.0962 1711 41.3642
26.213 1573 39.6611
26.3298 1554 39.4208
26.4466 1531 39.128
26.5635 1465 38.2753
26.6804 1384 37.2022
26.7973 1262 35.5246
26.9143 1383 37.1887
27.0313 1449 38.0657
27.1483 1630 40.3733
27.2653 1570 39.6232
27.3824 1565 39.5601
27.4996 1582 39.7744
27.6167 1555 39.4335
27.7339 1630 40.3733
27.8511 1535 39.1791
27.9683 1582 39.7744
28.0855 1535 39.1791
28.2028 1539 39.2301
28.3201 1520 38.9872
28.4374 1466 38.2884
28.5547 1529 39.1024
28.6721 1499 38.7169
28.7894 1478 38.4448
28.9068 1499 38.7169
29.0242 1474 38.3927
29.1416 1525 39.0512
29.259 1456 38.1576
29.3764 1567 39.5854
29.4939 1455 38.1445
29.6113 1543 39.281
29.7288 1492 38.6264
29.8463 1557 39.4588
29.9638 1447 38.0395
30.0812 1343 36.647
30.1987 1288 35.8887
30.3162 1197 34.5977
30.4337 1312 36.2215
30.5512 1373 37.054
30.6687 1469 38.3275
30.7862 1491 38.6135
30.9037 1548 39.3446
31.0212 1541 39.2556
31.1387 1664 40.7922
31.2562 1520 38.9872
31.3737 1580 39.7492
31.4912 1493 38.6394
31.6087 1540 39.2428
31.7262 1473 38.3797
31.8436 1477 38.4318
31.9611 1442 37.9737
32.0785 1432 37.8418
32.1959 1411 37.5633
32.3134 1466 38.2884
32.4308 1449 38.0657
32.5482 1478 38.4448
32.6655 1538 39.2173
32.7829 1452 38.1051
32.9002 1452 38.1051
33.0176 1533 39.1535
33.1349 1475 38.4057
33.2522 1571 39.6358
33.3694 1481 38.4838
33.4867 1442 37.9737
33.6039 1444 38
33.7211 1378 37.1214
33.8383 1207 34.7419
33.9554 1202 34.6699
34.0725 1245 35.2846
34.1896 1344 36.6606
34.3067 1336 36.5513
34.4237 1418 37.6563
34.5407 1539 39.2301
34.6577 1481 38.4838
34.7746 1549 39.3573
34.8915 1510 38.8587
35.0084 1493 38.6394
35.1252 1471 38.3536
35.242 1387 37.2424
35.3587 1472 38.3667
35.4755 1411 37.5633
35.5921 1405 37.4833
35.7088 1445 38.0132
35.8254 1416 37.6298
35.9419 1423 37.7227
36.0584 1432 37.8418
36.1749 1407 37.51
36.2913 1373 37.054
36.4077 1379 37.1349
36.524 1420 37.6829
36.6403 1423 37.7227
36.7565 1459 38.1969
36.8727 1446 38.0263
36.9889 1397 37.3765
37.1049 1446 38.0263
37.221 0 1
37.3369 0 1
37.4529 0 1
37.5687 0 1
37.6845 0 1
37.8003 0 1
37.916 0 1
38.0316 0 1
38.1472 0 1
40.5851 0 1
40.7008 0 1
40.8164 0 1
40.9322 0 1
41.048 0 1
41.1639 0 1
41.2798 0 1
41.3958 0 1
41.5118 0 1
41.6279 0 1
41.744 1110 33.3167
41.8602 1126 33.5559
41.9765 1196 34.5832
42.0928 1167 34.1614
42.2091 1150 33.9116
42.3255 1165 34.1321
42.4419 1105 33.2415
42.5584 1002 31.6544
42.675 939 30.6431
42.7915 906 30.0998
42.9081 897 29.95
43.0248 1045 32.3265
43.1415 989 31.4484
43.2582 1074 32.7719
43.375 1100 33.1662
43.4918 1134 33.6749
43.6087 1081 32.8786
43.7256 1073 32.7567
43.8425 1050 32.4037
43.9595 1020 31.9374
44.0765 1009 31.7648
44.1935 956 30.9192
44.3106 1042 32.28
44.4277 1003 31.6702
44.5448 986 31.4006
44.6619 949 30.8058
44.7791 866 29.4279
44.8963 931 30.5123
45.0136 821 28.6531
45.1308 856 29.2575
45.2481 874 29.5635
45.3654 809 28.4429
45.4827 813 28.5132
45.6001 839 28.9655
45.7174 818 28.6007
45.8348 863 29.3769
45.9522 842 29.0172
46.0697 690 26.2679
46.1871 679 26.0576
46.3046 635 25.1992
46.422 655 25.593
46.5395 694 26.3439
46.657 733 27.074
46.7745 762 27.6043
46.892 768 27.7128
47.0096 752 27.4226
47.1271 805 28.3725
47.2446 775 27.8388
47.3622 762 27.6043
47.4797 720 26.8328
47.5973 704 26.533
47.7149 713 26.7021
47.8324 669 25.865
47.95 644 25.3772
48.0675 672 25.923
48.1851 662 25.7294
48.3027 664 25.7682
48.4202 649 25.4755
48.5378 626 25.02
48.6554 585 24.1868
48.7729 609 24.6779
48.8904 591 24.3105
49.008 646 25.4165
49.1255 638 25.2587
49.243 586 24.2074
49.3605 596 24.4131
49.478 581 24.1039
49.5955 571 23.8956
49.713 528 22.9783
49.8304 489 22.1133
49.9479 512 22.6274
50.0653 566 23.7908
50.1827 614 24.779
50.3001 715 26.7395
50.4175 674 25.9615
50.5348 731 27.037
50.6521 783 27.9821
50.7694 789 28.0891
50.8867 818 28.6007
51.004 830 28.8097
51.1212 806 28.3901
51.2384 866 29.4279
51.3556 862 29.3598
51.4727 848 29.1204
51.5899 867 29.4449
51.707 834 28.8791
51.824 890 29.8329
51.9411 814 28.5307
52.0581 900 30
52.175 925 30.4138
52.2919 951 30.8383
52.4088 969 31.1288
52.5257 1027 32.0468
52.6425 1035 32.1714
52.7593 1038 32.218
52.876 961 31
52.9927 981 31.3209
53.1094 1026 32.0312
53.226 879 29.6479
53.3426 844 29.0517
53.4591 804 28.3549
53.5756 888 29.7993
53.692 1000 31.6228
53.8084 1135 33.6898
53.9248 1122 33.4963
54.0411 1199 34.6266
54.1573 1182 34.3802
54.2735 0 1
54.3896 0 1
54.5057 0 1
54.6217 0 1
54.7377 0 1
54.8537 0 1
54.9695 0 1
55.0853 0 1
55.2011 0 1
55.3168 0 1
55.4324 0 1
57.824 0 1
57.9396 0 1
58.0553 0 1
58.1711 0 1
58.2869 0 1
58.4028 0 1
58.5187 0 1
58.6347 0 1
58.7508 0 1
58.8669 0 1
58.983 1217 34.8855
59.0992 1373 37.054
59.2155 1352 36.7696
59.3318 1374 37.0675
59.4482 1414 37.6032
59.5646 1505 38.7943
59.681 1406 37.4967
59.7975 1487 38.5616
59.9141 1390 37.2827
60.0306 1427 37.7757
60.1473 1397 37.3765
60.2639 1312 36.2215
60.3807 1288 35.8887
60.4974 1207 34.7419
60.6142 1202 34.6699
60.731 1199 34.6266
60.8479 1268 35.609
60.9648 1226 35.0143
61.0818 1235 35.1426
61.1987 1224 34.9857
61.3158 1270 35.6371
61.4328 1173 34.2491
61.5499 1207 34.7419
61.667 1125 33.541
61.7841 1038 32.218
61.9013 978 31.273
62.0185 933 30.545
62.1357 1063 32.6037
62.253 1067 32.665
62.3702 1221 34.9428
62.4875 1284 35.8329
62.6049 1286 35.8608
62.7222 1371 37.027
62.8396 1398 37.3898
62.9569 1411 37.5633
63.0743 1432 37.8418
63.1918 1457 38.1707
63.3092 1404 37.47
63.4267 1436 37.8946
63.5441 1446 38.0263
63.6616 1353 36.7831
63.7791 1304 36.1109
63.8966 1364 36.9324
64.0142 1307 36.1525
64.1317 1354 36.7967
64.2492 1320 36.3318
64.3668 1318 36.3043
64.4843 1297 36.0139
64.6019 1303 36.0971
64.7195 1371 37.027
64.837 1297 36.0139
64.9546 1344 36.6606
65.0722 1366 36.9594
65.1898 1291 35.9305
65.3074 1102 33.1964
65.4249 1075 32.7872
65.5425 1031 32.1092
65.6601 1071 32.7261
65.7777 1084 32.9242
65.8952 1208 34.7563
66.0128 1291 35.9305
66.1304 1375 37.081
66.2479 1416 37.6298
66.3655 1396 37.3631
66.483 1467 38.3014
66.6005 1467 38.3014
66.718 1466 38.2884
66.8355 1407 37.51
66.953 1409 37.5366
67.0705 1373 37.054
67.1879 1356 36.8239
67.3054 1370 37.0135
67.4228 1233 35.1141
67.5402 1267 35.5949
67.6576 1204 34.6987
67.7749 1179 34.3366
67.8923 1229 35.0571
68.0096 1176 34.2929
68.1269 1155 33.9853
68.2442 1219 34.9142
68.3614 1202 34.6699
68.4787 1215 34.8569
68.5958 1298 36.0278
68.713 1261 35.5106
68.8302 1146 33.8526
68.9473 1060 32.5576
69.0643 946 30.7571
69.1814 886 29.7658
69.2984 908 30.133
69.4154 980 31.305
69.5323 1086 32.9545
69.6492 1185 34.4238
69.7661 1212 34.8138
69.8829 1302 36.0832
69.9997 1390 37.2827
70.1165 1393 37.3229
70.2332 1371 37.027
70.3499 1369 37
70.4665 1375 37.081
70.5831 1357 36.8375
70.6996 1397 37.3765
70.8161 1311 36.2077
70.9326 1246 35.2987
71.049 1160 34.0588
71.1653 1143 33.8083
71.2817 1137 33.7194
71.3979 1164 34.1174
71.5141 1108 33.2866
71.6303 1092 33.0454
71.7464 1020 31.9374
71.8624 0 1
71.9784 0 1
72.0944 0 1
72.2102 0 1
72.3261 0 1
72.4418 0 1
72.5575 0 1
72.6732 0 1
75.1054 0 1
75.2209 0 1
75.3365 0 1
75.4521 0 1
75.5678 0 1
75.6835 0 1
75.7993 0 1
75.9151 0 1
76.031 0 1
76.147 1250 35.3553
76.263 1238 35.1852
76.3791 1270 35.6371
76.4952 1165 34.1321
76.6113 1150 33.9116
76.7276 1211 34.7994
76.8438 1198 34.6121
76.9601 1204 34.6987
77.0765 1212 34.8138
77.1929 1203 34.6843
77.3093 1282 35.805
77.4258 1294 35.9722
77.5423 1278 35.7491
77.6589 1309 36.1801
77.7755 1224 34.9857
77.8921 1076 32.8024
78.0088 976 31.241
78.1256 887 29.7825
78.2423 839 28.9655
78.3591 867 29.4449
78.4759 872 29.5296
78.5928 1137 33.7194
78.7097 1182 34.3802
78.8266 1180 34.3511
78.9436 1329 36.4555
79.0606 1273 35.6791
79.1776 1281 35.7911
79.2946 1307 36.1525
79.4117 1338 36.5787
79.5288 1322 36.3593
79.6459 1279 35.7631
79.7631 1230 35.0714
79.8802 1124 33.5261
79.9974 1172 34.2345
80.1147 1058 32.5269
80.2319 1040 32.249
80.3491 978 31.273
80.4664 1049 32.3883
80.5837 994 31.5278
80.701 1062 32.5883
80.8183 1067 32.665
80.9357 1062 32.5883
81.053 1168 34.176
81.1704 1181 34.3657
81.2877 1085 32.9393
81.4051 1112 33.3467
81.5225 972 31.1769
81.6399 909 30.1496
81.7573 840 28.9828
81.8747 778 27.8927
81.9922 745 27.2947
82.1096 783 27.9821
82.227 931 30.5123
82.3444 1071 32.7261
82.4619 1059 32.5423
82.5793 1142 33.7935
82.6967 1170 34.2053
82.8142 1101 33.1813
82.9316 1180 34.3511
83.049 1186 34.4384
83.1664 1148 33.8821
83.2838 1058 32.5269
83.4012 1040 32.249
83.5186 1015 31.8591
83.636 972 31.1769
83.7534 901 30.0167
83.8708 834 28.8791
83.9881 900 30
84.1055 886 29.7658
84.2228 935 30.5778
84.3401 910 30.1662
84.4575 924 30.3974
84.5747 998 31.5911
84.692 1025 32.0156
84.8093 1015 31.8591
84.9265 1004 31.686
85.0437 901 30.0167
85.1609 860 29.3258
85.2781 749 27.3679
85.3952 709 26.6271
85.5123 678 26.0384
85.6294 745 27.2947
85.7465 891 29.8496
85.8636 946 30.7571
85.9806 1025 32.0156
86.0976 1152 33.9411
86.2145 1182 34.3802
86.3315 1269 35.623
86.4484 1206 34.7275
86.5652 1267 35.5949
86.682 1268 35.609
86.7988 1288 35.8887
86.9156 1228 35.0428
87.0323 1238 35.1852
87.149 1138 33.7343
87.2657 1090 33.0151
87.3823 1061 32.573
87.4988 1037 32.2025
87.6154 1071 32.7261
87.7318 1203 34.6843
87.8483 1157 34.0147
87.9647 1218 34.8999
88.081 1235 35.1426
88.1973 1283 35.819
88.3136 1283 35.819
88.4298 1260 35.4965
88.546 1212 34.8138
88.6621 1066 32.6497
88.7781 996 31.5595
88.8942 0 1
89.0101 0 1
89.126 0 1
89.2419 0 1
89.3577 0 1
89.4734 0 1
89.5891 0 1
89.7047 0 1
89.8203 0 1
89.9358 0 1
92.3269 0 1
92.4424 0 1
92.558 0 1
92.6736 0 1
92.7893 0 1
92.905 0 1
93.0208 0 1
93.1366 0 1
93.2525 0 1
93.3685 0 1
93.4845 0 1
93.6005 1260 35.4965
93.7167 1261 35.5106
93.8328 1234 35.1283
93.949 1180 34.3511
94.0653 1180 34.3511
94.1816 1037 32.2025
94.2979 1025 32.0156
94.4143 963 31.0322
94.5307 937 30.6105
94.6472 901 30.0167
94.7637 1002 31.6544
94.8803 1123 33.5112
94.9969 1119 33.4515
95.1135 1206 34.7275
95.2302 1285 35.8469
95.3469 1398 37.3898
95.4637 1358 36.8511
95.5805 1399 37.4032
95.6973 1373 37.054
95.8142 1453 38.1182
95.9311 1408 37.5233
96.048 1369 37
96.1649 1310 36.1939
96.2819 1279 35.7631
96.3989 1227 35.0286
96.516 1255 35.426
96.633 1150 33.9116
96.7501 1210 34.7851
96.8673 1151 33.9264
96.9844 1228 35.0428
97.1016 1228 35.0428
97.2188 1234 35.1283
97.336 1276 35.7211
97.4532 1351 36.756
97.5704 1263 35.5387
97.6877 1217 34.8855
97.805 1179 34.3366
97.9223 1006 31.7175
98.0396 969 31.1288
98.1569 859 29.3087
98.2743 858 29.2916
98.3916 916 30.2655
98.509 1073 32.7567
98.6264 1161 34.0735
98.7438 1258 35.4683
98.8612 1388 37.2559
98.9786 1335 36.5377
99.096 1491 38.6135
99.2134 1439 37.9342
99.3308 1478 38.4448
99.4482 1404 37.47
99.5656 1426 37.7624
99.6831 1379 37.1349
99.8005 1294 35.9722
99.9179 1329 36.4555
100.035 1186 34.4384
100.153 1253 35.3977
100.27 1226 35.0143
100.388 1226 35.0143
100.505 1239 35.1994
100.622 1239 35.1994
100.74 1237 35.171
100.857 1343 36.647
100.975 1392 37.3095
101.092 1325 36.4005
101.209 1291 35.9305
101.327 1226 35.0143
101.444 1110 33.3167
101.561 1035 32.1714
101.679 967 31.0966
101.796 927 30.4467
101.913 992 31.496
102.03 1099 33.1512
102.148 1282 35.805
102.265 1265 35.5668
102.382 1401 37.4299
102.499 1413 37.5899
102.616 1464 38.2623
102.733 1541 39.2556
102.851 1588 39.8497
102.968 1494 38.6523
103.085 1541 39.2556
103.202 1475 38.4057
103.319 1441 37.9605
103.436 1387 37.2424
103.552 1338 36.5787
103.669 1282 35.805
103.786 1315 36.2629
103.903 1273 35.6791
104.02 1338 36.5787
104.137 1383 37.1887
104.253 1285 35.8469
104.37 1421 37.6962
104.487 1498 38.704
104.603 1443 37.9868
104.72 1406 37.4967
104.836 1303 36.0971
104.953 1140 33.7639
105.069 1059 32.5423
105.186 1056 32.4962
105.302 999 31.607
105.418 1080 32.8634
105.535 1302 36.0832
105.651 1421 37.6962
105.767 1481 38.4838
105.883 1524 39.0384
105.999 1577 39.7115
106.115 0 1
106.231 0 1
106.347 0 1
106.463 0 1
106.579 0 1
106.694 0 1
106.81 0 1
106.926 0 1
107.041 0 1
107.157 0 1
109.576 0 1
109.692 0 1
109.807 0 1
109.923 0 1
110.039 0 1
110.155 0 1
110.27 0 1
110.386 0 1
110.502 0 1
110.618 1233 35.1141
110.735 1319 36.318
110.851 1439 37.9342
110.967 1495 38.6652
111.083 1499 38.7169
111.199 1545 39.3065
111.316 1586 39.8246
111.432 1600 40
111.549 1541 39.2556
111.665 1547 39.3319
111.782 1555 39.4335
111.898 1416 37.6298
112.015 1359 36.8646
112.132 1384 37.2022
112.248 1303 36.0971
112.365 1238 35.1852
112.482 1186 34.4384
112.599 1323 36.3731
112.716 1352 36.7696
112.832 1314 36.2491
112.949 1383 37.1887
113.066 1343 36.647
113.183 1326 36.4143
113.3 1320 36.3318
113.417 1248 35.327
113.534 1092 33.0454
113.652 1009 31.7648
113.769 1007 31.7333
113.886 964 31.0483
114.003 1002 31.6544
114.12 1118 33.4365
114.238 1263 35.5387
114.355 1337 36.565
114.472 1407 37.51
114.589 1529 39.1024
114.707 1455 38.1445
114.824 1443 37.9868
114.942 1468 38.3145
115.059 1473 38.3797
115.176 1436 37.8946
115.294 1386 37.229
115.411 1396 37.3631
115.529 1419 37.6696
115.646 1378 37.1214
115.764 1299 36.0416
115.881 1239 35.1994
115.999 1203 34.6843
116.116 1282 35.805
116.234 1337 36.565
116.351 1319 36.318
116.469 1340 36.606
116.586 1427 37.7757
116.704 1369 37
116.821 1326 36.4143
116.939 1331 36.4829
117.056 1108 33.2866
117.174 1124 33.5261
117.291 1027 32.0468
117.409 1063 32.6037
117.526 1106 33.2566
117.644 1188 34.4674
117.761 1274 35.6931
117.879 1406 37.4967
117.996 1449 38.0657
118.114 1494 38.6523
118.231 1566 39.5727
118.349 1562 39.5221
118.466 1526 39.064
118.584 1646 40.5709
118.701 1598 39.975
118.819 1539 39.2301
118.936 1459 38.1969
119.053 1506 38.8072
119.171 1408 37.5233
119.288 1380 37.1484
119.405 1333 36.5103
119.523 1296 36
119.64 1281 35.7911
119.757 1280 35.7771
119.875 1373 37.054
119.992 1342 36.6333
120.109 1357 36.8375
120.226 1391 37.2961
120.343 1326 36.4143
120.46 1388 37.2559
120.578 1283 35.819
120.695 1207 34.7419
120.812 1128 33.5857
120.929 1121 33.4813
121.046 1099 33.1512
121.163 1081 32.8786
121.279 1108 33.2866
121.396 1285 35.8469
121.513 1373 37.054
121.63 1466 38.2884
121.747 1396 37.3631
121.863 1467 38.3014
121.98 1518 38.9615
122.097 1549 39.3573
122.213 1494 38.6523
122.33 1533 39.1535
122.446 1506 38.8072
122.563 1464 38.2623
122.679 1469 38.3275
122.795 1447 38.0395
122.912 1346 36.6879
123.028 1309 36.1801
123.144 1205 34.7131
123.26 1249 35.3412
123.377 0 1
123.493 0 1
123.609 0 1
123.725 0 1
123.84 0 1
123.956 0 1
124.072 0 1
124.188 0 1
124.303 0 1
124.419 0 1
126.852 0 1
126.968 0 1
127.083 0 1
127.199 0 1
127.315 0 1
127.431 0 1
127.547 0 1
127.663 0 1
127.779 0 1
127.895 0 1
128.011 0 1
128.127 0 1
128.243 0 1
128.359 1483 38.5097
128.476 1391 37.2961
128.592 1325 36.4005
128.708 1407 37.51
128.825 1501 38.7427
128.941 1554 39.4208
129.058 1547 39.3319
129.174 1526 39.064
129.291 1478 38.4448
129.408 1530 39.1152
129.524 1425 37.7492
129.641 1307 36.1525
129.758 1249 35.3412
129.875 1201 34.6554
129.992 1193 34.5398
130.108 1177 34.3074
130.225 1243 35.2562
130.342 1293 35.9583
130.459 1474 38.3927
130.576 1548 39.3446
130.693 1611 40.1373
130.81 1578 39.724
130.928 1714 41.4005
131.045 1615 40.1871
131.162 1604 40.05
131.279 1669 40.8534
131.396 1608 40.0999
131.513 1708 41.328
131.631 1615 40.1871
131.748 1526 39.064
131.865 1539 39.2301
131.983 1502 38.7556
132.1 1393 37.3229
132.217 1406 37.4967
132.335 1537 39.2046
132.452 1665 40.8044
132.57 1561 39.5095
132.687 1526 39.064
132.804 1574 39.6737
132.922 1476 38.4187
133.039 1486 38.5487
133.157 1515 38.923
133.274 1380 37.1484
133.392 1304 36.1109
133.509 1265 35.5668
133.627 1245 35.2846
133.744 1340 36.606
133.862 1424 37.7359
133.979 1456 38.1576
134.097 1538 39.2173
134.214 1533 39.1535
134.332 1599 39.9875
134.449 1645 40.5586
134.567 1690 41.1096
134.684 1601 40.0125
134.802 1746 41.7852
134.919 1564 39.5474
135.037 1624 40.2989
135.154 1633 40.4104
135.272 1603 40.0375
135.389 1581 39.7618
135.507 1472 38.3667
135.624 1384 37.2022
135.742 1420 37.6829
135.859 1490 38.6005
135.977 1504 38.7814
136.094 1614 40.1746
136.211 1589 39.8623
136.329 1548 39.3446
136.446 1592 39.8999
136.564 1467 38.3014
136.681 1461 38.223
136.798 1319 36.318
136.915 1393 37.3229
137.033 1277 35.7351
137.15 1238 35.1852
137.267 1224 34.9857
137.384 1329 36.4555
137.502 1435 37.8814
137.619 1439 37.9342
137.736 1559 39.4842
137.853 1524 39.0384
137.97 1626 40.3237
138.087 1540 39.2428
138.204 1562 39.5221
138.321 1646 40.5709
138.438 1656 40.694
138.555 1645 40.5586
138.672 1609 40.1123
138.788 1556 39.4462
138.905 1635 40.4351
139.022 1576 39.6989
139.139 1403 37.4566
139.255 1383 37.1887
139.372 1378 37.1214
139.488 1518 38.9615
139.605 1497 38.6911
139.721 1538 39.2173
139.838 1585 39.8121
139.954 1539 39.2301
140.071 1561 39.5095
140.187 1497 38.6911
140.303 1452 38.1051
140.419 1383 37.1887
140.535 1336 36.5513
140.652 1277 35.7351
140.768 0 1
140.884 0 1
141 0 1
141.115 0 1
141.231 0 1
141.347 0 1
141.463 0 1
141.578 0 1
141.694 0 1
144.104 0 1
144.219 0 1
144.335 0 1
144.45 0 1
144.566 0 1
144.682 0 1
144.798 0 1
144.914 0 1
145.03 0 1
145.146 1068 32.6803
145.262 1111 33.3317
145.378 1111 33.3317
145.494 1091 33.0303
145.61 1046 32.3419
145.726 1032 32.1248
145.842 1052 32.4345
145.959 997 31.5753
146.075 1008 31.749
146.192 1019 31.9218
146.308 994 31.5278
146.425 1118 33.4365
146.541 1157 34.0147
146.658 1225 35
146.774 1192 34.5254
146.891 1140 33.7639
147.008 1171 34.2199
147.125 1244 35.2704
147.241 1242 35.242
147.358 1241 35.2278
147.475 1224 34.9857
147.592 1270 35.6371
147.709 1254 35.4119
147.826 1249 35.3412
147.943 1181 34.3657
148.06 1145 33.8378
148.177 1050 32.4037
148.294 1097 33.121
148.411 1160 34.0588
148.528 1201 34.6554
148.645 1218 34.8999
148.762 1255 35.426
148.88 1270 35.6371
148.997 1191 34.5109
149.114 1252 35.3836
149.231 1195 34.5688
149.349 1171 34.2199
149.466 1156 34
149.583 1115 33.3916
149.701 1019 31.9218
149.818 1051 32.4191
149.935 1011 31.7962
150.053 1024 32
150.17 1191 34.5109
150.287 1176 34.2929
150.405 1145 33.8378
150.522 1213 34.8281
150.64 1287 35.8748
150.757 1246 35.2987
150.875 1286 35.8608
150.992 1239 35.1994
151.11 1261 35.5106
151.227 1327 36.428
151.344 1259 35.4824
151.462 1225 35
151.579 1224 34.9857
151.697 1214 34.8425
151.814 1135 33.6898
151.932 1119 33.4515
152.049 1106 33.2566
152.167 1220 34.9285
152.284 1241 35.2278
152.402 1247 35.3129
152.519 1226 35.0143
152.636 1281 35.7911
152.754 1205 34.7131
152.871 1273 35.6791
152.989 1187 34.4529
153.106 1189 34.4819
153.223 1132 33.6452
153.341 1113 33.3617
153.458 1137 33.7194
153.575 1104 33.2265
153.693 1115 33.3916
153.81 1236 35.1568
153.927 1204 34.6987
154.044 1269 35.623
154.162 1313 36.2353
154.279 1327 36.428
154.396 1361 36.8917
154.513 1349 36.7287
154.63 1421 37.6962
154.747 1415 37.6165
154.864 1444 38
154.981 1432 37.8418
155.098 1374 37.0675
155.215 1338 36.5787
155.332 1330 36.4692
155.449 1278 35.7491
155.566 1262 35.5246
155.683 1301 36.0694
155.8 1406 37.4967
155.917 1383 37.1887
156.033 1291 35.9305
156.15 0 1
156.267 0 1
156.383 0 1
156.5 0 1
156.617 0 1
156.733 0 1
156.85 0 1
156.966 0 1
157.082 0 1
157.199 0 1
157.315 0 1
157.431 0 1
157.547 0 1
157.664 0 1
157.78 0 1
157.896 0 1
158.012 0 1
158.128 0 1
158.244 0 1
158.359 0 1
158.475 0 1
158.591 0 1
158.706 0 1
