
6.15755 0 1
6.2731 0 1
6.3887 0 1
6.50437 0 1
6.62009 0 1
6.73587 0 1
6.8517 0 1
6.96759 0 1
7.08353 0 1
7.19952 0 1
7.31557 0 1
7.43166 0 1
7.54781 0 1
7.664 0 1
7.78024 0 1
7.89653 0 1
8.01286 0 1
8.12924 0 1
8.24567 0 1
8.36213 0 1
8.47864 0 1
8.59519 0 1
8.71178 0 1
8.82841 0 1
8.94508 0 1
9.06179 0 1
9.17853 0 1
9.29531 0 1
9.41212 0 1
9.52897 0 1
9.64584 0 1
9.76276 0 1
9.8797 0 1
9.99667 0 1
10.1137 0 1
10.2307 0 1
10.3478 0 1
10.4648 0 1
10.5819 0 1
10.6991 0 1
10.8162 0 1
10.9334 0 1
11.0506 0 1
11.1678 0 1
11.285 0 1
11.4023 0 1
11.5196 0 1
11.6369 0 1
11.7542 0 1
11.8715 0 1
11.9888 0 1
12.1062 0 1
12.2235 0 1
12.3409 0 1
12.4582 0 1
12.5756 0 1
12.693 0 1
12.8104 0 1
12.9278 0 1
13.0452 0 1
13.1626 0 1
13.28 0 1
13.3974 0 1
13.5149 0 1
13.6323 0 1
13.7497 0 1
13.8671 0 1
13.9845 0 1
14.1019 0 1
14.2193 0 1
14.3367 0 1
14.4541 0 1
14.5714 0 1
14.6888 0 1
14.8062 0 1
14.9235 0 1
15.0408 3975 63.0476
15.1581 4170 64.5755
15.2755 4348 65.9394
15.3927 4301 65.582
15.51 4229 65.0308
15.6273 4090 63.9531
15.7445 4100 64.0312
15.8617 4186 64.6993
15.9789 4014 63.3561
16.0961 4033 63.5059
16.2132 3839 61.9597
16.3304 3807 61.7009
16.4475 3936 62.7375
16.5646 3733 61.0983
16.6816 3859 62.1208
16.7986 3769 61.3922
16.9156 3787 61.5386
17.0326 3781 61.4898
17.1496 3710 60.9098
17.2665 3816 61.7738
17.3833 3700 60.8276
17.5002 3663 60.5227
17.617 3783 61.5061
17.7338 3780 61.4817
17.8505 3853 62.0725
17.9672 3627 60.2246
18.0839 3898 62.434
18.2005 3762 61.3351
18.3171 3847 62.0242
18.4337 3764 61.3514
18.5502 3710 60.9098
18.6666 3707 60.8851
18.7831 3684 60.696
18.8994 3667 60.5558
19.0158 3453 58.7622
19.1321 3244 56.9561
19.2483 3323 57.6455
19.3645 3277 57.2451
19.4806 3221 56.7539
19.5967 3144 56.0714
19.7128 2821 53.1131
19.8288 2555 50.547
19.9447 2234 47.2652
20.0606 0 1
20.1764 0 1
20.2922 0 1
20.4079 0 1
20.5236 0 1
20.6392 0 1
20.7548 0 1
20.8702 0 1
23.3078 0 1
23.4233 0 1
23.539 0 1
23.6547 0 1
23.7704 0 1
23.8862 0 1
24.0021 0 1
24.118 0 1
24.234 0 1
24.35 0 1
24.4661 1544 39.2938
24.5822 1862 43.1509
24.6984 2059 45.3762
24.8146 2241 47.3392
24.9309 2519 50.1896
25.0472 2874 53.6097
25.1636 3141 56.0446
25.28 3549 59.5735
25.3965 3690 60.7454
25.513 3910 62.53
25.6296 3827 61.8628
25.7462 4039 63.5531
25.8628 4081 63.8827
25.9795 4099 64.0234
26.0962 4074 63.8279
26.213 4088 63.9375
26.3298 3972 63.0238
26.4466 3676 60.63
26.5635 3689 60.7371
26.6804 3477 58.9661
26.7973 3519 59.3212
26.9143 3434 58.6003
27.0313 3459 58.8133
27.1483 3276 57.2364
27.2653 3328 57.6888
27.3824 3532 59.4306
27.4996 3662 60.5145
27.6167 3565 59.7076
27.7339 3389 58.2151
27.8511 3443 58.6771
27.9683 3584 59.8665
28.0855 3625 60.208
28.2028 3655 60.4566
28.3201 3746 61.2046
28.4374 3367 58.0259
28.5547 3400 58.3095
28.6721 3386 58.1893
28.7894 3356 57.931
28.9068 3437 58.6259
29.0242 3508 59.2284
29.1416 3622 60.1831
29.259 3540 59.4979
29.3764 3545 59.5399
29.4939 3494 59.1101
29.6113 3551 59.5903
29.7288 3521 59.338
29.8463 3450 58.7367
29.9638 3448 58.7197
30.0812 3462 58.8388
30.1987 3439 58.643
30.3162 3446 58.7026
30.4337 3383 58.1636
30.5512 3283 57.2975
30.6687 3189 56.4712
30.7862 3437 58.6259
30.9037 3710 60.9098
31.0212 3645 60.3738
31.1387 3602 60.0167
31.2562 3524 59.3633
31.3737 3576 59.7997
31.4912 3712 60.9262
31.6087 3750 61.2372
31.7262 3630 60.2495
31.8436 3457 58.7963
31.9611 3422 58.4979
32.0785 3231 56.8419
32.1959 3121 55.8659
32.3134 3235 56.8771
32.4308 3262 57.1139
32.5482 3114 55.8032
32.6655 3196 56.5332
32.7829 3165 56.2583
32.9002 3193 56.5066
33.0176 3232 56.8507
33.1349 3282 57.2887
33.2522 3111 55.7763
33.3694 3239 56.9122
33.4867 3275 57.2276
33.6039 3157 56.1872
33.7211 3232 56.8507
33.8383 3181 56.4004
33.9554 3185 56.4358
34.0725 3106 55.7315
34.1896 3044 55.1725
34.3067 3019 54.9454
34.4237 3176 56.356
34.5407 3230 56.8331
34.6577 3386 58.1893
34.7746 3281 57.28
34.8915 3148 56.107
35.0084 3220 56.745
35.1252 3313 57.5587
35.242 3248 56.9912
35.3587 3115 55.8122
35.4755 3028 55.0273
35.5921 3003 54.7996
35.7088 2794 52.8583
35.8254 2916 54
35.9419 2699 51.9519
36.0584 2911 53.9537
36.1749 2866 53.535
36.2913 2856 53.4416
36.4077 2886 53.7215
36.524 2844 53.3292
36.6403 2723 52.1824
36.7565 2553 50.5272
36.8727 2388 48.8672
36.9889 2244 47.3709
37.1049 2199 46.8935
37.221 0 1
37.3369 0 1
37.4529 0 1
37.5687 0 1
37.6845 0 1
37.8003 0 1
37.916 0 1
38.0316 0 1
38.1472 0 1
40.5851 0 1
40.7008 0 1
40.8164 0 1
40.9322 0 1
41.048 0 1
41.1639 0 1
41.2798 0 1
41.3958 0 1
41.5118 0 1
41.6279 0 1
41.744 1203 34.6843
41.8602 1460 38.2099
41.9765 1821 42.6732
42.0928 2021 44.9555
42.2091 2153 46.4004
42.3255 2318 48.1456
42.4419 2362 48.6004
42.5584 2368 48.6621
42.675 2415 49.1426
42.7915 2413 49.1223
42.9081 2326 48.2286
43.0248 2174 46.6262
43.1415 2098 45.8039
43.2582 2305 48.0104
43.375 2400 48.9898
43.4918 2422 49.2138
43.6087 2362 48.6004
43.7256 2395 48.9387
43.8425 2374 48.7237
43.9595 2348 48.4562
44.0765 2407 49.0612
44.1935 2371 48.6929
44.3106 2309 48.0521
44.4277 2255 47.4868
44.5448 2153 46.4004
44.6619 2145 46.3141
44.7791 2152 46.3897
44.8963 2212 47.0319
45.0136 2459 49.5883
45.1308 2400 48.9898
45.2481 2507 50.07
45.3654 2470 49.6991
45.4827 2467 49.6689
45.6001 2516 50.1597
45.7174 2547 50.4678
45.8348 2523 50.2295
45.9522 2543 50.4282
46.0697 2508 50.0799
46.1871 2571 50.705
46.3046 2539 50.3885
46.422 2308 48.0416
46.5395 2166 46.5403
46.657 2063 45.4203
46.7745 2200 46.9042
46.892 2297 47.927
47.0096 2463 49.6286
47.1271 2346 48.4355
47.2446 2486 49.8598
47.3622 2598 50.9706
47.4797 2516 50.1597
47.5973 2457 49.5681
47.7149 2405 49.0408
47.8324 2375 48.734
47.95 2276 47.7074
48.0675 2092 45.7384
48.1851 2153 46.4004
48.3027 2059 45.3762
48.4202 2146 46.3249
48.5378 2266 47.6025
48.6554 2338 48.3529
48.7729 2366 48.6415
48.8904 2392 48.9081
49.008 2430 49.295
49.1255 2404 49.0306
49.243 2454 49.5379
49.3605 2507 50.07
49.478 2389 48.8774
49.5955 2348 48.4562
49.713 2440 49.3964
49.8304 2233 47.2546
49.9479 2070 45.4973
50.0653 1892 43.4971
50.1827 1922 43.8406
50.3001 2086 45.6727
50.4175 2295 47.9062
50.5348 2282 47.7703
50.6521 2321 48.1768
50.7694 2384 48.8262
50.8867 2437 49.366
51.004 2321 48.1768
51.1212 2386 48.8467
51.2384 2428 49.2747
51.3556 2268 47.6235
51.4727 2073 45.5302
51.5899 2004 44.7661
51.707 1963 44.3058
51.824 2056 45.3431
51.9411 2130 46.1519
52.0581 2170 46.5833
52.175 2341 48.3839
52.2919 2383 48.816
52.4088 2339 48.3632
52.5257 2511 50.1099
52.6425 2406 49.051
52.7593 2438 49.3761
52.876 2330 48.2701
52.9927 2401 49
53.1094 2416 49.1528
53.226 2344 48.4149
53.3426 2304 48
53.4591 2276 47.7074
53.5756 2137 46.2277
53.692 1970 44.3847
53.8084 1896 43.5431
53.9248 1871 43.2551
54.0411 1895 43.5316
54.1573 2183 46.7226
54.2735 0 1
54.3896 0 1
54.5057 0 1
54.6217 0 1
54.7377 0 1
54.8537 0 1
54.9695 0 1
55.0853 0 1
55.2011 0 1
55.3168 0 1
55.4324 0 1
57.824 0 1
57.9396 0 1
58.0553 0 1
58.1711 0 1
58.2869 0 1
58.4028 0 1
58.5187 0 1
58.6347 0 1
58.7508 0 1
58.8669 0 1
58.983 21834 147.763
59.0992 30175 173.71
59.2155 39456 198.635
59.3318 48665 220.601
59.4482 56197 237.059
59.5646 64804 254.566
59.681 73772 271.61
59.7975 84648 290.943
59.9141 96937 311.347
60.0306 107736 328.232
60.1473 110933 333.066
60.2639 102994 320.927
60.3807 90820 301.364
60.4974 89746 299.576
60.6142 107814 328.35
60.731 142364 377.312
60.8479 182679 427.41
60.9648 213093 461.62
61.0818 231224 480.858
61.1987 243228 493.182
61.3158 251169 501.168
61.4328 257398 507.344
61.5499 265190 514.966
61.667 268394 518.068
61.7841 268450 518.122
61.9013 263175 513.006
62.0185 250894 500.893
62.1357 232326 482.002
62.253 205167 452.954
62.3702 177461 421.261
62.4875 151856 389.687
62.6049 131012 361.956
62.7222 112768 335.809
62.8396 96122 310.035
62.9569 81165 284.895
63.0743 69915 264.414
63.1918 61365 247.72
63.3092 52885 229.967
63.4267 42915 207.159
63.5441 33480 182.975
63.6616 25373 159.289
63.7791 18824 137.201
63.8966 13582 116.542
64.0142 10140 100.698
64.1317 7950 89.1628
64.2492 6536 80.8455
64.3668 5480 74.027
64.4843 5006 70.7531
64.6019 4562 67.5426
64.7195 4355 65.9924
64.837 4038 63.5453
64.9546 3857 62.1048
65.0722 3841 61.9758
65.1898 3765 61.3596
65.3074 3817 61.7819
65.4249 3606 60.05
65.5425 3437 58.6259
65.6601 3376 58.1034
65.7777 3143 56.0625
65.8952 3100 55.6776
66.0128 3198 56.5509
66.1304 3327 57.6802
66.2479 3482 59.0085
66.3655 3693 60.7701
66.483 3868 62.1932
66.6005 4245 65.1537
66.718 4119 64.1794
66.8355 4083 63.8984
66.953 3907 62.506
67.0705 3821 61.8142
67.1879 3569 59.7411
67.3054 3146 56.0892
67.4228 2773 52.6593
67.5402 2543 50.4282
67.6576 2593 50.9215
67.7749 2752 52.4595
67.8923 2903 53.8795
68.0096 3019 54.9454
68.1269 3011 54.8726
68.2442 3044 55.1725
68.3614 2786 52.7826
68.4787 2953 54.3415
68.5958 2838 53.2729
68.713 2968 54.4794
68.8302 2974 54.5344
68.9473 2900 53.8516
69.0643 2875 53.619
69.1814 2772 52.6498
69.2984 2625 51.2348
69.4154 2464 49.6387
69.5323 2405 49.0408
69.6492 2336 48.3322
69.7661 2398 48.9694
69.8829 2468 49.679
69.9997 2563 50.6261
70.1165 2643 51.4101
70.2332 2503 50.03
70.3499 2579 50.7839
70.4665 2551 50.5074
70.5831 2443 49.4267
70.6996 2201 46.9148
70.8161 1977 44.4635
70.9326 1758 41.9285
71.049 1546 39.3192
71.1653 1434 37.8682
71.2817 1312 36.2215
71.3979 1224 34.9857
71.5141 1189 34.4819
71.6303 1065 32.6343
71.7464 960 30.9839
71.8624 0 1
71.9784 0 1
72.0944 0 1
72.2102 0 1
72.3261 0 1
72.4418 0 1
72.5575 0 1
72.6732 0 1
75.1054 0 1
75.2209 0 1
75.3365 0 1
75.4521 0 1
75.5678 0 1
75.6835 0 1
75.7993 0 1
75.9151 0 1
76.031 0 1
76.147 1602 40.025
76.263 1801 42.4382
76.3791 1841 42.9069
76.4952 1894 43.5201
76.6113 1825 42.72
76.7276 1948 44.1362
76.8438 2160 46.4758
76.9601 2206 46.9681
77.0765 2212 47.0319
77.1929 2207 46.9787
77.3093 2358 48.5592
77.4258 2283 47.7807
77.5423 2274 47.6865
77.6589 2374 48.7237
77.7755 2455 49.548
77.8921 2459 49.5883
78.0088 2339 48.3632
78.1256 2217 47.085
78.2423 2181 46.7012
78.3591 2172 46.6047
78.4759 1958 44.2493
78.5928 1881 43.3705
78.7097 1978 44.4747
78.8266 2027 45.0222
78.9436 2258 47.5184
79.0606 2141 46.2709
79.1776 2213 47.0425
79.2946 2279 47.7389
79.4117 2293 47.8853
79.5288 2453 49.5278
79.6459 2437 49.366
79.7631 2345 48.4252
79.8802 2185 46.744
79.9974 2117 46.0109
80.1147 1985 44.5533
80.2319 2112 45.9565
80.3491 2097 45.793
80.4664 2207 46.9787
80.5837 2289 47.8435
80.701 2288 47.833
80.8183 2224 47.1593
80.9357 2236 47.2864
81.053 2355 48.5283
81.1704 2332 48.2908
81.2877 2346 48.4355
81.4051 2328 48.2494
81.5225 2437 49.366
81.6399 2451 49.5076
81.7573 2429 49.2849
81.8747 2237 47.2969
81.9922 2150 46.3681
82.1096 2089 45.7056
82.227 1949 44.1475
82.3444 1896 43.5431
82.4619 2146 46.3249
82.5793 2224 47.1593
82.6967 2304 48
82.8142 2306 48.0208
82.9316 2428 49.2747
83.049 2336 48.3322
83.1664 2378 48.7647
83.2838 2404 49.0306
83.4012 2356 48.5386
83.5186 2327 48.239
83.636 2075 45.5522
83.7534 2084 45.6508
83.8708 2115 45.9891
83.9881 2220 47.1169
84.1055 2292 47.8748
84.2228 2337 48.3425
84.3401 2293 47.8853
84.4575 2328 48.2494
84.5747 2288 47.833
84.692 2299 47.9479
84.8093 2364 48.621
84.9265 2264 47.5815
85.0437 2479 49.7896
85.1609 2360 48.5798
85.2781 2413 49.1223
85.3952 2335 48.3218
85.5123 2330 48.2701
85.6294 2218 47.0956
85.7465 2088 45.6946
85.8636 2048 45.2548
85.9806 2173 46.6154
86.0976 2232 47.244
86.2145 2197 46.8722
86.3315 2404 49.0306
86.4484 2375 48.734
86.5652 2395 48.9387
86.682 2405 49.0408
86.7988 2404 49.0306
86.9156 2353 48.5077
87.0323 2332 48.2908
87.149 2211 47.0213
87.2657 2123 46.076
87.3823 2094 45.7602
87.4988 2090 45.7165
87.6154 2162 46.4973
87.7318 2082 45.6289
87.8483 2005 44.7772
87.9647 1945 44.1022
88.081 1831 42.7902
88.1973 1742 41.7373
88.3136 1763 41.9881
88.4298 1523 39.0256
88.546 1422 37.7094
88.6621 1367 36.973
88.7781 1301 36.0694
88.8942 0 1
89.0101 0 1
89.126 0 1
89.2419 0 1
89.3577 0 1
89.4734 0 1
89.5891 0 1
89.7047 0 1
89.8203 0 1
89.9358 0 1
92.3269 0 1
92.4424 0 1
92.558 0 1
92.6736 0 1
92.7893 0 1
92.905 0 1
93.0208 0 1
93.1366 0 1
93.2525 0 1
93.3685 0 1
93.4845 0 1
93.6005 1777 42.1545
93.7167 1858 43.1045
93.8328 1967 44.3509
93.949 2161 46.4866
94.0653 2260 47.5395
94.1816 2268 47.6235
94.2979 2397 48.9592
94.4143 2380 48.7852
94.5307 2274 47.6865
94.6472 2214 47.0532
94.7637 2247 47.4025
94.8803 2110 45.9347
94.9969 2108 45.913
95.1135 2153 46.4004
95.2302 2166 46.5403
95.3469 2224 47.1593
95.4637 2370 48.6826
95.5805 2351 48.4871
95.6973 2387 48.8569
95.8142 2228 47.2017
95.9311 2269 47.634
96.048 2332 48.2908
96.1649 2279 47.7389
96.2819 2154 46.4112
96.3989 2174 46.6262
96.516 2249 47.4236
96.633 2337 48.3425
96.7501 2376 48.7442
96.8673 2299 47.9479
96.9844 2389 48.8774
97.1016 2372 48.7032
97.2188 2365 48.6313
97.336 2248 47.4131
97.4532 2365 48.6313
97.5704 2324 48.2079
97.6877 2348 48.4562
97.805 2417 49.163
97.9223 2444 49.4368
98.0396 2313 48.0937
98.1569 2370 48.6826
98.2743 2352 48.4974
98.3916 2170 46.5833
98.509 2297 47.927
98.6264 2219 47.1063
98.7438 2378 48.7647
98.8612 2258 47.5184
98.9786 2520 50.1996
99.096 2477 49.7695
99.2134 2472 49.7192
99.3308 2492 49.9199
99.4482 2499 49.99
99.5656 2550 50.4975
99.6831 2428 49.2747
99.8005 2398 48.9694
99.9179 2317 48.1352
100.035 2365 48.6313
100.153 2366 48.6415
100.27 2631 51.2933
100.388 2432 49.3153
100.505 2427 49.2646
100.622 2387 48.8569
100.74 2410 49.0918
100.857 2352 48.4974
100.975 2371 48.6929
101.092 2461 49.6085
101.209 2481 49.8096
101.327 2496 49.96
101.444 2588 50.8724
101.561 2473 49.7293
101.679 2490 49.8999
101.796 2459 49.5883
101.913 2498 49.98
102.03 2336 48.3322
102.148 2273 47.676
102.265 2475 49.7494
102.382 2585 50.8429
102.499 2627 51.2543
102.616 2776 52.6878
102.733 2735 52.2972
102.851 2746 52.4023
102.968 2764 52.5738
103.085 2707 52.0288
103.202 2683 51.7977
103.319 2561 50.6063
103.436 2650 51.4782
103.552 2603 51.0196
103.669 2635 51.3323
103.786 2685 51.817
103.903 2716 52.1153
104.02 2629 51.2738
104.137 2585 50.8429
104.253 2512 50.1199
104.37 2602 51.0098
104.487 2635 51.3323
104.603 2552 50.5173
104.72 2618 51.1664
104.836 2496 49.96
104.953 2502 50.02
105.069 2409 49.0816
105.186 2238 47.3075
105.302 2180 46.6905
105.418 1910 43.7035
105.535 1832 42.8019
105.651 1650 40.6202
105.767 1537 39.2046
105.883 1452 38.1051
105.999 1374 37.0675
106.115 0 1
106.231 0 1
106.347 0 1
106.463 0 1
106.579 0 1
106.694 0 1
106.81 0 1
106.926 0 1
107.041 0 1
107.157 0 1
109.576 0 1
109.692 0 1
109.807 0 1
109.923 0 1
110.039 0 1
110.155 0 1
110.27 0 1
110.386 0 1
110.502 0 1
110.618 1153 33.9559
110.735 1215 34.8569
110.851 1525 39.0512
110.967 1710 41.3521
111.083 1951 44.1701
111.199 2111 45.9456
111.316 2219 47.1063
111.432 2271 47.655
111.549 2445 49.4469
111.665 2371 48.6929
111.782 2274 47.6865
111.898 2285 47.8017
112.015 2193 46.8295
112.132 2274 47.6865
112.248 2215 47.0638
112.365 2353 48.5077
112.482 2422 49.2138
112.599 2391 48.8979
112.716 2269 47.634
112.832 2338 48.3529
112.949 2218 47.0956
113.066 2105 45.8803
113.183 2163 46.5081
113.3 2279 47.7389
113.417 2235 47.2758
113.534 2113 45.9674
113.652 2243 47.3603
113.769 2239 47.3181
113.886 2224 47.1593
114.003 2102 45.8476
114.12 1990 44.6094
114.238 2002 44.7437
114.355 2123 46.076
114.472 2072 45.5192
114.589 2159 46.465
114.707 2206 46.9681
114.824 2222 47.1381
114.942 2241 47.3392
115.059 2275 47.697
115.176 2178 46.669
115.294 2109 45.9239
115.411 2099 45.8148
115.529 2012 44.8553
115.646 2027 45.0222
115.764 2128 46.1303
115.881 2109 45.9239
115.999 2077 45.5741
116.116 2153 46.4004
116.234 2147 46.3357
116.351 2127 46.1194
116.469 2078 45.5851
116.586 2043 45.1996
116.704 2014 44.8776
116.821 2024 44.9889
116.939 2036 45.1221
117.056 2017 44.911
117.174 2133 46.1844
117.291 2086 45.6727
117.409 2051 45.288
117.526 1986 44.5646
117.644 1931 43.9431
117.761 1918 43.795
117.879 1858 43.1045
117.996 1864 43.1741
118.114 2030 45.0555
118.231 2043 45.1996
118.349 2105 45.8803
118.466 2113 45.9674
118.584 2136 46.2169
118.701 2149 46.3573
118.819 2075 45.5522
118.936 2004 44.7661
119.053 1850 43.0116
119.171 1918 43.795
119.288 1851 43.0232
119.405 2057 45.3542
119.523 2041 45.1774
119.64 2043 45.1996
119.757 1992 44.6318
119.875 2093 45.7493
119.992 2002 44.7437
120.109 2010 44.833
120.226 1990 44.6094
120.343 1950 44.1588
120.46 1964 44.317
120.578 1956 44.2267
120.695 1936 44
120.812 1948 44.1362
120.929 2012 44.8553
121.046 1909 43.6921
121.163 1803 42.4617
121.279 1810 42.5441
121.396 1747 41.7971
121.513 1658 40.7185
121.63 1742 41.7373
121.747 1654 40.6694
121.863 1764 42
121.98 1845 42.9535
122.097 1803 42.4617
122.213 1689 41.0974
122.33 1629 40.3609
122.446 1561 39.5095
122.563 1378 37.1214
122.679 1283 35.819
122.795 1213 34.8281
122.912 1222 34.9571
123.028 1183 34.3948
123.144 1083 32.909
123.26 1083 32.909
123.377 0 1
123.493 0 1
123.609 0 1
123.725 0 1
123.84 0 1
123.956 0 1
124.072 0 1
124.188 0 1
124.303 0 1
124.419 0 1
126.852 0 1
126.968 0 1
127.083 0 1
127.199 0 1
127.315 0 1
127.431 0 1
127.547 0 1
127.663 0 1
127.779 0 1
127.895 0 1
128.011 0 1
128.127 0 1
128.243 0 1
128.359 2239 47.3181
128.476 2472 49.7192
128.592 2611 51.0979
128.708 2739 52.3355
128.825 2803 52.9434
128.941 2880 53.6656
129.058 3064 55.3534
129.174 3254 57.0438
129.291 3582 59.8498
129.408 4152 64.436
129.524 5406 73.5255
129.641 7350 85.7321
129.758 9197 95.901
129.875 11055 105.143
129.992 12642 112.437
130.108 13430 115.888
130.225 13632 116.756
130.342 13723 117.145
130.459 13149 114.669
130.576 14069 118.613
130.693 14572 120.715
130.81 15141 123.049
130.928 15389 124.052
131.045 14930 122.188
131.162 15274 123.588
131.279 16073 126.779
131.396 16636 128.981
131.513 16802 129.623
131.631 16647 129.023
131.748 16155 127.102
131.865 16169 127.157
131.983 15818 125.77
132.1 15738 125.451
132.217 15933 126.226
132.335 15705 125.32
132.452 15831 125.821
132.57 15466 124.362
132.687 14521 120.503
132.804 14518 120.491
132.922 13859 117.724
133.039 13487 116.134
133.157 13358 115.577
133.274 12874 113.464
133.392 12269 110.766
133.509 11803 108.642
133.627 11185 105.759
133.744 10693 103.407
133.862 9964 99.8198
133.979 9685 98.4124
134.097 9177 95.7967
134.214 8632 92.9086
134.332 8371 91.4932
134.449 8449 91.9184
134.567 8136 90.1998
134.684 7755 88.0625
134.802 7836 88.5212
134.919 7987 89.37
135.037 7845 88.572
135.154 7536 86.8101
135.272 6854 82.7889
135.389 6507 80.666
135.507 6570 81.0555
135.624 6625 81.3941
135.742 6847 82.7466
135.859 7032 83.857
135.977 7031 83.8511
136.094 6880 82.9458
136.211 6941 83.3127
136.329 6688 81.7802
136.446 6777 82.3225
136.564 6592 81.1911
136.681 6443 80.2683
136.798 6518 80.7341
136.915 6469 80.4301
137.033 6326 79.5362
137.15 6442 80.2621
137.267 6129 78.2879
137.384 6013 77.5435
137.502 5809 76.2168
137.619 5564 74.5922
137.736 5637 75.08
137.853 5165 71.8679
137.97 5465 73.9256
138.087 5439 73.7496
138.204 5705 75.5315
138.321 5835 76.3872
138.438 5976 77.3046
138.555 6113 78.1857
138.672 6284 79.2717
138.788 6103 78.1217
138.905 5582 74.7128
139.022 5287 72.7118
139.139 4848 69.6276
139.255 4927 70.1926
139.372 5187 72.0208
139.488 5158 71.8192
139.605 5079 71.2671
139.721 4899 69.9929
139.838 4385 66.2193
139.954 4044 63.5925
140.071 3804 61.6766
140.187 3731 61.0819
140.303 3604 60.0333
140.419 3539 59.4895
140.535 3385 58.1808
140.652 3162 56.2317
140.768 0 1
140.884 0 1
141 0 1
141.115 0 1
141.231 0 1
141.347 0 1
141.463 0 1
141.578 0 1
141.694 0 1
144.104 0 1
144.219 0 1
144.335 0 1
144.45 0 1
144.566 0 1
144.682 0 1
144.798 0 1
144.914 0 1
145.03 0 1
145.146 5495 74.1283
145.262 5688 75.4188
145.378 5963 77.2205
145.494 5982 77.3434
145.61 6209 78.7972
145.726 6312 79.4481
145.842 6549 80.9259
145.959 6666 81.6456
146.075 6588 81.1665
146.192 6657 81.5904
146.308 6601 81.2465
146.425 6491 80.5667
146.541 6471 80.4425
146.658 6422 80.1374
146.774 6490 80.5605
146.891 6669 81.6639
147.008 7053 83.9821
147.125 7281 85.3288
147.241 7430 86.1974
147.358 7547 86.8735
147.475 7355 85.7613
147.592 7384 85.9302
147.709 6973 83.5045
147.826 6922 83.1986
147.943 6859 82.8191
148.06 6720 81.9756
148.177 6944 83.3307
148.294 7148 84.5458
148.411 7400 86.0233
148.528 7351 85.738
148.645 7451 86.3192
148.762 7395 85.9942
148.88 7325 85.5862
148.997 7411 86.0872
149.114 7299 85.4342
149.231 7107 84.303
149.349 7182 84.7467
149.466 7205 84.8823
149.583 7293 85.3991
149.701 7107 84.303
149.818 6979 83.5404
149.935 6840 82.7043
150.053 6523 80.7651
150.17 6229 78.924
150.287 6196 78.7147
150.405 5931 77.013
150.522 5794 76.1183
150.64 5961 77.2075
150.757 6174 78.5748
150.875 6312 79.4481
150.992 6469 80.4301
151.11 6218 78.8543
151.227 6243 79.0127
151.344 5974 77.2917
151.462 5873 76.6355
151.579 5596 74.8064
151.697 5534 74.3909
151.814 5654 75.1931
151.932 5967 77.2464
152.049 6170 78.5493
152.167 6281 79.2528
152.284 6289 79.3032
152.402 6343 79.643
152.519 6405 80.0312
152.636 6394 79.9625
152.754 6385 79.9062
152.871 6376 79.8499
152.989 6356 79.7245
153.106 6529 80.8022
153.223 6365 79.781
153.341 6408 80.05
153.458 6270 79.1833
153.575 6261 79.1265
153.693 6084 78
153.81 5871 76.6225
153.927 5682 75.379
154.044 5572 74.6458
154.162 5295 72.7668
154.279 5699 75.4917
154.396 6014 77.55
154.513 6259 79.1138
154.63 6219 78.8606
154.747 6183 78.6321
154.864 6253 79.0759
154.981 6001 77.4661
155.098 6122 78.2432
155.215 6077 77.9551
155.332 6014 77.55
155.449 6112 78.1793
155.566 6362 79.7621
155.683 6448 80.2994
155.8 6529 80.8022
155.917 6505 80.6536
156.033 6510 80.6846
156.15 0 1
156.267 0 1
156.383 0 1
156.5 0 1
156.617 0 1
156.733 0 1
156.85 0 1
156.966 0 1
157.082 0 1
157.199 0 1
157.315 0 1
157.431 0 1
157.547 0 1
157.664 0 1
157.78 0 1
157.896 0 1
158.012 0 1
158.128 0 1
158.244 0 1
158.359 0 1
158.475 0 1
158.591 0 1
158.706 0 1
