
6.15755 0 1
6.2731 0 1
6.3887 0 1
6.50437 0 1
6.62009 0 1
6.73587 0 1
6.8517 0 1
6.96759 0 1
7.08353 0 1
7.19952 0 1
7.31557 0 1
7.43166 0 1
7.54781 0 1
7.664 0 1
7.78024 0 1
7.89653 0 1
8.01286 0 1
8.12924 0 1
8.24567 0 1
8.36213 0 1
8.47864 0 1
8.59519 0 1
8.71178 0 1
8.82841 0 1
8.94508 0 1
9.06179 0 1
9.17853 0 1
9.29531 0 1
9.41212 0 1
9.52897 0 1
9.64584 0 1
9.76276 0 1
9.8797 0 1
9.99667 0 1
10.1137 0 1
10.2307 0 1
10.3478 0 1
10.4648 0 1
10.5819 0 1
10.6991 0 1
10.8162 0 1
10.9334 0 1
11.0506 0 1
11.1678 0 1
11.285 0 1
11.4023 0 1
11.5196 0 1
11.6369 0 1
11.7542 0 1
11.8715 0 1
11.9888 0 1
12.1062 0 1
12.2235 0 1
12.3409 0 1
12.4582 0 1
12.5756 0 1
12.693 0 1
12.8104 0 1
12.9278 0 1
13.0452 0 1
13.1626 0 1
13.28 0 1
13.3974 0 1
13.5149 0 1
13.6323 0 1
13.7497 0 1
13.8671 0 1
13.9845 0 1
14.1019 0 1
14.2193 0 1
14.3367 0 1
14.4541 0 1
14.5714 0 1
14.6888 0 1
14.8062 0 1
14.9235 0 1
15.0408 0 0
15.1581 0 0
15.2755 0 0
15.3927 0 0
15.51 0 0
15.6273 0 0
15.7445 0 0
15.8617 0 0
15.9789 0 0
16.0961 0 0
16.2132 0 0
16.3304 0 0
16.4475 0 0
16.5646 0 0
16.6816 0 0
16.7986 0 0
16.9156 0 0
17.0326 0 0
17.1496 0 0
17.2665 0 0
17.3833 0 0
17.5002 0 0
17.617 0 0
17.7338 0 0
17.8505 0 0
17.9672 0 0
18.0839 0 0
18.2005 0 0
18.3171 0 0
18.4337 0 0
18.5502 0 0
18.6666 0 0
18.7831 0 0
18.8994 0 0
19.0158 0 0
19.1321 0 0
19.2483 0 0
19.3645 0 0
19.4806 0 0
19.5967 0 0
19.7128 0 0
19.8288 0 0
19.9447 0 0
20.0606 0 1
20.1764 0 1
20.2922 0 1
20.4079 0 1
20.5236 0 1
20.6392 0 1
20.7548 0 1
20.8702 0 1
23.3078 0 1
23.4233 0 1
23.539 0 1
23.6547 0 1
23.7704 0 1
23.8862 0 1
24.0021 0 1
24.118 0 1
24.234 0 1
24.35 0 1
24.4661 10222 101.104
24.5822 9999 99.995
24.6984 9768 98.8332
24.8146 9685 98.4124
24.9309 9599 97.9745
25.0472 9333 96.6075
25.1636 9422 97.067
25.28 9531 97.6268
25.3965 9840 99.1968
25.513 9843 99.2119
25.6296 10377 101.868
25.7462 10159 100.792
25.8628 10499 102.465
25.9795 10282 101.4
26.0962 10276 101.371
26.213 10390 101.931
26.3298 9787 98.9293
26.4466 9616 98.0612
26.5635 9326 96.5712
26.6804 9332 96.6023
26.7973 9409 97
26.9143 9828 99.1363
27.0313 10197 100.98
27.1483 10357 101.769
27.2653 10486 102.401
27.3824 10630 103.102
27.4996 10796 103.904
27.6167 10517 102.552
27.7339 10380 101.882
27.8511 10138 100.688
27.9683 10049 100.245
28.0855 9822 99.106
28.2028 9695 98.4632
28.3201 9227 96.0573
28.4374 8968 94.6995
28.5547 8710 93.3274
28.6721 8723 93.397
28.7894 8868 94.1701
28.9068 8792 93.7657
29.0242 9036 95.0579
29.1416 9070 95.2365
29.259 9201 95.9218
29.3764 9064 95.205
29.4939 9095 95.3677
29.6113 9167 95.7445
29.7288 9081 95.2943
29.8463 8786 93.7337
29.9638 8449 91.9184
30.0812 8522 92.3147
30.1987 8577 92.6121
30.3162 8740 93.488
30.4337 9082 95.2995
30.5512 9294 96.4054
30.6687 9386 96.8814
30.7862 9853 99.2623
30.9037 9764 98.813
31.0212 9917 99.5841
31.1387 9891 99.4535
31.2562 9730 98.6408
31.3737 9678 98.3768
31.4912 9421 97.0618
31.6087 9495 97.4423
31.7262 9421 97.0618
31.8436 9146 95.6347
31.9611 8858 94.1169
32.0785 8567 92.5581
32.1959 8440 91.8695
32.3134 8197 90.5373
32.4308 8502 92.2063
32.5482 8630 92.8978
32.6655 8649 93
32.7829 8788 93.7443
32.9002 8678 93.1558
33.0176 8793 93.771
33.1349 8732 93.4452
33.2522 8691 93.2255
33.3694 8759 93.5895
33.4867 8471 92.038
33.6039 8496 92.1737
33.7211 8275 90.967
33.8383 8517 92.2876
33.9554 8473 92.0489
34.0725 8793 93.771
34.1896 9138 95.5929
34.3067 9188 95.8541
34.4237 9362 96.7574
34.5407 9723 98.6053
34.6577 9749 98.737
34.7746 9620 98.0816
34.8915 9647 98.2191
35.0084 9665 98.3107
35.1252 9464 97.2831
35.242 9431 97.1133
35.3587 9043 95.0947
35.4755 9136 95.5824
35.5921 8830 93.9681
35.7088 8514 92.2713
35.8254 8177 90.4268
35.9419 8121 90.1166
36.0584 8115 90.0833
36.1749 8243 90.791
36.2913 8269 90.934
36.4077 8144 90.2441
36.524 8452 91.9348
36.6403 8355 91.4057
36.7565 8552 92.477
36.8727 8545 92.4392
36.9889 8564 92.5419
37.1049 8131 90.1721
37.221 0 1
37.3369 0 1
37.4529 0 1
37.5687 0 1
37.6845 0 1
37.8003 0 1
37.916 0 1
38.0316 0 1
38.1472 0 1
40.5851 0 1
40.7008 0 1
40.8164 0 1
40.9322 0 1
41.048 0 1
41.1639 0 1
41.2798 0 1
41.3958 0 1
41.5118 0 1
41.6279 0 1
41.744 6897 83.0482
41.8602 6887 82.988
41.9765 7360 85.7904
42.0928 7291 85.3874
42.2091 7003 83.6839
42.3255 6894 83.0301
42.4419 6850 82.7647
42.5584 6780 82.3408
42.675 6886 82.9819
42.7915 6898 83.0542
42.9081 7324 85.5804
43.0248 7680 87.6356
43.1415 7728 87.909
43.2582 8010 89.4986
43.375 7957 89.202
43.4918 8032 89.6214
43.6087 8143 90.2386
43.7256 7955 89.1908
43.8425 8024 89.5768
43.9595 7883 88.7863
44.0765 7748 88.0227
44.1935 7417 86.122
44.3106 7302 85.4517
44.4277 6779 82.3347
44.5448 6379 79.8686
44.6619 6272 79.196
44.7791 6199 78.7337
44.8963 6336 79.599
45.0136 6167 78.5302
45.1308 6438 80.2371
45.2481 6348 79.6743
45.3654 6445 80.2808
45.4827 6409 80.0562
45.6001 6513 80.7032
45.7174 6364 79.7747
45.8348 6164 78.5111
45.9522 6043 77.7367
46.0697 5791 76.0986
46.1871 5706 75.5381
46.3046 5793 76.1118
46.422 6132 78.3071
46.5395 6170 78.5493
46.657 6396 79.975
46.7745 6559 80.9877
46.892 6580 81.1172
47.0096 6634 81.4494
47.1271 6757 82.201
47.2446 6652 81.5598
47.3622 6600 81.2404
47.4797 6515 80.7155
47.5973 6372 79.8248
47.7149 6181 78.6193
47.8324 5886 76.7203
47.95 5578 74.686
48.0675 5320 72.9383
48.1851 5120 71.5542
48.3027 4997 70.6895
48.4202 4986 70.6116
48.5378 5080 71.2741
48.6554 5240 72.3878
48.7729 5329 73
48.8904 5352 73.1574
49.008 5425 73.6546
49.1255 5476 74
49.243 5504 74.1889
49.3605 5251 72.4638
49.478 5282 72.6774
49.5955 5086 71.3162
49.713 5008 70.7672
49.8304 5072 71.218
49.9479 5525 74.3303
50.0653 5907 76.857
50.1827 6147 78.4028
50.3001 6509 80.6784
50.4175 6757 82.201
50.5348 6904 83.0903
50.6521 7191 84.7998
50.7694 7407 86.0639
50.8867 7398 86.0116
51.004 7678 87.6242
51.1212 7688 87.6812
51.2384 7757 88.0738
51.3556 7548 86.8792
51.4727 7193 84.8116
51.5899 6991 83.6122
51.707 6706 81.8902
51.824 6812 82.5348
51.9411 6896 83.0422
52.0581 6918 83.1745
52.175 7177 84.7172
52.2919 7219 84.9647
52.4088 7227 85.0118
52.5257 7464 86.3944
52.6425 7620 87.2926
52.7593 7648 87.4528
52.876 7655 87.4929
52.9927 7444 86.2786
53.1094 7260 85.2056
53.226 7190 84.7939
53.3426 7380 85.9069
53.4591 7620 87.2926
53.5756 8171 90.3936
53.692 8583 92.6445
53.8084 8909 94.3875
53.9248 9256 96.2081
54.0411 9515 97.5449
54.1573 9772 98.8534
54.2735 0 1
54.3896 0 1
54.5057 0 1
54.6217 0 1
54.7377 0 1
54.8537 0 1
54.9695 0 1
55.0853 0 1
55.2011 0 1
55.3168 0 1
55.4324 0 1
57.824 0 1
57.9396 0 1
58.0553 0 1
58.1711 0 1
58.2869 0 1
58.4028 0 1
58.5187 0 1
58.6347 0 1
58.7508 0 1
58.8669 0 1
58.983 10597 102.942
59.0992 10922 104.508
59.2155 11280 106.207
59.3318 11742 108.361
59.4482 12102 110.009
59.5646 11705 108.19
59.681 12071 109.868
59.7975 11671 108.032
59.9141 11282 106.217
60.0306 10400 101.98
60.1473 10023 100.115
60.2639 9553 97.7394
60.3807 8847 94.0585
60.4974 8750 93.5414
60.6142 8672 93.1236
60.731 8696 93.2523
60.8479 8853 94.0904
60.9648 9173 95.7758
61.0818 9316 96.5194
61.1987 9306 96.4676
61.3158 9446 97.1905
61.4328 9140 95.6033
61.5499 8913 94.4087
61.667 8541 92.4175
61.7841 8387 91.5806
61.9013 8494 92.1629
62.0185 8751 93.5468
62.1357 9185 95.8384
62.253 9712 98.5495
62.3702 9791 98.9495
62.4875 10162 100.807
62.6049 10575 102.835
62.7222 11145 105.57
62.8396 11115 105.428
62.9569 11314 106.367
63.0743 11270 106.16
63.1918 11270 106.16
63.3092 10756 103.711
63.4267 10624 103.073
63.5441 9856 99.2774
63.6616 9378 96.8401
63.7791 8564 92.5419
63.8966 8277 90.978
64.0142 8123 90.1277
64.1317 7990 89.3868
64.2492 8078 89.8777
64.3668 7987 89.37
64.4843 8425 91.7878
64.6019 8504 92.2171
64.7195 8717 93.3649
64.837 8631 92.9032
64.9546 8487 92.1249
65.0722 8252 90.8405
65.1898 7923 89.0112
65.3074 7821 88.4364
65.4249 7599 87.1722
65.5425 7863 88.6736
65.6601 8158 90.3216
65.7777 8872 94.1913
65.8952 9200 95.9166
66.0128 9467 97.2985
66.1304 10055 100.275
66.2479 10405 102.005
66.3655 10635 103.126
66.483 10888 104.346
66.6005 10809 103.966
66.718 10811 103.976
66.8355 10829 104.062
66.953 10592 102.917
67.0705 10106 100.529
67.1879 9346 96.6747
67.3054 8594 92.7038
67.4228 8207 90.5925
67.5402 7670 87.5785
67.6576 7486 86.5217
67.7749 7604 87.2009
67.8923 7792 88.2723
68.0096 8048 89.7106
68.1269 8302 91.1153
68.2442 8877 94.2178
68.3614 8934 94.5198
68.4787 8992 94.8262
68.5958 8779 93.6963
68.713 8306 91.1373
68.8302 8194 90.5207
68.9473 7912 88.9494
69.0643 7894 88.8482
69.1814 8024 89.5768
69.2984 8337 91.3072
69.4154 9205 95.9427
69.5323 9469 97.3088
69.6492 10076 100.379
69.7661 10474 102.343
69.8829 10938 104.585
69.9997 11561 107.522
70.1165 11593 107.671
70.2332 11518 107.322
70.3499 11694 108.139
70.4665 11472 107.107
70.5831 11124 105.47
70.6996 10347 101.72
70.8161 9680 98.387
70.9326 8931 94.504
71.049 8353 91.3947
71.1653 7752 88.0454
71.2817 7665 87.55
71.3979 7649 87.4586
71.5141 7631 87.3556
71.6303 7884 88.7919
71.7464 7589 87.1149
71.8624 0 1
71.9784 0 1
72.0944 0 1
72.2102 0 1
72.3261 0 1
72.4418 0 1
72.5575 0 1
72.6732 0 1
75.1054 0 1
75.2209 0 1
75.3365 0 1
75.4521 0 1
75.5678 0 1
75.6835 0 1
75.7993 0 1
75.9151 0 1
76.031 0 1
76.147 9072 95.247
76.263 9172 95.7706
76.3791 8904 94.361
76.4952 8368 91.4768
76.6113 8238 90.7634
76.7276 8175 90.4157
76.8438 8403 91.6679
76.9601 8780 93.7017
77.0765 9141 95.6086
77.1929 9271 96.286
77.3093 9877 99.3831
77.4258 10165 100.822
77.5423 10115 100.573
77.6589 9549 97.719
77.7755 8723 93.397
77.8921 8411 91.7115
78.0088 8040 89.666
78.1256 7946 89.1403
78.2423 8103 90.0167
78.3591 8501 92.2009
78.4759 9135 95.5772
78.5928 9829 99.1413
78.7097 10351 101.74
78.8266 11432 106.921
78.9436 11118 105.442
79.0606 11711 108.217
79.1776 11696 108.148
79.2946 11966 109.389
79.4117 11615 107.773
79.5288 11697 108.153
79.6459 11455 107.028
79.7631 10577 102.845
79.8802 9715 98.5647
79.9974 9027 95.0105
80.1147 8128 90.1554
80.2319 7822 88.4421
80.3491 7842 88.5551
80.4664 8020 89.5545
80.5837 8292 91.0604
80.701 8503 92.2117
80.8183 8727 93.4184
80.9357 9137 95.5877
81.053 9586 97.9081
81.1704 9413 97.0206
81.2877 9174 95.781
81.4051 8426 91.7932
81.5225 8185 90.471
81.6399 7595 87.1493
81.7573 7548 86.8792
81.8747 7432 86.209
81.9922 7776 88.1816
82.1096 8444 91.8912
82.227 9115 95.4725
82.3444 9526 97.6012
82.4619 10428 102.118
82.5793 10335 101.661
82.6967 10985 104.809
82.8142 10872 104.269
82.9316 10984 104.805
83.049 10840 104.115
83.1664 10589 102.903
83.2838 10002 100.01
83.4012 9025 95
83.5186 8845 94.0479
83.636 8082 89.8999
83.7534 7628 87.3384
83.8708 7154 84.5813
83.9881 6973 83.5045
84.1055 7123 84.3979
84.2228 7487 86.5275
84.3401 7897 88.8651
84.4575 8498 92.1846
84.5747 8848 94.0638
84.692 9105 95.4201
84.8093 8880 94.2338
84.9265 8620 92.844
85.0437 7973 89.2917
85.1609 7358 85.7788
85.2781 7236 85.0647
85.3952 7207 84.8941
85.5123 7502 86.6141
85.6294 7999 89.4371
85.7465 8592 92.693
85.8636 9330 96.5919
85.9806 9927 99.6343
86.0976 10571 102.815
86.2145 10885 104.331
86.3315 11031 105.029
86.4484 11974 109.426
86.5652 11706 108.194
86.682 11819 108.715
86.7988 11373 106.644
86.9156 10822 104.029
87.0323 10154 100.767
87.149 9402 96.9639
87.2657 8962 94.6678
87.3823 8322 91.225
87.4988 8157 90.3161
87.6154 8233 90.7359
87.7318 8695 93.247
87.8483 9062 95.1945
87.9647 9358 96.7368
88.081 10080 100.399
88.1973 10515 102.543
88.3136 10832 104.077
88.4298 10382 101.892
88.546 9163 95.7236
88.6621 8782 93.7123
88.7781 8123 90.1277
88.8942 0 1
89.0101 0 1
89.126 0 1
89.2419 0 1
89.3577 0 1
89.4734 0 1
89.5891 0 1
89.7047 0 1
89.8203 0 1
89.9358 0 1
92.3269 0 1
92.4424 0 1
92.558 0 1
92.6736 0 1
92.7893 0 1
92.905 0 1
93.0208 0 1
93.1366 0 1
93.2525 0 1
93.3685 0 1
93.4845 0 1
93.6005 14643 121.008
93.7167 15909 126.131
93.8328 16358 127.898
93.949 16560 128.686
94.0653 16187 127.228
94.1816 15856 125.921
94.2979 15992 126.459
94.4143 16190 127.24
94.5307 17041 130.541
94.6472 17862 133.649
94.7637 20066 141.655
94.8803 22078 148.587
94.9969 23904 154.609
95.1135 25595 159.984
95.2302 27039 164.435
95.3469 28487 168.781
95.4637 29749 172.479
95.5805 30780 175.442
95.6973 31897 178.597
95.8142 32379 179.942
95.9311 32786 181.069
96.048 32237 179.547
96.1649 31944 178.729
96.2819 30796 175.488
96.3989 29805 172.641
96.516 28280 168.167
96.633 26909 164.04
96.7501 27101 164.624
96.8673 28413 168.562
96.9844 30220 173.839
97.1016 32841 181.221
97.2188 34332 185.289
97.336 35998 189.731
97.4532 35773 189.138
97.5704 35629 188.756
97.6877 33730 183.657
97.805 31203 176.644
97.9223 28896 169.988
98.0396 27309 165.254
98.1569 26654 163.261
98.2743 26562 162.979
98.3916 27650 166.283
98.509 30307 174.089
98.6264 32027 178.961
98.7438 33485 182.989
98.8612 34400 185.472
98.9786 36058 189.889
99.096 36471 190.974
99.2134 37318 193.179
99.3308 36987 192.32
99.4482 37467 193.564
99.5656 37013 192.388
99.6831 36081 189.95
99.8005 35020 187.136
99.9179 33216 182.253
100.035 32072 179.087
100.153 29466 171.657
100.27 27892 167.009
100.388 28704 169.423
100.505 30218 173.833
100.622 32864 181.284
100.74 34099 184.659
100.857 34441 185.583
100.975 35344 188
101.092 34839 186.652
101.209 34252 185.073
101.327 32041 179
101.444 29293 171.152
101.561 27408 165.554
101.679 25701 160.315
101.796 24831 157.579
101.913 25200 158.745
102.03 27013 164.356
102.148 28699 169.408
102.265 31710 178.073
102.382 29611 172.078
102.499 31636 177.865
102.616 31714 178.084
102.733 31622 177.826
102.851 31489 177.451
102.968 30701 175.217
103.085 29546 171.889
103.202 27439 165.647
103.319 26071 161.465
103.436 24367 156.099
103.552 22202 149.003
103.669 19985 141.368
103.786 18226 135.004
103.903 17859 133.638
104.02 17867 133.667
104.137 18440 135.794
104.253 18409 135.68
104.37 17624 132.755
104.487 17708 133.071
104.603 17242 131.309
104.72 16123 126.976
104.836 14252 119.382
104.953 12689 112.645
105.069 11779 108.531
105.186 10988 104.824
105.302 10790 103.875
105.418 11046 105.1
105.535 11964 109.38
105.651 12348 111.122
105.767 13338 115.49
105.883 13747 117.248
105.999 14247 119.361
106.115 0 1
106.231 0 1
106.347 0 1
106.463 0 1
106.579 0 1
106.694 0 1
106.81 0 1
106.926 0 1
107.041 0 1
107.157 0 1
109.576 0 1
109.692 0 1
109.807 0 1
109.923 0 1
110.039 0 1
110.155 0 1
110.27 0 1
110.386 0 1
110.502 0 1
110.618 10211 101.049
110.735 11187 105.769
110.851 11945 109.293
110.967 12852 113.367
111.083 12903 113.591
111.199 13281 115.243
111.316 13410 115.802
111.432 13533 116.331
111.549 13131 114.591
111.665 12630 112.383
111.782 11986 109.481
111.898 11556 107.499
112.015 10800 103.923
112.132 10080 100.399
112.248 9316 96.5194
112.365 9103 95.4096
112.482 9334 96.6126
112.599 9252 96.1873
112.716 9584 97.8979
112.832 10028 100.14
112.949 10138 100.688
113.066 9984 99.92
113.183 10110 100.548
113.3 9514 97.5397
113.417 8955 94.6309
113.534 8331 91.2743
113.652 8392 91.6079
113.769 8046 89.6995
113.886 8089 89.9389
114.003 8846 94.0532
114.12 9579 97.8724
114.238 10257 101.277
114.355 10951 104.647
114.472 11505 107.261
114.589 11706 108.194
114.707 12076 109.891
114.824 12002 109.554
114.942 12216 110.526
115.059 12110 110.045
115.176 12032 109.69
115.294 11539 107.42
115.411 11067 105.2
115.529 10648 103.189
115.646 10026 100.13
115.764 9561 97.7804
115.881 8942 94.5621
115.999 8955 94.6309
116.116 9316 96.5194
116.234 9496 97.4474
116.351 9687 98.4226
116.469 9784 98.9141
116.586 10060 100.3
116.704 10114 100.568
116.821 9760 98.7927
116.939 9401 96.9588
117.056 9030 95.0263
117.174 8905 94.3663
117.291 8457 91.9619
117.409 8632 92.9086
117.526 9040 95.0789
117.644 9626 98.1122
117.761 10635 103.126
117.879 11275 106.184
117.996 11709 108.208
118.114 12331 111.045
118.231 12797 113.124
118.349 12689 112.645
118.466 12764 112.978
118.584 12780 113.049
118.701 12967 113.873
118.819 12636 112.41
118.936 12131 110.141
119.053 11579 107.606
119.171 11103 105.371
119.288 10648 103.189
119.405 9899 99.4937
119.523 9398 96.9433
119.64 9494 97.4372
119.757 9856 99.2774
119.875 9779 98.8888
119.992 10083 100.414
120.109 10118 100.588
120.226 10208 101.035
120.343 10351 101.74
120.46 10089 100.444
120.578 9552 97.7343
120.695 9195 95.8906
120.812 9060 95.184
120.929 9061 95.1893
121.046 9037 95.0631
121.163 9141 95.6086
121.279 9549 97.719
121.396 10325 101.612
121.513 10892 104.365
121.63 11743 108.365
121.747 11950 109.316
121.863 12480 111.714
121.98 12687 112.637
122.097 12721 112.787
122.213 12800 113.137
122.33 12539 111.978
122.446 12352 111.14
122.563 11990 109.499
122.679 12048 109.763
122.795 11407 106.804
122.912 11072 105.224
123.028 10554 102.733
123.144 10140 100.698
123.26 9673 98.3514
123.377 0 1
123.493 0 1
123.609 0 1
123.725 0 1
123.84 0 1
123.956 0 1
124.072 0 1
124.188 0 1
124.303 0 1
124.419 0 1
126.852 0 1
126.968 0 1
127.083 0 1
127.199 0 1
127.315 0 1
127.431 0 1
127.547 0 1
127.663 0 1
127.779 0 1
127.895 0 1
128.011 0 1
128.127 0 1
128.243 0 1
128.359 11789 108.577
128.476 11326 106.424
128.592 10911 104.456
128.708 11296 106.283
128.825 11362 106.593
128.941 12003 109.558
129.058 11942 109.279
129.174 11861 108.908
129.291 11658 107.972
129.408 11641 107.893
129.524 11184 105.754
129.641 10720 103.537
129.758 10579 102.854
129.875 10525 102.591
129.992 10440 102.176
130.108 10482 102.382
130.225 10839 104.111
130.342 11777 108.522
130.459 11873 108.963
130.576 12991 113.978
130.693 12928 113.701
130.81 13334 115.473
130.928 13520 116.276
131.045 13475 116.082
131.162 13261 115.156
131.279 13471 116.065
131.396 13199 114.887
131.513 13104 114.473
131.631 12804 113.155
131.748 12454 111.597
131.865 11791 108.586
131.983 11216 105.906
132.1 11043 105.086
132.217 11093 105.323
132.335 11332 106.452
132.452 11553 107.485
132.57 11583 107.624
132.687 11259 106.108
132.804 11903 109.101
132.922 11541 107.429
133.039 11297 106.287
133.157 10824 104.038
133.274 10587 102.893
133.392 10477 102.357
133.509 10321 101.592
133.627 10404 102
133.744 10568 102.801
133.862 11176 105.717
133.979 11912 109.142
134.097 12424 111.463
134.214 12748 112.907
134.332 12876 113.472
134.449 13110 114.499
134.567 13063 114.293
134.684 13274 115.213
134.802 13345 115.521
134.919 13353 115.555
135.037 13442 115.94
135.154 12894 113.552
135.272 12717 112.77
135.389 12289 110.856
135.507 11724 108.277
135.624 11294 106.273
135.742 11378 106.668
135.859 11432 106.921
135.977 11724 108.277
136.094 11860 108.904
136.211 11831 108.77
136.329 11963 109.375
136.446 11987 109.485
136.564 11787 108.568
136.681 11834 108.784
136.798 11108 105.394
136.915 11175 105.712
137.033 10937 104.58
137.15 10822 104.029
137.267 10878 104.298
137.384 11126 105.48
137.502 11543 107.438
137.619 12162 110.281
137.736 12690 112.65
137.853 12663 112.53
137.97 12670 112.561
138.087 13327 115.443
138.204 13264 115.169
138.321 13410 115.802
138.438 13575 116.512
138.555 13440 115.931
138.672 13536 116.344
138.788 13453 115.987
138.905 13016 114.088
139.022 12941 113.759
139.139 12359 111.171
139.255 11827 108.752
139.372 11757 108.43
139.488 11977 109.439
139.605 12033 109.695
139.721 12228 110.58
139.838 12505 111.826
139.954 12221 110.549
140.071 11978 109.444
140.187 11827 108.752
140.303 11705 108.19
140.419 11510 107.285
140.535 10887 104.341
140.652 10681 103.349
140.768 0 1
140.884 0 1
141 0 1
141.115 0 1
141.231 0 1
141.347 0 1
141.463 0 1
141.578 0 1
141.694 0 1
144.104 0 1
144.219 0 1
144.335 0 1
144.45 0 1
144.566 0 1
144.682 0 1
144.798 0 1
144.914 0 1
145.03 0 1
145.146 11330 106.442
145.262 11219 105.92
145.378 11169 105.683
145.494 11059 105.162
145.61 10763 103.745
145.726 10432 102.137
145.842 10664 103.267
145.959 10526 102.596
146.075 10555 102.738
146.192 11189 105.778
146.308 11592 107.666
146.425 11926 109.206
146.541 11918 109.17
146.658 12287 110.847
146.774 12357 111.162
146.891 12477 111.7
147.008 12532 111.946
147.125 12715 112.761
147.241 12564 112.089
147.358 12565 112.094
147.475 12362 111.185
147.592 12187 110.395
147.709 11651 107.94
147.826 11227 105.958
147.943 11020 104.976
148.06 10881 104.312
148.177 11423 106.878
148.294 11584 107.629
148.411 11435 106.935
148.528 11701 108.171
148.645 11549 107.466
148.762 11344 106.508
148.88 11495 107.215
148.997 10800 103.923
149.114 11082 105.271
149.231 10568 102.801
149.349 10549 102.708
149.466 10272 101.351
149.583 10307 101.523
149.701 10523 102.582
149.818 10857 104.197
149.935 10993 104.848
150.053 11196 105.811
150.17 11426 106.892
150.287 11977 109.439
150.405 12184 110.381
150.522 12088 109.945
150.64 12448 111.571
150.757 12239 110.63
150.875 12504 111.821
150.992 12559 112.067
151.11 12173 110.331
151.227 11951 109.321
151.344 11629 107.838
151.462 11305 106.325
151.579 11112 105.413
151.697 11240 106.019
151.814 11300 106.301
151.932 11627 107.829
152.049 11808 108.665
152.167 11911 109.138
152.284 11665 108.005
152.402 11734 108.324
152.519 11691 108.125
152.636 11383 106.691
152.754 11156 105.622
152.871 10997 104.867
152.989 10925 104.523
153.106 10760 103.73
153.223 10786 103.856
153.341 10944 104.614
153.458 11438 106.949
153.575 11716 108.24
153.693 12101 110.005
153.81 12381 111.27
153.927 12775 113.027
154.044 12924 113.684
154.162 13191 114.852
154.279 13344 115.516
154.396 13435 115.909
154.513 13579 116.529
154.63 13458 116.009
154.747 13250 115.109
154.864 12938 113.745
154.981 12602 112.259
155.098 12464 111.642
155.215 12076 109.891
155.332 12058 109.809
155.449 12097 109.986
155.566 12545 112.004
155.683 12474 111.687
155.8 12085 109.932
155.917 12259 110.72
156.033 12209 110.494
156.15 0 1
156.267 0 1
156.383 0 1
156.5 0 1
156.617 0 1
156.733 0 1
156.85 0 1
156.966 0 1
157.082 0 1
157.199 0 1
157.315 0 1
157.431 0 1
157.547 0 1
157.664 0 1
157.78 0 1
157.896 0 1
158.012 0 1
158.128 0 1
158.244 0 1
158.359 0 1
158.475 0 1
158.591 0 1
158.706 0 1
