
6.15755 0 1
6.2731 0 1
6.3887 0 1
6.50437 0 1
6.62009 0 1
6.73587 0 1
6.8517 0 1
6.96759 0 1
7.08353 0 1
7.19952 0 1
7.31557 0 1
7.43166 0 1
7.54781 0 1
7.664 0 1
7.78024 0 1
7.89653 0 1
8.01286 0 1
8.12924 0 1
8.24567 0 1
8.36213 0 1
8.47864 0 1
8.59519 0 1
8.71178 0 1
8.82841 0 1
8.94508 0 1
9.06179 0 1
9.17853 0 1
9.29531 0 1
9.41212 0 1
9.52897 0 1
9.64584 0 1
9.76276 0 1
9.8797 0 1
9.99667 0 1
10.1137 0 1
10.2307 0 1
10.3478 0 1
10.4648 0 1
10.5819 0 1
10.6991 0 1
10.8162 0 1
10.9334 0 1
11.0506 0 1
11.1678 0 1
11.285 0 1
11.4023 0 1
11.5196 0 1
11.6369 0 1
11.7542 0 1
11.8715 0 1
11.9888 0 1
12.1062 0 1
12.2235 0 1
12.3409 0 1
12.4582 0 1
12.5756 0 1
12.693 0 1
12.8104 0 1
12.9278 0 1
13.0452 0 1
13.1626 0 1
13.28 0 1
13.3974 0 1
13.5149 0 1
13.6323 0 1
13.7497 0 1
13.8671 0 1
13.9845 0 1
14.1019 0 1
14.2193 0 1
14.3367 0 1
14.4541 0 1
14.5714 0 1
14.6888 0 1
14.8062 0 1
14.9235 0 1
15.0408 18400 135.647
15.1581 19115 138.257
15.2755 19511 139.682
15.3927 19554 139.836
15.51 19170 138.456
15.6273 19318 138.989
15.7445 19012 137.884
15.8617 18675 136.657
15.9789 17853 133.615
16.0961 17508 132.318
16.2132 16934 130.131
16.3304 17082 130.698
16.4475 16661 129.077
16.5646 16758 129.453
16.6816 16667 129.101
16.7986 16192 127.248
16.9156 16301 127.675
17.0326 16379 127.98
17.1496 16555 128.666
17.2665 16528 128.561
17.3833 16802 129.623
17.5002 17221 131.229
17.617 17540 132.439
17.7338 17886 133.739
17.8505 18782 137.047
17.9672 19965 141.298
18.0839 20862 144.437
18.2005 21551 146.803
18.3171 22011 148.361
18.4337 22200 148.997
18.5502 22214 149.044
18.6666 22010 148.358
18.7831 21753 147.489
18.8994 20711 143.913
19.0158 20220 142.197
19.1321 19195 138.546
19.2483 19015 137.895
19.3645 18277 135.192
19.4806 17587 132.616
19.5967 17212 131.195
19.7128 16861 129.85
19.8288 15951 126.297
19.9447 14252 119.382
20.0606 0 1
20.1764 0 1
20.2922 0 1
20.4079 0 1
20.5236 0 1
20.6392 0 1
20.7548 0 1
20.8702 0 1
23.3078 0 1
23.4233 0 1
23.539 0 1
23.6547 0 1
23.7704 0 1
23.8862 0 1
24.0021 0 1
24.118 0 1
24.234 0 1
24.35 0 1
24.4661 16697 129.217
24.5822 16660 129.074
24.6984 16614 128.895
24.8146 16531 128.573
24.9309 16553 128.658
25.0472 16302 127.679
25.1636 16225 127.377
25.28 16219 127.354
25.3965 16335 127.808
25.513 16778 129.53
25.6296 17273 131.427
25.7462 17969 134.048
25.8628 18202 134.915
25.9795 17918 133.858
26.0962 18420 135.72
26.213 18079 134.458
26.3298 18826 137.208
26.4466 18577 136.297
26.5635 19251 138.748
26.6804 19757 140.56
26.7973 19676 140.271
26.9143 19868 140.954
27.0313 19659 140.211
27.1483 19695 140.339
27.2653 19504 139.657
27.3824 19347 139.093
27.4996 18911 137.517
27.6167 18151 134.726
27.7339 17341 131.685
27.8511 16594 128.818
27.9683 16329 127.785
28.0855 16108 126.917
28.2028 15783 125.63
28.3201 15289 123.649
28.4374 15566 124.764
28.5547 15735 125.439
28.6721 15643 125.072
28.7894 15538 124.652
28.9068 15691 125.264
29.0242 15652 125.108
29.1416 15886 126.04
29.259 15912 126.143
29.3764 16140 127.043
29.4939 16089 126.842
29.6113 16569 128.721
29.7288 17020 130.461
29.8463 17279 131.45
29.9638 17345 131.7
30.0812 18105 134.555
30.1987 18453 135.842
30.3162 18808 137.142
30.4337 18979 137.764
30.5512 18842 137.266
30.6687 18493 135.989
30.7862 18524 136.103
30.9037 18015 134.22
31.0212 17476 132.197
31.1387 16942 130.161
31.2562 16350 127.867
31.3737 15634 125.036
31.4912 15173 123.179
31.6087 15001 122.479
31.7262 14435 120.146
31.8436 14370 119.875
31.9611 14909 122.102
32.0785 14880 121.984
32.1959 15084 122.817
32.3134 15172 123.175
32.4308 15486 124.443
32.5482 15522 124.587
32.6655 15677 125.208
32.7829 15570 124.78
32.9002 15467 124.366
33.0176 15403 124.109
33.1349 15530 124.619
33.2522 16047 126.677
33.3694 16046 126.673
33.4867 16556 128.67
33.6039 16869 129.881
33.7211 17313 131.579
33.8383 17615 132.722
33.9554 17751 133.233
34.0725 17701 133.045
34.1896 17599 132.661
34.3067 17261 131.381
34.4237 16844 129.784
34.5407 16588 128.794
34.6577 16156 127.106
34.7746 15391 124.06
34.8915 15085 122.821
35.0084 14410 120.042
35.1252 14003 118.334
35.242 13727 117.162
35.3587 13392 115.724
35.4755 13756 117.286
35.5921 13987 118.267
35.7088 14290 119.541
35.8254 14679 121.157
35.9419 15386 124.04
36.0584 15323 123.786
36.1749 15897 126.083
36.2913 15641 125.064
36.4077 15283 123.624
36.524 14780 121.573
36.6403 14720 121.326
36.7565 14780 121.573
36.8727 14578 120.739
36.9889 14797 121.643
37.1049 14956 122.295
37.221 0 1
37.3369 0 1
37.4529 0 1
37.5687 0 1
37.6845 0 1
37.8003 0 1
37.916 0 1
38.0316 0 1
38.1472 0 1
40.5851 0 1
40.7008 0 1
40.8164 0 1
40.9322 0 1
41.048 0 1
41.1639 0 1
41.2798 0 1
41.3958 0 1
41.5118 0 1
41.6279 0 1
41.744 11642 107.898
41.8602 12516 111.875
41.9765 12519 111.888
42.0928 12551 112.031
42.2091 12657 112.503
42.3255 12826 113.252
42.4419 13007 114.048
42.5584 13024 114.123
42.675 13212 114.943
42.7915 13568 116.482
42.9081 13719 117.128
43.0248 13768 117.337
43.1415 13877 117.801
43.2582 13757 117.29
43.375 13879 117.809
43.4918 13911 117.945
43.6087 13689 117
43.7256 13585 116.555
43.8425 13364 115.603
43.9595 13002 114.026
44.0765 12967 113.873
44.1935 12982 113.939
44.3106 12944 113.772
44.4277 12988 113.965
44.5448 12937 113.741
44.6619 12882 113.499
44.7791 12609 112.29
44.8963 12628 112.374
45.0136 12339 111.081
45.1308 12135 110.159
45.2481 12124 110.109
45.3654 11610 107.75
45.4827 11384 106.696
45.6001 11121 105.456
45.7174 10829 104.062
45.8348 10486 102.401
45.9522 10567 102.796
46.0697 10023 100.115
46.1871 9988 99.94
46.3046 9752 98.7522
46.422 9853 99.2623
46.5395 9725 98.6154
46.657 9549 97.719
46.7745 9563 97.7906
46.892 9502 97.4782
47.0096 9398 96.9433
47.1271 9065 95.2103
47.2446 8837 94.0053
47.3622 8894 94.308
47.4797 8829 93.9628
47.5973 8676 93.145
47.7149 8875 94.2072
47.8324 8825 93.9415
47.95 8775 93.675
48.0675 8478 92.0761
48.1851 8428 91.8041
48.3027 8118 90.0999
48.4202 7910 88.9382
48.5378 7800 88.3176
48.6554 7729 87.9147
48.7729 7803 88.3346
48.8904 7687 87.6755
49.008 7580 87.0632
49.1255 7336 85.6505
49.243 7289 85.3756
49.3605 7258 85.1939
49.478 7235 85.0588
49.5955 7314 85.5219
49.713 7308 85.4868
49.8304 7330 85.6154
49.9479 7419 86.1336
50.0653 7509 86.6545
50.1827 7733 87.9375
50.3001 8134 90.1887
50.4175 8266 90.9175
50.5348 8225 90.6918
50.6521 8533 92.3742
50.7694 8495 92.1683
50.8867 8734 93.4559
51.004 9284 96.3535
51.1212 9706 98.519
51.2384 9876 99.3781
51.3556 10279 101.385
51.4727 10486 102.401
51.5899 10471 102.328
51.707 10607 102.99
51.824 10406 102.01
51.9411 9888 99.4384
52.0581 10023 100.115
52.175 10056 100.28
52.2919 10214 101.064
52.4088 9965 99.8248
52.5257 9592 97.9388
52.6425 9314 96.5091
52.7593 9261 96.2341
52.876 9544 97.6934
52.9927 9589 97.9234
53.1094 9954 99.7697
53.226 10173 100.861
53.3426 10126 100.628
53.4591 10567 102.796
53.5756 10814 103.99
53.692 10913 104.465
53.8084 11398 106.761
53.9248 11579 107.606
54.0411 11862 108.913
54.1573 11894 109.06
54.2735 0 1
54.3896 0 1
54.5057 0 1
54.6217 0 1
54.7377 0 1
54.8537 0 1
54.9695 0 1
55.0853 0 1
55.2011 0 1
55.3168 0 1
55.4324 0 1
57.824 0 1
57.9396 0 1
58.0553 0 1
58.1711 0 1
58.2869 0 1
58.4028 0 1
58.5187 0 1
58.6347 0 1
58.7508 0 1
58.8669 0 1
58.983 13066 114.307
59.0992 13820 117.558
59.2155 14329 119.704
59.3318 14521 120.503
59.4482 15360 123.935
59.5646 15963 126.345
59.681 16481 128.378
59.7975 16958 130.223
59.9141 17115 130.824
60.0306 16900 130
60.1473 16234 127.413
60.2639 15662 125.148
60.3807 15236 123.434
60.4974 14570 120.706
60.6142 14224 119.264
60.731 13414 115.819
60.8479 12396 111.337
60.9648 11680 108.074
61.0818 11193 105.797
61.1987 11072 105.224
61.3158 11478 107.135
61.4328 11766 108.471
61.5499 12190 110.408
61.667 12212 110.508
61.7841 12388 111.301
61.9013 12425 111.467
62.0185 12524 111.911
62.1357 12875 113.468
62.253 12699 112.69
62.3702 13182 114.813
62.4875 13054 114.254
62.6049 13188 114.839
62.7222 13306 115.352
62.8396 14243 119.344
62.9569 14838 121.811
63.0743 15547 124.688
63.1918 16450 128.258
63.3092 16307 127.699
63.4267 15996 126.475
63.5441 15949 126.289
63.6616 15685 125.24
63.7791 14969 122.348
63.8966 14434 120.142
64.0142 13523 116.288
64.1317 12747 112.903
64.2492 11524 107.35
64.3668 10835 104.091
64.4843 10452 102.235
64.6019 10220 101.094
64.7195 10023 100.115
64.837 10335 101.661
64.9546 10857 104.197
65.0722 11175 105.712
65.1898 11295 106.278
65.3074 11604 107.722
65.4249 11468 107.089
65.5425 11442 106.967
65.6601 11977 109.439
65.7777 12004 109.563
65.8952 12099 109.995
66.0128 12187 110.395
66.1304 12387 111.297
66.2479 12767 112.991
66.3655 13676 116.944
66.483 14390 119.958
66.6005 15117 122.951
66.718 15533 124.631
66.8355 15510 124.539
66.953 15675 125.2
67.0705 15532 124.627
67.1879 15332 123.822
67.3054 14961 122.315
67.4228 14020 118.406
67.5402 12704 112.712
67.6576 11053 105.133
67.7749 10316 101.568
67.8923 10195 100.97
68.0096 10121 100.603
68.1269 9802 99.0051
68.2442 9866 99.3277
68.3614 9690 98.4378
68.4787 10247 101.227
68.5958 10995 104.857
68.713 11566 107.545
68.8302 11651 107.94
68.9473 11518 107.322
69.0643 11583 107.624
69.1814 11756 108.425
69.2984 11948 109.307
69.4154 12471 111.674
69.5323 12644 112.446
69.6492 12872 113.455
69.7661 13500 116.19
69.8829 14385 119.937
69.9997 15350 123.895
70.1165 15896 126.079
70.2332 16128 126.996
70.3499 16522 128.538
70.4665 16845 129.788
70.5831 16769 129.495
70.6996 16441 128.222
70.8161 16218 127.35
70.9326 15185 123.227
71.049 13424 115.862
71.1653 11932 109.234
71.2817 11291 106.259
71.3979 10568 102.801
71.5141 10242 101.203
71.6303 9992 99.96
71.7464 9373 96.8143
71.8624 0 1
71.9784 0 1
72.0944 0 1
72.2102 0 1
72.3261 0 1
72.4418 0 1
72.5575 0 1
72.6732 0 1
75.1054 0 1
75.2209 0 1
75.3365 0 1
75.4521 0 1
75.5678 0 1
75.6835 0 1
75.7993 0 1
75.9151 0 1
76.031 0 1
76.147 14001 118.326
76.263 13874 117.788
76.3791 12623 112.352
76.4952 11629 107.838
76.6113 11132 105.508
76.7276 10881 104.312
76.8438 10682 103.354
76.9601 10751 103.687
77.0765 10538 102.655
77.1929 10445 102.201
77.3093 10445 102.201
77.4258 10619 103.049
77.5423 11594 107.675
77.6589 11919 109.174
77.7755 11747 108.384
77.8921 11572 107.573
78.0088 11301 106.306
78.1256 11741 108.356
78.2423 12138 110.173
78.3591 12241 110.639
78.4759 12557 112.058
78.5928 13158 114.708
78.7097 14200 119.164
78.8266 14363 119.846
78.9436 15826 125.801
79.0606 16014 126.546
79.1776 15884 126.032
79.2946 16183 127.212
79.4117 16609 128.876
79.5288 16558 128.678
79.6459 16027 126.598
79.7631 14845 121.84
79.8802 14122 118.836
79.9974 12591 112.21
80.1147 11779 108.531
80.2319 10944 104.614
80.3491 10854 104.183
80.4664 10566 102.791
80.5837 10648 103.189
80.701 10298 101.479
80.8183 10471 102.328
80.9357 10427 102.113
81.053 10498 102.46
81.1704 11379 106.672
81.2877 11842 108.821
81.4051 11708 108.204
81.5225 11496 107.219
81.6399 11122 105.461
81.7573 11591 107.662
81.8747 11587 107.643
81.9922 12222 110.553
82.1096 12895 113.556
82.227 13823 117.571
82.3444 14743 121.421
82.4619 15638 125.052
82.5793 16290 127.632
82.6967 16195 127.26
82.8142 16683 129.163
82.9316 16697 129.217
83.049 16797 129.603
83.1664 16192 127.248
83.2838 15612 124.948
83.4012 14621 120.917
83.5186 13130 114.586
83.636 11955 109.339
83.7534 11743 108.365
83.8708 11210 105.877
83.9881 11213 105.891
84.1055 10925 104.523
84.2228 11105 105.38
84.3401 10732 103.595
84.4575 10948 104.633
84.5747 11182 105.745
84.692 11926 109.206
84.8093 12562 112.08
84.9265 12537 111.969
85.0437 12402 111.364
85.1609 12128 110.127
85.2781 11967 109.394
85.3952 12098 109.991
85.5123 12862 113.411
85.6294 13543 116.374
85.7465 14204 119.181
85.8636 15593 124.872
85.9806 16348 127.859
86.0976 16727 129.333
86.2145 17057 130.602
86.3315 17411 131.951
86.4484 18211 134.948
86.5652 18190 134.87
86.682 18203 134.918
86.7988 17814 133.469
86.9156 16757 129.449
87.0323 15379 124.012
87.149 13994 118.296
87.2657 13357 115.572
87.3823 12756 112.942
87.4988 12389 111.306
87.6154 12146 110.209
87.7318 11858 108.894
87.8483 11786 108.563
87.9647 11897 109.073
88.081 11859 108.899
88.1973 12699 112.69
88.3136 13383 115.685
88.4298 13241 115.07
88.546 13026 114.132
88.6621 12306 110.932
88.7781 12001 109.549
88.8942 0 1
89.0101 0 1
89.126 0 1
89.2419 0 1
89.3577 0 1
89.4734 0 1
89.5891 0 1
89.7047 0 1
89.8203 0 1
89.9358 0 1
92.3269 0 1
92.4424 0 1
92.558 0 1
92.6736 0 1
92.7893 0 1
92.905 0 1
93.0208 0 1
93.1366 0 1
93.2525 0 1
93.3685 0 1
93.4845 0 1
93.6005 12088 109.945
93.7167 12158 110.263
93.8328 11809 108.669
93.949 11675 108.051
94.0653 11605 107.727
94.1816 11925 109.202
94.2979 11973 109.421
94.4143 12864 113.42
94.5307 13364 115.603
94.6472 14321 119.67
94.7637 15305 123.713
94.8803 15951 126.297
94.9969 16739 129.379
95.1135 17035 130.518
95.2302 16885 129.942
95.3469 16741 129.387
95.4637 17094 130.744
95.5805 17025 130.48
95.6973 16840 129.769
95.8142 16331 127.793
95.9311 15467 124.366
96.048 14589 120.785
96.1649 13574 116.508
96.2819 13226 115.004
96.3989 12546 112.009
96.516 12105 110.023
96.633 11730 108.305
96.7501 11691 108.125
96.8673 11550 107.471
96.9844 11461 107.056
97.1016 11569 107.559
97.2188 11755 108.42
97.336 12570 112.116
97.4532 12238 110.625
97.5704 11921 109.183
97.6877 11555 107.494
97.805 11274 106.179
97.9223 11487 107.177
98.0396 11759 108.439
98.1569 12093 109.968
98.2743 12784 113.066
98.3916 13662 116.885
98.509 14458 120.241
98.6264 15348 123.887
98.7438 15878 126.008
98.8612 16289 127.628
98.9786 16302 127.679
99.096 15962 126.341
99.2134 16440 128.219
99.3308 16269 127.55
99.4482 16261 127.519
99.5656 15148 123.077
99.6831 14470 120.291
99.8005 13679 116.957
99.9179 12846 113.34
100.035 11894 109.06
100.153 11503 107.252
100.27 11346 106.518
100.388 11278 106.198
100.505 10854 104.183
100.622 10944 104.614
100.74 11098 105.347
100.857 11246 106.047
100.975 11691 108.125
101.092 11568 107.555
101.209 11159 105.636
101.327 10900 104.403
101.444 10987 104.819
101.561 11183 105.75
101.679 11725 108.282
101.796 12416 111.427
101.913 13413 115.815
102.03 14459 120.246
102.148 15679 125.216
102.265 15535 124.639
102.382 18011 134.205
102.499 16889 129.958
102.616 16946 130.177
102.733 16926 130.1
102.851 17557 132.503
102.968 17726 133.139
103.085 16960 130.231
103.202 15773 125.591
103.319 15076 122.784
103.436 13754 117.277
103.552 13369 115.624
103.669 13089 114.407
103.786 12687 112.637
103.903 12398 111.346
104.02 12432 111.499
104.137 12257 110.711
104.253 12438 111.526
104.37 12489 111.754
104.487 12830 113.27
104.603 12437 111.521
104.72 12136 110.164
104.836 11924 109.197
104.953 12351 111.135
105.069 12431 111.494
105.186 13193 114.861
105.302 14216 119.231
105.418 15309 123.73
105.535 16638 128.988
105.651 17694 133.019
105.767 17694 133.019
105.883 17181 131.076
105.999 17214 131.202
106.115 0 1
106.231 0 1
106.347 0 1
106.463 0 1
106.579 0 1
106.694 0 1
106.81 0 1
106.926 0 1
107.041 0 1
107.157 0 1
109.576 0 1
109.692 0 1
109.807 0 1
109.923 0 1
110.039 0 1
110.155 0 1
110.27 0 1
110.386 0 1
110.502 0 1
110.618 13727 117.162
110.735 14894 122.041
110.851 15438 124.25
110.967 14794 121.631
111.083 14742 121.417
111.199 15168 123.158
111.316 15760 125.539
111.432 16033 126.621
111.549 15892 126.063
111.665 14718 121.318
111.782 14017 118.393
111.898 13492 116.155
112.015 12894 113.552
112.132 12329 111.036
112.248 11798 108.619
112.365 11211 105.882
112.482 11411 106.822
112.599 10520 102.567
112.716 10454 102.245
112.832 10110 100.548
112.949 10272 101.351
113.066 9597 97.9643
113.183 9497 97.4526
113.3 9360 96.7471
113.417 9388 96.8917
113.534 9394 96.9226
113.652 10087 100.434
113.769 10551 102.718
113.886 10791 103.88
114.003 11393 106.738
114.12 11976 109.435
114.238 12622 112.348
114.355 12643 112.441
114.472 12242 110.644
114.589 11518 107.322
114.707 11906 109.115
114.824 12417 111.432
114.942 12881 113.494
115.059 12640 112.428
115.176 11858 108.894
115.294 11347 106.522
115.411 11000 104.881
115.529 10465 102.299
115.646 10074 100.369
115.764 9751 98.7472
115.881 9456 97.242
115.999 8851 94.0798
116.116 8513 92.2659
116.234 8105 90.0278
116.351 7926 89.0281
116.469 7878 88.7581
116.586 7467 86.4118
116.704 7441 86.2612
116.821 7219 84.9647
116.939 7568 86.9943
117.056 7800 88.3176
117.174 8030 89.6103
117.291 8463 91.9946
117.409 8801 93.8136
117.526 9149 95.6504
117.644 9463 97.278
117.761 9700 98.4886
117.879 10314 101.558
117.996 9882 99.4082
118.114 9602 97.9898
118.231 9596 97.9592
118.349 10000 100
118.466 10574 102.83
118.584 10783 103.841
118.701 10831 104.072
118.819 10508 102.509
118.936 10599 102.951
119.053 10097 100.484
119.171 10039 100.195
119.288 9815 99.0707
119.405 9653 98.2497
119.523 9456 97.242
119.64 9166 95.7392
119.757 8760 93.5949
119.875 8224 90.6863
119.992 8345 91.351
120.109 7975 89.3029
120.226 8003 89.4595
120.343 7975 89.3029
120.46 8034 89.6326
120.578 8284 91.0165
120.695 8732 93.4452
120.812 9280 96.3328
120.929 9576 97.857
121.046 9930 99.6494
121.163 10178 100.886
121.279 10286 101.42
121.396 10711 103.494
121.513 11439 106.953
121.63 11203 105.844
121.747 10629 103.097
121.863 9931 99.6544
121.98 10471 102.328
122.097 11338 106.48
122.213 11871 108.954
122.33 12317 110.982
122.446 12240 110.635
122.563 12115 110.068
122.679 12195 110.431
122.795 12280 110.815
122.912 11866 108.931
123.028 11681 108.079
123.144 11193 105.797
123.26 11127 105.485
123.377 0 1
123.493 0 1
123.609 0 1
123.725 0 1
123.84 0 1
123.956 0 1
124.072 0 1
124.188 0 1
124.303 0 1
124.419 0 1
126.852 0 1
126.968 0 1
127.083 0 1
127.199 0 1
127.315 0 1
127.431 0 1
127.547 0 1
127.663 0 1
127.779 0 1
127.895 0 1
128.011 0 1
128.127 0 1
128.243 0 1
128.359 13843 117.656
128.476 13540 116.362
128.592 13300 115.326
128.708 13011 114.066
128.825 12740 112.872
128.941 12274 110.788
129.058 11829 108.761
129.174 11584 107.629
129.291 11425 106.888
129.408 11550 107.471
129.524 11600 107.703
129.641 11506 107.266
129.758 11358 106.574
129.875 11860 108.904
129.992 11909 109.128
130.108 11894 109.06
130.225 12032 109.69
130.342 12304 110.923
130.459 12378 111.256
130.576 12031 109.686
130.693 10873 104.274
130.81 9331 96.5971
130.928 9271 96.286
131.045 10805 103.947
131.162 11723 108.273
131.279 11955 109.339
131.396 11876 108.977
131.513 12226 110.571
131.631 12097 109.986
131.748 12041 109.731
131.865 11918 109.17
131.983 11645 107.912
132.1 11625 107.819
132.217 11531 107.382
132.335 11228 105.962
132.452 11087 105.295
132.57 10433 102.142
132.687 10135 100.673
132.804 10694 103.412
132.922 10217 101.079
133.039 9836 99.1766
133.157 10015 100.075
133.274 9820 99.0959
133.392 9979 99.8949
133.509 9918 99.5892
133.627 9945 99.7246
133.744 9888 99.4384
133.862 10223 101.109
133.979 9977 99.8849
134.097 9727 98.6256
134.214 8737 93.4719
134.332 6985 83.5763
134.449 7049 83.9583
134.567 8504 92.2171
134.684 9094 95.3625
134.802 9425 97.0824
134.919 9309 96.4832
135.037 9368 96.7884
135.154 9427 97.0927
135.272 9429 97.103
135.389 9407 96.9897
135.507 9389 96.8969
135.624 9373 96.8143
135.742 9126 95.5301
135.859 8792 93.7657
135.977 8847 94.0585
136.094 8759 93.5895
136.211 8695 93.247
136.329 8586 92.6607
136.446 8546 92.4446
136.564 8107 90.0389
136.681 8024 89.5768
136.798 7981 89.3364
136.915 8085 89.9166
137.033 8099 89.9944
137.15 8050 89.7218
137.267 8156 90.3106
137.384 8085 89.9166
137.502 8100 90
137.619 8211 90.6146
137.736 7556 86.9253
137.853 6377 79.8561
137.97 5785 76.0592
138.087 6485 80.5295
138.204 7694 87.7154
138.321 8222 90.6752
138.438 8571 92.5797
138.555 8729 93.4291
138.672 8954 94.6256
138.788 8955 94.6309
138.905 9159 95.7027
139.022 9287 96.3691
139.139 9232 96.0833
139.255 9417 97.0412
139.372 9527 97.6064
139.488 9383 96.8659
139.605 9561 97.7804
139.721 9588 97.9183
139.838 9579 97.8724
139.954 9557 97.7599
140.071 9390 96.902
140.187 9444 97.1802
140.303 9330 96.5919
140.419 9305 96.4624
140.535 9029 95.0211
140.652 9025 95
140.768 0 1
140.884 0 1
141 0 1
141.115 0 1
141.231 0 1
141.347 0 1
141.463 0 1
141.578 0 1
141.694 0 1
144.104 0 1
144.219 0 1
144.335 0 1
144.45 0 1
144.566 0 1
144.682 0 1
144.798 0 1
144.914 0 1
145.03 0 1
145.146 7758 88.0795
145.262 7930 89.0505
145.378 7764 88.1136
145.494 7625 87.3212
145.61 7553 86.908
145.726 7379 85.9011
145.842 7505 86.6314
145.959 7604 87.2009
146.075 7498 86.591
146.192 7721 87.8692
146.308 7390 85.9651
146.425 7173 84.6936
146.541 6678 81.719
146.658 6325 79.5299
146.774 6395 79.9687
146.891 6749 82.1523
147.008 7075 84.113
147.125 7161 84.6227
147.241 7170 84.6759
147.358 7305 85.4693
147.475 7094 84.2259
147.592 7061 84.0298
147.709 6894 83.0301
147.826 6834 82.668
147.943 6931 83.2526
148.06 6687 81.7741
148.177 6887 82.988
148.294 7025 83.8153
148.411 6812 82.5348
148.528 6871 82.8915
148.645 6703 81.8719
148.762 6462 80.3866
148.88 6380 79.8749
148.997 6631 81.431
149.114 5996 77.4338
149.231 6243 79.0127
149.349 6397 79.9812
149.466 6693 81.8108
149.583 6636 81.4616
149.701 6634 81.4494
149.818 6936 83.2827
149.935 7081 84.1487
150.053 7086 84.1784
150.17 6870 82.8855
150.287 7156 84.5931
150.405 7235 85.0588
150.522 7449 86.3076
150.64 7588 87.1091
150.757 7852 88.6115
150.875 7938 89.0955
150.992 7891 88.8313
151.11 7930 89.0505
151.227 8031 89.6158
151.344 7999 89.4371
151.462 7596 87.155
151.579 7823 88.4477
151.697 8014 89.5209
151.814 7852 88.6115
151.932 8027 89.5935
152.049 7984 89.3532
152.167 8094 89.9667
152.284 7680 87.6356
152.402 7630 87.3499
152.519 7274 85.2877
152.636 7228 85.0176
152.754 7247 85.1293
152.871 7497 86.5852
152.989 7489 86.539
153.106 7605 87.2067
153.223 7563 86.9655
153.341 7675 87.6071
153.458 7722 87.8749
153.575 7930 89.0505
153.693 8233 90.7359
153.81 8401 91.657
153.927 8688 93.2094
154.044 8841 94.0266
154.162 9411 97.0103
154.279 9547 97.7088
154.396 9634 98.1529
154.513 9831 99.1514
154.63 10265 101.316
154.747 10472 102.333
154.864 10360 101.784
154.981 10083 100.414
155.098 10284 101.41
155.215 10138 100.688
155.332 10347 101.72
155.449 10332 101.646
155.566 10179 100.891
155.683 9866 99.3277
155.8 9843 99.2119
155.917 9445 97.1854
156.033 9063 95.1998
156.15 0 1
156.267 0 1
156.383 0 1
156.5 0 1
156.617 0 1
156.733 0 1
156.85 0 1
156.966 0 1
157.082 0 1
157.199 0 1
157.315 0 1
157.431 0 1
157.547 0 1
157.664 0 1
157.78 0 1
157.896 0 1
158.012 0 1
158.128 0 1
158.244 0 1
158.359 0 1
158.475 0 1
158.591 0 1
158.706 0 1
