
6.15755 0 1
6.2731 0 1
6.3887 0 1
6.50437 0 1
6.62009 0 1
6.73587 0 1
6.8517 0 1
6.96759 0 1
7.08353 0 1
7.19952 0 1
7.31557 0 1
7.43166 0 1
7.54781 0 1
7.664 0 1
7.78024 0 1
7.89653 0 1
8.01286 0 1
8.12924 0 1
8.24567 0 1
8.36213 0 1
8.47864 0 1
8.59519 0 1
8.71178 0 1
8.82841 0 1
8.94508 0 1
9.06179 0 1
9.17853 0 1
9.29531 0 1
9.41212 0 1
9.52897 0 1
9.64584 0 1
9.76276 0 1
9.8797 0 1
9.99667 0 1
10.1137 0 1
10.2307 0 1
10.3478 0 1
10.4648 0 1
10.5819 0 1
10.6991 0 1
10.8162 0 1
10.9334 0 1
11.0506 0 1
11.1678 0 1
11.285 0 1
11.4023 0 1
11.5196 0 1
11.6369 0 1
11.7542 0 1
11.8715 0 1
11.9888 0 1
12.1062 0 1
12.2235 0 1
12.3409 0 1
12.4582 0 1
12.5756 0 1
12.693 0 1
12.8104 0 1
12.9278 0 1
13.0452 0 1
13.1626 0 1
13.28 0 1
13.3974 0 1
13.5149 0 1
13.6323 0 1
13.7497 0 1
13.8671 0 1
13.9845 0 1
14.1019 0 1
14.2193 0 1
14.3367 0 1
14.4541 0 1
14.5714 0 1
14.6888 0 1
14.8062 0 1
14.9235 0 1
15.0408 1605 40.0625
15.1581 1666 40.8167
15.2755 1760 41.9524
15.3927 1822 42.6849
15.51 1812 42.5676
15.6273 1754 41.8808
15.7445 1853 43.0465
15.8617 1827 42.7434
15.9789 1854 43.0581
16.0961 1741 41.7253
16.2132 1882 43.382
16.3304 1834 42.8252
16.4475 1827 42.7434
16.5646 1946 44.1135
16.6816 2071 45.5082
16.7986 2057 45.3542
16.9156 2121 46.0543
17.0326 2167 46.551
17.1496 2182 46.7119
17.2665 2159 46.465
17.3833 2152 46.3897
17.5002 2090 45.7165
17.617 1968 44.3621
17.7338 1879 43.3474
17.8505 1856 43.0813
17.9672 1785 42.2493
18.0839 1782 42.2137
18.2005 1895 43.5316
18.3171 1937 44.0114
18.4337 1911 43.715
18.5502 2021 44.9555
18.6666 2043 45.1996
18.7831 2026 45.0111
18.8994 2170 46.5833
19.0158 2080 45.607
19.1321 2041 45.1774
19.2483 1945 44.1022
19.3645 1888 43.4511
19.4806 1699 41.2189
19.5967 1611 40.1373
19.7128 1538 39.2173
19.8288 1440 37.9473
19.9447 1263 35.5387
20.0606 0 1
20.1764 0 1
20.2922 0 1
20.4079 0 1
20.5236 0 1
20.6392 0 1
20.7548 0 1
20.8702 0 1
23.3078 0 1
23.4233 0 1
23.539 0 1
23.6547 0 1
23.7704 0 1
23.8862 0 1
24.0021 0 1
24.118 0 1
24.234 0 1
24.35 0 1
24.4661 845 29.0689
24.5822 1014 31.8434
24.6984 1127 33.5708
24.8146 1259 35.4824
24.9309 1475 38.4057
25.0472 1501 38.7427
25.1636 1697 41.1947
25.28 1871 43.2551
25.3965 1981 44.5084
25.513 2077 45.5741
25.6296 2198 46.8828
25.7462 2220 47.1169
25.8628 2313 48.0937
25.9795 2358 48.5592
26.0962 2263 47.571
26.213 2163 46.5081
26.3298 2039 45.1553
26.4466 2029 45.0444
26.5635 1912 43.7264
26.6804 1966 44.3396
26.7973 2011 44.8442
26.9143 2001 44.7325
27.0313 2102 45.8476
27.1483 2115 45.9891
27.2653 2154 46.4112
27.3824 2100 45.8258
27.4996 2136 46.2169
27.6167 2161 46.4866
27.7339 2105 45.8803
27.8511 2022 44.9667
27.9683 2019 44.9333
28.0855 1914 43.7493
28.2028 1889 43.4626
28.3201 1821 42.6732
28.4374 1848 42.9884
28.5547 1843 42.9302
28.6721 1943 44.0795
28.7894 2028 45.0333
28.9068 2126 46.1086
29.0242 2148 46.3465
29.1416 2240 47.3286
29.259 2254 47.4763
29.3764 2256 47.4974
29.4939 2219 47.1063
29.6113 2137 46.2277
29.7288 2041 45.1774
29.8463 1921 43.8292
29.9638 1907 43.6692
30.0812 1879 43.3474
30.1987 1830 42.7785
30.3162 1918 43.795
30.4337 1929 43.9204
30.5512 2008 44.8107
30.6687 2013 44.8665
30.7862 1978 44.4747
30.9037 2073 45.5302
31.0212 2099 45.8148
31.1387 2063 45.4203
31.2562 2026 45.0111
31.3737 2009 44.8219
31.4912 2005 44.7772
31.6087 1939 44.0341
31.7262 1835 42.8369
31.8436 1902 43.6119
31.9611 1809 42.5323
32.0785 1795 42.3674
32.1959 1915 43.7607
32.3134 1872 43.2666
32.4308 2036 45.1221
32.5482 2199 46.8935
32.6655 2155 46.422
32.7829 2077 45.5741
32.9002 2072 45.5192
33.0176 2219 47.1063
33.1349 2113 45.9674
33.2522 1964 44.317
33.3694 2039 45.1553
33.4867 1863 43.1625
33.6039 1812 42.5676
33.7211 1732 41.6173
33.8383 1720 41.4729
33.9554 1701 41.2432
34.0725 1880 43.359
34.1896 1914 43.7493
34.3067 1927 43.8976
34.4237 1954 44.2041
34.5407 1970 44.3847
34.6577 2075 45.5522
34.7746 1948 44.1362
34.8915 2040 45.1664
35.0084 1958 44.2493
35.1252 1881 43.3705
35.242 1853 43.0465
35.3587 1821 42.6732
35.4755 1793 42.3438
35.5921 1780 42.19
35.7088 1692 41.1339
35.8254 1778 42.1663
35.9419 1787 42.2729
36.0584 1781 42.2019
36.1749 1891 43.4856
36.2913 1824 42.7083
36.4077 1873 43.2782
36.524 1840 42.8952
36.6403 1787 42.2729
36.7565 1723 41.509
36.8727 1593 39.9124
36.9889 1451 38.092
37.1049 1378 37.1214
37.221 0 1
37.3369 0 1
37.4529 0 1
37.5687 0 1
37.6845 0 1
37.8003 0 1
37.916 0 1
38.0316 0 1
38.1472 0 1
40.5851 0 1
40.7008 0 1
40.8164 0 1
40.9322 0 1
41.048 0 1
41.1639 0 1
41.2798 0 1
41.3958 0 1
41.5118 0 1
41.6279 0 1
41.744 1021 31.9531
41.8602 1103 33.2114
41.9765 1193 34.5398
42.0928 1162 34.0881
42.2091 1183 34.3948
42.3255 1224 34.9857
42.4419 1163 34.1028
42.5584 1214 34.8425
42.675 1277 35.7351
42.7915 1440 37.9473
42.9081 1553 39.4081
43.0248 1581 39.7618
43.1415 1629 40.3609
43.2582 1644 40.5463
43.375 1669 40.8534
43.4918 1760 41.9524
43.6087 1611 40.1373
43.7256 1657 40.7063
43.8425 1685 41.0488
43.9595 1503 38.7685
44.0765 1558 39.4715
44.1935 1536 39.1918
44.3106 1524 39.0384
44.4277 1458 38.1838
44.5448 1435 37.8814
44.6619 1439 37.9342
44.7791 1533 39.1535
44.8963 1513 38.8973
45.0136 1623 40.2865
45.1308 1718 41.4488
45.2481 1759 41.9404
45.3654 1700 41.2311
45.4827 1721 41.4849
45.6001 1653 40.6571
45.7174 1654 40.6694
45.8348 1557 39.4588
45.9522 1418 37.6563
46.0697 1364 36.9324
46.1871 1331 36.4829
46.3046 1494 38.6523
46.422 1412 37.5766
46.5395 1491 38.6135
46.657 1537 39.2046
46.7745 1606 40.0749
46.892 1682 41.0122
47.0096 1746 41.7852
47.1271 1803 42.4617
47.2446 1795 42.3674
47.3622 1708 41.328
47.4797 1760 41.9524
47.5973 1644 40.5463
47.7149 1606 40.0749
47.8324 1527 39.0768
47.95 1490 38.6005
48.0675 1517 38.9487
48.1851 1413 37.5899
48.3027 1470 38.3406
48.4202 1620 40.2492
48.5378 1679 40.9756
48.6554 1759 41.9404
48.7729 1756 41.9047
48.8904 1730 41.5933
49.008 1731 41.6053
49.1255 1669 40.8534
49.243 1682 41.0122
49.3605 1473 38.3797
49.478 1507 38.8201
49.5955 1346 36.6879
49.713 1347 36.7015
49.8304 1374 37.0675
49.9479 1493 38.6394
50.0653 1480 38.4708
50.1827 1623 40.2865
50.3001 1647 40.5832
50.4175 1673 40.9023
50.5348 1741 41.7253
50.6521 1737 41.6773
50.7694 1839 42.8836
50.8867 1799 42.4146
51.004 1789 42.2966
51.1212 1717 41.4367
51.2384 1710 41.3521
51.3556 1649 40.6079
51.4727 1639 40.4846
51.5899 1534 39.1663
51.707 1628 40.3485
51.824 1551 39.3827
51.9411 1718 41.4488
52.0581 2003 44.7549
52.175 1995 44.6654
52.2919 2007 44.7996
52.4088 2054 45.3211
52.5257 2188 46.7761
52.6425 2170 46.5833
52.7593 2182 46.7119
52.876 2211 47.0213
52.9927 1994 44.6542
53.1094 1937 44.0114
53.226 1820 42.6615
53.3426 1700 41.2311
53.4591 1711 41.3642
53.5756 1757 41.9166
53.692 1720 41.4729
53.8084 1749 41.821
53.9248 1765 42.0119
54.0411 1681 41
54.1573 1531 39.128
54.2735 0 1
54.3896 0 1
54.5057 0 1
54.6217 0 1
54.7377 0 1
54.8537 0 1
54.9695 0 1
55.0853 0 1
55.2011 0 1
55.3168 0 1
55.4324 0 1
57.824 0 1
57.9396 0 1
58.0553 0 1
58.1711 0 1
58.2869 0 1
58.4028 0 1
58.5187 0 1
58.6347 0 1
58.7508 0 1
58.8669 0 1
58.983 1347 36.7015
59.0992 1493 38.6394
59.2155 1648 40.5956
59.3318 1709 41.3401
59.4482 1814 42.5911
59.5646 1867 43.2088
59.681 2030 45.0555
59.7975 1963 44.3058
59.9141 1964 44.317
60.0306 1898 43.566
60.1473 1964 44.317
60.2639 1817 42.6263
60.3807 1766 42.0238
60.4974 1833 42.8135
60.6142 1969 44.3734
60.731 2126 46.1086
60.8479 2053 45.31
60.9648 2100 45.8258
61.0818 2197 46.8722
61.1987 2082 45.6289
61.3158 2147 46.3357
61.4328 2061 45.3982
61.5499 1910 43.7035
61.667 1813 42.5793
61.7841 1667 40.8289
61.9013 1570 39.6232
62.0185 1606 40.0749
62.1357 1698 41.2068
62.253 1923 43.852
62.3702 1907 43.6692
62.4875 2022 44.9667
62.6049 2078 45.5851
62.7222 2057 45.3542
62.8396 2164 46.5188
62.9569 2086 45.6727
63.0743 2221 47.1275
63.1918 2097 45.793
63.3092 2062 45.4093
63.4267 2014 44.8776
63.5441 2012 44.8553
63.6616 1892 43.4971
63.7791 1757 41.9166
63.8966 1685 41.0488
64.0142 1742 41.7373
64.1317 1810 42.5441
64.2492 1898 43.566
64.3668 2044 45.2106
64.4843 2054 45.3211
64.6019 2077 45.5741
64.7195 2122 46.0652
64.837 2133 46.1844
64.9546 2035 45.111
65.0722 1988 44.587
65.1898 1848 42.9884
65.3074 1678 40.9634
65.4249 1592 39.8999
65.5425 1588 39.8497
65.6601 1594 39.9249
65.7777 1721 41.4849
65.8952 1866 43.1972
66.0128 1842 42.9185
66.1304 2012 44.8553
66.2479 1969 44.3734
66.3655 2067 45.4643
66.483 2090 45.7165
66.6005 2064 45.4313
66.718 2083 45.6399
66.8355 2014 44.8776
66.953 2047 45.2438
67.0705 2031 45.0666
67.1879 1871 43.2551
67.3054 1826 42.7317
67.4228 1736 41.6653
67.5402 1670 40.8656
67.6576 1692 41.1339
67.7749 1807 42.5088
67.8923 1853 43.0465
68.0096 1928 43.909
68.1269 2031 45.0666
68.2442 2079 45.5961
68.3614 2036 45.1221
68.4787 2079 45.5961
68.5958 2019 44.9333
68.713 1930 43.9318
68.8302 1836 42.8486
68.9473 1659 40.7308
69.0643 1593 39.9124
69.1814 1512 38.8844
69.2984 1527 39.0768
69.4154 1604 40.05
69.5323 1801 42.4382
69.6492 1845 42.9535
69.7661 1821 42.6732
69.8829 1929 43.9204
69.9997 1887 43.4396
70.1165 1844 42.9418
70.2332 1775 42.1307
70.3499 1716 41.4246
70.4665 1670 40.8656
70.5831 1623 40.2865
70.6996 1513 38.8973
70.8161 1383 37.1887
70.9326 1292 35.9444
71.049 1143 33.8083
71.1653 939 30.6431
71.2817 858 29.2916
71.3979 834 28.8791
71.5141 780 27.9285
71.6303 756 27.4955
71.7464 680 26.0768
71.8624 0 1
71.9784 0 1
72.0944 0 1
72.2102 0 1
72.3261 0 1
72.4418 0 1
72.5575 0 1
72.6732 0 1
75.1054 0 1
75.2209 0 1
75.3365 0 1
75.4521 0 1
75.5678 0 1
75.6835 0 1
75.7993 0 1
75.9151 0 1
76.031 0 1
76.147 1235 35.1426
76.263 1197 34.5977
76.3791 1316 36.2767
76.4952 1356 36.8239
76.6113 1340 36.606
76.7276 1398 37.3898
76.8438 1530 39.1152
76.9601 1699 41.2189
77.0765 1781 42.2019
77.1929 1816 42.6146
77.3093 1857 43.0929
77.4258 1754 41.8808
77.5423 1730 41.5933
77.6589 1606 40.0749
77.7755 1496 38.6782
77.8921 1437 37.9078
78.0088 1338 36.5787
78.1256 1249 35.3412
78.2423 1278 35.7491
78.3591 1361 36.8917
78.4759 1449 38.0657
78.5928 1552 39.3954
78.7097 1649 40.6079
78.8266 1686 41.0609
78.9436 1688 41.0853
79.0606 1761 41.9643
79.1776 1742 41.7373
79.2946 1816 42.6146
79.4117 1712 41.3763
79.5288 1784 42.2374
79.6459 1771 42.0833
79.7631 1778 42.1663
79.8802 1618 40.2244
79.9974 1599 39.9875
80.1147 1516 38.9358
80.2319 1433 37.855
80.3491 1497 38.6911
80.4664 1624 40.2989
80.5837 1668 40.8412
80.701 1680 40.9878
80.8183 1800 42.4264
80.9357 1896 43.5431
81.053 1897 43.5546
81.1704 1794 42.3556
81.2877 1852 43.0349
81.4051 1801 42.4382
81.5225 1642 40.5216
81.6399 1454 38.1314
81.7573 1353 36.7831
81.8747 1282 35.805
81.9922 1221 34.9428
82.1096 1435 37.8814
82.227 1478 38.4448
82.3444 1754 41.8808
82.4619 1755 41.8927
82.5793 1766 42.0238
82.6967 1761 41.9643
82.8142 1954 44.2041
82.9316 1909 43.6921
83.049 1888 43.4511
83.1664 1920 43.8178
83.2838 1756 41.9047
83.4012 1846 42.9651
83.5186 1821 42.6732
83.636 1612 40.1497
83.7534 1500 38.7298
83.8708 1419 37.6696
83.9881 1493 38.6394
84.1055 1579 39.7366
84.2228 1665 40.8044
84.3401 1846 42.9651
84.4575 1836 42.8486
84.5747 1853 43.0465
84.692 1899 43.5775
84.8093 1919 43.8064
84.9265 1741 41.7253
85.0437 1758 41.9285
85.1609 1592 39.8999
85.2781 1384 37.2022
85.3952 1358 36.8511
85.5123 1283 35.819
85.6294 1410 37.55
85.7465 1567 39.5854
85.8636 1627 40.3361
85.9806 1702 41.2553
86.0976 1801 42.4382
86.2145 1787 42.2729
86.3315 1809 42.5323
86.4484 1917 43.7836
86.5652 1867 43.2088
86.682 1897 43.5546
86.7988 1890 43.4741
86.9156 1884 43.4051
87.0323 1831 42.7902
87.149 1783 42.2256
87.2657 1624 40.2989
87.3823 1496 38.6782
87.4988 1276 35.7211
87.6154 1259 35.4824
87.7318 1362 36.9053
87.8483 1369 37
87.9647 1530 39.1152
88.081 1394 37.3363
88.1973 1446 38.0263
88.3136 1394 37.3363
88.4298 1354 36.7967
88.546 1204 34.6987
88.6621 1010 31.7805
88.7781 808 28.4253
88.8942 0 1
89.0101 0 1
89.126 0 1
89.2419 0 1
89.3577 0 1
89.4734 0 1
89.5891 0 1
89.7047 0 1
89.8203 0 1
89.9358 0 1
92.3269 0 1
92.4424 0 1
92.558 0 1
92.6736 0 1
92.7893 0 1
92.905 0 1
93.0208 0 1
93.1366 0 1
93.2525 0 1
93.3685 0 1
93.4845 0 1
93.6005 1476 38.4187
93.7167 1494 38.6523
93.8328 1535 39.1791
93.949 1572 39.6485
94.0653 1632 40.398
94.1816 1659 40.7308
94.2979 1569 39.6106
94.4143 1455 38.1445
94.5307 1409 37.5366
94.6472 1368 36.9865
94.7637 1435 37.8814
94.8803 1476 38.4187
94.9969 1619 40.2368
95.1135 1720 41.4729
95.2302 1827 42.7434
95.3469 1790 42.3084
95.4637 1882 43.382
95.5805 1838 42.8719
95.6973 1939 44.0341
95.8142 1964 44.317
95.9311 1820 42.6615
96.048 1930 43.9318
96.1649 1837 42.8602
96.2819 1857 43.0929
96.3989 1815 42.6028
96.516 1658 40.7185
96.633 1582 39.7744
96.7501 1525 39.0512
96.8673 1561 39.5095
96.9844 1625 40.3113
97.1016 1732 41.6173
97.2188 1878 43.3359
97.336 1980 44.4972
97.4532 1940 44.0454
97.5704 2027 45.0222
97.6877 1910 43.7035
97.805 1839 42.8836
97.9223 1731 41.6053
98.0396 1574 39.6737
98.1569 1464 38.2623
98.2743 1389 37.2693
98.3916 1322 36.3593
98.509 1451 38.092
98.6264 1592 39.8999
98.7438 1797 42.391
98.8612 1841 42.9069
98.9786 1882 43.382
99.096 1902 43.6119
99.2134 2007 44.7996
99.3308 2022 44.9667
99.4482 2001 44.7325
99.5656 2043 45.1996
99.6831 2046 45.2327
99.8005 2023 44.9778
99.9179 1947 44.1248
100.035 1982 44.5197
100.153 1849 43
100.27 1679 40.9756
100.388 1694 41.1582
100.505 1716 41.4246
100.622 1861 43.1393
100.74 1950 44.1588
100.857 2086 45.6727
100.975 2103 45.8585
101.092 1953 44.1928
101.209 2058 45.3652
101.327 2034 45.0999
101.444 1981 44.5084
101.561 1774 42.1189
101.679 1658 40.7185
101.796 1523 39.0256
101.913 1441 37.9605
102.03 1507 38.8201
102.148 1646 40.5709
102.265 1778 42.1663
102.382 1953 44.1928
102.499 2010 44.833
102.616 2026 45.0111
102.733 2101 45.8367
102.851 2094 45.7602
102.968 2169 46.5725
103.085 2035 45.111
103.202 2006 44.7884
103.319 2057 45.3542
103.436 2014 44.8776
103.552 1942 44.0681
103.669 1830 42.7785
103.786 1799 42.4146
103.903 1760 41.9524
104.02 1797 42.391
104.137 1906 43.6578
104.253 2018 44.9222
104.37 2129 46.1411
104.487 2245 47.3814
104.603 2186 46.7547
104.72 2106 45.8912
104.836 2064 45.4313
104.953 1905 43.6463
105.069 1640 40.4969
105.186 1545 39.3065
105.302 1391 37.2961
105.418 1314 36.2491
105.535 1267 35.5949
105.651 1341 36.6197
105.767 1322 36.3593
105.883 1351 36.756
105.999 1276 35.7211
106.115 0 1
106.231 0 1
106.347 0 1
106.463 0 1
106.579 0 1
106.694 0 1
106.81 0 1
106.926 0 1
107.041 0 1
107.157 0 1
109.576 0 1
109.692 0 1
109.807 0 1
109.923 0 1
110.039 0 1
110.155 0 1
110.27 0 1
110.386 0 1
110.502 0 1
110.618 907 30.1164
110.735 1111 33.3317
110.851 1345 36.6742
110.967 1506 38.8072
111.083 1670 40.8656
111.199 1861 43.1393
111.316 1944 44.0908
111.432 1945 44.1022
111.549 1920 43.8178
111.665 2048 45.2548
111.782 2015 44.8888
111.898 1975 44.441
112.015 1876 43.3128
112.132 1805 42.4853
112.248 1699 41.2189
112.365 1614 40.1746
112.482 1711 41.3642
112.599 1814 42.5911
112.716 1881 43.3705
112.832 1990 44.6094
112.949 1958 44.2493
113.066 2041 45.1774
113.183 2046 45.2327
113.3 1868 43.2204
113.417 1965 44.3283
113.534 1821 42.6732
113.652 1619 40.2368
113.769 1549 39.3573
113.886 1407 37.51
114.003 1365 36.9459
114.12 1506 38.8072
114.238 1722 41.497
114.355 1709 41.3401
114.472 1770 42.0714
114.589 1983 44.5309
114.707 1998 44.699
114.824 2087 45.6837
114.942 2041 45.1774
115.059 2049 45.2659
115.176 2018 44.9222
115.294 1943 44.0795
115.411 1991 44.6206
115.529 1971 44.3959
115.646 1880 43.359
115.764 1820 42.6615
115.881 1711 41.3642
115.999 1627 40.3361
116.116 1688 41.0853
116.234 1843 42.9302
116.351 1855 43.0697
116.469 2047 45.2438
116.586 2013 44.8665
116.704 1990 44.6094
116.821 2065 45.4423
116.939 2073 45.5302
117.056 1981 44.5084
117.174 1815 42.6028
117.291 1582 39.7744
117.409 1486 38.5487
117.526 1357 36.8375
117.644 1403 37.4566
117.761 1569 39.6106
117.879 1700 41.2311
117.996 1778 42.1663
118.114 1888 43.4511
118.231 1886 43.4281
118.349 1891 43.4856
118.466 1980 44.4972
118.584 1969 44.3734
118.701 1950 44.1588
118.819 1963 44.3058
118.936 1877 43.3244
119.053 1902 43.6119
119.171 1850 43.0116
119.288 1741 41.7253
119.405 1669 40.8534
119.523 1664 40.7922
119.64 1599 39.9875
119.757 1691 41.1218
119.875 1709 41.3401
119.992 1753 41.8688
120.109 1920 43.8178
120.226 1897 43.5546
120.343 1845 42.9535
120.46 1916 43.7721
120.578 1956 44.2267
120.695 1890 43.4741
120.812 1638 40.4722
120.929 1552 39.3954
121.046 1487 38.5616
121.163 1373 37.054
121.279 1357 36.8375
121.396 1326 36.4143
121.513 1440 37.9473
121.63 1459 38.1969
121.747 1538 39.2173
121.863 1466 38.2884
121.98 1489 38.5876
122.097 1438 37.921
122.213 1488 38.5746
122.33 1420 37.6829
122.446 1446 38.0263
122.563 1305 36.1248
122.679 1278 35.7491
122.795 1141 33.7787
122.912 1075 32.7872
123.028 913 30.2159
123.144 879 29.6479
123.26 742 27.2397
123.377 0 1
123.493 0 1
123.609 0 1
123.725 0 1
123.84 0 1
123.956 0 1
124.072 0 1
124.188 0 1
124.303 0 1
124.419 0 1
126.852 0 1
126.968 0 1
127.083 0 1
127.199 0 1
127.315 0 1
127.431 0 1
127.547 0 1
127.663 0 1
127.779 0 1
127.895 0 1
128.011 0 1
128.127 0 1
128.243 0 1
128.359 1800 42.4264
128.476 1801 42.4382
128.592 1835 42.8369
128.708 1851 43.0232
128.825 1815 42.6028
128.941 1913 43.7379
129.058 2009 44.8219
129.174 2062 45.4093
129.291 2048 45.2548
129.408 2097 45.793
129.524 2074 45.5412
129.641 2027 45.0222
129.758 1931 43.9431
129.875 1917 43.7836
129.992 1692 41.1339
130.108 1543 39.281
130.225 1489 38.5876
130.342 1531 39.128
130.459 1563 39.5348
130.576 1791 42.3202
130.693 1735 41.6533
130.81 1898 43.566
130.928 1903 43.6234
131.045 1955 44.2154
131.162 1991 44.6206
131.279 2104 45.8694
131.396 2036 45.1221
131.513 2039 45.1553
131.631 1986 44.5646
131.748 2057 45.3542
131.865 1977 44.4635
131.983 1935 43.9886
132.1 1835 42.8369
132.217 1829 42.7668
132.335 1802 42.45
132.452 1861 43.1393
132.57 1957 44.238
132.687 2080 45.607
132.804 2037 45.1331
132.922 2093 45.7493
133.039 2140 46.2601
133.157 2162 46.4973
133.274 2046 45.2327
133.392 1925 43.8748
133.509 1812 42.5676
133.627 1708 41.328
133.744 1578 39.724
133.862 1484 38.5227
133.979 1572 39.6485
134.097 1715 41.4126
134.214 1712 41.3763
134.332 1832 42.8019
134.449 1959 44.2606
134.567 1987 44.5758
134.684 1995 44.6654
134.802 2067 45.4643
134.919 2048 45.2548
135.037 2165 46.5296
135.154 2019 44.9333
135.272 2026 45.0111
135.389 1962 44.2945
135.507 1934 43.9773
135.624 1886 43.4281
135.742 1947 44.1248
135.859 1857 43.0929
135.977 1897 43.5546
136.094 1899 43.5775
136.211 1979 44.486
136.329 1991 44.6206
136.446 2093 45.7493
136.564 2106 45.8912
136.681 2123 46.076
136.798 2139 46.2493
136.915 2080 45.607
137.033 1993 44.643
137.15 1739 41.7013
137.267 1683 41.0244
137.384 1614 40.1746
137.502 1521 39
137.619 1651 40.6325
137.736 1727 41.5572
137.853 1740 41.7133
137.97 1881 43.3705
138.087 1925 43.8748
138.204 1872 43.2666
138.321 2001 44.7325
138.438 2083 45.6399
138.555 2082 45.6289
138.672 2001 44.7325
138.788 2008 44.8107
138.905 1843 42.9302
139.022 1803 42.4617
139.139 1694 41.1582
139.255 1643 40.5339
139.372 1441 37.9605
139.488 1377 37.108
139.605 1354 36.7967
139.721 1334 36.524
139.838 1357 36.8375
139.954 1315 36.2629
140.071 1343 36.647
140.187 1254 35.4119
140.303 1076 32.8024
140.419 1072 32.7414
140.535 1022 31.9687
140.652 879 29.6479
140.768 0 1
140.884 0 1
141 0 1
141.115 0 1
141.231 0 1
141.347 0 1
141.463 0 1
141.578 0 1
141.694 0 1
144.104 0 1
144.219 0 1
144.335 0 1
144.45 0 1
144.566 0 1
144.682 0 1
144.798 0 1
144.914 0 1
145.03 0 1
145.146 1465 38.2753
145.262 1666 40.8167
145.378 1652 40.6448
145.494 1658 40.7185
145.61 1632 40.398
145.726 1596 39.95
145.842 1422 37.7094
145.959 1432 37.8418
146.075 1299 36.0416
146.192 1269 35.623
146.308 1259 35.4824
146.425 1298 36.0278
146.541 1391 37.2961
146.658 1383 37.1887
146.774 1405 37.4833
146.891 1546 39.3192
147.008 1655 40.6817
147.125 1556 39.4462
147.241 1592 39.8999
147.358 1664 40.7922
147.475 1617 40.2119
147.592 1662 40.7676
147.709 1608 40.0999
147.826 1466 38.2884
147.943 1448 38.0526
148.06 1380 37.1484
148.177 1308 36.1663
148.294 1452 38.1051
148.411 1480 38.4708
148.528 1477 38.4318
148.645 1553 39.4081
148.762 1551 39.3827
148.88 1626 40.3237
148.997 1665 40.8044
149.114 1613 40.1622
149.231 1591 39.8873
149.349 1643 40.5339
149.466 1620 40.2492
149.583 1469 38.3275
149.701 1300 36.0555
149.818 1322 36.3593
149.935 1315 36.2629
150.053 1300 36.0555
150.17 1292 35.9444
150.287 1398 37.3898
150.405 1399 37.4032
150.522 1487 38.5616
150.64 1529 39.1024
150.757 1526 39.064
150.875 1583 39.7869
150.992 1523 39.0256
151.11 1562 39.5221
151.227 1562 39.5221
151.344 1526 39.064
151.462 1473 38.3797
151.579 1469 38.3275
151.697 1406 37.4967
151.814 1419 37.6696
151.932 1285 35.8469
152.049 1438 37.921
152.167 1442 37.9737
152.284 1474 38.3927
152.402 1553 39.4081
152.519 1572 39.6485
152.636 1547 39.3319
152.754 1637 40.4599
152.871 1575 39.6863
152.989 1511 38.8716
153.106 1480 38.4708
153.223 1427 37.7757
153.341 1317 36.2905
153.458 1206 34.7275
153.575 1221 34.9428
153.693 1283 35.819
153.81 1230 35.0714
153.927 1285 35.8469
154.044 1356 36.8239
154.162 1391 37.2961
154.279 1432 37.8418
154.396 1440 37.9473
154.513 1407 37.51
154.63 1492 38.6264
154.747 1392 37.3095
154.864 1475 38.4057
154.981 1430 37.8153
155.098 1359 36.8646
155.215 1313 36.2353
155.332 1355 36.8103
155.449 1292 35.9444
155.566 1281 35.7911
155.683 1302 36.0832
155.8 1334 36.524
155.917 1375 37.081
156.033 1375 37.081
156.15 0 1
156.267 0 1
156.383 0 1
156.5 0 1
156.617 0 1
156.733 0 1
156.85 0 1
156.966 0 1
157.082 0 1
157.199 0 1
157.315 0 1
157.431 0 1
157.547 0 1
157.664 0 1
157.78 0 1
157.896 0 1
158.012 0 1
158.128 0 1
158.244 0 1
158.359 0 1
158.475 0 1
158.591 0 1
158.706 0 1
