
6.15755 0 1
6.2731 0 1
6.3887 0 1
6.50437 0 1
6.62009 0 1
6.73587 0 1
6.8517 0 1
6.96759 0 1
7.08353 0 1
7.19952 0 1
7.31557 0 1
7.43166 0 1
7.54781 0 1
7.664 0 1
7.78024 0 1
7.89653 0 1
8.01286 0 1
8.12924 0 1
8.24567 0 1
8.36213 0 1
8.47864 0 1
8.59519 0 1
8.71178 0 1
8.82841 0 1
8.94508 0 1
9.06179 0 1
9.17853 0 1
9.29531 0 1
9.41212 0 1
9.52897 0 1
9.64584 0 1
9.76276 0 1
9.8797 0 1
9.99667 0 1
10.1137 0 1
10.2307 0 1
10.3478 0 1
10.4648 0 1
10.5819 0 1
10.6991 0 1
10.8162 0 1
10.9334 0 1
11.0506 0 1
11.1678 0 1
11.285 0 1
11.4023 0 1
11.5196 0 1
11.6369 0 1
11.7542 0 1
11.8715 0 1
11.9888 0 1
12.1062 0 1
12.2235 0 1
12.3409 0 1
12.4582 0 1
12.5756 0 1
12.693 0 1
12.8104 0 1
12.9278 0 1
13.0452 0 1
13.1626 0 1
13.28 0 1
13.3974 0 1
13.5149 0 1
13.6323 0 1
13.7497 0 1
13.8671 0 1
13.9845 0 1
14.1019 0 1
14.2193 0 1
14.3367 0 1
14.4541 0 1
14.5714 0 1
14.6888 0 1
14.8062 0 1
14.9235 0 1
15.0408 22888 151.288
15.1581 24141 155.374
15.2755 24536 156.64
15.3927 24941 157.927
15.51 24986 158.07
15.6273 24816 157.531
15.7445 24645 156.987
15.8617 24684 157.111
15.9789 24788 157.442
16.0961 25097 158.42
16.2132 25700 160.312
16.3304 26396 162.468
16.4475 27147 164.763
16.5646 28158 167.803
16.6816 28830 169.794
16.7986 29767 172.531
16.9156 30556 174.803
17.0326 31297 176.91
17.1496 32106 179.181
17.2665 32970 181.576
17.3833 32868 181.295
17.5002 33312 182.516
17.617 33870 184.038
17.7338 33765 183.753
17.8505 33696 183.565
17.9672 33302 182.488
18.0839 31452 177.347
18.2005 30190 173.753
18.3171 30590 174.9
18.4337 32206 179.46
18.5502 33819 183.899
18.6666 33909 184.144
18.7831 34847 186.674
18.8994 35022 187.142
19.0158 33813 183.883
19.1321 33471 182.951
19.2483 32675 180.762
19.3645 32106 179.181
19.4806 31517 177.53
19.5967 30990 176.04
19.7128 30868 175.693
19.8288 30053 173.358
19.9447 27166 164.821
20.0606 0 1
20.1764 0 1
20.2922 0 1
20.4079 0 1
20.5236 0 1
20.6392 0 1
20.7548 0 1
20.8702 0 1
23.3078 0 1
23.4233 0 1
23.539 0 1
23.6547 0 1
23.7704 0 1
23.8862 0 1
24.0021 0 1
24.118 0 1
24.234 0 1
24.35 0 1
24.4661 31063 176.247
24.5822 31235 176.734
24.6984 31170 176.55
24.8146 30809 175.525
24.9309 30761 175.388
25.0472 30521 174.703
25.1636 30432 174.448
25.28 31198 176.63
25.3965 32415 180.042
25.513 33333 182.573
25.6296 34664 186.183
25.7462 35316 187.926
25.8628 35975 189.671
25.9795 36266 190.436
26.0962 36553 191.188
26.213 36678 191.515
26.3298 37014 192.39
26.4466 36189 190.234
26.5635 35253 187.758
26.6804 34219 184.984
26.7973 32313 179.758
26.9143 32250 179.583
27.0313 33251 182.349
27.1483 34681 186.228
27.2653 35294 187.867
27.3824 35732 189.029
27.4996 35628 188.754
27.6167 34661 186.175
27.7339 34118 184.711
27.8511 33268 182.395
27.9683 33113 181.97
28.0855 32392 179.978
28.2028 32067 179.073
28.3201 30979 176.009
28.4374 31198 176.63
28.5547 30907 175.804
28.6721 30350 174.213
28.7894 30535 174.743
28.9068 31159 176.519
29.0242 31847 178.457
29.1416 32672 180.754
29.259 33442 182.872
29.3764 34257 185.086
29.4939 34766 186.456
29.6113 35176 187.553
29.7288 35539 188.518
29.8463 35258 187.771
29.9638 35141 187.459
30.0812 34646 186.134
30.1987 33300 182.483
30.3162 30784 175.454
30.4337 29971 173.121
30.5512 30686 175.174
30.6687 31842 178.443
30.7862 33469 182.945
30.9037 33977 184.329
31.0212 34453 185.615
31.1387 34141 184.773
31.2562 33548 183.161
31.3737 33020 181.714
31.4912 32512 180.311
31.6087 32335 179.819
31.7262 31267 176.825
31.8436 31114 176.392
31.9611 30776 175.431
32.0785 30314 174.109
32.1959 29760 172.511
32.3134 29787 172.589
32.4308 29778 172.563
32.5482 30658 175.094
32.6655 31316 176.963
32.7829 31833 178.418
32.9002 33249 182.343
33.0176 33116 181.978
33.1349 34417 185.518
33.2522 34625 186.078
33.3694 33935 184.215
33.4867 34370 185.391
33.6039 34453 185.615
33.7211 33874 184.049
33.8383 32598 180.549
33.9554 30759 175.382
34.0725 28930 170.088
34.1896 28463 168.71
34.3067 29698 172.331
34.4237 31168 176.545
34.5407 31537 177.587
34.6577 32233 179.536
34.7746 32417 180.047
34.8915 32300 179.722
35.0084 31909 178.631
35.1252 31685 178.003
35.242 30970 175.983
35.3587 30142 173.615
35.4755 29861 172.803
35.5921 29717 172.386
35.7088 29143 170.713
35.8254 28702 169.417
35.9419 28571 169.03
36.0584 28356 168.392
36.1749 28242 168.054
36.2913 29102 170.593
36.4077 29902 172.922
36.524 29972 173.124
36.6403 30610 174.957
36.7565 31823 178.39
36.8727 32553 180.424
36.9889 32532 180.366
37.1049 32689 180.801
37.221 0 1
37.3369 0 1
37.4529 0 1
37.5687 0 1
37.6845 0 1
37.8003 0 1
37.916 0 1
38.0316 0 1
38.1472 0 1
40.5851 0 1
40.7008 0 1
40.8164 0 1
40.9322 0 1
41.048 0 1
41.1639 0 1
41.2798 0 1
41.3958 0 1
41.5118 0 1
41.6279 0 1
41.744 23568 153.519
41.8602 25546 159.831
41.9765 26851 163.863
42.0928 27493 165.81
42.2091 27669 166.34
42.3255 27524 165.904
42.4419 27338 165.342
42.5584 27456 165.699
42.675 26027 161.329
42.7915 24481 156.464
42.9081 22869 151.225
43.0248 22447 149.823
43.1415 23580 153.558
43.2582 24275 155.804
43.375 25379 159.308
43.4918 25553 159.853
43.6087 25426 159.455
43.7256 25332 159.16
43.8425 25262 158.94
43.9595 24201 155.567
44.0765 24091 155.213
44.1935 23473 153.209
44.3106 23028 151.75
44.4277 22267 149.221
44.5448 21540 146.765
44.6619 20610 143.562
44.7791 20164 142
44.8963 19727 140.453
45.0136 19730 140.464
45.1308 19508 139.671
45.2481 20124 141.859
45.3654 20656 143.722
45.4827 20752 144.056
45.6001 21291 145.914
45.7174 21742 147.452
45.8348 21621 147.041
45.9522 21291 145.914
46.0697 21045 145.069
46.1871 20450 143.003
46.3046 19635 140.125
46.422 17872 133.686
46.5395 16887 129.95
46.657 16975 130.288
46.7745 18138 134.677
46.892 18410 135.683
47.0096 18663 136.613
47.1271 19145 138.365
47.2446 18982 137.775
47.3622 19042 137.993
47.4797 18734 136.872
47.5973 18373 135.547
47.7149 17981 134.093
47.8324 17985 134.108
47.95 17325 131.624
48.0675 17038 130.53
48.1851 16457 128.285
48.3027 16020 126.57
48.4202 15831 125.821
48.5378 15594 124.876
48.6554 15824 125.793
48.7729 16057 126.716
48.8904 16785 129.557
49.008 17110 130.805
49.1255 17876 133.701
49.243 18428 135.75
49.3605 18572 136.279
49.478 18701 136.752
49.5955 18626 136.477
49.713 18411 135.687
49.8304 17298 131.522
49.9479 16064 126.744
50.0653 15594 124.876
50.1827 15650 125.1
50.3001 16907 130.027
50.4175 17527 132.39
50.5348 18656 136.587
50.6521 19574 139.907
50.7694 19646 140.164
50.8867 20327 142.573
51.004 20532 143.29
51.1212 20658 143.729
51.2384 20995 144.897
51.3556 21015 144.966
51.4727 20665 143.753
51.5899 20558 143.381
51.707 20931 144.675
51.824 20333 142.594
51.9411 20158 141.979
52.0581 20004 141.435
52.175 20732 143.986
52.2919 21127 145.351
52.4088 22289 149.295
52.5257 23360 152.84
52.6425 24265 155.772
52.7593 24626 156.927
52.876 25005 158.13
52.9927 25408 159.399
53.1094 25696 160.3
53.226 25628 160.087
53.3426 25504 159.7
53.4591 24235 155.676
53.5756 22522 150.073
53.692 21159 145.461
53.8084 21491 146.598
53.9248 22702 150.672
54.0411 24085 155.193
54.1573 25400 159.374
54.2735 0 1
54.3896 0 1
54.5057 0 1
54.6217 0 1
54.7377 0 1
54.8537 0 1
54.9695 0 1
55.0853 0 1
55.2011 0 1
55.3168 0 1
55.4324 0 1
57.824 0 1
57.9396 0 1
58.0553 0 1
58.1711 0 1
58.2869 0 1
58.4028 0 1
58.5187 0 1
58.6347 0 1
58.7508 0 1
58.8669 0 1
58.983 25253 158.912
59.0992 27166 164.821
59.2155 29305 171.187
59.3318 30323 174.135
59.4482 31785 178.283
59.5646 32162 179.338
59.681 32780 181.052
59.7975 32964 181.56
59.9141 32802 181.113
60.0306 32116 179.209
60.1473 31511 177.513
60.2639 30878 175.721
60.3807 29921 172.977
60.4974 28962 170.182
60.6142 28230 168.018
60.731 27385 165.484
60.8479 26944 164.146
60.9648 27403 165.539
61.0818 28311 168.259
61.1987 29408 171.488
61.3158 30369 174.267
61.4328 30692 175.191
61.5499 31619 177.817
61.667 31422 177.263
61.7841 31403 177.209
61.9013 30776 175.431
62.0185 29318 171.225
62.1357 27311 165.26
62.253 25464 159.574
62.3702 25016 158.164
62.4875 26201 161.867
62.6049 27320 165.288
62.7222 28550 168.967
62.8396 29946 173.049
62.9569 30797 175.491
63.0743 31159 176.519
63.1918 31210 176.664
63.3092 31320 176.975
63.4267 31180 176.579
63.5441 30491 174.617
63.6616 30288 174.034
63.7791 29317 171.222
63.8966 28764 169.6
64.0142 27565 166.027
64.1317 26689 163.368
64.2492 25655 160.172
64.3668 25331 159.157
64.4843 25311 159.094
64.6019 26399 162.478
64.7195 27521 165.895
64.837 28664 169.304
64.9546 29653 172.2
65.0722 30084 173.447
65.1898 30139 173.606
65.3074 30817 175.548
65.4249 29858 172.795
65.5425 28968 170.2
65.6601 27170 164.833
65.7777 25400 159.374
65.8952 24032 155.023
66.0128 23782 154.214
66.1304 25009 158.142
66.2479 26508 162.813
66.3655 28045 167.466
66.483 29144 170.716
66.6005 30271 173.986
66.718 30865 175.684
66.8355 30626 175.003
66.953 30578 174.866
67.0705 30345 174.198
67.1879 30483 174.594
67.3054 29514 171.796
67.4228 29239 170.994
67.5402 28610 169.145
67.6576 27415 165.575
67.7749 25983 161.192
67.8923 25052 158.278
68.0096 24590 156.812
68.1269 25070 158.335
68.2442 25668 160.212
68.3614 26901 164.015
68.4787 28385 168.478
68.5958 29978 173.142
68.713 30224 173.851
68.8302 30962 175.96
68.9473 31243 176.757
69.0643 30909 175.81
69.1814 30428 174.436
69.2984 28475 168.745
69.4154 26888 163.976
69.5323 24924 157.873
69.6492 24484 156.474
69.7661 25785 160.577
69.8829 27536 165.94
69.9997 29262 171.061
70.1165 30747 175.348
70.2332 31555 177.637
70.3499 32332 179.811
70.4665 32554 180.427
70.5831 32830 181.191
70.6996 32324 179.789
70.8161 32224 179.51
70.9326 31843 178.446
71.049 30888 175.75
71.1653 30167 173.686
71.2817 29425 171.537
71.3979 27785 166.688
71.5141 26188 161.827
71.6303 24686 157.118
71.7464 22766 150.884
71.8624 0 1
71.9784 0 1
72.0944 0 1
72.2102 0 1
72.3261 0 1
72.4418 0 1
72.5575 0 1
72.6732 0 1
75.1054 0 1
75.2209 0 1
75.3365 0 1
75.4521 0 1
75.5678 0 1
75.6835 0 1
75.7993 0 1
75.9151 0 1
76.031 0 1
76.147 29122 170.652
76.263 30226 173.856
76.3791 30105 173.508
76.4952 29084 170.54
76.6113 27849 166.88
76.7276 26369 162.385
76.8438 25848 160.773
76.9601 26152 161.716
77.0765 26973 164.235
77.1929 28711 169.443
77.3093 30555 174.8
77.4258 31757 178.205
77.5423 32609 180.58
77.6589 32754 180.981
77.7755 32865 181.287
77.8921 32257 179.602
78.0088 30801 175.502
78.1256 28785 169.661
78.2423 26284 162.123
78.3591 24497 156.515
78.4759 23570 153.525
78.5928 24860 157.671
78.7097 26738 163.518
78.8266 28512 168.855
78.9436 30947 175.918
79.0606 31469 177.395
79.1776 31951 178.748
79.2946 32336 179.822
79.4117 33184 182.165
79.5288 32570 180.472
79.6459 32390 179.972
79.7631 32178 179.382
79.8802 31382 177.15
79.9974 30290 174.04
80.1147 29932 173.009
80.2319 28228 168.012
80.3491 26378 162.413
80.4664 25287 159.019
80.5837 25487 159.646
80.701 26834 163.811
80.8183 28333 168.324
80.9357 30437 174.462
81.053 31555 177.637
81.1704 32003 178.894
81.2877 32352 179.867
81.4051 32266 179.627
81.5225 32355 179.875
81.6399 31070 176.267
81.7573 29671 172.253
81.8747 27045 164.454
81.9922 24914 157.842
82.1096 24120 155.306
82.227 24778 157.41
82.3444 27272 165.142
82.4619 29224 170.95
82.5793 30813 175.536
82.6967 30838 175.608
82.8142 32266 179.627
82.9316 32659 180.718
83.049 32785 181.066
83.1664 32872 181.306
83.2838 32775 181.039
83.4012 32823 181.171
83.5186 31727 178.121
83.636 31057 176.23
83.7534 29904 172.928
83.8708 28681 169.355
83.9881 27025 164.393
84.1055 25625 160.078
84.2228 26060 161.431
84.3401 26935 164.119
84.4575 28369 168.431
84.5747 30467 174.548
84.692 31976 178.818
84.8093 33174 182.137
84.9265 33731 183.66
85.0437 33671 183.497
85.1609 32827 181.182
85.2781 30864 175.682
85.3952 28428 168.606
85.5123 26906 164.03
85.6294 25177 158.673
85.7465 24746 157.309
85.8636 26846 163.847
85.9806 28872 169.918
86.0976 30822 175.562
86.2145 32113 179.201
86.3315 33058 181.819
86.4484 34200 184.932
86.5652 34502 185.747
86.682 35095 187.337
86.7988 35211 187.646
86.9156 34609 186.035
87.0323 34458 185.629
87.149 33595 183.289
87.2657 32944 181.505
87.3823 31436 177.302
87.4988 30230 173.868
87.6154 27818 166.787
87.7318 27592 166.108
87.8483 28158 167.803
87.9647 29924 172.986
88.081 32001 178.888
88.1973 34087 184.627
88.3136 34786 186.51
88.4298 34891 186.791
88.546 35010 187.11
88.6621 34472 185.666
88.7781 33208 182.231
88.8942 0 1
89.0101 0 1
89.126 0 1
89.2419 0 1
89.3577 0 1
89.4734 0 1
89.5891 0 1
89.7047 0 1
89.8203 0 1
89.9358 0 1
92.3269 0 1
92.4424 0 1
92.558 0 1
92.6736 0 1
92.7893 0 1
92.905 0 1
93.0208 0 1
93.1366 0 1
93.2525 0 1
93.3685 0 1
93.4845 0 1
93.6005 33190 182.181
93.7167 33472 182.954
93.8328 33052 181.802
93.949 32419 180.053
94.0653 30718 175.266
94.1816 29138 170.699
94.2979 27568 166.036
94.4143 26548 162.936
94.5307 26410 162.512
94.6472 27175 164.848
94.7637 28888 169.965
94.8803 30786 175.459
94.9969 32040 178.997
95.1135 32982 181.609
95.2302 33673 183.502
95.3469 34026 184.461
95.4637 35001 187.086
95.5805 34847 186.674
95.6973 35455 188.295
95.8142 35491 188.391
95.9311 34992 187.061
96.048 34362 185.37
96.1649 33537 183.131
96.2819 32607 180.574
96.3989 30770 175.414
96.516 29060 170.47
96.633 27663 166.322
96.7501 27878 166.967
96.8673 29030 170.382
96.9844 30868 175.693
97.1016 32588 180.521
97.2188 34295 185.189
97.336 35153 187.491
97.4532 34916 186.858
97.5704 34493 185.723
97.6877 33371 182.677
97.805 31203 176.644
97.9223 29435 171.566
98.0396 27319 165.285
98.1569 26648 163.242
98.2743 26634 163.199
98.3916 27527 165.913
98.509 29552 171.907
98.6264 31239 176.746
98.7438 32332 179.811
98.8612 33379 182.699
98.9786 33863 184.019
99.096 34155 184.811
99.2134 34645 186.132
99.3308 34426 185.542
99.4482 34563 185.911
99.5656 34491 185.718
99.6831 33469 182.945
99.8005 32617 180.602
99.9179 31734 178.14
100.035 30241 173.899
100.153 28116 167.678
100.27 27364 165.421
100.388 27811 166.766
100.505 29331 171.263
100.622 31604 177.775
100.74 33640 183.412
100.857 34166 184.84
100.975 34646 186.134
101.092 34324 185.267
101.209 34013 184.426
101.327 32811 181.138
101.444 31015 176.111
101.561 29167 170.783
101.679 27493 165.81
101.796 26637 163.208
101.913 26749 163.551
102.03 28748 169.552
102.148 30820 175.556
102.265 30049 173.346
102.382 35908 189.494
102.499 34732 186.365
102.616 35416 188.191
102.733 36104 190.011
102.851 36297 190.518
102.968 36522 191.107
103.085 36395 190.775
103.202 35786 189.172
103.319 35443 188.263
103.436 34424 185.537
103.552 32640 180.665
103.669 30631 175.017
103.786 29582 171.994
103.903 29660 172.221
104.02 31334 177.014
104.137 34108 184.684
104.253 35947 189.597
104.37 36277 190.465
104.487 37014 192.39
104.603 37184 192.832
104.72 36640 191.416
104.836 34542 185.855
104.953 32796 181.097
105.069 30336 174.172
105.186 29539 171.869
105.302 28776 169.635
105.418 29704 172.348
105.535 31841 178.44
105.651 33517 183.076
105.767 34692 186.258
105.883 35722 189.003
105.999 36653 191.45
106.115 0 1
106.231 0 1
106.347 0 1
106.463 0 1
106.579 0 1
106.694 0 1
106.81 0 1
106.926 0 1
107.041 0 1
107.157 0 1
109.576 0 1
109.692 0 1
109.807 0 1
109.923 0 1
110.039 0 1
110.155 0 1
110.27 0 1
110.386 0 1
110.502 0 1
110.618 28328 168.309
110.735 30073 173.416
110.851 31049 176.207
110.967 31893 178.586
111.083 32505 180.291
111.199 32642 180.671
111.316 33140 182.044
111.432 33320 182.538
111.549 32555 180.43
111.665 31852 178.471
111.782 31589 177.733
111.898 30431 174.445
112.015 28642 169.239
112.132 26477 162.718
112.248 25023 158.187
112.365 25645 160.141
112.482 27705 166.448
112.599 28212 167.964
112.716 30086 173.453
112.832 30254 173.937
112.949 30035 173.306
113.066 30478 174.579
113.183 29709 172.363
113.3 28023 167.401
113.417 26216 161.914
113.534 24451 156.368
113.652 23631 153.724
113.769 22660 150.532
113.886 21907 148.01
114.003 23215 152.365
114.12 24365 156.093
114.238 25119 158.49
114.355 26301 162.176
114.472 27176 164.851
114.589 26568 162.997
114.707 26804 163.719
114.824 27000 164.317
114.942 26769 163.612
115.059 26597 163.086
115.176 26070 161.462
115.294 25767 160.521
115.411 24480 156.461
115.529 23439 153.098
115.646 21836 147.77
115.764 20052 141.605
115.881 19785 140.659
115.999 20668 143.764
116.116 21922 148.061
116.234 22941 151.463
116.351 23049 151.819
116.469 23084 151.934
116.586 22785 150.947
116.704 22434 149.78
116.821 21816 147.702
116.939 20732 143.986
117.056 19610 140.036
117.174 18534 136.14
117.291 17740 133.192
117.409 17381 131.837
117.526 17978 134.082
117.644 18880 137.405
117.761 19702 140.364
117.879 20374 142.738
117.996 21193 145.578
118.114 21391 146.257
118.231 22148 148.822
118.349 21981 148.26
118.466 21956 148.176
118.584 22565 150.217
118.701 22183 148.94
118.819 22020 148.391
118.936 21850 147.817
119.053 21256 145.794
119.171 20716 143.931
119.288 19448 139.456
119.405 18789 137.073
119.523 18556 136.22
119.64 19636 140.129
119.757 21122 145.334
119.875 22335 149.449
119.992 22753 150.841
120.109 22797 150.987
120.226 22948 151.486
120.343 23084 151.934
120.46 22687 150.622
120.578 21904 148
120.695 21050 145.086
120.812 20240 142.267
120.929 19585 139.946
121.046 19056 138.043
121.163 19433 139.402
121.279 20253 142.313
121.396 21366 146.171
121.513 22563 150.21
121.63 23370 152.872
121.747 24069 155.142
121.863 24622 156.914
121.98 25556 159.862
122.097 25824 160.698
122.213 25562 159.881
122.33 26059 161.428
122.446 26197 161.855
122.563 25934 161.04
122.679 25460 159.562
122.795 25329 159.151
122.912 24471 156.432
123.028 23114 152.033
123.144 22091 148.63
123.26 22091 148.63
123.377 0 1
123.493 0 1
123.609 0 1
123.725 0 1
123.84 0 1
123.956 0 1
124.072 0 1
124.188 0 1
124.303 0 1
124.419 0 1
126.852 0 1
126.968 0 1
127.083 0 1
127.199 0 1
127.315 0 1
127.431 0 1
127.547 0 1
127.663 0 1
127.779 0 1
127.895 0 1
128.011 0 1
128.127 0 1
128.243 0 1
128.359 26449 162.631
128.476 25919 160.994
128.592 26920 164.073
128.708 28115 167.675
128.825 30138 173.603
128.941 30996 176.057
129.058 30759 175.382
129.174 31037 176.173
129.291 30850 175.642
129.408 30416 174.402
129.524 28722 169.476
129.641 27268 165.13
129.758 26221 161.929
129.875 24754 157.334
129.992 24300 155.885
130.108 24117 155.296
130.225 24948 157.949
130.342 25520 159.75
130.459 26537 162.902
130.576 26665 163.294
130.693 27463 165.72
130.81 27731 166.526
130.928 27825 166.808
131.045 28185 167.884
131.162 28159 167.806
131.279 28447 168.662
131.396 28093 167.61
131.513 27442 165.656
131.631 26832 163.805
131.748 25699 160.309
131.865 24529 156.617
131.983 23438 153.095
132.1 23573 153.535
132.217 25167 158.641
132.335 26439 162.601
132.452 27246 165.064
132.57 27077 164.551
132.687 26035 161.354
132.804 27400 165.529
132.922 26141 161.682
133.039 25061 158.307
133.157 23768 154.169
133.274 22707 150.688
133.392 21778 147.574
133.509 20918 144.631
133.627 20641 143.67
133.744 20671 143.774
133.862 21612 147.01
133.979 21801 147.652
134.097 21916 148.041
134.214 22762 150.871
134.332 22225 149.081
134.449 22603 150.343
134.567 22644 150.479
134.684 22811 151.033
134.802 22892 151.301
134.919 22461 149.87
135.037 22049 148.489
135.154 21394 146.267
135.272 20951 144.745
135.389 19716 140.414
135.507 18744 136.909
135.624 18605 136.4
135.742 19125 138.293
135.859 19963 141.29
135.977 20291 142.446
136.094 20499 143.175
136.211 20468 143.066
136.329 20192 142.099
136.446 19996 141.407
136.564 19281 138.856
136.681 18124 134.625
136.798 17750 133.229
136.915 17058 130.606
137.033 16373 127.957
137.15 15926 126.198
137.267 16105 126.905
137.384 16445 128.238
137.502 16791 129.58
137.619 17630 132.778
137.736 17597 132.654
137.853 17818 133.484
137.97 18152 134.729
138.087 18757 136.956
138.204 19033 137.96
138.321 19558 139.85
138.438 19829 140.815
138.555 20140 141.915
138.672 20243 142.278
138.788 20114 141.824
138.905 19381 139.216
139.022 18593 136.356
139.139 18510 136.051
139.255 18856 137.317
139.372 19773 140.616
139.488 21248 145.767
139.605 21869 147.882
139.721 22288 149.292
139.838 22568 150.226
139.954 22700 150.665
140.071 22270 149.231
140.187 22795 150.98
140.303 21697 147.299
140.419 20777 144.142
140.535 20586 143.478
140.652 19848 140.883
140.768 0 1
140.884 0 1
141 0 1
141.115 0 1
141.231 0 1
141.347 0 1
141.463 0 1
141.578 0 1
141.694 0 1
144.104 0 1
144.219 0 1
144.335 0 1
144.45 0 1
144.566 0 1
144.682 0 1
144.798 0 1
144.914 0 1
145.03 0 1
145.146 19276 138.838
145.262 19420 139.356
145.378 18671 136.642
145.494 18001 134.168
145.61 17307 131.556
145.726 16786 129.561
145.842 16356 127.891
145.959 15734 125.435
146.075 16259 127.511
146.192 16398 128.055
146.308 16552 128.655
146.425 16581 128.767
146.541 16698 129.221
146.658 16729 129.341
146.774 16556 128.67
146.891 16842 129.777
147.008 16830 129.73
147.125 16836 129.754
147.241 16852 129.815
147.358 16787 129.565
147.475 16216 127.342
147.592 15638 125.052
147.709 14861 121.906
147.826 14652 121.045
147.943 14631 120.959
148.06 14834 121.795
148.177 15604 124.916
148.294 15921 126.178
148.411 15723 125.391
148.528 15505 124.519
148.645 15610 124.94
148.762 15552 124.708
148.88 14876 121.967
148.997 14935 122.209
149.114 13065 114.302
149.231 13362 115.594
149.349 12783 113.062
149.466 12858 113.393
149.583 12211 110.503
149.701 12636 112.41
149.818 13126 114.569
149.935 12953 113.811
150.053 13373 115.642
150.17 13543 116.374
150.287 13970 118.195
150.405 13743 117.231
150.522 14235 119.311
150.64 14303 119.595
150.757 14366 119.858
150.875 14624 120.93
150.992 14360 119.833
151.11 14538 120.574
151.227 13943 118.08
151.344 13440 115.931
151.462 13679 116.957
151.579 13604 116.636
151.697 14072 118.625
151.814 14818 121.729
151.932 15255 123.511
152.049 15582 124.828
152.167 15513 124.551
152.284 15704 125.316
152.402 15549 124.696
152.519 15008 122.507
152.636 14722 121.334
152.754 14525 120.52
152.871 14296 119.566
152.989 14202 119.172
153.106 13867 117.758
153.223 13859 117.724
153.341 13998 118.313
153.458 14231 119.294
153.575 14698 121.235
153.693 14939 122.225
153.81 15187 123.236
153.927 15718 125.371
154.044 15667 125.168
154.162 16030 126.61
154.279 16305 127.691
154.396 17167 131.023
154.513 17143 130.931
154.63 17510 132.325
154.747 17339 131.678
154.864 17156 130.981
154.981 16636 128.981
155.098 16369 127.941
155.215 16698 129.221
155.332 17449 132.095
155.449 17856 133.626
155.566 18827 137.212
155.683 18716 136.806
155.8 18910 137.514
155.917 18939 137.619
156.033 18836 137.244
156.15 0 1
156.267 0 1
156.383 0 1
156.5 0 1
156.617 0 1
156.733 0 1
156.85 0 1
156.966 0 1
157.082 0 1
157.199 0 1
157.315 0 1
157.431 0 1
157.547 0 1
157.664 0 1
157.78 0 1
157.896 0 1
158.012 0 1
158.128 0 1
158.244 0 1
158.359 0 1
158.475 0 1
158.591 0 1
158.706 0 1
