
6.15755 0 1
6.2731 0 1
6.3887 0 1
6.50437 0 1
6.62009 0 1
6.73587 0 1
6.8517 0 1
6.96759 0 1
7.08353 0 1
7.19952 0 1
7.31557 0 1
7.43166 0 1
7.54781 0 1
7.664 0 1
7.78024 0 1
7.89653 0 1
8.01286 0 1
8.12924 0 1
8.24567 0 1
8.36213 0 1
8.47864 0 1
8.59519 0 1
8.71178 0 1
8.82841 0 1
8.94508 0 1
9.06179 0 1
9.17853 0 1
9.29531 0 1
9.41212 0 1
9.52897 0 1
9.64584 0 1
9.76276 0 1
9.8797 0 1
9.99667 0 1
10.1137 0 1
10.2307 0 1
10.3478 0 1
10.4648 0 1
10.5819 0 1
10.6991 0 1
10.8162 0 1
10.9334 0 1
11.0506 0 1
11.1678 0 1
11.285 0 1
11.4023 0 1
11.5196 0 1
11.6369 0 1
11.7542 0 1
11.8715 0 1
11.9888 0 1
12.1062 0 1
12.2235 0 1
12.3409 0 1
12.4582 0 1
12.5756 0 1
12.693 0 1
12.8104 0 1
12.9278 0 1
13.0452 0 1
13.1626 0 1
13.28 0 1
13.3974 0 1
13.5149 0 1
13.6323 0 1
13.7497 0 1
13.8671 0 1
13.9845 0 1
14.1019 0 1
14.2193 0 1
14.3367 0 1
14.4541 0 1
14.5714 0 1
14.6888 0 1
14.8062 0 1
14.9235 0 1
15.0408 879 29.6479
15.1581 931 30.5123
15.2755 881 29.6816
15.3927 924 30.3974
15.51 979 31.289
15.6273 859 29.3087
15.7445 828 28.775
15.8617 903 30.05
15.9789 790 28.1069
16.0961 817 28.5832
16.2132 845 29.0689
16.3304 822 28.6705
16.4475 842 29.0172
16.5646 865 29.4109
16.6816 816 28.5657
16.7986 807 28.4077
16.9156 791 28.1247
17.0326 744 27.2764
17.1496 814 28.5307
17.2665 760 27.5681
17.3833 776 27.8568
17.5002 767 27.6948
17.617 774 27.8209
17.7338 789 28.0891
17.8505 768 27.7128
17.9672 750 27.3861
18.0839 770 27.7489
18.2005 721 26.8514
18.3171 756 27.4955
18.4337 797 28.2312
18.5502 796 28.2135
18.6666 757 27.5136
18.7831 759 27.55
18.8994 803 28.3373
19.0158 759 27.55
19.1321 692 26.3059
19.2483 653 25.5539
19.3645 647 25.4362
19.4806 600 24.4949
19.5967 609 24.6779
19.7128 617 24.8395
19.8288 600 24.4949
19.9447 539 23.2164
20.0606 0 1
20.1764 0 1
20.2922 0 1
20.4079 0 1
20.5236 0 1
20.6392 0 1
20.7548 0 1
20.8702 0 1
23.3078 0 1
23.4233 0 1
23.539 0 1
23.6547 0 1
23.7704 0 1
23.8862 0 1
24.0021 0 1
24.118 0 1
24.234 0 1
24.35 0 1
24.4661 324 18
24.5822 353 18.7883
24.6984 423 20.567
24.8146 465 21.5639
24.9309 495 22.2486
25.0472 579 24.0624
25.1636 662 25.7294
25.28 698 26.4197
25.3965 819 28.6182
25.513 815 28.5482
25.6296 911 30.1828
25.7462 830 28.8097
25.8628 849 29.1376
25.9795 819 28.6182
26.0962 807 28.4077
26.213 824 28.7054
26.3298 823 28.688
26.4466 729 27
26.5635 737 27.1477
26.6804 677 26.0192
26.7973 698 26.4197
26.9143 678 26.0384
27.0313 703 26.5141
27.1483 754 27.4591
27.2653 723 26.8887
27.3824 751 27.4044
27.4996 746 27.313
27.6167 692 26.3059
27.7339 678 26.0384
27.8511 698 26.4197
27.9683 681 26.096
28.0855 717 26.7769
28.2028 648 25.4558
28.3201 682 26.1151
28.4374 679 26.0576
28.5547 773 27.8029
28.6721 772 27.7849
28.7894 788 28.0713
28.9068 798 28.2489
29.0242 733 27.074
29.1416 702 26.4953
29.259 757 27.5136
29.3764 674 25.9615
29.4939 762 27.6043
29.6113 698 26.4197
29.7288 703 26.5141
29.8463 731 27.037
29.9638 693 26.3249
30.0812 699 26.4386
30.1987 741 27.2213
30.3162 649 25.4755
30.4337 733 27.074
30.5512 742 27.2397
30.6687 717 26.7769
30.7862 764 27.6405
30.9037 777 27.8747
31.0212 709 26.6271
31.1387 725 26.9258
31.2562 725 26.9258
31.3737 771 27.7669
31.4912 711 26.6646
31.6087 695 26.3629
31.7262 710 26.6458
31.8436 717 26.7769
31.9611 683 26.1343
32.0785 720 26.8328
32.1959 706 26.5707
32.3134 678 26.0384
32.4308 683 26.1343
32.5482 644 25.3772
32.6655 691 26.2869
32.7829 646 25.4165
32.9002 642 25.3377
33.0176 623 24.96
33.1349 673 25.9422
33.2522 660 25.6905
33.3694 575 23.9792
33.4867 651 25.5147
33.6039 622 24.9399
33.7211 622 24.9399
33.8383 689 26.2488
33.9554 663 25.7488
34.0725 664 25.7682
34.1896 679 26.0576
34.3067 672 25.923
34.4237 700 26.4575
34.5407 680 26.0768
34.6577 717 26.7769
34.7746 667 25.8263
34.8915 644 25.3772
35.0084 651 25.5147
35.1252 663 25.7488
35.242 664 25.7682
35.3587 622 24.9399
35.4755 590 24.2899
35.5921 621 24.9199
35.7088 612 24.7386
35.8254 611 24.7184
35.9419 615 24.7992
36.0584 615 24.7992
36.1749 601 24.5153
36.2913 603 24.5561
36.4077 595 24.3926
36.524 567 23.8118
36.6403 550 23.4521
36.7565 542 23.2809
36.8727 511 22.6053
36.9889 456 21.3542
37.1049 421 20.5183
37.221 0 1
37.3369 0 1
37.4529 0 1
37.5687 0 1
37.6845 0 1
37.8003 0 1
37.916 0 1
38.0316 0 1
38.1472 0 1
40.5851 0 1
40.7008 0 1
40.8164 0 1
40.9322 0 1
41.048 0 1
41.1639 0 1
41.2798 0 1
41.3958 0 1
41.5118 0 1
41.6279 0 1
41.744 271 16.4621
41.8602 304 17.4356
41.9765 331 18.1934
42.0928 371 19.2614
42.2091 428 20.6882
42.3255 491 22.1585
42.4419 504 22.4499
42.5584 432 20.7846
42.675 514 22.6716
42.7915 481 21.9317
42.9081 497 22.2935
43.0248 458 21.4009
43.1415 488 22.0907
43.2582 505 22.4722
43.375 508 22.5389
43.4918 466 21.587
43.6087 515 22.6936
43.7256 456 21.3542
43.8425 441 21
43.9595 442 21.0238
44.0765 470 21.6795
44.1935 453 21.2838
44.3106 477 21.8403
44.4277 453 21.2838
44.5448 443 21.0476
44.6619 444 21.0713
44.7791 450 21.2132
44.8963 488 22.0907
45.0136 486 22.0454
45.1308 500 22.3607
45.2481 486 22.0454
45.3654 513 22.6495
45.4827 511 22.6053
45.6001 540 23.2379
45.7174 519 22.7816
45.8348 558 23.622
45.9522 545 23.3452
46.0697 520 22.8035
46.1871 488 22.0907
46.3046 494 22.2261
46.422 470 21.6795
46.5395 488 22.0907
46.657 464 21.5407
46.7745 444 21.0713
46.892 451 21.2368
47.0096 462 21.4942
47.1271 521 22.8254
47.2446 531 23.0434
47.3622 449 21.1896
47.4797 447 21.1424
47.5973 509 22.561
47.7149 482 21.9545
47.8324 449 21.1896
47.95 446 21.1187
48.0675 419 20.4695
48.1851 463 21.5174
48.3027 446 21.1187
48.4202 462 21.4942
48.5378 405 20.1246
48.6554 466 21.587
48.7729 486 22.0454
48.8904 500 22.3607
49.008 492 22.1811
49.1255 521 22.8254
49.243 494 22.2261
49.3605 487 22.0681
49.478 482 21.9545
49.5955 472 21.7256
49.713 446 21.1187
49.8304 451 21.2368
49.9479 426 20.6398
50.0653 442 21.0238
50.1827 455 21.3307
50.3001 412 20.2978
50.4175 445 21.095
50.5348 445 21.095
50.6521 446 21.1187
50.7694 469 21.6564
50.8867 380 19.4936
51.004 447 21.1424
51.1212 428 20.6882
51.2384 469 21.6564
51.3556 453 21.2838
51.4727 456 21.3542
51.5899 399 19.975
51.707 409 20.2237
51.824 419 20.4695
51.9411 426 20.6398
52.0581 470 21.6795
52.175 459 21.4243
52.2919 447 21.1424
52.4088 454 21.3073
52.5257 451 21.2368
52.6425 481 21.9317
52.7593 458 21.4009
52.876 472 21.7256
52.9927 514 22.6716
53.1094 494 22.2261
53.226 419 20.4695
53.3426 488 22.0907
53.4591 456 21.3542
53.5756 420 20.4939
53.692 414 20.347
53.8084 381 19.5192
53.9248 347 18.6279
54.0411 332 18.2209
54.1573 286 16.9115
54.2735 0 1
54.3896 0 1
54.5057 0 1
54.6217 0 1
54.7377 0 1
54.8537 0 1
54.9695 0 1
55.0853 0 1
55.2011 0 1
55.3168 0 1
55.4324 0 1
57.824 0 1
57.9396 0 1
58.0553 0 1
58.1711 0 1
58.2869 0 1
58.4028 0 1
58.5187 0 1
58.6347 0 1
58.7508 0 1
58.8669 0 1
58.983 315 17.7482
59.0992 374 19.3391
59.2155 450 21.2132
59.3318 500 22.3607
59.4482 532 23.0651
59.5646 574 23.9583
59.681 588 24.2487
59.7975 625 25
59.9141 626 25.02
60.0306 715 26.7395
60.1473 701 26.4764
60.2639 706 26.5707
60.3807 651 25.5147
60.4974 634 25.1794
60.6142 621 24.9199
60.731 630 25.0998
60.8479 616 24.8193
60.9648 642 25.3377
61.0818 640 25.2982
61.1987 687 26.2107
61.3158 691 26.2869
61.4328 689 26.2488
61.5499 675 25.9808
61.667 617 24.8395
61.7841 658 25.6515
61.9013 647 25.4362
62.0185 660 25.6905
62.1357 600 24.4949
62.253 589 24.2693
62.3702 577 24.0208
62.4875 515 22.6936
62.6049 535 23.1301
62.7222 637 25.2389
62.8396 575 23.9792
62.9569 582 24.1247
63.0743 563 23.7276
63.1918 586 24.2074
63.3092 572 23.9165
63.4267 529 23
63.5441 522 22.8473
63.6616 549 23.4307
63.7791 501 22.383
63.8966 512 22.6274
64.0142 499 22.3383
64.1317 514 22.6716
64.2492 462 21.4942
64.3668 488 22.0907
64.4843 540 23.2379
64.6019 478 21.8632
64.7195 528 22.9783
64.837 548 23.4094
64.9546 539 23.2164
65.0722 555 23.5584
65.1898 558 23.622
65.3074 560 23.6643
65.4249 555 23.5584
65.5425 515 22.6936
65.6601 544 23.3238
65.7777 539 23.2164
65.8952 504 22.4499
66.0128 458 21.4009
66.1304 451 21.2368
66.2479 506 22.4944
66.3655 539 23.2164
66.483 519 22.7816
66.6005 528 22.9783
66.718 532 23.0651
66.8355 509 22.561
66.953 487 22.0681
67.0705 533 23.0868
67.1879 543 23.3024
67.3054 543 23.3024
67.4228 510 22.5832
67.5402 474 21.7715
67.6576 510 22.5832
67.7749 427 20.664
67.8923 497 22.2935
68.0096 492 22.1811
68.1269 473 21.7486
68.2442 456 21.3542
68.3614 491 22.1585
68.4787 501 22.383
68.5958 525 22.9129
68.713 571 23.8956
68.8302 526 22.9347
68.9473 516 22.7156
69.0643 570 23.8747
69.1814 530 23.0217
69.2984 532 23.0651
69.4154 532 23.0651
69.5323 479 21.8861
69.6492 454 21.3073
69.7661 464 21.5407
69.8829 458 21.4009
69.9997 474 21.7715
70.1165 478 21.8632
70.2332 530 23.0217
70.3499 521 22.8254
70.4665 569 23.8537
70.5831 473 21.7486
70.6996 429 20.7123
70.8161 412 20.2978
70.9326 328 18.1108
71.049 325 18.0278
71.1653 289 17
71.2817 269 16.4012
71.3979 225 15
71.5141 203 14.2478
71.6303 189 13.7477
71.7464 176 13.2665
71.8624 0 1
71.9784 0 1
72.0944 0 1
72.2102 0 1
72.3261 0 1
72.4418 0 1
72.5575 0 1
72.6732 0 1
75.1054 0 1
75.2209 0 1
75.3365 0 1
75.4521 0 1
75.5678 0 1
75.6835 0 1
75.7993 0 1
75.9151 0 1
76.031 0 1
76.147 318 17.8326
76.263 367 19.1572
76.3791 345 18.5742
76.4952 381 19.5192
76.6113 385 19.6214
76.7276 404 20.0998
76.8438 357 18.8944
76.9601 434 20.8327
77.0765 392 19.799
77.1929 418 20.445
77.3093 426 20.6398
77.4258 428 20.6882
77.5423 401 20.025
77.6589 439 20.9523
77.7755 477 21.8403
77.8921 466 21.587
78.0088 441 21
78.1256 459 21.4243
78.2423 468 21.6333
78.3591 439 20.9523
78.4759 409 20.2237
78.5928 421 20.5183
78.7097 376 19.3907
78.8266 375 19.3649
78.9436 429 20.7123
79.0606 433 20.8087
79.1776 429 20.7123
79.2946 420 20.4939
79.4117 493 22.2036
79.5288 423 20.567
79.6459 470 21.6795
79.7631 452 21.2603
79.8802 418 20.445
79.9974 435 20.8567
80.1147 426 20.6398
80.2319 431 20.7605
80.3491 407 20.1742
80.4664 405 20.1246
80.5837 422 20.5426
80.701 401 20.025
80.8183 435 20.8567
80.9357 446 21.1187
81.053 442 21.0238
81.1704 410 20.2485
81.2877 467 21.6102
81.4051 484 22
81.5225 473 21.7486
81.6399 494 22.2261
81.7573 483 21.9773
81.8747 466 21.587
81.9922 443 21.0476
82.1096 480 21.9089
82.227 415 20.3715
82.3444 400 20
82.4619 405 20.1246
82.5793 391 19.7737
82.6967 414 20.347
82.8142 432 20.7846
82.9316 476 21.8174
83.049 480 21.9089
83.1664 452 21.2603
83.2838 482 21.9545
83.4012 438 20.9284
83.5186 490 22.1359
83.636 468 21.6333
83.7534 432 20.7846
83.8708 432 20.7846
83.9881 434 20.8327
84.1055 429 20.7123
84.2228 437 20.9045
84.3401 448 21.166
84.4575 444 21.0713
84.5747 484 22
84.692 434 20.8327
84.8093 515 22.6936
84.9265 487 22.0681
85.0437 463 21.5174
85.1609 463 21.5174
85.2781 484 22
85.3952 485 22.0227
85.5123 481 21.9317
85.6294 443 21.0476
85.7465 468 21.6333
85.8636 405 20.1246
85.9806 407 20.1742
86.0976 449 21.1896
86.2145 412 20.2978
86.3315 476 21.8174
86.4484 453 21.2838
86.5652 489 22.1133
86.682 505 22.4722
86.7988 497 22.2935
86.9156 481 21.9317
87.0323 430 20.7364
87.149 478 21.8632
87.2657 470 21.6795
87.3823 422 20.5426
87.4988 404 20.0998
87.6154 388 19.6977
87.7318 413 20.3224
87.8483 387 19.6723
87.9647 344 18.5472
88.081 392 19.799
88.1973 325 18.0278
88.3136 313 17.6918
88.4298 339 18.412
88.546 335 18.303
88.6621 312 17.6635
88.7781 267 16.3401
88.8942 0 1
89.0101 0 1
89.126 0 1
89.2419 0 1
89.3577 0 1
89.4734 0 1
89.5891 0 1
89.7047 0 1
89.8203 0 1
89.9358 0 1
92.3269 0 1
92.4424 0 1
92.558 0 1
92.6736 0 1
92.7893 0 1
92.905 0 1
93.0208 0 1
93.1366 0 1
93.2525 0 1
93.3685 0 1
93.4845 0 1
93.6005 374 19.3391
93.7167 408 20.199
93.8328 384 19.5959
93.949 438 20.9284
94.0653 467 21.6102
94.1816 490 22.1359
94.2979 494 22.2261
94.4143 486 22.0454
94.5307 456 21.3542
94.6472 496 22.2711
94.7637 496 22.2711
94.8803 513 22.6495
94.9969 393 19.8242
95.1135 420 20.4939
95.2302 442 21.0238
95.3469 470 21.6795
95.4637 456 21.3542
95.5805 479 21.8861
95.6973 469 21.6564
95.8142 455 21.3307
95.9311 531 23.0434
96.048 538 23.1948
96.1649 537 23.1733
96.2819 520 22.8035
96.3989 498 22.3159
96.516 468 21.6333
96.633 443 21.0476
96.7501 457 21.3776
96.8673 454 21.3073
96.9844 485 22.0227
97.1016 446 21.1187
97.2188 477 21.8403
97.336 485 22.0227
97.4532 482 21.9545
97.5704 486 22.0454
97.6877 519 22.7816
97.805 502 22.4054
97.9223 538 23.1948
98.0396 528 22.9783
98.1569 561 23.6854
98.2743 573 23.9374
98.3916 532 23.0651
98.509 491 22.1585
98.6264 467 21.6102
98.7438 436 20.8806
98.8612 456 21.3542
98.9786 530 23.0217
99.096 514 22.6716
99.2134 553 23.516
99.3308 519 22.7816
99.4482 547 23.388
99.5656 599 24.4745
99.6831 530 23.0217
99.8005 525 22.9129
99.9179 511 22.6053
100.035 447 21.1424
100.153 467 21.6102
100.27 493 22.2036
100.388 480 21.9089
100.505 535 23.1301
100.622 503 22.4277
100.74 520 22.8035
100.857 550 23.4521
100.975 488 22.0907
101.092 517 22.7376
101.209 541 23.2594
101.327 581 24.1039
101.444 534 23.1084
101.561 564 23.7487
101.679 555 23.5584
101.796 568 23.8328
101.913 544 23.3238
102.03 515 22.6936
102.148 482 21.9545
102.265 483 21.9773
102.382 508 22.5389
102.499 531 23.0434
102.616 553 23.516
102.733 556 23.5797
102.851 551 23.4734
102.968 582 24.1247
103.085 621 24.9199
103.202 586 24.2074
103.319 542 23.2809
103.436 553 23.516
103.552 511 22.6053
103.669 511 22.6053
103.786 501 22.383
103.903 519 22.7816
104.02 521 22.8254
104.137 481 21.9317
104.253 549 23.4307
104.37 541 23.2594
104.487 564 23.7487
104.603 551 23.4734
104.72 554 23.5372
104.836 571 23.8956
104.953 534 23.1084
105.069 562 23.7065
105.186 512 22.6274
105.302 494 22.2261
105.418 433 20.8087
105.535 440 20.9762
105.651 389 19.7231
105.767 331 18.1934
105.883 332 18.2209
105.999 313 17.6918
106.115 0 1
106.231 0 1
106.347 0 1
106.463 0 1
106.579 0 1
106.694 0 1
106.81 0 1
106.926 0 1
107.041 0 1
107.157 0 1
109.576 0 1
109.692 0 1
109.807 0 1
109.923 0 1
110.039 0 1
110.155 0 1
110.27 0 1
110.386 0 1
110.502 0 1
110.618 256 16
110.735 308 17.5499
110.851 323 17.9722
110.967 368 19.1833
111.083 432 20.7846
111.199 479 21.8861
111.316 475 21.7945
111.432 489 22.1133
111.549 559 23.6432
111.665 500 22.3607
111.782 589 24.2693
111.898 528 22.9783
112.015 537 23.1733
112.132 467 21.6102
112.248 463 21.5174
112.365 482 21.9545
112.482 483 21.9773
112.599 506 22.4944
112.716 478 21.8632
112.832 544 23.3238
112.949 538 23.1948
113.066 497 22.2935
113.183 496 22.2711
113.3 488 22.0907
113.417 502 22.4054
113.534 508 22.5389
113.652 527 22.9565
113.769 565 23.7697
113.886 554 23.5372
114.003 490 22.1359
114.12 486 22.0454
114.238 453 21.2838
114.355 472 21.7256
114.472 458 21.4009
114.589 435 20.8567
114.707 488 22.0907
114.824 514 22.6716
114.942 518 22.7596
115.059 488 22.0907
115.176 492 22.1811
115.294 501 22.383
115.411 518 22.7596
115.529 497 22.2935
115.646 434 20.8327
115.764 483 21.9773
115.881 447 21.1424
115.999 431 20.7605
116.116 489 22.1133
116.234 498 22.3159
116.351 459 21.4243
116.469 466 21.587
116.586 454 21.3073
116.704 452 21.2603
116.821 466 21.587
116.939 447 21.1424
117.056 500 22.3607
117.174 457 21.3776
117.291 502 22.4054
117.409 490 22.1359
117.526 500 22.3607
117.644 455 21.3307
117.761 444 21.0713
117.879 414 20.347
117.996 421 20.5183
118.114 455 21.3307
118.231 437 20.9045
118.349 470 21.6795
118.466 516 22.7156
118.584 486 22.0454
118.701 495 22.2486
118.819 492 22.1811
118.936 438 20.9284
119.053 468 21.6333
119.171 473 21.7486
119.288 419 20.4695
119.405 395 19.8746
119.523 426 20.6398
119.64 418 20.445
119.757 444 21.0713
119.875 431 20.7605
119.992 440 20.9762
120.109 426 20.6398
120.226 398 19.9499
120.343 418 20.445
120.46 430 20.7364
120.578 431 20.7605
120.695 435 20.8567
120.812 482 21.9545
120.929 481 21.9317
121.046 461 21.4709
121.163 408 20.199
121.279 422 20.5426
121.396 410 20.2485
121.513 391 19.7737
121.63 387 19.6723
121.747 385 19.6214
121.863 364 19.0788
121.98 384 19.5959
122.097 364 19.0788
122.213 349 18.6815
122.33 406 20.1494
122.446 378 19.4422
122.563 347 18.6279
122.679 296 17.2047
122.795 309 17.5784
122.912 270 16.4317
123.028 259 16.0935
123.144 247 15.7162
123.26 228 15.0997
123.377 0 1
123.493 0 1
123.609 0 1
123.725 0 1
123.84 0 1
123.956 0 1
124.072 0 1
124.188 0 1
124.303 0 1
124.419 0 1
126.852 0 1
126.968 0 1
127.083 0 1
127.199 0 1
127.315 0 1
127.431 0 1
127.547 0 1
127.663 0 1
127.779 0 1
127.895 0 1
128.011 0 1
128.127 0 1
128.243 0 1
128.359 439 20.9523
128.476 484 22
128.592 450 21.2132
128.708 495 22.2486
128.825 465 21.5639
128.941 501 22.383
129.058 516 22.7156
129.174 526 22.9347
129.291 530 23.0217
129.408 535 23.1301
129.524 527 22.9565
129.641 484 22
129.758 512 22.6274
129.875 565 23.7697
129.992 548 23.4094
130.108 505 22.4722
130.225 550 23.4521
130.342 572 23.9165
130.459 522 22.8473
130.576 536 23.1517
130.693 549 23.4307
130.81 510 22.5832
130.928 575 23.9792
131.045 624 24.98
131.162 619 24.8797
131.279 713 26.7021
131.396 681 26.096
131.513 697 26.4008
131.631 780 27.9285
131.748 686 26.1916
131.865 718 26.7955
131.983 709 26.6271
132.1 765 27.6586
132.217 803 28.3373
132.335 843 29.0345
132.452 882 29.6985
132.57 907 30.1164
132.687 963 31.0322
132.804 933 30.545
132.922 948 30.7896
133.039 1007 31.7333
133.157 1064 32.619
133.274 991 31.4802
133.392 959 30.9677
133.509 1030 32.0936
133.627 986 31.4006
133.744 993 31.5119
133.862 986 31.4006
133.979 895 29.9166
134.097 893 29.8831
134.214 851 29.1719
134.332 897 29.95
134.449 915 30.249
134.567 962 31.0161
134.684 989 31.4484
134.802 1095 33.0908
134.919 1012 31.8119
135.037 926 30.4302
135.154 950 30.8221
135.272 911 30.1828
135.389 894 29.8998
135.507 846 29.0861
135.624 892 29.8664
135.742 862 29.3598
135.859 886 29.7658
135.977 916 30.2655
136.094 975 31.225
136.211 978 31.273
136.329 920 30.3315
136.446 980 31.305
136.564 940 30.6594
136.681 975 31.225
136.798 969 31.1288
136.915 957 30.9354
137.033 906 30.0998
137.15 894 29.8998
137.267 981 31.3209
137.384 856 29.2575
137.502 861 29.3428
137.619 803 28.3373
137.736 768 27.7128
137.853 771 27.7669
137.97 806 28.3901
138.087 788 28.0713
138.204 888 29.7993
138.321 945 30.7409
138.438 985 31.3847
138.555 952 30.8545
138.672 991 31.4802
138.788 936 30.5941
138.905 923 30.3809
139.022 817 28.5832
139.139 849 29.1376
139.255 740 27.2029
139.372 773 27.8029
139.488 750 27.3861
139.605 758 27.5318
139.721 757 27.5136
139.838 708 26.6083
139.954 688 26.2298
140.071 586 24.2074
140.187 599 24.4745
140.303 574 23.9583
140.419 549 23.4307
140.535 533 23.0868
140.652 498 22.3159
140.768 0 1
140.884 0 1
141 0 1
141.115 0 1
141.231 0 1
141.347 0 1
141.463 0 1
141.578 0 1
141.694 0 1
144.104 0 1
144.219 0 1
144.335 0 1
144.45 0 1
144.566 0 1
144.682 0 1
144.798 0 1
144.914 0 1
145.03 0 1
145.146 1041 32.2645
145.262 1230 35.0714
145.378 1261 35.5106
145.494 1322 36.3593
145.61 1435 37.8814
145.726 1498 38.704
145.842 1542 39.2683
145.959 1584 39.7995
146.075 1665 40.8044
146.192 1753 41.8688
146.308 1910 43.7035
146.425 2093 45.7493
146.541 2180 46.6905
146.658 2395 48.9387
146.774 2662 51.5946
146.891 2956 54.3691
147.008 3177 56.3649
147.125 3417 58.4551
147.241 3589 59.9083
147.358 3967 62.9841
147.475 4025 63.4429
147.592 3655 60.4566
147.709 2550 50.4975
147.826 2230 47.2229
147.943 3365 58.0086
148.06 4197 64.7843
148.177 4382 66.1967
148.294 4739 68.8404
148.411 4964 70.4557
148.528 5073 71.225
148.645 5274 72.6223
148.762 5601 74.8398
148.88 5545 74.4648
148.997 5674 75.326
149.114 5444 73.7835
149.231 5535 74.3976
149.349 5603 74.8532
149.466 5602 74.8465
149.583 5660 75.233
149.701 5619 74.96
149.818 5358 73.1984
149.935 5299 72.7942
150.053 5057 71.1126
150.17 4836 69.5414
150.287 4748 68.9057
150.405 4459 66.7757
150.522 4306 65.6201
150.64 4279 65.4141
150.757 4062 63.7338
150.875 4011 63.3325
150.992 3837 61.9435
151.11 3790 61.563
151.227 3362 57.9828
151.344 2355 48.5283
151.462 1452 38.1051
151.579 1718 41.4488
151.697 2316 48.1248
151.814 2477 49.7695
151.932 2429 49.2849
152.049 2364 48.621
152.167 2241 47.3392
152.284 2001 44.7325
152.402 1806 42.4971
152.519 1673 40.9023
152.636 1660 40.7431
152.754 1604 40.05
152.871 1559 39.4842
152.989 1496 38.6782
153.106 1494 38.6523
153.223 1545 39.3065
153.341 1577 39.7115
153.458 1549 39.3573
153.575 1382 37.1753
153.693 1393 37.3229
153.81 1339 36.5923
153.927 1334 36.524
154.044 1366 36.9594
154.162 1398 37.3898
154.279 1299 36.0416
154.396 1457 38.1707
154.513 1416 37.6298
154.63 1456 38.1576
154.747 1430 37.8153
154.864 1354 36.7967
154.981 1254 35.4119
155.098 1020 31.9374
155.215 962 31.0161
155.332 1089 33
155.449 1325 36.4005
155.566 1403 37.4566
155.683 1381 37.1618
155.8 1351 36.756
155.917 1436 37.8946
156.033 1329 36.4555
156.15 0 1
156.267 0 1
156.383 0 1
156.5 0 1
156.617 0 1
156.733 0 1
156.85 0 1
156.966 0 1
157.082 0 1
157.199 0 1
157.315 0 1
157.431 0 1
157.547 0 1
157.664 0 1
157.78 0 1
157.896 0 1
158.012 0 1
158.128 0 1
158.244 0 1
158.359 0 1
158.475 0 1
158.591 0 1
158.706 0 1
