
6.15755 0 1
6.2731 0 1
6.3887 0 1
6.50437 0 1
6.62009 0 1
6.73587 0 1
6.8517 0 1
6.96759 0 1
7.08353 0 1
7.19952 0 1
7.31557 0 1
7.43166 0 1
7.54781 0 1
7.664 0 1
7.78024 0 1
7.89653 0 1
8.01286 0 1
8.12924 0 1
8.24567 0 1
8.36213 0 1
8.47864 0 1
8.59519 0 1
8.71178 0 1
8.82841 0 1
8.94508 0 1
9.06179 0 1
9.17853 0 1
9.29531 0 1
9.41212 0 1
9.52897 0 1
9.64584 0 1
9.76276 0 1
9.8797 0 1
9.99667 0 1
10.1137 0 1
10.2307 0 1
10.3478 0 1
10.4648 0 1
10.5819 0 1
10.6991 0 1
10.8162 0 1
10.9334 0 1
11.0506 0 1
11.1678 0 1
11.285 0 1
11.4023 0 1
11.5196 0 1
11.6369 0 1
11.7542 0 1
11.8715 0 1
11.9888 0 1
12.1062 0 1
12.2235 0 1
12.3409 0 1
12.4582 0 1
12.5756 0 1
12.693 0 1
12.8104 0 1
12.9278 0 1
13.0452 0 1
13.1626 0 1
13.28 0 1
13.3974 0 1
13.5149 0 1
13.6323 0 1
13.7497 0 1
13.8671 0 1
13.9845 0 1
14.1019 0 1
14.2193 0 1
14.3367 0 1
14.4541 0 1
14.5714 0 1
14.6888 0 1
14.8062 0 1
14.9235 0 1
15.0408 781 27.9464
15.1581 878 29.6311
15.2755 892 29.8664
15.3927 857 29.2746
15.51 922 30.3645
15.6273 906 30.0998
15.7445 860 29.3258
15.8617 915 30.249
15.9789 864 29.3939
16.0961 836 28.9137
16.2132 804 28.3549
16.3304 835 28.8964
16.4475 804 28.3549
16.5646 768 27.7128
16.6816 791 28.1247
16.7986 832 28.8444
16.9156 787 28.0535
17.0326 778 27.8927
17.1496 784 28
17.2665 765 27.6586
17.3833 810 28.4605
17.5002 824 28.7054
17.617 822 28.6705
17.7338 773 27.8029
17.8505 797 28.2312
17.9672 792 28.1425
18.0839 722 26.8701
18.2005 708 26.6083
18.3171 727 26.9629
18.4337 724 26.9072
18.5502 764 27.6405
18.6666 753 27.4408
18.7831 754 27.4591
18.8994 714 26.7208
19.0158 773 27.8029
19.1321 756 27.4955
19.2483 704 26.533
19.3645 694 26.3439
19.4806 604 24.5764
19.5967 587 24.2281
19.7128 501 22.383
19.8288 501 22.383
19.9447 415 20.3715
20.0606 0 1
20.1764 0 1
20.2922 0 1
20.4079 0 1
20.5236 0 1
20.6392 0 1
20.7548 0 1
20.8702 0 1
23.3078 0 1
23.4233 0 1
23.539 0 1
23.6547 0 1
23.7704 0 1
23.8862 0 1
24.0021 0 1
24.118 0 1
24.234 0 1
24.35 0 1
24.4661 299 17.2916
24.5822 333 18.2483
24.6984 424 20.5913
24.8146 524 22.891
24.9309 562 23.7065
25.0472 656 25.6125
25.1636 720 26.8328
25.28 775 27.8388
25.3965 799 28.2666
25.513 837 28.931
25.6296 798 28.2489
25.7462 899 29.9833
25.8628 827 28.7576
25.9795 844 29.0517
26.0962 834 28.8791
26.213 773 27.8029
26.3298 786 28.0357
26.4466 756 27.4955
26.5635 744 27.2764
26.6804 688 26.2298
26.7973 679 26.0576
26.9143 595 24.3926
27.0313 654 25.5734
27.1483 672 25.923
27.2653 752 27.4226
27.3824 744 27.2764
27.4996 727 26.9629
27.6167 755 27.4773
27.7339 749 27.3679
27.8511 739 27.1846
27.9683 759 27.55
28.0855 733 27.074
28.2028 677 26.0192
28.3201 675 25.9808
28.4374 646 25.4165
28.5547 672 25.923
28.6721 695 26.3629
28.7894 704 26.533
28.9068 795 28.1957
29.0242 698 26.4197
29.1416 777 27.8747
29.259 733 27.074
29.3764 711 26.6646
29.4939 688 26.2298
29.6113 711 26.6646
29.7288 708 26.6083
29.8463 687 26.2107
29.9638 699 26.4386
30.0812 640 25.2982
30.1987 619 24.8797
30.3162 576 24
30.4337 609 24.6779
30.5512 661 25.7099
30.6687 670 25.8844
30.7862 664 25.7682
30.9037 730 27.0185
31.0212 727 26.9629
31.1387 714 26.7208
31.2562 791 28.1247
31.3737 755 27.4773
31.4912 760 27.5681
31.6087 693 26.3249
31.7262 686 26.1916
31.8436 630 25.0998
31.9611 653 25.5539
32.0785 721 26.8514
32.1959 735 27.1109
32.3134 728 26.9815
32.4308 706 26.5707
32.5482 693 26.3249
32.6655 688 26.2298
32.7829 670 25.8844
32.9002 623 24.96
33.0176 640 25.2982
33.1349 622 24.9399
33.2522 594 24.3721
33.3694 662 25.7294
33.4867 636 25.219
33.6039 671 25.9037
33.7211 594 24.3721
33.8383 594 24.3721
33.9554 548 23.4094
34.0725 593 24.3516
34.1896 617 24.8395
34.3067 660 25.6905
34.4237 704 26.533
34.5407 662 25.7294
34.6577 668 25.8457
34.7746 685 26.1725
34.8915 684 26.1534
35.0084 667 25.8263
35.1252 688 26.2298
35.242 619 24.8797
35.3587 576 24
35.4755 577 24.0208
35.5921 575 23.9792
35.7088 611 24.7184
35.8254 610 24.6982
35.9419 682 26.1151
36.0584 615 24.7992
36.1749 623 24.96
36.2913 597 24.4336
36.4077 582 24.1247
36.524 561 23.6854
36.6403 531 23.0434
36.7565 501 22.383
36.8727 492 22.1811
36.9889 438 20.9284
37.1049 407 20.1742
37.221 0 1
37.3369 0 1
37.4529 0 1
37.5687 0 1
37.6845 0 1
37.8003 0 1
37.916 0 1
38.0316 0 1
38.1472 0 1
40.5851 0 1
40.7008 0 1
40.8164 0 1
40.9322 0 1
41.048 0 1
41.1639 0 1
41.2798 0 1
41.3958 0 1
41.5118 0 1
41.6279 0 1
41.744 276 16.6132
41.8602 311 17.6352
41.9765 380 19.4936
42.0928 421 20.5183
42.2091 390 19.7484
42.3255 475 21.7945
42.4419 416 20.3961
42.5584 416 20.3961
42.675 431 20.7605
42.7915 464 21.5407
42.9081 469 21.6564
43.0248 476 21.8174
43.1415 501 22.383
43.2582 489 22.1133
43.375 491 22.1585
43.4918 503 22.4277
43.6087 487 22.0681
43.7256 480 21.9089
43.8425 506 22.4944
43.9595 485 22.0227
44.0765 487 22.0681
44.1935 428 20.6882
44.3106 420 20.4939
44.4277 483 21.9773
44.5448 503 22.4277
44.6619 470 21.6795
44.7791 484 22
44.8963 472 21.7256
45.0136 513 22.6495
45.1308 493 22.2036
45.2481 503 22.4277
45.3654 518 22.7596
45.4827 496 22.2711
45.6001 491 22.1585
45.7174 507 22.5167
45.8348 459 21.4243
45.9522 518 22.7596
46.0697 476 21.8174
46.1871 415 20.3715
46.3046 435 20.8567
46.422 424 20.5913
46.5395 402 20.0499
46.657 451 21.2368
46.7745 454 21.3073
46.892 529 23
47.0096 501 22.383
47.1271 504 22.4499
47.2446 505 22.4722
47.3622 483 21.9773
47.4797 440 20.9762
47.5973 466 21.587
47.7149 448 21.166
47.8324 427 20.664
47.95 456 21.3542
48.0675 469 21.6564
48.1851 500 22.3607
48.3027 491 22.1585
48.4202 500 22.3607
48.5378 469 21.6564
48.6554 475 21.7945
48.7729 474 21.7715
48.8904 509 22.561
49.008 485 22.0227
49.1255 491 22.1585
49.243 457 21.3776
49.3605 476 21.8174
49.478 481 21.9317
49.5955 457 21.3776
49.713 416 20.3961
49.8304 383 19.5704
49.9479 413 20.3224
50.0653 404 20.0998
50.1827 424 20.5913
50.3001 442 21.0238
50.4175 451 21.2368
50.5348 437 20.9045
50.6521 486 22.0454
50.7694 510 22.5832
50.8867 434 20.8327
51.004 451 21.2368
51.1212 386 19.6469
51.2384 428 20.6882
51.3556 434 20.8327
51.4727 435 20.8567
51.5899 474 21.7715
51.707 434 20.8327
51.824 476 21.8174
51.9411 486 22.0454
52.0581 482 21.9545
52.175 435 20.8567
52.2919 452 21.2603
52.4088 476 21.8174
52.5257 444 21.0713
52.6425 495 22.2486
52.7593 495 22.2486
52.876 481 21.9317
52.9927 409 20.2237
53.1094 429 20.7123
53.226 411 20.2731
53.3426 387 19.6723
53.4591 377 19.4165
53.5756 410 20.2485
53.692 373 19.3132
53.8084 370 19.2354
53.9248 367 19.1572
54.0411 356 18.868
54.1573 319 17.8606
54.2735 0 1
54.3896 0 1
54.5057 0 1
54.6217 0 1
54.7377 0 1
54.8537 0 1
54.9695 0 1
55.0853 0 1
55.2011 0 1
55.3168 0 1
55.4324 0 1
57.824 0 1
57.9396 0 1
58.0553 0 1
58.1711 0 1
58.2869 0 1
58.4028 0 1
58.5187 0 1
58.6347 0 1
58.7508 0 1
58.8669 0 1
58.983 556 23.5797
59.0992 756 27.4955
59.2155 897 29.95
59.3318 1066 32.6497
59.4482 1172 34.2345
59.5646 1187 34.4529
59.681 1241 35.2278
59.7975 1227 35.0286
59.9141 1251 35.3695
60.0306 1229 35.0571
60.1473 1358 36.8511
60.2639 1359 36.8646
60.3807 1375 37.081
60.4974 1434 37.8682
60.6142 1356 36.8239
60.731 1340 36.606
60.8479 1345 36.6742
60.9648 1363 36.9188
61.0818 1295 35.9861
61.1987 1239 35.1994
61.3158 1214 34.8425
61.4328 1226 35.0143
61.5499 1119 33.4515
61.667 1137 33.7194
61.7841 1044 32.311
61.9013 989 31.4484
62.0185 829 28.7924
62.1357 779 27.9106
62.253 796 28.2135
62.3702 787 28.0535
62.4875 816 28.5657
62.6049 849 29.1376
62.7222 945 30.7409
62.8396 944 30.7246
62.9569 843 29.0345
63.0743 840 28.9828
63.1918 837 28.931
63.3092 723 26.8887
63.4267 699 26.4386
63.5441 650 25.4951
63.6616 648 25.4558
63.7791 678 26.0384
63.8966 572 23.9165
64.0142 622 24.9399
64.1317 570 23.8747
64.2492 597 24.4336
64.3668 578 24.0416
64.4843 574 23.9583
64.6019 564 23.7487
64.7195 587 24.2281
64.837 550 23.4521
64.9546 571 23.8956
65.0722 568 23.8328
65.1898 536 23.1517
65.3074 566 23.7908
65.4249 503 22.4277
65.5425 522 22.8473
65.6601 454 21.3073
65.7777 532 23.0651
65.8952 523 22.8692
66.0128 579 24.0624
66.1304 577 24.0208
66.2479 572 23.9165
66.3655 567 23.8118
66.483 624 24.98
66.6005 629 25.0799
66.718 549 23.4307
66.8355 529 23
66.953 539 23.2164
67.0705 568 23.8328
67.1879 585 24.1868
67.3054 587 24.2281
67.4228 599 24.4745
67.5402 586 24.2074
67.6576 636 25.219
67.7749 624 24.98
67.8923 621 24.9199
68.0096 630 25.0998
68.1269 598 24.454
68.2442 643 25.3574
68.3614 618 24.8596
68.4787 638 25.2587
68.5958 609 24.6779
68.713 673 25.9422
68.8302 694 26.3439
68.9473 747 27.3313
69.0643 696 26.3818
69.1814 754 27.4591
69.2984 808 28.4253
69.4154 689 26.2488
69.5323 729 27
69.6492 802 28.3196
69.7661 786 28.0357
69.8829 795 28.1957
69.9997 787 28.0535
70.1165 721 26.8514
70.2332 765 27.6586
70.3499 691 26.2869
70.4665 651 25.5147
70.5831 562 23.7065
70.6996 514 22.6716
70.8161 481 21.9317
70.9326 456 21.3542
71.049 433 20.8087
71.1653 413 20.3224
71.2817 429 20.7123
71.3979 365 19.105
71.5141 338 18.3848
71.6303 313 17.6918
71.7464 261 16.1555
71.8624 0 1
71.9784 0 1
72.0944 0 1
72.2102 0 1
72.3261 0 1
72.4418 0 1
72.5575 0 1
72.6732 0 1
75.1054 0 1
75.2209 0 1
75.3365 0 1
75.4521 0 1
75.5678 0 1
75.6835 0 1
75.7993 0 1
75.9151 0 1
76.031 0 1
76.147 336 18.3303
76.263 384 19.5959
76.3791 438 20.9284
76.4952 528 22.9783
76.6113 444 21.0713
76.7276 517 22.7376
76.8438 503 22.4277
76.9601 496 22.2711
77.0765 445 21.095
77.1929 451 21.2368
77.3093 497 22.2935
77.4258 461 21.4709
77.5423 486 22.0454
77.6589 475 21.7945
77.7755 467 21.6102
77.8921 469 21.6564
78.0088 485 22.0227
78.1256 463 21.5174
78.2423 451 21.2368
78.3591 406 20.1494
78.4759 445 21.095
78.5928 441 21
78.7097 453 21.2838
78.8266 426 20.6398
78.9436 508 22.5389
79.0606 464 21.5407
79.1776 516 22.7156
79.2946 492 22.1811
79.4117 529 23
79.5288 493 22.2036
79.6459 489 22.1133
79.7631 436 20.8806
79.8802 496 22.2711
79.9974 483 21.9773
80.1147 466 21.587
80.2319 562 23.7065
80.3491 536 23.1517
80.4664 508 22.5389
80.5837 521 22.8254
80.701 537 23.1733
80.8183 507 22.5167
80.9357 480 21.9089
81.053 471 21.7025
81.1704 488 22.0907
81.2877 462 21.4942
81.4051 506 22.4944
81.5225 488 22.0907
81.6399 526 22.9347
81.7573 524 22.891
81.8747 442 21.0238
81.9922 469 21.6564
82.1096 461 21.4709
82.227 482 21.9545
82.3444 429 20.7123
82.4619 472 21.7256
82.5793 450 21.2132
82.6967 467 21.6102
82.8142 486 22.0454
82.9316 484 22
83.049 493 22.2036
83.1664 501 22.383
83.2838 472 21.7256
83.4012 450 21.2132
83.5186 459 21.4243
83.636 503 22.4277
83.7534 522 22.8473
83.8708 553 23.516
83.9881 541 23.2594
84.1055 521 22.8254
84.2228 569 23.8537
84.3401 498 22.3159
84.4575 506 22.4944
84.5747 487 22.0681
84.692 474 21.7715
84.8093 469 21.6564
84.9265 520 22.8035
85.0437 512 22.6274
85.1609 504 22.4499
85.2781 499 22.3383
85.3952 470 21.6795
85.5123 504 22.4499
85.6294 444 21.0713
85.7465 474 21.7715
85.8636 489 22.1133
85.9806 441 21
86.0976 449 21.1896
86.2145 457 21.3776
86.3315 541 23.2594
86.4484 500 22.3607
86.5652 498 22.3159
86.682 562 23.7065
86.7988 483 21.9773
86.9156 519 22.7816
87.0323 502 22.4054
87.149 502 22.4054
87.2657 486 22.0454
87.3823 575 23.9792
87.4988 530 23.0217
87.6154 469 21.6564
87.7318 513 22.6495
87.8483 449 21.1896
87.9647 407 20.1742
88.081 409 20.2237
88.1973 329 18.1384
88.3136 327 18.0831
88.4298 309 17.5784
88.546 273 16.5227
88.6621 295 17.1756
88.7781 290 17.0294
88.8942 0 1
89.0101 0 1
89.126 0 1
89.2419 0 1
89.3577 0 1
89.4734 0 1
89.5891 0 1
89.7047 0 1
89.8203 0 1
89.9358 0 1
92.3269 0 1
92.4424 0 1
92.558 0 1
92.6736 0 1
92.7893 0 1
92.905 0 1
93.0208 0 1
93.1366 0 1
93.2525 0 1
93.3685 0 1
93.4845 0 1
93.6005 405 20.1246
93.7167 417 20.4206
93.8328 460 21.4476
93.949 472 21.7256
94.0653 502 22.4054
94.1816 515 22.6936
94.2979 502 22.4054
94.4143 525 22.9129
94.5307 496 22.2711
94.6472 512 22.6274
94.7637 471 21.7025
94.8803 475 21.7945
94.9969 434 20.8327
95.1135 449 21.1896
95.2302 497 22.2935
95.3469 510 22.5832
95.4637 470 21.6795
95.5805 513 22.6495
95.6973 538 23.1948
95.8142 498 22.3159
95.9311 495 22.2486
96.048 477 21.8403
96.1649 485 22.0227
96.2819 513 22.6495
96.3989 477 21.8403
96.516 523 22.8692
96.633 485 22.0227
96.7501 532 23.0651
96.8673 519 22.7816
96.9844 532 23.0651
97.1016 523 22.8692
97.2188 476 21.8174
97.336 523 22.8692
97.4532 485 22.0227
97.5704 534 23.1084
97.6877 465 21.5639
97.805 501 22.383
97.9223 497 22.2935
98.0396 500 22.3607
98.1569 493 22.2036
98.2743 494 22.2261
98.3916 512 22.6274
98.509 497 22.2935
98.6264 448 21.166
98.7438 468 21.6333
98.8612 482 21.9545
98.9786 541 23.2594
99.096 508 22.5389
99.2134 508 22.5389
99.3308 524 22.891
99.4482 449 21.1896
99.5656 544 23.3238
99.6831 572 23.9165
99.8005 505 22.4722
99.9179 564 23.7487
100.035 537 23.1733
100.153 538 23.1948
100.27 566 23.7908
100.388 585 24.1868
100.505 553 23.516
100.622 547 23.388
100.74 530 23.0217
100.857 545 23.3452
100.975 475 21.7945
101.092 542 23.2809
101.209 527 22.9565
101.327 521 22.8254
101.444 547 23.388
101.561 525 22.9129
101.679 490 22.1359
101.796 508 22.5389
101.913 554 23.5372
102.03 524 22.891
102.148 483 21.9773
102.265 517 22.7376
102.382 510 22.5832
102.499 513 22.6495
102.616 545 23.3452
102.733 578 24.0416
102.851 539 23.2164
102.968 550 23.4521
103.085 555 23.5584
103.202 534 23.1084
103.319 542 23.2809
103.436 556 23.5797
103.552 611 24.7184
103.669 543 23.3024
103.786 598 24.454
103.903 584 24.1661
104.02 590 24.2899
104.137 557 23.6008
104.253 545 23.3452
104.37 507 22.5167
104.487 562 23.7065
104.603 563 23.7276
104.72 525 22.9129
104.836 500 22.3607
104.953 541 23.2594
105.069 507 22.5167
105.186 457 21.3776
105.302 489 22.1133
105.418 458 21.4009
105.535 366 19.1311
105.651 369 19.2094
105.767 340 18.4391
105.883 276 16.6132
105.999 273 16.5227
106.115 0 1
106.231 0 1
106.347 0 1
106.463 0 1
106.579 0 1
106.694 0 1
106.81 0 1
106.926 0 1
107.041 0 1
107.157 0 1
109.576 0 1
109.692 0 1
109.807 0 1
109.923 0 1
110.039 0 1
110.155 0 1
110.27 0 1
110.386 0 1
110.502 0 1
110.618 275 16.5831
110.735 287 16.9411
110.851 362 19.0263
110.967 348 18.6548
111.083 447 21.1424
111.199 436 20.8806
111.316 488 22.0907
111.432 523 22.8692
111.549 585 24.1868
111.665 550 23.4521
111.782 519 22.7816
111.898 518 22.7596
112.015 509 22.561
112.132 531 23.0434
112.248 456 21.3542
112.365 547 23.388
112.482 500 22.3607
112.599 510 22.5832
112.716 516 22.7156
112.832 497 22.2935
112.949 465 21.5639
113.066 471 21.7025
113.183 474 21.7715
113.3 504 22.4499
113.417 495 22.2486
113.534 501 22.383
113.652 477 21.8403
113.769 518 22.7596
113.886 505 22.4722
114.003 464 21.5407
114.12 506 22.4944
114.238 480 21.9089
114.355 432 20.7846
114.472 439 20.9523
114.589 462 21.4942
114.707 452 21.2603
114.824 457 21.3776
114.942 461 21.4709
115.059 478 21.8632
115.176 482 21.9545
115.294 497 22.2935
115.411 513 22.6495
115.529 461 21.4709
115.646 462 21.4942
115.764 433 20.8087
115.881 456 21.3542
115.999 463 21.5174
116.116 474 21.7715
116.234 471 21.7025
116.351 459 21.4243
116.469 459 21.4243
116.586 474 21.7715
116.704 460 21.4476
116.821 501 22.383
116.939 437 20.9045
117.056 450 21.2132
117.174 429 20.7123
117.291 442 21.0238
117.409 468 21.6333
117.526 435 20.8567
117.644 429 20.7123
117.761 423 20.567
117.879 426 20.6398
117.996 399 19.975
118.114 382 19.5448
118.231 390 19.7484
118.349 423 20.567
118.466 440 20.9762
118.584 453 21.2838
118.701 479 21.8861
118.819 448 21.166
118.936 435 20.8567
119.053 435 20.8567
119.171 460 21.4476
119.288 471 21.7025
119.405 407 20.1742
119.523 464 21.5407
119.64 452 21.2603
119.757 425 20.6155
119.875 455 21.3307
119.992 412 20.2978
120.109 436 20.8806
120.226 444 21.0713
120.343 403 20.0749
120.46 414 20.347
120.578 408 20.199
120.695 416 20.3961
120.812 452 21.2603
120.929 413 20.3224
121.046 424 20.5913
121.163 464 21.5407
121.279 359 18.9473
121.396 397 19.9249
121.513 365 19.105
121.63 393 19.8242
121.747 368 19.1833
121.863 372 19.2873
121.98 402 20.0499
122.097 429 20.7123
122.213 343 18.5203
122.33 352 18.7617
122.446 344 18.5472
122.563 316 17.7764
122.679 317 17.8045
122.795 323 17.9722
122.912 292 17.088
123.028 258 16.0624
123.144 259 16.0935
123.26 222 14.8997
123.377 0 1
123.493 0 1
123.609 0 1
123.725 0 1
123.84 0 1
123.956 0 1
124.072 0 1
124.188 0 1
124.303 0 1
124.419 0 1
126.852 0 1
126.968 0 1
127.083 0 1
127.199 0 1
127.315 0 1
127.431 0 1
127.547 0 1
127.663 0 1
127.779 0 1
127.895 0 1
128.011 0 1
128.127 0 1
128.243 0 1
128.359 510 22.5832
128.476 471 21.7025
128.592 524 22.891
128.708 494 22.2261
128.825 538 23.1948
128.941 547 23.388
129.058 561 23.6854
129.174 586 24.2074
129.291 584 24.1661
129.408 593 24.3516
129.524 622 24.9399
129.641 687 26.2107
129.758 724 26.9072
129.875 859 29.3087
129.992 884 29.7321
130.108 944 30.7246
130.225 918 30.2985
130.342 956 30.9192
130.459 1272 35.6651
130.576 1809 42.5323
130.693 2333 48.3011
130.81 2708 52.0384
130.928 2743 52.3737
131.045 2744 52.3832
131.162 2857 53.4509
131.279 2850 53.3854
131.396 2932 54.1479
131.513 2893 53.7866
131.631 2748 52.4214
131.748 2840 53.2917
131.865 2840 53.2917
131.983 2732 52.2685
132.1 2724 52.192
132.217 2661 51.5849
132.335 2600 50.9902
132.452 2716 52.1153
132.57 2547 50.4678
132.687 2412 49.1121
132.804 2412 49.1121
132.922 2246 47.392
133.039 2255 47.4868
133.157 2117 46.0109
133.274 2030 45.0555
133.392 1912 43.7264
133.509 1778 42.1663
133.627 1430 37.8153
133.744 1318 36.3043
133.862 1296 36
133.979 1327 36.428
134.097 1519 38.9744
134.214 1611 40.1373
134.332 1572 39.6485
134.449 1551 39.3827
134.567 1459 38.1969
134.684 1875 43.3013
134.802 2514 50.1398
134.919 3284 57.3062
135.037 3699 60.8194
135.154 4248 65.1767
135.272 4537 67.3573
135.389 5059 71.1266
135.507 5380 73.3485
135.624 5576 74.6726
135.742 5864 76.5768
135.859 6066 77.8845
135.977 6140 78.3582
136.094 6295 79.341
136.211 6432 80.1998
136.329 6230 78.9303
136.446 6422 80.1374
136.564 6326 79.5362
136.681 6453 80.3306
136.798 6368 79.7997
136.915 6298 79.3599
137.033 6082 77.9872
137.15 6245 79.0253
137.267 5834 76.3806
137.384 5727 75.6769
137.502 5554 74.5252
137.619 5233 72.3395
137.736 4892 69.9428
137.853 4570 67.6018
137.97 3847 62.0242
138.087 2736 52.3068
138.204 1918 43.795
138.321 2192 46.8188
138.438 2794 52.8583
138.555 2919 54.0278
138.672 2558 50.5767
138.788 2391 48.8979
138.905 2209 47
139.022 2137 46.2277
139.139 1869 43.2319
139.255 1535 39.1791
139.372 1284 35.8329
139.488 1146 33.8526
139.605 1102 33.1964
139.721 1019 31.9218
139.838 951 30.8383
139.954 917 30.282
140.071 863 29.3769
140.187 792 28.1425
140.303 751 27.4044
140.419 718 26.7955
140.535 701 26.4764
140.652 656 25.6125
140.768 0 1
140.884 0 1
141 0 1
141.115 0 1
141.231 0 1
141.347 0 1
141.463 0 1
141.578 0 1
141.694 0 1
144.104 0 1
144.219 0 1
144.335 0 1
144.45 0 1
144.566 0 1
144.682 0 1
144.798 0 1
144.914 0 1
145.03 0 1
145.146 1481 38.4838
145.262 1586 39.8246
145.378 1587 39.8372
145.494 1652 40.6448
145.61 1773 42.107
145.726 1840 42.8952
145.842 1842 42.9185
145.959 1914 43.7493
146.075 1854 43.0581
146.192 1955 44.2154
146.308 2017 44.911
146.425 1976 44.4522
146.541 2047 45.2438
146.658 1875 43.3013
146.774 1746 41.7852
146.891 1423 37.7227
147.008 1499 38.7169
147.125 1817 42.6263
147.241 2004 44.7661
147.358 2107 45.9021
147.475 2077 45.5741
147.592 2028 45.0333
147.709 2083 45.6399
147.826 2079 45.5961
147.943 1986 44.5646
148.06 2032 45.0777
148.177 2038 45.1442
148.294 2013 44.8665
148.411 2078 45.5851
148.528 2061 45.3982
148.645 2118 46.0217
148.762 2089 45.7056
148.88 2017 44.911
148.997 2072 45.5192
149.114 1967 44.3509
149.231 1909 43.6921
149.349 2001 44.7325
149.466 2017 44.911
149.583 2068 45.4753
149.701 2003 44.7549
149.818 2005 44.7772
149.935 1986 44.5646
150.053 1910 43.7035
150.17 1943 44.0795
150.287 1936 44
150.405 1811 42.5558
150.522 1569 39.6106
150.64 1401 37.4299
150.757 1570 39.6232
150.875 1728 41.5692
150.992 1855 43.0697
151.11 1735 41.6533
151.227 1678 40.9634
151.344 1753 41.8688
151.462 1804 42.4735
151.579 1775 42.1307
151.697 1795 42.3674
151.814 1771 42.0833
151.932 1840 42.8952
152.049 1934 43.9773
152.167 1912 43.7264
152.284 1865 43.1856
152.402 1765 42.0119
152.519 1810 42.5441
152.636 1829 42.7668
152.754 1815 42.6028
152.871 1897 43.5546
152.989 1891 43.4856
153.106 1931 43.9431
153.223 1799 42.4146
153.341 1789 42.2966
153.458 1886 43.4281
153.575 1799 42.4146
153.693 1758 41.9285
153.81 1781 42.2019
153.927 1784 42.2374
154.044 1829 42.7668
154.162 1475 38.4057
154.279 1374 37.0675
154.396 1569 39.6106
154.513 1740 41.7133
154.63 1733 41.6293
154.747 1734 41.6413
154.864 1656 40.694
154.981 1762 41.9762
155.098 1806 42.4971
155.215 1808 42.5206
155.332 1704 41.2795
155.449 1743 41.7493
155.566 1754 41.8808
155.683 1786 42.2611
155.8 1799 42.4146
155.917 1857 43.0929
156.033 1784 42.2374
156.15 0 1
156.267 0 1
156.383 0 1
156.5 0 1
156.617 0 1
156.733 0 1
156.85 0 1
156.966 0 1
157.082 0 1
157.199 0 1
157.315 0 1
157.431 0 1
157.547 0 1
157.664 0 1
157.78 0 1
157.896 0 1
158.012 0 1
158.128 0 1
158.244 0 1
158.359 0 1
158.475 0 1
158.591 0 1
158.706 0 1
