
6.15755 0 1
6.2731 0 1
6.3887 0 1
6.50437 0 1
6.62009 0 1
6.73587 0 1
6.8517 0 1
6.96759 0 1
7.08353 0 1
7.19952 0 1
7.31557 0 1
7.43166 0 1
7.54781 0 1
7.664 0 1
7.78024 0 1
7.89653 0 1
8.01286 0 1
8.12924 0 1
8.24567 0 1
8.36213 0 1
8.47864 0 1
8.59519 0 1
8.71178 0 1
8.82841 0 1
8.94508 0 1
9.06179 0 1
9.17853 0 1
9.29531 0 1
9.41212 0 1
9.52897 0 1
9.64584 0 1
9.76276 0 1
9.8797 0 1
9.99667 0 1
10.1137 0 1
10.2307 0 1
10.3478 0 1
10.4648 0 1
10.5819 0 1
10.6991 0 1
10.8162 0 1
10.9334 0 1
11.0506 0 1
11.1678 0 1
11.285 0 1
11.4023 0 1
11.5196 0 1
11.6369 0 1
11.7542 0 1
11.8715 0 1
11.9888 0 1
12.1062 0 1
12.2235 0 1
12.3409 0 1
12.4582 0 1
12.5756 0 1
12.693 0 1
12.8104 0 1
12.9278 0 1
13.0452 0 1
13.1626 0 1
13.28 0 1
13.3974 0 1
13.5149 0 1
13.6323 0 1
13.7497 0 1
13.8671 0 1
13.9845 0 1
14.1019 0 1
14.2193 0 1
14.3367 0 1
14.4541 0 1
14.5714 0 1
14.6888 0 1
14.8062 0 1
14.9235 0 1
15.0408 770 27.7489
15.1581 867 29.4449
15.2755 855 29.2404
15.3927 840 28.9828
15.51 892 29.8664
15.6273 803 28.3373
15.7445 914 30.2324
15.8617 815 28.5482
15.9789 876 29.5973
16.0961 815 28.5482
16.2132 807 28.4077
16.3304 789 28.0891
16.4475 745 27.2947
16.5646 758 27.5318
16.6816 781 27.9464
16.7986 770 27.7489
16.9156 807 28.4077
17.0326 720 26.8328
17.1496 807 28.4077
17.2665 767 27.6948
17.3833 795 28.1957
17.5002 756 27.4955
17.617 744 27.2764
17.7338 762 27.6043
17.8505 784 28
17.9672 790 28.1069
18.0839 795 28.1957
18.2005 746 27.313
18.3171 737 27.1477
18.4337 764 27.6405
18.5502 761 27.5862
18.6666 760 27.5681
18.7831 784 28
18.8994 774 27.8209
19.0158 709 26.6271
19.1321 732 27.0555
19.2483 683 26.1343
19.3645 707 26.5895
19.4806 639 25.2784
19.5967 611 24.7184
19.7128 620 24.8998
19.8288 510 22.5832
19.9447 470 21.6795
20.0606 0 1
20.1764 0 1
20.2922 0 1
20.4079 0 1
20.5236 0 1
20.6392 0 1
20.7548 0 1
20.8702 0 1
23.3078 0 1
23.4233 0 1
23.539 0 1
23.6547 0 1
23.7704 0 1
23.8862 0 1
24.0021 0 1
24.118 0 1
24.234 0 1
24.35 0 1
24.4661 343 18.5203
24.5822 381 19.5192
24.6984 375 19.3649
24.8146 434 20.8327
24.9309 582 24.1247
25.0472 617 24.8395
25.1636 623 24.96
25.28 754 27.4591
25.3965 772 27.7849
25.513 806 28.3901
25.6296 830 28.8097
25.7462 821 28.6531
25.8628 854 29.2233
25.9795 829 28.7924
26.0962 823 28.688
26.213 852 29.189
26.3298 829 28.7924
26.4466 783 27.9821
26.5635 761 27.5862
26.6804 770 27.7489
26.7973 658 25.6515
26.9143 673 25.9422
27.0313 639 25.2784
27.1483 636 25.219
27.2653 659 25.671
27.3824 727 26.9629
27.4996 768 27.7128
27.6167 738 27.1662
27.7339 724 26.9072
27.8511 739 27.1846
27.9683 729 27
28.0855 772 27.7849
28.2028 743 27.258
28.3201 722 26.8701
28.4374 732 27.0555
28.5547 726 26.9444
28.6721 727 26.9629
28.7894 733 27.074
28.9068 738 27.1662
29.0242 717 26.7769
29.1416 712 26.6833
29.259 724 26.9072
29.3764 754 27.4591
29.4939 711 26.6646
29.6113 717 26.7769
29.7288 696 26.3818
29.8463 689 26.2488
29.9638 694 26.3439
30.0812 673 25.9422
30.1987 706 26.5707
30.3162 642 25.3377
30.4337 644 25.3772
30.5512 596 24.4131
30.6687 642 25.3377
30.7862 720 26.8328
30.9037 714 26.7208
31.0212 678 26.0384
31.1387 732 27.0555
31.2562 732 27.0555
31.3737 772 27.7849
31.4912 764 27.6405
31.6087 775 27.8388
31.7262 668 25.8457
31.8436 743 27.258
31.9611 692 26.3059
32.0785 669 25.865
32.1959 644 25.3772
32.3134 660 25.6905
32.4308 690 26.2679
32.5482 690 26.2679
32.6655 634 25.1794
32.7829 703 26.5141
32.9002 634 25.1794
33.0176 639 25.2784
33.1349 602 24.5357
33.2522 659 25.671
33.3694 673 25.9422
33.4867 634 25.1794
33.6039 691 26.2869
33.7211 706 26.5707
33.8383 663 25.7488
33.9554 609 24.6779
34.0725 590 24.2899
34.1896 551 23.4734
34.3067 597 24.4336
34.4237 643 25.3574
34.5407 651 25.5147
34.6577 700 26.4575
34.7746 654 25.5734
34.8915 679 26.0576
35.0084 686 26.1916
35.1252 657 25.632
35.242 717 26.7769
35.3587 652 25.5343
35.4755 693 26.3249
35.5921 572 23.9165
35.7088 558 23.622
35.8254 536 23.1517
35.9419 607 24.6374
36.0584 576 24
36.1749 571 23.8956
36.2913 615 24.7992
36.4077 614 24.779
36.524 596 24.4131
36.6403 562 23.7065
36.7565 500 22.3607
36.8727 479 21.8861
36.9889 504 22.4499
37.1049 432 20.7846
37.221 0 1
37.3369 0 1
37.4529 0 1
37.5687 0 1
37.6845 0 1
37.8003 0 1
37.916 0 1
38.0316 0 1
38.1472 0 1
40.5851 0 1
40.7008 0 1
40.8164 0 1
40.9322 0 1
41.048 0 1
41.1639 0 1
41.2798 0 1
41.3958 0 1
41.5118 0 1
41.6279 0 1
41.744 287 16.9411
41.8602 348 18.6548
41.9765 419 20.4695
42.0928 473 21.7486
42.2091 493 22.2036
42.3255 498 22.3159
42.4419 563 23.7276
42.5584 507 22.5167
42.675 534 23.1084
42.7915 512 22.6274
42.9081 513 22.6495
43.0248 479 21.8861
43.1415 486 22.0454
43.2582 489 22.1133
43.375 542 23.2809
43.4918 524 22.891
43.6087 512 22.6274
43.7256 544 23.3238
43.8425 549 23.4307
43.9595 495 22.2486
44.0765 526 22.9347
44.1935 513 22.6495
44.3106 519 22.7816
44.4277 475 21.7945
44.5448 470 21.6795
44.6619 446 21.1187
44.7791 484 22
44.8963 461 21.4709
45.0136 533 23.0868
45.1308 528 22.9783
45.2481 562 23.7065
45.3654 563 23.7276
45.4827 569 23.8537
45.6001 525 22.9129
45.7174 544 23.3238
45.8348 566 23.7908
45.9522 561 23.6854
46.0697 570 23.8747
46.1871 523 22.8692
46.3046 519 22.7816
46.422 438 20.9284
46.5395 462 21.4942
46.657 439 20.9523
46.7745 490 22.1359
46.892 473 21.7486
47.0096 506 22.4944
47.1271 520 22.8035
47.2446 505 22.4722
47.3622 564 23.7487
47.4797 521 22.8254
47.5973 529 23
47.7149 494 22.2261
47.8324 495 22.2486
47.95 506 22.4944
48.0675 484 22
48.1851 465 21.5639
48.3027 529 23
48.4202 533 23.0868
48.5378 522 22.8473
48.6554 557 23.6008
48.7729 604 24.5764
48.8904 643 25.3574
49.008 643 25.3574
49.1255 701 26.4764
49.243 702 26.4953
49.3605 754 27.4591
49.478 719 26.8142
49.5955 782 27.9643
49.713 752 27.4226
49.8304 646 25.4165
49.9479 624 24.98
50.0653 505 22.4722
50.1827 500 22.3607
50.3001 483 21.9773
50.4175 530 23.0217
50.5348 501 22.383
50.6521 553 23.516
50.7694 549 23.4307
50.8867 553 23.516
51.004 601 24.5153
51.1212 560 23.6643
51.2384 627 25.04
51.3556 578 24.0416
51.4727 546 23.3666
51.5899 517 22.7376
51.707 544 23.3238
51.824 531 23.0434
51.9411 550 23.4521
52.0581 613 24.7588
52.175 597 24.4336
52.2919 719 26.8142
52.4088 799 28.2666
52.5257 888 29.7993
52.6425 960 30.9839
52.7593 869 29.4788
52.876 833 28.8617
52.9927 834 28.8791
53.1094 783 27.9821
53.226 722 26.8701
53.3426 729 27
53.4591 607 24.6374
53.5756 495 22.2486
53.692 428 20.6882
53.8084 402 20.0499
53.9248 382 19.5448
54.0411 403 20.0749
54.1573 323 17.9722
54.2735 0 1
54.3896 0 1
54.5057 0 1
54.6217 0 1
54.7377 0 1
54.8537 0 1
54.9695 0 1
55.0853 0 1
55.2011 0 1
55.3168 0 1
55.4324 0 1
57.824 0 1
57.9396 0 1
58.0553 0 1
58.1711 0 1
58.2869 0 1
58.4028 0 1
58.5187 0 1
58.6347 0 1
58.7508 0 1
58.8669 0 1
58.983 1338 36.5787
59.0992 1650 40.6202
59.2155 1865 43.1856
59.3318 1839 42.8836
59.4482 2004 44.7661
59.5646 2368 48.6621
59.681 2799 52.9056
59.7975 3219 56.7362
59.9141 3519 59.3212
60.0306 3716 60.959
60.1473 3841 61.9758
60.2639 3915 62.57
60.3807 3838 61.9516
60.4974 4025 63.4429
60.6142 4264 65.2993
60.731 4277 65.3988
60.8479 4228 65.0231
60.9648 4076 63.8436
61.0818 4038 63.5453
61.1987 3744 61.1882
61.3158 3703 60.8523
61.4328 3512 59.2621
61.5499 3197 56.542
61.667 2879 53.6563
61.7841 2409 49.0816
61.9013 1823 42.6966
62.0185 1394 37.3363
62.1357 1020 31.9374
62.253 845 29.0689
62.3702 758 27.5318
62.4875 747 27.3313
62.6049 691 26.2869
62.7222 675 25.9808
62.8396 684 26.1534
62.9569 671 25.9037
63.0743 700 26.4575
63.1918 675 25.9808
63.3092 669 25.865
63.4267 659 25.671
63.5441 592 24.3311
63.6616 555 23.5584
63.7791 545 23.3452
63.8966 552 23.4947
64.0142 516 22.7156
64.1317 560 23.6643
64.2492 557 23.6008
64.3668 578 24.0416
64.4843 542 23.2809
64.6019 507 22.5167
64.7195 581 24.1039
64.837 563 23.7276
64.9546 554 23.5372
65.0722 588 24.2487
65.1898 565 23.7697
65.3074 560 23.6643
65.4249 549 23.4307
65.5425 490 22.1359
65.6601 500 22.3607
65.7777 492 22.1811
65.8952 490 22.1359
66.0128 480 21.9089
66.1304 543 23.3024
66.2479 546 23.3666
66.3655 499 22.3383
66.483 493 22.2036
66.6005 545 23.3452
66.718 530 23.0217
66.8355 570 23.8747
66.953 517 22.7376
67.0705 523 22.8692
67.1879 484 22
67.3054 564 23.7487
67.4228 465 21.5639
67.5402 499 22.3383
67.6576 521 22.8254
67.7749 507 22.5167
67.8923 559 23.6432
68.0096 523 22.8692
68.1269 526 22.9347
68.2442 543 23.3024
68.3614 562 23.7065
68.4787 522 22.8473
68.5958 557 23.6008
68.713 532 23.0651
68.8302 555 23.5584
68.9473 520 22.8035
69.0643 521 22.8254
69.1814 551 23.4734
69.2984 515 22.6936
69.4154 461 21.4709
69.5323 500 22.3607
69.6492 477 21.8403
69.7661 502 22.4054
69.8829 547 23.388
69.9997 515 22.6936
70.1165 526 22.9347
70.2332 520 22.8035
70.3499 507 22.5167
70.4665 463 21.5174
70.5831 495 22.2486
70.6996 405 20.1246
70.8161 366 19.1311
70.9326 316 17.7764
71.049 294 17.1464
71.1653 273 16.5227
71.2817 312 17.6635
71.3979 256 16
71.5141 245 15.6525
71.6303 242 15.5563
71.7464 169 13
71.8624 0 1
71.9784 0 1
72.0944 0 1
72.2102 0 1
72.3261 0 1
72.4418 0 1
72.5575 0 1
72.6732 0 1
75.1054 0 1
75.2209 0 1
75.3365 0 1
75.4521 0 1
75.5678 0 1
75.6835 0 1
75.7993 0 1
75.9151 0 1
76.031 0 1
76.147 284 16.8523
76.263 354 18.8149
76.3791 351 18.735
76.4952 406 20.1494
76.6113 397 19.9249
76.7276 447 21.1424
76.8438 436 20.8806
76.9601 447 21.1424
77.0765 433 20.8087
77.1929 416 20.3961
77.3093 441 21
77.4258 435 20.8567
77.5423 405 20.1246
77.6589 433 20.8087
77.7755 444 21.0713
77.8921 448 21.166
78.0088 440 20.9762
78.1256 444 21.0713
78.2423 393 19.8242
78.3591 394 19.8494
78.4759 367 19.1572
78.5928 376 19.3907
78.7097 380 19.4936
78.8266 380 19.4936
78.9436 412 20.2978
79.0606 420 20.4939
79.1776 496 22.2711
79.2946 453 21.2838
79.4117 466 21.587
79.5288 451 21.2368
79.6459 429 20.7123
79.7631 482 21.9545
79.8802 415 20.3715
79.9974 391 19.7737
80.1147 410 20.2485
80.2319 481 21.9317
80.3491 428 20.6882
80.4664 445 21.095
80.5837 474 21.7715
80.701 425 20.6155
80.8183 441 21
80.9357 465 21.5639
81.053 445 21.095
81.1704 430 20.7364
81.2877 457 21.3776
81.4051 508 22.5389
81.5225 472 21.7256
81.6399 424 20.5913
81.7573 406 20.1494
81.8747 420 20.4939
81.9922 402 20.0499
82.1096 425 20.6155
82.227 409 20.2237
82.3444 355 18.8414
82.4619 412 20.2978
82.5793 466 21.587
82.6967 494 22.2261
82.8142 480 21.9089
82.9316 481 21.9317
83.049 486 22.0454
83.1664 415 20.3715
83.2838 450 21.2132
83.4012 437 20.9045
83.5186 407 20.1742
83.636 418 20.445
83.7534 438 20.9284
83.8708 457 21.3776
83.9881 436 20.8806
84.1055 407 20.1742
84.2228 464 21.5407
84.3401 452 21.2603
84.4575 457 21.3776
84.5747 477 21.8403
84.692 455 21.3307
84.8093 458 21.4009
84.9265 454 21.3073
85.0437 471 21.7025
85.1609 473 21.7486
85.2781 488 22.0907
85.3952 402 20.0499
85.5123 479 21.8861
85.6294 432 20.7846
85.7465 420 20.4939
85.8636 437 20.9045
85.9806 437 20.9045
86.0976 470 21.6795
86.2145 492 22.1811
86.3315 484 22
86.4484 463 21.5174
86.5652 495 22.2486
86.682 484 22
86.7988 481 21.9317
86.9156 458 21.4009
87.0323 485 22.0227
87.149 439 20.9523
87.2657 483 21.9773
87.3823 434 20.8327
87.4988 428 20.6882
87.6154 469 21.6564
87.7318 423 20.567
87.8483 412 20.2978
87.9647 411 20.2731
88.081 340 18.4391
88.1973 358 18.9209
88.3136 309 17.5784
88.4298 292 17.088
88.546 274 16.5529
88.6621 291 17.0587
88.7781 251 15.843
88.8942 0 1
89.0101 0 1
89.126 0 1
89.2419 0 1
89.3577 0 1
89.4734 0 1
89.5891 0 1
89.7047 0 1
89.8203 0 1
89.9358 0 1
92.3269 0 1
92.4424 0 1
92.558 0 1
92.6736 0 1
92.7893 0 1
92.905 0 1
93.0208 0 1
93.1366 0 1
93.2525 0 1
93.3685 0 1
93.4845 0 1
93.6005 374 19.3391
93.7167 408 20.199
93.8328 423 20.567
93.949 470 21.6795
94.0653 468 21.6333
94.1816 473 21.7486
94.2979 470 21.6795
94.4143 473 21.7486
94.5307 463 21.5174
94.6472 449 21.1896
94.7637 479 21.8861
94.8803 496 22.2711
94.9969 438 20.9284
95.1135 452 21.2603
95.2302 470 21.6795
95.3469 494 22.2261
95.4637 501 22.383
95.5805 516 22.7156
95.6973 503 22.4277
95.8142 479 21.8861
95.9311 478 21.8632
96.048 432 20.7846
96.1649 456 21.3542
96.2819 468 21.6333
96.3989 486 22.0454
96.516 464 21.5407
96.633 468 21.6333
96.7501 517 22.7376
96.8673 482 21.9545
96.9844 475 21.7945
97.1016 474 21.7715
97.2188 460 21.4476
97.336 457 21.3776
97.4532 507 22.5167
97.5704 516 22.7156
97.6877 503 22.4277
97.805 482 21.9545
97.9223 509 22.561
98.0396 501 22.383
98.1569 522 22.8473
98.2743 442 21.0238
98.3916 454 21.3073
98.509 457 21.3776
98.6264 428 20.6882
98.7438 501 22.383
98.8612 467 21.6102
98.9786 485 22.0227
99.096 523 22.8692
99.2134 522 22.8473
99.3308 507 22.5167
99.4482 501 22.383
99.5656 503 22.4277
99.6831 515 22.6936
99.8005 521 22.8254
99.9179 490 22.1359
100.035 511 22.6053
100.153 512 22.6274
100.27 513 22.6495
100.388 528 22.9783
100.505 500 22.3607
100.622 464 21.5407
100.74 511 22.6053
100.857 545 23.3452
100.975 475 21.7945
101.092 508 22.5389
101.209 503 22.4277
101.327 523 22.8692
101.444 463 21.5174
101.561 535 23.1301
101.679 524 22.891
101.796 470 21.6795
101.913 447 21.1424
102.03 488 22.0907
102.148 462 21.4942
102.265 526 22.9347
102.382 491 22.1585
102.499 533 23.0868
102.616 541 23.2594
102.733 525 22.9129
102.851 558 23.622
102.968 537 23.1733
103.085 572 23.9165
103.202 518 22.7596
103.319 511 22.6053
103.436 534 23.1084
103.552 527 22.9565
103.669 553 23.516
103.786 549 23.4307
103.903 546 23.3666
104.02 600 24.4949
104.137 531 23.0434
104.253 565 23.7697
104.37 492 22.1811
104.487 559 23.6432
104.603 533 23.0868
104.72 525 22.9129
104.836 495 22.2486
104.953 474 21.7715
105.069 499 22.3383
105.186 467 21.6102
105.302 441 21
105.418 422 20.5426
105.535 373 19.3132
105.651 366 19.1311
105.767 302 17.3781
105.883 286 16.9115
105.999 243 15.5885
106.115 0 1
106.231 0 1
106.347 0 1
106.463 0 1
106.579 0 1
106.694 0 1
106.81 0 1
106.926 0 1
107.041 0 1
107.157 0 1
109.576 0 1
109.692 0 1
109.807 0 1
109.923 0 1
110.039 0 1
110.155 0 1
110.27 0 1
110.386 0 1
110.502 0 1
110.618 267 16.3401
110.735 267 16.3401
110.851 316 17.7764
110.967 372 19.2873
111.083 429 20.7123
111.199 456 21.3542
111.316 495 22.2486
111.432 474 21.7715
111.549 512 22.6274
111.665 516 22.7156
111.782 507 22.5167
111.898 492 22.1811
112.015 442 21.0238
112.132 490 22.1359
112.248 543 23.3024
112.365 503 22.4277
112.482 504 22.4499
112.599 508 22.5389
112.716 482 21.9545
112.832 516 22.7156
112.949 464 21.5407
113.066 465 21.5639
113.183 480 21.9089
113.3 484 22
113.417 477 21.8403
113.534 496 22.2711
113.652 459 21.4243
113.769 447 21.1424
113.886 463 21.5174
114.003 473 21.7486
114.12 472 21.7256
114.238 438 20.9284
114.355 445 21.095
114.472 434 20.8327
114.589 492 22.1811
114.707 501 22.383
114.824 458 21.4009
114.942 468 21.6333
115.059 546 23.3666
115.176 456 21.3542
115.294 468 21.6333
115.411 465 21.5639
115.529 459 21.4243
115.646 438 20.9284
115.764 463 21.5174
115.881 476 21.8174
115.999 476 21.8174
116.116 474 21.7715
116.234 484 22
116.351 464 21.5407
116.469 469 21.6564
116.586 467 21.6102
116.704 443 21.0476
116.821 455 21.3307
116.939 406 20.1494
117.056 445 21.095
117.174 479 21.8861
117.291 462 21.4942
117.409 454 21.3073
117.526 437 20.9045
117.644 411 20.2731
117.761 413 20.3224
117.879 442 21.0238
117.996 433 20.8087
118.114 430 20.7364
118.231 431 20.7605
118.349 441 21
118.466 475 21.7945
118.584 484 22
118.701 487 22.0681
118.819 462 21.4942
118.936 496 22.2711
119.053 399 19.975
119.171 414 20.347
119.288 442 21.0238
119.405 461 21.4709
119.523 427 20.664
119.64 493 22.2036
119.757 449 21.1896
119.875 472 21.7256
119.992 454 21.3073
120.109 456 21.3542
120.226 436 20.8806
120.343 425 20.6155
120.46 436 20.8806
120.578 446 21.1187
120.695 448 21.166
120.812 439 20.9523
120.929 419 20.4695
121.046 442 21.0238
121.163 409 20.2237
121.279 349 18.6815
121.396 386 19.6469
121.513 375 19.3649
121.63 418 20.445
121.747 398 19.9499
121.863 358 18.9209
121.98 362 19.0263
122.097 434 20.8327
122.213 369 19.2094
122.33 354 18.8149
122.446 329 18.1384
122.563 325 18.0278
122.679 263 16.2173
122.795 274 16.5529
122.912 273 16.5227
123.028 255 15.9687
123.144 252 15.8745
123.26 242 15.5563
123.377 0 1
123.493 0 1
123.609 0 1
123.725 0 1
123.84 0 1
123.956 0 1
124.072 0 1
124.188 0 1
124.303 0 1
124.419 0 1
126.852 0 1
126.968 0 1
127.083 0 1
127.199 0 1
127.315 0 1
127.431 0 1
127.547 0 1
127.663 0 1
127.779 0 1
127.895 0 1
128.011 0 1
128.127 0 1
128.243 0 1
128.359 437 20.9045
128.476 466 21.587
128.592 472 21.7256
128.708 506 22.4944
128.825 525 22.9129
128.941 520 22.8035
129.058 542 23.2809
129.174 509 22.561
129.291 483 21.9773
129.408 497 22.2935
129.524 517 22.7376
129.641 471 21.7025
129.758 473 21.7486
129.875 503 22.4277
129.992 535 23.1301
130.108 508 22.5389
130.225 548 23.4094
130.342 512 22.6274
130.459 544 23.3238
130.576 496 22.2711
130.693 469 21.6564
130.81 547 23.388
130.928 525 22.9129
131.045 554 23.5372
131.162 598 24.454
131.279 625 25
131.396 643 25.3574
131.513 655 25.593
131.631 701 26.4764
131.748 711 26.6646
131.865 673 25.9422
131.983 734 27.0924
132.1 703 26.5141
132.217 802 28.3196
132.335 777 27.8747
132.452 820 28.6356
132.57 789 28.0891
132.687 842 29.0172
132.804 915 30.249
132.922 816 28.5657
133.039 887 29.7825
133.157 934 30.5614
133.274 910 30.1662
133.392 934 30.5614
133.509 958 30.9516
133.627 962 31.0161
133.744 987 31.4166
133.862 945 30.7409
133.979 891 29.8496
134.097 935 30.5778
134.214 853 29.2062
134.332 844 29.0517
134.449 878 29.6311
134.567 886 29.7658
134.684 928 30.4631
134.802 979 31.289
134.919 977 31.257
135.037 1018 31.9061
135.154 993 31.5119
135.272 942 30.692
135.389 994 31.5278
135.507 956 30.9192
135.624 994 31.5278
135.742 993 31.5119
135.859 1013 31.8277
135.977 1030 32.0936
136.094 1085 32.9393
136.211 1006 31.7175
136.329 1091 33.0303
136.446 1033 32.1403
136.564 1011 31.7962
136.681 1052 32.4345
136.798 1021 31.9531
136.915 1075 32.7872
137.033 1046 32.3419
137.15 1034 32.1559
137.267 1045 32.3265
137.384 983 31.3528
137.502 944 30.7246
137.619 947 30.7734
137.736 895 29.9166
137.853 893 29.8831
137.97 878 29.6311
138.087 825 28.7228
138.204 887 29.7825
138.321 849 29.1376
138.438 967 31.0966
138.555 1012 31.8119
138.672 1015 31.8591
138.788 962 31.0161
138.905 995 31.5436
139.022 944 30.7246
139.139 918 30.2985
139.255 790 28.1069
139.372 789 28.0891
139.488 783 27.9821
139.605 698 26.4197
139.721 678 26.0384
139.838 705 26.5518
139.954 655 25.593
140.071 604 24.5764
140.187 562 23.7065
140.303 552 23.4947
140.419 544 23.3238
140.535 519 22.7816
140.652 493 22.2036
140.768 0 1
140.884 0 1
141 0 1
141.115 0 1
141.231 0 1
141.347 0 1
141.463 0 1
141.578 0 1
141.694 0 1
144.104 0 1
144.219 0 1
144.335 0 1
144.45 0 1
144.566 0 1
144.682 0 1
144.798 0 1
144.914 0 1
145.03 0 1
145.146 1800 42.4264
145.262 1883 43.3935
145.378 1959 44.2606
145.494 2009 44.8219
145.61 2079 45.5961
145.726 2265 47.592
145.842 2393 48.9183
145.959 2439 49.3862
146.075 2550 50.4975
146.192 2838 53.2729
146.308 3036 55.0999
146.425 3263 57.1227
146.541 3506 59.2115
146.658 3135 55.9911
146.774 2469 49.689
146.891 2340 48.3735
147.008 3148 56.107
147.125 3837 61.9435
147.241 4424 66.5132
147.358 4557 67.5056
147.475 4666 68.3081
147.592 4704 68.5857
147.709 4848 69.6276
147.826 4650 68.1909
147.943 4593 67.7717
148.06 4427 66.5357
148.177 4305 65.6125
148.294 4338 65.8635
148.411 4344 65.909
148.528 4317 65.7039
148.645 4297 65.5515
148.762 4209 64.8768
148.88 4095 63.9922
148.997 4041 63.5689
149.114 3844 62
149.231 3722 61.0082
149.349 3675 60.6218
149.466 3457 58.7963
149.583 3445 58.6941
149.701 3293 57.3847
149.818 3135 55.9911
149.935 2965 54.4518
150.053 2824 53.1413
150.17 2659 51.5655
150.287 2337 48.3425
150.405 2030 45.0555
150.522 1852 43.0349
150.64 1863 43.1625
150.757 1972 44.4072
150.875 2075 45.5522
150.992 2110 45.9347
151.11 2089 45.7056
151.227 2170 46.5833
151.344 2180 46.6905
151.462 2089 45.7056
151.579 2015 44.8888
151.697 1938 44.0227
151.814 1904 43.6348
151.932 1951 44.1701
152.049 1886 43.4281
152.167 1959 44.2606
152.284 1989 44.5982
152.402 1997 44.6878
152.519 1993 44.643
152.636 1939 44.0341
152.754 1896 43.5431
152.871 1910 43.7035
152.989 1932 43.9545
153.106 1883 43.3935
153.223 1925 43.8748
153.341 1922 43.8406
153.458 1828 42.7551
153.575 1777 42.1545
153.693 1752 41.8569
153.81 1735 41.6533
153.927 1583 39.7869
154.044 1539 39.2301
154.162 1477 38.4318
154.279 1435 37.8814
154.396 1523 39.0256
154.513 1525 39.0512
154.63 1528 39.0896
154.747 1607 40.0874
154.864 1634 40.4228
154.981 1641 40.5093
155.098 1606 40.0749
155.215 1548 39.3446
155.332 1522 39.0128
155.449 1512 38.8844
155.566 1431 37.8286
155.683 1433 37.855
155.8 1527 39.0768
155.917 1472 38.3667
156.033 1496 38.6782
156.15 0 1
156.267 0 1
156.383 0 1
156.5 0 1
156.617 0 1
156.733 0 1
156.85 0 1
156.966 0 1
157.082 0 1
157.199 0 1
157.315 0 1
157.431 0 1
157.547 0 1
157.664 0 1
157.78 0 1
157.896 0 1
158.012 0 1
158.128 0 1
158.244 0 1
158.359 0 1
158.475 0 1
158.591 0 1
158.706 0 1
