
6.15755 0 1
6.2731 0 1
6.3887 0 1
6.50437 0 1
6.62009 0 1
6.73587 0 1
6.8517 0 1
6.96759 0 1
7.08353 0 1
7.19952 0 1
7.31557 0 1
7.43166 0 1
7.54781 0 1
7.664 0 1
7.78024 0 1
7.89653 0 1
8.01286 0 1
8.12924 0 1
8.24567 0 1
8.36213 0 1
8.47864 0 1
8.59519 0 1
8.71178 0 1
8.82841 0 1
8.94508 0 1
9.06179 0 1
9.17853 0 1
9.29531 0 1
9.41212 0 1
9.52897 0 1
9.64584 0 1
9.76276 0 1
9.8797 0 1
9.99667 0 1
10.1137 0 1
10.2307 0 1
10.3478 0 1
10.4648 0 1
10.5819 0 1
10.6991 0 1
10.8162 0 1
10.9334 0 1
11.0506 0 1
11.1678 0 1
11.285 0 1
11.4023 0 1
11.5196 0 1
11.6369 0 1
11.7542 0 1
11.8715 0 1
11.9888 0 1
12.1062 0 1
12.2235 0 1
12.3409 0 1
12.4582 0 1
12.5756 0 1
12.693 0 1
12.8104 0 1
12.9278 0 1
13.0452 0 1
13.1626 0 1
13.28 0 1
13.3974 0 1
13.5149 0 1
13.6323 0 1
13.7497 0 1
13.8671 0 1
13.9845 0 1
14.1019 0 1
14.2193 0 1
14.3367 0 1
14.4541 0 1
14.5714 0 1
14.6888 0 1
14.8062 0 1
14.9235 0 1
15.0408 2472 49.7192
15.1581 2552 50.5173
15.2755 2616 51.1468
15.3927 2561 50.6063
15.51 2565 50.6458
15.6273 2414 49.1325
15.7445 2401 49
15.8617 2521 50.2096
15.9789 2484 49.8397
16.0961 2642 51.4004
16.2132 2752 52.4595
16.3304 2841 53.301
16.4475 2901 53.8609
16.5646 2911 53.9537
16.6816 2740 52.345
16.7986 2932 54.1479
16.9156 2863 53.507
17.0326 2890 53.7587
17.1496 2708 52.0384
17.2665 2717 52.1249
17.3833 2793 52.8488
17.5002 2792 52.8394
17.617 2861 53.4883
17.7338 2888 53.7401
17.8505 2844 53.3292
17.9672 3062 55.3353
18.0839 3156 56.1783
18.2005 3101 55.6866
18.3171 3189 56.4712
18.4337 3259 57.0877
18.5502 3370 58.0517
18.6666 3398 58.2924
18.7831 3244 56.9561
18.8994 3276 57.2364
19.0158 3374 58.0861
19.1321 3106 55.7315
19.2483 2997 54.7449
19.3645 2866 53.535
19.4806 3085 55.5428
19.5967 3162 56.2317
19.7128 3226 56.7979
19.8288 3300 57.4456
19.9447 2844 53.3292
20.0606 0 1
20.1764 0 1
20.2922 0 1
20.4079 0 1
20.5236 0 1
20.6392 0 1
20.7548 0 1
20.8702 0 1
23.3078 0 1
23.4233 0 1
23.539 0 1
23.6547 0 1
23.7704 0 1
23.8862 0 1
24.0021 0 1
24.118 0 1
24.234 0 1
24.35 0 1
24.4661 3128 55.9285
24.5822 3246 56.9737
24.6984 3200 56.5685
24.8146 3272 57.2014
24.9309 3407 58.3695
25.0472 3527 59.3886
25.1636 3594 59.95
25.28 3500 59.1608
25.3965 3639 60.3241
25.513 3463 58.8473
25.6296 3441 58.66
25.7462 3416 58.4466
25.8628 3429 58.5577
25.9795 3422 58.4979
26.0962 3531 59.4222
26.213 3549 59.5735
26.3298 3457 58.7963
26.4466 3638 60.3158
26.5635 3703 60.8523
26.6804 3859 62.1208
26.7973 3976 63.0555
26.9143 4001 63.2535
27.0313 3974 63.0397
27.1483 4068 63.7809
27.2653 4180 64.6529
27.3824 4057 63.6946
27.4996 4140 64.3428
27.6167 3885 62.3298
27.7339 3900 62.45
27.8511 3718 60.9754
27.9683 3580 59.8331
28.0855 3387 58.1979
28.2028 3425 58.5235
28.3201 3487 59.0508
28.4374 3480 58.9915
28.5547 3746 61.2046
28.6721 3751 61.2454
28.7894 3871 62.2174
28.9068 3897 62.426
29.0242 3844 62
29.1416 3600 60
29.259 3640 60.3324
29.3764 3486 59.0424
29.4939 3529 59.4054
29.6113 3363 57.9914
29.7288 3403 58.3352
29.8463 3341 57.8014
29.9638 3590 59.9166
30.0812 3790 61.563
30.1987 3826 61.8547
30.3162 3908 62.514
30.4337 4082 63.8905
30.5512 4150 64.4205
30.6687 4060 63.7181
30.7862 4274 65.3758
30.9037 4287 65.4752
31.0212 4192 64.7457
31.1387 4015 63.364
31.2562 3985 63.1269
31.3737 3992 63.1823
31.4912 3808 61.709
31.6087 3720 60.9918
31.7262 3716 60.959
31.8436 3633 60.2744
31.9611 3796 61.6117
32.0785 3781 61.4898
32.1959 4017 63.3798
32.3134 4151 64.4283
32.4308 3905 62.49
32.5482 3900 62.45
32.6655 3931 62.6977
32.7829 3796 61.6117
32.9002 3613 60.1082
33.0176 3622 60.1831
33.1349 3694 60.7783
33.2522 3619 60.1581
33.3694 3560 59.6657
33.4867 3721 61
33.6039 3881 62.2977
33.7211 3866 62.1772
33.8383 4143 64.3661
33.9554 4143 64.3661
34.0725 4207 64.8614
34.1896 4389 66.2495
34.3067 4253 65.215
34.4237 4355 65.9924
34.5407 4490 67.0075
34.6577 4399 66.325
34.7746 4323 65.7495
34.8915 4139 64.3351
35.0084 4126 64.2339
35.1252 4122 64.2028
35.242 3846 62.0161
35.3587 3809 61.7171
35.4755 3652 60.4318
35.5921 3847 62.0242
35.7088 3983 63.111
35.8254 4176 64.622
35.9419 4232 65.0538
36.0584 4156 64.467
36.1749 4135 64.304
36.2913 4126 64.2339
36.4077 4091 63.9609
36.524 3889 62.3618
36.6403 3630 60.2495
36.7565 3595 59.9583
36.8727 3643 60.3573
36.9889 3599 59.9917
37.1049 3658 60.4814
37.221 0 1
37.3369 0 1
37.4529 0 1
37.5687 0 1
37.6845 0 1
37.8003 0 1
37.916 0 1
38.0316 0 1
38.1472 0 1
40.5851 0 1
40.7008 0 1
40.8164 0 1
40.9322 0 1
41.048 0 1
41.1639 0 1
41.2798 0 1
41.3958 0 1
41.5118 0 1
41.6279 0 1
41.744 3062 55.3353
41.8602 3121 55.8659
41.9765 3251 57.0175
42.0928 3128 55.9285
42.2091 3355 57.9224
42.3255 3365 58.0086
42.4419 3443 58.6771
42.5584 3630 60.2495
42.675 3750 61.2372
42.7915 3903 62.474
42.9081 3877 62.2656
43.0248 3929 62.6817
43.1415 3949 62.8411
43.2582 3978 63.0714
43.375 4025 63.4429
43.4918 4039 63.5531
43.6087 3964 62.9603
43.7256 3971 63.0159
43.8425 3829 61.8789
43.9595 3746 61.2046
44.0765 3622 60.1831
44.1935 3508 59.2284
44.3106 3348 57.8619
44.4277 3284 57.3062
44.5448 3268 57.1664
44.6619 3481 59
44.7791 3598 59.9833
44.8963 3579 59.8247
45.0136 3406 58.3609
45.1308 3231 56.8419
45.2481 3139 56.0268
45.3654 2976 54.5527
45.4827 2826 53.1601
45.6001 2926 54.0925
45.7174 2712 52.0769
45.8348 2828 53.1789
45.9522 2826 53.1601
46.0697 3130 55.9464
46.1871 3198 56.5509
46.3046 3283 57.2975
46.422 3268 57.1664
46.5395 3403 58.3352
46.657 3486 59.0424
46.7745 3560 59.6657
46.892 3461 58.8303
47.0096 3458 58.8048
47.1271 3435 58.6089
47.2446 3392 58.2409
47.3622 3269 57.1752
47.4797 3239 56.9122
47.5973 3080 55.4977
47.7149 2931 54.1387
47.8324 2816 53.066
47.95 2898 53.8331
48.0675 2857 53.4509
48.1851 2830 53.1977
48.3027 2965 54.4518
48.4202 2938 54.2033
48.5378 2902 53.8702
48.6554 2774 52.6688
48.7729 2639 51.3712
48.8904 2509 50.0899
49.008 2411 49.1019
49.1255 2418 49.1732
49.243 2302 47.9792
49.3605 2430 49.295
49.478 2608 51.0686
49.5955 2711 52.0673
49.713 2756 52.4976
49.8304 2989 54.6717
49.9479 2946 54.2771
50.0653 3207 56.6304
50.1827 3168 56.285
50.3001 3284 57.3062
50.4175 3289 57.3498
50.5348 3370 58.0517
50.6521 3198 56.5509
50.7694 3379 58.1292
50.8867 3359 57.9569
51.004 3262 57.1139
51.1212 3255 57.0526
51.2384 3202 56.5862
51.3556 3155 56.1694
51.4727 3327 57.6802
51.5899 3551 59.5903
51.707 3494 59.1101
51.824 3656 60.4649
51.9411 3779 61.4736
52.0581 3754 61.2699
52.175 3634 60.2827
52.2919 3585 59.8749
52.4088 3379 58.1292
52.5257 3225 56.7891
52.6425 3087 55.5608
52.7593 3227 56.8067
52.876 3257 57.0701
52.9927 3475 58.9491
53.1094 3717 60.9672
53.226 3978 63.0714
53.3426 4299 65.5668
53.4591 4536 67.3498
53.5756 4728 68.7605
53.692 4616 67.9412
53.8084 4962 70.4415
53.9248 4969 70.4911
54.0411 5173 71.9236
54.1573 5037 70.9718
54.2735 0 1
54.3896 0 1
54.5057 0 1
54.6217 0 1
54.7377 0 1
54.8537 0 1
54.9695 0 1
55.0853 0 1
55.2011 0 1
55.3168 0 1
55.4324 0 1
57.824 0 1
57.9396 0 1
58.0553 0 1
58.1711 0 1
58.2869 0 1
58.4028 0 1
58.5187 0 1
58.6347 0 1
58.7508 0 1
58.8669 0 1
58.983 5707 75.5447
59.0992 6099 78.0961
59.2155 6235 78.962
59.3318 6105 78.1345
59.4482 6088 78.0256
59.5646 6059 77.8396
59.681 5940 77.0714
59.7975 5738 75.7496
59.9141 5770 75.9605
60.0306 5681 75.3724
60.1473 5721 75.6373
60.2639 5681 75.3724
60.3807 5584 74.7262
60.4974 5724 75.6571
60.6142 5654 75.1931
60.731 5640 75.0999
60.8479 5050 71.0634
60.9648 4914 70.0999
61.0818 4736 68.8186
61.1987 4420 66.4831
61.3158 4437 66.6108
61.4328 4516 67.2012
61.5499 4496 67.0522
61.667 4835 69.5342
61.7841 4987 70.6187
61.9013 5342 73.089
62.0185 5560 74.5654
62.1357 5641 75.1066
62.253 5833 76.3741
62.3702 6074 77.9359
62.4875 6034 77.6788
62.6049 5930 77.0065
62.7222 6119 78.224
62.8396 6110 78.1665
62.9569 6048 77.7689
63.0743 6001 77.4661
63.1918 5850 76.4853
63.3092 5473 73.9797
63.4267 5495 74.1283
63.5441 5395 73.4507
63.6616 5455 73.858
63.7791 5497 74.1418
63.8966 5498 74.1485
64.0142 5533 74.3841
64.1317 5562 74.5788
64.2492 5311 72.8766
64.3668 5224 72.2772
64.4843 4853 69.6635
64.6019 4595 67.7864
64.7195 4309 65.643
64.837 4058 63.7024
64.9546 4198 64.792
65.0722 4291 65.5057
65.1898 4431 66.5658
65.3074 4793 69.2315
65.4249 5102 71.4283
65.5425 5395 73.4507
65.6601 5589 74.7596
65.7777 5714 75.591
65.8952 5861 76.5572
66.0128 6016 77.5629
66.1304 6107 78.1473
66.2479 6195 78.7083
66.3655 6078 77.9615
66.483 6077 77.9551
66.6005 6065 77.8781
66.718 6095 78.0705
66.8355 5834 76.3806
66.953 5940 77.0714
67.0705 5767 75.9408
67.1879 5766 75.9342
67.3054 5673 75.3193
67.4228 5678 75.3525
67.5402 5823 76.3086
67.6576 5985 77.3628
67.7749 5722 75.6439
67.8923 5787 76.0723
68.0096 5470 73.9594
68.1269 5250 72.4569
68.2442 4987 70.6187
68.3614 4700 68.5565
68.4787 4585 67.7126
68.5958 4550 67.4537
68.713 4694 68.5128
68.8302 5037 70.9718
68.9473 5294 72.7599
69.0643 5844 76.4461
69.1814 5966 77.2399
69.2984 6573 81.074
69.4154 6772 82.2922
69.5323 6921 83.1925
69.6492 7079 84.1368
69.7661 7149 84.5518
69.8829 7200 84.8528
69.9997 7416 86.1162
70.1165 7374 85.872
70.2332 7418 86.1278
70.3499 7514 86.6833
70.4665 7302 85.4517
70.5831 7314 85.5219
70.6996 7064 84.0476
70.8161 7075 84.113
70.9326 7039 83.8987
71.049 7006 83.7019
71.1653 7125 84.4097
71.2817 7088 84.1903
71.3979 7122 84.3919
71.5141 6871 82.8915
71.6303 6458 80.3617
71.7464 5379 73.3417
71.8624 0 1
71.9784 0 1
72.0944 0 1
72.2102 0 1
72.3261 0 1
72.4418 0 1
72.5575 0 1
72.6732 0 1
75.1054 0 1
75.2209 0 1
75.3365 0 1
75.4521 0 1
75.5678 0 1
75.6835 0 1
75.7993 0 1
75.9151 0 1
76.031 0 1
76.147 7134 84.463
76.263 7607 87.2181
76.3791 7725 87.892
76.4952 8103 90.0167
76.6113 8187 90.482
76.7276 8393 91.6133
76.8438 8159 90.3272
76.9601 7761 88.0965
77.0765 7212 84.9235
77.1929 6586 81.1542
77.3093 5998 77.4468
77.4258 5586 74.7395
77.5423 5647 75.1465
77.6589 5741 75.7694
77.7755 6037 77.6981
77.8921 6753 82.1766
78.0088 7138 84.4867
78.1256 7715 87.8351
78.2423 8400 91.6515
78.3591 8718 93.3702
78.4759 9049 95.1262
78.5928 9122 95.5092
78.7097 9143 95.619
78.8266 8910 94.3928
78.9436 9595 97.9541
79.0606 9153 95.6713
79.1776 9158 95.6974
79.2946 9167 95.7445
79.4117 9094 95.3625
79.5288 8909 94.3875
79.6459 8759 93.5895
79.7631 8589 92.6769
79.8802 8537 92.3959
79.9974 8353 91.3947
80.1147 8444 91.8912
80.2319 8551 92.4716
80.3491 8975 94.7365
80.4664 8968 94.6995
80.5837 8556 92.4986
80.701 7642 87.4185
80.8183 7095 84.2318
80.9357 6468 80.4239
81.053 6009 77.5177
81.1704 5585 74.7329
81.2877 5755 75.8617
81.4051 5781 76.0329
81.5225 6260 79.1202
81.6399 7028 83.8332
81.7573 8011 89.5042
81.8747 8259 90.879
81.9922 8829 93.9628
82.1096 9005 94.8947
82.227 9103 95.4096
82.3444 9122 95.5092
82.4619 9252 96.1873
82.5793 9188 95.8541
82.6967 8998 94.8578
82.8142 9063 95.1998
82.9316 8917 94.4299
83.049 8799 93.803
83.1664 8489 92.1358
83.2838 8357 91.4166
83.4012 8313 91.1757
83.5186 8271 90.945
83.636 8168 90.377
83.7534 8279 90.989
83.8708 8455 91.9511
83.9881 8618 92.8332
84.1055 8343 91.34
84.2228 8133 90.1831
84.3401 7528 86.764
84.4575 7062 84.0357
84.5747 6435 80.2185
84.692 5867 76.5963
84.8093 5534 74.3909
84.9265 5819 76.2824
85.0437 6019 77.5822
85.1609 6676 81.7068
85.2781 7369 85.8429
85.3952 7983 89.3476
85.5123 8771 93.6536
85.6294 9402 96.9639
85.7465 9932 99.6594
85.8636 10175 100.871
85.9806 10278 101.38
86.0976 10294 101.459
86.2145 10655 103.223
86.3315 11010 104.929
86.4484 10243 101.208
86.5652 10726 103.566
86.682 10920 104.499
86.7988 10884 104.326
86.9156 10545 102.689
87.0323 10397 101.966
87.149 10567 102.796
87.2657 10536 102.645
87.3823 10984 104.805
87.4988 11237 106.005
87.6154 11426 106.892
87.7318 11013 104.943
87.8483 10670 103.296
87.9647 10085 100.424
88.081 9094 95.3625
88.1973 8352 91.3893
88.3136 7632 87.3613
88.4298 7776 88.1816
88.546 7759 88.0852
88.6621 8259 90.879
88.7781 9411 97.0103
88.8942 0 1
89.0101 0 1
89.126 0 1
89.2419 0 1
89.3577 0 1
89.4734 0 1
89.5891 0 1
89.7047 0 1
89.8203 0 1
89.9358 0 1
92.3269 0 1
92.4424 0 1
92.558 0 1
92.6736 0 1
92.7893 0 1
92.905 0 1
93.0208 0 1
93.1366 0 1
93.2525 0 1
93.3685 0 1
93.4845 0 1
93.6005 8699 93.2684
93.7167 8529 92.3526
93.8328 8447 91.9076
93.949 8898 94.3292
94.0653 9118 95.4882
94.1816 10249 101.237
94.2979 11389 106.719
94.4143 12302 110.914
94.5307 12886 113.517
94.6472 13418 115.836
94.7637 13945 118.089
94.8803 14264 119.432
94.9969 14328 119.7
95.1135 14304 119.599
95.2302 14483 120.345
95.3469 14542 120.59
95.4637 14214 119.222
95.5805 14336 119.733
95.6973 14450 120.208
95.8142 14175 119.059
95.9311 14321 119.67
96.048 14003 118.334
96.1649 13917 117.97
96.2819 13681 116.966
96.3989 13882 117.822
96.516 14000 118.322
96.633 14278 119.491
96.7501 14087 118.689
96.8673 13870 117.771
96.9844 12965 113.864
97.1016 12087 109.941
97.2188 10945 104.618
97.336 10186 100.926
97.4532 9076 95.268
97.5704 9003 94.8841
97.6877 8962 94.6678
97.805 9600 97.9796
97.9223 10767 103.764
98.0396 11755 108.42
98.1569 12425 111.467
98.2743 13275 115.217
98.3916 14074 118.634
98.509 14451 120.212
98.6264 14994 122.45
98.7438 14707 121.272
98.8612 15035 122.617
98.9786 15145 123.065
99.096 14888 122.016
99.2134 14845 121.84
99.3308 15049 122.674
99.4482 14933 122.201
99.5656 14847 121.848
99.6831 14694 121.219
99.8005 14101 118.748
99.9179 14140 118.912
100.035 14073 118.63
100.153 14731 121.371
100.27 14825 121.758
100.388 14843 121.832
100.505 14185 119.101
100.622 13214 114.952
100.74 12184 110.381
100.857 11239 106.014
100.975 10174 100.866
101.092 9601 97.9847
101.209 9337 96.6282
101.327 9560 97.7753
101.444 10383 101.897
101.561 11646 107.917
101.679 12731 112.832
101.796 13520 116.276
101.913 14471 120.295
102.03 14754 121.466
102.148 15325 123.794
102.265 15109 122.919
102.382 16212 127.326
102.499 15518 124.571
102.616 15707 125.328
102.733 15587 124.848
102.851 15447 124.286
102.968 15467 124.366
103.085 15581 124.824
103.202 15379 124.012
103.319 15140 123.045
103.436 14804 121.672
103.552 14703 121.256
103.669 15144 123.061
103.786 15676 125.204
103.903 15597 124.888
104.02 15025 122.577
104.137 14291 119.545
104.253 13216 114.961
104.37 12267 110.756
104.487 11164 105.66
104.603 10369 101.828
104.72 10143 100.712
104.836 10549 102.708
104.953 11243 106.033
105.069 12298 110.896
105.186 13457 116.004
105.302 14496 120.399
105.418 15634 125.036
105.535 16144 127.059
105.651 16353 127.879
105.767 16595 128.822
105.883 16709 129.263
105.999 16451 128.261
106.115 0 1
106.231 0 1
106.347 0 1
106.463 0 1
106.579 0 1
106.694 0 1
106.81 0 1
106.926 0 1
107.041 0 1
107.157 0 1
109.576 0 1
109.692 0 1
109.807 0 1
109.923 0 1
110.039 0 1
110.155 0 1
110.27 0 1
110.386 0 1
110.502 0 1
110.618 14577 120.735
110.735 14841 121.824
110.851 15338 123.847
110.967 15256 123.515
111.083 15436 124.242
111.199 15251 123.495
111.316 15152 123.093
111.432 15405 124.117
111.549 15213 123.341
111.665 15127 122.992
111.782 14693 121.215
111.898 14380 119.917
112.015 14475 120.312
112.132 14616 120.897
112.248 15056 122.703
112.365 14797 121.643
112.482 13920 117.983
112.599 13799 117.469
112.716 12699 112.69
112.832 11473 107.112
112.949 10572 102.82
113.066 9866 99.3277
113.183 9541 97.678
113.3 9626 98.1122
113.417 9859 99.2925
113.534 10701 103.446
113.652 11499 107.233
113.769 12188 110.399
113.886 13267 115.182
114.003 13976 118.22
114.12 14295 119.562
114.238 14302 119.591
114.355 14371 119.879
114.472 14425 120.104
114.589 14492 120.383
114.707 13916 117.966
114.824 13819 117.554
114.942 13909 117.936
115.059 14264 119.432
115.176 14135 118.891
115.294 13784 117.405
115.411 13751 117.265
115.529 13569 116.486
115.646 13795 117.452
115.764 13960 118.152
115.881 14115 118.807
115.999 13821 117.563
116.116 13444 115.948
116.234 12710 112.739
116.351 11964 109.38
116.469 11215 105.901
116.586 10305 101.514
116.704 9658 98.2751
116.821 9603 97.9949
116.939 9552 97.7343
117.056 9844 99.2169
117.174 10459 102.269
117.291 11276 106.189
117.409 12176 110.345
117.526 12779 113.044
117.644 13454 115.991
117.761 13631 116.752
117.879 13939 118.064
117.996 13704 117.064
118.114 13877 117.801
118.231 13910 117.941
118.349 13235 115.043
118.466 13517 116.263
118.584 13806 117.499
118.701 13635 116.769
118.819 13637 116.778
118.936 13334 115.473
119.053 13080 114.368
119.171 12910 113.622
119.288 13016 114.088
119.405 13404 115.776
119.523 13475 116.082
119.64 13210 114.935
119.757 12728 112.818
119.875 12391 111.315
119.992 11796 108.609
120.109 10990 104.833
120.226 10261 101.297
120.343 9433 97.1236
120.46 9250 96.1769
120.578 9105 95.4201
120.695 9503 97.4833
120.812 9759 98.7877
120.929 10423 102.093
121.046 11144 105.565
121.163 11780 108.536
121.279 12313 110.964
121.396 12618 112.33
121.513 12817 113.212
121.63 13257 115.139
121.747 13116 114.525
121.863 13288 115.274
121.98 12991 113.978
122.097 12683 112.619
122.213 12682 112.614
122.33 12616 112.321
122.446 12799 113.133
122.563 12644 112.446
122.679 12341 111.09
122.795 12158 110.263
122.912 12247 110.666
123.028 12287 110.847
123.144 12287 110.847
123.26 12279 110.811
123.377 0 1
123.493 0 1
123.609 0 1
123.725 0 1
123.84 0 1
123.956 0 1
124.072 0 1
124.188 0 1
124.303 0 1
124.419 0 1
126.852 0 1
126.968 0 1
127.083 0 1
127.199 0 1
127.315 0 1
127.431 0 1
127.547 0 1
127.663 0 1
127.779 0 1
127.895 0 1
128.011 0 1
128.127 0 1
128.243 0 1
128.359 12956 113.824
128.476 13065 114.302
128.592 12928 113.701
128.708 12622 112.348
128.825 12124 110.109
128.941 11579 107.606
129.058 11015 104.952
129.174 10315 101.563
129.291 10061 100.305
129.408 9959 99.7948
129.524 9914 99.5691
129.641 10280 101.39
129.758 10563 102.776
129.875 11471 107.103
129.992 11967 109.394
130.108 12579 112.156
130.225 12720 112.783
130.342 12859 113.398
130.459 12505 111.826
130.576 13156 114.7
130.693 12937 113.741
130.81 12635 112.406
130.928 12586 112.187
131.045 12433 111.503
131.162 12725 112.805
131.279 12974 113.903
131.396 12854 113.375
131.513 12782 113.058
131.631 12389 111.306
131.748 12666 112.543
131.865 12766 112.987
131.983 12857 113.389
132.1 12764 112.978
132.217 12734 112.845
132.335 12113 110.059
132.452 11435 106.935
132.57 11131 105.504
132.687 10069 100.344
132.804 10086 100.429
132.922 9661 98.2904
133.039 10028 100.14
133.157 9728 98.6306
133.274 10161 100.802
133.392 10602 102.966
133.509 11167 105.674
133.627 11705 108.19
133.744 11941 109.275
133.862 12029 109.677
133.979 12202 110.463
134.097 12258 110.716
134.214 12082 109.918
134.332 12184 110.381
134.449 11910 109.133
134.567 11651 107.94
134.684 12146 110.209
134.802 12331 111.045
134.919 12466 111.651
135.037 12277 110.802
135.154 11969 109.403
135.272 11955 109.339
135.389 12143 110.195
135.507 12318 110.986
135.624 12232 110.598
135.742 12036 109.709
135.859 11955 109.339
135.977 11418 106.855
136.094 10762 103.74
136.211 10420 102.078
136.329 10085 100.424
136.446 9782 98.904
136.564 9639 98.1784
136.681 9618 98.0714
136.798 9410 97.0052
136.915 9791 98.9495
137.033 10241 101.198
137.15 10705 103.465
137.267 11148 105.584
137.384 11290 106.254
137.502 11394 106.743
137.619 11525 107.355
137.736 11445 106.981
137.853 11278 106.198
137.97 11253 106.08
138.087 10828 104.058
138.204 11249 106.061
138.321 11571 107.569
138.438 11454 107.023
138.555 11842 108.821
138.672 11619 107.791
138.788 11436 106.939
138.905 11341 106.494
139.022 11703 108.18
139.139 11895 109.064
139.255 11649 107.931
139.372 11557 107.503
139.488 11299 106.297
139.605 11267 106.146
139.721 10744 103.653
139.838 10420 102.078
139.954 9975 99.8749
140.071 9507 97.5038
140.187 9617 98.0663
140.303 9030 95.0263
140.419 9335 96.6178
140.535 9403 96.9691
140.652 9380 96.8504
140.768 0 1
140.884 0 1
141 0 1
141.115 0 1
141.231 0 1
141.347 0 1
141.463 0 1
141.578 0 1
141.694 0 1
144.104 0 1
144.219 0 1
144.335 0 1
144.45 0 1
144.566 0 1
144.682 0 1
144.798 0 1
144.914 0 1
145.03 0 1
145.146 6392 79.95
145.262 7015 83.7556
145.378 7247 85.1293
145.494 7376 85.8836
145.61 7549 86.885
145.726 7757 88.0738
145.842 7859 88.651
145.959 8095 89.9722
146.075 8327 91.2524
146.192 8343 91.34
146.308 8419 91.7551
146.425 8559 92.5149
146.541 8463 91.9946
146.658 8181 90.4489
146.774 8066 89.8109
146.891 8189 90.4931
147.008 8336 91.3017
147.125 8298 91.0934
147.241 8645 92.9785
147.358 8827 93.9521
147.475 8658 93.0484
147.592 8654 93.0269
147.709 8740 93.488
147.826 8990 94.8156
147.943 8913 94.4087
148.06 8840 94.0213
148.177 8736 93.4666
148.294 8569 92.5689
148.411 8327 91.2524
148.528 8305 91.1318
148.645 8020 89.5545
148.762 7836 88.5212
148.88 7696 87.7268
148.997 7379 85.9011
149.114 7769 88.1419
149.231 7535 86.8044
149.349 7586 87.0976
149.466 7848 88.5889
149.583 8044 89.6883
149.701 8043 89.6828
149.818 8151 90.2829
149.935 8336 91.3017
150.053 8554 92.4878
150.17 8589 92.6769
150.287 8561 92.5257
150.405 8464 92
150.522 8201 90.5594
150.64 8139 90.2164
150.757 8261 90.89
150.875 8333 91.2853
150.992 8568 92.5635
151.11 8821 93.9202
151.227 8721 93.3863
151.344 8599 92.7308
151.462 8610 92.7901
151.579 8869 94.1754
151.697 9026 95.0053
151.814 8812 93.8723
151.932 8732 93.4452
152.049 8607 92.7739
152.167 8393 91.6133
152.284 8332 91.2798
152.402 8103 90.0167
152.519 7955 89.1908
152.636 7765 88.1192
152.754 7583 87.0804
152.871 7526 86.7525
152.989 7736 87.9545
153.106 7861 88.6623
153.223 8104 90.0222
153.341 8090 89.9444
153.458 8321 91.2195
153.575 8645 92.9785
153.693 8610 92.7901
153.81 8502 92.2063
153.927 8406 91.6842
154.044 8450 91.9239
154.162 8196 90.5318
154.279 8359 91.4276
154.396 8403 91.6679
154.513 8775 93.675
154.63 8870 94.1807
154.747 9280 96.3328
154.864 9052 95.142
154.981 9157 95.6922
155.098 9103 95.4096
155.215 9054 95.1525
155.332 9120 95.4987
155.449 8940 94.5516
155.566 8842 94.0319
155.683 8847 94.0585
155.8 8748 93.5307
155.917 8438 91.8586
156.033 8484 92.1086
156.15 0 1
156.267 0 1
156.383 0 1
156.5 0 1
156.617 0 1
156.733 0 1
156.85 0 1
156.966 0 1
157.082 0 1
157.199 0 1
157.315 0 1
157.431 0 1
157.547 0 1
157.664 0 1
157.78 0 1
157.896 0 1
158.012 0 1
158.128 0 1
158.244 0 1
158.359 0 1
158.475 0 1
158.591 0 1
158.706 0 1
