
6.15755 0 1
6.2731 0 1
6.3887 0 1
6.50437 0 1
6.62009 0 1
6.73587 0 1
6.8517 0 1
6.96759 0 1
7.08353 0 1
7.19952 0 1
7.31557 0 1
7.43166 0 1
7.54781 0 1
7.664 0 1
7.78024 0 1
7.89653 0 1
8.01286 0 1
8.12924 0 1
8.24567 0 1
8.36213 0 1
8.47864 0 1
8.59519 0 1
8.71178 0 1
8.82841 0 1
8.94508 0 1
9.06179 0 1
9.17853 0 1
9.29531 0 1
9.41212 0 1
9.52897 0 1
9.64584 0 1
9.76276 0 1
9.8797 0 1
9.99667 0 1
10.1137 0 1
10.2307 0 1
10.3478 0 1
10.4648 0 1
10.5819 0 1
10.6991 0 1
10.8162 0 1
10.9334 0 1
11.0506 0 1
11.1678 0 1
11.285 0 1
11.4023 0 1
11.5196 0 1
11.6369 0 1
11.7542 0 1
11.8715 0 1
11.9888 0 1
12.1062 0 1
12.2235 0 1
12.3409 0 1
12.4582 0 1
12.5756 0 1
12.693 0 1
12.8104 0 1
12.9278 0 1
13.0452 0 1
13.1626 0 1
13.28 0 1
13.3974 0 1
13.5149 0 1
13.6323 0 1
13.7497 0 1
13.8671 0 1
13.9845 0 1
14.1019 0 1
14.2193 0 1
14.3367 0 1
14.4541 0 1
14.5714 0 1
14.6888 0 1
14.8062 0 1
14.9235 0 1
15.0408 0 0
15.1581 0 0
15.2755 0 0
15.3927 0 0
15.51 0 0
15.6273 0 0
15.7445 0 0
15.8617 0 0
15.9789 0 0
16.0961 0 0
16.2132 0 0
16.3304 0 0
16.4475 0 0
16.5646 0 0
16.6816 0 0
16.7986 0 0
16.9156 0 0
17.0326 0 0
17.1496 0 0
17.2665 0 0
17.3833 0 0
17.5002 0 0
17.617 0 0
17.7338 0 0
17.8505 0 0
17.9672 0 0
18.0839 0 0
18.2005 0 0
18.3171 0 0
18.4337 0 0
18.5502 0 0
18.6666 0 0
18.7831 0 0
18.8994 0 0
19.0158 0 0
19.1321 0 0
19.2483 0 0
19.3645 0 0
19.4806 0 0
19.5967 0 0
19.7128 0 0
19.8288 0 0
19.9447 0 0
20.0606 0 1
20.1764 0 1
20.2922 0 1
20.4079 0 1
20.5236 0 1
20.6392 0 1
20.7548 0 1
20.8702 0 1
23.3078 0 1
23.4233 0 1
23.539 0 1
23.6547 0 1
23.7704 0 1
23.8862 0 1
24.0021 0 1
24.118 0 1
24.234 0 1
24.35 0 1
24.4661 22592 150.306
24.5822 22726 150.751
24.6984 22464 149.88
24.8146 22072 148.566
24.9309 21952 148.162
25.0472 21703 147.319
25.1636 21560 146.833
25.28 21779 147.577
25.3965 22828 151.089
25.513 23384 152.918
25.6296 24611 156.879
25.7462 25373 159.289
25.8628 25316 159.11
25.9795 25501 159.69
26.0962 25597 159.991
26.213 25546 159.831
26.3298 24686 157.118
26.4466 23887 154.554
26.5635 22991 151.628
26.6804 22323 149.409
26.7973 22863 151.205
26.9143 23527 153.385
27.0313 24087 155.2
27.1483 24774 157.398
27.2653 25158 158.613
27.3824 25473 159.603
27.4996 25684 160.262
27.6167 25067 158.326
27.7339 24969 158.016
27.8511 24579 156.777
27.9683 24409 156.234
28.0855 23748 154.104
28.2028 23045 151.806
28.3201 22995 151.641
28.4374 21883 147.929
28.5547 21328 146.041
28.6721 20627 143.621
28.7894 21144 145.41
28.9068 21634 147.085
29.0242 22315 149.382
29.1416 22905 151.344
29.259 23581 153.561
29.3764 24511 156.56
29.4939 24120 155.306
29.6113 24294 155.865
29.7288 23933 154.703
29.8463 23446 153.121
29.9638 22733 150.775
30.0812 21609 147
30.1987 21243 145.75
30.3162 21491 146.598
30.4337 22328 149.426
30.5512 23268 152.539
30.6687 23393 152.948
30.7862 24121 155.309
30.9037 24780 157.417
31.0212 25054 158.285
31.1387 24722 157.232
31.2562 24695 157.146
31.3737 24113 155.284
31.4912 23929 154.69
31.6087 23469 153.196
31.7262 23044 151.803
31.8436 22758 150.858
31.9611 21958 148.182
32.0785 20975 144.827
32.1959 20731 143.983
32.3134 20761 144.087
32.4308 21194 145.582
32.5482 21846 147.804
32.6655 22569 150.23
32.7829 23407 152.993
32.9002 23662 153.825
33.0176 23883 154.541
33.1349 23864 154.48
33.2522 23718 154.006
33.3694 24149 155.399
33.4867 23369 152.869
33.6039 22585 150.283
33.7211 21849 147.814
33.8383 21024 144.997
33.9554 21018 144.976
34.0725 21590 146.935
34.1896 22706 150.685
34.3067 23285 152.594
34.4237 23677 153.873
34.5407 24410 156.237
34.6577 24481 156.464
34.7746 24359 156.074
34.8915 24364 156.09
35.0084 24037 155.039
35.1252 23720 154.013
35.242 23152 152.158
35.3587 23108 152.013
35.4755 22801 151
35.5921 22352 149.506
35.7088 21122 145.334
35.8254 20778 144.146
35.9419 20237 142.257
36.0584 20764 144.097
36.1749 20819 144.288
36.2913 21344 146.096
36.4077 22013 148.368
36.524 22546 150.153
36.6403 23126 152.072
36.7565 23647 153.776
36.8727 23429 153.065
36.9889 23567 153.515
37.1049 22850 151.162
37.221 0 1
37.3369 0 1
37.4529 0 1
37.5687 0 1
37.6845 0 1
37.8003 0 1
37.916 0 1
38.0316 0 1
38.1472 0 1
40.5851 0 1
40.7008 0 1
40.8164 0 1
40.9322 0 1
41.048 0 1
41.1639 0 1
41.2798 0 1
41.3958 0 1
41.5118 0 1
41.6279 0 1
41.744 18495 135.996
41.8602 19185 138.51
41.9765 19569 139.889
42.0928 20098 141.767
42.2091 19985 141.368
42.3255 19303 138.935
42.4419 18642 136.536
42.5584 17726 133.139
42.675 17703 133.053
42.7915 17883 133.727
42.9081 18878 137.397
43.0248 19434 139.406
43.1415 19859 140.922
43.2582 20049 141.594
43.375 20461 143.042
43.4918 20506 143.199
43.6087 20150 141.951
43.7256 20386 142.78
43.8425 19886 141.018
43.9595 19799 140.709
44.0765 19248 138.737
44.1935 18761 136.971
44.3106 18200 134.907
44.4277 17658 132.883
44.5448 16394 128.039
44.6619 15824 125.793
44.7791 15609 124.936
44.8963 15687 125.248
45.0136 16224 127.373
45.1308 16503 128.464
45.2481 17116 130.828
45.3654 17172 131.042
45.4827 17294 131.507
45.6001 17154 130.973
45.7174 17105 130.786
45.8348 16817 129.68
45.9522 16062 126.736
46.0697 15325 123.794
46.1871 14628 120.946
46.3046 14275 119.478
46.422 14903 122.078
46.5395 15451 124.302
46.657 15800 125.698
46.7745 16010 126.531
46.892 16162 127.13
47.0096 16390 128.023
47.1271 16252 127.483
47.2446 16002 126.499
47.3622 15663 125.152
47.4797 15745 125.479
47.5973 15151 123.089
47.7149 14942 122.237
47.8324 14347 119.779
47.95 13332 115.464
48.0675 13294 115.3
48.1851 12122 110.1
48.3027 11932 109.234
48.4202 12083 109.923
48.5378 12337 111.072
48.6554 12545 112.004
48.7729 13204 114.909
48.8904 13382 115.681
49.008 13619 116.7
49.1255 13690 117.004
49.243 13510 116.233
49.3605 13253 115.122
49.478 12614 112.312
49.5955 12199 110.449
49.713 11863 108.917
49.8304 11752 108.407
49.9479 12444 111.553
50.0653 13222 114.987
50.1827 14053 118.545
50.3001 14887 122.012
50.4175 15035 122.617
50.5348 15708 125.332
50.6521 15829 125.813
50.7694 16258 127.507
50.8867 16533 128.581
51.004 16653 129.047
51.1212 16481 128.378
51.2384 16506 128.476
51.3556 16523 128.542
51.4727 16171 127.165
51.5899 15605 124.92
51.707 14964 122.327
51.824 15236 123.434
51.9411 15670 125.18
52.0581 16292 127.64
52.175 17200 131.149
52.2919 17896 133.776
52.4088 18555 136.217
52.5257 18852 137.303
52.6425 19324 139.011
52.7593 19545 139.803
52.876 19749 140.531
52.9927 19217 138.625
53.1094 18704 136.763
53.226 17896 133.776
53.3426 17337 131.67
53.4591 17702 133.049
53.5756 18651 136.569
53.692 20348 142.646
53.8084 21477 146.55
53.9248 22305 149.349
54.0411 22437 149.79
54.1573 23222 152.388
54.2735 0 1
54.3896 0 1
54.5057 0 1
54.6217 0 1
54.7377 0 1
54.8537 0 1
54.9695 0 1
55.0853 0 1
55.2011 0 1
55.3168 0 1
55.4324 0 1
57.824 0 1
57.9396 0 1
58.0553 0 1
58.1711 0 1
58.2869 0 1
58.4028 0 1
58.5187 0 1
58.6347 0 1
58.7508 0 1
58.8669 0 1
58.983 24943 157.934
59.0992 26004 161.258
59.2155 26585 163.049
59.3318 27581 166.075
59.4482 27885 166.988
59.5646 27850 166.883
59.681 27556 166
59.7975 27356 165.396
59.9141 26326 162.253
60.0306 25571 159.909
60.1473 24823 157.553
60.2639 23363 152.85
60.3807 22012 148.364
60.4974 21131 145.365
60.6142 21104 145.272
60.731 21571 146.871
60.8479 22229 149.094
60.9648 23086 151.941
61.0818 23802 154.279
61.1987 24216 155.615
61.3158 24134 155.351
61.4328 23839 154.399
61.5499 23277 152.568
61.667 22116 148.714
61.7841 21181 145.537
61.9013 20650 143.701
62.0185 20386 142.78
62.1357 21214 145.65
62.253 22420 149.733
62.3702 23263 152.522
62.4875 23859 154.464
62.6049 24579 156.777
62.7222 25552 159.85
62.8396 25250 158.902
62.9569 25580 159.937
63.0743 25967 161.143
63.1918 25304 159.072
63.3092 24589 156.809
63.4267 24159 155.432
63.5441 23143 152.128
63.6616 22455 149.85
63.7791 20921 144.641
63.8966 19649 140.175
64.0142 19020 137.913
64.1317 18591 136.349
64.2492 18870 137.368
64.3668 20005 141.439
64.4843 20816 144.278
64.6019 21266 145.829
64.7195 22029 148.422
64.837 21807 147.672
64.9546 21914 148.034
65.0722 21166 145.485
65.1898 20285 142.425
65.3074 19543 139.796
65.4249 18675 136.657
65.5425 18251 135.096
65.6601 18715 136.803
65.7777 19938 141.202
65.8952 21141 145.399
66.0128 21913 148.03
66.1304 22689 150.629
66.2479 23387 152.928
66.3655 23516 153.349
66.483 24110 155.274
66.6005 24321 155.952
66.718 24126 155.325
66.8355 24025 155
66.953 23474 153.212
67.0705 23049 151.819
67.1879 21700 147.309
67.3054 20769 144.115
67.4228 19739 140.496
67.5402 18533 136.136
67.6576 17924 133.881
67.7749 18086 134.484
67.8923 18347 135.451
68.0096 19581 139.932
68.1269 20509 143.21
68.2442 21209 145.633
68.3614 22152 148.835
68.4787 22305 149.349
68.5958 22072 148.566
68.713 21908 148.014
68.8302 21143 145.406
68.9473 19974 141.329
69.0643 19100 138.203
69.1814 18461 135.871
69.2984 19200 138.564
69.4154 20580 143.457
69.5323 22221 149.067
69.6492 23268 152.539
69.7661 24145 155.387
69.8829 25248 158.896
69.9997 25691 160.284
70.1165 25961 161.124
70.2332 26541 162.914
70.3499 26309 162.2
70.4665 26177 161.793
70.5831 25415 159.421
70.6996 24925 157.877
70.8161 24234 155.673
70.9326 23091 151.957
71.049 21731 147.414
71.1653 20063 141.644
71.2817 19144 138.362
71.3979 18269 135.163
71.5141 18591 136.349
71.6303 19065 138.076
71.7464 18732 136.865
71.8624 0 1
71.9784 0 1
72.0944 0 1
72.2102 0 1
72.3261 0 1
72.4418 0 1
72.5575 0 1
72.6732 0 1
75.1054 0 1
75.2209 0 1
75.3365 0 1
75.4521 0 1
75.5678 0 1
75.6835 0 1
75.7993 0 1
75.9151 0 1
76.031 0 1
76.147 21960 148.189
76.263 23308 152.67
76.3791 22772 150.904
76.4952 21145 145.413
76.6113 19635 140.125
76.7276 19196 138.55
76.8438 19752 140.542
76.9601 20384 142.773
77.0765 21778 147.574
77.1929 23244 152.46
77.3093 24442 156.339
77.4258 24516 156.576
77.5423 24433 156.311
77.6589 24168 155.461
77.7755 23317 152.699
77.8921 21764 147.526
78.0088 20618 143.59
78.1256 19657 140.203
78.2423 18938 137.615
78.3591 19188 138.521
78.4759 20669 143.767
78.5928 22656 150.519
78.7097 23201 152.319
78.8266 24336 156
78.9436 25466 159.581
79.0606 25475 159.609
79.1776 25877 160.863
79.2946 26322 162.241
79.4117 25912 160.972
79.5288 25750 160.468
79.6459 25340 159.185
79.7631 24085 155.193
79.8802 23203 152.325
79.9974 22047 148.482
80.1147 20513 143.224
80.2319 18579 136.305
80.3491 17837 133.555
80.4664 18124 134.625
80.5837 18747 136.92
80.701 19860 140.926
80.8183 20939 144.703
80.9357 22087 148.617
81.053 21887 147.943
81.1704 22288 149.292
81.2877 22327 149.422
81.4051 21425 146.373
81.5225 20514 143.227
81.6399 18660 136.602
81.7573 18207 134.933
81.8747 17262 131.385
81.9922 17318 131.598
82.1096 18805 137.131
82.227 19899 141.064
82.3444 20840 144.361
82.4619 22287 149.288
82.5793 22904 151.341
82.6967 22668 150.559
82.8142 22689 150.629
82.9316 23164 152.197
83.049 22738 150.791
83.1664 22348 149.492
83.2838 21656 147.16
83.4012 20850 144.395
83.5186 20145 141.933
83.636 19086 138.152
83.7534 18007 134.19
83.8708 16282 127.601
83.9881 15610 124.94
84.1055 15560 124.74
84.2228 16207 127.307
84.3401 17277 131.442
84.4575 18768 136.996
84.5747 19631 140.111
84.692 20190 142.092
84.8093 20631 143.635
84.9265 20074 141.683
85.0437 19298 138.917
85.1609 18392 135.617
85.2781 17133 130.893
85.3952 16512 128.499
85.5123 16238 127.428
85.6294 17402 131.917
85.7465 18739 136.89
85.8636 20462 143.045
85.9806 21752 147.486
86.0976 22705 150.682
86.2145 23399 152.967
86.3315 24136 155.358
86.4484 24974 158.032
86.5652 24952 157.962
86.682 25146 158.575
86.7988 24936 157.911
86.9156 24328 155.974
87.0323 23511 153.333
87.149 22922 151.4
87.2657 22253 149.174
87.3823 20695 143.858
87.4988 19128 138.304
87.6154 18980 137.768
87.7318 19662 140.221
87.8483 20958 144.769
87.9647 22501 150.003
88.081 24078 155.171
88.1973 24906 157.816
88.3136 25056 158.291
88.4298 25132 158.531
88.546 24347 156.035
88.6621 23299 152.64
88.7781 22183 148.94
88.8942 0 1
89.0101 0 1
89.126 0 1
89.2419 0 1
89.3577 0 1
89.4734 0 1
89.5891 0 1
89.7047 0 1
89.8203 0 1
89.9358 0 1
92.3269 0 1
92.4424 0 1
92.558 0 1
92.6736 0 1
92.7893 0 1
92.905 0 1
93.0208 0 1
93.1366 0 1
93.2525 0 1
93.3685 0 1
93.4845 0 1
93.6005 35834 189.299
93.7167 37699 194.162
93.8328 38965 197.396
93.949 39163 197.896
94.0653 38947 197.35
94.1816 38166 195.361
94.2979 36866 192.005
94.4143 36481 191
94.5307 36222 190.321
94.6472 37113 192.647
94.7637 39598 198.992
94.8803 43088 207.576
94.9969 46316 215.212
95.1135 48451 220.116
95.2302 51027 225.892
95.3469 52903 230.007
95.4637 54031 232.446
95.5805 55384 235.338
95.6973 56713 238.145
95.8142 57497 239.785
95.9311 56603 237.914
96.048 56526 237.752
96.1649 55115 234.766
96.2819 53866 232.09
96.3989 51680 227.332
96.516 48684 220.645
96.633 45707 213.792
96.7501 43894 209.509
96.8673 45397 213.066
96.9844 47545 218.048
97.1016 50713 225.195
97.2188 54330 233.088
97.336 56246 237.162
97.4532 56768 238.26
97.5704 56383 237.451
97.6877 54858 234.218
97.805 52268 228.622
97.9223 48507 220.243
98.0396 45029 212.2
98.1569 43043 207.468
98.2743 42607 206.415
98.3916 44245 210.345
98.509 48236 219.627
98.6264 50665 225.089
98.7438 53156 230.556
98.8612 54659 233.793
98.9786 56382 237.449
99.096 57283 239.339
99.2134 57514 239.821
99.3308 58348 241.553
99.4482 58221 241.29
99.5656 57392 239.566
99.6831 56453 237.598
99.8005 54255 232.927
99.9179 53279 230.822
100.035 50275 224.221
100.153 47444 217.816
100.27 44121 210.05
100.388 43830 209.356
100.505 45487 213.277
100.622 49142 221.68
100.74 52473 229.07
100.857 53502 231.305
100.975 54615 233.699
101.092 53884 232.129
101.209 53579 231.471
101.327 51649 227.264
101.444 48265 219.693
101.561 44065 209.917
101.679 41641 204.061
101.796 39273 198.174
101.913 38933 197.314
102.03 41242 203.081
102.148 43646 208.916
102.265 48680 220.635
102.382 44233 210.316
102.499 47272 217.421
102.616 47592 218.156
102.733 47717 218.442
102.851 47072 216.961
102.968 45684 213.738
103.085 44617 211.227
103.202 42487 206.124
103.319 40774 201.926
103.436 38935 197.32
103.552 36533 191.136
103.669 33347 182.612
103.786 30543 174.766
103.903 29001 170.297
104.02 29031 170.385
104.137 30269 173.98
104.253 32111 179.195
104.37 31384 177.155
104.487 32326 179.794
104.603 32000 178.885
104.72 30867 175.69
104.836 29670 172.25
104.953 27840 166.853
105.069 25500 159.687
105.186 24447 156.355
105.302 23541 153.431
105.418 23685 153.899
105.535 25464 159.574
105.651 27373 165.448
105.767 29107 170.608
105.883 30239 173.894
105.999 31388 177.167
106.115 0 1
106.231 0 1
106.347 0 1
106.463 0 1
106.579 0 1
106.694 0 1
106.81 0 1
106.926 0 1
107.041 0 1
107.157 0 1
109.576 0 1
109.692 0 1
109.807 0 1
109.923 0 1
110.039 0 1
110.155 0 1
110.27 0 1
110.386 0 1
110.502 0 1
110.618 24015 154.968
110.735 26397 162.472
110.851 28166 167.827
110.967 29066 170.488
111.083 30080 173.436
111.199 30337 174.175
111.316 30991 176.043
111.432 31257 176.796
111.549 31038 176.176
111.665 30671 175.131
111.782 29438 171.575
111.898 28398 168.517
112.015 27572 166.048
112.132 26173 161.781
112.248 24740 157.29
112.365 23129 152.082
112.482 22835 151.113
112.599 23292 152.617
112.716 24799 157.477
112.832 26118 161.611
112.949 26906 164.03
113.066 27176 164.851
113.183 27288 165.191
113.3 26420 162.542
113.417 25708 160.337
113.534 24571 156.751
113.652 23484 153.245
113.769 22593 150.31
113.886 22439 149.797
114.003 22177 148.919
114.12 24252 155.731
114.238 26044 161.382
114.355 27578 166.066
114.472 30270 173.983
114.589 27936 167.141
114.707 30074 173.419
114.824 30762 175.391
114.942 30822 175.562
115.059 30965 175.969
115.176 30480 174.585
115.294 29997 173.196
115.411 29113 170.625
115.529 28212 167.964
115.646 27510 165.861
115.764 26153 161.719
115.881 24405 156.221
115.999 23428 153.062
116.116 23661 153.821
116.234 24709 157.191
116.351 26316 162.222
116.469 27381 165.472
116.586 27467 165.732
116.704 27732 166.529
116.821 27536 165.94
116.939 27085 164.575
117.056 26134 161.66
117.174 25178 158.676
117.291 24164 155.448
117.409 23393 152.948
117.526 23346 152.794
117.644 24348 156.038
117.761 26125 161.632
117.879 27721 166.496
117.996 28960 170.176
118.114 30005 173.22
118.231 30757 175.377
118.349 30791 175.474
118.466 30861 175.673
118.584 31819 178.379
118.701 31565 177.665
118.819 30736 175.317
118.936 30217 173.83
119.053 29812 172.662
119.171 28712 169.446
119.288 27491 165.804
119.405 25980 161.183
119.523 24285 155.836
119.64 23780 154.208
119.757 24190 155.531
119.875 24710 157.194
119.992 26384 162.432
120.109 27503 165.84
120.226 27881 166.976
120.343 27971 167.245
120.46 27755 166.598
120.578 27266 165.124
120.695 26678 163.334
120.812 25831 160.72
120.929 24545 156.668
121.046 24292 155.859
121.163 23572 153.532
121.279 24124 155.319
121.396 25458 159.556
121.513 27307 165.248
121.63 28178 167.863
121.747 29670 172.25
121.863 30156 173.655
121.98 30655 175.086
122.097 31477 177.418
122.213 31143 176.474
122.33 31076 176.284
122.446 30972 175.989
122.563 30462 174.534
122.679 29892 172.893
122.795 29014 170.335
122.912 28130 167.72
123.028 27292 165.203
123.144 25667 160.209
123.26 24192 155.538
123.377 0 1
123.493 0 1
123.609 0 1
123.725 0 1
123.84 0 1
123.956 0 1
124.072 0 1
124.188 0 1
124.303 0 1
124.419 0 1
126.852 0 1
126.968 0 1
127.083 0 1
127.199 0 1
127.315 0 1
127.431 0 1
127.547 0 1
127.663 0 1
127.779 0 1
127.895 0 1
128.011 0 1
128.127 0 1
128.243 0 1
128.359 28939 170.115
128.476 27528 165.916
128.592 26500 162.788
128.708 26772 163.622
128.825 27507 165.852
128.941 29131 170.678
129.058 30432 174.448
129.174 30758 175.38
129.291 30636 175.031
129.408 30242 173.902
129.524 30280 174.011
129.641 29008 170.317
129.758 27870 166.943
129.875 27010 164.347
129.992 26608 163.12
130.108 26086 161.512
130.225 26196 161.852
130.342 27471 165.744
130.459 28515 168.864
130.576 30575 174.857
130.693 31117 176.4
130.81 31659 177.93
130.928 32072 179.087
131.045 32300 179.722
131.162 32289 179.691
131.279 32641 180.668
131.396 32356 179.878
131.513 31867 178.513
131.631 31325 176.989
131.748 30541 174.76
131.865 29763 172.52
131.983 28227 168.009
132.1 26977 164.247
132.217 26652 163.254
132.335 27126 164.7
132.452 28071 167.544
132.57 29793 172.606
132.687 29127 170.666
132.804 31231 176.723
132.922 30213 173.819
133.039 30221 173.842
133.157 29730 172.424
133.274 28440 168.642
133.392 27100 164.621
133.509 26666 163.297
133.627 26220 161.926
133.744 26148 161.703
133.862 26839 163.826
133.979 28460 168.701
134.097 29792 172.604
134.214 30393 174.336
134.332 30818 175.551
134.449 31270 176.833
134.567 31821 178.384
134.684 32063 179.061
134.802 32198 179.438
134.919 32482 180.228
135.037 32229 179.524
135.154 31699 178.042
135.272 30949 175.923
135.389 30268 173.977
135.507 29131 170.678
135.624 27529 165.919
135.742 26857 163.881
135.859 26997 164.308
135.977 27800 166.733
136.094 29198 170.874
136.211 29809 172.653
136.329 30773 175.422
136.446 30621 174.989
136.564 30247 173.917
136.681 30073 173.416
136.798 29735 172.438
136.915 28334 168.327
137.033 27453 165.689
137.15 26628 163.181
137.267 26008 161.27
137.384 25898 160.929
137.502 26683 163.349
137.619 28026 167.41
137.736 29112 170.622
137.853 29131 170.678
137.97 30750 175.357
138.087 30134 173.591
138.204 31617 177.812
138.321 31727 178.121
138.438 32038 178.992
138.555 32640 180.665
138.672 32560 180.444
138.788 32242 179.561
138.905 31417 177.248
139.022 30605 174.943
139.139 30158 173.661
139.255 28259 168.104
139.372 27633 166.232
139.488 27614 166.175
139.605 28413 168.562
139.721 29558 171.924
139.838 30870 175.699
139.954 30911 175.815
140.071 30325 174.141
140.187 30979 176.009
140.303 29901 172.919
140.419 29570 171.959
140.535 28470 168.731
140.652 26996 164.305
140.768 0 1
140.884 0 1
141 0 1
141.115 0 1
141.231 0 1
141.347 0 1
141.463 0 1
141.578 0 1
141.694 0 1
144.104 0 1
144.219 0 1
144.335 0 1
144.45 0 1
144.566 0 1
144.682 0 1
144.798 0 1
144.914 0 1
145.03 0 1
145.146 27475 165.756
145.262 28096 167.619
145.378 27770 166.643
145.494 27157 164.794
145.61 26010 161.276
145.726 25203 158.755
145.842 25078 158.36
145.959 24679 157.096
146.075 24734 157.27
146.192 25493 159.665
146.308 26747 163.545
146.425 27352 165.384
146.541 27827 166.814
146.658 28394 168.505
146.774 28763 169.597
146.891 29143 170.713
147.008 29186 170.839
147.125 29743 172.462
147.241 29852 172.777
147.358 29705 172.351
147.475 29201 170.883
147.592 28649 169.26
147.709 27825 166.808
147.826 27125 164.697
147.943 25938 161.053
148.06 25197 158.736
148.177 25986 161.202
148.294 26780 163.646
148.411 27958 167.206
148.528 28737 169.52
148.645 28453 168.68
148.762 28644 169.245
148.88 28474 168.742
148.997 28055 167.496
149.114 28411 168.556
149.231 27188 164.888
149.349 26225 161.941
149.466 25207 158.767
149.583 25041 158.243
149.701 24499 156.522
149.818 25559 159.872
149.935 26339 162.293
150.053 27271 165.139
150.17 27991 167.305
150.287 28425 168.597
150.405 29068 170.493
150.522 29296 171.161
150.64 30131 173.583
150.757 30445 174.485
150.875 30386 174.316
150.992 30222 173.845
151.11 29656 172.209
151.227 29380 171.406
151.344 28758 169.582
151.462 27330 165.318
151.579 26648 163.242
151.697 26002 161.251
151.814 26759 163.582
151.932 27689 166.4
152.049 28373 168.443
152.167 29175 170.807
152.284 29537 171.863
152.402 29320 171.231
152.519 29509 171.782
152.636 28883 169.95
152.754 28205 167.943
152.871 27298 165.221
152.989 26617 163.147
153.106 25562 159.881
153.223 25010 158.146
153.341 25686 160.269
153.458 26090 161.524
153.575 27544 165.964
153.693 27901 167.036
153.81 28467 168.722
153.927 29003 170.303
154.044 29687 172.299
154.162 30052 173.355
154.279 30780 175.442
154.396 31407 177.22
154.513 31809 178.351
154.63 31221 176.695
154.747 31049 176.207
154.864 29999 173.202
154.981 29813 172.664
155.098 28921 170.062
155.215 27681 166.376
155.332 27261 165.109
155.449 27817 166.784
155.566 28700 169.411
155.683 29673 172.259
155.8 30043 173.329
155.917 29855 172.786
156.033 29669 172.247
156.15 0 1
156.267 0 1
156.383 0 1
156.5 0 1
156.617 0 1
156.733 0 1
156.85 0 1
156.966 0 1
157.082 0 1
157.199 0 1
157.315 0 1
157.431 0 1
157.547 0 1
157.664 0 1
157.78 0 1
157.896 0 1
158.012 0 1
158.128 0 1
158.244 0 1
158.359 0 1
158.475 0 1
158.591 0 1
158.706 0 1
