
6.15755 0 1
6.2731 0 1
6.3887 0 1
6.50437 0 1
6.62009 0 1
6.73587 0 1
6.8517 0 1
6.96759 0 1
7.08353 0 1
7.19952 0 1
7.31557 0 1
7.43166 0 1
7.54781 0 1
7.664 0 1
7.78024 0 1
7.89653 0 1
8.01286 0 1
8.12924 0 1
8.24567 0 1
8.36213 0 1
8.47864 0 1
8.59519 0 1
8.71178 0 1
8.82841 0 1
8.94508 0 1
9.06179 0 1
9.17853 0 1
9.29531 0 1
9.41212 0 1
9.52897 0 1
9.64584 0 1
9.76276 0 1
9.8797 0 1
9.99667 0 1
10.1137 0 1
10.2307 0 1
10.3478 0 1
10.4648 0 1
10.5819 0 1
10.6991 0 1
10.8162 0 1
10.9334 0 1
11.0506 0 1
11.1678 0 1
11.285 0 1
11.4023 0 1
11.5196 0 1
11.6369 0 1
11.7542 0 1
11.8715 0 1
11.9888 0 1
12.1062 0 1
12.2235 0 1
12.3409 0 1
12.4582 0 1
12.5756 0 1
12.693 0 1
12.8104 0 1
12.9278 0 1
13.0452 0 1
13.1626 0 1
13.28 0 1
13.3974 0 1
13.5149 0 1
13.6323 0 1
13.7497 0 1
13.8671 0 1
13.9845 0 1
14.1019 0 1
14.2193 0 1
14.3367 0 1
14.4541 0 1
14.5714 0 1
14.6888 0 1
14.8062 0 1
14.9235 0 1
15.0408 1114 33.3766
15.1581 1115 33.3916
15.2755 1206 34.7275
15.3927 1255 35.426
15.51 1217 34.8855
15.6273 1152 33.9411
15.7445 1214 34.8425
15.8617 1163 34.1028
15.9789 1170 34.2053
16.0961 1179 34.3366
16.2132 1219 34.9142
16.3304 1128 33.5857
16.4475 1274 35.6931
16.5646 1294 35.9722
16.6816 1338 36.5787
16.7986 1354 36.7967
16.9156 1437 37.9078
17.0326 1417 37.6431
17.1496 1406 37.4967
17.2665 1391 37.2961
17.3833 1369 37
17.5002 1399 37.4032
17.617 1353 36.7831
17.7338 1298 36.0278
17.8505 1212 34.8138
17.9672 1200 34.641
18.0839 1228 35.0428
18.2005 1293 35.9583
18.3171 1266 35.5809
18.4337 1348 36.7151
18.5502 1326 36.4143
18.6666 1360 36.8782
18.7831 1417 37.6431
18.8994 1435 37.8814
19.0158 1395 37.3497
19.1321 1354 36.7967
19.2483 1321 36.3456
19.3645 1218 34.8999
19.4806 1148 33.8821
19.5967 1038 32.218
19.7128 931 30.5123
19.8288 913 30.2159
19.9447 848 29.1204
20.0606 0 1
20.1764 0 1
20.2922 0 1
20.4079 0 1
20.5236 0 1
20.6392 0 1
20.7548 0 1
20.8702 0 1
23.3078 0 1
23.4233 0 1
23.539 0 1
23.6547 0 1
23.7704 0 1
23.8862 0 1
24.0021 0 1
24.118 0 1
24.234 0 1
24.35 0 1
24.4661 557 23.6008
24.5822 653 25.5539
24.6984 798 28.2489
24.8146 808 28.4253
24.9309 845 29.0689
25.0472 978 31.273
25.1636 1067 32.665
25.28 1145 33.8378
25.3965 1239 35.1994
25.513 1316 36.2767
25.6296 1370 37.0135
25.7462 1459 38.1969
25.8628 1506 38.8072
25.9795 1458 38.1838
26.0962 1478 38.4448
26.213 1426 37.7624
26.3298 1343 36.647
26.4466 1273 35.6791
26.5635 1255 35.426
26.6804 1263 35.5387
26.7973 1373 37.054
26.9143 1402 37.4433
27.0313 1394 37.3363
27.1483 1400 37.4166
27.2653 1485 38.5357
27.3824 1481 38.4838
27.4996 1454 38.1314
27.6167 1494 38.6523
27.7339 1427 37.7757
27.8511 1399 37.4032
27.9683 1307 36.1525
28.0855 1301 36.0694
28.2028 1290 35.9166
28.3201 1200 34.641
28.4374 1160 34.0588
28.5547 1170 34.2053
28.6721 1305 36.1248
28.7894 1251 35.3695
28.9068 1357 36.8375
29.0242 1421 37.6962
29.1416 1465 38.2753
29.259 1413 37.5899
29.3764 1445 38.0132
29.4939 1438 37.921
29.6113 1459 38.1969
29.7288 1378 37.1214
29.8463 1409 37.5366
29.9638 1241 35.2278
30.0812 1174 34.2637
30.1987 1295 35.9861
30.3162 1268 35.609
30.4337 1338 36.5787
30.5512 1275 35.7071
30.6687 1366 36.9594
30.7862 1423 37.7227
30.9037 1352 36.7696
31.0212 1406 37.4967
31.1387 1388 37.2559
31.2562 1416 37.6298
31.3737 1354 36.7967
31.4912 1352 36.7696
31.6087 1359 36.8646
31.7262 1224 34.9857
31.8436 1150 33.9116
31.9611 1178 34.322
32.0785 1178 34.322
32.1959 1198 34.6121
32.3134 1229 35.0571
32.4308 1267 35.5949
32.5482 1377 37.108
32.6655 1368 36.9865
32.7829 1409 37.5366
32.9002 1385 37.2156
33.0176 1497 38.6911
33.1349 1377 37.108
33.2522 1340 36.606
33.3694 1387 37.2424
33.4867 1256 35.4401
33.6039 1140 33.7639
33.7211 1121 33.4813
33.8383 1138 33.7343
33.9554 1187 34.4529
34.0725 1238 35.1852
34.1896 1295 35.9861
34.3067 1288 35.8887
34.4237 1301 36.0694
34.5407 1350 36.7423
34.6577 1366 36.9594
34.7746 1395 37.3497
34.8915 1423 37.7227
35.0084 1293 35.9583
35.1252 1306 36.1386
35.242 1247 35.3129
35.3587 1232 35.0999
35.4755 1164 34.1174
35.5921 1156 34
35.7088 1072 32.7414
35.8254 1143 33.8083
35.9419 1218 34.8999
36.0584 1182 34.3802
36.1749 1257 35.4542
36.2913 1230 35.0714
36.4077 1178 34.322
36.524 1190 34.4964
36.6403 1146 33.8526
36.7565 1136 33.7046
36.8727 1050 32.4037
36.9889 959 30.9677
37.1049 963 31.0322
37.221 0 1
37.3369 0 1
37.4529 0 1
37.5687 0 1
37.6845 0 1
37.8003 0 1
37.916 0 1
38.0316 0 1
38.1472 0 1
40.5851 0 1
40.7008 0 1
40.8164 0 1
40.9322 0 1
41.048 0 1
41.1639 0 1
41.2798 0 1
41.3958 0 1
41.5118 0 1
41.6279 0 1
41.744 655 25.593
41.8602 721 26.8514
41.9765 743 27.258
42.0928 853 29.2062
42.2091 746 27.313
42.3255 773 27.8029
42.4419 771 27.7669
42.5584 786 28.0357
42.675 869 29.4788
42.7915 952 30.8545
42.9081 979 31.289
43.0248 995 31.5436
43.1415 1161 34.0735
43.2582 1123 33.5112
43.375 1101 33.1813
43.4918 1163 34.1028
43.6087 1160 34.0588
43.7256 1077 32.8177
43.8425 1084 32.9242
43.9595 1065 32.6343
44.0765 1063 32.6037
44.1935 1057 32.5115
44.3106 1038 32.218
44.4277 985 31.3847
44.5448 853 29.2062
44.6619 948 30.7896
44.7791 964 31.0483
44.8963 1075 32.7872
45.0136 1074 32.7719
45.1308 1094 33.0757
45.2481 1132 33.6452
45.3654 1110 33.3167
45.4827 1140 33.7639
45.6001 1225 35
45.7174 1122 33.4963
45.8348 991 31.4802
45.9522 917 30.282
46.0697 972 31.1769
46.1871 923 30.3809
46.3046 921 30.348
46.422 1020 31.9374
46.5395 957 30.9354
46.657 1090 33.0151
46.7745 1125 33.541
46.892 1091 33.0303
47.0096 1170 34.2053
47.1271 1161 34.0735
47.2446 1150 33.9116
47.3622 1167 34.1614
47.4797 1079 32.8481
47.5973 1063 32.6037
47.7149 1116 33.4066
47.8324 1034 32.1559
47.95 982 31.3369
48.0675 988 31.4325
48.1851 951 30.8383
48.3027 974 31.209
48.4202 1020 31.9374
48.5378 1067 32.665
48.6554 1155 33.9853
48.7729 1153 33.9559
48.8904 1160 34.0588
49.008 1137 33.7194
49.1255 1163 34.1028
49.243 1140 33.7639
49.3605 1012 31.8119
49.478 1028 32.0624
49.5955 925 30.4138
49.713 930 30.4959
49.8304 923 30.3809
49.9479 957 30.9354
50.0653 1029 32.078
50.1827 1068 32.6803
50.3001 1109 33.3017
50.4175 1119 33.4515
50.5348 1191 34.5109
50.6521 1151 33.9264
50.7694 1178 34.322
50.8867 1251 35.3695
51.004 1241 35.2278
51.1212 1189 34.4819
51.2384 1209 34.7707
51.3556 1197 34.5977
51.4727 1160 34.0588
51.5899 1083 32.909
51.707 1084 32.9242
51.824 1127 33.5708
51.9411 1287 35.8748
52.0581 1337 36.565
52.175 1438 37.921
52.2919 1627 40.3361
52.4088 1601 40.0125
52.5257 1694 41.1582
52.6425 1773 42.107
52.7593 1683 41.0244
52.876 1632 40.398
52.9927 1566 39.5727
53.1094 1432 37.8418
53.226 1371 37.027
53.3426 1319 36.318
53.4591 1401 37.4299
53.5756 1350 36.7423
53.692 1387 37.2424
53.8084 1362 36.9053
53.9248 1328 36.4417
54.0411 1256 35.4401
54.1573 1250 35.3553
54.2735 0 1
54.3896 0 1
54.5057 0 1
54.6217 0 1
54.7377 0 1
54.8537 0 1
54.9695 0 1
55.0853 0 1
55.2011 0 1
55.3168 0 1
55.4324 0 1
57.824 0 1
57.9396 0 1
58.0553 0 1
58.1711 0 1
58.2869 0 1
58.4028 0 1
58.5187 0 1
58.6347 0 1
58.7508 0 1
58.8669 0 1
58.983 868 29.4618
59.0992 1026 32.0312
59.2155 1094 33.0757
59.3318 1119 33.4515
59.4482 1243 35.2562
59.5646 1316 36.2767
59.681 1253 35.3977
59.7975 1286 35.8608
59.9141 1303 36.0971
60.0306 1286 35.8608
60.1473 1281 35.7911
60.2639 1215 34.8569
60.3807 1151 33.9264
60.4974 1128 33.5857
60.6142 1229 35.0571
60.731 1319 36.318
60.8479 1424 37.7359
60.9648 1378 37.1214
61.0818 1433 37.855
61.1987 1455 38.1445
61.3158 1403 37.4566
61.4328 1403 37.4566
61.5499 1286 35.8608
61.667 1254 35.4119
61.7841 1189 34.4819
61.9013 1084 32.9242
62.0185 1133 33.6601
62.1357 1164 34.1174
62.253 1213 34.8281
62.3702 1306 36.1386
62.4875 1371 37.027
62.6049 1353 36.7831
62.7222 1393 37.3229
62.8396 1414 37.6032
62.9569 1423 37.7227
63.0743 1408 37.5233
63.1918 1391 37.2961
63.3092 1450 38.0789
63.4267 1333 36.5103
63.5441 1309 36.1801
63.6616 1292 35.9444
63.7791 1220 34.9285
63.8966 1133 33.6601
64.0142 1148 33.8821
64.1317 1228 35.0428
64.2492 1294 35.9722
64.3668 1361 36.8917
64.4843 1411 37.5633
64.6019 1441 37.9605
64.7195 1369 37
64.837 1379 37.1349
64.9546 1439 37.9342
65.0722 1327 36.428
65.1898 1231 35.0856
65.3074 1141 33.7787
65.4249 1104 33.2265
65.5425 1058 32.5269
65.6601 1072 32.7414
65.7777 1132 33.6452
65.8952 1237 35.171
66.0128 1356 36.8239
66.1304 1298 36.0278
66.2479 1383 37.1887
66.3655 1411 37.5633
66.483 1468 38.3145
66.6005 1447 38.0395
66.718 1390 37.2827
66.8355 1395 37.3497
66.953 1417 37.6431
67.0705 1423 37.7227
67.1879 1311 36.2077
67.3054 1226 35.0143
67.4228 1169 34.1906
67.5402 1061 32.573
67.6576 1086 32.9545
67.7749 1200 34.641
67.8923 1249 35.3412
68.0096 1277 35.7351
68.1269 1334 36.524
68.2442 1354 36.7967
68.3614 1362 36.9053
68.4787 1380 37.1484
68.5958 1348 36.7151
68.713 1365 36.9459
68.8302 1226 35.0143
68.9473 1139 33.7491
69.0643 1097 33.121
69.1814 1009 31.7648
69.2984 1005 31.7017
69.4154 1082 32.8938
69.5323 1185 34.4238
69.6492 1250 35.3553
69.7661 1336 36.5513
69.8829 1246 35.2987
69.9997 1291 35.9305
70.1165 1283 35.819
70.2332 1213 34.8281
70.3499 1200 34.641
70.4665 1129 33.6006
70.5831 1049 32.3883
70.6996 1032 32.1248
70.8161 975 31.225
70.9326 856 29.2575
71.049 733 27.074
71.1653 660 25.6905
71.2817 549 23.4307
71.3979 501 22.383
71.5141 470 21.6795
71.6303 481 21.9317
71.7464 490 22.1359
71.8624 0 1
71.9784 0 1
72.0944 0 1
72.2102 0 1
72.3261 0 1
72.4418 0 1
72.5575 0 1
72.6732 0 1
75.1054 0 1
75.2209 0 1
75.3365 0 1
75.4521 0 1
75.5678 0 1
75.6835 0 1
75.7993 0 1
75.9151 0 1
76.031 0 1
76.147 861 29.3428
76.263 817 28.5832
76.3791 887 29.7825
76.4952 860 29.3258
76.6113 874 29.5635
76.7276 966 31.0805
76.8438 1066 32.6497
76.9601 1049 32.3883
77.0765 1157 34.0147
77.1929 1176 34.2929
77.3093 1231 35.0856
77.4258 1217 34.8855
77.5423 1255 35.426
77.6589 1166 34.1467
77.7755 1115 33.3916
77.8921 986 31.4006
78.0088 917 30.282
78.1256 830 28.8097
78.2423 806 28.3901
78.3591 891 29.8496
78.4759 987 31.4166
78.5928 1021 31.9531
78.7097 1071 32.7261
78.8266 1160 34.0588
78.9436 1151 33.9264
79.0606 1205 34.7131
79.1776 1226 35.0143
79.2946 1224 34.9857
79.4117 1221 34.9428
79.5288 1164 34.1174
79.6459 1149 33.8969
79.7631 1164 34.1174
79.8802 1113 33.3617
79.9974 1047 32.3574
80.1147 1016 31.8748
80.2319 953 30.8707
80.3491 961 31
80.4664 1051 32.4191
80.5837 1081 32.8786
80.701 1231 35.0856
80.8183 1211 34.7994
80.9357 1270 35.6371
81.053 1232 35.0999
81.1704 1232 35.0999
81.2877 1290 35.9166
81.4051 1245 35.2846
81.5225 1088 32.9848
81.6399 1033 32.1403
81.7573 924 30.3974
81.8747 940 30.6594
81.9922 880 29.6648
82.1096 957 30.9354
82.227 1048 32.3728
82.3444 1095 33.0908
82.4619 1165 34.1321
82.5793 1175 34.2783
82.6967 1261 35.5106
82.8142 1304 36.1109
82.9316 1241 35.2278
83.049 1230 35.0714
83.1664 1206 34.7275
83.2838 1181 34.3657
83.4012 1161 34.0735
83.5186 1185 34.4238
83.636 1139 33.7491
83.7534 1071 32.7261
83.8708 963 31.0322
83.9881 980 31.305
84.1055 950 30.8221
84.2228 1084 32.9242
84.3401 1105 33.2415
84.4575 1184 34.4093
84.5747 1260 35.4965
84.692 1207 34.7419
84.8093 1281 35.7911
84.9265 1241 35.2278
85.0437 1194 34.5543
85.1609 1117 33.4215
85.2781 1055 32.4808
85.3952 970 31.1448
85.5123 895 29.9166
85.6294 958 30.9516
85.7465 953 30.8707
85.8636 1156 34
85.9806 1198 34.6121
86.0976 1141 33.7787
86.2145 1270 35.6371
86.3315 1233 35.1141
86.4484 1318 36.3043
86.5652 1384 37.2022
86.682 1313 36.2353
86.7988 1278 35.7491
86.9156 1201 34.6554
87.0323 1223 34.9714
87.149 1280 35.7771
87.2657 1106 33.2566
87.3823 995 31.5436
87.4988 908 30.133
87.6154 869 29.4788
87.7318 931 30.5123
87.8483 861 29.3428
87.9647 985 31.3847
88.081 981 31.3209
88.1973 977 31.257
88.3136 933 30.545
88.4298 902 30.0333
88.546 898 29.9666
88.6621 745 27.2947
88.7781 613 24.7588
88.8942 0 1
89.0101 0 1
89.126 0 1
89.2419 0 1
89.3577 0 1
89.4734 0 1
89.5891 0 1
89.7047 0 1
89.8203 0 1
89.9358 0 1
92.3269 0 1
92.4424 0 1
92.558 0 1
92.6736 0 1
92.7893 0 1
92.905 0 1
93.0208 0 1
93.1366 0 1
93.2525 0 1
93.3685 0 1
93.4845 0 1
93.6005 965 31.0644
93.7167 966 31.0805
93.8328 1010 31.7805
93.949 1028 32.0624
94.0653 1110 33.3167
94.1816 1093 33.0606
94.2979 1123 33.5112
94.4143 956 30.9192
94.5307 924 30.3974
94.6472 946 30.7571
94.7637 950 30.8221
94.8803 1038 32.218
94.9969 1086 32.9545
95.1135 1213 34.8281
95.2302 1222 34.9571
95.3469 1241 35.2278
95.4637 1228 35.0428
95.5805 1296 36
95.6973 1295 35.9861
95.8142 1326 36.4143
95.9311 1249 35.3412
96.048 1326 36.4143
96.1649 1277 35.7351
96.2819 1244 35.2704
96.3989 1183 34.3948
96.516 1149 33.8969
96.633 1113 33.3617
96.7501 1091 33.0303
96.8673 978 31.273
96.9844 1140 33.7639
97.1016 1172 34.2345
97.2188 1223 34.9714
97.336 1289 35.9026
97.4532 1227 35.0286
97.5704 1373 37.054
97.6877 1346 36.6879
97.805 1293 35.9583
97.9223 1200 34.641
98.0396 1120 33.4664
98.1569 1004 31.686
98.2743 931 30.5123
98.3916 947 30.7734
98.509 1036 32.187
98.6264 1145 33.8378
98.7438 1177 34.3074
98.8612 1260 35.4965
98.9786 1362 36.9053
99.096 1255 35.426
99.2134 1357 36.8375
99.3308 1312 36.2215
99.4482 1350 36.7423
99.5656 1401 37.4299
99.6831 1322 36.3593
99.8005 1307 36.1525
99.9179 1354 36.7967
100.035 1291 35.9305
100.153 1236 35.1568
100.27 1128 33.5857
100.388 1174 34.2637
100.505 1147 33.8674
100.622 1198 34.6121
100.74 1290 35.9166
100.857 1313 36.2353
100.975 1334 36.524
101.092 1442 37.9737
101.209 1405 37.4833
101.327 1448 38.0526
101.444 1366 36.9594
101.561 1278 35.7491
101.679 1110 33.3167
101.796 1014 31.8434
101.913 997 31.5753
102.03 971 31.1609
102.148 1141 33.7787
102.265 1164 34.1174
102.382 1325 36.4005
102.499 1311 36.2077
102.616 1412 37.5766
102.733 1440 37.9473
102.851 1474 38.3927
102.968 1487 38.5616
103.085 1473 38.3797
103.202 1414 37.6032
103.319 1396 37.3631
103.436 1414 37.6032
103.552 1293 35.9583
103.669 1315 36.2629
103.786 1170 34.2053
103.903 1116 33.4066
104.02 1157 34.0147
104.137 1227 35.0286
104.253 1382 37.1753
104.37 1435 37.8814
104.487 1540 39.2428
104.603 1448 38.0526
104.72 1516 38.9358
104.836 1310 36.1939
104.953 1320 36.3318
105.069 1207 34.7419
105.186 1050 32.4037
105.302 1023 31.9844
105.418 908 30.133
105.535 915 30.249
105.651 920 30.3315
105.767 957 30.9354
105.883 953 30.8707
105.999 861 29.3428
106.115 0 1
106.231 0 1
106.347 0 1
106.463 0 1
106.579 0 1
106.694 0 1
106.81 0 1
106.926 0 1
107.041 0 1
107.157 0 1
109.576 0 1
109.692 0 1
109.807 0 1
109.923 0 1
110.039 0 1
110.155 0 1
110.27 0 1
110.386 0 1
110.502 0 1
110.618 609 24.6779
110.735 781 27.9464
110.851 855 29.2404
110.967 1040 32.249
111.083 1107 33.2716
111.199 1200 34.641
111.316 1192 34.5254
111.432 1309 36.1801
111.549 1355 36.8103
111.665 1391 37.2961
111.782 1336 36.5513
111.898 1322 36.3593
112.015 1348 36.7151
112.132 1292 35.9444
112.248 1191 34.5109
112.365 1153 33.9559
112.482 1122 33.4963
112.599 1160 34.0588
112.716 1228 35.0428
112.832 1297 36.0139
112.949 1362 36.9053
113.066 1395 37.3497
113.183 1466 38.2884
113.3 1398 37.3898
113.417 1397 37.3765
113.534 1313 36.2353
113.652 1164 34.1174
113.769 1138 33.7343
113.886 1025 32.0156
114.003 976 31.241
114.12 1059 32.5423
114.238 1158 34.0294
114.355 1289 35.9026
114.472 1248 35.327
114.589 1402 37.4433
114.707 1386 37.229
114.824 1421 37.6962
114.942 1392 37.3095
115.059 1470 38.3406
115.176 1384 37.2022
115.294 1404 37.47
115.411 1355 36.8103
115.529 1345 36.6742
115.646 1384 37.2022
115.764 1290 35.9166
115.881 1269 35.623
115.999 1158 34.0294
116.116 1140 33.7639
116.234 1183 34.3948
116.351 1300 36.0555
116.469 1398 37.3898
116.586 1445 38.0132
116.704 1352 36.7696
116.821 1487 38.5616
116.939 1376 37.0945
117.056 1391 37.2961
117.174 1342 36.6333
117.291 1212 34.8138
117.409 1091 33.0303
117.526 994 31.5278
117.644 991 31.4802
117.761 1020 31.9374
117.879 1194 34.5543
117.996 1282 35.805
118.114 1318 36.3043
118.231 1377 37.108
118.349 1348 36.7151
118.466 1327 36.428
118.584 1383 37.1887
118.701 1371 37.027
118.819 1364 36.9324
118.936 1363 36.9188
119.053 1289 35.9026
119.171 1231 35.0856
119.288 1255 35.426
119.405 1167 34.1614
119.523 1085 32.9393
119.64 1014 31.8434
119.757 1093 33.0606
119.875 1100 33.1662
119.992 1198 34.6121
120.109 1262 35.5246
120.226 1260 35.4965
120.343 1295 35.9861
120.46 1220 34.9285
120.578 1253 35.3977
120.695 1240 35.2136
120.812 1224 34.9857
120.929 1143 33.8083
121.046 1038 32.218
121.163 907 30.1164
121.279 948 30.7896
121.396 901 30.0167
121.513 958 30.9516
121.63 962 31.0161
121.747 1002 31.6544
121.863 1042 32.28
121.98 1018 31.9061
122.097 1004 31.686
122.213 978 31.273
122.33 1048 32.3728
122.446 967 31.0966
122.563 906 30.0998
122.679 875 29.5804
122.795 771 27.7669
122.912 754 27.4591
123.028 623 24.96
123.144 571 23.8956
123.26 491 22.1585
123.377 0 1
123.493 0 1
123.609 0 1
123.725 0 1
123.84 0 1
123.956 0 1
124.072 0 1
124.188 0 1
124.303 0 1
124.419 0 1
126.852 0 1
126.968 0 1
127.083 0 1
127.199 0 1
127.315 0 1
127.431 0 1
127.547 0 1
127.663 0 1
127.779 0 1
127.895 0 1
128.011 0 1
128.127 0 1
128.243 0 1
128.359 1189 34.4819
128.476 1222 34.9571
128.592 1161 34.0735
128.708 1148 33.8821
128.825 1166 34.1467
128.941 1215 34.8569
129.058 1291 35.9305
129.174 1375 37.081
129.291 1405 37.4833
129.408 1401 37.4299
129.524 1382 37.1753
129.641 1476 38.4187
129.758 1355 36.8103
129.875 1251 35.3695
129.992 1172 34.2345
130.108 1102 33.1964
130.225 1050 32.4037
130.342 1054 32.4654
130.459 1061 32.573
130.576 1211 34.7994
130.693 1276 35.7211
130.81 1317 36.2905
130.928 1272 35.6651
131.045 1354 36.7967
131.162 1358 36.8511
131.279 1399 37.4032
131.396 1393 37.3229
131.513 1359 36.8646
131.631 1330 36.4692
131.748 1344 36.6606
131.865 1264 35.5528
131.983 1257 35.4542
132.1 1222 34.9571
132.217 1276 35.7211
132.335 1226 35.0143
132.452 1270 35.6371
132.57 1292 35.9444
132.687 1425 37.7492
132.804 1399 37.4032
132.922 1393 37.3229
133.039 1481 38.4838
133.157 1408 37.5233
133.274 1461 38.223
133.392 1359 36.8646
133.509 1322 36.3593
133.627 1191 34.5109
133.744 1166 34.1467
133.862 1082 32.8938
133.979 1116 33.4066
134.097 1158 34.0294
134.214 1272 35.6651
134.332 1292 35.9444
134.449 1328 36.4417
134.567 1297 36.0139
134.684 1358 36.8511
134.802 1428 37.7889
134.919 1449 38.0657
135.037 1423 37.7227
135.154 1449 38.0657
135.272 1343 36.647
135.389 1371 37.027
135.507 1309 36.1801
135.624 1322 36.3593
135.742 1231 35.0856
135.859 1270 35.6371
135.977 1264 35.5528
136.094 1258 35.4683
136.211 1295 35.9861
136.329 1410 37.55
136.446 1368 36.9865
136.564 1388 37.2559
136.681 1357 36.8375
136.798 1426 37.7624
136.915 1401 37.4299
137.033 1289 35.9026
137.15 1200 34.641
137.267 1174 34.2637
137.384 1144 33.8231
137.502 1111 33.3317
137.619 1065 32.6343
137.736 1154 33.9706
137.853 1235 35.1426
137.97 1233 35.1141
138.087 1253 35.3977
138.204 1338 36.5787
138.321 1412 37.5766
138.438 1345 36.6742
138.555 1416 37.6298
138.672 1354 36.7967
138.788 1382 37.1753
138.905 1201 34.6554
139.022 1227 35.0286
139.139 1132 33.6452
139.255 1098 33.1361
139.372 1023 31.9844
139.488 928 30.4631
139.605 917 30.282
139.721 904 30.0666
139.838 894 29.8998
139.954 919 30.315
140.071 877 29.6142
140.187 859 29.3087
140.303 747 27.3313
140.419 765 27.6586
140.535 719 26.8142
140.652 677 26.0192
140.768 0 1
140.884 0 1
141 0 1
141.115 0 1
141.231 0 1
141.347 0 1
141.463 0 1
141.578 0 1
141.694 0 1
144.104 0 1
144.219 0 1
144.335 0 1
144.45 0 1
144.566 0 1
144.682 0 1
144.798 0 1
144.914 0 1
145.03 0 1
145.146 1003 31.6702
145.262 1071 32.7261
145.378 1148 33.8821
145.494 1144 33.8231
145.61 1144 33.8231
145.726 1108 33.2866
145.842 1069 32.6956
145.959 970 31.1448
146.075 911 30.1828
146.192 899 29.9833
146.308 851 29.1719
146.425 864 29.3939
146.541 873 29.5466
146.658 942 30.692
146.774 951 30.8383
146.891 1068 32.6803
147.008 1037 32.2025
147.125 1088 32.9848
147.241 1143 33.8083
147.358 1117 33.4215
147.475 1036 32.187
147.592 1081 32.8786
147.709 1006 31.7175
147.826 1057 32.5115
147.943 951 30.8383
148.06 1015 31.8591
148.177 1008 31.749
148.294 976 31.241
148.411 1037 32.2025
148.528 1061 32.573
148.645 1028 32.0624
148.762 1086 32.9545
148.88 1125 33.541
148.997 1030 32.0936
149.114 1049 32.3883
149.231 1123 33.5112
149.349 1105 33.2415
149.466 1096 33.1059
149.583 991 31.4802
149.701 1014 31.8434
149.818 960 30.9839
149.935 883 29.7153
150.053 856 29.2575
150.17 894 29.8998
150.287 983 31.3528
150.405 970 31.1448
150.522 942 30.692
150.64 1017 31.8904
150.757 1049 32.3883
150.875 1060 32.5576
150.992 1057 32.5115
151.11 1093 33.0606
151.227 1089 33
151.344 1038 32.218
151.462 1058 32.5269
151.579 1025 32.0156
151.697 927 30.4467
151.814 911 30.1828
151.932 932 30.5287
152.049 911 30.1828
152.167 949 30.8058
152.284 974 31.209
152.402 1030 32.0936
152.519 1029 32.078
152.636 1099 33.1512
152.754 1123 33.5112
152.871 1134 33.6749
152.989 1051 32.4191
153.106 992 31.496
153.223 941 30.6757
153.341 892 29.8664
153.458 809 28.4429
153.575 813 28.5132
153.693 872 29.5296
153.81 859 29.3087
153.927 882 29.6985
154.044 881 29.6816
154.162 873 29.5466
154.279 904 30.0666
154.396 972 31.1769
154.513 934 30.5614
154.63 1008 31.749
154.747 1008 31.749
154.864 1013 31.8277
154.981 948 30.7896
155.098 915 30.249
155.215 934 30.5614
155.332 857 29.2746
155.449 862 29.3598
155.566 856 29.2575
155.683 912 30.1993
155.8 879 29.6479
155.917 904 30.0666
156.033 904 30.0666
156.15 0 1
156.267 0 1
156.383 0 1
156.5 0 1
156.617 0 1
156.733 0 1
156.85 0 1
156.966 0 1
157.082 0 1
157.199 0 1
157.315 0 1
157.431 0 1
157.547 0 1
157.664 0 1
157.78 0 1
157.896 0 1
158.012 0 1
158.128 0 1
158.244 0 1
158.359 0 1
158.475 0 1
158.591 0 1
158.706 0 1
