
6.15755 0 1
6.2731 0 1
6.3887 0 1
6.50437 0 1
6.62009 0 1
6.73587 0 1
6.8517 0 1
6.96759 0 1
7.08353 0 1
7.19952 0 1
7.31557 0 1
7.43166 0 1
7.54781 0 1
7.664 0 1
7.78024 0 1
7.89653 0 1
8.01286 0 1
8.12924 0 1
8.24567 0 1
8.36213 0 1
8.47864 0 1
8.59519 0 1
8.71178 0 1
8.82841 0 1
8.94508 0 1
9.06179 0 1
9.17853 0 1
9.29531 0 1
9.41212 0 1
9.52897 0 1
9.64584 0 1
9.76276 0 1
9.8797 0 1
9.99667 0 1
10.1137 0 1
10.2307 0 1
10.3478 0 1
10.4648 0 1
10.5819 0 1
10.6991 0 1
10.8162 0 1
10.9334 0 1
11.0506 0 1
11.1678 0 1
11.285 0 1
11.4023 0 1
11.5196 0 1
11.6369 0 1
11.7542 0 1
11.8715 0 1
11.9888 0 1
12.1062 0 1
12.2235 0 1
12.3409 0 1
12.4582 0 1
12.5756 0 1
12.693 0 1
12.8104 0 1
12.9278 0 1
13.0452 0 1
13.1626 0 1
13.28 0 1
13.3974 0 1
13.5149 0 1
13.6323 0 1
13.7497 0 1
13.8671 0 1
13.9845 0 1
14.1019 0 1
14.2193 0 1
14.3367 0 1
14.4541 0 1
14.5714 0 1
14.6888 0 1
14.8062 0 1
14.9235 0 1
15.0408 0 0
15.1581 0 0
15.2755 0 0
15.3927 0 0
15.51 0 0
15.6273 0 0
15.7445 0 0
15.8617 0 0
15.9789 0 0
16.0961 0 0
16.2132 0 0
16.3304 0 0
16.4475 0 0
16.5646 0 0
16.6816 0 0
16.7986 0 0
16.9156 0 0
17.0326 0 0
17.1496 0 0
17.2665 0 0
17.3833 0 0
17.5002 0 0
17.617 0 0
17.7338 0 0
17.8505 0 0
17.9672 0 0
18.0839 0 0
18.2005 0 0
18.3171 0 0
18.4337 0 0
18.5502 0 0
18.6666 0 0
18.7831 0 0
18.8994 0 0
19.0158 0 0
19.1321 0 0
19.2483 0 0
19.3645 0 0
19.4806 0 0
19.5967 0 0
19.7128 0 0
19.8288 0 0
19.9447 0 0
20.0606 0 1
20.1764 0 1
20.2922 0 1
20.4079 0 1
20.5236 0 1
20.6392 0 1
20.7548 0 1
20.8702 0 1
23.3078 0 1
23.4233 0 1
23.539 0 1
23.6547 0 1
23.7704 0 1
23.8862 0 1
24.0021 0 1
24.118 0 1
24.234 0 1
24.35 0 1
24.4661 13109 114.495
24.5822 13107 114.486
24.6984 12689 112.645
24.8146 12340 111.086
24.9309 12206 110.481
25.0472 12129 110.132
25.1636 12514 111.866
25.28 12534 111.955
25.3965 12952 113.807
25.513 13143 114.643
25.6296 13653 116.846
25.7462 13993 118.292
25.8628 13892 117.864
25.9795 13932 118.034
26.0962 13676 116.944
26.213 13526 116.301
26.3298 13444 115.948
26.4466 13063 114.293
26.5635 12709 112.734
26.6804 12727 112.814
26.7973 13205 114.913
26.9143 13370 115.629
27.0313 13604 116.636
27.1483 13906 117.924
27.2653 13980 118.237
27.3824 14322 119.675
27.4996 14232 119.298
27.6167 14249 119.369
27.7339 13968 118.186
27.8511 13810 117.516
27.9683 13614 116.679
28.0855 13162 114.726
28.2028 13096 114.438
28.3201 12356 111.158
28.4374 12307 110.937
28.5547 11786 108.563
28.6721 11865 108.927
28.7894 11969 109.403
28.9068 12393 111.324
29.0242 12408 111.391
29.1416 12751 112.92
29.259 12823 113.239
29.3764 13001 114.022
29.4939 12848 113.349
29.6113 13030 114.149
29.7288 13011 114.066
29.8463 12494 111.777
29.9638 12089 109.95
30.0812 11944 109.289
30.1987 12076 109.891
30.3162 12341 111.09
30.4337 12998 114.009
30.5512 13123 114.556
30.6687 13301 115.33
30.7862 13893 117.869
30.9037 13666 116.902
31.0212 13900 117.898
31.1387 14139 118.908
31.2562 13639 116.786
31.3737 13721 117.137
31.4912 13449 115.97
31.6087 13116 114.525
31.7262 13135 114.608
31.8436 12636 112.41
31.9611 12171 110.322
32.0785 11831 108.77
32.1959 11828 108.757
32.3134 11952 109.325
32.4308 12173 110.331
32.5482 12485 111.736
32.6655 12730 112.827
32.7829 12705 112.716
32.9002 13103 114.468
33.0176 12865 113.424
33.1349 12694 112.668
33.2522 12961 113.846
33.3694 12742 112.88
33.4867 12581 112.165
33.6039 12203 110.467
33.7211 12027 109.668
33.8383 12042 109.736
33.9554 12522 111.902
34.0725 12798 113.128
34.1896 13142 114.639
34.3067 13663 116.889
34.4237 14099 118.739
34.5407 13874 117.788
34.6577 14099 118.739
34.7746 14042 118.499
34.8915 14321 119.67
35.0084 13959 118.148
35.1252 13833 117.614
35.242 13631 116.752
35.3587 13241 115.07
35.4755 12963 113.855
35.5921 12683 112.619
35.7088 12069 109.859
35.8254 11785 108.559
35.9419 11835 108.789
36.0584 12018 109.627
36.1749 12041 109.731
36.2913 12153 110.241
36.4077 12571 112.12
36.524 12592 112.214
36.6403 12651 112.477
36.7565 12773 113.018
36.8727 12829 113.265
36.9889 12768 112.996
37.1049 12177 110.349
37.221 0 1
37.3369 0 1
37.4529 0 1
37.5687 0 1
37.6845 0 1
37.8003 0 1
37.916 0 1
38.0316 0 1
38.1472 0 1
40.5851 0 1
40.7008 0 1
40.8164 0 1
40.9322 0 1
41.048 0 1
41.1639 0 1
41.2798 0 1
41.3958 0 1
41.5118 0 1
41.6279 0 1
41.744 10805 103.947
41.8602 10978 104.776
41.9765 11076 105.243
42.0928 10933 104.561
42.2091 10892 104.365
42.3255 10767 103.764
42.4419 10467 102.308
42.5584 10454 102.245
42.675 10533 102.63
42.7915 10881 104.312
42.9081 11313 106.363
43.0248 11677 108.06
43.1415 11710 108.213
43.2582 12207 110.485
43.375 12193 110.422
43.4918 12168 110.309
43.6087 12210 110.499
43.7256 12257 110.711
43.8425 12184 110.381
43.9595 11712 108.222
44.0765 11525 107.355
44.1935 11256 106.094
44.3106 11008 104.919
44.4277 10226 101.124
44.5448 9678 98.3768
44.6619 9565 97.8008
44.7791 9491 97.4218
44.8963 9636 98.1631
45.0136 9628 98.1224
45.1308 9792 98.9545
45.2481 9771 98.8484
45.3654 9793 98.9596
45.4827 9813 99.0606
45.6001 10038 100.19
45.7174 9753 98.7573
45.8348 9428 97.0979
45.9522 9175 95.7862
46.0697 8933 94.5145
46.1871 8801 93.8136
46.3046 9239 96.1197
46.422 9434 97.1288
46.5395 9722 98.6002
46.657 10036 100.18
46.7745 10089 100.444
46.892 10028 100.14
47.0096 10360 101.784
47.1271 10111 100.553
47.2446 9984 99.92
47.3622 9813 99.0606
47.4797 9738 98.6813
47.5973 9652 98.2446
47.7149 9418 97.0464
47.8324 9065 95.2103
47.95 8601 92.7416
48.0675 8084 89.9111
48.1851 7573 87.023
48.3027 7586 87.0976
48.4202 7604 87.2009
48.5378 7752 88.0454
48.6554 7982 89.342
48.7729 8096 89.9778
48.8904 8103 90.0167
49.008 8187 90.482
49.1255 8206 90.587
49.243 8127 90.1499
49.3605 7918 88.9831
49.478 7959 89.2132
49.5955 7885 88.7975
49.713 7901 88.8876
49.8304 8035 89.6382
49.9479 8939 94.5463
50.0653 9245 96.1509
50.1827 9822 99.106
50.3001 9917 99.5841
50.4175 10491 102.426
50.5348 10435 102.152
50.6521 11175 105.712
50.7694 11330 106.442
50.8867 11118 105.442
51.004 11544 107.443
51.1212 11891 109.046
51.2384 12017 109.622
51.3556 11567 107.55
51.4727 11158 105.631
51.5899 10628 103.092
51.707 10377 101.868
51.824 10267 101.326
51.9411 10652 103.209
52.0581 10742 103.644
52.175 11157 105.627
52.2919 11393 106.738
52.4088 11175 105.712
52.5257 11545 107.448
52.6425 11874 108.968
52.7593 11857 108.89
52.876 11763 108.457
52.9927 11246 106.047
53.1094 11326 106.424
53.226 11180 105.736
53.3426 11398 106.761
53.4591 11798 108.619
53.5756 12937 113.741
53.692 13432 115.897
53.8084 13833 117.614
53.9248 14255 119.394
54.0411 14502 120.424
54.1573 15013 122.528
54.2735 0 1
54.3896 0 1
54.5057 0 1
54.6217 0 1
54.7377 0 1
54.8537 0 1
54.9695 0 1
55.0853 0 1
55.2011 0 1
55.3168 0 1
55.4324 0 1
57.824 0 1
57.9396 0 1
58.0553 0 1
58.1711 0 1
58.2869 0 1
58.4028 0 1
58.5187 0 1
58.6347 0 1
58.7508 0 1
58.8669 0 1
58.983 17223 131.236
59.0992 17855 133.623
59.2155 18516 136.074
59.3318 18616 136.44
59.4482 19094 138.181
59.5646 18872 137.375
59.681 18803 137.124
59.7975 18444 135.809
59.9141 17703 133.053
60.0306 17116 130.828
60.1473 16176 127.185
60.2639 15139 123.041
60.3807 14542 120.59
60.4974 14393 119.971
60.6142 14050 118.533
60.731 14156 118.979
60.8479 14660 121.078
60.9648 14762 121.499
61.0818 15011 122.519
61.1987 15142 123.053
61.3158 15042 122.646
61.4328 14549 120.619
61.5499 14191 119.126
61.667 13794 117.448
61.7841 13539 116.357
61.9013 13432 115.897
62.0185 14000 118.322
62.1357 14724 121.342
62.253 15212 123.337
62.3702 16100 126.886
62.4875 16441 128.222
62.6049 16738 129.375
62.7222 17328 131.636
62.8396 17442 132.068
62.9569 17473 132.185
63.0743 17532 132.408
63.1918 17222 131.233
63.3092 16945 130.173
63.4267 16311 127.715
63.5441 15756 125.523
63.6616 14367 119.862
63.7791 13516 116.258
63.8966 12722 112.792
64.0142 12557 112.058
64.1317 12420 111.445
64.2492 12616 112.321
64.3668 12934 113.728
64.4843 13333 115.469
64.6019 13378 115.663
64.7195 13618 116.696
64.837 13817 117.546
64.9546 13685 116.983
65.0722 13287 115.269
65.1898 12820 113.225
65.3074 12668 112.552
65.4249 12421 111.45
65.5425 12541 111.987
65.6601 13186 114.83
65.7777 14340 119.75
65.8952 14869 121.939
66.0128 15376 124
66.1304 15629 125.016
66.2479 16526 128.553
66.3655 16971 130.273
66.483 17271 131.419
66.6005 17160 130.996
66.718 17214 131.202
66.8355 16991 130.35
66.953 16473 128.347
67.0705 16283 127.605
67.1879 15247 123.479
67.3054 14404 120.017
67.4228 13050 114.237
67.5402 12319 110.991
67.6576 12319 110.991
67.7749 12258 110.716
67.8923 13129 114.582
68.0096 13390 115.715
68.1269 13984 118.254
68.2442 14128 118.861
68.3614 14617 120.901
68.4787 14745 121.429
68.5958 14900 122.066
68.713 14262 119.424
68.8302 13610 116.662
68.9473 13085 114.39
69.0643 13058 114.272
69.1814 13035 114.171
69.2984 13999 118.317
69.4154 15218 123.361
69.5323 15838 125.849
69.6492 16656 129.058
69.7661 17443 132.072
69.8829 17511 132.329
69.9997 18290 135.241
70.1165 18548 136.191
70.2332 18790 137.077
70.3499 18444 135.809
70.4665 18515 136.07
70.5831 17891 133.757
70.6996 17518 132.356
70.8161 16216 127.342
70.9326 15306 123.717
71.049 14018 118.398
71.1653 12980 113.93
71.2817 12502 111.812
71.3979 12503 111.817
71.5141 12731 112.832
71.6303 12994 113.991
71.7464 12731 112.832
71.8624 0 1
71.9784 0 1
72.0944 0 1
72.2102 0 1
72.3261 0 1
72.4418 0 1
72.5575 0 1
72.6732 0 1
75.1054 0 1
75.2209 0 1
75.3365 0 1
75.4521 0 1
75.5678 0 1
75.6835 0 1
75.7993 0 1
75.9151 0 1
76.031 0 1
76.147 15479 124.415
76.263 15390 124.056
76.3791 14659 121.074
76.4952 13403 115.771
76.6113 13082 114.377
76.7276 13144 114.647
76.8438 13519 116.271
76.9601 13977 118.224
77.0765 14626 120.938
77.1929 15167 123.154
77.3093 15504 124.515
77.4258 15458 124.33
77.5423 15699 125.296
77.6589 15142 123.053
77.7755 14572 120.715
77.8921 13845 117.665
78.0088 13633 116.76
78.1256 13391 115.719
78.2423 13706 117.073
78.3591 14437 120.154
78.4759 15619 124.976
78.5928 16654 129.05
78.7097 17199 131.145
78.8266 18394 135.624
78.9436 17929 133.899
79.0606 18911 137.517
79.1776 18937 137.612
79.2946 18773 137.015
79.4117 18703 136.759
79.5288 18604 136.396
79.6459 17868 133.671
79.7631 17282 131.461
79.8802 16348 127.859
79.9974 14852 121.869
80.1147 13321 115.417
80.2319 12542 111.991
80.3491 12585 112.183
80.4664 12769 113
80.5837 13186 114.83
80.701 13697 117.034
80.8183 13978 118.229
80.9357 14084 118.676
81.053 14752 121.458
81.1704 14685 121.182
81.2877 14431 120.129
81.4051 13756 117.286
81.5225 13143 114.643
81.6399 12347 111.117
81.7573 12258 110.716
81.8747 12197 110.44
81.9922 12877 113.477
82.1096 13929 118.021
82.227 14987 122.421
82.3444 15408 124.129
82.4619 16339 127.824
82.5793 16259 127.511
82.6967 17096 130.752
82.8142 16932 130.123
82.9316 16887 129.95
83.049 16766 129.484
83.1664 16531 128.573
83.2838 15581 124.824
83.4012 15112 122.931
83.5186 14077 118.647
83.636 13038 114.184
83.7534 12012 109.599
83.8708 11295 106.278
83.9881 11083 105.276
84.1055 11385 106.701
84.2228 11675 108.051
84.3401 12586 112.187
84.4575 12933 113.723
84.5747 13773 117.358
84.692 14071 118.621
84.8093 13853 117.699
84.9265 13555 116.426
85.0437 12603 112.263
85.1609 12078 109.9
85.2781 11582 107.62
85.3952 11290 106.254
85.5123 11775 108.513
85.6294 13042 114.202
85.7465 14305 119.604
85.8636 15275 123.592
85.9806 15737 125.447
86.0976 16766 129.484
86.2145 17455 132.117
86.3315 17151 130.962
86.4484 18487 135.967
86.5652 18055 134.369
86.682 18334 135.403
86.7988 17796 133.402
86.9156 17072 130.66
87.0323 16331 127.793
87.149 15384 124.032
87.2657 14128 118.861
87.3823 13108 114.49
87.4988 12719 112.779
87.6154 12894 113.552
87.7318 13720 117.132
87.8483 14325 119.687
87.9647 14933 122.201
88.081 15478 124.411
88.1973 16170 127.161
88.3136 16083 126.819
88.4298 15813 125.75
88.546 15029 122.593
88.6621 13856 117.712
88.7781 12982 113.939
88.8942 0 1
89.0101 0 1
89.126 0 1
89.2419 0 1
89.3577 0 1
89.4734 0 1
89.5891 0 1
89.7047 0 1
89.8203 0 1
89.9358 0 1
92.3269 0 1
92.4424 0 1
92.558 0 1
92.6736 0 1
92.7893 0 1
92.905 0 1
93.0208 0 1
93.1366 0 1
93.2525 0 1
93.3685 0 1
93.4845 0 1
93.6005 14984 122.409
93.7167 15115 122.943
93.8328 15168 123.158
93.949 15028 122.589
94.0653 14275 119.478
94.1816 13703 117.06
94.2979 13057 114.267
94.4143 13130 114.586
94.5307 13138 114.621
94.6472 13560 116.447
94.7637 14420 120.083
94.8803 15724 125.395
94.9969 16629 128.953
95.1135 17456 132.121
95.2302 17834 133.544
95.3469 18456 135.853
95.4637 18706 136.77
95.5805 18989 137.801
95.6973 19345 139.086
95.8142 19239 138.705
95.9311 18904 137.492
96.048 18141 134.689
96.1649 17512 132.333
96.2819 16576 128.748
96.3989 15492 124.467
96.516 14490 120.374
96.633 13597 116.606
96.7501 13121 114.547
96.8673 13251 115.113
96.9844 13866 117.754
97.1016 14777 121.561
97.2188 15212 123.337
97.336 16054 126.704
97.4532 16098 126.878
97.5704 16231 127.401
97.6877 15646 125.084
97.805 14506 120.441
97.9223 13739 117.213
98.0396 13264 115.169
98.1569 13052 114.245
98.2743 13142 114.639
98.3916 13862 117.737
98.509 15271 123.576
98.6264 16098 126.878
98.7438 17296 131.514
98.8612 17884 133.731
98.9786 18618 136.448
99.096 18953 137.67
99.2134 19111 138.243
99.3308 19754 140.549
99.4482 19686 140.307
99.5656 18921 137.554
99.6831 18527 136.114
99.8005 17803 133.428
99.9179 16674 129.128
100.035 16083 126.819
100.153 15009 122.511
100.27 13886 117.839
100.388 13781 117.393
100.505 14137 118.899
100.622 14769 121.528
100.74 15463 124.35
100.857 15952 126.301
100.975 16351 127.871
101.092 16435 128.199
101.209 16323 127.761
101.327 15796 125.682
101.444 14946 122.254
101.561 13954 118.127
101.679 14036 118.474
101.796 13717 117.12
101.913 14236 119.315
102.03 15513 124.551
102.148 16730 129.345
102.265 18790 137.077
102.382 18374 135.551
102.499 19637 140.132
102.616 20143 141.926
102.733 20742 144.021
102.851 20787 144.177
102.968 20973 144.821
103.085 20775 144.135
103.202 20256 142.324
103.319 19342 139.076
103.436 18469 135.901
103.552 17223 131.236
103.669 15921 126.178
103.786 14934 122.205
103.903 14608 120.864
104.02 15275 123.592
104.137 15955 126.313
104.253 17260 131.377
104.37 16928 130.108
104.487 17790 133.379
104.603 17991 134.131
104.72 17403 131.92
104.836 16921 130.081
104.953 15431 124.222
105.069 15164 123.142
105.186 14967 122.34
105.302 15061 122.723
105.418 15774 125.595
105.535 17474 132.189
105.651 18669 136.635
105.767 19516 139.7
105.883 20510 143.213
105.999 21255 145.791
106.115 0 1
106.231 0 1
106.347 0 1
106.463 0 1
106.579 0 1
106.694 0 1
106.81 0 1
106.926 0 1
107.041 0 1
107.157 0 1
109.576 0 1
109.692 0 1
109.807 0 1
109.923 0 1
110.039 0 1
110.155 0 1
110.27 0 1
110.386 0 1
110.502 0 1
110.618 16369 127.941
110.735 18044 134.328
110.851 19187 138.517
110.967 19654 140.193
111.083 20413 142.874
111.199 20582 143.464
111.316 20697 143.865
111.432 20830 144.326
111.549 20775 144.135
111.665 20226 142.218
111.782 19330 139.032
111.898 18652 136.572
112.015 17591 132.631
112.132 16541 128.612
112.248 15194 123.264
112.365 14729 121.363
112.482 14641 121
112.599 14820 121.737
112.716 15704 125.316
112.832 15866 125.96
112.949 16316 127.734
113.066 16128 126.996
113.183 16028 126.602
113.3 15594 124.876
113.417 14768 121.524
113.534 14297 119.57
113.652 13741 117.222
113.769 13724 117.149
113.886 13686 116.987
114.003 14594 120.806
114.12 15931 126.218
114.238 17164 131.011
114.355 18028 134.268
114.472 18755 136.949
114.589 19211 138.604
114.707 19294 138.903
114.824 19557 139.846
114.942 19969 141.312
115.059 19989 141.382
115.176 19614 140.05
115.294 19333 139.043
115.411 18597 136.371
115.529 17804 133.432
115.646 16909 130.035
115.764 16077 126.795
115.881 15349 123.891
115.999 15352 123.903
116.116 15353 123.907
116.234 15765 125.559
116.351 16409 128.098
116.469 16623 128.93
116.586 16763 129.472
116.704 16714 129.283
116.821 16518 128.522
116.939 16460 128.297
117.056 15609 124.936
117.174 15168 123.158
117.291 14882 121.992
117.409 14901 122.07
117.526 15041 122.642
117.644 16504 128.468
117.761 17894 133.768
117.879 18674 136.653
117.996 19581 139.932
118.114 20252 142.31
118.231 20971 144.814
118.349 20652 143.708
118.466 21141 145.399
118.584 21330 146.048
118.701 21016 144.969
118.819 20787 144.177
118.936 20368 142.717
119.053 19821 140.787
119.171 18939 137.619
119.288 17957 134.004
119.405 17016 130.445
119.523 16077 126.795
119.64 16079 126.803
119.757 15781 125.622
119.875 16701 129.232
119.992 16841 129.773
120.109 16996 130.369
120.226 17006 130.407
120.343 16890 129.962
120.46 16797 129.603
120.578 16555 128.666
120.695 15859 125.933
120.812 15659 125.136
120.929 15390 124.056
121.046 15386 124.04
121.163 15675 125.2
121.279 16224 127.373
121.396 17342 131.689
121.513 18387 135.599
121.63 19568 139.886
121.747 19832 140.826
121.863 20577 143.447
121.98 21232 145.712
122.097 21098 145.252
122.213 21039 145.048
122.33 21137 145.386
122.446 21016 144.969
122.563 20336 142.604
122.679 19911 141.106
122.795 19664 140.228
122.912 18814 137.164
123.028 17878 133.709
123.144 17036 130.522
123.26 16284 127.609
123.377 0 1
123.493 0 1
123.609 0 1
123.725 0 1
123.84 0 1
123.956 0 1
124.072 0 1
124.188 0 1
124.303 0 1
124.419 0 1
126.852 0 1
126.968 0 1
127.083 0 1
127.199 0 1
127.315 0 1
127.431 0 1
127.547 0 1
127.663 0 1
127.779 0 1
127.895 0 1
128.011 0 1
128.127 0 1
128.243 0 1
128.359 19628 140.1
128.476 18697 136.737
128.592 18414 135.698
128.708 18759 136.963
128.825 18839 137.255
128.941 19620 140.071
129.058 19163 138.43
129.174 19357 139.129
129.291 19507 139.667
129.408 19084 138.145
129.524 18822 137.193
129.641 18198 134.9
129.758 17877 133.705
129.875 17586 132.612
129.992 17366 131.78
130.108 17420 131.985
130.225 17784 133.357
130.342 19346 139.09
130.459 19563 139.868
130.576 21257 145.798
130.693 21307 145.969
130.81 21614 147.017
130.928 21734 147.425
131.045 21704 147.323
131.162 22083 148.603
131.279 22259 149.195
131.396 21769 147.543
131.513 21545 146.782
131.631 21178 145.527
131.748 20741 144.017
131.865 19967 141.305
131.983 19082 138.138
132.1 18568 136.264
132.217 18405 135.665
132.335 18764 136.982
132.452 19286 138.874
132.57 19949 141.241
132.687 19348 139.097
132.804 20515 143.231
132.922 19712 140.399
133.039 19516 139.7
133.157 19194 138.542
133.274 18659 136.598
133.392 18226 135.004
133.509 17979 134.086
133.627 18150 134.722
133.744 18187 134.859
133.862 19247 138.734
133.979 20501 143.182
134.097 20975 144.827
134.214 22133 148.772
134.332 21974 148.236
134.449 22545 150.15
134.567 22915 151.377
134.684 23117 152.043
134.802 23411 153.007
134.919 22956 151.512
135.037 22750 150.831
135.154 22705 150.682
135.272 22261 149.201
135.389 21448 146.451
135.507 20825 144.309
135.624 19954 141.259
135.742 19520 139.714
135.859 19586 139.95
135.977 20260 142.338
136.094 20636 143.652
136.211 20930 144.672
136.329 20896 144.554
136.446 20836 144.347
136.564 20844 144.375
136.681 20932 144.679
136.798 20348 142.646
136.915 19757 140.56
137.033 19314 138.975
137.15 18720 136.821
137.267 18613 136.429
137.384 19054 138.036
137.502 19855 140.908
137.619 21003 144.924
137.736 21683 147.251
137.853 21637 147.095
137.97 21655 147.156
138.087 23195 152.299
138.204 22965 151.542
138.321 23531 153.398
138.438 23802 154.279
138.555 23683 153.893
138.672 23420 153.036
138.788 23370 152.872
138.905 23092 151.961
139.022 22158 148.856
139.139 21610 147.003
139.255 20682 143.812
139.372 20099 141.771
139.488 20525 143.265
139.605 20305 142.496
139.721 21214 145.65
139.838 21600 146.969
139.954 21503 146.639
140.071 21185 145.551
140.187 21195 145.585
140.303 20706 143.896
140.419 20430 142.934
140.535 19361 139.144
140.652 18881 137.408
140.768 0 1
140.884 0 1
141 0 1
141.115 0 1
141.231 0 1
141.347 0 1
141.463 0 1
141.578 0 1
141.694 0 1
144.104 0 1
144.219 0 1
144.335 0 1
144.45 0 1
144.566 0 1
144.682 0 1
144.798 0 1
144.914 0 1
145.03 0 1
145.146 37630 193.985
145.262 39699 199.246
145.378 40845 202.101
145.494 40598 201.489
145.61 40216 200.539
145.726 39827 199.567
145.842 40100 200.25
145.959 40176 200.44
146.075 41808 204.47
146.192 44518 210.993
146.308 47665 218.323
146.425 49878 223.334
146.541 51915 227.849
146.658 53235 230.727
146.774 54986 234.491
146.891 56590 237.887
147.008 57874 240.57
147.125 58902 242.697
147.241 59635 244.203
147.358 58994 242.887
147.475 58343 241.543
147.592 57144 239.048
147.709 55614 235.826
147.826 53468 231.231
147.943 52387 228.882
148.06 51899 227.814
148.177 53889 232.14
148.294 56517 237.733
148.411 58261 241.373
148.528 59667 244.268
148.645 59235 243.382
148.762 58658 242.194
148.88 58653 242.184
148.997 55621 235.841
149.114 57496 239.783
149.231 52569 229.279
149.349 51409 226.736
149.466 48887 221.104
149.583 47367 217.64
149.701 47432 217.789
149.818 49843 223.255
149.935 51720 227.42
150.053 52530 229.194
150.17 53854 232.065
150.287 55327 235.217
150.405 55898 236.428
150.522 56732 238.185
150.64 57827 240.472
150.757 57829 240.477
150.875 58004 240.84
150.992 58093 241.025
151.11 55936 236.508
151.227 55645 235.892
151.344 54031 232.446
151.462 51537 227.018
151.579 50308 224.294
151.697 51183 226.237
151.814 53256 230.773
151.932 54484 233.418
152.049 57407 239.598
152.167 58150 241.143
152.284 58394 241.649
152.402 58014 240.861
152.519 58003 240.838
152.636 56551 237.805
152.754 54428 233.298
152.871 51837 227.677
152.989 50655 225.067
153.106 48960 221.269
153.223 47946 218.966
153.341 48165 219.465
153.458 50426 224.557
153.575 52041 228.125
153.693 53306 230.881
153.81 55028 234.58
153.927 55425 235.425
154.044 56808 238.344
154.162 57868 240.558
154.279 59177 243.263
154.396 59871 244.686
154.513 60024 244.998
154.63 60023 244.996
154.747 59006 242.912
154.864 57137 239.033
154.981 56104 236.863
155.098 54115 232.626
155.215 52666 229.491
155.332 52995 230.206
155.449 54743 233.972
155.566 56684 238.084
155.683 58429 241.721
155.8 58608 242.091
155.917 58268 241.388
156.033 58589 242.052
156.15 0 1
156.267 0 1
156.383 0 1
156.5 0 1
156.617 0 1
156.733 0 1
156.85 0 1
156.966 0 1
157.082 0 1
157.199 0 1
157.315 0 1
157.431 0 1
157.547 0 1
157.664 0 1
157.78 0 1
157.896 0 1
158.012 0 1
158.128 0 1
158.244 0 1
158.359 0 1
158.475 0 1
158.591 0 1
158.706 0 1
