
6.15755 0 1
6.2731 0 1
6.3887 0 1
6.50437 0 1
6.62009 0 1
6.73587 0 1
6.8517 0 1
6.96759 0 1
7.08353 0 1
7.19952 0 1
7.31557 0 1
7.43166 0 1
7.54781 0 1
7.664 0 1
7.78024 0 1
7.89653 0 1
8.01286 0 1
8.12924 0 1
8.24567 0 1
8.36213 0 1
8.47864 0 1
8.59519 0 1
8.71178 0 1
8.82841 0 1
8.94508 0 1
9.06179 0 1
9.17853 0 1
9.29531 0 1
9.41212 0 1
9.52897 0 1
9.64584 0 1
9.76276 0 1
9.8797 0 1
9.99667 0 1
10.1137 0 1
10.2307 0 1
10.3478 0 1
10.4648 0 1
10.5819 0 1
10.6991 0 1
10.8162 0 1
10.9334 0 1
11.0506 0 1
11.1678 0 1
11.285 0 1
11.4023 0 1
11.5196 0 1
11.6369 0 1
11.7542 0 1
11.8715 0 1
11.9888 0 1
12.1062 0 1
12.2235 0 1
12.3409 0 1
12.4582 0 1
12.5756 0 1
12.693 0 1
12.8104 0 1
12.9278 0 1
13.0452 0 1
13.1626 0 1
13.28 0 1
13.3974 0 1
13.5149 0 1
13.6323 0 1
13.7497 0 1
13.8671 0 1
13.9845 0 1
14.1019 0 1
14.2193 0 1
14.3367 0 1
14.4541 0 1
14.5714 0 1
14.6888 0 1
14.8062 0 1
14.9235 0 1
15.0408 2660 51.5752
15.1581 2741 52.3546
15.2755 2871 53.5817
15.3927 2830 53.1977
15.51 2793 52.8488
15.6273 2858 53.4603
15.7445 2761 52.5452
15.8617 2808 52.9906
15.9789 2707 52.0288
16.0961 2660 51.5752
16.2132 2689 51.8556
16.3304 2633 51.3128
16.4475 2713 52.0865
16.5646 2740 52.345
16.6816 2763 52.5642
16.7986 2724 52.192
16.9156 2820 53.1037
17.0326 2747 52.4118
17.1496 2734 52.2877
17.2665 2630 51.2835
17.3833 2735 52.2972
17.5002 2567 50.6656
17.617 2622 51.2055
17.7338 2535 50.3488
17.8505 2491 49.9099
17.9672 2688 51.8459
18.0839 2823 53.1319
18.2005 2935 54.1756
18.3171 2827 53.1695
18.4337 3000 54.7723
18.5502 3083 55.5248
18.6666 3006 54.827
18.7831 3180 56.3915
18.8994 3024 54.9909
19.0158 2920 54.037
19.1321 2945 54.2679
19.2483 2719 52.144
19.3645 2629 51.2738
19.4806 2620 51.1859
19.5967 2533 50.3289
19.7128 2475 49.7494
19.8288 2397 48.9592
19.9447 2182 46.7119
20.0606 0 1
20.1764 0 1
20.2922 0 1
20.4079 0 1
20.5236 0 1
20.6392 0 1
20.7548 0 1
20.8702 0 1
23.3078 0 1
23.4233 0 1
23.539 0 1
23.6547 0 1
23.7704 0 1
23.8862 0 1
24.0021 0 1
24.118 0 1
24.234 0 1
24.35 0 1
24.4661 2604 51.0294
24.5822 2459 49.5883
24.6984 2479 49.7896
24.8146 2331 48.2804
24.9309 2518 50.1797
25.0472 2491 49.9099
25.1636 2578 50.774
25.28 2691 51.8748
25.3965 2738 52.3259
25.513 2772 52.6498
25.6296 2915 53.9907
25.7462 2909 53.9351
25.8628 3038 55.1181
25.9795 2810 53.0094
26.0962 2832 53.2165
26.213 2651 51.4879
26.3298 2569 50.6853
26.4466 2543 50.4282
26.5635 2496 49.96
26.6804 2565 50.6458
26.7973 2694 51.9038
26.9143 2669 51.6624
27.0313 2764 52.5738
27.1483 2873 53.6004
27.2653 2955 54.3599
27.3824 2839 53.2823
27.4996 2812 53.0283
27.6167 2761 52.5452
27.7339 2805 52.9623
27.8511 2710 52.0577
27.9683 2639 51.3712
28.0855 2671 51.6817
28.2028 2614 51.1273
28.3201 2443 49.4267
28.4374 2417 49.163
28.5547 2498 49.98
28.6721 2484 49.8397
28.7894 2485 49.8498
28.9068 2590 50.892
29.0242 2565 50.6458
29.1416 2668 51.6527
29.259 2796 52.8772
29.3764 2650 51.4782
29.4939 2631 51.2933
29.6113 2495 49.95
29.7288 2507 50.07
29.8463 2420 49.1935
29.9638 2441 49.4065
30.0812 2302 47.9792
30.1987 2409 49.0816
30.3162 2592 50.9117
30.4337 2551 50.5074
30.5512 2557 50.5668
30.6687 2596 50.951
30.7862 2690 51.8652
30.9037 2636 51.342
31.0212 2746 52.4023
31.1387 2795 52.8678
31.2562 2760 52.5357
31.3737 2729 52.2398
31.4912 2646 51.4393
31.6087 2615 51.1371
31.7262 2526 50.2593
31.8436 2420 49.1935
31.9611 2445 49.4469
32.0785 2268 47.6235
32.1959 2456 49.558
32.3134 2347 48.4458
32.4308 2576 50.7543
32.5482 2575 50.7445
32.6655 2586 50.8527
32.7829 2524 50.2394
32.9002 2584 50.8331
33.0176 2590 50.892
33.1349 2557 50.5668
33.2522 2509 50.0899
33.3694 2509 50.0899
33.4867 2487 49.8698
33.6039 2321 48.1768
33.7211 2358 48.5592
33.8383 2314 48.1041
33.9554 2418 49.1732
34.0725 2480 49.7996
34.1896 2526 50.2593
34.3067 2600 50.9902
34.4237 2603 51.0196
34.5407 2616 51.1468
34.6577 2630 51.2835
34.7746 2624 51.225
34.8915 2638 51.3615
35.0084 2572 50.7149
35.1252 2609 51.0784
35.242 2526 50.2593
35.3587 2389 48.8774
35.4755 2434 49.3356
35.5921 2396 48.949
35.7088 2190 46.7974
35.8254 2235 47.2758
35.9419 2307 48.0312
36.0584 2258 47.5184
36.1749 2303 47.9896
36.2913 2407 49.0612
36.4077 2460 49.5984
36.524 2483 49.8297
36.6403 2483 49.8297
36.7565 2412 49.1121
36.8727 2505 50.05
36.9889 2350 48.4768
37.1049 2221 47.1275
37.221 0 1
37.3369 0 1
37.4529 0 1
37.5687 0 1
37.6845 0 1
37.8003 0 1
37.916 0 1
38.0316 0 1
38.1472 0 1
40.5851 0 1
40.7008 0 1
40.8164 0 1
40.9322 0 1
41.048 0 1
41.1639 0 1
41.2798 0 1
41.3958 0 1
41.5118 0 1
41.6279 0 1
41.744 1887 43.4396
41.8602 1982 44.5197
41.9765 2027 45.0222
42.0928 2114 45.9783
42.2091 2061 45.3982
42.3255 1983 44.5309
42.4419 1980 44.4972
42.5584 1874 43.2897
42.675 1782 42.2137
42.7915 1892 43.4971
42.9081 1898 43.566
43.0248 1961 44.2832
43.1415 2002 44.7437
43.2582 2092 45.7384
43.375 2183 46.7226
43.4918 2095 45.7712
43.6087 2086 45.6727
43.7256 2116 46
43.8425 2128 46.1303
43.9595 2006 44.7884
44.0765 1940 44.0454
44.1935 1893 43.5086
44.3106 1806 42.4971
44.4277 1708 41.328
44.5448 1589 39.8623
44.6619 1629 40.3609
44.7791 1556 39.4462
44.8963 1627 40.3361
45.0136 1598 39.975
45.1308 1529 39.1024
45.2481 1642 40.5216
45.3654 1598 39.975
45.4827 1601 40.0125
45.6001 1608 40.0999
45.7174 1637 40.4599
45.8348 1670 40.8656
45.9522 1591 39.8873
46.0697 1515 38.923
46.1871 1457 38.1707
46.3046 1432 37.8418
46.422 1374 37.0675
46.5395 1393 37.3229
46.657 1455 38.1445
46.7745 1486 38.5487
46.892 1506 38.8072
47.0096 1571 39.6358
47.1271 1525 39.0512
47.2446 1583 39.7869
47.3622 1559 39.4842
47.4797 1572 39.6485
47.5973 1526 39.064
47.7149 1448 38.0526
47.8324 1491 38.6135
47.95 1411 37.5633
48.0675 1325 36.4005
48.1851 1323 36.3731
48.3027 1295 35.9861
48.4202 1189 34.4819
48.5378 1256 35.4401
48.6554 1321 36.3456
48.7729 1301 36.0694
48.8904 1404 37.47
49.008 1358 36.8511
49.1255 1419 37.6696
49.243 1419 37.6696
49.3605 1363 36.9188
49.478 1426 37.7624
49.5955 1349 36.7287
49.713 1355 36.8103
49.8304 1272 35.6651
49.9479 1315 36.2629
50.0653 1344 36.6606
50.1827 1422 37.7094
50.3001 1529 39.1024
50.4175 1591 39.8873
50.5348 1575 39.6863
50.6521 1668 40.8412
50.7694 1690 41.1096
50.8867 1718 41.4488
51.004 1642 40.5216
51.1212 1764 42
51.2384 1777 42.1545
51.3556 1858 43.1045
51.4727 1699 41.2189
51.5899 1658 40.7185
51.707 1679 40.9756
51.824 1577 39.7115
51.9411 1673 40.9023
52.0581 1754 41.8808
52.175 1839 42.8836
52.2919 1913 43.7379
52.4088 1905 43.6463
52.5257 2012 44.8553
52.6425 2056 45.3431
52.7593 2125 46.0977
52.876 2239 47.3181
52.9927 2150 46.3681
53.1094 2152 46.3897
53.226 2029 45.0444
53.3426 1938 44.0227
53.4591 1907 43.6692
53.5756 1941 44.0568
53.692 2061 45.3982
53.8084 2142 46.2817
53.9248 2206 46.9681
54.0411 2374 48.7237
54.1573 2352 48.4974
54.2735 0 1
54.3896 0 1
54.5057 0 1
54.6217 0 1
54.7377 0 1
54.8537 0 1
54.9695 0 1
55.0853 0 1
55.2011 0 1
55.3168 0 1
55.4324 0 1
57.824 0 1
57.9396 0 1
58.0553 0 1
58.1711 0 1
58.2869 0 1
58.4028 0 1
58.5187 0 1
58.6347 0 1
58.7508 0 1
58.8669 0 1
58.983 2647 51.449
59.0992 2807 52.9811
59.2155 2925 54.0833
59.3318 2892 53.7773
59.4482 3028 55.0273
59.5646 3028 55.0273
59.681 3135 55.9911
59.7975 3002 54.7905
59.9141 2995 54.7266
60.0306 3028 55.0273
60.1473 2888 53.7401
60.2639 2752 52.4595
60.3807 2752 52.4595
60.4974 2608 51.0686
60.6142 2573 50.7247
60.731 2477 49.7695
60.8479 2579 50.7839
60.9648 2628 51.264
61.0818 2750 52.4404
61.1987 2689 51.8556
61.3158 2845 53.3385
61.4328 2899 53.8424
61.5499 2920 54.037
61.667 2921 54.0463
61.7841 2817 53.0754
61.9013 2656 51.5364
62.0185 2428 49.2747
62.1357 2520 50.1996
62.253 2546 50.4579
62.3702 2528 50.2792
62.4875 2687 51.8363
62.6049 2660 51.5752
62.7222 2677 51.7397
62.8396 2720 52.1536
62.9569 2731 52.259
63.0743 2632 51.303
63.1918 2775 52.6783
63.3092 2793 52.8488
63.4267 2648 51.4587
63.5441 2747 52.4118
63.6616 2637 51.3517
63.7791 2608 51.0686
63.8966 2365 48.6313
64.0142 2391 48.8979
64.1317 2319 48.156
64.2492 2132 46.1736
64.3668 2278 47.7284
64.4843 2366 48.6415
64.6019 2390 48.8876
64.7195 2546 50.4579
64.837 2548 50.4777
64.9546 2484 49.8397
65.0722 2654 51.517
65.1898 2708 52.0384
65.3074 2551 50.5074
65.4249 2539 50.3885
65.5425 2421 49.2037
65.6601 2394 48.9285
65.7777 2188 46.7761
65.8952 2404 49.0306
66.0128 2342 48.3942
66.1304 2507 50.07
66.2479 2499 49.99
66.3655 2600 50.9902
66.483 2630 51.2835
66.6005 2599 50.9804
66.718 2745 52.3927
66.8355 2646 51.4393
66.953 2756 52.4976
67.0705 2625 51.2348
67.1879 2711 52.0673
67.3054 2675 51.7204
67.4228 2681 51.7784
67.5402 2574 50.7346
67.6576 2414 49.1325
67.7749 2321 48.1768
67.8923 2260 47.5395
68.0096 2270 47.6445
68.1269 2427 49.2646
68.2442 2507 50.07
68.3614 2640 51.3809
68.4787 2580 50.7937
68.5958 2752 52.4595
68.713 2728 52.2303
68.8302 2794 52.8583
68.9473 2852 53.4041
69.0643 2789 52.811
69.1814 2667 51.643
69.2984 2532 50.319
69.4154 2497 49.97
69.5323 2375 48.734
69.6492 2442 49.4166
69.7661 2639 51.3712
69.8829 2695 51.9134
69.9997 2780 52.7257
70.1165 2781 52.7352
70.2332 2929 54.1202
70.3499 2975 54.5436
70.4665 2881 53.6749
70.5831 2963 54.4334
70.6996 2958 54.3875
70.8161 2975 54.5436
70.9326 2877 53.6377
71.049 2857 53.4509
71.1653 2850 53.3854
71.2817 2697 51.9326
71.3979 2467 49.6689
71.5141 2312 48.0833
71.6303 2288 47.833
71.7464 2170 46.5833
71.8624 0 1
71.9784 0 1
72.0944 0 1
72.2102 0 1
72.3261 0 1
72.4418 0 1
72.5575 0 1
72.6732 0 1
75.1054 0 1
75.2209 0 1
75.3365 0 1
75.4521 0 1
75.5678 0 1
75.6835 0 1
75.7993 0 1
75.9151 0 1
76.031 0 1
76.147 2633 51.3128
76.263 2817 53.0754
76.3791 2848 53.3667
76.4952 2673 51.7011
76.6113 2656 51.5364
76.7276 2498 49.98
76.8438 2261 47.55
76.9601 2515 50.1498
77.0765 2513 50.1298
77.1929 2557 50.5668
77.3093 2679 51.7591
77.4258 2834 53.2353
77.5423 2934 54.1664
77.6589 2847 53.3573
77.7755 2893 53.7866
77.8921 2904 53.8888
78.0088 2771 52.6403
78.1256 2700 51.9615
78.2423 2564 50.636
78.3591 2387 48.8569
78.4759 2288 47.833
78.5928 2363 48.6107
78.7097 2495 49.95
78.8266 2488 49.8799
78.9436 2769 52.6213
79.0606 2784 52.7636
79.1776 2738 52.3259
79.2946 2789 52.811
79.4117 2954 54.3507
79.5288 2922 54.0555
79.6459 2876 53.6284
79.7631 2928 54.111
79.8802 2947 54.2863
79.9974 2908 53.9259
80.1147 2819 53.0943
80.2319 2696 51.923
80.3491 2470 49.6991
80.4664 2426 49.2544
80.5837 2470 49.6991
80.701 2487 49.8698
80.8183 2628 51.264
80.9357 2779 52.7162
81.053 2765 52.5833
81.1704 2810 53.0094
81.2877 2916 54
81.4051 2783 52.7541
81.5225 3042 55.1543
81.6399 2939 54.2125
81.7573 2830 53.1977
81.8747 2561 50.6063
81.9922 2483 49.8297
82.1096 2310 48.0625
82.227 2390 48.8876
82.3444 2596 50.951
82.4619 2715 52.1057
82.5793 2809 53
82.6967 2840 53.2917
82.8142 2829 53.1883
82.9316 3007 54.8361
83.049 2962 54.4243
83.1664 2871 53.5817
83.2838 2954 54.3507
83.4012 2925 54.0833
83.5186 2992 54.6992
83.636 2930 54.1295
83.7534 2763 52.5642
83.8708 2725 52.2015
83.9881 2549 50.4876
84.1055 2516 50.1597
84.2228 2560 50.5964
84.3401 2496 49.96
84.4575 2627 51.2543
84.5747 2715 52.1057
84.692 2812 53.0283
84.8093 2925 54.0833
84.9265 3038 55.1181
85.0437 3024 54.9909
85.1609 3032 55.0636
85.2781 2918 54.0185
85.3952 2841 53.301
85.5123 2576 50.7543
85.6294 2407 49.0612
85.7465 2405 49.0408
85.8636 2606 51.049
85.9806 2785 52.7731
86.0976 2909 53.9351
86.2145 3020 54.9545
86.3315 3017 54.9272
86.4484 3052 55.2449
86.5652 3133 55.9732
86.682 3101 55.6866
86.7988 3125 55.9017
86.9156 3184 56.4269
87.0323 3204 56.6039
87.149 3210 56.6569
87.2657 2995 54.7266
87.3823 3066 55.3715
87.4988 2793 52.8488
87.6154 2674 51.7107
87.7318 2619 51.1762
87.8483 2688 51.8459
87.9647 2858 53.4603
88.081 2879 53.6563
88.1973 2955 54.3599
88.3136 3060 55.3173
88.4298 3114 55.8032
88.546 3107 55.7405
88.6621 3176 56.356
88.7781 3125 55.9017
88.8942 0 1
89.0101 0 1
89.126 0 1
89.2419 0 1
89.3577 0 1
89.4734 0 1
89.5891 0 1
89.7047 0 1
89.8203 0 1
89.9358 0 1
92.3269 0 1
92.4424 0 1
92.558 0 1
92.6736 0 1
92.7893 0 1
92.905 0 1
93.0208 0 1
93.1366 0 1
93.2525 0 1
93.3685 0 1
93.4845 0 1
93.6005 2794 52.8583
93.7167 3053 55.254
93.8328 3043 55.1634
93.949 3115 55.8122
94.0653 2999 54.7631
94.1816 3019 54.9454
94.2979 2676 51.7301
94.4143 2582 50.8134
94.5307 2393 48.9183
94.6472 2458 49.5782
94.7637 2457 49.5681
94.8803 2519 50.1896
94.9969 2746 52.4023
95.1135 2844 53.3292
95.2302 2802 52.9339
95.3469 2836 53.2541
95.4637 3026 55.0091
95.5805 2977 54.5619
95.6973 3067 55.3805
95.8142 3066 55.3715
95.9311 3114 55.8032
96.048 3024 54.9909
96.1649 3013 54.8908
96.2819 2988 54.6626
96.3989 2874 53.6097
96.516 2727 52.2207
96.633 2689 51.8556
96.7501 2597 50.9608
96.8673 2500 50
96.9844 2559 50.5866
97.1016 2650 51.4782
97.2188 2766 52.5928
97.336 2761 52.5452
97.4532 2857 53.4509
97.5704 2956 54.3691
97.6877 2965 54.4518
97.805 3003 54.7996
97.9223 2802 52.9339
98.0396 2750 52.4404
98.1569 2614 51.1273
98.2743 2515 50.1498
98.3916 2365 48.6313
98.509 2500 50
98.6264 2553 50.5272
98.7438 2710 52.0577
98.8612 2835 53.2447
98.9786 2888 53.7401
99.096 2845 53.3385
99.2134 2840 53.2917
99.3308 2866 53.535
99.4482 2969 54.4885
99.5656 2873 53.6004
99.6831 2789 52.811
99.8005 2835 53.2447
99.9179 2850 53.3854
100.035 2736 52.3068
100.153 2634 51.3225
100.27 2611 51.0979
100.388 2394 48.9285
100.505 2447 49.4672
100.622 2560 50.5964
100.74 2515 50.1498
100.857 2772 52.6498
100.975 2842 53.3104
101.092 2866 53.535
101.209 2897 53.8238
101.327 2962 54.4243
101.444 2991 54.69
101.561 2824 53.1413
101.679 2692 51.8845
101.796 2563 50.6261
101.913 2434 49.3356
102.03 2463 49.6286
102.148 2510 50.0999
102.265 2514 50.1398
102.382 3079 55.4887
102.499 2919 54.0278
102.616 2944 54.2586
102.733 2964 54.4426
102.851 3095 55.6327
102.968 3137 56.0089
103.085 3148 56.107
103.202 2973 54.5252
103.319 3031 55.0545
103.436 3028 55.0273
103.552 2911 53.9537
103.669 2839 53.2823
103.786 2791 52.8299
103.903 2620 51.1859
104.02 2723 52.1824
104.137 2674 51.7107
104.253 2773 52.6593
104.37 2862 53.4977
104.487 3052 55.2449
104.603 3048 55.2087
104.72 3043 55.1634
104.836 3221 56.7539
104.953 3145 56.0803
105.069 3003 54.7996
105.186 2767 52.6023
105.302 2693 51.8941
105.418 2476 49.7594
105.535 2605 51.0392
105.651 2771 52.6403
105.767 2895 53.8052
105.883 2969 54.4885
105.999 3072 55.4256
106.115 0 1
106.231 0 1
106.347 0 1
106.463 0 1
106.579 0 1
106.694 0 1
106.81 0 1
106.926 0 1
107.041 0 1
107.157 0 1
109.576 0 1
109.692 0 1
109.807 0 1
109.923 0 1
110.039 0 1
110.155 0 1
110.27 0 1
110.386 0 1
110.502 0 1
110.618 2241 47.3392
110.735 2438 49.3761
110.851 2616 51.1468
110.967 2703 51.9904
111.083 2727 52.2207
111.199 2802 52.9339
111.316 2796 52.8772
111.432 2812 53.0283
111.549 2890 53.7587
111.665 2867 53.5444
111.782 2677 51.7397
111.898 2686 51.8266
112.015 2659 51.5655
112.132 2628 51.264
112.248 2500 50
112.365 2392 48.9081
112.482 2386 48.8467
112.599 2304 48
112.716 2365 48.6313
112.832 2343 48.4045
112.949 2411 49.1019
113.066 2391 48.8979
113.183 2510 50.0999
113.3 2692 51.8845
113.417 2632 51.303
113.534 2534 50.3389
113.652 2492 49.9199
113.769 2377 48.7545
113.886 2228 47.2017
114.003 2051 45.288
114.12 2030 45.0555
114.238 2197 46.8722
114.355 2258 47.5184
114.472 2361 48.5901
114.589 2315 48.1144
114.707 2360 48.5798
114.824 2413 49.1223
114.942 2380 48.7852
115.059 2388 48.8672
115.176 2253 47.4658
115.294 2285 47.8017
115.411 2289 47.8435
115.529 2149 46.3573
115.646 2155 46.422
115.764 2065 45.4423
115.881 1980 44.4972
115.999 1795 42.3674
116.116 1809 42.5323
116.234 1806 42.4971
116.351 1851 43.0232
116.469 1859 43.1161
116.586 2040 45.1664
116.704 2102 45.8476
116.821 2063 45.4203
116.939 2073 45.5302
117.056 2001 44.7325
117.174 2014 44.8776
117.291 2011 44.8442
117.409 1754 41.8808
117.526 1664 40.7922
117.644 1707 41.3159
117.761 1748 41.8091
117.879 1850 43.0116
117.996 1904 43.6348
118.114 1982 44.5197
118.231 2026 45.0111
118.349 2063 45.4203
118.466 2081 45.618
118.584 2021 44.9555
118.701 2048 45.2548
118.819 2152 46.3897
118.936 2073 45.5302
119.053 2054 45.3211
119.171 1945 44.1022
119.288 2018 44.9222
119.405 1932 43.9545
119.523 1876 43.3128
119.64 1840 42.8952
119.757 1741 41.7253
119.875 1827 42.7434
119.992 1938 44.0227
120.109 1985 44.5533
120.226 2051 45.288
120.343 2180 46.6905
120.46 2144 46.3033
120.578 2090 45.7165
120.695 2256 47.4974
120.812 2301 47.9687
120.929 2229 47.2123
121.046 2041 45.1774
121.163 2015 44.8888
121.279 1882 43.382
121.396 1941 44.0568
121.513 1981 44.5084
121.63 2140 46.2601
121.747 2228 47.2017
121.863 2317 48.1352
121.98 2291 47.8644
122.097 2395 48.9387
122.213 2380 48.7852
122.33 2380 48.7852
122.446 2487 49.8698
122.563 2391 48.8979
122.679 2407 49.0612
122.795 2368 48.6621
122.912 2362 48.6004
123.028 2268 47.6235
123.144 2239 47.3181
123.26 2169 46.5725
123.377 0 1
123.493 0 1
123.609 0 1
123.725 0 1
123.84 0 1
123.956 0 1
124.072 0 1
124.188 0 1
124.303 0 1
124.419 0 1
126.852 0 1
126.968 0 1
127.083 0 1
127.199 0 1
127.315 0 1
127.431 0 1
127.547 0 1
127.663 0 1
127.779 0 1
127.895 0 1
128.011 0 1
128.127 0 1
128.243 0 1
128.359 2781 52.7352
128.476 2645 51.4296
128.592 2632 51.303
128.708 2496 49.96
128.825 2378 48.7647
128.941 2583 50.8232
129.058 2656 51.5364
129.174 2676 51.7301
129.291 2724 52.192
129.408 2719 52.144
129.524 2818 53.0848
129.641 2867 53.5444
129.758 2768 52.6118
129.875 2744 52.3832
129.992 2667 51.643
130.108 2607 51.0588
130.225 2417 49.163
130.342 2291 47.8644
130.459 2408 49.0714
130.576 2337 48.3425
130.693 2520 50.1996
130.81 2714 52.0961
130.928 2665 51.6236
131.045 2679 51.7591
131.162 2756 52.4976
131.279 2820 53.1037
131.396 2834 53.2353
131.513 2761 52.5452
131.631 2712 52.0769
131.748 2749 52.4309
131.865 2687 51.8363
131.983 2529 50.2892
132.1 2516 50.1597
132.217 2340 48.3735
132.335 2436 49.3559
132.452 2330 48.2701
132.57 2420 49.1935
132.687 2402 49.0102
132.804 2650 51.4782
132.922 2668 51.6527
133.039 2653 51.5073
133.157 2688 51.8459
133.274 2650 51.4782
133.392 2706 52.0192
133.509 2630 51.2835
133.627 2577 50.7642
133.744 2305 48.0104
133.862 2210 47.0106
133.979 2153 46.4004
134.097 2321 48.1768
134.214 2450 49.4975
134.332 2470 49.6991
134.449 2669 51.6624
134.567 2578 50.774
134.684 2715 52.1057
134.802 2634 51.3225
134.919 2613 51.1175
135.037 2557 50.5668
135.154 2575 50.7445
135.272 2485 49.8498
135.389 2421 49.2037
135.507 2465 49.6488
135.624 2294 47.8957
135.742 2270 47.6445
135.859 1998 44.699
135.977 2099 45.8148
136.094 2098 45.8039
136.211 2117 46.0109
136.329 2068 45.4753
136.446 2169 46.5725
136.564 2251 47.4447
136.681 2185 46.744
136.798 2262 47.5605
136.915 2365 48.6313
137.033 2188 46.7761
137.15 2159 46.465
137.267 1989 44.5982
137.384 2023 44.9778
137.502 1909 43.6921
137.619 1852 43.0349
137.736 2033 45.0888
137.853 2094 45.7602
137.97 2177 46.6583
138.087 2336 48.3322
138.204 2329 48.2597
138.321 2363 48.6107
138.438 2490 49.8999
138.555 2412 49.1121
138.672 2449 49.4874
138.788 2463 49.6286
138.905 2476 49.7594
139.022 2233 47.2546
139.139 2428 49.2747
139.255 2373 48.7134
139.372 2216 47.0744
139.488 2352 48.4974
139.605 2192 46.8188
139.721 2273 47.676
139.838 2389 48.8774
139.954 2525 50.2494
140.071 2540 50.3984
140.187 2703 51.9904
140.303 2614 51.1273
140.419 2638 51.3615
140.535 2742 52.3641
140.652 2588 50.8724
140.768 0 1
140.884 0 1
141 0 1
141.115 0 1
141.231 0 1
141.347 0 1
141.463 0 1
141.578 0 1
141.694 0 1
144.104 0 1
144.219 0 1
144.335 0 1
144.45 0 1
144.566 0 1
144.682 0 1
144.798 0 1
144.914 0 1
145.03 0 1
145.146 3645 60.3738
145.262 4029 63.4744
145.378 4350 65.9545
145.494 4434 66.5883
145.61 4663 68.2862
145.726 4767 69.0435
145.842 4963 70.4486
145.959 4851 69.6491
146.075 4891 69.9357
146.192 4820 69.4262
146.308 4837 69.5485
146.425 5125 71.5891
146.541 5677 75.3459
146.658 6034 77.6788
146.774 6584 81.1419
146.891 6712 81.9268
147.008 7197 84.8351
147.125 7648 87.4528
147.241 7956 89.1964
147.358 8011 89.5042
147.475 8124 90.1332
147.592 8332 91.2798
147.709 8217 90.6477
147.826 8129 90.161
147.943 8198 90.5428
148.06 7971 89.2805
148.177 7676 87.6128
148.294 7684 87.6584
148.411 7746 88.0114
148.528 7993 89.4036
148.645 8201 90.5594
148.762 8526 92.3363
148.88 8700 93.2738
148.997 9014 94.9421
149.114 8396 91.6297
149.231 8756 93.5735
149.349 8544 92.4338
149.466 8605 92.7631
149.583 7850 88.6002
149.701 7260 85.2056
149.818 7237 85.0706
149.935 6829 82.6378
150.053 6960 83.4266
150.17 7409 86.0755
150.287 7657 87.5043
150.405 7836 88.5212
150.522 8012 89.5098
150.64 8365 91.4604
150.757 8281 91
150.875 8428 91.8041
150.992 8347 91.3619
151.11 8770 93.6483
151.227 8393 91.6133
151.344 8101 90.0056
151.462 8096 89.9778
151.579 8053 89.7385
151.697 7745 88.0057
151.814 7636 87.3842
151.932 7760 88.0909
152.049 7953 89.1796
152.167 8014 89.5209
152.284 8455 91.9511
152.402 8788 93.7443
152.519 9082 95.2995
152.636 9359 96.7419
152.754 9353 96.7109
152.871 9466 97.2934
152.989 9160 95.7079
153.106 8943 94.5674
153.223 8301 91.1098
153.341 7934 89.073
153.458 7734 87.9432
153.575 7571 87.0115
153.693 7934 89.073
153.81 8392 91.6079
153.927 8717 93.3649
154.044 9009 94.9158
154.162 9289 96.3795
154.279 9364 96.7678
154.396 9504 97.4885
154.513 10092 100.459
154.63 10113 100.563
154.747 10294 101.459
154.864 10063 100.315
154.981 9817 99.0808
155.098 9791 98.9495
155.215 9735 98.6661
155.332 9676 98.3667
155.449 9303 96.4521
155.566 9429 97.103
155.683 9529 97.6166
155.8 10075 100.374
155.917 10346 101.715
156.033 11094 105.328
156.15 0 1
156.267 0 1
156.383 0 1
156.5 0 1
156.617 0 1
156.733 0 1
156.85 0 1
156.966 0 1
157.082 0 1
157.199 0 1
157.315 0 1
157.431 0 1
157.547 0 1
157.664 0 1
157.78 0 1
157.896 0 1
158.012 0 1
158.128 0 1
158.244 0 1
158.359 0 1
158.475 0 1
158.591 0 1
158.706 0 1
