
6.15755 0 1
6.2731 0 1
6.3887 0 1
6.50437 0 1
6.62009 0 1
6.73587 0 1
6.8517 0 1
6.96759 0 1
7.08353 0 1
7.19952 0 1
7.31557 0 1
7.43166 0 1
7.54781 0 1
7.664 0 1
7.78024 0 1
7.89653 0 1
8.01286 0 1
8.12924 0 1
8.24567 0 1
8.36213 0 1
8.47864 0 1
8.59519 0 1
8.71178 0 1
8.82841 0 1
8.94508 0 1
9.06179 0 1
9.17853 0 1
9.29531 0 1
9.41212 0 1
9.52897 0 1
9.64584 0 1
9.76276 0 1
9.8797 0 1
9.99667 0 1
10.1137 0 1
10.2307 0 1
10.3478 0 1
10.4648 0 1
10.5819 0 1
10.6991 0 1
10.8162 0 1
10.9334 0 1
11.0506 0 1
11.1678 0 1
11.285 0 1
11.4023 0 1
11.5196 0 1
11.6369 0 1
11.7542 0 1
11.8715 0 1
11.9888 0 1
12.1062 0 1
12.2235 0 1
12.3409 0 1
12.4582 0 1
12.5756 0 1
12.693 0 1
12.8104 0 1
12.9278 0 1
13.0452 0 1
13.1626 0 1
13.28 0 1
13.3974 0 1
13.5149 0 1
13.6323 0 1
13.7497 0 1
13.8671 0 1
13.9845 0 1
14.1019 0 1
14.2193 0 1
14.3367 0 1
14.4541 0 1
14.5714 0 1
14.6888 0 1
14.8062 0 1
14.9235 0 1
15.0408 0 0
15.1581 0 0
15.2755 0 0
15.3927 0 0
15.51 0 0
15.6273 0 0
15.7445 0 0
15.8617 0 0
15.9789 0 0
16.0961 0 0
16.2132 0 0
16.3304 0 0
16.4475 0 0
16.5646 0 0
16.6816 0 0
16.7986 0 0
16.9156 0 0
17.0326 0 0
17.1496 0 0
17.2665 0 0
17.3833 0 0
17.5002 0 0
17.617 0 0
17.7338 0 0
17.8505 0 0
17.9672 0 0
18.0839 0 0
18.2005 0 0
18.3171 0 0
18.4337 0 0
18.5502 0 0
18.6666 0 0
18.7831 0 0
18.8994 0 0
19.0158 0 0
19.1321 0 0
19.2483 0 0
19.3645 0 0
19.4806 0 0
19.5967 0 0
19.7128 0 0
19.8288 0 0
19.9447 0 0
20.0606 0 1
20.1764 0 1
20.2922 0 1
20.4079 0 1
20.5236 0 1
20.6392 0 1
20.7548 0 1
20.8702 0 1
23.3078 0 1
23.4233 0 1
23.539 0 1
23.6547 0 1
23.7704 0 1
23.8862 0 1
24.0021 0 1
24.118 0 1
24.234 0 1
24.35 0 1
24.4661 5346 73.1163
24.5822 6721 81.9817
24.6984 7607 87.2181
24.8146 8524 92.3255
24.9309 9283 96.3483
25.0472 10215 101.069
25.1636 11117 105.437
25.28 11887 109.028
25.3965 12678 112.597
25.513 13278 115.23
25.6296 13716 117.115
25.7462 14249 119.369
25.8628 14503 120.428
25.9795 14251 119.378
26.0962 14345 119.771
26.213 13834 117.618
26.3298 12897 113.565
26.4466 11995 109.522
26.5635 11871 108.954
26.6804 11782 108.545
26.7973 12293 110.874
26.9143 12774 113.022
27.0313 12543 111.996
27.1483 13019 114.101
27.2653 13530 116.319
27.3824 13518 116.267
27.4996 13699 117.043
27.6167 13511 116.237
27.7339 12993 113.987
27.8511 12740 112.872
27.9683 12490 111.759
28.0855 12317 110.982
28.2028 12010 109.59
28.3201 11507 107.271
28.4374 11514 107.303
28.5547 11842 108.821
28.6721 12476 111.696
28.7894 12609 112.29
28.9068 13435 115.909
29.0242 13634 116.765
29.1416 13724 117.149
29.259 13825 117.58
29.3764 13596 116.602
29.4939 13718 117.124
29.6113 13339 115.495
29.7288 12474 111.687
29.8463 11926 109.206
29.9638 11528 107.369
30.0812 11392 106.733
30.1987 11268 106.151
30.3162 11987 109.485
30.4337 12040 109.727
30.5512 11994 109.517
30.6687 12503 111.817
30.7862 12742 112.88
30.9037 13134 114.604
31.0212 13390 115.715
31.1387 13033 114.162
31.2562 12809 113.177
31.3737 12641 112.432
31.4912 12236 110.616
31.6087 12039 109.722
31.7262 11607 107.736
31.8436 11093 105.323
31.9611 11129 105.494
32.0785 11326 106.424
32.1959 11997 109.531
32.3134 12572 112.125
32.4308 13170 114.761
32.5482 13458 116.009
32.6655 13207 114.922
32.7829 13231 115.026
32.9002 13326 115.438
33.0176 13268 115.187
33.1349 13376 115.655
33.2522 13187 114.835
33.3694 12422 111.454
33.4867 11694 108.139
33.6039 11317 106.381
33.7211 11026 105.005
33.8383 11103 105.371
33.9554 11337 106.475
34.0725 11641 107.893
34.1896 11880 108.995
34.3067 11992 109.508
34.4237 12593 112.219
34.5407 12513 111.862
34.6577 13016 114.088
34.7746 12905 113.6
34.8915 12335 111.063
35.0084 12497 111.79
35.1252 11869 108.945
35.242 11414 106.836
35.3587 11334 106.461
35.4755 11206 105.858
35.5921 10418 102.069
35.7088 10551 102.718
35.8254 10932 104.556
35.9419 11489 107.187
36.0584 11920 109.179
36.1749 12214 110.517
36.2913 12208 110.49
36.4077 11927 109.211
36.524 11642 107.898
36.6403 11205 105.854
36.7565 11075 105.238
36.8727 10522 102.577
36.9889 9836 99.1766
37.1049 8797 93.7923
37.221 0 1
37.3369 0 1
37.4529 0 1
37.5687 0 1
37.6845 0 1
37.8003 0 1
37.916 0 1
38.0316 0 1
38.1472 0 1
40.5851 0 1
40.7008 0 1
40.8164 0 1
40.9322 0 1
41.048 0 1
41.1639 0 1
41.2798 0 1
41.3958 0 1
41.5118 0 1
41.6279 0 1
41.744 6070 77.9102
41.8602 6881 82.9518
41.9765 7561 86.954
42.0928 7965 89.2468
42.2091 7875 88.7412
42.3255 7684 87.6584
42.4419 7621 87.2983
42.5584 7970 89.2749
42.675 8630 92.8978
42.7915 9532 97.632
42.9081 9846 99.227
43.0248 10038 100.19
43.1415 10283 101.405
43.2582 10358 101.774
43.375 10777 103.812
43.4918 10976 104.766
43.6087 10788 103.865
43.7256 10901 104.408
43.8425 10673 103.31
43.9595 10238 101.183
44.0765 10006 100.03
44.1935 9898 99.4887
44.3106 9306 96.4676
44.4277 8779 93.6963
44.5448 8776 93.6803
44.6619 8853 94.0904
44.7791 9500 97.4679
44.8963 10010 100.05
45.0136 10781 103.832
45.1308 11099 105.352
45.2481 11062 105.176
45.3654 10979 104.781
45.4827 11249 106.061
45.6001 11106 105.385
45.7174 10839 104.111
45.8348 10378 101.872
45.9522 9819 99.0909
46.0697 9590 97.9285
46.1871 9276 96.312
46.3046 9528 97.6115
46.422 10088 100.439
46.5395 10305 101.514
46.657 10530 102.616
46.7745 10639 103.146
46.892 10882 104.317
47.0096 11082 105.271
47.1271 11370 106.63
47.2446 11113 105.418
47.3622 10948 104.633
47.4797 10856 104.192
47.5973 10627 103.087
47.7149 10229 101.139
47.8324 9784 98.9141
47.95 9205 95.9427
48.0675 8726 93.4131
48.1851 8773 93.6643
48.3027 9273 96.2964
48.4202 9967 99.8349
48.5378 10713 103.504
48.6554 11106 105.385
48.7729 11262 106.123
48.8904 11247 106.052
49.008 10981 104.79
49.1255 11080 105.262
49.243 10529 102.611
49.3605 10143 100.712
49.478 9954 99.7697
49.5955 9634 98.1529
49.713 9350 96.6954
49.8304 9380 96.8504
49.9479 10065 100.324
50.0653 10224 101.114
50.1827 10680 103.344
50.3001 10832 104.077
50.4175 11031 105.029
50.5348 10934 104.566
50.6521 11233 105.986
50.7694 11349 106.532
50.8867 11146 105.575
51.004 11036 105.052
51.1212 10665 103.271
51.2384 10210 101.045
51.3556 9793 98.9596
51.4727 8955 94.6309
51.5899 8448 91.913
51.707 8679 93.1612
51.824 9348 96.6851
51.9411 10183 100.911
52.0581 10993 104.848
52.175 11367 106.616
52.2919 11244 106.038
52.4088 11275 106.184
52.5257 11479 107.14
52.6425 11481 107.149
52.7593 11264 106.132
52.876 10900 104.403
52.9927 10483 102.387
53.1094 10372 101.843
53.226 9723 98.6053
53.3426 9397 96.9381
53.4591 9486 97.3961
53.5756 9815 99.0707
53.692 9709 98.5343
53.8084 9618 98.0714
53.9248 9282 96.3431
54.0411 8907 94.3769
54.1573 8663 93.0752
54.2735 0 1
54.3896 0 1
54.5057 0 1
54.6217 0 1
54.7377 0 1
54.8537 0 1
54.9695 0 1
55.0853 0 1
55.2011 0 1
55.3168 0 1
55.4324 0 1
57.824 0 1
57.9396 0 1
58.0553 0 1
58.1711 0 1
58.2869 0 1
58.4028 0 1
58.5187 0 1
58.6347 0 1
58.7508 0 1
58.8669 0 1
58.983 6733 82.0549
59.0992 7875 88.7412
59.2155 8814 93.8829
59.3318 9766 98.8231
59.4482 10447 102.211
59.5646 11298 106.292
59.681 11796 108.609
59.7975 12152 110.236
59.9141 12041 109.731
60.0306 11732 108.314
60.1473 11221 105.929
60.2639 10562 102.772
60.3807 10247 101.227
60.4974 10530 102.616
60.6142 11417 106.85
60.731 12046 109.754
60.8479 12940 113.754
60.9648 13382 115.681
61.0818 13678 116.953
61.1987 13600 116.619
61.3158 13523 116.288
61.4328 13442 115.94
61.5499 13021 114.11
61.667 12503 111.817
61.7841 12025 109.659
61.9013 11747 108.384
62.0185 11685 108.097
62.1357 11887 109.028
62.253 12455 111.602
62.3702 12992 113.982
62.4875 13308 115.36
62.6049 13401 115.763
62.7222 13497 116.177
62.8396 13684 116.979
62.9569 13915 117.962
63.0743 13793 117.444
63.1918 13599 116.615
63.3092 13541 116.366
63.4267 13036 114.175
63.5441 12307 110.937
63.6616 11509 107.28
63.7791 10312 101.548
63.8966 9965 99.8248
64.0142 10121 100.603
64.1317 10586 102.888
64.2492 11614 107.768
64.3668 12564 112.089
64.4843 13044 114.21
64.6019 13400 115.758
64.7195 13086 114.394
64.837 13190 114.848
64.9546 12926 113.693
65.0722 12908 113.613
65.1898 12318 110.986
65.3074 11873 108.963
65.4249 11650 107.935
65.5425 11255 106.09
65.6601 11527 107.364
65.7777 11939 109.266
65.8952 12406 111.382
66.0128 12678 112.597
66.1304 13011 114.066
66.2479 13009 114.057
66.3655 13286 115.265
66.483 13542 116.37
66.6005 13539 116.357
66.718 13375 115.65
66.8355 12902 113.587
66.953 12817 113.212
67.0705 12435 111.512
67.1879 11824 108.738
67.3054 10805 103.947
67.4228 9711 98.5444
67.5402 9063 95.1998
67.6576 9111 95.4516
67.7749 9621 98.0867
67.8923 10804 103.942
68.0096 11976 109.435
68.1269 12463 111.638
68.2442 12859 113.398
68.3614 12790 113.093
68.4787 12527 111.924
68.5958 12672 112.57
68.713 12286 110.842
68.8302 11990 109.499
68.9473 11481 107.149
69.0643 11251 106.071
69.1814 11011 104.933
69.2984 10920 104.499
69.4154 11243 106.033
69.5323 11756 108.425
69.6492 12033 109.695
69.7661 12325 111.018
69.8829 12489 111.754
69.9997 12818 113.217
70.1165 12542 111.991
70.2332 12315 110.973
70.3499 11938 109.261
70.4665 11391 106.729
70.5831 10925 104.523
70.6996 10533 102.63
70.8161 9918 99.5892
70.9326 8844 94.0425
71.049 7152 84.5695
71.1653 5599 74.8265
71.2817 4728 68.7605
71.3979 4518 67.2161
71.5141 4472 66.873
71.6303 4415 66.4455
71.7464 4161 64.5058
71.8624 0 1
71.9784 0 1
72.0944 0 1
72.2102 0 1
72.3261 0 1
72.4418 0 1
72.5575 0 1
72.6732 0 1
75.1054 0 1
75.2209 0 1
75.3365 0 1
75.4521 0 1
75.5678 0 1
75.6835 0 1
75.7993 0 1
75.9151 0 1
76.031 0 1
76.147 6450 80.3119
76.263 6730 82.0366
76.3791 6407 80.0437
76.4952 6157 78.4666
76.6113 6252 79.0696
76.7276 6946 83.3427
76.8438 7844 88.5664
76.9601 9155 95.6818
77.0765 10352 101.745
77.1929 10838 104.106
77.3093 10687 103.378
77.4258 11050 105.119
77.5423 10955 104.666
77.6589 10736 103.615
77.7755 10543 102.679
77.8921 9932 99.6594
78.0088 9763 98.8079
78.1256 9461 97.2677
78.2423 9519 97.5654
78.3591 9570 97.8264
78.4759 9827 99.1312
78.5928 10121 100.603
78.7097 10693 103.407
78.8266 11133 105.513
78.9436 11045 105.095
79.0606 11448 106.995
79.1776 11662 107.991
79.2946 11401 106.775
79.4117 11308 106.339
79.5288 11117 105.437
79.6459 10874 104.278
79.7631 10746 103.663
79.8802 9941 99.7046
79.9974 9103 95.4096
80.1147 7582 87.0747
80.2319 6862 82.8372
80.3491 7046 83.9405
80.4664 7996 89.4204
80.5837 9099 95.3887
80.701 10311 101.543
80.8183 10879 104.302
80.9357 11059 105.162
81.053 11149 105.589
81.1704 10995 104.857
81.2877 11202 105.84
81.4051 11000 104.881
81.5225 10617 103.039
81.6399 10267 101.326
81.7573 9752 98.7522
81.8747 9843 99.2119
81.9922 9838 99.1867
82.1096 10139 100.693
82.227 10317 101.573
82.3444 10747 103.668
82.4619 11384 106.696
82.5793 11488 107.182
82.6967 11642 107.898
82.8142 11744 108.37
82.9316 11711 108.217
83.049 11457 107.037
83.1664 11347 106.522
83.2838 11105 105.38
83.4012 10960 104.69
83.5186 10159 100.792
83.636 9479 97.3602
83.7534 8273 90.956
83.8708 6732 82.0488
83.9881 6681 81.7374
84.1055 7284 85.3464
84.2228 8294 91.0714
84.3401 9672 98.3463
84.4575 10843 104.13
84.5747 11163 105.655
84.692 11467 107.084
84.8093 11156 105.622
84.9265 11356 106.565
85.0437 10916 104.48
85.1609 10521 102.572
85.2781 10140 100.698
85.3952 10119 100.593
85.5123 9647 98.2191
85.6294 10043 100.215
85.7465 10277 101.376
85.8636 10680 103.344
85.9806 10944 104.614
86.0976 11179 105.731
86.2145 11501 107.243
86.3315 11576 107.592
86.4484 11768 108.48
86.5652 11620 107.796
86.682 11592 107.666
86.7988 11428 106.902
86.9156 11334 106.461
87.0323 10672 103.305
87.149 10220 101.094
87.2657 8888 94.2762
87.3823 7456 86.3481
87.4988 6350 79.6869
87.6154 6391 79.9437
87.7318 7160 84.6168
87.8483 8380 91.5423
87.9647 9568 97.8162
88.081 9974 99.8699
88.1973 9951 99.7547
88.3136 9640 98.1835
88.4298 9005 94.8947
88.546 8423 91.7769
88.6621 6978 83.5344
88.7781 5411 73.5595
88.8942 0 1
89.0101 0 1
89.126 0 1
89.2419 0 1
89.3577 0 1
89.4734 0 1
89.5891 0 1
89.7047 0 1
89.8203 0 1
89.9358 0 1
92.3269 0 1
92.4424 0 1
92.558 0 1
92.6736 0 1
92.7893 0 1
92.905 0 1
93.0208 0 1
93.1366 0 1
93.2525 0 1
93.3685 0 1
93.4845 0 1
93.6005 6481 80.5047
93.7167 7183 84.7526
93.8328 7646 87.4414
93.949 8025 89.5824
94.0653 8640 92.9516
94.1816 9116 95.4777
94.2979 9649 98.2293
94.4143 10204 101.015
94.5307 10430 102.127
94.6472 10371 101.838
94.7637 10444 102.196
94.8803 10770 103.779
94.9969 10792 103.885
95.1135 10890 104.355
95.2302 11426 106.892
95.3469 11529 107.373
95.4637 11721 108.264
95.5805 11663 107.995
95.6973 11873 108.963
95.8142 11836 108.793
95.9311 11717 108.245
96.048 11398 106.761
96.1649 11297 106.287
96.2819 10588 102.898
96.3989 9926 99.6293
96.516 9194 95.8853
96.633 7408 86.0697
96.7501 6720 81.9756
96.8673 6708 81.9024
96.9844 7216 84.947
97.1016 8340 91.3236
97.2188 9895 99.4736
97.336 10990 104.833
97.4532 11295 106.278
97.5704 11612 107.759
97.6877 11465 107.075
97.805 11207 105.863
97.9223 11017 104.962
98.0396 11009 104.924
98.1569 10274 101.361
98.2743 10154 100.767
98.3916 10392 101.941
98.509 10839 104.111
98.6264 10726 103.566
98.7438 11047 105.105
98.8612 11388 106.715
98.9786 11449 107
99.096 11798 108.619
99.2134 11853 108.871
99.3308 11776 108.517
99.4482 12142 110.191
99.5656 12239 110.63
99.6831 11955 109.339
99.8005 11531 107.382
99.9179 10829 104.062
100.035 10332 101.646
100.153 8767 93.6323
100.27 7535 86.8044
100.388 7038 83.8928
100.505 7753 88.0511
100.622 9031 95.0316
100.74 10298 101.479
100.857 11493 107.205
100.975 11539 107.42
101.092 11730 108.305
101.209 11900 109.087
101.327 11675 108.051
101.444 11546 107.452
101.561 11267 106.146
101.679 10899 104.398
101.796 10727 103.571
101.913 10664 103.267
102.03 10826 104.048
102.148 11028 105.014
102.265 11173 105.702
102.382 11883 109.009
102.499 11900 109.087
102.616 12153 110.241
102.733 12455 111.602
102.851 12750 112.916
102.968 12661 112.521
103.085 12638 112.419
103.202 12470 111.669
103.319 11985 109.476
103.436 11451 107.009
103.552 10492 102.43
103.669 9057 95.1683
103.786 7873 88.7299
103.903 7116 84.3564
104.02 7692 87.704
104.137 8930 94.4987
104.253 10616 103.034
104.37 11581 107.615
104.487 12187 110.395
104.603 12370 111.221
104.72 12011 109.595
104.836 11519 107.327
104.953 11310 106.348
105.069 10907 104.437
105.186 10467 102.308
105.302 10469 102.318
105.418 10529 102.611
105.535 10308 101.528
105.651 10406 102.01
105.767 10289 101.435
105.883 9449 97.206
105.999 8916 94.4246
106.115 0 1
106.231 0 1
106.347 0 1
106.463 0 1
106.579 0 1
106.694 0 1
106.81 0 1
106.926 0 1
107.041 0 1
107.157 0 1
109.576 0 1
109.692 0 1
109.807 0 1
109.923 0 1
110.039 0 1
110.155 0 1
110.27 0 1
110.386 0 1
110.502 0 1
110.618 4269 65.3376
110.735 5495 74.1283
110.851 6196 78.7147
110.967 6946 83.3427
111.083 7762 88.1022
111.199 8654 93.0269
111.316 9486 97.3961
111.432 9938 99.6895
111.549 10477 102.357
111.665 10888 104.346
111.782 11039 105.067
111.898 10500 102.47
112.015 9953 99.7647
112.132 9105 95.4201
112.248 7832 88.4986
112.365 6525 80.7775
112.482 6256 79.0949
112.599 6888 82.994
112.716 7755 88.0625
112.832 8952 94.615
112.949 10228 101.134
113.066 10575 102.835
113.183 10685 103.368
113.3 10576 102.84
113.417 10656 103.228
113.534 10503 102.484
113.652 10089 100.444
113.769 9996 99.98
113.886 9828 99.1363
114.003 9892 99.4585
114.12 9825 99.1211
114.238 10212 101.054
114.355 10616 103.034
114.472 11092 105.319
114.589 10444 102.196
114.707 10960 104.69
114.824 11310 106.348
114.942 11305 106.325
115.059 11369 106.626
115.176 11266 106.141
115.294 11209 105.873
115.411 11006 104.909
115.529 10384 101.902
115.646 9584 97.8979
115.764 8561 92.5257
115.881 7139 84.4926
115.999 6327 79.5424
116.116 6413 80.0812
116.234 7316 85.5336
116.351 8714 93.3488
116.469 9848 99.2371
116.586 10326 101.617
116.704 10459 102.269
116.821 10501 102.474
116.939 10564 102.781
117.056 10452 102.235
117.174 10286 101.42
117.291 10133 100.663
117.409 9832 99.1564
117.526 9646 98.2141
117.644 9868 99.3378
117.761 9899 99.4937
117.879 10482 102.382
117.996 10493 102.435
118.114 10762 103.74
118.231 10935 104.571
118.349 11036 105.052
118.466 10824 104.038
118.584 11100 105.357
118.701 10940 104.594
118.819 10952 104.652
118.936 10593 102.922
119.053 10419 102.074
119.171 9758 98.7826
119.288 9104 95.4149
119.405 7704 87.7724
119.523 6625 81.3941
119.64 6004 77.4855
119.757 6345 79.6555
119.875 7028 83.8332
119.992 8290 91.0494
120.109 9320 96.5401
120.226 9704 98.5089
120.343 9787 98.9293
120.46 9912 99.559
120.578 9949 99.7447
120.695 9906 99.5289
120.812 9725 98.6154
120.929 9650 98.2344
121.046 9169 95.7549
121.163 9146 95.6347
121.279 9239 96.1197
121.396 9371 96.8039
121.513 9683 98.4022
121.63 9671 98.3412
121.747 9889 99.4435
121.863 9935 99.6745
121.98 9803 99.0101
122.097 10028 100.14
122.213 9909 99.544
122.33 9621 98.0867
122.446 9571 97.8315
122.563 8987 94.7998
122.679 8510 92.2497
122.795 7621 87.2983
122.912 6667 81.6517
123.028 5199 72.1041
123.144 3987 63.1427
123.26 3132 55.9643
123.377 0 1
123.493 0 1
123.609 0 1
123.725 0 1
123.84 0 1
123.956 0 1
124.072 0 1
124.188 0 1
124.303 0 1
124.419 0 1
126.852 0 1
126.968 0 1
127.083 0 1
127.199 0 1
127.315 0 1
127.431 0 1
127.547 0 1
127.663 0 1
127.779 0 1
127.895 0 1
128.011 0 1
128.127 0 1
128.243 0 1
128.359 7997 89.4259
128.476 8160 90.3327
128.592 7512 86.6718
128.708 6719 81.9695
128.825 6872 82.8975
128.941 7344 85.6971
129.058 8511 92.2551
129.174 9781 98.8989
129.291 10510 102.518
129.408 10516 102.548
129.524 10950 104.642
129.641 10905 104.427
129.758 10829 104.062
129.875 10824 104.038
129.992 10593 102.922
130.108 10457 102.259
130.225 10526 102.596
130.342 10359 101.779
130.459 10476 102.352
130.576 10708 103.479
130.693 11072 105.224
130.81 11243 106.033
130.928 11147 105.579
131.045 11194 105.802
131.162 11160 105.641
131.279 11158 105.631
131.396 11168 105.679
131.513 10796 103.904
131.631 10553 102.728
131.748 10160 100.797
131.865 9822 99.106
131.983 9178 95.8019
132.1 8045 89.6939
132.217 6996 83.6421
132.335 6749 82.1523
132.452 7221 84.9765
132.57 8295 91.0769
132.687 9633 98.1478
132.804 10183 100.911
132.922 10457 102.259
133.039 10514 102.538
133.157 10760 103.73
133.274 10800 103.923
133.392 10695 103.417
133.509 10513 102.533
133.627 10419 102.074
133.744 10119 100.593
133.862 9927 99.6343
133.979 10063 100.315
134.097 10261 101.297
134.214 10780 103.827
134.332 10592 102.917
134.449 10572 102.82
134.567 10805 103.947
134.684 10931 104.551
134.802 10708 103.479
134.919 10980 104.785
135.037 10663 103.262
135.154 10284 101.41
135.272 10033 100.165
135.389 9652 98.2446
135.507 9284 96.3535
135.624 8328 91.2579
135.742 7196 84.8292
135.859 6521 80.7527
135.977 6857 82.807
136.094 7589 87.1149
136.211 8837 94.0053
136.329 9759 98.7877
136.446 10236 101.173
136.564 10377 101.868
136.681 10480 102.372
136.798 10467 102.308
136.915 10605 102.981
137.033 10435 102.152
137.15 10193 100.96
137.267 10090 100.449
137.384 10244 101.213
137.502 9835 99.1716
137.619 10298 101.479
137.736 10072 100.359
137.853 9998 99.99
137.97 10059 100.295
138.087 10572 102.82
138.204 10197 100.98
138.321 10407 102.015
138.438 10254 101.262
138.555 10216 101.074
138.672 10162 100.807
138.788 9878 99.3881
138.905 9475 97.3396
139.022 9142 95.6138
139.139 8576 92.6067
139.255 7828 88.476
139.372 6763 82.2375
139.488 5928 76.9935
139.605 5758 75.8815
139.721 6215 78.8353
139.838 6773 82.2982
139.954 7146 84.534
140.071 7231 85.0353
140.187 6104 78.1281
140.303 5367 73.2598
140.419 4903 70.0214
140.535 4663 68.2862
140.652 4343 65.9014
140.768 0 1
140.884 0 1
141 0 1
141.115 0 1
141.231 0 1
141.347 0 1
141.463 0 1
141.578 0 1
141.694 0 1
144.104 0 1
144.219 0 1
144.335 0 1
144.45 0 1
144.566 0 1
144.682 0 1
144.798 0 1
144.914 0 1
145.03 0 1
145.146 5767 75.9408
145.262 6824 82.6075
145.378 7355 85.7613
145.494 7967 89.2581
145.61 8064 89.7998
145.726 7981 89.3364
145.842 7942 89.1179
145.959 7758 88.0795
146.075 7804 88.3403
146.192 7829 88.4816
146.308 7600 87.178
146.425 7684 87.6584
146.541 7582 87.0747
146.658 7663 87.5386
146.774 7820 88.4308
146.891 7744 88
147.008 7852 88.6115
147.125 7930 89.0505
147.241 7846 88.5776
147.358 8095 89.9722
147.475 7888 88.8144
147.592 7630 87.3499
147.709 7545 86.862
147.826 7068 84.0714
147.943 6724 82
148.06 6330 79.5613
148.177 5487 74.0743
148.294 5145 71.7287
148.411 5589 74.7596
148.528 5935 77.039
148.645 6472 80.4487
148.762 7399 86.0174
148.88 7502 86.6141
148.997 7977 89.3141
149.114 7551 86.8965
149.231 7642 87.4185
149.349 7857 88.6397
149.466 7914 88.9607
149.583 7953 89.1796
149.701 7578 87.0517
149.818 7638 87.3957
149.935 7712 87.818
150.053 7759 88.0852
150.17 7532 86.7871
150.287 7633 87.367
150.405 7676 87.6128
150.522 7819 88.4251
150.64 7589 87.1149
150.757 7866 88.6905
150.875 7682 87.647
150.992 7883 88.7863
151.11 7810 88.3742
151.227 7584 87.0862
151.344 7481 86.4928
151.462 7044 83.9285
151.579 6670 81.6701
151.697 6444 80.2745
151.814 5853 76.5049
151.932 5408 73.5391
152.049 5490 74.0945
152.167 5871 76.6225
152.284 6446 80.287
152.402 7185 84.7644
152.519 7656 87.4986
152.636 7758 88.0795
152.754 7873 88.7299
152.871 7831 88.4929
152.989 7733 87.9375
153.106 7665 87.55
153.223 7799 88.3119
153.341 7744 88
153.458 7647 87.4471
153.575 7474 86.4523
153.693 7430 86.1974
153.81 7607 87.2181
153.927 7336 85.6505
154.044 7512 86.6718
154.162 7695 87.7211
154.279 7655 87.4929
154.396 7710 87.8066
154.513 7744 88
154.63 7702 87.761
154.747 7883 88.7863
154.864 7626 87.327
154.981 7301 85.4459
155.098 6880 82.9458
155.215 6601 81.2465
155.332 6204 78.7655
155.449 5612 74.9133
155.566 5443 73.7767
155.683 5734 75.7232
155.8 6075 77.9423
155.917 6752 82.1706
156.033 7235 85.0588
156.15 0 1
156.267 0 1
156.383 0 1
156.5 0 1
156.617 0 1
156.733 0 1
156.85 0 1
156.966 0 1
157.082 0 1
157.199 0 1
157.315 0 1
157.431 0 1
157.547 0 1
157.664 0 1
157.78 0 1
157.896 0 1
158.012 0 1
158.128 0 1
158.244 0 1
158.359 0 1
158.475 0 1
158.591 0 1
158.706 0 1
