
6.15755 0 1
6.2731 0 1
6.3887 0 1
6.50437 0 1
6.62009 0 1
6.73587 0 1
6.8517 0 1
6.96759 0 1
7.08353 0 1
7.19952 0 1
7.31557 0 1
7.43166 0 1
7.54781 0 1
7.664 0 1
7.78024 0 1
7.89653 0 1
8.01286 0 1
8.12924 0 1
8.24567 0 1
8.36213 0 1
8.47864 0 1
8.59519 0 1
8.71178 0 1
8.82841 0 1
8.94508 0 1
9.06179 0 1
9.17853 0 1
9.29531 0 1
9.41212 0 1
9.52897 0 1
9.64584 0 1
9.76276 0 1
9.8797 0 1
9.99667 0 1
10.1137 0 1
10.2307 0 1
10.3478 0 1
10.4648 0 1
10.5819 0 1
10.6991 0 1
10.8162 0 1
10.9334 0 1
11.0506 0 1
11.1678 0 1
11.285 0 1
11.4023 0 1
11.5196 0 1
11.6369 0 1
11.7542 0 1
11.8715 0 1
11.9888 0 1
12.1062 0 1
12.2235 0 1
12.3409 0 1
12.4582 0 1
12.5756 0 1
12.693 0 1
12.8104 0 1
12.9278 0 1
13.0452 0 1
13.1626 0 1
13.28 0 1
13.3974 0 1
13.5149 0 1
13.6323 0 1
13.7497 0 1
13.8671 0 1
13.9845 0 1
14.1019 0 1
14.2193 0 1
14.3367 0 1
14.4541 0 1
14.5714 0 1
14.6888 0 1
14.8062 0 1
14.9235 0 1
15.0408 0 0
15.1581 0 0
15.2755 0 0
15.3927 0 0
15.51 0 0
15.6273 0 0
15.7445 0 0
15.8617 0 0
15.9789 0 0
16.0961 0 0
16.2132 0 0
16.3304 0 0
16.4475 0 0
16.5646 0 0
16.6816 0 0
16.7986 0 0
16.9156 0 0
17.0326 0 0
17.1496 0 0
17.2665 0 0
17.3833 0 0
17.5002 0 0
17.617 0 0
17.7338 0 0
17.8505 0 0
17.9672 0 0
18.0839 0 0
18.2005 0 0
18.3171 0 0
18.4337 0 0
18.5502 0 0
18.6666 0 0
18.7831 0 0
18.8994 0 0
19.0158 0 0
19.1321 0 0
19.2483 0 0
19.3645 0 0
19.4806 0 0
19.5967 0 0
19.7128 0 0
19.8288 0 0
19.9447 0 0
20.0606 0 1
20.1764 0 1
20.2922 0 1
20.4079 0 1
20.5236 0 1
20.6392 0 1
20.7548 0 1
20.8702 0 1
23.3078 0 1
23.4233 0 1
23.539 0 1
23.6547 0 1
23.7704 0 1
23.8862 0 1
24.0021 0 1
24.118 0 1
24.234 0 1
24.35 0 1
24.4661 1405 37.4833
24.5822 1385 37.2156
24.6984 1415 37.6165
24.8146 1378 37.1214
24.9309 1343 36.647
25.0472 1338 36.5787
25.1636 1395 37.3497
25.28 1417 37.6431
25.3965 1409 37.5366
25.513 1505 38.7943
25.6296 1520 38.9872
25.7462 1563 39.5348
25.8628 1512 38.8844
25.9795 1650 40.6202
26.0962 1548 39.3446
26.213 1582 39.7744
26.3298 1487 38.5616
26.4466 1529 39.1024
26.5635 1464 38.2623
26.6804 1432 37.8418
26.7973 1400 37.4166
26.9143 1372 37.0405
27.0313 1465 38.2753
27.1483 1480 38.4708
27.2653 1577 39.7115
27.3824 1593 39.9124
27.4996 1570 39.6232
27.6167 1527 39.0768
27.7339 1508 38.833
27.8511 1486 38.5487
27.9683 1473 38.3797
28.0855 1408 37.5233
28.2028 1419 37.6696
28.3201 1356 36.8239
28.4374 1282 35.805
28.5547 1276 35.7211
28.6721 1262 35.5246
28.7894 1263 35.5387
28.9068 1346 36.6879
29.0242 1478 38.4448
29.1416 1512 38.8844
29.259 1453 38.1182
29.3764 1478 38.4448
29.4939 1503 38.7685
29.6113 1511 38.8716
29.7288 1540 39.2428
29.8463 1494 38.6523
29.9638 1447 38.0395
30.0812 1355 36.8103
30.1987 1297 36.0139
30.3162 1289 35.9026
30.4337 1390 37.2827
30.5512 1421 37.6962
30.6687 1332 36.4966
30.7862 1460 38.2099
30.9037 1474 38.3927
31.0212 1535 39.1791
31.1387 1478 38.4448
31.2562 1462 38.2361
31.3737 1390 37.2827
31.4912 1414 37.6032
31.6087 1485 38.5357
31.7262 1427 37.7757
31.8436 1324 36.3868
31.9611 1294 35.9722
32.0785 1276 35.7211
32.1959 1266 35.5809
32.3134 1333 36.5103
32.4308 1395 37.3497
32.5482 1492 38.6264
32.6655 1501 38.7427
32.7829 1492 38.6264
32.9002 1529 39.1024
33.0176 1443 37.9868
33.1349 1517 38.9487
33.2522 1462 38.2361
33.3694 1493 38.6394
33.4867 1474 38.3927
33.6039 1412 37.5766
33.7211 1372 37.0405
33.8383 1367 36.973
33.9554 1327 36.428
34.0725 1411 37.5633
34.1896 1440 37.9473
34.3067 1426 37.7624
34.4237 1542 39.2683
34.5407 1517 38.9487
34.6577 1557 39.4588
34.7746 1536 39.1918
34.8915 1505 38.7943
35.0084 1496 38.6782
35.1252 1459 38.1969
35.242 1440 37.9473
35.3587 1437 37.9078
35.4755 1433 37.855
35.5921 1322 36.3593
35.7088 1188 34.4674
35.8254 1288 35.8887
35.9419 1315 36.2629
36.0584 1243 35.2562
36.1749 1394 37.3363
36.2913 1350 36.7423
36.4077 1489 38.5876
36.524 1464 38.2623
36.6403 1452 38.1051
36.7565 1449 38.0657
36.8727 1506 38.8072
36.9889 1495 38.6652
37.1049 1470 38.3406
37.221 0 1
37.3369 0 1
37.4529 0 1
37.5687 0 1
37.6845 0 1
37.8003 0 1
37.916 0 1
38.0316 0 1
38.1472 0 1
40.5851 0 1
40.7008 0 1
40.8164 0 1
40.9322 0 1
41.048 0 1
41.1639 0 1
41.2798 0 1
41.3958 0 1
41.5118 0 1
41.6279 0 1
41.744 1213 34.8281
41.8602 1282 35.805
41.9765 1295 35.9861
42.0928 1284 35.8329
42.2091 1251 35.3695
42.3255 1310 36.1939
42.4419 1212 34.8138
42.5584 1164 34.1174
42.675 1168 34.176
42.7915 1104 33.2265
42.9081 1153 33.9559
43.0248 1202 34.6699
43.1415 1306 36.1386
43.2582 1288 35.8887
43.375 1243 35.2562
43.4918 1358 36.8511
43.6087 1281 35.7911
43.7256 1190 34.4964
43.8425 1193 34.5398
43.9595 1210 34.7851
44.0765 1181 34.3657
44.1935 1110 33.3167
44.3106 1063 32.6037
44.4277 1045 32.3265
44.5448 909 30.1496
44.6619 917 30.282
44.7791 943 30.7083
44.8963 969 31.1288
45.0136 1051 32.4191
45.1308 1080 32.8634
45.2481 1082 32.8938
45.3654 1050 32.4037
45.4827 1062 32.5883
45.6001 1098 33.1361
45.7174 1067 32.665
45.8348 1073 32.7567
45.9522 1000 31.6228
46.0697 1016 31.8748
46.1871 936 30.5941
46.3046 938 30.6268
46.422 920 30.3315
46.5395 933 30.545
46.657 1040 32.249
46.7745 970 31.1448
46.892 1047 32.3574
47.0096 1084 32.9242
47.1271 978 31.273
47.2446 964 31.0483
47.3622 1032 32.1248
47.4797 958 30.9516
47.5973 891 29.8496
47.7149 905 30.0832
47.8324 826 28.7402
47.95 813 28.5132
48.0675 794 28.178
48.1851 761 27.5862
48.3027 739 27.1846
48.4202 755 27.4773
48.5378 718 26.7955
48.6554 828 28.775
48.7729 877 29.6142
48.8904 830 28.8097
49.008 891 29.8496
49.1255 943 30.7083
49.243 937 30.6105
49.3605 892 29.8664
49.478 858 29.2916
49.5955 870 29.4958
49.713 776 27.8568
49.8304 835 28.8964
49.9479 833 28.8617
50.0653 904 30.0666
50.1827 988 31.4325
50.3001 993 31.5119
50.4175 1047 32.3574
50.5348 1033 32.1403
50.6521 1035 32.1714
50.7694 1058 32.5269
50.8867 1106 33.2566
51.004 1158 34.0294
51.1212 1131 33.6303
51.2384 1102 33.1964
51.3556 1079 32.8481
51.4727 1040 32.249
51.5899 982 31.3369
51.707 947 30.7734
51.824 954 30.8869
51.9411 1059 32.5423
52.0581 1203 34.6843
52.175 1227 35.0286
52.2919 1268 35.609
52.4088 1326 36.4143
52.5257 1309 36.1801
52.6425 1399 37.4032
52.7593 1325 36.4005
52.876 1354 36.7967
52.9927 1379 37.1349
53.1094 1393 37.3229
53.226 1247 35.3129
53.3426 1310 36.1939
53.4591 1226 35.0143
53.5756 1252 35.3836
53.692 1474 38.3927
53.8084 1415 37.6165
53.9248 1492 38.6264
54.0411 1506 38.8072
54.1573 1490 38.6005
54.2735 0 1
54.3896 0 1
54.5057 0 1
54.6217 0 1
54.7377 0 1
54.8537 0 1
54.9695 0 1
55.0853 0 1
55.2011 0 1
55.3168 0 1
55.4324 0 1
57.824 0 1
57.9396 0 1
58.0553 0 1
58.1711 0 1
58.2869 0 1
58.4028 0 1
58.5187 0 1
58.6347 0 1
58.7508 0 1
58.8669 0 1
58.983 1821 42.6732
59.0992 1966 44.3396
59.2155 1940 44.0454
59.3318 1902 43.6119
59.4482 1949 44.1475
59.5646 2044 45.2106
59.681 1930 43.9318
59.7975 1938 44.0227
59.9141 1918 43.795
60.0306 1727 41.5572
60.1473 1644 40.5463
60.2639 1526 39.064
60.3807 1450 38.0789
60.4974 1506 38.8072
60.6142 1505 38.7943
60.731 1592 39.8999
60.8479 1709 41.3401
60.9648 1788 42.2847
61.0818 1807 42.5088
61.1987 1796 42.3792
61.3158 1844 42.9418
61.4328 1803 42.4617
61.5499 1796 42.3792
61.667 1728 41.5692
61.7841 1734 41.6413
61.9013 1651 40.6325
62.0185 1645 40.5586
62.1357 1645 40.5586
62.253 1746 41.7852
62.3702 1811 42.5558
62.4875 1841 42.9069
62.6049 1894 43.5201
62.7222 1930 43.9318
62.8396 1850 43.0116
62.9569 1883 43.3935
63.0743 1888 43.4511
63.1918 1892 43.4971
63.3092 1841 42.9069
63.4267 1792 42.332
63.5441 1764 42
63.6616 1519 38.9744
63.7791 1526 39.064
63.8966 1427 37.7757
64.0142 1427 37.7757
64.1317 1528 39.0896
64.2492 1586 39.8246
64.3668 1690 41.1096
64.4843 1772 42.0951
64.6019 1831 42.7902
64.7195 1839 42.8836
64.837 1806 42.4971
64.9546 1846 42.9651
65.0722 1866 43.1972
65.1898 1780 42.19
65.3074 1768 42.0476
65.4249 1572 39.6485
65.5425 1658 40.7185
65.6601 1714 41.4005
65.7777 1706 41.3038
65.8952 1693 41.1461
66.0128 1927 43.8976
66.1304 1987 44.5758
66.2479 1841 42.9069
66.3655 1937 44.0114
66.483 1984 44.5421
66.6005 1972 44.4072
66.718 1993 44.643
66.8355 1930 43.9318
66.953 1865 43.1856
67.0705 1868 43.2204
67.1879 1741 41.7253
67.3054 1600 40
67.4228 1499 38.7169
67.5402 1431 37.8286
67.6576 1452 38.1051
67.7749 1507 38.8201
67.8923 1654 40.6694
68.0096 1882 43.382
68.1269 1938 44.0227
68.2442 1975 44.441
68.3614 1932 43.9545
68.4787 1930 43.9318
68.5958 2106 45.8912
68.713 2064 45.4313
68.8302 1984 44.5421
68.9473 1896 43.5431
69.0643 1833 42.8135
69.1814 1772 42.0951
69.2984 1854 43.0581
69.4154 1853 43.0465
69.5323 1903 43.6234
69.6492 2135 46.2061
69.7661 2185 46.744
69.8829 2184 46.7333
69.9997 2244 47.3709
70.1165 2272 47.6655
70.2332 2183 46.7226
70.3499 2257 47.5079
70.4665 2239 47.3181
70.5831 2288 47.833
70.6996 2157 46.4435
70.8161 2070 45.4973
70.9326 1925 43.8748
71.049 1709 41.3401
71.1653 1534 39.1663
71.2817 1539 39.2301
71.3979 1573 39.6611
71.5141 1662 40.7676
71.6303 1757 41.9166
71.7464 1789 42.2966
71.8624 0 1
71.9784 0 1
72.0944 0 1
72.2102 0 1
72.3261 0 1
72.4418 0 1
72.5575 0 1
72.6732 0 1
75.1054 0 1
75.2209 0 1
75.3365 0 1
75.4521 0 1
75.5678 0 1
75.6835 0 1
75.7993 0 1
75.9151 0 1
76.031 0 1
76.147 2052 45.299
76.263 2164 46.5188
76.3791 2032 45.0777
76.4952 1765 42.0119
76.6113 1694 41.1582
76.7276 1803 42.4617
76.8438 1899 43.5775
76.9601 2198 46.8828
77.0765 2440 49.3964
77.1929 2549 50.4876
77.3093 2471 49.7092
77.4258 2608 51.0686
77.5423 2568 50.6754
77.6589 2545 50.448
77.7755 2621 51.1957
77.8921 2570 50.6952
78.0088 2403 49.0204
78.1256 2261 47.55
78.2423 2240 47.3286
78.3591 2410 49.0918
78.4759 2343 48.4045
78.5928 2482 49.8197
78.7097 2547 50.4678
78.8266 2702 51.9808
78.9436 2639 51.3712
79.0606 2769 52.6213
79.1776 2728 52.2303
79.2946 2714 52.0961
79.4117 2718 52.1344
79.5288 2768 52.6118
79.6459 2745 52.3927
79.7631 2670 51.672
79.8802 2548 50.4777
79.9974 2201 46.9148
80.1147 2096 45.7821
80.2319 1890 43.4741
80.3491 1877 43.3244
80.4664 2098 45.8039
80.5837 2311 48.0729
80.701 2599 50.9804
80.8183 2690 51.8652
80.9357 2907 53.9166
81.053 2835 53.2447
81.1704 2841 53.301
81.2877 2823 53.1319
81.4051 2812 53.0283
81.5225 2810 53.0094
81.6399 2623 51.2152
81.7573 2630 51.2835
81.8747 2487 49.8698
81.9922 2413 49.1223
82.1096 2482 49.8197
82.227 2621 51.1957
82.3444 2669 51.6624
82.4619 2871 53.5817
82.5793 2827 53.1695
82.6967 2984 54.626
82.8142 2927 54.1018
82.9316 2961 54.4151
83.049 2915 53.9907
83.1664 2870 53.5724
83.2838 2795 52.8678
83.4012 2697 51.9326
83.5186 2571 50.705
83.636 2290 47.8539
83.7534 2078 45.5851
83.8708 1878 43.3359
83.9881 2017 44.911
84.1055 2149 46.3573
84.2228 2392 48.9081
84.3401 2605 51.0392
84.4575 2845 53.3385
84.5747 2885 53.7122
84.692 3048 55.2087
84.8093 2955 54.3599
84.9265 3079 55.4887
85.0437 3079 55.4887
85.1609 3036 55.0999
85.2781 2850 53.3854
85.3952 2777 52.6972
85.5123 2721 52.1632
85.6294 2768 52.6118
85.7465 2881 53.6749
85.8636 3014 54.8999
85.9806 3107 55.7405
86.0976 3397 58.2838
86.2145 3372 58.0689
86.3315 3388 58.2065
86.4484 3625 60.208
86.5652 3622 60.1831
86.682 3734 61.1065
86.7988 3590 59.9166
86.9156 3543 59.5231
87.0323 3438 58.6345
87.149 3236 56.8859
87.2657 3052 55.2449
87.3823 2703 51.9904
87.4988 2554 50.5371
87.6154 2725 52.2015
87.7318 3133 55.9732
87.8483 3405 58.3524
87.9647 3704 60.8605
88.081 3933 62.7136
88.1973 4145 64.3817
88.3136 4113 64.1327
88.4298 4161 64.5058
88.546 4024 63.435
88.6621 4087 63.9296
88.7781 3881 62.2977
88.8942 0 1
89.0101 0 1
89.126 0 1
89.2419 0 1
89.3577 0 1
89.4734 0 1
89.5891 0 1
89.7047 0 1
89.8203 0 1
89.9358 0 1
92.3269 0 1
92.4424 0 1
92.558 0 1
92.6736 0 1
92.7893 0 1
92.905 0 1
93.0208 0 1
93.1366 0 1
93.2525 0 1
93.3685 0 1
93.4845 0 1
93.6005 4470 66.8581
93.7167 4598 67.8086
93.8328 4685 68.4471
93.949 4570 67.6018
94.0653 4667 68.3154
94.1816 4556 67.4981
94.2979 4449 66.7008
94.4143 4273 65.3682
94.5307 4321 65.7343
94.6472 4146 64.3894
94.7637 4086 63.9218
94.8803 4164 64.5291
94.9969 4474 66.888
95.1135 4420 66.4831
95.2302 4740 68.8477
95.3469 4861 69.7209
95.4637 5072 71.218
95.5805 5136 71.6659
95.6973 5067 71.1829
95.8142 5141 71.7008
95.9311 4919 70.1356
96.048 4828 69.4838
96.1649 4888 69.9142
96.2819 4495 67.0448
96.3989 4306 65.6201
96.516 3970 63.0079
96.633 3640 60.3324
96.7501 3531 59.4222
96.8673 3813 61.7495
96.9844 4078 63.8592
97.1016 4659 68.2569
97.2188 5004 70.739
97.336 5478 74.0135
97.4532 5352 73.1574
97.5704 5345 73.1095
97.6877 5487 74.0743
97.805 5375 73.3144
97.9223 5238 72.374
98.0396 5018 70.8378
98.1569 4909 70.0643
98.2743 4750 68.9202
98.3916 4761 69
98.509 4738 68.8331
98.6264 4970 70.4982
98.7438 5265 72.5603
98.8612 5317 72.9178
98.9786 5446 73.797
99.096 5603 74.8532
99.2134 5760 75.8947
99.3308 5573 74.6525
99.4482 5792 76.1052
99.5656 5740 75.7628
99.6831 5655 75.1997
99.8005 5497 74.1418
99.9179 5288 72.7186
100.035 4862 69.728
100.153 4478 66.9179
100.27 4094 63.9844
100.388 4173 64.5988
100.505 4713 68.6513
100.622 5161 71.8401
100.74 5583 74.7195
100.857 5838 76.4068
100.975 6142 78.3709
101.092 6006 77.4984
101.209 6068 77.8974
101.327 6098 78.0897
101.444 6012 77.5371
101.561 5822 76.302
101.679 5657 75.213
101.796 5429 73.6817
101.913 5341 73.0821
102.03 5327 72.9863
102.148 5398 73.4711
102.265 6047 77.7625
102.382 5600 74.8331
102.499 6013 77.5435
102.616 6246 79.0316
102.733 6191 78.6829
102.851 6389 79.9312
102.968 6490 80.5605
103.085 6442 80.2621
103.202 6245 79.0253
103.319 6172 78.5621
103.436 5801 76.1643
103.552 5671 75.306
103.669 5195 72.0763
103.786 4590 67.7495
103.903 4741 68.8549
104.02 5224 72.2772
104.137 5731 75.7034
104.253 6395 79.9687
104.37 6343 79.643
104.487 6692 81.8046
104.603 6848 82.7526
104.72 6711 81.9207
104.836 6817 82.5651
104.953 6841 82.7103
105.069 6418 80.1124
105.186 6362 79.7621
105.302 6226 78.905
105.418 5952 77.1492
105.535 6039 77.711
105.651 6269 79.177
105.767 6533 80.827
105.883 6622 81.3757
105.999 6651 81.5537
106.115 0 1
106.231 0 1
106.347 0 1
106.463 0 1
106.579 0 1
106.694 0 1
106.81 0 1
106.926 0 1
107.041 0 1
107.157 0 1
109.576 0 1
109.692 0 1
109.807 0 1
109.923 0 1
110.039 0 1
110.155 0 1
110.27 0 1
110.386 0 1
110.502 0 1
110.618 5700 75.4983
110.735 5843 76.4395
110.851 6268 79.1707
110.967 6145 78.3901
111.083 6272 79.196
111.199 6444 80.2745
111.316 6478 80.486
111.432 6429 80.181
111.549 6542 80.8826
111.665 6259 79.1138
111.782 6220 78.867
111.898 5714 75.591
112.015 5319 72.9315
112.132 4843 69.5917
112.248 4432 66.5733
112.365 4376 66.1513
112.482 4583 67.6979
112.599 4940 70.2851
112.716 5682 75.379
112.832 5915 76.909
112.949 5910 76.8765
113.066 5884 76.7072
113.183 5830 76.3544
113.3 5839 76.4133
113.417 5638 75.0866
113.534 5609 74.8933
113.652 5393 73.437
113.769 5234 72.3464
113.886 5058 71.1196
114.003 4858 69.6994
114.12 4991 70.647
114.238 5094 71.3723
114.355 5208 72.1665
114.472 5176 71.9444
114.589 5292 72.7461
114.707 5287 72.7118
114.824 5433 73.7089
114.942 5410 73.5527
115.059 5333 73.0274
115.176 5465 73.9256
115.294 5281 72.6705
115.411 5190 72.0417
115.529 4943 70.3065
115.646 4660 68.2642
115.764 4161 64.5058
115.881 3899 62.442
115.999 3894 62.4019
116.116 4391 66.2646
116.234 4718 68.6877
116.351 5079 71.2671
116.469 5288 72.7186
116.586 5279 72.6567
116.704 5408 73.5391
116.821 5289 72.7255
116.939 5413 73.5731
117.056 5222 72.2634
117.174 5153 71.7844
117.291 4989 70.6329
117.409 5046 71.0352
117.526 4678 68.3959
117.644 4661 68.2715
117.761 4795 69.2459
117.879 5052 71.0774
117.996 4978 70.5549
118.114 5057 71.1126
118.231 5290 72.7324
118.349 5211 72.1873
118.466 5188 72.0278
118.584 5293 72.753
118.701 5311 72.8766
118.819 5294 72.7599
118.936 5132 71.638
119.053 5029 70.9154
119.171 4835 69.5342
119.288 4382 66.1967
119.405 3889 62.3618
119.523 3744 61.1882
119.64 3670 60.5805
119.757 4006 63.293
119.875 4670 68.3374
119.992 4884 69.8856
120.109 5008 70.7672
120.226 5089 71.3372
120.343 5099 71.4073
120.46 5159 71.8262
120.578 5059 71.1266
120.695 4930 70.214
120.812 5039 70.9859
120.929 4875 69.8212
121.046 4817 69.4046
121.163 4603 67.8454
121.279 4514 67.1863
121.396 4462 66.7982
121.513 4605 67.8602
121.63 4520 67.2309
121.747 4698 68.542
121.863 4816 69.3974
121.98 4774 69.0941
122.097 4978 70.5549
122.213 4896 69.9714
122.33 4836 69.5414
122.446 5056 71.1056
122.563 4771 69.0724
122.679 4803 69.3037
122.795 4561 67.5352
122.912 4490 67.0075
123.028 4076 63.8436
123.144 3833 61.9112
123.26 3505 59.203
123.377 0 1
123.493 0 1
123.609 0 1
123.725 0 1
123.84 0 1
123.956 0 1
124.072 0 1
124.188 0 1
124.303 0 1
124.419 0 1
126.852 0 1
126.968 0 1
127.083 0 1
127.199 0 1
127.315 0 1
127.431 0 1
127.547 0 1
127.663 0 1
127.779 0 1
127.895 0 1
128.011 0 1
128.127 0 1
128.243 0 1
128.359 4169 64.5678
128.476 3739 61.1474
128.592 3866 62.1772
128.708 4220 64.9615
128.825 4656 68.2349
128.941 4987 70.6187
129.058 5223 72.2703
129.174 5346 73.1163
129.291 5315 72.904
129.408 5165 71.8679
129.524 5128 71.6101
129.641 5271 72.6017
129.758 5080 71.2741
129.875 4925 70.1783
129.992 4830 69.4982
130.108 4782 69.152
130.225 4747 68.8985
130.342 4711 68.6367
130.459 4597 67.8012
130.576 5081 71.2811
130.693 4822 69.4406
130.81 4951 70.3633
130.928 4992 70.6541
131.045 4935 70.2496
131.162 5105 71.4493
131.279 5025 70.8872
131.396 4995 70.6753
131.513 4834 69.527
131.631 4726 68.7459
131.748 4654 68.2202
131.865 4177 64.6297
131.983 3792 61.5792
132.1 3648 60.3987
132.217 3851 62.0564
132.335 4291 65.5057
132.452 4687 68.4617
132.57 4973 70.5195
132.687 4708 68.6149
132.804 5000 70.7107
132.922 4799 69.2748
133.039 5021 70.859
133.157 4829 69.491
133.274 4807 69.3325
133.392 4618 67.9559
133.509 4585 67.7126
133.627 4429 66.5507
133.744 4450 66.7083
133.862 4425 66.5207
133.979 4390 66.2571
134.097 4521 67.2384
134.214 4622 67.9853
134.332 4506 67.1267
134.449 4685 68.4471
134.567 4629 68.0368
134.684 4609 67.8896
134.802 4741 68.8549
134.919 4718 68.6877
135.037 4578 67.6609
135.154 4542 67.3944
135.272 4452 66.7233
135.389 4172 64.591
135.507 3828 61.8708
135.624 3589 59.9083
135.742 3532 59.4306
135.859 3759 61.3107
135.977 4116 64.1561
136.094 4412 66.4229
136.211 4554 67.4833
136.329 4723 68.7241
136.446 4733 68.7968
136.564 4864 69.7424
136.681 4876 69.8284
136.798 4664 68.2935
136.915 4714 68.6586
137.033 4537 67.3573
137.15 4433 66.5808
137.267 4394 66.2873
137.384 4295 65.5362
137.502 4169 64.5678
137.619 4262 65.284
137.736 4344 65.909
137.853 4387 66.2344
137.97 4351 65.9621
138.087 4569 67.5944
138.204 4350 65.9545
138.321 4567 67.5796
138.438 4537 67.3573
138.555 4646 68.1616
138.672 4487 66.9851
138.788 4463 66.8057
138.905 4411 66.4154
139.022 4123 64.2106
139.139 3770 61.4003
139.255 3589 59.9083
139.372 3457 58.7963
139.488 3645 60.3738
139.605 4002 63.2614
139.721 4308 65.6354
139.838 4609 67.8896
139.954 4472 66.873
140.071 4455 66.7458
140.187 4668 68.3228
140.303 4654 68.2202
140.419 4458 66.7683
140.535 4478 66.9179
140.652 4416 66.453
140.768 0 1
140.884 0 1
141 0 1
141.115 0 1
141.231 0 1
141.347 0 1
141.463 0 1
141.578 0 1
141.694 0 1
144.104 0 1
144.219 0 1
144.335 0 1
144.45 0 1
144.566 0 1
144.682 0 1
144.798 0 1
144.914 0 1
145.03 0 1
145.146 3922 62.6259
145.262 3884 62.3217
145.378 3893 62.3939
145.494 3955 62.8888
145.61 3764 61.3514
145.726 3735 61.1146
145.842 3632 60.2661
145.959 3483 59.0169
146.075 3590 59.9166
146.192 3493 59.1016
146.308 3529 59.4054
146.425 3641 60.3407
146.541 3624 60.1997
146.658 3622 60.1831
146.774 3625 60.208
146.891 3623 60.1914
147.008 3592 59.9333
147.125 3562 59.6825
147.241 3769 61.3922
147.358 3694 60.7783
147.475 3571 59.7578
147.592 3359 57.9569
147.709 3140 56.0357
147.826 2898 53.8331
147.943 2866 53.535
148.06 2995 54.7266
148.177 3177 56.3649
148.294 3343 57.8187
148.411 3479 58.983
148.528 3566 59.716
148.645 3616 60.1332
148.762 3629 60.2412
148.88 3536 59.4643
148.997 3447 58.7112
149.114 3571 59.7578
149.231 3491 59.0847
149.349 3298 57.4282
149.466 3372 58.0689
149.583 3237 56.8946
149.701 3220 56.745
149.818 3232 56.8507
149.935 3279 57.2626
150.053 3234 56.8683
150.17 3285 57.3149
150.287 3245 56.9649
150.405 3383 58.1636
150.522 3346 57.8446
150.64 3367 58.0259
150.757 3433 58.5918
150.875 3347 57.8533
150.992 3434 58.6003
151.11 3222 56.7627
151.227 3111 55.7763
151.344 2948 54.2955
151.462 2600 50.9902
151.579 2623 51.2152
151.697 2814 53.0471
151.814 3017 54.9272
151.932 3260 57.0964
152.049 3415 58.438
152.167 3543 59.5231
152.284 3491 59.0847
152.402 3483 59.0169
152.519 3422 58.4979
152.636 3423 58.5064
152.754 3406 58.3609
152.871 3265 57.1402
152.989 3310 57.5326
153.106 3297 57.4195
153.223 3127 55.9196
153.341 3157 56.1872
153.458 3102 55.6956
153.575 3166 56.2672
153.693 3254 57.0438
153.81 3237 56.8946
153.927 3290 57.3585
154.044 3282 57.2887
154.162 3328 57.6888
154.279 3393 58.2495
154.396 3482 59.0085
154.513 3497 59.1354
154.63 3438 58.6345
154.747 3238 56.9034
154.864 3246 56.9737
154.981 3130 55.9464
155.098 2859 53.4696
155.215 2805 52.9623
155.332 2947 54.2863
155.449 3275 57.2276
155.566 3352 57.8965
155.683 3475 58.9491
155.8 3493 59.1016
155.917 3538 59.4811
156.033 3559 59.6574
156.15 0 1
156.267 0 1
156.383 0 1
156.5 0 1
156.617 0 1
156.733 0 1
156.85 0 1
156.966 0 1
157.082 0 1
157.199 0 1
157.315 0 1
157.431 0 1
157.547 0 1
157.664 0 1
157.78 0 1
157.896 0 1
158.012 0 1
158.128 0 1
158.244 0 1
158.359 0 1
158.475 0 1
158.591 0 1
158.706 0 1
