
6.15755 0 1
6.2731 0 1
6.3887 0 1
6.50437 0 1
6.62009 0 1
6.73587 0 1
6.8517 0 1
6.96759 0 1
7.08353 0 1
7.19952 0 1
7.31557 0 1
7.43166 0 1
7.54781 0 1
7.664 0 1
7.78024 0 1
7.89653 0 1
8.01286 0 1
8.12924 0 1
8.24567 0 1
8.36213 0 1
8.47864 0 1
8.59519 0 1
8.71178 0 1
8.82841 0 1
8.94508 0 1
9.06179 0 1
9.17853 0 1
9.29531 0 1
9.41212 0 1
9.52897 0 1
9.64584 0 1
9.76276 0 1
9.8797 0 1
9.99667 0 1
10.1137 0 1
10.2307 0 1
10.3478 0 1
10.4648 0 1
10.5819 0 1
10.6991 0 1
10.8162 0 1
10.9334 0 1
11.0506 0 1
11.1678 0 1
11.285 0 1
11.4023 0 1
11.5196 0 1
11.6369 0 1
11.7542 0 1
11.8715 0 1
11.9888 0 1
12.1062 0 1
12.2235 0 1
12.3409 0 1
12.4582 0 1
12.5756 0 1
12.693 0 1
12.8104 0 1
12.9278 0 1
13.0452 0 1
13.1626 0 1
13.28 0 1
13.3974 0 1
13.5149 0 1
13.6323 0 1
13.7497 0 1
13.8671 0 1
13.9845 0 1
14.1019 0 1
14.2193 0 1
14.3367 0 1
14.4541 0 1
14.5714 0 1
14.6888 0 1
14.8062 0 1
14.9235 0 1
15.0408 1003 31.6702
15.1581 1129 33.6006
15.2755 1182 34.3802
15.3927 1168 34.176
15.51 1200 34.641
15.6273 1146 33.8526
15.7445 1170 34.2053
15.8617 1183 34.3948
15.9789 1188 34.4674
16.0961 1181 34.3657
16.2132 1194 34.5543
16.3304 1098 33.1361
16.4475 1219 34.9142
16.5646 1238 35.1852
16.6816 1358 36.8511
16.7986 1346 36.6879
16.9156 1362 36.9053
17.0326 1384 37.2022
17.1496 1380 37.1484
17.2665 1409 37.5366
17.3833 1330 36.4692
17.5002 1322 36.3593
17.617 1275 35.7071
17.7338 1243 35.2562
17.8505 1198 34.6121
17.9672 1213 34.8281
18.0839 1223 34.9714
18.2005 1293 35.9583
18.3171 1306 36.1386
18.4337 1300 36.0555
18.5502 1302 36.0832
18.6666 1358 36.8511
18.7831 1383 37.1887
18.8994 1373 37.054
19.0158 1392 37.3095
19.1321 1366 36.9594
19.2483 1322 36.3593
19.3645 1198 34.6121
19.4806 1089 33
19.5967 1104 33.2265
19.7128 951 30.8383
19.8288 900 30
19.9447 765 27.6586
20.0606 0 1
20.1764 0 1
20.2922 0 1
20.4079 0 1
20.5236 0 1
20.6392 0 1
20.7548 0 1
20.8702 0 1
23.3078 0 1
23.4233 0 1
23.539 0 1
23.6547 0 1
23.7704 0 1
23.8862 0 1
24.0021 0 1
24.118 0 1
24.234 0 1
24.35 0 1
24.4661 573 23.9374
24.5822 696 26.3818
24.6984 697 26.4008
24.8146 837 28.931
24.9309 940 30.6594
25.0472 988 31.4325
25.1636 1146 33.8526
25.28 1183 34.3948
25.3965 1279 35.7631
25.513 1343 36.647
25.6296 1336 36.5513
25.7462 1455 38.1445
25.8628 1527 39.0768
25.9795 1498 38.704
26.0962 1506 38.8072
26.213 1419 37.6696
26.3298 1353 36.7831
26.4466 1263 35.5387
26.5635 1229 35.0571
26.6804 1277 35.7351
26.7973 1298 36.0278
26.9143 1330 36.4692
27.0313 1352 36.7696
27.1483 1454 38.1314
27.2653 1407 37.51
27.3824 1476 38.4187
27.4996 1410 37.55
27.6167 1400 37.4166
27.7339 1338 36.5787
27.8511 1299 36.0416
27.9683 1321 36.3456
28.0855 1334 36.524
28.2028 1332 36.4966
28.3201 1210 34.7851
28.4374 1122 33.4963
28.5547 1172 34.2345
28.6721 1166 34.1467
28.7894 1256 35.4401
28.9068 1357 36.8375
29.0242 1403 37.4566
29.1416 1435 37.8814
29.259 1403 37.4566
29.3764 1424 37.7359
29.4939 1477 38.4318
29.6113 1443 37.9868
29.7288 1336 36.5513
29.8463 1284 35.8329
29.9638 1277 35.7351
30.0812 1234 35.1283
30.1987 1225 35
30.3162 1213 34.8281
30.4337 1332 36.4966
30.5512 1307 36.1525
30.6687 1389 37.2693
30.7862 1397 37.3765
30.9037 1361 36.8917
31.0212 1336 36.5513
31.1387 1372 37.0405
31.2562 1414 37.6032
31.3737 1298 36.0278
31.4912 1306 36.1386
31.6087 1284 35.8329
31.7262 1248 35.327
31.8436 1202 34.6699
31.9611 1208 34.7563
32.0785 1155 33.9853
32.1959 1121 33.4813
32.3134 1209 34.7707
32.4308 1278 35.7491
32.5482 1419 37.6696
32.6655 1349 36.7287
32.7829 1352 36.7696
32.9002 1420 37.6829
33.0176 1397 37.3765
33.1349 1454 38.1314
33.2522 1345 36.6742
33.3694 1276 35.7211
33.4867 1267 35.5949
33.6039 1133 33.6601
33.7211 1121 33.4813
33.8383 1108 33.2866
33.9554 1161 34.0735
34.0725 1177 34.3074
34.1896 1309 36.1801
34.3067 1341 36.6197
34.4237 1320 36.3318
34.5407 1306 36.1386
34.6577 1301 36.0694
34.7746 1351 36.756
34.8915 1274 35.6931
35.0084 1373 37.054
35.1252 1283 35.819
35.242 1260 35.4965
35.3587 1212 34.8138
35.4755 1126 33.5559
35.5921 1170 34.2053
35.7088 1027 32.0468
35.8254 1071 32.7261
35.9419 1116 33.4066
36.0584 1221 34.9428
36.1749 1159 34.0441
36.2913 1240 35.2136
36.4077 1231 35.0856
36.524 1218 34.8999
36.6403 1079 32.8481
36.7565 1138 33.7343
36.8727 1081 32.8786
36.9889 1021 31.9531
37.1049 827 28.7576
37.221 0 1
37.3369 0 1
37.4529 0 1
37.5687 0 1
37.6845 0 1
37.8003 0 1
37.916 0 1
38.0316 0 1
38.1472 0 1
40.5851 0 1
40.7008 0 1
40.8164 0 1
40.9322 0 1
41.048 0 1
41.1639 0 1
41.2798 0 1
41.3958 0 1
41.5118 0 1
41.6279 0 1
41.744 646 25.4165
41.8602 683 26.1343
41.9765 739 27.1846
42.0928 776 27.8568
42.2091 773 27.8029
42.3255 749 27.3679
42.4419 699 26.4386
42.5584 789 28.0891
42.675 871 29.5127
42.7915 903 30.05
42.9081 1003 31.6702
43.0248 1031 32.1092
43.1415 1083 32.909
43.2582 1028 32.0624
43.375 1102 33.1964
43.4918 1101 33.1813
43.6087 1060 32.5576
43.7256 1128 33.5857
43.8425 1049 32.3883
43.9595 1005 31.7017
44.0765 1049 32.3883
44.1935 1084 32.9242
44.3106 922 30.3645
44.4277 880 29.6648
44.5448 887 29.7825
44.6619 893 29.8831
44.7791 917 30.282
44.8963 999 31.607
45.0136 1072 32.7414
45.1308 1074 32.7719
45.2481 1169 34.1906
45.3654 1129 33.6006
45.4827 1096 33.1059
45.6001 1086 32.9545
45.7174 1131 33.6303
45.8348 1010 31.7805
45.9522 1008 31.749
46.0697 920 30.3315
46.1871 924 30.3974
46.3046 962 31.0161
46.422 1044 32.311
46.5395 986 31.4006
46.657 1013 31.8277
46.7745 1066 32.6497
46.892 1119 33.4515
47.0096 1106 33.2566
47.1271 1107 33.2716
47.2446 1105 33.2415
47.3622 1119 33.4515
47.4797 1187 34.4529
47.5973 992 31.496
47.7149 1089 33
47.8324 1071 32.7261
47.95 948 30.7896
48.0675 943 30.7083
48.1851 854 29.2233
48.3027 858 29.2916
48.4202 975 31.225
48.5378 1114 33.3766
48.6554 1066 32.6497
48.7729 1122 33.4963
48.8904 1137 33.7194
49.008 1088 32.9848
49.1255 1038 32.218
49.243 1045 32.3265
49.3605 957 30.9354
49.478 923 30.3809
49.5955 926 30.4302
49.713 832 28.8444
49.8304 940 30.6594
49.9479 959 30.9677
50.0653 1046 32.3419
50.1827 1010 31.7805
50.3001 1073 32.7567
50.4175 1134 33.6749
50.5348 1124 33.5261
50.6521 1161 34.0735
50.7694 1202 34.6699
50.8867 1219 34.9142
51.004 1137 33.7194
51.1212 1116 33.4066
51.2384 1147 33.8674
51.3556 1134 33.6749
51.4727 1137 33.7194
51.5899 1046 32.3419
51.707 1032 32.1248
51.824 1075 32.7872
51.9411 1210 34.7851
52.0581 1297 36.0139
52.175 1444 38
52.2919 1423 37.7227
52.4088 1495 38.6652
52.5257 1501 38.7427
52.6425 1585 39.8121
52.7593 1610 40.1248
52.876 1573 39.6611
52.9927 1475 38.4057
53.1094 1410 37.55
53.226 1384 37.2022
53.3426 1270 35.6371
53.4591 1338 36.5787
53.5756 1397 37.3765
53.692 1441 37.9605
53.8084 1388 37.2559
53.9248 1271 35.6511
54.0411 1293 35.9583
54.1573 1260 35.4965
54.2735 0 1
54.3896 0 1
54.5057 0 1
54.6217 0 1
54.7377 0 1
54.8537 0 1
54.9695 0 1
55.0853 0 1
55.2011 0 1
55.3168 0 1
55.4324 0 1
57.824 0 1
57.9396 0 1
58.0553 0 1
58.1711 0 1
58.2869 0 1
58.4028 0 1
58.5187 0 1
58.6347 0 1
58.7508 0 1
58.8669 0 1
58.983 875 29.5804
59.0992 943 30.7083
59.2155 1085 32.9393
59.3318 1107 33.2716
59.4482 1171 34.2199
59.5646 1281 35.7911
59.681 1274 35.6931
59.7975 1246 35.2987
59.9141 1294 35.9722
60.0306 1318 36.3043
60.1473 1210 34.7851
60.2639 1242 35.242
60.3807 1127 33.5708
60.4974 1177 34.3074
60.6142 1269 35.623
60.731 1285 35.8469
60.8479 1375 37.081
60.9648 1366 36.9594
61.0818 1420 37.6829
61.1987 1399 37.4032
61.3158 1391 37.2961
61.4328 1331 36.4829
61.5499 1311 36.2077
61.667 1142 33.7935
61.7841 1147 33.8674
61.9013 1107 33.2716
62.0185 1068 32.6803
62.1357 1143 33.8083
62.253 1259 35.4824
62.3702 1252 35.3836
62.4875 1311 36.2077
62.6049 1331 36.4829
62.7222 1372 37.0405
62.8396 1434 37.8682
62.9569 1411 37.5633
63.0743 1357 36.8375
63.1918 1423 37.7227
63.3092 1348 36.7151
63.4267 1300 36.0555
63.5441 1305 36.1248
63.6616 1237 35.171
63.7791 1135 33.6898
63.8966 1081 32.8786
64.0142 1121 33.4813
64.1317 1177 34.3074
64.2492 1343 36.647
64.3668 1325 36.4005
64.4843 1389 37.2693
64.6019 1305 36.1248
64.7195 1424 37.7359
64.837 1434 37.8682
64.9546 1338 36.5787
65.0722 1324 36.3868
65.1898 1278 35.7491
65.3074 1100 33.1662
65.4249 1066 32.6497
65.5425 1026 32.0312
65.6601 1068 32.6803
65.7777 1110 33.3167
65.8952 1172 34.2345
66.0128 1237 35.171
66.1304 1247 35.3129
66.2479 1314 36.2491
66.3655 1386 37.229
66.483 1391 37.2961
66.6005 1409 37.5366
66.718 1336 36.5513
66.8355 1332 36.4966
66.953 1348 36.7151
67.0705 1315 36.2629
67.1879 1180 34.3511
67.3054 1237 35.171
67.4228 1066 32.6497
67.5402 1055 32.4808
67.6576 1126 33.5559
67.7749 1125 33.541
67.8923 1183 34.3948
68.0096 1288 35.8887
68.1269 1330 36.4692
68.2442 1331 36.4829
68.3614 1370 37.0135
68.4787 1355 36.8103
68.5958 1307 36.1525
68.713 1237 35.171
68.8302 1194 34.5543
68.9473 1091 33.0303
69.0643 1055 32.4808
69.1814 995 31.5436
69.2984 986 31.4006
69.4154 1066 32.6497
69.5323 1098 33.1361
69.6492 1227 35.0286
69.7661 1222 34.9571
69.8829 1235 35.1426
69.9997 1242 35.242
70.1165 1249 35.3412
70.2332 1209 34.7707
70.3499 1110 33.3167
70.4665 1148 33.8821
70.5831 975 31.225
70.6996 952 30.8545
70.8161 942 30.692
70.9326 884 29.7321
71.049 742 27.2397
71.1653 627 25.04
71.2817 544 23.3238
71.3979 545 23.3452
71.5141 532 23.0651
71.6303 475 21.7945
71.7464 457 21.3776
71.8624 0 1
71.9784 0 1
72.0944 0 1
72.2102 0 1
72.3261 0 1
72.4418 0 1
72.5575 0 1
72.6732 0 1
75.1054 0 1
75.2209 0 1
75.3365 0 1
75.4521 0 1
75.5678 0 1
75.6835 0 1
75.7993 0 1
75.9151 0 1
76.031 0 1
76.147 823 28.688
76.263 807 28.4077
76.3791 853 29.2062
76.4952 865 29.4109
76.6113 809 28.4429
76.7276 910 30.1662
76.8438 987 31.4166
76.9601 1041 32.2645
77.0765 1135 33.6898
77.1929 1150 33.9116
77.3093 1088 32.9848
77.4258 1161 34.0735
77.5423 1108 33.2866
77.6589 1201 34.6554
77.7755 1042 32.28
77.8921 950 30.8221
78.0088 891 29.8496
78.1256 840 28.9828
78.2423 765 27.6586
78.3591 881 29.6816
78.4759 946 30.7571
78.5928 1009 31.7648
78.7097 1067 32.665
78.8266 1105 33.2415
78.9436 1148 33.8821
79.0606 1143 33.8083
79.1776 1134 33.6749
79.2946 1206 34.7275
79.4117 1158 34.0294
79.5288 1189 34.4819
79.6459 1189 34.4819
79.7631 1172 34.2345
79.8802 1073 32.7567
79.9974 1037 32.2025
80.1147 938 30.6268
80.2319 876 29.5973
80.3491 904 30.0666
80.4664 1035 32.1714
80.5837 1126 33.5559
80.701 1143 33.8083
80.8183 1194 34.5543
80.9357 1166 34.1467
81.053 1147 33.8674
81.1704 1243 35.2562
81.2877 1201 34.6554
81.4051 1164 34.1174
81.5225 1027 32.0468
81.6399 1021 31.9531
81.7573 943 30.7083
81.8747 895 29.9166
81.9922 873 29.5466
82.1096 892 29.8664
82.227 973 31.1929
82.3444 1078 32.8329
82.4619 1046 32.3419
82.5793 1162 34.0881
82.6967 1153 33.9559
82.8142 1214 34.8425
82.9316 1211 34.7994
83.049 1252 35.3836
83.1664 1207 34.7419
83.2838 1179 34.3366
83.4012 1229 35.0571
83.5186 1162 34.0881
83.636 1025 32.0156
83.7534 1056 32.4962
83.8708 916 30.2655
83.9881 927 30.4467
84.1055 934 30.5614
84.2228 963 31.0322
84.3401 1152 33.9411
84.4575 1185 34.4238
84.5747 1246 35.2987
84.692 1233 35.1141
84.8093 1278 35.7491
84.9265 1220 34.9285
85.0437 1140 33.7639
85.1609 1030 32.0936
85.2781 987 31.4166
85.3952 861 29.3428
85.5123 857 29.2746
85.6294 895 29.9166
85.7465 968 31.1127
85.8636 1064 32.619
85.9806 1066 32.6497
86.0976 1130 33.6155
86.2145 1172 34.2345
86.3315 1179 34.3366
86.4484 1218 34.8999
86.5652 1292 35.9444
86.682 1208 34.7563
86.7988 1219 34.9142
86.9156 1269 35.623
87.0323 1193 34.5398
87.149 1099 33.1512
87.2657 1103 33.2114
87.3823 940 30.6594
87.4988 860 29.3258
87.6154 823 28.688
87.7318 853 29.2062
87.8483 896 29.9333
87.9647 953 30.8707
88.081 978 31.273
88.1973 996 31.5595
88.3136 981 31.3209
88.4298 935 30.5778
88.546 850 29.1548
88.6621 675 25.9808
88.7781 573 23.9374
88.8942 0 1
89.0101 0 1
89.126 0 1
89.2419 0 1
89.3577 0 1
89.4734 0 1
89.5891 0 1
89.7047 0 1
89.8203 0 1
89.9358 0 1
92.3269 0 1
92.4424 0 1
92.558 0 1
92.6736 0 1
92.7893 0 1
92.905 0 1
93.0208 0 1
93.1366 0 1
93.2525 0 1
93.3685 0 1
93.4845 0 1
93.6005 875 29.5804
93.7167 939 30.6431
93.8328 996 31.5595
93.949 1054 32.4654
94.0653 1080 32.8634
94.1816 1064 32.619
94.2979 1028 32.0624
94.4143 949 30.8058
94.5307 975 31.225
94.6472 823 28.688
94.7637 926 30.4302
94.8803 977 31.257
94.9969 1022 31.9687
95.1135 1125 33.541
95.2302 1108 33.2866
95.3469 1224 34.9857
95.4637 1231 35.0856
95.5805 1235 35.1426
95.6973 1302 36.0832
95.8142 1263 35.5387
95.9311 1214 34.8425
96.048 1287 35.8748
96.1649 1229 35.0571
96.2819 1224 34.9857
96.3989 1107 33.2716
96.516 1116 33.4066
96.633 1019 31.9218
96.7501 1013 31.8277
96.8673 1031 32.1092
96.9844 994 31.5278
97.1016 1108 33.2866
97.2188 1197 34.5977
97.336 1293 35.9583
97.4532 1325 36.4005
97.5704 1212 34.8138
97.6877 1277 35.7351
97.805 1219 34.9142
97.9223 1136 33.7046
98.0396 1051 32.4191
98.1569 982 31.3369
98.2743 923 30.3809
98.3916 902 30.0333
98.509 919 30.315
98.6264 1065 32.6343
98.7438 1131 33.6303
98.8612 1191 34.5109
98.9786 1232 35.0999
99.096 1288 35.8887
99.2134 1348 36.7151
99.3308 1279 35.7631
99.4482 1343 36.647
99.5656 1313 36.2353
99.6831 1304 36.1109
99.8005 1318 36.3043
99.9179 1274 35.6931
100.035 1162 34.0881
100.153 1169 34.1906
100.27 1088 32.9848
100.388 1049 32.3883
100.505 1115 33.3916
100.622 1178 34.322
100.74 1273 35.6791
100.857 1311 36.2077
100.975 1347 36.7015
101.092 1318 36.3043
101.209 1335 36.5377
101.327 1307 36.1525
101.444 1326 36.4143
101.561 1193 34.5398
101.679 1079 32.8481
101.796 1050 32.4037
101.913 972 31.1769
102.03 979 31.289
102.148 1112 33.3467
102.265 1097 33.121
102.382 1241 35.2278
102.499 1287 35.8748
102.616 1292 35.9444
102.733 1427 37.7757
102.851 1444 38
102.968 1389 37.2693
103.085 1390 37.2827
103.202 1352 36.7696
103.319 1357 36.8375
103.436 1441 37.9605
103.552 1321 36.3456
103.669 1258 35.4683
103.786 1217 34.8855
103.903 1143 33.8083
104.02 1167 34.1614
104.137 1226 35.0143
104.253 1243 35.2562
104.37 1416 37.6298
104.487 1446 38.0263
104.603 1412 37.5766
104.72 1444 38
104.836 1286 35.8608
104.953 1242 35.242
105.069 1155 33.9853
105.186 1054 32.4654
105.302 960 30.9839
105.418 904 30.0666
105.535 881 29.6816
105.651 921 30.348
105.767 869 29.4788
105.883 903 30.05
105.999 863 29.3769
106.115 0 1
106.231 0 1
106.347 0 1
106.463 0 1
106.579 0 1
106.694 0 1
106.81 0 1
106.926 0 1
107.041 0 1
107.157 0 1
109.576 0 1
109.692 0 1
109.807 0 1
109.923 0 1
110.039 0 1
110.155 0 1
110.27 0 1
110.386 0 1
110.502 0 1
110.618 567 23.8118
110.735 785 28.0179
110.851 959 30.9677
110.967 962 31.0161
111.083 1010 31.7805
111.199 1171 34.2199
111.316 1329 36.4555
111.432 1247 35.3129
111.549 1311 36.2077
111.665 1303 36.0971
111.782 1322 36.3593
111.898 1263 35.5387
112.015 1231 35.0856
112.132 1241 35.2278
112.248 1117 33.4215
112.365 1060 32.5576
112.482 1102 33.1964
112.599 1193 34.5398
112.716 1186 34.4384
112.832 1271 35.6511
112.949 1306 36.1386
113.066 1396 37.3631
113.183 1311 36.2077
113.3 1413 37.5899
113.417 1365 36.9459
113.534 1306 36.1386
113.652 1120 33.4664
113.769 1074 32.7719
113.886 965 31.0644
114.003 912 30.1993
114.12 992 31.496
114.238 1083 32.909
114.355 1242 35.242
114.472 1199 34.6266
114.589 1433 37.855
114.707 1391 37.2961
114.824 1366 36.9594
114.942 1352 36.7696
115.059 1465 38.2753
115.176 1448 38.0526
115.294 1417 37.6431
115.411 1354 36.7967
115.529 1326 36.4143
115.646 1241 35.2278
115.764 1176 34.2929
115.881 1084 32.9242
115.999 1120 33.4664
116.116 1145 33.8378
116.234 1203 34.6843
116.351 1236 35.1568
116.469 1345 36.6742
116.586 1352 36.7696
116.704 1400 37.4166
116.821 1355 36.8103
116.939 1411 37.5633
117.056 1341 36.6197
117.174 1223 34.9714
117.291 1130 33.6155
117.409 1087 32.9697
117.526 1011 31.7962
117.644 984 31.3688
117.761 1057 32.5115
117.879 1168 34.176
117.996 1258 35.4683
118.114 1261 35.5106
118.231 1311 36.2077
118.349 1282 35.805
118.466 1318 36.3043
118.584 1379 37.1349
118.701 1397 37.3765
118.819 1316 36.2767
118.936 1265 35.5668
119.053 1237 35.171
119.171 1244 35.2704
119.288 1280 35.7771
119.405 1163 34.1028
119.523 1068 32.6803
119.64 1082 32.8938
119.757 1051 32.4191
119.875 1177 34.3074
119.992 1217 34.8855
120.109 1285 35.8469
120.226 1256 35.4401
120.343 1183 34.3948
120.46 1219 34.9142
120.578 1238 35.1852
120.695 1185 34.4238
120.812 1131 33.6303
120.929 1071 32.7261
121.046 1013 31.8277
121.163 874 29.5635
121.279 877 29.6142
121.396 914 30.2324
121.513 994 31.5278
121.63 967 31.0966
121.747 1023 31.9844
121.863 1060 32.5576
121.98 1050 32.4037
122.097 1011 31.7962
122.213 1002 31.6544
122.33 954 30.8869
122.446 956 30.9192
122.563 912 30.1993
122.679 826 28.7402
122.795 822 28.6705
122.912 705 26.5518
123.028 667 25.8263
123.144 562 23.7065
123.26 475 21.7945
123.377 0 1
123.493 0 1
123.609 0 1
123.725 0 1
123.84 0 1
123.956 0 1
124.072 0 1
124.188 0 1
124.303 0 1
124.419 0 1
126.852 0 1
126.968 0 1
127.083 0 1
127.199 0 1
127.315 0 1
127.431 0 1
127.547 0 1
127.663 0 1
127.779 0 1
127.895 0 1
128.011 0 1
128.127 0 1
128.243 0 1
128.359 1123 33.5112
128.476 1198 34.6121
128.592 1205 34.7131
128.708 1176 34.2929
128.825 1083 32.909
128.941 1177 34.3074
129.058 1207 34.7419
129.174 1329 36.4555
129.291 1365 36.9459
129.408 1356 36.8239
129.524 1291 35.9305
129.641 1345 36.6742
129.758 1302 36.0832
129.875 1214 34.8425
129.992 1147 33.8674
130.108 1107 33.2716
130.225 996 31.5595
130.342 1004 31.686
130.459 1023 31.9844
130.576 1147 33.8674
130.693 1186 34.4384
130.81 1135 33.6898
130.928 1193 34.5398
131.045 1251 35.3695
131.162 1350 36.7423
131.279 1326 36.4143
131.396 1309 36.1801
131.513 1271 35.6511
131.631 1343 36.647
131.748 1247 35.3129
131.865 1235 35.1426
131.983 1249 35.3412
132.1 1233 35.1141
132.217 1178 34.322
132.335 1175 34.2783
132.452 1250 35.3553
132.57 1294 35.9722
132.687 1291 35.9305
132.804 1351 36.756
132.922 1416 37.6298
133.039 1413 37.5899
133.157 1335 36.5377
133.274 1278 35.7491
133.392 1308 36.1663
133.509 1199 34.6266
133.627 1137 33.7194
133.744 1042 32.28
133.862 943 30.7083
133.979 1038 32.218
134.097 1151 33.9264
134.214 1174 34.2637
134.332 1261 35.5106
134.449 1319 36.318
134.567 1289 35.9026
134.684 1307 36.1525
134.802 1322 36.3593
134.919 1329 36.4555
135.037 1359 36.8646
135.154 1274 35.6931
135.272 1383 37.1887
135.389 1362 36.9053
135.507 1198 34.6121
135.624 1299 36.0416
135.742 1181 34.3657
135.859 1210 34.7851
135.977 1137 33.7194
136.094 1308 36.1663
136.211 1314 36.2491
136.329 1410 37.55
136.446 1395 37.3497
136.564 1391 37.2961
136.681 1367 36.973
136.798 1376 37.0945
136.915 1301 36.0694
137.033 1251 35.3695
137.15 1261 35.5106
137.267 1182 34.3802
137.384 1071 32.7261
137.502 1007 31.7333
137.619 1038 32.218
137.736 1179 34.3366
137.853 1141 33.7787
137.97 1237 35.171
138.087 1232 35.0999
138.204 1293 35.9583
138.321 1269 35.623
138.438 1288 35.8887
138.555 1367 36.973
138.672 1354 36.7967
138.788 1300 36.0555
138.905 1222 34.9571
139.022 1161 34.0735
139.139 1081 32.8786
139.255 1032 32.1248
139.372 1016 31.8748
139.488 945 30.7409
139.605 898 29.9666
139.721 874 29.5635
139.838 950 30.8221
139.954 926 30.4302
140.071 910 30.1662
140.187 774 27.8209
140.303 759 27.55
140.419 715 26.7395
140.535 687 26.2107
140.652 633 25.1595
140.768 0 1
140.884 0 1
141 0 1
141.115 0 1
141.231 0 1
141.347 0 1
141.463 0 1
141.578 0 1
141.694 0 1
144.104 0 1
144.219 0 1
144.335 0 1
144.45 0 1
144.566 0 1
144.682 0 1
144.798 0 1
144.914 0 1
145.03 0 1
145.146 1028 32.0624
145.262 1055 32.4808
145.378 1100 33.1662
145.494 1123 33.5112
145.61 1107 33.2716
145.726 1046 32.3419
145.842 1020 31.9374
145.959 971 31.1609
146.075 904 30.0666
146.192 864 29.3939
146.308 865 29.4109
146.425 860 29.3258
146.541 903 30.05
146.658 919 30.315
146.774 971 31.1609
146.891 1015 31.8591
147.008 1060 32.5576
147.125 1006 31.7175
147.241 1083 32.909
147.358 1044 32.311
147.475 1093 33.0606
147.592 1031 32.1092
147.709 1083 32.909
147.826 1034 32.1559
147.943 986 31.4006
148.06 952 30.8545
148.177 921 30.348
148.294 865 29.4109
148.411 927 30.4467
148.528 976 31.241
148.645 995 31.5436
148.762 1035 32.1714
148.88 1074 32.7719
148.997 1091 33.0303
149.114 1033 32.1403
149.231 1011 31.7962
149.349 1072 32.7414
149.466 984 31.3688
149.583 948 30.7896
149.701 916 30.2655
149.818 884 29.7321
149.935 801 28.3019
150.053 833 28.8617
150.17 850 29.1548
150.287 909 30.1496
150.405 934 30.5614
150.522 941 30.6757
150.64 970 31.1448
150.757 1006 31.7175
150.875 1023 31.9844
150.992 1052 32.4345
151.11 1076 32.8024
151.227 967 31.0966
151.344 1057 32.5115
151.462 923 30.3809
151.579 933 30.545
151.697 933 30.545
151.814 937 30.6105
151.932 868 29.4618
152.049 882 29.6985
152.167 954 30.8869
152.284 1015 31.8591
152.402 1036 32.187
152.519 920 30.3315
152.636 1031 32.1092
152.754 990 31.4643
152.871 1022 31.9687
152.989 958 30.9516
153.106 1011 31.7962
153.223 896 29.9333
153.341 825 28.7228
153.458 899 29.9833
153.575 810 28.4605
153.693 807 28.4077
153.81 815 28.5482
153.927 866 29.4279
154.044 890 29.8329
154.162 907 30.1164
154.279 872 29.5296
154.396 932 30.5287
154.513 883 29.7153
154.63 988 31.4325
154.747 976 31.241
154.864 934 30.5614
154.981 882 29.6985
155.098 867 29.4449
155.215 825 28.7228
155.332 840 28.9828
155.449 795 28.1957
155.566 834 28.8791
155.683 839 28.9655
155.8 838 28.9482
155.917 867 29.4449
156.033 863 29.3769
156.15 0 1
156.267 0 1
156.383 0 1
156.5 0 1
156.617 0 1
156.733 0 1
156.85 0 1
156.966 0 1
157.082 0 1
157.199 0 1
157.315 0 1
157.431 0 1
157.547 0 1
157.664 0 1
157.78 0 1
157.896 0 1
158.012 0 1
158.128 0 1
158.244 0 1
158.359 0 1
158.475 0 1
158.591 0 1
158.706 0 1
