
6.15755 0 1
6.2731 0 1
6.3887 0 1
6.50437 0 1
6.62009 0 1
6.73587 0 1
6.8517 0 1
6.96759 0 1
7.08353 0 1
7.19952 0 1
7.31557 0 1
7.43166 0 1
7.54781 0 1
7.664 0 1
7.78024 0 1
7.89653 0 1
8.01286 0 1
8.12924 0 1
8.24567 0 1
8.36213 0 1
8.47864 0 1
8.59519 0 1
8.71178 0 1
8.82841 0 1
8.94508 0 1
9.06179 0 1
9.17853 0 1
9.29531 0 1
9.41212 0 1
9.52897 0 1
9.64584 0 1
9.76276 0 1
9.8797 0 1
9.99667 0 1
10.1137 0 1
10.2307 0 1
10.3478 0 1
10.4648 0 1
10.5819 0 1
10.6991 0 1
10.8162 0 1
10.9334 0 1
11.0506 0 1
11.1678 0 1
11.285 0 1
11.4023 0 1
11.5196 0 1
11.6369 0 1
11.7542 0 1
11.8715 0 1
11.9888 0 1
12.1062 0 1
12.2235 0 1
12.3409 0 1
12.4582 0 1
12.5756 0 1
12.693 0 1
12.8104 0 1
12.9278 0 1
13.0452 0 1
13.1626 0 1
13.28 0 1
13.3974 0 1
13.5149 0 1
13.6323 0 1
13.7497 0 1
13.8671 0 1
13.9845 0 1
14.1019 0 1
14.2193 0 1
14.3367 0 1
14.4541 0 1
14.5714 0 1
14.6888 0 1
14.8062 0 1
14.9235 0 1
15.0408 0 0
15.1581 0 0
15.2755 0 0
15.3927 0 0
15.51 0 0
15.6273 0 0
15.7445 0 0
15.8617 0 0
15.9789 0 0
16.0961 0 0
16.2132 0 0
16.3304 0 0
16.4475 0 0
16.5646 0 0
16.6816 0 0
16.7986 0 0
16.9156 0 0
17.0326 0 0
17.1496 0 0
17.2665 0 0
17.3833 0 0
17.5002 0 0
17.617 0 0
17.7338 0 0
17.8505 0 0
17.9672 0 0
18.0839 0 0
18.2005 0 0
18.3171 0 0
18.4337 0 0
18.5502 0 0
18.6666 0 0
18.7831 0 0
18.8994 0 0
19.0158 0 0
19.1321 0 0
19.2483 0 0
19.3645 0 0
19.4806 0 0
19.5967 0 0
19.7128 0 0
19.8288 0 0
19.9447 0 0
20.0606 0 1
20.1764 0 1
20.2922 0 1
20.4079 0 1
20.5236 0 1
20.6392 0 1
20.7548 0 1
20.8702 0 1
23.3078 0 1
23.4233 0 1
23.539 0 1
23.6547 0 1
23.7704 0 1
23.8862 0 1
24.0021 0 1
24.118 0 1
24.234 0 1
24.35 0 1
24.4661 1312 36.2215
24.5822 1359 36.8646
24.6984 1518 38.9615
24.8146 1679 40.9756
24.9309 1879 43.3474
25.0472 2273 47.676
25.1636 2493 49.93
25.28 2607 51.0588
25.3965 2679 51.7591
25.513 2623 51.2152
25.6296 2753 52.469
25.7462 2724 52.192
25.8628 2656 51.5364
25.9795 2768 52.6118
26.0962 2775 52.6783
26.213 2852 53.4041
26.3298 2845 53.3385
26.4466 2831 53.2071
26.5635 2755 52.4881
26.6804 2735 52.2972
26.7973 2710 52.0577
26.9143 2615 51.1371
27.0313 2496 49.96
27.1483 2574 50.7346
27.2653 2554 50.5371
27.3824 2444 49.4368
27.4996 2299 47.9479
27.6167 2223 47.1487
27.7339 2236 47.2864
27.8511 2278 47.7284
27.9683 2514 50.1398
28.0855 2490 49.8999
28.2028 2515 50.1498
28.3201 2571 50.705
28.4374 2549 50.4876
28.5547 2498 49.98
28.6721 2462 49.6185
28.7894 2497 49.97
28.9068 2499 49.99
29.0242 2543 50.4282
29.1416 2644 51.4198
29.259 2645 51.4296
29.3764 2549 50.4876
29.4939 2445 49.4469
29.6113 2454 49.5379
29.7288 2340 48.3735
29.8463 2363 48.6107
29.9638 2358 48.5592
30.0812 2384 48.8262
30.1987 2366 48.6415
30.3162 2436 49.3559
30.4337 2540 50.3984
30.5512 2513 50.1298
30.6687 2447 49.4672
30.7862 2402 49.0102
30.9037 2351 48.4871
31.0212 2226 47.1805
31.1387 2339 48.3632
31.2562 2281 47.7598
31.3737 2400 48.9898
31.4912 2525 50.2494
31.6087 2552 50.5173
31.7262 2620 51.1859
31.8436 2571 50.705
31.9611 2467 49.6689
32.0785 2458 49.5782
32.1959 2462 49.6185
32.3134 2405 49.0408
32.4308 2469 49.689
32.5482 2376 48.7442
32.6655 2213 47.0425
32.7829 2269 47.634
32.9002 2353 48.5077
33.0176 2149 46.3573
33.1349 2220 47.1169
33.2522 2158 46.4543
33.3694 2105 45.8803
33.4867 2253 47.4658
33.6039 2146 46.3249
33.7211 2221 47.1275
33.8383 2279 47.7389
33.9554 2371 48.6929
34.0725 2352 48.4974
34.1896 2434 49.3356
34.3067 2493 49.93
34.4237 2384 48.8262
34.5407 2248 47.4131
34.6577 2226 47.1805
34.7746 2268 47.6235
34.8915 2375 48.734
35.0084 2426 49.2544
35.1252 2436 49.3559
35.242 2453 49.5278
35.3587 2512 50.1199
35.4755 2411 49.1019
35.5921 2403 49.0204
35.7088 2277 47.7179
35.8254 2207 46.9787
35.9419 2239 47.3181
36.0584 2164 46.5188
36.1749 2033 45.0888
36.2913 2006 44.7884
36.4077 1965 44.3283
36.524 1857 43.0929
36.6403 1789 42.2966
36.7565 1525 39.0512
36.8727 1417 37.6431
36.9889 1367 36.973
37.1049 1469 38.3275
37.221 0 1
37.3369 0 1
37.4529 0 1
37.5687 0 1
37.6845 0 1
37.8003 0 1
37.916 0 1
38.0316 0 1
38.1472 0 1
40.5851 0 1
40.7008 0 1
40.8164 0 1
40.9322 0 1
41.048 0 1
41.1639 0 1
41.2798 0 1
41.3958 0 1
41.5118 0 1
41.6279 0 1
41.744 2059 45.3762
41.8602 2694 51.9038
41.9765 3356 57.931
42.0928 3553 59.607
42.2091 3484 59.0254
42.3255 3605 60.0417
42.4419 3505 59.203
42.5584 3763 61.3433
42.675 3681 60.6712
42.7915 3733 61.0983
42.9081 3896 62.4179
43.0248 3883 62.3137
43.1415 3934 62.7216
43.2582 3644 60.3656
43.375 3409 58.3866
43.4918 3424 58.515
43.6087 3552 59.5987
43.7256 3497 59.1354
43.8425 3749 61.2291
43.9595 3685 60.7042
44.0765 3605 60.0417
44.1935 3566 59.716
44.3106 3456 58.7878
44.4277 3363 57.9914
44.5448 3263 57.1227
44.6619 2883 53.6936
44.7791 2863 53.507
44.8963 2722 52.1728
45.0136 2497 49.97
45.1308 2456 49.558
45.2481 2295 47.9062
45.3654 2174 46.6262
45.4827 2074 45.5412
45.6001 1932 43.9545
45.7174 2019 44.9333
45.8348 1912 43.7264
45.9522 1976 44.4522
46.0697 2004 44.7661
46.1871 1878 43.3359
46.3046 2040 45.1664
46.422 2006 44.7884
46.5395 2073 45.5302
46.657 2108 45.913
46.7745 1996 44.6766
46.892 1903 43.6234
47.0096 1809 42.5323
47.1271 1877 43.3244
47.2446 1988 44.587
47.3622 2008 44.8107
47.4797 2090 45.7165
47.5973 2060 45.3872
47.7149 2046 45.2327
47.8324 2044 45.2106
47.95 1982 44.5197
48.0675 1925 43.8748
48.1851 1959 44.2606
48.3027 2055 45.3321
48.4202 1864 43.1741
48.5378 1860 43.1277
48.6554 1773 42.107
48.7729 1787 42.2729
48.8904 1811 42.5558
49.008 1734 41.6413
49.1255 1750 41.833
49.243 1681 41
49.3605 1733 41.6293
49.478 1824 42.7083
49.5955 1830 42.7785
49.713 1891 43.4856
49.8304 1894 43.5201
49.9479 1901 43.6005
50.0653 2069 45.4863
50.1827 2039 45.1553
50.3001 1690 41.1096
50.4175 1583 39.7869
50.5348 1542 39.2683
50.6521 1696 41.1825
50.7694 1802 42.45
50.8867 1984 44.5421
51.004 1935 43.9886
51.1212 2031 45.0666
51.2384 2056 45.3431
51.3556 1938 44.0227
51.4727 2004 44.7661
51.5899 1951 44.1701
51.707 1957 44.238
51.824 1909 43.6921
51.9411 1876 43.3128
52.0581 1857 43.0929
52.175 1792 42.332
52.2919 1836 42.8486
52.4088 1815 42.6028
52.5257 1781 42.2019
52.6425 1811 42.5558
52.7593 1791 42.3202
52.876 1757 41.9166
52.9927 1679 40.9756
53.1094 1732 41.6173
53.226 1733 41.6293
53.3426 1830 42.7785
53.4591 1702 41.2553
53.5756 1535 39.1791
53.692 1433 37.855
53.8084 1272 35.6651
53.9248 1132 33.6452
54.0411 1069 32.6956
54.1573 948 30.7896
54.2735 0 1
54.3896 0 1
54.5057 0 1
54.6217 0 1
54.7377 0 1
54.8537 0 1
54.9695 0 1
55.0853 0 1
55.2011 0 1
55.3168 0 1
55.4324 0 1
57.824 0 1
57.9396 0 1
58.0553 0 1
58.1711 0 1
58.2869 0 1
58.4028 0 1
58.5187 0 1
58.6347 0 1
58.7508 0 1
58.8669 0 1
58.983 1557 39.4588
59.0992 1556 39.4462
59.2155 1578 39.724
59.3318 1701 41.2432
59.4482 1945 44.1022
59.5646 2142 46.2817
59.681 2233 47.2546
59.7975 2293 47.8853
59.9141 2247 47.4025
60.0306 2198 46.8828
60.1473 2301 47.9687
60.2639 2246 47.392
60.3807 2239 47.3181
60.4974 2232 47.244
60.6142 2322 48.1871
60.731 2411 49.1019
60.8479 2236 47.2864
60.9648 2352 48.4974
61.0818 2343 48.4045
61.1987 2219 47.1063
61.3158 2324 48.2079
61.4328 2195 46.8508
61.5499 2230 47.2229
61.667 2141 46.2709
61.7841 2209 47
61.9013 2293 47.8853
62.0185 2261 47.55
62.1357 2154 46.4112
62.253 2311 48.0729
62.3702 2249 47.4236
62.4875 2031 45.0666
62.6049 1988 44.587
62.7222 1905 43.6463
62.8396 2110 45.9347
62.9569 2248 47.4131
63.0743 2289 47.8435
63.1918 2334 48.3115
63.3092 2429 49.2849
63.4267 2327 48.239
63.5441 2345 48.4252
63.6616 2311 48.0729
63.7791 2242 47.3498
63.8966 2262 47.5605
64.0142 2243 47.3603
64.1317 2335 48.3218
64.2492 2368 48.6621
64.3668 2268 47.6235
64.4843 2281 47.7598
64.6019 2293 47.8853
64.7195 2243 47.3603
64.837 2157 46.4435
64.9546 2146 46.3249
65.0722 2093 45.7493
65.1898 2162 46.4973
65.3074 2110 45.9347
65.4249 2097 45.793
65.5425 2150 46.3681
65.6601 2211 47.0213
65.7777 2323 48.1975
65.8952 2204 46.9468
66.0128 2052 45.299
66.1304 1857 43.0929
66.2479 1814 42.5911
66.3655 1934 43.9773
66.483 2096 45.7821
66.6005 2256 47.4974
66.718 2266 47.6025
66.8355 2286 47.8121
66.953 2369 48.6724
67.0705 2412 49.1121
67.1879 2295 47.9062
67.3054 2352 48.4974
67.4228 2295 47.9062
67.5402 2330 48.2701
67.6576 2362 48.6004
67.7749 2268 47.6235
67.8923 2232 47.244
68.0096 2315 48.1144
68.1269 2244 47.3709
68.2442 2271 47.655
68.3614 2225 47.1699
68.4787 2212 47.0319
68.5958 2219 47.1063
68.713 1998 44.699
68.8302 2086 45.6727
68.9473 1995 44.6654
69.0643 2118 46.0217
69.1814 2113 45.9674
69.2984 2061 45.3982
69.4154 2115 45.9891
69.5323 2065 45.4423
69.6492 1928 43.909
69.7661 1729 41.5812
69.8829 1636 40.4475
69.9997 1704 41.2795
70.1165 1898 43.566
70.2332 1920 43.8178
70.3499 1772 42.0951
70.4665 1694 41.1582
70.5831 1611 40.1373
70.6996 1499 38.7169
70.8161 1489 38.5876
70.9326 1368 36.9865
71.049 1378 37.1214
71.1653 1291 35.9305
71.2817 1263 35.5387
71.3979 1186 34.4384
71.5141 1141 33.7787
71.6303 1075 32.7872
71.7464 1021 31.9531
71.8624 0 1
71.9784 0 1
72.0944 0 1
72.2102 0 1
72.3261 0 1
72.4418 0 1
72.5575 0 1
72.6732 0 1
75.1054 0 1
75.2209 0 1
75.3365 0 1
75.4521 0 1
75.5678 0 1
75.6835 0 1
75.7993 0 1
75.9151 0 1
76.031 0 1
76.147 1743 41.7493
76.263 2009 44.8219
76.3791 2038 45.1442
76.4952 2003 44.7549
76.6113 2002 44.7437
76.7276 1973 44.4185
76.8438 2078 45.5851
76.9601 2041 45.1774
77.0765 2051 45.288
77.1929 2125 46.0977
77.3093 2123 46.076
77.4258 2141 46.2709
77.5423 2144 46.3033
77.6589 2110 45.9347
77.7755 2050 45.2769
77.8921 2068 45.4753
78.0088 2104 45.8694
78.1256 2154 46.4112
78.2423 2053 45.31
78.3591 2120 46.0435
78.4759 2095 45.7712
78.5928 1981 44.5084
78.7097 1834 42.8252
78.8266 1527 39.0768
78.9436 1510 38.8587
79.0606 1613 40.1622
79.1776 1742 41.7373
79.2946 2038 45.1442
79.4117 2140 46.2601
79.5288 2163 46.5081
79.6459 2198 46.8828
79.7631 2229 47.2123
79.8802 2094 45.7602
79.9974 2089 45.7056
80.1147 2078 45.5851
80.2319 2164 46.5188
80.3491 2179 46.6798
80.4664 2186 46.7547
80.5837 2175 46.6369
80.701 2243 47.3603
80.8183 2375 48.734
80.9357 2340 48.3735
81.053 2311 48.0729
81.1704 2288 47.833
81.2877 2120 46.0435
81.4051 2154 46.4112
81.5225 2204 46.9468
81.6399 2179 46.6798
81.7573 2289 47.8435
81.8747 2382 48.8057
81.9922 2438 49.3761
82.1096 2549 50.4876
82.227 2538 50.3786
82.3444 2363 48.6107
82.4619 2207 46.9787
82.5793 1968 44.3621
82.6967 2089 45.7056
82.8142 2552 50.5173
82.9316 3138 56.0179
83.049 3406 58.3609
83.1664 3569 59.7411
83.2838 3735 61.1146
83.4012 3739 61.1474
83.5186 3836 61.9355
83.636 3926 62.6578
83.7534 4079 63.867
83.8708 4073 63.8201
83.9881 4112 64.1249
84.1055 4214 64.9153
84.2228 4265 65.307
84.3401 4329 65.7951
84.4575 4300 65.5744
84.5747 4240 65.1153
84.692 4187 64.707
84.8093 4290 65.4981
84.9265 4195 64.7688
85.0437 4144 64.3739
85.1609 4113 64.1327
85.2781 4127 64.2417
85.3952 4127 64.2417
85.5123 4230 65.0385
85.6294 4145 64.3817
85.7465 3992 63.1823
85.8636 3868 62.1932
85.9806 3193 56.5066
86.0976 2596 50.951
86.2145 2620 51.1859
86.3315 3004 54.8088
86.4484 3804 61.6766
86.5652 3913 62.554
86.682 4012 63.3404
86.7988 4017 63.3798
86.9156 4096 64
87.0323 3952 62.8649
87.149 4051 63.6475
87.2657 4135 64.304
87.3823 4019 63.3956
87.4988 3827 61.8628
87.6154 3576 59.7997
87.7318 3220 56.745
87.8483 3084 55.5338
87.9647 2919 54.0278
88.081 2902 53.8702
88.1973 2866 53.535
88.3136 2771 52.6403
88.4298 2589 50.8822
88.546 2459 49.5883
88.6621 2388 48.8672
88.7781 2349 48.4665
88.8942 0 1
89.0101 0 1
89.126 0 1
89.2419 0 1
89.3577 0 1
89.4734 0 1
89.5891 0 1
89.7047 0 1
89.8203 0 1
89.9358 0 1
92.3269 0 1
92.4424 0 1
92.558 0 1
92.6736 0 1
92.7893 0 1
92.905 0 1
93.0208 0 1
93.1366 0 1
93.2525 0 1
93.3685 0 1
93.4845 0 1
93.6005 4400 66.3325
93.7167 4375 66.1438
93.8328 4281 65.4294
93.949 4388 66.242
94.0653 4267 65.3223
94.1816 4390 66.2571
94.2979 4316 65.6963
94.4143 4415 66.4455
94.5307 4291 65.5057
94.6472 4193 64.7534
94.7637 4302 65.5896
94.8803 3754 61.2699
94.9969 3247 56.9825
95.1135 2979 54.5802
95.2302 3079 55.4887
95.3469 3568 59.7327
95.4637 4064 63.7495
95.5805 4224 64.9923
95.6973 4451 66.7158
95.8142 4333 65.8255
95.9311 4411 66.4154
96.048 4386 66.2269
96.1649 4408 66.3928
96.2819 4393 66.2797
96.3989 4435 66.5958
96.516 4323 65.7495
96.633 4446 66.6783
96.7501 4457 66.7608
96.8673 4405 66.3702
96.9844 4388 66.242
97.1016 4405 66.3702
97.2188 4537 67.3573
97.336 4516 67.2012
97.4532 4418 66.468
97.5704 4403 66.3551
97.6877 4313 65.6734
97.805 4389 66.2495
97.9223 4459 66.7757
98.0396 4367 66.0833
98.1569 4192 64.7457
98.2743 4183 64.6761
98.3916 3776 61.4492
98.509 3215 56.701
98.6264 2916 54
98.7438 3029 55.0364
98.8612 3248 56.9912
98.9786 3590 59.9166
99.096 3613 60.1082
99.2134 3592 59.9333
99.3308 3502 59.1777
99.4482 3306 57.4978
99.5656 3215 56.701
99.6831 3188 56.4624
99.8005 3144 56.0714
99.9179 3202 56.5862
100.035 2951 54.3231
100.153 2944 54.2586
100.27 2942 54.2402
100.388 2990 54.6809
100.505 3052 55.2449
100.622 3004 54.8088
100.74 3033 55.0727
100.857 2919 54.0278
100.975 2892 53.7773
101.092 2850 53.3854
101.209 2835 53.2447
101.327 2913 53.9722
101.444 2866 53.535
101.561 2835 53.2447
101.679 2924 54.074
101.796 3024 54.9909
101.913 2778 52.7067
102.03 2541 50.4083
102.148 2308 48.0416
102.265 2124 46.0869
102.382 2339 48.3632
102.499 2475 49.7494
102.616 2646 51.4393
102.733 2724 52.192
102.851 2768 52.6118
102.968 2715 52.1057
103.085 2665 51.6236
103.202 2722 52.1728
103.319 2709 52.0481
103.436 2619 51.1762
103.552 2635 51.3323
103.669 2654 51.517
103.786 2552 50.5173
103.903 2666 51.6333
104.02 2668 51.6527
104.137 2747 52.4118
104.253 2880 53.6656
104.37 2596 50.951
104.487 2485 49.8498
104.603 2457 49.5681
104.72 2490 49.8999
104.836 2361 48.5901
104.953 2114 45.9783
105.069 1923 43.852
105.186 1705 41.2916
105.302 1630 40.3733
105.418 1504 38.7814
105.535 1351 36.756
105.651 1194 34.5543
105.767 953 30.8707
105.883 848 29.1204
105.999 804 28.3549
106.115 0 1
106.231 0 1
106.347 0 1
106.463 0 1
106.579 0 1
106.694 0 1
106.81 0 1
106.926 0 1
107.041 0 1
107.157 0 1
109.576 0 1
109.692 0 1
109.807 0 1
109.923 0 1
110.039 0 1
110.155 0 1
110.27 0 1
110.386 0 1
110.502 0 1
110.618 2696 51.923
110.735 2727 52.2207
110.851 2596 50.951
110.967 2296 47.9166
111.083 2246 47.392
111.199 2555 50.547
111.316 2747 52.4118
111.432 2983 54.6168
111.549 3024 54.9909
111.665 2947 54.2863
111.782 2910 53.9444
111.898 2956 54.3691
112.015 2939 54.2125
112.132 2858 53.4603
112.248 2946 54.2771
112.365 2942 54.2402
112.482 2872 53.591
112.599 3128 55.9285
112.716 3127 55.9196
112.832 3126 55.9106
112.949 3255 57.0526
113.066 3180 56.3915
113.183 3247 56.9825
113.3 3273 57.2101
113.417 3246 56.9737
113.534 3236 56.8859
113.652 3191 56.4889
113.769 3239 56.9122
113.886 3132 55.9643
114.003 3096 55.6417
114.12 3150 56.1249
114.238 3096 55.6417
114.355 2839 53.2823
114.472 2480 49.7996
114.589 2539 50.3885
114.707 2502 50.02
114.824 2772 52.6498
114.942 3000 54.7723
115.059 3101 55.6866
115.176 3028 55.0273
115.294 3107 55.7405
115.411 2944 54.2586
115.529 2981 54.5985
115.646 2960 54.4059
115.764 2944 54.2586
115.881 2923 54.0648
115.999 2902 53.8702
116.116 2838 53.2729
116.234 3020 54.9545
116.351 3108 55.7494
116.469 3341 57.8014
116.586 3318 57.6021
116.704 3300 57.4456
116.821 3324 57.6541
116.939 3256 57.0614
117.056 3372 58.0689
117.174 3218 56.7274
117.291 3267 57.1577
117.409 3292 57.376
117.526 3296 57.4108
117.644 3285 57.3149
117.761 3254 57.0438
117.879 3149 56.116
117.996 2799 52.9056
118.114 2605 51.0392
118.231 2545 50.448
118.349 2661 51.5849
118.466 2832 53.2165
118.584 3024 54.9909
118.701 3233 56.8595
118.819 3017 54.9272
118.936 2914 53.9815
119.053 3019 54.9454
119.171 3010 54.8635
119.288 2791 52.8299
119.405 2929 54.1202
119.523 2859 53.4696
119.64 2914 53.9815
119.757 2799 52.9056
119.875 2857 53.4509
119.992 2859 53.4696
120.109 2930 54.1295
120.226 3061 55.3263
120.343 3197 56.542
120.46 3073 55.4346
120.578 3087 55.5608
120.695 3008 54.8452
120.812 2968 54.4794
120.929 2929 54.1202
121.046 2979 54.5802
121.163 2943 54.2494
121.279 3097 55.6507
121.396 3014 54.8999
121.513 2842 53.3104
121.63 2565 50.6458
121.747 2328 48.2494
121.863 2140 46.2601
121.98 2068 45.4753
122.097 2016 44.8999
122.213 2087 45.6837
122.33 2162 46.4973
122.446 2162 46.4973
122.563 1992 44.6318
122.679 1942 44.0681
122.795 1903 43.6234
122.912 1841 42.9069
123.028 1836 42.8486
123.144 1802 42.45
123.26 1806 42.4971
123.377 0 1
123.493 0 1
123.609 0 1
123.725 0 1
123.84 0 1
123.956 0 1
124.072 0 1
124.188 0 1
124.303 0 1
124.419 0 1
126.852 0 1
126.968 0 1
127.083 0 1
127.199 0 1
127.315 0 1
127.431 0 1
127.547 0 1
127.663 0 1
127.779 0 1
127.895 0 1
128.011 0 1
128.127 0 1
128.243 0 1
128.359 3309 57.5239
128.476 3475 58.9491
128.592 3393 58.2495
128.708 3418 58.4637
128.825 3503 59.1861
128.941 3452 58.7537
129.058 3496 59.127
129.174 3718 60.9754
129.291 3603 60.025
129.408 3724 61.0246
129.524 3862 62.145
129.641 3936 62.7375
129.758 3964 62.9603
129.875 4052 63.6553
129.992 4103 64.0547
130.108 4083 63.8984
130.225 4285 65.4599
130.342 4144 64.3739
130.459 4052 63.6553
130.576 4009 63.3167
130.693 3751 61.2454
130.81 3681 60.6712
130.928 3626 60.2163
131.045 3721 61
131.162 3859 62.1208
131.279 3937 62.7455
131.396 3984 63.1189
131.513 4022 63.4192
131.631 3888 62.3538
131.748 4086 63.9218
131.865 3895 62.4099
131.983 3997 63.2218
132.1 3833 61.9112
132.217 3843 61.9919
132.335 3800 61.6441
132.452 3807 61.7009
132.57 3814 61.7576
132.687 3636 60.2993
132.804 4037 63.5374
132.922 3847 62.0242
133.039 3982 63.1031
133.157 3930 62.6897
133.274 4065 63.7574
133.392 4124 64.2184
133.509 4119 64.1794
133.627 4275 65.3835
133.744 4397 66.3099
133.862 4356 66
133.979 4195 64.7688
134.097 4237 65.0922
134.214 4274 65.3758
134.332 4039 63.5531
134.449 3984 63.1189
134.567 3944 62.8013
134.684 4166 64.5446
134.802 4243 65.1383
134.919 4309 65.643
135.037 4257 65.2457
135.154 4397 66.3099
135.272 4267 65.3223
135.389 4354 65.9848
135.507 4095 63.9922
135.624 4130 64.2651
135.742 4181 64.6607
135.859 4041 63.5689
135.977 4017 63.3798
136.094 3837 61.9435
136.211 4081 63.8827
136.329 4028 63.4665
136.446 4051 63.6475
136.564 4146 64.3894
136.681 4000 63.2456
136.798 4024 63.435
136.915 4105 64.0703
137.033 4222 64.9769
137.15 4223 64.9846
137.267 4134 64.2962
137.384 4078 63.8592
137.502 4100 64.0312
137.619 4230 65.0385
137.736 4174 64.6065
137.853 3945 62.8092
137.97 3940 62.7694
138.087 3825 61.8466
138.204 3883 62.3137
138.321 4079 63.867
138.438 4132 64.2806
138.555 4130 64.2651
138.672 4086 63.9218
138.788 4068 63.7809
138.905 4100 64.0312
139.022 3921 62.6179
139.139 3668 60.564
139.255 3594 59.95
139.372 3375 58.0948
139.488 3206 56.6216
139.605 3193 56.5066
139.721 3102 55.6956
139.838 2912 53.963
139.954 2948 54.2955
140.071 2821 53.1131
140.187 2804 52.9528
140.303 2931 54.1387
140.419 2950 54.3139
140.535 2831 53.2071
140.652 2852 53.4041
140.768 0 1
140.884 0 1
141 0 1
141.115 0 1
141.231 0 1
141.347 0 1
141.463 0 1
141.578 0 1
141.694 0 1
144.104 0 1
144.219 0 1
144.335 0 1
144.45 0 1
144.566 0 1
144.682 0 1
144.798 0 1
144.914 0 1
145.03 0 1
145.146 8305 91.1318
145.262 8693 93.2363
145.378 8914 94.414
145.494 8948 94.5939
145.61 8803 93.8243
145.726 8990 94.8156
145.842 9065 95.2103
145.959 9043 95.0947
146.075 8987 94.7998
146.192 8978 94.7523
146.308 9116 95.4777
146.425 8593 92.6984
146.541 7959 89.2132
146.658 7055 83.994
146.774 5992 77.408
146.891 5764 75.921
147.008 6393 79.9562
147.125 7730 87.9204
147.241 8437 91.8531
147.358 8862 94.1382
147.475 8801 93.8136
147.592 8808 93.8509
147.709 8757 93.5788
147.826 8979 94.7576
147.943 8838 94.0106
148.06 8930 94.4987
148.177 8906 94.3716
148.294 9086 95.3205
148.411 9049 95.1262
148.528 9064 95.205
148.645 9048 95.121
148.762 9119 95.4935
148.88 9014 94.9421
148.997 8975 94.7365
149.114 9440 97.1597
149.231 9091 95.3467
149.349 9333 96.6075
149.466 9191 95.8697
149.583 9163 95.7236
149.701 9109 95.4411
149.818 9280 96.3328
149.935 9100 95.3939
150.053 9279 96.3276
150.17 8852 94.0851
150.287 8001 89.4483
150.405 6672 81.6823
150.522 6050 77.7817
150.64 6540 80.8703
150.757 7491 86.5506
150.875 8713 93.3435
150.992 8775 93.675
151.11 8638 92.9408
151.227 8999 94.8631
151.344 8718 93.3702
151.462 8826 93.9468
151.579 9074 95.2575
151.697 9079 95.2838
151.814 9052 95.142
151.932 9114 95.4673
152.049 9076 95.268
152.167 9073 95.2523
152.284 8972 94.7206
152.402 9198 95.9062
152.519 9240 96.1249
152.636 9417 97.0412
152.754 9174 95.781
152.871 9322 96.5505
152.989 9533 97.6371
153.106 9480 97.3653
153.223 9501 97.4731
153.341 9558 97.765
153.458 9435 97.1339
153.575 9498 97.4577
153.693 9548 97.7139
153.81 9056 95.163
153.927 8149 90.2718
154.044 7125 84.4097
154.162 6481 80.5047
154.279 6948 83.3547
154.396 8149 90.2718
154.513 8970 94.7101
154.63 9142 95.6138
154.747 9271 96.286
154.864 9362 96.7574
154.981 9133 95.5667
155.098 9132 95.5615
155.215 9010 94.921
155.332 8607 92.7739
155.449 8545 92.4392
155.566 8416 91.7388
155.683 8355 91.4057
155.8 7992 89.398
155.917 8182 90.4544
156.033 7815 88.4025
156.15 0 1
156.267 0 1
156.383 0 1
156.5 0 1
156.617 0 1
156.733 0 1
156.85 0 1
156.966 0 1
157.082 0 1
157.199 0 1
157.315 0 1
157.431 0 1
157.547 0 1
157.664 0 1
157.78 0 1
157.896 0 1
158.012 0 1
158.128 0 1
158.244 0 1
158.359 0 1
158.475 0 1
158.591 0 1
158.706 0 1
