
6.15755 0 1
6.2731 0 1
6.3887 0 1
6.50437 0 1
6.62009 0 1
6.73587 0 1
6.8517 0 1
6.96759 0 1
7.08353 0 1
7.19952 0 1
7.31557 0 1
7.43166 0 1
7.54781 0 1
7.664 0 1
7.78024 0 1
7.89653 0 1
8.01286 0 1
8.12924 0 1
8.24567 0 1
8.36213 0 1
8.47864 0 1
8.59519 0 1
8.71178 0 1
8.82841 0 1
8.94508 0 1
9.06179 0 1
9.17853 0 1
9.29531 0 1
9.41212 0 1
9.52897 0 1
9.64584 0 1
9.76276 0 1
9.8797 0 1
9.99667 0 1
10.1137 0 1
10.2307 0 1
10.3478 0 1
10.4648 0 1
10.5819 0 1
10.6991 0 1
10.8162 0 1
10.9334 0 1
11.0506 0 1
11.1678 0 1
11.285 0 1
11.4023 0 1
11.5196 0 1
11.6369 0 1
11.7542 0 1
11.8715 0 1
11.9888 0 1
12.1062 0 1
12.2235 0 1
12.3409 0 1
12.4582 0 1
12.5756 0 1
12.693 0 1
12.8104 0 1
12.9278 0 1
13.0452 0 1
13.1626 0 1
13.28 0 1
13.3974 0 1
13.5149 0 1
13.6323 0 1
13.7497 0 1
13.8671 0 1
13.9845 0 1
14.1019 0 1
14.2193 0 1
14.3367 0 1
14.4541 0 1
14.5714 0 1
14.6888 0 1
14.8062 0 1
14.9235 0 1
15.0408 2065 45.4423
15.1581 2063 45.4203
15.2755 2159 46.465
15.3927 2214 47.0532
15.51 2161 46.4866
15.6273 2087 45.6837
15.7445 2074 45.5412
15.8617 2025 45
15.9789 2121 46.0543
16.0961 1992 44.6318
16.2132 2051 45.288
16.3304 2112 45.9565
16.4475 2288 47.833
16.5646 2298 47.9375
16.6816 2317 48.1352
16.7986 2567 50.6656
16.9156 2640 51.3809
17.0326 2807 52.9811
17.1496 2800 52.915
17.2665 2861 53.4883
17.3833 2854 53.4228
17.5002 2867 53.5444
17.617 2966 54.461
17.7338 2865 53.5257
17.8505 2948 54.2955
17.9672 3030 55.0454
18.0839 2949 54.3047
18.2005 3138 56.0179
18.3171 3000 54.7723
18.4337 3082 55.5158
18.5502 3072 55.4256
18.6666 3008 54.8452
18.7831 3074 55.4437
18.8994 3072 55.4256
19.0158 2942 54.2402
19.1321 2889 53.7494
19.2483 2907 53.9166
19.3645 2854 53.4228
19.4806 2725 52.2015
19.5967 2722 52.1728
19.7128 2545 50.448
19.8288 2243 47.3603
19.9447 1942 44.0681
20.0606 0 1
20.1764 0 1
20.2922 0 1
20.4079 0 1
20.5236 0 1
20.6392 0 1
20.7548 0 1
20.8702 0 1
23.3078 0 1
23.4233 0 1
23.539 0 1
23.6547 0 1
23.7704 0 1
23.8862 0 1
24.0021 0 1
24.118 0 1
24.234 0 1
24.35 0 1
24.4661 2635 51.3323
24.5822 2776 52.6878
24.6984 2625 51.2348
24.8146 2799 52.9056
24.9309 2707 52.0288
25.0472 2481 49.8096
25.1636 2243 47.3603
25.28 2322 48.1871
25.3965 2446 49.4571
25.513 2550 50.4975
25.6296 2751 52.45
25.7462 2967 54.4702
25.8628 3267 57.1577
25.9795 3256 57.0614
26.0962 3218 56.7274
26.213 3179 56.3826
26.3298 3347 57.8533
26.4466 3253 57.0351
26.5635 3221 56.7539
26.6804 3232 56.8507
26.7973 3189 56.4712
26.9143 3263 57.1227
27.0313 3246 56.9737
27.1483 3200 56.5685
27.2653 3133 55.9732
27.3824 3211 56.6657
27.4996 3211 56.6657
27.6167 3228 56.8155
27.7339 3087 55.5608
27.8511 3062 55.3353
27.9683 3072 55.4256
28.0855 2979 54.5802
28.2028 2968 54.4794
28.3201 2925 54.0833
28.4374 2802 52.9339
28.5547 2631 51.2933
28.6721 2389 48.8774
28.7894 2268 47.6235
28.9068 2214 47.0532
29.0242 2381 48.7955
29.1416 2544 50.4381
29.259 2771 52.6403
29.3764 2956 54.3691
29.4939 3151 56.1338
29.6113 3176 56.356
29.7288 3067 55.3805
29.8463 3214 56.6922
29.9638 3112 55.7853
30.0812 3107 55.7405
30.1987 3228 56.8155
30.3162 3130 55.9464
30.4337 3143 56.0625
30.5512 3129 55.9375
30.6687 3090 55.5878
30.7862 3072 55.4256
30.9037 3074 55.4437
31.0212 3137 56.0089
31.1387 3142 56.0535
31.2562 3046 55.1906
31.3737 3012 54.8817
31.4912 2943 54.2494
31.6087 3159 56.205
31.7262 3029 55.0364
31.8436 2979 54.5802
31.9611 2779 52.7162
32.0785 2666 51.6333
32.1959 2361 48.5901
32.3134 2295 47.9062
32.4308 2193 46.8295
32.5482 2404 49.0306
32.6655 2462 49.6185
32.7829 2712 52.0769
32.9002 2969 54.4885
33.0176 2964 54.4426
33.1349 3137 56.0089
33.2522 3140 56.0357
33.3694 3115 55.8122
33.4867 3126 55.9106
33.6039 3069 55.3986
33.7211 3115 55.8122
33.8383 3142 56.0535
33.9554 3111 55.7763
34.0725 3017 54.9272
34.1896 3069 55.3986
34.3067 3066 55.3715
34.4237 3016 54.9181
34.5407 2987 54.6535
34.6577 3161 56.2228
34.7746 3182 56.4092
34.8915 3002 54.7905
35.0084 2926 54.0925
35.1252 2935 54.1756
35.242 2878 53.647
35.3587 3008 54.8452
35.4755 3124 55.8928
35.5921 2921 54.0463
35.7088 2860 53.479
35.8254 2528 50.2792
35.9419 2310 48.0625
36.0584 2142 46.2817
36.1749 2201 46.9148
36.2913 2278 47.7284
36.4077 2453 49.5278
36.524 2593 50.9215
36.6403 2839 53.2823
36.7565 2990 54.6809
36.8727 3024 54.9909
36.9889 2947 54.2863
37.1049 3049 55.2178
37.221 0 1
37.3369 0 1
37.4529 0 1
37.5687 0 1
37.6845 0 1
37.8003 0 1
37.916 0 1
38.0316 0 1
38.1472 0 1
40.5851 0 1
40.7008 0 1
40.8164 0 1
40.9322 0 1
41.048 0 1
41.1639 0 1
41.2798 0 1
41.3958 0 1
41.5118 0 1
41.6279 0 1
41.744 2026 45.0111
41.8602 2333 48.3011
41.9765 2488 49.8799
42.0928 2500 50
42.2091 2503 50.03
42.3255 2640 51.3809
42.4419 2575 50.7445
42.5584 2583 50.8232
42.675 2552 50.5173
42.7915 2462 49.6185
42.9081 2423 49.224
43.0248 2508 50.0799
43.1415 2379 48.775
43.2582 2323 48.1975
43.375 2467 49.6689
43.4918 2466 49.6588
43.6087 2527 50.2693
43.7256 2407 49.0612
43.8425 2454 49.5379
43.9595 2435 49.3457
44.0765 2320 48.1664
44.1935 2309 48.0521
44.3106 2230 47.2229
44.4277 2178 46.669
44.5448 2130 46.1519
44.6619 1861 43.1393
44.7791 1662 40.7676
44.8963 1541 39.2556
45.0136 1644 40.5463
45.1308 1672 40.8901
45.2481 1714 41.4005
45.3654 1771 42.0833
45.4827 2058 45.3652
45.6001 2136 46.2169
45.7174 2014 44.8776
45.8348 2040 45.1664
45.9522 1984 44.5421
46.0697 1975 44.441
46.1871 1888 43.4511
46.3046 1843 42.9302
46.422 1807 42.5088
46.5395 1824 42.7083
46.657 1791 42.3202
46.7745 1665 40.8044
46.892 1866 43.1972
47.0096 1820 42.6615
47.1271 1817 42.6263
47.2446 1891 43.4856
47.3622 1771 42.0833
47.4797 1731 41.6053
47.5973 1753 41.8688
47.7149 1673 40.9023
47.8324 1616 40.1995
47.95 1575 39.6863
48.0675 1541 39.2556
48.1851 1441 37.9605
48.3027 1363 36.9188
48.4202 1213 34.8281
48.5378 1222 34.9571
48.6554 1217 34.8855
48.7729 1244 35.2704
48.8904 1384 37.2022
49.008 1545 39.3065
49.1255 1586 39.8246
49.243 1570 39.6232
49.3605 1591 39.8873
49.478 1653 40.6571
49.5955 1559 39.4842
49.713 1493 38.6394
49.8304 1614 40.1746
49.9479 1561 39.5095
50.0653 1560 39.4968
50.1827 1567 39.5854
50.3001 1640 40.4969
50.4175 1683 41.0244
50.5348 1750 41.833
50.6521 1758 41.9285
50.7694 1841 42.9069
50.8867 1880 43.359
51.004 1937 44.0114
51.1212 1918 43.795
51.2384 2042 45.1885
51.3556 2029 45.0444
51.4727 1938 44.0227
51.5899 1981 44.5084
51.707 1906 43.6578
51.824 1805 42.4853
51.9411 1730 41.5933
52.0581 1737 41.6773
52.175 1725 41.5331
52.2919 1918 43.795
52.4088 2079 45.5961
52.5257 2250 47.4342
52.6425 2357 48.5489
52.7593 2410 49.0918
52.876 2440 49.3964
52.9927 2528 50.2792
53.1094 2503 50.03
53.226 2509 50.0899
53.3426 2514 50.1398
53.4591 2453 49.5278
53.5756 2474 49.7393
53.692 2404 49.0306
53.8084 2474 49.7393
53.9248 2491 49.9099
54.0411 2629 51.2738
54.1573 2778 52.7067
54.2735 0 1
54.3896 0 1
54.5057 0 1
54.6217 0 1
54.7377 0 1
54.8537 0 1
54.9695 0 1
55.0853 0 1
55.2011 0 1
55.3168 0 1
55.4324 0 1
57.824 0 1
57.9396 0 1
58.0553 0 1
58.1711 0 1
58.2869 0 1
58.4028 0 1
58.5187 0 1
58.6347 0 1
58.7508 0 1
58.8669 0 1
58.983 2680 51.7687
59.0992 2838 53.2729
59.2155 3010 54.8635
59.3318 3183 56.4181
59.4482 3247 56.9825
59.5646 3237 56.8946
59.681 3340 57.7927
59.7975 3118 55.8391
59.9141 3143 56.0625
60.0306 3102 55.6956
60.1473 2965 54.4518
60.2639 2934 54.1664
60.3807 2716 52.1153
60.4974 2722 52.1728
60.6142 2474 49.7393
60.731 2320 48.1664
60.8479 2334 48.3115
60.9648 2519 50.1896
61.0818 2657 51.5461
61.1987 2766 52.5928
61.3158 2883 53.6936
61.4328 2832 53.2165
61.5499 2782 52.7447
61.667 2887 53.7308
61.7841 2800 52.915
61.9013 2833 53.2259
62.0185 2607 51.0588
62.1357 2655 51.5267
62.253 2591 50.9019
62.3702 2620 51.1859
62.4875 2726 52.2111
62.6049 2839 53.2823
62.7222 2820 53.1037
62.8396 2978 54.5711
62.9569 2977 54.5619
63.0743 2993 54.7083
63.1918 3011 54.8726
63.3092 2940 54.2218
63.4267 3014 54.8999
63.5441 2772 52.6498
63.6616 2624 51.225
63.7791 2635 51.3323
63.8966 2500 50
64.0142 2388 48.8672
64.1317 2219 47.1063
64.2492 2142 46.2817
64.3668 2144 46.3033
64.4843 2296 47.9166
64.6019 2329 48.2597
64.7195 2490 49.8999
64.837 2621 51.1957
64.9546 2696 51.923
65.0722 2613 51.1175
65.1898 2545 50.448
65.3074 2592 50.9117
65.4249 2440 49.3964
65.5425 2419 49.1833
65.6601 2329 48.2597
65.7777 2312 48.0833
65.8952 2313 48.0937
66.0128 2366 48.6415
66.1304 2494 49.94
66.2479 2675 51.7204
66.3655 2649 51.4684
66.483 2877 53.6377
66.6005 2777 52.6972
66.718 2786 52.7826
66.8355 2855 53.4322
66.953 2781 52.7352
67.0705 2753 52.469
67.1879 2681 51.7784
67.3054 2585 50.8429
67.4228 2509 50.0899
67.5402 2277 47.7179
67.6576 2250 47.4342
67.7749 2103 45.8585
67.8923 2133 46.1844
68.0096 2058 45.3652
68.1269 2329 48.2597
68.2442 2421 49.2037
68.3614 2508 50.0799
68.4787 2645 51.4296
68.5958 2710 52.0577
68.713 2667 51.643
68.8302 2780 52.7257
68.9473 2695 51.9134
69.0643 2599 50.9804
69.1814 2507 50.07
69.2984 2470 49.6991
69.4154 2439 49.3862
69.5323 2533 50.3289
69.6492 2600 50.9902
69.7661 2655 51.5267
69.8829 2828 53.1789
69.9997 3165 56.2583
70.1165 3062 55.3353
70.2332 3191 56.4889
70.3499 3151 56.1338
70.4665 3199 56.5597
70.5831 3122 55.8749
70.6996 3049 55.2178
70.8161 2996 54.7357
70.9326 2848 53.3667
71.049 2755 52.4881
71.1653 2615 51.1371
71.2817 2491 49.9099
71.3979 2377 48.7545
71.5141 2231 47.2335
71.6303 2144 46.3033
71.7464 1864 43.1741
71.8624 0 1
71.9784 0 1
72.0944 0 1
72.2102 0 1
72.3261 0 1
72.4418 0 1
72.5575 0 1
72.6732 0 1
75.1054 0 1
75.2209 0 1
75.3365 0 1
75.4521 0 1
75.5678 0 1
75.6835 0 1
75.7993 0 1
75.9151 0 1
76.031 0 1
76.147 2653 51.5073
76.263 2822 53.1225
76.3791 2815 53.0566
76.4952 2663 51.6043
76.6113 2537 50.3686
76.7276 2419 49.1833
76.8438 2306 48.0208
76.9601 2343 48.4045
77.0765 2417 49.163
77.1929 2607 51.0588
77.3093 2780 52.7257
77.4258 2846 53.3479
77.5423 3014 54.8999
77.6589 2894 53.7959
77.7755 2956 54.3691
77.8921 2864 53.5164
78.0088 2769 52.6213
78.1256 2648 51.4587
78.2423 2453 49.5278
78.3591 2250 47.4342
78.4759 2181 46.7012
78.5928 2310 48.0625
78.7097 2682 51.788
78.8266 2815 53.0566
78.9436 3160 56.2139
79.0606 3077 55.4707
79.1776 3161 56.2228
79.2946 3210 56.6569
79.4117 3009 54.8544
79.5288 3027 55.0182
79.6459 3072 55.4256
79.7631 2995 54.7266
79.8802 2836 53.2541
79.9974 2659 51.5655
80.1147 2490 49.8999
80.2319 2415 49.1426
80.3491 2224 47.1593
80.4664 2177 46.6583
80.5837 2118 46.0217
80.701 2244 47.3709
80.8183 2460 49.5984
80.9357 2600 50.9902
81.053 2709 52.0481
81.1704 2729 52.2398
81.2877 2651 51.4879
81.4051 2601 51
81.5225 2518 50.1797
81.6399 2536 50.3587
81.7573 2320 48.1664
81.8747 2058 45.3652
81.9922 2107 45.9021
82.1096 1965 44.3283
82.227 2117 46.0109
82.3444 2272 47.6655
82.4619 2623 51.2152
82.5793 2685 51.817
82.6967 2703 51.9904
82.8142 2722 52.1728
82.9316 2675 51.7204
83.049 2807 52.9811
83.1664 2706 52.0192
83.2838 2595 50.9411
83.4012 2534 50.3389
83.5186 2387 48.8569
83.636 2376 48.7442
83.7534 2200 46.9042
83.8708 2096 45.7821
83.9881 1937 44.0114
84.1055 1950 44.1588
84.2228 1995 44.6654
84.3401 2000 44.7214
84.4575 2154 46.4112
84.5747 2291 47.8644
84.692 2373 48.7134
84.8093 2512 50.1199
84.9265 2463 49.6286
85.0437 2368 48.6621
85.1609 2480 49.7996
85.2781 2215 47.0638
85.3952 1999 44.7102
85.5123 1920 43.8178
85.6294 1930 43.9318
85.7465 1847 42.9767
85.8636 2253 47.4658
85.9806 2447 49.4672
86.0976 2648 51.4587
86.2145 2830 53.1977
86.3315 2871 53.5817
86.4484 2907 53.9166
86.5652 3030 55.0454
86.682 2975 54.5436
86.7988 2956 54.3691
86.9156 2894 53.7959
87.0323 2766 52.5928
87.149 2741 52.3546
87.2657 2688 51.8459
87.3823 2495 49.95
87.4988 2345 48.4252
87.6154 2441 49.4065
87.7318 2292 47.8748
87.8483 2375 48.734
87.9647 2588 50.8724
88.081 2750 52.4404
88.1973 2919 54.0278
88.3136 2844 53.3292
88.4298 2916 54
88.546 2928 54.111
88.6621 2743 52.3737
88.7781 2699 51.9519
88.8942 0 1
89.0101 0 1
89.126 0 1
89.2419 0 1
89.3577 0 1
89.4734 0 1
89.5891 0 1
89.7047 0 1
89.8203 0 1
89.9358 0 1
92.3269 0 1
92.4424 0 1
92.558 0 1
92.6736 0 1
92.7893 0 1
92.905 0 1
93.0208 0 1
93.1366 0 1
93.2525 0 1
93.3685 0 1
93.4845 0 1
93.6005 2702 51.9808
93.7167 2827 53.1695
93.8328 2824 53.1413
93.949 2872 53.591
94.0653 2866 53.535
94.1816 2685 51.817
94.2979 2666 51.6333
94.4143 2343 48.4045
94.5307 2231 47.2335
94.6472 2113 45.9674
94.7637 2128 46.1303
94.8803 2360 48.5798
94.9969 2671 51.6817
95.1135 2884 53.7029
95.2302 2991 54.69
95.3469 3132 55.9643
95.4637 3147 56.0981
95.5805 3203 56.5951
95.6973 3313 57.5587
95.8142 3197 56.542
95.9311 3256 57.0614
96.048 3077 55.4707
96.1649 3135 55.9911
96.2819 2972 54.5161
96.3989 2839 53.2823
96.516 2739 52.3355
96.633 2536 50.3587
96.7501 2503 50.03
96.8673 2465 49.6488
96.9844 2541 50.4083
97.1016 2618 51.1664
97.2188 2652 51.4976
97.336 2781 52.7352
97.4532 2893 53.7866
97.5704 2799 52.9056
97.6877 2909 53.9351
97.805 2833 53.2259
97.9223 2602 51.0098
98.0396 2397 48.9592
98.1569 2165 46.5296
98.2743 1970 44.3847
98.3916 2029 45.0444
98.509 2128 46.1303
98.6264 2649 51.4684
98.7438 2846 53.3479
98.8612 2908 53.9259
98.9786 3086 55.5518
99.096 3092 55.6058
99.2134 3121 55.8659
99.3308 3227 56.8067
99.4482 3170 56.3028
99.5656 3249 57
99.6831 3145 56.0803
99.8005 2930 54.1295
99.9179 2889 53.7494
100.035 2846 53.3479
100.153 2749 52.4309
100.27 2638 51.3615
100.388 2527 50.2693
100.505 2633 51.3128
100.622 2604 51.0294
100.74 2758 52.5167
100.857 2799 52.9056
100.975 2925 54.0833
101.092 2953 54.3415
101.209 2883 53.6936
101.327 2945 54.2679
101.444 2846 53.3479
101.561 2520 50.1996
101.679 2305 48.0104
101.796 2096 45.7821
101.913 2159 46.465
102.03 2138 46.2385
102.148 2605 51.0392
102.265 2870 53.5724
102.382 3173 56.3294
102.499 3156 56.1783
102.616 3208 56.6392
102.733 3250 57.0088
102.851 3347 57.8533
102.968 3436 58.6174
103.085 3409 58.3866
103.202 3255 57.0526
103.319 3211 56.6657
103.436 3062 55.3353
103.552 3003 54.7996
103.669 2823 53.1319
103.786 2757 52.5071
103.903 2710 52.0577
104.02 2798 52.8961
104.137 2875 53.619
104.253 3042 55.1543
104.37 3057 55.2901
104.487 3151 56.1338
104.603 3248 56.9912
104.72 3146 56.0892
104.836 3209 56.648
104.953 3023 54.9818
105.069 2702 51.9808
105.186 2420 49.1935
105.302 2333 48.3011
105.418 2246 47.392
105.535 2512 50.1199
105.651 2931 54.1387
105.767 3227 56.8067
105.883 3458 58.8048
105.999 3492 59.0931
106.115 0 1
106.231 0 1
106.347 0 1
106.463 0 1
106.579 0 1
106.694 0 1
106.81 0 1
106.926 0 1
107.041 0 1
107.157 0 1
109.576 0 1
109.692 0 1
109.807 0 1
109.923 0 1
110.039 0 1
110.155 0 1
110.27 0 1
110.386 0 1
110.502 0 1
110.618 2458 49.5782
110.735 2882 53.6843
110.851 3278 57.2538
110.967 3371 58.0603
111.083 3409 58.3866
111.199 3396 58.2752
111.316 3593 59.9416
111.432 3617 60.1415
111.549 3563 59.6909
111.665 3483 59.0169
111.782 3458 58.8048
111.898 3315 57.576
112.015 3194 56.5155
112.132 3148 56.107
112.248 3054 55.263
112.365 3016 54.9181
112.482 2952 54.3323
112.599 3134 55.9821
112.716 3021 54.9636
112.832 3136 56
112.949 3204 56.6039
113.066 3129 55.9375
113.183 3085 55.5428
113.3 3126 55.9106
113.417 3136 56
113.534 2929 54.1202
113.652 2673 51.7011
113.769 2347 48.4458
113.886 2204 46.9468
114.003 2172 46.6047
114.12 2503 50.03
114.238 2895 53.8052
114.355 3316 57.5847
114.472 3282 57.2887
114.589 3450 58.7367
114.707 3531 59.4222
114.824 3513 59.2706
114.942 3636 60.2993
115.059 3664 60.531
115.176 3489 59.0678
115.294 3513 59.2706
115.411 3408 58.3781
115.529 3286 57.3236
115.646 3329 57.6975
115.764 3072 55.4256
115.881 3200 56.5685
115.999 3078 55.4797
116.116 3135 55.9911
116.234 3169 56.2939
116.351 3224 56.7803
116.469 3140 56.0357
116.586 3268 57.1664
116.704 3338 57.7754
116.821 3237 56.8946
116.939 3223 56.7715
117.056 3105 55.7225
117.174 3008 54.8452
117.291 2607 51.0588
117.409 2436 49.3559
117.526 2326 48.2286
117.644 2463 49.6286
117.761 2674 51.7107
117.879 3126 55.9106
117.996 3365 58.0086
118.114 3367 58.0259
118.231 3612 60.0999
118.349 3607 60.0583
118.466 3615 60.1249
118.584 3705 60.8687
118.701 3597 59.975
118.819 3671 60.5888
118.936 3479 58.983
119.053 3340 57.7927
119.171 3241 56.9298
119.288 3337 57.7668
119.405 3173 56.3294
119.523 3077 55.4707
119.64 3124 55.8928
119.757 3071 55.4166
119.875 3144 56.0714
119.992 3134 55.9821
120.109 3139 56.0268
120.226 3254 57.0438
120.343 3195 56.5243
120.46 3188 56.4624
120.578 3161 56.2228
120.695 3180 56.3915
120.812 2936 54.1849
120.929 2743 52.3737
121.046 2524 50.2394
121.163 2348 48.4562
121.279 2343 48.4045
121.396 2414 49.1325
121.513 2817 53.0754
121.63 3254 57.0438
121.747 3284 57.3062
121.863 3467 58.8812
121.98 3497 59.1354
122.097 3557 59.6406
122.213 3537 59.4727
122.33 3541 59.5063
122.446 3489 59.0678
122.563 3383 58.1636
122.679 3295 57.4021
122.795 3315 57.576
122.912 3205 56.6127
123.028 3153 56.1516
123.144 3140 56.0357
123.26 2984 54.626
123.377 0 1
123.493 0 1
123.609 0 1
123.725 0 1
123.84 0 1
123.956 0 1
124.072 0 1
124.188 0 1
124.303 0 1
124.419 0 1
126.852 0 1
126.968 0 1
127.083 0 1
127.199 0 1
127.315 0 1
127.431 0 1
127.547 0 1
127.663 0 1
127.779 0 1
127.895 0 1
128.011 0 1
128.127 0 1
128.243 0 1
128.359 3473 58.9322
128.476 3319 57.6108
128.592 3381 58.1464
128.708 3326 57.6715
128.825 3430 58.5662
128.941 3447 58.7112
129.058 3474 58.9406
129.174 3479 58.983
129.291 3484 59.0254
129.408 3461 58.8303
129.524 3430 58.5662
129.641 3403 58.3352
129.758 3183 56.4181
129.875 2921 54.0463
129.992 2754 52.4786
130.108 2552 50.5173
130.225 2522 50.2195
130.342 2732 52.2685
130.459 3049 55.2178
130.576 3606 60.05
130.693 3765 61.3596
130.81 3762 61.3351
130.928 3633 60.2744
131.045 3874 62.2415
131.162 3786 61.5305
131.279 3838 61.9516
131.396 3861 62.1369
131.513 3752 61.2536
131.631 3767 61.3759
131.748 3580 59.8331
131.865 3548 59.5651
131.983 3716 60.959
132.1 3614 60.1166
132.217 3701 60.8358
132.335 3607 60.0583
132.452 3651 60.4235
132.57 3674 60.6135
132.687 3603 60.025
132.804 3660 60.4979
132.922 3634 60.2827
133.039 3504 59.1946
133.157 3652 60.4318
133.274 3323 57.6455
133.392 3089 55.5788
133.509 2838 53.2729
133.627 2644 51.4198
133.744 2473 49.7293
133.862 2587 50.8626
133.979 3033 55.0727
134.097 3388 58.2065
134.214 3522 59.3464
134.332 3728 61.0574
134.449 3850 62.0484
134.567 3787 61.5386
134.684 3723 61.0164
134.802 3877 62.2656
134.919 3792 61.5792
135.037 3749 61.2291
135.154 3780 61.4817
135.272 3715 60.9508
135.389 3686 60.7124
135.507 3752 61.2536
135.624 3665 60.5392
135.742 3642 60.349
135.859 3668 60.564
135.977 3603 60.025
136.094 3647 60.3904
136.211 3606 60.05
136.329 3627 60.2246
136.446 3596 59.9667
136.564 3685 60.7042
136.681 3642 60.349
136.798 3608 60.0666
136.915 3364 58
137.033 2932 54.1479
137.15 2740 52.345
137.267 2722 52.1728
137.384 2518 50.1797
137.502 2630 51.2835
137.619 2941 54.231
137.736 3279 57.2626
137.853 3426 58.532
137.97 3640 60.3324
138.087 3631 60.2578
138.204 3760 61.3188
138.321 3765 61.3596
138.438 3781 61.4898
138.555 3844 62
138.672 3830 61.887
138.788 3857 62.1048
138.905 3818 61.79
139.022 3814 61.7576
139.139 3757 61.2944
139.255 3831 61.8951
139.372 3694 60.7783
139.488 3722 61.0082
139.605 3745 61.1964
139.721 3801 61.6523
139.838 3756 61.2862
139.954 3811 61.7333
140.071 3823 61.8304
140.187 3828 61.8708
140.303 3705 60.8687
140.419 3675 60.6218
140.535 3561 59.6741
140.652 3242 56.9386
140.768 0 1
140.884 0 1
141 0 1
141.115 0 1
141.231 0 1
141.347 0 1
141.463 0 1
141.578 0 1
141.694 0 1
144.104 0 1
144.219 0 1
144.335 0 1
144.45 0 1
144.566 0 1
144.682 0 1
144.798 0 1
144.914 0 1
145.03 0 1
145.146 2692 51.8845
145.262 3008 54.8452
145.378 2905 53.8981
145.494 3017 54.9272
145.61 3048 55.2087
145.726 2681 51.7784
145.842 2450 49.4975
145.959 2349 48.4665
146.075 2312 48.0833
146.192 2180 46.6905
146.308 2273 47.676
146.425 2396 48.949
146.541 2527 50.2693
146.658 2731 52.259
146.774 2929 54.1202
146.891 3071 55.4166
147.008 3115 55.8122
147.125 3194 56.5155
147.241 3196 56.5332
147.358 3295 57.4021
147.475 3360 57.9655
147.592 3361 57.9741
147.709 3211 56.6657
147.826 3266 57.1489
147.943 3253 57.0351
148.06 3243 56.9473
148.177 3101 55.6866
148.294 3267 57.1577
148.411 3263 57.1227
148.528 3161 56.2228
148.645 3113 55.7943
148.762 3229 56.8243
148.88 3276 57.2364
148.997 3233 56.8595
149.114 3385 58.1808
149.231 3382 58.155
149.349 3168 56.285
149.466 3097 55.6507
149.583 2869 53.563
149.701 2693 51.8941
149.818 2523 50.2295
149.935 2418 49.1732
150.053 2339 48.3632
150.17 2384 48.8262
150.287 2599 50.9804
150.405 2786 52.7826
150.522 2876 53.6284
150.64 3139 56.0268
150.757 3181 56.4004
150.875 3308 57.5152
150.992 3368 58.0345
151.11 3495 59.1185
151.227 3516 59.2959
151.344 3451 58.7452
151.462 3454 58.7707
151.579 3556 59.6322
151.697 3401 58.3181
151.814 3410 58.3952
151.932 3453 58.7622
152.049 3423 58.5064
152.167 3334 57.7408
152.284 3384 58.1722
152.402 3407 58.3695
152.519 3452 58.7537
152.636 3432 58.5833
152.754 3379 58.1292
152.871 3426 58.532
152.989 3340 57.7927
153.106 3214 56.6922
153.223 3043 55.1634
153.341 2831 53.2071
153.458 2562 50.6162
153.575 2521 50.2096
153.693 2521 50.2096
153.81 2577 50.7642
153.927 2836 53.2541
154.044 2933 54.1572
154.162 3009 54.8544
154.279 3259 57.0877
154.396 3271 57.1927
154.513 3518 59.3127
154.63 3509 59.2368
154.747 3654 60.4483
154.864 3634 60.2827
154.981 3746 61.2046
155.098 3718 60.9754
155.215 3600 60
155.332 3527 59.3886
155.449 3583 59.8582
155.566 3502 59.1777
155.683 3555 59.6238
155.8 3491 59.0847
155.917 3545 59.5399
156.033 3624 60.1997
156.15 0 1
156.267 0 1
156.383 0 1
156.5 0 1
156.617 0 1
156.733 0 1
156.85 0 1
156.966 0 1
157.082 0 1
157.199 0 1
157.315 0 1
157.431 0 1
157.547 0 1
157.664 0 1
157.78 0 1
157.896 0 1
158.012 0 1
158.128 0 1
158.244 0 1
158.359 0 1
158.475 0 1
158.591 0 1
158.706 0 1
