
6.15755 0 1
6.2731 0 1
6.3887 0 1
6.50437 0 1
6.62009 0 1
6.73587 0 1
6.8517 0 1
6.96759 0 1
7.08353 0 1
7.19952 0 1
7.31557 0 1
7.43166 0 1
7.54781 0 1
7.664 0 1
7.78024 0 1
7.89653 0 1
8.01286 0 1
8.12924 0 1
8.24567 0 1
8.36213 0 1
8.47864 0 1
8.59519 0 1
8.71178 0 1
8.82841 0 1
8.94508 0 1
9.06179 0 1
9.17853 0 1
9.29531 0 1
9.41212 0 1
9.52897 0 1
9.64584 0 1
9.76276 0 1
9.8797 0 1
9.99667 0 1
10.1137 0 1
10.2307 0 1
10.3478 0 1
10.4648 0 1
10.5819 0 1
10.6991 0 1
10.8162 0 1
10.9334 0 1
11.0506 0 1
11.1678 0 1
11.285 0 1
11.4023 0 1
11.5196 0 1
11.6369 0 1
11.7542 0 1
11.8715 0 1
11.9888 0 1
12.1062 0 1
12.2235 0 1
12.3409 0 1
12.4582 0 1
12.5756 0 1
12.693 0 1
12.8104 0 1
12.9278 0 1
13.0452 0 1
13.1626 0 1
13.28 0 1
13.3974 0 1
13.5149 0 1
13.6323 0 1
13.7497 0 1
13.8671 0 1
13.9845 0 1
14.1019 0 1
14.2193 0 1
14.3367 0 1
14.4541 0 1
14.5714 0 1
14.6888 0 1
14.8062 0 1
14.9235 0 1
15.0408 0 0
15.1581 0 0
15.2755 0 0
15.3927 0 0
15.51 0 0
15.6273 0 0
15.7445 0 0
15.8617 0 0
15.9789 0 0
16.0961 0 0
16.2132 0 0
16.3304 0 0
16.4475 0 0
16.5646 0 0
16.6816 0 0
16.7986 0 0
16.9156 0 0
17.0326 0 0
17.1496 0 0
17.2665 0 0
17.3833 0 0
17.5002 0 0
17.617 0 0
17.7338 0 0
17.8505 0 0
17.9672 0 0
18.0839 0 0
18.2005 0 0
18.3171 0 0
18.4337 0 0
18.5502 0 0
18.6666 0 0
18.7831 0 0
18.8994 0 0
19.0158 0 0
19.1321 0 0
19.2483 0 0
19.3645 0 0
19.4806 0 0
19.5967 0 0
19.7128 0 0
19.8288 0 0
19.9447 0 0
20.0606 0 1
20.1764 0 1
20.2922 0 1
20.4079 0 1
20.5236 0 1
20.6392 0 1
20.7548 0 1
20.8702 0 1
23.3078 0 1
23.4233 0 1
23.539 0 1
23.6547 0 1
23.7704 0 1
23.8862 0 1
24.0021 0 1
24.118 0 1
24.234 0 1
24.35 0 1
24.4661 726 26.9444
24.5822 705 26.5518
24.6984 728 26.9815
24.8146 671 25.9037
24.9309 720 26.8328
25.0472 719 26.8142
25.1636 756 27.4955
25.28 754 27.4591
25.3965 770 27.7489
25.513 712 26.6833
25.6296 738 27.1662
25.7462 776 27.8568
25.8628 815 28.5482
25.9795 757 27.5136
26.0962 721 26.8514
26.213 768 27.7128
26.3298 790 28.1069
26.4466 739 27.1846
26.5635 756 27.4955
26.6804 740 27.2029
26.7973 697 26.4008
26.9143 729 27
27.0313 605 24.5967
27.1483 606 24.6171
27.2653 664 25.7682
27.3824 703 26.5141
27.4996 701 26.4764
27.6167 721 26.8514
27.7339 663 25.7488
27.8511 638 25.2587
27.9683 685 26.1725
28.0855 617 24.8395
28.2028 664 25.7682
28.3201 669 25.865
28.4374 681 26.096
28.5547 664 25.7682
28.6721 719 26.8142
28.7894 648 25.4558
28.9068 711 26.6646
29.0242 706 26.5707
29.1416 748 27.3496
29.259 711 26.6646
29.3764 663 25.7488
29.4939 728 26.9815
29.6113 695 26.3629
29.7288 748 27.3496
29.8463 712 26.6833
29.9638 737 27.1477
30.0812 684 26.1534
30.1987 728 26.9815
30.3162 691 26.2869
30.4337 666 25.807
30.5512 595 24.3926
30.6687 543 23.3024
30.7862 611 24.7184
30.9037 662 25.7294
31.0212 657 25.632
31.1387 659 25.671
31.2562 681 26.096
31.3737 627 25.04
31.4912 613 24.7588
31.6087 643 25.3574
31.7262 639 25.2784
31.8436 633 25.1595
31.9611 635 25.1992
32.0785 691 26.2869
32.1959 688 26.2298
32.3134 682 26.1151
32.4308 733 27.074
32.5482 684 26.1534
32.6655 692 26.3059
32.7829 707 26.5895
32.9002 712 26.6833
33.0176 714 26.7208
33.1349 673 25.9422
33.2522 708 26.6083
33.3694 711 26.6646
33.4867 713 26.7021
33.6039 690 26.2679
33.7211 658 25.6515
33.8383 734 27.0924
33.9554 674 25.9615
34.0725 645 25.3969
34.1896 571 23.8956
34.3067 584 24.1661
34.4237 578 24.0416
34.5407 586 24.2074
34.6577 594 24.3721
34.7746 601 24.5153
34.8915 623 24.96
35.0084 631 25.1197
35.1252 596 24.4131
35.242 659 25.671
35.3587 617 24.8395
35.4755 584 24.1661
35.5921 654 25.5734
35.7088 676 26
35.8254 665 25.7876
35.9419 698 26.4197
36.0584 654 25.5734
36.1749 658 25.6515
36.2913 686 26.1916
36.4077 599 24.4745
36.524 684 26.1534
36.6403 694 26.3439
36.7565 657 25.632
36.8727 719 26.8142
36.9889 636 25.219
37.1049 660 25.6905
37.221 0 1
37.3369 0 1
37.4529 0 1
37.5687 0 1
37.6845 0 1
37.8003 0 1
37.916 0 1
38.0316 0 1
38.1472 0 1
40.5851 0 1
40.7008 0 1
40.8164 0 1
40.9322 0 1
41.048 0 1
41.1639 0 1
41.2798 0 1
41.3958 0 1
41.5118 0 1
41.6279 0 1
41.744 567 23.8118
41.8602 576 24
41.9765 565 23.7697
42.0928 584 24.1661
42.2091 579 24.0624
42.3255 576 24
42.4419 596 24.4131
42.5584 553 23.516
42.675 626 25.02
42.7915 554 23.5372
42.9081 524 22.891
43.0248 537 23.1733
43.1415 443 21.0476
43.2582 467 21.6102
43.375 511 22.6053
43.4918 492 22.1811
43.6087 509 22.561
43.7256 494 22.2261
43.8425 517 22.7376
43.9595 488 22.0907
44.0765 499 22.3383
44.1935 481 21.9317
44.3106 462 21.4942
44.4277 489 22.1133
44.5448 481 21.9317
44.6619 525 22.9129
44.7791 541 23.2594
44.8963 529 23
45.0136 535 23.1301
45.1308 509 22.561
45.2481 503 22.4277
45.3654 487 22.0681
45.4827 456 21.3542
45.6001 492 22.1811
45.7174 490 22.1359
45.8348 433 20.8087
45.9522 441 21
46.0697 463 21.5174
46.1871 479 21.8861
46.3046 457 21.3776
46.422 434 20.8327
46.5395 410 20.2485
46.657 386 19.6469
46.7745 349 18.6815
46.892 348 18.6548
47.0096 373 19.3132
47.1271 406 20.1494
47.2446 367 19.1572
47.3622 387 19.6723
47.4797 373 19.3132
47.5973 374 19.3391
47.7149 369 19.2094
47.8324 366 19.1311
47.95 372 19.2873
48.0675 381 19.5192
48.1851 417 20.4206
48.3027 400 20
48.4202 405 20.1246
48.5378 400 20
48.6554 377 19.4165
48.7729 366 19.1311
48.8904 389 19.7231
49.008 368 19.1833
49.1255 333 18.2483
49.243 385 19.6214
49.3605 373 19.3132
49.478 373 19.3132
49.5955 394 19.8494
49.713 383 19.5704
49.8304 383 19.5704
49.9479 403 20.0749
50.0653 364 19.0788
50.1827 370 19.2354
50.3001 349 18.6815
50.4175 322 17.9444
50.5348 323 17.9722
50.6521 338 18.3848
50.7694 383 19.5704
50.8867 408 20.199
51.004 414 20.347
51.1212 390 19.7484
51.2384 405 20.1246
51.3556 427 20.664
51.4727 433 20.8087
51.5899 436 20.8806
51.707 441 21
51.824 516 22.7156
51.9411 483 21.9773
52.0581 487 22.0681
52.175 462 21.4942
52.2919 508 22.5389
52.4088 470 21.6795
52.5257 498 22.3159
52.6425 491 22.1585
52.7593 483 21.9773
52.876 516 22.7156
52.9927 482 21.9545
53.1094 531 23.0434
53.226 493 22.2036
53.3426 532 23.0651
53.4591 512 22.6274
53.5756 511 22.6053
53.692 500 22.3607
53.8084 520 22.8035
53.9248 438 20.9284
54.0411 404 20.0998
54.1573 447 21.1424
54.2735 0 1
54.3896 0 1
54.5057 0 1
54.6217 0 1
54.7377 0 1
54.8537 0 1
54.9695 0 1
55.0853 0 1
55.2011 0 1
55.3168 0 1
55.4324 0 1
57.824 0 1
57.9396 0 1
58.0553 0 1
58.1711 0 1
58.2869 0 1
58.4028 0 1
58.5187 0 1
58.6347 0 1
58.7508 0 1
58.8669 0 1
58.983 509 22.561
59.0992 466 21.587
59.2155 507 22.5167
59.3318 465 21.5639
59.4482 516 22.7156
59.5646 517 22.7376
59.681 509 22.561
59.7975 556 23.5797
59.9141 558 23.622
60.0306 577 24.0208
60.1473 552 23.4947
60.2639 584 24.1661
60.3807 557 23.6008
60.4974 572 23.9165
60.6142 573 23.9374
60.731 555 23.5584
60.8479 530 23.0217
60.9648 552 23.4947
61.0818 542 23.2809
61.1987 523 22.8692
61.3158 580 24.0832
61.4328 544 23.3238
61.5499 515 22.6936
61.667 539 23.2164
61.7841 502 22.4054
61.9013 492 22.1811
62.0185 529 23
62.1357 541 23.2594
62.253 506 22.4944
62.3702 470 21.6795
62.4875 469 21.6564
62.6049 473 21.7486
62.7222 447 21.1424
62.8396 443 21.0476
62.9569 467 21.6102
63.0743 474 21.7715
63.1918 468 21.6333
63.3092 458 21.4009
63.4267 454 21.3073
63.5441 494 22.2261
63.6616 516 22.7156
63.7791 499 22.3383
63.8966 461 21.4709
64.0142 502 22.4054
64.1317 490 22.1359
64.2492 482 21.9545
64.3668 473 21.7486
64.4843 502 22.4054
64.6019 430 20.7364
64.7195 476 21.8174
64.837 477 21.8403
64.9546 448 21.166
65.0722 440 20.9762
65.1898 460 21.4476
65.3074 428 20.6882
65.4249 448 21.166
65.5425 439 20.9523
65.6601 459 21.4243
65.7777 513 22.6495
65.8952 484 22
66.0128 450 21.2132
66.1304 415 20.3715
66.2479 416 20.3961
66.3655 383 19.5704
66.483 364 19.0788
66.6005 395 19.8746
66.718 349 18.6815
66.8355 415 20.3715
66.953 419 20.4695
67.0705 433 20.8087
67.1879 424 20.5913
67.3054 467 21.6102
67.4228 478 21.8632
67.5402 416 20.3961
67.6576 407 20.1742
67.7749 423 20.567
67.8923 424 20.5913
68.0096 445 21.095
68.1269 383 19.5704
68.2442 416 20.3961
68.3614 370 19.2354
68.4787 449 21.1896
68.5958 417 20.4206
68.713 396 19.8997
68.8302 421 20.5183
68.9473 465 21.5639
69.0643 406 20.1494
69.1814 446 21.1187
69.2984 381 19.5192
69.4154 412 20.2978
69.5323 411 20.2731
69.6492 428 20.6882
69.7661 405 20.1246
69.8829 402 20.0499
69.9997 339 18.412
70.1165 332 18.2209
70.2332 334 18.2757
70.3499 361 19
70.4665 391 19.7737
70.5831 376 19.3907
70.6996 429 20.7123
70.8161 410 20.2485
70.9326 394 19.8494
71.049 381 19.5192
71.1653 359 18.9473
71.2817 365 19.105
71.3979 383 19.5704
71.5141 378 19.4422
71.6303 324 18
71.7464 322 17.9444
71.8624 0 1
71.9784 0 1
72.0944 0 1
72.2102 0 1
72.3261 0 1
72.4418 0 1
72.5575 0 1
72.6732 0 1
75.1054 0 1
75.2209 0 1
75.3365 0 1
75.4521 0 1
75.5678 0 1
75.6835 0 1
75.7993 0 1
75.9151 0 1
76.031 0 1
76.147 274 16.5529
76.263 304 17.4356
76.3791 291 17.0587
76.4952 311 17.6352
76.6113 298 17.2627
76.7276 315 17.7482
76.8438 284 16.8523
76.9601 269 16.4012
77.0765 294 17.1464
77.1929 293 17.1172
77.3093 249 15.7797
77.4258 274 16.5529
77.5423 255 15.9687
77.6589 271 16.4621
77.7755 252 15.8745
77.8921 245 15.6525
78.0088 281 16.7631
78.1256 246 15.6844
78.2423 273 16.5227
78.3591 247 15.7162
78.4759 273 16.5227
78.5928 251 15.843
78.7097 229 15.1327
78.8266 257 16.0312
78.9436 186 13.6382
79.0606 188 13.7113
79.1776 173 13.1529
79.2946 167 12.9228
79.4117 183 13.5277
79.5288 208 14.4222
79.6459 236 15.3623
79.7631 216 14.6969
79.8802 220 14.8324
79.9974 190 13.784
80.1147 208 14.4222
80.2319 182 13.4907
80.3491 193 13.8924
80.4664 187 13.6748
80.5837 168 12.9615
80.701 165 12.8452
80.8183 158 12.5698
80.9357 172 13.1149
81.053 177 13.3041
81.1704 150 12.2474
81.2877 151 12.2882
81.4051 152 12.3288
81.5225 132 11.4891
81.6399 135 11.619
81.7573 129 11.3578
81.8747 134 11.5758
81.9922 135 11.619
82.1096 124 11.1355
82.227 122 11.0454
82.3444 131 11.4455
82.4619 112 10.583
82.5793 111 10.5357
82.6967 123 11.0905
82.8142 86 9.27362
82.9316 91 9.53939
83.049 86 9.27362
83.1664 90 9.48683
83.2838 96 9.79796
83.4012 91 9.53939
83.5186 96 9.79796
83.636 81 9
83.7534 70 8.3666
83.8708 60 7.74597
83.9881 64 8
84.1055 67 8.18535
84.2228 56 7.48331
84.3401 57 7.54983
84.4575 47 6.85565
84.5747 56 7.48331
84.692 54 7.34847
84.8093 42 6.48074
84.9265 49 7
85.0437 52 7.2111
85.1609 49 7
85.2781 41 6.40312
85.3952 46 6.78233
85.5123 35 5.91608
85.6294 56 7.48331
85.7465 47 6.85565
85.8636 44 6.63325
85.9806 46 6.78233
86.0976 46 6.78233
86.2145 25 5
86.3315 40 6.32456
86.4484 72 8.48528
86.5652 76 8.7178
86.682 67 8.18535
86.7988 73 8.544
86.9156 75 8.66025
87.0323 86 9.27362
87.149 84 9.16515
87.2657 81 9
87.3823 71 8.42615
87.4988 84 9.16515
87.6154 95 9.74679
87.7318 81 9
87.8483 101 10.0499
87.9647 96 9.79796
88.081 125 11.1803
88.1973 122 11.0454
88.3136 111 10.5357
88.4298 119 10.9087
88.546 132 11.4891
88.6621 134 11.5758
88.7781 145 12.0416
88.8942 0 1
89.0101 0 1
89.126 0 1
89.2419 0 1
89.3577 0 1
89.4734 0 1
89.5891 0 1
89.7047 0 1
89.8203 0 1
89.9358 0 1
92.3269 0 1
92.4424 0 1
92.558 0 1
92.6736 0 1
92.7893 0 1
92.905 0 1
93.0208 0 1
93.1366 0 1
93.2525 0 1
93.3685 0 1
93.4845 0 1
93.6005 207 14.3875
93.7167 214 14.6287
93.8328 212 14.5602
93.949 192 13.8564
94.0653 193 13.8924
94.1816 167 12.9228
94.2979 202 14.2127
94.4143 167 12.9228
94.5307 167 12.9228
94.6472 164 12.8062
94.7637 153 12.3693
94.8803 162 12.7279
94.9969 156 12.49
95.1135 135 11.619
95.2302 179 13.3791
95.3469 141 11.8743
95.4637 126 11.225
95.5805 107 10.3441
95.6973 180 13.4164
95.8142 180 13.4164
95.9311 179 13.3791
96.048 189 13.7477
96.1649 208 14.4222
96.2819 192 13.8564
96.3989 207 14.3875
96.516 199 14.1067
96.633 215 14.6629
96.7501 220 14.8324
96.8673 246 15.6844
96.9844 241 15.5242
97.1016 242 15.5563
97.2188 255 15.9687
97.336 259 16.0935
97.4532 243 15.5885
97.5704 247 15.7162
97.6877 242 15.5563
97.805 272 16.4924
97.9223 284 16.8523
98.0396 290 17.0294
98.1569 258 16.0624
98.2743 283 16.8226
98.3916 292 17.088
98.509 279 16.7033
98.6264 314 17.72
98.7438 276 16.6132
98.8612 309 17.5784
98.9786 267 16.3401
99.096 211 14.5258
99.2134 248 15.748
99.3308 323 17.9722
99.4482 355 18.8414
99.5656 343 18.5203
99.6831 369 19.2094
99.8005 354 18.8149
99.9179 397 19.9249
100.035 384 19.5959
100.153 343 18.5203
100.27 362 19.0263
100.388 393 19.8242
100.505 382 19.5448
100.622 410 20.2485
100.74 396 19.8997
100.857 418 20.445
100.975 389 19.7231
101.092 465 21.5639
101.209 447 21.1424
101.327 412 20.2978
101.444 445 21.095
101.561 387 19.6723
101.679 402 20.0499
101.796 479 21.8861
101.913 417 20.4206
102.03 445 21.095
102.148 412 20.2978
102.265 471 21.7025
102.382 435 20.8567
102.499 411 20.2731
102.616 331 18.1934
102.733 255 15.9687
102.851 377 19.4165
102.968 404 20.0998
103.085 403 20.0749
103.202 459 21.4243
103.319 448 21.166
103.436 469 21.6564
103.552 447 21.1424
103.669 441 21
103.786 448 21.166
103.903 430 20.7364
104.02 434 20.8327
104.137 457 21.3776
104.253 443 21.0476
104.37 421 20.5183
104.487 448 21.166
104.603 462 21.4942
104.72 465 21.5639
104.836 433 20.8087
104.953 469 21.6564
105.069 463 21.5174
105.186 421 20.5183
105.302 481 21.9317
105.418 505 22.4722
105.535 475 21.7945
105.651 465 21.5639
105.767 461 21.4709
105.883 412 20.2978
105.999 389 19.7231
106.115 0 1
106.231 0 1
106.347 0 1
106.463 0 1
106.579 0 1
106.694 0 1
106.81 0 1
106.926 0 1
107.041 0 1
107.157 0 1
109.576 0 1
109.692 0 1
109.807 0 1
109.923 0 1
110.039 0 1
110.155 0 1
110.27 0 1
110.386 0 1
110.502 0 1
110.618 349 18.6815
110.735 375 19.3649
110.851 337 18.3576
110.967 344 18.5472
111.083 333 18.2483
111.199 293 17.1172
111.316 271 16.4621
111.432 311 17.6352
111.549 303 17.4069
111.665 314 17.72
111.782 314 17.72
111.898 347 18.6279
112.015 338 18.3848
112.132 306 17.4929
112.248 301 17.3494
112.365 324 18
112.482 340 18.4391
112.599 305 17.4642
112.716 327 18.0831
112.832 294 17.1464
112.949 286 16.9115
113.066 294 17.1464
113.183 286 16.9115
113.3 300 17.3205
113.417 287 16.9411
113.534 272 16.4924
113.652 287 16.9411
113.769 255 15.9687
113.886 261 16.1555
114.003 265 16.2788
114.12 256 16
114.238 285 16.8819
114.355 256 16
114.472 242 15.5563
114.589 229 15.1327
114.707 223 14.9332
114.824 190 13.784
114.942 208 14.4222
115.059 234 15.2971
115.176 244 15.6205
115.294 254 15.9374
115.411 269 16.4012
115.529 257 16.0312
115.646 229 15.1327
115.764 251 15.843
115.881 257 16.0312
115.999 251 15.843
116.116 269 16.4012
116.234 247 15.7162
116.351 241 15.5242
116.469 223 14.9332
116.586 255 15.9687
116.704 226 15.0333
116.821 256 16
116.939 224 14.9666
117.056 214 14.6287
117.174 232 15.2315
117.291 275 16.5831
117.409 233 15.2643
117.526 231 15.1987
117.644 240 15.4919
117.761 246 15.6844
117.879 212 14.5602
117.996 202 14.2127
118.114 189 13.7477
118.231 229 15.1327
118.349 225 15
118.466 239 15.4596
118.584 232 15.2315
118.701 227 15.0665
118.819 271 16.4621
118.936 262 16.1864
119.053 264 16.2481
119.171 258 16.0624
119.288 251 15.843
119.405 244 15.6205
119.523 281 16.7631
119.64 259 16.0935
119.757 251 15.843
119.875 238 15.4272
119.992 265 16.2788
120.109 254 15.9374
120.226 237 15.3948
120.343 269 16.4012
120.46 268 16.3707
120.578 250 15.8114
120.695 237 15.3948
120.812 263 16.2173
120.929 243 15.5885
121.046 275 16.5831
121.163 269 16.4012
121.279 253 15.906
121.396 250 15.8114
121.513 236 15.3623
121.63 210 14.4914
121.747 197 14.0357
121.863 184 13.5647
121.98 204 14.2829
122.097 264 16.2481
122.213 271 16.4621
122.33 243 15.5885
122.446 244 15.6205
122.563 262 16.1864
122.679 261 16.1555
122.795 290 17.0294
122.912 298 17.2627
123.028 304 17.4356
123.144 289 17
123.26 279 16.7033
123.377 0 1
123.493 0 1
123.609 0 1
123.725 0 1
123.84 0 1
123.956 0 1
124.072 0 1
124.188 0 1
124.303 0 1
124.419 0 1
126.852 0 1
126.968 0 1
127.083 0 1
127.199 0 1
127.315 0 1
127.431 0 1
127.547 0 1
127.663 0 1
127.779 0 1
127.895 0 1
128.011 0 1
128.127 0 1
128.243 0 1
128.359 356 18.868
128.476 335 18.303
128.592 362 19.0263
128.708 369 19.2094
128.825 396 19.8997
128.941 370 19.2354
129.058 381 19.5192
129.174 333 18.2483
129.291 349 18.6815
129.408 362 19.0263
129.524 356 18.868
129.641 370 19.2354
129.758 330 18.1659
129.875 370 19.2354
129.992 362 19.0263
130.108 321 17.9165
130.225 348 18.6548
130.342 352 18.7617
130.459 304 17.4356
130.576 288 16.9706
130.693 246 15.6844
130.81 228 15.0997
130.928 264 16.2481
131.045 320 17.8885
131.162 349 18.6815
131.279 382 19.5448
131.396 368 19.1833
131.513 364 19.0788
131.631 416 20.3961
131.748 387 19.6723
131.865 356 18.868
131.983 393 19.8242
132.1 392 19.799
132.217 379 19.4679
132.335 377 19.4165
132.452 400 20
132.57 369 19.2094
132.687 353 18.7883
132.804 373 19.3132
132.922 378 19.4422
133.039 418 20.445
133.157 379 19.4679
133.274 403 20.0749
133.392 391 19.7737
133.509 421 20.5183
133.627 374 19.3391
133.744 391 19.7737
133.862 346 18.6011
133.979 335 18.303
134.097 325 18.0278
134.214 316 17.7764
134.332 267 16.3401
134.449 315 17.7482
134.567 305 17.4642
134.684 346 18.6011
134.802 397 19.9249
134.919 390 19.7484
135.037 425 20.6155
135.154 471 21.7025
135.272 416 20.3961
135.389 423 20.567
135.507 425 20.6155
135.624 418 20.445
135.742 439 20.9523
135.859 514 22.6716
135.977 403 20.0749
136.094 482 21.9545
136.211 420 20.4939
136.329 408 20.199
136.446 451 21.2368
136.564 424 20.5913
136.681 429 20.7123
136.798 424 20.5913
136.915 451 21.2368
137.033 460 21.4476
137.15 457 21.3776
137.267 460 21.4476
137.384 413 20.3224
137.502 412 20.2978
137.619 395 19.8746
137.736 323 17.9722
137.853 351 18.735
137.97 318 17.8326
138.087 346 18.6011
138.204 365 19.105
138.321 389 19.7231
138.438 380 19.4936
138.555 436 20.8806
138.672 431 20.7605
138.788 476 21.8174
138.905 472 21.7256
139.022 469 21.6564
139.139 478 21.8632
139.255 490 22.1359
139.372 505 22.4722
139.488 519 22.7816
139.605 486 22.0454
139.721 504 22.4499
139.838 516 22.7156
139.954 462 21.4942
140.071 497 22.2935
140.187 483 21.9773
140.303 457 21.3776
140.419 488 22.0907
140.535 470 21.6795
140.652 518 22.7596
140.768 0 1
140.884 0 1
141 0 1
141.115 0 1
141.231 0 1
141.347 0 1
141.463 0 1
141.578 0 1
141.694 0 1
144.104 0 1
144.219 0 1
144.335 0 1
144.45 0 1
144.566 0 1
144.682 0 1
144.798 0 1
144.914 0 1
145.03 0 1
145.146 418 20.445
145.262 473 21.7486
145.378 441 21
145.494 481 21.9317
145.61 449 21.1896
145.726 512 22.6274
145.842 450 21.2132
145.959 422 20.5426
146.075 409 20.2237
146.192 387 19.6723
146.308 372 19.2873
146.425 347 18.6279
146.541 347 18.6279
146.658 357 18.8944
146.774 375 19.3649
146.891 405 20.1246
147.008 382 19.5448
147.125 430 20.7364
147.241 437 20.9045
147.358 469 21.6564
147.475 444 21.0713
147.592 502 22.4054
147.709 436 20.8806
147.826 434 20.8327
147.943 456 21.3542
148.06 492 22.1811
148.177 423 20.567
148.294 453 21.2838
148.411 442 21.0238
148.528 441 21
148.645 476 21.8174
148.762 503 22.4277
148.88 425 20.6155
148.997 446 21.1187
149.114 486 22.0454
149.231 424 20.5913
149.349 425 20.6155
149.466 418 20.445
149.583 423 20.567
149.701 402 20.0499
149.818 434 20.8327
149.935 372 19.2873
150.053 368 19.1833
150.17 361 19
150.287 363 19.0526
150.405 386 19.6469
150.522 370 19.2354
150.64 401 20.025
150.757 411 20.2731
150.875 411 20.2731
150.992 433 20.8087
151.11 431 20.7605
151.227 478 21.8632
151.344 455 21.3307
151.462 443 21.0476
151.579 446 21.1187
151.697 484 22
151.814 428 20.6882
151.932 495 22.2486
152.049 467 21.6102
152.167 490 22.1359
152.284 469 21.6564
152.402 449 21.1896
152.519 449 21.1896
152.636 474 21.7715
152.754 486 22.0454
152.871 438 20.9284
152.989 471 21.7025
153.106 458 21.4009
153.223 396 19.8997
153.341 399 19.975
153.458 401 20.025
153.575 418 20.445
153.693 409 20.2237
153.81 420 20.4939
153.927 392 19.799
154.044 368 19.1833
154.162 432 20.7846
154.279 403 20.0749
154.396 432 20.7846
154.513 471 21.7025
154.63 463 21.5174
154.747 483 21.9773
154.864 461 21.4709
154.981 514 22.6716
155.098 496 22.2711
155.215 483 21.9773
155.332 463 21.5174
155.449 486 22.0454
155.566 476 21.8174
155.683 504 22.4499
155.8 501 22.383
155.917 516 22.7156
156.033 461 21.4709
156.15 0 1
156.267 0 1
156.383 0 1
156.5 0 1
156.617 0 1
156.733 0 1
156.85 0 1
156.966 0 1
157.082 0 1
157.199 0 1
157.315 0 1
157.431 0 1
157.547 0 1
157.664 0 1
157.78 0 1
157.896 0 1
158.012 0 1
158.128 0 1
158.244 0 1
158.359 0 1
158.475 0 1
158.591 0 1
158.706 0 1
