
6.15755 0 1
6.2731 0 1
6.3887 0 1
6.50437 0 1
6.62009 0 1
6.73587 0 1
6.8517 0 1
6.96759 0 1
7.08353 0 1
7.19952 0 1
7.31557 0 1
7.43166 0 1
7.54781 0 1
7.664 0 1
7.78024 0 1
7.89653 0 1
8.01286 0 1
8.12924 0 1
8.24567 0 1
8.36213 0 1
8.47864 0 1
8.59519 0 1
8.71178 0 1
8.82841 0 1
8.94508 0 1
9.06179 0 1
9.17853 0 1
9.29531 0 1
9.41212 0 1
9.52897 0 1
9.64584 0 1
9.76276 0 1
9.8797 0 1
9.99667 0 1
10.1137 0 1
10.2307 0 1
10.3478 0 1
10.4648 0 1
10.5819 0 1
10.6991 0 1
10.8162 0 1
10.9334 0 1
11.0506 0 1
11.1678 0 1
11.285 0 1
11.4023 0 1
11.5196 0 1
11.6369 0 1
11.7542 0 1
11.8715 0 1
11.9888 0 1
12.1062 0 1
12.2235 0 1
12.3409 0 1
12.4582 0 1
12.5756 0 1
12.693 0 1
12.8104 0 1
12.9278 0 1
13.0452 0 1
13.1626 0 1
13.28 0 1
13.3974 0 1
13.5149 0 1
13.6323 0 1
13.7497 0 1
13.8671 0 1
13.9845 0 1
14.1019 0 1
14.2193 0 1
14.3367 0 1
14.4541 0 1
14.5714 0 1
14.6888 0 1
14.8062 0 1
14.9235 0 1
15.0408 0 0
15.1581 0 0
15.2755 0 0
15.3927 0 0
15.51 0 0
15.6273 0 0
15.7445 0 0
15.8617 0 0
15.9789 0 0
16.0961 0 0
16.2132 0 0
16.3304 0 0
16.4475 0 0
16.5646 0 0
16.6816 0 0
16.7986 0 0
16.9156 0 0
17.0326 0 0
17.1496 0 0
17.2665 0 0
17.3833 0 0
17.5002 0 0
17.617 0 0
17.7338 0 0
17.8505 0 0
17.9672 0 0
18.0839 0 0
18.2005 0 0
18.3171 0 0
18.4337 0 0
18.5502 0 0
18.6666 0 0
18.7831 0 0
18.8994 0 0
19.0158 0 0
19.1321 0 0
19.2483 0 0
19.3645 0 0
19.4806 0 0
19.5967 0 0
19.7128 0 0
19.8288 0 0
19.9447 0 0
20.0606 0 1
20.1764 0 1
20.2922 0 1
20.4079 0 1
20.5236 0 1
20.6392 0 1
20.7548 0 1
20.8702 0 1
23.3078 0 1
23.4233 0 1
23.539 0 1
23.6547 0 1
23.7704 0 1
23.8862 0 1
24.0021 0 1
24.118 0 1
24.234 0 1
24.35 0 1
24.4661 159047 398.807
24.5822 160907 401.132
24.6984 161429 401.782
24.8146 164784 405.936
24.9309 170013 412.326
25.0472 174873 418.178
25.1636 180034 424.304
25.28 181540 426.075
25.3965 184680 429.744
25.513 184578 429.625
25.6296 188020 433.613
25.7462 190400 436.348
25.8628 188636 434.322
25.9795 189230 435.006
26.0962 189141 434.903
26.213 191193 437.256
26.3298 188530 434.2
26.4466 189007 434.749
26.5635 187684 433.225
26.6804 185008 430.126
26.7973 179599 423.791
26.9143 176570 420.202
27.0313 173204 416.178
27.1483 173735 416.815
27.2653 175050 418.39
27.3824 176560 420.19
27.4996 174423 417.64
27.6167 173318 416.315
27.7339 166348 407.858
27.8511 160677 400.845
27.9683 157072 396.323
28.0855 154904 393.578
28.2028 157170 396.447
28.3201 156186 395.204
28.4374 164137 405.138
28.5547 169292 411.451
28.6721 174747 418.028
28.7894 178805 422.853
28.9068 180468 424.815
29.0242 180687 425.073
29.1416 180941 425.372
29.259 180730 425.124
29.3764 181766 426.34
29.4939 181291 425.783
29.6113 181506 426.035
29.7288 181159 425.628
29.8463 180919 425.346
29.9638 180955 425.388
30.0812 179633 423.831
30.1987 177768 421.625
30.3162 173642 416.704
30.4337 169326 411.492
30.5512 165542 406.869
30.6687 163577 404.447
30.7862 167735 409.555
30.9037 167387 409.13
31.0212 170081 412.409
31.1387 169583 411.805
31.2562 166379 407.896
31.3737 162229 402.777
31.4912 158416 398.015
31.6087 158354 397.937
31.7262 159180 398.974
31.8436 163833 404.763
31.9611 171514 414.142
32.0785 177429 421.223
32.1959 184333 429.34
32.3134 187605 433.134
32.4308 189945 435.827
32.5482 192282 438.5
32.6655 193492 439.877
32.7829 193051 439.376
32.9002 195365 442.001
33.0176 195228 441.846
33.1349 197085 443.943
33.2522 197328 444.216
33.3694 198789 445.858
33.4867 198535 445.573
33.6039 199955 447.163
33.7211 198778 445.845
33.8383 196928 443.766
33.9554 193872 440.309
34.0725 186527 431.888
34.1896 182109 426.742
34.3067 179276 423.41
34.4237 179025 423.113
34.5407 178910 422.978
34.6577 181979 426.59
34.7746 179495 423.669
34.8915 176955 420.66
35.0084 169089 411.204
35.1252 166025 407.462
35.242 162323 402.893
35.3587 165044 406.256
35.4755 166633 408.207
35.5921 171732 414.406
35.7088 176928 420.628
35.8254 181313 425.809
35.9419 183614 428.502
36.0584 183268 428.098
36.1749 181801 426.381
36.2913 182147 426.787
36.4077 181218 425.697
36.524 179502 423.677
36.6403 178147 422.075
36.7565 177457 421.256
36.8727 177107 420.841
36.9889 174922 418.237
37.1049 171643 414.298
37.221 0 1
37.3369 0 1
37.4529 0 1
37.5687 0 1
37.6845 0 1
37.8003 0 1
37.916 0 1
38.0316 0 1
38.1472 0 1
40.5851 0 1
40.7008 0 1
40.8164 0 1
40.9322 0 1
41.048 0 1
41.1639 0 1
41.2798 0 1
41.3958 0 1
41.5118 0 1
41.6279 0 1
41.744 137097 370.266
41.8602 141486 376.146
41.9765 141284 375.878
42.0928 142235 377.141
42.2091 141710 376.444
42.3255 142785 377.869
42.4419 141516 376.186
42.5584 142126 376.996
42.675 141005 375.506
42.7915 138059 371.563
42.9081 133758 365.729
43.0248 130013 360.573
43.1415 127740 357.407
43.2582 126891 356.218
43.375 128211 358.066
43.4918 130811 361.678
43.6087 128576 358.575
43.7256 124937 353.464
43.8425 120102 346.557
43.9595 115035 339.168
44.0765 114451 338.306
44.1935 116665 341.563
44.3106 120037 346.464
44.4277 123866 351.946
44.5448 125128 353.734
44.6619 125534 354.308
44.7791 125774 354.646
44.8963 124557 352.926
45.0136 122907 350.581
45.1308 122272 349.674
45.2481 121044 347.914
45.3654 119494 345.679
45.4827 119427 345.582
45.6001 117887 343.347
45.7174 117042 342.114
45.8348 115869 340.395
45.9522 115454 339.785
46.0697 114130 337.831
46.1871 113679 337.163
46.3046 110641 332.627
46.422 107586 328.003
46.5395 104364 323.054
46.657 99846 315.984
46.7745 97284 311.904
46.892 96291 310.308
47.0096 97396 312.083
47.1271 98837 314.384
47.2446 96837 311.186
47.3622 93003 304.964
47.4797 89041 298.397
47.5973 87200 295.296
47.7149 87187 295.274
47.8324 89615 299.358
47.95 92227 303.689
48.0675 93834 306.323
48.1851 94485 307.384
48.3027 93567 305.887
48.4202 93416 305.64
48.5378 93287 305.429
48.6554 93218 305.316
48.7729 93460 305.712
48.8904 93576 305.902
49.008 94320 307.116
49.1255 94882 308.029
49.243 95776 309.477
49.3605 96138 310.061
49.478 96962 311.387
49.5955 98681 314.135
49.713 99021 314.676
49.8304 100524 317.055
49.9479 99813 315.932
50.0653 98499 313.846
50.1827 96210 310.177
50.3001 93100 305.123
50.4175 93383 305.586
50.5348 94547 307.485
50.6521 101367 318.382
50.7694 104162 322.741
50.8867 104552 323.345
51.004 104264 322.899
51.1212 105954 325.506
51.2384 111691 334.202
51.3556 118252 343.878
51.4727 124076 352.244
51.5899 127419 356.958
51.707 130201 360.834
51.824 132569 364.1
51.9411 133621 365.542
52.0581 134448 366.672
52.175 137189 370.39
52.2919 137280 370.513
52.4088 139635 373.678
52.5257 141325 375.932
52.6425 142512 377.508
52.7593 142726 377.791
52.876 144278 379.839
52.9927 146262 382.442
53.1094 146883 383.253
53.226 148357 385.171
53.3426 149942 387.223
53.4591 151010 388.6
53.5756 150094 387.42
53.692 148065 384.792
53.8084 142241 377.149
53.9248 137336 370.589
54.0411 134671 366.975
54.1573 136439 369.377
54.2735 0 1
54.3896 0 1
54.5057 0 1
54.6217 0 1
54.7377 0 1
54.8537 0 1
54.9695 0 1
55.0853 0 1
55.2011 0 1
55.3168 0 1
55.4324 0 1
57.824 0 1
57.9396 0 1
58.0553 0 1
58.1711 0 1
58.2869 0 1
58.4028 0 1
58.5187 0 1
58.6347 0 1
58.7508 0 1
58.8669 0 1
58.983 162966 403.69
59.0992 160367 400.458
59.2155 157288 396.596
59.3318 157603 396.992
59.4482 159219 399.023
59.5646 161806 402.251
59.681 163728 404.633
59.7975 166795 408.405
59.9141 170431 412.833
60.0306 174992 418.32
60.1473 178034 421.941
60.2639 176492 420.11
60.3807 175718 419.187
60.4974 175814 419.302
60.6142 175626 419.078
60.731 173687 416.758
60.8479 173910 417.025
60.9648 172546 415.387
61.0818 172726 415.603
61.1987 171172 413.729
61.3158 171116 413.662
61.4328 170165 412.511
61.5499 168879 410.949
61.667 168637 410.654
61.7841 169221 411.365
61.9013 168919 410.998
62.0185 168535 410.53
62.1357 166524 408.074
62.253 163569 404.437
62.3702 159846 399.807
62.4875 153743 392.101
62.6049 148815 385.765
62.7222 148152 384.905
62.8396 149963 387.251
62.9569 151744 389.543
63.0743 150785 388.31
63.1918 152788 390.881
63.3092 155947 394.901
63.4267 160196 400.245
63.5441 163473 404.318
63.6616 163701 404.6
63.7791 161762 402.196
63.8966 162290 402.852
64.0142 161100 401.373
64.1317 160912 401.138
64.2492 158908 398.633
64.3668 158338 397.917
64.4843 157238 396.532
64.6019 157046 396.29
64.7195 157045 396.289
64.837 156236 395.267
64.9546 156329 395.385
65.0722 155092 393.817
65.1898 153782 392.15
65.3074 156096 395.09
65.4249 154254 392.752
65.5425 155096 393.822
65.6601 154695 393.313
65.7777 153950 392.365
65.8952 152098 389.997
66.0128 146722 383.043
66.1304 139262 373.178
66.2479 133638 365.565
66.3655 133235 365.014
66.483 137039 370.188
66.6005 140196 374.428
66.718 141872 376.659
66.8355 146325 382.525
66.953 152084 389.979
67.0705 154321 392.837
67.1879 154173 392.649
67.3054 154148 392.617
67.4228 154168 392.642
67.5402 152443 390.439
67.6576 153802 392.176
67.7749 150492 387.933
67.8923 154880 393.548
68.0096 152972 391.116
68.1269 153533 391.833
68.2442 153927 392.335
68.3614 153504 391.796
68.4787 152881 391
68.5958 154140 392.607
68.713 153619 391.943
68.8302 154338 392.859
68.9473 154073 392.521
69.0643 155347 394.141
69.1814 155396 394.203
69.2984 156741 395.905
69.4154 156917 396.128
69.5323 157303 396.614
69.6492 155758 394.662
69.7661 149926 387.203
69.8829 139808 373.909
69.9997 136841 369.92
70.1165 139348 373.293
70.2332 144293 379.859
70.3499 146662 382.965
70.4665 152108 390.01
70.5831 156879 396.08
70.6996 159445 399.306
70.8161 158772 398.462
70.9326 159267 399.083
71.049 157685 397.096
71.1653 156948 396.167
71.2817 154351 392.875
71.3979 151375 389.069
71.5141 150528 387.979
71.6303 146865 383.23
71.7464 135807 368.52
71.8624 0 1
71.9784 0 1
72.0944 0 1
72.2102 0 1
72.3261 0 1
72.4418 0 1
72.5575 0 1
72.6732 0 1
75.1054 0 1
75.2209 0 1
75.3365 0 1
75.4521 0 1
75.5678 0 1
75.6835 0 1
75.7993 0 1
75.9151 0 1
76.031 0 1
76.147 132451 363.938
76.263 142463 377.443
76.3791 146729 383.052
76.4952 145409 381.325
76.6113 145091 380.908
76.7276 145877 381.938
76.8438 143887 379.324
76.9601 141954 376.768
77.0765 143237 378.467
77.1929 143349 378.615
77.3093 143252 378.486
77.4258 142073 376.926
77.5423 141404 376.037
77.6589 140094 374.291
77.7755 139997 374.162
77.8921 139142 373.017
78.0088 139343 373.287
78.1256 136891 369.988
78.2423 137382 370.651
78.3591 136827 369.901
78.4759 136127 368.954
78.5928 135446 368.03
78.7097 135158 367.638
78.8266 135030 367.464
78.9436 110400 332.265
79.0606 95963 309.779
79.1776 91605 302.663
79.2946 107611 328.041
79.4117 122838 350.483
79.5288 129442 359.78
79.6459 130337 361.022
79.7631 129122 359.335
79.8802 127285 356.77
79.9974 126774 356.053
80.1147 124827 353.309
80.2319 124240 352.477
80.3491 122392 349.846
80.4664 123149 350.926
80.5837 120743 347.481
80.701 119686 345.957
80.8183 119292 345.387
80.9357 117907 343.376
81.053 118636 344.436
81.1704 116415 341.196
81.2877 116423 341.208
81.4051 115304 339.564
81.5225 114955 339.05
81.6399 110194 331.955
81.7573 111950 334.589
81.8747 109021 330.183
81.9922 108511 329.41
82.1096 108668 329.648
82.227 107294 327.558
82.3444 105573 324.92
82.4619 104970 323.991
82.5793 96238 310.223
82.6967 82804 287.757
82.8142 69994 264.564
82.9316 83121 288.307
83.049 94614 307.594
83.1664 97668 312.519
83.2838 97459 312.184
83.4012 95327 308.751
83.5186 93937 306.491
83.636 92153 303.567
83.7534 90733 301.219
83.8708 88456 297.416
83.9881 87654 296.064
84.1055 86480 294.075
84.2228 84162 290.107
84.3401 83802 289.486
84.4575 82494 287.218
84.5747 82873 287.877
84.692 82018 286.388
84.8093 81367 285.249
84.9265 80085 282.993
85.0437 78201 279.644
85.1609 76766 277.067
85.2781 75577 274.913
85.3952 74310 272.599
85.5123 73070 270.315
85.6294 72187 268.676
85.7465 71784 267.925
85.8636 70035 264.641
85.9806 69429 263.494
86.0976 66784 258.426
86.2145 59735 244.407
86.3315 45352 212.96
86.4484 47851 218.749
86.5652 57982 240.795
86.682 61023 247.028
86.7988 59641 244.215
86.9156 58190 241.226
87.0323 55131 234.8
87.149 53205 230.662
87.2657 50688 225.14
87.3823 48700 220.681
87.4988 46628 215.935
87.6154 44563 211.1
87.7318 42271 205.599
87.8483 40209 200.522
87.9647 38774 196.911
88.081 37163 192.777
88.1973 36571 191.235
88.3136 35772 189.135
88.4298 34072 184.586
88.546 32597 180.546
88.6621 32078 179.103
88.7781 31432 177.291
88.8942 0 1
89.0101 0 1
89.126 0 1
89.2419 0 1
89.3577 0 1
89.4734 0 1
89.5891 0 1
89.7047 0 1
89.8203 0 1
89.9358 0 1
92.3269 0 1
92.4424 0 1
92.558 0 1
92.6736 0 1
92.7893 0 1
92.905 0 1
93.0208 0 1
93.1366 0 1
93.2525 0 1
93.3685 0 1
93.4845 0 1
93.6005 78385 279.973
93.7167 81359 285.235
93.8328 83050 288.184
93.949 84819 291.237
94.0653 85897 293.082
94.1816 87180 295.263
94.2979 87806 296.321
94.4143 89368 298.945
94.5307 90608 301.012
94.6472 91763 302.924
94.7637 92490 304.122
94.8803 95580 309.16
94.9969 96778 311.092
95.1135 97887 312.869
95.2302 96341 310.388
95.3469 91192 301.98
95.4637 79890 282.648
95.5805 75329 274.461
95.6973 91082 301.798
95.8142 107182 327.387
95.9311 111443 333.831
96.048 112847 335.927
96.1649 114628 338.568
96.2819 115232 339.458
96.3989 116081 340.707
96.516 115811 340.31
96.633 116704 341.62
96.7501 117620 342.958
96.8673 118798 344.671
96.9844 118355 344.028
97.1016 119152 345.184
97.2188 118973 344.925
97.336 121017 347.875
97.4532 120762 347.508
97.5704 121429 348.467
97.6877 120569 347.23
97.805 120383 346.963
97.9223 120146 346.621
98.0396 119834 346.17
98.1569 120005 346.417
98.2743 119634 345.881
98.3916 119698 345.974
98.509 119528 345.728
98.6264 119665 345.926
98.7438 119510 345.702
98.8612 116246 340.949
98.9786 110488 332.397
99.096 96251 310.243
99.2134 89052 298.416
99.3308 101726 318.945
99.4482 119158 345.193
99.5656 125834 354.731
99.6831 127345 356.854
99.8005 127772 357.452
99.9179 127636 357.262
100.035 129273 359.546
100.153 129378 359.692
100.27 129056 359.244
100.388 130559 361.329
100.505 130423 361.141
100.622 131302 362.356
100.74 131968 363.274
100.857 134144 366.257
100.975 134846 367.214
101.092 135075 367.526
101.209 135839 368.563
101.327 135758 368.454
101.444 136529 369.498
101.561 136956 370.076
101.679 137965 371.436
101.796 136944 370.059
101.913 138035 371.531
102.03 137556 370.885
102.148 136479 369.431
102.265 142709 377.768
102.382 127424 356.965
102.499 122868 350.525
102.616 108455 329.325
102.733 104645 323.489
102.851 111196 333.461
102.968 124323 352.595
103.085 131922 363.211
103.202 132363 363.817
103.319 131302 362.356
103.436 129850 360.347
103.552 128664 358.698
103.669 126341 355.445
103.786 124224 352.454
103.903 123026 350.751
104.02 122331 349.758
104.137 119633 345.88
104.253 121208 348.149
104.37 116154 340.814
104.487 117160 342.286
104.603 116450 341.248
104.72 114501 338.38
104.836 113018 336.181
104.953 111978 334.631
105.069 109748 331.282
105.186 109432 330.805
105.302 108245 329.006
105.418 106858 326.891
105.535 105040 324.099
105.651 103094 321.083
105.767 101948 319.293
105.883 100731 317.381
105.999 93625 305.982
106.115 0 1
106.231 0 1
106.347 0 1
106.463 0 1
106.579 0 1
106.694 0 1
106.81 0 1
106.926 0 1
107.041 0 1
107.157 0 1
109.576 0 1
109.692 0 1
109.807 0 1
109.923 0 1
110.039 0 1
110.155 0 1
110.27 0 1
110.386 0 1
110.502 0 1
110.618 55076 234.683
110.735 55935 236.506
110.851 55322 235.206
110.967 54897 234.301
111.083 55529 235.646
111.199 53848 232.052
111.316 51142 226.146
111.432 49188 221.784
111.549 49404 222.27
111.665 50758 225.295
111.782 51076 226
111.898 50880 225.566
112.015 49755 223.058
112.132 49170 221.743
112.248 48667 220.606
112.365 47675 218.346
112.482 47310 217.509
112.599 45832 214.084
112.716 46017 214.516
112.832 45734 213.855
112.949 45642 213.64
113.066 45405 213.084
113.183 45055 212.262
113.3 44726 211.485
113.417 44550 211.069
113.534 44529 211.019
113.652 44413 210.744
113.769 45327 212.901
113.886 45164 212.518
114.003 44854 211.788
114.12 44192 210.219
114.238 40854 202.124
114.355 35483 188.369
114.472 34368 185.386
114.589 38990 197.459
114.707 45005 212.144
114.824 47926 218.92
114.942 48959 221.267
115.059 48111 219.342
115.176 47294 217.472
115.294 49064 221.504
115.411 49697 222.928
115.529 49523 222.538
115.646 49878 223.334
115.764 50070 223.763
115.881 50574 224.887
115.999 50455 224.622
116.116 51276 226.442
116.234 51570 227.09
116.351 51700 227.376
116.469 52586 229.316
116.586 53016 230.252
116.704 53498 231.296
116.821 53598 231.512
116.939 55109 234.753
117.056 55224 234.998
117.174 55753 236.121
117.291 57136 239.031
117.409 57874 240.57
117.526 58251 241.352
117.644 58444 241.752
117.761 55896 236.423
117.879 49278 221.986
117.996 41052 202.613
118.114 39019 197.532
118.231 47269 217.414
118.349 57778 240.371
118.466 63900 252.784
118.584 66529 257.932
118.701 66850 258.554
118.819 65624 256.172
118.936 65757 256.431
119.053 67660 260.115
119.171 68508 261.74
119.288 68648 262.008
119.405 68854 262.4
119.523 69752 264.106
119.64 70664 265.827
119.757 70334 265.206
119.875 70112 264.787
119.992 70101 264.766
120.109 71234 266.897
120.226 71832 268.015
120.343 71875 268.095
120.46 72805 269.824
120.578 73248 270.644
120.695 73980 271.993
120.812 75360 274.518
120.929 75307 274.421
121.046 76780 277.092
121.163 77432 278.266
121.279 75716 275.165
121.396 72777 269.772
121.513 66101 257.101
121.63 57687 240.181
121.747 49628 222.773
121.863 49394 222.248
121.98 59526 243.98
122.097 72399 269.071
122.213 80432 283.605
122.33 83593 289.125
122.446 84271 290.295
122.563 83371 288.74
122.679 82820 287.785
122.795 84071 289.95
122.912 86026 293.302
123.028 85871 293.038
123.144 85648 292.657
123.26 86232 293.653
123.377 0 1
123.493 0 1
123.609 0 1
123.725 0 1
123.84 0 1
123.956 0 1
124.072 0 1
124.188 0 1
124.303 0 1
124.419 0 1
126.852 0 1
126.968 0 1
127.083 0 1
127.199 0 1
127.315 0 1
127.431 0 1
127.547 0 1
127.663 0 1
127.779 0 1
127.895 0 1
128.011 0 1
128.127 0 1
128.243 0 1
128.359 110311 332.131
128.476 110486 332.394
128.592 110620 332.596
128.708 111591 334.052
128.825 112384 335.237
128.941 112892 335.994
129.058 112987 336.135
129.174 112924 336.042
129.291 113134 336.354
129.408 113893 337.48
129.524 113802 337.346
129.641 114213 337.954
129.758 115400 339.706
129.875 116096 340.729
129.992 116388 341.157
130.108 113861 337.433
130.225 109651 331.136
130.342 101801 319.063
130.459 89536 299.226
130.576 84785 291.179
130.693 78120 279.5
130.81 79241 281.498
130.928 84617 290.89
131.045 96863 311.228
131.162 112182 334.936
131.279 119645 345.897
131.396 120673 347.38
131.513 121839 349.054
131.631 121938 349.196
131.748 122819 350.455
131.865 121749 348.925
131.983 122040 349.342
132.1 122651 350.216
132.217 123723 351.743
132.335 123031 350.758
132.452 122790 350.414
132.57 123081 350.829
132.687 119005 344.971
132.804 127194 356.643
132.922 123521 351.456
133.039 123987 352.118
133.157 124025 352.172
133.274 124764 353.219
133.392 124717 353.153
133.509 123632 351.613
133.627 123209 351.011
133.744 118069 343.612
133.862 111119 333.345
133.979 103806 322.189
134.097 95121 308.417
134.214 91743 302.891
134.332 88243 297.057
134.449 93886 306.408
134.567 100167 316.492
134.684 109008 330.164
134.802 121242 348.198
134.919 127678 357.321
135.037 129547 359.926
135.154 130432 361.154
135.272 130516 361.27
135.389 130051 360.626
135.507 130690 361.511
135.624 131109 362.09
135.742 130361 361.055
135.859 131037 361.99
135.977 130158 360.774
136.094 131339 362.407
136.211 130628 361.425
136.329 130661 361.471
136.446 131059 362.021
136.564 131576 362.734
136.681 132914 364.574
136.798 131041 361.996
136.915 133091 364.816
137.033 132098 363.453
137.15 131075 362.043
137.267 128289 358.175
137.384 122335 349.764
137.502 114813 338.841
137.619 106769 326.755
137.736 100655 317.262
137.853 96096 309.994
137.97 95528 309.076
138.087 104309 322.969
138.204 107136 327.316
138.321 114803 338.826
138.438 123527 351.464
138.555 131796 363.037
138.672 135851 368.58
138.788 136412 369.34
138.905 136999 370.134
139.022 137585 370.925
139.139 138814 372.578
139.255 138713 372.442
139.372 137661 371.027
139.488 137203 370.409
139.605 137112 370.286
139.721 137772 371.177
139.838 138646 372.352
139.954 136977 370.104
140.071 135700 368.375
140.187 138014 371.502
140.303 136794 369.857
140.419 137422 370.705
140.535 136338 369.24
140.652 136211 369.068
140.768 0 1
140.884 0 1
141 0 1
141.115 0 1
141.231 0 1
141.347 0 1
141.463 0 1
141.578 0 1
141.694 0 1
144.104 0 1
144.219 0 1
144.335 0 1
144.45 0 1
144.566 0 1
144.682 0 1
144.798 0 1
144.914 0 1
145.03 0 1
145.146 125310 353.992
145.262 126756 356.028
145.378 126770 356.048
145.494 126529 355.709
145.61 126387 355.509
145.726 125651 354.473
145.842 121972 349.245
145.959 117243 342.408
146.075 111520 333.946
146.192 105258 324.435
146.308 100044 316.297
146.425 97456 312.179
146.541 97261 311.867
146.658 99326 315.16
146.774 102936 320.836
146.891 108231 328.985
147.008 113449 336.822
147.125 117540 342.841
147.241 121746 348.921
147.358 125403 354.123
147.475 126894 356.222
147.592 127422 356.962
147.709 126277 355.355
147.826 125538 354.313
147.943 126186 355.227
148.06 123510 351.44
148.177 125029 353.594
148.294 125274 353.941
148.411 124175 352.385
148.528 124360 352.647
148.645 122915 350.592
148.762 123730 351.753
148.88 123979 352.107
148.997 118594 344.375
149.114 127052 356.444
149.231 122494 349.991
149.349 121840 349.056
149.466 117283 342.466
149.583 113034 336.205
149.701 107736 328.232
149.818 102354 319.928
149.935 98073 313.166
150.053 96803 311.132
150.17 97396 312.083
150.287 99882 316.041
150.405 103072 321.048
150.522 108712 329.715
150.64 113036 336.208
150.757 116486 341.3
150.875 117606 342.937
150.992 120108 346.566
151.11 121573 348.673
151.227 125305 353.984
151.344 123677 351.677
151.462 123603 351.572
151.579 124846 353.336
151.697 125057 353.634
151.814 125007 353.563
151.932 124065 352.229
152.049 124417 352.728
152.167 124454 352.78
152.284 125114 353.715
152.402 124600 352.987
152.519 124924 353.446
152.636 124539 352.901
152.754 124873 353.374
152.871 123883 351.97
152.989 121570 348.669
153.106 117566 342.879
153.223 113502 336.901
153.341 108207 328.948
153.458 103635 321.924
153.575 100809 317.504
153.693 100081 316.356
153.81 101729 318.95
153.927 104870 323.836
154.044 108205 328.945
154.162 114511 338.395
154.279 119479 345.657
154.396 123365 351.234
154.513 125796 354.677
154.63 125876 354.79
154.747 127869 357.588
154.864 128718 358.773
154.981 130191 360.82
155.098 130273 360.934
155.215 130009 360.568
155.332 129220 359.472
155.449 128710 358.762
155.566 129602 360.003
155.683 129333 359.629
155.8 129924 360.45
155.917 129526 359.897
156.033 130104 360.699
156.15 0 1
156.267 0 1
156.383 0 1
156.5 0 1
156.617 0 1
156.733 0 1
156.85 0 1
156.966 0 1
157.082 0 1
157.199 0 1
157.315 0 1
157.431 0 1
157.547 0 1
157.664 0 1
157.78 0 1
157.896 0 1
158.012 0 1
158.128 0 1
158.244 0 1
158.359 0 1
158.475 0 1
158.591 0 1
158.706 0 1
