
6.15755 0 1
6.2731 0 1
6.3887 0 1
6.50437 0 1
6.62009 0 1
6.73587 0 1
6.8517 0 1
6.96759 0 1
7.08353 0 1
7.19952 0 1
7.31557 0 1
7.43166 0 1
7.54781 0 1
7.664 0 1
7.78024 0 1
7.89653 0 1
8.01286 0 1
8.12924 0 1
8.24567 0 1
8.36213 0 1
8.47864 0 1
8.59519 0 1
8.71178 0 1
8.82841 0 1
8.94508 0 1
9.06179 0 1
9.17853 0 1
9.29531 0 1
9.41212 0 1
9.52897 0 1
9.64584 0 1
9.76276 0 1
9.8797 0 1
9.99667 0 1
10.1137 0 1
10.2307 0 1
10.3478 0 1
10.4648 0 1
10.5819 0 1
10.6991 0 1
10.8162 0 1
10.9334 0 1
11.0506 0 1
11.1678 0 1
11.285 0 1
11.4023 0 1
11.5196 0 1
11.6369 0 1
11.7542 0 1
11.8715 0 1
11.9888 0 1
12.1062 0 1
12.2235 0 1
12.3409 0 1
12.4582 0 1
12.5756 0 1
12.693 0 1
12.8104 0 1
12.9278 0 1
13.0452 0 1
13.1626 0 1
13.28 0 1
13.3974 0 1
13.5149 0 1
13.6323 0 1
13.7497 0 1
13.8671 0 1
13.9845 0 1
14.1019 0 1
14.2193 0 1
14.3367 0 1
14.4541 0 1
14.5714 0 1
14.6888 0 1
14.8062 0 1
14.9235 0 1
15.0408 0 0
15.1581 0 0
15.2755 0 0
15.3927 0 0
15.51 0 0
15.6273 0 0
15.7445 0 0
15.8617 0 0
15.9789 0 0
16.0961 0 0
16.2132 0 0
16.3304 0 0
16.4475 0 0
16.5646 0 0
16.6816 0 0
16.7986 0 0
16.9156 0 0
17.0326 0 0
17.1496 0 0
17.2665 0 0
17.3833 0 0
17.5002 0 0
17.617 0 0
17.7338 0 0
17.8505 0 0
17.9672 0 0
18.0839 0 0
18.2005 0 0
18.3171 0 0
18.4337 0 0
18.5502 0 0
18.6666 0 0
18.7831 0 0
18.8994 0 0
19.0158 0 0
19.1321 0 0
19.2483 0 0
19.3645 0 0
19.4806 0 0
19.5967 0 0
19.7128 0 0
19.8288 0 0
19.9447 0 0
20.0606 0 1
20.1764 0 1
20.2922 0 1
20.4079 0 1
20.5236 0 1
20.6392 0 1
20.7548 0 1
20.8702 0 1
23.3078 0 1
23.4233 0 1
23.539 0 1
23.6547 0 1
23.7704 0 1
23.8862 0 1
24.0021 0 1
24.118 0 1
24.234 0 1
24.35 0 1
24.4661 25013 158.155
24.5822 25132 158.531
24.6984 24837 157.598
24.8146 24392 156.179
24.9309 24128 155.332
25.0472 23697 153.938
25.1636 23479 153.229
25.28 23290 152.611
25.3965 23133 152.095
25.513 22783 150.94
25.6296 23128 152.079
25.7462 23317 152.699
25.8628 23263 152.522
25.9795 23281 152.581
26.0962 23714 153.994
26.213 24017 154.974
26.3298 24076 155.164
26.4466 24780 157.417
26.5635 25244 158.884
26.6804 25622 160.069
26.7973 25877 160.863
26.9143 26347 162.318
27.0313 26417 162.533
27.1483 26763 163.594
27.2653 26695 163.386
27.3824 26552 162.948
27.4996 26350 162.327
27.6167 26240 161.988
27.7339 25507 159.709
27.8511 24588 156.806
27.9683 24314 155.929
28.0855 23961 154.793
28.2028 23736 154.065
28.3201 22816 151.05
28.4374 22704 150.678
28.5547 22036 148.445
28.6721 21889 147.949
28.7894 21281 145.88
28.9068 21404 146.301
29.0242 21084 145.203
29.1416 20711 143.913
29.259 20850 144.395
29.3764 20542 143.325
29.4939 20634 143.645
29.6113 21268 145.836
29.7288 21587 146.925
29.8463 22272 149.238
29.9638 22919 151.39
30.0812 23295 152.627
30.1987 23721 154.016
30.3162 23712 153.987
30.4337 24416 156.256
30.5512 24434 156.314
30.6687 24238 155.686
30.7862 24804 157.493
30.9037 24433 156.311
31.0212 24645 156.987
31.1387 23690 153.916
31.2562 23706 153.968
31.3737 23146 152.138
31.4912 22931 151.43
31.6087 22763 150.874
31.7262 21930 148.088
31.8436 21489 146.591
31.9611 21743 147.455
32.0785 21047 145.076
32.1959 21177 145.523
32.3134 20961 144.779
32.4308 20674 143.785
32.5482 20478 143.101
32.6655 20341 142.622
32.7829 20404 142.843
32.9002 20300 142.478
33.0176 20338 142.611
33.1349 20291 142.446
33.2522 21341 146.086
33.3694 21744 147.458
33.4867 22090 148.627
33.6039 22635 150.449
33.7211 23102 151.993
33.8383 23230 152.414
33.9554 23461 153.17
34.0725 23762 154.149
34.1896 23300 152.643
34.3067 23397 152.961
34.4237 23411 153.007
34.5407 23269 152.542
34.6577 23255 152.496
34.7746 22963 151.535
34.8915 22482 149.94
35.0084 22214 149.044
35.1252 22035 148.442
35.242 21744 147.458
35.3587 21863 147.861
35.4755 21884 147.932
35.5921 21814 147.696
35.7088 21979 148.253
35.8254 21808 147.675
35.9419 21677 147.231
36.0584 21317 146.003
36.1749 20842 144.368
36.2913 20395 142.811
36.4077 20230 142.232
36.524 19936 141.195
36.6403 19769 140.602
36.7565 19863 140.936
36.8727 19814 140.762
36.9889 19798 140.705
37.1049 19480 139.571
37.221 0 1
37.3369 0 1
37.4529 0 1
37.5687 0 1
37.6845 0 1
37.8003 0 1
37.916 0 1
38.0316 0 1
38.1472 0 1
40.5851 0 1
40.7008 0 1
40.8164 0 1
40.9322 0 1
41.048 0 1
41.1639 0 1
41.2798 0 1
41.3958 0 1
41.5118 0 1
41.6279 0 1
41.744 14090 118.701
41.8602 14311 119.629
41.9765 14696 121.227
42.0928 15043 122.65
42.2091 15127 122.992
42.3255 15332 123.822
42.4419 15323 123.786
42.5584 15604 124.916
42.675 15578 124.812
42.7915 15799 125.694
42.9081 15716 125.363
43.0248 15799 125.694
43.1415 15698 125.292
43.2582 15721 125.383
43.375 15920 126.174
43.4918 16047 126.677
43.6087 15546 124.684
43.7256 15769 125.575
43.8425 15564 124.756
43.9595 15759 125.535
44.0765 16193 127.252
44.1935 16828 129.723
44.3106 16725 129.325
44.4277 16294 127.648
44.5448 15881 126.02
44.6619 15690 125.26
44.7791 15221 123.373
44.8963 14873 121.955
45.0136 14537 120.569
45.1308 13610 116.662
45.2481 13250 115.109
45.3654 12780 113.049
45.4827 12533 111.951
45.6001 12356 111.158
45.7174 12075 109.886
45.8348 12233 110.603
45.9522 12287 110.847
46.0697 12511 111.853
46.1871 12215 110.521
46.3046 12320 110.995
46.422 12236 110.616
46.5395 12335 111.063
46.657 12440 111.535
46.7745 12396 111.337
46.892 12608 112.285
47.0096 12676 112.588
47.1271 12694 112.668
47.2446 12668 112.552
47.3622 12619 112.334
47.4797 12848 113.349
47.5973 13319 115.408
47.7149 13236 115.048
47.8324 13756 117.286
47.95 13117 114.529
48.0675 12756 112.942
48.1851 12065 109.841
48.3027 11554 107.49
48.4202 11304 106.32
48.5378 10960 104.69
48.6554 10647 103.184
48.7729 10362 101.794
48.8904 10136 100.678
49.008 9961 99.8048
49.1255 9916 99.5791
49.243 9865 99.3227
49.3605 9924 99.6193
49.478 10127 100.633
49.5955 10238 101.183
49.713 10333 101.651
49.8304 10360 101.784
49.9479 10681 103.349
50.0653 10748 103.673
50.1827 11392 106.733
50.3001 11714 108.231
50.4175 12274 110.788
50.5348 12476 111.696
50.6521 13251 115.113
50.7694 13443 115.944
50.8867 14054 118.55
51.004 15160 123.126
51.1212 16144 127.059
51.2384 16890 129.962
51.3556 17067 130.641
51.4727 17215 131.206
51.5899 16418 128.133
51.707 15748 125.491
51.824 15351 123.899
51.9411 14870 121.943
52.0581 14229 119.285
52.175 13769 117.341
52.2919 12703 112.708
52.4088 11621 107.801
52.5257 11631 107.847
52.6425 11829 108.761
52.7593 11589 107.652
52.876 12063 109.832
52.9927 12440 111.535
53.1094 12589 112.201
53.226 13073 114.337
53.3426 13557 116.435
53.4591 14244 119.348
53.5756 14676 121.145
53.692 15159 123.122
53.8084 16094 126.862
53.9248 16174 127.177
54.0411 16686 129.174
54.1573 17181 131.076
54.2735 0 1
54.3896 0 1
54.5057 0 1
54.6217 0 1
54.7377 0 1
54.8537 0 1
54.9695 0 1
55.0853 0 1
55.2011 0 1
55.3168 0 1
55.4324 0 1
57.824 0 1
57.9396 0 1
58.0553 0 1
58.1711 0 1
58.2869 0 1
58.4028 0 1
58.5187 0 1
58.6347 0 1
58.7508 0 1
58.8669 0 1
58.983 18829 137.219
59.0992 20275 142.39
59.2155 21782 147.587
59.3318 23493 153.274
59.4482 25082 158.373
59.5646 25564 159.887
59.681 26095 161.539
59.7975 25838 160.742
59.9141 25378 159.305
60.0306 24141 155.374
60.1473 22916 151.38
60.2639 21602 146.976
60.3807 19796 140.698
60.4974 18035 134.294
60.6142 16670 129.112
60.731 14666 121.103
60.8479 13445 115.953
60.9648 12753 112.929
61.0818 12885 113.512
61.1987 13267 115.182
61.3158 13733 117.188
61.4328 13787 117.418
61.5499 13948 118.102
61.667 14173 119.05
61.7841 14363 119.846
61.9013 15199 123.284
62.0185 15801 125.702
62.1357 16177 127.189
62.253 16812 129.661
62.3702 17242 131.309
62.4875 18579 136.305
62.6049 19894 141.046
62.7222 21941 148.125
62.8396 23402 152.977
62.9569 24164 155.448
63.0743 24287 155.843
63.1918 24107 155.264
63.3092 24121 155.309
63.4267 23529 153.392
63.5441 22191 148.966
63.6616 20662 143.743
63.7791 19121 138.279
63.8966 17576 132.575
64.0142 15123 122.976
64.1317 13077 114.355
64.2492 11906 109.115
64.3668 10963 104.704
64.4843 10592 102.917
64.6019 10680 103.344
64.7195 11393 106.738
64.837 12007 109.576
64.9546 11798 108.619
65.0722 12070 109.864
65.1898 12062 109.827
65.3074 12962 113.851
65.4249 13073 114.337
65.5425 13984 118.254
65.6601 14342 119.758
65.7777 14976 122.376
65.8952 15642 125.068
66.0128 16925 130.096
66.1304 18927 137.575
66.2479 21391 146.257
66.3655 22671 150.569
66.483 23323 152.719
66.6005 23221 152.384
66.718 23450 153.134
66.8355 22977 151.582
66.953 23010 151.69
67.0705 22156 148.849
67.1879 20121 141.849
67.3054 17343 131.693
67.4228 14632 120.963
67.5402 12825 113.248
67.6576 11782 108.545
67.7749 11224 105.943
67.8923 10645 103.175
68.0096 10124 100.618
68.1269 10213 101.059
68.2442 10686 103.373
68.3614 11726 108.287
68.4787 12390 111.31
68.5958 12346 111.113
68.713 12013 109.604
68.8302 12038 109.718
68.9473 12893 113.547
69.0643 13304 115.343
69.1814 13628 116.739
69.2984 14028 118.44
69.4154 14963 122.323
69.5323 16464 128.312
69.6492 19187 138.517
69.7661 21883 147.929
69.8829 23099 151.984
69.9997 24692 157.137
70.1165 24851 157.642
70.2332 24888 157.759
70.3499 24515 156.573
70.4665 25100 158.43
70.5831 24297 155.875
70.6996 22360 149.533
70.8161 18816 137.171
70.9326 16478 128.367
71.049 15293 123.665
71.1653 14171 119.042
71.2817 12972 113.895
71.3979 12977 113.917
71.5141 12288 110.851
71.6303 12144 110.2
71.7464 11138 105.537
71.8624 0 1
71.9784 0 1
72.0944 0 1
72.2102 0 1
72.3261 0 1
72.4418 0 1
72.5575 0 1
72.6732 0 1
75.1054 0 1
75.2209 0 1
75.3365 0 1
75.4521 0 1
75.5678 0 1
75.6835 0 1
75.7993 0 1
75.9151 0 1
76.031 0 1
76.147 21037 145.041
76.263 20181 142.06
76.3791 18448 135.823
76.4952 17309 131.564
76.6113 16315 127.73
76.7276 15820 125.778
76.8438 15516 124.563
76.9601 15198 123.28
77.0765 15056 122.703
77.1929 15051 122.683
77.3093 15441 124.262
77.4258 16767 129.487
77.5423 17229 131.259
77.6589 16411 128.105
77.7755 15869 125.972
77.8921 15975 126.392
78.0088 16171 127.165
78.1256 16152 127.091
78.2423 16263 127.526
78.3591 16625 128.938
78.4759 17791 133.383
78.5928 19900 141.067
78.7097 22114 148.708
78.8266 25736 160.424
78.9436 25129 158.521
79.0606 27014 164.359
79.1776 27043 164.448
79.2946 26504 162.8
79.4117 25730 160.406
79.5288 24815 157.528
79.6459 22988 151.618
79.7631 20783 144.163
79.8802 18617 136.444
79.9974 16096 126.87
80.1147 14522 120.507
80.2319 13268 115.187
80.3491 11918 109.17
80.4664 11604 107.722
80.5837 11142 105.556
80.701 10491 102.426
80.8183 10460 102.274
80.9357 10909 104.446
81.053 12239 110.63
81.1704 12119 110.086
81.2877 11429 106.907
81.4051 10442 102.186
81.5225 11057 105.152
81.6399 10872 104.269
81.7573 11371 106.635
81.8747 11678 108.065
81.9922 12871 113.45
82.1096 14578 120.739
82.227 16702 129.236
82.3444 18669 136.635
82.4619 21093 145.234
82.5793 21926 148.074
82.6967 23237 152.437
82.8142 22421 149.736
82.9316 22128 148.755
83.049 20864 144.444
83.1664 19635 140.125
83.2838 18555 136.217
83.4012 16295 127.652
83.5186 13944 118.085
83.636 12693 112.663
83.7534 11425 106.888
83.8708 10404 102
83.9881 9760 98.7927
84.1055 9447 97.1957
84.2228 9039 95.0737
84.3401 8973 94.7259
84.4575 9209 95.9635
84.5747 10382 101.892
84.692 11421 106.869
84.8093 11128 105.489
84.9265 10372 101.843
85.0437 9732 98.6509
85.1609 9800 98.9949
85.2781 10095 100.474
85.3952 10779 103.822
85.5123 11936 109.252
85.6294 13612 116.67
85.7465 15302 123.701
85.8636 17198 131.141
85.9806 19314 138.975
86.0976 21365 146.168
86.2145 23180 152.25
86.3315 22930 151.427
86.4484 24212 155.602
86.5652 22838 151.122
86.682 21999 148.321
86.7988 20763 144.094
86.9156 19406 139.305
87.0323 16787 129.565
87.149 15228 123.402
87.2657 13523 116.288
87.3823 12543 111.996
87.4988 11499 107.233
87.6154 11045 105.095
87.7318 10745 103.658
87.8483 10571 102.815
87.9647 10669 103.291
88.081 11624 107.815
88.1973 13063 114.293
88.3136 13577 116.52
88.4298 12518 111.884
88.546 10876 104.288
88.6621 10443 102.191
88.7781 10457 102.259
88.8942 0 1
89.0101 0 1
89.126 0 1
89.2419 0 1
89.3577 0 1
89.4734 0 1
89.5891 0 1
89.7047 0 1
89.8203 0 1
89.9358 0 1
92.3269 0 1
92.4424 0 1
92.558 0 1
92.6736 0 1
92.7893 0 1
92.905 0 1
93.0208 0 1
93.1366 0 1
93.2525 0 1
93.3685 0 1
93.4845 0 1
93.6005 11373 106.644
93.7167 12001 109.549
93.8328 11766 108.471
93.949 11255 106.09
94.0653 10660 103.247
94.1816 10812 103.981
94.2979 11256 106.094
94.4143 12049 109.768
94.5307 13457 116.004
94.6472 14808 121.688
94.7637 16036 126.633
94.8803 18110 134.573
94.9969 19936 141.195
95.1135 22223 149.074
95.2302 23526 153.382
95.3469 24872 157.709
95.4637 24901 157.801
95.5805 24591 156.815
95.6973 24133 155.348
95.8142 24054 155.094
95.9311 22973 151.568
96.048 21135 145.379
96.1649 19115 138.257
96.2819 17555 132.495
96.3989 15625 125
96.516 14107 118.773
96.633 13130 114.586
96.7501 12605 112.272
96.8673 12131 110.141
96.9844 11801 108.632
97.1016 11838 108.803
97.2188 11858 108.894
97.336 12799 113.133
97.4532 13361 115.59
97.5704 13026 114.132
97.6877 11761 108.448
97.805 10756 103.711
97.9223 10619 103.049
98.0396 11093 105.323
98.1569 11984 109.471
98.2743 13254 115.126
98.3916 14634 120.971
98.509 16583 128.775
98.6264 18046 134.335
98.7438 20620 143.597
98.8612 22957 151.516
98.9786 24997 158.104
99.096 25388 159.336
99.2134 25291 159.031
99.3308 24903 157.807
99.4482 24344 156.026
99.5656 23349 152.804
99.6831 21765 147.53
99.8005 19465 139.517
99.9179 17745 133.21
100.035 15769 125.575
100.153 14109 118.781
100.27 13350 115.542
100.388 12752 112.925
100.505 12444 111.553
100.622 11990 109.499
100.74 12239 110.63
100.857 12312 110.959
100.975 13144 114.647
101.092 13138 114.621
101.209 12247 110.666
101.327 11102 105.366
101.444 10773 103.793
101.561 10930 104.547
101.679 12281 110.82
101.796 13451 115.978
101.913 14923 122.16
102.03 17279 131.45
102.148 19612 140.043
102.265 23943 154.735
102.382 24307 155.907
102.499 27144 164.754
102.616 27535 165.937
102.733 27297 165.218
102.851 27489 165.798
102.968 27032 164.414
103.085 26074 161.474
103.202 23984 154.868
103.319 21680 147.241
103.436 19489 139.603
103.552 17662 132.898
103.669 16351 127.871
103.786 15806 125.722
103.903 15360 123.935
104.02 14780 121.573
104.137 14537 120.569
104.253 14843 121.832
104.37 14436 120.15
104.487 15648 125.092
104.603 15474 124.395
104.72 14082 118.668
104.836 12973 113.899
104.953 12838 113.305
105.069 13766 117.329
105.186 14915 122.127
105.302 16693 129.201
105.418 18715 136.803
105.535 21976 148.243
105.651 25163 158.628
105.767 27624 166.205
105.883 28642 169.239
105.999 28865 169.897
106.115 0 1
106.231 0 1
106.347 0 1
106.463 0 1
106.579 0 1
106.694 0 1
106.81 0 1
106.926 0 1
107.041 0 1
107.157 0 1
109.576 0 1
109.692 0 1
109.807 0 1
109.923 0 1
110.039 0 1
110.155 0 1
110.27 0 1
110.386 0 1
110.502 0 1
110.618 20228 142.225
110.735 23072 151.895
110.851 25259 158.931
110.967 26298 162.167
111.083 27110 164.651
111.199 27034 164.42
111.316 27189 164.891
111.432 27122 164.688
111.549 25721 160.378
111.665 24406 156.224
111.782 21784 147.594
111.898 20203 142.137
112.015 18908 137.506
112.132 17949 133.974
112.248 17340 131.681
112.365 16329 127.785
112.482 15676 125.204
112.599 14738 121.4
112.716 14621 120.917
112.832 14191 119.126
112.949 13755 117.282
113.066 13121 114.547
113.183 12449 111.575
113.3 11365 106.607
113.417 11576 107.592
113.534 11737 108.337
113.652 12991 113.978
113.769 14418 120.075
113.886 16144 127.059
114.003 17736 133.177
114.12 19152 138.391
114.238 21109 145.289
114.355 22287 149.288
114.472 23288 152.604
114.589 23822 154.344
114.707 23948 154.751
114.824 23987 154.877
114.942 23848 154.428
115.059 23056 151.842
115.176 21218 145.664
115.294 19807 140.737
115.411 18975 137.75
115.529 18143 134.696
115.646 17278 131.446
115.764 17049 130.572
115.881 16239 127.432
115.999 15701 125.304
116.116 15193 123.26
116.234 14660 121.078
116.351 14216 119.231
116.469 14144 118.929
116.586 13881 117.818
116.704 13489 116.142
116.821 12632 112.392
116.939 12340 111.086
117.056 12756 112.942
117.174 14265 119.436
117.291 15588 124.852
117.409 16948 130.184
117.526 18140 134.685
117.644 19508 139.671
117.761 21368 146.178
117.879 22860 151.195
117.996 23615 153.672
118.114 24492 156.499
118.231 25349 159.214
118.349 25005 158.13
118.466 24986 158.07
118.584 24594 156.825
118.701 23488 153.258
118.819 22269 149.228
118.936 21339 146.079
119.053 20571 143.426
119.171 19970 141.315
119.288 19357 139.129
119.405 18620 136.455
119.523 17945 133.959
119.64 17516 132.348
119.757 16810 129.653
119.875 15937 126.242
119.992 15294 123.669
120.109 15159 123.122
120.226 14745 121.429
120.343 14250 119.373
120.46 13771 117.35
120.578 14084 118.676
120.695 14640 120.996
120.812 16011 126.535
120.929 16762 129.468
121.046 17540 132.439
121.163 18444 135.809
121.279 19519 139.71
121.396 20639 143.663
121.513 21971 148.226
121.63 23545 153.444
121.747 23369 152.869
121.863 24390 156.173
121.98 24408 156.231
122.097 24139 155.367
122.213 23481 153.235
122.33 22506 150.02
122.446 21652 147.146
122.563 21192 145.575
122.679 20912 144.61
122.795 20001 141.425
122.912 19749 140.531
123.028 19220 138.636
123.144 18481 135.945
123.26 17874 133.694
123.377 0 1
123.493 0 1
123.609 0 1
123.725 0 1
123.84 0 1
123.956 0 1
124.072 0 1
124.188 0 1
124.303 0 1
124.419 0 1
126.852 0 1
126.968 0 1
127.083 0 1
127.199 0 1
127.315 0 1
127.431 0 1
127.547 0 1
127.663 0 1
127.779 0 1
127.895 0 1
128.011 0 1
128.127 0 1
128.243 0 1
128.359 22101 148.664
128.476 21592 146.942
128.592 21219 145.667
128.708 20993 144.89
128.825 20159 141.982
128.941 19871 140.965
129.058 19343 139.079
129.174 19130 138.311
129.291 19170 138.456
129.408 18762 136.974
129.524 18939 137.619
129.641 19580 139.929
129.758 19818 140.776
129.875 20562 143.395
129.992 21122 145.334
130.108 21733 147.421
130.225 22449 149.83
130.342 23649 153.782
130.459 23741 154.081
130.576 25471 159.596
130.693 24721 157.229
130.81 24310 155.917
130.928 24116 155.293
131.045 23034 151.77
131.162 23074 151.901
131.279 22969 151.555
131.396 22631 150.436
131.513 22437 149.79
131.631 22040 148.459
131.748 21816 147.702
131.865 21459 146.489
131.983 20724 143.958
132.1 20557 143.377
132.217 20160 141.986
132.335 19938 141.202
132.452 19600 140
132.57 19141 138.351
132.687 18408 135.676
132.804 19712 140.399
132.922 18541 136.165
133.039 18113 134.585
133.157 18389 135.606
133.274 18887 137.43
133.392 19103 138.214
133.509 19992 141.393
133.627 20496 143.164
133.744 21040 145.052
133.862 21777 147.57
133.979 22674 150.579
134.097 22252 149.171
134.214 22536 150.12
134.332 21342 146.089
134.449 21223 145.681
134.567 20879 144.496
134.684 21348 146.11
134.802 21551 146.803
134.919 21555 146.816
135.037 21742 147.452
135.154 21658 147.167
135.272 21478 146.554
135.389 21231 145.709
135.507 21331 146.051
135.624 21176 145.52
135.742 20988 144.872
135.859 21224 145.685
135.977 20608 143.555
136.094 20611 143.565
136.211 20569 143.419
136.329 20129 141.877
136.446 19979 141.347
136.564 19571 139.896
136.681 19282 138.86
136.798 19207 138.589
136.915 19781 140.645
137.033 20196 142.113
137.15 20512 143.22
137.267 21041 145.055
137.384 21381 146.222
137.502 22300 149.332
137.619 22227 149.087
137.736 22268 149.225
137.853 21259 145.805
137.97 20882 144.506
138.087 21711 147.347
138.204 21209 145.633
138.321 21491 146.598
138.438 22020 148.391
138.555 22198 148.99
138.672 22048 148.486
138.788 22152 148.835
138.905 21918 148.047
139.022 22429 149.763
139.139 22248 149.158
139.255 22431 149.77
139.372 22233 149.107
139.488 22092 148.634
139.605 21623 147.048
139.721 21707 147.333
139.838 21300 145.945
139.954 20885 144.516
140.071 20311 142.517
140.187 19804 140.727
140.303 19103 138.214
140.419 19252 138.752
140.535 19179 138.488
140.652 19312 138.968
140.768 0 1
140.884 0 1
141 0 1
141.115 0 1
141.231 0 1
141.347 0 1
141.463 0 1
141.578 0 1
141.694 0 1
144.104 0 1
144.219 0 1
144.335 0 1
144.45 0 1
144.566 0 1
144.682 0 1
144.798 0 1
144.914 0 1
145.03 0 1
145.146 19472 139.542
145.262 19497 139.632
145.378 19679 140.282
145.494 19803 140.723
145.61 20202 142.134
145.726 20111 141.813
145.842 20532 143.29
145.959 20369 142.72
146.075 20606 143.548
146.192 20803 144.232
146.308 20506 143.199
146.425 20736 144
146.541 20685 143.823
146.658 20634 143.645
146.774 20664 143.75
146.891 21215 145.654
147.008 21037 145.041
147.125 21419 146.352
147.241 21918 148.047
147.358 21783 147.591
147.475 21342 146.089
147.592 21349 146.113
147.709 21266 145.829
147.826 21296 145.931
147.943 21026 145.003
148.06 20699 143.871
148.177 20604 143.541
148.294 20387 142.783
148.411 19989 141.382
148.528 19974 141.329
148.645 19315 138.978
148.762 18912 137.521
148.88 18968 137.724
148.997 18398 135.639
149.114 19607 140.025
149.231 18990 137.804
149.349 18920 137.55
149.466 18972 137.739
149.583 18937 137.612
149.701 19153 138.394
149.818 19488 139.599
149.935 19510 139.678
150.053 19852 140.897
150.17 19982 141.358
150.287 20381 142.762
150.405 20315 142.531
150.522 20566 143.409
150.64 20810 144.257
150.757 20732 143.986
150.875 20963 144.786
150.992 21262 145.815
151.11 20685 143.823
151.227 20344 142.632
151.344 20328 142.576
151.462 20226 142.218
151.579 20191 142.095
151.697 20044 141.577
151.814 20097 141.764
151.932 19949 141.241
152.049 19650 140.178
152.167 19112 138.246
152.284 19123 138.286
152.402 18879 137.401
152.519 18947 137.648
152.636 19086 138.152
152.754 19198 138.557
152.871 19332 139.04
152.989 19425 139.374
153.106 19769 140.602
153.223 19771 140.609
153.341 20381 142.762
153.458 20428 142.927
153.575 21276 145.863
153.693 21563 146.843
153.81 22076 148.58
153.927 22308 149.359
154.044 22991 151.628
154.162 23595 153.607
154.279 24200 155.563
154.396 24438 156.327
154.513 24433 156.311
154.63 24773 157.394
154.747 24746 157.309
154.864 24451 156.368
154.981 24333 155.99
155.098 23914 154.642
155.215 23156 152.171
155.332 22843 151.139
155.449 22610 150.366
155.566 21935 148.105
155.683 21697 147.299
155.8 21511 146.666
155.917 20528 143.276
156.033 20202 142.134
156.15 0 1
156.267 0 1
156.383 0 1
156.5 0 1
156.617 0 1
156.733 0 1
156.85 0 1
156.966 0 1
157.082 0 1
157.199 0 1
157.315 0 1
157.431 0 1
157.547 0 1
157.664 0 1
157.78 0 1
157.896 0 1
158.012 0 1
158.128 0 1
158.244 0 1
158.359 0 1
158.475 0 1
158.591 0 1
158.706 0 1
