
6.15755 0 1
6.2731 0 1
6.3887 0 1
6.50437 0 1
6.62009 0 1
6.73587 0 1
6.8517 0 1
6.96759 0 1
7.08353 0 1
7.19952 0 1
7.31557 0 1
7.43166 0 1
7.54781 0 1
7.664 0 1
7.78024 0 1
7.89653 0 1
8.01286 0 1
8.12924 0 1
8.24567 0 1
8.36213 0 1
8.47864 0 1
8.59519 0 1
8.71178 0 1
8.82841 0 1
8.94508 0 1
9.06179 0 1
9.17853 0 1
9.29531 0 1
9.41212 0 1
9.52897 0 1
9.64584 0 1
9.76276 0 1
9.8797 0 1
9.99667 0 1
10.1137 0 1
10.2307 0 1
10.3478 0 1
10.4648 0 1
10.5819 0 1
10.6991 0 1
10.8162 0 1
10.9334 0 1
11.0506 0 1
11.1678 0 1
11.285 0 1
11.4023 0 1
11.5196 0 1
11.6369 0 1
11.7542 0 1
11.8715 0 1
11.9888 0 1
12.1062 0 1
12.2235 0 1
12.3409 0 1
12.4582 0 1
12.5756 0 1
12.693 0 1
12.8104 0 1
12.9278 0 1
13.0452 0 1
13.1626 0 1
13.28 0 1
13.3974 0 1
13.5149 0 1
13.6323 0 1
13.7497 0 1
13.8671 0 1
13.9845 0 1
14.1019 0 1
14.2193 0 1
14.3367 0 1
14.4541 0 1
14.5714 0 1
14.6888 0 1
14.8062 0 1
14.9235 0 1
15.0408 0 0
15.1581 0 0
15.2755 0 0
15.3927 0 0
15.51 0 0
15.6273 0 0
15.7445 0 0
15.8617 0 0
15.9789 0 0
16.0961 0 0
16.2132 0 0
16.3304 0 0
16.4475 0 0
16.5646 0 0
16.6816 0 0
16.7986 0 0
16.9156 0 0
17.0326 0 0
17.1496 0 0
17.2665 0 0
17.3833 0 0
17.5002 0 0
17.617 0 0
17.7338 0 0
17.8505 0 0
17.9672 0 0
18.0839 0 0
18.2005 0 0
18.3171 0 0
18.4337 0 0
18.5502 0 0
18.6666 0 0
18.7831 0 0
18.8994 0 0
19.0158 0 0
19.1321 0 0
19.2483 0 0
19.3645 0 0
19.4806 0 0
19.5967 0 0
19.7128 0 0
19.8288 0 0
19.9447 0 0
20.0606 0 1
20.1764 0 1
20.2922 0 1
20.4079 0 1
20.5236 0 1
20.6392 0 1
20.7548 0 1
20.8702 0 1
23.3078 0 1
23.4233 0 1
23.539 0 1
23.6547 0 1
23.7704 0 1
23.8862 0 1
24.0021 0 1
24.118 0 1
24.234 0 1
24.35 0 1
24.4661 3164 56.2494
24.5822 3559 59.6574
24.6984 3904 62.482
24.8146 4133 64.2884
24.9309 4419 66.4756
25.0472 4737 68.8259
25.1636 5099 71.4073
25.28 5331 73.0137
25.3965 5557 74.5453
25.513 5876 76.6551
25.6296 6293 79.3284
25.7462 6418 80.1124
25.8628 6342 79.6367
25.9795 6497 80.604
26.0962 6584 81.1419
26.213 6428 80.1748
26.3298 6366 79.7872
26.4466 6091 78.0449
26.5635 5940 77.0714
26.6804 5828 76.3413
26.7973 5512 74.2428
26.9143 5833 76.3741
27.0313 5906 76.8505
27.1483 6111 78.1729
27.2653 6146 78.3964
27.3824 6143 78.3773
27.4996 6042 77.7303
27.6167 6036 77.6917
27.7339 5991 77.4016
27.8511 5804 76.184
27.9683 5787 76.0723
28.0855 5631 75.04
28.2028 5478 74.0135
28.3201 5280 72.6636
28.4374 5308 72.856
28.5547 5202 72.1249
28.6721 5429 73.6817
28.7894 5475 73.9932
28.9068 5794 76.1183
29.0242 6072 77.923
29.1416 6253 79.0759
29.259 6338 79.6116
29.3764 6404 80.025
29.4939 6618 81.3511
29.6113 6486 80.5357
29.7288 6361 79.7559
29.8463 6458 80.3617
29.9638 6180 78.613
30.0812 5864 76.5768
30.1987 5535 74.3976
30.3162 5498 74.1485
30.4337 5476 74
30.5512 5608 74.8866
30.6687 5778 76.0132
30.7862 5826 76.3282
30.9037 5938 77.0584
31.0212 6137 78.339
31.1387 5944 77.0973
31.2562 5942 77.0844
31.3737 5944 77.0973
31.4912 5763 75.9144
31.6087 5583 74.7195
31.7262 5701 75.505
31.8436 5386 73.3894
31.9611 5350 73.1437
32.0785 5270 72.5948
32.1959 5269 72.5879
32.3134 5330 73.0068
32.4308 5378 73.3348
32.5482 5600 74.8331
32.6655 5809 76.2168
32.7829 6022 77.6015
32.9002 6163 78.5048
33.0176 6118 78.2176
33.1349 6171 78.5557
33.2522 6289 79.3032
33.3694 6346 79.6618
33.4867 6336 79.599
33.6039 6063 77.8653
33.7211 6020 77.5887
33.8383 5715 75.5976
33.9554 5438 73.7428
34.0725 5178 71.9583
34.1896 5305 72.8354
34.3067 5350 73.1437
34.4237 5499 74.1552
34.5407 5647 75.1465
34.6577 5793 76.1118
34.7746 5936 77.0454
34.8915 5879 76.6746
35.0084 5780 76.0263
35.1252 5834 76.3806
35.242 5613 74.92
35.3587 5598 74.8198
35.4755 5496 74.135
35.5921 5320 72.9383
35.7088 5334 73.0342
35.8254 5203 72.1318
35.9419 4991 70.647
36.0584 4962 70.4415
36.1749 4923 70.1641
36.2913 4947 70.3349
36.4077 4983 70.5904
36.524 4821 69.4334
36.6403 4864 69.7424
36.7565 4914 70.0999
36.8727 4585 67.7126
36.9889 4366 66.0757
37.1049 4170 64.5755
37.221 0 1
37.3369 0 1
37.4529 0 1
37.5687 0 1
37.6845 0 1
37.8003 0 1
37.916 0 1
38.0316 0 1
38.1472 0 1
40.5851 0 1
40.7008 0 1
40.8164 0 1
40.9322 0 1
41.048 0 1
41.1639 0 1
41.2798 0 1
41.3958 0 1
41.5118 0 1
41.6279 0 1
41.744 3424 58.515
41.8602 3749 61.2291
41.9765 3996 63.2139
42.0928 4231 65.0461
42.2091 4473 66.8805
42.3255 4352 65.9697
42.4419 4327 65.7799
42.5584 4299 65.5668
42.675 4215 64.923
42.7915 4210 64.8845
42.9081 4388 66.242
43.0248 4515 67.1937
43.1415 4819 69.419
43.2582 4816 69.3974
43.375 5018 70.8378
43.4918 5050 71.0634
43.6087 4877 69.8355
43.7256 5126 71.5961
43.8425 4956 70.3989
43.9595 4948 70.342
44.0765 4704 68.5857
44.1935 4513 67.1789
44.3106 4444 66.6633
44.4277 4442 66.6483
44.5448 4284 65.4523
44.6619 4144 64.3739
44.7791 4343 65.9014
44.8963 4531 67.3127
45.0136 4677 68.3886
45.1308 4928 70.1997
45.2481 4932 70.2282
45.3654 5287 72.7118
45.4827 5201 72.118
45.6001 5166 71.8749
45.7174 5171 71.9097
45.8348 5141 71.7008
45.9522 4934 70.2424
46.0697 4903 70.0214
46.1871 4600 67.8233
46.3046 4274 65.3758
46.422 4259 65.261
46.5395 4445 66.6708
46.657 4649 68.1836
46.7745 4911 70.0785
46.892 5044 71.0211
47.0096 5169 71.8958
47.1271 5035 70.9577
47.2446 5098 71.4003
47.3622 5197 72.0902
47.4797 5077 71.2531
47.5973 4933 70.2353
47.7149 4721 68.7095
47.8324 4691 68.4909
47.95 4686 68.4544
48.0675 4423 66.5056
48.1851 4347 65.9318
48.3027 4305 65.6125
48.4202 4270 65.3452
48.5378 4515 67.1937
48.6554 4615 67.9338
48.7729 5011 70.7884
48.8904 5004 70.739
49.008 5015 70.8167
49.1255 5076 71.2461
49.243 5118 71.5402
49.3605 5181 71.9792
49.478 5048 71.0493
49.5955 4845 69.606
49.713 4478 66.9179
49.8304 4081 63.8827
49.9479 4026 63.4508
50.0653 3969 63
50.1827 4292 65.5134
50.3001 4512 67.1714
50.4175 4682 68.4251
50.5348 4951 70.3633
50.6521 4890 69.9285
50.7694 5054 71.0915
50.8867 5065 71.1688
51.004 4841 69.5773
51.1212 4850 69.6419
51.2384 4885 69.8928
51.3556 4643 68.1396
51.4727 4574 67.6314
51.5899 4407 66.3852
51.707 4288 65.4828
51.824 4278 65.4064
51.9411 4343 65.9014
52.0581 4417 66.4605
52.175 4697 68.5347
52.2919 4902 70.0143
52.4088 5020 70.852
52.5257 5181 71.9792
52.6425 5172 71.9166
52.7593 5194 72.0694
52.876 5179 71.9653
52.9927 5127 71.6031
53.1094 5023 70.8731
53.226 4729 68.7677
53.3426 4337 65.8559
53.4591 3943 62.7933
53.5756 3690 60.7454
53.692 3506 59.2115
53.8084 3460 58.8218
53.9248 3438 58.6345
54.0411 3292 57.376
54.1573 3226 56.7979
54.2735 0 1
54.3896 0 1
54.5057 0 1
54.6217 0 1
54.7377 0 1
54.8537 0 1
54.9695 0 1
55.0853 0 1
55.2011 0 1
55.3168 0 1
55.4324 0 1
57.824 0 1
57.9396 0 1
58.0553 0 1
58.1711 0 1
58.2869 0 1
58.4028 0 1
58.5187 0 1
58.6347 0 1
58.7508 0 1
58.8669 0 1
58.983 3997 63.2218
59.0992 4541 67.3869
59.2155 4884 69.8856
59.3318 5258 72.5121
59.4482 5567 74.6123
59.5646 5502 74.1755
59.681 5589 74.7596
59.7975 5751 75.8353
59.9141 5598 74.8198
60.0306 5665 75.2662
60.1473 5523 74.3169
60.2639 5330 73.0068
60.3807 5338 73.0616
60.4974 5378 73.3348
60.6142 5575 74.6659
60.731 5728 75.6836
60.8479 6009 77.5177
60.9648 6104 78.1281
61.0818 6223 78.886
61.1987 6263 79.1391
61.3158 6297 79.3536
61.4328 6171 78.5557
61.5499 6172 78.5621
61.667 5845 76.4526
61.7841 5444 73.7835
61.9013 5192 72.0555
62.0185 5084 71.3022
62.1357 4894 69.9571
62.253 5333 73.0274
62.3702 5653 75.1864
62.4875 5717 75.6108
62.6049 5745 75.7958
62.7222 5972 77.2787
62.8396 6135 78.3262
62.9569 6118 78.2176
63.0743 6095 78.0705
63.1918 6073 77.9295
63.3092 5865 76.5833
63.4267 5846 76.4591
63.5441 5732 75.71
63.6616 5579 74.6927
63.7791 5318 72.9246
63.8966 5205 72.1457
64.0142 5058 71.1196
64.1317 5341 73.0821
64.2492 5452 73.8377
64.3668 5873 76.6355
64.4843 5907 76.857
64.6019 6092 78.0513
64.7195 6154 78.4474
64.837 6261 79.1265
64.9546 6155 78.4538
65.0722 6242 79.0063
65.1898 5983 77.3499
65.3074 5737 75.743
65.4249 5143 71.7147
65.5425 5030 70.9225
65.6601 4795 69.2459
65.7777 4637 68.0955
65.8952 4874 69.814
66.0128 5301 72.808
66.1304 5642 75.1132
66.2479 5607 74.8799
66.3655 6053 77.801
66.483 5870 76.6159
66.6005 5910 76.8765
66.718 6005 77.4919
66.8355 5954 77.1622
66.953 5819 76.2824
67.0705 5637 75.08
67.1879 5585 74.7329
67.3054 5374 73.3076
67.4228 5145 71.7287
67.5402 5070 71.2039
67.6576 5160 71.8331
67.7749 4945 70.3207
67.8923 5034 70.9507
68.0096 5183 71.9931
68.1269 5782 76.0395
68.2442 5914 76.9025
68.3614 5799 76.1512
68.4787 5863 76.5702
68.5958 6008 77.5113
68.713 5898 76.7984
68.8302 5818 76.2758
68.9473 5700 75.4983
69.0643 5305 72.8354
69.1814 4969 70.4911
69.2984 4774 69.0941
69.4154 4407 66.3852
69.5323 4547 67.4314
69.6492 4758 68.9783
69.7661 5112 71.4983
69.8829 5139 71.6868
69.9997 5264 72.5534
70.1165 5023 70.8731
70.2332 4960 70.4273
70.3499 4792 69.2243
70.4665 4679 68.4032
70.5831 4472 66.873
70.6996 4129 64.2573
70.8161 3804 61.6766
70.9326 3704 60.8605
71.049 3318 57.6021
71.1653 3002 54.7905
71.2817 2719 52.144
71.3979 2398 48.9694
71.5141 2120 46.0435
71.6303 2100 45.8258
71.7464 1863 43.1625
71.8624 0 1
71.9784 0 1
72.0944 0 1
72.2102 0 1
72.3261 0 1
72.4418 0 1
72.5575 0 1
72.6732 0 1
75.1054 0 1
75.2209 0 1
75.3365 0 1
75.4521 0 1
75.5678 0 1
75.6835 0 1
75.7993 0 1
75.9151 0 1
76.031 0 1
76.147 3934 62.7216
76.263 3984 63.1189
76.3791 4227 65.0154
76.4952 4400 66.3325
76.6113 4328 65.7875
76.7276 4624 68
76.8438 4832 69.5126
76.9601 5093 71.3653
77.0765 5252 72.4707
77.1929 5310 72.8697
77.3093 5445 73.7902
77.4258 5497 74.1418
77.5423 5533 74.3841
77.6589 5420 73.6206
77.7755 5327 72.9863
77.8921 5003 70.7319
78.0088 4679 68.4032
78.1256 4355 65.9924
78.2423 4047 63.616
78.3591 3963 62.9524
78.4759 4236 65.0846
78.5928 4428 66.5432
78.7097 4744 68.8767
78.8266 5084 71.3022
78.9436 5262 72.5396
79.0606 5291 72.7393
79.1776 5301 72.808
79.2946 5514 74.2563
79.4117 5330 73.0068
79.5288 5530 74.364
79.6459 5453 73.8444
79.7631 5263 72.5465
79.8802 5093 71.3653
79.9974 4973 70.5195
80.1147 4601 67.8307
80.2319 4526 67.2756
80.3491 4633 68.0661
80.4664 4870 69.7854
80.5837 5033 70.9436
80.701 5560 74.5654
80.8183 5649 75.1598
80.9357 5628 75.02
81.053 5698 75.4851
81.1704 5664 75.2596
81.2877 5714 75.591
81.4051 5836 76.3937
81.5225 5526 74.3371
81.6399 5094 71.3723
81.7573 4736 68.8186
81.8747 4415 66.4455
81.9922 4051 63.6475
82.1096 4194 64.7611
82.227 4361 66.0379
82.3444 4669 68.3301
82.4619 4963 70.4486
82.5793 5421 73.6274
82.6967 5315 72.904
82.8142 5617 74.9466
82.9316 5790 76.092
83.049 5831 76.361
83.1664 5639 75.0933
83.2838 5648 75.1532
83.4012 5595 74.7997
83.5186 5355 73.1779
83.636 5303 72.8217
83.7534 4993 70.6612
83.8708 4800 69.282
83.9881 4747 68.8985
84.1055 4750 68.9202
84.2228 5034 70.9507
84.3401 5193 72.0625
84.4575 5571 74.6391
84.5747 5697 75.4785
84.692 5750 75.8288
84.8093 5810 76.2234
84.9265 5637 75.08
85.0437 5752 75.8419
85.1609 5536 74.4043
85.2781 5142 71.7077
85.3952 4793 69.2315
85.5123 4439 66.6258
85.6294 4185 64.6916
85.7465 4298 65.5591
85.8636 4461 66.7907
85.9806 4962 70.4415
86.0976 5121 71.5612
86.2145 5388 73.403
86.3315 5345 73.1095
86.4484 5697 75.4785
86.5652 5752 75.8419
86.682 5760 75.8947
86.7988 5698 75.4851
86.9156 5576 74.6726
87.0323 5555 74.5319
87.149 5442 73.7699
87.2657 5056 71.1056
87.3823 4573 67.624
87.4988 4302 65.5896
87.6154 4022 63.4192
87.7318 4017 63.3798
87.8483 3958 62.9126
87.9647 4091 63.9609
88.081 4164 64.5291
88.1973 4117 64.1639
88.3136 3979 63.0793
88.4298 3647 60.3904
88.546 3477 58.9661
88.6621 3074 55.4437
88.7781 2651 51.4879
88.8942 0 1
89.0101 0 1
89.126 0 1
89.2419 0 1
89.3577 0 1
89.4734 0 1
89.5891 0 1
89.7047 0 1
89.8203 0 1
89.9358 0 1
92.3269 0 1
92.4424 0 1
92.558 0 1
92.6736 0 1
92.7893 0 1
92.905 0 1
93.0208 0 1
93.1366 0 1
93.2525 0 1
93.3685 0 1
93.4845 0 1
93.6005 5462 73.9053
93.7167 5777 76.0066
93.8328 5687 75.4122
93.949 5649 75.1598
94.0653 5323 72.9589
94.1816 4917 70.1213
94.2979 4819 69.419
94.4143 4732 68.7895
94.5307 4908 70.0571
94.6472 5233 72.3395
94.7637 5557 74.5453
94.8803 5660 75.233
94.9969 5858 76.5376
95.1135 5949 77.1298
95.2302 6099 78.0961
95.3469 6206 78.7782
95.4637 6213 78.8226
95.5805 6062 77.8588
95.6973 6070 77.9102
95.8142 5784 76.0526
95.9311 5848 76.4722
96.048 5602 74.8465
96.1649 5404 73.5119
96.2819 5263 72.5465
96.3989 5443 73.7767
96.516 5624 74.9933
96.633 5931 77.013
96.7501 6108 78.1537
96.8673 6283 79.2654
96.9844 6009 77.5177
97.1016 6285 79.278
97.2188 6163 78.5048
97.336 5910 76.8765
97.4532 5541 74.4379
97.5704 5010 70.7814
97.6877 4765 69.029
97.805 4573 67.624
97.9223 4586 67.72
98.0396 4716 68.6731
98.1569 5020 70.852
98.2743 5181 71.9792
98.3916 5626 75.0067
98.509 5679 75.3591
98.6264 5951 77.1427
98.7438 6029 77.6466
98.8612 5863 76.5702
98.9786 6097 78.0833
99.096 5889 76.7398
99.2134 5946 77.1103
99.3308 5651 75.1731
99.4482 5705 75.5315
99.5656 5460 73.8918
99.6831 5386 73.3894
99.8005 5186 72.0139
99.9179 5421 73.6274
100.035 5639 75.0933
100.153 5842 76.433
100.27 5962 77.214
100.388 5854 76.5114
100.505 5911 76.883
100.622 5952 77.1492
100.74 6142 78.3709
100.857 5776 76
100.975 5652 75.1798
101.092 5521 74.3034
101.209 5111 71.4913
101.327 4532 67.3201
101.444 4420 66.4831
101.561 4256 65.238
101.679 4490 67.0075
101.796 4818 69.4118
101.913 5248 72.4431
102.03 5285 72.698
102.148 5546 74.4715
102.265 5450 73.8241
102.382 5975 77.2981
102.499 5659 75.2263
102.616 5746 75.8024
102.733 5738 75.7496
102.851 5751 75.8353
102.968 5569 74.6257
103.085 5461 73.8986
103.202 5349 73.1369
103.319 5229 72.3118
103.436 5116 71.5262
103.552 5018 70.8378
103.669 4961 70.4344
103.786 5175 71.9375
103.903 5342 73.089
104.02 5748 75.8156
104.137 5732 75.71
104.253 5950 77.1362
104.37 5558 74.552
104.487 5437 73.736
104.603 5191 72.0486
104.72 4881 69.8642
104.836 4610 67.897
104.953 4156 64.467
105.069 3913 62.554
105.186 3581 59.8415
105.302 3427 58.5406
105.418 3241 56.9298
105.535 3277 57.2451
105.651 3110 55.7674
105.767 3058 55.2992
105.883 2888 53.7401
105.999 2678 51.7494
106.115 0 1
106.231 0 1
106.347 0 1
106.463 0 1
106.579 0 1
106.694 0 1
106.81 0 1
106.926 0 1
107.041 0 1
107.157 0 1
109.576 0 1
109.692 0 1
109.807 0 1
109.923 0 1
110.039 0 1
110.155 0 1
110.27 0 1
110.386 0 1
110.502 0 1
110.618 3905 62.49
110.735 4526 67.2756
110.851 5158 71.8192
110.967 5431 73.6953
111.083 5831 76.361
111.199 6147 78.4028
111.316 6327 79.5424
111.432 6569 81.0494
111.549 6583 81.1357
111.665 6475 80.4674
111.782 6460 80.3741
111.898 6148 78.4092
112.015 6081 77.9808
112.132 5711 75.5712
112.248 5742 75.776
112.365 5655 75.1997
112.482 5876 76.6551
112.599 6329 79.555
112.716 6345 79.6555
112.832 6639 81.4801
112.949 6557 80.9753
113.066 6123 78.2496
113.183 6347 79.6681
113.3 6124 78.256
113.417 5984 77.3563
113.534 5786 76.0658
113.652 5116 71.5262
113.769 4936 70.2567
113.886 4671 68.3447
114.003 4326 65.7723
114.12 4727 68.7532
114.238 4912 70.0857
114.355 5163 71.854
114.472 5346 73.1163
114.589 5597 74.8131
114.707 5701 75.505
114.824 5754 75.8551
114.942 5797 76.138
115.059 5810 76.2234
115.176 5789 76.0855
115.294 5688 75.4188
115.411 5730 75.6968
115.529 5407 73.5323
115.646 5374 73.3076
115.764 5042 71.007
115.881 4974 70.5266
115.999 5107 71.4633
116.116 5295 72.7668
116.234 5466 73.9324
116.351 5612 74.9133
116.469 5579 74.6927
116.586 5718 75.6175
116.704 5637 75.08
116.821 5677 75.3459
116.939 5417 73.6003
117.056 5333 73.0274
117.174 5262 72.5396
117.291 4666 68.3081
117.409 4354 65.9848
117.526 4112 64.1249
117.644 4217 64.9384
117.761 4298 65.5591
117.879 4550 67.4537
117.996 4797 69.2604
118.114 4931 70.2211
118.231 5075 71.239
118.349 5353 73.1642
118.466 5516 74.2698
118.584 5311 72.8766
118.701 5473 73.9797
118.819 5486 74.0675
118.936 5323 72.9589
119.053 5204 72.1388
119.171 5231 72.3257
119.288 5091 71.3512
119.405 4860 69.7137
119.523 4784 69.1665
119.64 4770 69.0652
119.757 4868 69.7711
119.875 5096 71.3863
119.992 5396 73.4575
120.109 5485 74.0608
120.226 5503 74.1822
120.343 5507 74.2092
120.46 5379 73.3417
120.578 5382 73.3621
120.695 5394 73.4439
120.812 5059 71.1266
120.929 4719 68.695
121.046 4473 66.8805
121.163 4385 66.2193
121.279 3937 62.7455
121.396 3903 62.474
121.513 3929 62.6817
121.63 4146 64.3894
121.747 4156 64.467
121.863 4165 64.5368
121.98 4117 64.1639
122.097 4192 64.7457
122.213 4221 64.9692
122.33 4155 64.4593
122.446 3787 61.5386
122.563 3763 61.3433
122.679 3478 58.9746
122.795 3358 57.9483
122.912 3104 55.7136
123.028 2727 52.2207
123.144 2641 51.3907
123.26 2436 49.3559
123.377 0 1
123.493 0 1
123.609 0 1
123.725 0 1
123.84 0 1
123.956 0 1
124.072 0 1
124.188 0 1
124.303 0 1
124.419 0 1
126.852 0 1
126.968 0 1
127.083 0 1
127.199 0 1
127.315 0 1
127.431 0 1
127.547 0 1
127.663 0 1
127.779 0 1
127.895 0 1
128.011 0 1
128.127 0 1
128.243 0 1
128.359 4933 70.2353
128.476 5171 71.9097
128.592 5239 72.3809
128.708 5465 73.9256
128.825 5592 74.7797
128.941 5788 76.0789
129.058 5741 75.7694
129.174 5692 75.4453
129.291 5809 76.2168
129.408 5658 75.2197
129.524 5601 74.8398
129.641 5440 73.7564
129.758 5135 71.6589
129.875 4836 69.5414
129.992 4457 66.7608
130.108 4468 66.8431
130.225 4510 67.1565
130.342 4745 68.884
130.459 4674 68.3667
130.576 5121 71.5612
130.693 5212 72.1942
130.81 5386 73.3894
130.928 5388 73.403
131.045 5744 75.7892
131.162 5748 75.8156
131.279 5684 75.3923
131.396 5832 76.3675
131.513 5513 74.2496
131.631 5451 73.8309
131.748 5404 73.5119
131.865 5304 72.8286
131.983 5304 72.8286
132.1 5283 72.6842
132.217 5483 74.0473
132.335 5747 75.809
132.452 5881 76.6877
132.57 5936 77.0454
132.687 5731 75.7034
132.804 6197 78.721
132.922 5772 75.9737
133.039 5871 76.6225
133.157 5575 74.6659
133.274 5425 73.6546
133.392 5066 71.1758
133.509 4738 68.8331
133.627 4512 67.1714
133.744 4451 66.7158
133.862 4438 66.6183
133.979 4664 68.2935
134.097 4789 69.2026
134.214 5047 71.0422
134.332 5126 71.5961
134.449 5330 73.0068
134.567 5435 73.7225
134.684 5525 74.3303
134.802 5615 74.9333
134.919 5524 74.3236
135.037 5465 73.9256
135.154 5529 74.3572
135.272 5287 72.7118
135.389 5352 73.1574
135.507 5166 71.8749
135.624 5090 71.3442
135.742 5100 71.4143
135.859 5370 73.2803
135.977 5565 74.5989
136.094 5718 75.6175
136.211 5735 75.7298
136.329 5702 75.5116
136.446 5664 75.2596
136.564 5624 74.9933
136.681 5694 75.4586
136.798 5693 75.452
136.915 5383 73.3689
137.033 5047 71.0422
137.15 4733 68.7968
137.267 4580 67.6757
137.384 4301 65.582
137.502 4343 65.9014
137.619 4434 66.5883
137.736 4616 67.9412
137.853 4764 69.0217
137.97 5042 71.007
138.087 4899 69.9929
138.204 5244 72.4155
138.321 5292 72.7461
138.438 5489 74.0878
138.555 5441 73.7631
138.672 5281 72.6705
138.788 5300 72.8011
138.905 5047 71.0422
139.022 4824 69.455
139.139 4401 66.34
139.255 4424 66.5132
139.372 4187 64.707
139.488 4121 64.195
139.605 4119 64.1794
139.721 4119 64.1794
139.838 4016 63.3719
139.954 3802 61.6604
140.071 3510 59.2453
140.187 3259 57.0877
140.303 3117 55.8301
140.419 2898 53.8331
140.535 2633 51.3128
140.652 2384 48.8262
140.768 0 1
140.884 0 1
141 0 1
141.115 0 1
141.231 0 1
141.347 0 1
141.463 0 1
141.578 0 1
141.694 0 1
144.104 0 1
144.219 0 1
144.335 0 1
144.45 0 1
144.566 0 1
144.682 0 1
144.798 0 1
144.914 0 1
145.03 0 1
145.146 4270 65.3452
145.262 4501 67.0895
145.378 4390 66.2571
145.494 4327 65.7799
145.61 4069 63.7887
145.726 4060 63.7181
145.842 3852 62.0645
145.959 3689 60.7371
146.075 3662 60.5145
146.192 3627 60.2246
146.308 3812 61.7414
146.425 3946 62.8172
146.541 4026 63.4508
146.658 4162 64.5136
146.774 4138 64.3273
146.891 4331 65.8103
147.008 4332 65.8179
147.125 4388 66.242
147.241 4431 66.5658
147.358 4531 67.3127
147.475 4429 66.5507
147.592 4343 65.9014
147.709 4314 65.681
147.826 4120 64.1872
147.943 4176 64.622
148.06 4246 65.1613
148.177 4332 65.8179
148.294 4503 67.1044
148.411 4616 67.9412
148.528 4739 68.8404
148.645 4702 68.5711
148.762 4625 68.0074
148.88 4681 68.4178
148.997 4498 67.0671
149.114 4667 68.3154
149.231 4250 65.192
149.349 4242 65.1306
149.466 3985 63.1269
149.583 3946 62.8172
149.701 3637 60.3075
149.818 3663 60.5227
149.935 3607 60.0583
150.053 3793 61.5873
150.17 3833 61.9112
150.287 3976 63.0555
150.405 4012 63.3404
150.522 4184 64.6838
150.64 4175 64.6142
150.757 4351 65.9621
150.875 4289 65.4905
150.992 4435 66.5958
151.11 4391 66.2646
151.227 4233 65.0615
151.344 4247 65.169
151.462 4115 64.1483
151.579 3958 62.9126
151.697 4056 63.6867
151.814 4101 64.0391
151.932 4269 65.3376
152.049 4360 66.0303
152.167 4463 66.8057
152.284 4410 66.4078
152.402 4495 67.0448
152.519 4612 67.9117
152.636 4544 67.4092
152.754 4386 66.2269
152.871 4280 65.4217
152.989 4035 63.5216
153.106 3912 62.546
153.223 3783 61.5061
153.341 3597 59.975
153.458 3461 58.8303
153.575 3509 59.2368
153.693 3554 59.6154
153.81 3771 61.4085
153.927 3823 61.8304
154.044 3970 63.0079
154.162 3998 63.2297
154.279 4089 63.9453
154.396 4061 63.726
154.513 4130 64.2651
154.63 4215 64.923
154.747 4263 65.2917
154.864 4167 64.5523
154.981 4071 63.8044
155.098 4113 64.1327
155.215 3907 62.506
155.332 3958 62.9126
155.449 3909 62.522
155.566 3999 63.2376
155.683 4099 64.0234
155.8 4221 64.9692
155.917 4127 64.2417
156.033 3977 63.0635
156.15 0 1
156.267 0 1
156.383 0 1
156.5 0 1
156.617 0 1
156.733 0 1
156.85 0 1
156.966 0 1
157.082 0 1
157.199 0 1
157.315 0 1
157.431 0 1
157.547 0 1
157.664 0 1
157.78 0 1
157.896 0 1
158.012 0 1
158.128 0 1
158.244 0 1
158.359 0 1
158.475 0 1
158.591 0 1
158.706 0 1
