
6.15755 0 1
6.2731 0 1
6.3887 0 1
6.50437 0 1
6.62009 0 1
6.73587 0 1
6.8517 0 1
6.96759 0 1
7.08353 0 1
7.19952 0 1
7.31557 0 1
7.43166 0 1
7.54781 0 1
7.664 0 1
7.78024 0 1
7.89653 0 1
8.01286 0 1
8.12924 0 1
8.24567 0 1
8.36213 0 1
8.47864 0 1
8.59519 0 1
8.71178 0 1
8.82841 0 1
8.94508 0 1
9.06179 0 1
9.17853 0 1
9.29531 0 1
9.41212 0 1
9.52897 0 1
9.64584 0 1
9.76276 0 1
9.8797 0 1
9.99667 0 1
10.1137 0 1
10.2307 0 1
10.3478 0 1
10.4648 0 1
10.5819 0 1
10.6991 0 1
10.8162 0 1
10.9334 0 1
11.0506 0 1
11.1678 0 1
11.285 0 1
11.4023 0 1
11.5196 0 1
11.6369 0 1
11.7542 0 1
11.8715 0 1
11.9888 0 1
12.1062 0 1
12.2235 0 1
12.3409 0 1
12.4582 0 1
12.5756 0 1
12.693 0 1
12.8104 0 1
12.9278 0 1
13.0452 0 1
13.1626 0 1
13.28 0 1
13.3974 0 1
13.5149 0 1
13.6323 0 1
13.7497 0 1
13.8671 0 1
13.9845 0 1
14.1019 0 1
14.2193 0 1
14.3367 0 1
14.4541 0 1
14.5714 0 1
14.6888 0 1
14.8062 0 1
14.9235 0 1
15.0408 19827 140.808
15.1581 20996 144.9
15.2755 21878 147.912
15.3927 22237 149.121
15.51 22348 149.492
15.6273 21979 148.253
15.7445 21772 147.553
15.8617 21537 146.755
15.9789 21922 148.061
16.0961 21141 145.399
16.2132 20869 144.461
16.3304 20598 143.52
16.4475 20680 143.805
16.5646 20915 144.62
16.6816 21462 146.499
16.7986 22065 148.543
16.9156 22296 149.318
17.0326 21867 147.875
17.1496 22252 149.171
17.2665 21589 146.932
17.3833 21727 147.401
17.5002 21607 146.993
17.617 20713 143.92
17.7338 21066 145.141
17.8505 20947 144.731
17.9672 21012 144.955
18.0839 21175 145.516
18.2005 21881 147.922
18.3171 22018 148.385
18.4337 22305 149.349
18.5502 22737 150.788
18.6666 23061 151.858
18.7831 23288 152.604
18.8994 23005 151.674
19.0158 22536 150.12
19.1321 22067 148.55
19.2483 20805 144.239
19.3645 20007 141.446
19.4806 19288 138.881
19.5967 17836 133.551
19.7128 16438 128.211
19.8288 14907 122.094
19.9447 13318 115.404
20.0606 0 1
20.1764 0 1
20.2922 0 1
20.4079 0 1
20.5236 0 1
20.6392 0 1
20.7548 0 1
20.8702 0 1
23.3078 0 1
23.4233 0 1
23.539 0 1
23.6547 0 1
23.7704 0 1
23.8862 0 1
24.0021 0 1
24.118 0 1
24.234 0 1
24.35 0 1
24.4661 9118 95.4882
24.5822 10611 103.01
24.6984 11818 108.711
24.8146 12952 113.807
24.9309 14175 119.059
25.0472 15549 124.696
25.1636 16685 129.17
25.28 18049 134.347
25.3965 19882 141.004
25.513 20911 144.606
25.6296 22224 149.077
25.7462 22771 150.901
25.8628 23435 153.085
25.9795 23722 154.019
26.0962 23608 153.649
26.213 23182 152.256
26.3298 22264 149.211
26.4466 21395 146.27
26.5635 21065 145.138
26.6804 20803 144.232
26.7973 20761 144.087
26.9143 20726 143.965
27.0313 20711 143.913
27.1483 21125 145.344
27.2653 21701 147.313
27.3824 22220 149.064
27.4996 22062 148.533
27.6167 21956 148.176
27.7339 21239 145.736
27.8511 20893 144.544
27.9683 20827 144.316
28.0855 19891 141.035
28.2028 19414 139.334
28.3201 19152 138.391
28.4374 18690 136.711
28.5547 18482 135.949
28.6721 18938 137.615
28.7894 19751 140.538
28.9068 20218 142.19
29.0242 20976 144.831
29.1416 22083 148.603
29.259 22215 149.047
29.3764 22304 149.345
29.4939 21987 148.28
29.6113 21838 147.777
29.7288 20975 144.827
29.8463 20646 143.687
29.9638 19947 141.234
30.0812 19412 139.327
30.1987 19317 138.986
30.3162 19486 139.592
30.4337 19587 139.954
30.5512 19600 140
30.6687 20079 141.7
30.7862 20535 143.3
30.9037 20800 144.222
31.0212 20931 144.675
31.1387 20564 143.402
31.2562 20236 142.253
31.3737 20083 141.715
31.4912 19509 139.675
31.6087 19340 139.068
31.7262 18595 136.363
31.8436 18114 134.588
31.9611 17887 133.742
32.0785 17759 133.263
32.1959 18380 135.573
32.3134 18782 137.047
32.4308 19554 139.836
32.5482 20267 142.362
32.6655 20738 144.007
32.7829 21125 145.344
32.9002 21100 145.258
33.0176 21049 145.083
33.1349 21194 145.582
33.2522 20787 144.177
33.3694 20218 142.19
33.4867 19591 139.968
33.6039 18802 137.12
33.7211 18557 136.224
33.8383 18376 135.558
33.9554 18265 135.148
34.0725 18216 134.967
34.1896 18521 136.092
34.3067 18844 137.273
34.4237 19413 139.331
34.5407 19902 141.074
34.6577 19939 141.206
34.7746 19719 140.424
34.8915 19514 139.693
35.0084 19255 138.762
35.1252 18969 137.728
35.242 18545 136.18
35.3587 18042 134.321
35.4755 17723 133.128
35.5921 17173 131.046
35.7088 17111 130.809
35.8254 17360 131.757
35.9419 17594 132.642
36.0584 18043 134.324
36.1749 18297 135.266
36.2913 18614 136.433
36.4077 18556 136.22
36.524 18207 134.933
36.6403 17626 132.763
36.7565 17178 131.065
36.8727 16284 127.609
36.9889 15165 123.146
37.1049 13873 117.784
37.221 0 1
37.3369 0 1
37.4529 0 1
37.5687 0 1
37.6845 0 1
37.8003 0 1
37.916 0 1
38.0316 0 1
38.1472 0 1
40.5851 0 1
40.7008 0 1
40.8164 0 1
40.9322 0 1
41.048 0 1
41.1639 0 1
41.2798 0 1
41.3958 0 1
41.5118 0 1
41.6279 0 1
41.744 10160 100.797
41.8602 11292 106.264
41.9765 12508 111.839
42.0928 13367 115.616
42.2091 13146 114.656
42.3255 12815 113.203
42.4419 12736 112.854
42.5584 12706 112.721
42.675 12832 113.278
42.7915 13583 116.546
42.9081 14267 119.445
43.0248 14722 121.334
43.1415 15313 123.746
43.2582 15624 124.996
43.375 15988 126.444
43.4918 16242 127.444
43.6087 16217 127.346
43.7256 16015 126.55
43.8425 16111 126.929
43.9595 16002 126.499
44.0765 15440 124.258
44.1935 15408 124.129
44.3106 15012 122.523
44.4277 14979 122.389
44.5448 14174 119.055
44.6619 14487 120.362
44.7791 14881 121.988
44.8963 15368 123.968
45.0136 16099 126.882
45.1308 16618 128.911
45.2481 17121 130.847
45.3654 16984 130.323
45.4827 17034 130.514
45.6001 16899 129.996
45.7174 16675 129.132
45.8348 15757 125.527
45.9522 15003 122.487
46.0697 14316 119.649
46.1871 13709 117.085
46.3046 13729 117.171
46.422 14209 119.202
46.5395 14518 120.491
46.657 15268 123.564
46.7745 15942 126.262
46.892 16003 126.503
47.0096 16364 127.922
47.1271 16786 129.561
47.2446 16746 129.406
47.3622 16439 128.215
47.4797 16432 128.187
47.5973 16389 128.02
47.7149 15950 126.293
47.8324 15844 125.873
47.95 15390 124.056
48.0675 15213 123.341
48.1851 14499 120.412
48.3027 14959 122.307
48.4202 15348 123.887
48.5378 15803 125.71
48.6554 16312 127.718
48.7729 16756 129.445
48.8904 16993 130.357
49.008 16980 130.307
49.1255 16593 128.814
49.243 16047 126.677
49.3605 15089 122.837
49.478 14104 118.76
49.5955 13298 115.317
49.713 12678 112.597
49.8304 12730 112.827
49.9479 13304 115.343
50.0653 13997 118.309
50.1827 14715 121.305
50.3001 15295 123.673
50.4175 15618 124.972
50.5348 16247 127.464
50.6521 16337 127.816
50.7694 16518 128.522
50.8867 16301 127.675
51.004 16211 127.322
51.1212 15902 126.103
51.2384 15748 125.491
51.3556 15593 124.872
51.4727 15439 124.254
51.5899 14573 120.719
51.707 14382 119.925
51.824 14530 120.54
51.9411 15104 122.898
52.0581 15961 126.337
52.175 16418 128.133
52.2919 16691 129.194
52.4088 16653 129.047
52.5257 16744 129.399
52.6425 16770 129.499
52.7593 16538 128.6
52.876 16021 126.574
52.9927 14911 122.111
53.1094 13840 117.644
53.226 13089 114.407
53.3426 12452 111.589
53.4591 12118 110.082
53.5756 12276 110.797
53.692 12226 110.571
53.8084 12193 110.422
53.9248 12036 109.709
54.0411 11463 107.065
54.1573 11269 106.156
54.2735 0 1
54.3896 0 1
54.5057 0 1
54.6217 0 1
54.7377 0 1
54.8537 0 1
54.9695 0 1
55.0853 0 1
55.2011 0 1
55.3168 0 1
55.4324 0 1
57.824 0 1
57.9396 0 1
58.0553 0 1
58.1711 0 1
58.2869 0 1
58.4028 0 1
58.5187 0 1
58.6347 0 1
58.7508 0 1
58.8669 0 1
58.983 11707 108.199
59.0992 13828 117.593
59.2155 15532 124.627
59.3318 16933 130.127
59.4482 17885 133.735
59.5646 19138 138.34
59.681 19806 140.734
59.7975 19828 140.812
59.9141 20414 142.878
60.0306 20376 142.745
60.1473 19828 140.812
60.2639 19652 140.186
60.3807 19044 138
60.4974 18888 137.434
60.6142 18889 137.437
60.731 19541 139.789
60.8479 19960 141.28
60.9648 20539 143.314
61.0818 20675 143.788
61.1987 20724 143.958
61.3158 20471 143.077
61.4328 19781 140.645
61.5499 18957 137.684
61.667 17499 132.284
61.7841 16364 127.922
61.9013 15377 124.004
62.0185 15109 122.919
62.1357 15955 126.313
62.253 17197 131.137
62.3702 18397 135.636
62.4875 19181 138.495
62.6049 20082 141.711
62.7222 20909 144.599
62.8396 21560 146.833
62.9569 22000 148.324
63.0743 21866 147.872
63.1918 22373 149.576
63.3092 21835 147.767
63.4267 21739 147.442
63.5441 21181 145.537
63.6616 20437 142.958
63.7791 19808 140.741
63.8966 18974 137.746
64.0142 18592 136.352
64.1317 18518 136.081
64.2492 18777 137.029
64.3668 19348 139.097
64.4843 19921 141.142
64.6019 20134 141.894
64.7195 20365 142.706
64.837 20090 141.739
64.9546 20215 142.179
65.0722 19462 139.506
65.1898 17975 134.071
65.3074 16002 126.499
65.4249 14600 120.83
65.5425 14036 118.474
65.6601 14236 119.315
65.7777 15933 126.226
65.8952 17554 132.492
66.0128 18393 135.621
66.1304 19481 139.574
66.2479 20211 142.165
66.3655 21210 145.637
66.483 21755 147.496
66.6005 21786 147.601
66.718 21710 147.343
66.8355 21700 147.309
66.953 21483 146.571
67.0705 21159 145.461
67.1879 20616 143.583
67.3054 20009 141.453
67.4228 18777 137.029
67.5402 17896 133.776
67.6576 17137 130.908
67.7749 17369 131.792
67.8923 17752 133.237
68.0096 18459 135.864
68.1269 19414 139.334
68.2442 19902 141.074
68.3614 19646 140.164
68.4787 19787 140.666
68.5958 19740 140.499
68.713 19185 138.51
68.8302 17205 131.168
68.9473 15348 123.887
69.0643 14070 118.617
69.1814 13405 115.78
69.2984 13757 117.29
69.4154 15425 124.197
69.5323 17145 130.939
69.6492 18528 136.118
69.7661 19361 139.144
69.8829 20110 141.81
69.9997 19855 140.908
70.1165 19296 138.91
70.2332 18274 135.181
70.3499 18129 134.644
70.4665 17151 130.962
70.5831 16411 128.105
70.6996 15761 125.543
70.8161 14998 122.466
70.9326 13927 118.013
71.049 12467 111.656
71.1653 10611 103.01
71.2817 9713 98.5546
71.3979 8765 93.6216
71.5141 8500 92.1954
71.6303 8097 89.9833
71.7464 7290 85.3815
71.8624 0 1
71.9784 0 1
72.0944 0 1
72.2102 0 1
72.3261 0 1
72.4418 0 1
72.5575 0 1
72.6732 0 1
75.1054 0 1
75.2209 0 1
75.3365 0 1
75.4521 0 1
75.5678 0 1
75.6835 0 1
75.7993 0 1
75.9151 0 1
76.031 0 1
76.147 14444 120.183
76.263 15244 123.467
76.3791 15239 123.446
76.4952 14924 122.164
76.6113 14571 120.71
76.7276 14361 119.837
76.8438 14950 122.27
76.9601 15877 126.004
77.0765 16388 128.016
77.1929 17302 131.537
77.3093 17836 133.551
77.4258 17776 133.327
77.5423 17667 132.917
77.6589 17427 132.011
77.7755 16057 126.716
77.8921 13961 118.157
78.0088 12357 111.162
78.1256 11362 106.593
78.2423 10648 103.189
78.3591 11424 106.883
78.4759 13699 117.043
78.5928 15426 124.201
78.7097 16620 128.919
78.8266 17608 132.695
78.9436 18515 136.07
79.0606 18650 136.565
79.1776 18991 137.808
79.2946 19395 139.266
79.4117 19402 139.291
79.5288 19290 138.888
79.6459 19013 137.888
79.7631 18932 137.594
79.8802 18228 135.011
79.9974 17673 132.94
80.1147 16677 129.139
80.2319 15699 125.296
80.3491 15337 123.843
80.4664 15500 124.499
80.5837 16301 127.675
80.701 16810 129.653
80.8183 17381 131.837
80.9357 18179 134.83
81.053 18183 134.844
81.1704 18165 134.778
81.2877 18025 134.257
81.4051 17890 133.754
81.5225 16034 126.625
81.6399 13758 117.295
81.7573 11877 108.982
81.8747 11095 105.333
81.9922 10967 104.723
82.1096 12954 113.816
82.227 15473 124.391
82.3444 16753 129.433
82.4619 18328 135.381
82.5793 19407 139.309
82.6967 19334 139.047
82.8142 19718 140.421
82.9316 20129 141.877
83.049 20145 141.933
83.1664 19751 140.538
83.2838 19852 140.897
83.4012 19335 139.05
83.5186 18815 137.168
83.636 18397 135.636
83.7534 18060 134.387
83.8708 16943 130.165
83.9881 16040 126.649
84.1055 15845 125.877
84.2228 16188 127.232
84.3401 16535 128.588
84.4575 17315 131.586
84.5747 18397 135.636
84.692 18535 136.143
84.8093 19149 138.38
84.9265 18515 136.07
85.0437 17305 131.548
85.1609 14718 121.318
85.2781 12537 111.969
85.3952 11115 105.428
85.5123 10761 103.735
85.6294 11751 108.402
85.7465 14873 121.955
85.8636 16517 128.518
85.9806 17741 133.195
86.0976 18669 136.635
86.2145 19121 138.279
86.3315 19218 138.629
86.4484 19962 141.287
86.5652 20178 142.049
86.682 20012 141.464
86.7988 20192 142.099
86.9156 19861 140.929
87.0323 19381 139.216
87.149 19626 140.093
87.2657 18103 134.547
87.3823 16473 128.347
87.4988 14630 120.955
87.6154 13440 115.931
87.7318 13400 115.758
87.8483 12947 113.785
87.9647 13090 114.412
88.081 13811 117.52
88.1973 13824 117.576
88.3136 13606 116.645
88.4298 13100 114.455
88.546 12118 110.082
88.6621 10509 102.513
88.7781 7725 87.892
88.8942 0 1
89.0101 0 1
89.126 0 1
89.2419 0 1
89.3577 0 1
89.4734 0 1
89.5891 0 1
89.7047 0 1
89.8203 0 1
89.9358 0 1
92.3269 0 1
92.4424 0 1
92.558 0 1
92.6736 0 1
92.7893 0 1
92.905 0 1
93.0208 0 1
93.1366 0 1
93.2525 0 1
93.3685 0 1
93.4845 0 1
93.6005 15087 122.829
93.7167 16237 127.424
93.8328 16644 129.012
93.949 16920 130.077
94.0653 17171 131.038
94.1816 16922 130.085
94.2979 15539 124.656
94.4143 13324 115.43
94.5307 12273 110.784
94.6472 11315 106.372
94.7637 11542 107.434
94.8803 13514 116.25
94.9969 15901 126.099
95.1135 17332 131.651
95.2302 18259 135.126
95.3469 19058 138.051
95.4637 19854 140.904
95.5805 20223 142.208
95.6973 20283 142.418
95.8142 20348 142.646
95.9311 20236 142.253
96.048 20147 141.94
96.1649 19812 140.755
96.2819 19630 140.107
96.3989 19195 138.546
96.516 19143 138.358
96.633 18047 134.339
96.7501 17112 130.813
96.8673 16596 128.825
96.9844 16149 127.079
97.1016 16172 127.169
97.2188 16721 129.31
97.336 17365 131.776
97.4532 18415 135.702
97.5704 18997 137.83
97.6877 18825 137.204
97.805 18882 137.412
97.9223 16819 129.688
98.0396 13970 118.195
98.1569 12291 110.865
98.2743 10818 104.01
98.3916 10505 102.494
98.509 12194 110.426
98.6264 15165 123.146
98.7438 16964 130.246
98.8612 18047 134.339
98.9786 19065 138.076
99.096 19456 139.485
99.2134 19840 140.855
99.3308 20343 142.629
99.4482 20622 143.604
99.5656 20525 143.265
99.6831 20636 143.652
99.8005 20597 143.517
99.9179 20347 142.643
100.035 19548 139.814
100.153 19463 139.51
100.27 18564 136.25
100.388 17385 131.852
100.505 16806 129.638
100.622 16742 129.391
100.74 17300 131.529
100.857 17968 134.045
100.975 18772 137.011
101.092 19308 138.953
101.209 19209 138.597
101.327 19040 137.986
101.444 18312 135.322
101.561 15714 125.355
101.679 13204 114.909
101.796 11691 108.125
101.913 10723 103.552
102.03 11727 108.291
102.148 14770 121.532
102.265 16977 130.296
102.382 18943 137.634
102.499 19479 139.567
102.616 20301 142.482
102.733 20380 142.759
102.851 20973 144.821
102.968 21291 145.914
103.085 21806 147.669
103.202 21836 147.77
103.319 21504 146.642
103.436 21000 144.914
103.552 20563 143.398
103.669 20029 141.524
103.786 19225 138.654
103.903 17745 133.21
104.02 17121 130.847
104.137 17671 132.932
104.253 17838 133.559
104.37 19385 139.23
104.487 19863 140.936
104.603 20205 142.144
104.72 19924 141.152
104.836 17995 134.145
104.953 16127 126.992
105.069 13273 115.209
105.186 11288 106.245
105.302 10040 100.2
105.418 9311 96.4935
105.535 10018 100.09
105.651 11465 107.075
105.767 12075 109.886
105.883 12570 112.116
105.999 11928 109.215
106.115 0 1
106.231 0 1
106.347 0 1
106.463 0 1
106.579 0 1
106.694 0 1
106.81 0 1
106.926 0 1
107.041 0 1
107.157 0 1
109.576 0 1
109.692 0 1
109.807 0 1
109.923 0 1
110.039 0 1
110.155 0 1
110.27 0 1
110.386 0 1
110.502 0 1
110.618 6504 80.6474
110.735 9998 99.99
110.851 12789 113.088
110.967 14287 119.528
111.083 15383 124.028
111.199 16372 127.953
111.316 17288 131.484
111.432 17536 132.424
111.549 18078 134.454
111.665 18274 135.181
111.782 18413 135.695
111.898 18247 135.081
112.015 17877 133.705
112.132 17465 132.155
112.248 16847 129.796
112.365 15961 126.337
112.482 14841 121.824
112.599 15237 123.438
112.716 15191 123.252
112.832 15588 124.852
112.949 16076 126.791
113.066 16368 127.937
113.183 16810 129.653
113.3 17003 130.396
113.417 16621 128.922
113.534 15860 125.936
113.652 13800 117.473
113.769 11647 107.921
113.886 9962 99.8098
114.003 9156 95.687
114.12 9904 99.5188
114.238 12360 111.176
114.355 14841 121.824
114.472 15460 124.338
114.589 17924 133.881
114.707 18088 134.492
114.824 18381 135.577
114.942 18680 136.675
115.059 18884 137.419
115.176 18839 137.255
115.294 18659 136.598
115.411 18434 135.772
115.529 17981 134.093
115.646 17585 132.608
115.764 16502 128.46
115.881 16123 126.976
115.999 15094 122.858
116.116 14604 120.847
116.234 14717 121.314
116.351 15187 123.236
116.469 15752 125.507
116.586 16212 127.326
116.704 16146 127.067
116.821 16647 129.023
116.939 16868 129.877
117.056 16226 127.381
117.174 14791 121.618
117.291 12729 112.823
117.409 10975 104.762
117.526 10064 100.319
117.644 9742 98.7016
117.761 11764 108.462
117.879 14311 119.629
117.996 15498 124.491
118.114 16859 129.842
118.231 17957 134.004
118.349 17750 133.229
118.466 18297 135.266
118.584 18339 135.422
118.701 18496 136
118.819 18407 135.672
118.936 17933 133.914
119.053 17569 132.548
119.171 17190 131.111
119.288 16498 128.445
119.405 15901 126.099
119.523 15154 123.102
119.64 14382 119.925
119.757 13885 117.835
119.875 14025 118.427
119.992 14304 119.599
120.109 14859 121.897
120.226 15207 123.317
120.343 15278 123.604
120.46 15091 122.845
120.578 15483 124.431
120.695 15431 124.222
120.812 14536 120.565
120.929 12371 111.225
121.046 10616 103.034
121.163 9698 98.4784
121.279 9205 95.9427
121.396 9894 99.4686
121.513 11628 107.833
121.63 12699 112.69
121.747 13302 115.334
121.863 13664 116.893
121.98 13918 117.975
122.097 13859 117.724
122.213 13909 117.936
122.33 13633 116.76
122.446 12888 113.525
122.563 12609 112.29
122.679 12057 109.804
122.795 11425 106.888
122.912 10633 103.116
123.028 9533 97.6371
123.144 8623 92.8601
123.26 8010 89.4986
123.377 0 1
123.493 0 1
123.609 0 1
123.725 0 1
123.84 0 1
123.956 0 1
124.072 0 1
124.188 0 1
124.303 0 1
124.419 0 1
126.852 0 1
126.968 0 1
127.083 0 1
127.199 0 1
127.315 0 1
127.431 0 1
127.547 0 1
127.663 0 1
127.779 0 1
127.895 0 1
128.011 0 1
128.127 0 1
128.243 0 1
128.359 16591 128.806
128.476 16950 130.192
128.592 16539 128.604
128.708 15995 126.471
128.825 15652 125.108
128.941 15886 126.04
129.058 15856 125.921
129.174 16429 128.176
129.291 16894 129.977
129.408 16864 129.861
129.524 17238 131.294
129.641 17180 131.072
129.758 17101 130.771
129.875 16588 128.794
129.992 14148 118.945
130.108 12746 112.898
130.225 11266 106.141
130.342 10690 103.392
130.459 11149 105.589
130.576 13293 115.295
130.693 14811 121.7
130.81 15766 125.563
130.928 16520 128.53
131.045 17035 130.518
131.162 17069 130.648
131.279 17346 131.704
131.396 17234 131.278
131.513 17257 131.366
131.631 17180 131.072
131.748 16798 129.607
131.865 16586 128.787
131.983 16129 127
132.1 16101 126.89
132.217 15488 124.451
132.335 14785 121.594
132.452 14997 122.462
132.57 15238 123.442
132.687 15765 125.559
132.804 15765 125.559
132.922 16449 128.254
133.039 16630 128.957
133.157 16522 128.538
133.274 16484 128.39
133.392 16357 127.894
133.509 14589 120.785
133.627 13029 114.145
133.744 11602 107.713
133.862 10421 102.083
133.979 10544 102.684
134.097 12002 109.554
134.214 13746 117.243
134.332 14642 121.004
134.449 15370 123.976
134.567 15603 124.912
134.684 16166 127.146
134.802 16108 126.917
134.919 16151 127.087
135.037 16070 126.768
135.154 16253 127.487
135.272 16070 126.768
135.389 16228 127.389
135.507 15797 125.686
135.624 15575 124.8
135.742 15188 123.24
135.859 15002 122.483
135.977 14843 121.832
136.094 15196 123.272
136.211 15433 124.23
136.329 15803 125.71
136.446 16484 128.39
136.564 16522 128.538
136.681 16690 129.19
136.798 16442 128.226
136.915 16762 129.468
137.033 15824 125.793
137.15 13778 117.38
137.267 12449 111.575
137.384 11318 106.386
137.502 10455 102.25
137.619 10853 104.178
137.736 12445 111.557
137.853 13111 114.503
137.97 14417 120.071
138.087 14495 120.395
138.204 15142 123.053
138.321 15436 124.242
138.438 15730 125.419
138.555 16005 126.511
138.672 15464 124.354
138.788 14923 122.16
138.905 14047 118.52
139.022 13489 116.142
139.139 12917 113.653
139.255 12446 111.562
139.372 11806 108.655
139.488 11079 105.257
139.605 10475 102.347
139.721 10508 102.509
139.838 10661 103.252
139.954 10742 103.644
140.071 10744 103.653
140.187 10099 100.494
140.303 9860 99.2975
140.419 9302 96.4469
140.535 9008 94.9105
140.652 8523 92.3201
140.768 0 1
140.884 0 1
141 0 1
141.115 0 1
141.231 0 1
141.347 0 1
141.463 0 1
141.578 0 1
141.694 0 1
144.104 0 1
144.219 0 1
144.335 0 1
144.45 0 1
144.566 0 1
144.682 0 1
144.798 0 1
144.914 0 1
145.03 0 1
145.146 10994 104.852
145.262 11667 108.014
145.378 12058 109.809
145.494 12328 111.032
145.61 12427 111.476
145.726 12307 110.937
145.842 11861 108.908
145.959 10739 103.629
146.075 9513 97.5346
146.192 8719 93.3756
146.308 8271 90.945
146.425 8282 91.0055
146.541 8776 93.6803
146.658 9880 99.3982
146.774 10318 101.578
146.891 10808 103.962
147.008 11372 106.64
147.125 11417 106.85
147.241 11589 107.652
147.358 11853 108.871
147.475 11870 108.95
147.592 11531 107.382
147.709 11475 107.121
147.826 11730 108.305
147.943 11079 105.257
148.06 11391 106.729
148.177 11245 106.042
148.294 11283 106.221
148.411 11137 105.532
148.528 11505 107.261
148.645 11657 107.968
148.762 11867 108.936
148.88 12091 109.959
148.997 12395 111.333
149.114 11750 108.397
149.231 12131 110.141
149.349 12370 111.221
149.466 11475 107.121
149.583 10742 103.644
149.701 9868 99.3378
149.818 8896 94.3186
149.935 8337 91.3072
150.053 8371 91.4932
150.17 8721 93.3863
150.287 9382 96.8607
150.405 10120 100.598
150.522 10527 102.601
150.64 10879 104.302
150.757 11016 104.957
150.875 11378 106.668
150.992 11623 107.81
151.11 11760 108.444
151.227 11543 107.438
151.344 11460 107.051
151.462 11212 105.887
151.579 11202 105.84
151.697 11185 105.759
151.814 10847 104.149
151.932 10954 104.661
152.049 10873 104.274
152.167 11045 105.095
152.284 11237 106.005
152.402 11425 106.888
152.519 11490 107.191
152.636 11624 107.815
152.754 11631 107.847
152.871 11689 108.116
152.989 11429 106.907
153.106 10774 103.798
153.223 10082 100.409
153.341 9125 95.5249
153.458 8566 92.5527
153.575 8070 89.8332
153.693 8494 92.1629
153.81 9299 96.4313
153.927 9849 99.2421
154.044 10373 101.848
154.162 10761 103.735
154.279 11211 105.882
154.396 11487 107.177
154.513 11804 108.646
154.63 11748 108.388
154.747 11787 108.568
154.864 11794 108.6
154.981 11545 107.448
155.098 11679 108.069
155.215 11332 106.452
155.332 11273 106.174
155.449 10914 104.47
155.566 10845 104.139
155.683 11022 104.986
155.8 10813 103.986
155.917 10521 102.572
156.033 10236 101.173
156.15 0 1
156.267 0 1
156.383 0 1
156.5 0 1
156.617 0 1
156.733 0 1
156.85 0 1
156.966 0 1
157.082 0 1
157.199 0 1
157.315 0 1
157.431 0 1
157.547 0 1
157.664 0 1
157.78 0 1
157.896 0 1
158.012 0 1
158.128 0 1
158.244 0 1
158.359 0 1
158.475 0 1
158.591 0 1
158.706 0 1
