
6.15755 0 1
6.2731 0 1
6.3887 0 1
6.50437 0 1
6.62009 0 1
6.73587 0 1
6.8517 0 1
6.96759 0 1
7.08353 0 1
7.19952 0 1
7.31557 0 1
7.43166 0 1
7.54781 0 1
7.664 0 1
7.78024 0 1
7.89653 0 1
8.01286 0 1
8.12924 0 1
8.24567 0 1
8.36213 0 1
8.47864 0 1
8.59519 0 1
8.71178 0 1
8.82841 0 1
8.94508 0 1
9.06179 0 1
9.17853 0 1
9.29531 0 1
9.41212 0 1
9.52897 0 1
9.64584 0 1
9.76276 0 1
9.8797 0 1
9.99667 0 1
10.1137 0 1
10.2307 0 1
10.3478 0 1
10.4648 0 1
10.5819 0 1
10.6991 0 1
10.8162 0 1
10.9334 0 1
11.0506 0 1
11.1678 0 1
11.285 0 1
11.4023 0 1
11.5196 0 1
11.6369 0 1
11.7542 0 1
11.8715 0 1
11.9888 0 1
12.1062 0 1
12.2235 0 1
12.3409 0 1
12.4582 0 1
12.5756 0 1
12.693 0 1
12.8104 0 1
12.9278 0 1
13.0452 0 1
13.1626 0 1
13.28 0 1
13.3974 0 1
13.5149 0 1
13.6323 0 1
13.7497 0 1
13.8671 0 1
13.9845 0 1
14.1019 0 1
14.2193 0 1
14.3367 0 1
14.4541 0 1
14.5714 0 1
14.6888 0 1
14.8062 0 1
14.9235 0 1
15.0408 0 0
15.1581 0 0
15.2755 0 0
15.3927 0 0
15.51 0 0
15.6273 0 0
15.7445 0 0
15.8617 0 0
15.9789 0 0
16.0961 0 0
16.2132 0 0
16.3304 0 0
16.4475 0 0
16.5646 0 0
16.6816 0 0
16.7986 0 0
16.9156 0 0
17.0326 0 0
17.1496 0 0
17.2665 0 0
17.3833 0 0
17.5002 0 0
17.617 0 0
17.7338 0 0
17.8505 0 0
17.9672 0 0
18.0839 0 0
18.2005 0 0
18.3171 0 0
18.4337 0 0
18.5502 0 0
18.6666 0 0
18.7831 0 0
18.8994 0 0
19.0158 0 0
19.1321 0 0
19.2483 0 0
19.3645 0 0
19.4806 0 0
19.5967 0 0
19.7128 0 0
19.8288 0 0
19.9447 0 0
20.0606 0 1
20.1764 0 1
20.2922 0 1
20.4079 0 1
20.5236 0 1
20.6392 0 1
20.7548 0 1
20.8702 0 1
23.3078 0 1
23.4233 0 1
23.539 0 1
23.6547 0 1
23.7704 0 1
23.8862 0 1
24.0021 0 1
24.118 0 1
24.234 0 1
24.35 0 1
24.4661 310 17.6068
24.5822 336 18.3303
24.6984 418 20.445
24.8146 466 21.587
24.9309 676 26
25.0472 862 29.3598
25.1636 939 30.6431
25.28 1056 32.4962
25.3965 1065 32.6343
25.513 1068 32.6803
25.6296 1098 33.1361
25.7462 1061 32.573
25.8628 990 31.4643
25.9795 1060 32.5576
26.0962 1004 31.686
26.213 1058 32.5269
26.3298 991 31.4802
26.4466 990 31.4643
26.5635 910 30.1662
26.6804 847 29.1033
26.7973 737 27.1477
26.9143 711 26.6646
27.0313 683 26.1343
27.1483 692 26.3059
27.2653 583 24.1454
27.3824 587 24.2281
27.4996 585 24.1868
27.6167 583 24.1454
27.7339 559 23.6432
27.8511 696 26.3818
27.9683 839 28.9655
28.0855 1034 32.1559
28.2028 1161 34.0735
28.3201 1223 34.9714
28.4374 1240 35.2136
28.5547 1334 36.524
28.6721 1379 37.1349
28.7894 1459 38.1969
28.9068 1343 36.647
29.0242 1326 36.4143
29.1416 1325 36.4005
29.259 1270 35.6371
29.3764 1222 34.9571
29.4939 1134 33.6749
29.6113 1054 32.4654
29.7288 893 29.8831
29.8463 864 29.3939
29.9638 800 28.2843
30.0812 689 26.2488
30.1987 683 26.1343
30.3162 696 26.3818
30.4337 651 25.5147
30.5512 687 26.2107
30.6687 631 25.1197
30.7862 655 25.593
30.9037 575 23.9792
31.0212 565 23.7697
31.1387 575 23.9792
31.2562 579 24.0624
31.3737 625 25
31.4912 717 26.7769
31.6087 746 27.313
31.7262 756 27.4955
31.8436 768 27.7128
31.9611 772 27.7849
32.0785 782 27.9643
32.1959 719 26.8142
32.3134 761 27.5862
32.4308 758 27.5318
32.5482 739 27.1846
32.6655 690 26.2679
32.7829 622 24.9399
32.9002 587 24.2281
33.0176 543 23.3024
33.1349 530 23.0217
33.2522 529 23
33.3694 504 22.4499
33.4867 517 22.7376
33.6039 489 22.1133
33.7211 521 22.8254
33.8383 574 23.9583
33.9554 565 23.7697
34.0725 528 22.9783
34.1896 585 24.1868
34.3067 590 24.2899
34.4237 615 24.7992
34.5407 577 24.0208
34.6577 638 25.2587
34.7746 657 25.632
34.8915 647 25.4362
35.0084 659 25.671
35.1252 712 26.6833
35.242 711 26.6646
35.3587 684 26.1534
35.4755 657 25.632
35.5921 623 24.96
35.7088 642 25.3377
35.8254 576 24
35.9419 587 24.2281
36.0584 506 22.4944
36.1749 504 22.4499
36.2913 463 21.5174
36.4077 481 21.9317
36.524 418 20.445
36.6403 323 17.9722
36.7565 286 16.9115
36.8727 301 17.3494
36.9889 317 17.8045
37.1049 263 16.2173
37.221 0 1
37.3369 0 1
37.4529 0 1
37.5687 0 1
37.6845 0 1
37.8003 0 1
37.916 0 1
38.0316 0 1
38.1472 0 1
40.5851 0 1
40.7008 0 1
40.8164 0 1
40.9322 0 1
41.048 0 1
41.1639 0 1
41.2798 0 1
41.3958 0 1
41.5118 0 1
41.6279 0 1
41.744 215 14.6629
41.8602 293 17.1172
41.9765 343 18.5203
42.0928 354 18.8149
42.2091 376 19.3907
42.3255 417 20.4206
42.4419 416 20.3961
42.5584 403 20.0749
42.675 444 21.0713
42.7915 452 21.2603
42.9081 543 23.3024
43.0248 525 22.9129
43.1415 571 23.8956
43.2582 534 23.1084
43.375 508 22.5389
43.4918 526 22.9347
43.6087 510 22.5832
43.7256 520 22.8035
43.8425 502 22.4054
43.9595 505 22.4722
44.0765 474 21.7715
44.1935 536 23.1517
44.3106 470 21.6795
44.4277 452 21.2603
44.5448 495 22.2486
44.6619 473 21.7486
44.7791 402 20.0499
44.8963 396 19.8997
45.0136 390 19.7484
45.1308 428 20.6882
45.2481 406 20.1494
45.3654 399 19.975
45.4827 392 19.799
45.6001 440 20.9762
45.7174 441 21
45.8348 429 20.7123
45.9522 461 21.4709
46.0697 468 21.6333
46.1871 479 21.8861
46.3046 498 22.3159
46.422 537 23.1733
46.5395 535 23.1301
46.657 524 22.891
46.7745 564 23.7487
46.892 473 21.7486
47.0096 452 21.2603
47.1271 430 20.7364
47.2446 462 21.4942
47.3622 451 21.2368
47.4797 489 22.1133
47.5973 465 21.5639
47.7149 437 20.9045
47.8324 443 21.0476
47.95 449 21.1896
48.0675 443 21.0476
48.1851 451 21.2368
48.3027 472 21.7256
48.4202 442 21.0238
48.5378 437 20.9045
48.6554 409 20.2237
48.7729 433 20.8087
48.8904 411 20.2731
49.008 362 19.0263
49.1255 381 19.5192
49.243 423 20.567
49.3605 423 20.567
49.478 450 21.2132
49.5955 472 21.7256
49.713 478 21.8632
49.8304 466 21.587
49.9479 457 21.3776
50.0653 486 22.0454
50.1827 439 20.9523
50.3001 435 20.8567
50.4175 366 19.1311
50.5348 376 19.3907
50.6521 407 20.1742
50.7694 409 20.2237
50.8867 452 21.2603
51.004 428 20.6882
51.1212 450 21.2132
51.2384 442 21.0238
51.3556 424 20.5913
51.4727 431 20.7605
51.5899 384 19.5959
51.707 423 20.567
51.824 444 21.0713
51.9411 417 20.4206
52.0581 424 20.5913
52.175 406 20.1494
52.2919 418 20.445
52.4088 402 20.0499
52.5257 410 20.2485
52.6425 335 18.303
52.7593 391 19.7737
52.876 378 19.4422
52.9927 369 19.2094
53.1094 367 19.1572
53.226 381 19.5192
53.3426 364 19.0788
53.4591 362 19.0263
53.5756 337 18.3576
53.692 260 16.1245
53.8084 235 15.3297
53.9248 217 14.7309
54.0411 187 13.6748
54.1573 193 13.8924
54.2735 0 1
54.3896 0 1
54.5057 0 1
54.6217 0 1
54.7377 0 1
54.8537 0 1
54.9695 0 1
55.0853 0 1
55.2011 0 1
55.3168 0 1
55.4324 0 1
57.824 0 1
57.9396 0 1
58.0553 0 1
58.1711 0 1
58.2869 0 1
58.4028 0 1
58.5187 0 1
58.6347 0 1
58.7508 0 1
58.8669 0 1
58.983 794 28.178
59.0992 739 27.1846
59.2155 931 30.5123
59.3318 1047 32.3574
59.4482 1185 34.4238
59.5646 1377 37.108
59.681 1469 38.3275
59.7975 1498 38.704
59.9141 1345 36.6742
60.0306 1275 35.7071
60.1473 1162 34.0881
60.2639 1198 34.6121
60.3807 999 31.607
60.4974 938 30.6268
60.6142 827 28.7576
60.731 775 27.8388
60.8479 776 27.8568
60.9648 651 25.5147
61.0818 614 24.779
61.1987 552 23.4947
61.3158 567 23.8118
61.4328 513 22.6495
61.5499 489 22.1133
61.667 468 21.6333
61.7841 485 22.0227
61.9013 431 20.7605
62.0185 455 21.3307
62.1357 492 22.1811
62.253 464 21.5407
62.3702 452 21.2603
62.4875 436 20.8806
62.6049 416 20.3961
62.7222 424 20.5913
62.8396 448 21.166
62.9569 481 21.9317
63.0743 492 22.1811
63.1918 502 22.4054
63.3092 472 21.7256
63.4267 499 22.3383
63.5441 499 22.3383
63.6616 488 22.0907
63.7791 481 21.9317
63.8966 465 21.5639
64.0142 452 21.2603
64.1317 447 21.1424
64.2492 469 21.6564
64.3668 502 22.4054
64.4843 477 21.8403
64.6019 525 22.9129
64.7195 468 21.6333
64.837 476 21.8174
64.9546 423 20.567
65.0722 442 21.0238
65.1898 425 20.6155
65.3074 433 20.8087
65.4249 446 21.1187
65.5425 441 21
65.6601 461 21.4709
65.7777 448 21.166
65.8952 487 22.0681
66.0128 415 20.3715
66.1304 378 19.4422
66.2479 344 18.5472
66.3655 380 19.4936
66.483 489 22.1133
66.6005 473 21.7486
66.718 464 21.5407
66.8355 473 21.7486
66.953 480 21.9089
67.0705 500 22.3607
67.1879 504 22.4499
67.3054 457 21.3776
67.4228 477 21.8403
67.5402 465 21.5639
67.6576 458 21.4009
67.7749 447 21.1424
67.8923 505 22.4722
68.0096 491 22.1585
68.1269 449 21.1896
68.2442 483 21.9773
68.3614 488 22.0907
68.4787 475 21.7945
68.5958 440 20.9762
68.713 412 20.2978
68.8302 431 20.7605
68.9473 413 20.3224
69.0643 436 20.8806
69.1814 411 20.2731
69.2984 410 20.2485
69.4154 422 20.5426
69.5323 409 20.2237
69.6492 407 20.1742
69.7661 384 19.5959
69.8829 343 18.5203
69.9997 330 18.1659
70.1165 372 19.2873
70.2332 368 19.1833
70.3499 389 19.7231
70.4665 285 16.8819
70.5831 317 17.8045
70.6996 259 16.0935
70.8161 249 15.7797
70.9326 261 16.1555
71.049 249 15.7797
71.1653 247 15.7162
71.2817 240 15.4919
71.3979 208 14.4222
71.5141 205 14.3178
71.6303 210 14.4914
71.7464 200 14.1421
71.8624 0 1
71.9784 0 1
72.0944 0 1
72.2102 0 1
72.3261 0 1
72.4418 0 1
72.5575 0 1
72.6732 0 1
75.1054 0 1
75.2209 0 1
75.3365 0 1
75.4521 0 1
75.5678 0 1
75.6835 0 1
75.7993 0 1
75.9151 0 1
76.031 0 1
76.147 339 18.412
76.263 386 19.6469
76.3791 417 20.4206
76.4952 415 20.3715
76.6113 408 20.199
76.7276 437 20.9045
76.8438 418 20.445
76.9601 422 20.5426
77.0765 423 20.567
77.1929 411 20.2731
77.3093 452 21.2603
77.4258 449 21.1896
77.5423 416 20.3961
77.6589 411 20.2731
77.7755 432 20.7846
77.8921 371 19.2614
78.0088 378 19.4422
78.1256 384 19.5959
78.2423 437 20.9045
78.3591 444 21.0713
78.4759 384 19.5959
78.5928 463 21.5174
78.7097 370 19.2354
78.8266 326 18.0555
78.9436 266 16.3095
79.0606 295 17.1756
79.1776 366 19.1311
79.2946 434 20.8327
79.4117 434 20.8327
79.5288 437 20.9045
79.6459 495 22.2486
79.7631 436 20.8806
79.8802 462 21.4942
79.9974 477 21.8403
80.1147 450 21.2132
80.2319 402 20.0499
80.3491 446 21.1187
80.4664 465 21.5639
80.5837 447 21.1424
80.701 505 22.4722
80.8183 448 21.166
80.9357 497 22.2935
81.053 432 20.7846
81.1704 503 22.4277
81.2877 465 21.5639
81.4051 409 20.2237
81.5225 426 20.6398
81.6399 403 20.0749
81.7573 485 22.0227
81.8747 428 20.6882
81.9922 455 21.3307
82.1096 424 20.5913
82.227 413 20.3224
82.3444 399 19.975
82.4619 381 19.5192
82.5793 338 18.3848
82.6967 325 18.0278
82.8142 375 19.3649
82.9316 443 21.0476
83.049 476 21.8174
83.1664 455 21.3307
83.2838 426 20.6398
83.4012 475 21.7945
83.5186 405 20.1246
83.636 456 21.3542
83.7534 465 21.5639
83.8708 468 21.6333
83.9881 492 22.1811
84.1055 495 22.2486
84.2228 446 21.1187
84.3401 498 22.3159
84.4575 445 21.095
84.5747 483 21.9773
84.692 475 21.7945
84.8093 508 22.5389
84.9265 454 21.3073
85.0437 493 22.2036
85.1609 474 21.7715
85.2781 469 21.6564
85.3952 462 21.4942
85.5123 460 21.4476
85.6294 474 21.7715
85.7465 441 21
85.8636 434 20.8327
85.9806 391 19.7737
86.0976 346 18.6011
86.2145 409 20.2237
86.3315 399 19.975
86.4484 465 21.5639
86.5652 495 22.2486
86.682 562 23.7065
86.7988 593 24.3516
86.9156 639 25.2784
87.0323 790 28.1069
87.149 834 28.8791
87.2657 1000 31.6228
87.3823 1166 34.1467
87.4988 1323 36.3731
87.6154 1460 38.2099
87.7318 1594 39.9249
87.8483 1543 39.281
87.9647 1667 40.8289
88.081 1727 41.5572
88.1973 1908 43.6807
88.3136 2008 44.8107
88.4298 1977 44.4635
88.546 2028 45.0333
88.6621 2171 46.594
88.7781 2190 46.7974
88.8942 0 1
89.0101 0 1
89.126 0 1
89.2419 0 1
89.3577 0 1
89.4734 0 1
89.5891 0 1
89.7047 0 1
89.8203 0 1
89.9358 0 1
92.3269 0 1
92.4424 0 1
92.558 0 1
92.6736 0 1
92.7893 0 1
92.905 0 1
93.0208 0 1
93.1366 0 1
93.2525 0 1
93.3685 0 1
93.4845 0 1
93.6005 1600 40
93.7167 1523 39.0256
93.8328 1426 37.7624
93.949 1476 38.4187
94.0653 1348 36.7151
94.1816 1423 37.7227
94.2979 1402 37.4433
94.4143 1523 39.0256
94.5307 1607 40.0874
94.6472 1547 39.3319
94.7637 1468 38.3145
94.8803 1390 37.2827
94.9969 1110 33.3167
95.1135 1081 32.8786
95.2302 1154 33.9706
95.3469 1443 37.9868
95.4637 1645 40.5586
95.5805 1900 43.589
95.6973 1804 42.4735
95.8142 1947 44.1248
95.9311 1942 44.0681
96.048 1931 43.9431
96.1649 1806 42.4971
96.2819 1937 44.0114
96.3989 1895 43.5316
96.516 1906 43.6578
96.633 1882 43.382
96.7501 1906 43.6578
96.8673 1861 43.1393
96.9844 1929 43.9204
97.1016 1791 42.3202
97.2188 1829 42.7668
97.336 1759 41.9404
97.4532 1684 41.0366
97.5704 1534 39.1663
97.6877 1491 38.6135
97.805 1514 38.9102
97.9223 1417 37.6431
98.0396 1275 35.7071
98.1569 1213 34.8281
98.2743 1069 32.6956
98.3916 917 30.282
98.509 726 26.9444
98.6264 574 23.9583
98.7438 603 24.5561
98.8612 645 25.3969
98.9786 712 26.6833
99.096 746 27.313
99.2134 789 28.0891
99.3308 815 28.5482
99.4482 865 29.4109
99.5656 935 30.5778
99.6831 1112 33.3467
99.8005 1157 34.0147
99.9179 1264 35.5528
100.035 1372 37.0405
100.153 1503 38.7685
100.27 1557 39.4588
100.388 1716 41.4246
100.505 1792 42.332
100.622 2008 44.8107
100.74 2061 45.3982
100.857 2155 46.422
100.975 2126 46.1086
101.092 2261 47.55
101.209 2171 46.594
101.327 2236 47.2864
101.444 2159 46.465
101.561 2108 45.913
101.679 2090 45.7165
101.796 2093 45.7493
101.913 1837 42.8602
102.03 1570 39.6232
102.148 1305 36.1248
102.265 1094 33.0757
102.382 1321 36.3456
102.499 1587 39.8372
102.616 1737 41.6773
102.733 1744 41.7612
102.851 1762 41.9762
102.968 1637 40.4599
103.085 1543 39.281
103.202 1495 38.6652
103.319 1525 39.0512
103.436 1428 37.7889
103.552 1411 37.5633
103.669 1241 35.2278
103.786 1058 32.5269
103.903 1026 32.0312
104.02 1015 31.8591
104.137 913 30.2159
104.253 837 28.931
104.37 748 27.3496
104.487 699 26.4386
104.603 636 25.219
104.72 583 24.1454
104.836 483 21.9773
104.953 435 20.8567
105.069 318 17.8326
105.186 255 15.9687
105.302 254 15.9374
105.418 226 15.0333
105.535 214 14.6287
105.651 201 14.1774
105.767 140 11.8322
105.883 111 10.5357
105.999 145 12.0416
106.115 0 1
106.231 0 1
106.347 0 1
106.463 0 1
106.579 0 1
106.694 0 1
106.81 0 1
106.926 0 1
107.041 0 1
107.157 0 1
109.576 0 1
109.692 0 1
109.807 0 1
109.923 0 1
110.039 0 1
110.155 0 1
110.27 0 1
110.386 0 1
110.502 0 1
110.618 620 24.8998
110.735 582 24.1247
110.851 578 24.0416
110.967 534 23.1084
111.083 470 21.6795
111.199 541 23.2594
111.316 680 26.0768
111.432 667 25.8263
111.549 650 25.4951
111.665 661 25.7099
111.782 661 25.7099
111.898 617 24.8395
112.015 587 24.2281
112.132 606 24.6171
112.248 616 24.8193
112.365 597 24.4336
112.482 600 24.4949
112.599 542 23.2809
112.716 622 24.9399
112.832 613 24.7588
112.949 627 25.04
113.066 588 24.2487
113.183 597 24.4336
113.3 588 24.2487
113.417 566 23.7908
113.534 603 24.5561
113.652 579 24.0624
113.769 568 23.8328
113.886 521 22.8254
114.003 555 23.5584
114.12 543 23.3024
114.238 524 22.891
114.355 480 21.9089
114.472 430 20.7364
114.589 436 20.8806
114.707 424 20.5913
114.824 489 22.1133
114.942 483 21.9773
115.059 501 22.383
115.176 498 22.3159
115.294 550 23.4521
115.411 505 22.4722
115.529 523 22.8692
115.646 528 22.9783
115.764 551 23.4734
115.881 517 22.7376
115.999 541 23.2594
116.116 534 23.1084
116.234 505 22.4722
116.351 564 23.7487
116.469 547 23.388
116.586 553 23.516
116.704 570 23.8747
116.821 540 23.2379
116.939 580 24.0832
117.056 557 23.6008
117.174 603 24.5561
117.291 590 24.2899
117.409 565 23.7697
117.526 569 23.8537
117.644 581 24.1039
117.761 542 23.2809
117.879 527 22.9565
117.996 473 21.7486
118.114 467 21.6102
118.231 485 22.0227
118.349 480 21.9089
118.466 506 22.4944
118.584 562 23.7065
118.701 535 23.1301
118.819 539 23.2164
118.936 542 23.2809
119.053 479 21.8861
119.171 506 22.4944
119.288 488 22.0907
119.405 517 22.7376
119.523 515 22.6936
119.64 525 22.9129
119.757 544 23.3238
119.875 568 23.8328
119.992 591 24.3105
120.109 585 24.1868
120.226 577 24.0208
120.343 632 25.1396
120.46 649 25.4755
120.578 632 25.1396
120.695 618 24.8596
120.812 632 25.1396
120.929 580 24.0832
121.046 645 25.3969
121.163 650 25.4951
121.279 715 26.7395
121.396 770 27.7489
121.513 784 28
121.63 739 27.1846
121.747 742 27.2397
121.863 779 27.9106
121.98 890 29.8329
122.097 848 29.1204
122.213 976 31.241
122.33 1016 31.8748
122.446 1084 32.9242
122.563 1152 33.9411
122.679 1136 33.7046
122.795 1158 34.0294
122.912 1167 34.1614
123.028 1144 33.8231
123.144 1198 34.6121
123.26 1120 33.4664
123.377 0 1
123.493 0 1
123.609 0 1
123.725 0 1
123.84 0 1
123.956 0 1
124.072 0 1
124.188 0 1
124.303 0 1
124.419 0 1
126.852 0 1
126.968 0 1
127.083 0 1
127.199 0 1
127.315 0 1
127.431 0 1
127.547 0 1
127.663 0 1
127.779 0 1
127.895 0 1
128.011 0 1
128.127 0 1
128.243 0 1
128.359 2757 52.5071
128.476 2871 53.5817
128.592 2934 54.1664
128.708 3078 55.4797
128.825 2980 54.5894
128.941 2945 54.2679
129.058 2841 53.301
129.174 2781 52.7352
129.291 2893 53.7866
129.408 2876 53.6284
129.524 3016 54.9181
129.641 3182 56.4092
129.758 3208 56.6392
129.875 3336 57.7581
129.992 3307 57.5065
130.108 3304 57.4804
130.225 3162 56.2317
130.342 3114 55.8032
130.459 2791 52.8299
130.576 2702 51.9808
130.693 2302 47.9792
130.81 2208 46.9894
130.928 2066 45.4533
131.045 2272 47.6655
131.162 2467 49.6689
131.279 2647 51.449
131.396 2559 50.5866
131.513 2533 50.3289
131.631 2567 50.6656
131.748 2475 49.7494
131.865 2379 48.775
131.983 2349 48.4665
132.1 2258 47.5184
132.217 2285 47.8017
132.335 2154 46.4112
132.452 2228 47.2017
132.57 2205 46.9574
132.687 2011 44.8442
132.804 2167 46.551
132.922 2025 45
133.039 2034 45.0999
133.157 2018 44.9222
133.274 2042 45.1885
133.392 1993 44.643
133.509 2016 44.8999
133.627 1968 44.3621
133.744 1939 44.0341
133.862 1883 43.3935
133.979 1863 43.1625
134.097 1727 41.5572
134.214 1489 38.5876
134.332 1400 37.4166
134.449 1284 35.8329
134.567 1383 37.1887
134.684 1553 39.4081
134.802 1517 38.9487
134.919 1494 38.6523
135.037 1580 39.7492
135.154 1514 38.9102
135.272 1426 37.7624
135.389 1397 37.3765
135.507 1353 36.7831
135.624 1218 34.8999
135.742 1283 35.819
135.859 1136 33.7046
135.977 1137 33.7194
136.094 1095 33.0908
136.211 1019 31.9218
136.329 986 31.4006
136.446 961 31
136.564 923 30.3809
136.681 929 30.4795
136.798 911 30.1828
136.915 850 29.1548
137.033 906 30.0998
137.15 882 29.6985
137.267 835 28.8964
137.384 844 29.0517
137.502 795 28.1957
137.619 805 28.3725
137.736 763 27.6225
137.853 720 26.8328
137.97 710 26.6458
138.087 658 25.6515
138.204 686 26.1916
138.321 698 26.4197
138.438 729 27
138.555 711 26.6646
138.672 700 26.4575
138.788 710 26.6458
138.905 737 27.1477
139.022 650 25.4951
139.139 642 25.3377
139.255 597 24.4336
139.372 565 23.7697
139.488 534 23.1084
139.605 500 22.3607
139.721 437 20.9045
139.838 448 21.166
139.954 484 22
140.071 415 20.3715
140.187 446 21.1187
140.303 402 20.0499
140.419 422 20.5426
140.535 412 20.2978
140.652 418 20.445
140.768 0 1
140.884 0 1
141 0 1
141.115 0 1
141.231 0 1
141.347 0 1
141.463 0 1
141.578 0 1
141.694 0 1
144.104 0 1
144.219 0 1
144.335 0 1
144.45 0 1
144.566 0 1
144.682 0 1
144.798 0 1
144.914 0 1
145.03 0 1
145.146 1165 34.1321
145.262 1170 34.2053
145.378 1197 34.5977
145.494 1252 35.3836
145.61 1353 36.7831
145.726 1346 36.6879
145.842 1453 38.1182
145.959 1438 37.921
146.075 1422 37.7094
146.192 1486 38.5487
146.308 1439 37.9342
146.425 1387 37.2424
146.541 1320 36.3318
146.658 1083 32.909
146.774 925 30.4138
146.891 895 29.9166
147.008 1040 32.249
147.125 1306 36.1386
147.241 1403 37.4566
147.358 1370 37.0135
147.475 1400 37.4166
147.592 1409 37.5366
147.709 1421 37.6962
147.826 1440 37.9473
147.943 1435 37.8814
148.06 1454 38.1314
148.177 1478 38.4448
148.294 1459 38.1969
148.411 1430 37.8153
148.528 1380 37.1484
148.645 1368 36.9865
148.762 1440 37.9473
148.88 1380 37.1484
148.997 1323 36.3731
149.114 1459 38.1969
149.231 1398 37.3898
149.349 1423 37.7227
149.466 1418 37.6563
149.583 1390 37.2827
149.701 1344 36.6606
149.818 1349 36.7287
149.935 1334 36.524
150.053 1356 36.8239
150.17 1285 35.8469
150.287 1164 34.1174
150.405 973 31.1929
150.522 862 29.3598
150.64 957 30.9354
150.757 1138 33.7343
150.875 1190 34.4964
150.992 1215 34.8569
151.11 1201 34.6554
151.227 1253 35.3977
151.344 1169 34.1906
151.462 1146 33.8526
151.579 1160 34.0588
151.697 1193 34.5398
151.814 1204 34.6987
151.932 1229 35.0571
152.049 1161 34.0735
152.167 1244 35.2704
152.284 1264 35.5528
152.402 1216 34.8712
152.519 1195 34.5688
152.636 1221 34.9428
152.754 1271 35.6511
152.871 1323 36.3731
152.989 1337 36.565
153.106 1359 36.8646
153.223 1387 37.2424
153.341 1362 36.9053
153.458 1339 36.5923
153.575 1381 37.1618
153.693 1421 37.6962
153.81 1303 36.0971
153.927 1164 34.1174
154.044 982 31.3369
154.162 905 30.0832
154.279 1085 32.9393
154.396 1308 36.1663
154.513 1307 36.1525
154.63 1392 37.3095
154.747 1502 38.7556
154.864 1456 38.1576
154.981 1460 38.2099
155.098 1535 39.1791
155.215 1427 37.7757
155.332 1404 37.47
155.449 1454 38.1314
155.566 1496 38.6782
155.683 1386 37.229
155.8 1463 38.2492
155.917 1450 38.0789
156.033 1388 37.2559
156.15 0 1
156.267 0 1
156.383 0 1
156.5 0 1
156.617 0 1
156.733 0 1
156.85 0 1
156.966 0 1
157.082 0 1
157.199 0 1
157.315 0 1
157.431 0 1
157.547 0 1
157.664 0 1
157.78 0 1
157.896 0 1
158.012 0 1
158.128 0 1
158.244 0 1
158.359 0 1
158.475 0 1
158.591 0 1
158.706 0 1
