
6.15755 0 1
6.2731 0 1
6.3887 0 1
6.50437 0 1
6.62009 0 1
6.73587 0 1
6.8517 0 1
6.96759 0 1
7.08353 0 1
7.19952 0 1
7.31557 0 1
7.43166 0 1
7.54781 0 1
7.664 0 1
7.78024 0 1
7.89653 0 1
8.01286 0 1
8.12924 0 1
8.24567 0 1
8.36213 0 1
8.47864 0 1
8.59519 0 1
8.71178 0 1
8.82841 0 1
8.94508 0 1
9.06179 0 1
9.17853 0 1
9.29531 0 1
9.41212 0 1
9.52897 0 1
9.64584 0 1
9.76276 0 1
9.8797 0 1
9.99667 0 1
10.1137 0 1
10.2307 0 1
10.3478 0 1
10.4648 0 1
10.5819 0 1
10.6991 0 1
10.8162 0 1
10.9334 0 1
11.0506 0 1
11.1678 0 1
11.285 0 1
11.4023 0 1
11.5196 0 1
11.6369 0 1
11.7542 0 1
11.8715 0 1
11.9888 0 1
12.1062 0 1
12.2235 0 1
12.3409 0 1
12.4582 0 1
12.5756 0 1
12.693 0 1
12.8104 0 1
12.9278 0 1
13.0452 0 1
13.1626 0 1
13.28 0 1
13.3974 0 1
13.5149 0 1
13.6323 0 1
13.7497 0 1
13.8671 0 1
13.9845 0 1
14.1019 0 1
14.2193 0 1
14.3367 0 1
14.4541 0 1
14.5714 0 1
14.6888 0 1
14.8062 0 1
14.9235 0 1
15.0408 746 27.313
15.1581 776 27.8568
15.2755 781 27.9464
15.3927 826 28.7402
15.51 788 28.0713
15.6273 744 27.2764
15.7445 677 26.0192
15.8617 693 26.3249
15.9789 683 26.1343
16.0961 663 25.7488
16.2132 693 26.3249
16.3304 675 25.9808
16.4475 695 26.3629
16.5646 655 25.593
16.6816 624 24.98
16.7986 615 24.7992
16.9156 587 24.2281
17.0326 610 24.6982
17.1496 562 23.7065
17.2665 595 24.3926
17.3833 561 23.6854
17.5002 585 24.1868
17.617 566 23.7908
17.7338 585 24.1868
17.8505 567 23.8118
17.9672 549 23.4307
18.0839 587 24.2281
18.2005 637 25.2389
18.3171 634 25.1794
18.4337 573 23.9374
18.5502 620 24.8998
18.6666 532 23.0651
18.7831 570 23.8747
18.8994 588 24.2487
19.0158 557 23.6008
19.1321 549 23.4307
19.2483 470 21.6795
19.3645 458 21.4009
19.4806 460 21.4476
19.5967 475 21.7945
19.7128 467 21.6102
19.8288 463 21.5174
19.9447 424 20.5913
20.0606 0 1
20.1764 0 1
20.2922 0 1
20.4079 0 1
20.5236 0 1
20.6392 0 1
20.7548 0 1
20.8702 0 1
23.3078 0 1
23.4233 0 1
23.539 0 1
23.6547 0 1
23.7704 0 1
23.8862 0 1
24.0021 0 1
24.118 0 1
24.234 0 1
24.35 0 1
24.4661 243 15.5885
24.5822 268 16.3707
24.6984 328 18.1108
24.8146 417 20.4206
24.9309 443 21.0476
25.0472 484 22
25.1636 552 23.4947
25.28 579 24.0624
25.3965 606 24.6171
25.513 623 24.96
25.6296 638 25.2587
25.7462 656 25.6125
25.8628 645 25.3969
25.9795 659 25.671
26.0962 663 25.7488
26.213 660 25.6905
26.3298 599 24.4745
26.4466 581 24.1039
26.5635 560 23.6643
26.6804 564 23.7487
26.7973 553 23.516
26.9143 528 22.9783
27.0313 502 22.4054
27.1483 500 22.3607
27.2653 499 22.3383
27.3824 560 23.6643
27.4996 591 24.3105
27.6167 561 23.6854
27.7339 545 23.3452
27.8511 595 24.3926
27.9683 503 22.4277
28.0855 550 23.4521
28.2028 542 23.2809
28.3201 583 24.1454
28.4374 546 23.3666
28.5547 592 24.3311
28.6721 629 25.0799
28.7894 602 24.5357
28.9068 606 24.6171
29.0242 526 22.9347
29.1416 631 25.1197
29.259 562 23.7065
29.3764 586 24.2074
29.4939 577 24.0208
29.6113 583 24.1454
29.7288 544 23.3238
29.8463 574 23.9583
29.9638 540 23.2379
30.0812 560 23.6643
30.1987 576 24
30.3162 529 23
30.4337 496 22.2711
30.5512 541 23.2594
30.6687 570 23.8747
30.7862 500 22.3607
30.9037 558 23.622
31.0212 581 24.1039
31.1387 582 24.1247
31.2562 578 24.0416
31.3737 538 23.1948
31.4912 562 23.7065
31.6087 550 23.4521
31.7262 549 23.4307
31.8436 558 23.622
31.9611 619 24.8797
32.0785 561 23.6854
32.1959 552 23.4947
32.3134 566 23.7908
32.4308 564 23.7487
32.5482 514 22.6716
32.6655 515 22.6936
32.7829 540 23.2379
32.9002 512 22.6274
33.0176 510 22.5832
33.1349 462 21.4942
33.2522 463 21.5174
33.3694 467 21.6102
33.4867 515 22.6936
33.6039 507 22.5167
33.7211 501 22.383
33.8383 467 21.6102
33.9554 463 21.5174
34.0725 513 22.6495
34.1896 423 20.567
34.3067 494 22.2261
34.4237 512 22.6274
34.5407 505 22.4722
34.6577 531 23.0434
34.7746 501 22.383
34.8915 539 23.2164
35.0084 530 23.0217
35.1252 487 22.0681
35.242 504 22.4499
35.3587 455 21.3307
35.4755 452 21.2603
35.5921 522 22.8473
35.7088 523 22.8692
35.8254 475 21.7945
35.9419 495 22.2486
36.0584 482 21.9545
36.1749 477 21.8403
36.2913 472 21.7256
36.4077 428 20.6882
36.524 422 20.5426
36.6403 445 21.095
36.7565 398 19.9499
36.8727 354 18.8149
36.9889 375 19.3649
37.1049 362 19.0263
37.221 0 1
37.3369 0 1
37.4529 0 1
37.5687 0 1
37.6845 0 1
37.8003 0 1
37.916 0 1
38.0316 0 1
38.1472 0 1
40.5851 0 1
40.7008 0 1
40.8164 0 1
40.9322 0 1
41.048 0 1
41.1639 0 1
41.2798 0 1
41.3958 0 1
41.5118 0 1
41.6279 0 1
41.744 216 14.6969
41.8602 258 16.0624
41.9765 256 16
42.0928 356 18.868
42.2091 358 18.9209
42.3255 374 19.3391
42.4419 392 19.799
42.5584 383 19.5704
42.675 353 18.7883
42.7915 415 20.3715
42.9081 371 19.2614
43.0248 365 19.105
43.1415 342 18.4932
43.2582 426 20.6398
43.375 405 20.1246
43.4918 377 19.4165
43.6087 419 20.4695
43.7256 389 19.7231
43.8425 412 20.2978
43.9595 367 19.1572
44.0765 388 19.6977
44.1935 325 18.0278
44.3106 319 17.8606
44.4277 355 18.8414
44.5448 389 19.7231
44.6619 383 19.5704
44.7791 398 19.9499
44.8963 384 19.5959
45.0136 376 19.3907
45.1308 399 19.975
45.2481 381 19.5192
45.3654 359 18.9473
45.4827 378 19.4422
45.6001 413 20.3224
45.7174 406 20.1494
45.8348 430 20.7364
45.9522 387 19.6723
46.0697 374 19.3391
46.1871 434 20.8327
46.3046 355 18.8414
46.422 379 19.4679
46.5395 337 18.3576
46.657 341 18.4662
46.7745 347 18.6279
46.892 333 18.2483
47.0096 390 19.7484
47.1271 404 20.0998
47.2446 395 19.8746
47.3622 415 20.3715
47.4797 401 20.025
47.5973 341 18.4662
47.7149 346 18.6011
47.8324 339 18.412
47.95 330 18.1659
48.0675 365 19.105
48.1851 372 19.2873
48.3027 376 19.3907
48.4202 357 18.8944
48.5378 364 19.0788
48.6554 435 20.8567
48.7729 362 19.0263
48.8904 396 19.8997
49.008 412 20.2978
49.1255 427 20.664
49.243 415 20.3715
49.3605 432 20.7846
49.478 402 20.0499
49.5955 379 19.4679
49.713 400 20
49.8304 388 19.6977
49.9479 370 19.2354
50.0653 353 18.7883
50.1827 351 18.735
50.3001 365 19.105
50.4175 349 18.6815
50.5348 396 19.8997
50.6521 370 19.2354
50.7694 430 20.7364
50.8867 395 19.8746
51.004 403 20.0749
51.1212 356 18.868
51.2384 389 19.7231
51.3556 351 18.735
51.4727 363 19.0526
51.5899 405 20.1246
51.707 413 20.3224
51.824 404 20.0998
51.9411 402 20.0499
52.0581 426 20.6398
52.175 370 19.2354
52.2919 414 20.347
52.4088 419 20.4695
52.5257 385 19.6214
52.6425 427 20.664
52.7593 404 20.0998
52.876 388 19.6977
52.9927 412 20.2978
53.1094 388 19.6977
53.226 351 18.735
53.3426 380 19.4936
53.4591 376 19.3907
53.5756 318 17.8326
53.692 326 18.0555
53.8084 361 19
53.9248 368 19.1833
54.0411 537 23.1733
54.1573 669 25.865
54.2735 0 1
54.3896 0 1
54.5057 0 1
54.6217 0 1
54.7377 0 1
54.8537 0 1
54.9695 0 1
55.0853 0 1
55.2011 0 1
55.3168 0 1
55.4324 0 1
57.824 0 1
57.9396 0 1
58.0553 0 1
58.1711 0 1
58.2869 0 1
58.4028 0 1
58.5187 0 1
58.6347 0 1
58.7508 0 1
58.8669 0 1
58.983 68557 261.834
59.0992 87004 294.964
59.2155 100236 316.601
59.3318 110240 332.024
59.4482 117189 342.329
59.5646 123396 351.278
59.681 126718 355.975
59.7975 126994 356.362
59.9141 126023 354.997
60.0306 123206 351.007
60.1473 119075 345.072
60.2639 113558 336.984
60.3807 107289 327.55
60.4974 101293 318.266
60.6142 95626 309.235
60.731 90581 300.967
60.8479 84857 291.302
60.9648 79682 282.28
61.0818 73819 271.697
61.1987 68466 261.66
61.3158 61854 248.705
61.4328 53856 232.069
61.5499 44458 210.851
61.667 35935 189.565
61.7841 27991 167.305
61.9013 21823 147.726
62.0185 18145 134.703
62.1357 16641 129
62.253 16233 127.409
62.3702 15674 125.196
62.4875 14561 120.669
62.6049 12957 113.829
62.7222 11469 107.093
62.8396 9543 97.6883
62.9569 8051 89.7274
63.0743 6867 82.8674
63.1918 5646 75.1399
63.3092 4416 66.453
63.4267 3421 58.4893
63.5441 2528 50.2792
63.6616 1849 43
63.7791 1367 36.973
63.8966 1088 32.9848
64.0142 868 29.4618
64.1317 671 25.9037
64.2492 601 24.5153
64.3668 544 23.3238
64.4843 528 22.9783
64.6019 472 21.7256
64.7195 471 21.7025
64.837 447 21.1424
64.9546 461 21.4709
65.0722 430 20.7364
65.1898 458 21.4009
65.3074 463 21.5174
65.4249 425 20.6155
65.5425 423 20.567
65.6601 433 20.8087
65.7777 376 19.3907
65.8952 389 19.7231
66.0128 426 20.6398
66.1304 398 19.9499
66.2479 448 21.166
66.3655 400 20
66.483 433 20.8087
66.6005 424 20.5913
66.718 456 21.3542
66.8355 469 21.6564
66.953 505 22.4722
67.0705 561 23.6854
67.1879 530 23.0217
67.3054 520 22.8035
67.4228 484 22
67.5402 510 22.5832
67.6576 505 22.4722
67.7749 494 22.2261
67.8923 518 22.7596
68.0096 508 22.5389
68.1269 485 22.0227
68.2442 472 21.7256
68.3614 470 21.6795
68.4787 459 21.4243
68.5958 451 21.2368
68.713 417 20.4206
68.8302 386 19.6469
68.9473 376 19.3907
69.0643 398 19.9499
69.1814 396 19.8997
69.2984 387 19.6723
69.4154 384 19.5959
69.5323 369 19.2094
69.6492 373 19.3132
69.7661 349 18.6815
69.8829 356 18.868
69.9997 337 18.3576
70.1165 404 20.0998
70.2332 426 20.6398
70.3499 387 19.6723
70.4665 394 19.8494
70.5831 338 18.3848
70.6996 342 18.4932
70.8161 307 17.5214
70.9326 314 17.72
71.049 265 16.2788
71.1653 266 16.3095
71.2817 263 16.2173
71.3979 234 15.2971
71.5141 222 14.8997
71.6303 221 14.8661
71.7464 189 13.7477
71.8624 0 1
71.9784 0 1
72.0944 0 1
72.2102 0 1
72.3261 0 1
72.4418 0 1
72.5575 0 1
72.6732 0 1
75.1054 0 1
75.2209 0 1
75.3365 0 1
75.4521 0 1
75.5678 0 1
75.6835 0 1
75.7993 0 1
75.9151 0 1
76.031 0 1
76.147 279 16.7033
76.263 320 17.8885
76.3791 294 17.1464
76.4952 331 18.1934
76.6113 378 19.4422
76.7276 336 18.3303
76.8438 349 18.6815
76.9601 402 20.0499
77.0765 351 18.735
77.1929 406 20.1494
77.3093 374 19.3391
77.4258 362 19.0263
77.5423 374 19.3391
77.6589 375 19.3649
77.7755 332 18.2209
77.8921 373 19.3132
78.0088 370 19.2354
78.1256 363 19.0526
78.2423 351 18.735
78.3591 358 18.9209
78.4759 364 19.0788
78.5928 372 19.2873
78.7097 357 18.8944
78.8266 323 17.9722
78.9436 370 19.2354
79.0606 350 18.7083
79.1776 338 18.3848
79.2946 388 19.6977
79.4117 402 20.0499
79.5288 403 20.0749
79.6459 409 20.2237
79.7631 376 19.3907
79.8802 358 18.9209
79.9974 393 19.8242
80.1147 360 18.9737
80.2319 408 20.199
80.3491 377 19.4165
80.4664 416 20.3961
80.5837 378 19.4422
80.701 385 19.6214
80.8183 385 19.6214
80.9357 373 19.3132
81.053 351 18.735
81.1704 367 19.1572
81.2877 396 19.8997
81.4051 382 19.5448
81.5225 389 19.7231
81.6399 371 19.2614
81.7573 355 18.8414
81.8747 384 19.5959
81.9922 376 19.3907
82.1096 403 20.0749
82.227 400 20
82.3444 357 18.8944
82.4619 349 18.6815
82.5793 357 18.8944
82.6967 365 19.105
82.8142 397 19.9249
82.9316 380 19.4936
83.049 413 20.3224
83.1664 385 19.6214
83.2838 439 20.9523
83.4012 366 19.1311
83.5186 382 19.5448
83.636 389 19.7231
83.7534 368 19.1833
83.8708 385 19.6214
83.9881 401 20.025
84.1055 402 20.0499
84.2228 436 20.8806
84.3401 415 20.3715
84.4575 408 20.199
84.5747 378 19.4422
84.692 373 19.3132
84.8093 414 20.347
84.9265 347 18.6279
85.0437 388 19.6977
85.1609 378 19.4422
85.2781 344 18.5472
85.3952 370 19.2354
85.5123 374 19.3391
85.6294 381 19.5192
85.7465 387 19.6723
85.8636 371 19.2614
85.9806 363 19.0526
86.0976 366 19.1311
86.2145 396 19.8997
86.3315 384 19.5959
86.4484 350 18.7083
86.5652 402 20.0499
86.682 439 20.9523
86.7988 414 20.347
86.9156 400 20
87.0323 420 20.4939
87.149 380 19.4936
87.2657 411 20.2731
87.3823 378 19.4422
87.4988 384 19.5959
87.6154 402 20.0499
87.7318 351 18.735
87.8483 326 18.0555
87.9647 376 19.3907
88.081 302 17.3781
88.1973 312 17.6635
88.3136 250 15.8114
88.4298 263 16.2173
88.546 237 15.3948
88.6621 205 14.3178
88.7781 191 13.8203
88.8942 0 1
89.0101 0 1
89.126 0 1
89.2419 0 1
89.3577 0 1
89.4734 0 1
89.5891 0 1
89.7047 0 1
89.8203 0 1
89.9358 0 1
92.3269 0 1
92.4424 0 1
92.558 0 1
92.6736 0 1
92.7893 0 1
92.905 0 1
93.0208 0 1
93.1366 0 1
93.2525 0 1
93.3685 0 1
93.4845 0 1
93.6005 349 18.6815
93.7167 367 19.1572
93.8328 347 18.6279
93.949 365 19.105
94.0653 337 18.3576
94.1816 368 19.1833
94.2979 368 19.1833
94.4143 357 18.8944
94.5307 371 19.2614
94.6472 402 20.0499
94.7637 387 19.6723
94.8803 409 20.2237
94.9969 403 20.0749
95.1135 390 19.7484
95.2302 390 19.7484
95.3469 404 20.0998
95.4637 385 19.6214
95.5805 425 20.6155
95.6973 378 19.4422
95.8142 412 20.2978
95.9311 391 19.7737
96.048 375 19.3649
96.1649 419 20.4695
96.2819 431 20.7605
96.3989 396 19.8997
96.516 454 21.3073
96.633 407 20.1742
96.7501 451 21.2368
96.8673 411 20.2731
96.9844 398 19.9499
97.1016 436 20.8806
97.2188 403 20.0749
97.336 423 20.567
97.4532 410 20.2485
97.5704 386 19.6469
97.6877 360 18.9737
97.805 368 19.1833
97.9223 362 19.0263
98.0396 373 19.3132
98.1569 384 19.5959
98.2743 373 19.3132
98.3916 397 19.9249
98.509 453 21.2838
98.6264 432 20.7846
98.7438 431 20.7605
98.8612 401 20.025
98.9786 433 20.8087
99.096 442 21.0238
99.2134 411 20.2731
99.3308 437 20.9045
99.4482 443 21.0476
99.5656 438 20.9284
99.6831 437 20.9045
99.8005 448 21.166
99.9179 449 21.1896
100.035 413 20.3224
100.153 436 20.8806
100.27 433 20.8087
100.388 453 21.2838
100.505 424 20.5913
100.622 447 21.1424
100.74 420 20.4939
100.857 412 20.2978
100.975 432 20.7846
101.092 438 20.9284
101.209 401 20.025
101.327 442 21.0238
101.444 371 19.2614
101.561 385 19.6214
101.679 416 20.3961
101.796 450 21.2132
101.913 437 20.9045
102.03 451 21.2368
102.148 493 22.2036
102.265 438 20.9284
102.382 461 21.4709
102.499 464 21.5407
102.616 475 21.7945
102.733 482 21.9545
102.851 500 22.3607
102.968 488 22.0907
103.085 502 22.4054
103.202 494 22.2261
103.319 510 22.5832
103.436 494 22.2261
103.552 513 22.6495
103.669 537 23.1733
103.786 519 22.7816
103.903 534 23.1084
104.02 523 22.8692
104.137 496 22.2711
104.253 529 23
104.37 509 22.561
104.487 478 21.8632
104.603 430 20.7364
104.72 455 21.3307
104.836 443 21.0476
104.953 416 20.3961
105.069 424 20.5913
105.186 420 20.4939
105.302 390 19.7484
105.418 424 20.5913
105.535 354 18.8149
105.651 352 18.7617
105.767 291 17.0587
105.883 293 17.1172
105.999 262 16.1864
106.115 0 1
106.231 0 1
106.347 0 1
106.463 0 1
106.579 0 1
106.694 0 1
106.81 0 1
106.926 0 1
107.041 0 1
107.157 0 1
109.576 0 1
109.692 0 1
109.807 0 1
109.923 0 1
110.039 0 1
110.155 0 1
110.27 0 1
110.386 0 1
110.502 0 1
110.618 237 15.3948
110.735 299 17.2916
110.851 324 18
110.967 363 19.0526
111.083 404 20.0998
111.199 410 20.2485
111.316 456 21.3542
111.432 433 20.8087
111.549 466 21.587
111.665 464 21.5407
111.782 470 21.6795
111.898 486 22.0454
112.015 501 22.383
112.132 494 22.2261
112.248 478 21.8632
112.365 502 22.4054
112.482 536 23.1517
112.599 505 22.4722
112.716 574 23.9583
112.832 543 23.3024
112.949 569 23.8537
113.066 592 24.3311
113.183 564 23.7487
113.3 615 24.7992
113.417 620 24.8998
113.534 592 24.3311
113.652 618 24.8596
113.769 607 24.6374
113.886 603 24.5561
114.003 604 24.5764
114.12 618 24.8596
114.238 652 25.5343
114.355 609 24.6779
114.472 675 25.9808
114.589 622 24.9399
114.707 512 22.6274
114.824 510 22.5832
114.942 498 22.3159
115.059 487 22.0681
115.176 458 21.4009
115.294 430 20.7364
115.411 392 19.799
115.529 370 19.2354
115.646 423 20.567
115.764 442 21.0238
115.881 449 21.1896
115.999 405 20.1246
116.116 405 20.1246
116.234 383 19.5704
116.351 386 19.6469
116.469 353 18.7883
116.586 359 18.9473
116.704 406 20.1494
116.821 370 19.2354
116.939 368 19.1833
117.056 331 18.1934
117.174 361 19
117.291 325 18.0278
117.409 330 18.1659
117.526 281 16.7631
117.644 335 18.303
117.761 346 18.6011
117.879 394 19.8494
117.996 348 18.6548
118.114 355 18.8414
118.231 380 19.4936
118.349 412 20.2978
118.466 381 19.5192
118.584 361 19
118.701 408 20.199
118.819 392 19.799
118.936 359 18.9473
119.053 372 19.2873
119.171 358 18.9209
119.288 364 19.0788
119.405 386 19.6469
119.523 369 19.2094
119.64 385 19.6214
119.757 380 19.4936
119.875 398 19.9499
119.992 412 20.2978
120.109 373 19.3132
120.226 348 18.6548
120.343 377 19.4165
120.46 337 18.3576
120.578 337 18.3576
120.695 343 18.5203
120.812 328 18.1108
120.929 285 16.8819
121.046 296 17.2047
121.163 297 17.2337
121.279 294 17.1464
121.396 326 18.0555
121.513 334 18.2757
121.63 302 17.3781
121.747 326 18.0555
121.863 338 18.3848
121.98 305 17.4642
122.097 298 17.2627
122.213 297 17.2337
122.33 312 17.6635
122.446 261 16.1555
122.563 261 16.1555
122.679 222 14.8997
122.795 235 15.3297
122.912 202 14.2127
123.028 224 14.9666
123.144 212 14.5602
123.26 198 14.0712
123.377 0 1
123.493 0 1
123.609 0 1
123.725 0 1
123.84 0 1
123.956 0 1
124.072 0 1
124.188 0 1
124.303 0 1
124.419 0 1
126.852 0 1
126.968 0 1
127.083 0 1
127.199 0 1
127.315 0 1
127.431 0 1
127.547 0 1
127.663 0 1
127.779 0 1
127.895 0 1
128.011 0 1
128.127 0 1
128.243 0 1
128.359 368 19.1833
128.476 377 19.4165
128.592 440 20.9762
128.708 412 20.2978
128.825 448 21.166
128.941 453 21.2838
129.058 449 21.1896
129.174 434 20.8327
129.291 403 20.0749
129.408 426 20.6398
129.524 445 21.095
129.641 423 20.567
129.758 422 20.5426
129.875 368 19.1833
129.992 383 19.5704
130.108 363 19.0526
130.225 388 19.6977
130.342 391 19.7737
130.459 418 20.445
130.576 394 19.8494
130.693 479 21.8861
130.81 498 22.3159
130.928 469 21.6564
131.045 529 23
131.162 510 22.5832
131.279 526 22.9347
131.396 570 23.8747
131.513 596 24.4131
131.631 615 24.7992
131.748 634 25.1794
131.865 616 24.8193
131.983 674 25.9615
132.1 752 27.4226
132.217 775 27.8388
132.335 757 27.5136
132.452 760 27.5681
132.57 839 28.9655
132.687 840 28.9828
132.804 864 29.3939
132.922 856 29.2575
133.039 854 29.2233
133.157 872 29.5296
133.274 913 30.2159
133.392 857 29.2746
133.509 823 28.688
133.627 854 29.2233
133.744 851 29.1719
133.862 800 28.2843
133.979 853 29.2062
134.097 885 29.7489
134.214 886 29.7658
134.332 908 30.133
134.449 880 29.6648
134.567 933 30.545
134.684 866 29.4279
134.802 863 29.3769
134.919 876 29.5973
135.037 898 29.9666
135.154 868 29.4618
135.272 852 29.189
135.389 882 29.6985
135.507 889 29.8161
135.624 916 30.2655
135.742 941 30.6757
135.859 940 30.6594
135.977 953 30.8707
136.094 926 30.4302
136.211 988 31.4325
136.329 993 31.5119
136.446 936 30.5941
136.564 981 31.3209
136.681 934 30.5614
136.798 976 31.241
136.915 947 30.7734
137.033 968 31.1127
137.15 1027 32.0468
137.267 908 30.133
137.384 867 29.4449
137.502 886 29.7658
137.619 797 28.2312
137.736 876 29.5973
137.853 860 29.3258
137.97 983 31.3528
138.087 998 31.5911
138.204 947 30.7734
138.321 892 29.8664
138.438 981 31.3209
138.555 1006 31.7175
138.672 1007 31.7333
138.788 929 30.4795
138.905 916 30.2655
139.022 833 28.8617
139.139 937 30.6105
139.255 1010 31.7805
139.372 977 31.257
139.488 876 29.5973
139.605 871 29.5127
139.721 767 27.6948
139.838 765 27.6586
139.954 656 25.6125
140.071 618 24.8596
140.187 644 25.3772
140.303 643 25.3574
140.419 554 23.5372
140.535 503 22.4277
140.652 466 21.587
140.768 0 1
140.884 0 1
141 0 1
141.115 0 1
141.231 0 1
141.347 0 1
141.463 0 1
141.578 0 1
141.694 0 1
144.104 0 1
144.219 0 1
144.335 0 1
144.45 0 1
144.566 0 1
144.682 0 1
144.798 0 1
144.914 0 1
145.03 0 1
145.146 825 28.7228
145.262 780 27.9285
145.378 803 28.3373
145.494 814 28.5307
145.61 854 29.2233
145.726 855 29.2404
145.842 849 29.1376
145.959 856 29.2575
146.075 760 27.5681
146.192 822 28.6705
146.308 745 27.2947
146.425 774 27.8209
146.541 821 28.6531
146.658 825 28.7228
146.774 835 28.8964
146.891 912 30.1993
147.008 766 27.6767
147.125 803 28.3373
147.241 857 29.2746
147.358 869 29.4788
147.475 803 28.3373
147.592 816 28.5657
147.709 784 28
147.826 753 27.4408
147.943 727 26.9629
148.06 811 28.4781
148.177 802 28.3196
148.294 800 28.2843
148.411 821 28.6531
148.528 862 29.3598
148.645 821 28.6531
148.762 788 28.0713
148.88 835 28.8964
148.997 860 29.3258
149.114 833 28.8617
149.231 825 28.7228
149.349 869 29.4788
149.466 886 29.7658
149.583 881 29.6816
149.701 844 29.0517
149.818 800 28.2843
149.935 813 28.5132
150.053 837 28.931
150.17 833 28.8617
150.287 822 28.6705
150.405 837 28.931
150.522 790 28.1069
150.64 797 28.2312
150.757 743 27.258
150.875 775 27.8388
150.992 852 29.189
151.11 771 27.7669
151.227 793 28.1603
151.344 768 27.7128
151.462 763 27.6225
151.579 711 26.6646
151.697 728 26.9815
151.814 813 28.5132
151.932 787 28.0535
152.049 813 28.5132
152.167 805 28.3725
152.284 886 29.7658
152.402 804 28.3549
152.519 801 28.3019
152.636 859 29.3087
152.754 786 28.0357
152.871 801 28.3019
152.989 763 27.6225
153.106 772 27.7849
153.223 724 26.9072
153.341 737 27.1477
153.458 666 25.807
153.575 767 27.6948
153.693 664 25.7682
153.81 665 25.7876
153.927 698 26.4197
154.044 714 26.7208
154.162 649 25.4755
154.279 630 25.0998
154.396 679 26.0576
154.513 702 26.4953
154.63 645 25.3969
154.747 678 26.0384
154.864 642 25.3377
154.981 604 24.5764
155.098 596 24.4131
155.215 570 23.8747
155.332 611 24.7184
155.449 614 24.779
155.566 620 24.8998
155.683 629 25.0799
155.8 590 24.2899
155.917 616 24.8193
156.033 561 23.6854
156.15 0 1
156.267 0 1
156.383 0 1
156.5 0 1
156.617 0 1
156.733 0 1
156.85 0 1
156.966 0 1
157.082 0 1
157.199 0 1
157.315 0 1
157.431 0 1
157.547 0 1
157.664 0 1
157.78 0 1
157.896 0 1
158.012 0 1
158.128 0 1
158.244 0 1
158.359 0 1
158.475 0 1
158.591 0 1
158.706 0 1
