
6.15755 0 1
6.2731 0 1
6.3887 0 1
6.50437 0 1
6.62009 0 1
6.73587 0 1
6.8517 0 1
6.96759 0 1
7.08353 0 1
7.19952 0 1
7.31557 0 1
7.43166 0 1
7.54781 0 1
7.664 0 1
7.78024 0 1
7.89653 0 1
8.01286 0 1
8.12924 0 1
8.24567 0 1
8.36213 0 1
8.47864 0 1
8.59519 0 1
8.71178 0 1
8.82841 0 1
8.94508 0 1
9.06179 0 1
9.17853 0 1
9.29531 0 1
9.41212 0 1
9.52897 0 1
9.64584 0 1
9.76276 0 1
9.8797 0 1
9.99667 0 1
10.1137 0 1
10.2307 0 1
10.3478 0 1
10.4648 0 1
10.5819 0 1
10.6991 0 1
10.8162 0 1
10.9334 0 1
11.0506 0 1
11.1678 0 1
11.285 0 1
11.4023 0 1
11.5196 0 1
11.6369 0 1
11.7542 0 1
11.8715 0 1
11.9888 0 1
12.1062 0 1
12.2235 0 1
12.3409 0 1
12.4582 0 1
12.5756 0 1
12.693 0 1
12.8104 0 1
12.9278 0 1
13.0452 0 1
13.1626 0 1
13.28 0 1
13.3974 0 1
13.5149 0 1
13.6323 0 1
13.7497 0 1
13.8671 0 1
13.9845 0 1
14.1019 0 1
14.2193 0 1
14.3367 0 1
14.4541 0 1
14.5714 0 1
14.6888 0 1
14.8062 0 1
14.9235 0 1
15.0408 1821 42.6732
15.1581 1830 42.7785
15.2755 1987 44.5758
15.3927 1922 43.8406
15.51 2072 45.5192
15.6273 2077 45.5741
15.7445 2057 45.3542
15.8617 1876 43.3128
15.9789 2022 44.9667
16.0961 1964 44.317
16.2132 2064 45.4313
16.3304 2061 45.3982
16.4475 2053 45.31
16.5646 2147 46.3357
16.6816 2316 48.1248
16.7986 2280 47.7493
16.9156 2442 49.4166
17.0326 2314 48.1041
17.1496 2414 49.1325
17.2665 2315 48.1144
17.3833 2319 48.156
17.5002 2247 47.4025
17.617 2184 46.7333
17.7338 2111 45.9456
17.8505 2073 45.5302
17.9672 2110 45.9347
18.0839 2081 45.618
18.2005 2121 46.0543
18.3171 2080 45.607
18.4337 2158 46.4543
18.5502 2238 47.3075
18.6666 2380 48.7852
18.7831 2410 49.0918
18.8994 2409 49.0816
19.0158 2290 47.8539
19.1321 2237 47.2969
19.2483 2106 45.8912
19.3645 1999 44.7102
19.4806 1883 43.3935
19.5967 1722 41.497
19.7128 1615 40.1871
19.8288 1520 38.9872
19.9447 1349 36.7287
20.0606 0 1
20.1764 0 1
20.2922 0 1
20.4079 0 1
20.5236 0 1
20.6392 0 1
20.7548 0 1
20.8702 0 1
23.3078 0 1
23.4233 0 1
23.539 0 1
23.6547 0 1
23.7704 0 1
23.8862 0 1
24.0021 0 1
24.118 0 1
24.234 0 1
24.35 0 1
24.4661 955 30.9031
24.5822 1204 34.6987
24.6984 1299 36.0416
24.8146 1411 37.5633
24.9309 1572 39.6485
25.0472 1740 41.7133
25.1636 1920 43.8178
25.28 1983 44.5309
25.3965 2090 45.7165
25.513 2297 47.927
25.6296 2436 49.3559
25.7462 2553 50.5272
25.8628 2562 50.6162
25.9795 2605 51.0392
26.0962 2492 49.9199
26.213 2438 49.3761
26.3298 2325 48.2183
26.4466 2186 46.7547
26.5635 2126 46.1086
26.6804 2127 46.1194
26.7973 2190 46.7974
26.9143 2208 46.9894
27.0313 2231 47.2335
27.1483 2297 47.927
27.2653 2393 48.9183
27.3824 2436 49.3559
27.4996 2342 48.3942
27.6167 2473 49.7293
27.7339 2365 48.6313
27.8511 2258 47.5184
27.9683 2240 47.3286
28.0855 2190 46.7974
28.2028 2109 45.9239
28.3201 1937 44.0114
28.4374 2028 45.0333
28.5547 2073 45.5302
28.6721 2210 47.0106
28.7894 2217 47.085
28.9068 2273 47.676
29.0242 2405 49.0408
29.1416 2430 49.295
29.259 2454 49.5379
29.3764 2444 49.4368
29.4939 2390 48.8876
29.6113 2346 48.4355
29.7288 2353 48.5077
29.8463 2189 46.7868
29.9638 2060 45.3872
30.0812 2042 45.1885
30.1987 1967 44.3509
30.3162 2132 46.1736
30.4337 2063 45.4203
30.5512 2190 46.7974
30.6687 2248 47.4131
30.7862 2253 47.4658
30.9037 2338 48.3529
31.0212 2324 48.2079
31.1387 2339 48.3632
31.2562 2284 47.7912
31.3737 2268 47.6235
31.4912 2178 46.669
31.6087 2159 46.465
31.7262 2155 46.422
31.8436 1956 44.2267
31.9611 1893 43.5086
32.0785 2057 45.3542
32.1959 2086 45.6727
32.3134 2078 45.5851
32.4308 2212 47.0319
32.5482 2254 47.4763
32.6655 2318 48.1456
32.7829 2395 48.9387
32.9002 2372 48.7032
33.0176 2351 48.4871
33.1349 2339 48.3632
33.2522 2326 48.2286
33.3694 2181 46.7012
33.4867 2087 45.6837
33.6039 2004 44.7661
33.7211 1941 44.0568
33.8383 1928 43.909
33.9554 2059 45.3762
34.0725 2006 44.7884
34.1896 2066 45.4533
34.3067 2156 46.4327
34.4237 2103 45.8585
34.5407 2158 46.4543
34.6577 2177 46.6583
34.7746 2150 46.3681
34.8915 2215 47.0638
35.0084 2154 46.4112
35.1252 2139 46.2493
35.242 2048 45.2548
35.3587 1934 43.9773
35.4755 1914 43.7493
35.5921 1848 42.9884
35.7088 1866 43.1972
35.8254 1814 42.5911
35.9419 1966 44.3396
36.0584 2002 44.7437
36.1749 2069 45.4863
36.2913 2019 44.9333
36.4077 2033 45.0888
36.524 1979 44.486
36.6403 2005 44.7772
36.7565 1829 42.7668
36.8727 1753 41.8688
36.9889 1629 40.3609
37.1049 1558 39.4715
37.221 0 1
37.3369 0 1
37.4529 0 1
37.5687 0 1
37.6845 0 1
37.8003 0 1
37.916 0 1
38.0316 0 1
38.1472 0 1
40.5851 0 1
40.7008 0 1
40.8164 0 1
40.9322 0 1
41.048 0 1
41.1639 0 1
41.2798 0 1
41.3958 0 1
41.5118 0 1
41.6279 0 1
41.744 1060 32.5576
41.8602 1230 35.0714
41.9765 1377 37.108
42.0928 1331 36.4829
42.2091 1337 36.565
42.3255 1301 36.0694
42.4419 1284 35.8329
42.5584 1364 36.9324
42.675 1410 37.55
42.7915 1571 39.6358
42.9081 1588 39.8497
43.0248 1665 40.8044
43.1415 1798 42.4028
43.2582 1710 41.3521
43.375 1839 42.8836
43.4918 1811 42.5558
43.6087 1802 42.45
43.7256 1797 42.391
43.8425 1808 42.5206
43.9595 1733 41.6293
44.0765 1692 41.1339
44.1935 1692 41.1339
44.3106 1550 39.37
44.4277 1502 38.7556
44.5448 1523 39.0256
44.6619 1533 39.1535
44.7791 1640 40.4969
44.8963 1717 41.4367
45.0136 1769 42.0595
45.1308 1872 43.2666
45.2481 1867 43.2088
45.3654 1898 43.566
45.4827 1839 42.8836
45.6001 1895 43.5316
45.7174 1825 42.72
45.8348 1694 41.1582
45.9522 1513 38.8973
46.0697 1471 38.3536
46.1871 1530 39.1152
46.3046 1516 38.9358
46.422 1610 40.1248
46.5395 1699 41.2189
46.657 1801 42.4382
46.7745 1818 42.638
46.892 1846 42.9651
47.0096 1767 42.0357
47.1271 1909 43.6921
47.2446 1862 43.1509
47.3622 1827 42.7434
47.4797 1819 42.6497
47.5973 1786 42.2611
47.7149 1766 42.0238
47.8324 1661 40.7554
47.95 1670 40.8656
48.0675 1575 39.6863
48.1851 1541 39.2556
48.3027 1663 40.7799
48.4202 1671 40.8779
48.5378 1863 43.1625
48.6554 1957 44.238
48.7729 1893 43.5086
48.8904 1896 43.5431
49.008 1927 43.8976
49.1255 1865 43.1856
49.243 1754 41.8808
49.3605 1660 40.7431
49.478 1555 39.4335
49.5955 1530 39.1152
49.713 1397 37.3765
49.8304 1430 37.8153
49.9479 1538 39.2173
50.0653 1660 40.7431
50.1827 1652 40.6448
50.3001 1730 41.5933
50.4175 1853 43.0465
50.5348 1765 42.0119
50.6521 1940 44.0454
50.7694 1862 43.1509
50.8867 1936 44
51.004 1885 43.4166
51.1212 1908 43.6807
51.2384 1714 41.4005
51.3556 1741 41.7253
51.4727 1654 40.6694
51.5899 1646 40.5709
51.707 1666 40.8167
51.824 1703 41.2674
51.9411 1857 43.0929
52.0581 1969 44.3734
52.175 2135 46.2061
52.2919 2235 47.2758
52.4088 2237 47.2969
52.5257 2325 48.2183
52.6425 2205 46.9574
52.7593 2241 47.3392
52.876 2262 47.5605
52.9927 2113 45.9674
53.1094 1974 44.4297
53.226 1872 43.2666
53.3426 1900 43.589
53.4591 1894 43.5201
53.5756 1902 43.6119
53.692 1914 43.7493
53.8084 1833 42.8135
53.9248 1891 43.4856
54.0411 1754 41.8808
54.1573 1677 40.9512
54.2735 0 1
54.3896 0 1
54.5057 0 1
54.6217 0 1
54.7377 0 1
54.8537 0 1
54.9695 0 1
55.0853 0 1
55.2011 0 1
55.3168 0 1
55.4324 0 1
57.824 0 1
57.9396 0 1
58.0553 0 1
58.1711 0 1
58.2869 0 1
58.4028 0 1
58.5187 0 1
58.6347 0 1
58.7508 0 1
58.8669 0 1
58.983 1549 39.3573
59.0992 1722 41.497
59.2155 1802 42.45
59.3318 2012 44.8553
59.4482 2046 45.2327
59.5646 2153 46.4004
59.681 2207 46.9787
59.7975 2199 46.8935
59.9141 2208 46.9894
60.0306 2135 46.2061
60.1473 1953 44.1928
60.2639 2035 45.111
60.3807 1945 44.1022
60.4974 1974 44.4297
60.6142 2195 46.8508
60.731 2272 47.6655
60.8479 2284 47.7912
60.9648 2277 47.7179
61.0818 2268 47.6235
61.1987 2423 49.224
61.3158 2360 48.5798
61.4328 2205 46.9574
61.5499 2053 45.31
61.667 2005 44.7772
61.7841 1812 42.5676
61.9013 1707 41.3159
62.0185 1822 42.6849
62.1357 1809 42.5323
62.253 1971 44.3959
62.3702 2123 46.076
62.4875 2197 46.8722
62.6049 2247 47.4025
62.7222 2247 47.4025
62.8396 2322 48.1871
62.9569 2335 48.3218
63.0743 2350 48.4768
63.1918 2275 47.697
63.3092 2290 47.8539
63.4267 2167 46.551
63.5441 2164 46.5188
63.6616 2069 45.4863
63.7791 1795 42.3674
63.8966 1900 43.589
64.0142 1826 42.7317
64.1317 1950 44.1588
64.2492 2080 45.607
64.3668 2205 46.9574
64.4843 2257 47.5079
64.6019 2284 47.7912
64.7195 2359 48.5695
64.837 2279 47.7389
64.9546 2331 48.2804
65.0722 2198 46.8828
65.1898 1942 44.0681
65.3074 1911 43.715
65.4249 1724 41.5211
65.5425 1663 40.7799
65.6601 1750 41.833
65.7777 1820 42.6615
65.8952 1979 44.486
66.0128 2010 44.833
66.1304 2152 46.3897
66.2479 2182 46.7119
66.3655 2253 47.4658
66.483 2180 46.6905
66.6005 2292 47.8748
66.718 2282 47.7703
66.8355 2117 46.0109
66.953 2165 46.5296
67.0705 2116 46
67.1879 2048 45.2548
67.3054 1987 44.5758
67.4228 1819 42.6497
67.5402 1794 42.3556
67.6576 1866 43.1972
67.7749 1913 43.7379
67.8923 1900 43.589
68.0096 2130 46.1519
68.1269 2135 46.2061
68.2442 2264 47.5815
68.3614 2276 47.7074
68.4787 2088 45.6946
68.5958 2162 46.4973
68.713 2194 46.8402
68.8302 1960 44.2719
68.9473 1814 42.5911
69.0643 1713 41.3884
69.1814 1580 39.7492
69.2984 1617 40.2119
69.4154 1655 40.6817
69.5323 1874 43.2897
69.6492 1968 44.3621
69.7661 2026 45.0111
69.8829 2013 44.8665
69.9997 2038 45.1442
70.1165 2056 45.3431
70.2332 1980 44.4972
70.3499 1879 43.3474
70.4665 1803 42.4617
70.5831 1731 41.6053
70.6996 1626 40.3237
70.8161 1487 38.5616
70.9326 1422 37.7094
71.049 1285 35.8469
71.1653 1004 31.686
71.2817 929 30.4795
71.3979 843 29.0345
71.5141 848 29.1204
71.6303 846 29.0861
71.7464 752 27.4226
71.8624 0 1
71.9784 0 1
72.0944 0 1
72.2102 0 1
72.3261 0 1
72.4418 0 1
72.5575 0 1
72.6732 0 1
75.1054 0 1
75.2209 0 1
75.3365 0 1
75.4521 0 1
75.5678 0 1
75.6835 0 1
75.7993 0 1
75.9151 0 1
76.031 0 1
76.147 1369 37
76.263 1367 36.973
76.3791 1314 36.2491
76.4952 1359 36.8646
76.6113 1458 38.1838
76.7276 1554 39.4208
76.8438 1637 40.4599
76.9601 1791 42.3202
77.0765 1893 43.5086
77.1929 1871 43.2551
77.3093 1889 43.4626
77.4258 1911 43.715
77.5423 1979 44.486
77.6589 1815 42.6028
77.7755 1730 41.5933
77.8921 1528 39.0896
78.0088 1436 37.8946
78.1256 1378 37.1214
78.2423 1332 36.4966
78.3591 1426 37.7624
78.4759 1548 39.3446
78.5928 1679 40.9756
78.7097 1749 41.821
78.8266 1805 42.4853
78.9436 1845 42.9535
79.0606 1858 43.1045
79.1776 1934 43.9773
79.2946 1910 43.7035
79.4117 1879 43.3474
79.5288 1852 43.0349
79.6459 1921 43.8292
79.7631 1816 42.6146
79.8802 1809 42.5323
79.9974 1826 42.7317
80.1147 1548 39.3446
80.2319 1490 38.6005
80.3491 1591 39.8873
80.4664 1717 41.4367
80.5837 1770 42.0714
80.701 1934 43.9773
80.8183 1944 44.0908
80.9357 1987 44.5758
81.053 1896 43.5431
81.1704 1988 44.587
81.2877 1991 44.6206
81.4051 1897 43.5546
81.5225 1762 41.9762
81.6399 1572 39.6485
81.7573 1416 37.6298
81.8747 1384 37.2022
81.9922 1439 37.9342
82.1096 1549 39.3573
82.227 1730 41.5933
82.3444 1755 41.8927
82.4619 1806 42.4971
82.5793 2037 45.1331
82.6967 1974 44.4297
82.8142 2039 45.1553
82.9316 1919 43.8064
83.049 1916 43.7721
83.1664 2012 44.8553
83.2838 1898 43.566
83.4012 1904 43.6348
83.5186 1878 43.3359
83.636 1740 41.7133
83.7534 1653 40.6571
83.8708 1567 39.5854
83.9881 1591 39.8873
84.1055 1641 40.5093
84.2228 1706 41.3038
84.3401 1861 43.1393
84.4575 1939 44.0341
84.5747 1966 44.3396
84.692 2060 45.3872
84.8093 2045 45.2217
84.9265 1908 43.6807
85.0437 1883 43.3935
85.1609 1715 41.4126
85.2781 1556 39.4462
85.3952 1415 37.6165
85.5123 1417 37.6431
85.6294 1445 38.0132
85.7465 1526 39.064
85.8636 1737 41.6773
85.9806 1827 42.7434
86.0976 1872 43.2666
86.2145 1921 43.8292
86.3315 1919 43.8064
86.4484 2069 45.4863
86.5652 2017 44.911
86.682 2063 45.4203
86.7988 2012 44.8553
86.9156 1948 44.1362
87.0323 1917 43.7836
87.149 1860 43.1277
87.2657 1793 42.3438
87.3823 1572 39.6485
87.4988 1433 37.855
87.6154 1354 36.7967
87.7318 1398 37.3898
87.8483 1507 38.8201
87.9647 1505 38.7943
88.081 1573 39.6611
88.1973 1581 39.7618
88.3136 1451 38.092
88.4298 1480 38.4708
88.546 1373 37.054
88.6621 1177 34.3074
88.7781 908 30.133
88.8942 0 1
89.0101 0 1
89.126 0 1
89.2419 0 1
89.3577 0 1
89.4734 0 1
89.5891 0 1
89.7047 0 1
89.8203 0 1
89.9358 0 1
92.3269 0 1
92.4424 0 1
92.558 0 1
92.6736 0 1
92.7893 0 1
92.905 0 1
93.0208 0 1
93.1366 0 1
93.2525 0 1
93.3685 0 1
93.4845 0 1
93.6005 1509 38.8458
93.7167 1618 40.2244
93.8328 1646 40.5709
93.949 1712 41.3763
94.0653 1855 43.0697
94.1816 1664 40.7922
94.2979 1708 41.328
94.4143 1576 39.6989
94.5307 1461 38.223
94.6472 1475 38.4057
94.7637 1540 39.2428
94.8803 1549 39.3573
94.9969 1710 41.3521
95.1135 1769 42.0595
95.2302 1890 43.4741
95.3469 1930 43.9318
95.4637 2047 45.2438
95.5805 1954 44.2041
95.6973 1985 44.5533
95.8142 2017 44.911
95.9311 2001 44.7325
96.048 2019 44.9333
96.1649 1948 44.1362
96.2819 1957 44.238
96.3989 1885 43.4166
96.516 1761 41.9643
96.633 1632 40.398
96.7501 1567 39.5854
96.8673 1661 40.7554
96.9844 1743 41.7493
97.1016 1838 42.8719
97.2188 2024 44.9889
97.336 2023 44.9778
97.4532 2138 46.2385
97.5704 1956 44.2267
97.6877 2098 45.8039
97.805 2030 45.0555
97.9223 1826 42.7317
98.0396 1694 41.1582
98.1569 1553 39.4081
98.2743 1441 37.9605
98.3916 1373 37.054
98.509 1462 38.2361
98.6264 1702 41.2553
98.7438 1894 43.5201
98.8612 1889 43.4626
98.9786 2022 44.9667
99.096 2048 45.2548
99.2134 2047 45.2438
99.3308 2146 46.3249
99.4482 2160 46.4758
99.5656 2117 46.0109
99.6831 2165 46.5296
99.8005 2094 45.7602
99.9179 2030 45.0555
100.035 1885 43.4166
100.153 1850 43.0116
100.27 1818 42.638
100.388 1781 42.2019
100.505 1866 43.1972
100.622 1922 43.8406
100.74 2144 46.3033
100.857 2214 47.0532
100.975 2199 46.8935
101.092 2189 46.7868
101.209 2156 46.4327
101.327 2125 46.0977
101.444 2134 46.1952
101.561 1884 43.4051
101.679 1764 42
101.796 1644 40.5463
101.913 1538 39.2173
102.03 1614 40.1746
102.148 1850 43.0116
102.265 1893 43.5086
102.382 2006 44.7884
102.499 2076 45.5631
102.616 2143 46.2925
102.733 2234 47.2652
102.851 2182 46.7119
102.968 2302 47.9792
103.085 2267 47.613
103.202 2214 47.0532
103.319 2198 46.8828
103.436 2115 45.9891
103.552 2079 45.5961
103.669 2040 45.1664
103.786 1863 43.1625
103.903 1807 42.5088
104.02 1935 43.9886
104.137 2086 45.6727
104.253 2124 46.0869
104.37 2321 48.1768
104.487 2234 47.2652
104.603 2384 48.8262
104.72 2259 47.5289
104.836 2237 47.2969
104.953 1985 44.5533
105.069 1792 42.332
105.186 1666 40.8167
105.302 1476 38.4187
105.418 1423 37.7227
105.535 1382 37.1753
105.651 1458 38.1838
105.767 1492 38.6264
105.883 1453 38.1182
105.999 1400 37.4166
106.115 0 1
106.231 0 1
106.347 0 1
106.463 0 1
106.579 0 1
106.694 0 1
106.81 0 1
106.926 0 1
107.041 0 1
107.157 0 1
109.576 0 1
109.692 0 1
109.807 0 1
109.923 0 1
110.039 0 1
110.155 0 1
110.27 0 1
110.386 0 1
110.502 0 1
110.618 935 30.5778
110.735 1199 34.6266
110.851 1471 38.3536
110.967 1526 39.064
111.083 1728 41.5692
111.199 1855 43.0697
111.316 1995 44.6654
111.432 1971 44.3959
111.549 2037 45.1331
111.665 2131 46.1628
111.782 2104 45.8694
111.898 2091 45.7275
112.015 2047 45.2438
112.132 1978 44.4747
112.248 1847 42.9767
112.365 1750 41.833
112.482 1675 40.9268
112.599 1902 43.6119
112.716 1879 43.3474
112.832 2078 45.5851
112.949 2085 45.6618
113.066 2172 46.6047
113.183 2107 45.9021
113.3 2065 45.4423
113.417 2090 45.7165
113.534 1906 43.6578
113.652 1775 42.1307
113.769 1612 40.1497
113.886 1538 39.2173
114.003 1453 38.1182
114.12 1595 39.9375
114.238 1773 42.107
114.355 1850 43.0116
114.472 1931 43.9431
114.589 2031 45.0666
114.707 2114 45.9783
114.824 2136 46.2169
114.942 2107 45.9021
115.059 2192 46.8188
115.176 2123 46.076
115.294 2198 46.8828
115.411 2103 45.8585
115.529 2017 44.911
115.646 1986 44.5646
115.764 1948 44.1362
115.881 1714 41.4005
115.999 1770 42.0714
116.116 1757 41.9166
116.234 1900 43.589
116.351 1986 44.5646
116.469 2061 45.3982
116.586 2111 45.9456
116.704 2184 46.7333
116.821 2070 45.4973
116.939 2107 45.9021
117.056 2099 45.8148
117.174 1916 43.7721
117.291 1755 41.8927
117.409 1551 39.3827
117.526 1555 39.4335
117.644 1480 38.4708
117.761 1540 39.2428
117.879 1772 42.0951
117.996 1941 44.0568
118.114 1977 44.4635
118.231 2036 45.1221
118.349 2006 44.7884
118.466 2112 45.9565
118.584 2037 45.1331
118.701 2071 45.5082
118.819 2091 45.7275
118.936 1972 44.4072
119.053 2023 44.9778
119.171 1889 43.4626
119.288 1851 43.0232
119.405 1798 42.4028
119.523 1625 40.3113
119.64 1676 40.939
119.757 1723 41.509
119.875 1820 42.6615
119.992 1840 42.8952
120.109 1922 43.8406
120.226 2000 44.7214
120.343 2000 44.7214
120.46 2013 44.8665
120.578 2080 45.607
120.695 2089 45.7056
120.812 1882 43.382
120.929 1753 41.8688
121.046 1582 39.7744
121.163 1434 37.8682
121.279 1384 37.2022
121.396 1414 37.6032
121.513 1420 37.6829
121.63 1647 40.5832
121.747 1589 39.8623
121.863 1598 39.975
121.98 1597 39.9625
122.097 1618 40.2244
122.213 1614 40.1746
122.33 1568 39.598
122.446 1452 38.1051
122.563 1482 38.4968
122.679 1424 37.7359
122.795 1336 36.5513
122.912 1099 33.1512
123.028 1003 31.6702
123.144 980 31.305
123.26 800 28.2843
123.377 0 1
123.493 0 1
123.609 0 1
123.725 0 1
123.84 0 1
123.956 0 1
124.072 0 1
124.188 0 1
124.303 0 1
124.419 0 1
126.852 0 1
126.968 0 1
127.083 0 1
127.199 0 1
127.315 0 1
127.431 0 1
127.547 0 1
127.663 0 1
127.779 0 1
127.895 0 1
128.011 0 1
128.127 0 1
128.243 0 1
128.359 1914 43.7493
128.476 1906 43.6578
128.592 1887 43.4396
128.708 1905 43.6463
128.825 1922 43.8406
128.941 1924 43.8634
129.058 2068 45.4753
129.174 2143 46.2925
129.291 2102 45.8476
129.408 2178 46.669
129.524 2235 47.2758
129.641 2211 47.0213
129.758 2086 45.6727
129.875 1929 43.9204
129.992 1857 43.0929
130.108 1662 40.7676
130.225 1552 39.3954
130.342 1608 40.0999
130.459 1626 40.3237
130.576 1849 43
130.693 1920 43.8178
130.81 1952 44.1814
130.928 2035 45.111
131.045 2069 45.4863
131.162 2108 45.913
131.279 2189 46.7868
131.396 2216 47.0744
131.513 2179 46.6798
131.631 2133 46.1844
131.748 2060 45.3872
131.865 2023 44.9778
131.983 1950 44.1588
132.1 1929 43.9204
132.217 1911 43.715
132.335 1923 43.852
132.452 1979 44.486
132.57 2085 45.6618
132.687 2164 46.5188
132.804 2146 46.3249
132.922 2125 46.0977
133.039 2200 46.9042
133.157 2255 47.4868
133.274 2190 46.7974
133.392 2112 45.9565
133.509 1945 44.1022
133.627 1744 41.7612
133.744 1682 41.0122
133.862 1683 41.0244
133.979 1676 40.939
134.097 1746 41.7852
134.214 2019 44.9333
134.332 1998 44.699
134.449 2077 45.5741
134.567 2025 45
134.684 2172 46.6047
134.802 2205 46.9574
134.919 2107 45.9021
135.037 2215 47.0638
135.154 2235 47.2758
135.272 2055 45.3321
135.389 2091 45.7275
135.507 1893 43.5086
135.624 1922 43.8406
135.742 1945 44.1022
135.859 1947 44.1248
135.977 1998 44.699
136.094 2125 46.0977
136.211 2138 46.2385
136.329 2271 47.655
136.446 2237 47.2969
136.564 2274 47.6865
136.681 2278 47.7284
136.798 2260 47.5395
136.915 2163 46.5081
137.033 2111 45.9456
137.15 1973 44.4185
137.267 1799 42.4146
137.384 1718 41.4488
137.502 1645 40.5586
137.619 1687 41.0731
137.736 1736 41.6653
137.853 1833 42.8135
137.97 1894 43.5201
138.087 2103 45.8585
138.204 2020 44.9444
138.321 2147 46.3357
138.438 2146 46.3249
138.555 2216 47.0744
138.672 2095 45.7712
138.788 2052 45.299
138.905 1928 43.909
139.022 1852 43.0349
139.139 1776 42.1426
139.255 1698 41.2068
139.372 1604 40.05
139.488 1492 38.6264
139.605 1456 38.1576
139.721 1471 38.3536
139.838 1476 38.4187
139.954 1465 38.2753
140.071 1506 38.8072
140.187 1290 35.9166
140.303 1224 34.9857
140.419 1176 34.2929
140.535 1131 33.6303
140.652 987 31.4166
140.768 0 1
140.884 0 1
141 0 1
141.115 0 1
141.231 0 1
141.347 0 1
141.463 0 1
141.578 0 1
141.694 0 1
144.104 0 1
144.219 0 1
144.335 0 1
144.45 0 1
144.566 0 1
144.682 0 1
144.798 0 1
144.914 0 1
145.03 0 1
145.146 1569 39.6106
145.262 1628 40.3485
145.378 1667 40.8289
145.494 1741 41.7253
145.61 1781 42.2019
145.726 1676 40.939
145.842 1543 39.281
145.959 1471 38.3536
146.075 1374 37.0675
146.192 1349 36.7287
146.308 1289 35.9026
146.425 1394 37.3363
146.541 1397 37.3765
146.658 1487 38.5616
146.774 1544 39.2938
146.891 1568 39.598
147.008 1678 40.9634
147.125 1601 40.0125
147.241 1704 41.2795
147.358 1639 40.4846
147.475 1657 40.7063
147.592 1644 40.5463
147.709 1606 40.0749
147.826 1587 39.8372
147.943 1505 38.7943
148.06 1534 39.1663
148.177 1501 38.7427
148.294 1504 38.7814
148.411 1574 39.6737
148.528 1517 38.9487
148.645 1597 39.9625
148.762 1666 40.8167
148.88 1715 41.4126
148.997 1713 41.3884
149.114 1729 41.5812
149.231 1674 40.9145
149.349 1743 41.7493
149.466 1657 40.7063
149.583 1523 39.0256
149.701 1473 38.3797
149.818 1422 37.7094
149.935 1376 37.0945
150.053 1341 36.6197
150.17 1366 36.9594
150.287 1442 37.9737
150.405 1478 38.4448
150.522 1556 39.4462
150.64 1543 39.281
150.757 1596 39.95
150.875 1625 40.3113
150.992 1597 39.9625
151.11 1612 40.1497
151.227 1578 39.724
151.344 1565 39.5601
151.462 1508 38.833
151.579 1536 39.1918
151.697 1436 37.8946
151.814 1474 38.3927
151.932 1487 38.5616
152.049 1342 36.6333
152.167 1595 39.9375
152.284 1581 39.7618
152.402 1545 39.3065
152.519 1635 40.4351
152.636 1643 40.5339
152.754 1613 40.1622
152.871 1640 40.4969
152.989 1566 39.5727
153.106 1447 38.0395
153.223 1407 37.51
153.341 1373 37.054
153.458 1347 36.7015
153.575 1186 34.4384
153.693 1250 35.3553
153.81 1268 35.609
153.927 1381 37.1618
154.044 1408 37.5233
154.162 1438 37.921
154.279 1394 37.3363
154.396 1560 39.4968
154.513 1557 39.4588
154.63 1559 39.4842
154.747 1579 39.7366
154.864 1471 38.3536
154.981 1407 37.51
155.098 1454 38.1314
155.215 1415 37.6165
155.332 1371 37.027
155.449 1333 36.5103
155.566 1380 37.1484
155.683 1324 36.3868
155.8 1390 37.2827
155.917 1360 36.8782
156.033 1440 37.9473
156.15 0 1
156.267 0 1
156.383 0 1
156.5 0 1
156.617 0 1
156.733 0 1
156.85 0 1
156.966 0 1
157.082 0 1
157.199 0 1
157.315 0 1
157.431 0 1
157.547 0 1
157.664 0 1
157.78 0 1
157.896 0 1
158.012 0 1
158.128 0 1
158.244 0 1
158.359 0 1
158.475 0 1
158.591 0 1
158.706 0 1
