
6.15755 0 1
6.2731 0 1
6.3887 0 1
6.50437 0 1
6.62009 0 1
6.73587 0 1
6.8517 0 1
6.96759 0 1
7.08353 0 1
7.19952 0 1
7.31557 0 1
7.43166 0 1
7.54781 0 1
7.664 0 1
7.78024 0 1
7.89653 0 1
8.01286 0 1
8.12924 0 1
8.24567 0 1
8.36213 0 1
8.47864 0 1
8.59519 0 1
8.71178 0 1
8.82841 0 1
8.94508 0 1
9.06179 0 1
9.17853 0 1
9.29531 0 1
9.41212 0 1
9.52897 0 1
9.64584 0 1
9.76276 0 1
9.8797 0 1
9.99667 0 1
10.1137 0 1
10.2307 0 1
10.3478 0 1
10.4648 0 1
10.5819 0 1
10.6991 0 1
10.8162 0 1
10.9334 0 1
11.0506 0 1
11.1678 0 1
11.285 0 1
11.4023 0 1
11.5196 0 1
11.6369 0 1
11.7542 0 1
11.8715 0 1
11.9888 0 1
12.1062 0 1
12.2235 0 1
12.3409 0 1
12.4582 0 1
12.5756 0 1
12.693 0 1
12.8104 0 1
12.9278 0 1
13.0452 0 1
13.1626 0 1
13.28 0 1
13.3974 0 1
13.5149 0 1
13.6323 0 1
13.7497 0 1
13.8671 0 1
13.9845 0 1
14.1019 0 1
14.2193 0 1
14.3367 0 1
14.4541 0 1
14.5714 0 1
14.6888 0 1
14.8062 0 1
14.9235 0 1
15.0408 1067 32.665
15.1581 1099 33.1512
15.2755 1163 34.1028
15.3927 1265 35.5668
15.51 1197 34.5977
15.6273 1140 33.7639
15.7445 1126 33.5559
15.8617 1108 33.2866
15.9789 1210 34.7851
16.0961 1044 32.311
16.2132 1039 32.2335
16.3304 1038 32.218
16.4475 1090 33.0151
16.5646 1041 32.2645
16.6816 976 31.241
16.7986 938 30.6268
16.9156 971 31.1609
17.0326 990 31.4643
17.1496 1026 32.0312
17.2665 978 31.273
17.3833 929 30.4795
17.5002 930 30.4959
17.617 954 30.8869
17.7338 869 29.4788
17.8505 877 29.6142
17.9672 914 30.2324
18.0839 888 29.7993
18.2005 943 30.7083
18.3171 893 29.8831
18.4337 932 30.5287
18.5502 925 30.4138
18.6666 957 30.9354
18.7831 980 31.305
18.8994 941 30.6757
19.0158 947 30.7734
19.1321 944 30.7246
19.2483 855 29.2404
19.3645 816 28.5657
19.4806 759 27.55
19.5967 776 27.8568
19.7128 648 25.4558
19.8288 659 25.671
19.9447 590 24.2899
20.0606 0 1
20.1764 0 1
20.2922 0 1
20.4079 0 1
20.5236 0 1
20.6392 0 1
20.7548 0 1
20.8702 0 1
23.3078 0 1
23.4233 0 1
23.539 0 1
23.6547 0 1
23.7704 0 1
23.8862 0 1
24.0021 0 1
24.118 0 1
24.234 0 1
24.35 0 1
24.4661 402 20.0499
24.5822 449 21.1896
24.6984 524 22.891
24.8146 619 24.8797
24.9309 683 26.1343
25.0472 802 28.3196
25.1636 896 29.9333
25.28 965 31.0644
25.3965 997 31.5753
25.513 1020 31.9374
25.6296 1005 31.7017
25.7462 1037 32.2025
25.8628 1010 31.7805
25.9795 970 31.1448
26.0962 927 30.4467
26.213 994 31.5278
26.3298 926 30.4302
26.4466 838 28.9482
26.5635 808 28.4253
26.6804 865 29.4109
26.7973 862 29.3598
26.9143 837 28.931
27.0313 734 27.0924
27.1483 771 27.7669
27.2653 823 28.688
27.3824 884 29.7321
27.4996 750 27.3861
27.6167 845 29.0689
27.7339 906 30.0998
27.8511 820 28.6356
27.9683 838 28.9482
28.0855 896 29.9333
28.2028 890 29.8329
28.3201 922 30.3645
28.4374 893 29.8831
28.5547 868 29.4618
28.6721 921 30.348
28.7894 912 30.1993
28.9068 873 29.5466
29.0242 894 29.8998
29.1416 885 29.7489
29.259 881 29.6816
29.3764 803 28.3373
29.4939 828 28.775
29.6113 786 28.0357
29.7288 755 27.4773
29.8463 753 27.4408
29.9638 743 27.258
30.0812 790 28.1069
30.1987 750 27.3861
30.3162 855 29.2404
30.4337 803 28.3373
30.5512 721 26.8514
30.6687 766 27.6767
30.7862 857 29.2746
30.9037 848 29.1204
31.0212 871 29.5127
31.1387 917 30.282
31.2562 839 28.9655
31.3737 914 30.2324
31.4912 861 29.3428
31.6087 871 29.5127
31.7262 869 29.4788
31.8436 875 29.5804
31.9611 804 28.3549
32.0785 858 29.2916
32.1959 846 29.0861
32.3134 783 27.9821
32.4308 835 28.8964
32.5482 782 27.9643
32.6655 752 27.4226
32.7829 753 27.4408
32.9002 735 27.1109
33.0176 729 27
33.1349 723 26.8887
33.2522 707 26.5895
33.3694 675 25.9808
33.4867 664 25.7682
33.6039 624 24.98
33.7211 668 25.8457
33.8383 780 27.9285
33.9554 743 27.258
34.0725 803 28.3373
34.1896 761 27.5862
34.3067 746 27.313
34.4237 777 27.8747
34.5407 780 27.9285
34.6577 796 28.2135
34.7746 765 27.6586
34.8915 766 27.6767
35.0084 795 28.1957
35.1252 750 27.3861
35.242 778 27.8927
35.3587 744 27.2764
35.4755 781 27.9464
35.5921 740 27.2029
35.7088 802 28.3196
35.8254 779 27.9106
35.9419 762 27.6043
36.0584 715 26.7395
36.1749 673 25.9422
36.2913 748 27.3496
36.4077 679 26.0576
36.524 675 25.9808
36.6403 589 24.2693
36.7565 575 23.9792
36.8727 518 22.7596
36.9889 468 21.6333
37.1049 420 20.4939
37.221 0 1
37.3369 0 1
37.4529 0 1
37.5687 0 1
37.6845 0 1
37.8003 0 1
37.916 0 1
38.0316 0 1
38.1472 0 1
40.5851 0 1
40.7008 0 1
40.8164 0 1
40.9322 0 1
41.048 0 1
41.1639 0 1
41.2798 0 1
41.3958 0 1
41.5118 0 1
41.6279 0 1
41.744 312 17.6635
41.8602 387 19.6723
41.9765 422 20.5426
42.0928 443 21.0476
42.2091 437 20.9045
42.3255 475 21.7945
42.4419 523 22.8692
42.5584 550 23.4521
42.675 590 24.2899
42.7915 584 24.1661
42.9081 527 22.9565
43.0248 544 23.3238
43.1415 550 23.4521
43.2582 581 24.1039
43.375 551 23.4734
43.4918 553 23.516
43.6087 602 24.5357
43.7256 490 22.1359
43.8425 548 23.4094
43.9595 567 23.8118
44.0765 583 24.1454
44.1935 578 24.0416
44.3106 565 23.7697
44.4277 551 23.4734
44.5448 585 24.1868
44.6619 610 24.6982
44.7791 554 23.5372
44.8963 575 23.9792
45.0136 601 24.5153
45.1308 606 24.6171
45.2481 599 24.4745
45.3654 567 23.8118
45.4827 569 23.8537
45.6001 560 23.6643
45.7174 514 22.6716
45.8348 543 23.3024
45.9522 551 23.4734
46.0697 535 23.1301
46.1871 539 23.2164
46.3046 533 23.0868
46.422 587 24.2281
46.5395 543 23.3024
46.657 584 24.1661
46.7745 541 23.2594
46.892 564 23.7487
47.0096 559 23.6432
47.1271 527 22.9565
47.2446 566 23.7908
47.3622 570 23.8747
47.4797 499 22.3383
47.5973 517 22.7376
47.7149 540 23.2379
47.8324 585 24.1868
47.95 603 24.5561
48.0675 549 23.4307
48.1851 579 24.0624
48.3027 579 24.0624
48.4202 560 23.6643
48.5378 563 23.7276
48.6554 563 23.7276
48.7729 544 23.3238
48.8904 579 24.0624
49.008 546 23.3666
49.1255 559 23.6432
49.243 530 23.0217
49.3605 555 23.5584
49.478 533 23.0868
49.5955 499 22.3383
49.713 550 23.4521
49.8304 546 23.3666
49.9479 530 23.0217
50.0653 558 23.622
50.1827 581 24.1039
50.3001 515 22.6936
50.4175 516 22.7156
50.5348 579 24.0624
50.6521 591 24.3105
50.7694 567 23.8118
50.8867 552 23.4947
51.004 458 21.4009
51.1212 537 23.1733
51.2384 574 23.9583
51.3556 554 23.5372
51.4727 551 23.4734
51.5899 620 24.8998
51.707 583 24.1454
51.824 616 24.8193
51.9411 589 24.2693
52.0581 589 24.2693
52.175 540 23.2379
52.2919 525 22.9129
52.4088 570 23.8747
52.5257 536 23.1517
52.6425 495 22.2486
52.7593 507 22.5167
52.876 501 22.383
52.9927 466 21.587
53.1094 476 21.8174
53.226 474 21.7715
53.3426 495 22.2486
53.4591 524 22.891
53.5756 536 23.1517
53.692 575 23.9792
53.8084 614 24.779
53.9248 643 25.3574
54.0411 630 25.0998
54.1573 565 23.7697
54.2735 0 1
54.3896 0 1
54.5057 0 1
54.6217 0 1
54.7377 0 1
54.8537 0 1
54.9695 0 1
55.0853 0 1
55.2011 0 1
55.3168 0 1
55.4324 0 1
57.824 0 1
57.9396 0 1
58.0553 0 1
58.1711 0 1
58.2869 0 1
58.4028 0 1
58.5187 0 1
58.6347 0 1
58.7508 0 1
58.8669 0 1
58.983 6341 79.6304
59.0992 8063 89.7942
59.2155 9379 96.8452
59.3318 10528 102.606
59.4482 11464 107.07
59.5646 12285 110.838
59.681 13241 115.07
59.7975 13850 117.686
59.9141 14640 120.996
60.0306 16123 126.976
60.1473 17355 131.738
60.2639 18314 135.329
60.3807 18495 135.996
60.4974 17894 133.768
60.6142 17236 131.286
60.731 16439 128.215
60.8479 14836 121.803
60.9648 13099 114.451
61.0818 11273 106.174
61.1987 9525 97.5961
61.3158 7877 88.7525
61.4328 6352 79.6994
61.5499 5274 72.6223
61.667 4354 65.9848
61.7841 3585 59.8749
61.9013 2984 54.626
62.0185 2536 50.3587
62.1357 2095 45.7712
62.253 1736 41.6653
62.3702 1312 36.2215
62.4875 1091 33.0303
62.6049 918 30.2985
62.7222 800 28.2843
62.8396 755 27.4773
62.9569 803 28.3373
63.0743 759 27.55
63.1918 687 26.2107
63.3092 671 25.9037
63.4267 655 25.593
63.5441 688 26.2298
63.6616 696 26.3818
63.7791 716 26.7582
63.8966 678 26.0384
64.0142 680 26.0768
64.1317 703 26.5141
64.2492 673 25.9422
64.3668 644 25.3772
64.4843 658 25.6515
64.6019 604 24.5764
64.7195 604 24.5764
64.837 609 24.6779
64.9546 629 25.0799
65.0722 611 24.7184
65.1898 584 24.1661
65.3074 602 24.5357
65.4249 546 23.3666
65.5425 534 23.1084
65.6601 621 24.9199
65.7777 621 24.9199
65.8952 660 25.6905
66.0128 633 25.1595
66.1304 642 25.3377
66.2479 590 24.2899
66.3655 636 25.219
66.483 620 24.8998
66.6005 576 24
66.718 616 24.8193
66.8355 594 24.3721
66.953 602 24.5357
67.0705 574 23.9583
67.1879 597 24.4336
67.3054 655 25.593
67.4228 647 25.4362
67.5402 645 25.3969
67.6576 658 25.6515
67.7749 662 25.7294
67.8923 604 24.5764
68.0096 626 25.02
68.1269 588 24.2487
68.2442 640 25.2982
68.3614 626 25.02
68.4787 597 24.4336
68.5958 582 24.1247
68.713 577 24.0208
68.8302 552 23.4947
68.9473 522 22.8473
69.0643 538 23.1948
69.1814 536 23.1517
69.2984 590 24.2899
69.4154 571 23.8956
69.5323 593 24.3516
69.6492 693 26.3249
69.7661 602 24.5357
69.8829 632 25.1396
69.9997 635 25.1992
70.1165 634 25.1794
70.2332 553 23.516
70.3499 514 22.6716
70.4665 511 22.6053
70.5831 499 22.3383
70.6996 437 20.9045
70.8161 463 21.5174
70.9326 415 20.3715
71.049 396 19.8997
71.1653 351 18.735
71.2817 373 19.3132
71.3979 335 18.303
71.5141 313 17.6918
71.6303 341 18.4662
71.7464 269 16.4012
71.8624 0 1
71.9784 0 1
72.0944 0 1
72.2102 0 1
72.3261 0 1
72.4418 0 1
72.5575 0 1
72.6732 0 1
75.1054 0 1
75.2209 0 1
75.3365 0 1
75.4521 0 1
75.5678 0 1
75.6835 0 1
75.7993 0 1
75.9151 0 1
76.031 0 1
76.147 348 18.6548
76.263 417 20.4206
76.3791 483 21.9773
76.4952 556 23.5797
76.6113 544 23.3238
76.7276 607 24.6374
76.8438 577 24.0208
76.9601 579 24.0624
77.0765 568 23.8328
77.1929 558 23.622
77.3093 560 23.6643
77.4258 536 23.1517
77.5423 559 23.6432
77.6589 562 23.7065
77.7755 488 22.0907
77.8921 497 22.2935
78.0088 472 21.7256
78.1256 493 22.2036
78.2423 442 21.0238
78.3591 490 22.1359
78.4759 540 23.2379
78.5928 541 23.2594
78.7097 566 23.7908
78.8266 562 23.7065
78.9436 611 24.7184
79.0606 519 22.7816
79.1776 559 23.6432
79.2946 552 23.4947
79.4117 592 24.3311
79.5288 543 23.3024
79.6459 548 23.4094
79.7631 612 24.7386
79.8802 548 23.4094
79.9974 592 24.3311
80.1147 548 23.4094
80.2319 579 24.0624
80.3491 570 23.8747
80.4664 586 24.2074
80.5837 595 24.3926
80.701 575 23.9792
80.8183 592 24.3311
80.9357 579 24.0624
81.053 540 23.2379
81.1704 554 23.5372
81.2877 559 23.6432
81.4051 555 23.5584
81.5225 529 23
81.6399 512 22.6274
81.7573 519 22.7816
81.8747 468 21.6333
81.9922 476 21.8174
82.1096 570 23.8747
82.227 530 23.0217
82.3444 589 24.2693
82.4619 580 24.0832
82.5793 570 23.8747
82.6967 576 24
82.8142 589 24.2693
82.9316 552 23.4947
83.049 538 23.1948
83.1664 555 23.5584
83.2838 553 23.516
83.4012 545 23.3452
83.5186 556 23.5797
83.636 578 24.0416
83.7534 545 23.3452
83.8708 677 26.0192
83.9881 628 25.0599
84.1055 598 24.454
84.2228 622 24.9399
84.3401 575 23.9792
84.4575 572 23.9165
84.5747 595 24.3926
84.692 547 23.388
84.8093 643 25.3574
84.9265 586 24.2074
85.0437 563 23.7276
85.1609 547 23.388
85.2781 558 23.622
85.3952 476 21.8174
85.5123 485 22.0227
85.6294 565 23.7697
85.7465 551 23.4734
85.8636 543 23.3024
85.9806 604 24.5764
86.0976 550 23.4521
86.2145 559 23.6432
86.3315 605 24.5967
86.4484 607 24.6374
86.5652 609 24.6779
86.682 638 25.2587
86.7988 598 24.454
86.9156 577 24.0208
87.0323 600 24.4949
87.149 556 23.5797
87.2657 615 24.7992
87.3823 569 23.8537
87.4988 602 24.5357
87.6154 557 23.6008
87.7318 540 23.2379
87.8483 503 22.4277
87.9647 519 22.7816
88.081 483 21.9773
88.1973 416 20.3961
88.3136 351 18.735
88.4298 378 19.4422
88.546 337 18.3576
88.6621 293 17.1172
88.7781 318 17.8326
88.8942 0 1
89.0101 0 1
89.126 0 1
89.2419 0 1
89.3577 0 1
89.4734 0 1
89.5891 0 1
89.7047 0 1
89.8203 0 1
89.9358 0 1
92.3269 0 1
92.4424 0 1
92.558 0 1
92.6736 0 1
92.7893 0 1
92.905 0 1
93.0208 0 1
93.1366 0 1
93.2525 0 1
93.3685 0 1
93.4845 0 1
93.6005 481 21.9317
93.7167 506 22.4944
93.8328 540 23.2379
93.949 574 23.9583
94.0653 559 23.6432
94.1816 575 23.9792
94.2979 635 25.1992
94.4143 557 23.6008
94.5307 533 23.0868
94.6472 492 22.1811
94.7637 533 23.0868
94.8803 529 23
94.9969 551 23.4734
95.1135 622 24.9399
95.2302 559 23.6432
95.3469 576 24
95.4637 590 24.2899
95.5805 576 24
95.6973 623 24.96
95.8142 604 24.5764
95.9311 608 24.6577
96.048 650 25.4951
96.1649 576 24
96.2819 563 23.7276
96.3989 572 23.9165
96.516 606 24.6171
96.633 609 24.6779
96.7501 621 24.9199
96.8673 614 24.779
96.9844 610 24.6982
97.1016 619 24.8797
97.2188 547 23.388
97.336 590 24.2899
97.4532 580 24.0832
97.5704 625 25
97.6877 595 24.3926
97.805 545 23.3452
97.9223 607 24.6374
98.0396 578 24.0416
98.1569 573 23.9374
98.2743 524 22.891
98.3916 531 23.0434
98.509 568 23.8328
98.6264 565 23.7697
98.7438 592 24.3311
98.8612 619 24.8797
98.9786 649 25.4755
99.096 667 25.8263
99.2134 625 25
99.3308 667 25.8263
99.4482 675 25.9808
99.5656 621 24.9199
99.6831 615 24.7992
99.8005 630 25.0998
99.9179 618 24.8596
100.035 627 25.04
100.153 615 24.7992
100.27 656 25.6125
100.388 633 25.1595
100.505 672 25.923
100.622 641 25.318
100.74 618 24.8596
100.857 620 24.8998
100.975 629 25.0799
101.092 579 24.0624
101.209 647 25.4362
101.327 657 25.632
101.444 625 25
101.561 619 24.8797
101.679 584 24.1661
101.796 563 23.7276
101.913 555 23.5584
102.03 623 24.96
102.148 644 25.3772
102.265 599 24.4745
102.382 594 24.3721
102.499 617 24.8395
102.616 641 25.318
102.733 690 26.2679
102.851 681 26.096
102.968 701 26.4764
103.085 691 26.2869
103.202 653 25.5539
103.319 677 26.0192
103.436 703 26.5141
103.552 663 25.7488
103.669 665 25.7876
103.786 702 26.4953
103.903 690 26.2679
104.02 652 25.5343
104.137 662 25.7294
104.253 618 24.8596
104.37 637 25.2389
104.487 638 25.2587
104.603 631 25.1197
104.72 631 25.1197
104.836 651 25.5147
104.953 642 25.3377
105.069 581 24.1039
105.186 549 23.4307
105.302 581 24.1039
105.418 443 21.0476
105.535 454 21.3073
105.651 448 21.166
105.767 348 18.6548
105.883 336 18.3303
105.999 366 19.1311
106.115 0 1
106.231 0 1
106.347 0 1
106.463 0 1
106.579 0 1
106.694 0 1
106.81 0 1
106.926 0 1
107.041 0 1
107.157 0 1
109.576 0 1
109.692 0 1
109.807 0 1
109.923 0 1
110.039 0 1
110.155 0 1
110.27 0 1
110.386 0 1
110.502 0 1
110.618 285 16.8819
110.735 328 18.1108
110.851 414 20.347
110.967 426 20.6398
111.083 494 22.2261
111.199 497 22.2935
111.316 546 23.3666
111.432 601 24.5153
111.549 615 24.7992
111.665 596 24.4131
111.782 617 24.8395
111.898 533 23.0868
112.015 581 24.1039
112.132 563 23.7276
112.248 568 23.8328
112.365 549 23.4307
112.482 615 24.7992
112.599 646 25.4165
112.716 587 24.2281
112.832 641 25.318
112.949 539 23.2164
113.066 581 24.1039
113.183 533 23.0868
113.3 546 23.3666
113.417 536 23.1517
113.534 600 24.4949
113.652 616 24.8193
113.769 575 23.9792
113.886 517 22.7376
114.003 602 24.5357
114.12 561 23.6854
114.238 572 23.9165
114.355 494 22.2261
114.472 501 22.383
114.589 526 22.9347
114.707 535 23.1301
114.824 611 24.7184
114.942 625 25
115.059 575 23.9792
115.176 587 24.2281
115.294 613 24.7588
115.411 593 24.3516
115.529 555 23.5584
115.646 535 23.1301
115.764 534 23.1084
115.881 541 23.2594
115.999 525 22.9129
116.116 546 23.3666
116.234 545 23.3452
116.351 534 23.1084
116.469 499 22.3383
116.586 521 22.8254
116.704 518 22.7596
116.821 537 23.1733
116.939 498 22.3159
117.056 521 22.8254
117.174 553 23.516
117.291 532 23.0651
117.409 535 23.1301
117.526 568 23.8328
117.644 557 23.6008
117.761 547 23.388
117.879 478 21.8632
117.996 473 21.7486
118.114 447 21.1424
118.231 462 21.4942
118.349 580 24.0832
118.466 648 25.4558
118.584 677 26.0192
118.701 668 25.8457
118.819 650 25.4951
118.936 636 25.219
119.053 586 24.2074
119.171 602 24.5357
119.288 633 25.1595
119.405 588 24.2487
119.523 586 24.2074
119.64 576 24
119.757 554 23.5372
119.875 577 24.0208
119.992 537 23.1733
120.109 522 22.8473
120.226 509 22.561
120.343 464 21.5407
120.46 468 21.6333
120.578 445 21.095
120.695 477 21.8403
120.812 525 22.9129
120.929 450 21.2132
121.046 460 21.4476
121.163 473 21.7486
121.279 465 21.5639
121.396 443 21.0476
121.513 452 21.2603
121.63 437 20.9045
121.747 392 19.799
121.863 363 19.0526
121.98 372 19.2873
122.097 423 20.567
122.213 403 20.0749
122.33 351 18.735
122.446 375 19.3649
122.563 337 18.3576
122.679 343 18.5203
122.795 326 18.0555
122.912 274 16.5529
123.028 281 16.7631
123.144 251 15.843
123.26 227 15.0665
123.377 0 1
123.493 0 1
123.609 0 1
123.725 0 1
123.84 0 1
123.956 0 1
124.072 0 1
124.188 0 1
124.303 0 1
124.419 0 1
126.852 0 1
126.968 0 1
127.083 0 1
127.199 0 1
127.315 0 1
127.431 0 1
127.547 0 1
127.663 0 1
127.779 0 1
127.895 0 1
128.011 0 1
128.127 0 1
128.243 0 1
128.359 476 21.8174
128.476 456 21.3542
128.592 527 22.9565
128.708 454 21.3073
128.825 514 22.6716
128.941 514 22.6716
129.058 509 22.561
129.174 552 23.4947
129.291 537 23.1733
129.408 490 22.1359
129.524 551 23.4734
129.641 560 23.6643
129.758 535 23.1301
129.875 565 23.7697
129.992 598 24.454
130.108 588 24.2487
130.225 535 23.1301
130.342 599 24.4745
130.459 556 23.5797
130.576 581 24.1039
130.693 555 23.5584
130.81 570 23.8747
130.928 617 24.8395
131.045 761 27.5862
131.162 757 27.5136
131.279 813 28.5132
131.396 944 30.7246
131.513 910 30.1662
131.631 989 31.4484
131.748 985 31.3847
131.865 976 31.241
131.983 1043 32.2955
132.1 1268 35.609
132.217 1410 37.55
132.335 1717 41.4367
132.452 1986 44.5646
132.57 2401 49
132.687 2850 53.3854
132.804 3397 58.2838
132.922 4108 64.0937
133.039 4967 70.4769
133.157 6025 77.6209
133.274 6470 80.4363
133.392 7247 85.1293
133.509 7960 89.2188
133.627 9071 95.2418
133.744 9546 97.7036
133.862 10327 101.622
133.979 10667 103.281
134.097 10600 102.956
134.214 9058 95.1735
134.332 6347 79.6681
134.449 5103 71.4353
134.567 7976 89.3085
134.684 11069 105.209
134.802 12697 112.681
134.919 13776 117.371
135.037 14041 118.495
135.154 14407 120.029
135.272 14376 119.9
135.389 14471 120.295
135.507 15037 122.625
135.624 15622 124.988
135.742 16505 128.472
135.859 17402 131.917
135.977 18320 135.351
136.094 18668 136.631
136.211 19572 139.9
136.329 20229 142.229
136.446 21063 145.131
136.564 21869 147.882
136.681 23325 152.725
136.798 24197 155.554
136.915 25186 158.701
137.033 26587 163.055
137.15 27470 165.741
137.267 28546 168.956
137.384 30320 174.126
137.502 31553 177.632
137.619 32769 181.022
137.736 33683 183.529
137.853 31337 177.023
137.97 28967 170.197
138.087 25050 158.272
138.204 27816 166.781
138.321 36395 190.775
138.438 44727 211.488
138.555 50636 225.024
138.672 53308 230.885
138.788 55775 236.167
138.905 57358 239.495
139.022 57917 240.66
139.139 56116 236.888
139.255 52057 228.16
139.372 48607 220.47
139.488 46826 216.393
139.605 47060 216.933
139.721 46857 216.465
139.838 46363 215.321
139.954 46226 215.002
140.071 44663 211.336
140.187 43491 208.545
140.303 41239 203.074
140.419 39449 198.618
140.535 38283 195.66
140.652 35860 189.367
140.768 0 1
140.884 0 1
141 0 1
141.115 0 1
141.231 0 1
141.347 0 1
141.463 0 1
141.578 0 1
141.694 0 1
144.104 0 1
144.219 0 1
144.335 0 1
144.45 0 1
144.566 0 1
144.682 0 1
144.798 0 1
144.914 0 1
145.03 0 1
145.146 23589 153.587
145.262 25869 160.838
145.378 26973 164.235
145.494 26445 162.619
145.61 25751 160.471
145.726 24880 157.734
145.842 24792 157.455
145.959 23821 154.341
146.075 23055 151.839
146.192 22095 148.644
146.308 21350 146.116
146.425 20062 141.64
146.541 19169 138.452
146.658 17889 133.75
146.774 16636 128.981
146.891 15982 126.42
147.008 15905 126.115
147.125 15488 124.451
147.241 14633 120.967
147.358 13777 117.375
147.475 12862 113.411
147.592 11644 107.907
147.709 10422 102.088
147.826 9808 99.0353
147.943 9933 99.6644
148.06 9258 96.2185
148.177 8823 93.9308
148.294 8653 93.0215
148.411 8363 91.4494
148.528 8060 89.7775
148.645 7570 87.0057
148.762 7342 85.6855
148.88 6947 83.3487
148.997 6849 82.7587
149.114 6063 77.8653
149.231 5961 77.2075
149.349 5772 75.9737
149.466 5271 72.6017
149.583 5051 71.0704
149.701 4999 70.7036
149.818 4506 67.1267
149.935 4503 67.1044
150.053 3952 62.8649
150.17 3587 59.8916
150.287 3116 55.8211
150.405 2939 54.2125
150.522 3010 54.8635
150.64 3016 54.9181
150.757 3176 56.356
150.875 2952 54.3323
150.992 2952 54.3323
151.11 2734 52.2877
151.227 2637 51.3517
151.344 2384 48.8262
151.462 2364 48.621
151.579 2236 47.2864
151.697 2388 48.8672
151.814 2381 48.7955
151.932 2415 49.1426
152.049 2294 47.8957
152.167 2260 47.5395
152.284 2278 47.7284
152.402 2237 47.2969
152.519 2253 47.4658
152.636 2183 46.7226
152.754 2144 46.3033
152.871 2128 46.1303
152.989 2088 45.6946
153.106 2079 45.5961
153.223 2092 45.7384
153.341 2081 45.618
153.458 2088 45.6946
153.575 1947 44.1248
153.693 1830 42.7785
153.81 1609 40.1123
153.927 1498 38.704
154.044 1535 39.1791
154.162 1580 39.7492
154.279 1759 41.9404
154.396 1811 42.5558
154.513 1943 44.0795
154.63 1956 44.2267
154.747 1991 44.6206
154.864 1952 44.1814
154.981 1948 44.1362
155.098 1991 44.6206
155.215 1879 43.3474
155.332 1921 43.8292
155.449 2005 44.7772
155.566 1997 44.6878
155.683 2023 44.9778
155.8 2006 44.7884
155.917 2071 45.5082
156.033 2050 45.2769
156.15 0 1
156.267 0 1
156.383 0 1
156.5 0 1
156.617 0 1
156.733 0 1
156.85 0 1
156.966 0 1
157.082 0 1
157.199 0 1
157.315 0 1
157.431 0 1
157.547 0 1
157.664 0 1
157.78 0 1
157.896 0 1
158.012 0 1
158.128 0 1
158.244 0 1
158.359 0 1
158.475 0 1
158.591 0 1
158.706 0 1
