
6.15755 0 1
6.2731 0 1
6.3887 0 1
6.50437 0 1
6.62009 0 1
6.73587 0 1
6.8517 0 1
6.96759 0 1
7.08353 0 1
7.19952 0 1
7.31557 0 1
7.43166 0 1
7.54781 0 1
7.664 0 1
7.78024 0 1
7.89653 0 1
8.01286 0 1
8.12924 0 1
8.24567 0 1
8.36213 0 1
8.47864 0 1
8.59519 0 1
8.71178 0 1
8.82841 0 1
8.94508 0 1
9.06179 0 1
9.17853 0 1
9.29531 0 1
9.41212 0 1
9.52897 0 1
9.64584 0 1
9.76276 0 1
9.8797 0 1
9.99667 0 1
10.1137 0 1
10.2307 0 1
10.3478 0 1
10.4648 0 1
10.5819 0 1
10.6991 0 1
10.8162 0 1
10.9334 0 1
11.0506 0 1
11.1678 0 1
11.285 0 1
11.4023 0 1
11.5196 0 1
11.6369 0 1
11.7542 0 1
11.8715 0 1
11.9888 0 1
12.1062 0 1
12.2235 0 1
12.3409 0 1
12.4582 0 1
12.5756 0 1
12.693 0 1
12.8104 0 1
12.9278 0 1
13.0452 0 1
13.1626 0 1
13.28 0 1
13.3974 0 1
13.5149 0 1
13.6323 0 1
13.7497 0 1
13.8671 0 1
13.9845 0 1
14.1019 0 1
14.2193 0 1
14.3367 0 1
14.4541 0 1
14.5714 0 1
14.6888 0 1
14.8062 0 1
14.9235 0 1
15.0408 2036 45.1221
15.1581 2065 45.4423
15.2755 2132 46.1736
15.3927 2120 46.0435
15.51 2026 45.0111
15.6273 2002 44.7437
15.7445 1999 44.7102
15.8617 1927 43.8976
15.9789 1860 43.1277
16.0961 1855 43.0697
16.2132 1785 42.2493
16.3304 1878 43.3359
16.4475 1794 42.3556
16.5646 1817 42.6263
16.6816 1833 42.8135
16.7986 1654 40.6694
16.9156 1705 41.2916
17.0326 1744 41.7612
17.1496 1624 40.2989
17.2665 1537 39.2046
17.3833 1520 38.9872
17.5002 1552 39.3954
17.617 1519 38.9744
17.7338 1597 39.9625
17.8505 1671 40.8779
17.9672 1725 41.5331
18.0839 1800 42.4264
18.2005 1831 42.7902
18.3171 1992 44.6318
18.4337 1921 43.8292
18.5502 1912 43.7264
18.6666 1870 43.2435
18.7831 1972 44.4072
18.8994 1845 42.9535
19.0158 1856 43.0813
19.1321 1732 41.6173
19.2483 1742 41.7373
19.3645 1644 40.5463
19.4806 1532 39.1408
19.5967 1509 38.8458
19.7128 1525 39.0512
19.8288 1489 38.5876
19.9447 1358 36.8511
20.0606 0 1
20.1764 0 1
20.2922 0 1
20.4079 0 1
20.5236 0 1
20.6392 0 1
20.7548 0 1
20.8702 0 1
23.3078 0 1
23.4233 0 1
23.539 0 1
23.6547 0 1
23.7704 0 1
23.8862 0 1
24.0021 0 1
24.118 0 1
24.234 0 1
24.35 0 1
24.4661 1364 36.9324
24.5822 1375 37.081
24.6984 1460 38.2099
24.8146 1428 37.7889
24.9309 1439 37.9342
25.0472 1576 39.6989
25.1636 1610 40.1248
25.28 1515 38.923
25.3965 1563 39.5348
25.513 1559 39.4842
25.6296 1630 40.3733
25.7462 1658 40.7185
25.8628 1541 39.2556
25.9795 1514 38.9102
26.0962 1453 38.1182
26.213 1406 37.4967
26.3298 1492 38.6264
26.4466 1462 38.2361
26.5635 1570 39.6232
26.6804 1545 39.3065
26.7973 1573 39.6611
26.9143 1563 39.5348
27.0313 1556 39.4462
27.1483 1575 39.6863
27.2653 1633 40.4104
27.3824 1618 40.2244
27.4996 1555 39.4335
27.6167 1536 39.1918
27.7339 1509 38.8458
27.8511 1493 38.6394
27.9683 1412 37.5766
28.0855 1413 37.5899
28.2028 1386 37.229
28.3201 1289 35.9026
28.4374 1403 37.4566
28.5547 1478 38.4448
28.6721 1401 37.4299
28.7894 1544 39.2938
28.9068 1462 38.2361
29.0242 1333 36.5103
29.1416 1395 37.3497
29.259 1309 36.1801
29.3764 1312 36.2215
29.4939 1358 36.8511
29.6113 1277 35.7351
29.7288 1249 35.3412
29.8463 1281 35.7911
29.9638 1246 35.2987
30.0812 1375 37.081
30.1987 1372 37.0405
30.3162 1409 37.5366
30.4337 1476 38.4187
30.5512 1430 37.8153
30.6687 1448 38.0526
30.7862 1547 39.3319
30.9037 1471 38.3536
31.0212 1454 38.1314
31.1387 1495 38.6652
31.2562 1488 38.5746
31.3737 1518 38.9615
31.4912 1462 38.2361
31.6087 1355 36.8103
31.7262 1306 36.1386
31.8436 1281 35.7911
31.9611 1274 35.6931
32.0785 1428 37.7889
32.1959 1432 37.8418
32.3134 1413 37.5899
32.4308 1382 37.1753
32.5482 1376 37.0945
32.6655 1409 37.5366
32.7829 1394 37.3363
32.9002 1364 36.9324
33.0176 1331 36.4829
33.1349 1327 36.428
33.2522 1302 36.0832
33.3694 1170 34.2053
33.4867 1252 35.3836
33.6039 1192 34.5254
33.7211 1319 36.318
33.8383 1286 35.8608
33.9554 1354 36.7967
34.0725 1424 37.7359
34.1896 1401 37.4299
34.3067 1449 38.0657
34.4237 1376 37.0945
34.5407 1467 38.3014
34.6577 1468 38.3145
34.7746 1483 38.5097
34.8915 1437 37.9078
35.0084 1443 37.9868
35.1252 1442 37.9737
35.242 1384 37.2022
35.3587 1303 36.0971
35.4755 1249 35.3412
35.5921 1317 36.2905
35.7088 1349 36.7287
35.8254 1296 36
35.9419 1331 36.4829
36.0584 1316 36.2767
36.1749 1361 36.8917
36.2913 1361 36.8917
36.4077 1326 36.4143
36.524 1296 36
36.6403 1295 35.9861
36.7565 1180 34.3511
36.8727 1256 35.4401
36.9889 1236 35.1568
37.1049 1184 34.4093
37.221 0 1
37.3369 0 1
37.4529 0 1
37.5687 0 1
37.6845 0 1
37.8003 0 1
37.916 0 1
38.0316 0 1
38.1472 0 1
40.5851 0 1
40.7008 0 1
40.8164 0 1
40.9322 0 1
41.048 0 1
41.1639 0 1
41.2798 0 1
41.3958 0 1
41.5118 0 1
41.6279 0 1
41.744 921 30.348
41.8602 1032 32.1248
41.9765 1060 32.5576
42.0928 991 31.4802
42.2091 967 31.0966
42.3255 941 30.6757
42.4419 916 30.2655
42.5584 994 31.5278
42.675 1018 31.9061
42.7915 1025 32.0156
42.9081 998 31.5911
43.0248 1022 31.9687
43.1415 1038 32.218
43.2582 1074 32.7719
43.375 1029 32.078
43.4918 1062 32.5883
43.6087 1070 32.7109
43.7256 1037 32.2025
43.8425 1010 31.7805
43.9595 989 31.4484
44.0765 957 30.9354
44.1935 957 30.9354
44.3106 870 29.4958
44.4277 862 29.3598
44.5448 838 28.9482
44.6619 836 28.9137
44.7791 869 29.4788
44.8963 858 29.2916
45.0136 829 28.7924
45.1308 849 29.1376
45.2481 759 27.55
45.3654 769 27.7308
45.4827 780 27.9285
45.6001 788 28.0713
45.7174 711 26.6646
45.8348 731 27.037
45.9522 636 25.219
46.0697 744 27.2764
46.1871 707 26.5895
46.3046 718 26.7955
46.422 806 28.3901
46.5395 751 27.4044
46.657 757 27.5136
46.7745 758 27.5318
46.892 823 28.688
47.0096 751 27.4044
47.1271 723 26.8887
47.2446 791 28.1247
47.3622 766 27.6767
47.4797 747 27.3313
47.5973 728 26.9815
47.7149 685 26.1725
47.8324 670 25.8844
47.95 638 25.2587
48.0675 583 24.1454
48.1851 651 25.5147
48.3027 629 25.0799
48.4202 638 25.2587
48.5378 644 25.3772
48.6554 648 25.4558
48.7729 659 25.671
48.8904 600 24.4949
49.008 641 25.318
49.1255 643 25.3574
49.243 653 25.5539
49.3605 631 25.1197
49.478 653 25.5539
49.5955 592 24.3311
49.713 642 25.3377
49.8304 668 25.8457
49.9479 665 25.7876
50.0653 681 26.096
50.1827 704 26.533
50.3001 744 27.2764
50.4175 750 27.3861
50.5348 761 27.5862
50.6521 807 28.4077
50.7694 806 28.3901
50.8867 831 28.8271
51.004 817 28.5832
51.1212 829 28.7924
51.2384 805 28.3725
51.3556 807 28.4077
51.4727 800 28.2843
51.5899 784 28
51.707 837 28.931
51.824 851 29.1719
51.9411 858 29.2916
52.0581 925 30.4138
52.175 890 29.8329
52.2919 958 30.9516
52.4088 976 31.241
52.5257 962 31.0161
52.6425 1004 31.686
52.7593 926 30.4302
52.876 1022 31.9687
52.9927 948 30.7896
53.1094 951 30.8383
53.226 994 31.5278
53.3426 944 30.7246
53.4591 1011 31.7962
53.5756 985 31.3847
53.692 1047 32.3574
53.8084 1162 34.0881
53.9248 1104 33.2265
54.0411 1147 33.8674
54.1573 1192 34.5254
54.2735 0 1
54.3896 0 1
54.5057 0 1
54.6217 0 1
54.7377 0 1
54.8537 0 1
54.9695 0 1
55.0853 0 1
55.2011 0 1
55.3168 0 1
55.4324 0 1
57.824 0 1
57.9396 0 1
58.0553 0 1
58.1711 0 1
58.2869 0 1
58.4028 0 1
58.5187 0 1
58.6347 0 1
58.7508 0 1
58.8669 0 1
58.983 1355 36.8103
59.0992 1433 37.855
59.2155 1481 38.4838
59.3318 1535 39.1791
59.4482 1434 37.8682
59.5646 1503 38.7685
59.681 1503 38.7685
59.7975 1553 39.4081
59.9141 1456 38.1576
60.0306 1449 38.0657
60.1473 1436 37.8946
60.2639 1354 36.7967
60.3807 1316 36.2767
60.4974 1298 36.0278
60.6142 1319 36.318
60.731 1404 37.47
60.8479 1320 36.3318
60.9648 1449 38.0657
61.0818 1512 38.8844
61.1987 1386 37.229
61.3158 1377 37.108
61.4328 1299 36.0416
61.5499 1334 36.524
61.667 1362 36.9053
61.7841 1309 36.1801
61.9013 1285 35.8469
62.0185 1201 34.6554
62.1357 1314 36.2491
62.253 1272 35.6651
62.3702 1316 36.2767
62.4875 1306 36.1386
62.6049 1313 36.2353
62.7222 1302 36.0832
62.8396 1282 35.805
62.9569 1305 36.1248
63.0743 1310 36.1939
63.1918 1312 36.2215
63.3092 1265 35.5668
63.4267 1244 35.2704
63.5441 1239 35.1994
63.6616 1169 34.1906
63.7791 1209 34.7707
63.8966 1183 34.3948
64.0142 1129 33.6006
64.1317 1182 34.3802
64.2492 1262 35.5246
64.3668 1207 34.7419
64.4843 1295 35.9861
64.6019 1301 36.0694
64.7195 1233 35.1141
64.837 1245 35.2846
64.9546 1189 34.4819
65.0722 1268 35.609
65.1898 1175 34.2783
65.3074 1165 34.1321
65.4249 1100 33.1662
65.5425 1121 33.4813
65.6601 1153 33.9559
65.7777 1135 33.6898
65.8952 1145 33.8378
66.0128 1242 35.242
66.1304 1280 35.7771
66.2479 1248 35.327
66.3655 1246 35.2987
66.483 1218 34.8999
66.6005 1195 34.5688
66.718 1211 34.7994
66.8355 1287 35.8748
66.953 1270 35.6371
67.0705 1208 34.7563
67.1879 1290 35.9166
67.3054 1241 35.2278
67.4228 1229 35.0571
67.5402 1172 34.2345
67.6576 1161 34.0735
67.7749 1147 33.8674
67.8923 1207 34.7419
68.0096 1294 35.9722
68.1269 1335 36.5377
68.2442 1353 36.7831
68.3614 1353 36.7831
68.4787 1363 36.9188
68.5958 1332 36.4966
68.713 1290 35.9166
68.8302 1366 36.9594
68.9473 1324 36.3868
69.0643 1318 36.3043
69.1814 1238 35.1852
69.2984 1229 35.0571
69.4154 1262 35.5246
69.5323 1298 36.0278
69.6492 1271 35.6511
69.7661 1345 36.6742
69.8829 1326 36.4143
69.9997 1350 36.7423
70.1165 1334 36.524
70.2332 1383 37.1887
70.3499 1439 37.9342
70.4665 1368 36.9865
70.5831 1390 37.2827
70.6996 1391 37.2961
70.8161 1447 38.0395
70.9326 1391 37.2961
71.049 1390 37.2827
71.1653 1407 37.51
71.2817 1304 36.1109
71.3979 1207 34.7419
71.5141 1296 36
71.6303 1247 35.3129
71.7464 1307 36.1525
71.8624 0 1
71.9784 0 1
72.0944 0 1
72.2102 0 1
72.3261 0 1
72.4418 0 1
72.5575 0 1
72.6732 0 1
75.1054 0 1
75.2209 0 1
75.3365 0 1
75.4521 0 1
75.5678 0 1
75.6835 0 1
75.7993 0 1
75.9151 0 1
76.031 0 1
76.147 1419 37.6696
76.263 1493 38.6394
76.3791 1485 38.5357
76.4952 1464 38.2623
76.6113 1483 38.5097
76.7276 1456 38.1576
76.8438 1525 39.0512
76.9601 1617 40.2119
77.0765 1603 40.0375
77.1929 1642 40.5216
77.3093 1667 40.8289
77.4258 1628 40.3485
77.5423 1551 39.3827
77.6589 1544 39.2938
77.7755 1524 39.0384
77.8921 1458 38.1838
78.0088 1472 38.3667
78.1256 1423 37.7227
78.2423 1368 36.9865
78.3591 1370 37.0135
78.4759 1374 37.0675
78.5928 1450 38.0789
78.7097 1480 38.4708
78.8266 1455 38.1445
78.9436 1473 38.3797
79.0606 1440 37.9473
79.1776 1559 39.4842
79.2946 1450 38.0789
79.4117 1525 39.0512
79.5288 1561 39.5095
79.6459 1516 38.9358
79.7631 1487 38.5616
79.8802 1537 39.2046
79.9974 1474 38.3927
80.1147 1434 37.8682
80.2319 1354 36.7967
80.3491 1342 36.6333
80.4664 1449 38.0657
80.5837 1414 37.6032
80.701 1442 37.9737
80.8183 1515 38.923
80.9357 1496 38.6782
81.053 1408 37.5233
81.1704 1484 38.5227
81.2877 1505 38.7943
81.4051 1484 38.5227
81.5225 1449 38.0657
81.6399 1364 36.9324
81.7573 1322 36.3593
81.8747 1245 35.2846
81.9922 1255 35.426
82.1096 1207 34.7419
82.227 1250 35.3553
82.3444 1271 35.6511
82.4619 1317 36.2905
82.5793 1280 35.7771
82.6967 1351 36.756
82.8142 1368 36.9865
82.9316 1368 36.9865
83.049 1375 37.081
83.1664 1333 36.5103
83.2838 1346 36.6879
83.4012 1419 37.6696
83.5186 1360 36.8782
83.636 1383 37.1887
83.7534 1406 37.4967
83.8708 1346 36.6879
83.9881 1244 35.2704
84.1055 1257 35.4542
84.2228 1369 37
84.3401 1442 37.9737
84.4575 1529 39.1024
84.5747 1468 38.3145
84.692 1470 38.3406
84.8093 1510 38.8587
84.9265 1484 38.5227
85.0437 1495 38.6652
85.1609 1377 37.108
85.2781 1294 35.9722
85.3952 1326 36.4143
85.5123 1366 36.9594
85.6294 1248 35.327
85.7465 1349 36.7287
85.8636 1363 36.9188
85.9806 1441 37.9605
86.0976 1421 37.6962
86.2145 1437 37.9078
86.3315 1421 37.6962
86.4484 1435 37.8814
86.5652 1477 38.4318
86.682 1483 38.5097
86.7988 1509 38.8458
86.9156 1472 38.3667
87.0323 1464 38.2623
87.149 1469 38.3275
87.2657 1474 38.3927
87.3823 1470 38.3406
87.4988 1351 36.756
87.6154 1430 37.8153
87.7318 1444 38
87.8483 1518 38.9615
87.9647 1588 39.8497
88.081 1567 39.5854
88.1973 1481 38.4838
88.3136 1597 39.9625
88.4298 1588 39.8497
88.546 1564 39.5474
88.6621 1559 39.4842
88.7781 1451 38.092
88.8942 0 1
89.0101 0 1
89.126 0 1
89.2419 0 1
89.3577 0 1
89.4734 0 1
89.5891 0 1
89.7047 0 1
89.8203 0 1
89.9358 0 1
92.3269 0 1
92.4424 0 1
92.558 0 1
92.6736 0 1
92.7893 0 1
92.905 0 1
93.0208 0 1
93.1366 0 1
93.2525 0 1
93.3685 0 1
93.4845 0 1
93.6005 1466 38.2884
93.7167 1484 38.5227
93.8328 1446 38.0263
93.949 1537 39.2046
94.0653 1478 38.4448
94.1816 1331 36.4829
94.2979 1355 36.8103
94.4143 1256 35.4401
94.5307 1219 34.9142
94.6472 1243 35.2562
94.7637 1283 35.819
94.8803 1264 35.5528
94.9969 1396 37.3631
95.1135 1433 37.855
95.2302 1391 37.2961
95.3469 1437 37.9078
95.4637 1423 37.7227
95.5805 1442 37.9737
95.6973 1424 37.7359
95.8142 1461 38.223
95.9311 1529 39.1024
96.048 1420 37.6829
96.1649 1463 38.2492
96.2819 1434 37.8682
96.3989 1448 38.0526
96.516 1370 37.0135
96.633 1350 36.7423
96.7501 1373 37.054
96.8673 1268 35.609
96.9844 1421 37.6962
97.1016 1388 37.2559
97.2188 1450 38.0789
97.336 1453 38.1182
97.4532 1412 37.5766
97.5704 1549 39.3573
97.6877 1534 39.1663
97.805 1439 37.9342
97.9223 1357 36.8375
98.0396 1267 35.5949
98.1569 1264 35.5528
98.2743 1216 34.8712
98.3916 1237 35.171
98.509 1263 35.5387
98.6264 1220 34.9285
98.7438 1318 36.3043
98.8612 1303 36.0971
98.9786 1386 37.229
99.096 1381 37.1618
99.2134 1448 38.0526
99.3308 1451 38.092
99.4482 1409 37.5366
99.5656 1343 36.647
99.6831 1378 37.1214
99.8005 1317 36.2905
99.9179 1383 37.1887
100.035 1290 35.9166
100.153 1282 35.805
100.27 1269 35.623
100.388 1327 36.428
100.505 1326 36.4143
100.622 1383 37.1887
100.74 1386 37.229
100.857 1384 37.2022
100.975 1382 37.1753
101.092 1449 38.0657
101.209 1430 37.8153
101.327 1421 37.6962
101.444 1419 37.6696
101.561 1308 36.1663
101.679 1281 35.7911
101.796 1272 35.6651
101.913 1198 34.6121
102.03 1262 35.5246
102.148 1361 36.8917
102.265 1177 34.3074
102.382 1471 38.3536
102.499 1367 36.973
102.616 1398 37.3898
102.733 1492 38.6264
102.851 1427 37.7757
102.968 1460 38.2099
103.085 1468 38.3145
103.202 1467 38.3014
103.319 1426 37.7624
103.436 1477 38.4318
103.552 1548 39.3446
103.669 1477 38.4318
103.786 1410 37.55
103.903 1376 37.0945
104.02 1487 38.5616
104.137 1481 38.4838
104.253 1502 38.7556
104.37 1527 39.0768
104.487 1573 39.6611
104.603 1536 39.1918
104.72 1592 39.8999
104.836 1573 39.6611
104.953 1442 37.9737
105.069 1403 37.4566
105.186 1342 36.6333
105.302 1393 37.3229
105.418 1309 36.1801
105.535 1305 36.1248
105.651 1341 36.6197
105.767 1360 36.8782
105.883 1427 37.7757
105.999 1390 37.2827
106.115 0 1
106.231 0 1
106.347 0 1
106.463 0 1
106.579 0 1
106.694 0 1
106.81 0 1
106.926 0 1
107.041 0 1
107.157 0 1
109.576 0 1
109.692 0 1
109.807 0 1
109.923 0 1
110.039 0 1
110.155 0 1
110.27 0 1
110.386 0 1
110.502 0 1
110.618 1150 33.9116
110.735 1170 34.2053
110.851 1206 34.7275
110.967 1291 35.9305
111.083 1301 36.0694
111.199 1384 37.2022
111.316 1303 36.0971
111.432 1305 36.1248
111.549 1335 36.5377
111.665 1284 35.8329
111.782 1303 36.0971
111.898 1333 36.5103
112.015 1337 36.565
112.132 1289 35.9026
112.248 1221 34.9428
112.365 1178 34.322
112.482 1174 34.2637
112.599 1159 34.0441
112.716 1220 34.9285
112.832 1239 35.1994
112.949 1244 35.2704
113.066 1230 35.0714
113.183 1243 35.2562
113.3 1235 35.1426
113.417 1291 35.9305
113.534 1247 35.3129
113.652 1176 34.2929
113.769 1074 32.7719
113.886 1049 32.3883
114.003 1005 31.7017
114.12 1003 31.6702
114.238 1005 31.7017
114.355 1020 31.9374
114.472 1106 33.2566
114.589 1045 32.3265
114.707 1164 34.1174
114.824 1138 33.7343
114.942 1074 32.7719
115.059 1093 33.0606
115.176 1064 32.619
115.294 1048 32.3728
115.411 1049 32.3883
115.529 1055 32.4808
115.646 1011 31.7962
115.764 1007 31.7333
115.881 978 31.273
115.999 944 30.7246
116.116 903 30.05
116.234 936 30.5941
116.351 1036 32.187
116.469 968 31.1127
116.586 945 30.7409
116.704 971 31.1609
116.821 977 31.257
116.939 1021 31.9531
117.056 1023 31.9844
117.174 980 31.305
117.291 909 30.1496
117.409 871 29.5127
117.526 868 29.4618
117.644 823 28.688
117.761 873 29.5466
117.879 916 30.2655
117.996 911 30.1828
118.114 986 31.4006
118.231 955 30.9031
118.349 920 30.3315
118.466 939 30.6431
118.584 967 31.0966
118.701 1002 31.6544
118.819 997 31.5753
118.936 1001 31.6386
119.053 998 31.5911
119.171 992 31.496
119.288 1004 31.686
119.405 938 30.6268
119.523 873 29.5466
119.64 974 31.209
119.757 883 29.7153
119.875 930 30.4959
119.992 885 29.7489
120.109 970 31.1448
120.226 1007 31.7333
120.343 946 30.7571
120.46 1027 32.0468
120.578 1145 33.8378
120.695 1138 33.7343
120.812 1029 32.078
120.929 1025 32.0156
121.046 995 31.5436
121.163 976 31.241
121.279 923 30.3809
121.396 959 30.9677
121.513 1016 31.8748
121.63 991 31.4802
121.747 1065 32.6343
121.863 1149 33.8969
121.98 1109 33.3017
122.097 1122 33.4963
122.213 1121 33.4813
122.33 1177 34.3074
122.446 1150 33.9116
122.563 1151 33.9264
122.679 1159 34.0441
122.795 1085 32.9393
122.912 1123 33.5112
123.028 1119 33.4515
123.144 1112 33.3467
123.26 1046 32.3419
123.377 0 1
123.493 0 1
123.609 0 1
123.725 0 1
123.84 0 1
123.956 0 1
124.072 0 1
124.188 0 1
124.303 0 1
124.419 0 1
126.852 0 1
126.968 0 1
127.083 0 1
127.199 0 1
127.315 0 1
127.431 0 1
127.547 0 1
127.663 0 1
127.779 0 1
127.895 0 1
128.011 0 1
128.127 0 1
128.243 0 1
128.359 1374 37.0675
128.476 1305 36.1248
128.592 1228 35.0428
128.708 1211 34.7994
128.825 1220 34.9285
128.941 1299 36.0416
129.058 1283 35.819
129.174 1235 35.1426
129.291 1289 35.9026
129.408 1341 36.6197
129.524 1307 36.1525
129.641 1367 36.973
129.758 1309 36.1801
129.875 1394 37.3363
129.992 1308 36.1663
130.108 1274 35.6931
130.225 1197 34.5977
130.342 1166 34.1467
130.459 1222 34.9571
130.576 1119 33.4515
130.693 1246 35.2987
130.81 1265 35.5668
130.928 1280 35.7771
131.045 1322 36.3593
131.162 1302 36.0832
131.279 1293 35.9583
131.396 1341 36.6197
131.513 1273 35.6791
131.631 1249 35.3412
131.748 1189 34.4819
131.865 1223 34.9714
131.983 1209 34.7707
132.1 1155 33.9853
132.217 1089 33
132.335 1124 33.5261
132.452 1152 33.9411
132.57 1163 34.1028
132.687 1115 33.3916
132.804 1324 36.3868
132.922 1292 35.9444
133.039 1221 34.9428
133.157 1305 36.1248
133.274 1299 36.0416
133.392 1305 36.1248
133.509 1251 35.3695
133.627 1224 34.9857
133.744 1172 34.2345
133.862 1166 34.1467
133.979 1105 33.2415
134.097 1185 34.4238
134.214 1265 35.5668
134.332 1261 35.5106
134.449 1350 36.7423
134.567 1272 35.6651
134.684 1316 36.2767
134.802 1305 36.1248
134.919 1296 36
135.037 1283 35.819
135.154 1276 35.7211
135.272 1268 35.609
135.389 1222 34.9571
135.507 1232 35.0999
135.624 1143 33.8083
135.742 1113 33.3617
135.859 1053 32.45
135.977 1111 33.3317
136.094 1037 32.2025
136.211 1099 33.1512
136.329 1137 33.7194
136.446 1166 34.1467
136.564 1133 33.6601
136.681 1182 34.3802
136.798 1203 34.6843
136.915 1122 33.4963
137.033 1147 33.8674
137.15 1153 33.9559
137.267 1060 32.5576
137.384 1044 32.311
137.502 994 31.5278
137.619 1010 31.7805
137.736 1071 32.7261
137.853 1066 32.6497
137.97 1137 33.7194
138.087 1158 34.0294
138.204 1194 34.5543
138.321 1238 35.1852
138.438 1226 35.0143
138.555 1228 35.0428
138.672 1224 34.9857
138.788 1277 35.7351
138.905 1319 36.318
139.022 1286 35.8608
139.139 1182 34.3802
139.255 1279 35.7631
139.372 1211 34.7994
139.488 1201 34.6554
139.605 1109 33.3017
139.721 1182 34.3802
139.838 1246 35.2987
139.954 1221 34.9428
140.071 1302 36.0832
140.187 1419 37.6696
140.303 1384 37.2022
140.419 1396 37.3631
140.535 1415 37.6165
140.652 1365 36.9459
140.768 0 1
140.884 0 1
141 0 1
141.115 0 1
141.231 0 1
141.347 0 1
141.463 0 1
141.578 0 1
141.694 0 1
144.104 0 1
144.219 0 1
144.335 0 1
144.45 0 1
144.566 0 1
144.682 0 1
144.798 0 1
144.914 0 1
145.03 0 1
145.146 1563 39.5348
145.262 1717 41.4367
145.378 1783 42.2256
145.494 1910 43.7035
145.61 2109 45.9239
145.726 2124 46.0869
145.842 2235 47.2758
145.959 2387 48.8569
146.075 2330 48.2701
146.192 2299 47.9479
146.308 2349 48.4665
146.425 2462 49.6185
146.541 2645 51.4296
146.658 2881 53.6749
146.774 3140 56.0357
146.891 3470 58.9067
147.008 3728 61.0574
147.125 3964 62.9603
147.241 4272 65.3605
147.358 4506 67.1267
147.475 4528 67.2904
147.592 4796 69.2532
147.709 4900 70
147.826 4881 69.8642
147.943 4906 70.0428
148.06 5030 70.9225
148.177 5097 71.3933
148.294 5006 70.7531
148.411 5197 72.0902
148.528 5382 73.3621
148.645 5588 74.7529
148.762 5836 76.3937
148.88 6007 77.5048
148.997 6508 80.6722
149.114 6058 77.8332
149.231 6265 79.1518
149.349 6185 78.6448
149.466 6556 80.9691
149.583 6078 77.9615
149.701 5704 75.5248
149.818 5518 74.2832
149.935 5167 71.8818
150.053 5003 70.7319
150.17 5171 71.9097
150.287 5526 74.3371
150.405 5758 75.8815
150.522 6034 77.6788
150.64 6183 78.6321
150.757 6295 79.341
150.875 6305 79.404
150.992 6368 79.7997
151.11 6479 80.4922
151.227 6238 78.981
151.344 6224 78.8923
151.462 5914 76.9025
151.579 5938 77.0584
151.697 5799 76.1512
151.814 5871 76.6225
151.932 5633 75.0533
152.049 5727 75.6769
152.167 5916 76.9155
152.284 6070 77.9102
152.402 6283 79.2654
152.519 6644 81.5107
152.636 6774 82.3043
152.754 6928 83.2346
152.871 6736 82.0731
152.989 6966 83.4626
153.106 6845 82.7345
153.223 6567 81.037
153.341 6360 79.7496
153.458 5998 77.4468
153.575 5777 76.0066
153.693 5782 76.0395
153.81 5931 77.013
153.927 6205 78.7718
154.044 6626 81.4002
154.162 6823 82.6015
154.279 7067 84.0655
154.396 7255 85.1763
154.513 7340 85.6738
154.63 7462 86.3829
154.747 7519 86.7122
154.864 7444 86.2786
154.981 7490 86.5448
155.098 7434 86.2206
155.215 7301 85.4459
155.332 7153 84.5754
155.449 6868 82.8734
155.566 7067 84.0655
155.683 7021 83.7914
155.8 7270 85.2643
155.917 7506 86.6372
156.033 7872 88.7243
156.15 0 1
156.267 0 1
156.383 0 1
156.5 0 1
156.617 0 1
156.733 0 1
156.85 0 1
156.966 0 1
157.082 0 1
157.199 0 1
157.315 0 1
157.431 0 1
157.547 0 1
157.664 0 1
157.78 0 1
157.896 0 1
158.012 0 1
158.128 0 1
158.244 0 1
158.359 0 1
158.475 0 1
158.591 0 1
158.706 0 1
