
6.15755 0 1
6.2731 0 1
6.3887 0 1
6.50437 0 1
6.62009 0 1
6.73587 0 1
6.8517 0 1
6.96759 0 1
7.08353 0 1
7.19952 0 1
7.31557 0 1
7.43166 0 1
7.54781 0 1
7.664 0 1
7.78024 0 1
7.89653 0 1
8.01286 0 1
8.12924 0 1
8.24567 0 1
8.36213 0 1
8.47864 0 1
8.59519 0 1
8.71178 0 1
8.82841 0 1
8.94508 0 1
9.06179 0 1
9.17853 0 1
9.29531 0 1
9.41212 0 1
9.52897 0 1
9.64584 0 1
9.76276 0 1
9.8797 0 1
9.99667 0 1
10.1137 0 1
10.2307 0 1
10.3478 0 1
10.4648 0 1
10.5819 0 1
10.6991 0 1
10.8162 0 1
10.9334 0 1
11.0506 0 1
11.1678 0 1
11.285 0 1
11.4023 0 1
11.5196 0 1
11.6369 0 1
11.7542 0 1
11.8715 0 1
11.9888 0 1
12.1062 0 1
12.2235 0 1
12.3409 0 1
12.4582 0 1
12.5756 0 1
12.693 0 1
12.8104 0 1
12.9278 0 1
13.0452 0 1
13.1626 0 1
13.28 0 1
13.3974 0 1
13.5149 0 1
13.6323 0 1
13.7497 0 1
13.8671 0 1
13.9845 0 1
14.1019 0 1
14.2193 0 1
14.3367 0 1
14.4541 0 1
14.5714 0 1
14.6888 0 1
14.8062 0 1
14.9235 0 1
15.0408 8631 92.9032
15.1581 9096 95.373
15.2755 9091 95.3467
15.3927 9195 95.8906
15.51 9351 96.7006
15.6273 9210 95.9687
15.7445 9150 95.6556
15.8617 9139 95.5981
15.9789 8861 94.1329
16.0961 8700 93.2738
16.2132 8558 92.5095
16.3304 8843 94.0372
16.4475 8884 94.255
16.5646 9063 95.1998
16.6816 9344 96.6644
16.7986 9200 95.9166
16.9156 9203 95.9323
17.0326 9210 95.9687
17.1496 9233 96.0885
17.2665 9227 96.0573
17.3833 8734 93.4559
17.5002 8751 93.5468
17.617 8696 93.2523
17.7338 8581 92.6337
17.8505 8690 93.2202
17.9672 8940 94.5516
18.0839 9285 96.3587
18.2005 9478 97.355
18.3171 9776 98.8737
18.4337 9889 99.4435
18.5502 10184 100.916
18.6666 10421 102.083
18.7831 10368 101.823
18.8994 10163 100.812
19.0158 9843 99.2119
19.1321 9731 98.6458
19.2483 9358 96.7368
19.3645 9180 95.8123
19.4806 8688 93.2094
19.5967 8482 92.0978
19.7128 8247 90.813
19.8288 8275 90.967
19.9447 7402 86.0349
20.0606 0 1
20.1764 0 1
20.2922 0 1
20.4079 0 1
20.5236 0 1
20.6392 0 1
20.7548 0 1
20.8702 0 1
23.3078 0 1
23.4233 0 1
23.539 0 1
23.6547 0 1
23.7704 0 1
23.8862 0 1
24.0021 0 1
24.118 0 1
24.234 0 1
24.35 0 1
24.4661 8716 93.3595
24.5822 8464 92
24.6984 8478 92.0761
24.8146 8131 90.1721
24.9309 8308 91.1482
25.0472 8455 91.9511
25.1636 8627 92.8816
25.28 9166 95.7392
25.3965 9416 97.0361
25.513 9522 97.5807
25.6296 9826 99.1262
25.7462 9763 98.8079
25.8628 9755 98.7674
25.9795 9695 98.4632
26.0962 9406 96.9845
26.213 8807 93.8456
26.3298 8763 93.6109
26.4466 8736 93.4666
26.5635 8615 92.817
26.6804 8862 94.1382
26.7973 9083 95.3048
26.9143 9260 96.2289
27.0313 9337 96.6282
27.1483 9760 98.7927
27.2653 9938 99.6895
27.3824 9987 99.935
27.4996 9866 99.3277
27.6167 9670 98.3362
27.7339 9404 96.9742
27.8511 9250 96.1769
27.9683 9087 95.3258
28.0855 8619 92.8386
28.2028 8748 93.5307
28.3201 8349 91.3729
28.4374 8079 89.8833
28.5547 8150 90.2774
28.6721 8423 91.7769
28.7894 8579 92.6229
28.9068 8848 94.0638
29.0242 9133 95.5667
29.1416 9072 95.247
29.259 8992 94.8262
29.3764 9203 95.9323
29.4939 8930 94.4987
29.6113 8650 93.0054
29.7288 8597 92.72
29.8463 8206 90.587
29.9638 8107 90.0389
30.0812 7914 88.9607
30.1987 8253 90.846
30.3162 8524 92.3255
30.4337 8743 93.504
30.5512 8837 94.0053
30.6687 8977 94.747
30.7862 9362 96.7574
30.9037 9276 96.312
31.0212 9453 97.2265
31.1387 9557 97.7599
31.2562 9208 95.9583
31.3737 9172 95.7706
31.4912 9016 94.9526
31.6087 8742 93.4987
31.7262 8523 92.3201
31.8436 8279 90.989
31.9611 8163 90.3493
32.0785 8029 89.6047
32.1959 8246 90.8075
32.3134 8294 91.0714
32.4308 8437 91.8531
32.5482 8771 93.6536
32.6655 8802 93.819
32.7829 8879 94.2284
32.9002 8696 93.2523
33.0176 8835 93.9947
33.1349 8803 93.8243
33.2522 8653 93.0215
33.3694 8451 91.9293
33.4867 8267 90.923
33.6039 7950 89.1628
33.7211 7835 88.5155
33.8383 7848 88.5889
33.9554 8211 90.6146
34.0725 8521 92.3093
34.1896 8710 93.3274
34.3067 8713 93.3435
34.4237 8780 93.7017
34.5407 8991 94.8209
34.6577 9233 96.0885
34.7746 8976 94.7418
34.8915 9049 95.1262
35.0084 8806 93.8403
35.1252 8664 93.0806
35.242 8734 93.4559
35.3587 8418 91.7497
35.4755 8347 91.3619
35.5921 8058 89.7664
35.7088 7608 87.2238
35.8254 7521 86.7237
35.9419 7706 87.7838
36.0584 7907 88.9213
36.1749 8097 89.9833
36.2913 8260 90.8845
36.4077 8310 91.1592
36.524 8387 91.5806
36.6403 8503 92.2117
36.7565 8541 92.4175
36.8727 8376 91.5205
36.9889 8271 90.945
37.1049 7811 88.3799
37.221 0 1
37.3369 0 1
37.4529 0 1
37.5687 0 1
37.6845 0 1
37.8003 0 1
37.916 0 1
38.0316 0 1
38.1472 0 1
40.5851 0 1
40.7008 0 1
40.8164 0 1
40.9322 0 1
41.048 0 1
41.1639 0 1
41.2798 0 1
41.3958 0 1
41.5118 0 1
41.6279 0 1
41.744 6598 81.2281
41.8602 7121 84.386
41.9765 7223 84.9882
42.0928 7301 85.4459
42.2091 7225 85
42.3255 7057 84.006
42.4419 6654 81.5721
42.5584 6447 80.2932
42.675 6497 80.604
42.7915 6495 80.5916
42.9081 6650 81.5475
43.0248 6836 82.6801
43.1415 6989 83.6002
43.2582 6983 83.5643
43.375 7067 84.0655
43.4918 7082 84.1546
43.6087 7288 85.3698
43.7256 7166 84.6522
43.8425 7080 84.1427
43.9595 6750 82.1584
44.0765 6814 82.547
44.1935 6641 81.4923
44.3106 6324 79.5236
44.4277 6132 78.3071
44.5448 5808 76.2102
44.6619 5518 74.2832
44.7791 5477 74.0068
44.8963 5432 73.7021
45.0136 5472 73.973
45.1308 5592 74.7797
45.2481 5796 76.1315
45.3654 5654 75.1931
45.4827 5630 75.0333
45.6001 5723 75.6505
45.7174 5715 75.5976
45.8348 5609 74.8933
45.9522 5499 74.1552
46.0697 5243 72.4086
46.1871 5085 71.3092
46.3046 4796 69.2532
46.422 5082 71.2881
46.5395 5174 71.9305
46.657 5330 73.0068
46.7745 5455 73.858
46.892 5340 73.0753
47.0096 5506 74.2024
47.1271 5392 73.4302
47.2446 5573 74.6525
47.3622 5361 73.2189
47.4797 5374 73.3076
47.5973 5229 72.3118
47.7149 5038 70.9789
47.8324 5071 71.211
47.95 5062 71.1477
48.0675 4724 68.7314
48.1851 4567 67.5796
48.3027 4345 65.9166
48.4202 4351 65.9621
48.5378 4453 66.7308
48.6554 4588 67.7348
48.7729 4667 68.3154
48.8904 4890 69.9285
49.008 5009 70.7743
49.1255 4881 69.8642
49.243 5063 71.1548
49.3605 4986 70.6116
49.478 4846 69.6132
49.5955 4808 69.3397
49.713 4702 68.5711
49.8304 4479 66.9253
49.9479 4687 68.4617
50.0653 4923 70.1641
50.1827 4980 70.5691
50.3001 5331 73.0137
50.4175 5497 74.1418
50.5348 5520 74.2967
50.6521 5665 75.2662
50.7694 5804 76.184
50.8867 5887 76.7268
51.004 6065 77.8781
51.1212 6000 77.4597
51.2384 6062 77.8588
51.3556 6135 78.3262
51.4727 6197 78.721
51.5899 5808 76.2102
51.707 5769 75.9539
51.824 5692 75.4453
51.9411 5818 76.2758
52.0581 6024 77.6144
52.175 6474 80.4612
52.2919 6828 82.6317
52.4088 6871 82.8915
52.5257 7049 83.9583
52.6425 7075 84.113
52.7593 7265 85.235
52.876 7526 86.7525
52.9927 7472 86.4407
53.1094 7475 86.4581
53.226 7218 84.9588
53.3426 6931 83.2526
53.4591 6637 81.4678
53.5756 6864 82.8493
53.692 7189 84.788
53.8084 7502 86.6141
53.9248 7795 88.2893
54.0411 8091 89.95
54.1573 8172 90.3991
54.2735 0 1
54.3896 0 1
54.5057 0 1
54.6217 0 1
54.7377 0 1
54.8537 0 1
54.9695 0 1
55.0853 0 1
55.2011 0 1
55.3168 0 1
55.4324 0 1
57.824 0 1
57.9396 0 1
58.0553 0 1
58.1711 0 1
58.2869 0 1
58.4028 0 1
58.5187 0 1
58.6347 0 1
58.7508 0 1
58.8669 0 1
58.983 9060 95.184
59.0992 9693 98.453
59.2155 9898 99.4887
59.3318 10085 100.424
59.4482 10334 101.656
59.5646 10460 102.274
59.681 10510 102.518
59.7975 10470 102.323
59.9141 10362 101.794
60.0306 10158 100.787
60.1473 10053 100.265
60.2639 9788 98.9343
60.3807 9609 98.0255
60.4974 9107 95.4306
60.6142 8849 94.0691
60.731 8761 93.6002
60.8479 8878 94.2231
60.9648 9096 95.373
61.0818 9240 96.1249
61.1987 9536 97.6524
61.3158 9532 97.632
61.4328 9798 98.9848
61.5499 9768 98.8332
61.667 9830 99.1464
61.7841 9558 97.765
61.9013 9090 95.3415
62.0185 8775 93.675
62.1357 8488 92.1303
62.253 8525 92.3309
62.3702 8630 92.8978
62.4875 8972 94.7206
62.6049 9187 95.8488
62.7222 9262 96.2393
62.8396 9317 96.5246
62.9569 9588 97.9183
63.0743 9509 97.5141
63.1918 9540 97.6729
63.3092 9426 97.0876
63.4267 9512 97.5295
63.5441 9341 96.6488
63.6616 9115 95.4725
63.7791 9063 95.1998
63.8966 9027 95.0105
64.0142 8414 91.7279
64.1317 8022 89.5656
64.2492 7919 88.9888
64.3668 8054 89.7441
64.4843 8223 90.6808
64.6019 8492 92.152
64.7195 8801 93.8136
64.837 8755 93.5682
64.9546 9126 95.5301
65.0722 9136 95.5824
65.1898 9140 95.6033
65.3074 9135 95.5772
65.4249 8813 93.8776
65.5425 8498 92.1846
65.6601 8133 90.1831
65.7777 8116 90.0888
65.8952 7853 88.6172
66.0128 8255 90.857
66.1304 8502 92.2063
66.2479 9016 94.9526
66.3655 9003 94.8841
66.483 9241 96.1301
66.6005 9240 96.1249
66.718 9519 97.5654
66.8355 9407 96.9897
66.953 9439 97.1545
67.0705 9308 96.478
67.1879 9381 96.8556
67.3054 9215 95.9948
67.4228 9360 96.7471
67.5402 9003 94.8841
67.6576 8659 93.0537
67.7749 8183 90.4599
67.8923 8082 89.8999
68.0096 8107 90.0389
68.1269 8348 91.3674
68.2442 8474 92.0543
68.3614 9094 95.3625
68.4787 9228 96.0625
68.5958 9597 97.9643
68.713 9766 98.8231
68.8302 10018 100.09
68.9473 9898 99.4887
69.0643 9610 98.0306
69.1814 9419 97.0515
69.2984 8845 94.0479
69.4154 8537 92.3959
69.5323 8391 91.6024
69.6492 8596 92.7146
69.7661 9286 96.3639
69.8829 9450 97.2111
69.9997 9602 97.9898
70.1165 9777 98.8787
70.2332 10149 100.742
70.3499 9913 99.564
70.4665 10273 101.356
70.5831 10307 101.523
70.6996 10334 101.656
70.8161 10159 100.792
70.9326 9942 99.7096
71.049 9935 99.6745
71.1653 9538 97.6627
71.2817 9327 96.5764
71.3979 8669 93.1075
71.5141 8112 90.0666
71.6303 7923 89.0112
71.7464 7534 86.7986
71.8624 0 1
71.9784 0 1
72.0944 0 1
72.2102 0 1
72.3261 0 1
72.4418 0 1
72.5575 0 1
72.6732 0 1
75.1054 0 1
75.2209 0 1
75.3365 0 1
75.4521 0 1
75.5678 0 1
75.6835 0 1
75.7993 0 1
75.9151 0 1
76.031 0 1
76.147 8815 93.8882
76.263 9661 98.2904
76.3791 9817 99.0808
76.4952 9419 97.0515
76.6113 9086 95.3205
76.7276 8536 92.3905
76.8438 8276 90.9725
76.9601 8526 92.3363
77.0765 8673 93.1289
77.1929 8921 94.451
77.3093 9410 97.0052
77.4258 9692 98.448
77.5423 9861 99.3026
77.6589 10119 100.593
77.7755 10297 101.474
77.8921 10166 100.827
78.0088 9989 99.945
78.1256 9480 97.3653
78.2423 8734 93.4559
78.3591 8488 92.1303
78.4759 8041 89.6716
78.5928 8395 91.6242
78.7097 8938 94.541
78.8266 8892 94.2974
78.9436 9765 98.818
79.0606 9768 98.8332
79.1776 9995 99.975
79.2946 9993 99.965
79.4117 10188 100.936
79.5288 9984 99.92
79.6459 10221 101.099
79.7631 9759 98.7877
79.8802 10068 100.339
79.9974 9859 99.2925
80.1147 9916 99.5791
80.2319 9330 96.5919
80.3491 8867 94.1647
80.4664 8677 93.1504
80.5837 8597 92.72
80.701 8724 93.4024
80.8183 9005 94.8947
80.9357 9428 97.0979
81.053 9667 98.3209
81.1704 9850 99.2472
81.2877 10014 100.07
81.4051 10299 101.484
81.5225 10380 101.882
81.6399 10013 100.065
81.7573 9895 99.4736
81.8747 9198 95.9062
81.9922 8462 91.9891
82.1096 8155 90.305
82.227 8228 90.7083
82.3444 8820 93.9149
82.4619 9305 96.4624
82.5793 9721 98.5951
82.6967 9724 98.6103
82.8142 9922 99.6092
82.9316 10195 100.97
83.049 10018 100.09
83.1664 10203 101.01
83.2838 10141 100.703
83.4012 10236 101.173
83.5186 10254 101.262
83.636 10253 101.257
83.7534 9795 98.9697
83.8708 9558 97.765
83.9881 8946 94.5833
84.1055 8476 92.0652
84.2228 8808 93.8509
84.3401 8776 93.6803
84.4575 9189 95.8593
84.5747 9281 96.3379
84.692 9863 99.3126
84.8093 10196 100.975
84.9265 10492 102.43
85.0437 10776 103.808
85.1609 10510 102.518
85.2781 10293 101.454
85.3952 9579 97.8724
85.5123 9213 95.9844
85.6294 8640 92.9516
85.7465 8411 91.7115
85.8636 8789 93.7497
85.9806 9588 97.9183
86.0976 9959 99.7948
86.2145 10380 101.882
86.3315 10551 102.718
86.4484 10771 103.783
86.5652 10830 104.067
86.682 10936 104.575
86.7988 10784 103.846
86.9156 10966 104.719
87.0323 10862 104.221
87.149 10863 104.226
87.2657 10902 104.413
87.3823 10434 102.147
87.4988 10086 100.429
87.6154 9430 97.1082
87.7318 9107 95.4306
87.8483 9095 95.3677
87.9647 9491 97.4218
88.081 9816 99.0757
88.1973 10463 102.289
88.3136 10409 102.025
88.4298 10938 104.585
88.546 11053 105.133
88.6621 11188 105.773
88.7781 11185 105.759
88.8942 0 1
89.0101 0 1
89.126 0 1
89.2419 0 1
89.3577 0 1
89.4734 0 1
89.5891 0 1
89.7047 0 1
89.8203 0 1
89.9358 0 1
92.3269 0 1
92.4424 0 1
92.558 0 1
92.6736 0 1
92.7893 0 1
92.905 0 1
93.0208 0 1
93.1366 0 1
93.2525 0 1
93.3685 0 1
93.4845 0 1
93.6005 9962 99.8098
93.7167 10424 102.098
93.8328 10581 102.864
93.949 10460 102.274
94.0653 10593 102.922
94.1816 10019 100.095
94.2979 9505 97.4936
94.4143 9318 96.5298
94.5307 8611 92.7955
94.6472 8382 91.5533
94.7637 8895 94.3133
94.8803 9208 95.9583
94.9969 9644 98.2039
95.1135 9969 99.8449
95.2302 9939 99.6945
95.3469 10198 100.985
95.4637 10320 101.587
95.5805 10609 103
95.6973 10555 102.738
95.8142 10641 103.155
95.9311 10705 103.465
96.048 10668 103.286
96.1649 10368 101.823
96.2819 10499 102.465
96.3989 10200 100.995
96.516 9816 99.0757
96.633 9345 96.6695
96.7501 8983 94.7787
96.8673 8729 93.4291
96.9844 8873 94.1966
97.1016 9117 95.483
97.2188 9485 97.391
97.336 9958 99.7898
97.4532 9969 99.8449
97.5704 10391 101.936
97.6877 10491 102.426
97.805 10457 102.259
97.9223 10117 100.583
98.0396 9713 98.5546
98.1569 9050 95.1315
98.2743 8496 92.1737
98.3916 8397 91.6351
98.509 8683 93.1826
98.6264 9110 95.4463
98.7438 9622 98.0918
98.8612 9595 97.9541
98.9786 9866 99.3277
99.096 10198 100.985
99.2134 10048 100.24
99.3308 10126 100.628
99.4482 10397 101.966
99.5656 10068 100.339
99.6831 10210 101.045
99.8005 10110 100.548
99.9179 9934 99.6695
100.035 9814 99.0656
100.153 9323 96.5557
100.27 8943 94.5674
100.388 8497 92.1792
100.505 8593 92.6984
100.622 8803 93.8243
100.74 9028 95.0158
100.857 9492 97.4269
100.975 10038 100.19
101.092 9987 99.935
101.209 10149 100.742
101.327 10454 102.245
101.444 10416 102.059
101.561 10187 100.931
101.679 9800 98.9949
101.796 8994 94.8367
101.913 8635 92.9247
102.03 8387 91.5806
102.148 8868 94.1701
102.265 8821 93.9202
102.382 10545 102.689
102.499 10173 100.861
102.616 10540 102.665
102.733 10596 102.937
102.851 10578 102.849
102.968 10815 103.995
103.085 10851 104.168
103.202 10789 103.87
103.319 10585 102.883
103.436 10775 103.803
103.552 10627 103.087
103.669 10214 101.064
103.786 9815 99.0707
103.903 9293 96.4002
104.02 9428 97.0979
104.137 9454 97.2317
104.253 9648 98.2242
104.37 9909 99.544
104.487 10433 102.142
104.603 10784 103.846
104.72 10949 104.637
104.836 11164 105.66
104.953 11093 105.323
105.069 10772 103.788
105.186 9900 99.4987
105.302 9195 95.8906
105.418 9096 95.373
105.535 9233 96.0885
105.651 9601 97.9847
105.767 10104 100.519
105.883 10428 102.118
105.999 10266 101.321
106.115 0 1
106.231 0 1
106.347 0 1
106.463 0 1
106.579 0 1
106.694 0 1
106.81 0 1
106.926 0 1
107.041 0 1
107.157 0 1
109.576 0 1
109.692 0 1
109.807 0 1
109.923 0 1
110.039 0 1
110.155 0 1
110.27 0 1
110.386 0 1
110.502 0 1
110.618 8089 89.9389
110.735 8693 93.2363
110.851 8951 94.6097
110.967 9563 97.7906
111.083 9410 97.0052
111.199 9675 98.3616
111.316 9808 99.0353
111.432 9724 98.6103
111.549 9911 99.554
111.665 9909 99.544
111.782 9672 98.3463
111.898 9682 98.3972
112.015 9321 96.5453
112.132 9213 95.9844
112.248 8817 93.8989
112.365 8451 91.9293
112.482 8253 90.846
112.599 7847 88.5833
112.716 8010 89.4986
112.832 8375 91.515
112.949 8723 93.397
113.066 8762 93.6056
113.183 8966 94.689
113.3 9125 95.5249
113.417 9113 95.462
113.534 9369 96.7936
113.652 8862 94.1382
113.769 8210 90.6091
113.886 7659 87.5157
114.003 7188 84.7821
114.12 7253 85.1645
114.238 7541 86.8389
114.355 7690 87.6926
114.472 8262 90.8955
114.589 8096 89.9778
114.707 8186 90.4765
114.824 8161 90.3383
114.942 8520 92.3038
115.059 8266 90.9175
115.176 8293 91.0659
115.294 8114 90.0777
115.411 8051 89.7274
115.529 7941 89.1123
115.646 7679 87.6299
115.764 7308 85.4868
115.881 7194 84.8175
115.999 6806 82.4985
116.116 6498 80.6102
116.234 6495 80.5916
116.351 6681 81.7374
116.469 7040 83.9047
116.586 6849 82.7587
116.704 7244 85.1117
116.821 7087 84.1843
116.939 7221 84.9765
117.056 7485 86.5159
117.174 7156 84.5931
117.291 7048 83.9524
117.409 6511 80.6908
117.526 6256 79.0949
117.644 6055 77.8139
117.761 6108 78.1537
117.879 6431 80.1935
117.996 6627 81.4064
118.114 6953 83.3847
118.231 7155 84.5872
118.349 7065 84.0536
118.466 7212 84.9235
118.584 7281 85.3288
118.701 7285 85.3522
118.819 7336 85.6505
118.936 7311 85.5044
119.053 7088 84.1903
119.171 6968 83.4745
119.288 7073 84.1011
119.405 6795 82.4318
119.523 6670 81.6701
119.64 6445 80.2808
119.757 6485 80.5295
119.875 6536 80.8455
119.992 6505 80.6536
120.109 6841 82.7103
120.226 7203 84.8705
120.343 7346 85.7088
120.46 7670 87.5785
120.578 7865 88.6848
120.695 7953 89.1796
120.812 7779 88.1986
120.929 7872 88.7243
121.046 7325 85.5862
121.163 7021 83.7914
121.279 6760 82.2192
121.396 6710 81.9146
121.513 7099 84.2556
121.63 7350 85.7321
121.747 7944 89.1291
121.863 8112 90.0666
121.98 8369 91.4822
122.097 8401 91.657
122.213 8423 91.7769
122.33 8597 92.72
122.446 8880 94.2338
122.563 8494 92.1629
122.679 8605 92.7631
122.795 8544 92.4338
122.912 8496 92.1737
123.028 8072 89.8443
123.144 7970 89.2749
123.26 7886 88.8032
123.377 0 1
123.493 0 1
123.609 0 1
123.725 0 1
123.84 0 1
123.956 0 1
124.072 0 1
124.188 0 1
124.303 0 1
124.419 0 1
126.852 0 1
126.968 0 1
127.083 0 1
127.199 0 1
127.315 0 1
127.431 0 1
127.547 0 1
127.663 0 1
127.779 0 1
127.895 0 1
128.011 0 1
128.127 0 1
128.243 0 1
128.359 9619 98.0765
128.476 9640 98.1835
128.592 9374 96.8194
128.708 8939 94.5463
128.825 8707 93.3113
128.941 9030 95.0263
129.058 9145 95.6295
129.174 9239 96.1197
129.291 9742 98.7016
129.408 10031 100.155
129.524 9764 98.813
129.641 10078 100.389
129.758 10179 100.891
129.875 9831 99.1514
129.992 9620 98.0816
130.108 9029 95.0211
130.225 8728 93.4238
130.342 8450 91.9239
130.459 8339 91.3181
130.576 8685 93.1933
130.693 9141 95.6086
130.81 9525 97.5961
130.928 9584 97.8979
131.045 9729 98.6357
131.162 9710 98.5393
131.279 9816 99.0757
131.396 9962 99.8098
131.513 9705 98.514
131.631 9675 98.3616
131.748 9674 98.3565
131.865 9481 97.3704
131.983 9185 95.8384
132.1 9000 94.8683
132.217 8792 93.7657
132.335 8544 92.4338
132.452 8379 91.5369
132.57 8572 92.5851
132.687 8619 92.8386
132.804 9429 97.103
132.922 9291 96.3898
133.039 9275 96.3068
133.157 9762 98.8028
133.274 9457 97.2471
133.392 9652 98.2446
133.509 9261 96.2341
133.627 8958 94.6467
133.744 8385 91.5696
133.862 8091 89.95
133.979 7883 88.7863
134.097 8074 89.8554
134.214 8684 93.188
134.332 8520 92.3038
134.449 8877 94.2178
134.567 9021 94.9789
134.684 9146 95.6347
134.802 9130 95.551
134.919 9029 95.0211
135.037 9051 95.1367
135.154 8893 94.3027
135.272 8652 93.0161
135.389 8570 92.5743
135.507 8383 91.5587
135.624 7924 89.0169
135.742 7721 87.8692
135.859 7258 85.1939
135.977 7242 85.0999
136.094 7089 84.1962
136.211 7347 85.7146
136.329 7653 87.4814
136.446 7724 87.8863
136.564 7838 88.5325
136.681 7773 88.1646
136.798 7949 89.1572
136.915 7951 89.1684
137.033 7898 88.8707
137.15 7576 87.0402
137.267 7101 84.2674
137.384 6969 83.4805
137.502 6693 81.8108
137.619 6587 81.1603
137.736 6990 83.6062
137.853 7184 84.7585
137.97 7565 86.977
138.087 7995 89.4148
138.204 7936 89.0842
138.321 8270 90.9395
138.438 8390 91.5969
138.555 8447 91.9076
138.672 8332 91.2798
138.788 8501 92.2009
138.905 8482 92.0978
139.022 8457 91.9619
139.139 8304 91.1263
139.255 8174 90.4102
139.372 8083 89.9055
139.488 7812 88.3855
139.605 7928 89.0393
139.721 8069 89.8276
139.838 8105 90.0278
139.954 8634 92.9193
140.071 8760 93.5949
140.187 9199 95.9114
140.303 9246 96.1561
140.419 9324 96.5609
140.535 9263 96.2445
140.652 9375 96.8246
140.768 0 1
140.884 0 1
141 0 1
141.115 0 1
141.231 0 1
141.347 0 1
141.463 0 1
141.578 0 1
141.694 0 1
144.104 0 1
144.219 0 1
144.335 0 1
144.45 0 1
144.566 0 1
144.682 0 1
144.798 0 1
144.914 0 1
145.03 0 1
145.146 13820 117.558
145.262 15228 123.402
145.378 16131 127.008
145.494 16671 129.116
145.61 17704 133.056
145.726 18341 135.429
145.842 18560 136.235
145.959 18531 136.129
146.075 18289 135.237
146.192 18139 134.681
146.308 17861 133.645
146.425 18683 136.686
146.541 20172 142.028
146.658 21706 147.33
146.774 22851 151.165
146.891 24419 156.266
147.008 25091 158.401
147.125 26201 161.867
147.241 26709 163.429
147.358 27311 165.26
147.475 27295 165.212
147.592 27302 165.233
147.709 27181 164.867
147.826 26592 163.071
147.943 26221 161.929
148.06 25559 159.872
148.177 25147 158.578
148.294 24638 156.965
148.411 24647 156.994
148.528 25511 159.722
148.645 25843 160.758
148.762 26686 163.359
148.88 27215 164.97
148.997 28245 168.062
149.114 26044 161.382
149.231 27040 164.438
149.349 26595 163.08
149.466 26711 163.435
149.583 24994 158.095
149.701 23588 153.584
149.818 22428 149.76
149.935 21822 147.723
150.053 21688 147.268
150.17 22965 151.542
150.287 23662 153.825
150.405 24316 155.936
150.522 25104 158.442
150.64 25498 159.681
150.757 25581 159.941
150.875 26454 162.647
150.992 26173 161.781
151.11 26568 162.997
151.227 25972 161.158
151.344 25924 161.009
151.462 25344 159.198
151.579 24734 157.27
151.697 24822 157.55
151.814 24124 155.319
151.932 23968 154.816
152.049 24529 156.617
152.167 24653 157.013
152.284 26222 161.932
152.402 27198 164.918
152.519 28072 167.547
152.636 28274 168.149
152.754 28577 169.047
152.871 28740 169.529
152.989 28408 168.547
153.106 27597 166.123
153.223 25958 161.115
153.341 24931 157.896
153.458 24160 155.435
153.575 23630 153.721
153.693 24399 156.202
153.81 25459 159.559
153.927 26590 163.064
154.044 27930 167.123
154.162 28436 168.63
154.279 29197 170.871
154.396 30215 173.825
154.513 30958 175.949
154.63 31252 176.782
154.747 31143 176.474
154.864 31547 177.615
154.981 30848 175.636
155.098 30597 174.92
155.215 30481 174.588
155.332 30055 173.364
155.449 29187 170.842
155.566 29266 171.073
155.683 30128 173.574
155.8 30781 175.445
155.917 32467 180.186
156.033 33344 182.603
156.15 0 1
156.267 0 1
156.383 0 1
156.5 0 1
156.617 0 1
156.733 0 1
156.85 0 1
156.966 0 1
157.082 0 1
157.199 0 1
157.315 0 1
157.431 0 1
157.547 0 1
157.664 0 1
157.78 0 1
157.896 0 1
158.012 0 1
158.128 0 1
158.244 0 1
158.359 0 1
158.475 0 1
158.591 0 1
158.706 0 1
