
6.15755 0 1
6.2731 0 1
6.3887 0 1
6.50437 0 1
6.62009 0 1
6.73587 0 1
6.8517 0 1
6.96759 0 1
7.08353 0 1
7.19952 0 1
7.31557 0 1
7.43166 0 1
7.54781 0 1
7.664 0 1
7.78024 0 1
7.89653 0 1
8.01286 0 1
8.12924 0 1
8.24567 0 1
8.36213 0 1
8.47864 0 1
8.59519 0 1
8.71178 0 1
8.82841 0 1
8.94508 0 1
9.06179 0 1
9.17853 0 1
9.29531 0 1
9.41212 0 1
9.52897 0 1
9.64584 0 1
9.76276 0 1
9.8797 0 1
9.99667 0 1
10.1137 0 1
10.2307 0 1
10.3478 0 1
10.4648 0 1
10.5819 0 1
10.6991 0 1
10.8162 0 1
10.9334 0 1
11.0506 0 1
11.1678 0 1
11.285 0 1
11.4023 0 1
11.5196 0 1
11.6369 0 1
11.7542 0 1
11.8715 0 1
11.9888 0 1
12.1062 0 1
12.2235 0 1
12.3409 0 1
12.4582 0 1
12.5756 0 1
12.693 0 1
12.8104 0 1
12.9278 0 1
13.0452 0 1
13.1626 0 1
13.28 0 1
13.3974 0 1
13.5149 0 1
13.6323 0 1
13.7497 0 1
13.8671 0 1
13.9845 0 1
14.1019 0 1
14.2193 0 1
14.3367 0 1
14.4541 0 1
14.5714 0 1
14.6888 0 1
14.8062 0 1
14.9235 0 1
15.0408 602 24.5357
15.1581 609 24.6779
15.2755 627 25.04
15.3927 655 25.593
15.51 669 25.865
15.6273 625 25
15.7445 675 25.9808
15.8617 625 25
15.9789 608 24.6577
16.0961 596 24.4131
16.2132 610 24.6982
16.3304 608 24.6577
16.4475 594 24.3721
16.5646 610 24.6982
16.6816 586 24.2074
16.7986 597 24.4336
16.9156 617 24.8395
17.0326 598 24.454
17.1496 617 24.8395
17.2665 597 24.4336
17.3833 585 24.1868
17.5002 576 24
17.617 561 23.6854
17.7338 597 24.4336
17.8505 585 24.1868
17.9672 556 23.5797
18.0839 583 24.1454
18.2005 614 24.779
18.3171 622 24.9399
18.4337 597 24.4336
18.5502 652 25.5343
18.6666 624 24.98
18.7831 594 24.3721
18.8994 644 25.3772
19.0158 622 24.9399
19.1321 651 25.5147
19.2483 583 24.1454
19.3645 547 23.388
19.4806 510 22.5832
19.5967 477 21.8403
19.7128 447 21.1424
19.8288 435 20.8567
19.9447 345 18.5742
20.0606 0 1
20.1764 0 1
20.2922 0 1
20.4079 0 1
20.5236 0 1
20.6392 0 1
20.7548 0 1
20.8702 0 1
23.3078 0 1
23.4233 0 1
23.539 0 1
23.6547 0 1
23.7704 0 1
23.8862 0 1
24.0021 0 1
24.118 0 1
24.234 0 1
24.35 0 1
24.4661 294 17.1464
24.5822 316 17.7764
24.6984 336 18.3303
24.8146 356 18.868
24.9309 405 20.1246
25.0472 414 20.347
25.1636 471 21.7025
25.28 506 22.4944
25.3965 460 21.4476
25.513 569 23.8537
25.6296 617 24.8395
25.7462 632 25.1396
25.8628 608 24.6577
25.9795 649 25.4755
26.0962 628 25.0599
26.213 612 24.7386
26.3298 597 24.4336
26.4466 591 24.3105
26.5635 562 23.7065
26.6804 565 23.7697
26.7973 608 24.6577
26.9143 627 25.04
27.0313 582 24.1247
27.1483 616 24.8193
27.2653 631 25.1197
27.3824 626 25.02
27.4996 604 24.5764
27.6167 646 25.4165
27.7339 597 24.4336
27.8511 598 24.454
27.9683 600 24.4949
28.0855 558 23.622
28.2028 580 24.0832
28.3201 477 21.8403
28.4374 515 22.6936
28.5547 535 23.1301
28.6721 494 22.2261
28.7894 508 22.5389
28.9068 526 22.9347
29.0242 575 23.9792
29.1416 563 23.7276
29.259 640 25.2982
29.3764 660 25.6905
29.4939 595 24.3926
29.6113 595 24.3926
29.7288 572 23.9165
29.8463 538 23.1948
29.9638 546 23.3666
30.0812 543 23.3024
30.1987 559 23.6432
30.3162 545 23.3452
30.4337 573 23.9374
30.5512 574 23.9583
30.6687 566 23.7908
30.7862 582 24.1247
30.9037 583 24.1454
31.0212 580 24.0832
31.1387 571 23.8956
31.2562 577 24.0208
31.3737 569 23.8537
31.4912 544 23.3238
31.6087 531 23.0434
31.7262 508 22.5389
31.8436 533 23.0868
31.9611 516 22.7156
32.0785 487 22.0681
32.1959 474 21.7715
32.3134 530 23.0217
32.4308 553 23.516
32.5482 519 22.7816
32.6655 609 24.6779
32.7829 542 23.2809
32.9002 579 24.0624
33.0176 582 24.1247
33.1349 568 23.8328
33.2522 595 24.3926
33.3694 586 24.2074
33.4867 557 23.6008
33.6039 502 22.4054
33.7211 514 22.6716
33.8383 533 23.0868
33.9554 527 22.9565
34.0725 510 22.5832
34.1896 528 22.9783
34.3067 536 23.1517
34.4237 527 22.9565
34.5407 566 23.7908
34.6577 589 24.2693
34.7746 546 23.3666
34.8915 595 24.3926
35.0084 517 22.7376
35.1252 533 23.0868
35.242 504 22.4499
35.3587 506 22.4944
35.4755 474 21.7715
35.5921 497 22.2935
35.7088 479 21.8861
35.8254 453 21.2838
35.9419 490 22.1359
36.0584 524 22.891
36.1749 465 21.5639
36.2913 533 23.0868
36.4077 503 22.4277
36.524 462 21.4942
36.6403 502 22.4054
36.7565 465 21.5639
36.8727 452 21.2603
36.9889 405 20.1246
37.1049 407 20.1742
37.221 0 1
37.3369 0 1
37.4529 0 1
37.5687 0 1
37.6845 0 1
37.8003 0 1
37.916 0 1
38.0316 0 1
38.1472 0 1
40.5851 0 1
40.7008 0 1
40.8164 0 1
40.9322 0 1
41.048 0 1
41.1639 0 1
41.2798 0 1
41.3958 0 1
41.5118 0 1
41.6279 0 1
41.744 271 16.4621
41.8602 300 17.3205
41.9765 328 18.1108
42.0928 364 19.0788
42.2091 320 17.8885
42.3255 378 19.4422
42.4419 346 18.6011
42.5584 347 18.6279
42.675 378 19.4422
42.7915 407 20.1742
42.9081 464 21.5407
43.0248 451 21.2368
43.1415 457 21.3776
43.2582 507 22.5167
43.375 475 21.7945
43.4918 521 22.8254
43.6087 498 22.3159
43.7256 455 21.3307
43.8425 513 22.6495
43.9595 445 21.095
44.0765 460 21.4476
44.1935 436 20.8806
44.3106 430 20.7364
44.4277 462 21.4942
44.5448 380 19.4936
44.6619 414 20.347
44.7791 444 21.0713
44.8963 370 19.2354
45.0136 427 20.664
45.1308 463 21.5174
45.2481 510 22.5832
45.3654 480 21.9089
45.4827 467 21.6102
45.6001 490 22.1359
45.7174 509 22.561
45.8348 511 22.6053
45.9522 459 21.4243
46.0697 433 20.8087
46.1871 448 21.166
46.3046 454 21.3073
46.422 476 21.8174
46.5395 466 21.587
46.657 490 22.1359
46.7745 509 22.561
46.892 505 22.4722
47.0096 506 22.4944
47.1271 483 21.9773
47.2446 515 22.6936
47.3622 515 22.6936
47.4797 486 22.0454
47.5973 501 22.383
47.7149 525 22.9129
47.8324 513 22.6495
47.95 464 21.5407
48.0675 426 20.6398
48.1851 416 20.3961
48.3027 387 19.6723
48.4202 451 21.2368
48.5378 452 21.2603
48.6554 459 21.4243
48.7729 510 22.5832
48.8904 535 23.1301
49.008 524 22.891
49.1255 455 21.3307
49.243 425 20.6155
49.3605 449 21.1896
49.478 433 20.8087
49.5955 442 21.0238
49.713 396 19.8997
49.8304 434 20.8327
49.9479 428 20.6882
50.0653 463 21.5174
50.1827 475 21.7945
50.3001 496 22.2711
50.4175 535 23.1301
50.5348 489 22.1133
50.6521 509 22.561
50.7694 507 22.5167
50.8867 580 24.0832
51.004 516 22.7156
51.1212 477 21.8403
51.2384 472 21.7256
51.3556 474 21.7715
51.4727 469 21.6564
51.5899 467 21.6102
51.707 409 20.2237
51.824 399 19.975
51.9411 441 21
52.0581 436 20.8806
52.175 488 22.0907
52.2919 475 21.7945
52.4088 498 22.3159
52.5257 457 21.3776
52.6425 425 20.6155
52.7593 476 21.8174
52.876 525 22.9129
52.9927 461 21.4709
53.1094 435 20.8567
53.226 415 20.3715
53.3426 433 20.8087
53.4591 405 20.1246
53.5756 458 21.4009
53.692 433 20.8087
53.8084 392 19.799
53.9248 384 19.5959
54.0411 391 19.7737
54.1573 370 19.2354
54.2735 0 1
54.3896 0 1
54.5057 0 1
54.6217 0 1
54.7377 0 1
54.8537 0 1
54.9695 0 1
55.0853 0 1
55.2011 0 1
55.3168 0 1
55.4324 0 1
57.824 0 1
57.9396 0 1
58.0553 0 1
58.1711 0 1
58.2869 0 1
58.4028 0 1
58.5187 0 1
58.6347 0 1
58.7508 0 1
58.8669 0 1
58.983 328 18.1108
59.0992 414 20.347
59.2155 445 21.095
59.3318 484 22
59.4482 530 23.0217
59.5646 562 23.7065
59.681 579 24.0624
59.7975 616 24.8193
59.9141 625 25
60.0306 629 25.0799
60.1473 598 24.454
60.2639 563 23.7276
60.3807 603 24.5561
60.4974 534 23.1084
60.6142 540 23.2379
60.731 608 24.6577
60.8479 587 24.2281
60.9648 619 24.8797
61.0818 621 24.9199
61.1987 627 25.04
61.3158 641 25.318
61.4328 694 26.3439
61.5499 572 23.9165
61.667 593 24.3516
61.7841 579 24.0624
61.9013 539 23.2164
62.0185 585 24.1868
62.1357 521 22.8254
62.253 572 23.9165
62.3702 624 24.98
62.4875 673 25.9422
62.6049 696 26.3818
62.7222 684 26.1534
62.8396 710 26.6458
62.9569 714 26.7208
63.0743 711 26.6646
63.1918 676 26
63.3092 719 26.8142
63.4267 698 26.4197
63.5441 732 27.0555
63.6616 668 25.8457
63.7791 629 25.0799
63.8966 609 24.6779
64.0142 562 23.7065
64.1317 573 23.9374
64.2492 610 24.6982
64.3668 593 24.3516
64.4843 645 25.3969
64.6019 632 25.1396
64.7195 667 25.8263
64.837 647 25.4362
64.9546 637 25.2389
65.0722 631 25.1197
65.1898 602 24.5357
65.3074 597 24.4336
65.4249 511 22.6053
65.5425 522 22.8473
65.6601 551 23.4734
65.7777 572 23.9165
65.8952 693 26.3249
66.0128 617 24.8395
66.1304 700 26.4575
66.2479 709 26.6271
66.3655 703 26.5141
66.483 756 27.4955
66.6005 768 27.7128
66.718 738 27.1662
66.8355 719 26.8142
66.953 697 26.4008
67.0705 722 26.8701
67.1879 687 26.2107
67.3054 624 24.98
67.4228 614 24.779
67.5402 584 24.1661
67.6576 577 24.0208
67.7749 567 23.8118
67.8923 537 23.1733
68.0096 603 24.5561
68.1269 572 23.9165
68.2442 649 25.4755
68.3614 636 25.219
68.4787 673 25.9422
68.5958 670 25.8844
68.713 659 25.671
68.8302 628 25.0599
68.9473 540 23.2379
69.0643 593 24.3516
69.1814 516 22.7156
69.2984 563 23.7276
69.4154 584 24.1661
69.5323 644 25.3772
69.6492 663 25.7488
69.7661 692 26.3059
69.8829 701 26.4764
69.9997 710 26.6458
70.1165 700 26.4575
70.2332 701 26.4764
70.3499 638 25.2587
70.4665 650 25.4951
70.5831 618 24.8596
70.6996 562 23.7065
70.8161 561 23.6854
70.9326 507 22.5167
71.049 452 21.2603
71.1653 369 19.2094
71.2817 330 18.1659
71.3979 301 17.3494
71.5141 291 17.0587
71.6303 264 16.2481
71.7464 256 16
71.8624 0 1
71.9784 0 1
72.0944 0 1
72.2102 0 1
72.3261 0 1
72.4418 0 1
72.5575 0 1
72.6732 0 1
75.1054 0 1
75.2209 0 1
75.3365 0 1
75.4521 0 1
75.5678 0 1
75.6835 0 1
75.7993 0 1
75.9151 0 1
76.031 0 1
76.147 665 25.7876
76.263 709 26.6271
76.3791 759 27.55
76.4952 740 27.2029
76.6113 773 27.8029
76.7276 730 27.0185
76.8438 844 29.0517
76.9601 868 29.4618
77.0765 1001 31.6386
77.1929 1200 34.641
77.3093 1218 34.8999
77.4258 1270 35.6371
77.5423 1308 36.1663
77.6589 1450 38.0789
77.7755 1402 37.4433
77.8921 1250 35.3553
78.0088 1247 35.3129
78.1256 1345 36.6742
78.2423 1502 38.7556
78.3591 1625 40.3113
78.4759 1868 43.2204
78.5928 2147 46.3357
78.7097 2270 47.6445
78.8266 2121 46.0543
78.9436 2389 48.8774
79.0606 2375 48.734
79.1776 2373 48.7134
79.2946 2470 49.6991
79.4117 2434 49.3356
79.5288 2311 48.0729
79.6459 2215 47.0638
79.7631 2410 49.0918
79.8802 2529 50.2892
79.9974 2505 50.05
80.1147 2263 47.571
80.2319 2021 44.9555
80.3491 1841 42.9069
80.4664 1867 43.2088
80.5837 2005 44.7772
80.701 2127 46.1194
80.8183 2429 49.2849
80.9357 2509 50.0899
81.053 2436 49.3559
81.1704 2453 49.5278
81.2877 2482 49.8197
81.4051 2325 48.2183
81.5225 2037 45.1331
81.6399 1686 41.0609
81.7573 1365 36.9459
81.8747 1384 37.2022
81.9922 1481 38.4838
82.1096 1792 42.332
82.227 1992 44.6318
82.3444 2144 46.3033
82.4619 2139 46.2493
82.5793 2068 45.4753
82.6967 2042 45.1885
82.8142 1964 44.317
82.9316 2052 45.299
83.049 1979 44.486
83.1664 1809 42.5323
83.2838 1564 39.5474
83.4012 1538 39.2173
83.5186 1687 41.0731
83.636 1650 40.6202
83.7534 1581 39.7618
83.8708 1316 36.2767
83.9881 1168 34.176
84.1055 1114 33.3766
84.2228 1134 33.6749
84.3401 1096 33.1059
84.4575 1111 33.3317
84.5747 1247 35.3129
84.692 1192 34.5254
84.8093 1187 34.4529
84.9265 1125 33.541
85.0437 1041 32.2645
85.1609 843 29.0345
85.2781 750 27.3861
85.3952 751 27.4044
85.5123 639 25.2784
85.6294 681 26.096
85.7465 802 28.3196
85.8636 810 28.4605
85.9806 867 29.4449
86.0976 890 29.8329
86.2145 897 29.95
86.3315 924 30.3974
86.4484 915 30.249
86.5652 985 31.3847
86.682 922 30.3645
86.7988 885 29.7489
86.9156 884 29.7321
87.0323 895 29.9166
87.149 841 29
87.2657 797 28.2312
87.3823 756 27.4955
87.4988 647 25.4362
87.6154 571 23.8956
87.7318 531 23.0434
87.8483 585 24.1868
87.9647 555 23.5584
88.081 644 25.3772
88.1973 669 25.865
88.3136 654 25.5734
88.4298 643 25.3574
88.546 598 24.454
88.6621 502 22.4054
88.7781 436 20.8806
88.8942 0 1
89.0101 0 1
89.126 0 1
89.2419 0 1
89.3577 0 1
89.4734 0 1
89.5891 0 1
89.7047 0 1
89.8203 0 1
89.9358 0 1
92.3269 0 1
92.4424 0 1
92.558 0 1
92.6736 0 1
92.7893 0 1
92.905 0 1
93.0208 0 1
93.1366 0 1
93.2525 0 1
93.3685 0 1
93.4845 0 1
93.6005 791 28.1247
93.7167 834 28.8791
93.8328 931 30.5123
93.949 955 30.9031
94.0653 996 31.5595
94.1816 1036 32.187
94.2979 1065 32.6343
94.4143 1054 32.4654
94.5307 1109 33.3017
94.6472 1033 32.1403
94.7637 1034 32.1559
94.8803 1007 31.7333
94.9969 1051 32.4191
95.1135 1128 33.5857
95.2302 1152 33.9411
95.3469 1230 35.0714
95.4637 1170 34.2053
95.5805 1304 36.1109
95.6973 1286 35.8608
95.8142 1244 35.2704
95.9311 1230 35.0714
96.048 1261 35.5106
96.1649 1184 34.4093
96.2819 1164 34.1174
96.3989 1144 33.8231
96.516 1136 33.7046
96.633 1083 32.909
96.7501 927 30.4467
96.8673 770 27.7489
96.9844 806 28.3901
97.1016 846 29.0861
97.2188 845 29.0689
97.336 990 31.4643
97.4532 1184 34.4093
97.5704 1187 34.4529
97.6877 1221 34.9428
97.805 1203 34.6843
97.9223 1157 34.0147
98.0396 1062 32.5883
98.1569 975 31.225
98.2743 974 31.209
98.3916 883 29.7153
98.509 912 30.1993
98.6264 1033 32.1403
98.7438 1053 32.45
98.8612 1138 33.7343
98.9786 1212 34.8138
99.096 1194 34.5543
99.2134 1280 35.7771
99.3308 1277 35.7351
99.4482 1274 35.6931
99.5656 1248 35.327
99.6831 1210 34.7851
99.8005 1185 34.4238
99.9179 1127 33.5708
100.035 1139 33.7491
100.153 986 31.4006
100.27 899 29.9833
100.388 856 29.2575
100.505 767 27.6948
100.622 785 28.0179
100.74 841 29
100.857 959 30.9677
100.975 998 31.5911
101.092 1090 33.0151
101.209 1046 32.3419
101.327 1005 31.7017
101.444 959 30.9677
101.561 926 30.4302
101.679 852 29.189
101.796 778 27.8927
101.913 742 27.2397
102.03 727 26.9629
102.148 793 28.1603
102.265 850 29.1548
102.382 945 30.7409
102.499 993 31.5119
102.616 977 31.257
102.733 961 31
102.851 996 31.5595
102.968 1025 32.0156
103.085 1046 32.3419
103.202 1016 31.8748
103.319 1046 32.3419
103.436 902 30.0333
103.552 917 30.282
103.669 903 30.05
103.786 890 29.8329
103.903 717 26.7769
104.02 708 26.6083
104.137 724 26.9072
104.253 738 27.1662
104.37 849 29.1376
104.487 956 30.9192
104.603 986 31.4006
104.72 920 30.3315
104.836 866 29.4279
104.953 856 29.2575
105.069 779 27.9106
105.186 689 26.2488
105.302 617 24.8395
105.418 616 24.8193
105.535 621 24.9199
105.651 561 23.6854
105.767 619 24.8797
105.883 614 24.779
105.999 595 24.3926
106.115 0 1
106.231 0 1
106.347 0 1
106.463 0 1
106.579 0 1
106.694 0 1
106.81 0 1
106.926 0 1
107.041 0 1
107.157 0 1
109.576 0 1
109.692 0 1
109.807 0 1
109.923 0 1
110.039 0 1
110.155 0 1
110.27 0 1
110.386 0 1
110.502 0 1
110.618 323 17.9722
110.735 408 20.199
110.851 520 22.8035
110.967 569 23.8537
111.083 671 25.9037
111.199 666 25.807
111.316 725 26.9258
111.432 801 28.3019
111.549 848 29.1204
111.665 787 28.0535
111.782 799 28.2666
111.898 821 28.6531
112.015 750 27.3861
112.132 787 28.0535
112.248 833 28.8617
112.365 688 26.2298
112.482 626 25.02
112.599 637 25.2389
112.716 645 25.3969
112.832 640 25.2982
112.949 719 26.8142
113.066 767 27.6948
113.183 795 28.1957
113.3 772 27.7849
113.417 833 28.8617
113.534 795 28.1957
113.652 757 27.5136
113.769 708 26.6083
113.886 665 25.7876
114.003 608 24.6577
114.12 627 25.04
114.238 688 26.2298
114.355 739 27.1846
114.472 744 27.2764
114.589 895 29.9166
114.707 907 30.1164
114.824 889 29.8161
114.942 904 30.0666
115.059 889 29.8161
115.176 936 30.5941
115.294 868 29.4618
115.411 830 28.8097
115.529 913 30.2159
115.646 802 28.3196
115.764 753 27.4408
115.881 731 27.037
115.999 649 25.4755
116.116 667 25.8263
116.234 655 25.593
116.351 675 25.9808
116.469 725 26.9258
116.586 748 27.3496
116.704 786 28.0357
116.821 766 27.6767
116.939 817 28.5832
117.056 773 27.8029
117.174 790 28.1069
117.291 659 25.671
117.409 654 25.5734
117.526 607 24.6374
117.644 635 25.1992
117.761 668 25.8457
117.879 686 26.1916
117.996 739 27.1846
118.114 836 28.9137
118.231 857 29.2746
118.349 871 29.5127
118.466 855 29.2404
118.584 909 30.1496
118.701 906 30.0998
118.819 874 29.5635
118.936 827 28.7576
119.053 816 28.5657
119.171 792 28.1425
119.288 791 28.1247
119.405 777 27.8747
119.523 719 26.8142
119.64 605 24.5967
119.757 671 25.9037
119.875 629 25.0799
119.992 625 25
120.109 675 25.9808
120.226 761 27.5862
120.343 726 26.9444
120.46 783 27.9821
120.578 750 27.3861
120.695 776 27.8568
120.812 778 27.8927
120.929 726 26.9444
121.046 658 25.6515
121.163 599 24.4745
121.279 586 24.2074
121.396 619 24.8797
121.513 615 24.7992
121.63 656 25.6125
121.747 678 26.0384
121.863 701 26.4764
121.98 733 27.074
122.097 713 26.7021
122.213 661 25.7099
122.33 682 26.1151
122.446 697 26.4008
122.563 602 24.5357
122.679 546 23.3666
122.795 544 23.3238
122.912 553 23.516
123.028 468 21.6333
123.144 362 19.0263
123.26 319 17.8606
123.377 0 1
123.493 0 1
123.609 0 1
123.725 0 1
123.84 0 1
123.956 0 1
124.072 0 1
124.188 0 1
124.303 0 1
124.419 0 1
126.852 0 1
126.968 0 1
127.083 0 1
127.199 0 1
127.315 0 1
127.431 0 1
127.547 0 1
127.663 0 1
127.779 0 1
127.895 0 1
128.011 0 1
128.127 0 1
128.243 0 1
128.359 792 28.1425
128.476 795 28.1957
128.592 817 28.5832
128.708 760 27.5681
128.825 738 27.1662
128.941 774 27.8209
129.058 712 26.6833
129.174 786 28.0357
129.291 777 27.8747
129.408 819 28.6182
129.524 836 28.9137
129.641 842 29.0172
129.758 893 29.8831
129.875 848 29.1204
129.992 789 28.0891
130.108 764 27.6405
130.225 721 26.8514
130.342 688 26.2298
130.459 684 26.1534
130.576 776 27.8568
130.693 785 28.0179
130.81 816 28.5657
130.928 888 29.7993
131.045 853 29.2062
131.162 902 30.0333
131.279 859 29.3087
131.396 839 28.9655
131.513 865 29.4109
131.631 796 28.2135
131.748 807 28.4077
131.865 840 28.9828
131.983 833 28.8617
132.1 802 28.3196
132.217 742 27.2397
132.335 684 26.1534
132.452 748 27.3496
132.57 739 27.1846
132.687 758 27.5318
132.804 775 27.8388
132.922 787 28.0535
133.039 851 29.1719
133.157 864 29.3939
133.274 824 28.7054
133.392 801 28.3019
133.509 829 28.7924
133.627 764 27.6405
133.744 699 26.4386
133.862 738 27.1662
133.979 732 27.0555
134.097 764 27.6405
134.214 783 27.9821
134.332 773 27.8029
134.449 809 28.4429
134.567 816 28.5657
134.684 829 28.7924
134.802 848 29.1204
134.919 886 29.7658
135.037 866 29.4279
135.154 837 28.931
135.272 819 28.6182
135.389 870 29.4958
135.507 745 27.2947
135.624 796 28.2135
135.742 718 26.7955
135.859 748 27.3496
135.977 700 26.4575
136.094 716 26.7582
136.211 742 27.2397
136.329 745 27.2947
136.446 823 28.688
136.564 837 28.931
136.681 887 29.7825
136.798 864 29.3939
136.915 887 29.7825
137.033 856 29.2575
137.15 824 28.7054
137.267 761 27.5862
137.384 696 26.3818
137.502 687 26.2107
137.619 726 26.9444
137.736 734 27.0924
137.853 766 27.6767
137.97 755 27.4773
138.087 834 28.8791
138.204 809 28.4429
138.321 772 27.7849
138.438 786 28.0357
138.555 902 30.0333
138.672 807 28.4077
138.788 807 28.4077
138.905 763 27.6225
139.022 723 26.8887
139.139 695 26.3629
139.255 672 25.923
139.372 621 24.9199
139.488 577 24.0208
139.605 515 22.6936
139.721 482 21.9545
139.838 489 22.1133
139.954 516 22.7156
140.071 555 23.5584
140.187 498 22.3159
140.303 466 21.587
140.419 386 19.6469
140.535 391 19.7737
140.652 391 19.7737
140.768 0 1
140.884 0 1
141 0 1
141.115 0 1
141.231 0 1
141.347 0 1
141.463 0 1
141.578 0 1
141.694 0 1
144.104 0 1
144.219 0 1
144.335 0 1
144.45 0 1
144.566 0 1
144.682 0 1
144.798 0 1
144.914 0 1
145.03 0 1
145.146 492 22.1811
145.262 566 23.7908
145.378 613 24.7588
145.494 656 25.6125
145.61 663 25.7488
145.726 626 25.02
145.842 620 24.8998
145.959 619 24.8797
146.075 590 24.2899
146.192 559 23.6432
146.308 548 23.4094
146.425 537 23.1733
146.541 526 22.9347
146.658 595 24.3926
146.774 629 25.0799
146.891 586 24.2074
147.008 649 25.4755
147.125 657 25.632
147.241 559 23.6432
147.358 650 25.4951
147.475 641 25.318
147.592 667 25.8263
147.709 636 25.219
147.826 618 24.8596
147.943 590 24.2899
148.06 655 25.593
148.177 595 24.3926
148.294 557 23.6008
148.411 584 24.1661
148.528 551 23.4734
148.645 576 24
148.762 601 24.5153
148.88 636 25.219
148.997 678 26.0384
149.114 667 25.8263
149.231 653 25.5539
149.349 698 26.4197
149.466 612 24.7386
149.583 633 25.1595
149.701 619 24.8797
149.818 578 24.0416
149.935 522 22.8473
150.053 520 22.8035
150.17 524 22.891
150.287 599 24.4745
150.405 569 23.8537
150.522 595 24.3926
150.64 608 24.6577
150.757 586 24.2074
150.875 624 24.98
150.992 628 25.0599
151.11 637 25.2389
151.227 653 25.5539
151.344 599 24.4745
151.462 612 24.7386
151.579 618 24.8596
151.697 597 24.4336
151.814 600 24.4949
151.932 617 24.8395
152.049 569 23.8537
152.167 530 23.0217
152.284 553 23.516
152.402 552 23.4947
152.519 647 25.4362
152.636 601 24.5153
152.754 612 24.7386
152.871 661 25.7099
152.989 584 24.1661
153.106 690 26.2679
153.223 616 24.8193
153.341 582 24.1247
153.458 561 23.6854
153.575 530 23.0217
153.693 540 23.2379
153.81 545 23.3452
153.927 591 24.3105
154.044 565 23.7697
154.162 640 25.2982
154.279 624 24.98
154.396 684 26.1534
154.513 641 25.318
154.63 673 25.9422
154.747 624 24.98
154.864 619 24.8797
154.981 698 26.4197
155.098 635 25.1992
155.215 593 24.3516
155.332 556 23.5797
155.449 550 23.4521
155.566 538 23.1948
155.683 548 23.4094
155.8 533 23.0868
155.917 566 23.7908
156.033 577 24.0208
156.15 0 1
156.267 0 1
156.383 0 1
156.5 0 1
156.617 0 1
156.733 0 1
156.85 0 1
156.966 0 1
157.082 0 1
157.199 0 1
157.315 0 1
157.431 0 1
157.547 0 1
157.664 0 1
157.78 0 1
157.896 0 1
158.012 0 1
158.128 0 1
158.244 0 1
158.359 0 1
158.475 0 1
158.591 0 1
158.706 0 1
