
6.15755 0 1
6.2731 0 1
6.3887 0 1
6.50437 0 1
6.62009 0 1
6.73587 0 1
6.8517 0 1
6.96759 0 1
7.08353 0 1
7.19952 0 1
7.31557 0 1
7.43166 0 1
7.54781 0 1
7.664 0 1
7.78024 0 1
7.89653 0 1
8.01286 0 1
8.12924 0 1
8.24567 0 1
8.36213 0 1
8.47864 0 1
8.59519 0 1
8.71178 0 1
8.82841 0 1
8.94508 0 1
9.06179 0 1
9.17853 0 1
9.29531 0 1
9.41212 0 1
9.52897 0 1
9.64584 0 1
9.76276 0 1
9.8797 0 1
9.99667 0 1
10.1137 0 1
10.2307 0 1
10.3478 0 1
10.4648 0 1
10.5819 0 1
10.6991 0 1
10.8162 0 1
10.9334 0 1
11.0506 0 1
11.1678 0 1
11.285 0 1
11.4023 0 1
11.5196 0 1
11.6369 0 1
11.7542 0 1
11.8715 0 1
11.9888 0 1
12.1062 0 1
12.2235 0 1
12.3409 0 1
12.4582 0 1
12.5756 0 1
12.693 0 1
12.8104 0 1
12.9278 0 1
13.0452 0 1
13.1626 0 1
13.28 0 1
13.3974 0 1
13.5149 0 1
13.6323 0 1
13.7497 0 1
13.8671 0 1
13.9845 0 1
14.1019 0 1
14.2193 0 1
14.3367 0 1
14.4541 0 1
14.5714 0 1
14.6888 0 1
14.8062 0 1
14.9235 0 1
15.0408 0 0
15.1581 0 0
15.2755 0 0
15.3927 0 0
15.51 0 0
15.6273 0 0
15.7445 0 0
15.8617 0 0
15.9789 0 0
16.0961 0 0
16.2132 0 0
16.3304 0 0
16.4475 0 0
16.5646 0 0
16.6816 0 0
16.7986 0 0
16.9156 0 0
17.0326 0 0
17.1496 0 0
17.2665 0 0
17.3833 0 0
17.5002 0 0
17.617 0 0
17.7338 0 0
17.8505 0 0
17.9672 0 0
18.0839 0 0
18.2005 0 0
18.3171 0 0
18.4337 0 0
18.5502 0 0
18.6666 0 0
18.7831 0 0
18.8994 0 0
19.0158 0 0
19.1321 0 0
19.2483 0 0
19.3645 0 0
19.4806 0 0
19.5967 0 0
19.7128 0 0
19.8288 0 0
19.9447 0 0
20.0606 0 1
20.1764 0 1
20.2922 0 1
20.4079 0 1
20.5236 0 1
20.6392 0 1
20.7548 0 1
20.8702 0 1
23.3078 0 1
23.4233 0 1
23.539 0 1
23.6547 0 1
23.7704 0 1
23.8862 0 1
24.0021 0 1
24.118 0 1
24.234 0 1
24.35 0 1
24.4661 894 29.8998
24.5822 968 31.1127
24.6984 892 29.8664
24.8146 898 29.9666
24.9309 943 30.7083
25.0472 907 30.1164
25.1636 943 30.7083
25.28 967 31.0966
25.3965 1037 32.2025
25.513 1005 31.7017
25.6296 999 31.607
25.7462 1057 32.5115
25.8628 999 31.607
25.9795 1024 32
26.0962 1024 32
26.213 1048 32.3728
26.3298 1004 31.686
26.4466 927 30.4467
26.5635 997 31.5753
26.6804 963 31.0322
26.7973 947 30.7734
26.9143 911 30.1828
27.0313 844 29.0517
27.1483 893 29.8831
27.2653 909 30.1496
27.3824 865 29.4109
27.4996 908 30.133
27.6167 899 29.9833
27.7339 922 30.3645
27.8511 856 29.2575
27.9683 837 28.931
28.0855 865 29.4109
28.2028 896 29.9333
28.3201 864 29.3939
28.4374 879 29.6479
28.5547 894 29.8998
28.6721 888 29.7993
28.7894 946 30.7571
28.9068 966 31.0805
29.0242 971 31.1609
29.1416 1023 31.9844
29.259 922 30.3645
29.3764 940 30.6594
29.4939 910 30.1662
29.6113 921 30.348
29.7288 934 30.5614
29.8463 949 30.8058
29.9638 891 29.8496
30.0812 946 30.7571
30.1987 955 30.9031
30.3162 915 30.249
30.4337 818 28.6007
30.5512 774 27.8209
30.6687 784 28
30.7862 822 28.6705
30.9037 804 28.3549
31.0212 911 30.1828
31.1387 839 28.9655
31.2562 885 29.7489
31.3737 825 28.7228
31.4912 858 29.2916
31.6087 779 27.9106
31.7262 876 29.5973
31.8436 793 28.1603
31.9611 838 28.9482
32.0785 938 30.6268
32.1959 981 31.3209
32.3134 949 30.8058
32.4308 893 29.8831
32.5482 921 30.348
32.6655 899 29.9833
32.7829 903 30.05
32.9002 836 28.9137
33.0176 903 30.05
33.1349 887 29.7825
33.2522 916 30.2655
33.3694 934 30.5614
33.4867 930 30.4959
33.6039 925 30.4138
33.7211 939 30.6431
33.8383 885 29.7489
33.9554 868 29.4618
34.0725 864 29.3939
34.1896 774 27.8209
34.3067 767 27.6948
34.4237 797 28.2312
34.5407 795 28.1957
34.6577 841 29
34.7746 871 29.5127
34.8915 805 28.3725
35.0084 889 29.8161
35.1252 753 27.4408
35.242 821 28.6531
35.3587 812 28.4956
35.4755 820 28.6356
35.5921 866 29.4279
35.7088 816 28.5657
35.8254 816 28.5657
35.9419 869 29.4788
36.0584 928 30.4631
36.1749 916 30.2655
36.2913 901 30.0167
36.4077 913 30.2159
36.524 918 30.2985
36.6403 920 30.3315
36.7565 911 30.1828
36.8727 899 29.9833
36.9889 894 29.8998
37.1049 906 30.0998
37.221 0 1
37.3369 0 1
37.4529 0 1
37.5687 0 1
37.6845 0 1
37.8003 0 1
37.916 0 1
38.0316 0 1
38.1472 0 1
40.5851 0 1
40.7008 0 1
40.8164 0 1
40.9322 0 1
41.048 0 1
41.1639 0 1
41.2798 0 1
41.3958 0 1
41.5118 0 1
41.6279 0 1
41.744 744 27.2764
41.8602 736 27.1293
41.9765 759 27.55
42.0928 761 27.5862
42.2091 789 28.0891
42.3255 804 28.3549
42.4419 804 28.3549
42.5584 781 27.9464
42.675 778 27.8927
42.7915 724 26.9072
42.9081 713 26.7021
43.0248 645 25.3969
43.1415 662 25.7294
43.2582 661 25.7099
43.375 680 26.0768
43.4918 692 26.3059
43.6087 696 26.3818
43.7256 675 25.9808
43.8425 689 26.2488
43.9595 707 26.5895
44.0765 658 25.6515
44.1935 638 25.2587
44.3106 681 26.096
44.4277 641 25.318
44.5448 696 26.3818
44.6619 647 25.4362
44.7791 712 26.6833
44.8963 664 25.7682
45.0136 664 25.7682
45.1308 658 25.6515
45.2481 679 26.0576
45.3654 653 25.5539
45.4827 598 24.454
45.6001 629 25.0799
45.7174 641 25.318
45.8348 617 24.8395
45.9522 613 24.7588
46.0697 607 24.6374
46.1871 615 24.7992
46.3046 632 25.1396
46.422 605 24.5967
46.5395 579 24.0624
46.657 547 23.388
46.7745 481 21.9317
46.892 477 21.8403
47.0096 517 22.7376
47.1271 521 22.8254
47.2446 498 22.3159
47.3622 531 23.0434
47.4797 499 22.3383
47.5973 527 22.9565
47.7149 531 23.0434
47.8324 499 22.3383
47.95 527 22.9565
48.0675 521 22.8254
48.1851 512 22.6274
48.3027 509 22.561
48.4202 519 22.7816
48.5378 499 22.3383
48.6554 519 22.7816
48.7729 516 22.7156
48.8904 528 22.9783
49.008 517 22.7376
49.1255 533 23.0868
49.243 496 22.2711
49.3605 537 23.1733
49.478 499 22.3383
49.5955 510 22.5832
49.713 525 22.9129
49.8304 479 21.8861
49.9479 519 22.7816
50.0653 529 23
50.1827 490 22.1359
50.3001 464 21.5407
50.4175 427 20.664
50.5348 487 22.0681
50.6521 488 22.0907
50.7694 515 22.6936
50.8867 562 23.7065
51.004 520 22.8035
51.1212 501 22.383
51.2384 595 24.3926
51.3556 594 24.3721
51.4727 628 25.0599
51.5899 636 25.219
51.707 621 24.9199
51.824 666 25.807
51.9411 642 25.3377
52.0581 602 24.5357
52.175 635 25.1992
52.2919 682 26.1151
52.4088 665 25.7876
52.5257 733 27.074
52.6425 666 25.807
52.7593 655 25.593
52.876 668 25.8457
52.9927 689 26.2488
53.1094 734 27.0924
53.226 655 25.593
53.3426 704 26.533
53.4591 701 26.4764
53.5756 753 27.4408
53.692 733 27.074
53.8084 703 26.5141
53.9248 592 24.3311
54.0411 580 24.0832
54.1573 572 23.9165
54.2735 0 1
54.3896 0 1
54.5057 0 1
54.6217 0 1
54.7377 0 1
54.8537 0 1
54.9695 0 1
55.0853 0 1
55.2011 0 1
55.3168 0 1
55.4324 0 1
57.824 0 1
57.9396 0 1
58.0553 0 1
58.1711 0 1
58.2869 0 1
58.4028 0 1
58.5187 0 1
58.6347 0 1
58.7508 0 1
58.8669 0 1
58.983 770 27.7489
59.0992 633 25.1595
59.2155 670 25.8844
59.3318 671 25.9037
59.4482 753 27.4408
59.5646 714 26.7208
59.681 685 26.1725
59.7975 746 27.313
59.9141 742 27.2397
60.0306 734 27.0924
60.1473 781 27.9464
60.2639 746 27.313
60.3807 755 27.4773
60.4974 763 27.6225
60.6142 742 27.2397
60.731 750 27.3861
60.8479 728 26.9815
60.9648 696 26.3818
61.0818 781 27.9464
61.1987 723 26.8887
61.3158 711 26.6646
61.4328 723 26.8887
61.5499 712 26.6833
61.667 660 25.6905
61.7841 759 27.55
61.9013 710 26.6458
62.0185 688 26.2298
62.1357 715 26.7395
62.253 661 25.7099
62.3702 663 25.7488
62.4875 649 25.4755
62.6049 581 24.1039
62.7222 567 23.8118
62.8396 558 23.622
62.9569 639 25.2784
63.0743 608 24.6577
63.1918 637 25.2389
63.3092 590 24.2899
63.4267 611 24.7184
63.5441 648 25.4558
63.6616 671 25.9037
63.7791 654 25.5734
63.8966 623 24.96
64.0142 682 26.1151
64.1317 596 24.4131
64.2492 646 25.4165
64.3668 589 24.2693
64.4843 613 24.7588
64.6019 559 23.6432
64.7195 628 25.0599
64.837 611 24.7184
64.9546 649 25.4755
65.0722 643 25.3574
65.1898 606 24.6171
65.3074 665 25.7876
65.4249 571 23.8956
65.5425 600 24.4949
65.6601 588 24.2487
65.7777 598 24.454
65.8952 614 24.779
66.0128 582 24.1247
66.1304 566 23.7908
66.2479 483 21.9773
66.3655 467 21.6102
66.483 507 22.5167
66.6005 537 23.1733
66.718 528 22.9783
66.8355 557 23.6008
66.953 533 23.0868
67.0705 574 23.9583
67.1879 552 23.4947
67.3054 567 23.8118
67.4228 566 23.7908
67.5402 601 24.5153
67.6576 561 23.6854
67.7749 553 23.516
67.8923 605 24.5967
68.0096 550 23.4521
68.1269 571 23.8956
68.2442 580 24.0832
68.3614 544 23.3238
68.4787 588 24.2487
68.5958 556 23.5797
68.713 587 24.2281
68.8302 493 22.2036
68.9473 586 24.2074
69.0643 530 23.0217
69.1814 556 23.5797
69.2984 535 23.1301
69.4154 574 23.9583
69.5323 555 23.5584
69.6492 541 23.2594
69.7661 535 23.1301
69.8829 518 22.7596
69.9997 488 22.0907
70.1165 467 21.6102
70.2332 466 21.587
70.3499 462 21.4942
70.4665 510 22.5832
70.5831 479 21.8861
70.6996 532 23.0651
70.8161 528 22.9783
70.9326 533 23.0868
71.049 485 22.0227
71.1653 500 22.3607
71.2817 533 23.0868
71.3979 505 22.4722
71.5141 448 21.166
71.6303 437 20.9045
71.7464 405 20.1246
71.8624 0 1
71.9784 0 1
72.0944 0 1
72.2102 0 1
72.3261 0 1
72.4418 0 1
72.5575 0 1
72.6732 0 1
75.1054 0 1
75.2209 0 1
75.3365 0 1
75.4521 0 1
75.5678 0 1
75.6835 0 1
75.7993 0 1
75.9151 0 1
76.031 0 1
76.147 351 18.735
76.263 375 19.3649
76.3791 377 19.4165
76.4952 436 20.8806
76.6113 408 20.199
76.7276 409 20.2237
76.8438 395 19.8746
76.9601 403 20.0749
77.0765 414 20.347
77.1929 376 19.3907
77.3093 393 19.8242
77.4258 392 19.799
77.5423 362 19.0263
77.6589 368 19.1833
77.7755 391 19.7737
77.8921 362 19.0263
78.0088 346 18.6011
78.1256 332 18.2209
78.2423 374 19.3391
78.3591 364 19.0788
78.4759 335 18.303
78.5928 352 18.7617
78.7097 304 17.4356
78.8266 333 18.2483
78.9436 293 17.1172
79.0606 256 16
79.1776 231 15.1987
79.2946 246 15.6844
79.4117 269 16.4012
79.5288 251 15.843
79.6459 294 17.1464
79.7631 308 17.5499
79.8802 285 16.8819
79.9974 261 16.1555
80.1147 264 16.2481
80.2319 250 15.8114
80.3491 255 15.9687
80.4664 245 15.6525
80.5837 262 16.1864
80.701 247 15.7162
80.8183 230 15.1658
80.9357 234 15.2971
81.053 233 15.2643
81.1704 221 14.8661
81.2877 225 15
81.4051 216 14.6969
81.5225 226 15.0333
81.6399 172 13.1149
81.7573 180 13.4164
81.8747 196 14
81.9922 189 13.7477
82.1096 161 12.6886
82.227 170 13.0384
82.3444 176 13.2665
82.4619 168 12.9615
82.5793 144 12
82.6967 160 12.6491
82.8142 140 11.8322
82.9316 131 11.4455
83.049 130 11.4018
83.1664 111 10.5357
83.2838 120 10.9545
83.4012 133 11.5326
83.5186 112 10.583
83.636 125 11.1803
83.7534 101 10.0499
83.8708 93 9.64365
83.9881 107 10.3441
84.1055 105 10.247
84.2228 89 9.43398
84.3401 83 9.11043
84.4575 66 8.12404
84.5747 78 8.83176
84.692 92 9.59166
84.8093 83 9.11043
84.9265 73 8.544
85.0437 67 8.18535
85.1609 82 9.05539
85.2781 53 7.28011
85.3952 80 8.94427
85.5123 70 8.3666
85.6294 83 9.11043
85.7465 66 8.12404
85.8636 53 7.28011
85.9806 77 8.77496
86.0976 47 6.85565
86.2145 56 7.48331
86.3315 64 8
86.4484 93 9.64365
86.5652 82 9.05539
86.682 88 9.38083
86.7988 99 9.94987
86.9156 87 9.32738
87.0323 102 10.0995
87.149 109 10.4403
87.2657 112 10.583
87.3823 117 10.8167
87.4988 91 9.53939
87.6154 103 10.1489
87.7318 111 10.5357
87.8483 126 11.225
87.9647 143 11.9583
88.081 151 12.2882
88.1973 135 11.619
88.3136 164 12.8062
88.4298 174 13.1909
88.546 181 13.4536
88.6621 182 13.4907
88.7781 157 12.53
88.8942 0 1
89.0101 0 1
89.126 0 1
89.2419 0 1
89.3577 0 1
89.4734 0 1
89.5891 0 1
89.7047 0 1
89.8203 0 1
89.9358 0 1
92.3269 0 1
92.4424 0 1
92.558 0 1
92.6736 0 1
92.7893 0 1
92.905 0 1
93.0208 0 1
93.1366 0 1
93.2525 0 1
93.3685 0 1
93.4845 0 1
93.6005 286 16.9115
93.7167 295 17.1756
93.8328 278 16.6733
93.949 255 15.9687
94.0653 287 16.9411
94.1816 267 16.3401
94.2979 279 16.7033
94.4143 235 15.3297
94.5307 217 14.7309
94.6472 231 15.1987
94.7637 236 15.3623
94.8803 229 15.1327
94.9969 242 15.5563
95.1135 237 15.3948
95.2302 218 14.7648
95.3469 188 13.7113
95.4637 180 13.4164
95.5805 156 12.49
95.6973 220 14.8324
95.8142 219 14.7986
95.9311 247 15.7162
96.048 243 15.5885
96.1649 232 15.2315
96.2819 248 15.748
96.3989 248 15.748
96.516 311 17.6352
96.633 281 16.7631
96.7501 284 16.8523
96.8673 299 17.2916
96.9844 314 17.72
97.1016 310 17.6068
97.2188 284 16.8523
97.336 303 17.4069
97.4532 365 19.105
97.5704 326 18.0555
97.6877 342 18.4932
97.805 352 18.7617
97.9223 380 19.4936
98.0396 339 18.412
98.1569 377 19.4165
98.2743 369 19.2094
98.3916 405 20.1246
98.509 409 20.2237
98.6264 435 20.8567
98.7438 417 20.4206
98.8612 389 19.7231
98.9786 407 20.1742
99.096 253 15.906
99.2134 304 17.4356
99.3308 380 19.4936
99.4482 458 21.4009
99.5656 459 21.4243
99.6831 507 22.5167
99.8005 498 22.3159
99.9179 505 22.4722
100.035 506 22.4944
100.153 527 22.9565
100.27 488 22.0907
100.388 540 23.2379
100.505 518 22.7596
100.622 500 22.3607
100.74 540 23.2379
100.857 507 22.5167
100.975 527 22.9565
101.092 582 24.1247
101.209 510 22.5832
101.327 545 23.3452
101.444 572 23.9165
101.561 521 22.8254
101.679 565 23.7697
101.796 551 23.4734
101.913 602 24.5357
102.03 564 23.7487
102.148 572 23.9165
102.265 586 24.2074
102.382 575 23.9792
102.499 562 23.7065
102.616 466 21.587
102.733 402 20.0499
102.851 436 20.8806
102.968 560 23.6643
103.085 588 24.2487
103.202 619 24.8797
103.319 608 24.6577
103.436 609 24.6779
103.552 593 24.3516
103.669 582 24.1247
103.786 580 24.0832
103.903 564 23.7487
104.02 551 23.4734
104.137 573 23.9374
104.253 598 24.454
104.37 605 24.5967
104.487 590 24.2899
104.603 620 24.8998
104.72 607 24.6374
104.836 614 24.779
104.953 662 25.7294
105.069 662 25.7294
105.186 658 25.6515
105.302 604 24.5764
105.418 669 25.865
105.535 652 25.5343
105.651 621 24.9199
105.767 635 25.1992
105.883 584 24.1661
105.999 491 22.1585
106.115 0 1
106.231 0 1
106.347 0 1
106.463 0 1
106.579 0 1
106.694 0 1
106.81 0 1
106.926 0 1
107.041 0 1
107.157 0 1
109.576 0 1
109.692 0 1
109.807 0 1
109.923 0 1
110.039 0 1
110.155 0 1
110.27 0 1
110.386 0 1
110.502 0 1
110.618 499 22.3383
110.735 482 21.9545
110.851 529 23
110.967 479 21.8861
111.083 467 21.6102
111.199 377 19.4165
111.316 358 18.9209
111.432 405 20.1246
111.549 436 20.8806
111.665 495 22.2486
111.782 440 20.9762
111.898 427 20.664
112.015 442 21.0238
112.132 418 20.445
112.248 418 20.445
112.365 426 20.6398
112.482 467 21.6102
112.599 398 19.9499
112.716 401 20.025
112.832 384 19.5959
112.949 405 20.1246
113.066 372 19.2873
113.183 392 19.799
113.3 377 19.4165
113.417 341 18.4662
113.534 358 18.9209
113.652 369 19.2094
113.769 411 20.2731
113.886 419 20.4695
114.003 363 19.0526
114.12 374 19.3391
114.238 390 19.7484
114.355 336 18.3303
114.472 358 18.9209
114.589 351 18.735
114.707 309 17.5784
114.824 294 17.1464
114.942 321 17.9165
115.059 351 18.735
115.176 333 18.2483
115.294 373 19.3132
115.411 371 19.2614
115.529 335 18.303
115.646 338 18.3848
115.764 343 18.5203
115.881 365 19.105
115.999 335 18.303
116.116 333 18.2483
116.234 329 18.1384
116.351 331 18.1934
116.469 349 18.6815
116.586 354 18.8149
116.704 336 18.3303
116.821 334 18.2757
116.939 340 18.4391
117.056 346 18.6011
117.174 376 19.3907
117.291 339 18.412
117.409 341 18.4662
117.526 323 17.9722
117.644 313 17.6918
117.761 304 17.4356
117.879 302 17.3781
117.996 271 16.4621
118.114 263 16.2173
118.231 316 17.7764
118.349 317 17.8045
118.466 362 19.0263
118.584 326 18.0555
118.701 307 17.5214
118.819 334 18.2757
118.936 337 18.3576
119.053 330 18.1659
119.171 372 19.2873
119.288 338 18.3848
119.405 352 18.7617
119.523 339 18.412
119.64 373 19.3132
119.757 342 18.4932
119.875 338 18.3848
119.992 372 19.2873
120.109 369 19.2094
120.226 374 19.3391
120.343 333 18.2483
120.46 321 17.9165
120.578 341 18.4662
120.695 371 19.2614
120.812 383 19.5704
120.929 377 19.4165
121.046 336 18.3303
121.163 364 19.0788
121.279 358 18.9209
121.396 371 19.2614
121.513 324 18
121.63 279 16.7033
121.747 260 16.1245
121.863 236 15.3623
121.98 275 16.5831
122.097 356 18.868
122.213 353 18.7883
122.33 327 18.0831
122.446 336 18.3303
122.563 351 18.735
122.679 378 19.4422
122.795 396 19.8997
122.912 408 20.199
123.028 385 19.6214
123.144 382 19.5448
123.26 406 20.1494
123.377 0 1
123.493 0 1
123.609 0 1
123.725 0 1
123.84 0 1
123.956 0 1
124.072 0 1
124.188 0 1
124.303 0 1
124.419 0 1
126.852 0 1
126.968 0 1
127.083 0 1
127.199 0 1
127.315 0 1
127.431 0 1
127.547 0 1
127.663 0 1
127.779 0 1
127.895 0 1
128.011 0 1
128.127 0 1
128.243 0 1
128.359 497 22.2935
128.476 506 22.4944
128.592 491 22.1585
128.708 470 21.6795
128.825 451 21.2368
128.941 473 21.7486
129.058 493 22.2036
129.174 492 22.1811
129.291 486 22.0454
129.408 501 22.383
129.524 498 22.3159
129.641 516 22.7156
129.758 474 21.7715
129.875 520 22.8035
129.992 515 22.6936
130.108 495 22.2486
130.225 507 22.5167
130.342 431 20.7605
130.459 418 20.445
130.576 399 19.975
130.693 339 18.412
130.81 340 18.4391
130.928 379 19.4679
131.045 438 20.9284
131.162 519 22.7816
131.279 533 23.0868
131.396 510 22.5832
131.513 531 23.0434
131.631 534 23.1084
131.748 498 22.3159
131.865 557 23.6008
131.983 537 23.1733
132.1 597 24.4336
132.217 505 22.4722
132.335 511 22.6053
132.452 551 23.4734
132.57 555 23.5584
132.687 513 22.6495
132.804 559 23.6432
132.922 562 23.7065
133.039 516 22.7156
133.157 569 23.8537
133.274 536 23.1517
133.392 518 22.7596
133.509 524 22.891
133.627 528 22.9783
133.744 518 22.7596
133.862 495 22.2486
133.979 478 21.8632
134.097 450 21.2132
134.214 437 20.9045
134.332 378 19.4422
134.449 377 19.4165
134.567 447 21.1424
134.684 475 21.7945
134.802 537 23.1733
134.919 533 23.0868
135.037 581 24.1039
135.154 593 24.3516
135.272 649 25.4755
135.389 560 23.6643
135.507 597 24.4336
135.624 597 24.4336
135.742 604 24.5764
135.859 600 24.4949
135.977 623 24.96
136.094 622 24.9399
136.211 582 24.1247
136.329 563 23.7276
136.446 586 24.2074
136.564 592 24.3311
136.681 606 24.6171
136.798 590 24.2899
136.915 571 23.8956
137.033 590 24.2899
137.15 611 24.7184
137.267 643 25.3574
137.384 576 24
137.502 558 23.622
137.619 524 22.891
137.736 493 22.2036
137.853 466 21.587
137.97 437 20.9045
138.087 461 21.4709
138.204 498 22.3159
138.321 485 22.0227
138.438 614 24.779
138.555 626 25.02
138.672 609 24.6779
138.788 652 25.5343
138.905 641 25.318
139.022 685 26.1725
139.139 652 25.5343
139.255 692 26.3059
139.372 700 26.4575
139.488 698 26.4197
139.605 637 25.2389
139.721 683 26.1343
139.838 711 26.6646
139.954 664 25.7682
140.071 634 25.1794
140.187 691 26.2869
140.303 634 25.1794
140.419 625 25
140.535 651 25.5147
140.652 645 25.3969
140.768 0 1
140.884 0 1
141 0 1
141.115 0 1
141.231 0 1
141.347 0 1
141.463 0 1
141.578 0 1
141.694 0 1
144.104 0 1
144.219 0 1
144.335 0 1
144.45 0 1
144.566 0 1
144.682 0 1
144.798 0 1
144.914 0 1
145.03 0 1
145.146 646 25.4165
145.262 645 25.3969
145.378 632 25.1396
145.494 602 24.5357
145.61 614 24.779
145.726 634 25.1794
145.842 611 24.7184
145.959 605 24.5967
146.075 551 23.4734
146.192 593 24.3516
146.308 522 22.8473
146.425 507 22.5167
146.541 509 22.561
146.658 495 22.2486
146.774 488 22.0907
146.891 537 23.1733
147.008 555 23.5584
147.125 585 24.1868
147.241 558 23.622
147.358 666 25.807
147.475 659 25.671
147.592 597 24.4336
147.709 643 25.3574
147.826 630 25.0998
147.943 665 25.7876
148.06 623 24.96
148.177 639 25.2784
148.294 631 25.1197
148.411 610 24.6982
148.528 615 24.7992
148.645 597 24.4336
148.762 646 25.4165
148.88 645 25.3969
148.997 618 24.8596
149.114 599 24.4745
149.231 643 25.3574
149.349 625 25
149.466 585 24.1868
149.583 602 24.5357
149.701 609 24.6779
149.818 541 23.2594
149.935 556 23.5797
150.053 545 23.3452
150.17 502 22.4054
150.287 538 23.1948
150.405 502 22.4054
150.522 540 23.2379
150.64 535 23.1301
150.757 547 23.388
150.875 545 23.3452
150.992 622 24.9399
151.11 620 24.8998
151.227 657 25.632
151.344 650 25.4951
151.462 617 24.8395
151.579 630 25.0998
151.697 658 25.6515
151.814 656 25.6125
151.932 611 24.7184
152.049 669 25.865
152.167 629 25.0799
152.284 635 25.1992
152.402 630 25.0998
152.519 634 25.1794
152.636 605 24.5967
152.754 617 24.8395
152.871 600 24.4949
152.989 636 25.219
153.106 606 24.6171
153.223 617 24.8395
153.341 602 24.5357
153.458 513 22.6495
153.575 554 23.5372
153.693 519 22.7816
153.81 506 22.4944
153.927 563 23.7276
154.044 520 22.8035
154.162 558 23.622
154.279 592 24.3311
154.396 597 24.4336
154.513 658 25.6515
154.63 645 25.3969
154.747 687 26.2107
154.864 658 25.6515
154.981 652 25.5343
155.098 666 25.807
155.215 702 26.4953
155.332 736 27.1293
155.449 673 25.9422
155.566 671 25.9037
155.683 659 25.671
155.8 653 25.5539
155.917 676 26
156.033 687 26.2107
156.15 0 1
156.267 0 1
156.383 0 1
156.5 0 1
156.617 0 1
156.733 0 1
156.85 0 1
156.966 0 1
157.082 0 1
157.199 0 1
157.315 0 1
157.431 0 1
157.547 0 1
157.664 0 1
157.78 0 1
157.896 0 1
158.012 0 1
158.128 0 1
158.244 0 1
158.359 0 1
158.475 0 1
158.591 0 1
158.706 0 1
