
6.15755 0 1
6.2731 0 1
6.3887 0 1
6.50437 0 1
6.62009 0 1
6.73587 0 1
6.8517 0 1
6.96759 0 1
7.08353 0 1
7.19952 0 1
7.31557 0 1
7.43166 0 1
7.54781 0 1
7.664 0 1
7.78024 0 1
7.89653 0 1
8.01286 0 1
8.12924 0 1
8.24567 0 1
8.36213 0 1
8.47864 0 1
8.59519 0 1
8.71178 0 1
8.82841 0 1
8.94508 0 1
9.06179 0 1
9.17853 0 1
9.29531 0 1
9.41212 0 1
9.52897 0 1
9.64584 0 1
9.76276 0 1
9.8797 0 1
9.99667 0 1
10.1137 0 1
10.2307 0 1
10.3478 0 1
10.4648 0 1
10.5819 0 1
10.6991 0 1
10.8162 0 1
10.9334 0 1
11.0506 0 1
11.1678 0 1
11.285 0 1
11.4023 0 1
11.5196 0 1
11.6369 0 1
11.7542 0 1
11.8715 0 1
11.9888 0 1
12.1062 0 1
12.2235 0 1
12.3409 0 1
12.4582 0 1
12.5756 0 1
12.693 0 1
12.8104 0 1
12.9278 0 1
13.0452 0 1
13.1626 0 1
13.28 0 1
13.3974 0 1
13.5149 0 1
13.6323 0 1
13.7497 0 1
13.8671 0 1
13.9845 0 1
14.1019 0 1
14.2193 0 1
14.3367 0 1
14.4541 0 1
14.5714 0 1
14.6888 0 1
14.8062 0 1
14.9235 0 1
15.0408 821 28.6531
15.1581 837 28.931
15.2755 832 28.8444
15.3927 874 29.5635
15.51 895 29.9166
15.6273 890 29.8329
15.7445 843 29.0345
15.8617 830 28.8097
15.9789 794 28.178
16.0961 814 28.5307
16.2132 779 27.9106
16.3304 707 26.5895
16.4475 760 27.5681
16.5646 805 28.3725
16.6816 702 26.4953
16.7986 809 28.4429
16.9156 777 27.8747
17.0326 834 28.8791
17.1496 753 27.4408
17.2665 828 28.775
17.3833 728 26.9815
17.5002 792 28.1425
17.617 791 28.1247
17.7338 809 28.4429
17.8505 804 28.3549
17.9672 834 28.8791
18.0839 735 27.1109
18.2005 755 27.4773
18.3171 722 26.8701
18.4337 713 26.7021
18.5502 779 27.9106
18.6666 826 28.7402
18.7831 776 27.8568
18.8994 783 27.9821
19.0158 725 26.9258
19.1321 709 26.6271
19.2483 735 27.1109
19.3645 674 25.9615
19.4806 644 25.3772
19.5967 636 25.219
19.7128 555 23.5584
19.8288 540 23.2379
19.9447 479 21.8861
20.0606 0 1
20.1764 0 1
20.2922 0 1
20.4079 0 1
20.5236 0 1
20.6392 0 1
20.7548 0 1
20.8702 0 1
23.3078 0 1
23.4233 0 1
23.539 0 1
23.6547 0 1
23.7704 0 1
23.8862 0 1
24.0021 0 1
24.118 0 1
24.234 0 1
24.35 0 1
24.4661 329 18.1384
24.5822 403 20.0749
24.6984 400 20
24.8146 481 21.9317
24.9309 589 24.2693
25.0472 641 25.318
25.1636 692 26.3059
25.28 766 27.6767
25.3965 807 28.4077
25.513 870 29.4958
25.6296 892 29.8664
25.7462 872 29.5296
25.8628 913 30.2159
25.9795 872 29.5296
26.0962 874 29.5635
26.213 867 29.4449
26.3298 820 28.6356
26.4466 835 28.8964
26.5635 804 28.3549
26.6804 804 28.3549
26.7973 744 27.2764
26.9143 668 25.8457
27.0313 674 25.9615
27.1483 699 26.4386
27.2653 654 25.5734
27.3824 790 28.1069
27.4996 770 27.7489
27.6167 814 28.5307
27.7339 817 28.5832
27.8511 839 28.9655
27.9683 776 27.8568
28.0855 790 28.1069
28.2028 817 28.5832
28.3201 692 26.3059
28.4374 775 27.8388
28.5547 684 26.1534
28.6721 710 26.6458
28.7894 751 27.4044
28.9068 796 28.2135
29.0242 774 27.8209
29.1416 765 27.6586
29.259 737 27.1477
29.3764 752 27.4226
29.4939 789 28.0891
29.6113 756 27.4955
29.7288 720 26.8328
29.8463 698 26.4197
29.9638 728 26.9815
30.0812 748 27.3496
30.1987 736 27.1293
30.3162 661 25.7099
30.4337 600 24.4949
30.5512 632 25.1396
30.6687 600 24.4949
30.7862 695 26.3629
30.9037 780 27.9285
31.0212 734 27.0924
31.1387 761 27.5862
31.2562 753 27.4408
31.3737 786 28.0357
31.4912 753 27.4408
31.6087 739 27.1846
31.7262 671 25.9037
31.8436 721 26.8514
31.9611 596 24.4131
32.0785 587 24.2281
32.1959 663 25.7488
32.3134 689 26.2488
32.4308 643 25.3574
32.5482 666 25.807
32.6655 660 25.6905
32.7829 702 26.4953
32.9002 685 26.1725
33.0176 678 26.0384
33.1349 627 25.04
33.2522 618 24.8596
33.3694 660 25.6905
33.4867 676 26
33.6039 652 25.5343
33.7211 713 26.7021
33.8383 616 24.8193
33.9554 626 25.02
34.0725 574 23.9583
34.1896 601 24.5153
34.3067 565 23.7697
34.4237 694 26.3439
34.5407 656 25.6125
34.6577 660 25.6905
34.7746 707 26.5895
34.8915 709 26.6271
35.0084 688 26.2298
35.1252 673 25.9422
35.242 665 25.7876
35.3587 648 25.4558
35.4755 618 24.8596
35.5921 642 25.3377
35.7088 537 23.1733
35.8254 568 23.8328
35.9419 578 24.0416
36.0584 633 25.1595
36.1749 619 24.8797
36.2913 610 24.6982
36.4077 580 24.0832
36.524 567 23.8118
36.6403 539 23.2164
36.7565 457 21.3776
36.8727 470 21.6795
36.9889 461 21.4709
37.1049 436 20.8806
37.221 0 1
37.3369 0 1
37.4529 0 1
37.5687 0 1
37.6845 0 1
37.8003 0 1
37.916 0 1
38.0316 0 1
38.1472 0 1
40.5851 0 1
40.7008 0 1
40.8164 0 1
40.9322 0 1
41.048 0 1
41.1639 0 1
41.2798 0 1
41.3958 0 1
41.5118 0 1
41.6279 0 1
41.744 284 16.8523
41.8602 340 18.4391
41.9765 370 19.2354
42.0928 406 20.1494
42.2091 455 21.3307
42.3255 455 21.3307
42.4419 443 21.0476
42.5584 476 21.8174
42.675 446 21.1187
42.7915 421 20.5183
42.9081 420 20.4939
43.0248 446 21.1187
43.1415 437 20.9045
43.2582 447 21.1424
43.375 471 21.7025
43.4918 474 21.7715
43.6087 465 21.5639
43.7256 487 22.0681
43.8425 470 21.6795
43.9595 471 21.7025
44.0765 468 21.6333
44.1935 474 21.7715
44.3106 427 20.664
44.4277 440 20.9762
44.5448 408 20.199
44.6619 467 21.6102
44.7791 426 20.6398
44.8963 486 22.0454
45.0136 486 22.0454
45.1308 497 22.2935
45.2481 497 22.2935
45.3654 525 22.9129
45.4827 532 23.0651
45.6001 507 22.5167
45.7174 512 22.6274
45.8348 492 22.1811
45.9522 556 23.5797
46.0697 470 21.6795
46.1871 449 21.1896
46.3046 406 20.1494
46.422 449 21.1896
46.5395 434 20.8327
46.657 446 21.1187
46.7745 466 21.587
46.892 455 21.3307
47.0096 495 22.2486
47.1271 484 22
47.2446 448 21.166
47.3622 475 21.7945
47.4797 439 20.9523
47.5973 445 21.095
47.7149 463 21.5174
47.8324 449 21.1896
47.95 447 21.1424
48.0675 404 20.0998
48.1851 437 20.9045
48.3027 449 21.1896
48.4202 440 20.9762
48.5378 485 22.0227
48.6554 435 20.8567
48.7729 524 22.891
48.8904 456 21.3542
49.008 454 21.3073
49.1255 471 21.7025
49.243 461 21.4709
49.3605 450 21.2132
49.478 475 21.7945
49.5955 414 20.347
49.713 427 20.664
49.8304 402 20.0499
49.9479 404 20.0998
50.0653 379 19.4679
50.1827 384 19.5959
50.3001 417 20.4206
50.4175 393 19.8242
50.5348 457 21.3776
50.6521 483 21.9773
50.7694 460 21.4476
50.8867 437 20.9045
51.004 432 20.7846
51.1212 470 21.6795
51.2384 424 20.5913
51.3556 413 20.3224
51.4727 431 20.7605
51.5899 398 19.9499
51.707 411 20.2731
51.824 484 22
51.9411 433 20.8087
52.0581 448 21.166
52.175 467 21.6102
52.2919 408 20.199
52.4088 474 21.7715
52.5257 461 21.4709
52.6425 456 21.3542
52.7593 438 20.9284
52.876 442 21.0238
52.9927 460 21.4476
53.1094 444 21.0713
53.226 435 20.8567
53.3426 398 19.9499
53.4591 374 19.3391
53.5756 337 18.3576
53.692 352 18.7617
53.8084 322 17.9444
53.9248 350 18.7083
54.0411 325 18.0278
54.1573 304 17.4356
54.2735 0 1
54.3896 0 1
54.5057 0 1
54.6217 0 1
54.7377 0 1
54.8537 0 1
54.9695 0 1
55.0853 0 1
55.2011 0 1
55.3168 0 1
55.4324 0 1
57.824 0 1
57.9396 0 1
58.0553 0 1
58.1711 0 1
58.2869 0 1
58.4028 0 1
58.5187 0 1
58.6347 0 1
58.7508 0 1
58.8669 0 1
58.983 395 19.8746
59.0992 512 22.6274
59.2155 669 25.865
59.3318 658 25.6515
59.4482 740 27.2029
59.5646 793 28.1603
59.681 840 28.9828
59.7975 839 28.9655
59.9141 845 29.0689
60.0306 844 29.0517
60.1473 776 27.8568
60.2639 802 28.3196
60.3807 812 28.4956
60.4974 821 28.6531
60.6142 854 29.2233
60.731 772 27.7849
60.8479 847 29.1033
60.9648 796 28.2135
61.0818 752 27.4226
61.1987 820 28.6356
61.3158 750 27.3861
61.4328 770 27.7489
61.5499 719 26.8142
61.667 731 27.037
61.7841 693 26.3249
61.9013 714 26.7208
62.0185 646 25.4165
62.1357 608 24.6577
62.253 558 23.622
62.3702 580 24.0832
62.4875 615 24.7992
62.6049 585 24.1868
62.7222 606 24.6171
62.8396 581 24.1039
62.9569 587 24.2281
63.0743 572 23.9165
63.1918 578 24.0416
63.3092 542 23.2809
63.4267 565 23.7697
63.5441 509 22.561
63.6616 515 22.6936
63.7791 525 22.9129
63.8966 523 22.8692
64.0142 499 22.3383
64.1317 506 22.4944
64.2492 501 22.383
64.3668 523 22.8692
64.4843 512 22.6274
64.6019 519 22.7816
64.7195 505 22.4722
64.837 498 22.3159
64.9546 552 23.4947
65.0722 489 22.1133
65.1898 514 22.6716
65.3074 474 21.7715
65.4249 497 22.2935
65.5425 462 21.4942
65.6601 422 20.5426
65.7777 424 20.5913
65.8952 451 21.2368
66.0128 436 20.8806
66.1304 521 22.8254
66.2479 485 22.0227
66.3655 561 23.6854
66.483 519 22.7816
66.6005 521 22.8254
66.718 474 21.7715
66.8355 500 22.3607
66.953 453 21.2838
67.0705 482 21.9545
67.1879 459 21.4243
67.3054 452 21.2603
67.4228 498 22.3159
67.5402 471 21.7025
67.6576 463 21.5174
67.7749 491 22.1585
67.8923 435 20.8567
68.0096 508 22.5389
68.1269 455 21.3307
68.2442 508 22.5389
68.3614 470 21.6795
68.4787 489 22.1133
68.5958 463 21.5174
68.713 465 21.5639
68.8302 507 22.5167
68.9473 494 22.2261
69.0643 462 21.4942
69.1814 442 21.0238
69.2984 397 19.9249
69.4154 411 20.2731
69.5323 433 20.8087
69.6492 429 20.7123
69.7661 429 20.7123
69.8829 493 22.2036
69.9997 456 21.3542
70.1165 476 21.8174
70.2332 469 21.6564
70.3499 438 20.9284
70.4665 416 20.3961
70.5831 395 19.8746
70.6996 342 18.4932
70.8161 368 19.1833
70.9326 334 18.2757
71.049 290 17.0294
71.1653 311 17.6352
71.2817 249 15.7797
71.3979 269 16.4012
71.5141 232 15.2315
71.6303 225 15
71.7464 188 13.7113
71.8624 0 1
71.9784 0 1
72.0944 0 1
72.2102 0 1
72.3261 0 1
72.4418 0 1
72.5575 0 1
72.6732 0 1
75.1054 0 1
75.2209 0 1
75.3365 0 1
75.4521 0 1
75.5678 0 1
75.6835 0 1
75.7993 0 1
75.9151 0 1
76.031 0 1
76.147 298 17.2627
76.263 308 17.5499
76.3791 360 18.9737
76.4952 348 18.6548
76.6113 419 20.4695
76.7276 462 21.4942
76.8438 450 21.2132
76.9601 434 20.8327
77.0765 425 20.6155
77.1929 404 20.0998
77.3093 452 21.2603
77.4258 456 21.3542
77.5423 425 20.6155
77.6589 469 21.6564
77.7755 430 20.7364
77.8921 439 20.9523
78.0088 384 19.5959
78.1256 383 19.5704
78.2423 375 19.3649
78.3591 367 19.1572
78.4759 390 19.7484
78.5928 368 19.1833
78.7097 397 19.9249
78.8266 412 20.2978
78.9436 453 21.2838
79.0606 464 21.5407
79.1776 416 20.3961
79.2946 408 20.199
79.4117 443 21.0476
79.5288 409 20.2237
79.6459 358 18.9209
79.7631 396 19.8997
79.8802 380 19.4936
79.9974 454 21.3073
80.1147 436 20.8806
80.2319 441 21
80.3491 434 20.8327
80.4664 432 20.7846
80.5837 414 20.347
80.701 427 20.664
80.8183 418 20.445
80.9357 443 21.0476
81.053 421 20.5183
81.1704 410 20.2485
81.2877 391 19.7737
81.4051 434 20.8327
81.5225 420 20.4939
81.6399 437 20.9045
81.7573 397 19.9249
81.8747 414 20.347
81.9922 396 19.8997
82.1096 394 19.8494
82.227 413 20.3224
82.3444 431 20.7605
82.4619 374 19.3391
82.5793 449 21.1896
82.6967 423 20.567
82.8142 476 21.8174
82.9316 449 21.1896
83.049 425 20.6155
83.1664 451 21.2368
83.2838 459 21.4243
83.4012 376 19.3907
83.5186 399 19.975
83.636 408 20.199
83.7534 422 20.5426
83.8708 469 21.6564
83.9881 456 21.3542
84.1055 442 21.0238
84.2228 470 21.6795
84.3401 458 21.4009
84.4575 417 20.4206
84.5747 469 21.6564
84.692 476 21.8174
84.8093 471 21.7025
84.9265 438 20.9284
85.0437 433 20.8087
85.1609 414 20.347
85.2781 459 21.4243
85.3952 453 21.2838
85.5123 426 20.6398
85.6294 437 20.9045
85.7465 405 20.1246
85.8636 427 20.664
85.9806 456 21.3542
86.0976 432 20.7846
86.2145 493 22.2036
86.3315 476 21.8174
86.4484 453 21.2838
86.5652 500 22.3607
86.682 461 21.4709
86.7988 422 20.5426
86.9156 422 20.5426
87.0323 404 20.0998
87.149 458 21.4009
87.2657 441 21
87.3823 471 21.7025
87.4988 463 21.5174
87.6154 439 20.9523
87.7318 403 20.0749
87.8483 382 19.5448
87.9647 391 19.7737
88.081 371 19.2614
88.1973 325 18.0278
88.3136 317 17.8045
88.4298 280 16.7332
88.546 262 16.1864
88.6621 257 16.0312
88.7781 246 15.6844
88.8942 0 1
89.0101 0 1
89.126 0 1
89.2419 0 1
89.3577 0 1
89.4734 0 1
89.5891 0 1
89.7047 0 1
89.8203 0 1
89.9358 0 1
92.3269 0 1
92.4424 0 1
92.558 0 1
92.6736 0 1
92.7893 0 1
92.905 0 1
93.0208 0 1
93.1366 0 1
93.2525 0 1
93.3685 0 1
93.4845 0 1
93.6005 375 19.3649
93.7167 398 19.9499
93.8328 401 20.025
93.949 453 21.2838
94.0653 432 20.7846
94.1816 457 21.3776
94.2979 506 22.4944
94.4143 439 20.9523
94.5307 477 21.8403
94.6472 455 21.3307
94.7637 425 20.6155
94.8803 446 21.1187
94.9969 451 21.2368
95.1135 455 21.3307
95.2302 441 21
95.3469 455 21.3307
95.4637 493 22.2036
95.5805 520 22.8035
95.6973 497 22.2935
95.8142 475 21.7945
95.9311 487 22.0681
96.048 433 20.8087
96.1649 487 22.0681
96.2819 471 21.7025
96.3989 471 21.7025
96.516 510 22.5832
96.633 576 24
96.7501 525 22.9129
96.8673 500 22.3607
96.9844 515 22.6936
97.1016 494 22.2261
97.2188 434 20.8327
97.336 500 22.3607
97.4532 476 21.8174
97.5704 495 22.2486
97.6877 488 22.0907
97.805 510 22.5832
97.9223 469 21.6564
98.0396 495 22.2486
98.1569 501 22.383
98.2743 523 22.8692
98.3916 470 21.6795
98.509 498 22.3159
98.6264 483 21.9773
98.7438 505 22.4722
98.8612 503 22.4277
98.9786 531 23.0434
99.096 514 22.6716
99.2134 556 23.5797
99.3308 537 23.1733
99.4482 561 23.6854
99.5656 542 23.2809
99.6831 519 22.7816
99.8005 545 23.3452
99.9179 539 23.2164
100.035 515 22.6936
100.153 585 24.1868
100.27 557 23.6008
100.388 593 24.3516
100.505 536 23.1517
100.622 545 23.3452
100.74 530 23.0217
100.857 511 22.6053
100.975 525 22.9129
101.092 545 23.3452
101.209 537 23.1733
101.327 537 23.1733
101.444 584 24.1661
101.561 534 23.1084
101.679 563 23.7276
101.796 516 22.7156
101.913 550 23.4521
102.03 502 22.4054
102.148 490 22.1359
102.265 581 24.1039
102.382 536 23.1517
102.499 546 23.3666
102.616 613 24.7588
102.733 551 23.4734
102.851 624 24.98
102.968 615 24.7992
103.085 558 23.622
103.202 550 23.4521
103.319 554 23.5372
103.436 529 23
103.552 571 23.8956
103.669 577 24.0208
103.786 615 24.7992
103.903 603 24.5561
104.02 589 24.2693
104.137 619 24.8797
104.253 575 23.9792
104.37 554 23.5372
104.487 562 23.7065
104.603 555 23.5584
104.72 556 23.5797
104.836 550 23.4521
104.953 527 22.9565
105.069 495 22.2486
105.186 485 22.0227
105.302 449 21.1896
105.418 455 21.3307
105.535 362 19.0263
105.651 412 20.2978
105.767 316 17.7764
105.883 308 17.5499
105.999 285 16.8819
106.115 0 1
106.231 0 1
106.347 0 1
106.463 0 1
106.579 0 1
106.694 0 1
106.81 0 1
106.926 0 1
107.041 0 1
107.157 0 1
109.576 0 1
109.692 0 1
109.807 0 1
109.923 0 1
110.039 0 1
110.155 0 1
110.27 0 1
110.386 0 1
110.502 0 1
110.618 267 16.3401
110.735 349 18.6815
110.851 383 19.5704
110.967 446 21.1187
111.083 456 21.3542
111.199 439 20.9523
111.316 529 23
111.432 514 22.6716
111.549 572 23.9165
111.665 533 23.0868
111.782 571 23.8956
111.898 564 23.7487
112.015 500 22.3607
112.132 562 23.7065
112.248 531 23.0434
112.365 568 23.8328
112.482 555 23.5584
112.599 536 23.1517
112.716 560 23.6643
112.832 538 23.1948
112.949 543 23.3024
113.066 538 23.1948
113.183 508 22.5389
113.3 519 22.7816
113.417 494 22.2261
113.534 548 23.4094
113.652 494 22.2261
113.769 487 22.0681
113.886 489 22.1133
114.003 497 22.2935
114.12 460 21.4476
114.238 477 21.8403
114.355 446 21.1187
114.472 452 21.2603
114.589 499 22.3383
114.707 455 21.3307
114.824 517 22.7376
114.942 508 22.5389
115.059 535 23.1301
115.176 499 22.3383
115.294 509 22.561
115.411 510 22.5832
115.529 452 21.2603
115.646 478 21.8632
115.764 442 21.0238
115.881 489 22.1133
115.999 514 22.6716
116.116 498 22.3159
116.234 459 21.4243
116.351 485 22.0227
116.469 449 21.1896
116.586 434 20.8327
116.704 444 21.0713
116.821 451 21.2368
116.939 492 22.1811
117.056 491 22.1585
117.174 460 21.4476
117.291 481 21.9317
117.409 454 21.3073
117.526 479 21.8861
117.644 416 20.3961
117.761 412 20.2978
117.879 419 20.4695
117.996 376 19.3907
118.114 425 20.6155
118.231 470 21.6795
118.349 404 20.0998
118.466 438 20.9284
118.584 470 21.6795
118.701 488 22.0907
118.819 473 21.7486
118.936 469 21.6564
119.053 463 21.5174
119.171 405 20.1246
119.288 402 20.0499
119.405 415 20.3715
119.523 494 22.2261
119.64 428 20.6882
119.757 450 21.2132
119.875 449 21.1896
119.992 433 20.8087
120.109 436 20.8806
120.226 418 20.445
120.343 375 19.3649
120.46 439 20.9523
120.578 442 21.0238
120.695 432 20.7846
120.812 410 20.2485
120.929 507 22.5167
121.046 427 20.664
121.163 418 20.445
121.279 385 19.6214
121.396 399 19.975
121.513 344 18.5472
121.63 350 18.7083
121.747 357 18.8944
121.863 332 18.2209
121.98 341 18.4662
122.097 352 18.7617
122.213 364 19.0788
122.33 348 18.6548
122.446 358 18.9209
122.563 325 18.0278
122.679 310 17.6068
122.795 249 15.7797
122.912 266 16.3095
123.028 268 16.3707
123.144 258 16.0624
123.26 222 14.8997
123.377 0 1
123.493 0 1
123.609 0 1
123.725 0 1
123.84 0 1
123.956 0 1
124.072 0 1
124.188 0 1
124.303 0 1
124.419 0 1
126.852 0 1
126.968 0 1
127.083 0 1
127.199 0 1
127.315 0 1
127.431 0 1
127.547 0 1
127.663 0 1
127.779 0 1
127.895 0 1
128.011 0 1
128.127 0 1
128.243 0 1
128.359 471 21.7025
128.476 452 21.2603
128.592 443 21.0476
128.708 487 22.0681
128.825 481 21.9317
128.941 468 21.6333
129.058 517 22.7376
129.174 473 21.7486
129.291 505 22.4722
129.408 466 21.587
129.524 489 22.1133
129.641 473 21.7486
129.758 505 22.4722
129.875 504 22.4499
129.992 501 22.383
130.108 510 22.5832
130.225 518 22.7596
130.342 493 22.2036
130.459 500 22.3607
130.576 498 22.3159
130.693 479 21.8861
130.81 527 22.9565
130.928 560 23.6643
131.045 602 24.5357
131.162 599 24.4745
131.279 629 25.0799
131.396 693 26.3249
131.513 695 26.3629
131.631 706 26.5707
131.748 738 27.1662
131.865 734 27.0924
131.983 716 26.7582
132.1 721 26.8514
132.217 859 29.3087
132.335 821 28.6531
132.452 911 30.1828
132.57 957 30.9354
132.687 941 30.6757
132.804 1047 32.3574
132.922 1008 31.749
133.039 1115 33.3916
133.157 1060 32.5576
133.274 1092 33.0454
133.392 1133 33.6601
133.509 1095 33.0908
133.627 1079 32.8481
133.744 1091 33.0303
133.862 1103 33.2114
133.979 1020 31.9374
134.097 1026 32.0312
134.214 967 31.0966
134.332 964 31.0483
134.449 909 30.1496
134.567 993 31.5119
134.684 997 31.5753
134.802 1075 32.7872
134.919 1104 33.2265
135.037 1151 33.9264
135.154 1192 34.5254
135.272 1143 33.8083
135.389 1086 32.9545
135.507 1072 32.7414
135.624 1148 33.8821
135.742 1096 33.1059
135.859 1105 33.2415
135.977 1202 34.6699
136.094 1103 33.2114
136.211 1175 34.2783
136.329 1194 34.5543
136.446 1170 34.2053
136.564 1171 34.2199
136.681 1159 34.0441
136.798 1171 34.2199
136.915 1158 34.0294
137.033 1114 33.3766
137.15 1170 34.2053
137.267 1193 34.5398
137.384 1158 34.0294
137.502 1051 32.4191
137.619 1020 31.9374
137.736 987 31.4166
137.853 968 31.1127
137.97 918 30.2985
138.087 966 31.0805
138.204 978 31.273
138.321 1013 31.8277
138.438 1054 32.4654
138.555 1046 32.3419
138.672 1104 33.2265
138.788 1124 33.5261
138.905 1122 33.4963
139.022 1052 32.4345
139.139 982 31.3369
139.255 912 30.1993
139.372 937 30.6105
139.488 853 29.2062
139.605 854 29.2233
139.721 821 28.6531
139.838 804 28.3549
139.954 802 28.3196
140.071 712 26.6833
140.187 684 26.1534
140.303 684 26.1534
140.419 632 25.1396
140.535 612 24.7386
140.652 553 23.516
140.768 0 1
140.884 0 1
141 0 1
141.115 0 1
141.231 0 1
141.347 0 1
141.463 0 1
141.578 0 1
141.694 0 1
144.104 0 1
144.219 0 1
144.335 0 1
144.45 0 1
144.566 0 1
144.682 0 1
144.798 0 1
144.914 0 1
145.03 0 1
145.146 1347 36.7015
145.262 1448 38.0526
145.378 1480 38.4708
145.494 1584 39.7995
145.61 1568 39.598
145.726 1613 40.1622
145.842 1690 41.1096
145.959 1683 41.0244
146.075 1852 43.0349
146.192 1776 42.1426
146.308 1793 42.3438
146.425 1657 40.7063
146.541 1593 39.9124
146.658 1607 40.0874
146.774 1686 41.0609
146.891 1869 43.2319
147.008 1889 43.4626
147.125 1802 42.45
147.241 1880 43.359
147.358 2055 45.3321
147.475 2086 45.6727
147.592 2153 46.4004
147.709 2253 47.4658
147.826 2231 47.2335
147.943 2082 45.6289
148.06 2072 45.5192
148.177 2062 45.4093
148.294 2162 46.4973
148.411 2216 47.0744
148.528 2198 46.8828
148.645 2268 47.6235
148.762 2287 47.8226
148.88 2338 48.3529
148.997 2407 49.0612
149.114 2332 48.2908
149.231 2443 49.4267
149.349 2471 49.7092
149.466 2525 50.2494
149.583 2572 50.7149
149.701 2753 52.469
149.818 2698 51.9423
149.935 2754 52.4786
150.053 2599 50.9804
150.17 2190 46.7974
150.287 1934 43.9773
150.405 2027 45.0222
150.522 2767 52.6023
150.64 3357 57.9396
150.757 3657 60.4731
150.875 3924 62.6418
150.992 4034 63.5138
151.11 4262 65.284
151.227 4416 66.453
151.344 4645 68.1542
151.462 4683 68.4324
151.579 4709 68.6222
151.697 4738 68.8331
151.814 5101 71.4213
151.932 5062 71.1477
152.049 5241 72.3948
152.167 5375 73.3144
152.284 5551 74.505
152.402 5419 73.6139
152.519 5478 74.0135
152.636 5573 74.6525
152.754 5541 74.4379
152.871 5532 74.3774
152.989 5296 72.7736
153.106 5322 72.952
153.223 5344 73.1027
153.341 5296 72.7736
153.458 5048 71.0493
153.575 4503 67.1044
153.693 3404 58.3438
153.81 2727 52.2207
153.927 3087 55.5608
154.044 4066 63.7652
154.162 4960 70.4273
154.279 5193 72.0625
154.396 5354 73.171
154.513 5741 75.7694
154.63 5950 77.1362
154.747 6227 78.9113
154.864 6318 79.4858
154.981 6511 80.6908
155.098 6635 81.4555
155.215 6928 83.2346
155.332 7214 84.9353
155.449 7563 86.9655
155.566 7916 88.9719
155.683 8125 90.1388
155.8 8585 92.6553
155.917 8484 92.1086
156.033 8156 90.3106
156.15 0 1
156.267 0 1
156.383 0 1
156.5 0 1
156.617 0 1
156.733 0 1
156.85 0 1
156.966 0 1
157.082 0 1
157.199 0 1
157.315 0 1
157.431 0 1
157.547 0 1
157.664 0 1
157.78 0 1
157.896 0 1
158.012 0 1
158.128 0 1
158.244 0 1
158.359 0 1
158.475 0 1
158.591 0 1
158.706 0 1
