
6.15755 0 1
6.2731 0 1
6.3887 0 1
6.50437 0 1
6.62009 0 1
6.73587 0 1
6.8517 0 1
6.96759 0 1
7.08353 0 1
7.19952 0 1
7.31557 0 1
7.43166 0 1
7.54781 0 1
7.664 0 1
7.78024 0 1
7.89653 0 1
8.01286 0 1
8.12924 0 1
8.24567 0 1
8.36213 0 1
8.47864 0 1
8.59519 0 1
8.71178 0 1
8.82841 0 1
8.94508 0 1
9.06179 0 1
9.17853 0 1
9.29531 0 1
9.41212 0 1
9.52897 0 1
9.64584 0 1
9.76276 0 1
9.8797 0 1
9.99667 0 1
10.1137 0 1
10.2307 0 1
10.3478 0 1
10.4648 0 1
10.5819 0 1
10.6991 0 1
10.8162 0 1
10.9334 0 1
11.0506 0 1
11.1678 0 1
11.285 0 1
11.4023 0 1
11.5196 0 1
11.6369 0 1
11.7542 0 1
11.8715 0 1
11.9888 0 1
12.1062 0 1
12.2235 0 1
12.3409 0 1
12.4582 0 1
12.5756 0 1
12.693 0 1
12.8104 0 1
12.9278 0 1
13.0452 0 1
13.1626 0 1
13.28 0 1
13.3974 0 1
13.5149 0 1
13.6323 0 1
13.7497 0 1
13.8671 0 1
13.9845 0 1
14.1019 0 1
14.2193 0 1
14.3367 0 1
14.4541 0 1
14.5714 0 1
14.6888 0 1
14.8062 0 1
14.9235 0 1
15.0408 0 0
15.1581 0 0
15.2755 0 0
15.3927 0 0
15.51 0 0
15.6273 0 0
15.7445 0 0
15.8617 0 0
15.9789 0 0
16.0961 0 0
16.2132 0 0
16.3304 0 0
16.4475 0 0
16.5646 0 0
16.6816 0 0
16.7986 0 0
16.9156 0 0
17.0326 0 0
17.1496 0 0
17.2665 0 0
17.3833 0 0
17.5002 0 0
17.617 0 0
17.7338 0 0
17.8505 0 0
17.9672 0 0
18.0839 0 0
18.2005 0 0
18.3171 0 0
18.4337 0 0
18.5502 0 0
18.6666 0 0
18.7831 0 0
18.8994 0 0
19.0158 0 0
19.1321 0 0
19.2483 0 0
19.3645 0 0
19.4806 0 0
19.5967 0 0
19.7128 0 0
19.8288 0 0
19.9447 0 0
20.0606 0 1
20.1764 0 1
20.2922 0 1
20.4079 0 1
20.5236 0 1
20.6392 0 1
20.7548 0 1
20.8702 0 1
23.3078 0 1
23.4233 0 1
23.539 0 1
23.6547 0 1
23.7704 0 1
23.8862 0 1
24.0021 0 1
24.118 0 1
24.234 0 1
24.35 0 1
24.4661 11794 108.6
24.5822 11969 109.403
24.6984 12092 109.964
24.8146 11652 107.944
24.9309 11549 107.466
25.0472 11282 106.217
25.1636 11327 106.428
25.28 11239 106.014
25.3965 11327 106.428
25.513 11617 107.782
25.6296 11980 109.453
25.7462 12353 111.144
25.8628 12241 110.639
25.9795 12510 111.848
26.0962 12561 112.076
26.213 12409 111.396
26.3298 11972 109.417
26.4466 12066 109.845
26.5635 11790 108.582
26.6804 11504 107.257
26.7973 11484 107.163
26.9143 12095 109.977
27.0313 12173 110.331
27.1483 12328 111.032
27.2653 12745 112.894
27.3824 12885 113.512
27.4996 13003 114.031
27.6167 12837 113.3
27.7339 12739 112.867
27.8511 12260 110.725
27.9683 12127 110.123
28.0855 11995 109.522
28.2028 12034 109.7
28.3201 11539 107.42
28.4374 11080 105.262
28.5547 10870 104.259
28.6721 10635 103.126
28.7894 10646 103.179
28.9068 10684 103.363
29.0242 10564 102.781
29.1416 10698 103.431
29.259 10889 104.35
29.3764 11086 105.29
29.4939 11221 105.929
29.6113 11160 105.641
29.7288 11426 106.892
29.8463 11187 105.769
29.9638 10840 104.115
30.0812 10789 103.87
30.1987 10668 103.286
30.3162 10794 103.894
30.4337 11242 106.028
30.5512 11581 107.615
30.6687 11749 108.393
30.7862 12202 110.463
30.9037 12203 110.467
31.0212 12349 111.126
31.1387 12374 111.238
31.2562 11994 109.517
31.3737 11973 109.421
31.4912 12102 110.009
31.6087 11511 107.289
31.7262 11511 107.289
31.8436 11367 106.616
31.9611 11146 105.575
32.0785 10825 104.043
32.1959 10682 103.354
32.3134 10544 102.684
32.4308 10457 102.259
32.5482 10613 103.019
32.6655 10591 102.913
32.7829 10627 103.087
32.9002 10822 104.029
33.0176 10630 103.102
33.1349 10871 104.264
33.2522 11042 105.081
33.3694 11175 105.712
33.4867 11123 105.466
33.6039 10935 104.571
33.7211 10945 104.618
33.8383 10629 103.097
33.9554 10774 103.798
34.0725 11070 105.214
34.1896 11578 107.601
34.3067 11953 109.33
34.4237 12056 109.8
34.5407 12120 110.091
34.6577 12298 110.896
34.7746 12369 111.216
34.8915 12248 110.671
35.0084 12239 110.63
35.1252 11960 109.362
35.242 11881 109
35.3587 11701 108.171
35.4755 11552 107.48
35.5921 11279 106.203
35.7088 11130 105.499
35.8254 10621 103.058
35.9419 10464 102.294
36.0584 10158 100.787
36.1749 10318 101.578
36.2913 10097 100.484
36.4077 10226 101.124
36.524 10518 102.557
36.6403 10482 102.382
36.7565 10578 102.849
36.8727 10877 104.293
36.9889 10663 103.262
37.1049 10593 102.922
37.221 0 1
37.3369 0 1
37.4529 0 1
37.5687 0 1
37.6845 0 1
37.8003 0 1
37.916 0 1
38.0316 0 1
38.1472 0 1
40.5851 0 1
40.7008 0 1
40.8164 0 1
40.9322 0 1
41.048 0 1
41.1639 0 1
41.2798 0 1
41.3958 0 1
41.5118 0 1
41.6279 0 1
41.744 8792 93.7657
41.8602 9321 96.5453
41.9765 9339 96.6385
42.0928 9498 97.4577
42.2091 9566 97.8059
42.3255 9604 98
42.4419 9387 96.8865
42.5584 9301 96.4417
42.675 9297 96.421
42.7915 9516 97.55
42.9081 9875 99.373
43.0248 10146 100.727
43.1415 10436 102.157
43.2582 10444 102.196
43.375 10888 104.346
43.4918 11007 104.914
43.6087 10781 103.832
43.7256 10683 103.359
43.8425 10758 103.721
43.9595 10654 103.218
44.0765 10288 101.43
44.1935 10216 101.074
44.3106 9927 99.6343
44.4277 9407 96.9897
44.5448 8937 94.5357
44.6619 8484 92.1086
44.7791 8376 91.5205
44.8963 7943 89.1235
45.0136 7965 89.2468
45.1308 8259 90.879
45.2481 7998 89.4315
45.3654 8238 90.7634
45.4827 8385 91.5696
45.6001 8465 92.0054
45.7174 8329 91.2634
45.8348 8446 91.9021
45.9522 8379 91.5369
46.0697 7938 89.0955
46.1871 7927 89.0337
46.3046 7982 89.342
46.422 8082 89.8999
46.5395 8510 92.2497
46.657 8859 94.1223
46.7745 8896 94.3186
46.892 9058 95.1735
47.0096 8976 94.7418
47.1271 9068 95.226
47.2446 9063 95.1998
47.3622 9193 95.8801
47.4797 8681 93.1719
47.5973 8772 93.659
47.7149 8525 92.3309
47.8324 8173 90.4046
47.95 7775 88.176
48.0675 7565 86.977
48.1851 7165 84.6463
48.3027 6798 82.45
48.4202 6682 81.7435
48.5378 6637 81.4678
48.6554 6877 82.9277
48.7729 6645 81.5169
48.8904 7104 84.2852
49.008 7158 84.605
49.1255 7053 83.9821
49.243 7267 85.2467
49.3605 7282 85.3346
49.478 7197 84.8351
49.5955 7119 84.3742
49.713 7155 84.5872
49.8304 7295 85.4108
49.9479 7737 87.9602
50.0653 8189 90.4931
50.1827 8773 93.6643
50.3001 8991 94.8209
50.4175 9342 96.654
50.5348 9591 97.9337
50.6521 9972 99.8599
50.7694 10145 100.722
50.8867 10361 101.789
51.004 10535 102.64
51.1212 10563 102.776
51.2384 10726 103.566
51.3556 10464 102.294
51.4727 10417 102.064
51.5899 9843 99.2119
51.707 9422 97.067
51.824 9087 95.3258
51.9411 9094 95.3625
52.0581 9141 95.6086
52.175 9413 97.0206
52.2919 9438 97.1494
52.4088 9525 97.5961
52.5257 9534 97.6422
52.6425 9778 98.8838
52.7593 10011 100.055
52.876 10410 102.029
52.9927 10253 101.257
53.1094 10339 101.681
53.226 9988 99.94
53.3426 10231 101.148
53.4591 10464 102.294
53.5756 11024 104.995
53.692 11954 109.334
53.8084 12275 110.793
53.9248 12811 113.186
54.0411 12988 113.965
54.1573 13493 116.159
54.2735 0 1
54.3896 0 1
54.5057 0 1
54.6217 0 1
54.7377 0 1
54.8537 0 1
54.9695 0 1
55.0853 0 1
55.2011 0 1
55.3168 0 1
55.4324 0 1
57.824 0 1
57.9396 0 1
58.0553 0 1
58.1711 0 1
58.2869 0 1
58.4028 0 1
58.5187 0 1
58.6347 0 1
58.7508 0 1
58.8669 0 1
58.983 14839 121.815
59.0992 15355 123.915
59.2155 15720 125.379
59.3318 16306 127.695
59.4482 16486 128.398
59.5646 16527 128.557
59.681 16415 128.121
59.7975 16151 127.087
59.9141 15632 125.028
60.0306 14798 121.647
60.1473 14021 118.41
60.2639 13395 115.737
60.3807 12544 112
60.4974 12049 109.768
60.6142 11551 107.476
60.731 11573 107.578
60.8479 11764 108.462
60.9648 11823 108.734
61.0818 12179 110.359
61.1987 12175 110.34
61.3158 12563 112.085
61.4328 12479 111.709
61.5499 12502 111.812
61.667 11965 109.385
61.7841 11929 109.22
61.9013 11701 108.171
62.0185 12176 110.345
62.1357 12693 112.663
62.253 13416 115.827
62.3702 14183 119.092
62.4875 14684 121.178
62.6049 15024 122.572
62.7222 15293 123.665
62.8396 15356 123.919
62.9569 15577 124.808
63.0743 15550 124.7
63.1918 15605 124.92
63.3092 15239 123.446
63.4267 14873 121.955
63.5441 13965 118.174
63.6616 13183 114.817
63.7791 12249 110.675
63.8966 11653 107.949
64.0142 11054 105.138
64.1317 10664 103.267
64.2492 10544 102.684
64.3668 10632 103.112
64.4843 10944 104.614
64.6019 11202 105.84
64.7195 11622 107.805
64.837 11757 108.43
64.9546 11516 107.313
65.0722 11559 107.513
65.1898 11377 106.663
65.3074 11335 106.466
65.4249 11229 105.967
65.5425 11308 106.339
65.6601 11588 107.648
65.7777 12235 110.612
65.8952 13124 114.56
66.0128 13419 115.84
66.1304 14174 119.055
66.2479 14574 120.723
66.3655 15133 123.016
66.483 15129 123
66.6005 15181 123.211
66.718 15263 123.544
66.8355 15176 123.191
66.953 14896 122.049
67.0705 14283 119.512
67.1879 13487 116.134
67.3054 12443 111.548
67.4228 11419 106.86
67.5402 10594 102.927
67.6576 10317 101.573
67.7749 10032 100.16
67.8923 10528 102.606
68.0096 10497 102.455
68.1269 10850 104.163
68.2442 11478 107.135
68.3614 11878 108.986
68.4787 12080 109.909
68.5958 12282 110.824
68.713 12112 110.055
68.8302 11537 107.41
68.9473 11482 107.154
69.0643 11166 105.669
69.1814 11136 105.527
69.2984 11686 108.102
69.4154 12724 112.801
69.5323 13488 116.138
69.6492 14097 118.731
69.7661 15251 123.495
69.8829 15331 123.818
69.9997 16006 126.515
70.1165 16218 127.35
70.2332 16382 127.992
70.3499 16542 128.616
70.4665 16125 126.984
70.5831 16037 126.637
70.6996 15175 123.187
70.8161 14216 119.231
70.9326 13503 116.202
71.049 12496 111.786
71.1653 11756 108.425
71.2817 10994 104.852
71.3979 10362 101.794
71.5141 10553 102.728
71.6303 10710 103.489
71.7464 10348 101.725
71.8624 0 1
71.9784 0 1
72.0944 0 1
72.2102 0 1
72.3261 0 1
72.4418 0 1
72.5575 0 1
72.6732 0 1
75.1054 0 1
75.2209 0 1
75.3365 0 1
75.4521 0 1
75.5678 0 1
75.6835 0 1
75.7993 0 1
75.9151 0 1
76.031 0 1
76.147 14099 118.739
76.263 13995 118.3
76.3791 13336 115.482
76.4952 12281 110.82
76.6113 11687 108.106
76.7276 11565 107.541
76.8438 11343 106.504
76.9601 11804 108.646
77.0765 12247 110.666
77.1929 12571 112.12
77.3093 13047 114.223
77.4258 13595 116.598
77.5423 13547 116.392
77.6589 13758 117.295
77.7755 13026 114.132
77.8921 12585 112.183
78.0088 12390 111.31
78.1256 12160 110.272
78.2423 12175 110.34
78.3591 12751 112.92
78.4759 13815 117.537
78.5928 15042 122.646
78.7097 15552 124.708
78.8266 16795 129.596
78.9436 15930 126.214
79.0606 16910 130.038
79.1776 16662 129.081
79.2946 16804 129.63
79.4117 16840 129.769
79.5288 16777 129.526
79.6459 16212 127.326
79.7631 15204 123.305
79.8802 14354 119.808
79.9974 13452 115.983
80.1147 11978 109.444
80.2319 11272 106.17
80.3491 10555 102.738
80.4664 10700 103.441
80.5837 10883 104.322
80.701 11351 106.541
80.8183 11493 107.205
80.9357 11770 108.49
81.053 12169 110.313
81.1704 12270 110.77
81.2877 12427 111.476
81.4051 11709 108.208
81.5225 11538 107.415
81.6399 10953 104.657
81.7573 10754 103.701
81.8747 10737 103.619
81.9922 11118 105.442
82.1096 12208 110.49
82.227 13113 114.512
82.3444 13785 117.41
82.4619 14487 120.362
82.5793 14740 121.408
82.6967 15455 124.318
82.8142 15064 122.735
82.9316 15319 123.77
83.049 14961 122.315
83.1664 14697 121.231
83.2838 14084 118.676
83.4012 13356 115.568
83.5186 12457 111.611
83.636 11513 107.299
83.7534 10753 103.697
83.8708 9779 98.8888
83.9881 9695 98.4632
84.1055 9468 97.3036
84.2228 9555 97.7497
84.3401 10175 100.871
84.4575 10906 104.432
84.5747 11456 107.033
84.692 11756 108.425
84.8093 11937 109.257
84.9265 11567 107.55
85.0437 11029 105.019
85.1609 10388 101.922
85.2781 10165 100.822
85.3952 10202 101.005
85.5123 10300 101.489
85.6294 11245 106.042
85.7465 12171 110.322
85.8636 13234 115.039
85.9806 13865 117.75
86.0976 14789 121.61
86.2145 15297 123.681
86.3315 15288 123.645
86.4484 16444 128.234
86.5652 16123 126.976
86.682 16155 127.102
86.7988 15718 125.371
86.9156 15238 123.442
87.0323 14181 119.084
87.149 13672 116.927
87.2657 12517 111.879
87.3823 11857 108.89
87.4988 11009 104.924
87.6154 11018 104.967
87.7318 10993 104.848
87.8483 11586 107.638
87.9647 12386 111.292
88.081 12936 113.737
88.1973 13446 115.957
88.3136 13988 118.271
88.4298 13574 116.508
88.546 12873 113.459
88.6621 12264 110.743
88.7781 11366 106.611
88.8942 0 1
89.0101 0 1
89.126 0 1
89.2419 0 1
89.3577 0 1
89.4734 0 1
89.5891 0 1
89.7047 0 1
89.8203 0 1
89.9358 0 1
92.3269 0 1
92.4424 0 1
92.558 0 1
92.6736 0 1
92.7893 0 1
92.905 0 1
93.0208 0 1
93.1366 0 1
93.2525 0 1
93.3685 0 1
93.4845 0 1
93.6005 18574 136.286
93.7167 19841 140.858
93.8328 20511 143.217
93.949 21269 145.839
94.0653 21149 145.427
94.1816 21050 145.086
94.2979 20780 144.153
94.4143 21027 145.007
94.5307 21578 146.895
94.6472 22707 150.688
94.7637 24022 154.99
94.8803 26876 163.939
94.9969 29117 170.637
95.1135 31179 176.576
95.2302 32421 180.058
95.3469 33999 184.388
95.4637 35339 187.987
95.5805 35845 189.328
95.6973 37104 192.624
95.8142 38425 196.023
95.9311 38022 194.992
96.048 37597 193.899
96.1649 36879 192.039
96.2819 35459 188.306
96.3989 33977 184.329
96.516 32616 180.599
96.633 30667 175.12
96.7501 29505 171.77
96.8673 30113 173.531
96.9844 31758 178.208
97.1016 34457 185.626
97.2188 36586 191.275
97.336 38080 195.141
97.4532 38867 197.147
97.5704 38497 196.207
97.6877 37817 194.466
97.805 35949 189.602
97.9223 33395 182.743
98.0396 31226 176.709
98.1569 30167 173.686
98.2743 29898 172.91
98.3916 30929 175.866
98.509 33434 182.85
98.6264 35578 188.621
98.7438 37325 193.197
98.8612 38611 196.497
98.9786 39800 199.499
99.096 41007 202.502
99.2134 41401 203.472
99.3308 41769 204.375
99.4482 42111 205.21
99.5656 41402 203.475
99.6831 40714 201.777
99.8005 38831 197.056
99.9179 37781 194.373
100.035 35720 188.997
100.153 32902 181.389
100.27 31166 176.539
100.388 30617 174.977
100.505 31811 178.356
100.622 34216 184.976
100.74 36170 190.184
100.857 37344 193.246
100.975 37588 193.876
101.092 37514 193.685
101.209 36563 191.215
101.327 35760 189.103
101.444 32839 181.215
101.561 30661 175.103
101.679 29034 170.394
101.796 27978 167.266
101.913 27872 166.949
102.03 29252 171.032
102.148 31766 178.23
102.265 34392 185.451
102.382 32071 179.084
102.499 34213 184.968
102.616 34381 185.421
102.733 34074 184.591
102.851 33555 183.18
102.968 33040 181.769
103.085 32273 179.647
103.202 30151 173.64
103.319 28581 169.059
103.436 26210 161.895
103.552 24540 156.652
103.669 21795 147.631
103.786 19981 141.354
103.903 19070 138.094
104.02 18568 136.264
104.137 19146 138.369
104.253 19658 140.207
104.37 18844 137.273
104.487 19155 138.402
104.603 18515 136.07
104.72 17919 133.862
104.836 17003 130.396
104.953 15684 125.236
105.069 14616 120.897
105.186 14155 118.975
105.302 14081 118.663
105.418 14889 122.02
105.535 15819 125.774
105.651 16976 130.292
105.767 18086 134.484
105.883 18776 137.026
105.999 19206 138.586
106.115 0 1
106.231 0 1
106.347 0 1
106.463 0 1
106.579 0 1
106.694 0 1
106.81 0 1
106.926 0 1
107.041 0 1
107.157 0 1
109.576 0 1
109.692 0 1
109.807 0 1
109.923 0 1
110.039 0 1
110.155 0 1
110.27 0 1
110.386 0 1
110.502 0 1
110.618 14710 121.285
110.735 15909 126.131
110.851 17160 130.996
110.967 18013 134.213
111.083 18568 136.264
111.199 18330 135.388
111.316 18631 136.495
111.432 18649 136.561
111.549 18633 136.503
111.665 18207 134.933
111.782 17358 131.75
111.898 16477 128.363
112.015 15477 124.407
112.132 14627 120.942
112.248 13476 116.086
112.365 13090 114.412
112.482 13034 114.167
112.599 12591 112.21
112.716 13389 115.711
112.832 13715 117.111
112.949 13687 116.991
113.066 13656 116.859
113.183 13296 115.308
113.3 12962 113.851
113.417 12789 113.088
113.534 12381 111.27
113.652 12370 111.221
113.769 12441 111.539
113.886 12677 112.592
114.003 13596 116.602
114.12 14616 120.897
114.238 15434 124.234
114.355 16643 129.008
114.472 17179 131.069
114.589 17386 131.856
114.707 17857 133.63
114.824 17953 133.989
114.942 17990 134.127
115.059 18044 134.328
115.176 18007 134.19
115.294 17608 132.695
115.411 16990 130.346
115.529 16214 127.334
115.646 14952 122.278
115.764 14358 119.825
115.881 13628 116.739
115.999 13238 115.057
116.116 13634 116.765
116.234 13747 117.248
116.351 14091 118.706
116.469 14274 119.474
116.586 14168 119.029
116.704 14385 119.937
116.821 14021 118.41
116.939 13730 117.175
117.056 13473 116.073
117.174 13056 114.263
117.291 13256 115.135
117.409 13419 115.84
117.526 13862 117.737
117.644 15237 123.438
117.761 16471 128.339
117.879 17369 131.792
117.996 17591 132.631
118.114 18409 135.68
118.231 19140 138.347
118.349 18934 137.601
118.466 19413 139.331
118.584 19325 139.014
118.701 19178 138.485
118.819 18799 137.109
118.936 18274 135.181
119.053 17985 134.108
119.171 16909 130.035
119.288 16087 126.835
119.405 15380 124.016
119.523 14568 120.698
119.64 14376 119.9
119.757 14101 118.748
119.875 14465 120.271
119.992 14647 121.025
120.109 14638 120.988
120.226 14476 120.316
120.343 14136 118.895
120.46 14312 119.633
120.578 14030 118.448
120.695 13710 117.09
120.812 13861 117.733
120.929 13592 116.585
121.046 13780 117.388
121.163 14252 119.382
121.279 15130 123.004
121.396 16316 127.734
121.513 17372 131.803
121.63 17909 133.825
121.747 18107 134.562
121.863 18558 136.228
121.98 19049 138.018
122.097 19013 137.888
122.213 19170 138.456
122.33 19082 138.138
122.446 18872 137.375
122.563 18506 136.037
122.679 18142 134.692
122.795 17553 132.488
122.912 16755 129.441
123.028 16223 127.37
123.144 15327 123.802
123.26 14351 119.796
123.377 0 1
123.493 0 1
123.609 0 1
123.725 0 1
123.84 0 1
123.956 0 1
124.072 0 1
124.188 0 1
124.303 0 1
124.419 0 1
126.852 0 1
126.968 0 1
127.083 0 1
127.199 0 1
127.315 0 1
127.431 0 1
127.547 0 1
127.663 0 1
127.779 0 1
127.895 0 1
128.011 0 1
128.127 0 1
128.243 0 1
128.359 17452 132.106
128.476 16547 128.635
128.592 16118 126.957
128.708 16305 127.691
128.825 16718 129.298
128.941 16595 128.822
129.058 16558 128.678
129.174 16300 127.671
129.291 16158 127.114
129.408 15848 125.889
129.524 15631 125.024
129.641 15312 123.742
129.758 15185 123.227
129.875 15227 123.398
129.992 15328 123.806
130.108 15456 124.322
130.225 16473 128.347
130.342 17366 131.78
130.459 17863 133.653
130.576 19163 138.43
130.693 19061 138.062
130.81 19133 138.322
130.928 19417 139.345
131.045 19362 139.147
131.162 19619 140.068
131.279 19484 139.585
131.396 19361 139.144
131.513 19091 138.17
131.631 18790 137.077
131.748 17960 134.015
131.865 17191 131.114
131.983 16425 128.16
132.1 15928 126.206
132.217 16031 126.614
132.335 15962 126.341
132.452 16217 127.346
132.57 16147 127.071
132.687 15367 123.964
132.804 16509 128.487
132.922 15461 124.342
133.039 15518 124.571
133.157 15294 123.669
133.274 15238 123.442
133.392 15211 123.333
133.509 15218 123.361
133.627 15488 124.451
133.744 16125 126.984
133.862 16805 129.634
133.979 17857 133.63
134.097 18170 134.796
134.214 18870 137.368
134.332 18995 137.822
134.449 19134 138.326
134.567 19163 138.43
134.684 19473 139.546
134.802 19431 139.395
134.919 19605 140.018
135.037 19533 139.761
135.154 19010 137.877
135.272 18510 136.051
135.389 17967 134.041
135.507 17458 132.129
135.624 16430 128.18
135.742 16225 127.377
135.859 16341 127.832
135.977 16833 129.742
136.094 16551 128.651
136.211 16712 129.275
136.329 16672 129.12
136.446 16452 128.265
136.564 16282 127.601
136.681 16333 127.801
136.798 15990 126.452
136.915 15697 125.288
137.033 15986 126.436
137.15 15862 125.944
137.267 16006 126.515
137.384 16563 128.697
137.502 17108 130.798
137.619 17937 133.929
137.736 18526 136.11
137.853 18620 136.455
137.97 18910 137.514
138.087 19787 140.666
138.204 19356 139.126
138.321 19460 139.499
138.438 19730 140.464
138.555 19896 141.053
138.672 19891 141.035
138.788 19615 140.054
138.905 19048 138.014
139.022 18727 136.847
139.139 17949 133.974
139.255 16985 130.327
139.372 17042 130.545
139.488 17019 130.457
139.605 17103 130.778
139.721 17615 132.722
139.838 17589 132.624
139.954 16991 130.35
140.071 16760 129.46
140.187 16810 129.653
140.303 16549 128.643
140.419 16020 126.57
140.535 15515 124.559
140.652 15332 123.822
140.768 0 1
140.884 0 1
141 0 1
141.115 0 1
141.231 0 1
141.347 0 1
141.463 0 1
141.578 0 1
141.694 0 1
144.104 0 1
144.219 0 1
144.335 0 1
144.45 0 1
144.566 0 1
144.682 0 1
144.798 0 1
144.914 0 1
145.03 0 1
145.146 16149 127.079
145.262 16059 126.724
145.378 15719 125.375
145.494 15804 125.714
145.61 15537 124.648
145.726 15394 124.073
145.842 15408 124.129
145.959 15725 125.399
146.075 16227 127.385
146.192 16639 128.992
146.308 17229 131.259
146.425 17506 132.31
146.541 17527 132.39
146.658 18183 134.844
146.774 18245 135.074
146.891 18475 135.923
147.008 18545 136.18
147.125 18884 137.419
147.241 18430 135.757
147.358 18711 136.788
147.475 18138 134.677
147.592 18027 134.265
147.709 17198 131.141
147.826 16579 128.759
147.943 16413 128.113
148.06 16102 126.894
148.177 16501 128.456
148.294 16709 129.263
148.411 16882 129.931
148.528 16693 129.201
148.645 16594 128.818
148.762 16273 127.566
148.88 16078 126.799
148.997 15447 124.286
149.114 16285 127.613
149.231 15789 125.654
149.349 15577 124.808
149.466 15450 124.298
149.583 15722 125.387
149.701 16086 126.831
149.818 16510 128.491
149.935 17156 130.981
150.053 17381 131.837
150.17 17798 133.409
150.287 18319 135.348
150.405 18588 136.338
150.522 19011 137.88
150.64 18885 137.423
150.757 19313 138.971
150.875 19338 139.061
150.992 19280 138.852
151.11 18809 137.146
151.227 18454 135.846
151.344 17895 133.772
151.462 17484 132.227
151.579 17082 130.698
151.697 17504 132.303
151.814 17782 133.349
151.932 17761 133.27
152.049 18104 134.551
152.167 17904 133.806
152.284 17800 133.417
152.402 17644 132.831
152.519 17596 132.65
152.636 17260 131.377
152.754 16997 130.373
152.871 16982 130.315
152.989 16865 129.865
153.106 17196 131.134
153.223 16937 130.142
153.341 17475 132.193
153.458 18065 134.406
153.575 18478 135.934
153.693 18882 137.412
153.81 19490 139.607
153.927 19330 139.032
154.044 19965 141.298
154.162 20305 142.496
154.279 20834 144.34
154.396 20788 144.18
154.513 20928 144.665
154.63 21068 145.148
154.747 20632 143.638
154.864 20322 142.555
154.981 19706 140.378
155.098 18975 137.75
155.215 18827 137.212
155.332 18966 137.717
155.449 19169 138.452
155.566 19191 138.532
155.683 19095 138.185
155.8 19057 138.047
155.917 18887 137.43
156.033 18773 137.015
156.15 0 1
156.267 0 1
156.383 0 1
156.5 0 1
156.617 0 1
156.733 0 1
156.85 0 1
156.966 0 1
157.082 0 1
157.199 0 1
157.315 0 1
157.431 0 1
157.547 0 1
157.664 0 1
157.78 0 1
157.896 0 1
158.012 0 1
158.128 0 1
158.244 0 1
158.359 0 1
158.475 0 1
158.591 0 1
158.706 0 1
