
6.15755 0 1
6.2731 0 1
6.3887 0 1
6.50437 0 1
6.62009 0 1
6.73587 0 1
6.8517 0 1
6.96759 0 1
7.08353 0 1
7.19952 0 1
7.31557 0 1
7.43166 0 1
7.54781 0 1
7.664 0 1
7.78024 0 1
7.89653 0 1
8.01286 0 1
8.12924 0 1
8.24567 0 1
8.36213 0 1
8.47864 0 1
8.59519 0 1
8.71178 0 1
8.82841 0 1
8.94508 0 1
9.06179 0 1
9.17853 0 1
9.29531 0 1
9.41212 0 1
9.52897 0 1
9.64584 0 1
9.76276 0 1
9.8797 0 1
9.99667 0 1
10.1137 0 1
10.2307 0 1
10.3478 0 1
10.4648 0 1
10.5819 0 1
10.6991 0 1
10.8162 0 1
10.9334 0 1
11.0506 0 1
11.1678 0 1
11.285 0 1
11.4023 0 1
11.5196 0 1
11.6369 0 1
11.7542 0 1
11.8715 0 1
11.9888 0 1
12.1062 0 1
12.2235 0 1
12.3409 0 1
12.4582 0 1
12.5756 0 1
12.693 0 1
12.8104 0 1
12.9278 0 1
13.0452 0 1
13.1626 0 1
13.28 0 1
13.3974 0 1
13.5149 0 1
13.6323 0 1
13.7497 0 1
13.8671 0 1
13.9845 0 1
14.1019 0 1
14.2193 0 1
14.3367 0 1
14.4541 0 1
14.5714 0 1
14.6888 0 1
14.8062 0 1
14.9235 0 1
15.0408 0 0
15.1581 0 0
15.2755 0 0
15.3927 0 0
15.51 0 0
15.6273 0 0
15.7445 0 0
15.8617 0 0
15.9789 0 0
16.0961 0 0
16.2132 0 0
16.3304 0 0
16.4475 0 0
16.5646 0 0
16.6816 0 0
16.7986 0 0
16.9156 0 0
17.0326 0 0
17.1496 0 0
17.2665 0 0
17.3833 0 0
17.5002 0 0
17.617 0 0
17.7338 0 0
17.8505 0 0
17.9672 0 0
18.0839 0 0
18.2005 0 0
18.3171 0 0
18.4337 0 0
18.5502 0 0
18.6666 0 0
18.7831 0 0
18.8994 0 0
19.0158 0 0
19.1321 0 0
19.2483 0 0
19.3645 0 0
19.4806 0 0
19.5967 0 0
19.7128 0 0
19.8288 0 0
19.9447 0 0
20.0606 0 1
20.1764 0 1
20.2922 0 1
20.4079 0 1
20.5236 0 1
20.6392 0 1
20.7548 0 1
20.8702 0 1
23.3078 0 1
23.4233 0 1
23.539 0 1
23.6547 0 1
23.7704 0 1
23.8862 0 1
24.0021 0 1
24.118 0 1
24.234 0 1
24.35 0 1
24.4661 1537 39.2046
24.5822 1559 39.4842
24.6984 1497 38.6911
24.8146 1519 38.9744
24.9309 1458 38.1838
25.0472 1472 38.3667
25.1636 1446 38.0263
25.28 1524 39.0384
25.3965 1682 41.0122
25.513 1581 39.7618
25.6296 1632 40.398
25.7462 1792 42.332
25.8628 1691 41.1218
25.9795 1741 41.7253
26.0962 1703 41.2674
26.213 1729 41.5812
26.3298 1645 40.5586
26.4466 1667 40.8289
26.5635 1556 39.4462
26.6804 1541 39.2556
26.7973 1512 38.8844
26.9143 1561 39.5095
27.0313 1589 39.8623
27.1483 1655 40.6817
27.2653 1693 41.1461
27.3824 1682 41.0122
27.4996 1631 40.3856
27.6167 1690 41.1096
27.7339 1696 41.1825
27.8511 1609 40.1123
27.9683 1641 40.5093
28.0855 1532 39.1408
28.2028 1558 39.4715
28.3201 1517 38.9487
28.4374 1400 37.4166
28.5547 1336 36.5513
28.6721 1420 37.6829
28.7894 1396 37.3631
28.9068 1468 38.3145
29.0242 1529 39.1024
29.1416 1599 39.9875
29.259 1589 39.8623
29.3764 1697 41.1947
29.4939 1604 40.05
29.6113 1653 40.6571
29.7288 1642 40.5216
29.8463 1581 39.7618
29.9638 1507 38.8201
30.0812 1483 38.5097
30.1987 1489 38.5876
30.3162 1471 38.3536
30.4337 1431 37.8286
30.5512 1579 39.7366
30.6687 1549 39.3573
30.7862 1667 40.8289
30.9037 1722 41.497
31.0212 1687 41.0731
31.1387 1626 40.3237
31.2562 1636 40.4475
31.3737 1628 40.3485
31.4912 1646 40.5709
31.6087 1500 38.7298
31.7262 1521 39
31.8436 1481 38.4838
31.9611 1396 37.3631
32.0785 1392 37.3095
32.1959 1407 37.51
32.3134 1448 38.0526
32.4308 1567 39.5854
32.5482 1596 39.95
32.6655 1607 40.0874
32.7829 1630 40.3733
32.9002 1622 40.2741
33.0176 1576 39.6989
33.1349 1661 40.7554
33.2522 1640 40.4969
33.3694 1650 40.6202
33.4867 1643 40.5339
33.6039 1579 39.7366
33.7211 1541 39.2556
33.8383 1448 38.0526
33.9554 1423 37.7227
34.0725 1569 39.6106
34.1896 1509 38.8458
34.3067 1604 40.05
34.4237 1678 40.9634
34.5407 1625 40.3113
34.6577 1679 40.9756
34.7746 1626 40.3237
34.8915 1640 40.4969
35.0084 1617 40.2119
35.1252 1638 40.4722
35.242 1603 40.0375
35.3587 1586 39.8246
35.4755 1537 39.2046
35.5921 1494 38.6523
35.7088 1352 36.7696
35.8254 1368 36.9865
35.9419 1383 37.1887
36.0584 1440 37.9473
36.1749 1562 39.5221
36.2913 1562 39.5221
36.4077 1628 40.3485
36.524 1607 40.0874
36.6403 1676 40.939
36.7565 1642 40.5216
36.8727 1664 40.7922
36.9889 1609 40.1123
37.1049 1631 40.3856
37.221 0 1
37.3369 0 1
37.4529 0 1
37.5687 0 1
37.6845 0 1
37.8003 0 1
37.916 0 1
38.0316 0 1
38.1472 0 1
40.5851 0 1
40.7008 0 1
40.8164 0 1
40.9322 0 1
41.048 0 1
41.1639 0 1
41.2798 0 1
41.3958 0 1
41.5118 0 1
41.6279 0 1
41.744 1396 37.3631
41.8602 1323 36.3731
41.9765 1342 36.6333
42.0928 1406 37.4967
42.2091 1366 36.9594
42.3255 1452 38.1051
42.4419 1322 36.3593
42.5584 1330 36.4692
42.675 1283 35.819
42.7915 1255 35.426
42.9081 1314 36.2491
43.0248 1254 35.4119
43.1415 1274 35.6931
43.2582 1415 37.6165
43.375 1438 37.921
43.4918 1423 37.7227
43.6087 1385 37.2156
43.7256 1417 37.6431
43.8425 1318 36.3043
43.9595 1413 37.5899
44.0765 1231 35.0856
44.1935 1287 35.8748
44.3106 1244 35.2704
44.4277 1155 33.9853
44.5448 1031 32.1092
44.6619 998 31.5911
44.7791 1056 32.4962
44.8963 1087 32.9697
45.0136 1127 33.5708
45.1308 1162 34.0881
45.2481 1177 34.3074
45.3654 1213 34.8281
45.4827 1238 35.1852
45.6001 1214 34.8425
45.7174 1200 34.641
45.8348 1197 34.5977
45.9522 1144 33.8231
46.0697 991 31.4802
46.1871 983 31.3528
46.3046 1048 32.3728
46.422 1009 31.7648
46.5395 1060 32.5576
46.657 1103 33.2114
46.7745 1147 33.8674
46.892 1056 32.4962
47.0096 1140 33.7639
47.1271 1089 33
47.2446 1072 32.7414
47.3622 1064 32.619
47.4797 1099 33.1512
47.5973 1006 31.7175
47.7149 966 31.0805
47.8324 1015 31.8591
47.95 944 30.7246
48.0675 864 29.3939
48.1851 844 29.0517
48.3027 842 29.0172
48.4202 823 28.688
48.5378 866 29.4279
48.6554 927 30.4467
48.7729 941 30.6757
48.8904 1044 32.311
49.008 999 31.607
49.1255 966 31.0805
49.243 919 30.315
49.3605 1024 32
49.478 1006 31.7175
49.5955 919 30.315
49.713 932 30.5287
49.8304 890 29.8329
49.9479 923 30.3809
50.0653 1058 32.5269
50.1827 1089 33
50.3001 1088 32.9848
50.4175 1185 34.4238
50.5348 1171 34.2199
50.6521 1140 33.7639
50.7694 1242 35.242
50.8867 1227 35.0286
51.004 1239 35.1994
51.1212 1246 35.2987
51.2384 1265 35.5668
51.3556 1179 34.3366
51.4727 1252 35.3836
51.5899 1046 32.3419
51.707 1047 32.3574
51.824 1086 32.9545
51.9411 1152 33.9411
52.0581 1285 35.8469
52.175 1343 36.647
52.2919 1396 37.3631
52.4088 1434 37.8682
52.5257 1447 38.0395
52.6425 1501 38.7427
52.7593 1530 39.1152
52.876 1494 38.6523
52.9927 1556 39.4462
53.1094 1577 39.7115
53.226 1426 37.7624
53.3426 1453 38.1182
53.4591 1323 36.3731
53.5756 1428 37.7889
53.692 1498 38.704
53.8084 1648 40.5956
53.9248 1588 39.8497
54.0411 1655 40.6817
54.1573 1684 41.0366
54.2735 0 1
54.3896 0 1
54.5057 0 1
54.6217 0 1
54.7377 0 1
54.8537 0 1
54.9695 0 1
55.0853 0 1
55.2011 0 1
55.3168 0 1
55.4324 0 1
57.824 0 1
57.9396 0 1
58.0553 0 1
58.1711 0 1
58.2869 0 1
58.4028 0 1
58.5187 0 1
58.6347 0 1
58.7508 0 1
58.8669 0 1
58.983 1936 44
59.0992 2080 45.607
59.2155 2060 45.3872
59.3318 2080 45.607
59.4482 2135 46.2061
59.5646 2190 46.7974
59.681 2095 45.7712
59.7975 2102 45.8476
59.9141 2031 45.0666
60.0306 1880 43.359
60.1473 1839 42.8836
60.2639 1730 41.5933
60.3807 1558 39.4715
60.4974 1604 40.05
60.6142 1608 40.0999
60.731 1736 41.6653
60.8479 1892 43.4971
60.9648 1928 43.909
61.0818 1919 43.8064
61.1987 2049 45.2659
61.3158 2016 44.8999
61.4328 2085 45.6618
61.5499 1972 44.4072
61.667 1944 44.0908
61.7841 1839 42.8836
61.9013 1803 42.4617
62.0185 1726 41.5452
62.1357 1771 42.0833
62.253 1923 43.852
62.3702 1945 44.1022
62.4875 2011 44.8442
62.6049 2061 45.3982
62.7222 2102 45.8476
62.8396 2127 46.1194
62.9569 2091 45.7275
63.0743 2179 46.6798
63.1918 2081 45.618
63.3092 2074 45.5412
63.4267 2028 45.0333
63.5441 1832 42.8019
63.6616 1774 42.1189
63.7791 1682 41.0122
63.8966 1529 39.1024
64.0142 1531 39.128
64.1317 1669 40.8534
64.2492 1698 41.2068
64.3668 1812 42.5676
64.4843 1930 43.9318
64.6019 1928 43.909
64.7195 1962 44.2945
64.837 1952 44.1814
64.9546 2112 45.9565
65.0722 2013 44.8665
65.1898 1894 43.5201
65.3074 1919 43.8064
65.4249 1816 42.6146
65.5425 1797 42.391
65.6601 1807 42.5088
65.7777 1906 43.6578
65.8952 1974 44.4297
66.0128 2124 46.0869
66.1304 2045 45.2217
66.2479 2080 45.607
66.3655 2060 45.3872
66.483 2201 46.9148
66.6005 2215 47.0638
66.718 2218 47.0956
66.8355 2131 46.1628
66.953 2159 46.465
67.0705 2027 45.0222
67.1879 1932 43.9545
67.3054 1819 42.6497
67.4228 1632 40.398
67.5402 1515 38.923
67.6576 1494 38.6523
67.7749 1670 40.8656
67.8923 1827 42.7434
68.0096 1994 44.6542
68.1269 2091 45.7275
68.2442 2163 46.5081
68.3614 2186 46.7547
68.4787 2219 47.1063
68.5958 2232 47.244
68.713 2265 47.592
68.8302 2242 47.3498
68.9473 2044 45.2106
69.0643 2013 44.8665
69.1814 1959 44.2606
69.2984 2009 44.8219
69.4154 2027 45.0222
69.5323 2146 46.3249
69.6492 2284 47.7912
69.7661 2318 48.1456
69.8829 2381 48.7955
69.9997 2423 49.224
70.1165 2440 49.3964
70.2332 2458 49.5782
70.3499 2612 51.1077
70.4665 2418 49.1732
70.5831 2444 49.4368
70.6996 2338 48.3529
70.8161 2221 47.1275
70.9326 2061 45.3982
71.049 1884 43.4051
71.1653 1672 40.8901
71.2817 1615 40.1871
71.3979 1719 41.4608
71.5141 1752 41.8569
71.6303 1918 43.795
71.7464 1951 44.1701
71.8624 0 1
71.9784 0 1
72.0944 0 1
72.2102 0 1
72.3261 0 1
72.4418 0 1
72.5575 0 1
72.6732 0 1
75.1054 0 1
75.2209 0 1
75.3365 0 1
75.4521 0 1
75.5678 0 1
75.6835 0 1
75.7993 0 1
75.9151 0 1
76.031 0 1
76.147 2199 46.8935
76.263 2202 46.9255
76.3791 2121 46.0543
76.4952 1932 43.9545
76.6113 1812 42.5676
76.7276 1988 44.587
76.8438 2162 46.4973
76.9601 2410 49.0918
77.0765 2548 50.4777
77.1929 2672 51.6914
77.3093 2759 52.5262
77.4258 2733 52.2781
77.5423 2845 53.3385
77.6589 2897 53.8238
77.7755 2674 51.7107
77.8921 2644 51.4198
78.0088 2623 51.2152
78.1256 2464 49.6387
78.2423 2404 49.0306
78.3591 2448 49.4773
78.4759 2558 50.5767
78.5928 2762 52.5547
78.7097 2809 53
78.8266 3014 54.8999
78.9436 2800 52.915
79.0606 2902 53.8702
79.1776 2928 54.111
79.2946 3066 55.3715
79.4117 3001 54.7814
79.5288 3018 54.9363
79.6459 2979 54.5802
79.7631 2906 53.9073
79.8802 2641 51.3907
79.9974 2442 49.4166
80.1147 2256 47.4974
80.2319 2022 44.9667
80.3491 2015 44.8888
80.4664 2282 47.7703
80.5837 2485 49.8498
80.701 2762 52.5547
80.8183 2798 52.8961
80.9357 2988 54.6626
81.053 2948 54.2955
81.1704 2985 54.6352
81.2877 2983 54.6168
81.4051 3054 55.263
81.5225 2942 54.2402
81.6399 2825 53.1507
81.7573 2724 52.192
81.8747 2640 51.3809
81.9922 2704 52
82.1096 2681 51.7784
82.227 2736 52.3068
82.3444 2904 53.8888
82.4619 3024 54.9909
82.5793 3046 55.1906
82.6967 3300 57.4456
82.8142 3073 55.4346
82.9316 3111 55.7763
83.049 3129 55.9375
83.1664 3055 55.2721
83.2838 2982 54.6077
83.4012 3004 54.8088
83.5186 2820 53.1037
83.636 2567 50.6656
83.7534 2279 47.7389
83.8708 2018 44.9222
83.9881 2066 45.4533
84.1055 2287 47.8226
84.2228 2529 50.2892
84.3401 2911 53.9537
84.4575 3038 55.1181
84.5747 3157 56.1872
84.692 3335 57.7495
84.8093 3240 56.921
84.9265 3228 56.8155
85.0437 3263 57.1227
85.1609 3244 56.9561
85.2781 3085 55.5428
85.3952 2987 54.6535
85.5123 3020 54.9545
85.6294 2914 53.9815
85.7465 3068 55.3895
85.8636 3211 56.6657
85.9806 3350 57.8792
86.0976 3590 59.9166
86.2145 3548 59.5651
86.3315 3679 60.6548
86.4484 4016 63.3719
86.5652 3859 62.1208
86.682 3906 62.498
86.7988 3808 61.709
86.9156 3730 61.0737
87.0323 3604 60.0333
87.149 3506 59.2115
87.2657 3283 57.2975
87.3823 2972 54.5161
87.4988 2714 52.0961
87.6154 2954 54.3507
87.7318 3309 57.5239
87.8483 3511 59.2537
87.9647 4080 63.8749
88.081 4134 64.2962
88.1973 4283 65.4446
88.3136 4350 65.9545
88.4298 4238 65.0999
88.546 4460 66.7832
88.6621 4340 65.8787
88.7781 4192 64.7457
88.8942 0 1
89.0101 0 1
89.126 0 1
89.2419 0 1
89.3577 0 1
89.4734 0 1
89.5891 0 1
89.7047 0 1
89.8203 0 1
89.9358 0 1
92.3269 0 1
92.4424 0 1
92.558 0 1
92.6736 0 1
92.7893 0 1
92.905 0 1
93.0208 0 1
93.1366 0 1
93.2525 0 1
93.3685 0 1
93.4845 0 1
93.6005 4677 68.3886
93.7167 4768 69.0507
93.8328 4920 70.1427
93.949 4884 69.8856
94.0653 4742 68.8622
94.1816 4813 69.3758
94.2979 4727 68.7532
94.4143 4487 66.9851
94.5307 4575 67.6387
94.6472 4336 65.8483
94.7637 4276 65.3911
94.8803 4573 67.624
94.9969 4681 68.4178
95.1135 4846 69.6132
95.2302 5188 72.0278
95.3469 5098 71.4003
95.4637 5067 71.1829
95.5805 5310 72.8697
95.6973 5335 73.0411
95.8142 5408 73.5391
95.9311 5287 72.7118
96.048 5240 72.3878
96.1649 5006 70.7531
96.2819 4879 69.8498
96.3989 4478 66.9179
96.516 4105 64.0703
96.633 3797 61.6198
96.7501 3655 60.4566
96.8673 4027 63.4586
96.9844 4346 65.9242
97.1016 5019 70.8449
97.2188 5427 73.6682
97.336 5542 74.4446
97.4532 5736 75.7364
97.5704 5640 75.0999
97.6877 5501 74.1687
97.805 5529 74.3572
97.9223 5469 73.9527
98.0396 5406 73.5255
98.1569 5137 71.6729
98.2743 4911 70.0785
98.3916 4972 70.5124
98.509 5134 71.6519
98.6264 5168 71.8888
98.7438 5470 73.9594
98.8612 5435 73.7225
98.9786 5741 75.7694
99.096 5797 76.138
99.2134 5920 76.9415
99.3308 6121 78.2368
99.4482 6034 77.6788
99.5656 5990 77.3951
99.6831 5846 76.4591
99.8005 5758 75.8815
99.9179 5275 72.6292
100.035 5158 71.8192
100.153 4640 68.1175
100.27 4255 65.2304
100.388 4373 66.1287
100.505 4894 69.9571
100.622 5371 73.2871
100.74 5671 75.306
100.857 6157 78.4666
100.975 6015 77.5564
101.092 6240 78.9937
101.209 6258 79.1075
101.327 6329 79.555
101.444 6122 78.2432
101.561 6115 78.1985
101.679 5932 77.0195
101.796 5790 76.092
101.913 5682 75.379
102.03 5534 74.3909
102.148 5772 75.9737
102.265 6246 79.0316
102.382 5941 77.0779
102.499 6212 78.8162
102.616 6638 81.4739
102.733 6779 82.3347
102.851 6786 82.3772
102.968 6754 82.1827
103.085 6710 81.9146
103.202 6407 80.0437
103.319 6499 80.6164
103.436 6283 79.2654
103.552 5808 76.2102
103.669 5263 72.5465
103.786 4770 69.0652
103.903 4698 68.542
104.02 5311 72.8766
104.137 5942 77.0844
104.253 6699 81.8474
104.37 6618 81.3511
104.487 7009 83.7198
104.603 7017 83.7675
104.72 7099 84.2556
104.836 7235 85.0588
104.953 6986 83.5823
105.069 6725 82.0061
105.186 6569 81.0494
105.302 6300 79.3725
105.418 6258 79.1075
105.535 6397 79.9812
105.651 6482 80.5109
105.767 6862 82.8372
105.883 6880 82.9458
105.999 7002 83.678
106.115 0 1
106.231 0 1
106.347 0 1
106.463 0 1
106.579 0 1
106.694 0 1
106.81 0 1
106.926 0 1
107.041 0 1
107.157 0 1
109.576 0 1
109.692 0 1
109.807 0 1
109.923 0 1
110.039 0 1
110.155 0 1
110.27 0 1
110.386 0 1
110.502 0 1
110.618 6057 77.8267
110.735 6288 79.2969
110.851 6418 80.1124
110.967 6590 81.1788
111.083 6715 81.9451
111.199 6575 81.0864
111.316 6731 82.0427
111.432 6831 82.6499
111.549 6726 82.0122
111.665 6519 80.7403
111.782 6376 79.8499
111.898 5945 77.1038
112.015 5556 74.5386
112.132 5107 71.4633
112.248 4623 67.9926
112.365 4534 67.335
112.482 4741 68.8549
112.599 5148 71.7496
112.716 5737 75.743
112.832 6220 78.867
112.949 6144 78.3837
113.066 6214 78.8289
113.183 6164 78.5111
113.3 6002 77.4726
113.417 5948 77.1233
113.534 5823 76.3086
113.652 5585 74.7329
113.769 5452 73.8377
113.886 5298 72.7874
114.003 5144 71.7217
114.12 5200 72.111
114.238 5306 72.8423
114.355 5324 72.9657
114.472 5386 73.3894
114.589 5534 74.3909
114.707 5599 74.8265
114.824 5709 75.5579
114.942 5671 75.306
115.059 5923 76.961
115.176 5630 75.0333
115.294 5496 74.135
115.411 5399 73.4779
115.529 4991 70.647
115.646 4813 69.3758
115.764 4420 66.4831
115.881 4050 63.6396
115.999 4001 63.2535
116.116 4554 67.4833
116.234 4921 70.1498
116.351 5347 73.1232
116.469 5541 74.4379
116.586 5586 74.7395
116.704 5645 75.1332
116.821 5662 75.2463
116.939 5581 74.7061
117.056 5632 75.0467
117.174 5374 73.3076
117.291 5246 72.4293
117.409 5085 71.3092
117.526 4946 70.3278
117.644 4831 69.5054
117.761 5136 71.6659
117.879 5120 71.5542
117.996 5263 72.5465
118.114 5303 72.8217
118.231 5431 73.6953
118.349 5486 74.0675
118.466 5530 74.364
118.584 5466 73.9324
118.701 5518 74.2832
118.819 5461 73.8986
118.936 5310 72.8697
119.053 5422 73.6342
119.171 4845 69.606
119.288 4662 68.2788
119.405 4304 65.6049
119.523 3956 62.8967
119.64 3894 62.4019
119.757 4227 65.0154
119.875 4778 69.1231
119.992 5044 71.0211
120.109 5118 71.5402
120.226 5480 74.027
120.343 5251 72.4638
120.46 5328 72.9932
120.578 5357 73.1915
120.695 5408 73.5391
120.812 5289 72.7255
120.929 5082 71.2881
121.046 4934 70.2424
121.163 4703 68.5784
121.279 4713 68.6513
121.396 4780 69.1375
121.513 4787 69.1881
121.63 4925 70.1783
121.747 4994 70.6682
121.863 5029 70.9154
121.98 5220 72.2496
122.097 5170 71.9027
122.213 5119 71.5472
122.33 5104 71.4423
122.446 5291 72.7393
122.563 5124 71.5821
122.679 4951 70.3633
122.795 4850 69.6419
122.912 4816 69.3974
123.028 4318 65.7115
123.144 3932 62.7057
123.26 3752 61.2536
123.377 0 1
123.493 0 1
123.609 0 1
123.725 0 1
123.84 0 1
123.956 0 1
124.072 0 1
124.188 0 1
124.303 0 1
124.419 0 1
126.852 0 1
126.968 0 1
127.083 0 1
127.199 0 1
127.315 0 1
127.431 0 1
127.547 0 1
127.663 0 1
127.779 0 1
127.895 0 1
128.011 0 1
128.127 0 1
128.243 0 1
128.359 4330 65.8027
128.476 4077 63.8514
128.592 4037 63.5374
128.708 4283 65.4446
128.825 4863 69.7352
128.941 5277 72.643
129.058 5484 74.054
129.174 5507 74.2092
129.291 5581 74.7061
129.408 5435 73.7225
129.524 5447 73.8038
129.641 5368 73.2666
129.758 5401 73.4915
129.875 5229 72.3118
129.992 5089 71.3372
130.108 5046 71.0352
130.225 4919 70.1356
130.342 4991 70.647
130.459 4822 69.4406
130.576 5344 73.1027
130.693 5187 72.0208
130.81 5057 71.1126
130.928 5148 71.7496
131.045 5152 71.7774
131.162 5216 72.2219
131.279 5338 73.0616
131.396 5384 73.3757
131.513 5022 70.8661
131.631 5103 71.4353
131.748 4796 69.2532
131.865 4461 66.7907
131.983 3946 62.8172
132.1 3801 61.6523
132.217 4077 63.8514
132.335 4442 66.6483
132.452 4800 69.282
132.57 5070 71.2039
132.687 5006 70.7531
132.804 5289 72.7255
132.922 5057 71.1126
133.039 5144 71.7217
133.157 5321 72.9452
133.274 5007 70.7602
133.392 4909 70.0643
133.509 4799 69.2748
133.627 4785 69.1737
133.744 4713 68.6513
133.862 4560 67.5278
133.979 4871 69.7925
134.097 4743 68.8694
134.214 4867 69.7639
134.332 4842 69.5845
134.449 5042 71.007
134.567 4772 69.0797
134.684 4884 69.8856
134.802 4953 70.3776
134.919 4892 69.9428
135.037 5063 71.1548
135.154 4870 69.7854
135.272 4705 68.593
135.389 4426 66.5282
135.507 4072 63.8122
135.624 3705 60.8687
135.742 3690 60.7454
135.859 4056 63.6867
135.977 4454 66.7383
136.094 4754 68.9493
136.211 4791 69.217
136.329 4881 69.8642
136.446 5042 71.007
136.564 4998 70.6965
136.681 5057 71.1126
136.798 4819 69.419
136.915 4952 70.3704
137.033 4841 69.5773
137.15 4675 68.374
137.267 4612 67.9117
137.384 4401 66.34
137.502 4541 67.3869
137.619 4510 67.1565
137.736 4643 68.1396
137.853 4556 67.4981
137.97 4589 67.7422
138.087 4761 69
138.204 4799 69.2748
138.321 4821 69.4334
138.438 4783 69.1592
138.555 4894 69.9571
138.672 4850 69.6419
138.788 4747 68.8985
138.905 4596 67.7938
139.022 4425 66.5207
139.139 4066 63.7652
139.255 3778 61.4654
139.372 3716 60.959
139.488 3922 62.6259
139.605 4308 65.6354
139.721 4601 67.8307
139.838 4762 69.0072
139.954 4834 69.527
140.071 4780 69.1375
140.187 4906 70.0428
140.303 4817 69.4046
140.419 4754 68.9493
140.535 4806 69.3253
140.652 4583 67.6979
140.768 0 1
140.884 0 1
141 0 1
141.115 0 1
141.231 0 1
141.347 0 1
141.463 0 1
141.578 0 1
141.694 0 1
144.104 0 1
144.219 0 1
144.335 0 1
144.45 0 1
144.566 0 1
144.682 0 1
144.798 0 1
144.914 0 1
145.03 0 1
145.146 4151 64.4283
145.262 4107 64.0859
145.378 4165 64.5368
145.494 4038 63.5453
145.61 4008 63.3088
145.726 3910 62.53
145.842 3925 62.6498
145.959 3703 60.8523
146.075 3762 61.3351
146.192 3920 62.6099
146.308 3756 61.2862
146.425 3726 61.041
146.541 3872 62.2254
146.658 3815 61.7657
146.774 3779 61.4736
146.891 3899 62.442
147.008 3914 62.562
147.125 3935 62.7296
147.241 3797 61.6198
147.358 3878 62.2736
147.475 3783 61.5061
147.592 3582 59.8498
147.709 3262 57.1139
147.826 3029 55.0364
147.943 3013 54.8908
148.06 3145 56.0803
148.177 3397 58.2838
148.294 3586 59.8832
148.411 3825 61.8466
148.528 3982 63.1031
148.645 3752 61.2536
148.762 3861 62.1369
148.88 3682 60.6795
148.997 3714 60.9426
149.114 3941 62.7774
149.231 3783 61.5061
149.349 3681 60.6712
149.466 3539 59.4895
149.583 3421 58.4893
149.701 3441 58.66
149.818 3494 59.1101
149.935 3505 59.203
150.053 3437 58.6259
150.17 3547 59.5567
150.287 3536 59.4643
150.405 3574 59.7829
150.522 3572 59.7662
150.64 3714 60.9426
150.757 3560 59.6657
150.875 3605 60.0417
150.992 3713 60.9344
151.11 3517 59.3043
151.227 3390 58.2237
151.344 3169 56.2939
151.462 2858 53.4603
151.579 2881 53.6749
151.697 3014 54.8999
151.814 3240 56.921
151.932 3413 58.4209
152.049 3726 61.041
152.167 3700 60.8276
152.284 3709 60.9016
152.402 3621 60.1747
152.519 3590 59.9166
152.636 3761 61.327
152.754 3670 60.5805
152.871 3577 59.808
152.989 3447 58.7112
153.106 3444 58.6856
153.223 3455 58.7792
153.341 3440 58.6515
153.458 3545 59.5399
153.575 3493 59.1016
153.693 3574 59.7829
153.81 3500 59.1608
153.927 3492 59.0931
154.044 3639 60.3241
154.162 3560 59.6657
154.279 3560 59.6657
154.396 3707 60.8851
154.513 3723 61.0164
154.63 3657 60.4731
154.747 3545 59.5399
154.864 3468 58.8897
154.981 3351 57.8878
155.098 3003 54.7996
155.215 2965 54.4518
155.332 3191 56.4889
155.449 3308 57.5152
155.566 3661 60.5062
155.683 3633 60.2744
155.8 3611 60.0916
155.917 3689 60.7371
156.033 3648 60.3987
156.15 0 1
156.267 0 1
156.383 0 1
156.5 0 1
156.617 0 1
156.733 0 1
156.85 0 1
156.966 0 1
157.082 0 1
157.199 0 1
157.315 0 1
157.431 0 1
157.547 0 1
157.664 0 1
157.78 0 1
157.896 0 1
158.012 0 1
158.128 0 1
158.244 0 1
158.359 0 1
158.475 0 1
158.591 0 1
158.706 0 1
