
6.15755 0 1
6.2731 0 1
6.3887 0 1
6.50437 0 1
6.62009 0 1
6.73587 0 1
6.8517 0 1
6.96759 0 1
7.08353 0 1
7.19952 0 1
7.31557 0 1
7.43166 0 1
7.54781 0 1
7.664 0 1
7.78024 0 1
7.89653 0 1
8.01286 0 1
8.12924 0 1
8.24567 0 1
8.36213 0 1
8.47864 0 1
8.59519 0 1
8.71178 0 1
8.82841 0 1
8.94508 0 1
9.06179 0 1
9.17853 0 1
9.29531 0 1
9.41212 0 1
9.52897 0 1
9.64584 0 1
9.76276 0 1
9.8797 0 1
9.99667 0 1
10.1137 0 1
10.2307 0 1
10.3478 0 1
10.4648 0 1
10.5819 0 1
10.6991 0 1
10.8162 0 1
10.9334 0 1
11.0506 0 1
11.1678 0 1
11.285 0 1
11.4023 0 1
11.5196 0 1
11.6369 0 1
11.7542 0 1
11.8715 0 1
11.9888 0 1
12.1062 0 1
12.2235 0 1
12.3409 0 1
12.4582 0 1
12.5756 0 1
12.693 0 1
12.8104 0 1
12.9278 0 1
13.0452 0 1
13.1626 0 1
13.28 0 1
13.3974 0 1
13.5149 0 1
13.6323 0 1
13.7497 0 1
13.8671 0 1
13.9845 0 1
14.1019 0 1
14.2193 0 1
14.3367 0 1
14.4541 0 1
14.5714 0 1
14.6888 0 1
14.8062 0 1
14.9235 0 1
15.0408 960 30.9839
15.1581 1032 32.1248
15.2755 1068 32.6803
15.3927 1081 32.8786
15.51 1043 32.2955
15.6273 982 31.3369
15.7445 1010 31.7805
15.8617 955 30.9031
15.9789 982 31.3369
16.0961 901 30.0167
16.2132 891 29.8496
16.3304 956 30.9192
16.4475 890 29.8329
16.5646 830 28.8097
16.6816 876 29.5973
16.7986 841 29
16.9156 889 29.8161
17.0326 820 28.6356
17.1496 859 29.3087
17.2665 828 28.775
17.3833 844 29.0517
17.5002 864 29.3939
17.617 871 29.5127
17.7338 853 29.2062
17.8505 841 29
17.9672 920 30.3315
18.0839 853 29.2062
18.2005 849 29.1376
18.3171 762 27.6043
18.4337 830 28.8097
18.5502 890 29.8329
18.6666 879 29.6479
18.7831 882 29.6985
18.8994 859 29.3087
19.0158 829 28.7924
19.1321 758 27.5318
19.2483 746 27.313
19.3645 733 27.074
19.4806 688 26.2298
19.5967 663 25.7488
19.7128 642 25.3377
19.8288 600 24.4949
19.9447 571 23.8956
20.0606 0 1
20.1764 0 1
20.2922 0 1
20.4079 0 1
20.5236 0 1
20.6392 0 1
20.7548 0 1
20.8702 0 1
23.3078 0 1
23.4233 0 1
23.539 0 1
23.6547 0 1
23.7704 0 1
23.8862 0 1
24.0021 0 1
24.118 0 1
24.234 0 1
24.35 0 1
24.4661 395 19.8746
24.5822 407 20.1742
24.6984 483 21.9773
24.8146 597 24.4336
24.9309 681 26.096
25.0472 779 27.9106
25.1636 799 28.2666
25.28 920 30.3315
25.3965 1021 31.9531
25.513 1029 32.078
25.6296 1119 33.4515
25.7462 1091 33.0303
25.8628 1168 34.176
25.9795 1136 33.7046
26.0962 1184 34.4093
26.213 1199 34.6266
26.3298 1296 36
26.4466 1430 37.8153
26.5635 1548 39.3446
26.6804 1458 38.1838
26.7973 1112 33.3467
26.9143 894 29.8998
27.0313 1153 33.9559
27.1483 1645 40.5586
27.2653 1908 43.6807
27.3824 1778 42.1663
27.4996 1780 42.19
27.6167 1791 42.3202
27.7339 1860 43.1277
27.8511 1978 44.4747
27.9683 2047 45.2438
28.0855 2087 45.6837
28.2028 2023 44.9778
28.3201 1965 44.3283
28.4374 1960 44.2719
28.5547 1873 43.2782
28.6721 1880 43.359
28.7894 1837 42.8602
28.9068 1796 42.3792
29.0242 1708 41.328
29.1416 1711 41.3642
29.259 1462 38.2361
29.3764 1300 36.0555
29.4939 1116 33.4066
29.6113 1098 33.1361
29.7288 1050 32.4037
29.8463 976 31.241
29.9638 955 30.9031
30.0812 1000 31.6228
30.1987 960 30.9839
30.3162 835 28.8964
30.4337 777 27.8747
30.5512 977 31.257
30.6687 1309 36.1801
30.7862 1451 38.092
30.9037 1238 35.1852
31.0212 1134 33.6749
31.1387 1103 33.2114
31.2562 913 30.2159
31.3737 886 29.7658
31.4912 863 29.3769
31.6087 852 29.189
31.7262 847 29.1033
31.8436 839 28.9655
31.9611 870 29.4958
32.0785 850 29.1548
32.1959 843 29.0345
32.3134 767 27.6948
32.4308 803 28.3373
32.5482 710 26.6458
32.6655 809 28.4429
32.7829 822 28.6705
32.9002 749 27.3679
33.0176 733 27.074
33.1349 782 27.9643
33.2522 720 26.8328
33.3694 786 28.0357
33.4867 771 27.7669
33.6039 753 27.4408
33.7211 771 27.7669
33.8383 712 26.6833
33.9554 676 26
34.0725 675 25.9808
34.1896 704 26.533
34.3067 770 27.7489
34.4237 825 28.7228
34.5407 829 28.7924
34.6577 806 28.3901
34.7746 787 28.0535
34.8915 771 27.7669
35.0084 752 27.4226
35.1252 665 25.7876
35.242 692 26.3059
35.3587 689 26.2488
35.4755 739 27.1846
35.5921 744 27.2764
35.7088 698 26.4197
35.8254 713 26.7021
35.9419 748 27.3496
36.0584 725 26.9258
36.1749 753 27.4408
36.2913 756 27.4955
36.4077 648 25.4558
36.524 670 25.8844
36.6403 630 25.0998
36.7565 616 24.8193
36.8727 611 24.7184
36.9889 536 23.1517
37.1049 516 22.7156
37.221 0 1
37.3369 0 1
37.4529 0 1
37.5687 0 1
37.6845 0 1
37.8003 0 1
37.916 0 1
38.0316 0 1
38.1472 0 1
40.5851 0 1
40.7008 0 1
40.8164 0 1
40.9322 0 1
41.048 0 1
41.1639 0 1
41.2798 0 1
41.3958 0 1
41.5118 0 1
41.6279 0 1
41.744 340 18.4391
41.8602 359 18.9473
41.9765 387 19.6723
42.0928 493 22.2036
42.2091 522 22.8473
42.3255 543 23.3024
42.4419 575 23.9792
42.5584 579 24.0624
42.675 525 22.9129
42.7915 545 23.3452
42.9081 512 22.6274
43.0248 585 24.1868
43.1415 612 24.7386
43.2582 542 23.2809
43.375 564 23.7487
43.4918 568 23.8328
43.6087 574 23.9583
43.7256 510 22.5832
43.8425 535 23.1301
43.9595 543 23.3024
44.0765 509 22.561
44.1935 508 22.5389
44.3106 524 22.891
44.4277 558 23.622
44.5448 552 23.4947
44.6619 567 23.8118
44.7791 575 23.9792
44.8963 583 24.1454
45.0136 618 24.8596
45.1308 593 24.3516
45.2481 568 23.8328
45.3654 644 25.3772
45.4827 575 23.9792
45.6001 620 24.8998
45.7174 601 24.5153
45.8348 630 25.0998
45.9522 605 24.5967
46.0697 573 23.9374
46.1871 612 24.7386
46.3046 506 22.4944
46.422 514 22.6716
46.5395 495 22.2486
46.657 511 22.6053
46.7745 573 23.9374
46.892 598 24.454
47.0096 541 23.2594
47.1271 599 24.4745
47.2446 592 24.3311
47.3622 516 22.7156
47.4797 515 22.6936
47.5973 474 21.7715
47.7149 539 23.2164
47.8324 549 23.4307
47.95 525 22.9129
48.0675 539 23.2164
48.1851 560 23.6643
48.3027 546 23.3666
48.4202 555 23.5584
48.5378 565 23.7697
48.6554 580 24.0832
48.7729 530 23.0217
48.8904 561 23.6854
49.008 605 24.5967
49.1255 577 24.0208
49.243 580 24.0832
49.3605 607 24.6374
49.478 546 23.3666
49.5955 583 24.1454
49.713 523 22.8692
49.8304 487 22.0681
49.9479 505 22.4722
50.0653 476 21.8174
50.1827 505 22.4722
50.3001 500 22.3607
50.4175 530 23.0217
50.5348 601 24.5153
50.6521 512 22.6274
50.7694 488 22.0907
50.8867 507 22.5167
51.004 443 21.0476
51.1212 462 21.4942
51.2384 522 22.8473
51.3556 493 22.2036
51.4727 584 24.1661
51.5899 538 23.1948
51.707 556 23.5797
51.824 531 23.0434
51.9411 533 23.0868
52.0581 515 22.6936
52.175 516 22.7156
52.2919 549 23.4307
52.4088 528 22.9783
52.5257 525 22.9129
52.6425 519 22.7816
52.7593 556 23.5797
52.876 507 22.5167
52.9927 505 22.4722
53.1094 541 23.2594
53.226 514 22.6716
53.3426 499 22.3383
53.4591 466 21.587
53.5756 467 21.6102
53.692 447 21.1424
53.8084 450 21.2132
53.9248 440 20.9762
54.0411 418 20.445
54.1573 363 19.0526
54.2735 0 1
54.3896 0 1
54.5057 0 1
54.6217 0 1
54.7377 0 1
54.8537 0 1
54.9695 0 1
55.0853 0 1
55.2011 0 1
55.3168 0 1
55.4324 0 1
57.824 0 1
57.9396 0 1
58.0553 0 1
58.1711 0 1
58.2869 0 1
58.4028 0 1
58.5187 0 1
58.6347 0 1
58.7508 0 1
58.8669 0 1
58.983 715 26.7395
59.0992 932 30.5287
59.2155 1160 34.0588
59.3318 1268 35.609
59.4482 1363 36.9188
59.5646 1386 37.229
59.681 1368 36.9865
59.7975 1458 38.1838
59.9141 1397 37.3765
60.0306 1328 36.4417
60.1473 1345 36.6742
60.2639 1295 35.9861
60.3807 1367 36.973
60.4974 1313 36.2353
60.6142 1290 35.9166
60.731 1352 36.7696
60.8479 1316 36.2767
60.9648 1299 36.0416
61.0818 1229 35.0571
61.1987 1276 35.7211
61.3158 1198 34.6121
61.4328 1232 35.0999
61.5499 1212 34.8138
61.667 1154 33.9706
61.7841 1157 34.0147
61.9013 1072 32.7414
62.0185 1062 32.5883
62.1357 1060 32.5576
62.253 1001 31.6386
62.3702 1066 32.6497
62.4875 1036 32.187
62.6049 995 31.5436
62.7222 897 29.95
62.8396 927 30.4467
62.9569 819 28.6182
63.0743 799 28.2666
63.1918 761 27.5862
63.3092 730 27.0185
63.4267 666 25.807
63.5441 685 26.1725
63.6616 620 24.8998
63.7791 709 26.6271
63.8966 708 26.6083
64.0142 701 26.4764
64.1317 630 25.0998
64.2492 695 26.3629
64.3668 623 24.96
64.4843 594 24.3721
64.6019 676 26
64.7195 683 26.1343
64.837 637 25.2389
64.9546 619 24.8797
65.0722 678 26.0384
65.1898 673 25.9422
65.3074 638 25.2587
65.4249 640 25.2982
65.5425 628 25.0599
65.6601 586 24.2074
65.7777 582 24.1247
65.8952 626 25.02
66.0128 611 24.7184
66.1304 597 24.4336
66.2479 689 26.2488
66.3655 670 25.8844
66.483 658 25.6515
66.6005 627 25.04
66.718 649 25.4755
66.8355 601 24.5153
66.953 610 24.6982
67.0705 578 24.0416
67.1879 598 24.454
67.3054 591 24.3105
67.4228 601 24.5153
67.5402 630 25.0998
67.6576 599 24.4745
67.7749 640 25.2982
67.8923 630 25.0998
68.0096 676 26
68.1269 620 24.8998
68.2442 643 25.3574
68.3614 642 25.3377
68.4787 602 24.5357
68.5958 605 24.5967
68.713 627 25.04
68.8302 620 24.8998
68.9473 609 24.6779
69.0643 639 25.2784
69.1814 596 24.4131
69.2984 617 24.8395
69.4154 640 25.2982
69.5323 599 24.4745
69.6492 608 24.6577
69.7661 710 26.6458
69.8829 668 25.8457
69.9997 643 25.3574
70.1165 623 24.96
70.2332 633 25.1595
70.3499 589 24.2693
70.4665 513 22.6495
70.5831 534 23.1084
70.6996 463 21.5174
70.8161 438 20.9284
70.9326 376 19.3907
71.049 346 18.6011
71.1653 395 19.8746
71.2817 357 18.8944
71.3979 295 17.1756
71.5141 284 16.8523
71.6303 256 16
71.7464 230 15.1658
71.8624 0 1
71.9784 0 1
72.0944 0 1
72.2102 0 1
72.3261 0 1
72.4418 0 1
72.5575 0 1
72.6732 0 1
75.1054 0 1
75.2209 0 1
75.3365 0 1
75.4521 0 1
75.5678 0 1
75.6835 0 1
75.7993 0 1
75.9151 0 1
76.031 0 1
76.147 324 18
76.263 412 20.2978
76.3791 436 20.8806
76.4952 471 21.7025
76.6113 504 22.4499
76.7276 503 22.4277
76.8438 552 23.4947
76.9601 514 22.6716
77.0765 508 22.5389
77.1929 502 22.4054
77.3093 522 22.8473
77.4258 563 23.7276
77.5423 529 23
77.6589 524 22.891
77.7755 574 23.9583
77.8921 556 23.5797
78.0088 555 23.5584
78.1256 518 22.7596
78.2423 554 23.5372
78.3591 535 23.1301
78.4759 567 23.8118
78.5928 545 23.3452
78.7097 584 24.1661
78.8266 535 23.1301
78.9436 547 23.388
79.0606 536 23.1517
79.1776 521 22.8254
79.2946 563 23.7276
79.4117 573 23.9374
79.5288 529 23
79.6459 526 22.9347
79.7631 551 23.4734
79.8802 578 24.0416
79.9974 500 22.3607
80.1147 536 23.1517
80.2319 570 23.8747
80.3491 546 23.3666
80.4664 495 22.2486
80.5837 571 23.8956
80.701 585 24.1868
80.8183 606 24.6171
80.9357 556 23.5797
81.053 542 23.2809
81.1704 532 23.0651
81.2877 547 23.388
81.4051 601 24.5153
81.5225 595 24.3926
81.6399 584 24.1661
81.7573 558 23.622
81.8747 564 23.7487
81.9922 532 23.0651
82.1096 512 22.6274
82.227 531 23.0434
82.3444 580 24.0832
82.4619 565 23.7697
82.5793 555 23.5584
82.6967 597 24.4336
82.8142 512 22.6274
82.9316 561 23.6854
83.049 557 23.6008
83.1664 601 24.5153
83.2838 548 23.4094
83.4012 578 24.0416
83.5186 561 23.6854
83.636 518 22.7596
83.7534 532 23.0651
83.8708 578 24.0416
83.9881 556 23.5797
84.1055 560 23.6643
84.2228 528 22.9783
84.3401 584 24.1661
84.4575 530 23.0217
84.5747 528 22.9783
84.692 581 24.1039
84.8093 597 24.4336
84.9265 553 23.516
85.0437 596 24.4131
85.1609 562 23.7065
85.2781 552 23.4947
85.3952 540 23.2379
85.5123 599 24.4745
85.6294 527 22.9565
85.7465 567 23.8118
85.8636 514 22.6716
85.9806 556 23.5797
86.0976 567 23.8118
86.2145 540 23.2379
86.3315 632 25.1396
86.4484 559 23.6432
86.5652 583 24.1454
86.682 538 23.1948
86.7988 593 24.3516
86.9156 571 23.8956
87.0323 532 23.0651
87.149 597 24.4336
87.2657 549 23.4307
87.3823 562 23.7065
87.4988 526 22.9347
87.6154 476 21.8174
87.7318 527 22.9565
87.8483 464 21.5407
87.9647 513 22.6495
88.081 444 21.0713
88.1973 411 20.2731
88.3136 383 19.5704
88.4298 419 20.4695
88.546 346 18.6011
88.6621 348 18.6548
88.7781 336 18.3303
88.8942 0 1
89.0101 0 1
89.126 0 1
89.2419 0 1
89.3577 0 1
89.4734 0 1
89.5891 0 1
89.7047 0 1
89.8203 0 1
89.9358 0 1
92.3269 0 1
92.4424 0 1
92.558 0 1
92.6736 0 1
92.7893 0 1
92.905 0 1
93.0208 0 1
93.1366 0 1
93.2525 0 1
93.3685 0 1
93.4845 0 1
93.6005 394 19.8494
93.7167 467 21.6102
93.8328 494 22.2261
93.949 550 23.4521
94.0653 531 23.0434
94.1816 579 24.0624
94.2979 634 25.1794
94.4143 571 23.8956
94.5307 513 22.6495
94.6472 571 23.8956
94.7637 585 24.1868
94.8803 517 22.7376
94.9969 577 24.0208
95.1135 560 23.6643
95.2302 547 23.388
95.3469 546 23.3666
95.4637 546 23.3666
95.5805 570 23.8747
95.6973 549 23.4307
95.8142 540 23.2379
95.9311 519 22.7816
96.048 578 24.0416
96.1649 566 23.7908
96.2819 590 24.2899
96.3989 621 24.9199
96.516 549 23.4307
96.633 583 24.1454
96.7501 544 23.3238
96.8673 565 23.7697
96.9844 524 22.891
97.1016 548 23.4094
97.2188 504 22.4499
97.336 551 23.4734
97.4532 583 24.1454
97.5704 568 23.8328
97.6877 618 24.8596
97.805 591 24.3105
97.9223 636 25.219
98.0396 575 23.9792
98.1569 588 24.2487
98.2743 579 24.0624
98.3916 568 23.8328
98.509 554 23.5372
98.6264 555 23.5584
98.7438 553 23.516
98.8612 554 23.5372
98.9786 604 24.5764
99.096 569 23.8537
99.2134 614 24.779
99.3308 634 25.1794
99.4482 604 24.5764
99.5656 598 24.454
99.6831 604 24.5764
99.8005 622 24.9399
99.9179 602 24.5357
100.035 579 24.0624
100.153 547 23.388
100.27 560 23.6643
100.388 564 23.7487
100.505 571 23.8956
100.622 550 23.4521
100.74 546 23.3666
100.857 600 24.4949
100.975 551 23.4734
101.092 600 24.4949
101.209 574 23.9583
101.327 630 25.0998
101.444 593 24.3516
101.561 617 24.8395
101.679 665 25.7876
101.796 643 25.3574
101.913 608 24.6577
102.03 589 24.2693
102.148 602 24.5357
102.265 548 23.4094
102.382 562 23.7065
102.499 590 24.2899
102.616 613 24.7588
102.733 643 25.3574
102.851 627 25.04
102.968 620 24.8998
103.085 599 24.4745
103.202 631 25.1197
103.319 618 24.8596
103.436 664 25.7682
103.552 619 24.8797
103.669 618 24.8596
103.786 633 25.1595
103.903 564 23.7487
104.02 612 24.7386
104.137 603 24.5561
104.253 553 23.516
104.37 594 24.3721
104.487 604 24.5764
104.603 614 24.779
104.72 618 24.8596
104.836 662 25.7294
104.953 638 25.2587
105.069 544 23.3238
105.186 540 23.2379
105.302 559 23.6432
105.418 487 22.0681
105.535 498 22.3159
105.651 423 20.567
105.767 369 19.2094
105.883 365 19.105
105.999 356 18.868
106.115 0 1
106.231 0 1
106.347 0 1
106.463 0 1
106.579 0 1
106.694 0 1
106.81 0 1
106.926 0 1
107.041 0 1
107.157 0 1
109.576 0 1
109.692 0 1
109.807 0 1
109.923 0 1
110.039 0 1
110.155 0 1
110.27 0 1
110.386 0 1
110.502 0 1
110.618 294 17.1464
110.735 357 18.8944
110.851 433 20.8087
110.967 408 20.199
111.083 452 21.2603
111.199 494 22.2261
111.316 545 23.3452
111.432 612 24.7386
111.549 576 24
111.665 621 24.9199
111.782 563 23.7276
111.898 619 24.8797
112.015 607 24.6374
112.132 609 24.6779
112.248 572 23.9165
112.365 555 23.5584
112.482 537 23.1733
112.599 541 23.2594
112.716 546 23.3666
112.832 557 23.6008
112.949 499 22.3383
113.066 527 22.9565
113.183 526 22.9347
113.3 510 22.5832
113.417 574 23.9583
113.534 531 23.0434
113.652 533 23.0868
113.769 539 23.2164
113.886 548 23.4094
114.003 564 23.7487
114.12 560 23.6643
114.238 517 22.7376
114.355 536 23.1517
114.472 490 22.1359
114.589 466 21.587
114.707 458 21.4009
114.824 483 21.9773
114.942 570 23.8747
115.059 543 23.3024
115.176 497 22.2935
115.294 550 23.4521
115.411 504 22.4499
115.529 554 23.5372
115.646 520 22.8035
115.764 535 23.1301
115.881 519 22.7816
115.999 451 21.2368
116.116 484 22
116.234 492 22.1811
116.351 472 21.7256
116.469 454 21.3073
116.586 465 21.5639
116.704 459 21.4243
116.821 487 22.0681
116.939 468 21.6333
117.056 480 21.9089
117.174 503 22.4277
117.291 478 21.8632
117.409 513 22.6495
117.526 510 22.5832
117.644 484 22
117.761 514 22.6716
117.879 499 22.3383
117.996 417 20.4206
118.114 418 20.445
118.231 443 21.0476
118.349 466 21.587
118.466 502 22.4054
118.584 514 22.6716
118.701 511 22.6053
118.819 475 21.7945
118.936 478 21.8632
119.053 472 21.7256
119.171 483 21.9773
119.288 459 21.4243
119.405 465 21.5639
119.523 442 21.0238
119.64 460 21.4476
119.757 420 20.4939
119.875 439 20.9523
119.992 431 20.7605
120.109 411 20.2731
120.226 411 20.2731
120.343 414 20.347
120.46 480 21.9089
120.578 478 21.8632
120.695 478 21.8632
120.812 492 22.1811
120.929 464 21.5407
121.046 435 20.8567
121.163 446 21.1187
121.279 457 21.3776
121.396 420 20.4939
121.513 463 21.5174
121.63 443 21.0476
121.747 417 20.4206
121.863 424 20.5913
121.98 368 19.1833
122.097 402 20.0499
122.213 373 19.3132
122.33 358 18.9209
122.446 363 19.0526
122.563 352 18.7617
122.679 340 18.4391
122.795 335 18.303
122.912 298 17.2627
123.028 303 17.4069
123.144 284 16.8523
123.26 231 15.1987
123.377 0 1
123.493 0 1
123.609 0 1
123.725 0 1
123.84 0 1
123.956 0 1
124.072 0 1
124.188 0 1
124.303 0 1
124.419 0 1
126.852 0 1
126.968 0 1
127.083 0 1
127.199 0 1
127.315 0 1
127.431 0 1
127.547 0 1
127.663 0 1
127.779 0 1
127.895 0 1
128.011 0 1
128.127 0 1
128.243 0 1
128.359 478 21.8632
128.476 496 22.2711
128.592 495 22.2486
128.708 459 21.4243
128.825 500 22.3607
128.941 471 21.7025
129.058 457 21.3776
129.174 470 21.6795
129.291 492 22.1811
129.408 525 22.9129
129.524 541 23.2594
129.641 537 23.1733
129.758 595 24.3926
129.875 543 23.3024
129.992 552 23.4947
130.108 578 24.0416
130.225 578 24.0416
130.342 562 23.7065
130.459 550 23.4521
130.576 540 23.2379
130.693 512 22.6274
130.81 537 23.1733
130.928 535 23.1301
131.045 558 23.622
131.162 603 24.5561
131.279 609 24.6779
131.396 670 25.8844
131.513 715 26.7395
131.631 724 26.9072
131.748 695 26.3629
131.865 746 27.313
131.983 742 27.2397
132.1 727 26.9629
132.217 752 27.4226
132.335 766 27.6767
132.452 765 27.6586
132.57 818 28.6007
132.687 871 29.5127
132.804 859 29.3087
132.922 931 30.5123
133.039 923 30.3809
133.157 945 30.7409
133.274 1025 32.0156
133.392 1051 32.4191
133.509 995 31.5436
133.627 966 31.0805
133.744 1087 32.9697
133.862 1043 32.2955
133.979 1014 31.8434
134.097 1048 32.3728
134.214 1001 31.6386
134.332 949 30.8058
134.449 883 29.7153
134.567 968 31.1127
134.684 982 31.3369
134.802 975 31.225
134.919 1083 32.909
135.037 1105 33.2415
135.154 1066 32.6497
135.272 1149 33.8969
135.389 1151 33.9264
135.507 1100 33.1662
135.624 1125 33.541
135.742 1121 33.4813
135.859 1123 33.5112
135.977 1153 33.9559
136.094 1108 33.2866
136.211 1113 33.3617
136.329 1204 34.6987
136.446 1171 34.2199
136.564 1176 34.2929
136.681 1201 34.6554
136.798 1204 34.6987
136.915 1215 34.8569
137.033 1209 34.7707
137.15 1235 35.1426
137.267 1255 35.426
137.384 1253 35.3977
137.502 1181 34.3657
137.619 1190 34.4964
137.736 1187 34.4529
137.853 1076 32.8024
137.97 1115 33.3916
138.087 941 30.6757
138.204 1070 32.7109
138.321 1060 32.5576
138.438 1146 33.8526
138.555 1261 35.5106
138.672 1237 35.171
138.788 1266 35.5809
138.905 1299 36.0416
139.022 1321 36.3456
139.139 1198 34.6121
139.255 1186 34.4384
139.372 1094 33.0757
139.488 1001 31.6386
139.605 926 30.4302
139.721 830 28.8097
139.838 842 29.0172
139.954 838 28.9482
140.071 779 27.9106
140.187 860 29.3258
140.303 760 27.5681
140.419 723 26.8887
140.535 717 26.7769
140.652 653 25.5539
140.768 0 1
140.884 0 1
141 0 1
141.115 0 1
141.231 0 1
141.347 0 1
141.463 0 1
141.578 0 1
141.694 0 1
144.104 0 1
144.219 0 1
144.335 0 1
144.45 0 1
144.566 0 1
144.682 0 1
144.798 0 1
144.914 0 1
145.03 0 1
145.146 1166 34.1467
145.262 1157 34.0147
145.378 1294 35.9722
145.494 1230 35.0714
145.61 1239 35.1994
145.726 1291 35.9305
145.842 1264 35.5528
145.959 1278 35.7491
146.075 1249 35.3412
146.192 1331 36.4829
146.308 1260 35.4965
146.425 1288 35.8887
146.541 1208 34.7563
146.658 1131 33.6303
146.774 1024 32
146.891 1083 32.909
147.008 1078 32.8329
147.125 1125 33.541
147.241 1202 34.6699
147.358 1269 35.623
147.475 1250 35.3553
147.592 1269 35.623
147.709 1257 35.4542
147.826 1324 36.3868
147.943 1261 35.5106
148.06 1186 34.4384
148.177 1234 35.1283
148.294 1194 34.5543
148.411 1226 35.0143
148.528 1159 34.0441
148.645 1215 34.8569
148.762 1236 35.1568
148.88 1253 35.3977
148.997 1292 35.9444
149.114 1290 35.9166
149.231 1215 34.8569
149.349 1311 36.2077
149.466 1202 34.6699
149.583 1239 35.1994
149.701 1232 35.0999
149.818 1307 36.1525
149.935 1303 36.0971
150.053 1277 35.7351
150.17 1176 34.2929
150.287 1135 33.6898
150.405 1044 32.311
150.522 1020 31.9374
150.64 996 31.5595
150.757 1053 32.45
150.875 1070 32.7109
150.992 1109 33.3017
151.11 1079 32.8481
151.227 1089 33
151.344 1141 33.7787
151.462 1103 33.2114
151.579 1123 33.5112
151.697 1054 32.4654
151.814 1032 32.1248
151.932 1024 32
152.049 1040 32.249
152.167 1098 33.1361
152.284 1055 32.4808
152.402 1041 32.2645
152.519 1077 32.8177
152.636 1047 32.3574
152.754 1082 32.8938
152.871 1116 33.4066
152.989 1060 32.5576
153.106 1147 33.8674
153.223 1138 33.7343
153.341 1078 32.8329
153.458 1075 32.7872
153.575 1117 33.4215
153.693 1023 31.9844
153.81 1021 31.9531
153.927 995 31.5436
154.044 920 30.3315
154.162 923 30.3809
154.279 943 30.7083
154.396 957 30.9354
154.513 955 30.9031
154.63 1013 31.8277
154.747 982 31.3369
154.864 1039 32.2335
154.981 995 31.5436
155.098 1038 32.218
155.215 1015 31.8591
155.332 1017 31.8904
155.449 991 31.4802
155.566 1010 31.7805
155.683 976 31.241
155.8 1005 31.7017
155.917 1030 32.0936
156.033 1018 31.9061
156.15 0 1
156.267 0 1
156.383 0 1
156.5 0 1
156.617 0 1
156.733 0 1
156.85 0 1
156.966 0 1
157.082 0 1
157.199 0 1
157.315 0 1
157.431 0 1
157.547 0 1
157.664 0 1
157.78 0 1
157.896 0 1
158.012 0 1
158.128 0 1
158.244 0 1
158.359 0 1
158.475 0 1
158.591 0 1
158.706 0 1
