
6.15755 0 1
6.2731 0 1
6.3887 0 1
6.50437 0 1
6.62009 0 1
6.73587 0 1
6.8517 0 1
6.96759 0 1
7.08353 0 1
7.19952 0 1
7.31557 0 1
7.43166 0 1
7.54781 0 1
7.664 0 1
7.78024 0 1
7.89653 0 1
8.01286 0 1
8.12924 0 1
8.24567 0 1
8.36213 0 1
8.47864 0 1
8.59519 0 1
8.71178 0 1
8.82841 0 1
8.94508 0 1
9.06179 0 1
9.17853 0 1
9.29531 0 1
9.41212 0 1
9.52897 0 1
9.64584 0 1
9.76276 0 1
9.8797 0 1
9.99667 0 1
10.1137 0 1
10.2307 0 1
10.3478 0 1
10.4648 0 1
10.5819 0 1
10.6991 0 1
10.8162 0 1
10.9334 0 1
11.0506 0 1
11.1678 0 1
11.285 0 1
11.4023 0 1
11.5196 0 1
11.6369 0 1
11.7542 0 1
11.8715 0 1
11.9888 0 1
12.1062 0 1
12.2235 0 1
12.3409 0 1
12.4582 0 1
12.5756 0 1
12.693 0 1
12.8104 0 1
12.9278 0 1
13.0452 0 1
13.1626 0 1
13.28 0 1
13.3974 0 1
13.5149 0 1
13.6323 0 1
13.7497 0 1
13.8671 0 1
13.9845 0 1
14.1019 0 1
14.2193 0 1
14.3367 0 1
14.4541 0 1
14.5714 0 1
14.6888 0 1
14.8062 0 1
14.9235 0 1
15.0408 0 0
15.1581 0 0
15.2755 0 0
15.3927 0 0
15.51 0 0
15.6273 0 0
15.7445 0 0
15.8617 0 0
15.9789 0 0
16.0961 0 0
16.2132 0 0
16.3304 0 0
16.4475 0 0
16.5646 0 0
16.6816 0 0
16.7986 0 0
16.9156 0 0
17.0326 0 0
17.1496 0 0
17.2665 0 0
17.3833 0 0
17.5002 0 0
17.617 0 0
17.7338 0 0
17.8505 0 0
17.9672 0 0
18.0839 0 0
18.2005 0 0
18.3171 0 0
18.4337 0 0
18.5502 0 0
18.6666 0 0
18.7831 0 0
18.8994 0 0
19.0158 0 0
19.1321 0 0
19.2483 0 0
19.3645 0 0
19.4806 0 0
19.5967 0 0
19.7128 0 0
19.8288 0 0
19.9447 0 0
20.0606 0 1
20.1764 0 1
20.2922 0 1
20.4079 0 1
20.5236 0 1
20.6392 0 1
20.7548 0 1
20.8702 0 1
23.3078 0 1
23.4233 0 1
23.539 0 1
23.6547 0 1
23.7704 0 1
23.8862 0 1
24.0021 0 1
24.118 0 1
24.234 0 1
24.35 0 1
24.4661 707 26.5895
24.5822 702 26.4953
24.6984 744 27.2764
24.8146 788 28.0713
24.9309 788 28.0713
25.0472 967 31.0966
25.1636 1002 31.6544
25.28 1192 34.5254
25.3965 1278 35.7491
25.513 1379 37.1349
25.6296 1473 38.3797
25.7462 1616 40.1995
25.8628 1625 40.3113
25.9795 1638 40.4722
26.0962 1592 39.8999
26.213 1511 38.8716
26.3298 1511 38.8716
26.4466 1483 38.5097
26.5635 1419 37.6696
26.6804 1446 38.0263
26.7973 1471 38.3536
26.9143 1429 37.8021
27.0313 1344 36.6606
27.1483 1379 37.1349
27.2653 1386 37.229
27.3824 1310 36.1939
27.4996 1395 37.3497
27.6167 1333 36.5103
27.7339 1375 37.081
27.8511 1310 36.1939
27.9683 1267 35.5949
28.0855 1210 34.7851
28.2028 1098 33.1361
28.3201 975 31.225
28.4374 938 30.6268
28.5547 1053 32.45
28.6721 1115 33.3916
28.7894 1172 34.2345
28.9068 1294 35.9722
29.0242 1291 35.9305
29.1416 1319 36.318
29.259 1319 36.318
29.3764 1317 36.2905
29.4939 1327 36.428
29.6113 1385 37.2156
29.7288 1398 37.3898
29.8463 1303 36.0971
29.9638 1379 37.1349
30.0812 1330 36.4692
30.1987 1356 36.8239
30.3162 1300 36.0555
30.4337 1306 36.1386
30.5512 1304 36.1109
30.6687 1251 35.3695
30.7862 1312 36.2215
30.9037 1364 36.9324
31.0212 1272 35.6651
31.1387 1190 34.4964
31.2562 1252 35.3836
31.3737 1177 34.3074
31.4912 1100 33.1662
31.6087 1119 33.4515
31.7262 984 31.3688
31.8436 893 29.8831
31.9611 876 29.5973
32.0785 972 31.1769
32.1959 1075 32.7872
32.3134 1134 33.6749
32.4308 1202 34.6699
32.5482 1236 35.1568
32.6655 1304 36.1109
32.7829 1225 35
32.9002 1256 35.4401
33.0176 1252 35.3836
33.1349 1237 35.171
33.2522 1234 35.1283
33.3694 1283 35.819
33.4867 1237 35.171
33.6039 1255 35.426
33.7211 1254 35.4119
33.8383 1278 35.7491
33.9554 1163 34.1028
34.0725 1209 34.7707
34.1896 1221 34.9428
34.3067 1240 35.2136
34.4237 1235 35.1426
34.5407 1138 33.7343
34.6577 1146 33.8526
34.7746 1200 34.641
34.8915 1154 33.9706
35.0084 1101 33.1813
35.1252 1097 33.121
35.242 1051 32.4191
35.3587 958 30.9516
35.4755 843 29.0345
35.5921 840 28.9828
35.7088 860 29.3258
35.8254 947 30.7734
35.9419 1025 32.0156
36.0584 1094 33.0757
36.1749 1172 34.2345
36.2913 1158 34.0294
36.4077 1188 34.4674
36.524 1210 34.7851
36.6403 1114 33.3766
36.7565 1104 33.2265
36.8727 1079 32.8481
36.9889 1044 32.311
37.1049 977 31.257
37.221 0 1
37.3369 0 1
37.4529 0 1
37.5687 0 1
37.6845 0 1
37.8003 0 1
37.916 0 1
38.0316 0 1
38.1472 0 1
40.5851 0 1
40.7008 0 1
40.8164 0 1
40.9322 0 1
41.048 0 1
41.1639 0 1
41.2798 0 1
41.3958 0 1
41.5118 0 1
41.6279 0 1
41.744 657 25.632
41.8602 685 26.1725
41.9765 740 27.2029
42.0928 845 29.0689
42.2091 856 29.2575
42.3255 815 28.5482
42.4419 862 29.3598
42.5584 848 29.1204
42.675 922 30.3645
42.7915 941 30.6757
42.9081 972 31.1769
43.0248 999 31.607
43.1415 966 31.0805
43.2582 958 30.9516
43.375 919 30.315
43.4918 926 30.4302
43.6087 989 31.4484
43.7256 912 30.1993
43.8425 868 29.4618
43.9595 931 30.5123
44.0765 849 29.1376
44.1935 884 29.7321
44.3106 801 28.3019
44.4277 747 27.3313
44.5448 723 26.8887
44.6619 826 28.7402
44.7791 883 29.7153
44.8963 921 30.348
45.0136 1075 32.7872
45.1308 1017 31.8904
45.2481 1003 31.6702
45.3654 1035 32.1714
45.4827 1019 31.9218
45.6001 973 31.1929
45.7174 968 31.1127
45.8348 1026 32.0312
45.9522 1014 31.8434
46.0697 956 30.9192
46.1871 982 31.3369
46.3046 935 30.5778
46.422 915 30.249
46.5395 953 30.8707
46.657 974 31.209
46.7745 893 29.8831
46.892 875 29.5804
47.0096 935 30.5778
47.1271 970 31.1448
47.2446 933 30.545
47.3622 915 30.249
47.4797 921 30.348
47.5973 929 30.4795
47.7149 863 29.3769
47.8324 914 30.2324
47.95 753 27.4408
48.0675 797 28.2312
48.1851 790 28.1069
48.3027 895 29.9166
48.4202 924 30.3974
48.5378 1017 31.8904
48.6554 986 31.4006
48.7729 1020 31.9374
48.8904 1006 31.7175
49.008 988 31.4325
49.1255 996 31.5595
49.243 963 31.0322
49.3605 960 30.9839
49.478 902 30.0333
49.5955 910 30.1662
49.713 865 29.4109
49.8304 854 29.2233
49.9479 824 28.7054
50.0653 849 29.1376
50.1827 854 29.2233
50.3001 915 30.249
50.4175 880 29.6648
50.5348 950 30.8221
50.6521 912 30.1993
50.7694 916 30.2655
50.8867 946 30.7571
51.004 935 30.5778
51.1212 923 30.3809
51.2384 945 30.7409
51.3556 868 29.4618
51.4727 759 27.55
51.5899 740 27.2029
51.707 806 28.3901
51.824 846 29.0861
51.9411 892 29.8664
52.0581 945 30.7409
52.175 956 30.9192
52.2919 916 30.2655
52.4088 920 30.3315
52.5257 891 29.8496
52.6425 892 29.8664
52.7593 886 29.7658
52.876 858 29.2916
52.9927 852 29.189
53.1094 917 30.282
53.226 855 29.2404
53.3426 836 28.9137
53.4591 794 28.178
53.5756 775 27.8388
53.692 808 28.4253
53.8084 842 29.0172
53.9248 847 29.1033
54.0411 731 27.037
54.1573 791 28.1247
54.2735 0 1
54.3896 0 1
54.5057 0 1
54.6217 0 1
54.7377 0 1
54.8537 0 1
54.9695 0 1
55.0853 0 1
55.2011 0 1
55.3168 0 1
55.4324 0 1
57.824 0 1
57.9396 0 1
58.0553 0 1
58.1711 0 1
58.2869 0 1
58.4028 0 1
58.5187 0 1
58.6347 0 1
58.7508 0 1
58.8669 0 1
58.983 560 23.6643
59.0992 657 25.632
59.2155 697 26.4008
59.3318 846 29.0861
59.4482 922 30.3645
59.5646 1022 31.9687
59.681 1101 33.1813
59.7975 1207 34.7419
59.9141 1153 33.9559
60.0306 1169 34.1906
60.1473 1140 33.7639
60.2639 1102 33.1964
60.3807 1113 33.3617
60.4974 1108 33.2866
60.6142 1057 32.5115
60.731 1138 33.7343
60.8479 1175 34.2783
60.9648 1129 33.6006
61.0818 1095 33.0908
61.1987 1144 33.8231
61.3158 1061 32.573
61.4328 1098 33.1361
61.5499 1035 32.1714
61.667 1039 32.2335
61.7841 1055 32.4808
61.9013 995 31.5436
62.0185 1031 32.1092
62.1357 1106 33.2566
62.253 1078 32.8329
62.3702 1149 33.8969
62.4875 1197 34.5977
62.6049 1221 34.9428
62.7222 1229 35.0571
62.8396 1339 36.5923
62.9569 1373 37.054
63.0743 1502 38.7556
63.1918 1486 38.5487
63.3092 1517 38.9487
63.4267 1403 37.4566
63.5441 1391 37.2961
63.6616 1304 36.1109
63.7791 1258 35.4683
63.8966 1221 34.9428
64.0142 1253 35.3977
64.1317 1227 35.0286
64.2492 1254 35.4119
64.3668 1250 35.3553
64.4843 1186 34.4384
64.6019 1232 35.0999
64.7195 1179 34.3366
64.837 1180 34.3511
64.9546 1156 34
65.0722 1142 33.7935
65.1898 1187 34.4529
65.3074 1195 34.5688
65.4249 1242 35.242
65.5425 1136 33.7046
65.6601 1185 34.4238
65.7777 1201 34.6554
65.8952 1253 35.3977
66.0128 1311 36.2077
66.1304 1318 36.3043
66.2479 1403 37.4566
66.3655 1510 38.8587
66.483 1628 40.3485
66.6005 1689 41.0974
66.718 1617 40.2119
66.8355 1669 40.8534
66.953 1637 40.4599
67.0705 1539 39.2301
67.1879 1529 39.1024
67.3054 1353 36.7831
67.4228 1289 35.9026
67.5402 1226 35.0143
67.6576 1226 35.0143
67.7749 1135 33.6898
67.8923 1204 34.6987
68.0096 1317 36.2905
68.1269 1324 36.3868
68.2442 1302 36.0832
68.3614 1327 36.428
68.4787 1341 36.6197
68.5958 1198 34.6121
68.713 1269 35.623
68.8302 1226 35.0143
68.9473 1159 34.0441
69.0643 1195 34.5688
69.1814 1189 34.4819
69.2984 1177 34.3074
69.4154 1180 34.3511
69.5323 1230 35.0714
69.6492 1224 34.9857
69.7661 1399 37.4032
69.8829 1438 37.921
69.9997 1471 38.3536
70.1165 1350 36.7423
70.2332 1510 38.8587
70.3499 1466 38.2884
70.4665 1352 36.7696
70.5831 1335 36.5377
70.6996 1298 36.0278
70.8161 1193 34.5398
70.9326 1062 32.5883
71.049 940 30.6594
71.1653 839 28.9655
71.2817 641 25.318
71.3979 660 25.6905
71.5141 582 24.1247
71.6303 568 23.8328
71.7464 480 21.9089
71.8624 0 1
71.9784 0 1
72.0944 0 1
72.2102 0 1
72.3261 0 1
72.4418 0 1
72.5575 0 1
72.6732 0 1
75.1054 0 1
75.2209 0 1
75.3365 0 1
75.4521 0 1
75.5678 0 1
75.6835 0 1
75.7993 0 1
75.9151 0 1
76.031 0 1
76.147 866 29.4279
76.263 939 30.6431
76.3791 928 30.4631
76.4952 812 28.4956
76.6113 839 28.9655
76.7276 877 29.6142
76.8438 939 30.6431
76.9601 935 30.5778
77.0765 988 31.4325
77.1929 999 31.607
77.3093 1073 32.7567
77.4258 1089 33
77.5423 1111 33.3317
77.6589 1008 31.749
77.7755 1107 33.2716
77.8921 1051 32.4191
78.0088 1003 31.6702
78.1256 961 31
78.2423 1012 31.8119
78.3591 955 30.9031
78.4759 956 30.9192
78.5928 1036 32.187
78.7097 1090 33.0151
78.8266 1265 35.5668
78.9436 1260 35.4965
79.0606 1412 37.5766
79.1776 1424 37.7359
79.2946 1403 37.4566
79.4117 1460 38.2099
79.5288 1435 37.8814
79.6459 1375 37.081
79.7631 1295 35.9861
79.8802 1213 34.8281
79.9974 1153 33.9559
80.1147 1091 33.0303
80.2319 989 31.4484
80.3491 1017 31.8904
80.4664 928 30.4631
80.5837 1005 31.7017
80.701 1097 33.121
80.8183 1079 32.8481
80.9357 1158 34.0294
81.053 1129 33.6006
81.1704 1121 33.4813
81.2877 1150 33.9116
81.4051 1126 33.5559
81.5225 1120 33.4664
81.6399 1027 32.0468
81.7573 1077 32.8177
81.8747 1060 32.5576
81.9922 1010 31.7805
82.1096 1058 32.5269
82.227 1085 32.9393
82.3444 1189 34.4819
82.4619 1303 36.0971
82.5793 1331 36.4829
82.6967 1377 37.108
82.8142 1429 37.8021
82.9316 1497 38.6911
83.049 1436 37.8946
83.1664 1423 37.7227
83.2838 1466 38.2884
83.4012 1369 37
83.5186 1286 35.8608
83.636 1221 34.9428
83.7534 1123 33.5112
83.8708 1066 32.6497
83.9881 1040 32.249
84.1055 1044 32.311
84.2228 1031 32.1092
84.3401 1046 32.3419
84.4575 1095 33.0908
84.5747 1119 33.4515
84.692 1200 34.641
84.8093 1142 33.7935
84.9265 1105 33.2415
85.0437 1166 34.1467
85.1609 1108 33.2866
85.2781 1045 32.3265
85.3952 975 31.225
85.5123 980 31.305
85.6294 933 30.545
85.7465 986 31.4006
85.8636 1053 32.45
85.9806 1123 33.5112
86.0976 1180 34.3511
86.2145 1312 36.2215
86.3315 1374 37.0675
86.4484 1376 37.0945
86.5652 1354 36.7967
86.682 1348 36.7151
86.7988 1380 37.1484
86.9156 1343 36.647
87.0323 1344 36.6606
87.149 1265 35.5668
87.2657 1279 35.7631
87.3823 1188 34.4674
87.4988 996 31.5595
87.6154 1010 31.7805
87.7318 1020 31.9374
87.8483 922 30.3645
87.9647 930 30.4959
88.081 929 30.4795
88.1973 867 29.4449
88.3136 866 29.4279
88.4298 821 28.6531
88.546 669 25.865
88.6621 651 25.5147
88.7781 548 23.4094
88.8942 0 1
89.0101 0 1
89.126 0 1
89.2419 0 1
89.3577 0 1
89.4734 0 1
89.5891 0 1
89.7047 0 1
89.8203 0 1
89.9358 0 1
92.3269 0 1
92.4424 0 1
92.558 0 1
92.6736 0 1
92.7893 0 1
92.905 0 1
93.0208 0 1
93.1366 0 1
93.2525 0 1
93.3685 0 1
93.4845 0 1
93.6005 774 27.8209
93.7167 839 28.9655
93.8328 883 29.7153
93.949 933 30.545
94.0653 988 31.4325
94.1816 1023 31.9844
94.2979 1042 32.28
94.4143 1057 32.5115
94.5307 981 31.3209
94.6472 979 31.289
94.7637 1001 31.6386
94.8803 993 31.5119
94.9969 1085 32.9393
95.1135 1160 34.0588
95.2302 1210 34.7851
95.3469 1355 36.8103
95.4637 1375 37.081
95.5805 1392 37.3095
95.6973 1368 36.9865
95.8142 1426 37.7624
95.9311 1354 36.7967
96.048 1347 36.7015
96.1649 1295 35.9861
96.2819 1337 36.565
96.3989 1263 35.5387
96.516 1212 34.8138
96.633 1097 33.121
96.7501 958 30.9516
96.8673 1029 32.078
96.9844 977 31.257
97.1016 963 31.0322
97.2188 940 30.6594
97.336 1047 32.3574
97.4532 1104 33.2265
97.5704 1084 32.9242
97.6877 1090 33.0151
97.805 1073 32.7567
97.9223 1034 32.1559
98.0396 1038 32.218
98.1569 931 30.5123
98.2743 849 29.1376
98.3916 869 29.4788
98.509 872 29.5296
98.6264 994 31.5278
98.7438 1062 32.5883
98.8612 1096 33.1059
98.9786 1286 35.8608
99.096 1304 36.1109
99.2134 1341 36.6197
99.3308 1329 36.4555
99.4482 1343 36.647
99.5656 1461 38.223
99.6831 1469 38.3275
99.8005 1432 37.8418
99.9179 1341 36.6197
100.035 1291 35.9305
100.153 1242 35.242
100.27 1160 34.0588
100.388 1036 32.187
100.505 1008 31.749
100.622 1013 31.8277
100.74 949 30.8058
100.857 1054 32.4654
100.975 1024 32
101.092 1050 32.4037
101.209 1097 33.121
101.327 1090 33.0151
101.444 1047 32.3574
101.561 1072 32.7414
101.679 1004 31.686
101.796 923 30.3809
101.913 978 31.273
102.03 932 30.5287
102.148 1025 32.0156
102.265 1107 33.2716
102.382 1200 34.641
102.499 1343 36.647
102.616 1293 35.9583
102.733 1481 38.4838
102.851 1419 37.6696
102.968 1502 38.7556
103.085 1589 39.8623
103.202 1604 40.05
103.319 1544 39.2938
103.436 1490 38.6005
103.552 1415 37.6165
103.669 1401 37.4299
103.786 1328 36.4417
103.903 1148 33.8821
104.02 1063 32.6037
104.137 1080 32.8634
104.253 1094 33.0757
104.37 1131 33.6303
104.487 1187 34.4529
104.603 1215 34.8569
104.72 1187 34.4529
104.836 1147 33.8674
104.953 1080 32.8634
105.069 1020 31.9374
105.186 909 30.1496
105.302 854 29.2233
105.418 829 28.7924
105.535 800 28.2843
105.651 779 27.9106
105.767 803 28.3373
105.883 840 28.9828
105.999 839 28.9655
106.115 0 1
106.231 0 1
106.347 0 1
106.463 0 1
106.579 0 1
106.694 0 1
106.81 0 1
106.926 0 1
107.041 0 1
107.157 0 1
109.576 0 1
109.692 0 1
109.807 0 1
109.923 0 1
110.039 0 1
110.155 0 1
110.27 0 1
110.386 0 1
110.502 0 1
110.618 510 22.5832
110.735 646 25.4165
110.851 739 27.1846
110.967 907 30.1164
111.083 991 31.4802
111.199 1048 32.3728
111.316 1146 33.8526
111.432 1260 35.4965
111.549 1281 35.7911
111.665 1265 35.5668
111.782 1336 36.5513
111.898 1310 36.1939
112.015 1231 35.0856
112.132 1166 34.1467
112.248 1072 32.7414
112.365 1069 32.6956
112.482 928 30.4631
112.599 964 31.0483
112.716 931 30.5123
112.832 963 31.0322
112.949 953 30.8707
113.066 962 31.0161
113.183 961 31
113.3 1000 31.6228
113.417 1038 32.218
113.534 952 30.8545
113.652 1027 32.0468
113.769 971 31.1609
113.886 908 30.133
114.003 821 28.6531
114.12 820 28.6356
114.238 836 28.9137
114.355 996 31.5595
114.472 1172 34.2345
114.589 1236 35.1568
114.707 1429 37.8021
114.824 1473 38.3797
114.942 1523 39.0256
115.059 1611 40.1373
115.176 1603 40.0375
115.294 1563 39.5348
115.411 1520 38.9872
115.529 1508 38.833
115.646 1384 37.2022
115.764 1259 35.4824
115.881 1183 34.3948
115.999 1138 33.7343
116.116 1053 32.45
116.234 1060 32.5576
116.351 1059 32.5423
116.469 986 31.4006
116.586 1131 33.6303
116.704 1120 33.4664
116.821 1144 33.8231
116.939 1103 33.2114
117.056 1109 33.3017
117.174 1120 33.4664
117.291 1173 34.2491
117.409 1050 32.4037
117.526 1116 33.4066
117.644 1098 33.1361
117.761 1040 32.249
117.879 1149 33.8969
117.996 1281 35.7911
118.114 1482 38.4968
118.231 1602 40.025
118.349 1653 40.6571
118.466 1689 41.0974
118.584 1609 40.1123
118.701 1717 41.4367
118.819 1763 41.9881
118.936 1689 41.0974
119.053 1662 40.7676
119.171 1491 38.6135
119.288 1381 37.1618
119.405 1283 35.819
119.523 1183 34.3948
119.64 1127 33.5708
119.757 1123 33.5112
119.875 1038 32.218
119.992 1147 33.8674
120.109 939 30.6431
120.226 1004 31.686
120.343 1111 33.3317
120.46 1070 32.7109
120.578 1081 32.8786
120.695 1063 32.6037
120.812 1091 33.0303
120.929 1111 33.3317
121.046 1089 33
121.163 1038 32.218
121.279 1029 32.078
121.396 1036 32.187
121.513 1093 33.0606
121.63 1149 33.8969
121.747 1219 34.9142
121.863 1269 35.623
121.98 1346 36.6879
122.097 1348 36.7151
122.213 1307 36.1525
122.33 1278 35.7491
122.446 1237 35.171
122.563 1177 34.3074
122.679 1122 33.4963
122.795 981 31.3209
122.912 917 30.282
123.028 825 28.7228
123.144 761 27.5862
123.26 718 26.7955
123.377 0 1
123.493 0 1
123.609 0 1
123.725 0 1
123.84 0 1
123.956 0 1
124.072 0 1
124.188 0 1
124.303 0 1
124.419 0 1
126.852 0 1
126.968 0 1
127.083 0 1
127.199 0 1
127.315 0 1
127.431 0 1
127.547 0 1
127.663 0 1
127.779 0 1
127.895 0 1
128.011 0 1
128.127 0 1
128.243 0 1
128.359 1258 35.4683
128.476 1319 36.318
128.592 1222 34.9571
128.708 1238 35.1852
128.825 1243 35.2562
128.941 1128 33.5857
129.058 1091 33.0303
129.174 1120 33.4664
129.291 1139 33.7491
129.408 1166 34.1467
129.524 1153 33.9559
129.641 1177 34.3074
129.758 1154 33.9706
129.875 1194 34.5543
129.992 1199 34.6266
130.108 1183 34.3948
130.225 1129 33.6006
130.342 1124 33.5261
130.459 1008 31.749
130.576 1006 31.7175
130.693 1170 34.2053
130.81 1270 35.6371
130.928 1320 36.3318
131.045 1250 35.3553
131.162 1224 34.9857
131.279 1235 35.1426
131.396 1188 34.4674
131.513 1216 34.8712
131.631 1185 34.4238
131.748 1129 33.6006
131.865 1157 34.0147
131.983 1040 32.249
132.1 1042 32.28
132.217 1054 32.4654
132.335 965 31.0644
132.452 957 30.9354
132.57 954 30.8869
132.687 1035 32.1714
132.804 918 30.2985
132.922 947 30.7734
133.039 1026 32.0312
133.157 971 31.1609
133.274 1026 32.0312
133.392 980 31.305
133.509 1086 32.9545
133.627 1060 32.5576
133.744 1029 32.078
133.862 924 30.3974
133.979 907 30.1164
134.097 922 30.3645
134.214 889 29.8161
134.332 935 30.5778
134.449 993 31.5119
134.567 950 30.8221
134.684 977 31.257
134.802 1025 32.0156
134.919 972 31.1769
135.037 1001 31.6386
135.154 981 31.3209
135.272 1022 31.9687
135.389 1004 31.686
135.507 962 31.0161
135.624 975 31.225
135.742 930 30.4959
135.859 988 31.4325
135.977 904 30.0666
136.094 904 30.0666
136.211 1007 31.7333
136.329 966 31.0805
136.446 1017 31.8904
136.564 949 30.8058
136.681 1026 32.0312
136.798 1035 32.1714
136.915 1066 32.6497
137.033 1091 33.0303
137.15 1047 32.3574
137.267 1034 32.1559
137.384 936 30.5941
137.502 939 30.6431
137.619 829 28.7924
137.736 840 28.9828
137.853 799 28.2666
137.97 898 29.9666
138.087 896 29.9333
138.204 860 29.3258
138.321 850 29.1548
138.438 907 30.1164
138.555 900 30
138.672 875 29.5804
138.788 882 29.6985
138.905 935 30.5778
139.022 787 28.0535
139.139 817 28.5832
139.255 786 28.0357
139.372 757 27.5136
139.488 665 25.7876
139.605 740 27.2029
139.721 706 26.5707
139.838 730 27.0185
139.954 692 26.3059
140.071 722 26.8701
140.187 639 25.2784
140.303 655 25.593
140.419 634 25.1794
140.535 671 25.9037
140.652 628 25.0599
140.768 0 1
140.884 0 1
141 0 1
141.115 0 1
141.231 0 1
141.347 0 1
141.463 0 1
141.578 0 1
141.694 0 1
144.104 0 1
144.219 0 1
144.335 0 1
144.45 0 1
144.566 0 1
144.682 0 1
144.798 0 1
144.914 0 1
145.03 0 1
145.146 662 25.7294
145.262 731 27.037
145.378 775 27.8388
145.494 728 26.9815
145.61 752 27.4226
145.726 788 28.0713
145.842 783 27.9821
145.959 752 27.4226
146.075 743 27.258
146.192 690 26.2679
146.308 622 24.9399
146.425 598 24.454
146.541 615 24.7992
146.658 614 24.779
146.774 576 24
146.891 599 24.4745
147.008 699 26.4386
147.125 692 26.3059
147.241 703 26.5141
147.358 674 25.9615
147.475 672 25.923
147.592 695 26.3629
147.709 743 27.258
147.826 703 26.5141
147.943 700 26.4575
148.06 739 27.1846
148.177 689 26.2488
148.294 729 27
148.411 734 27.0924
148.528 714 26.7208
148.645 774 27.8209
148.762 772 27.7849
148.88 762 27.6043
148.997 749 27.3679
149.114 721 26.8514
149.231 743 27.258
149.349 749 27.3679
149.466 747 27.3313
149.583 760 27.5681
149.701 795 28.1957
149.818 694 26.3439
149.935 647 25.4362
150.053 611 24.7184
150.17 569 23.8537
150.287 583 24.1454
150.405 642 25.3377
150.522 651 25.5147
150.64 622 24.9399
150.757 724 26.9072
150.875 746 27.313
150.992 701 26.4764
151.11 696 26.3818
151.227 738 27.1662
151.344 757 27.5136
151.462 760 27.5681
151.579 752 27.4226
151.697 728 26.9815
151.814 734 27.0924
151.932 781 27.9464
152.049 722 26.8701
152.167 724 26.9072
152.284 786 28.0357
152.402 768 27.7128
152.519 739 27.1846
152.636 856 29.2575
152.754 793 28.1603
152.871 775 27.8388
152.989 824 28.7054
153.106 797 28.2312
153.223 823 28.688
153.341 773 27.8029
153.458 749 27.3679
153.575 707 26.5895
153.693 685 26.1725
153.81 720 26.8328
153.927 768 27.7128
154.044 797 28.2312
154.162 858 29.2916
154.279 927 30.4467
154.396 991 31.4802
154.513 979 31.289
154.63 1048 32.3728
154.747 1034 32.1559
154.864 1094 33.0757
154.981 1048 32.3728
155.098 1036 32.187
155.215 1042 32.28
155.332 1020 31.9374
155.449 980 31.305
155.566 928 30.4631
155.683 962 31.0161
155.8 981 31.3209
155.917 924 30.3974
156.033 894 29.8998
156.15 0 1
156.267 0 1
156.383 0 1
156.5 0 1
156.617 0 1
156.733 0 1
156.85 0 1
156.966 0 1
157.082 0 1
157.199 0 1
157.315 0 1
157.431 0 1
157.547 0 1
157.664 0 1
157.78 0 1
157.896 0 1
158.012 0 1
158.128 0 1
158.244 0 1
158.359 0 1
158.475 0 1
158.591 0 1
158.706 0 1
