
6.15755 0 1
6.2731 0 1
6.3887 0 1
6.50437 0 1
6.62009 0 1
6.73587 0 1
6.8517 0 1
6.96759 0 1
7.08353 0 1
7.19952 0 1
7.31557 0 1
7.43166 0 1
7.54781 0 1
7.664 0 1
7.78024 0 1
7.89653 0 1
8.01286 0 1
8.12924 0 1
8.24567 0 1
8.36213 0 1
8.47864 0 1
8.59519 0 1
8.71178 0 1
8.82841 0 1
8.94508 0 1
9.06179 0 1
9.17853 0 1
9.29531 0 1
9.41212 0 1
9.52897 0 1
9.64584 0 1
9.76276 0 1
9.8797 0 1
9.99667 0 1
10.1137 0 1
10.2307 0 1
10.3478 0 1
10.4648 0 1
10.5819 0 1
10.6991 0 1
10.8162 0 1
10.9334 0 1
11.0506 0 1
11.1678 0 1
11.285 0 1
11.4023 0 1
11.5196 0 1
11.6369 0 1
11.7542 0 1
11.8715 0 1
11.9888 0 1
12.1062 0 1
12.2235 0 1
12.3409 0 1
12.4582 0 1
12.5756 0 1
12.693 0 1
12.8104 0 1
12.9278 0 1
13.0452 0 1
13.1626 0 1
13.28 0 1
13.3974 0 1
13.5149 0 1
13.6323 0 1
13.7497 0 1
13.8671 0 1
13.9845 0 1
14.1019 0 1
14.2193 0 1
14.3367 0 1
14.4541 0 1
14.5714 0 1
14.6888 0 1
14.8062 0 1
14.9235 0 1
15.0408 9709 98.5343
15.1581 9859 99.2925
15.2755 9798 98.9848
15.3927 9751 98.7472
15.51 9769 98.8383
15.6273 9534 97.6422
15.7445 9376 96.8297
15.8617 9230 96.0729
15.9789 9704 98.5089
16.0961 9882 99.4082
16.2132 10412 102.039
16.3304 10904 104.422
16.4475 11200 105.83
16.5646 11407 106.804
16.6816 11148 105.584
16.7986 11120 105.451
16.9156 11091 105.314
17.0326 11064 105.186
17.1496 10757 103.716
17.2665 10837 104.101
17.3833 10857 104.197
17.5002 10943 104.609
17.617 11093 105.323
17.7338 11366 106.611
17.8505 11623 107.81
17.9672 11701 108.171
18.0839 12008 109.581
18.2005 12120 110.091
18.3171 12587 112.192
18.4337 12694 112.668
18.5502 13072 114.333
18.6666 13118 114.534
18.7831 13077 114.355
18.8994 12825 113.248
19.0158 12640 112.428
19.1321 12515 111.87
19.2483 11856 108.885
19.3645 11495 107.215
19.4806 11729 108.301
19.5967 11927 109.211
19.7128 12383 111.279
19.8288 12749 112.911
19.9447 11904 109.105
20.0606 0 1
20.1764 0 1
20.2922 0 1
20.4079 0 1
20.5236 0 1
20.6392 0 1
20.7548 0 1
20.8702 0 1
23.3078 0 1
23.4233 0 1
23.539 0 1
23.6547 0 1
23.7704 0 1
23.8862 0 1
24.0021 0 1
24.118 0 1
24.234 0 1
24.35 0 1
24.4661 12273 110.784
24.5822 12049 109.768
24.6984 12154 110.245
24.8146 12470 111.669
24.9309 13006 114.044
25.0472 13424 115.862
25.1636 13959 118.148
25.28 14102 118.752
25.3965 14025 118.427
25.513 13766 117.329
25.6296 13724 117.149
25.7462 13803 117.486
25.8628 13468 116.052
25.9795 13299 115.321
26.0962 13184 114.822
26.213 13561 116.452
26.3298 14063 118.588
26.4466 14153 118.966
26.5635 14418 120.075
26.6804 14930 122.188
26.7973 15265 123.552
26.9143 15157 123.114
27.0313 15333 123.826
27.1483 15619 124.976
27.2653 16021 126.574
27.3824 15712 125.348
27.4996 15427 124.205
27.6167 15307 123.721
27.7339 14625 120.934
27.8511 14470 120.291
27.9683 14139 118.908
28.0855 13524 116.293
28.2028 13359 115.581
28.3201 13095 114.433
28.4374 13734 117.192
28.5547 14217 119.235
28.6721 14584 120.764
28.7894 15076 122.784
28.9068 14932 122.197
29.0242 14492 120.383
29.1416 14021 118.41
29.259 13716 117.115
29.3764 13326 115.438
29.4939 13309 115.365
29.6113 13117 114.529
29.7288 13488 116.138
29.8463 13669 116.914
29.9638 14041 118.495
30.0812 14246 119.357
30.1987 14887 122.012
30.3162 14919 122.143
30.4337 15584 124.836
30.5512 15744 125.475
30.6687 16031 126.614
30.7862 16416 128.125
30.9037 16248 127.468
31.0212 16133 127.016
31.1387 15875 125.996
31.2562 15374 123.992
31.3737 15117 122.951
31.4912 14782 121.581
31.6087 14203 119.176
31.7262 13861 117.733
31.8436 13859 117.724
31.9611 14052 118.541
32.0785 14539 120.578
32.1959 15130 123.004
32.3134 15391 124.06
32.4308 15372 123.984
32.5482 15318 123.766
32.6655 14952 122.278
32.7829 14499 120.412
32.9002 13967 118.182
33.0176 14059 118.571
33.1349 13711 117.094
33.2522 13991 118.284
33.3694 13821 117.563
33.4867 13990 118.279
33.6039 14765 121.511
33.7211 15214 123.345
33.8383 15512 124.547
33.9554 15969 126.369
34.0725 16092 126.854
34.1896 16327 127.777
34.3067 16429 128.176
34.4237 16665 129.093
34.5407 16567 128.713
34.6577 16585 128.783
34.7746 16558 128.678
34.8915 15743 125.471
35.0084 15652 125.108
35.1252 15160 123.126
35.242 15036 122.621
35.3587 14654 121.054
35.4755 14115 118.807
35.5921 14418 120.075
35.7088 14963 122.323
35.8254 15408 124.129
35.9419 15724 125.395
36.0584 16070 126.768
36.1749 16065 126.748
36.2913 15917 126.163
36.4077 15176 123.191
36.524 14804 121.672
36.6403 14101 118.748
36.7565 14039 118.486
36.8727 13935 118.047
36.9889 13872 117.779
37.1049 13929 118.021
37.221 0 1
37.3369 0 1
37.4529 0 1
37.5687 0 1
37.6845 0 1
37.8003 0 1
37.916 0 1
38.0316 0 1
38.1472 0 1
40.5851 0 1
40.7008 0 1
40.8164 0 1
40.9322 0 1
41.048 0 1
41.1639 0 1
41.2798 0 1
41.3958 0 1
41.5118 0 1
41.6279 0 1
41.744 11726 108.287
41.8602 11955 109.339
41.9765 12182 110.372
42.0928 11924 109.197
42.2091 12465 111.647
42.3255 12834 113.287
42.4419 13289 115.278
42.5584 13789 117.427
42.675 14513 120.47
42.7915 14501 120.42
42.9081 14996 122.458
43.0248 15217 123.357
43.1415 15230 123.41
43.2582 15404 124.113
43.375 15340 123.855
43.4918 15333 123.826
43.6087 14952 122.278
43.7256 14777 121.561
43.8425 14314 119.641
43.9595 14058 118.566
44.0765 13513 116.245
44.1935 13180 114.804
44.3106 12339 111.081
44.4277 12673 112.574
44.5448 12928 113.701
44.6619 13150 114.673
44.7791 13415 115.823
44.8963 13535 116.34
45.0136 13002 114.026
45.1308 12499 111.799
45.2481 11642 107.898
45.3654 11172 105.698
45.4827 10874 104.278
45.6001 10639 103.146
45.7174 10682 103.354
45.8348 10829 104.062
45.9522 11267 106.146
46.0697 11821 108.724
46.1871 11920 109.179
46.3046 12570 112.116
46.422 12659 112.512
46.5395 12986 113.956
46.657 12919 113.662
46.7745 13248 115.1
46.892 13137 114.617
47.0096 13204 114.909
47.1271 13018 114.096
47.2446 12530 111.937
47.3622 12285 110.838
47.4797 12078 109.9
47.5973 11808 108.665
47.7149 11135 105.523
47.8324 10975 104.762
47.95 10846 104.144
48.0675 10613 103.019
48.1851 11023 104.99
48.3027 11158 105.631
48.4202 11301 106.306
48.5378 11043 105.086
48.6554 10389 101.926
48.7729 9938 99.6895
48.8904 9543 97.6883
49.008 9032 95.0368
49.1255 8897 94.3239
49.243 8919 94.4405
49.3605 9099 95.3887
49.478 9671 98.3412
49.5955 10022 100.11
49.713 10486 102.401
49.8304 10858 104.202
49.9479 11363 106.597
50.0653 11733 108.319
50.1827 11994 109.517
50.3001 12214 110.517
50.4175 12348 111.122
50.5348 12510 111.848
50.6521 12549 112.022
50.7694 12678 112.597
50.8867 12433 111.503
51.004 12393 111.324
51.1212 12065 109.841
51.2384 12103 110.014
51.3556 11969 109.403
51.4727 11900 109.087
51.5899 12492 111.768
51.707 13153 114.687
51.824 13473 116.073
51.9411 14161 119
52.0581 13919 117.979
52.175 13827 117.588
52.2919 13563 116.46
52.4088 12557 112.058
52.5257 12246 110.662
52.6425 11977 109.439
52.7593 12061 109.823
52.876 12187 110.395
52.9927 13043 114.206
53.1094 14009 118.36
53.226 15134 123.02
53.3426 15842 125.865
53.4591 16677 129.139
53.5756 17320 131.605
53.692 17787 133.368
53.8084 18312 135.322
53.9248 18540 136.162
54.0411 18721 136.825
54.1573 19173 138.467
54.2735 0 1
54.3896 0 1
54.5057 0 1
54.6217 0 1
54.7377 0 1
54.8537 0 1
54.9695 0 1
55.0853 0 1
55.2011 0 1
55.3168 0 1
55.4324 0 1
57.824 0 1
57.9396 0 1
58.0553 0 1
58.1711 0 1
58.2869 0 1
58.4028 0 1
58.5187 0 1
58.6347 0 1
58.7508 0 1
58.8669 0 1
58.983 20963 144.786
59.0992 22474 149.913
59.2155 22764 150.877
59.3318 22703 150.675
59.4482 22461 149.87
59.5646 22075 148.577
59.681 22450 149.833
59.7975 21637 147.095
59.9141 21342 146.089
60.0306 21140 145.396
60.1473 20658 143.729
60.2639 20933 144.682
60.3807 20769 144.115
60.4974 20944 144.72
60.6142 20699 143.871
60.731 20237 142.257
60.8479 19366 139.162
60.9648 18497 136.004
61.0818 17453 132.11
61.1987 16677 129.139
61.3158 16424 128.156
61.4328 16662 129.081
61.5499 17092 130.736
61.667 17736 133.177
61.7841 18859 137.328
61.9013 19536 139.771
62.0185 20398 142.822
62.1357 21000 144.914
62.253 21620 147.037
62.3702 21895 147.97
62.4875 22231 149.101
62.6049 22200 148.997
62.7222 22237 149.121
62.8396 22360 149.533
62.9569 21802 147.655
63.0743 21643 147.116
63.1918 21075 145.172
63.3092 20689 143.837
63.4267 20581 143.461
63.5441 20150 141.951
63.6616 19912 141.11
63.7791 20280 142.408
63.8966 20400 142.829
64.0142 20360 142.688
64.1317 20106 141.796
64.2492 19612 140.043
64.3668 18878 137.397
64.4843 17646 132.838
64.6019 16535 128.588
64.7195 15884 126.032
64.837 15679 125.216
64.9546 15482 124.427
65.0722 16131 127.008
65.1898 16533 128.581
65.3074 17713 133.09
65.4249 18177 134.822
65.5425 19299 138.921
65.6601 20579 143.454
65.7777 20935 144.689
65.8952 21711 147.347
66.0128 22117 148.718
66.1304 22159 148.859
66.2479 22517 150.057
66.3655 22535 150.117
66.483 22469 149.897
66.6005 22368 149.559
66.718 22224 149.077
66.8355 21590 146.935
66.953 21425 146.373
67.0705 21189 145.564
67.1879 21051 145.09
67.3054 21177 145.523
67.4228 21156 145.451
67.5402 21633 147.082
67.6576 21668 147.201
67.7749 21269 145.839
67.8923 21130 145.362
68.0096 20068 141.662
68.1269 19231 138.676
68.2442 17874 133.694
68.3614 17082 130.698
68.4787 16862 129.854
68.5958 16434 128.195
68.713 17120 130.843
68.8302 18174 134.811
68.9473 19558 139.85
69.0643 20771 144.121
69.1814 22294 149.312
69.2984 23480 153.232
69.4154 24270 155.788
69.5323 24818 157.537
69.6492 25672 160.225
69.7661 26311 162.207
69.8829 26564 162.985
69.9997 26712 163.438
70.1165 26909 164.04
70.2332 27031 164.411
70.3499 26606 163.113
70.4665 26176 161.79
70.5831 26125 161.632
70.6996 25716 160.362
70.8161 25372 159.286
70.9326 25081 158.37
71.049 25235 158.855
71.1653 25882 160.879
71.2817 25476 159.612
71.3979 25621 160.066
71.5141 24669 157.064
71.6303 23072 151.895
71.7464 19441 139.431
71.8624 0 1
71.9784 0 1
72.0944 0 1
72.2102 0 1
72.3261 0 1
72.4418 0 1
72.5575 0 1
72.6732 0 1
75.1054 0 1
75.2209 0 1
75.3365 0 1
75.4521 0 1
75.5678 0 1
75.6835 0 1
75.7993 0 1
75.9151 0 1
76.031 0 1
76.147 25042 158.247
76.263 26856 163.878
76.3791 27611 166.166
76.4952 28700 169.411
76.6113 29644 172.174
76.7276 29868 172.824
76.8438 29136 170.693
76.9601 27461 165.714
77.0765 25406 159.393
77.1929 23680 153.883
77.3093 21494 146.608
77.4258 20297 142.468
77.5423 20016 141.478
77.6589 20170 142.021
77.7755 21668 147.201
77.8921 23536 153.414
78.0088 25524 159.762
78.1256 28063 167.52
78.2423 29560 171.93
78.3591 31245 176.763
78.4759 31988 178.852
78.5928 32420 180.056
78.7097 32625 180.624
78.8266 31843 178.446
78.9436 34409 185.497
79.0606 32791 181.083
79.1776 32343 179.842
79.2946 32446 180.128
79.4117 31670 177.961
79.5288 31322 176.98
79.6459 30819 175.553
79.7631 30119 173.548
79.8802 29982 173.153
79.9974 29722 172.401
80.1147 30088 173.459
80.2319 31034 176.165
80.3491 31129 176.434
80.4664 30791 175.474
80.5837 29828 172.708
80.701 27952 167.189
80.8183 24932 157.899
80.9357 23027 151.746
81.053 20954 144.755
81.1704 20373 142.734
81.2877 20014 141.471
81.4051 20897 144.558
81.5225 22174 148.909
81.6399 25039 158.237
81.7573 27446 165.668
81.8747 28672 169.328
81.9922 30475 174.571
82.1096 31622 177.826
82.227 32053 179.034
82.3444 32251 179.586
82.4619 32353 179.869
82.5793 32778 181.047
82.6967 31831 178.412
82.8142 31957 178.765
82.9316 31514 177.522
83.049 30789 175.468
83.1664 30415 174.399
83.2838 30117 173.543
83.4012 29285 171.129
83.5186 28945 170.132
83.636 28622 169.18
83.7534 28966 170.194
83.8708 29614 172.087
83.9881 30168 173.689
84.1055 29859 172.798
84.2228 28492 168.796
84.3401 26934 164.116
84.4575 24697 157.153
84.5747 22606 150.353
84.692 20762 144.09
84.8093 19871 140.965
84.9265 19780 140.641
85.0437 20861 144.433
85.1609 23046 151.809
85.2781 25828 160.711
85.3952 28597 169.106
85.5123 30502 174.648
85.6294 32662 180.726
85.7465 34327 185.275
85.8636 35191 187.593
85.9806 36164 190.168
86.0976 36220 190.316
86.2145 37033 192.44
86.3315 38403 195.967
86.4484 36010 189.763
86.5652 37585 193.869
86.682 37895 194.666
86.7988 37760 194.319
86.9156 37311 193.161
87.0323 36939 192.195
87.149 36872 192.021
87.2657 37311 193.161
87.3823 38161 195.348
87.4988 38540 196.316
87.6154 39837 199.592
87.7318 39489 198.718
87.8483 37252 193.008
87.9647 34809 186.572
88.081 31659 177.93
88.1973 28878 169.935
88.3136 27083 164.569
88.4298 26253 162.028
88.546 27177 164.854
88.6621 29122 170.652
88.7781 31627 177.84
88.8942 0 1
89.0101 0 1
89.126 0 1
89.2419 0 1
89.3577 0 1
89.4734 0 1
89.5891 0 1
89.7047 0 1
89.8203 0 1
89.9358 0 1
92.3269 0 1
92.4424 0 1
92.558 0 1
92.6736 0 1
92.7893 0 1
92.905 0 1
93.0208 0 1
93.1366 0 1
93.2525 0 1
93.3685 0 1
93.4845 0 1
93.6005 30028 173.286
93.7167 29619 172.102
93.8328 29185 170.836
93.949 30526 174.717
94.0653 32314 179.761
94.1816 35493 188.396
94.2979 38945 197.345
94.4143 41685 204.169
94.5307 44071 209.931
94.6472 46731 216.174
94.7637 47767 218.557
94.8803 48623 220.506
94.9969 49303 222.043
95.1135 49063 221.502
95.2302 49723 222.987
95.3469 49598 222.706
95.4637 49669 222.865
95.5805 48793 220.891
95.6973 48910 221.156
95.8142 49268 221.964
95.9311 48819 220.95
96.048 47412 217.743
96.1649 47542 218.041
96.2819 46645 215.975
96.3989 46510 215.662
96.516 47920 218.906
96.633 48132 219.39
96.7501 48079 219.269
96.8673 46480 215.592
96.9844 43793 209.268
97.1016 40912 202.267
97.2188 37631 193.987
97.336 34531 185.825
97.4532 31831 178.412
97.5704 30632 175.02
97.6877 31267 176.825
97.805 33147 182.063
97.9223 36483 191.005
98.0396 40090 200.225
98.1569 42771 206.812
98.2743 45251 212.723
98.3916 48132 219.39
98.509 49731 223.004
98.6264 50923 225.661
98.7438 50761 225.302
98.8612 51462 226.852
98.9786 52149 228.362
99.096 51397 226.709
99.2134 50492 224.704
99.3308 50943 225.706
99.4482 51284 226.46
99.5656 50861 225.524
99.6831 50261 224.19
99.8005 48711 220.706
99.9179 49039 221.448
100.035 48603 220.461
100.153 50039 223.694
100.27 50679 225.12
100.388 50599 224.942
100.505 48675 220.624
100.622 45791 213.988
100.74 42336 205.757
100.857 38343 195.814
100.975 35475 188.348
101.092 32772 181.03
101.209 32208 179.466
101.327 33194 182.192
101.444 35445 188.268
101.561 39369 198.416
101.679 43456 208.461
101.796 46425 215.465
101.913 49316 222.072
102.03 51553 227.053
102.148 52275 228.637
102.265 51566 227.081
102.382 54832 234.162
102.499 53463 231.221
102.616 53453 231.199
102.733 52935 230.076
102.851 52791 229.763
102.968 53682 231.694
103.085 53627 231.575
103.202 52829 229.846
103.319 51946 227.917
103.436 50701 225.169
103.552 50928 225.672
103.669 52226 228.53
103.786 53130 230.499
103.903 53844 232.043
104.02 51911 227.84
104.137 48824 220.962
104.253 45972 214.411
104.37 42214 205.46
104.487 38135 195.282
104.603 35677 188.884
104.72 34972 187.008
104.836 35157 187.502
104.953 37881 194.63
105.069 41885 204.658
105.186 45971 214.408
105.302 49827 223.22
105.418 52848 229.887
105.535 55119 234.774
105.651 56343 237.367
105.767 56956 238.655
105.883 57468 239.725
105.999 56975 238.694
106.115 0 1
106.231 0 1
106.347 0 1
106.463 0 1
106.579 0 1
106.694 0 1
106.81 0 1
106.926 0 1
107.041 0 1
107.157 0 1
109.576 0 1
109.692 0 1
109.807 0 1
109.923 0 1
110.039 0 1
110.155 0 1
110.27 0 1
110.386 0 1
110.502 0 1
110.618 50225 224.109
110.735 51222 226.323
110.851 52383 228.873
110.967 53194 230.638
111.083 53053 230.332
111.199 52371 228.847
111.316 52468 229.059
111.432 53141 230.523
111.549 52359 228.821
111.665 51575 227.101
111.782 50552 224.838
111.898 49405 222.272
112.015 49864 223.302
112.132 50673 225.107
112.248 51220 226.318
112.365 51286 226.464
112.482 48141 219.411
112.599 48020 219.135
112.716 43833 209.363
112.832 40607 201.512
112.949 37001 192.356
113.066 34521 185.798
113.183 33157 182.091
113.3 33174 182.137
113.417 33989 184.361
113.534 37109 192.637
113.652 40173 200.432
113.769 43096 207.596
113.886 45715 213.811
114.003 47560 218.083
114.12 48499 220.225
114.238 49341 222.128
114.355 49766 223.083
114.472 48816 220.943
114.589 49960 223.517
114.707 48128 219.381
114.824 47857 218.762
114.942 48541 220.32
115.059 49203 221.817
115.176 48472 220.164
115.294 48596 220.445
115.411 47073 216.963
115.529 46969 216.723
115.646 47220 217.302
115.764 48194 219.531
115.881 48815 220.941
115.999 48147 219.424
116.116 46248 215.053
116.234 44379 210.663
116.351 41297 203.217
116.469 38918 197.276
116.586 36210 190.289
116.704 33618 183.352
116.821 32841 181.221
116.939 33173 182.135
117.056 34159 184.822
117.174 36557 191.199
117.291 39339 198.341
117.409 42217 205.468
117.526 44623 211.242
117.644 46222 214.993
117.761 46978 216.744
117.879 48244 219.645
117.996 47514 217.977
118.114 47943 218.959
118.231 48071 219.251
118.349 47206 217.269
118.466 46893 216.548
118.584 47585 218.14
118.701 48132 219.39
118.819 47661 218.314
118.936 46438 215.495
119.053 45006 212.146
119.171 44524 211.007
119.288 45201 212.605
119.405 46374 215.346
119.523 46637 215.956
119.64 45979 214.427
119.757 45117 212.408
119.875 43294 208.072
119.992 40711 201.77
120.109 38347 195.824
120.226 35827 189.28
120.343 33398 182.751
120.46 32500 180.278
120.578 32347 179.853
120.695 32418 180.05
120.812 34050 184.526
120.929 36613 191.345
121.046 38605 196.482
121.163 41337 203.315
121.279 43190 207.822
121.396 44438 210.803
121.513 45258 212.739
121.63 46191 214.921
121.747 45419 213.117
121.863 46118 214.751
121.98 45223 212.657
122.097 44831 211.733
122.213 44450 210.832
122.33 44445 210.82
122.446 44744 211.528
122.563 44203 210.245
122.679 43457 208.463
122.795 43044 207.47
122.912 42419 205.959
123.028 42735 206.724
123.144 42744 206.746
123.26 42711 206.666
123.377 0 1
123.493 0 1
123.609 0 1
123.725 0 1
123.84 0 1
123.956 0 1
124.072 0 1
124.188 0 1
124.303 0 1
124.419 0 1
126.852 0 1
126.968 0 1
127.083 0 1
127.199 0 1
127.315 0 1
127.431 0 1
127.547 0 1
127.663 0 1
127.779 0 1
127.895 0 1
128.011 0 1
128.127 0 1
128.243 0 1
128.359 45704 213.785
128.476 46465 215.557
128.592 45588 213.513
128.708 44380 210.666
128.825 42900 207.123
128.941 40784 201.95
129.058 38278 195.648
129.174 36679 191.518
129.291 35282 187.835
129.408 34811 186.577
129.524 34787 186.513
129.641 35956 189.621
129.758 37580 193.856
129.875 39750 199.374
129.992 41932 204.773
130.108 43784 209.246
130.225 44252 210.362
130.342 45828 214.075
130.459 44513 210.981
130.576 46875 216.506
130.693 45349 212.953
130.81 44524 211.007
130.928 43813 209.316
131.045 44632 211.263
131.162 45502 213.312
131.279 45703 213.783
131.396 45715 213.811
131.513 44620 211.234
131.631 44539 211.043
131.748 45006 212.146
131.865 45519 213.352
131.983 45290 212.814
132.1 44876 211.84
132.217 44017 209.802
132.335 42692 206.62
132.452 41215 203.015
132.57 38678 196.667
132.687 36236 190.358
132.804 35571 188.603
132.922 34457 185.626
133.039 34310 185.23
133.157 35033 187.171
133.274 36198 190.258
133.392 37880 194.628
133.509 39717 199.291
133.627 41271 203.153
133.744 42181 205.38
133.862 42621 206.449
133.979 43365 208.243
134.097 43362 208.235
134.214 42818 206.925
134.332 43178 207.793
134.449 41971 204.868
134.567 42235 205.512
134.684 43173 207.781
134.802 43817 209.325
134.919 43700 209.045
135.037 43350 208.207
135.154 42379 205.862
135.272 42933 207.203
135.389 42789 206.855
135.507 43337 208.175
135.624 43668 208.969
135.742 43180 207.798
135.859 41971 204.868
135.977 40342 200.853
136.094 39385 198.457
136.211 37127 192.684
136.329 35880 189.42
136.446 34217 184.978
136.564 33624 183.368
136.681 33451 182.896
136.798 34292 185.181
136.915 35175 187.55
137.033 36430 190.866
137.15 37903 194.687
137.267 39350 198.368
137.384 40570 201.42
137.502 40618 201.539
137.619 41232 203.057
137.736 41318 203.268
137.853 40589 201.467
137.97 40423 201.055
138.087 39217 198.033
138.204 39494 198.731
138.321 40123 200.307
138.438 40985 202.448
138.555 42187 205.395
138.672 41963 204.849
138.788 41172 202.909
138.905 41024 202.544
139.022 41703 204.213
139.139 41991 204.917
139.255 42249 205.546
139.372 41580 203.912
139.488 41049 202.606
139.605 40114 200.285
139.721 38963 197.39
139.838 37486 193.613
139.954 35739 189.048
140.071 34143 184.778
140.187 33679 183.518
140.303 33522 183.09
140.419 33147 182.063
140.535 33551 183.169
140.652 33765 183.753
140.768 0 1
140.884 0 1
141 0 1
141.115 0 1
141.231 0 1
141.347 0 1
141.463 0 1
141.578 0 1
141.694 0 1
144.104 0 1
144.219 0 1
144.335 0 1
144.45 0 1
144.566 0 1
144.682 0 1
144.798 0 1
144.914 0 1
145.03 0 1
145.146 23352 152.814
145.262 25264 158.947
145.378 26028 161.332
145.494 26674 163.322
145.61 27309 165.254
145.726 27509 165.858
145.842 28638 169.228
145.959 29221 170.942
146.075 30016 173.251
146.192 30729 175.297
146.308 30621 174.989
146.425 30960 175.955
146.541 30668 175.123
146.658 30302 174.075
146.774 29697 172.328
146.891 29483 171.706
147.008 30178 173.718
147.125 30564 174.826
147.241 31122 176.414
147.358 31445 177.327
147.475 31350 177.059
147.592 31568 177.674
147.709 31312 176.952
147.826 31534 177.578
147.943 31789 178.295
148.06 32023 178.95
148.177 31740 178.157
148.294 31212 176.669
148.411 30674 175.14
148.528 30312 174.103
148.645 29184 170.833
148.762 28403 168.532
148.88 27717 166.484
148.997 27197 164.915
149.114 27734 166.535
149.231 27548 165.976
149.349 27253 165.085
149.466 28346 168.363
149.583 28923 170.068
149.701 29597 172.038
149.818 30308 174.092
149.935 30705 175.228
150.053 30825 175.57
150.17 31078 176.29
150.287 30957 175.946
150.405 30417 174.405
150.522 30076 173.424
150.64 29734 172.435
150.757 30041 173.323
150.875 30874 175.71
150.992 31235 176.734
151.11 31833 178.418
151.227 31988 178.852
151.344 31946 178.734
151.462 31788 178.292
151.579 32245 179.569
151.697 32026 178.958
151.814 31991 178.86
151.932 31606 177.781
152.049 30856 175.659
152.167 30649 175.069
152.284 30013 173.243
152.402 29169 170.789
152.519 28674 169.334
152.636 28478 168.754
152.754 27971 167.245
152.871 28262 168.113
152.989 28203 167.937
153.106 28766 169.605
153.223 29634 172.145
153.341 29924 172.986
153.458 30785 175.457
153.575 31266 176.822
153.693 31330 177.003
153.81 31051 176.213
153.927 30989 176.037
154.044 30566 174.831
154.162 30364 174.253
154.279 30078 173.43
154.396 30801 175.502
154.513 31484 177.437
154.63 32484 180.233
154.747 33220 182.264
154.864 33155 182.085
154.981 33329 182.562
155.098 33325 182.551
155.215 33135 182.03
155.332 33062 181.83
155.449 32678 180.771
155.566 32802 181.113
155.683 31735 178.143
155.8 31331 177.006
155.917 30951 175.929
156.033 30437 174.462
156.15 0 1
156.267 0 1
156.383 0 1
156.5 0 1
156.617 0 1
156.733 0 1
156.85 0 1
156.966 0 1
157.082 0 1
157.199 0 1
157.315 0 1
157.431 0 1
157.547 0 1
157.664 0 1
157.78 0 1
157.896 0 1
158.012 0 1
158.128 0 1
158.244 0 1
158.359 0 1
158.475 0 1
158.591 0 1
158.706 0 1
