
6.15755 0 1
6.2731 0 1
6.3887 0 1
6.50437 0 1
6.62009 0 1
6.73587 0 1
6.8517 0 1
6.96759 0 1
7.08353 0 1
7.19952 0 1
7.31557 0 1
7.43166 0 1
7.54781 0 1
7.664 0 1
7.78024 0 1
7.89653 0 1
8.01286 0 1
8.12924 0 1
8.24567 0 1
8.36213 0 1
8.47864 0 1
8.59519 0 1
8.71178 0 1
8.82841 0 1
8.94508 0 1
9.06179 0 1
9.17853 0 1
9.29531 0 1
9.41212 0 1
9.52897 0 1
9.64584 0 1
9.76276 0 1
9.8797 0 1
9.99667 0 1
10.1137 0 1
10.2307 0 1
10.3478 0 1
10.4648 0 1
10.5819 0 1
10.6991 0 1
10.8162 0 1
10.9334 0 1
11.0506 0 1
11.1678 0 1
11.285 0 1
11.4023 0 1
11.5196 0 1
11.6369 0 1
11.7542 0 1
11.8715 0 1
11.9888 0 1
12.1062 0 1
12.2235 0 1
12.3409 0 1
12.4582 0 1
12.5756 0 1
12.693 0 1
12.8104 0 1
12.9278 0 1
13.0452 0 1
13.1626 0 1
13.28 0 1
13.3974 0 1
13.5149 0 1
13.6323 0 1
13.7497 0 1
13.8671 0 1
13.9845 0 1
14.1019 0 1
14.2193 0 1
14.3367 0 1
14.4541 0 1
14.5714 0 1
14.6888 0 1
14.8062 0 1
14.9235 0 1
15.0408 1564 39.5474
15.1581 1512 38.8844
15.2755 1613 40.1622
15.3927 1658 40.7185
15.51 1622 40.2741
15.6273 1619 40.2368
15.7445 1659 40.7308
15.8617 1511 38.8716
15.9789 1686 41.0609
16.0961 1632 40.398
16.2132 1644 40.5463
16.3304 1594 39.9249
16.4475 1725 41.5331
16.5646 1687 41.0731
16.6816 1594 39.9249
16.7986 1601 40.0125
16.9156 1585 39.8121
17.0326 1625 40.3113
17.1496 1558 39.4715
17.2665 1594 39.9249
17.3833 1621 40.2616
17.5002 1591 39.8873
17.617 1631 40.3856
17.7338 1531 39.128
17.8505 1482 38.4968
17.9672 1497 38.6911
18.0839 1435 37.8814
18.2005 1488 38.5746
18.3171 1457 38.1707
18.4337 1432 37.8418
18.5502 1518 38.9615
18.6666 1560 39.4968
18.7831 1570 39.6232
18.8994 1617 40.2119
19.0158 1561 39.5095
19.1321 1516 38.9358
19.2483 1465 38.2753
19.3645 1617 40.2119
19.4806 1463 38.2492
19.5967 1457 38.1707
19.7128 1419 37.6696
19.8288 1287 35.8748
19.9447 1113 33.3617
20.0606 0 1
20.1764 0 1
20.2922 0 1
20.4079 0 1
20.5236 0 1
20.6392 0 1
20.7548 0 1
20.8702 0 1
23.3078 0 1
23.4233 0 1
23.539 0 1
23.6547 0 1
23.7704 0 1
23.8862 0 1
24.0021 0 1
24.118 0 1
24.234 0 1
24.35 0 1
24.4661 570 23.8747
24.5822 672 25.923
24.6984 847 29.1033
24.8146 1042 32.28
24.9309 1259 35.4824
25.0472 1312 36.2215
25.1636 1492 38.6264
25.28 1608 40.0999
25.3965 1646 40.5709
25.513 1722 41.497
25.6296 1751 41.845
25.7462 1892 43.4971
25.8628 1786 42.2611
25.9795 1810 42.5441
26.0962 1877 43.3244
26.213 1706 41.3038
26.3298 1814 42.5911
26.4466 1683 41.0244
26.5635 1621 40.2616
26.6804 1655 40.6817
26.7973 1601 40.0125
26.9143 1585 39.8121
27.0313 1608 40.0999
27.1483 1517 38.9487
27.2653 1684 41.0366
27.3824 1617 40.2119
27.4996 1681 41
27.6167 1552 39.3954
27.7339 1539 39.2301
27.8511 1522 39.0128
27.9683 1575 39.6863
28.0855 1539 39.2301
28.2028 1567 39.5854
28.3201 1678 40.9634
28.4374 1749 41.821
28.5547 1748 41.8091
28.6721 1735 41.6533
28.7894 1720 41.4729
28.9068 1669 40.8534
29.0242 1775 42.1307
29.1416 1752 41.8569
29.259 1729 41.5812
29.3764 1736 41.6653
29.4939 1679 40.9756
29.6113 1785 42.2493
29.7288 1703 41.2674
29.8463 1709 41.3401
29.9638 1655 40.6817
30.0812 1555 39.4335
30.1987 1561 39.5095
30.3162 1560 39.4968
30.4337 1492 38.6264
30.5512 1527 39.0768
30.6687 1559 39.4842
30.7862 1571 39.6358
30.9037 1547 39.3319
31.0212 1657 40.7063
31.1387 1654 40.6694
31.2562 1604 40.05
31.3737 1519 38.9744
31.4912 1544 39.2938
31.6087 1595 39.9375
31.7262 1594 39.9249
31.8436 1625 40.3113
31.9611 1647 40.5832
32.0785 1669 40.8534
32.1959 1729 41.5812
32.3134 1673 40.9023
32.4308 1734 41.6413
32.5482 1712 41.3763
32.6655 1697 41.1947
32.7829 1759 41.9404
32.9002 1709 41.3401
33.0176 1703 41.2674
33.1349 1719 41.4608
33.2522 1716 41.4246
33.3694 1682 41.0122
33.4867 1742 41.7373
33.6039 1635 40.4351
33.7211 1597 39.9625
33.8383 1528 39.0896
33.9554 1496 38.6782
34.0725 1459 38.1969
34.1896 1473 38.3797
34.3067 1458 38.1838
34.4237 1518 38.9615
34.5407 1481 38.4838
34.6577 1530 39.1152
34.7746 1540 39.2428
34.8915 1522 39.0128
35.0084 1495 38.6652
35.1252 1513 38.8973
35.242 1508 38.833
35.3587 1572 39.6485
35.4755 1546 39.3192
35.5921 1541 39.2556
35.7088 1570 39.6232
35.8254 1653 40.6571
35.9419 1679 40.9756
36.0584 1599 39.9875
36.1749 1664 40.7922
36.2913 1727 41.5572
36.4077 1658 40.7185
36.524 1503 38.7685
36.6403 1519 38.9744
36.7565 1420 37.6829
36.8727 1221 34.9428
36.9889 1196 34.5832
37.1049 1010 31.7805
37.221 0 1
37.3369 0 1
37.4529 0 1
37.5687 0 1
37.6845 0 1
37.8003 0 1
37.916 0 1
38.0316 0 1
38.1472 0 1
40.5851 0 1
40.7008 0 1
40.8164 0 1
40.9322 0 1
41.048 0 1
41.1639 0 1
41.2798 0 1
41.3958 0 1
41.5118 0 1
41.6279 0 1
41.744 632 25.1396
41.8602 831 28.8271
41.9765 899 29.9833
42.0928 1024 32
42.2091 1203 34.6843
42.3255 1210 34.7851
42.4419 1237 35.171
42.5584 1258 35.4683
42.675 1288 35.8887
42.7915 1249 35.3412
42.9081 1297 36.0139
43.0248 1217 34.8855
43.1415 1301 36.0694
43.2582 1286 35.8608
43.375 1336 36.5513
43.4918 1337 36.565
43.6087 1357 36.8375
43.7256 1325 36.4005
43.8425 1253 35.3977
43.9595 1201 34.6554
44.0765 1323 36.3731
44.1935 1268 35.609
44.3106 1292 35.9444
44.4277 1359 36.8646
44.5448 1314 36.2491
44.6619 1342 36.6333
44.7791 1387 37.2424
44.8963 1426 37.7624
45.0136 1390 37.2827
45.1308 1366 36.9594
45.2481 1361 36.8917
45.3654 1432 37.8418
45.4827 1453 38.1182
45.6001 1400 37.4166
45.7174 1413 37.5899
45.8348 1445 38.0132
45.9522 1397 37.3765
46.0697 1336 36.5513
46.1871 1340 36.606
46.3046 1323 36.3731
46.422 1255 35.426
46.5395 1322 36.3593
46.657 1352 36.7696
46.7745 1359 36.8646
46.892 1331 36.4829
47.0096 1378 37.1214
47.1271 1429 37.8021
47.2446 1430 37.8153
47.3622 1370 37.0135
47.4797 1339 36.5923
47.5973 1368 36.9865
47.7149 1234 35.1283
47.8324 1353 36.7831
47.95 1296 36
48.0675 1384 37.2022
48.1851 1382 37.1753
48.3027 1448 38.0526
48.4202 1445 38.0132
48.5378 1477 38.4318
48.6554 1427 37.7757
48.7729 1424 37.7359
48.8904 1404 37.47
49.008 1436 37.8946
49.1255 1485 38.5357
49.243 1476 38.4187
49.3605 1525 39.0512
49.478 1360 36.8782
49.5955 1372 37.0405
49.713 1375 37.081
49.8304 1296 36
49.9479 1328 36.4417
50.0653 1360 36.8782
50.1827 1282 35.805
50.3001 1305 36.1248
50.4175 1277 35.7351
50.5348 1351 36.756
50.6521 1343 36.647
50.7694 1356 36.8239
50.8867 1418 37.6563
51.004 1331 36.4829
51.1212 1243 35.2562
51.2384 1330 36.4692
51.3556 1379 37.1349
51.4727 1317 36.2905
51.5899 1304 36.1109
51.707 1386 37.229
51.824 1342 36.6333
51.9411 1437 37.9078
52.0581 1477 38.4318
52.175 1475 38.4057
52.2919 1458 38.1838
52.4088 1410 37.55
52.5257 1412 37.5766
52.6425 1447 38.0395
52.7593 1447 38.0395
52.876 1482 38.4968
52.9927 1460 38.2099
53.1094 1410 37.55
53.226 1475 38.4057
53.3426 1396 37.3631
53.4591 1332 36.4966
53.5756 1333 36.5103
53.692 1289 35.9026
53.8084 1162 34.0881
53.9248 1080 32.8634
54.0411 1032 32.1248
54.1573 920 30.3315
54.2735 0 1
54.3896 0 1
54.5057 0 1
54.6217 0 1
54.7377 0 1
54.8537 0 1
54.9695 0 1
55.0853 0 1
55.2011 0 1
55.3168 0 1
55.4324 0 1
57.824 0 1
57.9396 0 1
58.0553 0 1
58.1711 0 1
58.2869 0 1
58.4028 0 1
58.5187 0 1
58.6347 0 1
58.7508 0 1
58.8669 0 1
58.983 838 28.9482
59.0992 1050 32.4037
59.2155 1208 34.7563
59.3318 1345 36.6742
59.4482 1366 36.9594
59.5646 1554 39.4208
59.681 1549 39.3573
59.7975 1584 39.7995
59.9141 1679 40.9756
60.0306 1670 40.8656
60.1473 1645 40.5586
60.2639 1706 41.3038
60.3807 1745 41.7732
60.4974 1838 42.8719
60.6142 1826 42.7317
60.731 1890 43.4741
60.8479 1781 42.2019
60.9648 1891 43.4856
61.0818 1768 42.0476
61.1987 1785 42.2493
61.3158 1862 43.1509
61.4328 1921 43.8292
61.5499 1777 42.1545
61.667 1802 42.45
61.7841 1859 43.1161
61.9013 1800 42.4264
62.0185 1771 42.0833
62.1357 1717 41.4367
62.253 1689 41.0974
62.3702 1686 41.0609
62.4875 1719 41.4608
62.6049 1764 42
62.7222 1758 41.9285
62.8396 1825 42.72
62.9569 1798 42.4028
63.0743 1855 43.0697
63.1918 1747 41.7971
63.3092 1683 41.0244
63.4267 1661 40.7554
63.5441 1678 40.9634
63.6616 1669 40.8534
63.7791 1671 40.8779
63.8966 1611 40.1373
64.0142 1757 41.9166
64.1317 1739 41.7013
64.2492 1805 42.4853
64.3668 1783 42.2256
64.4843 1800 42.4264
64.6019 1888 43.4511
64.7195 1784 42.2374
64.837 1830 42.7785
64.9546 1897 43.5546
65.0722 1741 41.7253
65.1898 1889 43.4626
65.3074 1805 42.4853
65.4249 1826 42.7317
65.5425 1823 42.6966
65.6601 1738 41.6893
65.7777 1760 41.9524
65.8952 1740 41.7133
66.0128 1720 41.4729
66.1304 1711 41.3642
66.2479 1720 41.4729
66.3655 1744 41.7612
66.483 1770 42.0714
66.6005 1784 42.2374
66.718 1793 42.3438
66.8355 1658 40.7185
66.953 1725 41.5331
67.0705 1586 39.8246
67.1879 1625 40.3113
67.3054 1589 39.8623
67.4228 1625 40.3113
67.5402 1686 41.0609
67.6576 1704 41.2795
67.7749 1757 41.9166
67.8923 1769 42.0595
68.0096 1809 42.5323
68.1269 1797 42.391
68.2442 1769 42.0595
68.3614 1762 41.9762
68.4787 1830 42.7785
68.5958 1746 41.7852
68.713 1848 42.9884
68.8302 1746 41.7852
68.9473 1763 41.9881
69.0643 1805 42.4853
69.1814 1751 41.845
69.2984 1628 40.3485
69.4154 1737 41.6773
69.5323 1696 41.1825
69.6492 1586 39.8246
69.7661 1649 40.6079
69.8829 1748 41.8091
69.9997 1685 41.0488
70.1165 1805 42.4853
70.2332 1722 41.497
70.3499 1667 40.8289
70.4665 1605 40.0625
70.5831 1474 38.3927
70.6996 1366 36.9594
70.8161 1185 34.4238
70.9326 1150 33.9116
71.049 933 30.545
71.1653 821 28.6531
71.2817 864 29.3939
71.3979 762 27.6043
71.5141 753 27.4408
71.6303 707 26.5895
71.7464 623 24.96
71.8624 0 1
71.9784 0 1
72.0944 0 1
72.2102 0 1
72.3261 0 1
72.4418 0 1
72.5575 0 1
72.6732 0 1
75.1054 0 1
75.2209 0 1
75.3365 0 1
75.4521 0 1
75.5678 0 1
75.6835 0 1
75.7993 0 1
75.9151 0 1
76.031 0 1
76.147 862 29.3598
76.263 1025 32.0156
76.3791 1164 34.1174
76.4952 1298 36.0278
76.6113 1347 36.7015
76.7276 1464 38.2623
76.8438 1497 38.6911
76.9601 1536 39.1918
77.0765 1600 40
77.1929 1545 39.3065
77.3093 1625 40.3113
77.4258 1672 40.8901
77.5423 1644 40.5463
77.6589 1608 40.0999
77.7755 1658 40.7185
77.8921 1564 39.5474
78.0088 1645 40.5586
78.1256 1628 40.3485
78.2423 1594 39.9249
78.3591 1610 40.1248
78.4759 1559 39.4842
78.5928 1597 39.9625
78.7097 1602 40.025
78.8266 1676 40.939
78.9436 1737 41.6773
79.0606 1678 40.9634
79.1776 1670 40.8656
79.2946 1704 41.2795
79.4117 1746 41.7852
79.5288 1691 41.1218
79.6459 1697 41.1947
79.7631 1612 40.1497
79.8802 1599 39.9875
79.9974 1641 40.5093
80.1147 1690 41.1096
80.2319 1673 40.9023
80.3491 1697 41.1947
80.4664 1759 41.9404
80.5837 1881 43.3705
80.701 1873 43.2782
80.8183 1991 44.6206
80.9357 1973 44.4185
81.053 1993 44.643
81.1704 2012 44.8553
81.2877 1992 44.6318
81.4051 2039 45.1553
81.5225 2048 45.2548
81.6399 2040 45.1664
81.7573 1882 43.382
81.8747 1953 44.1928
81.9922 1921 43.8292
82.1096 1932 43.9545
82.227 1953 44.1928
82.3444 1903 43.6234
82.4619 2044 45.2106
82.5793 2066 45.4533
82.6967 1897 43.5546
82.8142 2071 45.5082
82.9316 2097 45.793
83.049 2094 45.7602
83.1664 1986 44.5646
83.2838 1905 43.6463
83.4012 1884 43.4051
83.5186 1839 42.8836
83.636 1866 43.1972
83.7534 1850 43.0116
83.8708 1794 42.3556
83.9881 1828 42.7551
84.1055 1902 43.6119
84.2228 1869 43.2319
84.3401 1883 43.3935
84.4575 2031 45.0666
84.5747 1945 44.1022
84.692 2028 45.0333
84.8093 2085 45.6618
84.9265 1943 44.0795
85.0437 1964 44.317
85.1609 1949 44.1475
85.2781 1829 42.7668
85.3952 1740 41.7133
85.5123 1767 42.0357
85.6294 1781 42.2019
85.7465 1739 41.7013
85.8636 1797 42.391
85.9806 1807 42.5088
86.0976 1677 40.9512
86.2145 1757 41.9166
86.3315 1790 42.3084
86.4484 1733 41.6293
86.5652 1777 42.1545
86.682 1709 41.3401
86.7988 1698 41.2068
86.9156 1651 40.6325
87.0323 1536 39.1918
87.149 1531 39.128
87.2657 1482 38.4968
87.3823 1468 38.3145
87.4988 1567 39.5854
87.6154 1558 39.4715
87.7318 1620 40.2492
87.8483 1421 37.6962
87.9647 1461 38.223
88.081 1389 37.2693
88.1973 1278 35.7491
88.3136 1151 33.9264
88.4298 1026 32.0312
88.546 914 30.2324
88.6621 875 29.5804
88.7781 783 27.9821
88.8942 0 1
89.0101 0 1
89.126 0 1
89.2419 0 1
89.3577 0 1
89.4734 0 1
89.5891 0 1
89.7047 0 1
89.8203 0 1
89.9358 0 1
92.3269 0 1
92.4424 0 1
92.558 0 1
92.6736 0 1
92.7893 0 1
92.905 0 1
93.0208 0 1
93.1366 0 1
93.2525 0 1
93.3685 0 1
93.4845 0 1
93.6005 892 29.8664
93.7167 1082 32.8938
93.8328 1284 35.8329
93.949 1393 37.3229
94.0653 1468 38.3145
94.1816 1521 39
94.2979 1610 40.1248
94.4143 1634 40.4228
94.5307 1627 40.3361
94.6472 1633 40.4104
94.7637 1671 40.8779
94.8803 1593 39.9124
94.9969 1556 39.4462
95.1135 1666 40.8167
95.2302 1634 40.4228
95.3469 1601 40.0125
95.4637 1579 39.7366
95.5805 1555 39.4335
95.6973 1584 39.7995
95.8142 1604 40.05
95.9311 1494 38.6523
96.048 1482 38.4968
96.1649 1359 36.8646
96.2819 1376 37.0945
96.3989 1361 36.8917
96.516 1339 36.5923
96.633 1400 37.4166
96.7501 1366 36.9594
96.8673 1545 39.3065
96.9844 1463 38.2492
97.1016 1572 39.6485
97.2188 1648 40.5956
97.336 1571 39.6358
97.4532 1598 39.975
97.5704 1654 40.6694
97.6877 1655 40.6817
97.805 1733 41.6293
97.9223 1673 40.9023
98.0396 1563 39.5348
98.1569 1675 40.9268
98.2743 1645 40.5586
98.3916 1585 39.8121
98.509 1602 40.025
98.6264 1666 40.8167
98.7438 1703 41.2674
98.8612 1655 40.6817
98.9786 1663 40.7799
99.096 1635 40.4351
99.2134 1678 40.9634
99.3308 1674 40.9145
99.4482 1644 40.5463
99.5656 1635 40.4351
99.6831 1523 39.0256
99.8005 1499 38.7169
99.9179 1480 38.4708
100.035 1541 39.2556
100.153 1542 39.2683
100.27 1465 38.2753
100.388 1545 39.3065
100.505 1567 39.5854
100.622 1611 40.1373
100.74 1614 40.1746
100.857 1603 40.0375
100.975 1594 39.9249
101.092 1611 40.1373
101.209 1631 40.3856
101.327 1703 41.2674
101.444 1599 39.9875
101.561 1600 40
101.679 1674 40.9145
101.796 1689 41.0974
101.913 1672 40.8901
102.03 1689 41.0974
102.148 1703 41.2674
102.265 1712 41.3763
102.382 1801 42.4382
102.499 1627 40.3361
102.616 1746 41.7852
102.733 1644 40.5463
102.851 1681 41
102.968 1755 41.8927
103.085 1579 39.7366
103.202 1609 40.1123
103.319 1517 38.9487
103.436 1445 38.0132
103.552 1413 37.5899
103.669 1470 38.3406
103.786 1523 39.0256
103.903 1646 40.5709
104.02 1521 39
104.137 1595 39.9375
104.253 1628 40.3485
104.37 1695 41.1704
104.487 1833 42.8135
104.603 1629 40.3609
104.72 1716 41.4246
104.836 1720 41.4729
104.953 1731 41.6053
105.069 1709 41.3401
105.186 1712 41.3763
105.302 1642 40.5216
105.418 1614 40.1746
105.535 1534 39.1663
105.651 1397 37.3765
105.767 1110 33.3167
105.883 987 31.4166
105.999 813 28.5132
106.115 0 1
106.231 0 1
106.347 0 1
106.463 0 1
106.579 0 1
106.694 0 1
106.81 0 1
106.926 0 1
107.041 0 1
107.157 0 1
109.576 0 1
109.692 0 1
109.807 0 1
109.923 0 1
110.039 0 1
110.155 0 1
110.27 0 1
110.386 0 1
110.502 0 1
110.618 670 25.8844
110.735 730 27.0185
110.851 957 30.9354
110.967 1079 32.8481
111.083 1192 34.5254
111.199 1332 36.4966
111.316 1360 36.8782
111.432 1467 38.3014
111.549 1470 38.3406
111.665 1371 37.027
111.782 1263 35.5387
111.898 1182 34.3802
112.015 1209 34.7707
112.132 1206 34.7275
112.248 1196 34.5832
112.365 1293 35.9583
112.482 1296 36
112.599 1420 37.6829
112.716 1375 37.081
112.832 1416 37.6298
112.949 1452 38.1051
113.066 1328 36.4417
113.183 1445 38.0132
113.3 1394 37.3363
113.417 1426 37.7624
113.534 1332 36.4966
113.652 1440 37.9473
113.769 1369 37
113.886 1388 37.2559
114.003 1406 37.4967
114.12 1361 36.8917
114.238 1369 37
114.355 1447 38.0395
114.472 1344 36.6606
114.589 1507 38.8201
114.707 1474 38.3927
114.824 1540 39.2428
114.942 1395 37.3497
115.059 1391 37.2961
115.176 1417 37.6431
115.294 1253 35.3977
115.411 1174 34.2637
115.529 1108 33.2866
115.646 1206 34.7275
115.764 1170 34.2053
115.881 1242 35.242
115.999 1248 35.327
116.116 1319 36.318
116.234 1377 37.108
116.351 1381 37.1618
116.469 1330 36.4692
116.586 1308 36.1663
116.704 1407 37.51
116.821 1332 36.4966
116.939 1370 37.0135
117.056 1316 36.2767
117.174 1327 36.428
117.291 1347 36.7015
117.409 1352 36.7696
117.526 1299 36.0416
117.644 1357 36.8375
117.761 1340 36.606
117.879 1324 36.3868
117.996 1306 36.1386
118.114 1438 37.921
118.231 1423 37.7227
118.349 1365 36.9459
118.466 1379 37.1349
118.584 1359 36.8646
118.701 1325 36.4005
118.819 1218 34.8999
118.936 1156 34
119.053 1080 32.8634
119.171 995 31.5436
119.288 1026 32.0312
119.405 1119 33.4515
119.523 1237 35.171
119.64 1203 34.6843
119.757 1213 34.8281
119.875 1186 34.4384
119.992 1235 35.1426
120.109 1162 34.0881
120.226 1251 35.3695
120.343 1230 35.0714
120.46 1279 35.7631
120.578 1277 35.7351
120.695 1271 35.6511
120.812 1276 35.7211
120.929 1229 35.0571
121.046 1172 34.2345
121.163 1266 35.5809
121.279 1299 36.0416
121.396 1238 35.1852
121.513 1249 35.3412
121.63 1302 36.0832
121.747 1210 34.7851
121.863 1296 36
121.98 1240 35.2136
122.097 1259 35.4824
122.213 1170 34.2053
122.33 1114 33.3766
122.446 1019 31.9218
122.563 827 28.7576
122.679 666 25.807
122.795 556 23.5797
122.912 509 22.561
123.028 500 22.3607
123.144 520 22.8035
123.26 479 21.8861
123.377 0 1
123.493 0 1
123.609 0 1
123.725 0 1
123.84 0 1
123.956 0 1
124.072 0 1
124.188 0 1
124.303 0 1
124.419 0 1
126.852 0 1
126.968 0 1
127.083 0 1
127.199 0 1
127.315 0 1
127.431 0 1
127.547 0 1
127.663 0 1
127.779 0 1
127.895 0 1
128.011 0 1
128.127 0 1
128.243 0 1
128.359 977 31.257
128.476 1005 31.7017
128.592 1127 33.5708
128.708 1185 34.4238
128.825 1223 34.9714
128.941 1252 35.3836
129.058 1220 34.9285
129.174 1217 34.8855
129.291 1247 35.3129
129.408 1250 35.3553
129.524 1250 35.3553
129.641 1245 35.2846
129.758 1258 35.4683
129.875 1262 35.5246
129.992 1182 34.3802
130.108 1210 34.7851
130.225 1223 34.9714
130.342 1269 35.623
130.459 1213 34.8281
130.576 1240 35.2136
130.693 1225 35
130.81 1284 35.8329
130.928 1213 34.8281
131.045 1249 35.3412
131.162 1139 33.7491
131.279 1217 34.8855
131.396 1165 34.1321
131.513 1060 32.5576
131.631 962 31.0161
131.748 837 28.931
131.865 860 29.3258
131.983 892 29.8664
132.1 971 31.1609
132.217 1079 32.8481
132.335 1090 33.0151
132.452 1113 33.3617
132.57 1101 33.1813
132.687 1092 33.0454
132.804 1096 33.1059
132.922 1139 33.7491
133.039 1121 33.4813
133.157 1109 33.3017
133.274 1089 33
133.392 1063 32.6037
133.509 1128 33.5857
133.627 1054 32.4654
133.744 1020 31.9374
133.862 1064 32.619
133.979 1087 32.9697
134.097 1047 32.3574
134.214 1127 33.5708
134.332 1036 32.187
134.449 1079 32.8481
134.567 1078 32.8329
134.684 1080 32.8634
134.802 1025 32.0156
134.919 968 31.1127
135.037 915 30.249
135.154 884 29.7321
135.272 763 27.6225
135.389 735 27.1109
135.507 724 26.9072
135.624 787 28.0535
135.742 898 29.9666
135.859 926 30.4302
135.977 933 30.545
136.094 899 29.9833
136.211 875 29.5804
136.329 962 31.0161
136.446 921 30.348
136.564 892 29.8664
136.681 884 29.7321
136.798 877 29.6142
136.915 893 29.8831
137.033 895 29.9166
137.15 833 28.8617
137.267 888 29.7993
137.384 847 29.1033
137.502 835 28.8964
137.619 840 28.9828
137.736 833 28.8617
137.853 793 28.1603
137.97 800 28.2843
138.087 797 28.2312
138.204 795 28.1957
138.321 773 27.8029
138.438 774 27.8209
138.555 763 27.6225
138.672 759 27.55
138.788 646 25.4165
138.905 527 22.9565
139.022 599 24.4745
139.139 535 23.1301
139.255 564 23.7487
139.372 651 25.5147
139.488 669 25.865
139.605 580 24.0832
139.721 547 23.388
139.838 491 22.1585
139.954 424 20.5913
140.071 409 20.2237
140.187 378 19.4422
140.303 385 19.6214
140.419 325 18.0278
140.535 315 17.7482
140.652 317 17.8045
140.768 0 1
140.884 0 1
141 0 1
141.115 0 1
141.231 0 1
141.347 0 1
141.463 0 1
141.578 0 1
141.694 0 1
144.104 0 1
144.219 0 1
144.335 0 1
144.45 0 1
144.566 0 1
144.682 0 1
144.798 0 1
144.914 0 1
145.03 0 1
145.146 627 25.04
145.262 695 26.3629
145.378 766 27.6767
145.494 755 27.4773
145.61 717 26.7769
145.726 752 27.4226
145.842 742 27.2397
145.959 794 28.178
146.075 769 27.7308
146.192 771 27.7669
146.308 784 28
146.425 799 28.2666
146.541 717 26.7769
146.658 784 28
146.774 770 27.7489
146.891 774 27.8209
147.008 844 29.0517
147.125 831 28.8271
147.241 822 28.6705
147.358 801 28.3019
147.475 775 27.8388
147.592 702 26.4953
147.709 642 25.3377
147.826 597 24.4336
147.943 623 24.96
148.06 714 26.7208
148.177 775 27.8388
148.294 847 29.1033
148.411 833 28.8617
148.528 849 29.1376
148.645 803 28.3373
148.762 866 29.4279
148.88 904 30.0666
148.997 857 29.2746
149.114 879 29.6479
149.231 875 29.5804
149.349 896 29.9333
149.466 908 30.133
149.583 894 29.8998
149.701 880 29.6648
149.818 874 29.5635
149.935 899 29.9833
150.053 854 29.2233
150.17 878 29.6311
150.287 884 29.7321
150.405 869 29.4788
150.522 891 29.8496
150.64 820 28.6356
150.757 921 30.348
150.875 905 30.0832
150.992 876 29.5973
151.11 769 27.7308
151.227 738 27.1662
151.344 636 25.219
151.462 673 25.9422
151.579 715 26.7395
151.697 710 26.6458
151.814 761 27.5862
151.932 834 28.8791
152.049 838 28.9482
152.167 896 29.9333
152.284 889 29.8161
152.402 939 30.6431
152.519 870 29.4958
152.636 892 29.8664
152.754 915 30.249
152.871 911 30.1828
152.989 873 29.5466
153.106 921 30.348
153.223 915 30.249
153.341 873 29.5466
153.458 891 29.8496
153.575 917 30.282
153.693 941 30.6757
153.81 898 29.9666
153.927 941 30.6757
154.044 882 29.6985
154.162 927 30.4467
154.279 935 30.5778
154.396 919 30.315
154.513 909 30.1496
154.63 926 30.4302
154.747 846 29.0861
154.864 803 28.3373
154.981 708 26.6083
155.098 733 27.074
155.215 730 27.0185
155.332 795 28.1957
155.449 873 29.5466
155.566 844 29.0517
155.683 885 29.7489
155.8 836 28.9137
155.917 878 29.6311
156.033 856 29.2575
156.15 0 1
156.267 0 1
156.383 0 1
156.5 0 1
156.617 0 1
156.733 0 1
156.85 0 1
156.966 0 1
157.082 0 1
157.199 0 1
157.315 0 1
157.431 0 1
157.547 0 1
157.664 0 1
157.78 0 1
157.896 0 1
158.012 0 1
158.128 0 1
158.244 0 1
158.359 0 1
158.475 0 1
158.591 0 1
158.706 0 1
