
6.15755 0 1
6.2731 0 1
6.3887 0 1
6.50437 0 1
6.62009 0 1
6.73587 0 1
6.8517 0 1
6.96759 0 1
7.08353 0 1
7.19952 0 1
7.31557 0 1
7.43166 0 1
7.54781 0 1
7.664 0 1
7.78024 0 1
7.89653 0 1
8.01286 0 1
8.12924 0 1
8.24567 0 1
8.36213 0 1
8.47864 0 1
8.59519 0 1
8.71178 0 1
8.82841 0 1
8.94508 0 1
9.06179 0 1
9.17853 0 1
9.29531 0 1
9.41212 0 1
9.52897 0 1
9.64584 0 1
9.76276 0 1
9.8797 0 1
9.99667 0 1
10.1137 0 1
10.2307 0 1
10.3478 0 1
10.4648 0 1
10.5819 0 1
10.6991 0 1
10.8162 0 1
10.9334 0 1
11.0506 0 1
11.1678 0 1
11.285 0 1
11.4023 0 1
11.5196 0 1
11.6369 0 1
11.7542 0 1
11.8715 0 1
11.9888 0 1
12.1062 0 1
12.2235 0 1
12.3409 0 1
12.4582 0 1
12.5756 0 1
12.693 0 1
12.8104 0 1
12.9278 0 1
13.0452 0 1
13.1626 0 1
13.28 0 1
13.3974 0 1
13.5149 0 1
13.6323 0 1
13.7497 0 1
13.8671 0 1
13.9845 0 1
14.1019 0 1
14.2193 0 1
14.3367 0 1
14.4541 0 1
14.5714 0 1
14.6888 0 1
14.8062 0 1
14.9235 0 1
15.0408 8052 89.7329
15.1581 8408 91.6951
15.2755 8877 94.2178
15.3927 9080 95.289
15.51 8936 94.5304
15.6273 8737 93.4719
15.7445 8786 93.7337
15.8617 8426 91.7932
15.9789 8550 92.4662
16.0961 8257 90.868
16.2132 8116 90.0888
16.3304 7778 88.193
16.4475 7880 88.7694
16.5646 7663 87.5386
16.6816 7542 86.8447
16.7986 7406 86.0581
16.9156 7248 85.1352
17.0326 7136 84.4748
17.1496 7180 84.7349
17.2665 6881 82.9518
17.3833 6979 83.5404
17.5002 6912 83.1384
17.617 7087 84.1843
17.7338 7021 83.7914
17.8505 7362 85.8021
17.9672 7447 86.296
18.0839 7673 87.5957
18.2005 7740 87.9773
18.3171 8070 89.8332
18.4337 8091 89.95
18.5502 8143 90.2386
18.6666 8182 90.4544
18.7831 8355 91.4057
18.8994 8263 90.901
19.0158 8127 90.1499
19.1321 7783 88.2213
19.2483 7587 87.1034
19.3645 6878 82.9337
19.4806 6791 82.4075
19.5967 6472 80.4487
19.7128 6121 78.2368
19.8288 5580 74.6994
19.9447 5061 71.1407
20.0606 0 1
20.1764 0 1
20.2922 0 1
20.4079 0 1
20.5236 0 1
20.6392 0 1
20.7548 0 1
20.8702 0 1
23.3078 0 1
23.4233 0 1
23.539 0 1
23.6547 0 1
23.7704 0 1
23.8862 0 1
24.0021 0 1
24.118 0 1
24.234 0 1
24.35 0 1
24.4661 3523 59.3549
24.5822 4010 63.3246
24.6984 4455 66.7458
24.8146 5038 70.9789
24.9309 5687 75.4122
25.0472 6229 78.924
25.1636 6695 81.823
25.28 7032 83.857
25.3965 7510 86.6603
25.513 7780 88.2043
25.6296 8089 89.9389
25.7462 8228 90.7083
25.8628 8489 92.1358
25.9795 8186 90.4765
26.0962 8406 91.6842
26.213 8295 91.0769
26.3298 8207 90.5925
26.4466 8230 90.7193
26.5635 8220 90.6642
26.6804 8514 92.2713
26.7973 8643 92.9677
26.9143 8269 90.934
27.0313 8220 90.6642
27.1483 8350 91.3783
27.2653 8596 92.7146
27.3824 8793 93.771
27.4996 8872 94.1913
27.6167 8595 92.7092
27.7339 8731 93.4398
27.8511 8330 91.2688
27.9683 8195 90.5262
28.0855 7973 89.2917
28.2028 8257 90.868
28.3201 8102 90.0111
28.4374 8267 90.923
28.5547 8259 90.879
28.6721 8553 92.4824
28.7894 8430 91.815
28.9068 8356 91.4112
29.0242 8424 91.7824
29.1416 8238 90.7634
29.259 8133 90.1831
29.3764 8175 90.4157
29.4939 7828 88.476
29.6113 7996 89.4204
29.7288 7922 89.0056
29.8463 8125 90.1388
29.9638 8222 90.6752
30.0812 8360 91.433
30.1987 8331 91.2743
30.3162 8366 91.4658
30.4337 8453 91.9402
30.5512 8359 91.4276
30.6687 8417 91.7442
30.7862 8671 93.1182
30.9037 8737 93.4719
31.0212 8953 94.6203
31.1387 8882 94.2444
31.2562 9045 95.1052
31.3737 8652 93.0161
31.4912 8588 92.6715
31.6087 8740 93.488
31.7262 8627 92.8816
31.8436 8529 92.3526
31.9611 8282 91.0055
32.0785 8381 91.5478
32.1959 8534 92.3797
32.3134 8462 91.9891
32.4308 8640 92.9516
32.5482 8576 92.6067
32.6655 8424 91.7824
32.7829 8450 91.9239
32.9002 8370 91.4877
33.0176 8233 90.7359
33.1349 8091 89.95
33.2522 8192 90.5097
33.3694 8200 90.5539
33.4867 8270 90.9395
33.6039 8577 92.6121
33.7211 8555 92.4932
33.8383 8516 92.2822
33.9554 8514 92.2713
34.0725 8537 92.3959
34.1896 8427 91.7987
34.3067 8496 92.1737
34.4237 8722 93.3916
34.5407 8874 94.2019
34.6577 8971 94.7154
34.7746 9077 95.2733
34.8915 8980 94.7629
35.0084 8994 94.8367
35.1252 8904 94.361
35.242 8811 93.8669
35.3587 8659 93.0537
35.4755 8701 93.2792
35.5921 8406 91.6842
35.7088 8469 92.0272
35.8254 8383 91.5587
35.9419 8467 92.0163
36.0584 8555 92.4932
36.1749 8524 92.3255
36.2913 8233 90.7359
36.4077 7858 88.6454
36.524 7685 87.6641
36.6403 6981 83.5524
36.7565 6399 79.9937
36.8727 6086 78.0128
36.9889 5596 74.8064
37.1049 5132 71.638
37.221 0 1
37.3369 0 1
37.4529 0 1
37.5687 0 1
37.6845 0 1
37.8003 0 1
37.916 0 1
38.0316 0 1
38.1472 0 1
40.5851 0 1
40.7008 0 1
40.8164 0 1
40.9322 0 1
41.048 0 1
41.1639 0 1
41.2798 0 1
41.3958 0 1
41.5118 0 1
41.6279 0 1
41.744 4653 68.2129
41.8602 5450 73.8241
41.9765 6168 78.5366
42.0928 6976 83.5225
42.2091 7599 87.1722
42.3255 8032 89.6214
42.4419 8294 91.0714
42.5584 8603 92.7524
42.675 9081 95.2943
42.7915 9109 95.4411
42.9081 9002 94.8789
43.0248 9242 96.1353
43.1415 9555 97.7497
43.2582 10008 100.04
43.375 10676 103.325
43.4918 11368 106.621
43.6087 11522 107.341
43.7256 11545 107.448
43.8425 11757 108.43
43.9595 11854 108.876
44.0765 12090 109.955
44.1935 12074 109.882
44.3106 12136 110.164
44.4277 12370 111.221
44.5448 12551 112.031
44.6619 12558 112.062
44.7791 12636 112.41
44.8963 12615 112.317
45.0136 12860 113.402
45.1308 12568 112.107
45.2481 12440 111.535
45.3654 12505 111.826
45.4827 12272 110.779
45.6001 12031 109.686
45.7174 11871 108.954
45.8348 11900 109.087
45.9522 11745 108.374
46.0697 11416 106.846
46.1871 11205 105.854
46.3046 11006 104.909
46.422 10254 101.262
46.5395 10147 100.732
46.657 10249 101.237
46.7745 10339 101.681
46.892 10893 104.37
47.0096 10962 104.7
47.1271 11241 106.024
47.2446 11133 105.513
47.3622 11069 105.209
47.4797 10817 104.005
47.5973 10472 102.333
47.7149 10323 101.602
47.8324 10309 101.533
47.95 10159 100.792
48.0675 9904 99.5188
48.1851 9754 98.7623
48.3027 9511 97.5244
48.4202 9487 97.4012
48.5378 9472 97.3242
48.6554 9150 95.6556
48.7729 9299 96.4313
48.8904 9393 96.9175
49.008 9218 96.0104
49.1255 9093 95.3572
49.243 8981 94.7681
49.3605 9106 95.4254
49.478 8862 94.1382
49.5955 9021 94.9789
49.713 8826 93.9468
49.8304 8720 93.3809
49.9479 8466 92.0109
50.0653 8677 93.1504
50.1827 8943 94.5674
50.3001 9243 96.1405
50.4175 9592 97.9388
50.5348 10103 100.514
50.6521 10152 100.757
50.7694 10417 102.064
50.8867 10326 101.617
51.004 10518 102.557
51.1212 10461 102.279
51.2384 10246 101.223
51.3556 10320 101.587
51.4727 10009 100.045
51.5899 9911 99.554
51.707 9941 99.7046
51.824 9896 99.4786
51.9411 9793 98.9596
52.0581 9581 97.8826
52.175 9515 97.5449
52.2919 9366 96.7781
52.4088 9435 97.1339
52.5257 9453 97.2265
52.6425 9093 95.3572
52.7593 8986 94.7945
52.876 8912 94.4034
52.9927 9093 95.3572
53.1094 8807 93.8456
53.226 8572 92.5851
53.3426 8439 91.864
53.4591 8222 90.6752
53.5756 7755 88.0625
53.692 7424 86.1626
53.8084 7217 84.9529
53.9248 7094 84.2259
54.0411 6466 80.4114
54.1573 6014 77.55
54.2735 0 1
54.3896 0 1
54.5057 0 1
54.6217 0 1
54.7377 0 1
54.8537 0 1
54.9695 0 1
55.0853 0 1
55.2011 0 1
55.3168 0 1
55.4324 0 1
57.824 0 1
57.9396 0 1
58.0553 0 1
58.1711 0 1
58.2869 0 1
58.4028 0 1
58.5187 0 1
58.6347 0 1
58.7508 0 1
58.8669 0 1
58.983 7922 89.0056
59.0992 9212 95.9792
59.2155 10310 101.538
59.3318 11070 105.214
59.4482 12051 109.777
59.5646 12925 113.688
59.681 13348 115.534
59.7975 13598 116.61
59.9141 13580 116.533
60.0306 13507 116.22
60.1473 13426 115.871
60.2639 13497 116.177
60.3807 13085 114.39
60.4974 13064 114.298
60.6142 13344 115.516
60.731 13116 114.525
60.8479 12685 112.628
60.9648 12737 112.858
61.0818 12730 112.827
61.1987 12956 113.824
61.3158 12668 112.552
61.4328 12844 113.331
61.5499 12730 112.827
61.667 12812 113.19
61.7841 12622 112.348
61.9013 12626 112.365
62.0185 12422 111.454
62.1357 12642 112.437
62.253 12904 113.596
62.3702 13249 115.104
62.4875 14042 118.499
62.6049 14212 119.214
62.7222 14842 121.828
62.8396 15080 122.801
62.9569 15540 124.66
63.0743 15472 124.386
63.1918 15741 125.463
63.3092 15601 124.904
63.4267 15390 124.056
63.5441 14993 122.446
63.6616 14540 120.582
63.7791 14310 119.624
63.8966 14440 120.167
64.0142 14085 118.68
64.1317 13910 117.941
64.2492 13658 116.867
64.3668 13292 115.291
64.4843 12843 113.327
64.6019 12996 114
64.7195 13138 114.621
64.837 13219 114.974
64.9546 13020 114.105
65.0722 13187 114.835
65.1898 13104 114.473
65.3074 13067 114.311
65.4249 13020 114.105
65.5425 12789 113.088
65.6601 12714 112.756
65.7777 12766 112.987
65.8952 13385 115.694
66.0128 14029 118.444
66.1304 14331 119.712
66.2479 14847 121.848
66.3655 15274 123.588
66.483 15749 125.495
66.6005 16417 128.129
66.718 16103 126.898
66.8355 16004 126.507
66.953 15823 125.79
67.0705 15512 124.547
67.1879 15044 122.654
67.3054 14397 119.987
67.4228 14474 120.308
67.5402 14315 119.645
67.6576 14094 118.718
67.7749 13788 117.422
67.8923 13443 115.944
68.0096 13506 116.215
68.1269 13459 116.013
68.2442 13483 116.116
68.3614 13721 117.137
68.4787 13843 117.656
68.5958 13607 116.649
68.713 13559 116.443
68.8302 13643 116.803
68.9473 13372 115.637
69.0643 12662 112.526
69.1814 12341 111.09
69.2984 12213 110.512
69.4154 12460 111.624
69.5323 12777 113.035
69.6492 13440 115.931
69.7661 13946 118.093
69.8829 14155 118.975
69.9997 14647 121.025
70.1165 14162 119.004
70.2332 13912 117.949
70.3499 13675 116.94
70.4665 12697 112.681
70.5831 11837 108.798
70.6996 10957 104.676
70.8161 9803 99.0101
70.9326 8975 94.7365
71.049 8142 90.233
71.1653 7581 87.0689
71.2817 7257 85.188
71.3979 6786 82.3772
71.5141 6495 80.5916
71.6303 5985 77.3628
71.7464 5266 72.5672
71.8624 0 1
71.9784 0 1
72.0944 0 1
72.2102 0 1
72.3261 0 1
72.4418 0 1
72.5575 0 1
72.6732 0 1
75.1054 0 1
75.2209 0 1
75.3365 0 1
75.4521 0 1
75.5678 0 1
75.6835 0 1
75.7993 0 1
75.9151 0 1
76.031 0 1
76.147 10935 104.571
76.263 11856 108.885
76.3791 12182 110.372
76.4952 12072 109.873
76.6113 12209 110.494
76.7276 12341 111.09
76.8438 12521 111.897
76.9601 12694 112.668
77.0765 12573 112.129
77.1929 12801 113.142
77.3093 13238 115.057
77.4258 13809 117.512
77.5423 13751 117.265
77.6589 13788 117.422
77.7755 13739 117.213
77.8921 13344 115.516
78.0088 12857 113.389
78.1256 12311 110.955
78.2423 11938 109.261
78.3591 11937 109.257
78.4759 12397 111.342
78.5928 13622 116.713
78.7097 14357 119.821
78.8266 15028 122.589
78.9436 15600 124.9
79.0606 15335 123.835
79.1776 16174 127.177
79.2946 16509 128.487
79.4117 16994 130.361
79.5288 17053 130.587
79.6459 16933 130.127
79.7631 16284 127.609
79.8802 15682 125.228
79.9974 15050 122.678
80.1147 14644 121.012
80.2319 14675 121.14
80.3491 14633 120.967
80.4664 14779 121.569
80.5837 14568 120.698
80.701 14580 120.748
80.8183 14472 120.3
80.9357 14843 121.832
81.053 15298 123.685
81.1704 15635 125.04
81.2877 15400 124.097
81.4051 15248 123.483
81.5225 15109 122.919
81.6399 14994 122.45
81.7573 13920 117.983
81.8747 13501 116.194
81.9922 13208 114.926
82.1096 13432 115.897
82.227 14685 121.182
82.3444 15666 125.164
82.4619 16690 129.19
82.5793 17413 131.958
82.6967 17300 131.529
82.8142 17829 133.525
82.9316 18461 135.871
83.049 18627 136.481
83.1664 18454 135.846
83.2838 18412 135.691
83.4012 17807 133.443
83.5186 16646 129.019
83.636 15997 126.479
83.7534 16330 127.789
83.8708 16230 127.397
83.9881 16325 127.769
84.1055 16395 128.043
84.2228 16344 127.844
84.3401 16498 128.445
84.4575 16453 128.269
84.5747 16703 129.24
84.692 17480 132.212
84.8093 17636 132.801
84.9265 17307 131.556
85.0437 16973 130.28
85.1609 16506 128.476
85.2781 15415 124.157
85.3952 14553 120.636
85.5123 14559 120.661
85.6294 14427 120.112
85.7465 15207 123.317
85.8636 16334 127.805
85.9806 17336 131.666
86.0976 18299 135.274
86.2145 18657 136.591
86.3315 18642 136.536
86.4484 19184 138.506
86.5652 19641 140.146
86.682 19560 139.857
86.7988 19430 139.392
86.9156 19035 137.967
87.0323 18797 137.102
87.149 17701 133.045
87.2657 17642 132.823
87.3823 17367 131.784
87.4988 16376 127.969
87.6154 15855 125.917
87.7318 15165 123.146
87.8483 14409 120.037
87.9647 13443 115.944
88.081 12842 113.323
88.1973 12046 109.754
88.3136 11551 107.476
88.4298 10480 102.372
88.546 9651 98.2395
88.6621 8892 94.2974
88.7781 7943 89.1235
88.8942 0 1
89.0101 0 1
89.126 0 1
89.2419 0 1
89.3577 0 1
89.4734 0 1
89.5891 0 1
89.7047 0 1
89.8203 0 1
89.9358 0 1
92.3269 0 1
92.4424 0 1
92.558 0 1
92.6736 0 1
92.7893 0 1
92.905 0 1
93.0208 0 1
93.1366 0 1
93.2525 0 1
93.3685 0 1
93.4845 0 1
93.6005 15713 125.352
93.7167 17314 131.583
93.8328 18701 136.752
93.949 19612 140.043
94.0653 19887 141.021
94.1816 20300 142.478
94.2979 19992 141.393
94.4143 19146 138.369
94.5307 18229 135.015
94.6472 17373 131.807
94.7637 17259 131.374
94.8803 17517 132.352
94.9969 18863 137.343
95.1135 19732 140.471
95.2302 20693 143.851
95.3469 21622 147.044
95.4637 22726 150.751
95.5805 22841 151.132
95.6973 23421 153.039
95.8142 23886 154.551
95.9311 23469 153.196
96.048 23528 153.388
96.1649 23569 153.522
96.2819 22822 151.07
96.3989 22407 149.69
96.516 21562 146.84
96.633 21753 147.489
96.7501 21128 145.355
96.8673 21535 146.748
96.9844 21521 146.7
97.1016 21871 147.888
97.2188 21741 147.448
97.336 21796 147.635
97.4532 22628 150.426
97.5704 22916 151.38
97.6877 23141 152.122
97.805 22929 151.423
97.9223 22189 148.96
98.0396 21403 146.298
98.1569 20218 142.19
98.2743 18775 137.022
98.3916 18276 135.189
98.509 18434 135.772
98.6264 19556 139.843
98.7438 20544 143.332
98.8612 21957 148.179
98.9786 23309 152.673
99.096 24055 155.097
99.2134 24678 157.092
99.3308 25228 158.833
99.4482 25981 161.186
99.5656 25716 160.362
99.6831 25541 159.816
99.8005 25312 159.097
99.9179 24664 157.048
100.035 23894 154.577
100.153 23532 153.401
100.27 23447 153.124
100.388 23317 152.699
100.505 22849 151.159
100.622 22909 151.357
100.74 22783 150.94
100.857 22723 150.742
100.975 22975 151.575
101.092 23479 153.229
101.209 24315 155.933
101.327 24362 156.083
101.444 23981 154.858
101.561 23347 152.797
101.679 21932 148.095
101.796 20601 143.53
101.913 19413 139.331
102.03 19212 138.607
102.148 19949 141.241
102.265 20849 144.392
102.382 22937 151.45
102.499 23822 154.344
102.616 25138 158.55
102.733 25596 159.987
102.851 25843 160.758
102.968 26279 162.108
103.085 26718 163.456
103.202 26264 162.062
103.319 26311 162.207
103.436 25220 158.808
103.552 24412 156.243
103.669 24022 154.99
103.786 23573 153.535
103.903 23384 152.918
104.02 23103 151.997
104.137 23026 151.743
104.253 22605 150.35
104.37 23141 152.122
104.487 22933 151.436
104.603 23083 151.931
104.72 22979 151.588
104.836 22606 150.353
104.953 21108 145.286
105.069 18988 137.797
105.186 17264 131.393
105.302 15764 125.555
105.418 14192 119.13
105.535 12933 113.723
105.651 11916 109.16
105.767 11441 106.963
105.883 11381 106.682
105.999 10980 104.785
106.115 0 1
106.231 0 1
106.347 0 1
106.463 0 1
106.579 0 1
106.694 0 1
106.81 0 1
106.926 0 1
107.041 0 1
107.157 0 1
109.576 0 1
109.692 0 1
109.807 0 1
109.923 0 1
110.039 0 1
110.155 0 1
110.27 0 1
110.386 0 1
110.502 0 1
110.618 10658 103.238
110.735 12896 113.561
110.851 15389 124.052
110.967 17625 132.759
111.083 19555 139.839
111.199 21150 145.43
111.316 21952 148.162
111.432 22764 150.877
111.549 23345 152.791
111.665 23117 152.043
111.782 23116 152.039
111.898 23410 153.003
112.015 22836 151.116
112.132 22348 149.492
112.248 21756 147.499
112.365 21715 147.36
112.482 20810 144.257
112.599 21714 147.357
112.716 20979 144.841
112.832 21020 144.983
112.949 20825 144.309
113.066 21020 144.983
113.183 21323 146.024
113.3 21707 147.333
113.417 21803 147.658
113.534 21572 146.874
113.652 20953 144.752
113.769 20194 142.106
113.886 18568 136.264
114.003 17464 132.151
114.12 17282 131.461
114.238 17612 132.71
114.355 18645 136.547
114.472 19295 138.906
114.589 22568 150.226
114.707 22753 150.841
114.824 22949 151.489
114.942 23656 153.805
115.059 23848 154.428
115.176 24093 155.219
115.294 23723 154.023
115.411 23431 153.072
115.529 22880 151.261
115.646 22619 150.396
115.764 21542 146.772
115.881 21266 145.829
115.999 20972 144.817
116.116 20394 142.808
116.234 20484 143.122
116.351 20017 141.481
116.469 19828 140.812
116.586 19946 141.23
116.704 20283 142.418
116.821 20736 144
116.939 21206 145.623
117.056 20870 144.465
117.174 20636 143.652
117.291 19825 140.801
117.409 18865 137.35
117.526 17812 133.462
117.644 16761 129.464
117.761 16999 130.38
117.879 17499 132.284
117.996 18441 135.798
118.114 19849 140.886
118.231 21886 147.939
118.349 22010 148.358
118.466 22210 149.03
118.584 22372 149.573
118.701 22719 150.728
118.819 21781 147.584
118.936 21862 147.858
119.053 22007 148.348
119.171 21291 145.914
119.288 20661 143.739
119.405 19856 140.911
119.523 19746 140.52
119.64 19419 139.352
119.757 18979 137.764
119.875 18679 136.671
119.992 18625 136.473
120.109 18237 135.044
120.226 18220 134.981
120.343 18565 136.253
120.46 19413 139.331
120.578 19221 138.64
120.695 19020 137.913
120.812 18746 136.916
120.929 18055 134.369
121.046 17090 130.729
121.163 16020 126.57
121.279 15079 122.797
121.396 14418 120.075
121.513 14170 119.038
121.63 14618 120.905
121.747 15111 122.927
121.863 15746 125.483
121.98 16152 127.091
122.097 15965 126.353
122.213 15205 123.309
122.33 14606 120.855
122.446 13861 117.733
122.563 12866 113.428
122.679 12082 109.918
122.795 11610 107.75
122.912 10692 103.402
123.028 10100 100.499
123.144 9392 96.9123
123.26 8725 93.4077
123.377 0 1
123.493 0 1
123.609 0 1
123.725 0 1
123.84 0 1
123.956 0 1
124.072 0 1
124.188 0 1
124.303 0 1
124.419 0 1
126.852 0 1
126.968 0 1
127.083 0 1
127.199 0 1
127.315 0 1
127.431 0 1
127.547 0 1
127.663 0 1
127.779 0 1
127.895 0 1
128.011 0 1
128.127 0 1
128.243 0 1
128.359 19316 138.982
128.476 19550 139.821
128.592 19171 138.459
128.708 19070 138.094
128.825 18702 136.755
128.941 18482 135.949
129.058 18565 136.253
129.174 18050 134.35
129.291 18733 136.869
129.408 18584 136.323
129.524 18899 137.474
129.641 19258 138.773
129.758 18843 137.27
129.875 18695 136.73
129.992 18375 135.554
130.108 17951 133.981
130.225 17184 131.088
130.342 16223 127.37
130.459 15462 124.346
130.576 15614 124.956
130.693 16185 127.22
130.81 17240 131.301
130.928 18828 137.215
131.045 19617 140.061
131.162 19924 141.152
131.279 20048 141.591
131.396 20077 141.693
131.513 19894 141.046
131.631 19892 141.039
131.748 19786 140.663
131.865 19729 140.46
131.983 19571 139.896
132.1 19397 139.273
132.217 19014 137.891
132.335 18640 136.528
132.452 18368 135.529
132.57 18219 134.978
132.687 18824 137.201
132.804 18392 135.617
132.922 18570 136.272
133.039 18794 137.091
133.157 19058 138.051
133.274 18981 137.772
133.392 19119 138.271
133.509 18734 136.872
133.627 18544 136.176
133.744 18155 134.74
133.862 17030 130.499
133.979 16553 128.658
134.097 16342 127.836
134.214 16701 129.232
134.332 17415 131.966
134.449 18779 137.036
134.567 20015 141.474
134.684 20643 143.677
134.802 21020 144.983
134.919 21091 145.227
135.037 21322 146.021
135.154 20912 144.61
135.272 21024 144.997
135.389 21213 145.647
135.507 21444 146.438
135.624 21315 145.997
135.742 21352 146.123
135.859 20951 144.745
135.977 20774 144.132
136.094 20920 144.637
136.211 20760 144.083
136.329 20684 143.819
136.446 20781 144.156
136.564 20746 144.035
136.681 20879 144.496
136.798 20689 143.837
136.915 20828 144.319
137.033 21004 144.928
137.15 20491 143.147
137.267 20130 141.88
137.384 19281 138.856
137.502 18594 136.36
137.619 17294 131.507
137.736 17203 131.16
137.853 16392 128.031
137.97 17925 133.884
138.087 18831 137.226
138.204 20213 142.172
138.321 20849 144.392
138.438 21064 145.134
138.555 21147 145.42
138.672 20831 144.329
138.788 20116 141.831
138.905 19255 138.762
139.022 18470 135.904
139.139 17580 132.59
139.255 17255 131.358
139.372 16152 127.091
139.488 15487 124.447
139.605 14186 119.105
139.721 13348 115.534
139.838 12665 112.539
139.954 11932 109.234
140.071 11744 108.37
140.187 10940 104.594
140.303 10189 100.941
140.419 9827 99.1312
140.535 9221 96.026
140.652 8811 93.8669
140.768 0 1
140.884 0 1
141 0 1
141.115 0 1
141.231 0 1
141.347 0 1
141.463 0 1
141.578 0 1
141.694 0 1
144.104 0 1
144.219 0 1
144.335 0 1
144.45 0 1
144.566 0 1
144.682 0 1
144.798 0 1
144.914 0 1
145.03 0 1
145.146 14917 122.135
145.262 15457 124.326
145.378 15490 124.459
145.494 15499 124.495
145.61 15917 126.163
145.726 16086 126.831
145.842 15914 126.151
145.959 15867 125.964
146.075 15582 124.828
146.192 15312 123.742
146.308 14685 121.182
146.425 13971 118.199
146.541 13654 116.85
146.658 13497 116.177
146.774 13858 117.72
146.891 14727 121.355
147.008 15444 124.274
147.125 15934 126.23
147.241 16483 128.386
147.358 16664 129.089
147.475 16311 127.715
147.592 16404 128.078
147.709 16025 126.59
147.826 16006 126.515
147.943 16549 128.643
148.06 16505 128.472
148.177 16198 127.271
148.294 16231 127.401
148.411 16184 127.216
148.528 16289 127.628
148.645 15997 126.479
148.762 16166 127.146
148.88 15772 125.587
148.997 16083 126.819
149.114 15380 124.016
149.231 15564 124.756
149.349 15413 124.149
149.466 15570 124.78
149.583 15703 125.312
149.701 15456 124.322
149.818 15314 123.75
149.935 15207 123.317
150.053 14396 119.983
150.17 13898 117.89
150.287 13540 116.362
150.405 13805 117.495
150.522 14346 119.775
150.64 15068 122.752
150.757 15527 124.607
150.875 16329 127.785
150.992 16243 127.448
151.11 16370 127.945
151.227 15937 126.242
151.344 15957 126.321
151.462 15708 125.332
151.579 16057 126.716
151.697 16272 127.562
151.814 16245 127.456
151.932 16238 127.428
152.049 15963 126.345
152.167 15758 125.531
152.284 15616 124.964
152.402 15398 124.089
152.519 15297 123.681
152.636 15372 123.984
152.754 15190 123.248
152.871 15370 123.976
152.989 15169 123.162
153.106 15122 122.972
153.223 15293 123.665
153.341 15111 122.927
153.458 14829 121.774
153.575 14373 119.887
153.693 13802 117.482
153.81 13566 116.473
153.927 13157 114.704
154.044 13414 115.819
154.162 14073 118.63
154.279 14569 120.702
154.396 15220 123.369
154.513 15701 125.304
154.63 15856 125.921
154.747 15717 125.367
154.864 15640 125.06
154.981 15325 123.794
155.098 15460 124.338
155.215 15474 124.395
155.332 15447 124.286
155.449 15279 123.608
155.566 15007 122.503
155.683 14694 121.219
155.8 14466 120.275
155.917 13969 118.191
156.033 13586 116.559
156.15 0 1
156.267 0 1
156.383 0 1
156.5 0 1
156.617 0 1
156.733 0 1
156.85 0 1
156.966 0 1
157.082 0 1
157.199 0 1
157.315 0 1
157.431 0 1
157.547 0 1
157.664 0 1
157.78 0 1
157.896 0 1
158.012 0 1
158.128 0 1
158.244 0 1
158.359 0 1
158.475 0 1
158.591 0 1
158.706 0 1
