
6.15755 0 1
6.2731 0 1
6.3887 0 1
6.50437 0 1
6.62009 0 1
6.73587 0 1
6.8517 0 1
6.96759 0 1
7.08353 0 1
7.19952 0 1
7.31557 0 1
7.43166 0 1
7.54781 0 1
7.664 0 1
7.78024 0 1
7.89653 0 1
8.01286 0 1
8.12924 0 1
8.24567 0 1
8.36213 0 1
8.47864 0 1
8.59519 0 1
8.71178 0 1
8.82841 0 1
8.94508 0 1
9.06179 0 1
9.17853 0 1
9.29531 0 1
9.41212 0 1
9.52897 0 1
9.64584 0 1
9.76276 0 1
9.8797 0 1
9.99667 0 1
10.1137 0 1
10.2307 0 1
10.3478 0 1
10.4648 0 1
10.5819 0 1
10.6991 0 1
10.8162 0 1
10.9334 0 1
11.0506 0 1
11.1678 0 1
11.285 0 1
11.4023 0 1
11.5196 0 1
11.6369 0 1
11.7542 0 1
11.8715 0 1
11.9888 0 1
12.1062 0 1
12.2235 0 1
12.3409 0 1
12.4582 0 1
12.5756 0 1
12.693 0 1
12.8104 0 1
12.9278 0 1
13.0452 0 1
13.1626 0 1
13.28 0 1
13.3974 0 1
13.5149 0 1
13.6323 0 1
13.7497 0 1
13.8671 0 1
13.9845 0 1
14.1019 0 1
14.2193 0 1
14.3367 0 1
14.4541 0 1
14.5714 0 1
14.6888 0 1
14.8062 0 1
14.9235 0 1
15.0408 8114 90.0777
15.1581 8375 91.515
15.2755 9021 94.9789
15.3927 8937 94.5357
15.51 9102 95.4044
15.6273 9106 95.4254
15.7445 8882 94.2444
15.8617 8788 93.7443
15.9789 8572 92.5851
16.0961 8428 91.8041
16.2132 8290 91.0494
16.3304 8205 90.5815
16.4475 7985 89.3588
16.5646 7773 88.1646
16.6816 7636 87.3842
16.7986 7597 87.1608
16.9156 7293 85.3991
17.0326 7195 84.8233
17.1496 7125 84.4097
17.2665 7138 84.4867
17.3833 7068 84.0714
17.5002 7166 84.6522
17.617 7198 84.841
17.7338 7209 84.9058
17.8505 7372 85.8604
17.9672 7505 86.6314
18.0839 7796 88.295
18.2005 7861 88.6623
18.3171 8135 90.1942
18.4337 8172 90.3991
18.5502 8338 91.3126
18.6666 8402 91.6624
18.7831 8460 91.9783
18.8994 8348 91.3674
19.0158 8241 90.78
19.1321 7978 89.3197
19.2483 7576 87.0402
19.3645 7166 84.6522
19.4806 6790 82.4015
19.5967 6432 80.1998
19.7128 6099 78.0961
19.8288 5824 76.3151
19.9447 5106 71.4563
20.0606 0 1
20.1764 0 1
20.2922 0 1
20.4079 0 1
20.5236 0 1
20.6392 0 1
20.7548 0 1
20.8702 0 1
23.3078 0 1
23.4233 0 1
23.539 0 1
23.6547 0 1
23.7704 0 1
23.8862 0 1
24.0021 0 1
24.118 0 1
24.234 0 1
24.35 0 1
24.4661 3535 59.4559
24.5822 4044 63.5925
24.6984 4445 66.6708
24.8146 5080 71.2741
24.9309 5650 75.1665
25.0472 6305 79.404
25.1636 6930 83.2466
25.28 7386 85.9418
25.3965 7693 87.7097
25.513 8016 89.5321
25.6296 8273 90.956
25.7462 8435 91.8423
25.8628 8296 91.0824
25.9795 8613 92.8062
26.0962 8327 91.2524
26.213 8393 91.6133
26.3298 8209 90.6035
26.4466 8284 91.0165
26.5635 8497 92.1792
26.6804 8636 92.9301
26.7973 8514 92.2713
26.9143 8489 92.1358
27.0313 8483 92.1032
27.1483 8556 92.4986
27.2653 8690 93.2202
27.3824 8807 93.8456
27.4996 8858 94.1169
27.6167 8866 94.1594
27.7339 8640 92.9516
27.8511 8397 91.6351
27.9683 8440 91.8695
28.0855 8276 90.9725
28.2028 8353 91.3947
28.3201 8353 91.3947
28.4374 8309 91.1537
28.5547 8454 91.9456
28.6721 8304 91.1263
28.7894 8589 92.6769
28.9068 8574 92.5959
29.0242 8623 92.8601
29.1416 8494 92.1629
29.259 8336 91.3017
29.3764 8405 91.6788
29.4939 8254 90.8515
29.6113 8057 89.7608
29.7288 8262 90.8955
29.8463 8091 89.95
29.9638 8210 90.6091
30.0812 8361 91.4385
30.1987 8564 92.5419
30.3162 8585 92.6553
30.4337 8602 92.747
30.5512 8632 92.9086
30.6687 8488 92.1303
30.7862 8800 93.8083
30.9037 9003 94.8841
31.0212 9221 96.026
31.1387 9093 95.3572
31.2562 8889 94.2815
31.3737 8929 94.4934
31.4912 8762 93.6056
31.6087 8618 92.8332
31.7262 8435 91.8423
31.8436 8505 92.2226
31.9611 8547 92.45
32.0785 8377 91.526
32.1959 8727 93.4184
32.3134 8905 94.3663
32.4308 8763 93.6109
32.5482 8761 93.6002
32.6655 8574 92.5959
32.7829 8741 93.4933
32.9002 8357 91.4166
33.0176 8525 92.3309
33.1349 8234 90.7414
33.2522 8422 91.7715
33.3694 8400 91.6515
33.4867 8363 91.4494
33.6039 8470 92.0326
33.7211 8498 92.1846
33.8383 8585 92.6553
33.9554 8591 92.6876
34.0725 8565 92.5473
34.1896 8531 92.3634
34.3067 8803 93.8243
34.4237 9080 95.289
34.5407 9024 94.9947
34.6577 9215 95.9948
34.7746 9173 95.7758
34.8915 9165 95.734
35.0084 9181 95.8175
35.1252 8883 94.2497
35.242 8854 94.0957
35.3587 8913 94.4087
35.4755 8861 94.1329
35.5921 8612 92.8009
35.7088 8681 93.1719
35.8254 8720 93.3809
35.9419 8538 92.4013
36.0584 8539 92.4067
36.1749 8617 92.8278
36.2913 8304 91.1263
36.4077 8064 89.7998
36.524 7585 87.0919
36.6403 7127 84.4216
36.7565 6559 80.9877
36.8727 6098 78.0897
36.9889 5667 75.2795
37.1049 5207 72.1595
37.221 0 1
37.3369 0 1
37.4529 0 1
37.5687 0 1
37.6845 0 1
37.8003 0 1
37.916 0 1
38.0316 0 1
38.1472 0 1
40.5851 0 1
40.7008 0 1
40.8164 0 1
40.9322 0 1
41.048 0 1
41.1639 0 1
41.2798 0 1
41.3958 0 1
41.5118 0 1
41.6279 0 1
41.744 4508 67.1416
41.8602 5545 74.4648
41.9765 6328 79.5487
42.0928 7084 84.1665
42.2091 7496 86.5794
42.3255 8316 91.1921
42.4419 8704 93.2952
42.5584 8985 94.7892
42.675 9430 97.1082
42.7915 9436 97.1391
42.9081 9252 96.1873
43.0248 9404 96.9742
43.1415 9968 99.8399
43.2582 10351 101.74
43.375 10827 104.053
43.4918 11253 106.08
43.6087 11674 108.046
43.7256 11854 108.876
43.8425 12091 109.959
43.9595 12252 110.689
44.0765 12352 111.14
44.1935 12466 111.651
44.3106 12527 111.924
44.4277 12879 113.486
44.5448 12569 112.112
44.6619 12592 112.214
44.7791 12592 112.214
44.8963 12798 113.128
45.0136 12705 112.716
45.1308 12739 112.867
45.2481 12468 111.66
45.3654 12632 112.392
45.4827 12501 111.808
45.6001 12238 110.625
45.7174 12139 110.177
45.8348 11922 109.188
45.9522 11681 108.079
46.0697 11824 108.738
46.1871 11374 106.649
46.3046 11251 106.071
46.422 10630 103.102
46.5395 10018 100.09
46.657 10255 101.267
46.7745 10787 103.86
46.892 11097 105.342
47.0096 11536 107.406
47.1271 11575 107.587
47.2446 11383 106.691
47.3622 11023 104.99
47.4797 11056 105.148
47.5973 10995 104.857
47.7149 10709 103.484
47.8324 10503 102.484
47.95 10319 101.582
48.0675 10155 100.772
48.1851 9722 98.6002
48.3027 9718 98.5799
48.4202 9582 97.8877
48.5378 9490 97.4166
48.6554 9543 97.6883
48.7729 9353 96.7109
48.8904 9664 98.3056
49.008 9190 95.8645
49.1255 9117 95.483
49.243 9236 96.1041
49.3605 9162 95.7183
49.478 9031 95.0316
49.5955 8838 94.0106
49.713 8910 94.3928
49.8304 8811 93.8669
49.9479 8726 93.4131
50.0653 8700 93.2738
50.1827 9111 95.4516
50.3001 9416 97.0361
50.4175 9629 98.1275
50.5348 10119 100.593
50.6521 10478 102.362
50.7694 10659 103.242
50.8867 10568 102.801
51.004 10635 103.126
51.1212 10303 101.504
51.2384 10681 103.349
51.3556 10470 102.323
51.4727 10334 101.656
51.5899 10001 100.005
51.707 10049 100.245
51.824 10004 100.02
51.9411 9984 99.92
52.0581 9592 97.9388
52.175 9790 98.9444
52.2919 9516 97.55
52.4088 9545 97.6985
52.5257 9766 98.8231
52.6425 9552 97.7343
52.7593 9066 95.2155
52.876 8973 94.7259
52.9927 9058 95.1735
53.1094 9197 95.901
53.226 8868 94.1701
53.3426 8464 92
53.4591 8196 90.5318
53.5756 7830 88.4873
53.692 7514 86.6833
53.8084 7335 85.6446
53.9248 6975 83.5165
54.0411 6576 81.0925
54.1573 6180 78.613
54.2735 0 1
54.3896 0 1
54.5057 0 1
54.6217 0 1
54.7377 0 1
54.8537 0 1
54.9695 0 1
55.0853 0 1
55.2011 0 1
55.3168 0 1
55.4324 0 1
57.824 0 1
57.9396 0 1
58.0553 0 1
58.1711 0 1
58.2869 0 1
58.4028 0 1
58.5187 0 1
58.6347 0 1
58.7508 0 1
58.8669 0 1
58.983 8163 90.3493
59.0992 9161 95.7131
59.2155 10360 101.784
59.3318 11264 106.132
59.4482 12187 110.395
59.5646 13072 114.333
59.681 13397 115.745
59.7975 13683 116.974
59.9141 13740 117.218
60.0306 13620 116.705
60.1473 13476 116.086
60.2639 13539 116.357
60.3807 13499 116.185
60.4974 13485 116.125
60.6142 13197 114.878
60.731 13099 114.451
60.8479 13222 114.987
60.9648 13035 114.171
61.0818 13099 114.451
61.1987 13003 114.031
61.3158 13144 114.647
61.4328 13055 114.258
61.5499 13161 114.721
61.667 13122 114.551
61.7841 13034 114.167
61.9013 12582 112.17
62.0185 12441 111.539
62.1357 12812 113.19
62.253 12978 113.921
62.3702 13338 115.49
62.4875 13907 117.928
62.6049 14296 119.566
62.7222 14950 122.27
62.8396 15212 123.337
62.9569 15945 126.274
63.0743 15867 125.964
63.1918 15748 125.491
63.3092 15670 125.18
63.4267 15538 124.652
63.5441 15068 122.752
63.6616 14889 122.02
63.7791 14323 119.679
63.8966 14445 120.187
64.0142 14318 119.658
64.1317 14159 118.992
64.2492 13686 116.987
64.3668 13490 116.146
64.4843 13300 115.326
64.6019 13062 114.289
64.7195 13225 115
64.837 13160 114.717
64.9546 13191 114.852
65.0722 13262 115.161
65.1898 13357 115.572
65.3074 13199 114.887
65.4249 13056 114.263
65.5425 12870 113.446
65.6601 12922 113.675
65.7777 12996 114
65.8952 13421 115.849
66.0128 14037 118.478
66.1304 14570 120.706
66.2479 14961 122.315
66.3655 15629 125.016
66.483 16102 126.894
66.6005 16559 128.682
66.718 16544 128.623
66.8355 16119 126.961
66.953 16159 127.118
67.0705 15754 125.515
67.1879 15437 124.246
67.3054 14784 121.589
67.4228 14540 120.582
67.5402 14521 120.503
67.6576 14132 118.878
67.7749 13766 117.329
67.8923 13656 116.859
68.0096 13720 117.132
68.1269 13508 116.224
68.2442 13454 115.991
68.3614 13813 117.529
68.4787 14039 118.486
68.5958 13832 117.61
68.713 13712 117.098
68.8302 13690 117.004
68.9473 13352 115.551
69.0643 13029 114.145
69.1814 12788 113.084
69.2984 12401 111.36
69.4154 12501 111.808
69.5323 12965 113.864
69.6492 13583 116.546
69.7661 13948 118.102
69.8829 14218 119.239
69.9997 14550 120.623
70.1165 14318 119.658
70.2332 14392 119.967
70.3499 13725 117.154
70.4665 12918 113.657
70.5831 11981 109.458
70.6996 11006 104.909
70.8161 10030 100.15
70.9326 9138 95.5929
71.049 8302 91.1153
71.1653 7677 87.6185
71.2817 7384 85.9302
71.3979 7058 84.0119
71.5141 6519 80.7403
71.6303 5947 77.1168
71.7464 5270 72.5948
71.8624 0 1
71.9784 0 1
72.0944 0 1
72.2102 0 1
72.3261 0 1
72.4418 0 1
72.5575 0 1
72.6732 0 1
75.1054 0 1
75.2209 0 1
75.3365 0 1
75.4521 0 1
75.5678 0 1
75.6835 0 1
75.7993 0 1
75.9151 0 1
76.031 0 1
76.147 11063 105.181
76.263 11984 109.471
76.3791 12176 110.345
76.4952 12324 111.014
76.6113 12185 110.386
76.7276 12308 110.941
76.8438 12729 112.823
76.9601 12914 113.64
77.0765 12829 113.265
77.1929 13170 114.761
77.3093 13513 116.245
77.4258 13698 117.038
77.5423 13720 117.132
77.6589 13522 116.284
77.7755 13737 117.205
77.8921 13511 116.237
78.0088 13011 114.066
78.1256 12522 111.902
78.2423 12205 110.476
78.3591 12086 109.936
78.4759 12639 112.423
78.5928 13637 116.778
78.7097 14431 120.129
78.8266 15173 123.179
78.9436 15460 124.338
79.0606 15810 125.738
79.1776 15931 126.218
79.2946 16821 129.696
79.4117 17210 131.187
79.5288 17142 130.927
79.6459 16894 129.977
79.7631 16412 128.109
79.8802 15640 125.06
79.9974 15370 123.976
80.1147 14851 121.865
80.2319 14845 121.84
80.3491 14753 121.462
80.4664 14875 121.963
80.5837 14991 122.438
80.701 14562 120.673
80.8183 14700 121.244
80.9357 14987 122.421
81.053 15579 124.816
81.1704 15483 124.431
81.2877 15570 124.78
81.4051 15225 123.39
81.5225 15258 123.523
81.6399 14986 122.417
81.7573 14059 118.571
81.8747 13748 117.252
81.9922 13305 115.347
82.1096 13713 117.103
82.227 14667 121.107
82.3444 16130 127.004
82.4619 16842 129.777
82.5793 17442 132.068
82.6967 17216 131.21
82.8142 18132 134.655
82.9316 18565 136.253
83.049 18870 137.368
83.1664 18671 136.642
83.2838 18471 135.908
83.4012 17726 133.139
83.5186 17284 131.469
83.636 16793 129.588
83.7534 16303 127.683
83.8708 16236 127.421
83.9881 16484 128.39
84.1055 16353 127.879
84.2228 16511 128.495
84.3401 16768 129.491
84.4575 16634 128.973
84.5747 16798 129.607
84.692 17396 131.894
84.8093 17706 133.064
84.9265 17354 131.735
85.0437 17023 130.472
85.1609 16503 128.464
85.2781 15601 124.904
85.3952 15063 122.731
85.5123 14383 119.929
85.6294 14269 119.453
85.7465 15094 122.858
85.8636 16506 128.476
85.9806 17505 132.306
86.0976 18180 134.833
86.2145 18450 135.831
86.3315 18710 136.785
86.4484 19355 139.122
86.5652 19639 140.139
86.682 19735 140.481
86.7988 19834 140.833
86.9156 19267 138.806
87.0323 18784 137.055
87.149 18170 134.796
87.2657 17774 133.319
87.3823 17079 130.687
87.4988 16518 128.522
87.6154 16000 126.491
87.7318 15436 124.242
87.8483 14374 119.892
87.9647 13501 116.194
88.081 12604 112.268
88.1973 11958 109.353
88.3136 11463 107.065
88.4298 10664 103.267
88.546 9730 98.6408
88.6621 8904 94.361
88.7781 8225 90.6918
88.8942 0 1
89.0101 0 1
89.126 0 1
89.2419 0 1
89.3577 0 1
89.4734 0 1
89.5891 0 1
89.7047 0 1
89.8203 0 1
89.9358 0 1
92.3269 0 1
92.4424 0 1
92.558 0 1
92.6736 0 1
92.7893 0 1
92.905 0 1
93.0208 0 1
93.1366 0 1
93.2525 0 1
93.3685 0 1
93.4845 0 1
93.6005 15540 124.66
93.7167 17355 131.738
93.8328 18921 137.554
93.949 19792 140.684
94.0653 20372 142.731
94.1816 20611 143.565
94.2979 20114 141.824
94.4143 19327 139.022
94.5307 18328 135.381
94.6472 17637 132.804
94.7637 17223 131.236
94.8803 17557 132.503
94.9969 18887 137.43
95.1135 19882 141.004
95.2302 20891 144.537
95.3469 21783 147.591
95.4637 22694 150.645
95.5805 23087 151.944
95.6973 23365 152.856
95.8142 23520 153.362
95.9311 23550 153.46
96.048 23616 153.675
96.1649 23533 153.405
96.2819 23075 151.905
96.3989 22044 148.472
96.516 21644 147.119
96.633 21706 147.33
96.7501 21662 147.18
96.8673 21330 146.048
96.9844 21570 146.867
97.1016 21593 146.946
97.2188 21688 147.268
97.336 21685 147.258
97.4532 22467 149.89
97.5704 22655 150.516
97.6877 23093 151.964
97.805 22933 151.436
97.9223 22516 150.053
98.0396 21087 145.214
98.1569 20020 141.492
98.2743 19184 138.506
98.3916 18266 135.152
98.509 18363 135.51
98.6264 19382 139.219
98.7438 20976 144.831
98.8612 21919 148.051
98.9786 23477 153.222
99.096 24236 155.679
99.2134 24588 156.806
99.3308 25355 159.233
99.4482 25956 161.109
99.5656 25974 161.165
99.6831 25728 160.4
99.8005 25296 159.047
99.9179 24804 157.493
100.035 23840 154.402
100.153 23586 153.577
100.27 23335 152.758
100.388 23170 152.217
100.505 22967 151.549
100.622 22813 151.04
100.74 22707 150.688
100.857 22575 150.25
100.975 22825 151.079
101.092 23813 154.315
101.209 24280 155.82
101.327 24504 156.538
101.444 24006 154.939
101.561 23273 152.555
101.679 21910 148.02
101.796 20412 142.871
101.913 19083 138.141
102.03 18866 137.354
102.148 19902 141.074
102.265 21201 145.606
102.382 23084 151.934
102.499 24323 155.958
102.616 25385 159.327
102.733 25418 159.43
102.851 26003 161.254
102.968 26395 162.465
103.085 26411 162.515
103.202 26782 163.652
103.319 26325 162.25
103.436 25356 159.236
103.552 24866 157.69
103.669 24175 155.483
103.786 23931 154.696
103.903 23465 153.183
104.02 23287 152.601
104.137 23101 151.99
104.253 22488 149.96
104.37 23149 152.148
104.487 22924 151.407
104.603 23180 152.25
104.72 23202 152.322
104.836 22474 149.913
104.953 21031 145.021
105.069 19495 139.624
105.186 17258 131.37
105.302 15701 125.304
105.418 14152 118.962
105.535 12778 113.04
105.651 11799 108.623
105.767 11501 107.243
105.883 11219 105.92
105.999 10926 104.528
106.115 0 1
106.231 0 1
106.347 0 1
106.463 0 1
106.579 0 1
106.694 0 1
106.81 0 1
106.926 0 1
107.041 0 1
107.157 0 1
109.576 0 1
109.692 0 1
109.807 0 1
109.923 0 1
110.039 0 1
110.155 0 1
110.27 0 1
110.386 0 1
110.502 0 1
110.618 10559 102.757
110.735 13073 114.337
110.851 15328 123.806
110.967 17801 133.42
111.083 19908 141.096
111.199 21343 146.092
111.316 22186 148.95
111.432 22612 150.373
111.549 23365 152.856
111.665 23400 152.971
111.782 23157 152.174
111.898 23356 152.827
112.015 22612 150.373
112.132 22307 149.355
112.248 21620 147.037
112.365 21703 147.319
112.482 21237 145.729
112.599 21783 147.591
112.716 21315 145.997
112.832 20930 144.672
112.949 20842 144.368
113.066 21108 145.286
113.183 21477 146.55
113.3 21806 147.669
113.417 21889 147.949
113.534 21740 147.445
113.652 20920 144.637
113.769 19964 141.294
113.886 18632 136.499
114.003 17700 133.041
114.12 17064 130.629
114.238 17555 132.495
114.355 18446 135.816
114.472 19115 138.257
114.589 22351 149.503
114.707 23183 152.26
114.824 23272 152.552
114.942 23568 153.519
115.059 23919 154.658
115.176 23781 154.211
115.294 23729 154.042
115.411 23245 152.463
115.529 22550 150.167
115.646 22472 149.907
115.764 21792 147.621
115.881 21639 147.102
115.999 21000 144.914
116.116 20790 144.187
116.234 20365 142.706
116.351 20003 141.432
116.469 20071 141.672
116.586 20018 141.485
116.704 20473 143.084
116.821 20726 143.965
116.939 21105 145.276
117.056 21093 145.234
117.174 20589 143.489
117.291 19754 140.549
117.409 18887 137.43
117.526 17873 133.69
117.644 16826 129.715
117.761 16793 129.588
117.879 17386 131.856
117.996 18513 136.062
118.114 19985 141.368
118.231 21805 147.665
118.349 22256 149.184
118.466 22610 150.366
118.584 22592 150.306
118.701 22722 150.738
118.819 22587 150.29
118.936 22036 148.445
119.053 22145 148.812
119.171 21395 146.27
119.288 20738 144.007
119.405 20512 143.22
119.523 19987 141.375
119.64 19677 140.275
119.757 19632 140.114
119.875 18725 136.839
119.992 18780 137.04
120.109 18644 136.543
120.226 18386 135.595
120.343 18754 136.945
120.46 19115 138.257
120.578 19348 139.097
120.695 19177 138.481
120.812 18803 137.124
120.929 18137 134.674
121.046 17233 131.275
121.163 16232 127.405
121.279 15074 122.776
121.396 14432 120.133
121.513 14414 120.058
121.63 14502 120.424
121.747 15281 123.616
121.863 15903 126.107
121.98 16310 127.711
122.097 16154 127.098
122.213 15314 123.75
122.33 14721 121.33
122.446 13971 118.199
122.563 12989 113.969
122.679 12261 110.729
122.795 11652 107.944
122.912 11075 105.238
123.028 10235 101.168
123.144 9298 96.4261
123.26 8765 93.6216
123.377 0 1
123.493 0 1
123.609 0 1
123.725 0 1
123.84 0 1
123.956 0 1
124.072 0 1
124.188 0 1
124.303 0 1
124.419 0 1
126.852 0 1
126.968 0 1
127.083 0 1
127.199 0 1
127.315 0 1
127.431 0 1
127.547 0 1
127.663 0 1
127.779 0 1
127.895 0 1
128.011 0 1
128.127 0 1
128.243 0 1
128.359 19390 139.248
128.476 19362 139.147
128.592 19623 140.082
128.708 19092 138.174
128.825 18795 137.095
128.941 18527 136.114
129.058 18505 136.033
129.174 18332 135.396
129.291 18504 136.029
129.408 18819 137.182
129.524 18818 137.179
129.641 19339 139.065
129.758 19078 138.123
129.875 18635 136.51
129.992 18496 136
130.108 17875 133.697
130.225 16850 129.808
130.342 16002 126.499
130.459 15303 123.705
130.576 15751 125.503
130.693 16432 128.187
130.81 17679 132.962
130.928 18450 135.831
131.045 19815 140.766
131.162 19733 140.474
131.279 20235 142.25
131.396 20370 142.724
131.513 20172 142.028
131.631 19881 141
131.748 19967 141.305
131.865 19531 139.753
131.983 19717 140.417
132.1 19884 141.011
132.217 19317 138.986
132.335 18729 136.854
132.452 18512 136.059
132.57 18644 136.543
132.687 18939 137.619
132.804 18686 136.697
132.922 18719 136.817
133.039 18686 136.697
133.157 19075 138.112
133.274 18921 137.554
133.392 19144 138.362
133.509 18741 136.898
133.627 18708 136.777
133.744 18080 134.462
133.862 17301 131.533
133.979 16781 129.541
134.097 15928 126.206
134.214 16784 129.553
134.332 17590 132.627
134.449 19261 138.784
134.567 20201 142.13
134.684 20793 144.198
134.802 21139 145.393
134.919 21359 146.147
135.037 21460 146.492
135.154 21045 145.069
135.272 21124 145.341
135.389 21651 147.143
135.507 21642 147.112
135.624 21619 147.034
135.742 21548 146.792
135.859 21217 145.661
135.977 21039 145.048
136.094 20947 144.731
136.211 21052 145.093
136.329 20965 144.793
136.446 20988 144.872
136.564 20897 144.558
136.681 21136 145.382
136.798 21018 144.976
136.915 21303 145.955
137.033 20736 144
137.15 20811 144.26
137.267 20375 142.741
137.384 19589 139.961
137.502 18588 136.338
137.619 17427 132.011
137.736 17179 131.069
137.853 16640 128.996
137.97 18374 135.551
138.087 19175 138.474
138.204 20479 143.105
138.321 21059 145.117
138.438 21074 145.169
138.555 21336 146.068
138.672 20879 144.496
138.788 20405 142.846
138.905 19774 140.62
139.022 18625 136.473
139.139 18147 134.711
139.255 17513 132.337
139.372 16775 129.518
139.488 15519 124.575
139.605 14384 119.933
139.721 13705 117.068
139.838 12788 113.084
139.954 12232 110.598
140.071 11794 108.6
140.187 11185 105.759
140.303 10479 102.367
140.419 9943 99.7146
140.535 9414 97.0258
140.652 9073 95.2523
140.768 0 1
140.884 0 1
141 0 1
141.115 0 1
141.231 0 1
141.347 0 1
141.463 0 1
141.578 0 1
141.694 0 1
144.104 0 1
144.219 0 1
144.335 0 1
144.45 0 1
144.566 0 1
144.682 0 1
144.798 0 1
144.914 0 1
145.03 0 1
145.146 15064 122.735
145.262 15754 125.515
145.378 15856 125.921
145.494 15798 125.69
145.61 15773 125.591
145.726 15960 126.333
145.842 15947 126.281
145.959 15989 126.448
146.075 15600 124.9
146.192 15029 122.593
146.308 14798 121.647
146.425 14360 119.833
146.541 13748 117.252
146.658 13571 116.495
146.774 14141 118.916
146.891 14753 121.462
147.008 15574 124.796
147.125 16036 126.633
147.241 16862 129.854
147.358 16624 128.934
147.475 16520 128.53
147.592 16543 128.62
147.709 16472 128.343
147.826 16439 128.215
147.943 16574 128.74
148.06 16600 128.841
148.177 16492 128.421
148.294 16621 128.922
148.411 16653 129.047
148.528 16234 127.413
148.645 16330 127.789
148.762 16161 127.126
148.88 16090 126.846
148.997 16304 127.687
149.114 15554 124.716
149.231 15906 126.119
149.349 16169 127.157
149.466 15883 126.028
149.583 15930 126.214
149.701 15926 126.198
149.818 15607 124.928
149.935 15392 124.064
150.053 14684 121.178
150.17 14136 118.895
150.287 14154 118.971
150.405 13994 118.296
150.522 14532 120.549
150.64 15497 124.487
150.757 16056 126.712
150.875 16515 128.511
150.992 16633 128.969
151.11 16538 128.6
151.227 16264 127.53
151.344 16187 127.228
151.462 16289 127.628
151.579 16650 129.035
151.697 16457 128.285
151.814 16612 128.888
151.932 16538 128.6
152.049 16208 127.311
152.167 16193 127.252
152.284 15915 126.155
152.402 15633 125.032
152.519 15554 124.716
152.636 15444 124.274
152.754 15559 124.736
152.871 15537 124.648
152.989 15116 122.947
153.106 15231 123.414
153.223 15234 123.426
153.341 15174 123.183
153.458 14961 122.315
153.575 14358 119.825
153.693 13901 117.903
153.81 13341 115.503
153.927 13398 115.75
154.044 13735 117.196
154.162 14190 119.122
154.279 15052 122.687
154.396 15773 125.591
154.513 15879 126.012
154.63 16127 126.992
154.747 15966 126.357
154.864 15702 125.308
154.981 15558 124.732
155.098 15616 124.964
155.215 15490 124.459
155.332 15577 124.808
155.449 15137 123.033
155.566 14796 121.639
155.683 14695 121.223
155.8 14549 120.619
155.917 13966 118.178
156.033 13677 116.949
156.15 0 1
156.267 0 1
156.383 0 1
156.5 0 1
156.617 0 1
156.733 0 1
156.85 0 1
156.966 0 1
157.082 0 1
157.199 0 1
157.315 0 1
157.431 0 1
157.547 0 1
157.664 0 1
157.78 0 1
157.896 0 1
158.012 0 1
158.128 0 1
158.244 0 1
158.359 0 1
158.475 0 1
158.591 0 1
158.706 0 1
