
6.15755 0 1
6.2731 0 1
6.3887 0 1
6.50437 0 1
6.62009 0 1
6.73587 0 1
6.8517 0 1
6.96759 0 1
7.08353 0 1
7.19952 0 1
7.31557 0 1
7.43166 0 1
7.54781 0 1
7.664 0 1
7.78024 0 1
7.89653 0 1
8.01286 0 1
8.12924 0 1
8.24567 0 1
8.36213 0 1
8.47864 0 1
8.59519 0 1
8.71178 0 1
8.82841 0 1
8.94508 0 1
9.06179 0 1
9.17853 0 1
9.29531 0 1
9.41212 0 1
9.52897 0 1
9.64584 0 1
9.76276 0 1
9.8797 0 1
9.99667 0 1
10.1137 0 1
10.2307 0 1
10.3478 0 1
10.4648 0 1
10.5819 0 1
10.6991 0 1
10.8162 0 1
10.9334 0 1
11.0506 0 1
11.1678 0 1
11.285 0 1
11.4023 0 1
11.5196 0 1
11.6369 0 1
11.7542 0 1
11.8715 0 1
11.9888 0 1
12.1062 0 1
12.2235 0 1
12.3409 0 1
12.4582 0 1
12.5756 0 1
12.693 0 1
12.8104 0 1
12.9278 0 1
13.0452 0 1
13.1626 0 1
13.28 0 1
13.3974 0 1
13.5149 0 1
13.6323 0 1
13.7497 0 1
13.8671 0 1
13.9845 0 1
14.1019 0 1
14.2193 0 1
14.3367 0 1
14.4541 0 1
14.5714 0 1
14.6888 0 1
14.8062 0 1
14.9235 0 1
15.0408 0 0
15.1581 0 0
15.2755 0 0
15.3927 0 0
15.51 0 0
15.6273 0 0
15.7445 0 0
15.8617 0 0
15.9789 0 0
16.0961 0 0
16.2132 0 0
16.3304 0 0
16.4475 0 0
16.5646 0 0
16.6816 0 0
16.7986 0 0
16.9156 0 0
17.0326 0 0
17.1496 0 0
17.2665 0 0
17.3833 0 0
17.5002 0 0
17.617 0 0
17.7338 0 0
17.8505 0 0
17.9672 0 0
18.0839 0 0
18.2005 0 0
18.3171 0 0
18.4337 0 0
18.5502 0 0
18.6666 0 0
18.7831 0 0
18.8994 0 0
19.0158 0 0
19.1321 0 0
19.2483 0 0
19.3645 0 0
19.4806 0 0
19.5967 0 0
19.7128 0 0
19.8288 0 0
19.9447 0 0
20.0606 0 1
20.1764 0 1
20.2922 0 1
20.4079 0 1
20.5236 0 1
20.6392 0 1
20.7548 0 1
20.8702 0 1
23.3078 0 1
23.4233 0 1
23.539 0 1
23.6547 0 1
23.7704 0 1
23.8862 0 1
24.0021 0 1
24.118 0 1
24.234 0 1
24.35 0 1
24.4661 5231 72.3257
24.5822 5486 74.0675
24.6984 5362 73.2257
24.8146 5199 72.1041
24.9309 5167 71.8818
25.0472 5246 72.4293
25.1636 5315 72.904
25.28 5476 74
25.3965 5703 75.5182
25.513 5734 75.7232
25.6296 6071 77.9166
25.7462 6168 78.5366
25.8628 6250 79.0569
25.9795 6271 79.1896
26.0962 6204 78.7655
26.213 6186 78.6511
26.3298 6040 77.7174
26.4466 5972 77.2787
26.5635 5585 74.7329
26.6804 5487 74.0743
26.7973 5398 73.4711
26.9143 5595 74.7997
27.0313 5704 75.5248
27.1483 5871 76.6225
27.2653 5970 77.2658
27.3824 6095 78.0705
27.4996 5993 77.4145
27.6167 5958 77.1881
27.7339 5802 76.1709
27.8511 5634 75.06
27.9683 5551 74.505
28.0855 5466 73.9324
28.2028 5286 72.7049
28.3201 5410 73.5527
28.4374 5127 71.6031
28.5547 5139 71.6868
28.6721 5098 71.4003
28.7894 5236 72.3602
28.9068 5391 73.4234
29.0242 5416 73.5935
29.1416 5693 75.452
29.259 5964 77.2269
29.3764 6130 78.2943
29.4939 6107 78.1473
29.6113 6009 77.5177
29.7288 6044 77.7432
29.8463 5909 76.87
29.9638 5751 75.8353
30.0812 5267 72.5741
30.1987 5293 72.753
30.3162 5074 71.232
30.4337 5265 72.5603
30.5512 5399 73.4779
30.6687 5624 74.9933
30.7862 5550 74.4983
30.9037 5778 76.0132
31.0212 5890 76.7463
31.1387 5833 76.3741
31.2562 5887 76.7268
31.3737 5842 76.433
31.4912 5577 74.6793
31.6087 5477 74.0068
31.7262 5331 73.0137
31.8436 5318 72.9246
31.9611 5196 72.0833
32.0785 5213 72.2011
32.1959 5271 72.6017
32.3134 5212 72.1942
32.4308 5398 73.4711
32.5482 5554 74.5252
32.6655 5726 75.6703
32.7829 5934 77.0325
32.9002 5993 77.4145
33.0176 6126 78.2688
33.1349 6116 78.2049
33.2522 5969 77.2593
33.3694 6013 77.5435
33.4867 5876 76.6551
33.6039 5547 74.4782
33.7211 5250 72.4569
33.8383 4947 70.3349
33.9554 4918 70.1285
34.0725 5149 71.7565
34.1896 5264 72.5534
34.3067 5221 72.2565
34.4237 5420 73.6206
34.5407 5529 74.3572
34.6577 5718 75.6175
34.7746 5796 76.1315
34.8915 5690 75.4321
35.0084 5703 75.5182
35.1252 5604 74.8599
35.242 5651 75.1731
35.3587 5309 72.8629
35.4755 5297 72.7805
35.5921 5225 72.2842
35.7088 5141 71.7008
35.8254 5035 70.9577
35.9419 5183 71.9931
36.0584 5242 72.4017
36.1749 5296 72.7736
36.2913 5380 73.3485
36.4077 5591 74.773
36.524 5870 76.6159
36.6403 5750 75.8288
36.7565 5928 76.9935
36.8727 5784 76.0526
36.9889 5872 76.629
37.1049 5591 74.773
37.221 0 1
37.3369 0 1
37.4529 0 1
37.5687 0 1
37.6845 0 1
37.8003 0 1
37.916 0 1
38.0316 0 1
38.1472 0 1
40.5851 0 1
40.7008 0 1
40.8164 0 1
40.9322 0 1
41.048 0 1
41.1639 0 1
41.2798 0 1
41.3958 0 1
41.5118 0 1
41.6279 0 1
41.744 4551 67.4611
41.8602 4674 68.3667
41.9765 4737 68.8259
42.0928 4949 70.3491
42.2091 4738 68.8331
42.3255 4533 67.3276
42.4419 4210 64.8845
42.5584 3953 62.8729
42.675 3816 61.7738
42.7915 3872 62.2254
42.9081 4134 64.2962
43.0248 4414 66.4379
43.1415 4344 65.909
43.2582 4617 67.9485
43.375 4527 67.283
43.4918 4564 67.5574
43.6087 4678 68.3959
43.7256 4485 66.9701
43.8425 4478 66.9179
43.9595 4333 65.8255
44.0765 4197 64.7843
44.1935 4012 63.3404
44.3106 3982 63.1031
44.4277 3730 61.0737
44.5448 3654 60.4483
44.6619 3562 59.6825
44.7791 3578 59.8164
44.8963 3720 60.9918
45.0136 3871 62.2174
45.1308 3985 63.1269
45.2481 3996 63.2139
45.3654 4008 63.3088
45.4827 3999 63.2376
45.6001 3879 62.2816
45.7174 3890 62.3699
45.8348 3790 61.563
45.9522 3558 59.649
46.0697 3287 57.3324
46.1871 3069 55.3986
46.3046 2976 54.5527
46.422 3083 55.5248
46.5395 3304 57.4804
46.657 3419 58.4722
46.7745 3491 59.0847
46.892 3579 59.8247
47.0096 3521 59.338
47.1271 3533 59.439
47.2446 3492 59.0931
47.3622 3359 57.9569
47.4797 3284 57.3062
47.5973 3220 56.745
47.7149 3006 54.827
47.8324 3028 55.0273
47.95 2846 53.3479
48.0675 2889 53.7494
48.1851 2640 51.3809
48.3027 2744 52.3832
48.4202 2937 54.1941
48.5378 2994 54.7175
48.6554 2949 54.3047
48.7729 3046 55.1906
48.8904 3047 55.1996
49.008 3177 56.3649
49.1255 3090 55.5878
49.243 3050 55.2268
49.3605 2999 54.7631
49.478 2667 51.643
49.5955 2454 49.5379
49.713 2355 48.5283
49.8304 2365 48.6313
49.9479 2589 50.8822
50.0653 2878 53.647
50.1827 3071 55.4166
50.3001 3047 55.1996
50.4175 3104 55.7136
50.5348 3356 57.931
50.6521 3300 57.4456
50.7694 3419 58.4722
50.8867 3340 57.7927
51.004 3385 58.1808
51.1212 3522 59.3464
51.2384 3443 58.6771
51.3556 3467 58.8812
51.4727 3339 57.7841
51.5899 3332 57.7235
51.707 3386 58.1893
51.824 3400 58.3095
51.9411 3601 60.0083
52.0581 3918 62.5939
52.175 4191 64.7379
52.2919 4289 65.4905
52.4088 4233 65.0615
52.5257 4405 66.3702
52.6425 4462 66.7982
52.7593 4414 66.4379
52.876 4326 65.7723
52.9927 4097 64.0078
53.1094 3830 61.887
53.226 3578 59.8164
53.3426 3383 58.1636
53.4591 3531 59.4222
53.5756 4006 63.293
53.692 4222 64.9769
53.8084 4534 67.335
53.9248 4674 68.3667
54.0411 4808 69.3397
54.1573 4897 69.9786
54.2735 0 1
54.3896 0 1
54.5057 0 1
54.6217 0 1
54.7377 0 1
54.8537 0 1
54.9695 0 1
55.0853 0 1
55.2011 0 1
55.3168 0 1
55.4324 0 1
57.824 0 1
57.9396 0 1
58.0553 0 1
58.1711 0 1
58.2869 0 1
58.4028 0 1
58.5187 0 1
58.6347 0 1
58.7508 0 1
58.8669 0 1
58.983 5433 73.7089
59.0992 5644 75.1266
59.2155 5902 76.8245
59.3318 5907 76.857
59.4482 5964 77.2269
59.5646 5969 77.2593
59.681 5940 77.0714
59.7975 5919 76.935
59.9141 5508 74.2159
60.0306 5322 72.952
60.1473 5300 72.8011
60.2639 5094 71.3723
60.3807 4864 69.7424
60.4974 5016 70.8237
60.6142 5072 71.218
60.731 5296 72.7736
60.8479 5371 73.2871
60.9648 5522 74.3102
61.0818 5694 75.4586
61.1987 5578 74.686
61.3158 5469 73.9527
61.4328 5163 71.854
61.5499 4899 69.9929
61.667 4674 68.3667
61.7841 4235 65.0769
61.9013 4131 64.2729
62.0185 4322 65.7419
62.1357 4420 66.4831
62.253 4719 68.695
62.3702 4894 69.9571
62.4875 5177 71.9514
62.6049 5159 71.8262
62.7222 5413 73.5731
62.8396 5379 73.3417
62.9569 5315 72.904
63.0743 5379 73.3417
63.1918 5419 73.6139
63.3092 5238 72.374
63.4267 5083 71.2952
63.5441 4916 70.1142
63.6616 4780 69.1375
63.7791 4455 66.7458
63.8966 4435 66.5958
64.0142 4533 67.3276
64.1317 4561 67.5352
64.2492 4773 69.0869
64.3668 4958 70.4131
64.4843 5002 70.7248
64.6019 5145 71.7287
64.7195 5112 71.4983
64.837 4960 70.4273
64.9546 4866 69.7567
65.0722 4464 66.8132
65.1898 4252 65.2074
65.3074 3865 62.1691
65.4249 3715 60.9508
65.5425 3612 60.0999
65.6601 3777 61.4573
65.7777 4131 64.2729
65.8952 4475 66.8954
66.0128 4536 67.3498
66.1304 4731 68.7823
66.2479 4860 69.7137
66.3655 4890 69.9285
66.483 5068 71.1899
66.6005 5023 70.8731
66.718 4977 70.5479
66.8355 4925 70.1783
66.953 4999 70.7036
67.0705 4868 69.7711
67.1879 4698 68.542
67.3054 4496 67.0522
67.4228 4285 65.4599
67.5402 4221 64.9692
67.6576 4226 65.0077
67.7749 4493 67.0298
67.8923 4824 69.455
68.0096 4994 70.6682
68.1269 5110 71.4843
68.2442 5227 72.298
68.3614 5248 72.4431
68.4787 5224 72.2772
68.5958 5058 71.1196
68.713 4932 70.2282
68.8302 4629 68.0368
68.9473 4312 65.6658
69.0643 4266 65.3146
69.1814 4257 65.2457
69.2984 4712 68.644
69.4154 5023 70.8731
69.5323 5546 74.4715
69.6492 5843 76.4395
69.7661 6189 78.6702
69.8829 6600 81.2404
69.9997 6782 82.3529
70.1165 6778 82.3286
70.2332 6841 82.7103
70.3499 7045 83.9345
70.4665 7069 84.0773
70.5831 7253 85.1645
70.6996 7154 84.5813
70.8161 6735 82.067
70.9326 6711 81.9207
71.049 6554 80.9568
71.1653 6237 78.9747
71.2817 6379 79.8686
71.3979 6651 81.5537
71.5141 6785 82.3711
71.6303 7139 84.4926
71.7464 6820 82.5833
71.8624 0 1
71.9784 0 1
72.0944 0 1
72.2102 0 1
72.3261 0 1
72.4418 0 1
72.5575 0 1
72.6732 0 1
75.1054 0 1
75.2209 0 1
75.3365 0 1
75.4521 0 1
75.5678 0 1
75.6835 0 1
75.7993 0 1
75.9151 0 1
76.031 0 1
76.147 7046 83.9405
76.263 7350 85.7321
76.3791 7005 83.6959
76.4952 6558 80.9815
76.6113 6681 81.7374
76.7276 6846 82.7406
76.8438 7406 86.0581
76.9601 7543 86.8504
77.0765 7429 86.1916
77.1929 7587 87.1034
77.3093 7513 86.6776
77.4258 7416 86.1162
77.5423 6900 83.0662
77.6589 6302 79.3851
77.7755 5609 74.8933
77.8921 5122 71.5681
78.0088 4624 68
78.1256 4284 65.4523
78.2423 4192 64.7457
78.3591 4659 68.2569
78.4759 4954 70.3847
78.5928 5272 72.6085
78.7097 5641 75.1066
78.8266 5593 74.7864
78.9436 5711 75.5712
79.0606 5780 76.0263
79.1776 5751 75.8353
79.2946 5692 75.4453
79.4117 5465 73.9256
79.5288 5592 74.7797
79.6459 5361 73.2189
79.7631 5123 71.5751
79.8802 4844 69.5989
79.9974 4470 66.8581
80.1147 4291 65.5057
80.2319 4180 64.6529
80.3491 4327 65.7799
80.4664 4511 67.164
80.5837 4911 70.0785
80.701 4890 69.9285
80.8183 4876 69.8284
80.9357 4969 70.4911
81.053 4951 70.3633
81.1704 4886 69.8999
81.2877 4670 68.3374
81.4051 4148 64.405
81.5225 3908 62.514
81.6399 3588 59.8999
81.7573 3195 56.5243
81.8747 3218 56.7274
81.9922 3416 58.4466
82.1096 3900 62.45
82.227 4119 64.1794
82.3444 4275 65.3835
82.4619 4550 67.4537
82.5793 4730 68.775
82.6967 4386 66.2269
82.8142 4735 68.8113
82.9316 4652 68.2056
83.049 4736 68.8186
83.1664 4673 68.3593
83.2838 4713 68.6513
83.4012 4484 66.9627
83.5186 4173 64.5988
83.636 3954 62.8808
83.7534 3959 62.9206
83.8708 3837 61.9435
83.9881 3998 63.2297
84.1055 4248 65.1767
84.2228 4463 66.8057
84.3401 4786 69.1809
84.4575 4804 69.3109
84.5747 4875 69.8212
84.692 4817 69.4046
84.8093 4858 69.6994
84.9265 4407 66.3852
85.0437 4018 63.3877
85.1609 3800 61.6441
85.2781 3547 59.5567
85.3952 3537 59.4727
85.5123 3680 60.663
85.6294 4179 64.6452
85.7465 4480 66.9328
85.8636 4947 70.3349
85.9806 5231 72.3257
86.0976 5276 72.6361
86.2145 5669 75.2928
86.3315 5718 75.6175
86.4484 6015 77.5564
86.5652 6038 77.7046
86.682 6029 77.6466
86.7988 6036 77.6917
86.9156 5949 77.1298
87.0323 5966 77.2399
87.149 5629 75.0267
87.2657 5374 73.3076
87.3823 5003 70.7319
87.4988 5381 73.3553
87.6154 5661 75.2396
87.7318 5967 77.2464
87.8483 6195 78.7083
87.9647 6280 79.2465
88.081 6532 80.8208
88.1973 6410 80.0625
88.3136 6372 79.8248
88.4298 6041 77.7239
88.546 5565 74.5989
88.6621 4968 70.484
88.7781 4776 69.1086
88.8942 0 1
89.0101 0 1
89.126 0 1
89.2419 0 1
89.3577 0 1
89.4734 0 1
89.5891 0 1
89.7047 0 1
89.8203 0 1
89.9358 0 1
92.3269 0 1
92.4424 0 1
92.558 0 1
92.6736 0 1
92.7893 0 1
92.905 0 1
93.0208 0 1
93.1366 0 1
93.2525 0 1
93.3685 0 1
93.4845 0 1
93.6005 5943 77.0909
93.7167 5837 76.4003
93.8328 5559 74.5587
93.949 5208 72.1665
94.0653 4692 68.4982
94.1816 4317 65.7039
94.2979 3957 62.9047
94.4143 3868 62.1932
94.5307 3997 63.2218
94.6472 4386 66.2269
94.7637 4650 68.1909
94.8803 5090 71.3442
94.9969 5272 72.6085
95.1135 5300 72.8011
95.2302 5560 74.5654
95.3469 5649 75.1598
95.4637 5669 75.2928
95.5805 5760 75.8947
95.6973 5808 76.2102
95.8142 5743 75.7826
95.9311 5592 74.7797
96.048 5538 74.4177
96.1649 5391 73.4234
96.2819 5078 71.2601
96.3989 4891 69.9357
96.516 4800 69.282
96.633 4888 69.9142
96.7501 5056 71.1056
96.8673 5245 72.4224
96.9844 5508 74.2159
97.1016 5488 74.081
97.2188 5588 74.7529
97.336 5399 73.4779
97.4532 5348 73.13
97.5704 5116 71.5262
97.6877 4775 69.1014
97.805 4292 65.5134
97.9223 4074 63.8279
98.0396 3806 61.6928
98.1569 3766 61.3677
98.2743 4116 64.1561
98.3916 4362 66.0454
98.509 4737 68.8259
98.6264 4940 70.2851
98.7438 5312 72.8835
98.8612 5360 73.212
98.9786 5532 74.3774
99.096 5697 75.4785
99.2134 5785 76.0592
99.3308 5687 75.4122
99.4482 5793 76.1118
99.5656 5647 75.1465
99.6831 5642 75.1132
99.8005 5394 73.4439
99.9179 5184 72
100.035 4894 69.9571
100.153 4844 69.5989
100.27 4911 70.0785
100.388 5407 73.5323
100.505 5499 74.1552
100.622 5639 75.0933
100.74 5752 75.8419
100.857 5628 75.02
100.975 5474 73.9865
101.092 5466 73.9324
101.209 5008 70.7672
101.327 4616 67.9412
101.444 4366 66.0757
101.561 4097 64.0078
101.679 3914 62.562
101.796 3947 62.8252
101.913 4388 66.242
102.03 4789 69.2026
102.148 5132 71.638
102.265 5732 75.71
102.382 5076 71.2461
102.499 5583 74.7195
102.616 5922 76.9545
102.733 5741 75.7694
102.851 5937 77.0519
102.968 6109 78.1601
103.085 5792 76.1052
103.202 5807 76.2037
103.319 5726 75.6703
103.436 5496 74.135
103.552 5291 72.7393
103.669 5121 71.5612
103.786 5444 73.7835
103.903 5699 75.4917
104.02 5905 76.844
104.137 5920 76.9415
104.253 6185 78.6448
104.37 5852 76.4984
104.487 5982 77.3434
104.603 5948 77.1233
104.72 5534 74.3909
104.836 4977 70.5479
104.953 4610 67.897
105.069 4339 65.8711
105.186 4191 64.7379
105.302 4348 65.9394
105.418 4813 69.3758
105.535 5169 71.8958
105.651 5548 74.4849
105.767 5728 75.6836
105.883 6018 77.5758
105.999 6158 78.4729
106.115 0 1
106.231 0 1
106.347 0 1
106.463 0 1
106.579 0 1
106.694 0 1
106.81 0 1
106.926 0 1
107.041 0 1
107.157 0 1
109.576 0 1
109.692 0 1
109.807 0 1
109.923 0 1
110.039 0 1
110.155 0 1
110.27 0 1
110.386 0 1
110.502 0 1
110.618 5213 72.2011
110.735 5404 73.5119
110.851 5838 76.4068
110.967 5950 77.1362
111.083 6054 77.8075
111.199 6182 78.6257
111.316 6199 78.7337
111.432 6338 79.6116
111.549 6401 80.0062
111.665 6261 79.1265
111.782 6062 77.8588
111.898 5897 76.7919
112.015 5492 74.108
112.132 5439 73.7496
112.248 5334 73.0342
112.365 5556 74.5386
112.482 5856 76.5245
112.599 5911 76.883
112.716 5977 77.3111
112.832 6131 78.3007
112.949 6088 78.0256
113.066 5764 75.921
113.183 5568 74.619
113.3 5238 72.374
113.417 4634 68.0735
113.534 4626 68.0147
113.652 4118 64.1716
113.769 4018 63.3877
113.886 4232 65.0538
114.003 4524 67.2607
114.12 4869 69.7782
114.238 5115 71.5192
114.355 5435 73.7225
114.472 5846 76.4591
114.589 5442 73.7699
114.707 5760 75.8947
114.824 5977 77.3111
114.942 5940 77.0714
115.059 5945 77.1038
115.176 5939 77.0649
115.294 5898 76.7984
115.411 5861 76.5572
115.529 5657 75.213
115.646 5302 72.8148
115.764 5212 72.1942
115.881 5363 73.2325
115.999 5570 74.6324
116.116 5789 76.0855
116.234 5942 77.0844
116.351 5984 77.3563
116.469 5877 76.6616
116.586 5914 76.9025
116.704 5812 76.2365
116.821 5494 74.1215
116.939 5109 71.4773
117.056 4779 69.1303
117.174 4462 66.7982
117.291 4154 64.4515
117.409 4199 64.7997
117.526 4432 66.5733
117.644 4767 69.0435
117.761 5029 70.9154
117.879 5343 73.0958
117.996 5541 74.4379
118.114 5800 76.1577
118.231 5953 77.1557
118.349 5880 76.6812
118.466 6115 78.1985
118.584 6170 78.5493
118.701 6078 77.9615
118.819 6048 77.7689
118.936 5922 76.9545
119.053 5795 76.1249
119.171 5685 75.3989
119.288 5433 73.7089
119.405 5466 73.9324
119.523 5446 73.797
119.64 5628 75.02
119.757 5947 77.1168
119.875 5875 76.6485
119.992 6001 77.4661
120.109 5940 77.0714
120.226 5794 76.1183
120.343 5925 76.974
120.46 5623 74.9867
120.578 5116 71.5262
120.695 4836 69.5414
120.812 4558 67.513
120.929 4371 66.1135
121.046 4252 65.2074
121.163 4434 66.5883
121.279 4820 69.4262
121.396 4830 69.4982
121.513 5303 72.8217
121.63 5583 74.7195
121.747 5660 75.233
121.863 5755 75.8617
121.98 5872 76.629
122.097 5990 77.3951
122.213 5981 77.3369
122.33 6055 77.8139
122.446 6110 78.1665
122.563 6022 77.6015
122.679 5853 76.5049
122.795 5790 76.092
122.912 5587 74.7462
123.028 5436 73.7292
123.144 5407 73.5323
123.26 5451 73.8309
123.377 0 1
123.493 0 1
123.609 0 1
123.725 0 1
123.84 0 1
123.956 0 1
124.072 0 1
124.188 0 1
124.303 0 1
124.419 0 1
126.852 0 1
126.968 0 1
127.083 0 1
127.199 0 1
127.315 0 1
127.431 0 1
127.547 0 1
127.663 0 1
127.779 0 1
127.895 0 1
128.011 0 1
128.127 0 1
128.243 0 1
128.359 6363 79.7684
128.476 6550 80.9321
128.592 6888 82.994
128.708 7088 84.1903
128.825 7188 84.7821
128.941 7259 85.1998
129.058 7419 86.1336
129.174 7194 84.8175
129.291 7106 84.2971
129.408 6802 82.4742
129.524 6361 79.7559
129.641 5908 76.8635
129.758 5689 75.4255
129.875 5354 73.171
129.992 5154 71.7914
130.108 5414 73.5799
130.225 5854 76.5114
130.342 6181 78.6193
130.459 6355 79.7183
130.576 6619 81.3572
130.693 6791 82.4075
130.81 6846 82.7406
130.928 6857 82.807
131.045 7024 83.8093
131.162 7110 84.3208
131.279 7224 84.9941
131.396 7230 85.0294
131.513 7123 84.3979
131.631 6923 83.2046
131.748 6728 82.0244
131.865 6528 80.796
131.983 6605 81.2712
132.1 6762 82.2314
132.217 7098 84.2496
132.335 7225 85
132.452 7261 85.2115
132.57 7171 84.6818
132.687 6880 82.9458
132.804 7337 85.6563
132.922 6870 82.8855
133.039 6362 79.7621
133.157 5994 77.4209
133.274 5867 76.5963
133.392 5595 74.7997
133.509 5336 73.0479
133.627 5271 72.6017
133.744 5538 74.4177
133.862 5772 75.9737
133.979 6102 78.1153
134.097 6301 79.3788
134.214 6502 80.635
134.332 6569 81.0494
134.449 6732 82.0488
134.567 6926 83.2226
134.684 6819 82.5772
134.802 7086 84.1784
134.919 7159 84.6109
135.037 6959 83.4206
135.154 6844 82.7285
135.272 6534 80.8332
135.389 6600 81.2404
135.507 6508 80.6722
135.624 6647 81.5291
135.742 6863 82.8432
135.859 7191 84.7998
135.977 7063 84.0417
136.094 7100 84.2615
136.211 7031 83.8511
136.329 7171 84.6818
136.446 7164 84.6404
136.564 6746 82.134
136.681 6286 79.2843
136.798 6278 79.2338
136.915 5700 75.4983
137.033 5709 75.5579
137.15 5367 73.2598
137.267 5372 73.2939
137.384 5682 75.379
137.502 5855 76.518
137.619 5970 77.2658
137.736 6052 77.7946
137.853 6092 78.0513
137.97 6408 80.05
138.087 6297 79.3536
138.204 6741 82.1036
138.321 6997 83.6481
138.438 7089 84.1962
138.555 7013 83.7437
138.672 7003 83.6839
138.788 6984 83.5703
138.905 6872 82.8975
139.022 6556 80.9691
139.139 6579 81.111
139.255 6829 82.6378
139.372 6936 83.2827
139.488 7137 84.4808
139.605 7172 84.6877
139.721 7263 85.2232
139.838 7266 85.2408
139.954 7380 85.9069
140.071 7191 84.7998
140.187 6994 83.6301
140.303 6477 80.4798
140.419 6344 79.6492
140.535 5961 77.2075
140.652 5765 75.9276
140.768 0 1
140.884 0 1
141 0 1
141.115 0 1
141.231 0 1
141.347 0 1
141.463 0 1
141.578 0 1
141.694 0 1
144.104 0 1
144.219 0 1
144.335 0 1
144.45 0 1
144.566 0 1
144.682 0 1
144.798 0 1
144.914 0 1
145.03 0 1
145.146 6364 79.7747
145.262 6401 80.0062
145.378 6154 78.4474
145.494 5851 76.4918
145.61 5747 75.809
145.726 5737 75.743
145.842 5328 72.9932
145.959 5455 73.858
146.075 5573 74.6525
146.192 5704 75.5248
146.308 6005 77.4919
146.425 6129 78.2879
146.541 6288 79.2969
146.658 6391 79.9437
146.774 6490 80.5605
146.891 6483 80.5171
147.008 6698 81.8413
147.125 6873 82.9036
147.241 6736 82.0731
147.358 6790 82.4015
147.475 6520 80.7465
147.592 6475 80.4674
147.709 6359 79.7433
147.826 6420 80.1249
147.943 6639 81.4801
148.06 6644 81.5107
148.177 6707 81.8963
148.294 6898 83.0542
148.411 6875 82.9156
148.528 6812 82.5348
148.645 6741 82.1036
148.762 6729 82.0305
148.88 6310 79.4355
148.997 6128 78.2815
149.114 6155 78.4538
149.231 5649 75.1598
149.349 5535 74.3976
149.466 5204 72.1388
149.583 5232 72.3326
149.701 5341 73.0821
149.818 5482 74.0405
149.935 5605 74.8665
150.053 5704 75.5248
150.17 5653 75.1864
150.287 5984 77.3563
150.405 6257 79.1012
150.522 6259 79.1138
150.64 6149 78.4156
150.757 6498 80.6102
150.875 6393 79.9562
150.992 6328 79.5487
151.11 6132 78.3071
151.227 6150 78.4219
151.344 6032 77.666
151.462 5911 76.883
151.579 6172 78.5621
151.697 6477 80.4798
151.814 6579 81.111
151.932 6642 81.4985
152.049 6678 81.719
152.167 6554 80.9568
152.284 6517 80.7279
152.402 6450 80.3119
152.519 6098 78.0897
152.636 5889 76.7398
152.754 5660 75.233
152.871 5711 75.5712
152.989 5505 74.1957
153.106 5170 71.9027
153.223 5248 72.4431
153.341 5237 72.3671
153.458 5480 74.027
153.575 5453 73.8444
153.693 5713 75.5844
153.81 5736 75.7364
153.927 5747 75.809
154.044 6262 79.1328
154.162 6086 78.0128
154.279 6435 80.2185
154.396 6602 81.2527
154.513 6535 80.8393
154.63 6565 81.0247
154.747 6484 80.5233
154.864 6341 79.6304
154.981 6174 78.5748
155.098 6283 79.2654
155.215 6291 79.3158
155.332 6427 80.1686
155.449 6675 81.7007
155.566 6631 81.431
155.683 6630 81.4248
155.8 6701 81.8596
155.917 6636 81.4616
156.033 6582 81.1295
156.15 0 1
156.267 0 1
156.383 0 1
156.5 0 1
156.617 0 1
156.733 0 1
156.85 0 1
156.966 0 1
157.082 0 1
157.199 0 1
157.315 0 1
157.431 0 1
157.547 0 1
157.664 0 1
157.78 0 1
157.896 0 1
158.012 0 1
158.128 0 1
158.244 0 1
158.359 0 1
158.475 0 1
158.591 0 1
158.706 0 1
