
6.15755 0 1
6.2731 0 1
6.3887 0 1
6.50437 0 1
6.62009 0 1
6.73587 0 1
6.8517 0 1
6.96759 0 1
7.08353 0 1
7.19952 0 1
7.31557 0 1
7.43166 0 1
7.54781 0 1
7.664 0 1
7.78024 0 1
7.89653 0 1
8.01286 0 1
8.12924 0 1
8.24567 0 1
8.36213 0 1
8.47864 0 1
8.59519 0 1
8.71178 0 1
8.82841 0 1
8.94508 0 1
9.06179 0 1
9.17853 0 1
9.29531 0 1
9.41212 0 1
9.52897 0 1
9.64584 0 1
9.76276 0 1
9.8797 0 1
9.99667 0 1
10.1137 0 1
10.2307 0 1
10.3478 0 1
10.4648 0 1
10.5819 0 1
10.6991 0 1
10.8162 0 1
10.9334 0 1
11.0506 0 1
11.1678 0 1
11.285 0 1
11.4023 0 1
11.5196 0 1
11.6369 0 1
11.7542 0 1
11.8715 0 1
11.9888 0 1
12.1062 0 1
12.2235 0 1
12.3409 0 1
12.4582 0 1
12.5756 0 1
12.693 0 1
12.8104 0 1
12.9278 0 1
13.0452 0 1
13.1626 0 1
13.28 0 1
13.3974 0 1
13.5149 0 1
13.6323 0 1
13.7497 0 1
13.8671 0 1
13.9845 0 1
14.1019 0 1
14.2193 0 1
14.3367 0 1
14.4541 0 1
14.5714 0 1
14.6888 0 1
14.8062 0 1
14.9235 0 1
15.0408 0 0
15.1581 0 0
15.2755 0 0
15.3927 0 0
15.51 0 0
15.6273 0 0
15.7445 0 0
15.8617 0 0
15.9789 0 0
16.0961 0 0
16.2132 0 0
16.3304 0 0
16.4475 0 0
16.5646 0 0
16.6816 0 0
16.7986 0 0
16.9156 0 0
17.0326 0 0
17.1496 0 0
17.2665 0 0
17.3833 0 0
17.5002 0 0
17.617 0 0
17.7338 0 0
17.8505 0 0
17.9672 0 0
18.0839 0 0
18.2005 0 0
18.3171 0 0
18.4337 0 0
18.5502 0 0
18.6666 0 0
18.7831 0 0
18.8994 0 0
19.0158 0 0
19.1321 0 0
19.2483 0 0
19.3645 0 0
19.4806 0 0
19.5967 0 0
19.7128 0 0
19.8288 0 0
19.9447 0 0
20.0606 0 1
20.1764 0 1
20.2922 0 1
20.4079 0 1
20.5236 0 1
20.6392 0 1
20.7548 0 1
20.8702 0 1
23.3078 0 1
23.4233 0 1
23.539 0 1
23.6547 0 1
23.7704 0 1
23.8862 0 1
24.0021 0 1
24.118 0 1
24.234 0 1
24.35 0 1
24.4661 1163 34.1028
24.5822 1201 34.6554
24.6984 1168 34.176
24.8146 1203 34.6843
24.9309 1212 34.8138
25.0472 1216 34.8712
25.1636 1250 35.3553
25.28 1212 34.8138
25.3965 1229 35.0571
25.513 1282 35.805
25.6296 1293 35.9583
25.7462 1278 35.7491
25.8628 1400 37.4166
25.9795 1387 37.2424
26.0962 1409 37.5366
26.213 1336 36.5513
26.3298 1336 36.5513
26.4466 1383 37.1887
26.5635 1330 36.4692
26.6804 1273 35.6791
26.7973 1298 36.0278
26.9143 1259 35.4824
27.0313 1257 35.4542
27.1483 1311 36.2077
27.2653 1425 37.7492
27.3824 1382 37.1753
27.4996 1415 37.6165
27.6167 1391 37.2961
27.7339 1244 35.2704
27.8511 1411 37.5633
27.9683 1413 37.5899
28.0855 1359 36.8646
28.2028 1498 38.704
28.3201 1256 35.4401
28.4374 1374 37.0675
28.5547 1284 35.8329
28.6721 1328 36.4417
28.7894 1363 36.9188
28.9068 1409 37.5366
29.0242 1453 38.1182
29.1416 1465 38.2753
29.259 1388 37.2559
29.3764 1509 38.8458
29.4939 1433 37.855
29.6113 1523 39.0256
29.7288 1463 38.2492
29.8463 1481 38.4838
29.9638 1426 37.7624
30.0812 1465 38.2753
30.1987 1386 37.229
30.3162 1333 36.5103
30.4337 1245 35.2846
30.5512 1178 34.322
30.6687 1324 36.3868
30.7862 1307 36.1525
30.9037 1344 36.6606
31.0212 1385 37.2156
31.1387 1388 37.2559
31.2562 1381 37.1618
31.3737 1300 36.0555
31.4912 1330 36.4692
31.6087 1368 36.9865
31.7262 1269 35.623
31.8436 1338 36.5787
31.9611 1257 35.4542
32.0785 1237 35.171
32.1959 1237 35.171
32.3134 1153 33.9559
32.4308 1216 34.8712
32.5482 1260 35.4965
32.6655 1296 36
32.7829 1305 36.1248
32.9002 1287 35.8748
33.0176 1284 35.8329
33.1349 1265 35.5668
33.2522 1240 35.2136
33.3694 1293 35.9583
33.4867 1322 36.3593
33.6039 1362 36.9053
33.7211 1281 35.7911
33.8383 1250 35.3553
33.9554 1163 34.1028
34.0725 1110 33.3167
34.1896 1094 33.0757
34.3067 1225 35
34.4237 1222 34.9571
34.5407 1284 35.8329
34.6577 1216 34.8712
34.7746 1220 34.9285
34.8915 1158 34.0294
35.0084 1170 34.2053
35.1252 1148 33.8821
35.242 1181 34.3657
35.3587 1220 34.9285
35.4755 1190 34.4964
35.5921 1190 34.4964
35.7088 1198 34.6121
35.8254 1106 33.2566
35.9419 1089 33
36.0584 1188 34.4674
36.1749 1101 33.1813
36.2913 1117 33.4215
36.4077 1195 34.5688
36.524 1213 34.8281
36.6403 1192 34.5254
36.7565 1203 34.6843
36.8727 1189 34.4819
36.9889 1225 35
37.1049 1220 34.9285
37.221 0 1
37.3369 0 1
37.4529 0 1
37.5687 0 1
37.6845 0 1
37.8003 0 1
37.916 0 1
38.0316 0 1
38.1472 0 1
40.5851 0 1
40.7008 0 1
40.8164 0 1
40.9322 0 1
41.048 0 1
41.1639 0 1
41.2798 0 1
41.3958 0 1
41.5118 0 1
41.6279 0 1
41.744 1030 32.0936
41.8602 1023 31.9844
41.9765 1076 32.8024
42.0928 1038 32.218
42.2091 1046 32.3419
42.3255 1027 32.0468
42.4419 1068 32.6803
42.5584 1011 31.7962
42.675 1003 31.6702
42.7915 896 29.9333
42.9081 893 29.8831
43.0248 943 30.7083
43.1415 916 30.2655
43.2582 961 31
43.375 1040 32.249
43.4918 967 31.0966
43.6087 908 30.133
43.7256 897 29.95
43.8425 833 28.8617
43.9595 834 28.8791
44.0765 870 29.4958
44.1935 948 30.7896
44.3106 900 30
44.4277 869 29.4788
44.5448 832 28.8444
44.6619 803 28.3373
44.7791 789 28.0891
44.8963 761 27.5862
45.0136 851 29.1719
45.1308 799 28.2666
45.2481 815 28.5482
45.3654 742 27.2397
45.4827 808 28.4253
45.6001 817 28.5832
45.7174 819 28.6182
45.8348 789 28.0891
45.9522 773 27.8029
46.0697 791 28.1247
46.1871 819 28.6182
46.3046 756 27.4955
46.422 726 26.9444
46.5395 711 26.6646
46.657 660 25.6905
46.7745 711 26.6646
46.892 767 27.6948
47.0096 720 26.8328
47.1271 759 27.55
47.2446 740 27.2029
47.3622 730 27.0185
47.4797 686 26.1916
47.5973 655 25.593
47.7149 708 26.6083
47.8324 699 26.4386
47.95 684 26.1534
48.0675 672 25.923
48.1851 628 25.0599
48.3027 617 24.8395
48.4202 575 23.9792
48.5378 633 25.1595
48.6554 581 24.1039
48.7729 619 24.8797
48.8904 628 25.0599
49.008 616 24.8193
49.1255 635 25.1992
49.243 677 26.0192
49.3605 666 25.807
49.478 624 24.98
49.5955 645 25.3969
49.713 631 25.1197
49.8304 618 24.8596
49.9479 569 23.8537
50.0653 580 24.0832
50.1827 570 23.8747
50.3001 605 24.5967
50.4175 629 25.0799
50.5348 676 26
50.6521 687 26.2107
50.7694 707 26.5895
50.8867 681 26.096
51.004 705 26.5518
51.1212 696 26.3818
51.2384 713 26.7021
51.3556 811 28.4781
51.4727 789 28.0891
51.5899 686 26.1916
51.707 729 27
51.824 759 27.55
51.9411 736 27.1293
52.0581 863 29.3769
52.175 811 28.4781
52.2919 853 29.2062
52.4088 908 30.133
52.5257 922 30.3645
52.6425 948 30.7896
52.7593 881 29.6816
52.876 980 31.305
52.9927 960 30.9839
53.1094 966 31.0805
53.226 954 30.8869
53.3426 974 31.209
53.4591 887 29.7825
53.5756 843 29.0345
53.692 843 29.0345
53.8084 917 30.282
53.9248 891 29.8496
54.0411 970 31.1448
54.1573 970 31.1448
54.2735 0 1
54.3896 0 1
54.5057 0 1
54.6217 0 1
54.7377 0 1
54.8537 0 1
54.9695 0 1
55.0853 0 1
55.2011 0 1
55.3168 0 1
55.4324 0 1
57.824 0 1
57.9396 0 1
58.0553 0 1
58.1711 0 1
58.2869 0 1
58.4028 0 1
58.5187 0 1
58.6347 0 1
58.7508 0 1
58.8669 0 1
58.983 1012 31.8119
59.0992 1016 31.8748
59.2155 1068 32.6803
59.3318 1132 33.6452
59.4482 1152 33.9411
59.5646 1138 33.7343
59.681 1128 33.5857
59.7975 1078 32.8329
59.9141 1056 32.4962
60.0306 994 31.5278
60.1473 1032 32.1248
60.2639 1071 32.7261
60.3807 998 31.5911
60.4974 1008 31.749
60.6142 1006 31.7175
60.731 1026 32.0312
60.8479 1081 32.8786
60.9648 1058 32.5269
61.0818 1112 33.3467
61.1987 1115 33.3916
61.3158 1036 32.187
61.4328 1066 32.6497
61.5499 1057 32.5115
61.667 1094 33.0757
61.7841 1085 32.9393
61.9013 1008 31.749
62.0185 939 30.6431
62.1357 996 31.5595
62.253 922 30.3645
62.3702 934 30.5614
62.4875 980 31.305
62.6049 988 31.4325
62.7222 1073 32.7567
62.8396 1006 31.7175
62.9569 1093 33.0606
63.0743 1098 33.1361
63.1918 1060 32.5576
63.3092 1024 32
63.4267 970 31.1448
63.5441 897 29.95
63.6616 874 29.5635
63.7791 991 31.4802
63.8966 927 30.4467
64.0142 918 30.2985
64.1317 938 30.6268
64.2492 940 30.6594
64.3668 916 30.2655
64.4843 999 31.607
64.6019 954 30.8869
64.7195 978 31.273
64.837 1007 31.7333
64.9546 952 30.8545
65.0722 962 31.0161
65.1898 989 31.4484
65.3074 994 31.5278
65.4249 961 31
65.5425 947 30.7734
65.6601 855 29.2404
65.7777 806 28.3901
65.8952 780 27.9285
66.0128 835 28.8964
66.1304 863 29.3769
66.2479 932 30.5287
66.3655 948 30.7896
66.483 997 31.5753
66.6005 1022 31.9687
66.718 1000 31.6228
66.8355 956 30.9192
66.953 874 29.5635
67.0705 862 29.3598
67.1879 821 28.6531
67.3054 880 29.6648
67.4228 886 29.7658
67.5402 894 29.8998
67.6576 921 30.348
67.7749 890 29.8329
67.8923 951 30.8383
68.0096 930 30.4959
68.1269 935 30.5778
68.2442 986 31.4006
68.3614 959 30.9677
68.4787 1032 32.1248
68.5958 1001 31.6386
68.713 998 31.5911
68.8302 969 31.1288
68.9473 1051 32.4191
69.0643 1007 31.7333
69.1814 988 31.4325
69.2984 923 30.3809
69.4154 896 29.9333
69.5323 891 29.8496
69.6492 898 29.9666
69.7661 952 30.8545
69.8829 1041 32.2645
69.9997 1023 31.9844
70.1165 1150 33.9116
70.2332 1149 33.8969
70.3499 1186 34.4384
70.4665 1095 33.0908
70.5831 983 31.3528
70.6996 901 30.0167
70.8161 901 30.0167
70.9326 932 30.5287
71.049 981 31.3209
71.1653 907 30.1164
71.2817 929 30.4795
71.3979 931 30.5123
71.5141 1004 31.686
71.6303 939 30.6431
71.7464 877 29.6142
71.8624 0 1
71.9784 0 1
72.0944 0 1
72.2102 0 1
72.3261 0 1
72.4418 0 1
72.5575 0 1
72.6732 0 1
75.1054 0 1
75.2209 0 1
75.3365 0 1
75.4521 0 1
75.5678 0 1
75.6835 0 1
75.7993 0 1
75.9151 0 1
76.031 0 1
76.147 903 30.05
76.263 944 30.7246
76.3791 903 30.05
76.4952 872 29.5296
76.6113 896 29.9333
76.7276 978 31.273
76.8438 970 31.1448
76.9601 989 31.4484
77.0765 1093 33.0606
77.1929 1098 33.1361
77.3093 1062 32.5883
77.4258 1053 32.45
77.5423 1104 33.2265
77.6589 1062 32.5883
77.7755 1071 32.7261
77.8921 1010 31.7805
78.0088 1039 32.2335
78.1256 1030 32.0936
78.2423 956 30.9192
78.3591 912 30.1993
78.4759 844 29.0517
78.5928 862 29.3598
78.7097 919 30.315
78.8266 922 30.3645
78.9436 1083 32.909
79.0606 1103 33.2114
79.1776 1044 32.311
79.2946 1062 32.5883
79.4117 1080 32.8634
79.5288 1010 31.7805
79.6459 964 31.0483
79.7631 857 29.2746
79.8802 831 28.8271
79.9974 832 28.8444
80.1147 867 29.4449
80.2319 888 29.7993
80.3491 933 30.545
80.4664 913 30.2159
80.5837 965 31.0644
80.701 935 30.5778
80.8183 992 31.496
80.9357 1016 31.8748
81.053 958 30.9516
81.1704 933 30.545
81.2877 935 30.5778
81.4051 966 31.0805
81.5225 987 31.4166
81.6399 937 30.6105
81.7573 917 30.282
81.8747 841 29
81.9922 848 29.1204
82.1096 823 28.688
82.227 833 28.8617
82.3444 869 29.4788
82.4619 904 30.0666
82.5793 969 31.1288
82.6967 944 30.7246
82.8142 990 31.4643
82.9316 987 31.4166
83.049 947 30.7734
83.1664 973 31.1929
83.2838 885 29.7489
83.4012 826 28.7402
83.5186 716 26.7582
83.636 688 26.2298
83.7534 699 26.4386
83.8708 866 29.4279
83.9881 779 27.9106
84.1055 847 29.1033
84.2228 875 29.5804
84.3401 890 29.8329
84.4575 945 30.7409
84.5747 918 30.2985
84.692 991 31.4802
84.8093 926 30.4302
84.9265 932 30.5287
85.0437 891 29.8496
85.1609 926 30.4302
85.2781 946 30.7571
85.3952 907 30.1164
85.5123 830 28.8097
85.6294 823 28.688
85.7465 843 29.0345
85.8636 888 29.7993
85.9806 897 29.95
86.0976 949 30.8058
86.2145 1076 32.8024
86.3315 1056 32.4962
86.4484 1042 32.28
86.5652 1119 33.4515
86.682 1093 33.0606
86.7988 1039 32.2335
86.9156 985 31.3847
87.0323 870 29.4958
87.149 839 28.9655
87.2657 934 30.5614
87.3823 926 30.4302
87.4988 936 30.5941
87.6154 1028 32.0624
87.7318 1061 32.573
87.8483 999 31.607
87.9647 1049 32.3883
88.081 1045 32.3265
88.1973 1126 33.5559
88.3136 1124 33.5261
88.4298 1121 33.4813
88.546 1119 33.4515
88.6621 1145 33.8378
88.7781 1056 32.4962
88.8942 0 1
89.0101 0 1
89.126 0 1
89.2419 0 1
89.3577 0 1
89.4734 0 1
89.5891 0 1
89.7047 0 1
89.8203 0 1
89.9358 0 1
92.3269 0 1
92.4424 0 1
92.558 0 1
92.6736 0 1
92.7893 0 1
92.905 0 1
93.0208 0 1
93.1366 0 1
93.2525 0 1
93.3685 0 1
93.4845 0 1
93.6005 1131 33.6303
93.7167 1070 32.7109
93.8328 1081 32.8786
93.949 1132 33.6452
94.0653 1088 32.9848
94.1816 1086 32.9545
94.2979 1029 32.078
94.4143 1034 32.1559
94.5307 990 31.4643
94.6472 964 31.0483
94.7637 978 31.273
94.8803 989 31.4484
94.9969 1026 32.0312
95.1135 1179 34.3366
95.2302 1115 33.3916
95.3469 1104 33.2265
95.4637 1116 33.4066
95.5805 1176 34.2929
95.6973 1155 33.9853
95.8142 1169 34.1906
95.9311 1158 34.0294
96.048 1069 32.6956
96.1649 1017 31.8904
96.2819 974 31.209
96.3989 964 31.0483
96.516 888 29.7993
96.633 940 30.6594
96.7501 1065 32.6343
96.8673 1056 32.4962
96.9844 1121 33.4813
97.1016 1108 33.2866
97.2188 1163 34.1028
97.336 1166 34.1467
97.4532 1122 33.4963
97.5704 1155 33.9853
97.6877 1113 33.3617
97.805 1121 33.4813
97.9223 1138 33.7343
98.0396 1079 32.8481
98.1569 950 30.8221
98.2743 947 30.7734
98.3916 978 31.273
98.509 1017 31.8904
98.6264 1047 32.3574
98.7438 1108 33.2866
98.8612 1176 34.2929
98.9786 1100 33.1662
99.096 1172 34.2345
99.2134 1171 34.2199
99.3308 1226 35.0143
99.4482 1164 34.1174
99.5656 1187 34.4529
99.6831 1150 33.9116
99.8005 1096 33.1059
99.9179 972 31.1769
100.035 884 29.7321
100.153 937 30.6105
100.27 1074 32.7719
100.388 1078 32.8329
100.505 1171 34.2199
100.622 1149 33.8969
100.74 1173 34.2491
100.857 1158 34.0294
100.975 1165 34.1321
101.092 1202 34.6699
101.209 1162 34.0881
101.327 1125 33.541
101.444 1045 32.3265
101.561 1091 33.0303
101.679 1042 32.28
101.796 968 31.1127
101.913 1005 31.7017
102.03 1031 32.1092
102.148 1103 33.2114
102.265 1096 33.1059
102.382 1202 34.6699
102.499 1168 34.176
102.616 1220 34.9285
102.733 1152 33.9411
102.851 1265 35.5668
102.968 1276 35.7211
103.085 1225 35
103.202 1211 34.7994
103.319 1171 34.2199
103.436 1007 31.7333
103.552 974 31.209
103.669 983 31.3528
103.786 1082 32.8938
103.903 1084 32.9242
104.02 1149 33.8969
104.137 1156 34
104.253 1194 34.5543
104.37 1228 35.0428
104.487 1250 35.3553
104.603 1278 35.7491
104.72 1204 34.6987
104.836 1227 35.0286
104.953 1135 33.6898
105.069 1175 34.2783
105.186 1079 32.8481
105.302 1026 32.0312
105.418 1061 32.573
105.535 1132 33.6452
105.651 1232 35.0999
105.767 1249 35.3412
105.883 1314 36.2491
105.999 1282 35.805
106.115 0 1
106.231 0 1
106.347 0 1
106.463 0 1
106.579 0 1
106.694 0 1
106.81 0 1
106.926 0 1
107.041 0 1
107.157 0 1
109.576 0 1
109.692 0 1
109.807 0 1
109.923 0 1
110.039 0 1
110.155 0 1
110.27 0 1
110.386 0 1
110.502 0 1
110.618 1039 32.2335
110.735 1113 33.3617
110.851 1236 35.1568
110.967 1284 35.8329
111.083 1256 35.4401
111.199 1186 34.4384
111.316 1270 35.6371
111.432 1296 36
111.549 1300 36.0555
111.665 1276 35.7211
111.782 1241 35.2278
111.898 1146 33.8526
112.015 1083 32.909
112.132 916 30.2655
112.248 924 30.3974
112.365 1086 32.9545
112.482 1118 33.4365
112.599 1236 35.1568
112.716 1239 35.1994
112.832 1275 35.7071
112.949 1168 34.176
113.066 1218 34.8999
113.183 1194 34.5543
113.3 1118 33.4365
113.417 1117 33.4215
113.534 1175 34.2783
113.652 997 31.5753
113.769 996 31.5595
113.886 929 30.4795
114.003 986 31.4006
114.12 1087 32.9697
114.238 1088 32.9848
114.355 1170 34.2053
114.472 1221 34.9428
114.589 1216 34.8712
114.707 1261 35.5106
114.824 1265 35.5668
114.942 1243 35.2562
115.059 1209 34.7707
115.176 1187 34.4529
115.294 1227 35.0286
115.411 1171 34.2199
115.529 1079 32.8481
115.646 963 31.0322
115.764 940 30.6594
115.881 965 31.0644
115.999 1080 32.8634
116.116 1173 34.2491
116.234 1161 34.0735
116.351 1175 34.2783
116.469 1128 33.5857
116.586 1255 35.426
116.704 1160 34.0588
116.821 1133 33.6601
116.939 1106 33.2566
117.056 1088 32.9848
117.174 1074 32.7719
117.291 978 31.273
117.409 985 31.3847
117.526 972 31.1769
117.644 1000 31.6228
117.761 1078 32.8329
117.879 1169 34.1906
117.996 1194 34.5543
118.114 1155 33.9853
118.231 1248 35.327
118.349 1215 34.8569
118.466 1204 34.6987
118.584 1156 34
118.701 1229 35.0571
118.819 1147 33.8674
118.936 1235 35.1426
119.053 1130 33.6155
119.171 1057 32.5115
119.288 976 31.241
119.405 971 31.1609
119.523 928 30.4631
119.64 1057 32.5115
119.757 1074 32.7719
119.875 1207 34.7419
119.992 1128 33.5857
120.109 1115 33.3916
120.226 1172 34.2345
120.343 1114 33.3766
120.46 1102 33.1964
120.578 1164 34.1174
120.695 1140 33.7639
120.812 1013 31.8277
120.929 950 30.8221
121.046 981 31.3209
121.163 923 30.3809
121.279 960 30.9839
121.396 1110 33.3167
121.513 1109 33.3017
121.63 1208 34.7563
121.747 1140 33.7639
121.863 1226 35.0143
121.98 1182 34.3802
122.097 1202 34.6699
122.213 1191 34.5109
122.33 1191 34.5109
122.446 1177 34.3074
122.563 1160 34.0588
122.679 1135 33.6898
122.795 1055 32.4808
122.912 1006 31.7175
123.028 915 30.249
123.144 858 29.2916
123.26 884 29.7321
123.377 0 1
123.493 0 1
123.609 0 1
123.725 0 1
123.84 0 1
123.956 0 1
124.072 0 1
124.188 0 1
124.303 0 1
124.419 0 1
126.852 0 1
126.968 0 1
127.083 0 1
127.199 0 1
127.315 0 1
127.431 0 1
127.547 0 1
127.663 0 1
127.779 0 1
127.895 0 1
128.011 0 1
128.127 0 1
128.243 0 1
128.359 911 30.1828
128.476 916 30.2655
128.592 1089 33
128.708 1094 33.0757
128.825 1247 35.3129
128.941 1243 35.2562
129.058 1287 35.8748
129.174 1236 35.1568
129.291 1271 35.6511
129.408 1241 35.2278
129.524 1204 34.6987
129.641 1211 34.7994
129.758 1157 34.0147
129.875 1055 32.4808
129.992 1093 33.0606
130.108 993 31.5119
130.225 1045 32.3265
130.342 1158 34.0294
130.459 1113 33.3617
130.576 1234 35.1283
130.693 1292 35.9444
130.81 1276 35.7211
130.928 1248 35.327
131.045 1281 35.7911
131.162 1287 35.8748
131.279 1299 36.0416
131.396 1231 35.0856
131.513 1233 35.1141
131.631 1210 34.7851
131.748 1105 33.2415
131.865 955 30.9031
131.983 964 31.0483
132.1 1028 32.0624
132.217 1133 33.6601
132.335 1216 34.8712
132.452 1293 35.9583
132.57 1262 35.5246
132.687 1157 34.0147
132.804 1301 36.0694
132.922 1218 34.8999
133.039 1222 34.9571
133.157 1230 35.0714
133.274 1165 34.1321
133.392 1137 33.7194
133.509 1087 32.9697
133.627 1115 33.3916
133.744 1017 31.8904
133.862 1102 33.1964
133.979 1109 33.3017
134.097 1132 33.6452
134.214 1234 35.1283
134.332 1294 35.9722
134.449 1199 34.6266
134.567 1272 35.6651
134.684 1211 34.7994
134.802 1269 35.623
134.919 1254 35.4119
135.037 1221 34.9428
135.154 1226 35.0143
135.272 1199 34.6266
135.389 1007 31.7333
135.507 965 31.0644
135.624 1032 32.1248
135.742 1121 33.4813
135.859 1163 34.1028
135.977 1207 34.7419
136.094 1248 35.327
136.211 1286 35.8608
136.329 1229 35.0571
136.446 1267 35.5949
136.564 1166 34.1467
136.681 1197 34.5977
136.798 1211 34.7994
136.915 1115 33.3916
137.033 1111 33.3317
137.15 1012 31.8119
137.267 1113 33.3617
137.384 1060 32.5576
137.502 1062 32.5883
137.619 1165 34.1321
137.736 1140 33.7639
137.853 1169 34.1906
137.97 1262 35.5246
138.087 1194 34.5543
138.204 1196 34.5832
138.321 1350 36.7423
138.438 1299 36.0416
138.555 1248 35.327
138.672 1246 35.2987
138.788 1233 35.1141
138.905 1204 34.6987
139.022 1098 33.1361
139.139 1063 32.6037
139.255 1044 32.311
139.372 1071 32.7261
139.488 1129 33.6006
139.605 1344 36.6606
139.721 1247 35.3129
139.838 1295 35.9861
139.954 1298 36.0278
140.071 1315 36.2629
140.187 1229 35.0571
140.303 1216 34.8712
140.419 1231 35.0856
140.535 1133 33.6601
140.652 1036 32.187
140.768 0 1
140.884 0 1
141 0 1
141.115 0 1
141.231 0 1
141.347 0 1
141.463 0 1
141.578 0 1
141.694 0 1
144.104 0 1
144.219 0 1
144.335 0 1
144.45 0 1
144.566 0 1
144.682 0 1
144.798 0 1
144.914 0 1
145.03 0 1
145.146 940 30.6594
145.262 924 30.3974
145.378 959 30.9677
145.494 950 30.8221
145.61 891 29.8496
145.726 872 29.5296
145.842 932 30.5287
145.959 842 29.0172
146.075 939 30.6431
146.192 806 28.3901
146.308 839 28.9655
146.425 920 30.3315
146.541 881 29.6816
146.658 997 31.5753
146.774 974 31.209
146.891 1020 31.9374
147.008 1007 31.7333
147.125 1010 31.7805
147.241 982 31.3369
147.358 1035 32.1714
147.475 962 31.0161
147.592 1080 32.8634
147.709 974 31.209
147.826 943 30.7083
147.943 840 28.9828
148.06 779 27.9106
148.177 860 29.3258
148.294 909 30.1496
148.411 931 30.5123
148.528 1056 32.4962
148.645 996 31.5595
148.762 996 31.5595
148.88 1000 31.6228
148.997 1029 32.078
149.114 1066 32.6497
149.231 980 31.305
149.349 970 31.1448
149.466 986 31.4006
149.583 904 30.0666
149.701 911 30.1828
149.818 879 29.6479
149.935 867 29.4449
150.053 824 28.7054
150.17 907 30.1164
150.287 874 29.5635
150.405 923 30.3809
150.522 989 31.4484
150.64 970 31.1448
150.757 1101 33.1813
150.875 1039 32.2335
150.992 1020 31.9374
151.11 1038 32.218
151.227 1045 32.3265
151.344 1047 32.3574
151.462 956 30.9192
151.579 959 30.9677
151.697 842 29.0172
151.814 829 28.7924
151.932 821 28.6531
152.049 877 29.6142
152.167 1028 32.0624
152.284 1006 31.7175
152.402 1048 32.3728
152.519 1004 31.686
152.636 1059 32.5423
152.754 1054 32.4654
152.871 1011 31.7962
152.989 1039 32.2335
153.106 1007 31.7333
153.223 928 30.4631
153.341 972 31.1769
153.458 907 30.1164
153.575 927 30.4467
153.693 881 29.6816
153.81 974 31.209
153.927 991 31.4802
154.044 1049 32.3883
154.162 1090 33.0151
154.279 1120 33.4664
154.396 1053 32.45
154.513 1072 32.7414
154.63 1119 33.4515
154.747 1133 33.6601
154.864 1123 33.5112
154.981 1106 33.2566
155.098 1000 31.6228
155.215 971 31.1609
155.332 953 30.8707
155.449 998 31.5911
155.566 1005 31.7017
155.683 1045 32.3265
155.8 1168 34.176
155.917 1169 34.1906
156.033 1110 33.3167
156.15 0 1
156.267 0 1
156.383 0 1
156.5 0 1
156.617 0 1
156.733 0 1
156.85 0 1
156.966 0 1
157.082 0 1
157.199 0 1
157.315 0 1
157.431 0 1
157.547 0 1
157.664 0 1
157.78 0 1
157.896 0 1
158.012 0 1
158.128 0 1
158.244 0 1
158.359 0 1
158.475 0 1
158.591 0 1
158.706 0 1
