
6.15755 0 1
6.2731 0 1
6.3887 0 1
6.50437 0 1
6.62009 0 1
6.73587 0 1
6.8517 0 1
6.96759 0 1
7.08353 0 1
7.19952 0 1
7.31557 0 1
7.43166 0 1
7.54781 0 1
7.664 0 1
7.78024 0 1
7.89653 0 1
8.01286 0 1
8.12924 0 1
8.24567 0 1
8.36213 0 1
8.47864 0 1
8.59519 0 1
8.71178 0 1
8.82841 0 1
8.94508 0 1
9.06179 0 1
9.17853 0 1
9.29531 0 1
9.41212 0 1
9.52897 0 1
9.64584 0 1
9.76276 0 1
9.8797 0 1
9.99667 0 1
10.1137 0 1
10.2307 0 1
10.3478 0 1
10.4648 0 1
10.5819 0 1
10.6991 0 1
10.8162 0 1
10.9334 0 1
11.0506 0 1
11.1678 0 1
11.285 0 1
11.4023 0 1
11.5196 0 1
11.6369 0 1
11.7542 0 1
11.8715 0 1
11.9888 0 1
12.1062 0 1
12.2235 0 1
12.3409 0 1
12.4582 0 1
12.5756 0 1
12.693 0 1
12.8104 0 1
12.9278 0 1
13.0452 0 1
13.1626 0 1
13.28 0 1
13.3974 0 1
13.5149 0 1
13.6323 0 1
13.7497 0 1
13.8671 0 1
13.9845 0 1
14.1019 0 1
14.2193 0 1
14.3367 0 1
14.4541 0 1
14.5714 0 1
14.6888 0 1
14.8062 0 1
14.9235 0 1
15.0408 1226 35.0143
15.1581 1326 36.4143
15.2755 1364 36.9324
15.3927 1466 38.2884
15.51 1436 37.8946
15.6273 1332 36.4966
15.7445 1396 37.3631
15.8617 1406 37.4967
15.9789 1413 37.5899
16.0961 1338 36.5787
16.2132 1337 36.565
16.3304 1451 38.092
16.4475 1508 38.833
16.5646 1451 38.092
16.6816 1601 40.0125
16.7986 1673 40.9023
16.9156 1695 41.1704
17.0326 1598 39.975
17.1496 1639 40.4846
17.2665 1609 40.1123
17.3833 1637 40.4599
17.5002 1526 39.064
17.617 1510 38.8587
17.7338 1480 38.4708
17.8505 1402 37.4433
17.9672 1520 38.9872
18.0839 1408 37.5233
18.2005 1526 39.064
18.3171 1556 39.4462
18.4337 1546 39.3192
18.5502 1570 39.6232
18.6666 1553 39.4081
18.7831 1633 40.4104
18.8994 1630 40.3733
19.0158 1652 40.6448
19.1321 1589 39.8623
19.2483 1468 38.3145
19.3645 1427 37.7757
19.4806 1340 36.606
19.5967 1293 35.9583
19.7128 1204 34.6987
19.8288 1075 32.7872
19.9447 966 31.0805
20.0606 0 1
20.1764 0 1
20.2922 0 1
20.4079 0 1
20.5236 0 1
20.6392 0 1
20.7548 0 1
20.8702 0 1
23.3078 0 1
23.4233 0 1
23.539 0 1
23.6547 0 1
23.7704 0 1
23.8862 0 1
24.0021 0 1
24.118 0 1
24.234 0 1
24.35 0 1
24.4661 693 26.3249
24.5822 770 27.7489
24.6984 875 29.5804
24.8146 896 29.9333
24.9309 1110 33.3167
25.0472 1218 34.8999
25.1636 1271 35.6511
25.28 1503 38.7685
25.3965 1485 38.5357
25.513 1593 39.9124
25.6296 1670 40.8656
25.7462 1710 41.3521
25.8628 1823 42.6966
25.9795 1763 41.9881
26.0962 1761 41.9643
26.213 1693 41.1461
26.3298 1624 40.2989
26.4466 1613 40.1622
26.5635 1507 38.8201
26.6804 1458 38.1838
26.7973 1632 40.398
26.9143 1560 39.4968
27.0313 1665 40.8044
27.1483 1644 40.5463
27.2653 1692 41.1339
27.3824 1676 40.939
27.4996 1600 40
27.6167 1633 40.4104
27.7339 1558 39.4715
27.8511 1555 39.4335
27.9683 1509 38.8458
28.0855 1513 38.8973
28.2028 1488 38.5746
28.3201 1453 38.1182
28.4374 1425 37.7492
28.5547 1419 37.6696
28.6721 1498 38.704
28.7894 1528 39.0896
28.9068 1622 40.2741
29.0242 1673 40.9023
29.1416 1752 41.8569
29.259 1768 42.0476
29.3764 1771 42.0833
29.4939 1706 41.3038
29.6113 1694 41.1582
29.7288 1653 40.6571
29.8463 1482 38.4968
29.9638 1480 38.4708
30.0812 1386 37.229
30.1987 1434 37.8682
30.3162 1397 37.3765
30.4337 1492 38.6264
30.5512 1547 39.3319
30.6687 1507 38.8201
30.7862 1588 39.8497
30.9037 1617 40.2119
31.0212 1622 40.2741
31.1387 1703 41.2674
31.2562 1665 40.8044
31.3737 1635 40.4351
31.4912 1476 38.4187
31.6087 1504 38.7814
31.7262 1473 38.3797
31.8436 1428 37.7889
31.9611 1405 37.4833
32.0785 1363 36.9188
32.1959 1461 38.223
32.3134 1494 38.6523
32.4308 1577 39.7115
32.5482 1610 40.1248
32.6655 1678 40.9634
32.7829 1588 39.8497
32.9002 1633 40.4104
33.0176 1604 40.05
33.1349 1606 40.0749
33.2522 1599 39.9875
33.3694 1490 38.6005
33.4867 1400 37.4166
33.6039 1466 38.2884
33.7211 1357 36.8375
33.8383 1293 35.9583
33.9554 1380 37.1484
34.0725 1498 38.704
34.1896 1434 37.8682
34.3067 1510 38.8587
34.4237 1499 38.7169
34.5407 1492 38.6264
34.6577 1576 39.6989
34.7746 1560 39.4968
34.8915 1534 39.1663
35.0084 1521 39
35.1252 1433 37.855
35.242 1475 38.4057
35.3587 1476 38.4187
35.4755 1321 36.3456
35.5921 1362 36.9053
35.7088 1378 37.1214
35.8254 1275 35.7071
35.9419 1386 37.229
36.0584 1433 37.855
36.1749 1469 38.3275
36.2913 1490 38.6005
36.4077 1501 38.7427
36.524 1429 37.8021
36.6403 1406 37.4967
36.7565 1293 35.9583
36.8727 1222 34.9571
36.9889 1138 33.7343
37.1049 1021 31.9531
37.221 0 1
37.3369 0 1
37.4529 0 1
37.5687 0 1
37.6845 0 1
37.8003 0 1
37.916 0 1
38.0316 0 1
38.1472 0 1
40.5851 0 1
40.7008 0 1
40.8164 0 1
40.9322 0 1
41.048 0 1
41.1639 0 1
41.2798 0 1
41.3958 0 1
41.5118 0 1
41.6279 0 1
41.744 774 27.8209
41.8602 883 29.7153
41.9765 954 30.8869
42.0928 902 30.0333
42.2091 1015 31.8591
42.3255 874 29.5635
42.4419 936 30.5941
42.5584 905 30.0832
42.675 1068 32.6803
42.7915 1145 33.8378
42.9081 1143 33.8083
43.0248 1249 35.3412
43.1415 1264 35.5528
43.2582 1277 35.7351
43.375 1271 35.6511
43.4918 1387 37.2424
43.6087 1269 35.623
43.7256 1300 36.0555
43.8425 1238 35.1852
43.9595 1139 33.7491
44.0765 1185 34.4238
44.1935 1135 33.6898
44.3106 1131 33.6303
44.4277 1045 32.3265
44.5448 1098 33.1361
44.6619 1107 33.2716
44.7791 1127 33.5708
44.8963 1153 33.9559
45.0136 1286 35.8608
45.1308 1318 36.3043
45.2481 1374 37.0675
45.3654 1335 36.5377
45.4827 1280 35.7771
45.6001 1366 36.9594
45.7174 1285 35.8469
45.8348 1219 34.9142
45.9522 1176 34.2929
46.0697 1102 33.1964
46.1871 1089 33
46.3046 1109 33.3017
46.422 1181 34.3657
46.5395 1170 34.2053
46.657 1326 36.4143
46.7745 1255 35.426
46.892 1288 35.8887
47.0096 1375 37.081
47.1271 1280 35.7771
47.2446 1344 36.6606
47.3622 1345 36.6742
47.4797 1298 36.0278
47.5973 1310 36.1939
47.7149 1224 34.9857
47.8324 1205 34.7131
47.95 1141 33.7787
48.0675 1105 33.2415
48.1851 1111 33.3317
48.3027 1115 33.3916
48.4202 1207 34.7419
48.5378 1269 35.623
48.6554 1380 37.1484
48.7729 1366 36.9594
48.8904 1306 36.1386
49.008 1313 36.2353
49.1255 1347 36.7015
49.243 1275 35.7071
49.3605 1144 33.8231
49.478 1112 33.3467
49.5955 1110 33.3167
49.713 1043 32.2955
49.8304 1080 32.8634
49.9479 1081 32.8786
50.0653 1200 34.641
50.1827 1290 35.9166
50.3001 1292 35.9444
50.4175 1338 36.5787
50.5348 1315 36.2629
50.6521 1433 37.855
50.7694 1313 36.2353
50.8867 1371 37.027
51.004 1370 37.0135
51.1212 1327 36.428
51.2384 1279 35.7631
51.3556 1309 36.1801
51.4727 1283 35.819
51.5899 1239 35.1994
51.707 1236 35.1568
51.824 1282 35.805
51.9411 1421 37.6962
52.0581 1505 38.7943
52.175 1651 40.6325
52.2919 1683 41.0244
52.4088 1611 40.1373
52.5257 1665 40.8044
52.6425 1756 41.9047
52.7593 1731 41.6053
52.876 1692 41.1339
52.9927 1562 39.5221
53.1094 1464 38.2623
53.226 1413 37.5899
53.3426 1335 36.5377
53.4591 1330 36.4692
53.5756 1337 36.565
53.692 1405 37.4833
53.8084 1391 37.2961
53.9248 1286 35.8608
54.0411 1298 36.0278
54.1573 1177 34.3074
54.2735 0 1
54.3896 0 1
54.5057 0 1
54.6217 0 1
54.7377 0 1
54.8537 0 1
54.9695 0 1
55.0853 0 1
55.2011 0 1
55.3168 0 1
55.4324 0 1
57.824 0 1
57.9396 0 1
58.0553 0 1
58.1711 0 1
58.2869 0 1
58.4028 0 1
58.5187 0 1
58.6347 0 1
58.7508 0 1
58.8669 0 1
58.983 958 30.9516
59.0992 1131 33.6303
59.2155 1208 34.7563
59.3318 1359 36.8646
59.4482 1414 37.6032
59.5646 1408 37.5233
59.681 1478 38.4448
59.7975 1539 39.2301
59.9141 1493 38.6394
60.0306 1525 39.0512
60.1473 1461 38.223
60.2639 1375 37.081
60.3807 1460 38.2099
60.4974 1417 37.6431
60.6142 1518 38.9615
60.731 1583 39.7869
60.8479 1609 40.1123
60.9648 1667 40.8289
61.0818 1544 39.2938
61.1987 1702 41.2553
61.3158 1653 40.6571
61.4328 1594 39.9249
61.5499 1565 39.5601
61.667 1409 37.5366
61.7841 1319 36.318
61.9013 1210 34.7851
62.0185 1235 35.1426
62.1357 1313 36.2353
62.253 1439 37.9342
62.3702 1472 38.3667
62.4875 1585 39.8121
62.6049 1560 39.4968
62.7222 1654 40.6694
62.8396 1686 41.0609
62.9569 1665 40.8044
63.0743 1643 40.5339
63.1918 1609 40.1123
63.3092 1589 39.8623
63.4267 1636 40.4475
63.5441 1475 38.4057
63.6616 1483 38.5097
63.7791 1310 36.1939
63.8966 1353 36.7831
64.0142 1436 37.8946
64.1317 1465 38.2753
64.2492 1488 38.5746
64.3668 1595 39.9375
64.4843 1645 40.5586
64.6019 1653 40.6571
64.7195 1639 40.4846
64.837 1609 40.1123
64.9546 1545 39.3065
65.0722 1523 39.0256
65.1898 1432 37.8418
65.3074 1341 36.6197
65.4249 1264 35.5528
65.5425 1219 34.9142
65.6601 1219 34.9142
65.7777 1324 36.3868
65.8952 1366 36.9594
66.0128 1462 38.2361
66.1304 1508 38.833
66.2479 1595 39.9375
66.3655 1609 40.1123
66.483 1525 39.0512
66.6005 1643 40.5339
66.718 1628 40.3485
66.8355 1528 39.0896
66.953 1526 39.064
67.0705 1516 38.9358
67.1879 1517 38.9487
67.3054 1357 36.8375
67.4228 1365 36.9459
67.5402 1286 35.8608
67.6576 1288 35.8887
67.7749 1359 36.8646
67.8923 1494 38.6523
68.0096 1539 39.2301
68.1269 1611 40.1373
68.2442 1541 39.2556
68.3614 1531 39.128
68.4787 1552 39.3954
68.5958 1544 39.2938
68.713 1529 39.1024
68.8302 1462 38.2361
68.9473 1209 34.7707
69.0643 1196 34.5832
69.1814 1076 32.8024
69.2984 1091 33.0303
69.4154 1260 35.4965
69.5323 1328 36.4417
69.6492 1381 37.1618
69.7661 1427 37.7757
69.8829 1476 38.4187
69.9997 1587 39.8372
70.1165 1452 38.1051
70.2332 1409 37.5366
70.3499 1383 37.1887
70.4665 1246 35.2987
70.5831 1234 35.1283
70.6996 1168 34.176
70.8161 1117 33.4215
70.9326 1002 31.6544
71.049 879 29.6479
71.1653 729 27
71.2817 637 25.2389
71.3979 613 24.7588
71.5141 606 24.6171
71.6303 589 24.2693
71.7464 508 22.5389
71.8624 0 1
71.9784 0 1
72.0944 0 1
72.2102 0 1
72.3261 0 1
72.4418 0 1
72.5575 0 1
72.6732 0 1
75.1054 0 1
75.2209 0 1
75.3365 0 1
75.4521 0 1
75.5678 0 1
75.6835 0 1
75.7993 0 1
75.9151 0 1
76.031 0 1
76.147 1001 31.6386
76.263 979 31.289
76.3791 987 31.4166
76.4952 1000 31.6228
76.6113 999 31.607
76.7276 1104 33.2265
76.8438 1206 34.7275
76.9601 1279 35.7631
77.0765 1274 35.6931
77.1929 1418 37.6563
77.3093 1432 37.8418
77.4258 1358 36.8511
77.5423 1391 37.2961
77.6589 1260 35.4965
77.7755 1208 34.7563
77.8921 1144 33.8231
78.0088 1052 32.4345
78.1256 931 30.5123
78.2423 931 30.5123
78.3591 1097 33.121
78.4759 1110 33.3167
78.5928 1239 35.1994
78.7097 1261 35.5106
78.8266 1333 36.5103
78.9436 1296 36
79.0606 1409 37.5366
79.1776 1392 37.3095
79.2946 1422 37.7094
79.4117 1412 37.5766
79.5288 1271 35.6511
79.6459 1388 37.2559
79.7631 1342 36.6333
79.8802 1230 35.0714
79.9974 1193 34.5398
80.1147 1094 33.0757
80.2319 1090 33.0151
80.3491 1150 33.9116
80.4664 1266 35.5809
80.5837 1258 35.4683
80.701 1317 36.2905
80.8183 1526 39.064
80.9357 1433 37.855
81.053 1437 37.9078
81.1704 1347 36.7015
81.2877 1459 38.1969
81.4051 1374 37.0675
81.5225 1180 34.3511
81.6399 1125 33.541
81.7573 1059 32.5423
81.8747 972 31.1769
81.9922 966 31.0805
82.1096 1110 33.3167
82.227 1211 34.7994
82.3444 1254 35.4119
82.4619 1366 36.9594
82.5793 1452 38.1051
82.6967 1360 36.8782
82.8142 1377 37.108
82.9316 1403 37.4566
83.049 1405 37.4833
83.1664 1452 38.1051
83.2838 1431 37.8286
83.4012 1295 35.9861
83.5186 1413 37.5899
83.636 1234 35.1283
83.7534 1173 34.2491
83.8708 1132 33.6452
83.9881 1144 33.8231
84.1055 1191 34.5109
84.2228 1239 35.1994
84.3401 1375 37.081
84.4575 1466 38.2884
84.5747 1455 38.1445
84.692 1431 37.8286
84.8093 1525 39.0512
84.9265 1462 38.2361
85.0437 1353 36.7831
85.1609 1199 34.6266
85.2781 1128 33.5857
85.3952 989 31.4484
85.5123 1034 32.1559
85.6294 1030 32.0936
85.7465 1182 34.3802
85.8636 1237 35.171
85.9806 1301 36.0694
86.0976 1357 36.8375
86.2145 1358 36.8511
86.3315 1464 38.2623
86.4484 1453 38.1182
86.5652 1431 37.8286
86.682 1426 37.7624
86.7988 1396 37.3631
86.9156 1400 37.4166
87.0323 1402 37.4433
87.149 1327 36.428
87.2657 1249 35.3412
87.3823 1143 33.8083
87.4988 1004 31.686
87.6154 1018 31.9061
87.7318 979 31.289
87.8483 1048 32.3728
87.9647 1114 33.3766
88.081 1150 33.9116
88.1973 1127 33.5708
88.3136 1083 32.909
88.4298 1043 32.2955
88.546 907 30.1164
88.6621 791 28.1247
88.7781 616 24.8193
88.8942 0 1
89.0101 0 1
89.126 0 1
89.2419 0 1
89.3577 0 1
89.4734 0 1
89.5891 0 1
89.7047 0 1
89.8203 0 1
89.9358 0 1
92.3269 0 1
92.4424 0 1
92.558 0 1
92.6736 0 1
92.7893 0 1
92.905 0 1
93.0208 0 1
93.1366 0 1
93.2525 0 1
93.3685 0 1
93.4845 0 1
93.6005 1076 32.8024
93.7167 1157 34.0147
93.8328 1208 34.7563
93.949 1247 35.3129
94.0653 1238 35.1852
94.1816 1229 35.0571
94.2979 1153 33.9559
94.4143 1112 33.3467
94.5307 1130 33.6155
94.6472 1044 32.311
94.7637 1051 32.4191
94.8803 1154 33.9706
94.9969 1234 35.1283
95.1135 1291 35.9305
95.2302 1388 37.2559
95.3469 1453 38.1182
95.4637 1429 37.8021
95.5805 1438 37.921
95.6973 1491 38.6135
95.8142 1503 38.7685
95.9311 1486 38.5487
96.048 1391 37.2961
96.1649 1422 37.7094
96.2819 1356 36.8239
96.3989 1316 36.2767
96.516 1333 36.5103
96.633 1208 34.7563
96.7501 1171 34.2199
96.8673 1206 34.7275
96.9844 1238 35.1852
97.1016 1354 36.7967
97.2188 1472 38.3667
97.336 1509 38.8458
97.4532 1583 39.7869
97.5704 1509 38.8458
97.6877 1464 38.2623
97.805 1420 37.6829
97.9223 1356 36.8239
98.0396 1240 35.2136
98.1569 1178 34.322
98.2743 1037 32.2025
98.3916 1028 32.0624
98.509 1166 34.1467
98.6264 1262 35.5246
98.7438 1311 36.2077
98.8612 1417 37.6431
98.9786 1445 38.0132
99.096 1457 38.1707
99.2134 1517 38.9487
99.3308 1556 39.4462
99.4482 1564 39.5474
99.5656 1520 38.9872
99.6831 1522 39.0128
99.8005 1567 39.5854
99.9179 1524 39.0384
100.035 1472 38.3667
100.153 1402 37.4433
100.27 1272 35.6651
100.388 1338 36.5787
100.505 1353 36.7831
100.622 1434 37.8682
100.74 1483 38.5097
100.857 1614 40.1746
100.975 1502 38.7556
101.092 1632 40.398
101.209 1593 39.9124
101.327 1552 39.3954
101.444 1536 39.1918
101.561 1327 36.428
101.679 1231 35.0856
101.796 1155 33.9853
101.913 1130 33.6155
102.03 1143 33.8083
102.148 1297 36.0139
102.265 1356 36.8239
102.382 1490 38.6005
102.499 1590 39.8748
102.616 1539 39.2301
102.733 1635 40.4351
102.851 1629 40.3609
102.968 1636 40.4475
103.085 1577 39.7115
103.202 1669 40.8534
103.319 1635 40.4351
103.436 1583 39.7869
103.552 1587 39.8372
103.669 1485 38.5357
103.786 1398 37.3898
103.903 1290 35.9166
104.02 1390 37.2827
104.137 1432 37.8418
104.253 1540 39.2428
104.37 1655 40.6817
104.487 1691 41.1218
104.603 1623 40.2865
104.72 1629 40.3609
104.836 1596 39.95
104.953 1484 38.5227
105.069 1263 35.5387
105.186 1195 34.5688
105.302 1106 33.2566
105.418 1001 31.6386
105.535 990 31.4643
105.651 978 31.273
105.767 1020 31.9374
105.883 1028 32.0624
105.999 950 30.8221
106.115 0 1
106.231 0 1
106.347 0 1
106.463 0 1
106.579 0 1
106.694 0 1
106.81 0 1
106.926 0 1
107.041 0 1
107.157 0 1
109.576 0 1
109.692 0 1
109.807 0 1
109.923 0 1
110.039 0 1
110.155 0 1
110.27 0 1
110.386 0 1
110.502 0 1
110.618 681 26.096
110.735 888 29.7993
110.851 1083 32.909
110.967 1210 34.7851
111.083 1233 35.1141
111.199 1282 35.805
111.316 1416 37.6298
111.432 1467 38.3014
111.549 1496 38.6782
111.665 1517 38.9487
111.782 1525 39.0512
111.898 1480 38.4708
112.015 1449 38.0657
112.132 1448 38.0526
112.248 1357 36.8375
112.365 1249 35.3412
112.482 1286 35.8608
112.599 1375 37.081
112.716 1437 37.9078
112.832 1531 39.128
112.949 1545 39.3065
113.066 1629 40.3609
113.183 1587 39.8372
113.3 1544 39.2938
113.417 1497 38.6911
113.534 1425 37.7492
113.652 1223 34.9714
113.769 1251 35.3695
113.886 1130 33.6155
114.003 1082 32.8938
114.12 1134 33.6749
114.238 1297 36.0139
114.355 1352 36.7696
114.472 1366 36.9594
114.589 1535 39.1791
114.707 1531 39.128
114.824 1598 39.975
114.942 1632 40.398
115.059 1616 40.1995
115.176 1590 39.8748
115.294 1603 40.0375
115.411 1616 40.1995
115.529 1435 37.8814
115.646 1468 38.3145
115.764 1372 37.0405
115.881 1292 35.9444
115.999 1306 36.1386
116.116 1346 36.6879
116.234 1402 37.4433
116.351 1486 38.5487
116.469 1506 38.8072
116.586 1606 40.0749
116.704 1574 39.6737
116.821 1515 38.923
116.939 1558 39.4715
117.056 1493 38.6394
117.174 1321 36.3456
117.291 1212 34.8138
117.409 1177 34.3074
117.526 1074 32.7719
117.644 1106 33.2566
117.761 1163 34.1028
117.879 1328 36.4417
117.996 1394 37.3363
118.114 1384 37.2022
118.231 1515 38.923
118.349 1457 38.1707
118.466 1481 38.4838
118.584 1520 38.9872
118.701 1529 39.1024
118.819 1454 38.1314
118.936 1461 38.223
119.053 1433 37.855
119.171 1410 37.55
119.288 1352 36.7696
119.405 1328 36.4417
119.523 1261 35.5106
119.64 1260 35.4965
119.757 1200 34.641
119.875 1289 35.9026
119.992 1420 37.6829
120.109 1471 38.3536
120.226 1420 37.6829
120.343 1429 37.8021
120.46 1431 37.8286
120.578 1418 37.6563
120.695 1407 37.51
120.812 1312 36.2215
120.929 1217 34.8855
121.046 1121 33.4813
121.163 1008 31.749
121.279 938 30.6268
121.396 1013 31.8277
121.513 1027 32.0468
121.63 1112 33.3467
121.747 1162 34.0881
121.863 1116 33.4066
121.98 1155 33.9853
122.097 1140 33.7639
122.213 1116 33.4066
122.33 1088 32.9848
122.446 1101 33.1813
122.563 1041 32.2645
122.679 988 31.4325
122.795 892 29.8664
122.912 831 28.8271
123.028 722 26.8701
123.144 677 26.0192
123.26 551 23.4734
123.377 0 1
123.493 0 1
123.609 0 1
123.725 0 1
123.84 0 1
123.956 0 1
124.072 0 1
124.188 0 1
124.303 0 1
124.419 0 1
126.852 0 1
126.968 0 1
127.083 0 1
127.199 0 1
127.315 0 1
127.431 0 1
127.547 0 1
127.663 0 1
127.779 0 1
127.895 0 1
128.011 0 1
128.127 0 1
128.243 0 1
128.359 1362 36.9053
128.476 1347 36.7015
128.592 1395 37.3497
128.708 1441 37.9605
128.825 1338 36.5787
128.941 1415 37.6165
129.058 1532 39.1408
129.174 1552 39.3954
129.291 1586 39.8246
129.408 1601 40.0125
129.524 1590 39.8748
129.641 1562 39.5221
129.758 1512 38.8844
129.875 1400 37.4166
129.992 1422 37.7094
130.108 1199 34.6266
130.225 1108 33.2866
130.342 1153 33.9559
130.459 1251 35.3695
130.576 1322 36.3593
130.693 1487 38.5616
130.81 1447 38.0395
130.928 1443 37.9868
131.045 1497 38.6911
131.162 1444 38
131.279 1459 38.1969
131.396 1552 39.3954
131.513 1613 40.1622
131.631 1524 39.0384
131.748 1502 38.7556
131.865 1509 38.8458
131.983 1462 38.2361
132.1 1385 37.2156
132.217 1392 37.3095
132.335 1448 38.0526
132.452 1433 37.855
132.57 1538 39.2173
132.687 1565 39.5601
132.804 1550 39.37
132.922 1576 39.6989
133.039 1649 40.6079
133.157 1681 41
133.274 1578 39.724
133.392 1459 38.1969
133.509 1441 37.9605
133.627 1313 36.2353
133.744 1252 35.3836
133.862 1204 34.6987
133.979 1264 35.5528
134.097 1303 36.0971
134.214 1372 37.0405
134.332 1424 37.7359
134.449 1532 39.1408
134.567 1523 39.0256
134.684 1543 39.281
134.802 1578 39.724
134.919 1630 40.3733
135.037 1526 39.064
135.154 1606 40.0749
135.272 1518 38.9615
135.389 1521 39
135.507 1488 38.5746
135.624 1404 37.47
135.742 1405 37.4833
135.859 1405 37.4833
135.977 1439 37.9342
136.094 1451 38.092
136.211 1525 39.0512
136.329 1649 40.6079
136.446 1668 40.8412
136.564 1589 39.8623
136.681 1538 39.2173
136.798 1593 39.9124
136.915 1546 39.3192
137.033 1498 38.704
137.15 1350 36.7423
137.267 1300 36.0555
137.384 1223 34.9714
137.502 1174 34.2637
137.619 1198 34.6121
137.736 1312 36.2215
137.853 1369 37
137.97 1399 37.4032
138.087 1490 38.6005
138.204 1457 38.1707
138.321 1484 38.5227
138.438 1516 38.9358
138.555 1581 39.7618
138.672 1566 39.5727
138.788 1535 39.1791
138.905 1435 37.8814
139.022 1359 36.8646
139.139 1271 35.6511
139.255 1207 34.7419
139.372 1136 33.7046
139.488 1027 32.0468
139.605 1057 32.5115
139.721 1030 32.0936
139.838 1051 32.4191
139.954 1056 32.4962
140.071 1001 31.6386
140.187 944 30.7246
140.303 873 29.5466
140.419 801 28.3019
140.535 794 28.178
140.652 719 26.8142
140.768 0 1
140.884 0 1
141 0 1
141.115 0 1
141.231 0 1
141.347 0 1
141.463 0 1
141.578 0 1
141.694 0 1
144.104 0 1
144.219 0 1
144.335 0 1
144.45 0 1
144.566 0 1
144.682 0 1
144.798 0 1
144.914 0 1
145.03 0 1
145.146 1136 33.7046
145.262 1208 34.7563
145.378 1265 35.5668
145.494 1186 34.4384
145.61 1271 35.6511
145.726 1223 34.9714
145.842 1139 33.7491
145.959 1057 32.5115
146.075 1057 32.5115
146.192 960 30.9839
146.308 942 30.692
146.425 1020 31.9374
146.541 1064 32.619
146.658 1121 33.4813
146.774 1137 33.7194
146.891 1190 34.4964
147.008 1256 35.4401
147.125 1186 34.4384
147.241 1200 34.641
147.358 1204 34.6987
147.475 1262 35.5246
147.592 1205 34.7131
147.709 1217 34.8855
147.826 1181 34.3657
147.943 1172 34.2345
148.06 1131 33.6303
148.177 1099 33.1512
148.294 1130 33.6155
148.411 1144 33.8231
148.528 1213 34.8281
148.645 1210 34.7851
148.762 1239 35.1994
148.88 1258 35.4683
148.997 1246 35.2987
149.114 1177 34.3074
149.231 1272 35.6651
149.349 1215 34.8569
149.466 1153 33.9559
149.583 1191 34.5109
149.701 1069 32.6956
149.818 989 31.4484
149.935 1000 31.6228
150.053 976 31.241
150.17 1055 32.4808
150.287 1086 32.9545
150.405 1073 32.7567
150.522 1167 34.1614
150.64 1122 33.4963
150.757 1191 34.5109
150.875 1165 34.1321
150.992 1179 34.3366
151.11 1181 34.3657
151.227 1180 34.3511
151.344 1180 34.3511
151.462 1167 34.1614
151.579 1162 34.0881
151.697 1105 33.2415
151.814 1122 33.4963
151.932 1008 31.749
152.049 1139 33.7491
152.167 1073 32.7567
152.284 1229 35.0571
152.402 1179 34.3366
152.519 1206 34.7275
152.636 1172 34.2345
152.754 1195 34.5688
152.871 1229 35.0571
152.989 1207 34.7419
153.106 1125 33.541
153.223 1110 33.3167
153.341 941 30.6757
153.458 962 31.0161
153.575 944 30.7246
153.693 915 30.249
153.81 1001 31.6386
153.927 976 31.241
154.044 1067 32.665
154.162 1069 32.6956
154.279 1076 32.8024
154.396 1103 33.2114
154.513 1140 33.7639
154.63 1156 34
154.747 1107 33.2716
154.864 1126 33.5559
154.981 1100 33.1662
155.098 1088 32.9848
155.215 1056 32.4962
155.332 1058 32.5269
155.449 1018 31.9061
155.566 991 31.4802
155.683 1042 32.28
155.8 1055 32.4808
155.917 1033 32.1403
156.033 1033 32.1403
156.15 0 1
156.267 0 1
156.383 0 1
156.5 0 1
156.617 0 1
156.733 0 1
156.85 0 1
156.966 0 1
157.082 0 1
157.199 0 1
157.315 0 1
157.431 0 1
157.547 0 1
157.664 0 1
157.78 0 1
157.896 0 1
158.012 0 1
158.128 0 1
158.244 0 1
158.359 0 1
158.475 0 1
158.591 0 1
158.706 0 1
