
6.15755 0 1
6.2731 0 1
6.3887 0 1
6.50437 0 1
6.62009 0 1
6.73587 0 1
6.8517 0 1
6.96759 0 1
7.08353 0 1
7.19952 0 1
7.31557 0 1
7.43166 0 1
7.54781 0 1
7.664 0 1
7.78024 0 1
7.89653 0 1
8.01286 0 1
8.12924 0 1
8.24567 0 1
8.36213 0 1
8.47864 0 1
8.59519 0 1
8.71178 0 1
8.82841 0 1
8.94508 0 1
9.06179 0 1
9.17853 0 1
9.29531 0 1
9.41212 0 1
9.52897 0 1
9.64584 0 1
9.76276 0 1
9.8797 0 1
9.99667 0 1
10.1137 0 1
10.2307 0 1
10.3478 0 1
10.4648 0 1
10.5819 0 1
10.6991 0 1
10.8162 0 1
10.9334 0 1
11.0506 0 1
11.1678 0 1
11.285 0 1
11.4023 0 1
11.5196 0 1
11.6369 0 1
11.7542 0 1
11.8715 0 1
11.9888 0 1
12.1062 0 1
12.2235 0 1
12.3409 0 1
12.4582 0 1
12.5756 0 1
12.693 0 1
12.8104 0 1
12.9278 0 1
13.0452 0 1
13.1626 0 1
13.28 0 1
13.3974 0 1
13.5149 0 1
13.6323 0 1
13.7497 0 1
13.8671 0 1
13.9845 0 1
14.1019 0 1
14.2193 0 1
14.3367 0 1
14.4541 0 1
14.5714 0 1
14.6888 0 1
14.8062 0 1
14.9235 0 1
15.0408 0 0
15.1581 0 0
15.2755 0 0
15.3927 0 0
15.51 0 0
15.6273 0 0
15.7445 0 0
15.8617 0 0
15.9789 0 0
16.0961 0 0
16.2132 0 0
16.3304 0 0
16.4475 0 0
16.5646 0 0
16.6816 0 0
16.7986 0 0
16.9156 0 0
17.0326 0 0
17.1496 0 0
17.2665 0 0
17.3833 0 0
17.5002 0 0
17.617 0 0
17.7338 0 0
17.8505 0 0
17.9672 0 0
18.0839 0 0
18.2005 0 0
18.3171 0 0
18.4337 0 0
18.5502 0 0
18.6666 0 0
18.7831 0 0
18.8994 0 0
19.0158 0 0
19.1321 0 0
19.2483 0 0
19.3645 0 0
19.4806 0 0
19.5967 0 0
19.7128 0 0
19.8288 0 0
19.9447 0 0
20.0606 0 1
20.1764 0 1
20.2922 0 1
20.4079 0 1
20.5236 0 1
20.6392 0 1
20.7548 0 1
20.8702 0 1
23.3078 0 1
23.4233 0 1
23.539 0 1
23.6547 0 1
23.7704 0 1
23.8862 0 1
24.0021 0 1
24.118 0 1
24.234 0 1
24.35 0 1
24.4661 1435 37.8814
24.5822 1430 37.8153
24.6984 1423 37.7227
24.8146 1331 36.4829
24.9309 1361 36.8917
25.0472 1356 36.8239
25.1636 1386 37.229
25.28 1455 38.1445
25.3965 1472 38.3667
25.513 1519 38.9744
25.6296 1660 40.7431
25.7462 1604 40.05
25.8628 1596 39.95
25.9795 1571 39.6358
26.0962 1616 40.1995
26.213 1607 40.0874
26.3298 1590 39.8748
26.4466 1650 40.6202
26.5635 1539 39.2301
26.6804 1548 39.3446
26.7973 1434 37.8682
26.9143 1520 38.9872
27.0313 1500 38.7298
27.1483 1560 39.4968
27.2653 1600 40
27.3824 1611 40.1373
27.4996 1663 40.7799
27.6167 1676 40.939
27.7339 1626 40.3237
27.8511 1562 39.5221
27.9683 1519 38.9744
28.0855 1522 39.0128
28.2028 1488 38.5746
28.3201 1346 36.6879
28.4374 1424 37.7359
28.5547 1319 36.318
28.6721 1349 36.7287
28.7894 1416 37.6298
28.9068 1415 37.6165
29.0242 1421 37.6962
29.1416 1526 39.064
29.259 1626 40.3237
29.3764 1605 40.0625
29.4939 1566 39.5727
29.6113 1614 40.1746
29.7288 1597 39.9625
29.8463 1570 39.6232
29.9638 1657 40.7063
30.0812 1575 39.6863
30.1987 1473 38.3797
30.3162 1514 38.9102
30.4337 1441 37.9605
30.5512 1535 39.1791
30.6687 1536 39.1918
30.7862 1629 40.3609
30.9037 1677 40.9512
31.0212 1732 41.6173
31.1387 1624 40.2989
31.2562 1601 40.0125
31.3737 1630 40.3733
31.4912 1579 39.7366
31.6087 1484 38.5227
31.7262 1361 36.8917
31.8436 1439 37.9342
31.9611 1417 37.6431
32.0785 1352 36.7696
32.1959 1349 36.7287
32.3134 1338 36.5787
32.4308 1468 38.3145
32.5482 1423 37.7227
32.6655 1488 38.5746
32.7829 1620 40.2492
32.9002 1621 40.2616
33.0176 1623 40.2865
33.1349 1703 41.2674
33.2522 1683 41.0244
33.3694 1647 40.5832
33.4867 1675 40.9268
33.6039 1651 40.6325
33.7211 1621 40.2616
33.8383 1531 39.128
33.9554 1501 38.7427
34.0725 1540 39.2428
34.1896 1592 39.8999
34.3067 1543 39.281
34.4237 1703 41.2674
34.5407 1659 40.7308
34.6577 1663 40.7799
34.7746 1649 40.6079
34.8915 1755 41.8927
35.0084 1640 40.4969
35.1252 1658 40.7185
35.242 1513 38.8973
35.3587 1519 38.9744
35.4755 1544 39.2938
35.5921 1372 37.0405
35.7088 1317 36.2905
35.8254 1307 36.1525
35.9419 1348 36.7151
36.0584 1363 36.9188
36.1749 1382 37.1753
36.2913 1476 38.4187
36.4077 1489 38.5876
36.524 1551 39.3827
36.6403 1622 40.2741
36.7565 1662 40.7676
36.8727 1670 40.8656
36.9889 1625 40.3113
37.1049 1634 40.4228
37.221 0 1
37.3369 0 1
37.4529 0 1
37.5687 0 1
37.6845 0 1
37.8003 0 1
37.916 0 1
38.0316 0 1
38.1472 0 1
40.5851 0 1
40.7008 0 1
40.8164 0 1
40.9322 0 1
41.048 0 1
41.1639 0 1
41.2798 0 1
41.3958 0 1
41.5118 0 1
41.6279 0 1
41.744 1391 37.2961
41.8602 1501 38.7427
41.9765 1456 38.1576
42.0928 1474 38.3927
42.2091 1429 37.8021
42.3255 1405 37.4833
42.4419 1486 38.5487
42.5584 1400 37.4166
42.675 1331 36.4829
42.7915 1430 37.8153
42.9081 1394 37.3363
43.0248 1408 37.5233
43.1415 1455 38.1445
43.2582 1460 38.2099
43.375 1556 39.4462
43.4918 1522 39.0128
43.6087 1585 39.8121
43.7256 1528 39.0896
43.8425 1453 38.1182
43.9595 1430 37.8153
44.0765 1383 37.1887
44.1935 1403 37.4566
44.3106 1264 35.5528
44.4277 1171 34.2199
44.5448 1092 33.0454
44.6619 1057 32.5115
44.7791 1109 33.3017
44.8963 1167 34.1614
45.0136 1251 35.3695
45.1308 1217 34.8855
45.2481 1306 36.1386
45.3654 1336 36.5513
45.4827 1269 35.623
45.6001 1305 36.1248
45.7174 1286 35.8608
45.8348 1267 35.5949
45.9522 1319 36.318
46.0697 1284 35.8329
46.1871 1166 34.1467
46.3046 1137 33.7194
46.422 1146 33.8526
46.5395 1180 34.3511
46.657 1170 34.2053
46.7745 1246 35.2987
46.892 1256 35.4401
47.0096 1285 35.8469
47.1271 1192 34.5254
47.2446 1159 34.0441
47.3622 1185 34.4238
47.4797 1186 34.4384
47.5973 1100 33.1662
47.7149 1051 32.4191
47.8324 1068 32.6803
47.95 933 30.545
48.0675 861 29.3428
48.1851 839 28.9655
48.3027 809 28.4429
48.4202 846 29.0861
48.5378 941 30.6757
48.6554 1015 31.8591
48.7729 1013 31.8277
48.8904 1058 32.5269
49.008 1066 32.6497
49.1255 1052 32.4345
49.243 1033 32.1403
49.3605 1112 33.3467
49.478 1117 33.4215
49.5955 1068 32.6803
49.713 1012 31.8119
49.8304 1051 32.4191
49.9479 1045 32.3265
50.0653 1100 33.1662
50.1827 1165 34.1321
50.3001 1292 35.9444
50.4175 1271 35.6511
50.5348 1241 35.2278
50.6521 1409 37.5366
50.7694 1361 36.8917
50.8867 1373 37.054
51.004 1349 36.7287
51.1212 1367 36.973
51.2384 1330 36.4692
51.3556 1324 36.3868
51.4727 1204 34.6987
51.5899 1132 33.6452
51.707 1126 33.5559
51.824 1129 33.6006
51.9411 1206 34.7275
52.0581 1385 37.2156
52.175 1435 37.8814
52.2919 1423 37.7227
52.4088 1457 38.1707
52.5257 1603 40.0375
52.6425 1581 39.7618
52.7593 1676 40.939
52.876 1639 40.4846
52.9927 1571 39.6358
53.1094 1610 40.1248
53.226 1527 39.0768
53.3426 1595 39.9375
53.4591 1518 38.9615
53.5756 1596 39.95
53.692 1679 40.9756
53.8084 1769 42.0595
53.9248 1732 41.6173
54.0411 1696 41.1825
54.1573 1776 42.1426
54.2735 0 1
54.3896 0 1
54.5057 0 1
54.6217 0 1
54.7377 0 1
54.8537 0 1
54.9695 0 1
55.0853 0 1
55.2011 0 1
55.3168 0 1
55.4324 0 1
57.824 0 1
57.9396 0 1
58.0553 0 1
58.1711 0 1
58.2869 0 1
58.4028 0 1
58.5187 0 1
58.6347 0 1
58.7508 0 1
58.8669 0 1
58.983 2094 45.7602
59.0992 2241 47.3392
59.2155 2256 47.4974
59.3318 2259 47.5289
59.4482 2322 48.1871
59.5646 2169 46.5725
59.681 2254 47.4763
59.7975 2175 46.6369
59.9141 2094 45.7602
60.0306 1925 43.8748
60.1473 1877 43.3244
60.2639 1664 40.7922
60.3807 1586 39.8246
60.4974 1597 39.9625
60.6142 1670 40.8656
60.731 1698 41.2068
60.8479 1934 43.9773
60.9648 2029 45.0444
61.0818 2097 45.793
61.1987 2193 46.8295
61.3158 2201 46.9148
61.4328 2142 46.2817
61.5499 2217 47.085
61.667 2160 46.4758
61.7841 2113 45.9674
61.9013 2119 46.0326
62.0185 2098 45.8039
62.1357 2108 45.913
62.253 2179 46.6798
62.3702 2187 46.7654
62.4875 2232 47.244
62.6049 2283 47.7807
62.7222 2204 46.9468
62.8396 2348 48.4562
62.9569 2284 47.7912
63.0743 2337 48.3425
63.1918 2185 46.744
63.3092 2248 47.4131
63.4267 2054 45.3211
63.5441 1984 44.5421
63.6616 1870 43.2435
63.7791 1642 40.5216
63.8966 1573 39.6611
64.0142 1615 40.1871
64.1317 1710 41.3521
64.2492 1711 41.3642
64.3668 1956 44.2267
64.4843 2036 45.1221
64.6019 2029 45.0444
64.7195 2202 46.9255
64.837 2212 47.0319
64.9546 2189 46.7868
65.0722 2098 45.8039
65.1898 2140 46.2601
65.3074 2132 46.1736
65.4249 2100 45.8258
65.5425 2118 46.0217
65.6601 2105 45.8803
65.7777 2144 46.3033
65.8952 2124 46.0869
66.0128 2285 47.8017
66.1304 2288 47.833
66.2479 2377 48.7545
66.3655 2327 48.239
66.483 2333 48.3011
66.6005 2331 48.2804
66.718 2309 48.0521
66.8355 2278 47.7284
66.953 2251 47.4447
67.0705 2170 46.5833
67.1879 1980 44.4972
67.3054 1950 44.1588
67.4228 1738 41.6893
67.5402 1601 40.0125
67.6576 1517 38.9487
67.7749 1618 40.2244
67.8923 1923 43.852
68.0096 2024 44.9889
68.1269 2210 47.0106
68.2442 2245 47.3814
68.3614 2332 48.2908
68.4787 2338 48.3529
68.5958 2349 48.4665
68.713 2434 49.3356
68.8302 2390 48.8876
68.9473 2332 48.2908
69.0643 2269 47.634
69.1814 2263 47.571
69.2984 2187 46.7654
69.4154 2437 49.366
69.5323 2469 49.689
69.6492 2589 50.8822
69.7661 2618 51.1664
69.8829 2637 51.3517
69.9997 2700 51.9615
70.1165 2602 51.0098
70.2332 2640 51.3809
70.3499 2677 51.7397
70.4665 2617 51.1566
70.5831 2516 50.1597
70.6996 2543 50.4282
70.8161 2333 48.3011
70.9326 2193 46.8295
71.049 1900 43.589
71.1653 1701 41.2432
71.2817 1632 40.398
71.3979 1634 40.4228
71.5141 1741 41.7253
71.6303 1984 44.5421
71.7464 2016 44.8999
71.8624 0 1
71.9784 0 1
72.0944 0 1
72.2102 0 1
72.3261 0 1
72.4418 0 1
72.5575 0 1
72.6732 0 1
75.1054 0 1
75.2209 0 1
75.3365 0 1
75.4521 0 1
75.5678 0 1
75.6835 0 1
75.7993 0 1
75.9151 0 1
76.031 0 1
76.147 2307 48.0312
76.263 2309 48.0521
76.3791 2169 46.5725
76.4952 1943 44.0795
76.6113 1743 41.7493
76.7276 1842 42.9185
76.8438 2001 44.7325
76.9601 2259 47.5289
77.0765 2574 50.7346
77.1929 2826 53.1601
77.3093 2867 53.5444
77.4258 2930 54.1295
77.5423 2925 54.0833
77.6589 2922 54.0555
77.7755 2960 54.4059
77.8921 2871 53.5817
78.0088 2805 52.9623
78.1256 2767 52.6023
78.2423 2739 52.3355
78.3591 2719 52.144
78.4759 2845 53.3385
78.5928 2845 53.3385
78.7097 2971 54.5069
78.8266 3213 56.6833
78.9436 3087 55.5608
79.0606 3207 56.6304
79.1776 3125 55.9017
79.2946 3186 56.4447
79.4117 3159 56.205
79.5288 3022 54.9727
79.6459 3060 55.3173
79.7631 2891 53.768
79.8802 2708 52.0384
79.9974 2463 49.6286
80.1147 2230 47.2229
80.2319 1921 43.8292
80.3491 2015 44.8888
80.4664 2215 47.0638
80.5837 2424 49.2341
80.701 2748 52.4214
80.8183 2995 54.7266
80.9357 3114 55.8032
81.053 3162 56.2317
81.1704 3171 56.3116
81.2877 3199 56.5597
81.4051 3196 56.5332
81.5225 3191 56.4889
81.6399 3002 54.7905
81.7573 3037 55.109
81.8747 2961 54.4151
81.9922 2838 53.2729
82.1096 2998 54.754
82.227 2998 54.754
82.3444 3177 56.3649
82.4619 3161 56.2228
82.5793 3145 56.0803
82.6967 3256 57.0614
82.8142 3424 58.515
82.9316 3332 57.7235
83.049 3157 56.1872
83.1664 3141 56.0446
83.2838 3104 55.7136
83.4012 2974 54.5344
83.5186 2799 52.9056
83.636 2574 50.7346
83.7534 2341 48.3839
83.8708 2056 45.3431
83.9881 1977 44.4635
84.1055 2095 45.7712
84.2228 2396 48.949
84.3401 2804 52.9528
84.4575 3015 54.909
84.5747 3314 57.5674
84.692 3352 57.8965
84.8093 3385 58.1808
84.9265 3432 58.5833
85.0437 3362 57.9828
85.1609 3343 57.8187
85.2781 3179 56.3826
85.3952 3115 55.8122
85.5123 3193 56.5066
85.6294 3146 56.0892
85.7465 3250 57.0088
85.8636 3213 56.6833
85.9806 3483 59.0169
86.0976 3560 59.6657
86.2145 3760 61.3188
86.3315 3672 60.597
86.4484 3922 62.6259
86.5652 3766 61.3677
86.682 3750 61.2372
86.7988 3722 61.0082
86.9156 3594 59.95
87.0323 3491 59.0847
87.149 3344 57.8273
87.2657 3070 55.4076
87.3823 2534 50.3389
87.4988 2267 47.613
87.6154 2488 49.8799
87.7318 2944 54.2586
87.8483 3266 57.1489
87.9647 3639 60.3241
88.081 3966 62.9762
88.1973 3983 63.111
88.3136 4135 64.304
88.4298 4021 63.4114
88.546 4071 63.8044
88.6621 3979 63.0793
88.7781 3865 62.1691
88.8942 0 1
89.0101 0 1
89.126 0 1
89.2419 0 1
89.3577 0 1
89.4734 0 1
89.5891 0 1
89.7047 0 1
89.8203 0 1
89.9358 0 1
92.3269 0 1
92.4424 0 1
92.558 0 1
92.6736 0 1
92.7893 0 1
92.905 0 1
93.0208 0 1
93.1366 0 1
93.2525 0 1
93.3685 0 1
93.4845 0 1
93.6005 4085 63.914
93.7167 4360 66.0303
93.8328 4205 64.846
93.949 4210 64.8845
94.0653 4201 64.8151
94.1816 4308 65.6354
94.2979 4272 65.3605
94.4143 4202 64.8228
94.5307 4112 64.1249
94.6472 4203 64.8305
94.7637 4109 64.1015
94.8803 4131 64.2729
94.9969 4218 64.9461
95.1135 4309 65.643
95.2302 4451 66.7158
95.3469 4499 67.0746
95.4637 4478 66.9179
95.5805 4712 68.644
95.6973 4734 68.8041
95.8142 4691 68.4909
95.9311 4615 67.9338
96.048 4495 67.0448
96.1649 4273 65.3682
96.2819 4120 64.1872
96.3989 3655 60.4566
96.516 3278 57.2538
96.633 2816 53.066
96.7501 2781 52.7352
96.8673 3060 55.3173
96.9844 3474 58.9406
97.1016 4078 63.8592
97.2188 4407 66.3852
97.336 4721 68.7095
97.4532 4931 70.2211
97.5704 4712 68.644
97.6877 4893 69.95
97.805 4744 68.8767
97.9223 4634 68.0735
98.0396 4714 68.6586
98.1569 4633 68.0661
98.2743 4399 66.325
98.3916 4409 66.4003
98.509 4425 66.5207
98.6264 4528 67.2904
98.7438 4752 68.9348
98.8612 4726 68.7459
98.9786 4906 70.0428
99.096 4979 70.562
99.2134 4984 70.5975
99.3308 5038 70.9789
99.4482 5039 70.9859
99.5656 4976 70.5408
99.6831 4849 69.6348
99.8005 4835 69.5342
99.9179 4439 66.6258
100.035 4110 64.1093
100.153 3697 60.803
100.27 3221 56.7539
100.388 3276 57.2364
100.505 3684 60.696
100.622 4248 65.1767
100.74 4877 69.8355
100.857 5006 70.7531
100.975 5220 72.2496
101.092 5212 72.1942
101.209 5136 71.6659
101.327 5254 72.4845
101.444 5073 71.225
101.561 5083 71.2952
101.679 4966 70.4699
101.796 5011 70.7884
101.913 4930 70.214
102.03 4885 69.8928
102.148 4905 70.0357
102.265 5219 72.2426
102.382 4795 69.2459
102.499 5349 73.1369
102.616 5362 73.2257
102.733 5579 74.6927
102.851 5561 74.5721
102.968 5630 75.0333
103.085 5480 74.027
103.202 5393 73.437
103.319 5147 71.7426
103.436 4829 69.491
103.552 4417 66.4605
103.669 3946 62.8172
103.786 3491 59.0847
103.903 3530 59.4138
104.02 3968 62.9921
104.137 4627 68.0221
104.253 5225 72.2842
104.37 5532 74.3774
104.487 5545 74.4648
104.603 5650 75.1665
104.72 5687 75.4122
104.836 5724 75.6571
104.953 5523 74.3169
105.069 5688 75.4188
105.186 5542 74.4446
105.302 5428 73.675
105.418 5211 72.1873
105.535 5475 73.9932
105.651 5321 72.9452
105.767 5436 73.7292
105.883 5662 75.2463
105.999 5589 74.7596
106.115 0 1
106.231 0 1
106.347 0 1
106.463 0 1
106.579 0 1
106.694 0 1
106.81 0 1
106.926 0 1
107.041 0 1
107.157 0 1
109.576 0 1
109.692 0 1
109.807 0 1
109.923 0 1
110.039 0 1
110.155 0 1
110.27 0 1
110.386 0 1
110.502 0 1
110.618 4970 70.4982
110.735 5038 70.9789
110.851 5208 72.1665
110.967 5305 72.8354
111.083 5356 73.1847
111.199 5366 73.253
111.316 5482 74.0405
111.432 5590 74.7663
111.549 5417 73.6003
111.665 5275 72.6292
111.782 5159 71.8262
111.898 4640 68.1175
112.015 4366 66.0757
112.132 3855 62.0886
112.248 3298 57.4282
112.365 3232 56.8507
112.482 3541 59.5063
112.599 4070 63.7966
112.716 4449 66.7008
112.832 4935 70.2496
112.949 4898 69.9857
113.066 4933 70.2353
113.183 4966 70.4699
113.3 4926 70.1855
113.417 5111 71.4913
113.534 4943 70.3065
113.652 4781 69.1448
113.769 4765 69.029
113.886 4517 67.2086
114.003 4619 67.9632
114.12 4502 67.0969
114.238 4575 67.6387
114.355 4499 67.0746
114.472 4655 68.2276
114.589 4614 67.9264
114.707 4593 67.7717
114.824 4678 68.3959
114.942 4776 69.1086
115.059 4746 68.8912
115.176 4758 68.9783
115.294 4554 67.4833
115.411 4555 67.4907
115.529 4024 63.435
115.646 3674 60.6135
115.764 3263 57.1227
115.881 2904 53.8888
115.999 3088 55.5698
116.116 3509 59.2368
116.234 4081 63.8827
116.351 4439 66.6258
116.469 4644 68.1469
116.586 4705 68.593
116.704 4573 67.624
116.821 4672 68.352
116.939 4619 67.9632
117.056 4715 68.6659
117.174 4593 67.7717
117.291 4553 67.4759
117.409 4656 68.2349
117.526 4516 67.2012
117.644 4473 66.8805
117.761 4505 67.1193
117.879 4488 66.9925
117.996 4306 65.6201
118.114 4489 67
118.231 4649 68.1836
118.349 4608 67.8823
118.466 4714 68.6586
118.584 4852 69.6563
118.701 4773 69.0869
118.819 4809 69.347
118.936 4531 67.3127
119.053 4435 66.5958
119.171 4218 64.9461
119.288 3724 61.0246
119.405 3261 57.1052
119.523 2973 54.5252
119.64 3119 55.848
119.757 3489 59.0678
119.875 3916 62.578
119.992 4229 65.0308
120.109 4441 66.6408
120.226 4502 67.0969
120.343 4483 66.9552
120.46 4530 67.3053
120.578 4333 65.8255
120.695 4387 66.2344
120.812 4608 67.8823
120.929 4447 66.6858
121.046 4553 67.4759
121.163 4517 67.2086
121.279 4334 65.8331
121.396 4369 66.0984
121.513 4304 65.6049
121.63 4102 64.0469
121.747 4204 64.8383
121.863 4193 64.7534
121.98 4327 65.7799
122.097 4470 66.8581
122.213 4546 67.424
122.33 4588 67.7348
122.446 4546 67.424
122.563 4469 66.8506
122.679 4394 66.2873
122.795 4084 63.9062
122.912 3900 62.45
123.028 3441 58.66
123.144 3102 55.6956
123.26 2878 53.647
123.377 0 1
123.493 0 1
123.609 0 1
123.725 0 1
123.84 0 1
123.956 0 1
124.072 0 1
124.188 0 1
124.303 0 1
124.419 0 1
126.852 0 1
126.968 0 1
127.083 0 1
127.199 0 1
127.315 0 1
127.431 0 1
127.547 0 1
127.663 0 1
127.779 0 1
127.895 0 1
128.011 0 1
128.127 0 1
128.243 0 1
128.359 3356 57.931
128.476 3120 55.857
128.592 3282 57.2887
128.708 3752 61.2536
128.825 4105 64.0703
128.941 4490 67.0075
129.058 4664 68.2935
129.174 4610 67.897
129.291 4760 68.9928
129.408 4661 68.2715
129.524 4654 68.2202
129.641 4688 68.469
129.758 4633 68.0661
129.875 4580 67.6757
129.992 4576 67.6461
130.108 4582 67.6905
130.225 4425 66.5207
130.342 4567 67.5796
130.459 4370 66.106
130.576 4649 68.1836
130.693 4589 67.7422
130.81 4481 66.9403
130.928 4644 68.1469
131.045 4539 67.3721
131.162 4727 68.7532
131.279 4807 69.3325
131.396 4667 68.3154
131.513 4543 67.4018
131.631 4207 64.8614
131.748 4175 64.6142
131.865 3476 58.9576
131.983 3156 56.1783
132.1 3121 55.8659
132.217 3466 58.8727
132.335 3726 61.041
132.452 4259 65.261
132.57 4423 66.5056
132.687 4244 65.146
132.804 4634 68.0735
132.922 4442 66.6483
133.039 4589 67.7422
133.157 4485 66.9701
133.274 4384 66.2118
133.392 4475 66.8954
133.509 4320 65.7267
133.627 4380 66.1816
133.744 4410 66.4078
133.862 4303 65.5973
133.979 4458 66.7683
134.097 4326 65.7723
134.214 4327 65.7799
134.332 4338 65.8635
134.449 4358 66.0151
134.567 4434 66.5883
134.684 4573 67.624
134.802 4581 67.6831
134.919 4500 67.082
135.037 4558 67.513
135.154 4308 65.6354
135.272 4148 64.405
135.389 3799 61.636
135.507 3280 57.2713
135.624 3129 55.9375
135.742 3219 56.7362
135.859 3502 59.1777
135.977 3867 62.1852
136.094 4234 65.0692
136.211 4344 65.909
136.329 4472 66.873
136.446 4428 66.5432
136.564 4295 65.5362
136.681 4378 66.1665
136.798 4328 65.7875
136.915 4394 66.2873
137.033 4367 66.0833
137.15 4359 66.0227
137.267 4178 64.6375
137.384 4171 64.5833
137.502 4159 64.4903
137.619 4093 63.9766
137.736 4165 64.5368
137.853 4020 63.4035
137.97 4097 64.0078
138.087 4394 66.2873
138.204 4257 65.2457
138.321 4359 66.0227
138.438 4428 66.5432
138.555 4358 66.0151
138.672 4356 66
138.788 4229 65.0308
138.905 4095 63.9922
139.022 3796 61.6117
139.139 3531 59.4222
139.255 3200 56.5685
139.372 3138 56.0179
139.488 3342 57.81
139.605 3738 61.1392
139.721 4047 63.616
139.838 4163 64.5213
139.954 4308 65.6354
140.071 4322 65.7419
140.187 4231 65.0461
140.303 4151 64.4283
140.419 4205 64.846
140.535 4263 65.2917
140.652 4102 64.0469
140.768 0 1
140.884 0 1
141 0 1
141.115 0 1
141.231 0 1
141.347 0 1
141.463 0 1
141.578 0 1
141.694 0 1
144.104 0 1
144.219 0 1
144.335 0 1
144.45 0 1
144.566 0 1
144.682 0 1
144.798 0 1
144.914 0 1
145.03 0 1
145.146 3669 60.5723
145.262 3685 60.7042
145.378 3699 60.8194
145.494 3637 60.3075
145.61 3598 59.9833
145.726 3637 60.3075
145.842 3562 59.6825
145.959 3513 59.2706
146.075 3481 59
146.192 3444 58.6856
146.308 3530 59.4138
146.425 3674 60.6135
146.541 3558 59.649
146.658 3553 59.607
146.774 3553 59.607
146.891 3588 59.8999
147.008 3611 60.0916
147.125 3576 59.7997
147.241 3684 60.696
147.358 3564 59.6992
147.475 3330 57.7062
147.592 3245 56.9649
147.709 2914 53.9815
147.826 2795 52.8678
147.943 2659 51.5655
148.06 2732 52.2685
148.177 3125 55.9017
148.294 3427 58.5406
148.411 3523 59.3549
148.528 3442 58.6686
148.645 3554 59.6154
148.762 3413 58.4209
148.88 3411 58.4038
148.997 3299 57.4369
149.114 3440 58.6515
149.231 3175 56.3471
149.349 3364 58
149.466 3293 57.3847
149.583 3278 57.2538
149.701 3266 57.1489
149.818 3229 56.8243
149.935 3340 57.7927
150.053 3376 58.1034
150.17 3290 57.3585
150.287 3327 57.6802
150.405 3292 57.376
150.522 3336 57.7581
150.64 3246 56.9737
150.757 3340 57.7927
150.875 3307 57.5065
150.992 3266 57.1489
151.11 3104 55.7136
151.227 2992 54.6992
151.344 2827 53.1695
151.462 2652 51.4976
151.579 2540 50.3984
151.697 2708 52.0384
151.814 3024 54.9909
151.932 3209 56.648
152.049 3400 58.3095
152.167 3332 57.7235
152.284 3454 58.7707
152.402 3457 58.7963
152.519 3323 57.6455
152.636 3293 57.3847
152.754 3340 57.7927
152.871 3239 56.9122
152.989 3351 57.8878
153.106 3238 56.9034
153.223 3318 57.6021
153.341 3296 57.4108
153.458 3260 57.0964
153.575 3429 58.5577
153.693 3330 57.7062
153.81 3282 57.2887
153.927 3239 56.9122
154.044 3301 57.4543
154.162 3318 57.6021
154.279 3345 57.836
154.396 3377 58.112
154.513 3516 59.2959
154.63 3332 57.7235
154.747 3312 57.55
154.864 3182 56.4092
154.981 3079 55.4887
155.098 2787 52.792
155.215 2742 52.3641
155.332 2853 53.4135
155.449 3104 55.7136
155.566 3331 57.7148
155.683 3394 58.258
155.8 3504 59.1946
155.917 3391 58.2323
156.033 3523 59.3549
156.15 0 1
156.267 0 1
156.383 0 1
156.5 0 1
156.617 0 1
156.733 0 1
156.85 0 1
156.966 0 1
157.082 0 1
157.199 0 1
157.315 0 1
157.431 0 1
157.547 0 1
157.664 0 1
157.78 0 1
157.896 0 1
158.012 0 1
158.128 0 1
158.244 0 1
158.359 0 1
158.475 0 1
158.591 0 1
158.706 0 1
