
6.15755 0 1
6.2731 0 1
6.3887 0 1
6.50437 0 1
6.62009 0 1
6.73587 0 1
6.8517 0 1
6.96759 0 1
7.08353 0 1
7.19952 0 1
7.31557 0 1
7.43166 0 1
7.54781 0 1
7.664 0 1
7.78024 0 1
7.89653 0 1
8.01286 0 1
8.12924 0 1
8.24567 0 1
8.36213 0 1
8.47864 0 1
8.59519 0 1
8.71178 0 1
8.82841 0 1
8.94508 0 1
9.06179 0 1
9.17853 0 1
9.29531 0 1
9.41212 0 1
9.52897 0 1
9.64584 0 1
9.76276 0 1
9.8797 0 1
9.99667 0 1
10.1137 0 1
10.2307 0 1
10.3478 0 1
10.4648 0 1
10.5819 0 1
10.6991 0 1
10.8162 0 1
10.9334 0 1
11.0506 0 1
11.1678 0 1
11.285 0 1
11.4023 0 1
11.5196 0 1
11.6369 0 1
11.7542 0 1
11.8715 0 1
11.9888 0 1
12.1062 0 1
12.2235 0 1
12.3409 0 1
12.4582 0 1
12.5756 0 1
12.693 0 1
12.8104 0 1
12.9278 0 1
13.0452 0 1
13.1626 0 1
13.28 0 1
13.3974 0 1
13.5149 0 1
13.6323 0 1
13.7497 0 1
13.8671 0 1
13.9845 0 1
14.1019 0 1
14.2193 0 1
14.3367 0 1
14.4541 0 1
14.5714 0 1
14.6888 0 1
14.8062 0 1
14.9235 0 1
15.0408 89 9.43398
15.1581 85 9.21954
15.2755 67 8.18535
15.3927 88 9.38083
15.51 70 8.3666
15.6273 90 9.48683
15.7445 74 8.60233
15.8617 86 9.27362
15.9789 87 9.32738
16.0961 76 8.7178
16.2132 67 8.18535
16.3304 73 8.544
16.4475 78 8.83176
16.5646 67 8.18535
16.6816 75 8.66025
16.7986 73 8.544
16.9156 72 8.48528
17.0326 77 8.77496
17.1496 70 8.3666
17.2665 63 7.93725
17.3833 76 8.7178
17.5002 58 7.61577
17.617 73 8.544
17.7338 56 7.48331
17.8505 58 7.61577
17.9672 71 8.42615
18.0839 64 8
18.2005 55 7.4162
18.3171 74 8.60233
18.4337 66 8.12404
18.5502 77 8.77496
18.6666 57 7.54983
18.7831 79 8.88819
18.8994 66 8.12404
19.0158 65 8.06226
19.1321 83 9.11043
19.2483 58 7.61577
19.3645 56 7.48331
19.4806 67 8.18535
19.5967 54 7.34847
19.7128 56 7.48331
19.8288 42 6.48074
19.9447 45 6.7082
20.0606 0 1
20.1764 0 1
20.2922 0 1
20.4079 0 1
20.5236 0 1
20.6392 0 1
20.7548 0 1
20.8702 0 1
23.3078 0 1
23.4233 0 1
23.539 0 1
23.6547 0 1
23.7704 0 1
23.8862 0 1
24.0021 0 1
24.118 0 1
24.234 0 1
24.35 0 1
24.4661 31 5.56776
24.5822 28 5.2915
24.6984 32 5.65685
24.8146 53 7.28011
24.9309 54 7.34847
25.0472 65 8.06226
25.1636 63 7.93725
25.28 71 8.42615
25.3965 69 8.30662
25.513 91 9.53939
25.6296 68 8.24621
25.7462 83 9.11043
25.8628 78 8.83176
25.9795 96 9.79796
26.0962 70 8.3666
26.213 75 8.66025
26.3298 68 8.24621
26.4466 81 9
26.5635 60 7.74597
26.6804 52 7.2111
26.7973 68 8.24621
26.9143 62 7.87401
27.0313 63 7.93725
27.1483 62 7.87401
27.2653 55 7.4162
27.3824 61 7.81025
27.4996 71 8.42615
27.6167 61 7.81025
27.7339 56 7.48331
27.8511 50 7.07107
27.9683 66 8.12404
28.0855 65 8.06226
28.2028 79 8.88819
28.3201 66 8.12404
28.4374 82 9.05539
28.5547 57 7.54983
28.6721 64 8
28.7894 53 7.28011
28.9068 73 8.544
29.0242 65 8.06226
29.1416 64 8
29.259 66 8.12404
29.3764 73 8.544
29.4939 62 7.87401
29.6113 56 7.48331
29.7288 52 7.2111
29.8463 68 8.24621
29.9638 44 6.63325
30.0812 52 7.2111
30.1987 60 7.74597
30.3162 54 7.34847
30.4337 58 7.61577
30.5512 78 8.83176
30.6687 55 7.4162
30.7862 72 8.48528
30.9037 71 8.42615
31.0212 65 8.06226
31.1387 59 7.68115
31.2562 77 8.77496
31.3737 60 7.74597
31.4912 84 9.16515
31.6087 63 7.93725
31.7262 57 7.54983
31.8436 58 7.61577
31.9611 79 8.88819
32.0785 62 7.87401
32.1959 69 8.30662
32.3134 58 7.61577
32.4308 69 8.30662
32.5482 68 8.24621
32.6655 60 7.74597
32.7829 66 8.12404
32.9002 51 7.14143
33.0176 44 6.63325
33.1349 55 7.4162
33.2522 58 7.61577
33.3694 58 7.61577
33.4867 60 7.74597
33.6039 49 7
33.7211 53 7.28011
33.8383 71 8.42615
33.9554 46 6.78233
34.0725 59 7.68115
34.1896 52 7.2111
34.3067 55 7.4162
34.4237 61 7.81025
34.5407 76 8.7178
34.6577 75 8.66025
34.7746 73 8.544
34.8915 67 8.18535
35.0084 69 8.30662
35.1252 61 7.81025
35.242 69 8.30662
35.3587 68 8.24621
35.4755 54 7.34847
35.5921 64 8
35.7088 76 8.7178
35.8254 61 7.81025
35.9419 60 7.74597
36.0584 45 6.7082
36.1749 55 7.4162
36.2913 40 6.32456
36.4077 51 7.14143
36.524 46 6.78233
36.6403 49 7
36.7565 33 5.74456
36.8727 31 5.56776
36.9889 26 5.09902
37.1049 25 5
37.221 0 1
37.3369 0 1
37.4529 0 1
37.5687 0 1
37.6845 0 1
37.8003 0 1
37.916 0 1
38.0316 0 1
38.1472 0 1
40.5851 0 1
40.7008 0 1
40.8164 0 1
40.9322 0 1
41.048 0 1
41.1639 0 1
41.2798 0 1
41.3958 0 1
41.5118 0 1
41.6279 0 1
41.744 27 5.19615
41.8602 38 6.16441
41.9765 32 5.65685
42.0928 33 5.74456
42.2091 33 5.74456
42.3255 38 6.16441
42.4419 30 5.47723
42.5584 60 7.74597
42.675 62 7.87401
42.7915 55 7.4162
42.9081 46 6.78233
43.0248 59 7.68115
43.1415 40 6.32456
43.2582 40 6.32456
43.375 49 7
43.4918 44 6.63325
43.6087 56 7.48331
43.7256 45 6.7082
43.8425 51 7.14143
43.9595 46 6.78233
44.0765 39 6.245
44.1935 45 6.7082
44.3106 42 6.48074
44.4277 34 5.83095
44.5448 57 7.54983
44.6619 46 6.78233
44.7791 49 7
44.8963 55 7.4162
45.0136 60 7.74597
45.1308 52 7.2111
45.2481 58 7.61577
45.3654 57 7.54983
45.4827 50 7.07107
45.6001 52 7.2111
45.7174 47 6.85565
45.8348 44 6.63325
45.9522 54 7.34847
46.0697 49 7
46.1871 54 7.34847
46.3046 43 6.55744
46.422 40 6.32456
46.5395 51 7.14143
46.657 45 6.7082
46.7745 48 6.9282
46.892 47 6.85565
47.0096 42 6.48074
47.1271 40 6.32456
47.2446 46 6.78233
47.3622 47 6.85565
47.4797 43 6.55744
47.5973 40 6.32456
47.7149 42 6.48074
47.8324 52 7.2111
47.95 42 6.48074
48.0675 57 7.54983
48.1851 38 6.16441
48.3027 43 6.55744
48.4202 40 6.32456
48.5378 50 7.07107
48.6554 52 7.2111
48.7729 46 6.78233
48.8904 55 7.4162
49.008 47 6.85565
49.1255 44 6.63325
49.243 38 6.16441
49.3605 46 6.78233
49.478 45 6.7082
49.5955 40 6.32456
49.713 34 5.83095
49.8304 57 7.54983
49.9479 48 6.9282
50.0653 40 6.32456
50.1827 49 7
50.3001 47 6.85565
50.4175 48 6.9282
50.5348 29 5.38516
50.6521 56 7.48331
50.7694 48 6.9282
50.8867 44 6.63325
51.004 40 6.32456
51.1212 40 6.32456
51.2384 50 7.07107
51.3556 44 6.63325
51.4727 44 6.63325
51.5899 49 7
51.707 51 7.14143
51.824 55 7.4162
51.9411 49 7
52.0581 41 6.40312
52.175 48 6.9282
52.2919 47 6.85565
52.4088 31 5.56776
52.5257 41 6.40312
52.6425 49 7
52.7593 43 6.55744
52.876 43 6.55744
52.9927 38 6.16441
53.1094 39 6.245
53.226 43 6.55744
53.3426 33 5.74456
53.4591 41 6.40312
53.5756 37 6.08276
53.692 32 5.65685
53.8084 49 7
53.9248 30 5.47723
54.0411 30 5.47723
54.1573 33 5.74456
54.2735 0 1
54.3896 0 1
54.5057 0 1
54.6217 0 1
54.7377 0 1
54.8537 0 1
54.9695 0 1
55.0853 0 1
55.2011 0 1
55.3168 0 1
55.4324 0 1
57.824 0 1
57.9396 0 1
58.0553 0 1
58.1711 0 1
58.2869 0 1
58.4028 0 1
58.5187 0 1
58.6347 0 1
58.7508 0 1
58.8669 0 1
58.983 80 8.94427
59.0992 99 9.94987
59.2155 119 10.9087
59.3318 138 11.7473
59.4482 198 14.0712
59.5646 213 14.5945
59.681 306 17.4929
59.7975 339 18.412
59.9141 518 22.7596
60.0306 697 26.4008
60.1473 900 30
60.2639 982 31.3369
60.3807 1013 31.8277
60.4974 1080 32.8634
60.6142 1252 35.3836
60.731 1211 34.7994
60.8479 1229 35.0571
60.9648 1256 35.4401
61.0818 1118 33.4365
61.1987 1106 33.2566
61.3158 970 31.1448
61.4328 914 30.2324
61.5499 860 29.3258
61.667 849 29.1376
61.7841 817 28.5832
61.9013 953 30.8707
62.0185 913 30.2159
62.1357 926 30.4302
62.253 820 28.6356
62.3702 824 28.7054
62.4875 765 27.6586
62.6049 638 25.2587
62.7222 528 22.9783
62.8396 406 20.1494
62.9569 334 18.2757
63.0743 206 14.3527
63.1918 216 14.6969
63.3092 125 11.1803
63.4267 100 10
63.5441 95 9.74679
63.6616 77 8.77496
63.7791 70 8.3666
63.8966 63 7.93725
64.0142 49 7
64.1317 61 7.81025
64.2492 58 7.61577
64.3668 62 7.87401
64.4843 53 7.28011
64.6019 63 7.93725
64.7195 69 8.30662
64.837 59 7.68115
64.9546 58 7.61577
65.0722 55 7.4162
65.1898 59 7.68115
65.3074 36 6
65.4249 57 7.54983
65.5425 49 7
65.6601 53 7.28011
65.7777 36 6
65.8952 68 8.24621
66.0128 43 6.55744
66.1304 56 7.48331
66.2479 43 6.55744
66.3655 57 7.54983
66.483 66 8.12404
66.6005 61 7.81025
66.718 56 7.48331
66.8355 52 7.2111
66.953 64 8
67.0705 52 7.2111
67.1879 54 7.34847
67.3054 59 7.68115
67.4228 59 7.68115
67.5402 45 6.7082
67.6576 50 7.07107
67.7749 66 8.12404
67.8923 54 7.34847
68.0096 58 7.61577
68.1269 55 7.4162
68.2442 53 7.28011
68.3614 45 6.7082
68.4787 42 6.48074
68.5958 53 7.28011
68.713 49 7
68.8302 50 7.07107
68.9473 54 7.34847
69.0643 46 6.78233
69.1814 47 6.85565
69.2984 45 6.7082
69.4154 42 6.48074
69.5323 44 6.63325
69.6492 64 8
69.7661 54 7.34847
69.8829 64 8
69.9997 42 6.48074
70.1165 40 6.32456
70.2332 61 7.81025
70.3499 52 7.2111
70.4665 39 6.245
70.5831 38 6.16441
70.6996 47 6.85565
70.8161 43 6.55744
70.9326 35 5.91608
71.049 34 5.83095
71.1653 34 5.83095
71.2817 23 4.79583
71.3979 27 5.19615
71.5141 22 4.69042
71.6303 26 5.09902
71.7464 23 4.79583
71.8624 0 1
71.9784 0 1
72.0944 0 1
72.2102 0 1
72.3261 0 1
72.4418 0 1
72.5575 0 1
72.6732 0 1
75.1054 0 1
75.2209 0 1
75.3365 0 1
75.4521 0 1
75.5678 0 1
75.6835 0 1
75.7993 0 1
75.9151 0 1
76.031 0 1
76.147 31 5.56776
76.263 42 6.48074
76.3791 35 5.91608
76.4952 64 8
76.6113 43 6.55744
76.7276 44 6.63325
76.8438 61 7.81025
76.9601 57 7.54983
77.0765 41 6.40312
77.1929 48 6.9282
77.3093 52 7.2111
77.4258 48 6.9282
77.5423 53 7.28011
77.6589 40 6.32456
77.7755 36 6
77.8921 48 6.9282
78.0088 46 6.78233
78.1256 42 6.48074
78.2423 40 6.32456
78.3591 50 7.07107
78.4759 54 7.34847
78.5928 54 7.34847
78.7097 54 7.34847
78.8266 57 7.54983
78.9436 48 6.9282
79.0606 52 7.2111
79.1776 59 7.68115
79.2946 46 6.78233
79.4117 51 7.14143
79.5288 52 7.2111
79.6459 46 6.78233
79.7631 53 7.28011
79.8802 44 6.63325
79.9974 46 6.78233
80.1147 53 7.28011
80.2319 55 7.4162
80.3491 65 8.06226
80.4664 45 6.7082
80.5837 50 7.07107
80.701 49 7
80.8183 50 7.07107
80.9357 52 7.2111
81.053 38 6.16441
81.1704 48 6.9282
81.2877 49 7
81.4051 69 8.30662
81.5225 55 7.4162
81.6399 43 6.55744
81.7573 54 7.34847
81.8747 46 6.78233
81.9922 44 6.63325
82.1096 55 7.4162
82.227 55 7.4162
82.3444 62 7.87401
82.4619 46 6.78233
82.5793 48 6.9282
82.6967 53 7.28011
82.8142 47 6.85565
82.9316 56 7.48331
83.049 63 7.93725
83.1664 63 7.93725
83.2838 49 7
83.4012 59 7.68115
83.5186 45 6.7082
83.636 50 7.07107
83.7534 61 7.81025
83.8708 54 7.34847
83.9881 49 7
84.1055 51 7.14143
84.2228 61 7.81025
84.3401 58 7.61577
84.4575 53 7.28011
84.5747 48 6.9282
84.692 46 6.78233
84.8093 49 7
84.9265 55 7.4162
85.0437 52 7.2111
85.1609 42 6.48074
85.2781 47 6.85565
85.3952 43 6.55744
85.5123 43 6.55744
85.6294 47 6.85565
85.7465 71 8.42615
85.8636 59 7.68115
85.9806 51 7.14143
86.0976 42 6.48074
86.2145 46 6.78233
86.3315 57 7.54983
86.4484 48 6.9282
86.5652 54 7.34847
86.682 56 7.48331
86.7988 49 7
86.9156 56 7.48331
87.0323 52 7.2111
87.149 43 6.55744
87.2657 45 6.7082
87.3823 60 7.74597
87.4988 55 7.4162
87.6154 60 7.74597
87.7318 44 6.63325
87.8483 39 6.245
87.9647 61 7.81025
88.081 27 5.19615
88.1973 48 6.9282
88.3136 34 5.83095
88.4298 36 6
88.546 38 6.16441
88.6621 25 5
88.7781 23 4.79583
88.8942 0 1
89.0101 0 1
89.126 0 1
89.2419 0 1
89.3577 0 1
89.4734 0 1
89.5891 0 1
89.7047 0 1
89.8203 0 1
89.9358 0 1
92.3269 0 1
92.4424 0 1
92.558 0 1
92.6736 0 1
92.7893 0 1
92.905 0 1
93.0208 0 1
93.1366 0 1
93.2525 0 1
93.3685 0 1
93.4845 0 1
93.6005 43 6.55744
93.7167 65 8.06226
93.8328 51 7.14143
93.949 42 6.48074
94.0653 42 6.48074
94.1816 53 7.28011
94.2979 58 7.61577
94.4143 38 6.16441
94.5307 45 6.7082
94.6472 42 6.48074
94.7637 49 7
94.8803 59 7.68115
94.9969 51 7.14143
95.1135 49 7
95.2302 56 7.48331
95.3469 54 7.34847
95.4637 51 7.14143
95.5805 54 7.34847
95.6973 54 7.34847
95.8142 45 6.7082
95.9311 60 7.74597
96.048 53 7.28011
96.1649 54 7.34847
96.2819 45 6.7082
96.3989 62 7.87401
96.516 50 7.07107
96.633 54 7.34847
96.7501 58 7.61577
96.8673 59 7.68115
96.9844 57 7.54983
97.1016 63 7.93725
97.2188 51 7.14143
97.336 50 7.07107
97.4532 46 6.78233
97.5704 46 6.78233
97.6877 46 6.78233
97.805 42 6.48074
97.9223 48 6.9282
98.0396 60 7.74597
98.1569 40 6.32456
98.2743 40 6.32456
98.3916 45 6.7082
98.509 60 7.74597
98.6264 55 7.4162
98.7438 49 7
98.8612 44 6.63325
98.9786 45 6.7082
99.096 58 7.61577
99.2134 73 8.544
99.3308 62 7.87401
99.4482 46 6.78233
99.5656 48 6.9282
99.6831 55 7.4162
99.8005 53 7.28011
99.9179 59 7.68115
100.035 70 8.3666
100.153 53 7.28011
100.27 49 7
100.388 54 7.34847
100.505 62 7.87401
100.622 57 7.54983
100.74 53 7.28011
100.857 58 7.61577
100.975 51 7.14143
101.092 56 7.48331
101.209 48 6.9282
101.327 45 6.7082
101.444 50 7.07107
101.561 50 7.07107
101.679 68 8.24621
101.796 56 7.48331
101.913 59 7.68115
102.03 67 8.18535
102.148 61 7.81025
102.265 59 7.68115
102.382 60 7.74597
102.499 57 7.54983
102.616 82 9.05539
102.733 67 8.18535
102.851 63 7.93725
102.968 65 8.06226
103.085 70 8.3666
103.202 54 7.34847
103.319 50 7.07107
103.436 48 6.9282
103.552 66 8.12404
103.669 67 8.18535
103.786 63 7.93725
103.903 71 8.42615
104.02 74 8.60233
104.137 57 7.54983
104.253 47 6.85565
104.37 51 7.14143
104.487 55 7.4162
104.603 53 7.28011
104.72 56 7.48331
104.836 62 7.87401
104.953 64 8
105.069 45 6.7082
105.186 54 7.34847
105.302 58 7.61577
105.418 54 7.34847
105.535 36 6
105.651 32 5.65685
105.767 34 5.83095
105.883 28 5.2915
105.999 25 5
106.115 0 1
106.231 0 1
106.347 0 1
106.463 0 1
106.579 0 1
106.694 0 1
106.81 0 1
106.926 0 1
107.041 0 1
107.157 0 1
109.576 0 1
109.692 0 1
109.807 0 1
109.923 0 1
110.039 0 1
110.155 0 1
110.27 0 1
110.386 0 1
110.502 0 1
110.618 22 4.69042
110.735 27 5.19615
110.851 38 6.16441
110.967 57 7.54983
111.083 47 6.85565
111.199 53 7.28011
111.316 57 7.54983
111.432 72 8.48528
111.549 52 7.2111
111.665 64 8
111.782 46 6.78233
111.898 64 8
112.015 69 8.30662
112.132 65 8.06226
112.248 66 8.12404
112.365 63 7.93725
112.482 59 7.68115
112.599 61 7.81025
112.716 55 7.4162
112.832 61 7.81025
112.949 60 7.74597
113.066 49 7
113.183 59 7.68115
113.3 58 7.61577
113.417 53 7.28011
113.534 59 7.68115
113.652 53 7.28011
113.769 49 7
113.886 58 7.61577
114.003 55 7.4162
114.12 49 7
114.238 56 7.48331
114.355 50 7.07107
114.472 44 6.63325
114.589 54 7.34847
114.707 45 6.7082
114.824 55 7.4162
114.942 52 7.2111
115.059 64 8
115.176 63 7.93725
115.294 45 6.7082
115.411 51 7.14143
115.529 46 6.78233
115.646 45 6.7082
115.764 47 6.85565
115.881 48 6.9282
115.999 53 7.28011
116.116 64 8
116.234 54 7.34847
116.351 56 7.48331
116.469 54 7.34847
116.586 51 7.14143
116.704 39 6.245
116.821 45 6.7082
116.939 54 7.34847
117.056 53 7.28011
117.174 57 7.54983
117.291 71 8.42615
117.409 50 7.07107
117.526 51 7.14143
117.644 51 7.14143
117.761 57 7.54983
117.879 41 6.40312
117.996 43 6.55744
118.114 36 6
118.231 53 7.28011
118.349 49 7
118.466 49 7
118.584 53 7.28011
118.701 57 7.54983
118.819 34 5.83095
118.936 60 7.74597
119.053 36 6
119.171 45 6.7082
119.288 42 6.48074
119.405 46 6.78233
119.523 71 8.42615
119.64 47 6.85565
119.757 52 7.2111
119.875 51 7.14143
119.992 40 6.32456
120.109 39 6.245
120.226 41 6.40312
120.343 45 6.7082
120.46 55 7.4162
120.578 43 6.55744
120.695 57 7.54983
120.812 50 7.07107
120.929 51 7.14143
121.046 43 6.55744
121.163 52 7.2111
121.279 41 6.40312
121.396 45 6.7082
121.513 54 7.34847
121.63 34 5.83095
121.747 50 7.07107
121.863 34 5.83095
121.98 28 5.2915
122.097 38 6.16441
122.213 35 5.91608
122.33 29 5.38516
122.446 32 5.65685
122.563 36 6
122.679 34 5.83095
122.795 40 6.32456
122.912 33 5.74456
123.028 23 4.79583
123.144 25 5
123.26 28 5.2915
123.377 0 1
123.493 0 1
123.609 0 1
123.725 0 1
123.84 0 1
123.956 0 1
124.072 0 1
124.188 0 1
124.303 0 1
124.419 0 1
126.852 0 1
126.968 0 1
127.083 0 1
127.199 0 1
127.315 0 1
127.431 0 1
127.547 0 1
127.663 0 1
127.779 0 1
127.895 0 1
128.011 0 1
128.127 0 1
128.243 0 1
128.359 55 7.4162
128.476 49 7
128.592 45 6.7082
128.708 52 7.2111
128.825 43 6.55744
128.941 47 6.85565
129.058 51 7.14143
129.174 54 7.34847
129.291 58 7.61577
129.408 63 7.93725
129.524 57 7.54983
129.641 55 7.4162
129.758 46 6.78233
129.875 50 7.07107
129.992 55 7.4162
130.108 64 8
130.225 51 7.14143
130.342 61 7.81025
130.459 45 6.7082
130.576 41 6.40312
130.693 43 6.55744
130.81 47 6.85565
130.928 45 6.7082
131.045 48 6.9282
131.162 59 7.68115
131.279 58 7.61577
131.396 40 6.32456
131.513 58 7.61577
131.631 62 7.87401
131.748 47 6.85565
131.865 61 7.81025
131.983 51 7.14143
132.1 42 6.48074
132.217 47 6.85565
132.335 59 7.68115
132.452 58 7.61577
132.57 47 6.85565
132.687 64 8
132.804 55 7.4162
132.922 60 7.74597
133.039 63 7.93725
133.157 57 7.54983
133.274 53 7.28011
133.392 55 7.4162
133.509 53 7.28011
133.627 56 7.48331
133.744 53 7.28011
133.862 59 7.68115
133.979 53 7.28011
134.097 39 6.245
134.214 48 6.9282
134.332 39 6.245
134.449 47 6.85565
134.567 63 7.93725
134.684 57 7.54983
134.802 62 7.87401
134.919 47 6.85565
135.037 53 7.28011
135.154 56 7.48331
135.272 58 7.61577
135.389 51 7.14143
135.507 57 7.54983
135.624 66 8.12404
135.742 57 7.54983
135.859 67 8.18535
135.977 60 7.74597
136.094 54 7.34847
136.211 46 6.78233
136.329 65 8.06226
136.446 59 7.68115
136.564 54 7.34847
136.681 71 8.42615
136.798 49 7
136.915 63 7.93725
137.033 64 8
137.15 61 7.81025
137.267 71 8.42615
137.384 68 8.24621
137.502 59 7.68115
137.619 52 7.2111
137.736 89 9.43398
137.853 40 6.32456
137.97 53 7.28011
138.087 52 7.2111
138.204 54 7.34847
138.321 48 6.9282
138.438 60 7.74597
138.555 70 8.3666
138.672 60 7.74597
138.788 50 7.07107
138.905 48 6.9282
139.022 53 7.28011
139.139 47 6.85565
139.255 51 7.14143
139.372 53 7.28011
139.488 44 6.63325
139.605 44 6.63325
139.721 57 7.54983
139.838 35 5.91608
139.954 41 6.40312
140.071 32 5.65685
140.187 41 6.40312
140.303 34 5.83095
140.419 40 6.32456
140.535 28 5.2915
140.652 25 5
140.768 0 1
140.884 0 1
141 0 1
141.115 0 1
141.231 0 1
141.347 0 1
141.463 0 1
141.578 0 1
141.694 0 1
144.104 0 1
144.219 0 1
144.335 0 1
144.45 0 1
144.566 0 1
144.682 0 1
144.798 0 1
144.914 0 1
145.03 0 1
145.146 111 10.5357
145.262 150 12.2474
145.378 243 15.5885
145.494 326 18.0555
145.61 440 20.9762
145.726 650 25.4951
145.842 785 28.0179
145.959 1114 33.3766
146.075 1453 38.1182
146.192 1944 44.0908
146.308 2693 51.8941
146.425 3411 58.4038
146.541 4124 64.2184
146.658 4772 69.0797
146.774 5145 71.7287
146.891 5712 75.5778
147.008 6228 78.9177
147.125 6827 82.6257
147.241 7378 85.8953
147.358 7994 89.4092
147.475 8435 91.8423
147.592 8557 92.5041
147.709 8760 93.5949
147.826 8276 90.9725
147.943 8057 89.7608
148.06 7477 86.4696
148.177 6853 82.7828
148.294 6841 82.7103
148.411 6528 80.796
148.528 6184 78.6384
148.645 5971 77.2722
148.762 6000 77.4597
148.88 5789 76.0855
148.997 5881 76.6877
149.114 5564 74.5922
149.231 5659 75.2263
149.349 5319 72.9315
149.466 4967 70.4769
149.583 4822 69.4406
149.701 4557 67.5056
149.818 4317 65.7039
149.935 4074 63.8279
150.053 3695 60.7865
150.17 3400 58.3095
150.287 3216 56.7098
150.405 2941 54.231
150.522 3014 54.8999
150.64 2908 53.9259
150.757 2712 52.0769
150.875 2572 50.7149
150.992 2406 49.051
151.11 2088 45.6946
151.227 1893 43.5086
151.344 1789 42.2966
151.462 1846 42.9651
151.579 1666 40.8167
151.697 1666 40.8167
151.814 1543 39.281
151.932 1516 38.9358
152.049 1412 37.5766
152.167 1366 36.9594
152.284 1291 35.9305
152.402 1184 34.4093
152.519 1158 34.0294
152.636 1055 32.4808
152.754 1011 31.7962
152.871 1041 32.2645
152.989 932 30.5287
153.106 817 28.5832
153.223 855 29.2404
153.341 802 28.3196
153.458 696 26.3818
153.575 709 26.6271
153.693 611 24.7184
153.81 526 22.9347
153.927 470 21.6795
154.044 463 21.5174
154.162 426 20.6398
154.279 426 20.6398
154.396 409 20.2237
154.513 361 19
154.63 401 20.025
154.747 376 19.3907
154.864 340 18.4391
154.981 299 17.2916
155.098 289 17
155.215 287 16.9411
155.332 287 16.9411
155.449 256 16
155.566 222 14.8997
155.683 227 15.0665
155.8 200 14.1421
155.917 216 14.6969
156.033 191 13.8203
156.15 0 1
156.267 0 1
156.383 0 1
156.5 0 1
156.617 0 1
156.733 0 1
156.85 0 1
156.966 0 1
157.082 0 1
157.199 0 1
157.315 0 1
157.431 0 1
157.547 0 1
157.664 0 1
157.78 0 1
157.896 0 1
158.012 0 1
158.128 0 1
158.244 0 1
158.359 0 1
158.475 0 1
158.591 0 1
158.706 0 1
