
6.15755 0 1
6.2731 0 1
6.3887 0 1
6.50437 0 1
6.62009 0 1
6.73587 0 1
6.8517 0 1
6.96759 0 1
7.08353 0 1
7.19952 0 1
7.31557 0 1
7.43166 0 1
7.54781 0 1
7.664 0 1
7.78024 0 1
7.89653 0 1
8.01286 0 1
8.12924 0 1
8.24567 0 1
8.36213 0 1
8.47864 0 1
8.59519 0 1
8.71178 0 1
8.82841 0 1
8.94508 0 1
9.06179 0 1
9.17853 0 1
9.29531 0 1
9.41212 0 1
9.52897 0 1
9.64584 0 1
9.76276 0 1
9.8797 0 1
9.99667 0 1
10.1137 0 1
10.2307 0 1
10.3478 0 1
10.4648 0 1
10.5819 0 1
10.6991 0 1
10.8162 0 1
10.9334 0 1
11.0506 0 1
11.1678 0 1
11.285 0 1
11.4023 0 1
11.5196 0 1
11.6369 0 1
11.7542 0 1
11.8715 0 1
11.9888 0 1
12.1062 0 1
12.2235 0 1
12.3409 0 1
12.4582 0 1
12.5756 0 1
12.693 0 1
12.8104 0 1
12.9278 0 1
13.0452 0 1
13.1626 0 1
13.28 0 1
13.3974 0 1
13.5149 0 1
13.6323 0 1
13.7497 0 1
13.8671 0 1
13.9845 0 1
14.1019 0 1
14.2193 0 1
14.3367 0 1
14.4541 0 1
14.5714 0 1
14.6888 0 1
14.8062 0 1
14.9235 0 1
15.0408 802 28.3196
15.1581 800 28.2843
15.2755 836 28.9137
15.3927 896 29.9333
15.51 832 28.8444
15.6273 821 28.6531
15.7445 877 29.6142
15.8617 839 28.9655
15.9789 850 29.1548
16.0961 846 29.0861
16.2132 872 29.5296
16.3304 854 29.2233
16.4475 840 28.9828
16.5646 896 29.9333
16.6816 964 31.0483
16.7986 960 30.9839
16.9156 998 31.5911
17.0326 1034 32.1559
17.1496 960 30.9839
17.2665 1061 32.573
17.3833 952 30.8545
17.5002 939 30.6431
17.617 887 29.7825
17.7338 912 30.1993
17.8505 855 29.2404
17.9672 845 29.0689
18.0839 887 29.7825
18.2005 849 29.1376
18.3171 927 30.4467
18.4337 910 30.1662
18.5502 891 29.8496
18.6666 958 30.9516
18.7831 986 31.4006
18.8994 939 30.6431
19.0158 993 31.5119
19.1321 909 30.1496
19.2483 920 30.3315
19.3645 846 29.0861
19.4806 756 27.4955
19.5967 717 26.7769
19.7128 686 26.1916
19.8288 592 24.3311
19.9447 595 24.3926
20.0606 0 1
20.1764 0 1
20.2922 0 1
20.4079 0 1
20.5236 0 1
20.6392 0 1
20.7548 0 1
20.8702 0 1
23.3078 0 1
23.4233 0 1
23.539 0 1
23.6547 0 1
23.7704 0 1
23.8862 0 1
24.0021 0 1
24.118 0 1
24.234 0 1
24.35 0 1
24.4661 372 19.2873
24.5822 441 21
24.6984 523 22.8692
24.8146 603 24.5561
24.9309 629 25.0799
25.0472 696 26.3818
25.1636 658 25.6515
25.28 813 28.5132
25.3965 863 29.3769
25.513 945 30.7409
25.6296 955 30.9031
25.7462 975 31.225
25.8628 1031 32.1092
25.9795 1051 32.4191
26.0962 1016 31.8748
26.213 1000 31.6228
26.3298 912 30.1993
26.4466 891 29.8496
26.5635 933 30.545
26.6804 875 29.5804
26.7973 899 29.9833
26.9143 956 30.9192
27.0313 926 30.4302
27.1483 909 30.1496
27.2653 973 31.1929
27.3824 1026 32.0312
27.4996 985 31.3847
27.6167 1039 32.2335
27.7339 947 30.7734
27.8511 943 30.7083
27.9683 878 29.6311
28.0855 869 29.4788
28.2028 879 29.6479
28.3201 864 29.3939
28.4374 823 28.688
28.5547 753 27.4408
28.6721 814 28.5307
28.7894 855 29.2404
28.9068 858 29.2916
29.0242 917 30.282
29.1416 1004 31.686
29.259 916 30.2655
29.3764 953 30.8707
29.4939 948 30.7896
29.6113 965 31.0644
29.7288 891 29.8496
29.8463 876 29.5973
29.9638 852 29.189
30.0812 822 28.6705
30.1987 781 27.9464
30.3162 856 29.2575
30.4337 841 29
30.5512 878 29.6311
30.6687 950 30.8221
30.7862 915 30.249
30.9037 926 30.4302
31.0212 954 30.8869
31.1387 904 30.0666
31.2562 951 30.8383
31.3737 942 30.692
31.4912 881 29.6816
31.6087 875 29.5804
31.7262 864 29.3939
31.8436 786 28.0357
31.9611 769 27.7308
32.0785 768 27.7128
32.1959 748 27.3496
32.3134 773 27.8029
32.4308 930 30.4959
32.5482 957 30.9354
32.6655 910 30.1662
32.7829 890 29.8329
32.9002 909 30.1496
33.0176 975 31.225
33.1349 934 30.5614
33.2522 917 30.282
33.3694 931 30.5123
33.4867 804 28.3549
33.6039 808 28.4253
33.7211 813 28.5132
33.8383 747 27.3313
33.9554 783 27.9821
34.0725 794 28.178
34.1896 872 29.5296
34.3067 836 28.9137
34.4237 873 29.5466
34.5407 870 29.4958
34.6577 900 30
34.7746 900 30
34.8915 825 28.7228
35.0084 862 29.3598
35.1252 849 29.1376
35.242 883 29.7153
35.3587 752 27.4226
35.4755 788 28.0713
35.5921 824 28.7054
35.7088 711 26.6646
35.8254 718 26.7955
35.9419 705 26.5518
36.0584 763 27.6225
36.1749 727 26.9629
36.2913 846 29.0861
36.4077 842 29.0172
36.524 803 28.3373
36.6403 775 27.8388
36.7565 759 27.55
36.8727 687 26.2107
36.9889 633 25.1595
37.1049 610 24.6982
37.221 0 1
37.3369 0 1
37.4529 0 1
37.5687 0 1
37.6845 0 1
37.8003 0 1
37.916 0 1
38.0316 0 1
38.1472 0 1
40.5851 0 1
40.7008 0 1
40.8164 0 1
40.9322 0 1
41.048 0 1
41.1639 0 1
41.2798 0 1
41.3958 0 1
41.5118 0 1
41.6279 0 1
41.744 460 21.4476
41.8602 512 22.6274
41.9765 505 22.4722
42.0928 530 23.0217
42.2091 516 22.7156
42.3255 490 22.1359
42.4419 504 22.4499
42.5584 498 22.3159
42.675 563 23.7276
42.7915 589 24.2693
42.9081 662 25.7294
43.0248 732 27.0555
43.1415 722 26.8701
43.2582 694 26.3439
43.375 726 26.9444
43.4918 658 25.6515
43.6087 766 27.6767
43.7256 730 27.0185
43.8425 723 26.8887
43.9595 665 25.7876
44.0765 660 25.6905
44.1935 711 26.6646
44.3106 678 26.0384
44.4277 598 24.454
44.5448 550 23.4521
44.6619 580 24.0832
44.7791 613 24.7588
44.8963 706 26.5707
45.0136 700 26.4575
45.1308 729 27
45.2481 737 27.1477
45.3654 826 28.7402
45.4827 748 27.3496
45.6001 753 27.4408
45.7174 725 26.9258
45.8348 644 25.3772
45.9522 623 24.96
46.0697 602 24.5357
46.1871 609 24.6779
46.3046 616 24.8193
46.422 656 25.6125
46.5395 637 25.2389
46.657 748 27.3496
46.7745 755 27.4773
46.892 742 27.2397
47.0096 731 27.037
47.1271 749 27.3679
47.2446 785 28.0179
47.3622 720 26.8328
47.4797 731 27.037
47.5973 691 26.2869
47.7149 721 26.8514
47.8324 689 26.2488
47.95 687 26.2107
48.0675 641 25.318
48.1851 564 23.7487
48.3027 623 24.96
48.4202 648 25.4558
48.5378 679 26.0576
48.6554 764 27.6405
48.7729 785 28.0179
48.8904 763 27.6225
49.008 749 27.3679
49.1255 758 27.5318
49.243 722 26.8701
49.3605 699 26.4386
49.478 619 24.8797
49.5955 629 25.0799
49.713 609 24.6779
49.8304 586 24.2074
49.9479 591 24.3105
50.0653 693 26.3249
50.1827 734 27.0924
50.3001 693 26.3249
50.4175 746 27.313
50.5348 695 26.3629
50.6521 758 27.5318
50.7694 796 28.2135
50.8867 780 27.9285
51.004 758 27.5318
51.1212 712 26.6833
51.2384 717 26.7769
51.3556 683 26.1343
51.4727 631 25.1197
51.5899 620 24.8998
51.707 588 24.2487
51.824 628 25.0599
51.9411 603 24.5561
52.0581 732 27.0555
52.175 817 28.5832
52.2919 772 27.7849
52.4088 748 27.3496
52.5257 767 27.6948
52.6425 729 27
52.7593 752 27.4226
52.876 740 27.2029
52.9927 745 27.2947
53.1094 669 25.865
53.226 602 24.5357
53.3426 591 24.3105
53.4591 566 23.7908
53.5756 622 24.9399
53.692 580 24.0832
53.8084 600 24.4949
53.9248 533 23.0868
54.0411 534 23.1084
54.1573 546 23.3666
54.2735 0 1
54.3896 0 1
54.5057 0 1
54.6217 0 1
54.7377 0 1
54.8537 0 1
54.9695 0 1
55.0853 0 1
55.2011 0 1
55.3168 0 1
55.4324 0 1
57.824 0 1
57.9396 0 1
58.0553 0 1
58.1711 0 1
58.2869 0 1
58.4028 0 1
58.5187 0 1
58.6347 0 1
58.7508 0 1
58.8669 0 1
58.983 501 22.383
59.0992 582 24.1247
59.2155 679 26.0576
59.3318 740 27.2029
59.4482 772 27.7849
59.5646 774 27.8209
59.681 883 29.7153
59.7975 836 28.9137
59.9141 848 29.1204
60.0306 864 29.3939
60.1473 863 29.3769
60.2639 831 28.8271
60.3807 803 28.3373
60.4974 792 28.1425
60.6142 809 28.4429
60.731 836 28.9137
60.8479 902 30.0333
60.9648 968 31.1127
61.0818 955 30.9031
61.1987 927 30.4467
61.3158 983 31.3528
61.4328 958 30.9516
61.5499 877 29.6142
61.667 839 28.9655
61.7841 745 27.2947
61.9013 742 27.2397
62.0185 752 27.4226
62.1357 815 28.5482
62.253 845 29.0689
62.3702 908 30.133
62.4875 955 30.9031
62.6049 902 30.0333
62.7222 903 30.05
62.8396 978 31.273
62.9569 974 31.209
63.0743 947 30.7734
63.1918 949 30.8058
63.3092 963 31.0322
63.4267 937 30.6105
63.5441 904 30.0666
63.6616 817 28.5832
63.7791 804 28.3549
63.8966 752 27.4226
64.0142 783 27.9821
64.1317 813 28.5132
64.2492 846 29.0861
64.3668 906 30.0998
64.4843 946 30.7571
64.6019 924 30.3974
64.7195 944 30.7246
64.837 965 31.0644
64.9546 933 30.545
65.0722 928 30.4631
65.1898 854 29.2233
65.3074 804 28.3549
65.4249 749 27.3679
65.5425 728 26.9815
65.6601 726 26.9444
65.7777 820 28.6356
65.8952 835 28.8964
66.0128 871 29.5127
66.1304 900 30
66.2479 880 29.6648
66.3655 892 29.8664
66.483 980 31.305
66.6005 949 30.8058
66.718 1052 32.4345
66.8355 986 31.4006
66.953 956 30.9192
67.0705 913 30.2159
67.1879 959 30.9677
67.3054 845 29.0689
67.4228 800 28.2843
67.5402 731 27.037
67.6576 752 27.4226
67.7749 840 28.9828
67.8923 871 29.5127
68.0096 960 30.9839
68.1269 920 30.3315
68.2442 1009 31.7648
68.3614 1039 32.2335
68.4787 1037 32.2025
68.5958 1029 32.078
68.713 1019 31.9218
68.8302 943 30.7083
68.9473 896 29.9333
69.0643 800 28.2843
69.1814 825 28.7228
69.2984 822 28.6705
69.4154 891 29.8496
69.5323 1000 31.6228
69.6492 977 31.257
69.7661 1031 32.1092
69.8829 1085 32.9393
69.9997 1033 32.1403
70.1165 1051 32.4191
70.2332 980 31.305
70.3499 1000 31.6228
70.4665 981 31.3209
70.5831 925 30.4138
70.6996 826 28.7402
70.8161 872 29.5296
70.9326 723 26.8887
71.049 680 26.0768
71.1653 522 22.8473
71.2817 486 22.0454
71.3979 444 21.0713
71.5141 435 20.8567
71.6303 405 20.1246
71.7464 386 19.6469
71.8624 0 1
71.9784 0 1
72.0944 0 1
72.2102 0 1
72.3261 0 1
72.4418 0 1
72.5575 0 1
72.6732 0 1
75.1054 0 1
75.2209 0 1
75.3365 0 1
75.4521 0 1
75.5678 0 1
75.6835 0 1
75.7993 0 1
75.9151 0 1
76.031 0 1
76.147 643 25.3574
76.263 690 26.2679
76.3791 734 27.0924
76.4952 659 25.671
76.6113 659 25.671
76.7276 727 26.9629
76.8438 793 28.1603
76.9601 823 28.688
77.0765 939 30.6431
77.1929 944 30.7246
77.3093 878 29.6311
77.4258 905 30.0832
77.5423 896 29.9333
77.6589 858 29.2916
77.7755 805 28.3725
77.8921 692 26.3059
78.0088 673 25.9422
78.1256 629 25.0799
78.2423 599 24.4745
78.3591 638 25.2587
78.4759 748 27.3496
78.5928 728 26.9815
78.7097 816 28.5657
78.8266 819 28.6182
78.9436 849 29.1376
79.0606 753 27.4408
79.1776 894 29.8998
79.2946 798 28.2489
79.4117 860 29.3258
79.5288 830 28.8097
79.6459 854 29.2233
79.7631 795 28.1957
79.8802 751 27.4044
79.9974 720 26.8328
80.1147 711 26.6646
80.2319 666 25.807
80.3491 647 25.4362
80.4664 709 26.6271
80.5837 703 26.5141
80.701 764 27.6405
80.8183 851 29.1719
80.9357 823 28.688
81.053 828 28.775
81.1704 801 28.3019
81.2877 865 29.4109
81.4051 808 28.4253
81.5225 721 26.8514
81.6399 744 27.2764
81.7573 644 25.3772
81.8747 631 25.1197
81.9922 600 24.4949
82.1096 654 25.5734
82.227 725 26.9258
82.3444 805 28.3725
82.4619 827 28.7576
82.5793 840 28.9828
82.6967 857 29.2746
82.8142 853 29.2062
82.9316 838 28.9482
83.049 902 30.0333
83.1664 838 28.9482
83.2838 840 28.9828
83.4012 854 29.2233
83.5186 830 28.8097
83.636 743 27.258
83.7534 749 27.3679
83.8708 649 25.4755
83.9881 613 24.7588
84.1055 650 25.4951
84.2228 691 26.2869
84.3401 800 28.2843
84.4575 853 29.2062
84.5747 876 29.5973
84.692 821 28.6531
84.8093 848 29.1204
84.9265 901 30.0167
85.0437 855 29.2404
85.1609 771 27.7669
85.2781 729 27
85.3952 644 25.3772
85.5123 595 24.3926
85.6294 643 25.3574
85.7465 750 27.3861
85.8636 716 26.7582
85.9806 873 29.5466
86.0976 838 28.9482
86.2145 856 29.2575
86.3315 863 29.3769
86.4484 876 29.5973
86.5652 949 30.8058
86.682 921 30.348
86.7988 923 30.3809
86.9156 852 29.189
87.0323 886 29.7658
87.149 810 28.4605
87.2657 869 29.4788
87.3823 647 25.4362
87.4988 594 24.3721
87.6154 523 22.8692
87.7318 590 24.2899
87.8483 643 25.3574
87.9647 645 25.3969
88.081 715 26.7395
88.1973 669 25.865
88.3136 680 26.0768
88.4298 604 24.5764
88.546 603 24.5561
88.6621 511 22.6053
88.7781 417 20.4206
88.8942 0 1
89.0101 0 1
89.126 0 1
89.2419 0 1
89.3577 0 1
89.4734 0 1
89.5891 0 1
89.7047 0 1
89.8203 0 1
89.9358 0 1
92.3269 0 1
92.4424 0 1
92.558 0 1
92.6736 0 1
92.7893 0 1
92.905 0 1
93.0208 0 1
93.1366 0 1
93.2525 0 1
93.3685 0 1
93.4845 0 1
93.6005 592 24.3311
93.7167 674 25.9615
93.8328 700 26.4575
93.949 693 26.3249
94.0653 759 27.55
94.1816 731 27.037
94.2979 676 26
94.4143 707 26.5895
94.5307 653 25.5539
94.6472 624 24.98
94.7637 607 24.6374
94.8803 677 26.0192
94.9969 722 26.8701
95.1135 759 27.55
95.2302 755 27.4773
95.3469 854 29.2233
95.4637 879 29.6479
95.5805 882 29.6985
95.6973 850 29.1548
95.8142 860 29.3258
95.9311 832 28.8444
96.048 858 29.2916
96.1649 842 29.0172
96.2819 853 29.2062
96.3989 757 27.5136
96.516 757 27.5136
96.633 696 26.3818
96.7501 695 26.3629
96.8673 658 25.6515
96.9844 668 25.8457
97.1016 755 27.4773
97.2188 783 27.9821
97.336 868 29.4618
97.4532 919 30.315
97.5704 870 29.4958
97.6877 864 29.3939
97.805 827 28.7576
97.9223 787 28.0535
98.0396 729 27
98.1569 645 25.3969
98.2743 615 24.7992
98.3916 676 26
98.509 707 26.5895
98.6264 771 27.7669
98.7438 804 28.3549
98.8612 859 29.3087
98.9786 896 29.9333
99.096 909 30.1496
99.2134 926 30.4302
99.3308 933 30.545
99.4482 908 30.133
99.5656 901 30.0167
99.6831 896 29.9333
99.8005 869 29.4788
99.9179 895 29.9166
100.035 820 28.6356
100.153 777 27.8747
100.27 696 26.3818
100.388 725 26.9258
100.505 710 26.6458
100.622 770 27.7489
100.74 801 28.3019
100.857 931 30.5123
100.975 837 28.931
101.092 909 30.1496
101.209 941 30.6757
101.327 907 30.1164
101.444 853 29.2062
101.561 826 28.7402
101.679 770 27.7489
101.796 735 27.1109
101.913 684 26.1534
102.03 663 25.7488
102.148 770 27.7489
102.265 827 28.7576
102.382 888 29.7993
102.499 864 29.3939
102.616 922 30.3645
102.733 948 30.7896
102.851 970 31.1448
102.968 922 30.3645
103.085 973 31.1929
103.202 959 30.9677
103.319 905 30.0832
103.436 927 30.4467
103.552 892 29.8664
103.669 889 29.8161
103.786 792 28.1425
103.903 784 28
104.02 733 27.074
104.137 814 28.5307
104.253 911 30.1828
104.37 967 31.0966
104.487 986 31.4006
104.603 999 31.607
104.72 990 31.4643
104.836 903 30.05
104.953 847 29.1033
105.069 767 27.6948
105.186 725 26.9258
105.302 648 25.4558
105.418 664 25.7682
105.535 639 25.2784
105.651 643 25.3574
105.767 664 25.7682
105.883 649 25.4755
105.999 626 25.02
106.115 0 1
106.231 0 1
106.347 0 1
106.463 0 1
106.579 0 1
106.694 0 1
106.81 0 1
106.926 0 1
107.041 0 1
107.157 0 1
109.576 0 1
109.692 0 1
109.807 0 1
109.923 0 1
110.039 0 1
110.155 0 1
110.27 0 1
110.386 0 1
110.502 0 1
110.618 350 18.7083
110.735 465 21.5639
110.851 610 24.6982
110.967 606 24.6171
111.083 725 26.9258
111.199 786 28.0357
111.316 799 28.2666
111.432 851 29.1719
111.549 846 29.0861
111.665 894 29.8998
111.782 869 29.4788
111.898 907 30.1164
112.015 796 28.2135
112.132 808 28.4253
112.248 739 27.1846
112.365 673 25.9422
112.482 647 25.4362
112.599 699 26.4386
112.716 784 28
112.832 832 28.8444
112.949 804 28.3549
113.066 850 29.1548
113.183 899 29.9833
113.3 856 29.2575
113.417 861 29.3428
113.534 837 28.931
113.652 775 27.8388
113.769 710 26.6458
113.886 615 24.7992
114.003 672 25.923
114.12 666 25.807
114.238 743 27.258
114.355 788 28.0713
114.472 770 27.7489
114.589 859 29.3087
114.707 905 30.0832
114.824 876 29.5973
114.942 947 30.7734
115.059 916 30.2655
115.176 874 29.5635
115.294 946 30.7571
115.411 890 29.8329
115.529 863 29.3769
115.646 789 28.0891
115.764 795 28.1957
115.881 743 27.258
115.999 700 26.4575
116.116 750 27.3861
116.234 735 27.1109
116.351 822 28.6705
116.469 894 29.8998
116.586 865 29.4109
116.704 905 30.0832
116.821 852 29.189
116.939 927 30.4467
117.056 830 28.8097
117.174 800 28.2843
117.291 700 26.4575
117.409 683 26.1343
117.526 690 26.2679
117.644 609 24.6779
117.761 723 26.8887
117.879 778 27.8927
117.996 811 28.4781
118.114 834 28.8791
118.231 868 29.4618
118.349 888 29.7993
118.466 837 28.931
118.584 893 29.8831
118.701 891 29.8496
118.819 921 30.348
118.936 825 28.7228
119.053 854 29.2233
119.171 880 29.6648
119.288 810 28.4605
119.405 740 27.2029
119.523 666 25.807
119.64 693 26.3249
119.757 676 26
119.875 730 27.0185
119.992 834 28.8791
120.109 840 28.9828
120.226 807 28.4077
120.343 836 28.9137
120.46 882 29.6985
120.578 821 28.6531
120.695 846 29.0861
120.812 810 28.4605
120.929 723 26.8887
121.046 694 26.3439
121.163 631 25.1197
121.279 600 24.4949
121.396 638 25.2587
121.513 615 24.7992
121.63 708 26.6083
121.747 703 26.5141
121.863 776 27.8568
121.98 723 26.8887
122.097 694 26.3439
122.213 730 27.0185
122.33 664 25.7682
122.446 691 26.2869
122.563 688 26.2298
122.679 638 25.2587
122.795 597 24.4336
122.912 492 22.1811
123.028 480 21.9089
123.144 406 20.1494
123.26 351 18.735
123.377 0 1
123.493 0 1
123.609 0 1
123.725 0 1
123.84 0 1
123.956 0 1
124.072 0 1
124.188 0 1
124.303 0 1
124.419 0 1
126.852 0 1
126.968 0 1
127.083 0 1
127.199 0 1
127.315 0 1
127.431 0 1
127.547 0 1
127.663 0 1
127.779 0 1
127.895 0 1
128.011 0 1
128.127 0 1
128.243 0 1
128.359 891 29.8496
128.476 887 29.7825
128.592 877 29.6142
128.708 896 29.9333
128.825 847 29.1033
128.941 902 30.0333
129.058 982 31.3369
129.174 1055 32.4808
129.291 1073 32.7567
129.408 1003 31.6702
129.524 1071 32.7261
129.641 1093 33.0606
129.758 1093 33.0606
129.875 1030 32.0936
129.992 918 30.2985
130.108 877 29.6142
130.225 777 27.8747
130.342 803 28.3373
130.459 823 28.688
130.576 921 30.348
130.693 984 31.3688
130.81 949 30.8058
130.928 969 31.1288
131.045 1066 32.6497
131.162 1033 32.1403
131.279 1011 31.7962
131.396 1017 31.8904
131.513 1042 32.28
131.631 1076 32.8024
131.748 1076 32.8024
131.865 1027 32.0468
131.983 972 31.1769
132.1 916 30.2655
132.217 923 30.3809
132.335 921 30.348
132.452 977 31.257
132.57 910 30.1662
132.687 1054 32.4654
132.804 1025 32.0156
132.922 1097 33.121
133.039 1088 32.9848
133.157 1066 32.6497
133.274 1089 33
133.392 1027 32.0468
133.509 957 30.9354
133.627 938 30.6268
133.744 842 29.0172
133.862 807 28.4077
133.979 781 27.9464
134.097 887 29.7825
134.214 967 31.0966
134.332 1036 32.187
134.449 1035 32.1714
134.567 984 31.3688
134.684 1043 32.2955
134.802 1016 31.8748
134.919 1045 32.3265
135.037 1004 31.686
135.154 1098 33.1361
135.272 1030 32.0936
135.389 1038 32.218
135.507 999 31.607
135.624 876 29.5973
135.742 894 29.8998
135.859 863 29.3769
135.977 984 31.3688
136.094 962 31.0161
136.211 940 30.6594
136.329 1030 32.0936
136.446 1058 32.5269
136.564 1068 32.6803
136.681 1078 32.8329
136.798 1017 31.8904
136.915 1041 32.2645
137.033 1020 31.9374
137.15 976 31.241
137.267 882 29.6985
137.384 812 28.4956
137.502 798 28.2489
137.619 789 28.0891
137.736 894 29.8998
137.853 907 30.1164
137.97 957 30.9354
138.087 916 30.2655
138.204 928 30.4631
138.321 1019 31.9218
138.438 1033 32.1403
138.555 1042 32.28
138.672 965 31.0644
138.788 974 31.209
138.905 927 30.4467
139.022 821 28.6531
139.139 800 28.2843
139.255 734 27.0924
139.372 663 25.7488
139.488 634 25.1794
139.605 639 25.2784
139.721 605 24.5967
139.838 601 24.5153
139.954 618 24.8596
140.071 647 25.4362
140.187 587 24.2281
140.303 516 22.7156
140.419 501 22.383
140.535 462 21.4942
140.652 393 19.8242
140.768 0 1
140.884 0 1
141 0 1
141.115 0 1
141.231 0 1
141.347 0 1
141.463 0 1
141.578 0 1
141.694 0 1
144.104 0 1
144.219 0 1
144.335 0 1
144.45 0 1
144.566 0 1
144.682 0 1
144.798 0 1
144.914 0 1
145.03 0 1
145.146 624 24.98
145.262 673 25.9422
145.378 714 26.7208
145.494 701 26.4764
145.61 737 27.1477
145.726 673 25.9422
145.842 662 25.7294
145.959 624 24.98
146.075 624 24.98
146.192 605 24.5967
146.308 615 24.7992
146.425 540 23.2379
146.541 625 25
146.658 628 25.0599
146.774 656 25.6125
146.891 663 25.7488
147.008 700 26.4575
147.125 692 26.3059
147.241 660 25.6905
147.358 713 26.7021
147.475 656 25.6125
147.592 722 26.8701
147.709 597 24.4336
147.826 661 25.7099
147.943 660 25.6905
148.06 573 23.9374
148.177 608 24.6577
148.294 614 24.779
148.411 603 24.5561
148.528 659 25.671
148.645 702 26.4953
148.762 711 26.6646
148.88 700 26.4575
148.997 729 27
149.114 644 25.3772
149.231 770 27.7489
149.349 681 26.096
149.466 704 26.533
149.583 640 25.2982
149.701 608 24.6577
149.818 537 23.1733
149.935 571 23.8956
150.053 535 23.1301
150.17 587 24.2281
150.287 607 24.6374
150.405 618 24.8596
150.522 657 25.632
150.64 624 24.98
150.757 640 25.2982
150.875 710 26.6458
150.992 634 25.1794
151.11 646 25.4165
151.227 717 26.7769
151.344 667 25.8263
151.462 652 25.5343
151.579 618 24.8596
151.697 586 24.2074
151.814 569 23.8537
151.932 617 24.8395
152.049 596 24.4131
152.167 579 24.0624
152.284 642 25.3377
152.402 668 25.8457
152.519 591 24.3105
152.636 658 25.6515
152.754 658 25.6515
152.871 602 24.5357
152.989 653 25.5539
153.106 637 25.2389
153.223 574 23.9583
153.341 508 22.5389
153.458 521 22.8254
153.575 506 22.4944
153.693 564 23.7487
153.81 589 24.2693
153.927 537 23.1733
154.044 608 24.6577
154.162 574 23.9583
154.279 641 25.318
154.396 637 25.2389
154.513 642 25.3377
154.63 675 25.9808
154.747 667 25.8263
154.864 565 23.7697
154.981 609 24.6779
155.098 579 24.0624
155.215 616 24.8193
155.332 575 23.9792
155.449 507 22.5167
155.566 548 23.4094
155.683 520 22.8035
155.8 539 23.2164
155.917 595 24.3926
156.033 577 24.0208
156.15 0 1
156.267 0 1
156.383 0 1
156.5 0 1
156.617 0 1
156.733 0 1
156.85 0 1
156.966 0 1
157.082 0 1
157.199 0 1
157.315 0 1
157.431 0 1
157.547 0 1
157.664 0 1
157.78 0 1
157.896 0 1
158.012 0 1
158.128 0 1
158.244 0 1
158.359 0 1
158.475 0 1
158.591 0 1
158.706 0 1
