
6.15755 0 1
6.2731 0 1
6.3887 0 1
6.50437 0 1
6.62009 0 1
6.73587 0 1
6.8517 0 1
6.96759 0 1
7.08353 0 1
7.19952 0 1
7.31557 0 1
7.43166 0 1
7.54781 0 1
7.664 0 1
7.78024 0 1
7.89653 0 1
8.01286 0 1
8.12924 0 1
8.24567 0 1
8.36213 0 1
8.47864 0 1
8.59519 0 1
8.71178 0 1
8.82841 0 1
8.94508 0 1
9.06179 0 1
9.17853 0 1
9.29531 0 1
9.41212 0 1
9.52897 0 1
9.64584 0 1
9.76276 0 1
9.8797 0 1
9.99667 0 1
10.1137 0 1
10.2307 0 1
10.3478 0 1
10.4648 0 1
10.5819 0 1
10.6991 0 1
10.8162 0 1
10.9334 0 1
11.0506 0 1
11.1678 0 1
11.285 0 1
11.4023 0 1
11.5196 0 1
11.6369 0 1
11.7542 0 1
11.8715 0 1
11.9888 0 1
12.1062 0 1
12.2235 0 1
12.3409 0 1
12.4582 0 1
12.5756 0 1
12.693 0 1
12.8104 0 1
12.9278 0 1
13.0452 0 1
13.1626 0 1
13.28 0 1
13.3974 0 1
13.5149 0 1
13.6323 0 1
13.7497 0 1
13.8671 0 1
13.9845 0 1
14.1019 0 1
14.2193 0 1
14.3367 0 1
14.4541 0 1
14.5714 0 1
14.6888 0 1
14.8062 0 1
14.9235 0 1
15.0408 12012 109.599
15.1581 12400 111.355
15.2755 12907 113.609
15.3927 13211 114.939
15.51 13204 114.909
15.6273 13080 114.368
15.7445 12803 113.15
15.8617 12249 110.675
15.9789 11984 109.471
16.0961 11358 106.574
16.2132 10502 102.479
16.3304 9666 98.3158
16.4475 9011 94.9263
16.5646 8528 92.3472
16.6816 8135 90.1942
16.7986 8109 90.05
16.9156 7775 88.176
17.0326 7514 86.6833
17.1496 7146 84.534
17.2665 6867 82.8674
17.3833 6854 82.7889
17.5002 7015 83.7556
17.617 7207 84.8941
17.7338 7394 85.9884
17.8505 8019 89.5489
17.9672 8468 92.0217
18.0839 8820 93.9149
18.2005 9374 96.8194
18.3171 9543 97.6883
18.4337 9702 98.4987
18.5502 9702 98.4987
18.6666 9659 98.2802
18.7831 9461 97.2677
18.8994 9064 95.205
19.0158 8964 94.6784
19.1321 8602 92.747
19.2483 8120 90.111
19.3645 7331 85.6213
19.4806 6860 82.8251
19.5967 6177 78.5939
19.7128 5510 74.2294
19.8288 4570 67.6018
19.9447 4055 63.6789
20.0606 0 1
20.1764 0 1
20.2922 0 1
20.4079 0 1
20.5236 0 1
20.6392 0 1
20.7548 0 1
20.8702 0 1
23.3078 0 1
23.4233 0 1
23.539 0 1
23.6547 0 1
23.7704 0 1
23.8862 0 1
24.0021 0 1
24.118 0 1
24.234 0 1
24.35 0 1
24.4661 4336 65.8483
24.5822 4485 66.9701
24.6984 4423 66.5056
24.8146 4714 68.6586
24.9309 4738 68.8331
25.0472 4905 70.0357
25.1636 5221 72.2565
25.28 5634 75.06
25.3965 5934 77.0325
25.513 6484 80.5233
25.6296 6979 83.5404
25.7462 7103 84.2793
25.8628 7498 86.591
25.9795 7816 88.4081
26.0962 7938 89.0955
26.213 7550 86.8907
26.3298 7402 86.0349
26.4466 6956 83.4026
26.5635 7017 83.7675
26.6804 6921 83.1925
26.7973 7167 84.6581
26.9143 6940 83.3067
27.0313 6837 82.6862
27.1483 7041 83.9107
27.2653 6950 83.3667
27.3824 6952 83.3787
27.4996 6779 82.3347
27.6167 6608 81.2896
27.7339 6551 80.9382
27.8511 6520 80.7465
27.9683 6307 79.4166
28.0855 6024 77.6144
28.2028 6181 78.6193
28.3201 5913 76.896
28.4374 5621 74.9733
28.5547 5311 72.8766
28.6721 5255 72.4914
28.7894 5497 74.1418
28.9068 5682 75.379
29.0242 6016 77.5629
29.1416 6187 78.6575
29.259 6309 79.4292
29.3764 6369 79.806
29.4939 6391 79.9437
29.6113 6458 80.3617
29.7288 6582 81.1295
29.8463 6489 80.5543
29.9638 6673 81.6884
30.0812 6654 81.5721
30.1987 6625 81.3941
30.3162 6650 81.5475
30.4337 6559 80.9877
30.5512 6560 80.9938
30.6687 6398 79.9875
30.7862 6566 81.0309
30.9037 6241 79
31.0212 6201 78.7464
31.1387 5946 77.1103
31.2562 5938 77.0584
31.3737 5648 75.1532
31.4912 5677 75.3459
31.6087 5475 73.9932
31.7262 5417 73.6003
31.8436 5159 71.8262
31.9611 4871 69.7925
32.0785 4722 68.7168
32.1959 4761 69
32.3134 4972 70.5124
32.4308 5159 71.8262
32.5482 5391 73.4234
32.6655 5802 76.1709
32.7829 5896 76.7854
32.9002 5849 76.4788
33.0176 5939 77.0649
33.1349 6064 77.8717
33.2522 6201 78.7464
33.3694 6303 79.3914
33.4867 6302 79.3851
33.6039 6150 78.4219
33.7211 6139 78.3518
33.8383 6299 79.3662
33.9554 6199 78.7337
34.0725 6043 77.7367
34.1896 6009 77.5177
34.3067 5954 77.1622
34.4237 5773 75.9803
34.5407 5852 76.4984
34.6577 5650 75.1665
34.7746 5481 74.0338
34.8915 5402 73.4983
35.0084 5053 71.0845
35.1252 4933 70.2353
35.242 4754 68.9493
35.3587 4776 69.1086
35.4755 4744 68.8767
35.5921 4606 67.8675
35.7088 4353 65.9773
35.8254 4433 66.5808
35.9419 4343 65.9014
36.0584 4476 66.9029
36.1749 4733 68.7968
36.2913 4768 69.0507
36.4077 4894 69.9571
36.524 5078 71.2601
36.6403 5124 71.5821
36.7565 4984 70.5975
36.8727 4956 70.3989
36.9889 4860 69.7137
37.1049 4659 68.2569
37.221 0 1
37.3369 0 1
37.4529 0 1
37.5687 0 1
37.6845 0 1
37.8003 0 1
37.916 0 1
38.0316 0 1
38.1472 0 1
40.5851 0 1
40.7008 0 1
40.8164 0 1
40.9322 0 1
41.048 0 1
41.1639 0 1
41.2798 0 1
41.3958 0 1
41.5118 0 1
41.6279 0 1
41.744 3337 57.7668
41.8602 3598 59.9833
41.9765 3674 60.6135
42.0928 3788 61.5467
42.2091 3829 61.8789
42.3255 3844 62
42.4419 3837 61.9435
42.5584 3932 62.7057
42.675 3958 62.9126
42.7915 4011 63.3325
42.9081 4040 63.561
43.0248 4183 64.6761
43.1415 4320 65.7267
43.2582 4124 64.2184
43.375 4030 63.4823
43.4918 4015 63.364
43.6087 3966 62.9762
43.7256 3899 62.442
43.8425 3919 62.6019
43.9595 3978 63.0714
44.0765 3962 62.9444
44.1935 4155 64.4593
44.3106 4085 63.914
44.4277 4119 64.1794
44.5448 4125 64.2262
44.6619 3854 62.0806
44.7791 4049 63.6318
44.8963 4068 63.7809
45.0136 4171 64.5833
45.1308 4307 65.6277
45.2481 4592 67.7643
45.3654 4577 67.6535
45.4827 4449 66.7008
45.6001 4480 66.9328
45.7174 4393 66.2797
45.8348 4270 65.3452
45.9522 4260 65.2687
46.0697 4224 64.9923
46.1871 4209 64.8768
46.3046 4051 63.6475
46.422 4191 64.7379
46.5395 4079 63.867
46.657 4266 65.3146
46.7745 4206 64.8537
46.892 4147 64.3972
47.0096 4058 63.7024
47.1271 4081 63.8827
47.2446 4039 63.5531
47.3622 4036 63.5295
47.4797 4327 65.7799
47.5973 4215 64.923
47.7149 4178 64.6375
47.8324 4210 64.8845
47.95 4227 65.0154
48.0675 4176 64.622
48.1851 4014 63.3561
48.3027 3898 62.434
48.4202 3855 62.0886
48.5378 3986 63.1348
48.6554 4272 65.3605
48.7729 4290 65.4981
48.8904 4326 65.7723
49.008 4228 65.0231
49.1255 3987 63.1427
49.243 3907 62.506
49.3605 3890 62.3699
49.478 3883 62.3137
49.5955 3873 62.2334
49.713 3731 61.0819
49.8304 3816 61.7738
49.9479 3876 62.2575
50.0653 3875 62.2495
50.1827 3959 62.9206
50.3001 3924 62.6418
50.4175 3954 62.8808
50.5348 4055 63.6789
50.6521 3869 62.2013
50.7694 4101 64.0391
50.8867 4097 64.0078
51.004 4214 64.9153
51.1212 4303 65.5973
51.2384 4276 65.3911
51.3556 4320 65.7267
51.4727 4123 64.2106
51.5899 3827 61.8628
51.707 3495 59.1185
51.824 3562 59.6825
51.9411 3512 59.2621
52.0581 3538 59.4811
52.175 3565 59.7076
52.2919 3582 59.8498
52.4088 3429 58.5577
52.5257 3381 58.1464
52.6425 3272 57.2014
52.7593 3249 57
52.876 3178 56.3738
52.9927 3168 56.285
53.1094 2998 54.754
53.226 3045 55.1815
53.3426 3145 56.0803
53.4591 3321 57.6281
53.5756 3411 58.4038
53.692 3393 58.2495
53.8084 3447 58.7112
53.9248 3331 57.7148
54.0411 3357 57.9396
54.1573 3212 56.6745
54.2735 0 1
54.3896 0 1
54.5057 0 1
54.6217 0 1
54.7377 0 1
54.8537 0 1
54.9695 0 1
55.0853 0 1
55.2011 0 1
55.3168 0 1
55.4324 0 1
57.824 0 1
57.9396 0 1
58.0553 0 1
58.1711 0 1
58.2869 0 1
58.4028 0 1
58.5187 0 1
58.6347 0 1
58.7508 0 1
58.8669 0 1
58.983 2251 47.4447
59.0992 2475 49.7494
59.2155 2901 53.8609
59.3318 3437 58.6259
59.4482 3897 62.426
59.5646 4518 67.2161
59.681 4848 69.6276
59.7975 5132 71.638
59.9141 5189 72.0347
60.0306 5068 71.1899
60.1473 5057 71.1126
60.2639 4978 70.5549
60.3807 4768 69.0507
60.4974 4640 68.1175
60.6142 4540 67.3795
60.731 4207 64.8614
60.8479 4005 63.2851
60.9648 3961 62.9365
61.0818 3744 61.1882
61.1987 3565 59.7076
61.3158 3559 59.6574
61.4328 3558 59.649
61.5499 3444 58.6856
61.667 3374 58.0861
61.7841 3702 60.8441
61.9013 3640 60.3324
62.0185 3806 61.6928
62.1357 4010 63.3246
62.253 4199 64.7997
62.3702 4455 66.7458
62.4875 4517 67.2086
62.6049 4827 69.4766
62.7222 5249 72.45
62.8396 5656 75.2064
62.9569 6275 79.2149
63.0743 6488 80.5481
63.1918 6678 81.719
63.3092 6745 82.1279
63.4267 6595 81.2096
63.5441 6329 79.555
63.6616 6054 77.8075
63.7791 5707 75.5447
63.8966 5257 72.5052
64.0142 5003 70.7319
64.1317 4637 68.0955
64.2492 4023 63.4271
64.3668 3617 60.1415
64.4843 3418 58.4637
64.6019 3288 57.3411
64.7195 3227 56.8067
64.837 3155 56.1694
64.9546 3198 56.5509
65.0722 3272 57.2014
65.1898 3280 57.2713
65.3074 3225 56.7891
65.4249 3344 57.8273
65.5425 3486 59.0424
65.6601 3596 59.9667
65.7777 3788 61.5467
65.8952 4031 63.4902
66.0128 4341 65.8863
66.1304 4655 68.2276
66.2479 5194 72.0694
66.3655 5704 75.5248
66.483 6072 77.923
66.6005 6511 80.6908
66.718 6427 80.1686
66.8355 6508 80.6722
66.953 6411 80.0687
67.0705 6331 79.5676
67.1879 5961 77.2075
67.3054 5631 75.04
67.4228 4937 70.2638
67.5402 4379 66.174
67.6576 3613 60.1082
67.7749 3378 58.1206
67.8923 3496 59.127
68.0096 3379 58.1292
68.1269 3482 59.0085
68.2442 3687 60.7207
68.3614 3763 61.3433
68.4787 4123 64.2106
68.5958 4394 66.2873
68.713 4423 66.5056
68.8302 4670 68.3374
68.9473 4867 69.7639
69.0643 4910 70.0714
69.1814 5241 72.3948
69.2984 5637 75.08
69.4154 5939 77.0649
69.5323 6236 78.9683
69.6492 6821 82.5893
69.7661 7685 87.6641
69.8829 8279 90.989
69.9997 8708 93.3167
70.1165 8868 94.1701
70.2332 9093 95.3572
70.3499 9437 97.1442
70.4665 9174 95.781
70.5831 9049 95.1262
70.6996 8347 91.3619
70.8161 7350 85.7321
70.9326 6200 78.7401
71.049 5166 71.8749
71.1653 4600 67.8233
71.2817 4597 67.8012
71.3979 4165 64.5368
71.5141 3609 60.075
71.6303 3421 58.4893
71.7464 2799 52.9056
71.8624 0 1
71.9784 0 1
72.0944 0 1
72.2102 0 1
72.3261 0 1
72.4418 0 1
72.5575 0 1
72.6732 0 1
75.1054 0 1
75.2209 0 1
75.3365 0 1
75.4521 0 1
75.5678 0 1
75.6835 0 1
75.7993 0 1
75.9151 0 1
76.031 0 1
76.147 4733 68.7968
76.263 4506 67.1267
76.3791 4113 64.1327
76.4952 3855 62.0886
76.6113 3685 60.7042
76.7276 3888 62.3538
76.8438 3974 63.0397
76.9601 3965 62.9682
77.0765 3897 62.426
77.1929 3798 61.6279
77.3093 3954 62.8808
77.4258 3935 62.7296
77.5423 3712 60.9262
77.6589 3928 62.6738
77.7755 3716 60.959
77.8921 3639 60.3241
78.0088 3693 60.7701
78.1256 3666 60.5475
78.2423 3750 61.2372
78.3591 3835 61.9274
78.4759 4087 63.9296
78.5928 4692 68.4982
78.7097 5270 72.5948
78.8266 5984 77.3563
78.9436 6795 82.4318
79.0606 7130 84.4393
79.1776 7083 84.1606
79.2946 7428 86.1858
79.4117 7482 86.4986
79.5288 7424 86.1626
79.6459 7488 86.5332
79.7631 7052 83.9762
79.8802 6162 78.4984
79.9974 5516 74.2698
80.1147 5206 72.1526
80.2319 5272 72.6085
80.3491 5322 72.952
80.4664 5576 74.6726
80.5837 5672 75.3127
80.701 5628 75.02
80.8183 5591 74.773
80.9357 5879 76.6746
81.053 6130 78.2943
81.1704 5940 77.0714
81.2877 6086 78.0128
81.4051 5996 77.4338
81.5225 6003 77.479
81.6399 5768 75.9474
81.7573 5782 76.0395
81.8747 5749 75.8222
81.9922 5628 75.02
82.1096 6064 77.8717
82.227 6660 81.6088
82.3444 7378 85.8953
82.4619 8099 89.9944
82.5793 8448 91.913
82.6967 8513 92.2659
82.8142 8618 92.8332
82.9316 8858 94.1169
83.049 8845 94.0479
83.1664 8696 93.2523
83.2838 8309 91.1537
83.4012 7587 87.1034
83.5186 6940 83.3067
83.636 6435 80.2185
83.7534 6131 78.3007
83.8708 5836 76.3937
83.9881 5688 75.4188
84.1055 5720 75.6307
84.2228 5598 74.8198
84.3401 5578 74.686
84.4575 5356 73.1847
84.5747 5508 74.2159
84.692 5576 74.6726
84.8093 5606 74.8732
84.9265 5260 72.5259
85.0437 5086 71.3162
85.1609 4798 69.2676
85.2781 4546 67.424
85.3952 4385 66.2193
85.5123 4202 64.8228
85.6294 4140 64.3428
85.7465 4477 66.9104
85.8636 4936 70.2567
85.9806 5276 72.6361
86.0976 5767 75.9408
86.2145 5937 77.0519
86.3315 5815 76.2561
86.4484 5873 76.6355
86.5652 5745 75.7958
86.682 5817 76.2693
86.7988 5552 74.5117
86.9156 5413 73.5731
87.0323 5059 71.1266
87.149 4778 69.1231
87.2657 4557 67.5056
87.3823 4288 65.4828
87.4988 3934 62.7216
87.6154 3679 60.6548
87.7318 3354 57.9137
87.8483 2893 53.7866
87.9647 2570 50.6952
88.081 2402 49.0102
88.1973 2628 51.264
88.3136 2569 50.6853
88.4298 2270 47.6445
88.546 1992 44.6318
88.6621 1848 42.9884
88.7781 1628 40.3485
88.8942 0 1
89.0101 0 1
89.126 0 1
89.2419 0 1
89.3577 0 1
89.4734 0 1
89.5891 0 1
89.7047 0 1
89.8203 0 1
89.9358 0 1
92.3269 0 1
92.4424 0 1
92.558 0 1
92.6736 0 1
92.7893 0 1
92.905 0 1
93.0208 0 1
93.1366 0 1
93.2525 0 1
93.3685 0 1
93.4845 0 1
93.6005 1896 43.5431
93.7167 2200 46.9042
93.8328 2567 50.6656
93.949 2760 52.5357
94.0653 2786 52.7826
94.1816 3001 54.7814
94.2979 2923 54.0648
94.4143 2941 54.231
94.5307 2951 54.3231
94.6472 2928 54.111
94.7637 3202 56.5862
94.8803 3517 59.3043
94.9969 3936 62.7375
95.1135 4374 66.1362
95.2302 4800 69.282
95.3469 5232 72.3326
95.4637 5723 75.6505
95.5805 5727 75.6769
95.6973 5806 76.1971
95.8142 5804 76.184
95.9311 5548 74.4849
96.048 5644 75.1266
96.1649 5641 75.1066
96.2819 5173 71.9236
96.3989 4815 69.3902
96.516 4652 68.2056
96.633 4258 65.2534
96.7501 4049 63.6318
96.8673 3549 59.5735
96.9844 3164 56.2494
97.1016 2989 54.6717
97.2188 2746 52.4023
97.336 2847 53.3573
97.4532 3095 55.6327
97.5704 3274 57.2189
97.6877 3470 58.9067
97.805 3165 56.2583
97.9223 3161 56.2228
98.0396 3104 55.7136
98.1569 3150 56.1249
98.2743 3057 55.2901
98.3916 3050 55.2268
98.509 3354 57.9137
98.6264 3777 61.4573
98.7438 4268 65.3299
98.8612 4625 68.0074
98.9786 4948 70.342
99.096 5272 72.6085
99.2134 5519 74.29
99.3308 5714 75.591
99.4482 5867 76.5963
99.5656 6028 77.6402
99.6831 6462 80.3866
99.8005 6266 79.1581
99.9179 5869 76.6094
100.035 5507 74.2092
100.153 5249 72.45
100.27 4986 70.6116
100.388 4405 66.3702
100.505 3721 61
100.622 3086 55.5518
100.74 2920 54.037
100.857 2882 53.6843
100.975 3084 55.5338
101.092 3332 57.7235
101.209 3490 59.0762
101.327 3327 57.6802
101.444 3296 57.4108
101.561 3232 56.8507
101.679 3235 56.8771
101.796 3374 58.0861
101.913 3439 58.643
102.03 3570 59.7495
102.148 4022 63.4192
102.265 4460 66.7832
102.382 5015 70.8167
102.499 5555 74.5319
102.616 5845 76.4526
102.733 6087 78.0192
102.851 6336 79.599
102.968 6775 82.3104
103.085 7533 86.7929
103.202 7708 87.7952
103.319 7481 86.4928
103.436 7083 84.1606
103.552 6727 82.0183
103.669 6246 79.0316
103.786 5741 75.7694
103.903 4697 68.5347
104.02 3978 63.0714
104.137 3730 61.0737
104.253 3526 59.3801
104.37 3791 61.5711
104.487 4051 63.6475
104.603 4216 64.9307
104.72 4103 64.0547
104.836 3774 61.4329
104.953 3682 60.6795
105.069 3484 59.0254
105.186 3430 58.5662
105.302 3466 58.8727
105.418 3451 58.7452
105.535 3196 56.5332
105.651 3308 57.5152
105.767 3312 57.55
105.883 3521 59.338
105.999 3608 60.0666
106.115 0 1
106.231 0 1
106.347 0 1
106.463 0 1
106.579 0 1
106.694 0 1
106.81 0 1
106.926 0 1
107.041 0 1
107.157 0 1
109.576 0 1
109.692 0 1
109.807 0 1
109.923 0 1
110.039 0 1
110.155 0 1
110.27 0 1
110.386 0 1
110.502 0 1
110.618 2754 52.4786
110.735 3504 59.1946
110.851 4286 65.4675
110.967 4613 67.9191
111.083 5305 72.8354
111.199 5905 76.844
111.316 6323 79.5173
111.432 6601 81.2465
111.549 6906 83.1023
111.665 6974 83.5105
111.782 6891 83.012
111.898 6601 81.2465
112.015 6586 81.1542
112.132 6321 79.5047
112.248 5968 77.2528
112.365 5585 74.7329
112.482 5205 72.1457
112.599 5275 72.6292
112.716 4832 69.5126
112.832 4770 69.0652
112.949 4749 68.913
113.066 4800 69.282
113.183 5193 72.0625
113.3 5234 72.3464
113.417 5081 71.2811
113.534 5142 71.7077
113.652 5025 70.8872
113.769 4967 70.4769
113.886 4958 70.4131
114.003 4935 70.2496
114.12 5130 71.624
114.238 5618 74.9533
114.355 5918 76.9285
114.472 6389 79.9312
114.589 7742 87.9886
114.707 8107 90.0389
114.824 8758 93.5842
114.942 8991 94.8209
115.059 9261 96.2341
115.176 9258 96.2185
115.294 9161 95.7131
115.411 9187 95.8488
115.529 8721 93.3863
115.646 7804 88.3403
115.764 7037 83.8868
115.881 6627 81.4064
115.999 6201 78.7464
116.116 6091 78.0449
116.234 5757 75.8749
116.351 5553 74.5185
116.469 5385 73.3826
116.586 5493 74.1148
116.704 5665 75.2662
116.821 5608 74.8866
116.939 5722 75.6439
117.056 5829 76.3479
117.174 5776 76
117.291 5846 76.4591
117.409 5746 75.8024
117.526 6179 78.6066
117.644 6019 77.5822
117.761 6497 80.604
117.879 7073 84.1011
117.996 7562 86.9598
118.114 8621 92.8493
118.231 9169 95.7549
118.349 9422 97.067
118.466 9616 98.0612
118.584 9763 98.8079
118.701 9816 99.0757
118.819 9548 97.7139
118.936 9392 96.9123
119.053 9027 95.0105
119.171 8345 91.351
119.288 7392 85.9767
119.405 6981 83.5524
119.523 6603 81.2588
119.64 5939 77.0649
119.757 5589 74.7596
119.875 5442 73.7699
119.992 5091 71.3512
120.109 4960 70.4273
120.226 4991 70.647
120.343 4896 69.9714
120.46 5065 71.1688
120.578 5006 70.7531
120.695 4958 70.4131
120.812 5061 71.1407
120.929 5004 70.739
121.046 4953 70.3776
121.163 5101 71.4213
121.279 5275 72.6292
121.396 5429 73.6817
121.513 5928 76.9935
121.63 6372 79.8248
121.747 6854 82.7889
121.863 7014 83.7496
121.98 7169 84.6699
122.097 7182 84.7467
122.213 7173 84.6936
122.33 6892 83.0181
122.446 6619 81.3572
122.563 6288 79.2969
122.679 5983 77.3499
122.795 5293 72.753
122.912 4731 68.7823
123.028 4367 66.0833
123.144 4059 63.7103
123.26 3860 62.1289
123.377 0 1
123.493 0 1
123.609 0 1
123.725 0 1
123.84 0 1
123.956 0 1
124.072 0 1
124.188 0 1
124.303 0 1
124.419 0 1
126.852 0 1
126.968 0 1
127.083 0 1
127.199 0 1
127.315 0 1
127.431 0 1
127.547 0 1
127.663 0 1
127.779 0 1
127.895 0 1
128.011 0 1
128.127 0 1
128.243 0 1
128.359 6251 79.0633
128.476 6020 77.5887
128.592 5823 76.3086
128.708 5610 74.8999
128.825 5608 74.8866
128.941 5295 72.7668
129.058 5245 72.4224
129.174 5065 71.1688
129.291 4995 70.6753
129.408 5000 70.7107
129.524 5085 71.3092
129.641 5338 73.0616
129.758 5273 72.6154
129.875 5560 74.5654
129.992 5603 74.8532
130.108 5659 75.2263
130.225 5713 75.5844
130.342 5980 77.3305
130.459 5907 76.857
130.576 6282 79.2591
130.693 6350 79.6869
130.81 6664 81.6333
130.928 6458 80.3617
131.045 6504 80.6474
131.162 6509 80.6784
131.279 6489 80.5543
131.396 6082 77.9872
131.513 6076 77.9487
131.631 5844 76.4461
131.748 5720 75.6307
131.865 5623 74.9867
131.983 5301 72.808
132.1 5327 72.9863
132.217 5078 71.2601
132.335 4920 70.1427
132.452 4765 69.029
132.57 4791 69.217
132.687 4694 68.5128
132.804 4591 67.7569
132.922 4595 67.7864
133.039 4710 68.6294
133.157 4875 69.8212
133.274 4923 70.1641
133.392 5135 71.6589
133.509 5265 72.5603
133.627 5222 72.2634
133.744 5228 72.3049
133.862 5226 72.2911
133.979 5118 71.5402
134.097 5154 71.7914
134.214 5085 71.3092
134.332 5063 71.1548
134.449 4988 70.6258
134.567 4940 70.2851
134.684 4789 69.2026
134.802 4723 68.7241
134.919 4604 67.8528
135.037 4637 68.0955
135.154 4607 67.8749
135.272 4835 69.5342
135.389 4868 69.7711
135.507 4753 68.942
135.624 4686 68.4544
135.742 4825 69.4622
135.859 4764 69.0217
135.977 4764 69.0217
136.094 4764 69.0217
136.211 4854 69.6707
136.329 4883 69.8785
136.446 5005 70.746
136.564 5082 71.2881
136.681 5244 72.4155
136.798 5249 72.45
136.915 5373 73.3008
137.033 5251 72.4638
137.15 5480 74.027
137.267 5349 73.1369
137.384 5209 72.1734
137.502 5132 71.638
137.619 4841 69.5773
137.736 4990 70.6399
137.853 4743 68.8694
137.97 4732 68.7895
138.087 4457 66.7608
138.204 4442 66.6483
138.321 4269 65.3376
138.438 4151 64.4283
138.555 4193 64.7534
138.672 4290 65.4981
138.788 4121 64.195
138.905 4158 64.4826
139.022 4203 64.8305
139.139 4011 63.3325
139.255 4085 63.914
139.372 4101 64.0391
139.488 4034 63.5138
139.605 3902 62.466
139.721 3931 62.6977
139.838 3982 63.1031
139.954 3974 63.0397
140.071 3975 63.0476
140.187 4035 63.5216
140.303 3933 62.7136
140.419 3832 61.9032
140.535 3868 62.1932
140.652 3909 62.522
140.768 0 1
140.884 0 1
141 0 1
141.115 0 1
141.231 0 1
141.347 0 1
141.463 0 1
141.578 0 1
141.694 0 1
144.104 0 1
144.219 0 1
144.335 0 1
144.45 0 1
144.566 0 1
144.682 0 1
144.798 0 1
144.914 0 1
145.03 0 1
145.146 3308 57.5152
145.262 3564 59.6992
145.378 3605 60.0417
145.494 3774 61.4329
145.61 3897 62.426
145.726 3923 62.6339
145.842 3886 62.3378
145.959 3959 62.9206
146.075 3848 62.0322
146.192 3849 62.0403
146.308 3736 61.1228
146.425 3574 59.7829
146.541 3643 60.3573
146.658 3560 59.6657
146.774 3596 59.9667
146.891 3697 60.803
147.008 3546 59.5483
147.125 3636 60.2993
147.241 3572 59.7662
147.358 3718 60.9754
147.475 3642 60.349
147.592 3860 62.1289
147.709 3926 62.6578
147.826 3997 63.2218
147.943 3806 61.6928
148.06 3976 63.0555
148.177 4062 63.7338
148.294 3946 62.8172
148.411 4218 64.9461
148.528 4040 63.561
148.645 4106 64.0781
148.762 4237 65.0922
148.88 4248 65.1767
148.997 4315 65.6887
149.114 4132 64.2806
149.231 4350 65.9545
149.349 4332 65.8179
149.466 4187 64.707
149.583 4155 64.4593
149.701 4028 63.4665
149.818 3929 62.6817
149.935 3902 62.466
150.053 3811 61.7333
150.17 3799 61.636
150.287 3738 61.1392
150.405 3851 62.0564
150.522 3932 62.7057
150.64 3884 62.3217
150.757 3946 62.8172
150.875 4091 63.9609
150.992 4053 63.6632
151.11 4206 64.8537
151.227 4231 65.0461
151.344 4215 64.923
151.462 4146 64.3894
151.579 4304 65.6049
151.697 4254 65.2227
151.814 4208 64.8691
151.932 4221 64.9692
152.049 4231 65.0461
152.167 4232 65.0538
152.284 4317 65.7039
152.402 4201 64.8151
152.519 4381 66.1891
152.636 4306 65.6201
152.754 4285 65.4599
152.871 4248 65.1767
152.989 4295 65.5362
153.106 4376 66.1513
153.223 4148 64.405
153.341 4214 64.9153
153.458 4217 64.9384
153.575 4213 64.9076
153.693 4335 65.8407
153.81 4454 66.7383
153.927 4616 67.9412
154.044 4734 68.8041
154.162 5041 71
154.279 5165 71.8679
154.396 5316 72.9109
154.513 5427 73.6682
154.63 5704 75.5248
154.747 5695 75.4652
154.864 5903 76.831
154.981 5829 76.3479
155.098 5758 75.8815
155.215 5722 75.6439
155.332 5650 75.1665
155.449 5519 74.29
155.566 5506 74.2024
155.683 5283 72.6842
155.8 5211 72.1873
155.917 4894 69.9571
156.033 4989 70.6329
156.15 0 1
156.267 0 1
156.383 0 1
156.5 0 1
156.617 0 1
156.733 0 1
156.85 0 1
156.966 0 1
157.082 0 1
157.199 0 1
157.315 0 1
157.431 0 1
157.547 0 1
157.664 0 1
157.78 0 1
157.896 0 1
158.012 0 1
158.128 0 1
158.244 0 1
158.359 0 1
158.475 0 1
158.591 0 1
158.706 0 1
