
6.15755 0 1
6.2731 0 1
6.3887 0 1
6.50437 0 1
6.62009 0 1
6.73587 0 1
6.8517 0 1
6.96759 0 1
7.08353 0 1
7.19952 0 1
7.31557 0 1
7.43166 0 1
7.54781 0 1
7.664 0 1
7.78024 0 1
7.89653 0 1
8.01286 0 1
8.12924 0 1
8.24567 0 1
8.36213 0 1
8.47864 0 1
8.59519 0 1
8.71178 0 1
8.82841 0 1
8.94508 0 1
9.06179 0 1
9.17853 0 1
9.29531 0 1
9.41212 0 1
9.52897 0 1
9.64584 0 1
9.76276 0 1
9.8797 0 1
9.99667 0 1
10.1137 0 1
10.2307 0 1
10.3478 0 1
10.4648 0 1
10.5819 0 1
10.6991 0 1
10.8162 0 1
10.9334 0 1
11.0506 0 1
11.1678 0 1
11.285 0 1
11.4023 0 1
11.5196 0 1
11.6369 0 1
11.7542 0 1
11.8715 0 1
11.9888 0 1
12.1062 0 1
12.2235 0 1
12.3409 0 1
12.4582 0 1
12.5756 0 1
12.693 0 1
12.8104 0 1
12.9278 0 1
13.0452 0 1
13.1626 0 1
13.28 0 1
13.3974 0 1
13.5149 0 1
13.6323 0 1
13.7497 0 1
13.8671 0 1
13.9845 0 1
14.1019 0 1
14.2193 0 1
14.3367 0 1
14.4541 0 1
14.5714 0 1
14.6888 0 1
14.8062 0 1
14.9235 0 1
15.0408 0 0
15.1581 0 0
15.2755 0 0
15.3927 0 0
15.51 0 0
15.6273 0 0
15.7445 0 0
15.8617 0 0
15.9789 0 0
16.0961 0 0
16.2132 0 0
16.3304 0 0
16.4475 0 0
16.5646 0 0
16.6816 0 0
16.7986 0 0
16.9156 0 0
17.0326 0 0
17.1496 0 0
17.2665 0 0
17.3833 0 0
17.5002 0 0
17.617 0 0
17.7338 0 0
17.8505 0 0
17.9672 0 0
18.0839 0 0
18.2005 0 0
18.3171 0 0
18.4337 0 0
18.5502 0 0
18.6666 0 0
18.7831 0 0
18.8994 0 0
19.0158 0 0
19.1321 0 0
19.2483 0 0
19.3645 0 0
19.4806 0 0
19.5967 0 0
19.7128 0 0
19.8288 0 0
19.9447 0 0
20.0606 0 1
20.1764 0 1
20.2922 0 1
20.4079 0 1
20.5236 0 1
20.6392 0 1
20.7548 0 1
20.8702 0 1
23.3078 0 1
23.4233 0 1
23.539 0 1
23.6547 0 1
23.7704 0 1
23.8862 0 1
24.0021 0 1
24.118 0 1
24.234 0 1
24.35 0 1
24.4661 1790 42.3084
24.5822 1794 42.3556
24.6984 1818 42.638
24.8146 1832 42.8019
24.9309 1791 42.3202
25.0472 1718 41.4488
25.1636 1590 39.8748
25.28 1653 40.6571
25.3965 1679 40.9756
25.513 1777 42.1545
25.6296 1809 42.5323
25.7462 1921 43.8292
25.8628 2014 44.8776
25.9795 2070 45.4973
26.0962 2083 45.6399
26.213 2033 45.0888
26.3298 2087 45.6837
26.4466 2045 45.2217
26.5635 1950 44.1588
26.6804 1902 43.6119
26.7973 1785 42.2493
26.9143 1721 41.4849
27.0313 1886 43.4281
27.1483 1924 43.8634
27.2653 1994 44.6542
27.3824 2049 45.2659
27.4996 1967 44.3509
27.6167 1970 44.3847
27.7339 1938 44.0227
27.8511 1933 43.9659
27.9683 1895 43.5316
28.0855 1877 43.3244
28.2028 1818 42.638
28.3201 1890 43.4741
28.4374 1787 42.2729
28.5547 1743 41.7493
28.6721 1718 41.4488
28.7894 1686 41.0609
28.9068 1735 41.6533
29.0242 1734 41.6413
29.1416 1841 42.9069
29.259 1866 43.1972
29.3764 1927 43.8976
29.4939 1940 44.0454
29.6113 2038 45.1442
29.7288 1973 44.4185
29.8463 2053 45.31
29.9638 1994 44.6542
30.0812 1954 44.2041
30.1987 1823 42.6966
30.3162 1780 42.19
30.4337 1763 41.9881
30.5512 1792 42.332
30.6687 1907 43.6692
30.7862 1903 43.6234
30.9037 1971 44.3959
31.0212 2058 45.3652
31.1387 2034 45.0999
31.2562 2040 45.1664
31.3737 2019 44.9333
31.4912 2044 45.2106
31.6087 1846 42.9651
31.7262 1951 44.1701
31.8436 1922 43.8406
31.9611 1841 42.9069
32.0785 1798 42.4028
32.1959 1649 40.6079
32.3134 1726 41.5452
32.4308 1705 41.2916
32.5482 1794 42.3556
32.6655 1860 43.1277
32.7829 1844 42.9418
32.9002 1968 44.3621
33.0176 1994 44.6542
33.1349 1996 44.6766
33.2522 1961 44.2832
33.3694 2098 45.8039
33.4867 2035 45.111
33.6039 2045 45.2217
33.7211 2025 45
33.8383 1964 44.317
33.9554 1808 42.5206
34.0725 1804 42.4735
34.1896 1850 43.0116
34.3067 1870 43.2435
34.4237 1892 43.4971
34.5407 1974 44.4297
34.6577 2027 45.0222
34.7746 2021 44.9555
34.8915 2106 45.8912
35.0084 2011 44.8442
35.1252 1968 44.3621
35.242 1949 44.1475
35.3587 1880 43.359
35.4755 1865 43.1856
35.5921 1902 43.6119
35.7088 1866 43.1972
35.8254 1756 41.9047
35.9419 1800 42.4264
36.0584 1632 40.398
36.1749 1694 41.1582
36.2913 1634 40.4228
36.4077 1705 41.2916
36.524 1792 42.332
36.6403 1856 43.0813
36.7565 1889 43.4626
36.8727 1893 43.5086
36.9889 1943 44.0795
37.1049 1938 44.0227
37.221 0 1
37.3369 0 1
37.4529 0 1
37.5687 0 1
37.6845 0 1
37.8003 0 1
37.916 0 1
38.0316 0 1
38.1472 0 1
40.5851 0 1
40.7008 0 1
40.8164 0 1
40.9322 0 1
41.048 0 1
41.1639 0 1
41.2798 0 1
41.3958 0 1
41.5118 0 1
41.6279 0 1
41.744 1493 38.6394
41.8602 1574 39.6737
41.9765 1718 41.4488
42.0928 1647 40.5832
42.2091 1711 41.3642
42.3255 1727 41.5572
42.4419 1769 42.0595
42.5584 1663 40.7799
42.675 1594 39.9249
42.7915 1505 38.7943
42.9081 1510 38.8587
43.0248 1487 38.5616
43.1415 1660 40.7431
43.2582 1684 41.0366
43.375 1697 41.1947
43.4918 1839 42.8836
43.6087 1693 41.1461
43.7256 1725 41.5331
43.8425 1692 41.1339
43.9595 1566 39.5727
44.0765 1589 39.8623
44.1935 1537 39.2046
44.3106 1567 39.5854
44.4277 1556 39.4462
44.5448 1431 37.8286
44.6619 1399 37.4032
44.7791 1332 36.4966
44.8963 1252 35.3836
45.0136 1281 35.7911
45.1308 1280 35.7771
45.2481 1334 36.524
45.3654 1309 36.1801
45.4827 1429 37.8021
45.6001 1492 38.6264
45.7174 1530 39.1152
45.8348 1455 38.1445
45.9522 1465 38.2753
46.0697 1435 37.8814
46.1871 1291 35.9305
46.3046 1290 35.9166
46.422 1217 34.8855
46.5395 1259 35.4824
46.657 1322 36.3593
46.7745 1284 35.8329
46.892 1326 36.4143
47.0096 1332 36.4966
47.1271 1392 37.3095
47.2446 1407 37.51
47.3622 1314 36.2491
47.4797 1321 36.3456
47.5973 1232 35.0999
47.7149 1226 35.0143
47.8324 1178 34.322
47.95 1137 33.7194
48.0675 1152 33.9411
48.1851 1048 32.3728
48.3027 961 31
48.4202 968 31.1127
48.5378 984 31.3688
48.6554 995 31.5436
48.7729 1059 32.5423
48.8904 1140 33.7639
49.008 1225 35
49.1255 1183 34.3948
49.243 1181 34.3657
49.3605 1286 35.8608
49.478 1195 34.5688
49.5955 1220 34.9285
49.713 1136 33.7046
49.8304 1054 32.4654
49.9479 1037 32.2025
50.0653 1085 32.9393
50.1827 1216 34.8712
50.3001 1199 34.6266
50.4175 1267 35.5949
50.5348 1324 36.3868
50.6521 1385 37.2156
50.7694 1388 37.2559
50.8867 1422 37.7094
51.004 1373 37.054
51.1212 1486 38.5487
51.2384 1392 37.3095
51.3556 1424 37.7359
51.4727 1439 37.9342
51.5899 1379 37.1349
51.707 1379 37.1349
51.824 1292 35.9444
51.9411 1244 35.2704
52.0581 1265 35.5668
52.175 1309 36.1801
52.2919 1435 37.8814
52.4088 1490 38.6005
52.5257 1614 40.1746
52.6425 1666 40.8167
52.7593 1651 40.6325
52.876 1661 40.7554
52.9927 1737 41.6773
53.1094 1663 40.7799
53.226 1577 39.7115
53.3426 1447 38.0395
53.4591 1440 37.9473
53.5756 1465 38.2753
53.692 1475 38.4057
53.8084 1570 39.6232
53.9248 1637 40.4599
54.0411 1708 41.328
54.1573 1749 41.821
54.2735 0 1
54.3896 0 1
54.5057 0 1
54.6217 0 1
54.7377 0 1
54.8537 0 1
54.9695 0 1
55.0853 0 1
55.2011 0 1
55.3168 0 1
55.4324 0 1
57.824 0 1
57.9396 0 1
58.0553 0 1
58.1711 0 1
58.2869 0 1
58.4028 0 1
58.5187 0 1
58.6347 0 1
58.7508 0 1
58.8669 0 1
58.983 1744 41.7612
59.0992 1933 43.9659
59.2155 1997 44.6878
59.3318 2023 44.9778
59.4482 2132 46.1736
59.5646 2132 46.1736
59.681 2162 46.4973
59.7975 2106 45.8912
59.9141 2056 45.3431
60.0306 2033 45.0888
60.1473 1965 44.3283
60.2639 1821 42.6732
60.3807 1752 41.8569
60.4974 1639 40.4846
60.6142 1594 39.9249
60.731 1670 40.8656
60.8479 1725 41.5331
60.9648 1773 42.107
61.0818 1842 42.9185
61.1987 1953 44.1928
61.3158 1938 44.0227
61.4328 1885 43.4166
61.5499 1947 44.1248
61.667 1941 44.0568
61.7841 1823 42.6966
61.9013 1799 42.4146
62.0185 1713 41.3884
62.1357 1730 41.5933
62.253 1690 41.1096
62.3702 1768 42.0476
62.4875 1899 43.5775
62.6049 1903 43.6234
62.7222 1955 44.2154
62.8396 1941 44.0568
62.9569 1946 44.1135
63.0743 1973 44.4185
63.1918 1992 44.6318
63.3092 1954 44.2041
63.4267 1790 42.3084
63.5441 1873 43.2782
63.6616 1680 40.9878
63.7791 1719 41.4608
63.8966 1637 40.4599
64.0142 1549 39.3573
64.1317 1547 39.3319
64.2492 1552 39.3954
64.3668 1604 40.05
64.4843 1700 41.2311
64.6019 1727 41.5572
64.7195 1807 42.5088
64.837 1747 41.7971
64.9546 1758 41.9285
65.0722 1732 41.6173
65.1898 1888 43.4511
65.3074 1713 41.3884
65.4249 1594 39.9249
65.5425 1560 39.4968
65.6601 1456 38.1576
65.7777 1531 39.128
65.8952 1629 40.3609
66.0128 1646 40.5709
66.1304 1801 42.4382
66.2479 1811 42.5558
66.3655 1929 43.9204
66.483 1952 44.1814
66.6005 1818 42.638
66.718 1868 43.2204
66.8355 1888 43.4511
66.953 1860 43.1277
67.0705 1737 41.6773
67.1879 1818 42.638
67.3054 1746 41.7852
67.4228 1587 39.8372
67.5402 1512 38.8844
67.6576 1531 39.128
67.7749 1403 37.4566
67.8923 1487 38.5616
68.0096 1541 39.2556
68.1269 1614 40.1746
68.2442 1682 41.0122
68.3614 1766 42.0238
68.4787 1761 41.9643
68.5958 1832 42.8019
68.713 1788 42.2847
68.8302 1812 42.5676
68.9473 1643 40.5339
69.0643 1542 39.2683
69.1814 1586 39.8246
69.2984 1581 39.7618
69.4154 1471 38.3536
69.5323 1608 40.0999
69.6492 1681 41
69.7661 1792 42.332
69.8829 1829 42.7668
69.9997 1942 44.0681
70.1165 1899 43.5775
70.2332 2026 45.0111
70.3499 1957 44.238
70.4665 1891 43.4856
70.5831 1874 43.2897
70.6996 1886 43.4281
70.8161 1858 43.1045
70.9326 1721 41.4849
71.049 1797 42.391
71.1653 1593 39.9124
71.2817 1463 38.2492
71.3979 1447 38.0395
71.5141 1453 38.1182
71.6303 1432 37.8418
71.7464 1317 36.2905
71.8624 0 1
71.9784 0 1
72.0944 0 1
72.2102 0 1
72.3261 0 1
72.4418 0 1
72.5575 0 1
72.6732 0 1
75.1054 0 1
75.2209 0 1
75.3365 0 1
75.4521 0 1
75.5678 0 1
75.6835 0 1
75.7993 0 1
75.9151 0 1
76.031 0 1
76.147 1555 39.4335
76.263 1694 41.1582
76.3791 1648 40.5956
76.4952 1645 40.5586
76.6113 1524 39.0384
76.7276 1376 37.0945
76.8438 1409 37.5366
76.9601 1457 38.1707
77.0765 1559 39.4842
77.1929 1618 40.2244
77.3093 1820 42.6615
77.4258 1892 43.4971
77.5423 1854 43.0581
77.6589 1896 43.5431
77.7755 1768 42.0476
77.8921 1754 41.8808
78.0088 1604 40.05
78.1256 1553 39.4081
78.2423 1465 38.2753
78.3591 1451 38.092
78.4759 1421 37.6962
78.5928 1624 40.2989
78.7097 1637 40.4599
78.8266 1669 40.8534
78.9436 1849 43
79.0606 1841 42.9069
79.1776 1896 43.5431
79.2946 1870 43.2435
79.4117 1880 43.359
79.5288 1853 43.0465
79.6459 1937 44.0114
79.7631 1768 42.0476
79.8802 1781 42.2019
79.9974 1648 40.5956
80.1147 1611 40.1373
80.2319 1491 38.6135
80.3491 1422 37.7094
80.4664 1397 37.3765
80.5837 1378 37.1214
80.701 1489 38.5876
80.8183 1620 40.2492
80.9357 1776 42.1426
81.053 1735 41.6533
81.1704 1776 42.1426
81.2877 1712 41.3763
81.4051 1746 41.7852
81.5225 1706 41.3038
81.6399 1612 40.1497
81.7573 1513 38.8973
81.8747 1348 36.7151
81.9922 1297 36.0139
82.1096 1301 36.0694
82.227 1497 38.6911
82.3444 1597 39.9625
82.4619 1696 41.1825
82.5793 1767 42.0357
82.6967 1642 40.5216
82.8142 1794 42.3556
82.9316 1755 41.8927
83.049 1838 42.8719
83.1664 1700 41.2311
83.2838 1719 41.4608
83.4012 1641 40.5093
83.5186 1574 39.6737
83.636 1525 39.0512
83.7534 1406 37.4967
83.8708 1293 35.9583
83.9881 1265 35.5668
84.1055 1276 35.7211
84.2228 1323 36.3731
84.3401 1404 37.47
84.4575 1461 38.223
84.5747 1639 40.4846
84.692 1679 40.9756
84.8093 1678 40.9634
84.9265 1673 40.9023
85.0437 1636 40.4475
85.1609 1539 39.2301
85.2781 1385 37.2156
85.3952 1302 36.0832
85.5123 1280 35.7771
85.6294 1318 36.3043
85.7465 1398 37.3898
85.8636 1538 39.2173
85.9806 1674 40.9145
86.0976 1684 41.0366
86.2145 1795 42.3674
86.3315 1791 42.3202
86.4484 1844 42.9418
86.5652 1910 43.7035
86.682 1862 43.1509
86.7988 1869 43.2319
86.9156 1791 42.3202
87.0323 1800 42.4264
87.149 1809 42.5323
87.2657 1694 41.1582
87.3823 1559 39.4842
87.4988 1412 37.5766
87.6154 1475 38.4057
87.7318 1494 38.6523
87.8483 1484 38.5227
87.9647 1729 41.5812
88.081 1814 42.5911
88.1973 1858 43.1045
88.3136 1951 44.1701
88.4298 1951 44.1701
88.546 1895 43.5316
88.6621 1795 42.3674
88.7781 1640 40.4969
88.8942 0 1
89.0101 0 1
89.126 0 1
89.2419 0 1
89.3577 0 1
89.4734 0 1
89.5891 0 1
89.7047 0 1
89.8203 0 1
89.9358 0 1
92.3269 0 1
92.4424 0 1
92.558 0 1
92.6736 0 1
92.7893 0 1
92.905 0 1
93.0208 0 1
93.1366 0 1
93.2525 0 1
93.3685 0 1
93.4845 0 1
93.6005 1878 43.3359
93.7167 1939 44.0341
93.8328 1866 43.1972
93.949 1840 42.8952
94.0653 1791 42.3202
94.1816 1789 42.2966
94.2979 1718 41.4488
94.4143 1641 40.5093
94.5307 1534 39.1663
94.6472 1481 38.4838
94.7637 1525 39.0512
94.8803 1654 40.6694
94.9969 1825 42.72
95.1135 1846 42.9651
95.2302 1954 44.2041
95.3469 1981 44.5084
95.4637 2135 46.2061
95.5805 2059 45.3762
95.6973 2111 45.9456
95.8142 2115 45.9891
95.9311 2065 45.4423
96.048 2057 45.3542
96.1649 2060 45.3872
96.2819 1921 43.8292
96.3989 1864 43.1741
96.516 1735 41.6533
96.633 1717 41.4367
96.7501 1617 40.2119
96.8673 1633 40.4104
96.9844 1767 42.0357
97.1016 1796 42.3792
97.2188 2024 44.9889
97.336 2095 45.7712
97.4532 2129 46.1411
97.5704 2108 45.913
97.6877 2004 44.7661
97.805 2074 45.5412
97.9223 1874 43.2897
98.0396 1768 42.0476
98.1569 1664 40.7922
98.2743 1596 39.95
98.3916 1632 40.398
98.509 1760 41.9524
98.6264 1860 43.1277
98.7438 1992 44.6318
98.8612 2088 45.6946
98.9786 2171 46.594
99.096 2304 48
99.2134 2221 47.1275
99.3308 2207 46.9787
99.4482 2246 47.392
99.5656 2202 46.9255
99.6831 2274 47.6865
99.8005 2171 46.594
99.9179 2068 45.4753
100.035 1950 44.1588
100.153 1897 43.5546
100.27 1814 42.5911
100.388 1858 43.1045
100.505 1830 42.7785
100.622 1963 44.3058
100.74 2032 45.0777
100.857 2216 47.0744
100.975 2217 47.085
101.092 2273 47.676
101.209 2212 47.0319
101.327 2236 47.2864
101.444 2024 44.9889
101.561 1891 43.4856
101.679 1724 41.5211
101.796 1647 40.5832
101.913 1743 41.7493
102.03 1780 42.19
102.148 1948 44.1362
102.265 2199 46.8935
102.382 1972 44.4072
102.499 2261 47.55
102.616 2319 48.156
102.733 2369 48.6724
102.851 2364 48.621
102.968 2400 48.9898
103.085 2327 48.239
103.202 2477 49.7695
103.319 2275 47.697
103.436 2236 47.2864
103.552 2102 45.8476
103.669 2049 45.2659
103.786 2009 44.8219
103.903 1905 43.6463
104.02 1882 43.382
104.137 2050 45.2769
104.253 2321 48.1768
104.37 2291 47.8644
104.487 2393 48.9183
104.603 2492 49.9199
104.72 2349 48.4665
104.836 2311 48.0729
104.953 2201 46.9148
105.069 1994 44.6542
105.186 1896 43.5431
105.302 1866 43.1972
105.418 1780 42.19
105.535 1963 44.3058
105.651 2167 46.551
105.767 2183 46.7226
105.883 2308 48.0416
105.999 2479 49.7896
106.115 0 1
106.231 0 1
106.347 0 1
106.463 0 1
106.579 0 1
106.694 0 1
106.81 0 1
106.926 0 1
107.041 0 1
107.157 0 1
109.576 0 1
109.692 0 1
109.807 0 1
109.923 0 1
110.039 0 1
110.155 0 1
110.27 0 1
110.386 0 1
110.502 0 1
110.618 1851 43.0232
110.735 2084 45.6508
110.851 2267 47.613
110.967 2315 48.1144
111.083 2388 48.8672
111.199 2403 49.0204
111.316 2460 49.5984
111.432 2440 49.3964
111.549 2470 49.6991
111.665 2467 49.6689
111.782 2445 49.4469
111.898 2182 46.7119
112.015 2280 47.7493
112.132 2159 46.465
112.248 2042 45.1885
112.365 2034 45.0999
112.482 1922 43.8406
112.599 2046 45.2327
112.716 2181 46.7012
112.832 2332 48.2908
112.949 2355 48.5283
113.066 2386 48.8467
113.183 2379 48.775
113.3 2294 47.8957
113.417 2213 47.0425
113.534 2157 46.4435
113.652 1928 43.909
113.769 1791 42.3202
113.886 1810 42.5441
114.003 1742 41.7373
114.12 1947 44.1248
114.238 2118 46.0217
114.355 2259 47.5289
114.472 2456 49.558
114.589 2205 46.9574
114.707 2346 48.4355
114.824 2424 49.2341
114.942 2415 49.1426
115.059 2350 48.4768
115.176 2457 49.5681
115.294 2338 48.3529
115.411 2317 48.1352
115.529 2246 47.392
115.646 2261 47.55
115.764 2042 45.1885
115.881 1892 43.4971
115.999 1898 43.566
116.116 1894 43.5201
116.234 2028 45.0333
116.351 2120 46.0435
116.469 2301 47.9687
116.586 2194 46.8402
116.704 2258 47.5184
116.821 2260 47.5395
116.939 2157 46.4435
117.056 2097 45.793
117.174 1937 44.0114
117.291 1807 42.5088
117.409 1732 41.6173
117.526 1735 41.6533
117.644 1859 43.1161
117.761 1981 44.5084
117.879 2040 45.1664
117.996 2160 46.4758
118.114 2256 47.4974
118.231 2283 47.7807
118.349 2289 47.8435
118.466 2217 47.085
118.584 2344 48.4149
118.701 2324 48.2079
118.819 2247 47.4025
118.936 2192 46.8188
119.053 2106 45.8912
119.171 2093 45.7493
119.288 1992 44.6318
119.405 1896 43.5431
119.523 1728 41.5692
119.64 1808 42.5206
119.757 1889 43.4626
119.875 1928 43.909
119.992 2017 44.911
120.109 2182 46.7119
120.226 2120 46.0435
120.343 2055 45.3321
120.46 2120 46.0435
120.578 1994 44.6542
120.695 1932 43.9545
120.812 1839 42.8836
120.929 1760 41.9524
121.046 1650 40.6202
121.163 1636 40.4475
121.279 1636 40.4475
121.396 1863 43.1625
121.513 1929 43.9204
121.63 2056 45.3431
121.747 2046 45.2327
121.863 2056 45.3431
121.98 2017 44.911
122.097 2223 47.1487
122.213 2097 45.793
122.33 2131 46.1628
122.446 2076 45.5631
122.563 2062 45.4093
122.679 2073 45.5302
122.795 2012 44.8553
122.912 1871 43.2551
123.028 1879 43.3474
123.144 1709 41.3401
123.26 1659 40.7308
123.377 0 1
123.493 0 1
123.609 0 1
123.725 0 1
123.84 0 1
123.956 0 1
124.072 0 1
124.188 0 1
124.303 0 1
124.419 0 1
126.852 0 1
126.968 0 1
127.083 0 1
127.199 0 1
127.315 0 1
127.431 0 1
127.547 0 1
127.663 0 1
127.779 0 1
127.895 0 1
128.011 0 1
128.127 0 1
128.243 0 1
128.359 1934 43.9773
128.476 1870 43.2435
128.592 1725 41.5331
128.708 1912 43.7264
128.825 1987 44.5758
128.941 2050 45.2769
129.058 2126 46.1086
129.174 2087 45.6837
129.291 2147 46.3357
129.408 2137 46.2277
129.524 2073 45.5302
129.641 1869 43.2319
129.758 1882 43.382
129.875 1708 41.328
129.992 1728 41.5692
130.108 1730 41.5933
130.225 1759 41.9404
130.342 1903 43.6234
130.459 1939 44.0341
130.576 2081 45.618
130.693 2065 45.4423
130.81 2035 45.111
130.928 2213 47.0425
131.045 2144 46.3033
131.162 2262 47.5605
131.279 2238 47.3075
131.396 2219 47.1063
131.513 2224 47.1593
131.631 2160 46.4758
131.748 2038 45.1442
131.865 1944 44.0908
131.983 1896 43.5431
132.1 1826 42.7317
132.217 1820 42.6615
132.335 1973 44.4185
132.452 2110 45.9347
132.57 2248 47.4131
132.687 2067 45.4643
132.804 2255 47.4868
132.922 2200 46.9042
133.039 2148 46.3465
133.157 2104 45.8694
133.274 1912 43.7264
133.392 1777 42.1545
133.509 1719 41.4608
133.627 1724 41.5211
133.744 1711 41.3642
133.862 1817 42.6263
133.979 2018 44.9222
134.097 2017 44.911
134.214 2175 46.6369
134.332 2121 46.0543
134.449 2130 46.1519
134.567 2175 46.6369
134.684 2243 47.3603
134.802 2221 47.1275
134.919 2272 47.6655
135.037 2233 47.2546
135.154 2174 46.6262
135.272 2113 45.9674
135.389 2053 45.31
135.507 2012 44.8553
135.624 1945 44.1022
135.742 1877 43.3244
135.859 2019 44.9333
135.977 2127 46.1194
136.094 2076 45.5631
136.211 2136 46.2169
136.329 2228 47.2017
136.446 2223 47.1487
136.564 2149 46.3573
136.681 1992 44.6318
136.798 1928 43.909
136.915 1819 42.6497
137.033 1792 42.332
137.15 1691 41.1218
137.267 1650 40.6202
137.384 1769 42.0595
137.502 1904 43.6348
137.619 1884 43.4051
137.736 1995 44.6654
137.853 2084 45.6508
137.97 2207 46.9787
138.087 2157 46.4435
138.204 2174 46.6262
138.321 2197 46.8722
138.438 2195 46.8508
138.555 2180 46.6905
138.672 2118 46.0217
138.788 2145 46.3141
138.905 2150 46.3681
139.022 2066 45.4533
139.139 2076 45.5631
139.255 1938 44.0227
139.372 1952 44.1814
139.488 1990 44.6094
139.605 2186 46.7547
139.721 2242 47.3498
139.838 2183 46.7226
139.954 2192 46.8188
140.071 2188 46.7761
140.187 2148 46.3465
140.303 2148 46.3465
140.419 1928 43.909
140.535 1881 43.3705
140.652 1735 41.6533
140.768 0 1
140.884 0 1
141 0 1
141.115 0 1
141.231 0 1
141.347 0 1
141.463 0 1
141.578 0 1
141.694 0 1
144.104 0 1
144.219 0 1
144.335 0 1
144.45 0 1
144.566 0 1
144.682 0 1
144.798 0 1
144.914 0 1
145.03 0 1
145.146 1815 42.6028
145.262 1933 43.9659
145.378 1792 42.332
145.494 1673 40.9023
145.61 1579 39.7366
145.726 1568 39.598
145.842 1578 39.724
145.959 1543 39.281
146.075 1665 40.8044
146.192 1683 41.0244
146.308 1837 42.8602
146.425 1841 42.9069
146.541 1914 43.7493
146.658 1857 43.0929
146.774 1855 43.0697
146.891 1904 43.6348
147.008 2001 44.7325
147.125 1929 43.9204
147.241 1943 44.0795
147.358 1963 44.3058
147.475 1873 43.2782
147.592 1870 43.2435
147.709 1740 41.7133
147.826 1647 40.5832
147.943 1692 41.1339
148.06 1725 41.5331
148.177 1806 42.4971
148.294 1883 43.3935
148.411 1964 44.317
148.528 1861 43.1393
148.645 1871 43.2551
148.762 1846 42.9651
148.88 1833 42.8135
148.997 1690 41.1096
149.114 1725 41.5331
149.231 1659 40.7308
149.349 1594 39.9249
149.466 1465 38.2753
149.583 1483 38.5097
149.701 1482 38.4968
149.818 1539 39.2301
149.935 1695 41.1704
150.053 1718 41.4488
150.17 1793 42.3438
150.287 1775 42.1307
150.405 1771 42.0833
150.522 1880 43.359
150.64 1863 43.1625
150.757 1868 43.2204
150.875 1903 43.6234
150.992 1731 41.6053
151.11 1806 42.4971
151.227 1799 42.4146
151.344 1811 42.5558
151.462 1683 41.0244
151.579 1674 40.9145
151.697 1661 40.7554
151.814 1832 42.8019
151.932 1836 42.8486
152.049 1850 43.0116
152.167 1802 42.45
152.284 1819 42.6497
152.402 1863 43.1625
152.519 1772 42.0951
152.636 1700 41.2311
152.754 1700 41.2311
152.871 1569 39.6106
152.989 1597 39.9625
153.106 1487 38.5616
153.223 1484 38.5227
153.341 1496 38.6782
153.458 1601 40.0125
153.575 1709 41.3401
153.693 1740 41.7133
153.81 1664 40.7922
153.927 1769 42.0595
154.044 1822 42.6849
154.162 1872 43.2666
154.279 1840 42.8952
154.396 1895 43.5316
154.513 1957 44.238
154.63 1971 44.3959
154.747 1979 44.486
154.864 1867 43.2088
154.981 1838 42.8719
155.098 1728 41.5692
155.215 1701 41.2432
155.332 1791 42.3202
155.449 1836 42.8486
155.566 1976 44.4522
155.683 1933 43.9659
155.8 1930 43.9318
155.917 1987 44.5758
156.033 1853 43.0465
156.15 0 1
156.267 0 1
156.383 0 1
156.5 0 1
156.617 0 1
156.733 0 1
156.85 0 1
156.966 0 1
157.082 0 1
157.199 0 1
157.315 0 1
157.431 0 1
157.547 0 1
157.664 0 1
157.78 0 1
157.896 0 1
158.012 0 1
158.128 0 1
158.244 0 1
158.359 0 1
158.475 0 1
158.591 0 1
158.706 0 1
