
6.15755 0 1
6.2731 0 1
6.3887 0 1
6.50437 0 1
6.62009 0 1
6.73587 0 1
6.8517 0 1
6.96759 0 1
7.08353 0 1
7.19952 0 1
7.31557 0 1
7.43166 0 1
7.54781 0 1
7.664 0 1
7.78024 0 1
7.89653 0 1
8.01286 0 1
8.12924 0 1
8.24567 0 1
8.36213 0 1
8.47864 0 1
8.59519 0 1
8.71178 0 1
8.82841 0 1
8.94508 0 1
9.06179 0 1
9.17853 0 1
9.29531 0 1
9.41212 0 1
9.52897 0 1
9.64584 0 1
9.76276 0 1
9.8797 0 1
9.99667 0 1
10.1137 0 1
10.2307 0 1
10.3478 0 1
10.4648 0 1
10.5819 0 1
10.6991 0 1
10.8162 0 1
10.9334 0 1
11.0506 0 1
11.1678 0 1
11.285 0 1
11.4023 0 1
11.5196 0 1
11.6369 0 1
11.7542 0 1
11.8715 0 1
11.9888 0 1
12.1062 0 1
12.2235 0 1
12.3409 0 1
12.4582 0 1
12.5756 0 1
12.693 0 1
12.8104 0 1
12.9278 0 1
13.0452 0 1
13.1626 0 1
13.28 0 1
13.3974 0 1
13.5149 0 1
13.6323 0 1
13.7497 0 1
13.8671 0 1
13.9845 0 1
14.1019 0 1
14.2193 0 1
14.3367 0 1
14.4541 0 1
14.5714 0 1
14.6888 0 1
14.8062 0 1
14.9235 0 1
15.0408 311 17.6352
15.1581 330 18.1659
15.2755 323 17.9722
15.3927 327 18.0831
15.51 337 18.3576
15.6273 326 18.0555
15.7445 359 18.9473
15.8617 375 19.3649
15.9789 330 18.1659
16.0961 300 17.3205
16.2132 327 18.0831
16.3304 326 18.0555
16.4475 321 17.9165
16.5646 330 18.1659
16.6816 359 18.9473
16.7986 359 18.9473
16.9156 355 18.8414
17.0326 350 18.7083
17.1496 339 18.412
17.2665 329 18.1384
17.3833 353 18.7883
17.5002 352 18.7617
17.617 351 18.735
17.7338 354 18.8149
17.8505 353 18.7883
17.9672 330 18.1659
18.0839 314 17.72
18.2005 321 17.9165
18.3171 307 17.5214
18.4337 344 18.5472
18.5502 333 18.2483
18.6666 324 18
18.7831 353 18.7883
18.8994 379 19.4679
19.0158 318 17.8326
19.1321 301 17.3494
19.2483 305 17.4642
19.3645 279 16.7033
19.4806 286 16.9115
19.5967 290 17.0294
19.7128 278 16.6733
19.8288 297 17.2337
19.9447 255 15.9687
20.0606 0 1
20.1764 0 1
20.2922 0 1
20.4079 0 1
20.5236 0 1
20.6392 0 1
20.7548 0 1
20.8702 0 1
23.3078 0 1
23.4233 0 1
23.539 0 1
23.6547 0 1
23.7704 0 1
23.8862 0 1
24.0021 0 1
24.118 0 1
24.234 0 1
24.35 0 1
24.4661 113 10.6301
24.5822 145 12.0416
24.6984 171 13.0767
24.8146 187 13.6748
24.9309 210 14.4914
25.0472 273 16.5227
25.1636 306 17.4929
25.28 300 17.3205
25.3965 371 19.2614
25.513 354 18.8149
25.6296 391 19.7737
25.7462 392 19.799
25.8628 390 19.7484
25.9795 408 20.199
26.0962 372 19.2873
26.213 370 19.2354
26.3298 366 19.1311
26.4466 331 18.1934
26.5635 395 19.8746
26.6804 343 18.5203
26.7973 330 18.1659
26.9143 304 17.4356
27.0313 320 17.8885
27.1483 349 18.6815
27.2653 343 18.5203
27.3824 331 18.1934
27.4996 348 18.6548
27.6167 363 19.0526
27.7339 352 18.7617
27.8511 342 18.4932
27.9683 346 18.6011
28.0855 339 18.412
28.2028 283 16.8226
28.3201 321 17.9165
28.4374 351 18.735
28.5547 375 19.3649
28.6721 365 19.105
28.7894 385 19.6214
28.9068 363 19.0526
29.0242 385 19.6214
29.1416 367 19.1572
29.259 361 19
29.3764 372 19.2873
29.4939 409 20.2237
29.6113 381 19.5192
29.7288 369 19.2094
29.8463 332 18.2209
29.9638 363 19.0526
30.0812 323 17.9722
30.1987 343 18.5203
30.3162 312 17.6635
30.4337 328 18.1108
30.5512 312 17.6635
30.6687 335 18.303
30.7862 305 17.4642
30.9037 342 18.4932
31.0212 346 18.6011
31.1387 331 18.1934
31.2562 330 18.1659
31.3737 348 18.6548
31.4912 312 17.6635
31.6087 309 17.5784
31.7262 341 18.4662
31.8436 322 17.9444
31.9611 374 19.3391
32.0785 323 17.9722
32.1959 335 18.303
32.3134 372 19.2873
32.4308 335 18.303
32.5482 375 19.3649
32.6655 353 18.7883
32.7829 352 18.7617
32.9002 368 19.1833
33.0176 376 19.3907
33.1349 368 19.1833
33.2522 328 18.1108
33.3694 378 19.4422
33.4867 348 18.6548
33.6039 327 18.0831
33.7211 363 19.0526
33.8383 351 18.735
33.9554 339 18.412
34.0725 308 17.5499
34.1896 306 17.4929
34.3067 299 17.2916
34.4237 294 17.1464
34.5407 313 17.6918
34.6577 301 17.3494
34.7746 336 18.3303
34.8915 341 18.4662
35.0084 316 17.7764
35.1252 309 17.5784
35.242 323 17.9722
35.3587 303 17.4069
35.4755 333 18.2483
35.5921 310 17.6068
35.7088 353 18.7883
35.8254 350 18.7083
35.9419 345 18.5742
36.0584 357 18.8944
36.1749 352 18.7617
36.2913 336 18.3303
36.4077 315 17.7482
36.524 345 18.5742
36.6403 309 17.5784
36.7565 281 16.7631
36.8727 271 16.4621
36.9889 249 15.7797
37.1049 230 15.1658
37.221 0 1
37.3369 0 1
37.4529 0 1
37.5687 0 1
37.6845 0 1
37.8003 0 1
37.916 0 1
38.0316 0 1
38.1472 0 1
40.5851 0 1
40.7008 0 1
40.8164 0 1
40.9322 0 1
41.048 0 1
41.1639 0 1
41.2798 0 1
41.3958 0 1
41.5118 0 1
41.6279 0 1
41.744 130 11.4018
41.8602 170 13.0384
41.9765 186 13.6382
42.0928 223 14.9332
42.2091 240 15.4919
42.3255 276 16.6132
42.4419 280 16.7332
42.5584 293 17.1172
42.675 263 16.2173
42.7915 267 16.3401
42.9081 285 16.8819
43.0248 274 16.5529
43.1415 241 15.5242
43.2582 284 16.8523
43.375 260 16.1245
43.4918 258 16.0624
43.6087 263 16.2173
43.7256 258 16.0624
43.8425 279 16.7033
43.9595 262 16.1864
44.0765 248 15.748
44.1935 254 15.9374
44.3106 248 15.748
44.4277 277 16.6433
44.5448 287 16.9411
44.6619 266 16.3095
44.7791 307 17.5214
44.8963 302 17.3781
45.0136 304 17.4356
45.1308 264 16.2481
45.2481 281 16.7631
45.3654 307 17.5214
45.4827 289 17
45.6001 298 17.2627
45.7174 283 16.8226
45.8348 276 16.6132
45.9522 272 16.4924
46.0697 306 17.4929
46.1871 247 15.7162
46.3046 289 17
46.422 277 16.6433
46.5395 252 15.8745
46.657 265 16.2788
46.7745 288 16.9706
46.892 284 16.8523
47.0096 280 16.7332
47.1271 249 15.7797
47.2446 325 18.0278
47.3622 254 15.9374
47.4797 266 16.3095
47.5973 284 16.8523
47.7149 265 16.2788
47.8324 253 15.906
47.95 260 16.1245
48.0675 286 16.9115
48.1851 282 16.7929
48.3027 302 17.3781
48.4202 285 16.8819
48.5378 300 17.3205
48.6554 302 17.3781
48.7729 296 17.2047
48.8904 280 16.7332
49.008 300 17.3205
49.1255 295 17.1756
49.243 314 17.72
49.3605 274 16.5529
49.478 289 17
49.5955 270 16.4317
49.713 269 16.4012
49.8304 287 16.9411
49.9479 285 16.8819
50.0653 293 17.1172
50.1827 280 16.7332
50.3001 261 16.1555
50.4175 259 16.0935
50.5348 280 16.7332
50.6521 273 16.5227
50.7694 306 17.4929
50.8867 260 16.1245
51.004 305 17.4642
51.1212 289 17
51.2384 265 16.2788
51.3556 277 16.6433
51.4727 323 17.9722
51.5899 274 16.5529
51.707 293 17.1172
51.824 293 17.1172
51.9411 315 17.7482
52.0581 296 17.2047
52.175 320 17.8885
52.2919 316 17.7764
52.4088 306 17.4929
52.5257 303 17.4069
52.6425 305 17.4642
52.7593 323 17.9722
52.876 284 16.8523
52.9927 313 17.6918
53.1094 306 17.4929
53.226 308 17.5499
53.3426 276 16.6132
53.4591 316 17.7764
53.5756 287 16.9411
53.692 273 16.5227
53.8084 248 15.748
53.9248 220 14.8324
54.0411 222 14.8997
54.1573 164 12.8062
54.2735 0 1
54.3896 0 1
54.5057 0 1
54.6217 0 1
54.7377 0 1
54.8537 0 1
54.9695 0 1
55.0853 0 1
55.2011 0 1
55.3168 0 1
55.4324 0 1
57.824 0 1
57.9396 0 1
58.0553 0 1
58.1711 0 1
58.2869 0 1
58.4028 0 1
58.5187 0 1
58.6347 0 1
58.7508 0 1
58.8669 0 1
58.983 173 13.1529
59.0992 181 13.4536
59.2155 255 15.9687
59.3318 274 16.5529
59.4482 285 16.8819
59.5646 311 17.6352
59.681 328 18.1108
59.7975 327 18.0831
59.9141 341 18.4662
60.0306 386 19.6469
60.1473 365 19.105
60.2639 385 19.6214
60.3807 412 20.2978
60.4974 354 18.8149
60.6142 369 19.2094
60.731 386 19.6469
60.8479 356 18.868
60.9648 385 19.6214
61.0818 361 19
61.1987 372 19.2873
61.3158 384 19.5959
61.4328 392 19.799
61.5499 372 19.2873
61.667 378 19.4422
61.7841 399 19.975
61.9013 379 19.4679
62.0185 424 20.5913
62.1357 409 20.2237
62.253 359 18.9473
62.3702 370 19.2354
62.4875 379 19.4679
62.6049 342 18.4932
62.7222 357 18.8944
62.8396 346 18.6011
62.9569 343 18.5203
63.0743 371 19.2614
63.1918 392 19.799
63.3092 367 19.1572
63.4267 348 18.6548
63.5441 345 18.5742
63.6616 386 19.6469
63.7791 373 19.3132
63.8966 389 19.7231
64.0142 341 18.4662
64.1317 381 19.5192
64.2492 377 19.4165
64.3668 399 19.975
64.4843 407 20.1742
64.6019 389 19.7231
64.7195 332 18.2209
64.837 388 19.6977
64.9546 357 18.8944
65.0722 347 18.6279
65.1898 360 18.9737
65.3074 366 19.1311
65.4249 380 19.4936
65.5425 366 19.1311
65.6601 375 19.3649
65.7777 362 19.0263
65.8952 370 19.2354
66.0128 367 19.1572
66.1304 354 18.8149
66.2479 346 18.6011
66.3655 369 19.2094
66.483 341 18.4662
66.6005 360 18.9737
66.718 355 18.8414
66.8355 339 18.412
66.953 379 19.4679
67.0705 358 18.9209
67.1879 342 18.4932
67.3054 396 19.8997
67.4228 366 19.1311
67.5402 363 19.0526
67.6576 359 18.9473
67.7749 359 18.9473
67.8923 354 18.8149
68.0096 373 19.3132
68.1269 373 19.3132
68.2442 367 19.1572
68.3614 389 19.7231
68.4787 360 18.9737
68.5958 343 18.5203
68.713 374 19.3391
68.8302 338 18.3848
68.9473 376 19.3907
69.0643 345 18.5742
69.1814 352 18.7617
69.2984 368 19.1833
69.4154 374 19.3391
69.5323 362 19.0263
69.6492 331 18.1934
69.7661 361 19
69.8829 363 19.0526
69.9997 333 18.2483
70.1165 355 18.8414
70.2332 336 18.3303
70.3499 316 17.7764
70.4665 290 17.0294
70.5831 285 16.8819
70.6996 261 16.1555
70.8161 236 15.3623
70.9326 186 13.6382
71.049 190 13.784
71.1653 190 13.784
71.2817 173 13.1529
71.3979 162 12.7279
71.5141 148 12.1655
71.6303 126 11.225
71.7464 128 11.3137
71.8624 0 1
71.9784 0 1
72.0944 0 1
72.2102 0 1
72.3261 0 1
72.4418 0 1
72.5575 0 1
72.6732 0 1
75.1054 0 1
75.2209 0 1
75.3365 0 1
75.4521 0 1
75.5678 0 1
75.6835 0 1
75.7993 0 1
75.9151 0 1
76.031 0 1
76.147 197 14.0357
76.263 251 15.843
76.3791 265 16.2788
76.4952 297 17.2337
76.6113 300 17.3205
76.7276 339 18.412
76.8438 313 17.6918
76.9601 324 18
77.0765 324 18
77.1929 303 17.4069
77.3093 296 17.2047
77.4258 344 18.5472
77.5423 364 19.0788
77.6589 316 17.7764
77.7755 306 17.4929
77.8921 312 17.6635
78.0088 322 17.9444
78.1256 315 17.7482
78.2423 299 17.2916
78.3591 364 19.0788
78.4759 349 18.6815
78.5928 337 18.3576
78.7097 345 18.5742
78.8266 335 18.303
78.9436 281 16.7631
79.0606 323 17.9722
79.1776 326 18.0555
79.2946 310 17.6068
79.4117 330 18.1659
79.5288 334 18.2757
79.6459 338 18.3848
79.7631 334 18.2757
79.8802 350 18.7083
79.9974 341 18.4662
80.1147 339 18.412
80.2319 334 18.2757
80.3491 324 18
80.4664 329 18.1384
80.5837 410 20.2485
80.701 360 18.9737
80.8183 399 19.975
80.9357 384 19.5959
81.053 366 19.1311
81.1704 389 19.7231
81.2877 373 19.3132
81.4051 329 18.1384
81.5225 325 18.0278
81.6399 353 18.7883
81.7573 312 17.6635
81.8747 357 18.8944
81.9922 307 17.5214
82.1096 340 18.4391
82.227 356 18.868
82.3444 345 18.5742
82.4619 330 18.1659
82.5793 321 17.9165
82.6967 297 17.2337
82.8142 324 18
82.9316 310 17.6068
83.049 288 16.9706
83.1664 303 17.4069
83.2838 308 17.5499
83.4012 338 18.3848
83.5186 295 17.1756
83.636 298 17.2627
83.7534 298 17.2627
83.8708 315 17.7482
83.9881 283 16.8226
84.1055 281 16.7631
84.2228 306 17.4929
84.3401 265 16.2788
84.4575 284 16.8523
84.5747 298 17.2627
84.692 262 16.1864
84.8093 279 16.7033
84.9265 299 17.2916
85.0437 290 17.0294
85.1609 272 16.4924
85.2781 225 15
85.3952 241 15.5242
85.5123 260 16.1245
85.6294 253 15.906
85.7465 267 16.3401
85.8636 272 16.4924
85.9806 247 15.7162
86.0976 261 16.1555
86.2145 255 15.9687
86.3315 240 15.4919
86.4484 223 14.9332
86.5652 214 14.6287
86.682 224 14.9666
86.7988 218 14.7648
86.9156 221 14.8661
87.0323 219 14.7986
87.149 194 13.9284
87.2657 247 15.7162
87.3823 217 14.7309
87.4988 182 13.4907
87.6154 193 13.8924
87.7318 204 14.2829
87.8483 201 14.1774
87.9647 174 13.1909
88.081 153 12.3693
88.1973 146 12.083
88.3136 114 10.6771
88.4298 107 10.3441
88.546 91 9.53939
88.6621 81 9
88.7781 80 8.94427
88.8942 0 1
89.0101 0 1
89.126 0 1
89.2419 0 1
89.3577 0 1
89.4734 0 1
89.5891 0 1
89.7047 0 1
89.8203 0 1
89.9358 0 1
92.3269 0 1
92.4424 0 1
92.558 0 1
92.6736 0 1
92.7893 0 1
92.905 0 1
93.0208 0 1
93.1366 0 1
93.2525 0 1
93.3685 0 1
93.4845 0 1
93.6005 127 11.2694
93.7167 155 12.4499
93.8328 179 13.3791
93.949 196 14
94.0653 222 14.8997
94.1816 227 15.0665
94.2979 226 15.0333
94.4143 234 15.2971
94.5307 227 15.0665
94.6472 214 14.6287
94.7637 223 14.9332
94.8803 209 14.4568
94.9969 227 15.0665
95.1135 255 15.9687
95.2302 267 16.3401
95.3469 221 14.8661
95.4637 275 16.5831
95.5805 261 16.1555
95.6973 255 15.9687
95.8142 280 16.7332
95.9311 237 15.3948
96.048 222 14.8997
96.1649 245 15.6525
96.2819 242 15.5563
96.3989 263 16.2173
96.516 286 16.9115
96.633 275 16.5831
96.7501 258 16.0624
96.8673 292 17.088
96.9844 286 16.9115
97.1016 244 15.6205
97.2188 261 16.1555
97.336 262 16.1864
97.4532 281 16.7631
97.5704 288 16.9706
97.6877 302 17.3781
97.805 283 16.8226
97.9223 270 16.4317
98.0396 304 17.4356
98.1569 290 17.0294
98.2743 302 17.3781
98.3916 265 16.2788
98.509 276 16.6132
98.6264 298 17.2627
98.7438 307 17.5214
98.8612 266 16.3095
98.9786 308 17.5499
99.096 273 16.5227
99.2134 320 17.8885
99.3308 323 17.9722
99.4482 335 18.303
99.5656 291 17.0587
99.6831 314 17.72
99.8005 366 19.1311
99.9179 302 17.3781
100.035 321 17.9165
100.153 335 18.303
100.27 316 17.7764
100.388 338 18.3848
100.505 318 17.8326
100.622 304 17.4356
100.74 285 16.8819
100.857 306 17.4929
100.975 299 17.2916
101.092 347 18.6279
101.209 354 18.8149
101.327 330 18.1659
101.444 351 18.735
101.561 319 17.8606
101.679 315 17.7482
101.796 312 17.6635
101.913 303 17.4069
102.03 308 17.5499
102.148 331 18.1934
102.265 337 18.3576
102.382 318 17.8326
102.499 334 18.2757
102.616 355 18.8414
102.733 316 17.7764
102.851 374 19.3391
102.968 337 18.3576
103.085 394 19.8494
103.202 324 18
103.319 346 18.6011
103.436 331 18.1934
103.552 381 19.5192
103.669 374 19.3391
103.786 347 18.6279
103.903 393 19.8242
104.02 338 18.3848
104.137 367 19.1572
104.253 355 18.8414
104.37 349 18.6815
104.487 347 18.6279
104.603 330 18.1659
104.72 346 18.6011
104.836 357 18.8944
104.953 333 18.2483
105.069 404 20.0998
105.186 330 18.1659
105.302 348 18.6548
105.418 310 17.6068
105.535 289 17
105.651 215 14.6629
105.767 183 13.5277
105.883 164 12.8062
105.999 144 12
106.115 0 1
106.231 0 1
106.347 0 1
106.463 0 1
106.579 0 1
106.694 0 1
106.81 0 1
106.926 0 1
107.041 0 1
107.157 0 1
109.576 0 1
109.692 0 1
109.807 0 1
109.923 0 1
110.039 0 1
110.155 0 1
110.27 0 1
110.386 0 1
110.502 0 1
110.618 167 12.9228
110.735 210 14.4914
110.851 245 15.6525
110.967 250 15.8114
111.083 290 17.0294
111.199 290 17.0294
111.316 286 16.9115
111.432 302 17.3781
111.549 316 17.7764
111.665 284 16.8523
111.782 312 17.6635
111.898 289 17
112.015 305 17.4642
112.132 328 18.1108
112.248 335 18.303
112.365 319 17.8606
112.482 291 17.0587
112.599 317 17.8045
112.716 277 16.6433
112.832 302 17.3781
112.949 314 17.72
113.066 308 17.5499
113.183 329 18.1384
113.3 322 17.9444
113.417 332 18.2209
113.534 322 17.9444
113.652 303 17.4069
113.769 307 17.5214
113.886 288 16.9706
114.003 326 18.0555
114.12 331 18.1934
114.238 304 17.4356
114.355 313 17.6918
114.472 313 17.6918
114.589 365 19.105
114.707 318 17.8326
114.824 288 16.9706
114.942 296 17.2047
115.059 325 18.0278
115.176 333 18.2483
115.294 300 17.3205
115.411 268 16.3707
115.529 324 18
115.646 314 17.72
115.764 291 17.0587
115.881 368 19.1833
115.999 341 18.4662
116.116 331 18.1934
116.234 296 17.2047
116.351 345 18.5742
116.469 316 17.7764
116.586 266 16.3095
116.704 332 18.2209
116.821 320 17.8885
116.939 332 18.2209
117.056 326 18.0555
117.174 309 17.5784
117.291 332 18.2209
117.409 290 17.0294
117.526 322 17.9444
117.644 328 18.1108
117.761 293 17.1172
117.879 269 16.4012
117.996 333 18.2483
118.114 322 17.9444
118.231 311 17.6352
118.349 313 17.6918
118.466 307 17.5214
118.584 336 18.3303
118.701 292 17.088
118.819 328 18.1108
118.936 321 17.9165
119.053 285 16.8819
119.171 337 18.3576
119.288 310 17.6068
119.405 290 17.0294
119.523 316 17.7764
119.64 302 17.3781
119.757 333 18.2483
119.875 315 17.7482
119.992 302 17.3781
120.109 330 18.1659
120.226 301 17.3494
120.343 328 18.1108
120.46 270 16.4317
120.578 294 17.1464
120.695 281 16.7631
120.812 284 16.8523
120.929 279 16.7033
121.046 319 17.8606
121.163 307 17.5214
121.279 299 17.2916
121.396 298 17.2627
121.513 316 17.7764
121.63 271 16.4621
121.747 297 17.2337
121.863 278 16.6733
121.98 256 16
122.097 273 16.5227
122.213 262 16.1864
122.33 250 15.8114
122.446 219 14.7986
122.563 208 14.4222
122.679 164 12.8062
122.795 168 12.9615
122.912 121 11
123.028 139 11.7898
123.144 138 11.7473
123.26 134 11.5758
123.377 0 1
123.493 0 1
123.609 0 1
123.725 0 1
123.84 0 1
123.956 0 1
124.072 0 1
124.188 0 1
124.303 0 1
124.419 0 1
126.852 0 1
126.968 0 1
127.083 0 1
127.199 0 1
127.315 0 1
127.431 0 1
127.547 0 1
127.663 0 1
127.779 0 1
127.895 0 1
128.011 0 1
128.127 0 1
128.243 0 1
128.359 319 17.8606
128.476 308 17.5499
128.592 319 17.8606
128.708 331 18.1934
128.825 330 18.1659
128.941 320 17.8885
129.058 360 18.9737
129.174 349 18.6815
129.291 324 18
129.408 321 17.9165
129.524 326 18.0555
129.641 318 17.8326
129.758 351 18.735
129.875 316 17.7764
129.992 317 17.8045
130.108 316 17.7764
130.225 356 18.868
130.342 336 18.3303
130.459 346 18.6011
130.576 329 18.1384
130.693 322 17.9444
130.81 322 17.9444
130.928 294 17.1464
131.045 302 17.3781
131.162 308 17.5499
131.279 307 17.5214
131.396 349 18.6815
131.513 340 18.4391
131.631 315 17.7482
131.748 305 17.4642
131.865 283 16.8226
131.983 327 18.0831
132.1 335 18.303
132.217 350 18.7083
132.335 325 18.0278
132.452 350 18.7083
132.57 331 18.1934
132.687 310 17.6068
132.804 336 18.3303
132.922 332 18.2209
133.039 336 18.3303
133.157 332 18.2209
133.274 322 17.9444
133.392 317 17.8045
133.509 327 18.0831
133.627 370 19.2354
133.744 356 18.868
133.862 362 19.0263
133.979 353 18.7883
134.097 293 17.1172
134.214 297 17.2337
134.332 318 17.8326
134.449 294 17.1464
134.567 313 17.6918
134.684 343 18.5203
134.802 308 17.5499
134.919 331 18.1934
135.037 327 18.0831
135.154 317 17.8045
135.272 337 18.3576
135.389 302 17.3781
135.507 308 17.5499
135.624 308 17.5499
135.742 305 17.4642
135.859 338 18.3848
135.977 335 18.303
136.094 332 18.2209
136.211 366 19.1311
136.329 333 18.2483
136.446 333 18.2483
136.564 345 18.5742
136.681 359 18.9473
136.798 343 18.5203
136.915 344 18.5472
137.033 356 18.868
137.15 360 18.9737
137.267 336 18.3303
137.384 349 18.6815
137.502 327 18.0831
137.619 315 17.7482
137.736 312 17.6635
137.853 315 17.7482
137.97 310 17.6068
138.087 310 17.6068
138.204 310 17.6068
138.321 312 17.6635
138.438 329 18.1384
138.555 330 18.1659
138.672 335 18.303
138.788 315 17.7482
138.905 324 18
139.022 286 16.9115
139.139 299 17.2916
139.255 295 17.1756
139.372 281 16.7631
139.488 263 16.2173
139.605 241 15.5242
139.721 239 15.4596
139.838 199 14.1067
139.954 189 13.7477
140.071 217 14.7309
140.187 155 12.4499
140.303 185 13.6015
140.419 160 12.6491
140.535 165 12.8452
140.652 162 12.7279
140.768 0 1
140.884 0 1
141 0 1
141.115 0 1
141.231 0 1
141.347 0 1
141.463 0 1
141.578 0 1
141.694 0 1
144.104 0 1
144.219 0 1
144.335 0 1
144.45 0 1
144.566 0 1
144.682 0 1
144.798 0 1
144.914 0 1
145.03 0 1
145.146 255 15.9687
145.262 255 15.9687
145.378 246 15.6844
145.494 258 16.0624
145.61 275 16.5831
145.726 240 15.4919
145.842 275 16.5831
145.959 259 16.0935
146.075 273 16.5227
146.192 258 16.0624
146.308 260 16.1245
146.425 232 15.2315
146.541 257 16.0312
146.658 215 14.6629
146.774 240 15.4919
146.891 253 15.906
147.008 217 14.7309
147.125 269 16.4012
147.241 235 15.3297
147.358 261 16.1555
147.475 251 15.843
147.592 259 16.0935
147.709 274 16.5529
147.826 233 15.2643
147.943 212 14.5602
148.06 254 15.9374
148.177 228 15.0997
148.294 252 15.8745
148.411 216 14.6969
148.528 219 14.7986
148.645 259 16.0935
148.762 289 17
148.88 270 16.4317
148.997 285 16.8819
149.114 254 15.9374
149.231 278 16.6733
149.349 231 15.1987
149.466 257 16.0312
149.583 285 16.8819
149.701 260 16.1245
149.818 247 15.7162
149.935 227 15.0665
150.053 242 15.5563
150.17 231 15.1987
150.287 228 15.0997
150.405 218 14.7648
150.522 222 14.8997
150.64 240 15.4919
150.757 230 15.1658
150.875 220 14.8324
150.992 234 15.2971
151.11 258 16.0624
151.227 233 15.2643
151.344 214 14.6287
151.462 205 14.3178
151.579 220 14.8324
151.697 262 16.1864
151.814 212 14.5602
151.932 236 15.3623
152.049 265 16.2788
152.167 249 15.7797
152.284 257 16.0312
152.402 247 15.7162
152.519 238 15.4272
152.636 257 16.0312
152.754 241 15.5242
152.871 234 15.2971
152.989 242 15.5563
153.106 251 15.843
153.223 244 15.6205
153.341 241 15.5242
153.458 239 15.4596
153.575 252 15.8745
153.693 251 15.843
153.81 237 15.3948
153.927 236 15.3623
154.044 243 15.5885
154.162 231 15.1987
154.279 232 15.2315
154.396 244 15.6205
154.513 239 15.4596
154.63 240 15.4919
154.747 271 16.4621
154.864 232 15.2315
154.981 223 14.9332
155.098 219 14.7986
155.215 191 13.8203
155.332 209 14.4568
155.449 245 15.6525
155.566 241 15.5242
155.683 245 15.6525
155.8 243 15.5885
155.917 230 15.1658
156.033 227 15.0665
156.15 0 1
156.267 0 1
156.383 0 1
156.5 0 1
156.617 0 1
156.733 0 1
156.85 0 1
156.966 0 1
157.082 0 1
157.199 0 1
157.315 0 1
157.431 0 1
157.547 0 1
157.664 0 1
157.78 0 1
157.896 0 1
158.012 0 1
158.128 0 1
158.244 0 1
158.359 0 1
158.475 0 1
158.591 0 1
158.706 0 1
