
6.15755 0 1
6.2731 0 1
6.3887 0 1
6.50437 0 1
6.62009 0 1
6.73587 0 1
6.8517 0 1
6.96759 0 1
7.08353 0 1
7.19952 0 1
7.31557 0 1
7.43166 0 1
7.54781 0 1
7.664 0 1
7.78024 0 1
7.89653 0 1
8.01286 0 1
8.12924 0 1
8.24567 0 1
8.36213 0 1
8.47864 0 1
8.59519 0 1
8.71178 0 1
8.82841 0 1
8.94508 0 1
9.06179 0 1
9.17853 0 1
9.29531 0 1
9.41212 0 1
9.52897 0 1
9.64584 0 1
9.76276 0 1
9.8797 0 1
9.99667 0 1
10.1137 0 1
10.2307 0 1
10.3478 0 1
10.4648 0 1
10.5819 0 1
10.6991 0 1
10.8162 0 1
10.9334 0 1
11.0506 0 1
11.1678 0 1
11.285 0 1
11.4023 0 1
11.5196 0 1
11.6369 0 1
11.7542 0 1
11.8715 0 1
11.9888 0 1
12.1062 0 1
12.2235 0 1
12.3409 0 1
12.4582 0 1
12.5756 0 1
12.693 0 1
12.8104 0 1
12.9278 0 1
13.0452 0 1
13.1626 0 1
13.28 0 1
13.3974 0 1
13.5149 0 1
13.6323 0 1
13.7497 0 1
13.8671 0 1
13.9845 0 1
14.1019 0 1
14.2193 0 1
14.3367 0 1
14.4541 0 1
14.5714 0 1
14.6888 0 1
14.8062 0 1
14.9235 0 1
15.0408 966 31.0805
15.1581 967 31.0966
15.2755 932 30.5287
15.3927 901 30.0167
15.51 899 29.9833
15.6273 895 29.9166
15.7445 902 30.0333
15.8617 815 28.5482
15.9789 901 30.0167
16.0961 855 29.2404
16.2132 852 29.189
16.3304 824 28.7054
16.4475 840 28.9828
16.5646 809 28.4429
16.6816 787 28.0535
16.7986 829 28.7924
16.9156 757 27.5136
17.0326 773 27.8029
17.1496 786 28.0357
17.2665 774 27.8209
17.3833 796 28.2135
17.5002 831 28.8271
17.617 819 28.6182
17.7338 793 28.1603
17.8505 776 27.8568
17.9672 823 28.688
18.0839 788 28.0713
18.2005 837 28.931
18.3171 792 28.1425
18.4337 817 28.5832
18.5502 813 28.5132
18.6666 777 27.8747
18.7831 775 27.8388
18.8994 801 28.3019
19.0158 766 27.6767
19.1321 701 26.4764
19.2483 664 25.7682
19.3645 665 25.7876
19.4806 617 24.8395
19.5967 616 24.8193
19.7128 607 24.6374
19.8288 596 24.4131
19.9447 554 23.5372
20.0606 0 1
20.1764 0 1
20.2922 0 1
20.4079 0 1
20.5236 0 1
20.6392 0 1
20.7548 0 1
20.8702 0 1
23.3078 0 1
23.4233 0 1
23.539 0 1
23.6547 0 1
23.7704 0 1
23.8862 0 1
24.0021 0 1
24.118 0 1
24.234 0 1
24.35 0 1
24.4661 291 17.0587
24.5822 399 19.975
24.6984 433 20.8087
24.8146 478 21.8632
24.9309 524 22.891
25.0472 555 23.5584
25.1636 642 25.3377
25.28 706 26.5707
25.3965 825 28.7228
25.513 831 28.8271
25.6296 856 29.2575
25.7462 896 29.9333
25.8628 805 28.3725
25.9795 861 29.3428
26.0962 868 29.4618
26.213 844 29.0517
26.3298 825 28.7228
26.4466 820 28.6356
26.5635 713 26.7021
26.6804 710 26.6458
26.7973 695 26.3629
26.9143 738 27.1662
27.0313 688 26.2298
27.1483 742 27.2397
27.2653 721 26.8514
27.3824 695 26.3629
27.4996 724 26.9072
27.6167 728 26.9815
27.7339 682 26.1151
27.8511 750 27.3861
27.9683 753 27.4408
28.0855 744 27.2764
28.2028 682 26.1151
28.3201 739 27.1846
28.4374 749 27.3679
28.5547 750 27.3861
28.6721 766 27.6767
28.7894 802 28.3196
28.9068 785 28.0179
29.0242 768 27.7128
29.1416 797 28.2312
29.259 797 28.2312
29.3764 763 27.6225
29.4939 694 26.3439
29.6113 775 27.8388
29.7288 710 26.6458
29.8463 742 27.2397
29.9638 704 26.533
30.0812 737 27.1477
30.1987 667 25.8263
30.3162 724 26.9072
30.4337 714 26.7208
30.5512 713 26.7021
30.6687 734 27.0924
30.7862 729 27
30.9037 724 26.9072
31.0212 722 26.8701
31.1387 765 27.6586
31.2562 745 27.2947
31.3737 782 27.9643
31.4912 706 26.5707
31.6087 688 26.2298
31.7262 761 27.5862
31.8436 694 26.3439
31.9611 657 25.632
32.0785 706 26.5707
32.1959 699 26.4386
32.3134 691 26.2869
32.4308 736 27.1293
32.5482 744 27.2764
32.6655 714 26.7208
32.7829 667 25.8263
32.9002 642 25.3377
33.0176 654 25.5734
33.1349 637 25.2389
33.2522 626 25.02
33.3694 699 26.4386
33.4867 655 25.593
33.6039 655 25.593
33.7211 658 25.6515
33.8383 619 24.8797
33.9554 681 26.096
34.0725 686 26.1916
34.1896 684 26.1534
34.3067 682 26.1151
34.4237 740 27.2029
34.5407 681 26.096
34.6577 696 26.3818
34.7746 722 26.8701
34.8915 679 26.0576
35.0084 655 25.593
35.1252 661 25.7099
35.242 622 24.9399
35.3587 624 24.98
35.4755 593 24.3516
35.5921 607 24.6374
35.7088 595 24.3926
35.8254 610 24.6982
35.9419 582 24.1247
36.0584 583 24.1454
36.1749 669 25.865
36.2913 629 25.0799
36.4077 593 24.3516
36.524 568 23.8328
36.6403 548 23.4094
36.7565 535 23.1301
36.8727 543 23.3024
36.9889 419 20.4695
37.1049 407 20.1742
37.221 0 1
37.3369 0 1
37.4529 0 1
37.5687 0 1
37.6845 0 1
37.8003 0 1
37.916 0 1
38.0316 0 1
38.1472 0 1
40.5851 0 1
40.7008 0 1
40.8164 0 1
40.9322 0 1
41.048 0 1
41.1639 0 1
41.2798 0 1
41.3958 0 1
41.5118 0 1
41.6279 0 1
41.744 228 15.0997
41.8602 313 17.6918
41.9765 325 18.0278
42.0928 392 19.799
42.2091 414 20.347
42.3255 475 21.7945
42.4419 515 22.6936
42.5584 492 22.1811
42.675 503 22.4277
42.7915 497 22.2935
42.9081 517 22.7376
43.0248 542 23.2809
43.1415 487 22.0681
43.2582 520 22.8035
43.375 503 22.4277
43.4918 507 22.5167
43.6087 480 21.9089
43.7256 492 22.1811
43.8425 462 21.4942
43.9595 470 21.6795
44.0765 476 21.8174
44.1935 506 22.4944
44.3106 460 21.4476
44.4277 483 21.9773
44.5448 467 21.6102
44.6619 446 21.1187
44.7791 463 21.5174
44.8963 508 22.5389
45.0136 480 21.9089
45.1308 518 22.7596
45.2481 511 22.6053
45.3654 509 22.561
45.4827 554 23.5372
45.6001 564 23.7487
45.7174 492 22.1811
45.8348 496 22.2711
45.9522 568 23.8328
46.0697 539 23.2164
46.1871 460 21.4476
46.3046 488 22.0907
46.422 479 21.8861
46.5395 498 22.3159
46.657 450 21.2132
46.7745 485 22.0227
46.892 461 21.4709
47.0096 474 21.7715
47.1271 552 23.4947
47.2446 466 21.587
47.3622 439 20.9523
47.4797 469 21.6564
47.5973 448 21.166
47.7149 489 22.1133
47.8324 502 22.4054
47.95 444 21.0713
48.0675 468 21.6333
48.1851 418 20.445
48.3027 448 21.166
48.4202 404 20.0998
48.5378 466 21.587
48.6554 476 21.8174
48.7729 491 22.1585
48.8904 502 22.4054
49.008 491 22.1585
49.1255 496 22.2711
49.243 475 21.7945
49.3605 457 21.3776
49.478 509 22.561
49.5955 479 21.8861
49.713 485 22.0227
49.8304 473 21.7486
49.9479 425 20.6155
50.0653 415 20.3715
50.1827 432 20.7846
50.3001 409 20.2237
50.4175 460 21.4476
50.5348 442 21.0238
50.6521 437 20.9045
50.7694 462 21.4942
50.8867 396 19.8997
51.004 461 21.4709
51.1212 466 21.587
51.2384 461 21.4709
51.3556 436 20.8806
51.4727 445 21.095
51.5899 453 21.2838
51.707 416 20.3961
51.824 442 21.0238
51.9411 469 21.6564
52.0581 437 20.9045
52.175 440 20.9762
52.2919 469 21.6564
52.4088 460 21.4476
52.5257 465 21.5639
52.6425 453 21.2838
52.7593 470 21.6795
52.876 444 21.0713
52.9927 483 21.9773
53.1094 453 21.2838
53.226 450 21.2132
53.3426 444 21.0713
53.4591 419 20.4695
53.5756 448 21.166
53.692 449 21.1896
53.8084 348 18.6548
53.9248 338 18.3848
54.0411 312 17.6635
54.1573 291 17.0587
54.2735 0 1
54.3896 0 1
54.5057 0 1
54.6217 0 1
54.7377 0 1
54.8537 0 1
54.9695 0 1
55.0853 0 1
55.2011 0 1
55.3168 0 1
55.4324 0 1
57.824 0 1
57.9396 0 1
58.0553 0 1
58.1711 0 1
58.2869 0 1
58.4028 0 1
58.5187 0 1
58.6347 0 1
58.7508 0 1
58.8669 0 1
58.983 310 17.6068
59.0992 406 20.1494
59.2155 446 21.1187
59.3318 515 22.6936
59.4482 556 23.5797
59.5646 621 24.9199
59.681 564 23.7487
59.7975 659 25.671
59.9141 628 25.0599
60.0306 658 25.6515
60.1473 672 25.923
60.2639 640 25.2982
60.3807 633 25.1595
60.4974 640 25.2982
60.6142 602 24.5357
60.731 707 26.5895
60.8479 636 25.219
60.9648 630 25.0998
61.0818 659 25.671
61.1987 687 26.2107
61.3158 636 25.219
61.4328 702 26.4953
61.5499 659 25.671
61.667 645 25.3969
61.7841 643 25.3574
61.9013 648 25.4558
62.0185 634 25.1794
62.1357 630 25.0998
62.253 559 23.6432
62.3702 593 24.3516
62.4875 531 23.0434
62.6049 577 24.0208
62.7222 554 23.5372
62.8396 575 23.9792
62.9569 582 24.1247
63.0743 594 24.3721
63.1918 556 23.5797
63.3092 569 23.8537
63.4267 515 22.6936
63.5441 541 23.2594
63.6616 552 23.4947
63.7791 547 23.388
63.8966 529 23
64.0142 508 22.5389
64.1317 460 21.4476
64.2492 488 22.0907
64.3668 535 23.1301
64.4843 525 22.9129
64.6019 504 22.4499
64.7195 526 22.9347
64.837 536 23.1517
64.9546 519 22.7816
65.0722 549 23.4307
65.1898 571 23.8956
65.3074 544 23.3238
65.4249 552 23.4947
65.5425 559 23.6432
65.6601 555 23.5584
65.7777 534 23.1084
65.8952 478 21.8632
66.0128 480 21.9089
66.1304 494 22.2261
66.2479 493 22.2036
66.3655 524 22.891
66.483 519 22.7816
66.6005 559 23.6432
66.718 539 23.2164
66.8355 534 23.1084
66.953 529 23
67.0705 509 22.561
67.1879 540 23.2379
67.3054 512 22.6274
67.4228 494 22.2261
67.5402 481 21.9317
67.6576 475 21.7945
67.7749 474 21.7715
67.8923 490 22.1359
68.0096 471 21.7025
68.1269 511 22.6053
68.2442 516 22.7156
68.3614 487 22.0681
68.4787 534 23.1084
68.5958 567 23.8118
68.713 552 23.4947
68.8302 575 23.9792
68.9473 522 22.8473
69.0643 526 22.9347
69.1814 524 22.891
69.2984 543 23.3024
69.4154 476 21.8174
69.5323 476 21.8174
69.6492 489 22.1133
69.7661 508 22.5389
69.8829 498 22.3159
69.9997 471 21.7025
70.1165 519 22.7816
70.2332 552 23.4947
70.3499 544 23.3238
70.4665 465 21.5639
70.5831 432 20.7846
70.6996 416 20.3961
70.8161 376 19.3907
70.9326 367 19.1572
71.049 306 17.4929
71.1653 282 16.7929
71.2817 297 17.2337
71.3979 233 15.2643
71.5141 251 15.843
71.6303 200 14.1421
71.7464 177 13.3041
71.8624 0 1
71.9784 0 1
72.0944 0 1
72.2102 0 1
72.3261 0 1
72.4418 0 1
72.5575 0 1
72.6732 0 1
75.1054 0 1
75.2209 0 1
75.3365 0 1
75.4521 0 1
75.5678 0 1
75.6835 0 1
75.7993 0 1
75.9151 0 1
76.031 0 1
76.147 340 18.4391
76.263 327 18.0831
76.3791 374 19.3391
76.4952 386 19.6469
76.6113 393 19.8242
76.7276 333 18.2483
76.8438 353 18.7883
76.9601 399 19.975
77.0765 416 20.3961
77.1929 417 20.4206
77.3093 400 20
77.4258 405 20.1246
77.5423 445 21.095
77.6589 444 21.0713
77.7755 393 19.8242
77.8921 451 21.2368
78.0088 494 22.2261
78.1256 457 21.3776
78.2423 485 22.0227
78.3591 461 21.4709
78.4759 404 20.0998
78.5928 402 20.0499
78.7097 346 18.6011
78.8266 388 19.6977
78.9436 447 21.1424
79.0606 405 20.1246
79.1776 420 20.4939
79.2946 402 20.0499
79.4117 463 21.5174
79.5288 486 22.0454
79.6459 438 20.9284
79.7631 453 21.2838
79.8802 458 21.4009
79.9974 447 21.1424
80.1147 397 19.9249
80.2319 423 20.567
80.3491 405 20.1246
80.4664 394 19.8494
80.5837 434 20.8327
80.701 425 20.6155
80.8183 425 20.6155
80.9357 474 21.7715
81.053 479 21.8861
81.1704 435 20.8567
81.2877 474 21.7715
81.4051 462 21.4942
81.5225 480 21.9089
81.6399 483 21.9773
81.7573 474 21.7715
81.8747 474 21.7715
81.9922 504 22.4499
82.1096 438 20.9284
82.227 421 20.5183
82.3444 405 20.1246
82.4619 376 19.3907
82.5793 406 20.1494
82.6967 451 21.2368
82.8142 472 21.7256
82.9316 484 22
83.049 486 22.0454
83.1664 473 21.7486
83.2838 509 22.561
83.4012 429 20.7123
83.5186 473 21.7486
83.636 498 22.3159
83.7534 454 21.3073
83.8708 423 20.567
83.9881 430 20.7364
84.1055 391 19.7737
84.2228 432 20.7846
84.3401 465 21.5639
84.4575 444 21.0713
84.5747 477 21.8403
84.692 464 21.5407
84.8093 455 21.3307
84.9265 501 22.383
85.0437 497 22.2935
85.1609 524 22.891
85.2781 539 23.2164
85.3952 507 22.5167
85.5123 504 22.4499
85.6294 488 22.0907
85.7465 483 21.9773
85.8636 445 21.095
85.9806 370 19.2354
86.0976 407 20.1742
86.2145 444 21.0713
86.3315 438 20.9284
86.4484 444 21.0713
86.5652 525 22.9129
86.682 466 21.587
86.7988 460 21.4476
86.9156 526 22.9347
87.0323 508 22.5389
87.149 486 22.0454
87.2657 437 20.9045
87.3823 465 21.5639
87.4988 470 21.6795
87.6154 410 20.2485
87.7318 382 19.5448
87.8483 423 20.567
87.9647 391 19.7737
88.081 374 19.3391
88.1973 381 19.5192
88.3136 325 18.0278
88.4298 354 18.8149
88.546 316 17.7764
88.6621 294 17.1464
88.7781 266 16.3095
88.8942 0 1
89.0101 0 1
89.126 0 1
89.2419 0 1
89.3577 0 1
89.4734 0 1
89.5891 0 1
89.7047 0 1
89.8203 0 1
89.9358 0 1
92.3269 0 1
92.4424 0 1
92.558 0 1
92.6736 0 1
92.7893 0 1
92.905 0 1
93.0208 0 1
93.1366 0 1
93.2525 0 1
93.3685 0 1
93.4845 0 1
93.6005 387 19.6723
93.7167 386 19.6469
93.8328 439 20.9523
93.949 452 21.2603
94.0653 471 21.7025
94.1816 485 22.0227
94.2979 459 21.4243
94.4143 503 22.4277
94.5307 536 23.1517
94.6472 545 23.3452
94.7637 508 22.5389
94.8803 437 20.9045
94.9969 495 22.2486
95.1135 448 21.166
95.2302 482 21.9545
95.3469 474 21.7715
95.4637 447 21.1424
95.5805 477 21.8403
95.6973 563 23.7276
95.8142 515 22.6936
95.9311 504 22.4499
96.048 490 22.1359
96.1649 527 22.9565
96.2819 522 22.8473
96.3989 512 22.6274
96.516 469 21.6564
96.633 460 21.4476
96.7501 408 20.199
96.8673 435 20.8567
96.9844 479 21.8861
97.1016 459 21.4243
97.2188 469 21.6564
97.336 498 22.3159
97.4532 471 21.7025
97.5704 488 22.0907
97.6877 530 23.0217
97.805 523 22.8692
97.9223 541 23.2594
98.0396 514 22.6716
98.1569 565 23.7697
98.2743 553 23.516
98.3916 535 23.1301
98.509 478 21.8632
98.6264 472 21.7256
98.7438 479 21.8861
98.8612 510 22.5832
98.9786 487 22.0681
99.096 520 22.8035
99.2134 565 23.7697
99.3308 533 23.0868
99.4482 538 23.1948
99.5656 545 23.3452
99.6831 529 23
99.8005 523 22.8692
99.9179 529 23
100.035 486 22.0454
100.153 483 21.9773
100.27 473 21.7486
100.388 511 22.6053
100.505 517 22.7376
100.622 514 22.6716
100.74 520 22.8035
100.857 529 23
100.975 509 22.561
101.092 529 23
101.209 522 22.8473
101.327 539 23.2164
101.444 629 25.0799
101.561 621 24.9199
101.679 556 23.5797
101.796 560 23.6643
101.913 552 23.4947
102.03 515 22.6936
102.148 499 22.3383
102.265 504 22.4499
102.382 463 21.5174
102.499 528 22.9783
102.616 561 23.6854
102.733 576 24
102.851 582 24.1247
102.968 613 24.7588
103.085 591 24.3105
103.202 602 24.5357
103.319 587 24.2281
103.436 548 23.4094
103.552 553 23.516
103.669 536 23.1517
103.786 564 23.7487
103.903 553 23.516
104.02 531 23.0434
104.137 592 24.3311
104.253 566 23.7908
104.37 605 24.5967
104.487 561 23.6854
104.603 574 23.9583
104.72 563 23.7276
104.836 534 23.1084
104.953 569 23.8537
105.069 539 23.2164
105.186 529 23
105.302 479 21.8861
105.418 451 21.2368
105.535 435 20.8567
105.651 393 19.8242
105.767 358 18.9209
105.883 352 18.7617
105.999 310 17.6068
106.115 0 1
106.231 0 1
106.347 0 1
106.463 0 1
106.579 0 1
106.694 0 1
106.81 0 1
106.926 0 1
107.041 0 1
107.157 0 1
109.576 0 1
109.692 0 1
109.807 0 1
109.923 0 1
110.039 0 1
110.155 0 1
110.27 0 1
110.386 0 1
110.502 0 1
110.618 314 17.72
110.735 291 17.0587
110.851 347 18.6279
110.967 417 20.4206
111.083 478 21.8632
111.199 522 22.8473
111.316 537 23.1733
111.432 547 23.388
111.549 584 24.1661
111.665 624 24.98
111.782 599 24.4745
111.898 613 24.7588
112.015 585 24.1868
112.132 520 22.8035
112.248 534 23.1084
112.365 547 23.388
112.482 525 22.9129
112.599 556 23.5797
112.716 523 22.8692
112.832 534 23.1084
112.949 565 23.7697
113.066 509 22.561
113.183 550 23.4521
113.3 522 22.8473
113.417 538 23.1948
113.534 542 23.2809
113.652 549 23.4307
113.769 543 23.3024
113.886 544 23.3238
114.003 473 21.7486
114.12 545 23.3452
114.238 459 21.4243
114.355 481 21.9317
114.472 492 22.1811
114.589 540 23.2379
114.707 504 22.4499
114.824 525 22.9129
114.942 553 23.516
115.059 540 23.2379
115.176 519 22.7816
115.294 520 22.8035
115.411 484 22
115.529 498 22.3159
115.646 468 21.6333
115.764 422 20.5426
115.881 422 20.5426
115.999 426 20.6398
116.116 493 22.2036
116.234 427 20.664
116.351 514 22.6716
116.469 469 21.6564
116.586 467 21.6102
116.704 452 21.2603
116.821 472 21.7256
116.939 464 21.5407
117.056 493 22.2036
117.174 484 22
117.291 480 21.9089
117.409 437 20.9045
117.526 460 21.4476
117.644 425 20.6155
117.761 436 20.8806
117.879 439 20.9523
117.996 456 21.3542
118.114 425 20.6155
118.231 443 21.0476
118.349 453 21.2838
118.466 458 21.4009
118.584 538 23.1948
118.701 499 22.3383
118.819 459 21.4243
118.936 470 21.6795
119.053 481 21.9317
119.171 422 20.5426
119.288 384 19.5959
119.405 421 20.5183
119.523 452 21.2603
119.64 461 21.4709
119.757 475 21.7945
119.875 465 21.5639
119.992 475 21.7945
120.109 466 21.587
120.226 435 20.8567
120.343 480 21.9089
120.46 435 20.8567
120.578 426 20.6398
120.695 426 20.6398
120.812 458 21.4009
120.929 459 21.4243
121.046 451 21.2368
121.163 424 20.5913
121.279 447 21.1424
121.396 368 19.1833
121.513 376 19.3907
121.63 386 19.6469
121.747 357 18.8944
121.863 386 19.6469
121.98 405 20.1246
122.097 398 19.9499
122.213 404 20.0998
122.33 395 19.8746
122.446 354 18.8149
122.563 338 18.3848
122.679 308 17.5499
122.795 302 17.3781
122.912 262 16.1864
123.028 230 15.1658
123.144 224 14.9666
123.26 222 14.8997
123.377 0 1
123.493 0 1
123.609 0 1
123.725 0 1
123.84 0 1
123.956 0 1
124.072 0 1
124.188 0 1
124.303 0 1
124.419 0 1
126.852 0 1
126.968 0 1
127.083 0 1
127.199 0 1
127.315 0 1
127.431 0 1
127.547 0 1
127.663 0 1
127.779 0 1
127.895 0 1
128.011 0 1
128.127 0 1
128.243 0 1
128.359 461 21.4709
128.476 452 21.2603
128.592 456 21.3542
128.708 483 21.9773
128.825 501 22.383
128.941 476 21.8174
129.058 527 22.9565
129.174 474 21.7715
129.291 485 22.0227
129.408 469 21.6564
129.524 513 22.6495
129.641 466 21.587
129.758 485 22.0227
129.875 477 21.8403
129.992 513 22.6495
130.108 486 22.0454
130.225 527 22.9565
130.342 470 21.6795
130.459 479 21.8861
130.576 467 21.6102
130.693 479 21.8861
130.81 507 22.5167
130.928 556 23.5797
131.045 535 23.1301
131.162 586 24.2074
131.279 622 24.9399
131.396 597 24.4336
131.513 631 25.1197
131.631 640 25.2982
131.748 593 24.3516
131.865 619 24.8797
131.983 640 25.2982
132.1 681 26.096
132.217 758 27.5318
132.335 739 27.1846
132.452 792 28.1425
132.57 759 27.55
132.687 865 29.4109
132.804 872 29.5296
132.922 885 29.7489
133.039 870 29.4958
133.157 882 29.6985
133.274 828 28.775
133.392 900 30
133.509 894 29.8998
133.627 916 30.2655
133.744 879 29.6479
133.862 892 29.8664
133.979 886 29.7658
134.097 808 28.4253
134.214 773 27.8029
134.332 765 27.6586
134.449 796 28.2135
134.567 869 29.4788
134.684 818 28.6007
134.802 889 29.8161
134.919 899 29.9833
135.037 873 29.5466
135.154 839 28.9655
135.272 783 27.9821
135.389 757 27.5136
135.507 834 28.8791
135.624 882 29.6985
135.742 849 29.1376
135.859 872 29.5296
135.977 912 30.1993
136.094 937 30.6105
136.211 893 29.8831
136.329 959 30.9677
136.446 948 30.7896
136.564 861 29.3428
136.681 922 30.3645
136.798 929 30.4795
136.915 913 30.2159
137.033 905 30.0832
137.15 935 30.5778
137.267 947 30.7734
137.384 930 30.4959
137.502 826 28.7402
137.619 860 29.3258
137.736 813 28.5132
137.853 740 27.2029
137.97 833 28.8617
138.087 862 29.3598
138.204 963 31.0322
138.321 940 30.6594
138.438 987 31.4166
138.555 954 30.8869
138.672 985 31.3847
138.788 926 30.4302
138.905 821 28.6531
139.022 730 27.0185
139.139 837 28.931
139.255 789 28.0891
139.372 819 28.6182
139.488 853 29.2062
139.605 783 27.9821
139.721 711 26.6646
139.838 656 25.6125
139.954 613 24.7588
140.071 578 24.0416
140.187 535 23.1301
140.303 545 23.3452
140.419 520 22.8035
140.535 484 22
140.652 490 22.1359
140.768 0 1
140.884 0 1
141 0 1
141.115 0 1
141.231 0 1
141.347 0 1
141.463 0 1
141.578 0 1
141.694 0 1
144.104 0 1
144.219 0 1
144.335 0 1
144.45 0 1
144.566 0 1
144.682 0 1
144.798 0 1
144.914 0 1
145.03 0 1
145.146 1080 32.8634
145.262 1161 34.0735
145.378 1282 35.805
145.494 1230 35.0714
145.61 1339 36.5923
145.726 1329 36.4555
145.842 1449 38.0657
145.959 1441 37.9605
146.075 1353 36.7831
146.192 1435 37.8814
146.308 1497 38.6911
146.425 1452 38.1051
146.541 1506 38.8072
146.658 1479 38.4578
146.774 1484 38.5227
146.891 1460 38.2099
147.008 1594 39.9249
147.125 1613 40.1622
147.241 1716 41.4246
147.358 1672 40.8901
147.475 1660 40.7431
147.592 1598 39.975
147.709 1460 38.2099
147.826 1187 34.4529
147.943 1039 32.2335
148.06 1238 35.1852
148.177 1440 37.9473
148.294 1558 39.4715
148.411 1610 40.1248
148.528 1674 40.9145
148.645 1634 40.4228
148.762 1657 40.7063
148.88 1675 40.9268
148.997 1699 41.2189
149.114 1642 40.5216
149.231 1643 40.5339
149.349 1663 40.7799
149.466 1679 40.9756
149.583 1726 41.5452
149.701 1633 40.4104
149.818 1497 38.6911
149.935 1387 37.2424
150.053 1467 38.3014
150.17 1446 38.0263
150.287 1435 37.8814
150.405 1502 38.7556
150.522 1528 39.0896
150.64 1545 39.3065
150.757 1560 39.4968
150.875 1557 39.4588
150.992 1526 39.064
151.11 1479 38.4578
151.227 1404 37.47
151.344 1376 37.0945
151.462 1243 35.2562
151.579 1018 31.9061
151.697 1065 32.6343
151.814 1253 35.3977
151.932 1344 36.6606
152.049 1381 37.1618
152.167 1347 36.7015
152.284 1290 35.9166
152.402 1348 36.7151
152.519 1375 37.081
152.636 1307 36.1525
152.754 1281 35.7911
152.871 1281 35.7911
152.989 1328 36.4417
153.106 1299 36.0416
153.223 1301 36.0694
153.341 1158 34.0294
153.458 1144 33.8231
153.575 1163 34.1028
153.693 1158 34.0294
153.81 1088 32.9848
153.927 1188 34.4674
154.044 1153 33.9559
154.162 1108 33.2866
154.279 1153 33.9559
154.396 1189 34.4819
154.513 1164 34.1174
154.63 1169 34.1906
154.747 1175 34.2783
154.864 1143 33.8083
154.981 1054 32.4654
155.098 914 30.2324
155.215 861 29.3428
155.332 1005 31.7017
155.449 1084 32.9242
155.566 1087 32.9697
155.683 1177 34.3074
155.8 1162 34.0881
155.917 1184 34.4093
156.033 1168 34.176
156.15 0 1
156.267 0 1
156.383 0 1
156.5 0 1
156.617 0 1
156.733 0 1
156.85 0 1
156.966 0 1
157.082 0 1
157.199 0 1
157.315 0 1
157.431 0 1
157.547 0 1
157.664 0 1
157.78 0 1
157.896 0 1
158.012 0 1
158.128 0 1
158.244 0 1
158.359 0 1
158.475 0 1
158.591 0 1
158.706 0 1
