
6.15755 0 1
6.2731 0 1
6.3887 0 1
6.50437 0 1
6.62009 0 1
6.73587 0 1
6.8517 0 1
6.96759 0 1
7.08353 0 1
7.19952 0 1
7.31557 0 1
7.43166 0 1
7.54781 0 1
7.664 0 1
7.78024 0 1
7.89653 0 1
8.01286 0 1
8.12924 0 1
8.24567 0 1
8.36213 0 1
8.47864 0 1
8.59519 0 1
8.71178 0 1
8.82841 0 1
8.94508 0 1
9.06179 0 1
9.17853 0 1
9.29531 0 1
9.41212 0 1
9.52897 0 1
9.64584 0 1
9.76276 0 1
9.8797 0 1
9.99667 0 1
10.1137 0 1
10.2307 0 1
10.3478 0 1
10.4648 0 1
10.5819 0 1
10.6991 0 1
10.8162 0 1
10.9334 0 1
11.0506 0 1
11.1678 0 1
11.285 0 1
11.4023 0 1
11.5196 0 1
11.6369 0 1
11.7542 0 1
11.8715 0 1
11.9888 0 1
12.1062 0 1
12.2235 0 1
12.3409 0 1
12.4582 0 1
12.5756 0 1
12.693 0 1
12.8104 0 1
12.9278 0 1
13.0452 0 1
13.1626 0 1
13.28 0 1
13.3974 0 1
13.5149 0 1
13.6323 0 1
13.7497 0 1
13.8671 0 1
13.9845 0 1
14.1019 0 1
14.2193 0 1
14.3367 0 1
14.4541 0 1
14.5714 0 1
14.6888 0 1
14.8062 0 1
14.9235 0 1
15.0408 0 0
15.1581 0 0
15.2755 0 0
15.3927 0 0
15.51 0 0
15.6273 0 0
15.7445 0 0
15.8617 0 0
15.9789 0 0
16.0961 0 0
16.2132 0 0
16.3304 0 0
16.4475 0 0
16.5646 0 0
16.6816 0 0
16.7986 0 0
16.9156 0 0
17.0326 0 0
17.1496 0 0
17.2665 0 0
17.3833 0 0
17.5002 0 0
17.617 0 0
17.7338 0 0
17.8505 0 0
17.9672 0 0
18.0839 0 0
18.2005 0 0
18.3171 0 0
18.4337 0 0
18.5502 0 0
18.6666 0 0
18.7831 0 0
18.8994 0 0
19.0158 0 0
19.1321 0 0
19.2483 0 0
19.3645 0 0
19.4806 0 0
19.5967 0 0
19.7128 0 0
19.8288 0 0
19.9447 0 0
20.0606 0 1
20.1764 0 1
20.2922 0 1
20.4079 0 1
20.5236 0 1
20.6392 0 1
20.7548 0 1
20.8702 0 1
23.3078 0 1
23.4233 0 1
23.539 0 1
23.6547 0 1
23.7704 0 1
23.8862 0 1
24.0021 0 1
24.118 0 1
24.234 0 1
24.35 0 1
24.4661 8468 92.0217
24.5822 8568 92.5635
24.6984 8600 92.7362
24.8146 8470 92.0326
24.9309 8409 91.7006
25.0472 8328 91.2579
25.1636 8332 91.2798
25.28 8656 93.0376
25.3965 9039 95.0737
25.513 9262 96.2393
25.6296 9673 98.3514
25.7462 9993 99.965
25.8628 9976 99.8799
25.9795 9932 99.6594
26.0962 10129 100.643
26.213 10166 100.827
26.3298 9836 99.1766
26.4466 9292 96.395
26.5635 9013 94.9368
26.6804 8550 92.4662
26.7973 8642 92.9624
26.9143 8852 94.0851
27.0313 9217 96.0052
27.1483 9273 96.2964
27.2653 9494 97.4372
27.3824 9723 98.6053
27.4996 9643 98.1988
27.6167 9424 97.0773
27.7339 9353 96.7109
27.8511 9105 95.4201
27.9683 8980 94.7629
28.0855 8787 93.739
28.2028 8602 92.747
28.3201 8610 92.7901
28.4374 8360 91.433
28.5547 8192 90.5097
28.6721 8295 91.0769
28.7894 8404 91.6733
28.9068 8503 92.2117
29.0242 9026 95.0053
29.1416 9242 96.1353
29.259 9412 97.0155
29.3764 9523 97.5859
29.4939 9595 97.9541
29.6113 9694 98.4581
29.7288 9752 98.7522
29.8463 9208 95.9583
29.9638 8942 94.5621
30.0812 8527 92.3418
30.1987 8449 91.9184
30.3162 8069 89.8276
30.4337 8500 92.1954
30.5512 8851 94.0798
30.6687 8872 94.1913
30.7862 8882 94.2444
30.9037 9262 96.2393
31.0212 9421 97.0618
31.1387 9383 96.8659
31.2562 9264 96.2497
31.3737 9162 95.7183
31.4912 8855 94.101
31.6087 8855 94.101
31.7262 8800 93.8083
31.8436 8536 92.3905
31.9611 8294 91.0714
32.0785 8329 91.2634
32.1959 8351 91.3838
32.3134 8493 92.1575
32.4308 8685 93.1933
32.5482 8810 93.8616
32.6655 9261 96.2341
32.7829 9391 96.9072
32.9002 9758 98.7826
33.0176 9667 98.3209
33.1349 9666 98.3158
33.2522 9552 97.7343
33.3694 9593 97.9439
33.4867 9537 97.6576
33.6039 9023 94.9895
33.7211 8406 91.6842
33.8383 8287 91.033
33.9554 7929 89.0449
34.0725 8299 91.0988
34.1896 8476 92.0652
34.3067 8762 93.6056
34.4237 9150 95.6556
34.5407 8983 94.7787
34.6577 9188 95.8541
34.7746 9373 96.8143
34.8915 9160 95.7079
35.0084 9284 96.3535
35.1252 9079 95.2838
35.242 8759 93.5895
35.3587 8613 92.8062
35.4755 8523 92.3201
35.5921 8296 91.0824
35.7088 8129 90.161
35.8254 8180 90.4434
35.9419 8016 89.5321
36.0584 8242 90.7855
36.1749 8507 92.2334
36.2913 8650 93.0054
36.4077 9014 94.9421
36.524 9262 96.2393
36.6403 9356 96.7264
36.7565 9471 97.3191
36.8727 9481 97.3704
36.9889 9384 96.871
37.1049 8971 94.7154
37.221 0 1
37.3369 0 1
37.4529 0 1
37.5687 0 1
37.6845 0 1
37.8003 0 1
37.916 0 1
38.0316 0 1
38.1472 0 1
40.5851 0 1
40.7008 0 1
40.8164 0 1
40.9322 0 1
41.048 0 1
41.1639 0 1
41.2798 0 1
41.3958 0 1
41.5118 0 1
41.6279 0 1
41.744 7295 85.4108
41.8602 7492 86.5563
41.9765 7688 87.6812
42.0928 7859 88.651
42.2091 7842 88.5551
42.3255 7203 84.8705
42.4419 6989 83.6002
42.5584 6466 80.4114
42.675 6194 78.702
42.7915 6288 79.2969
42.9081 6670 81.6701
43.0248 6967 83.4686
43.1415 7088 84.1903
43.2582 7125 84.4097
43.375 7237 85.0706
43.4918 7396 86
43.6087 7282 85.3346
43.7256 7271 85.2702
43.8425 7225 85
43.9595 7013 83.7437
44.0765 6783 82.359
44.1935 6575 81.0864
44.3106 6306 79.4103
44.4277 6078 77.9615
44.5448 5934 77.0325
44.6619 5648 75.1532
44.7791 5792 76.1052
44.8963 6046 77.756
45.0136 6319 79.4921
45.1308 6438 80.2371
45.2481 6416 80.0999
45.3654 6495 80.5916
45.4827 6547 80.9135
45.6001 6305 79.404
45.7174 6414 80.0875
45.8348 6177 78.5939
45.9522 5790 76.092
46.0697 5239 72.3809
46.1871 4898 69.9857
46.3046 4803 69.3037
46.422 5090 71.3442
46.5395 5275 72.6292
46.657 5684 75.3923
46.7745 5621 74.9733
46.892 5742 75.776
47.0096 5760 75.8947
47.1271 5646 75.1399
47.2446 5581 74.7061
47.3622 5709 75.5579
47.4797 5274 72.6223
47.5973 5140 71.6938
47.7149 5183 71.9931
47.8324 4952 70.3704
47.95 4750 68.9202
48.0675 4571 67.6092
48.1851 4385 66.2193
48.3027 4352 65.9697
48.4202 4539 67.3721
48.5378 4642 68.1322
48.6554 4901 70.0071
48.7729 4906 70.0428
48.8904 5186 72.0139
49.008 5000 70.7107
49.1255 5076 71.2461
49.243 5057 71.1126
49.3605 4689 68.4763
49.478 4347 65.9318
49.5955 4035 63.5216
49.713 4040 63.561
49.8304 3877 62.2656
49.9479 4186 64.6993
50.0653 4429 66.5507
50.1827 4810 69.3542
50.3001 5014 70.8096
50.4175 5197 72.0902
50.5348 5371 73.2871
50.6521 5438 73.7428
50.7694 5487 74.0743
50.8867 5464 73.9189
51.004 5667 75.2795
51.1212 5681 75.3724
51.2384 5563 74.5855
51.3556 5569 74.6257
51.4727 5363 73.2325
51.5899 5358 73.1984
51.707 5481 74.0338
51.824 5505 74.1957
51.9411 5888 76.7333
52.0581 6303 79.3914
52.175 6644 81.5107
52.2919 6863 82.8432
52.4088 7048 83.9524
52.5257 7083 84.1606
52.6425 7171 84.6818
52.7593 7199 84.8469
52.876 7090 84.2021
52.9927 6541 80.8764
53.1094 6348 79.6743
53.226 5902 76.8245
53.3426 5523 74.3169
53.4591 5746 75.8024
53.5756 6368 79.7997
53.692 6881 82.9518
53.8084 7289 85.3756
53.9248 7634 87.3728
54.0411 7667 87.5614
54.1573 8138 90.2109
54.2735 0 1
54.3896 0 1
54.5057 0 1
54.6217 0 1
54.7377 0 1
54.8537 0 1
54.9695 0 1
55.0853 0 1
55.2011 0 1
55.3168 0 1
55.4324 0 1
57.824 0 1
57.9396 0 1
58.0553 0 1
58.1711 0 1
58.2869 0 1
58.4028 0 1
58.5187 0 1
58.6347 0 1
58.7508 0 1
58.8669 0 1
58.983 8779 93.6963
59.0992 9061 95.1893
59.2155 9433 97.1236
59.3318 9555 97.7497
59.4482 9580 97.8775
59.5646 9755 98.7674
59.681 9443 97.1751
59.7975 9382 96.8607
59.9141 9150 95.6556
60.0306 8853 94.0904
60.1473 8508 92.2388
60.2639 8157 90.3161
60.3807 7947 89.1459
60.4974 8275 90.967
60.6142 8162 90.3438
60.731 8758 93.5842
60.8479 8745 93.5147
60.9648 9045 95.1052
61.0818 8997 94.8525
61.1987 9065 95.2103
61.3158 9014 94.9421
61.4328 8569 92.5689
61.5499 7999 89.4371
61.667 7345 85.703
61.7841 6956 83.4026
61.9013 6653 81.5659
62.0185 6794 82.4257
62.1357 7245 85.1176
62.253 7601 87.1837
62.3702 8050 89.7218
62.4875 8200 90.5539
62.6049 8526 92.3363
62.7222 8728 93.4238
62.8396 8637 92.9355
62.9569 8648 92.9946
63.0743 8625 92.8709
63.1918 8537 92.3959
63.3092 8439 91.864
63.4267 8238 90.7634
63.5441 7862 88.6679
63.6616 7742 87.9886
63.7791 7275 85.2936
63.8966 7101 84.2674
64.0142 7312 85.5102
64.1317 7421 86.1452
64.2492 7700 87.7496
64.3668 8177 90.4268
64.4843 8252 90.8405
64.6019 8251 90.835
64.7195 8252 90.8405
64.837 8085 89.9166
64.9546 8007 89.4818
65.0722 7460 86.3713
65.1898 6828 82.6317
65.3074 6385 79.9062
65.4249 5978 77.3175
65.5425 5961 77.2075
65.6601 6340 79.6241
65.7777 6884 82.9699
65.8952 7124 84.4038
66.0128 7640 87.4071
66.1304 7677 87.6185
66.2479 7999 89.4371
66.3655 8148 90.2663
66.483 8284 91.0165
66.6005 8285 91.022
66.718 8274 90.9615
66.8355 8027 89.5935
66.953 7903 88.8988
67.0705 7716 87.8408
67.1879 7511 86.666
67.3054 7198 84.841
67.4228 6834 82.668
67.5402 6920 83.1865
67.6576 6984 83.5703
67.7749 7506 86.6372
67.8923 7546 86.8677
68.0096 7985 89.3588
68.1269 8147 90.2607
68.2442 8274 90.9615
68.3614 8500 92.1954
68.4787 8591 92.6876
68.5958 8490 92.1412
68.713 7818 88.4195
68.8302 7358 85.7788
68.9473 7075 84.113
69.0643 6682 81.7435
69.1814 6928 83.2346
69.2984 7435 86.2264
69.4154 8062 89.7886
69.5323 8789 93.7497
69.6492 9481 97.3704
69.7661 9798 98.9848
69.8829 10541 102.669
69.9997 10769 103.774
70.1165 11004 104.9
70.2332 11309 106.344
70.3499 11471 107.103
70.4665 11171 105.693
70.5831 11566 107.545
70.6996 11477 107.131
70.8161 11327 106.428
70.9326 10706 103.47
71.049 10313 101.553
71.1653 9835 99.1716
71.2817 10109 100.544
71.3979 10529 102.611
71.5141 10941 104.599
71.6303 11487 107.177
71.7464 10840 104.115
71.8624 0 1
71.9784 0 1
72.0944 0 1
72.2102 0 1
72.3261 0 1
72.4418 0 1
72.5575 0 1
72.6732 0 1
75.1054 0 1
75.2209 0 1
75.3365 0 1
75.4521 0 1
75.5678 0 1
75.6835 0 1
75.7993 0 1
75.9151 0 1
76.031 0 1
76.147 11407 106.804
76.263 11628 107.833
76.3791 11391 106.729
76.4952 10760 103.73
76.6113 10397 101.966
76.7276 10671 103.301
76.8438 11304 106.32
76.9601 11553 107.485
77.0765 11991 109.503
77.1929 11899 109.083
77.3093 11694 108.139
77.4258 11652 107.944
77.5423 11164 105.66
77.6589 10188 100.936
77.7755 9120 95.4987
77.8921 8107 90.0389
78.0088 7447 86.296
78.1256 6930 83.2466
78.2423 6924 83.2106
78.3591 7319 85.5512
78.4759 8051 89.7274
78.5928 8446 91.9021
78.7097 9015 94.9474
78.8266 8981 94.7681
78.9436 9580 97.8775
79.0606 9259 96.2237
79.1776 9358 96.7368
79.2946 9288 96.3743
79.4117 9052 95.142
79.5288 9010 94.921
79.6459 8739 93.4826
79.7631 8250 90.8295
79.8802 7946 89.1403
79.9974 7243 85.1058
80.1147 6823 82.6015
80.2319 6841 82.7103
80.3491 7001 83.672
80.4664 7477 86.4696
80.5837 7692 87.704
80.701 7882 88.7806
80.8183 7986 89.3644
80.9357 7876 88.7468
81.053 7809 88.3685
81.1704 7796 88.295
81.2877 7342 85.6855
81.4051 6800 82.4621
81.5225 6218 78.8543
81.6399 5614 74.9266
81.7573 5296 72.7736
81.8747 5148 71.7496
81.9922 5675 75.3326
82.1096 6247 79.038
82.227 6806 82.4985
82.3444 7099 84.2556
82.4619 7289 85.3756
82.5793 7688 87.6812
82.6967 7440 86.2554
82.8142 7476 86.4639
82.9316 7629 87.3441
83.049 7700 87.7496
83.1664 7659 87.5157
83.2838 7295 85.4108
83.4012 7253 85.1645
83.5186 6898 83.0542
83.636 6614 81.3265
83.7534 6099 78.0961
83.8708 6105 78.1345
83.9881 6502 80.635
84.1055 6837 82.6862
84.2228 7452 86.325
84.3401 7807 88.3572
84.4575 7899 88.8763
84.5747 7935 89.0786
84.692 7923 89.0112
84.8093 7849 88.5946
84.9265 7104 84.2852
85.0437 6646 81.523
85.1609 6179 78.6066
85.2781 5765 75.9276
85.3952 5700 75.4983
85.5123 5955 77.1686
85.6294 6652 81.5598
85.7465 7582 87.0747
85.8636 8005 89.4707
85.9806 8169 90.3825
86.0976 8582 92.6391
86.2145 9197 95.901
86.3315 9388 96.8917
86.4484 9659 98.2802
86.5652 9660 98.2853
86.682 9787 98.9293
86.7988 9710 98.5393
86.9156 9676 98.3667
87.0323 9319 96.535
87.149 8981 94.7681
87.2657 8718 93.3702
87.3823 8431 91.8205
87.4988 8619 92.8386
87.6154 9125 95.5249
87.7318 9833 99.1615
87.8483 10253 101.257
87.9647 10294 101.459
88.081 10462 102.284
88.1973 10401 101.985
88.3136 10432 102.137
88.4298 9634 98.1529
88.546 8868 94.1701
88.6621 7920 88.9944
88.7781 7376 85.8836
88.8942 0 1
89.0101 0 1
89.126 0 1
89.2419 0 1
89.3577 0 1
89.4734 0 1
89.5891 0 1
89.7047 0 1
89.8203 0 1
89.9358 0 1
92.3269 0 1
92.4424 0 1
92.558 0 1
92.6736 0 1
92.7893 0 1
92.905 0 1
93.0208 0 1
93.1366 0 1
93.2525 0 1
93.3685 0 1
93.4845 0 1
93.6005 9421 97.0618
93.7167 9529 97.6166
93.8328 9138 95.5929
93.949 8390 91.5969
94.0653 7667 87.5614
94.1816 7157 84.5991
94.2979 6696 81.8291
94.4143 6767 82.2618
94.5307 6543 80.8888
94.6472 7086 84.1784
94.7637 7574 87.0287
94.8803 7979 89.3252
94.9969 8412 91.717
95.1135 8608 92.7793
95.2302 8728 93.4238
95.3469 9158 95.6974
95.4637 9311 96.4935
95.5805 9431 97.1133
95.6973 9522 97.5807
95.8142 9334 96.6126
95.9311 9168 95.7497
96.048 9184 95.8332
96.1649 8735 93.4612
96.2819 8566 92.5527
96.3989 7993 89.4036
96.516 7599 87.1722
96.633 7749 88.0284
96.7501 8024 89.5768
96.8673 8498 92.1846
96.9844 8859 94.1223
97.1016 8920 94.4458
97.2188 9084 95.31
97.336 9136 95.5824
97.4532 8845 94.0479
97.5704 8448 91.913
97.6877 7661 87.5271
97.805 7070 84.0833
97.9223 6458 80.3617
98.0396 6281 79.2528
98.1569 6246 79.0316
98.2743 6512 80.697
98.3916 7212 84.9235
98.509 7828 88.476
98.6264 8124 90.1332
98.7438 8416 91.7388
98.8612 8789 93.7497
98.9786 8978 94.7523
99.096 9190 95.8645
99.2134 9120 95.4987
99.3308 9374 96.8194
99.4482 9500 97.4679
99.5656 9119 95.4935
99.6831 8994 94.8367
99.8005 8632 92.9086
99.9179 8223 90.6808
100.035 8009 89.493
100.153 7917 88.9775
100.27 8165 90.3604
100.388 8587 92.6661
100.505 8863 94.1435
100.622 8955 94.6309
100.74 9084 95.31
100.857 9262 96.2393
100.975 9170 95.7601
101.092 8886 94.2656
101.209 8258 90.8735
101.327 7562 86.9598
101.444 6893 83.0241
101.561 6555 80.963
101.679 6278 79.2338
101.796 6464 80.399
101.913 7067 84.0655
102.03 7635 87.3785
102.148 8042 89.6772
102.265 9142 95.6138
102.382 8403 91.6679
102.499 9255 96.2029
102.616 9551 97.7292
102.733 9487 97.4012
102.851 9803 99.0101
102.968 9841 99.2018
103.085 9730 98.6408
103.202 9561 97.7804
103.319 9509 97.5141
103.436 8704 93.2952
103.552 8589 92.6769
103.669 8374 91.5096
103.786 8454 91.9456
103.903 9075 95.2628
104.02 9396 96.933
104.137 9720 98.5901
104.253 10101 100.504
104.37 9453 97.2265
104.487 10023 100.115
104.603 9589 97.9234
104.72 8917 94.4299
104.836 8194 90.5207
104.953 7584 87.0862
105.069 6965 83.4566
105.186 6914 83.1505
105.302 7182 84.7467
105.418 7810 88.3742
105.535 8561 92.5257
105.651 9018 94.9632
105.767 9388 96.8917
105.883 9616 98.0612
105.999 9892 99.4585
106.115 0 1
106.231 0 1
106.347 0 1
106.463 0 1
106.579 0 1
106.694 0 1
106.81 0 1
106.926 0 1
107.041 0 1
107.157 0 1
109.576 0 1
109.692 0 1
109.807 0 1
109.923 0 1
110.039 0 1
110.155 0 1
110.27 0 1
110.386 0 1
110.502 0 1
110.618 8391 91.6024
110.735 8970 94.7101
110.851 9250 96.1769
110.967 9672 98.3463
111.083 9900 99.4987
111.199 10058 100.29
111.316 10081 100.404
111.432 10150 100.747
111.549 10218 101.084
111.665 10140 100.698
111.782 9958 99.7898
111.898 9598 97.9694
112.015 9113 95.462
112.132 8768 93.6376
112.248 8496 92.1737
112.365 9035 95.0526
112.482 9490 97.4166
112.599 9541 97.678
112.716 9706 98.519
112.832 9702 98.4987
112.949 9662 98.2955
113.066 9763 98.8079
113.183 9128 95.5406
113.3 8287 91.033
113.417 7659 87.5157
113.534 7147 84.5399
113.652 6675 81.7007
113.769 6555 80.963
113.886 6840 82.7043
114.003 7313 85.5161
114.12 8117 90.0944
114.238 8663 93.0752
114.355 8740 93.488
114.472 9584 97.8979
114.589 8852 94.0851
114.707 9311 96.4935
114.824 9533 97.6371
114.942 9950 99.7497
115.059 9760 98.7927
115.176 9930 99.6494
115.294 9662 98.2955
115.411 9527 97.6064
115.529 9170 95.7601
115.646 8781 93.707
115.764 8538 92.4013
115.881 8746 93.5201
115.999 9171 95.7653
116.116 9604 98
116.234 9789 98.9394
116.351 9698 98.4784
116.469 9825 99.1211
116.586 9821 99.101
116.704 9457 97.2471
116.821 8955 94.6309
116.939 8258 90.8735
117.056 7707 87.7895
117.174 7358 85.7788
117.291 7051 83.9702
117.409 6892 83.0181
117.526 7265 85.235
117.644 7962 89.23
117.761 8326 91.2469
117.879 8602 92.747
117.996 9146 95.6347
118.114 9398 96.9433
118.231 9432 97.1185
118.349 9615 98.0561
118.466 9740 98.6914
118.584 9752 98.7522
118.701 10083 100.414
118.819 9871 99.3529
118.936 9658 98.2751
119.053 9669 98.3311
119.171 9237 96.1093
119.288 8817 93.8989
119.405 8471 92.038
119.523 8961 94.6626
119.64 9295 96.4106
119.757 9606 98.0102
119.875 9808 99.0353
119.992 9659 98.2802
120.109 9701 98.4937
120.226 9943 99.7146
120.343 9571 97.8315
120.46 9073 95.2523
120.578 8458 91.9674
120.695 7911 88.9438
120.812 7441 86.2612
120.929 7314 85.5219
121.046 6963 83.4446
121.163 7023 83.8033
121.279 7675 87.6071
121.396 8168 90.377
121.513 8591 92.6876
121.63 8957 94.6414
121.747 9166 95.7392
121.863 9494 97.4372
121.98 9486 97.3961
122.097 9868 99.3378
122.213 9942 99.7096
122.33 9875 99.373
122.446 9914 99.5691
122.563 9733 98.656
122.679 9622 98.0918
122.795 9540 97.6729
122.912 9311 96.4935
123.028 8746 93.5201
123.144 8422 91.7715
123.26 8788 93.7443
123.377 0 1
123.493 0 1
123.609 0 1
123.725 0 1
123.84 0 1
123.956 0 1
124.072 0 1
124.188 0 1
124.303 0 1
124.419 0 1
126.852 0 1
126.968 0 1
127.083 0 1
127.199 0 1
127.315 0 1
127.431 0 1
127.547 0 1
127.663 0 1
127.779 0 1
127.895 0 1
128.011 0 1
128.127 0 1
128.243 0 1
128.359 10338 101.676
128.476 10646 103.179
128.592 11123 105.466
128.708 11770 108.49
128.825 11794 108.6
128.941 11904 109.105
129.058 11697 108.153
129.174 11771 108.494
129.291 11593 107.671
129.408 10817 104.005
129.524 10277 101.376
129.641 9631 98.1377
129.758 9084 95.31
129.875 8750 93.5414
129.992 8517 92.2876
130.108 8934 94.5198
130.225 9306 96.4676
130.342 9918 99.5892
130.459 10229 101.139
130.576 10805 103.947
130.693 11015 104.952
130.81 10988 104.824
130.928 11087 105.295
131.045 11316 106.377
131.162 11634 107.861
131.279 11620 107.796
131.396 11703 108.18
131.513 11542 107.434
131.631 11192 105.792
131.748 11185 105.759
131.865 10586 102.888
131.983 10760 103.73
132.1 11253 106.08
132.217 11374 106.649
132.335 11916 109.16
132.452 11639 107.884
132.57 11822 108.729
132.687 11382 106.686
132.804 12078 109.9
132.922 11117 105.437
133.039 10479 102.367
133.157 9884 99.4183
133.274 9422 97.067
133.392 9105 95.4201
133.509 8617 92.8278
133.627 8956 94.6361
133.744 9138 95.5929
133.862 9413 97.0206
133.979 9980 99.8999
134.097 10201 101
134.214 10651 103.204
134.332 10487 102.406
134.449 10866 104.24
134.567 10902 104.413
134.684 11443 106.972
134.802 11366 106.611
134.919 11398 106.761
135.037 11361 106.588
135.154 11313 106.363
135.272 10909 104.446
135.389 10739 103.629
135.507 10480 102.372
135.624 10855 104.187
135.742 11084 105.281
135.859 11412 106.827
135.977 11584 107.629
136.094 11587 107.643
136.211 11520 107.331
136.329 11555 107.494
136.446 11380 106.677
136.564 10756 103.711
136.681 10264 101.311
136.798 9737 98.6762
136.915 9356 96.7264
137.033 8997 94.8525
137.15 8606 92.7685
137.267 8756 93.5735
137.384 8903 94.3557
137.502 9498 97.4577
137.619 9838 99.1867
137.736 10089 100.444
137.853 10150 100.747
137.97 10576 102.84
138.087 10469 102.318
138.204 10973 104.752
138.321 11281 106.212
138.438 11215 105.901
138.555 11530 107.378
138.672 11528 107.369
138.788 11234 105.991
138.905 11243 106.033
139.022 10928 104.537
139.139 10826 104.048
139.255 10993 104.848
139.372 11481 107.149
139.488 11648 107.926
139.605 11831 108.77
139.721 11725 108.282
139.838 11729 108.301
139.954 11744 108.37
140.071 11375 106.654
140.187 11384 106.696
140.303 10724 103.557
140.419 10137 100.683
140.535 9591 97.9337
140.652 9205 95.9427
140.768 0 1
140.884 0 1
141 0 1
141.115 0 1
141.231 0 1
141.347 0 1
141.463 0 1
141.578 0 1
141.694 0 1
144.104 0 1
144.219 0 1
144.335 0 1
144.45 0 1
144.566 0 1
144.682 0 1
144.798 0 1
144.914 0 1
145.03 0 1
145.146 10627 103.087
145.262 10325 101.612
145.378 9923 99.6143
145.494 9588 97.9183
145.61 9145 95.6295
145.726 9095 95.3677
145.842 8790 93.755
145.959 8990 94.8156
146.075 9274 96.3016
146.192 9392 96.9123
146.308 9814 99.0656
146.425 9949 99.7447
146.541 10246 101.223
146.658 10399 101.975
146.774 10457 102.259
146.891 10760 103.73
147.008 10899 104.398
147.125 11071 105.219
147.241 11325 106.419
147.358 10997 104.867
147.475 10647 103.184
147.592 10250 101.242
147.709 10299 101.484
147.826 10223 101.109
147.943 10705 103.465
148.06 10942 104.604
148.177 11049 105.114
148.294 11030 105.024
148.411 11169 105.683
148.528 11136 105.527
148.645 11109 105.399
148.762 10680 103.344
148.88 10294 101.459
148.997 9716 98.5698
149.114 9653 98.2497
149.231 9338 96.6333
149.349 9105 95.4201
149.466 8474 92.0543
149.583 8678 93.1558
149.701 8626 92.8763
149.818 8996 94.8472
149.935 9160 95.7079
150.053 9497 97.4526
150.17 9577 97.8621
150.287 9698 98.4784
150.405 10064 100.319
150.522 10163 100.812
150.64 10552 102.723
150.757 10579 102.854
150.875 10462 102.284
150.992 10263 101.306
151.11 10186 100.926
151.227 9972 99.8599
151.344 9780 98.8939
151.462 9695 98.4632
151.579 10214 101.064
151.697 10426 102.108
151.814 10801 103.928
151.932 10660 103.247
152.049 10717 103.523
152.167 10717 103.523
152.284 10746 103.663
152.402 10545 102.689
152.519 10039 100.195
152.636 9824 99.1161
152.754 9471 97.3191
152.871 8955 94.6309
152.989 8756 93.5735
153.106 8466 92.0109
153.223 8483 92.1032
153.341 8550 92.4662
153.458 8785 93.7283
153.575 9044 95.0999
153.693 9300 96.4365
153.81 9567 97.811
153.927 9779 98.8888
154.044 10024 100.12
154.162 10047 100.235
154.279 10327 101.622
154.396 10523 102.582
154.513 10717 103.523
154.63 10702 103.45
154.747 10377 101.868
154.864 10249 101.237
154.981 10197 100.98
155.098 10102 100.509
155.215 10232 101.153
155.332 10505 102.494
155.449 10766 103.759
155.566 11016 104.957
155.683 10846 104.144
155.8 10917 104.484
155.917 10631 103.107
156.033 10771 103.783
156.15 0 1
156.267 0 1
156.383 0 1
156.5 0 1
156.617 0 1
156.733 0 1
156.85 0 1
156.966 0 1
157.082 0 1
157.199 0 1
157.315 0 1
157.431 0 1
157.547 0 1
157.664 0 1
157.78 0 1
157.896 0 1
158.012 0 1
158.128 0 1
158.244 0 1
158.359 0 1
158.475 0 1
158.591 0 1
158.706 0 1
