
6.15755 0 1
6.2731 0 1
6.3887 0 1
6.50437 0 1
6.62009 0 1
6.73587 0 1
6.8517 0 1
6.96759 0 1
7.08353 0 1
7.19952 0 1
7.31557 0 1
7.43166 0 1
7.54781 0 1
7.664 0 1
7.78024 0 1
7.89653 0 1
8.01286 0 1
8.12924 0 1
8.24567 0 1
8.36213 0 1
8.47864 0 1
8.59519 0 1
8.71178 0 1
8.82841 0 1
8.94508 0 1
9.06179 0 1
9.17853 0 1
9.29531 0 1
9.41212 0 1
9.52897 0 1
9.64584 0 1
9.76276 0 1
9.8797 0 1
9.99667 0 1
10.1137 0 1
10.2307 0 1
10.3478 0 1
10.4648 0 1
10.5819 0 1
10.6991 0 1
10.8162 0 1
10.9334 0 1
11.0506 0 1
11.1678 0 1
11.285 0 1
11.4023 0 1
11.5196 0 1
11.6369 0 1
11.7542 0 1
11.8715 0 1
11.9888 0 1
12.1062 0 1
12.2235 0 1
12.3409 0 1
12.4582 0 1
12.5756 0 1
12.693 0 1
12.8104 0 1
12.9278 0 1
13.0452 0 1
13.1626 0 1
13.28 0 1
13.3974 0 1
13.5149 0 1
13.6323 0 1
13.7497 0 1
13.8671 0 1
13.9845 0 1
14.1019 0 1
14.2193 0 1
14.3367 0 1
14.4541 0 1
14.5714 0 1
14.6888 0 1
14.8062 0 1
14.9235 0 1
15.0408 0 0
15.1581 0 0
15.2755 0 0
15.3927 0 0
15.51 0 0
15.6273 0 0
15.7445 0 0
15.8617 0 0
15.9789 0 0
16.0961 0 0
16.2132 0 0
16.3304 0 0
16.4475 0 0
16.5646 0 0
16.6816 0 0
16.7986 0 0
16.9156 0 0
17.0326 0 0
17.1496 0 0
17.2665 0 0
17.3833 0 0
17.5002 0 0
17.617 0 0
17.7338 0 0
17.8505 0 0
17.9672 0 0
18.0839 0 0
18.2005 0 0
18.3171 0 0
18.4337 0 0
18.5502 0 0
18.6666 0 0
18.7831 0 0
18.8994 0 0
19.0158 0 0
19.1321 0 0
19.2483 0 0
19.3645 0 0
19.4806 0 0
19.5967 0 0
19.7128 0 0
19.8288 0 0
19.9447 0 0
20.0606 0 1
20.1764 0 1
20.2922 0 1
20.4079 0 1
20.5236 0 1
20.6392 0 1
20.7548 0 1
20.8702 0 1
23.3078 0 1
23.4233 0 1
23.539 0 1
23.6547 0 1
23.7704 0 1
23.8862 0 1
24.0021 0 1
24.118 0 1
24.234 0 1
24.35 0 1
24.4661 426 20.6398
24.5822 561 23.6854
24.6984 591 24.3105
24.8146 640 25.2982
24.9309 651 25.5147
25.0472 708 26.6083
25.1636 743 27.258
25.28 719 26.8142
25.3965 789 28.0891
25.513 851 29.1719
25.6296 853 29.2062
25.7462 959 30.9677
25.8628 980 31.305
25.9795 921 30.348
26.0962 914 30.2324
26.213 965 31.0644
26.3298 968 31.1127
26.4466 950 30.8221
26.5635 829 28.7924
26.6804 835 28.8964
26.7973 843 29.0345
26.9143 850 29.1548
27.0313 820 28.6356
27.1483 862 29.3598
27.2653 977 31.257
27.3824 909 30.1496
27.4996 910 30.1662
27.6167 878 29.6311
27.7339 959 30.9677
27.8511 894 29.8998
27.9683 894 29.8998
28.0855 866 29.4279
28.2028 886 29.7658
28.3201 809 28.4429
28.4374 773 27.8029
28.5547 780 27.9285
28.6721 778 27.8927
28.7894 793 28.1603
28.9068 796 28.2135
29.0242 782 27.9643
29.1416 811 28.4781
29.259 854 29.2233
29.3764 897 29.95
29.4939 885 29.7489
29.6113 905 30.0832
29.7288 907 30.1164
29.8463 931 30.5123
29.9638 882 29.6985
30.0812 858 29.2916
30.1987 852 29.189
30.3162 763 27.6225
30.4337 747 27.3313
30.5512 763 27.6225
30.6687 815 28.5482
30.7862 862 29.3598
30.9037 848 29.1204
31.0212 849 29.1376
31.1387 838 28.9482
31.2562 881 29.6816
31.3737 779 27.9106
31.4912 830 28.8097
31.6087 834 28.8791
31.7262 787 28.0535
31.8436 746 27.313
31.9611 782 27.9643
32.0785 732 27.0555
32.1959 725 26.9258
32.3134 743 27.258
32.4308 683 26.1343
32.5482 766 27.6767
32.6655 792 28.1425
32.7829 766 27.6767
32.9002 806 28.3901
33.0176 842 29.0172
33.1349 845 29.0689
33.2522 867 29.4449
33.3694 872 29.5296
33.4867 922 30.3645
33.6039 813 28.5132
33.7211 888 29.7993
33.8383 776 27.8568
33.9554 747 27.3313
34.0725 691 26.2869
34.1896 758 27.5318
34.3067 742 27.2397
34.4237 832 28.8444
34.5407 783 27.9821
34.6577 772 27.7849
34.7746 820 28.6356
34.8915 786 28.0357
35.0084 776 27.8568
35.1252 816 28.5657
35.242 737 27.1477
35.3587 734 27.0924
35.4755 717 26.7769
35.5921 747 27.3313
35.7088 708 26.6083
35.8254 692 26.3059
35.9419 681 26.096
36.0584 666 25.807
36.1749 638 25.2587
36.2913 618 24.8596
36.4077 610 24.6982
36.524 623 24.96
36.6403 663 25.7488
36.7565 625 25
36.8727 592 24.3311
36.9889 572 23.9165
37.1049 505 22.4722
37.221 0 1
37.3369 0 1
37.4529 0 1
37.5687 0 1
37.6845 0 1
37.8003 0 1
37.916 0 1
38.0316 0 1
38.1472 0 1
40.5851 0 1
40.7008 0 1
40.8164 0 1
40.9322 0 1
41.048 0 1
41.1639 0 1
41.2798 0 1
41.3958 0 1
41.5118 0 1
41.6279 0 1
41.744 425 20.6155
41.8602 487 22.0681
41.9765 509 22.561
42.0928 531 23.0434
42.2091 585 24.1868
42.3255 633 25.1595
42.4419 596 24.4131
42.5584 628 25.0599
42.675 556 23.5797
42.7915 545 23.3452
42.9081 564 23.7487
43.0248 613 24.7588
43.1415 642 25.3377
43.2582 621 24.9199
43.375 641 25.318
43.4918 668 25.8457
43.6087 686 26.1916
43.7256 694 26.3439
43.8425 694 26.3439
43.9595 652 25.5343
44.0765 636 25.219
44.1935 619 24.8797
44.3106 635 25.1992
44.4277 624 24.98
44.5448 548 23.4094
44.6619 544 23.3238
44.7791 524 22.891
44.8963 532 23.0651
45.0136 572 23.9165
45.1308 585 24.1868
45.2481 615 24.7992
45.3654 638 25.2587
45.4827 662 25.7294
45.6001 631 25.1197
45.7174 672 25.923
45.8348 652 25.5343
45.9522 656 25.6125
46.0697 660 25.6905
46.1871 620 24.8998
46.3046 543 23.3024
46.422 528 22.9783
46.5395 581 24.1039
46.657 601 24.5153
46.7745 626 25.02
46.892 629 25.0799
47.0096 658 25.6515
47.1271 628 25.0599
47.2446 688 26.2298
47.3622 671 25.9037
47.4797 660 25.6905
47.5973 664 25.7682
47.7149 672 25.923
47.8324 608 24.6577
47.95 612 24.7386
48.0675 591 24.3105
48.1851 523 22.8692
48.3027 547 23.388
48.4202 589 24.2693
48.5378 564 23.7487
48.6554 583 24.1454
48.7729 590 24.2899
48.8904 666 25.807
49.008 667 25.8263
49.1255 667 25.8263
49.243 628 25.0599
49.3605 615 24.7992
49.478 654 25.5734
49.5955 643 25.3574
49.713 587 24.2281
49.8304 532 23.0651
49.9479 512 22.6274
50.0653 555 23.5584
50.1827 552 23.4947
50.3001 574 23.9583
50.4175 660 25.6905
50.5348 695 26.3629
50.6521 659 25.671
50.7694 662 25.7294
50.8867 659 25.671
51.004 668 25.8457
51.1212 592 24.3311
51.2384 612 24.7386
51.3556 613 24.7588
51.4727 563 23.7276
51.5899 570 23.8747
51.707 540 23.2379
51.824 506 22.4944
51.9411 538 23.1948
52.0581 530 23.0217
52.175 552 23.4947
52.2919 596 24.4131
52.4088 645 25.3969
52.5257 639 25.2784
52.6425 620 24.8998
52.7593 655 25.593
52.876 644 25.3772
52.9927 661 25.7099
53.1094 623 24.96
53.226 560 23.6643
53.3426 568 23.8328
53.4591 482 21.9545
53.5756 484 22
53.692 485 22.0227
53.8084 452 21.2603
53.9248 458 21.4009
54.0411 422 20.5426
54.1573 411 20.2731
54.2735 0 1
54.3896 0 1
54.5057 0 1
54.6217 0 1
54.7377 0 1
54.8537 0 1
54.9695 0 1
55.0853 0 1
55.2011 0 1
55.3168 0 1
55.4324 0 1
57.824 0 1
57.9396 0 1
58.0553 0 1
58.1711 0 1
58.2869 0 1
58.4028 0 1
58.5187 0 1
58.6347 0 1
58.7508 0 1
58.8669 0 1
58.983 434 20.8327
59.0992 543 23.3024
59.2155 594 24.3721
59.3318 610 24.6982
59.4482 651 25.5147
59.5646 725 26.9258
59.681 679 26.0576
59.7975 753 27.4408
59.9141 746 27.313
60.0306 717 26.7769
60.1473 757 27.5136
60.2639 666 25.807
60.3807 632 25.1396
60.4974 636 25.219
60.6142 665 25.7876
60.731 672 25.923
60.8479 671 25.9037
60.9648 730 27.0185
61.0818 798 28.2489
61.1987 730 27.0185
61.3158 722 26.8701
61.4328 731 27.037
61.5499 774 27.8209
61.667 721 26.8514
61.7841 690 26.2679
61.9013 670 25.8844
62.0185 659 25.671
62.1357 657 25.632
62.253 685 26.1725
62.3702 669 25.865
62.4875 695 26.3629
62.6049 813 28.5132
62.7222 777 27.8747
62.8396 797 28.2312
62.9569 816 28.5657
63.0743 811 28.4781
63.1918 781 27.9464
63.3092 765 27.6586
63.4267 714 26.7208
63.5441 728 26.9815
63.6616 636 25.219
63.7791 679 26.0576
63.8966 607 24.6374
64.0142 617 24.8395
64.1317 658 25.6515
64.2492 648 25.4558
64.3668 646 25.4165
64.4843 722 26.8701
64.6019 699 26.4386
64.7195 803 28.3373
64.837 764 27.6405
64.9546 749 27.3679
65.0722 800 28.2843
65.1898 765 27.6586
65.3074 723 26.8887
65.4249 688 26.2298
65.5425 660 25.6905
65.6601 596 24.4131
65.7777 601 24.5153
65.8952 608 24.6577
66.0128 647 25.4362
66.1304 707 26.5895
66.2479 785 28.0179
66.3655 750 27.3861
66.483 749 27.3679
66.6005 780 27.9285
66.718 797 28.2312
66.8355 773 27.8029
66.953 750 27.3861
67.0705 706 26.5707
67.1879 698 26.4197
67.3054 641 25.318
67.4228 600 24.4949
67.5402 573 23.9374
67.6576 593 24.3516
67.7749 593 24.3516
67.8923 538 23.1948
68.0096 675 25.9808
68.1269 679 26.0576
68.2442 714 26.7208
68.3614 750 27.3861
68.4787 693 26.3249
68.5958 718 26.7955
68.713 658 25.6515
68.8302 763 27.6225
68.9473 668 25.8457
69.0643 677 26.0192
69.1814 591 24.3105
69.2984 595 24.3926
69.4154 607 24.6374
69.5323 635 25.1992
69.6492 616 24.8193
69.7661 676 26
69.8829 637 25.2389
69.9997 661 25.7099
70.1165 661 25.7099
70.2332 636 25.219
70.3499 621 24.9199
70.4665 576 24
70.5831 547 23.388
70.6996 537 23.1733
70.8161 466 21.587
70.9326 424 20.5913
71.049 407 20.1742
71.1653 320 17.8885
71.2817 298 17.2627
71.3979 269 16.4012
71.5141 240 15.4919
71.6303 233 15.2643
71.7464 221 14.8661
71.8624 0 1
71.9784 0 1
72.0944 0 1
72.2102 0 1
72.3261 0 1
72.4418 0 1
72.5575 0 1
72.6732 0 1
75.1054 0 1
75.2209 0 1
75.3365 0 1
75.4521 0 1
75.5678 0 1
75.6835 0 1
75.7993 0 1
75.9151 0 1
76.031 0 1
76.147 485 22.0227
76.263 496 22.2711
76.3791 498 22.3159
76.4952 465 21.5639
76.6113 496 22.2711
76.7276 484 22
76.8438 572 23.9165
76.9601 553 23.516
77.0765 608 24.6577
77.1929 646 25.4165
77.3093 679 26.0576
77.4258 674 25.9615
77.5423 629 25.0799
77.6589 675 25.9808
77.7755 717 26.7769
77.8921 710 26.6458
78.0088 611 24.7184
78.1256 596 24.4131
78.2423 553 23.516
78.3591 569 23.8537
78.4759 531 23.0434
78.5928 537 23.1733
78.7097 615 24.7992
78.8266 677 26.0192
78.9436 707 26.5895
79.0606 721 26.8514
79.1776 695 26.3629
79.2946 677 26.0192
79.4117 710 26.6458
79.5288 704 26.533
79.6459 681 26.096
79.7631 641 25.318
79.8802 669 25.865
79.9974 639 25.2784
80.1147 581 24.1039
80.2319 562 23.7065
80.3491 544 23.3238
80.4664 541 23.2594
80.5837 599 24.4745
80.701 640 25.2982
80.8183 699 26.4386
80.9357 668 25.8457
81.053 692 26.3059
81.1704 708 26.6083
81.2877 718 26.7955
81.4051 737 27.1477
81.5225 733 27.074
81.6399 683 26.1343
81.7573 639 25.2784
81.8747 574 23.9583
81.9922 540 23.2379
82.1096 601 24.5153
82.227 622 24.9399
82.3444 650 25.4951
82.4619 693 26.3249
82.5793 696 26.3818
82.6967 735 27.1109
82.8142 699 26.4386
82.9316 750 27.3861
83.049 677 26.0192
83.1664 725 26.9258
83.2838 657 25.632
83.4012 711 26.6646
83.5186 682 26.1151
83.636 675 25.9808
83.7534 598 24.454
83.8708 571 23.8956
83.9881 551 23.4734
84.1055 606 24.6171
84.2228 578 24.0416
84.3401 610 24.6982
84.4575 684 26.1534
84.5747 705 26.5518
84.692 717 26.7769
84.8093 748 27.3496
84.9265 746 27.313
85.0437 742 27.2397
85.1609 669 25.865
85.2781 641 25.318
85.3952 595 24.3926
85.5123 534 23.1084
85.6294 595 24.3926
85.7465 531 23.0434
85.8636 612 24.7386
85.9806 638 25.2587
86.0976 687 26.2107
86.2145 706 26.5707
86.3315 681 26.096
86.4484 776 27.8568
86.5652 779 27.9106
86.682 724 26.9072
86.7988 745 27.2947
86.9156 719 26.8142
87.0323 707 26.5895
87.149 636 25.219
87.2657 615 24.7992
87.3823 534 23.1084
87.4988 489 22.1133
87.6154 484 22
87.7318 473 21.7486
87.8483 496 22.2711
87.9647 510 22.5832
88.081 517 22.7376
88.1973 537 23.1733
88.3136 517 22.7376
88.4298 469 21.6564
88.546 418 20.445
88.6621 387 19.6723
88.7781 338 18.3848
88.8942 0 1
89.0101 0 1
89.126 0 1
89.2419 0 1
89.3577 0 1
89.4734 0 1
89.5891 0 1
89.7047 0 1
89.8203 0 1
89.9358 0 1
92.3269 0 1
92.4424 0 1
92.558 0 1
92.6736 0 1
92.7893 0 1
92.905 0 1
93.0208 0 1
93.1366 0 1
93.2525 0 1
93.3685 0 1
93.4845 0 1
93.6005 700 26.4575
93.7167 728 26.9815
93.8328 745 27.2947
93.949 704 26.533
94.0653 744 27.2764
94.1816 707 26.5895
94.2979 638 25.2587
94.4143 641 25.318
94.5307 623 24.96
94.6472 716 26.7582
94.7637 702 26.4953
94.8803 788 28.0713
94.9969 796 28.2135
95.1135 816 28.5657
95.2302 825 28.7228
95.3469 816 28.5657
95.4637 810 28.4605
95.5805 791 28.1247
95.6973 810 28.4605
95.8142 826 28.7402
95.9311 746 27.313
96.048 634 25.1794
96.1649 620 24.8998
96.2819 634 25.1794
96.3989 736 27.1293
96.516 669 25.865
96.633 718 26.7955
96.7501 793 28.1603
96.8673 818 28.6007
96.9844 778 27.8927
97.1016 769 27.7308
97.2188 836 28.9137
97.336 715 26.7395
97.4532 649 25.4755
97.5704 636 25.219
97.6877 694 26.3439
97.805 541 23.2594
97.9223 649 25.4755
98.0396 680 26.0768
98.1569 715 26.7395
98.2743 731 27.037
98.3916 762 27.6043
98.509 806 28.3901
98.6264 814 28.5307
98.7438 794 28.178
98.8612 830 28.8097
98.9786 824 28.7054
99.096 831 28.8271
99.2134 703 26.5141
99.3308 705 26.5518
99.4482 734 27.0924
99.5656 649 25.4755
99.6831 631 25.1197
99.8005 633 25.1595
99.9179 678 26.0384
100.035 765 27.6586
100.153 788 28.0713
100.27 722 26.8701
100.388 809 28.4429
100.505 806 28.3901
100.622 804 28.3549
100.74 806 28.3901
100.857 739 27.1846
100.975 719 26.8142
101.092 677 26.0192
101.209 642 25.3377
101.327 605 24.5967
101.444 650 25.4951
101.561 667 25.8263
101.679 672 25.923
101.796 732 27.0555
101.913 827 28.7576
102.03 838 28.9482
102.148 833 28.8617
102.265 803 28.3373
102.382 918 30.2985
102.499 852 29.189
102.616 861 29.3428
102.733 821 28.6531
102.851 835 28.8964
102.968 755 27.4773
103.085 833 28.8617
103.202 742 27.2397
103.319 642 25.3377
103.436 704 26.533
103.552 719 26.8142
103.669 869 29.4788
103.786 947 30.7734
103.903 932 30.5287
104.02 1035 32.1714
104.137 1083 32.909
104.253 1097 33.121
104.37 980 31.305
104.487 1059 32.5423
104.603 1008 31.749
104.72 1012 31.8119
104.836 1037 32.2025
104.953 956 30.9192
105.069 980 31.305
105.186 902 30.0333
105.302 952 30.8545
105.418 1004 31.686
105.535 1006 31.7175
105.651 926 30.4302
105.767 921 30.348
105.883 844 29.0517
105.999 687 26.2107
106.115 0 1
106.231 0 1
106.347 0 1
106.463 0 1
106.579 0 1
106.694 0 1
106.81 0 1
106.926 0 1
107.041 0 1
107.157 0 1
109.576 0 1
109.692 0 1
109.807 0 1
109.923 0 1
110.039 0 1
110.155 0 1
110.27 0 1
110.386 0 1
110.502 0 1
110.618 1207 34.7419
110.735 1577 39.7115
110.851 1753 41.8688
110.967 1914 43.7493
111.083 2126 46.1086
111.199 2229 47.2123
111.316 2397 48.9592
111.432 2416 49.1528
111.549 2526 50.2593
111.665 2404 49.0306
111.782 2361 48.5901
111.898 2341 48.3839
112.015 2325 48.2183
112.132 2111 45.9456
112.248 1866 43.1972
112.365 1981 44.5084
112.482 1925 43.8748
112.599 2155 46.422
112.716 2329 48.2597
112.832 2454 49.5379
112.949 2486 49.8598
113.066 2485 49.8498
113.183 2453 49.5278
113.3 2405 49.0408
113.417 2390 48.8876
113.534 2228 47.2017
113.652 2097 45.793
113.769 1950 44.1588
113.886 1818 42.638
114.003 1784 42.2374
114.12 1861 43.1393
114.238 1985 44.5533
114.355 1961 44.2832
114.472 2118 46.0217
114.589 2239 47.3181
114.707 2223 47.1487
114.824 2200 46.9042
114.942 2181 46.7012
115.059 2175 46.6369
115.176 2158 46.4543
115.294 2072 45.5192
115.411 2002 44.7437
115.529 2034 45.0999
115.646 1791 42.3202
115.764 1636 40.4475
115.881 1586 39.8246
115.999 1528 39.0896
116.116 1694 41.1582
116.234 1724 41.5211
116.351 1752 41.8569
116.469 1700 41.2311
116.586 1704 41.2795
116.704 1719 41.4608
116.821 1632 40.398
116.939 1542 39.2683
117.056 1460 38.2099
117.174 1401 37.4299
117.291 1239 35.1994
117.409 1127 33.5708
117.526 1100 33.1662
117.644 1085 32.9393
117.761 1099 33.1512
117.879 1140 33.7639
117.996 1167 34.1614
118.114 1131 33.6303
118.231 1182 34.3802
118.349 1107 33.2716
118.466 1027 32.0468
118.584 1050 32.4037
118.701 992 31.496
118.819 1001 31.6386
118.936 988 31.4325
119.053 902 30.0333
119.171 880 29.6648
119.288 821 28.6531
119.405 743 27.258
119.523 738 27.1662
119.64 701 26.4764
119.757 721 26.8514
119.875 719 26.8142
119.992 820 28.6356
120.109 792 28.1425
120.226 761 27.5862
120.343 744 27.2764
120.46 805 28.3725
120.578 813 28.5132
120.695 759 27.55
120.812 670 25.8844
120.929 752 27.4226
121.046 661 25.7099
121.163 578 24.0416
121.279 577 24.0208
121.396 625 25
121.513 598 24.454
121.63 638 25.2587
121.747 631 25.1197
121.863 634 25.1794
121.98 674 25.9615
122.097 627 25.04
122.213 621 24.9199
122.33 612 24.7386
122.446 601 24.5153
122.563 540 23.2379
122.679 540 23.2379
122.795 482 21.9545
122.912 444 21.0713
123.028 389 19.7231
123.144 350 18.7083
123.26 313 17.6918
123.377 0 1
123.493 0 1
123.609 0 1
123.725 0 1
123.84 0 1
123.956 0 1
124.072 0 1
124.188 0 1
124.303 0 1
124.419 0 1
126.852 0 1
126.968 0 1
127.083 0 1
127.199 0 1
127.315 0 1
127.431 0 1
127.547 0 1
127.663 0 1
127.779 0 1
127.895 0 1
128.011 0 1
128.127 0 1
128.243 0 1
128.359 639 25.2784
128.476 620 24.8998
128.592 613 24.7588
128.708 610 24.6982
128.825 744 27.2764
128.941 706 26.5707
129.058 776 27.8568
129.174 825 28.7228
129.291 763 27.6225
129.408 773 27.8029
129.524 783 27.9821
129.641 720 26.8328
129.758 680 26.0768
129.875 659 25.671
129.992 675 25.9808
130.108 587 24.2281
130.225 604 24.5764
130.342 652 25.5343
130.459 679 26.0576
130.576 657 25.632
130.693 722 26.8701
130.81 753 27.4408
130.928 701 26.4764
131.045 779 27.9106
131.162 783 27.9821
131.279 810 28.4605
131.396 735 27.1109
131.513 755 27.4773
131.631 725 26.9258
131.748 701 26.4764
131.865 700 26.4575
131.983 625 25
132.1 592 24.3311
132.217 684 26.1534
132.335 682 26.1151
132.452 728 26.9815
132.57 744 27.2764
132.687 702 26.4953
132.804 774 27.8209
132.922 751 27.4044
133.039 720 26.8328
133.157 728 26.9815
133.274 722 26.8701
133.392 649 25.4755
133.509 603 24.5561
133.627 633 25.1595
133.744 591 24.3105
133.862 574 23.9583
133.979 626 25.02
134.097 663 25.7488
134.214 726 26.9444
134.332 778 27.8927
134.449 691 26.2869
134.567 732 27.0555
134.684 747 27.3313
134.802 805 28.3725
134.919 757 27.5136
135.037 744 27.2764
135.154 715 26.7395
135.272 677 26.0192
135.389 649 25.4755
135.507 643 25.3574
135.624 575 23.9792
135.742 623 24.96
135.859 668 25.8457
135.977 724 26.9072
136.094 678 26.0384
136.211 756 27.4955
136.329 716 26.7582
136.446 741 27.2213
136.564 721 26.8514
136.681 703 26.5141
136.798 678 26.0384
136.915 650 25.4951
137.033 624 24.98
137.15 691 26.2869
137.267 586 24.2074
137.384 590 24.2899
137.502 616 24.8193
137.619 591 24.3105
137.736 661 25.7099
137.853 710 26.6458
137.97 700 26.4575
138.087 647 25.4362
138.204 699 26.4386
138.321 739 27.1846
138.438 723 26.8887
138.555 736 27.1293
138.672 662 25.7294
138.788 705 26.5518
138.905 660 25.6905
139.022 565 23.7697
139.139 549 23.4307
139.255 542 23.2809
139.372 512 22.6274
139.488 522 22.8473
139.605 565 23.7697
139.721 562 23.7065
139.838 562 23.7065
139.954 494 22.2261
140.071 438 20.9284
140.187 418 20.445
140.303 379 19.4679
140.419 372 19.2873
140.535 382 19.5448
140.652 294 17.1464
140.768 0 1
140.884 0 1
141 0 1
141.115 0 1
141.231 0 1
141.347 0 1
141.463 0 1
141.578 0 1
141.694 0 1
144.104 0 1
144.219 0 1
144.335 0 1
144.45 0 1
144.566 0 1
144.682 0 1
144.798 0 1
144.914 0 1
145.03 0 1
145.146 502 22.4054
145.262 558 23.622
145.378 586 24.2074
145.494 576 24
145.61 557 23.6008
145.726 526 22.9347
145.842 543 23.3024
145.959 561 23.6854
146.075 486 22.0454
146.192 511 22.6053
146.308 522 22.8473
146.425 540 23.2379
146.541 512 22.6274
146.658 532 23.0651
146.774 604 24.5764
146.891 584 24.1661
147.008 587 24.2281
147.125 586 24.2074
147.241 554 23.5372
147.358 611 24.7184
147.475 611 24.7184
147.592 589 24.2693
147.709 553 23.516
147.826 502 22.4054
147.943 498 22.3159
148.06 518 22.7596
148.177 504 22.4499
148.294 559 23.6432
148.411 525 22.9129
148.528 640 25.2982
148.645 538 23.1948
148.762 571 23.8956
148.88 567 23.8118
148.997 567 23.8118
149.114 635 25.1992
149.231 562 23.7065
149.349 547 23.388
149.466 456 21.3542
149.583 526 22.9347
149.701 452 21.2603
149.818 486 22.0454
149.935 530 23.0217
150.053 485 22.0227
150.17 494 22.2261
150.287 558 23.622
150.405 561 23.6854
150.522 548 23.4094
150.64 575 23.9792
150.757 540 23.2379
150.875 548 23.4094
150.992 586 24.2074
151.11 588 24.2487
151.227 528 22.9783
151.344 541 23.2594
151.462 545 23.3452
151.579 532 23.0651
151.697 513 22.6495
151.814 524 22.891
151.932 497 22.2935
152.049 527 22.9565
152.167 589 24.2693
152.284 569 23.8537
152.402 583 24.1454
152.519 566 23.7908
152.636 565 23.7697
152.754 556 23.5797
152.871 554 23.5372
152.989 519 22.7816
153.106 492 22.1811
153.223 459 21.4243
153.341 480 21.9089
153.458 426 20.6398
153.575 455 21.3307
153.693 545 23.3452
153.81 495 22.2486
153.927 464 21.5407
154.044 578 24.0416
154.162 554 23.5372
154.279 521 22.8254
154.396 534 23.1084
154.513 539 23.2164
154.63 588 24.2487
154.747 543 23.3024
154.864 564 23.7487
154.981 560 23.6643
155.098 517 22.7376
155.215 454 21.3073
155.332 496 22.2711
155.449 471 21.7025
155.566 579 24.0624
155.683 534 23.1084
155.8 589 24.2693
155.917 554 23.5372
156.033 536 23.1517
156.15 0 1
156.267 0 1
156.383 0 1
156.5 0 1
156.617 0 1
156.733 0 1
156.85 0 1
156.966 0 1
157.082 0 1
157.199 0 1
157.315 0 1
157.431 0 1
157.547 0 1
157.664 0 1
157.78 0 1
157.896 0 1
158.012 0 1
158.128 0 1
158.244 0 1
158.359 0 1
158.475 0 1
158.591 0 1
158.706 0 1
