
6.15755 0 1
6.2731 0 1
6.3887 0 1
6.50437 0 1
6.62009 0 1
6.73587 0 1
6.8517 0 1
6.96759 0 1
7.08353 0 1
7.19952 0 1
7.31557 0 1
7.43166 0 1
7.54781 0 1
7.664 0 1
7.78024 0 1
7.89653 0 1
8.01286 0 1
8.12924 0 1
8.24567 0 1
8.36213 0 1
8.47864 0 1
8.59519 0 1
8.71178 0 1
8.82841 0 1
8.94508 0 1
9.06179 0 1
9.17853 0 1
9.29531 0 1
9.41212 0 1
9.52897 0 1
9.64584 0 1
9.76276 0 1
9.8797 0 1
9.99667 0 1
10.1137 0 1
10.2307 0 1
10.3478 0 1
10.4648 0 1
10.5819 0 1
10.6991 0 1
10.8162 0 1
10.9334 0 1
11.0506 0 1
11.1678 0 1
11.285 0 1
11.4023 0 1
11.5196 0 1
11.6369 0 1
11.7542 0 1
11.8715 0 1
11.9888 0 1
12.1062 0 1
12.2235 0 1
12.3409 0 1
12.4582 0 1
12.5756 0 1
12.693 0 1
12.8104 0 1
12.9278 0 1
13.0452 0 1
13.1626 0 1
13.28 0 1
13.3974 0 1
13.5149 0 1
13.6323 0 1
13.7497 0 1
13.8671 0 1
13.9845 0 1
14.1019 0 1
14.2193 0 1
14.3367 0 1
14.4541 0 1
14.5714 0 1
14.6888 0 1
14.8062 0 1
14.9235 0 1
15.0408 44907 211.913
15.1581 47059 216.931
15.2755 48905 221.145
15.3927 49360 222.171
15.51 48778 220.857
15.6273 47577 218.122
15.7445 46256 215.072
15.8617 45548 213.42
15.9789 45943 214.343
16.0961 46136 214.793
16.2132 46815 216.368
16.3304 47461 217.855
16.4475 47060 216.933
16.5646 46382 215.365
16.6816 46367 215.33
16.7986 45338 212.927
16.9156 44933 211.974
17.0326 44729 211.492
17.1496 44599 211.185
17.2665 43956 209.657
17.3833 43579 208.756
17.5002 43359 208.228
17.617 43711 209.072
17.7338 43477 208.511
17.8505 42701 206.642
17.9672 42208 205.446
18.0839 42303 205.677
18.2005 41660 204.108
18.3171 42102 205.188
18.4337 42418 205.956
18.5502 43865 209.44
18.6666 44587 211.156
18.7831 45025 212.191
18.8994 45068 212.292
19.0158 43613 208.837
19.1321 42484 206.116
19.2483 41176 202.919
19.3645 39776 199.439
19.4806 39335 198.331
19.5967 38213 195.481
19.7128 37697 194.157
19.8288 35087 187.315
19.9447 31349 177.056
20.0606 0 1
20.1764 0 1
20.2922 0 1
20.4079 0 1
20.5236 0 1
20.6392 0 1
20.7548 0 1
20.8702 0 1
23.3078 0 1
23.4233 0 1
23.539 0 1
23.6547 0 1
23.7704 0 1
23.8862 0 1
24.0021 0 1
24.118 0 1
24.234 0 1
24.35 0 1
24.4661 16160 127.122
24.5822 19262 138.788
24.6984 22736 150.785
24.8146 27104 164.633
24.9309 31542 177.601
25.0472 35365 188.056
25.1636 38892 197.211
25.28 42417 205.954
25.3965 44855 211.79
25.513 46829 216.4
25.6296 48745 220.783
25.7462 48682 220.64
25.8628 48677 220.629
25.9795 49172 221.748
26.0962 48749 220.792
26.213 48733 220.756
26.3298 48208 219.563
26.4466 46680 216.056
26.5635 44912 211.925
26.6804 44082 209.957
26.7973 43201 207.849
26.9143 42490 206.131
27.0313 41448 203.588
27.1483 42508 206.175
27.2653 43057 207.502
27.3824 44298 210.471
27.4996 44548 211.064
27.6167 43382 208.283
27.7339 42013 204.971
27.8511 41375 203.408
27.9683 40427 201.065
28.0855 40956 202.376
28.2028 42603 206.405
28.3201 42743 206.744
28.4374 44102 210.005
28.5547 44784 211.622
28.6721 45864 214.159
28.7894 46059 214.614
28.9068 46299 215.172
29.0242 46746 216.208
29.1416 46376 215.351
29.259 46549 215.752
29.3764 46495 215.627
29.4939 46618 215.912
29.6113 46486 215.606
29.7288 46411 215.432
29.8463 45289 212.812
29.9638 45210 212.626
30.0812 44137 210.088
30.1987 43305 208.099
30.3162 41927 204.761
30.4337 40611 201.522
30.5512 39997 199.992
30.6687 40064 200.16
30.7862 40565 201.408
30.9037 41746 204.318
31.0212 42340 205.767
31.1387 42157 205.322
31.2562 40942 202.341
31.3737 40259 200.646
31.4912 39459 198.643
31.6087 40221 200.552
31.7262 41345 203.335
31.8436 41843 204.556
31.9611 42672 206.572
32.0785 43326 208.149
32.1959 43733 209.124
32.3134 43903 209.53
32.4308 43648 208.921
32.5482 44270 210.404
32.6655 44050 209.881
32.7829 43906 209.538
32.9002 43936 209.609
33.0176 44292 210.457
33.1349 43947 209.635
33.2522 44103 210.007
33.3694 43979 209.712
33.4867 43418 208.37
33.6039 43051 207.487
33.7211 42200 205.426
33.8383 40947 202.354
33.9554 39511 198.774
34.0725 38989 197.456
34.1896 37922 194.736
34.3067 37446 193.51
34.4237 38021 194.99
34.5407 39175 197.927
34.6577 39574 198.932
34.7746 39739 199.346
34.8915 38460 196.112
35.0084 37583 193.863
35.1252 37151 192.746
35.242 37183 192.829
35.3587 38819 197.025
35.4755 39776 199.439
35.5921 40947 202.354
35.7088 41449 203.59
35.8254 42299 205.667
35.9419 42394 205.898
36.0584 42627 206.463
36.1749 42601 206.4
36.2913 42300 205.67
36.4077 41320 203.273
36.524 40090 200.225
36.6403 38323 195.763
36.7565 36548 191.175
36.8727 33665 183.48
36.9889 30355 174.227
37.1049 27431 165.623
37.221 0 1
37.3369 0 1
37.4529 0 1
37.5687 0 1
37.6845 0 1
37.8003 0 1
37.916 0 1
38.0316 0 1
38.1472 0 1
40.5851 0 1
40.7008 0 1
40.8164 0 1
40.9322 0 1
41.048 0 1
41.1639 0 1
41.2798 0 1
41.3958 0 1
41.5118 0 1
41.6279 0 1
41.744 17076 130.675
41.8602 20518 143.241
41.9765 24271 155.792
42.0928 27448 165.674
42.2091 30204 173.793
42.3255 32411 180.031
42.4419 33573 183.229
42.5584 34201 184.935
42.675 33429 182.836
42.7915 32889 181.353
42.9081 31808 178.348
43.0248 31364 177.099
43.1415 31145 176.479
43.2582 31006 176.085
43.375 32045 179.011
43.4918 33225 182.277
43.6087 33387 182.721
43.7256 32273 179.647
43.8425 31643 177.885
43.9595 31174 176.562
44.0765 31457 177.361
44.1935 32583 180.508
44.3106 33136 182.033
44.4277 34135 184.757
44.5448 34628 186.086
44.6619 34408 185.494
44.7791 34980 187.029
44.8963 34802 186.553
45.0136 35502 188.42
45.1308 35625 188.746
45.2481 35506 188.43
45.3654 35624 188.743
45.4827 35322 187.941
45.6001 35447 188.274
45.7174 35288 187.851
45.8348 35017 187.128
45.9522 34965 186.989
46.0697 34813 186.582
46.1871 34502 185.747
46.3046 33541 183.142
46.422 32945 181.508
46.5395 31674 177.972
46.657 31335 177.017
46.7745 31125 176.423
46.892 31715 178.087
47.0096 32944 181.505
47.1271 33789 183.818
47.2446 33423 182.82
47.3622 32678 180.771
47.4797 32204 179.455
47.5973 32354 179.872
47.7149 32620 180.61
47.8324 33963 184.291
47.95 34772 186.473
48.0675 35239 187.721
48.1851 34796 186.537
48.3027 35101 187.353
48.4202 35124 187.414
48.5378 35195 187.603
48.6554 35087 187.315
48.7729 35437 188.247
48.8904 35400 188.149
49.008 35286 187.846
49.1255 35000 187.083
49.243 34903 186.823
49.3605 34487 185.707
49.478 34696 186.269
49.5955 34216 184.976
49.713 33249 182.343
49.8304 32568 180.466
49.9479 31758 178.208
50.0653 30391 174.33
50.1827 29356 171.336
50.3001 28792 169.682
50.4175 29519 171.811
50.5348 30034 173.303
50.6521 31344 177.042
50.7694 31278 176.856
50.8867 31169 176.547
51.004 31078 176.29
51.1212 31642 177.882
51.2384 32596 180.544
51.3556 33761 183.742
51.4727 33839 183.954
51.5899 34237 185.032
51.707 34503 185.75
51.824 34057 184.545
51.9411 34275 185.135
52.0581 34129 184.74
52.175 34546 185.866
52.2919 34198 184.927
52.4088 34453 185.615
52.5257 34660 186.172
52.6425 34547 185.868
52.7593 34114 184.7
52.876 34375 185.405
52.9927 34342 185.316
53.1094 34051 184.529
53.226 34154 184.808
53.3426 33861 184.014
53.4591 32972 181.582
53.5756 31990 178.857
53.692 29827 172.705
53.8084 26969 164.222
53.9248 24067 155.135
54.0411 21217 145.661
54.1573 18837 137.248
54.2735 0 1
54.3896 0 1
54.5057 0 1
54.6217 0 1
54.7377 0 1
54.8537 0 1
54.9695 0 1
55.0853 0 1
55.2011 0 1
55.3168 0 1
55.4324 0 1
57.824 0 1
57.9396 0 1
58.0553 0 1
58.1711 0 1
58.2869 0 1
58.4028 0 1
58.5187 0 1
58.6347 0 1
58.7508 0 1
58.8669 0 1
58.983 21296 145.931
59.0992 23941 154.729
59.2155 26823 163.777
59.3318 30151 173.64
59.4482 32728 180.909
59.5646 35962 189.636
59.681 38596 196.459
59.7975 40144 200.36
59.9141 41045 202.596
60.0306 42328 205.738
60.1473 42823 206.937
60.2639 43723 209.1
60.3807 43753 209.172
60.4974 43750 209.165
60.6142 43429 208.396
60.731 43764 209.198
60.8479 42916 207.162
60.9648 42373 205.847
61.0818 42580 206.349
61.1987 42505 206.167
61.3158 42584 206.359
61.4328 42520 206.204
61.5499 41781 204.404
61.667 42055 205.073
61.7841 41623 204.017
61.9013 41622 204.015
62.0185 41623 204.017
62.1357 41112 202.761
62.253 40448 201.117
62.3702 39251 198.119
62.4875 38623 196.527
62.6049 38038 195.033
62.7222 39027 197.553
62.8396 40565 201.408
62.9569 41208 202.998
63.0743 41260 203.126
63.1918 40690 201.718
63.3092 41191 202.956
63.4267 41621 204.012
63.5441 42162 205.334
63.6616 43424 208.384
63.7791 42749 206.758
63.8966 42794 206.867
64.0142 42997 207.357
64.1317 42217 205.468
64.2492 41949 204.815
64.3668 41321 203.276
64.4843 41171 202.906
64.6019 41273 203.158
64.7195 40912 202.267
64.837 40782 201.946
64.9546 40652 201.623
65.0722 40501 201.249
65.1898 40634 201.579
65.3074 39819 199.547
65.4249 40388 200.968
65.5425 40063 200.157
65.6601 39933 199.832
65.7777 39494 198.731
65.8952 38545 196.329
66.0128 37553 193.786
66.1304 36872 192.021
66.2479 36447 190.911
66.3655 37624 193.969
66.483 39023 197.542
66.6005 39628 199.068
66.718 39026 197.55
66.8355 38809 197
66.953 39618 199.043
67.0705 40123 200.307
67.1879 40549 201.368
67.3054 41445 203.58
67.4228 40343 200.856
67.5402 39917 199.792
67.6576 38930 197.307
67.7749 38748 196.845
67.8923 39123 197.795
68.0096 38482 196.168
68.1269 38790 196.952
68.2442 38939 197.33
68.3614 38601 196.471
68.4787 38769 196.898
68.5958 38698 196.718
68.713 38563 196.375
68.8302 38496 196.204
68.9473 38296 195.694
69.0643 38011 194.964
69.1814 38178 195.392
69.2984 38299 195.701
69.4154 37900 194.679
69.5323 37315 193.171
69.6492 36370 190.709
69.7661 35888 189.441
69.8829 35259 187.774
69.9997 36328 190.599
70.1165 36956 192.239
70.2332 37365 193.3
70.3499 36314 190.562
70.4665 34480 185.688
70.5831 32584 180.51
70.6996 31040 176.182
70.8161 28517 168.87
70.9326 26382 162.425
71.049 23947 154.748
71.1653 21663 147.184
71.2817 20180 142.056
71.3979 18487 135.967
71.5141 17345 131.7
71.6303 16172 127.169
71.7464 13965 118.174
71.8624 0 1
71.9784 0 1
72.0944 0 1
72.2102 0 1
72.3261 0 1
72.4418 0 1
72.5575 0 1
72.6732 0 1
75.1054 0 1
75.2209 0 1
75.3365 0 1
75.4521 0 1
75.5678 0 1
75.6835 0 1
75.7993 0 1
75.9151 0 1
76.031 0 1
76.147 21752 147.486
76.263 26372 162.395
76.3791 29113 170.625
76.4952 30468 174.551
76.6113 30288 174.034
76.7276 30036 173.309
76.8438 30408 174.379
76.9601 30668 175.123
77.0765 30103 173.502
77.1929 31464 177.381
77.3093 31762 178.219
77.4258 31643 177.885
77.5423 31515 177.525
77.6589 31532 177.573
77.7755 31511 177.513
77.8921 31156 176.511
78.0088 30734 175.311
78.1256 30622 174.991
78.2423 30757 175.377
78.3591 30578 174.866
78.4759 31622 177.826
78.5928 30978 176.006
78.7097 31096 176.341
78.8266 30777 175.434
78.9436 30883 175.736
79.0606 30979 176.009
79.1776 31933 178.698
79.2946 33365 182.661
79.4117 33845 183.97
79.5288 33920 184.174
79.6459 34788 186.515
79.7631 35513 188.449
79.8802 35563 188.582
79.9974 35578 188.621
80.1147 34785 186.507
80.2319 33788 183.815
80.3491 32977 181.596
80.4664 33668 183.488
80.5837 34305 185.216
80.701 35958 189.626
80.8183 38296 195.694
80.9357 39711 199.276
81.053 40497 201.239
81.1704 41000 202.485
81.2877 41820 204.499
81.4051 41708 204.225
81.5225 40826 202.054
81.6399 41048 202.603
81.7573 39114 197.773
81.8747 38581 196.42
81.9922 38135 195.282
82.1096 39746 199.364
82.227 40829 202.062
82.3444 41797 204.443
82.4619 42914 207.157
82.5793 43659 208.947
82.6967 42601 206.4
82.8142 43740 209.141
82.9316 44324 210.533
83.049 43963 209.674
83.1664 43558 208.706
83.2838 42111 205.21
83.4012 41967 204.858
83.5186 41542 203.819
83.636 40260 200.649
83.7534 38277 195.645
83.8708 36132 190.084
83.9881 33232 182.296
84.1055 32287 179.686
84.2228 33331 182.568
84.3401 34797 186.54
84.4575 36381 190.738
84.5747 38726 196.789
84.692 39562 198.902
84.8093 39432 198.575
84.9265 38984 197.444
85.0437 38110 195.218
85.1609 36551 191.183
85.2781 33691 183.551
85.3952 32239 179.552
85.5123 31443 177.322
85.6294 31013 176.105
85.7465 32825 181.177
85.8636 34116 184.705
85.9806 34591 185.987
86.0976 35488 188.383
86.2145 35069 187.267
86.3315 35657 188.831
86.4484 36760 191.729
86.5652 36489 191.021
86.682 35948 189.6
86.7988 34765 186.454
86.9156 34302 185.208
87.0323 33884 184.076
87.149 34015 184.432
87.2657 33523 183.093
87.3823 31970 178.802
87.4988 29729 172.421
87.6154 28770 169.617
87.7318 28053 167.49
87.8483 27195 164.909
87.9647 26222 161.932
88.081 25120 158.493
88.1973 23451 153.137
88.3136 21630 147.071
88.4298 19693 140.332
88.546 18459 135.864
88.6621 17116 130.828
88.7781 15182 123.215
88.8942 0 1
89.0101 0 1
89.126 0 1
89.2419 0 1
89.3577 0 1
89.4734 0 1
89.5891 0 1
89.7047 0 1
89.8203 0 1
89.9358 0 1
92.3269 0 1
92.4424 0 1
92.558 0 1
92.6736 0 1
92.7893 0 1
92.905 0 1
93.0208 0 1
93.1366 0 1
93.2525 0 1
93.3685 0 1
93.4845 0 1
93.6005 19833 140.83
93.7167 23645 153.769
93.8328 26499 162.785
93.949 28467 168.722
94.0653 29694 172.319
94.1816 29738 172.447
94.2979 29770 172.54
94.4143 29745 172.467
94.5307 30063 173.387
94.6472 29958 173.084
94.7637 30529 174.725
94.8803 30633 175.023
94.9969 31050 176.21
95.1135 30944 175.909
95.2302 30861 175.673
95.3469 30088 173.459
95.4637 30216 173.828
95.5805 30377 174.29
95.6973 30365 174.256
95.8142 30680 175.157
95.9311 29258 171.05
96.048 28772 169.623
96.1649 29410 171.493
96.2819 30198 173.776
96.3989 31011 176.099
96.516 31203 176.644
96.633 31813 178.362
96.7501 31874 178.533
96.8673 31721 178.104
96.9844 31583 177.716
97.1016 31341 177.034
97.2188 31360 177.088
97.336 31698 178.039
97.4532 31968 178.796
97.5704 32324 179.789
97.6877 32382 179.95
97.805 32227 179.519
97.9223 32366 179.906
98.0396 32371 179.919
98.1569 32204 179.455
98.2743 32231 179.53
98.3916 31994 178.869
98.509 32338 179.828
98.6264 33144 182.055
98.7438 32786 181.069
98.8612 32475 180.208
98.9786 31859 178.491
99.096 31365 177.102
99.2134 31931 178.692
99.3308 33373 182.683
99.4482 34285 185.162
99.5656 34340 185.311
99.6831 34032 184.478
99.8005 34397 185.464
99.9179 34739 186.384
100.035 35116 187.393
100.153 35328 187.957
100.27 35546 188.536
100.388 35227 187.689
100.505 34206 184.949
100.622 33968 184.304
100.74 33751 183.714
100.857 34046 184.516
100.975 34081 184.61
101.092 34761 186.443
101.209 34689 186.25
101.327 34894 186.799
101.444 34764 186.451
101.561 35143 187.465
101.679 35352 188.021
101.796 34881 186.765
101.913 34916 186.858
102.03 34901 186.818
102.148 35544 188.531
102.265 34927 186.888
102.382 35689 188.915
102.499 34983 187.037
102.616 34548 185.871
102.733 35039 187.187
102.851 36034 189.826
102.968 37237 192.969
103.085 36998 192.349
103.202 36464 190.955
103.319 36729 191.648
103.436 36696 191.562
103.552 37213 192.907
103.669 37791 194.399
103.786 37833 194.507
103.903 37489 193.621
104.02 36687 191.539
104.137 36612 191.343
104.253 36021 189.792
104.37 37364 193.298
104.487 37100 192.614
104.603 37377 193.331
104.72 37805 194.435
104.836 37260 193.028
104.953 37421 193.445
105.069 36961 192.252
105.186 36902 192.099
105.302 35285 187.843
105.418 32986 181.62
105.535 29173 170.801
105.651 25553 159.853
105.767 22214 149.044
105.883 20265 142.355
105.999 18688 136.704
106.115 0 1
106.231 0 1
106.347 0 1
106.463 0 1
106.579 0 1
106.694 0 1
106.81 0 1
106.926 0 1
107.041 0 1
107.157 0 1
109.576 0 1
109.692 0 1
109.807 0 1
109.923 0 1
110.039 0 1
110.155 0 1
110.27 0 1
110.386 0 1
110.502 0 1
110.618 18110 134.573
110.735 22353 149.509
110.851 25472 159.599
110.967 27316 165.276
111.083 28847 169.844
111.199 29920 172.974
111.316 32032 178.975
111.432 32936 181.483
111.549 33048 181.791
111.665 32343 179.842
111.782 31801 178.328
111.898 31604 177.775
112.015 31848 178.46
112.132 32336 179.822
112.248 32297 179.714
112.365 32548 180.411
112.482 32283 179.675
112.599 33182 182.159
112.716 32852 181.251
112.832 32396 179.989
112.949 31765 178.227
113.066 31795 178.312
113.183 32192 179.421
113.3 32614 180.593
113.417 32186 179.405
113.534 32333 179.814
113.652 32350 179.861
113.769 31932 178.695
113.886 31860 178.494
114.003 32089 179.134
114.12 32097 179.156
114.238 32196 179.432
114.355 32545 180.402
114.472 30593 174.909
114.589 33152 182.077
114.707 32325 179.792
114.824 32930 181.466
114.942 33252 182.351
115.059 34185 184.892
115.176 34010 184.418
115.294 32975 181.59
115.411 32269 179.636
115.529 32232 179.533
115.646 32206 179.46
115.764 32085 179.123
115.881 32418 180.05
115.999 32591 180.53
116.116 32247 179.574
116.234 32267 179.63
116.351 32006 178.902
116.469 32270 179.639
116.586 31815 178.368
116.704 32054 179.036
116.821 32455 180.153
116.939 32310 179.75
117.056 32245 179.569
117.174 32605 180.569
117.291 32427 180.075
117.409 32550 180.416
117.526 32685 180.79
117.644 32318 179.772
117.761 32874 181.312
117.879 32842 181.224
117.996 32245 179.569
118.114 32805 181.122
118.231 33122 181.995
118.349 32669 180.746
118.466 32964 181.56
118.584 33925 184.187
118.701 34427 185.545
118.819 32982 181.609
118.936 32053 179.034
119.053 31219 176.689
119.171 31098 176.346
119.288 30383 174.307
119.405 31133 176.445
119.523 30939 175.895
119.64 31522 177.544
119.757 31147 176.485
119.875 30863 175.679
119.992 30767 175.405
120.109 30310 174.098
120.226 30702 175.22
120.343 30803 175.508
120.46 30916 175.829
120.578 30995 176.054
120.695 30933 175.878
120.812 31146 176.482
120.929 30718 175.266
121.046 31325 176.989
121.163 30946 175.915
121.279 30900 175.784
121.396 31150 176.494
121.513 31470 177.398
121.63 30974 175.994
121.747 30811 175.531
121.863 29718 172.389
121.98 29524 171.825
122.097 29299 171.17
122.213 27632 166.229
122.33 26580 163.034
122.446 24441 156.336
122.563 22210 149.03
122.679 20159 141.982
122.795 18683 136.686
122.912 17157 130.985
123.028 16687 129.178
123.144 15987 126.44
123.26 15577 124.808
123.377 0 1
123.493 0 1
123.609 0 1
123.725 0 1
123.84 0 1
123.956 0 1
124.072 0 1
124.188 0 1
124.303 0 1
124.419 0 1
126.852 0 1
126.968 0 1
127.083 0 1
127.199 0 1
127.315 0 1
127.431 0 1
127.547 0 1
127.663 0 1
127.779 0 1
127.895 0 1
128.011 0 1
128.127 0 1
128.243 0 1
128.359 31052 176.216
128.476 32240 179.555
128.592 32958 181.543
128.708 33758 183.734
128.825 34143 184.778
128.941 34510 185.769
129.058 34217 184.978
129.174 34544 185.86
129.291 34752 186.419
129.408 34597 186.003
129.524 34525 185.809
129.641 34809 186.572
129.758 34800 186.548
129.875 34807 186.566
129.992 34874 186.746
130.108 34689 186.25
130.225 34612 186.043
130.342 34546 185.866
130.459 33831 183.932
130.576 34662 186.177
130.693 33479 182.973
130.81 32415 180.042
130.928 31941 178.72
131.045 31792 178.303
131.162 32007 178.905
131.279 32575 180.485
131.396 33265 182.387
131.513 32475 180.208
131.631 31764 178.225
131.748 30683 175.166
131.865 30296 174.057
131.983 30492 174.62
132.1 31001 176.071
132.217 31615 177.806
132.335 32417 180.047
132.452 32464 180.178
132.57 33006 181.676
132.687 33424 182.822
132.804 33037 181.761
132.922 32895 181.37
133.039 33259 182.371
133.157 33371 182.677
133.274 33522 183.09
133.392 33724 183.641
133.509 33689 183.546
133.627 34028 184.467
133.744 34093 184.643
133.862 33109 181.959
133.979 33257 182.365
134.097 32690 180.804
134.214 32349 179.858
134.332 31032 176.159
134.449 30245 173.911
134.567 29935 173.017
134.684 30397 174.347
134.802 30868 175.693
134.919 31175 176.564
135.037 30798 175.494
135.154 30121 173.554
135.272 29154 170.745
135.389 29131 170.678
135.507 28962 170.182
135.624 29868 172.824
135.742 30042 173.326
135.859 31168 176.545
135.977 31801 178.328
136.094 32396 179.989
136.211 32428 180.078
136.329 32828 181.185
136.446 33010 181.687
136.564 32772 181.03
136.681 33608 183.325
136.798 32778 181.047
136.915 33692 183.554
137.033 33594 183.287
137.15 33551 183.169
137.267 33377 182.694
137.384 33159 182.096
137.502 32621 180.613
137.619 31934 178.701
137.736 31630 177.848
137.853 29325 171.245
137.97 29490 171.727
138.087 28529 168.905
138.204 28839 169.82
138.321 29002 170.3
138.438 29574 171.971
138.555 30318 174.121
138.672 30070 173.407
138.788 29241 171
138.905 28529 168.905
139.022 27912 167.069
139.139 27947 167.174
139.255 26869 163.918
139.372 26331 162.268
139.488 25749 160.465
139.605 24389 156.17
139.721 23579 153.555
139.838 22086 148.614
139.954 21241 145.743
140.071 20176 142.042
140.187 19118 138.268
140.303 18447 135.82
140.419 17794 133.394
140.535 17199 131.145
140.652 16614 128.895
140.768 0 1
140.884 0 1
141 0 1
141.115 0 1
141.231 0 1
141.347 0 1
141.463 0 1
141.578 0 1
141.694 0 1
144.104 0 1
144.219 0 1
144.335 0 1
144.45 0 1
144.566 0 1
144.682 0 1
144.798 0 1
144.914 0 1
145.03 0 1
145.146 23077 151.911
145.262 24838 157.601
145.378 25698 160.306
145.494 25843 160.758
145.61 26209 161.892
145.726 26645 163.233
145.842 26800 163.707
145.959 26728 163.487
146.075 26713 163.441
146.192 26468 162.69
146.308 26124 161.629
146.425 25984 161.196
146.541 25152 158.594
146.658 24946 157.943
146.774 24367 156.099
146.891 24339 156.01
147.008 24863 157.68
147.125 25200 158.745
147.241 25507 159.709
147.358 26448 162.628
147.475 26033 161.347
147.592 26411 162.515
147.709 25468 159.587
147.826 25781 160.565
147.943 25280 158.997
148.06 25565 159.891
148.177 25712 160.35
148.294 25943 161.068
148.411 26512 162.825
148.528 27183 164.873
148.645 28270 168.137
148.762 28727 169.49
148.88 28975 170.22
148.997 30066 173.396
149.114 29346 171.307
149.231 30033 173.3
149.349 30147 173.629
149.466 30228 173.862
149.583 30452 174.505
149.701 29687 172.299
149.818 29383 171.415
149.935 29076 170.517
150.053 28256 168.095
150.17 27797 166.724
150.287 27942 167.159
150.405 26787 163.667
150.522 27165 164.818
150.64 27593 166.111
150.757 27854 166.895
150.875 28509 168.846
150.992 28613 169.154
151.11 28671 169.325
151.227 28010 167.362
151.344 27615 166.178
151.462 27390 165.499
151.579 27267 165.127
151.697 26817 163.759
151.814 26870 163.921
151.932 27198 164.918
152.049 27312 165.263
152.167 27961 167.215
152.284 28346 168.363
152.402 29273 171.094
152.519 29572 171.965
152.636 29752 172.488
152.754 30248 173.92
152.871 30265 173.968
152.989 30365 174.256
153.106 30560 174.814
153.223 29915 172.96
153.341 29601 172.049
153.458 28983 170.244
153.575 28223 167.997
153.693 27720 166.493
153.81 27105 164.636
153.927 27294 165.209
154.044 26678 163.334
154.162 27789 166.7
154.279 27700 166.433
154.396 28914 170.041
154.513 28979 170.232
154.63 29582 171.994
154.747 29542 171.878
154.864 28692 169.387
154.981 28389 168.49
155.098 27611 166.166
155.215 27249 165.073
155.332 26780 163.646
155.449 27231 165.018
155.566 27068 164.524
155.683 27255 165.091
155.8 27478 165.765
155.917 27894 167.015
156.033 28113 167.669
156.15 0 1
156.267 0 1
156.383 0 1
156.5 0 1
156.617 0 1
156.733 0 1
156.85 0 1
156.966 0 1
157.082 0 1
157.199 0 1
157.315 0 1
157.431 0 1
157.547 0 1
157.664 0 1
157.78 0 1
157.896 0 1
158.012 0 1
158.128 0 1
158.244 0 1
158.359 0 1
158.475 0 1
158.591 0 1
158.706 0 1
