
6.15755 0 1
6.2731 0 1
6.3887 0 1
6.50437 0 1
6.62009 0 1
6.73587 0 1
6.8517 0 1
6.96759 0 1
7.08353 0 1
7.19952 0 1
7.31557 0 1
7.43166 0 1
7.54781 0 1
7.664 0 1
7.78024 0 1
7.89653 0 1
8.01286 0 1
8.12924 0 1
8.24567 0 1
8.36213 0 1
8.47864 0 1
8.59519 0 1
8.71178 0 1
8.82841 0 1
8.94508 0 1
9.06179 0 1
9.17853 0 1
9.29531 0 1
9.41212 0 1
9.52897 0 1
9.64584 0 1
9.76276 0 1
9.8797 0 1
9.99667 0 1
10.1137 0 1
10.2307 0 1
10.3478 0 1
10.4648 0 1
10.5819 0 1
10.6991 0 1
10.8162 0 1
10.9334 0 1
11.0506 0 1
11.1678 0 1
11.285 0 1
11.4023 0 1
11.5196 0 1
11.6369 0 1
11.7542 0 1
11.8715 0 1
11.9888 0 1
12.1062 0 1
12.2235 0 1
12.3409 0 1
12.4582 0 1
12.5756 0 1
12.693 0 1
12.8104 0 1
12.9278 0 1
13.0452 0 1
13.1626 0 1
13.28 0 1
13.3974 0 1
13.5149 0 1
13.6323 0 1
13.7497 0 1
13.8671 0 1
13.9845 0 1
14.1019 0 1
14.2193 0 1
14.3367 0 1
14.4541 0 1
14.5714 0 1
14.6888 0 1
14.8062 0 1
14.9235 0 1
15.0408 548 23.4094
15.1581 565 23.7697
15.2755 616 24.8193
15.3927 604 24.5764
15.51 606 24.6171
15.6273 597 24.4336
15.7445 561 23.6854
15.8617 551 23.4734
15.9789 543 23.3024
16.0961 566 23.7908
16.2132 582 24.1247
16.3304 576 24
16.4475 557 23.6008
16.5646 601 24.5153
16.6816 606 24.6171
16.7986 635 25.1992
16.9156 653 25.5539
17.0326 617 24.8395
17.1496 629 25.0799
17.2665 617 24.8395
17.3833 577 24.0208
17.5002 621 24.9199
17.617 549 23.4307
17.7338 532 23.0651
17.8505 532 23.0651
17.9672 493 22.2036
18.0839 534 23.1084
18.2005 568 23.8328
18.3171 610 24.6982
18.4337 599 24.4745
18.5502 594 24.3721
18.6666 593 24.3516
18.7831 614 24.779
18.8994 652 25.5343
19.0158 600 24.4949
19.1321 574 23.9583
19.2483 538 23.1948
19.3645 505 22.4722
19.4806 489 22.1133
19.5967 419 20.4695
19.7128 418 20.445
19.8288 381 19.5192
19.9447 342 18.4932
20.0606 0 1
20.1764 0 1
20.2922 0 1
20.4079 0 1
20.5236 0 1
20.6392 0 1
20.7548 0 1
20.8702 0 1
23.3078 0 1
23.4233 0 1
23.539 0 1
23.6547 0 1
23.7704 0 1
23.8862 0 1
24.0021 0 1
24.118 0 1
24.234 0 1
24.35 0 1
24.4661 200 14.1421
24.5822 232 15.2315
24.6984 278 16.6733
24.8146 304 17.4356
24.9309 348 18.6548
25.0472 398 19.9499
25.1636 393 19.8242
25.28 408 20.199
25.3965 442 21.0238
25.513 520 22.8035
25.6296 538 23.1948
25.7462 538 23.1948
25.8628 557 23.6008
25.9795 588 24.2487
26.0962 590 24.2899
26.213 497 22.2935
26.3298 465 21.5639
26.4466 453 21.2838
26.5635 474 21.7715
26.6804 435 20.8567
26.7973 480 21.9089
26.9143 500 22.3607
27.0313 484 22
27.1483 502 22.4054
27.2653 577 24.0208
27.3824 529 23
27.4996 520 22.8035
27.6167 499 22.3383
27.7339 484 22
27.8511 504 22.4499
27.9683 492 22.1811
28.0855 450 21.2132
28.2028 494 22.2261
28.3201 410 20.2485
28.4374 442 21.0238
28.5547 408 20.199
28.6721 442 21.0238
28.7894 455 21.3307
28.9068 430 20.7364
29.0242 483 21.9773
29.1416 496 22.2711
29.259 568 23.8328
29.3764 551 23.4734
29.4939 475 21.7945
29.6113 511 22.6053
29.7288 497 22.2935
29.8463 431 20.7605
29.9638 405 20.1246
30.0812 379 19.4679
30.1987 465 21.5639
30.3162 442 21.0238
30.4337 434 20.8327
30.5512 438 20.9284
30.6687 409 20.2237
30.7862 478 21.8632
30.9037 487 22.0681
31.0212 524 22.891
31.1387 444 21.0713
31.2562 455 21.3307
31.3737 518 22.7596
31.4912 454 21.3073
31.6087 447 21.1424
31.7262 436 20.8806
31.8436 391 19.7737
31.9611 397 19.9249
32.0785 372 19.2873
32.1959 412 20.2978
32.3134 382 19.5448
32.4308 451 21.2368
32.5482 490 22.1359
32.6655 435 20.8567
32.7829 461 21.4709
32.9002 490 22.1359
33.0176 466 21.587
33.1349 495 22.2486
33.2522 479 21.8861
33.3694 466 21.587
33.4867 385 19.6214
33.6039 417 20.4206
33.7211 397 19.9249
33.8383 377 19.4165
33.9554 413 20.3224
34.0725 427 20.664
34.1896 418 20.445
34.3067 415 20.3715
34.4237 467 21.6102
34.5407 411 20.2731
34.6577 426 20.6398
34.7746 419 20.4695
34.8915 427 20.664
35.0084 422 20.5426
35.1252 423 20.567
35.242 415 20.3715
35.3587 370 19.2354
35.4755 419 20.4695
35.5921 368 19.1833
35.7088 365 19.105
35.8254 362 19.0263
35.9419 388 19.6977
36.0584 390 19.7484
36.1749 379 19.4679
36.2913 387 19.6723
36.4077 433 20.8087
36.524 438 20.9284
36.6403 392 19.799
36.7565 386 19.6469
36.8727 348 18.6548
36.9889 296 17.2047
37.1049 279 16.7033
37.221 0 1
37.3369 0 1
37.4529 0 1
37.5687 0 1
37.6845 0 1
37.8003 0 1
37.916 0 1
38.0316 0 1
38.1472 0 1
40.5851 0 1
40.7008 0 1
40.8164 0 1
40.9322 0 1
41.048 0 1
41.1639 0 1
41.2798 0 1
41.3958 0 1
41.5118 0 1
41.6279 0 1
41.744 210 14.4914
41.8602 222 14.8997
41.9765 216 14.6969
42.0928 270 16.4317
42.2091 244 15.6205
42.3255 270 16.4317
42.4419 256 16
42.5584 269 16.4012
42.675 251 15.843
42.7915 289 17
42.9081 320 17.8885
43.0248 360 18.9737
43.1415 390 19.7484
43.2582 340 18.4391
43.375 368 19.1833
43.4918 344 18.5472
43.6087 417 20.4206
43.7256 392 19.799
43.8425 356 18.868
43.9595 340 18.4391
44.0765 349 18.6815
44.1935 337 18.3576
44.3106 349 18.6815
44.4277 317 17.8045
44.5448 282 16.7929
44.6619 303 17.4069
44.7791 306 17.4929
44.8963 291 17.0587
45.0136 305 17.4642
45.1308 373 19.3132
45.2481 362 19.0263
45.3654 368 19.1833
45.4827 360 18.9737
45.6001 356 18.868
45.7174 363 19.0526
45.8348 317 17.8045
45.9522 337 18.3576
46.0697 302 17.3781
46.1871 311 17.6352
46.3046 343 18.5203
46.422 340 18.4391
46.5395 339 18.412
46.657 364 19.0788
46.7745 343 18.5203
46.892 376 19.3907
47.0096 393 19.8242
47.1271 370 19.2354
47.2446 384 19.5959
47.3622 364 19.0788
47.4797 374 19.3391
47.5973 378 19.4422
47.7149 378 19.4422
47.8324 318 17.8326
47.95 337 18.3576
48.0675 333 18.2483
48.1851 284 16.8523
48.3027 280 16.7332
48.4202 320 17.8885
48.5378 330 18.1659
48.6554 398 19.9499
48.7729 380 19.4936
48.8904 385 19.6214
49.008 344 18.5472
49.1255 349 18.6815
49.243 367 19.1572
49.3605 315 17.7482
49.478 320 17.8885
49.5955 303 17.4069
49.713 309 17.5784
49.8304 305 17.4642
49.9479 304 17.4356
50.0653 329 18.1384
50.1827 328 18.1108
50.3001 365 19.105
50.4175 372 19.2873
50.5348 403 20.0749
50.6521 336 18.3303
50.7694 362 19.0263
50.8867 374 19.3391
51.004 419 20.4695
51.1212 331 18.1934
51.2384 338 18.3848
51.3556 362 19.0263
51.4727 315 17.7482
51.5899 293 17.1172
51.707 299 17.2916
51.824 282 16.7929
51.9411 316 17.7764
52.0581 344 18.5472
52.175 375 19.3649
52.2919 362 19.0263
52.4088 393 19.8242
52.5257 366 19.1311
52.6425 397 19.9249
52.7593 383 19.5704
52.876 367 19.1572
52.9927 332 18.2209
53.1094 321 17.9165
53.226 338 18.3848
53.3426 284 16.8523
53.4591 320 17.8885
53.5756 322 17.9444
53.692 307 17.5214
53.8084 310 17.6068
53.9248 298 17.2627
54.0411 277 16.6433
54.1573 287 16.9411
54.2735 0 1
54.3896 0 1
54.5057 0 1
54.6217 0 1
54.7377 0 1
54.8537 0 1
54.9695 0 1
55.0853 0 1
55.2011 0 1
55.3168 0 1
55.4324 0 1
57.824 0 1
57.9396 0 1
58.0553 0 1
58.1711 0 1
58.2869 0 1
58.4028 0 1
58.5187 0 1
58.6347 0 1
58.7508 0 1
58.8669 0 1
58.983 271 16.4621
59.0992 291 17.0587
59.2155 323 17.9722
59.3318 327 18.0831
59.4482 391 19.7737
59.5646 398 19.9499
59.681 413 20.3224
59.7975 443 21.0476
59.9141 409 20.2237
60.0306 442 21.0238
60.1473 391 19.7737
60.2639 392 19.799
60.3807 368 19.1833
60.4974 374 19.3391
60.6142 393 19.8242
60.731 359 18.9473
60.8479 455 21.3307
60.9648 448 21.166
61.0818 451 21.2368
61.1987 456 21.3542
61.3158 456 21.3542
61.4328 493 22.2036
61.5499 458 21.4009
61.667 419 20.4695
61.7841 400 20
61.9013 383 19.5704
62.0185 393 19.8242
62.1357 416 20.3961
62.253 434 20.8327
62.3702 421 20.5183
62.4875 451 21.2368
62.6049 498 22.3159
62.7222 469 21.6564
62.8396 426 20.6398
62.9569 452 21.2603
63.0743 505 22.4722
63.1918 474 21.7715
63.3092 513 22.6495
63.4267 477 21.8403
63.5441 431 20.7605
63.6616 409 20.2237
63.7791 453 21.2838
63.8966 390 19.7484
64.0142 376 19.3907
64.1317 375 19.3649
64.2492 430 20.7364
64.3668 443 21.0476
64.4843 425 20.6155
64.6019 471 21.7025
64.7195 448 21.166
64.837 484 22
64.9546 442 21.0238
65.0722 432 20.7846
65.1898 425 20.6155
65.3074 398 19.9499
65.4249 379 19.4679
65.5425 354 18.8149
65.6601 354 18.8149
65.7777 361 19
65.8952 411 20.2731
66.0128 404 20.0998
66.1304 446 21.1187
66.2479 451 21.2368
66.3655 475 21.7945
66.483 485 22.0227
66.6005 491 22.1585
66.718 476 21.8174
66.8355 499 22.3383
66.953 500 22.3607
67.0705 468 21.6333
67.1879 495 22.2486
67.3054 463 21.5174
67.4228 430 20.7364
67.5402 412 20.2978
67.6576 349 18.6815
67.7749 367 19.1572
67.8923 367 19.1572
68.0096 462 21.4942
68.1269 502 22.4054
68.2442 527 22.9565
68.3614 598 24.454
68.4787 559 23.6432
68.5958 638 25.2587
68.713 594 24.3721
68.8302 613 24.7588
68.9473 591 24.3105
69.0643 534 23.1084
69.1814 577 24.0208
69.2984 562 23.7065
69.4154 588 24.2487
69.5323 670 25.8844
69.6492 649 25.4755
69.7661 761 27.5862
69.8829 720 26.8328
69.9997 741 27.2213
70.1165 753 27.4408
70.2332 764 27.6405
70.3499 696 26.3818
70.4665 708 26.6083
70.5831 686 26.1916
70.6996 663 25.7488
70.8161 673 25.9422
70.9326 608 24.6577
71.049 500 22.3607
71.1653 421 20.5183
71.2817 334 18.2757
71.3979 255 15.9687
71.5141 228 15.0997
71.6303 236 15.3623
71.7464 219 14.7986
71.8624 0 1
71.9784 0 1
72.0944 0 1
72.2102 0 1
72.3261 0 1
72.4418 0 1
72.5575 0 1
72.6732 0 1
75.1054 0 1
75.2209 0 1
75.3365 0 1
75.4521 0 1
75.5678 0 1
75.6835 0 1
75.7993 0 1
75.9151 0 1
76.031 0 1
76.147 385 19.6214
76.263 421 20.5183
76.3791 373 19.3132
76.4952 382 19.5448
76.6113 364 19.0788
76.7276 415 20.3715
76.8438 388 19.6977
76.9601 436 20.8806
77.0765 454 21.3073
77.1929 485 22.0227
77.3093 607 24.6374
77.4258 588 24.2487
77.5423 582 24.1247
77.6589 621 24.9199
77.7755 619 24.8797
77.8921 586 24.2074
78.0088 634 25.1794
78.1256 537 23.1733
78.2423 562 23.7065
78.3591 601 24.5153
78.4759 615 24.7992
78.5928 687 26.2107
78.7097 771 27.7669
78.8266 783 27.9821
78.9436 882 29.6985
79.0606 846 29.0861
79.1776 838 28.9482
79.2946 886 29.7658
79.4117 854 29.2233
79.5288 919 30.315
79.6459 926 30.4302
79.7631 875 29.5804
79.8802 907 30.1164
79.9974 862 29.3598
80.1147 834 28.8791
80.2319 695 26.3629
80.3491 686 26.1916
80.4664 797 28.2312
80.5837 824 28.7054
80.701 861 29.3428
80.8183 901 30.0167
80.9357 970 31.1448
81.053 976 31.241
81.1704 944 30.7246
81.2877 953 30.8707
81.4051 930 30.4959
81.5225 888 29.7993
81.6399 866 29.4279
81.7573 744 27.2764
81.8747 736 27.1293
81.9922 611 24.7184
82.1096 620 24.8998
82.227 681 26.096
82.3444 772 27.7849
82.4619 772 27.7849
82.5793 794 28.178
82.6967 788 28.0713
82.8142 832 28.8444
82.9316 755 27.4773
83.049 723 26.8887
83.1664 729 27
83.2838 731 27.037
83.4012 680 26.0768
83.5186 656 25.6125
83.636 579 24.0624
83.7534 547 23.388
83.8708 522 22.8473
83.9881 418 20.445
84.1055 432 20.7846
84.2228 473 21.7486
84.3401 438 20.9284
84.4575 460 21.4476
84.5747 508 22.5389
84.692 507 22.5167
84.8093 555 23.5584
84.9265 498 22.3159
85.0437 499 22.3383
85.1609 443 21.0476
85.2781 441 21
85.3952 369 19.2094
85.5123 319 17.8606
85.6294 327 18.0831
85.7465 329 18.1384
85.8636 425 20.6155
85.9806 378 19.4422
86.0976 435 20.8567
86.2145 423 20.567
86.3315 425 20.6155
86.4484 437 20.9045
86.5652 433 20.8087
86.682 457 21.3776
86.7988 451 21.2368
86.9156 427 20.664
87.0323 427 20.664
87.149 420 20.4939
87.2657 427 20.664
87.3823 364 19.0788
87.4988 339 18.412
87.6154 289 17
87.7318 277 16.6433
87.8483 278 16.6733
87.9647 269 16.4012
88.081 312 17.6635
88.1973 339 18.412
88.3136 320 17.8885
88.4298 298 17.2627
88.546 307 17.5214
88.6621 279 16.7033
88.7781 217 14.7309
88.8942 0 1
89.0101 0 1
89.126 0 1
89.2419 0 1
89.3577 0 1
89.4734 0 1
89.5891 0 1
89.7047 0 1
89.8203 0 1
89.9358 0 1
92.3269 0 1
92.4424 0 1
92.558 0 1
92.6736 0 1
92.7893 0 1
92.905 0 1
93.0208 0 1
93.1366 0 1
93.2525 0 1
93.3685 0 1
93.4845 0 1
93.6005 301 17.3494
93.7167 368 19.1833
93.8328 386 19.6469
93.949 393 19.8242
94.0653 368 19.1833
94.1816 435 20.8567
94.2979 391 19.7737
94.4143 389 19.7231
94.5307 420 20.4939
94.6472 398 19.9499
94.7637 346 18.6011
94.8803 392 19.799
94.9969 435 20.8567
95.1135 468 21.6333
95.2302 429 20.7123
95.3469 490 22.1359
95.4637 509 22.561
95.5805 475 21.7945
95.6973 531 23.0434
95.8142 532 23.0651
95.9311 511 22.6053
96.048 533 23.0868
96.1649 516 22.7156
96.2819 503 22.4277
96.3989 517 22.7376
96.516 478 21.8632
96.633 478 21.8632
96.7501 440 20.9762
96.8673 438 20.9284
96.9844 393 19.8242
97.1016 407 20.1742
97.2188 427 20.664
97.336 471 21.7025
97.4532 523 22.8692
97.5704 565 23.7697
97.6877 588 24.2487
97.805 529 23
97.9223 530 23.0217
98.0396 468 21.6333
98.1569 445 21.095
98.2743 392 19.799
98.3916 404 20.0998
98.509 375 19.3649
98.6264 399 19.975
98.7438 470 21.6795
98.8612 485 22.0227
98.9786 509 22.561
99.096 573 23.9374
99.2134 526 22.9347
99.3308 499 22.3383
99.4482 532 23.0651
99.5656 563 23.7276
99.6831 527 22.9565
99.8005 575 23.9792
99.9179 548 23.4094
100.035 514 22.6716
100.153 526 22.9347
100.27 424 20.5913
100.388 417 20.4206
100.505 379 19.4679
100.622 385 19.6214
100.74 440 20.9762
100.857 443 21.0476
100.975 513 22.6495
101.092 567 23.8118
101.209 542 23.2809
101.327 580 24.0832
101.444 518 22.7596
101.561 529 23
101.679 448 21.166
101.796 430 20.7364
101.913 394 19.8494
102.03 360 18.9737
102.148 401 20.025
102.265 451 21.2368
102.382 517 22.7376
102.499 530 23.0217
102.616 534 23.1084
102.733 513 22.6495
102.851 530 23.0217
102.968 565 23.7697
103.085 563 23.7276
103.202 557 23.6008
103.319 575 23.9792
103.436 524 22.891
103.552 562 23.7065
103.669 517 22.7376
103.786 559 23.6432
103.903 438 20.9284
104.02 396 19.8997
104.137 402 20.0499
104.253 455 21.3307
104.37 554 23.5372
104.487 678 26.0384
104.603 710 26.6458
104.72 714 26.7208
104.836 689 26.2488
104.953 709 26.6271
105.069 688 26.2298
105.186 610 24.6982
105.302 660 25.6905
105.418 607 24.6374
105.535 576 24
105.651 562 23.7065
105.767 539 23.2164
105.883 585 24.1868
105.999 565 23.7697
106.115 0 1
106.231 0 1
106.347 0 1
106.463 0 1
106.579 0 1
106.694 0 1
106.81 0 1
106.926 0 1
107.041 0 1
107.157 0 1
109.576 0 1
109.692 0 1
109.807 0 1
109.923 0 1
110.039 0 1
110.155 0 1
110.27 0 1
110.386 0 1
110.502 0 1
110.618 285 16.8819
110.735 391 19.7737
110.851 496 22.2711
110.967 552 23.4947
111.083 619 24.8797
111.199 702 26.4953
111.316 736 27.1293
111.432 767 27.6948
111.549 797 28.2312
111.665 777 27.8747
111.782 797 28.2312
111.898 806 28.3901
112.015 826 28.7402
112.132 843 29.0345
112.248 756 27.4955
112.365 699 26.4386
112.482 604 24.5764
112.599 571 23.8956
112.716 620 24.8998
112.832 608 24.6577
112.949 686 26.1916
113.066 764 27.6405
113.183 773 27.8029
113.3 754 27.4591
113.417 733 27.074
113.534 759 27.55
113.652 712 26.6833
113.769 673 25.9422
113.886 632 25.1396
114.003 556 23.5797
114.12 572 23.9165
114.238 549 23.4307
114.355 576 24
114.472 617 24.8395
114.589 647 25.4362
114.707 567 23.8118
114.824 646 25.4165
114.942 573 23.9374
115.059 571 23.8956
115.176 575 23.9792
115.294 574 23.9583
115.411 543 23.3024
115.529 528 22.9783
115.646 500 22.3607
115.764 487 22.0681
115.881 455 21.3307
115.999 392 19.799
116.116 421 20.5183
116.234 366 19.1311
116.351 391 19.7737
116.469 426 20.6398
116.586 460 21.4476
116.704 491 22.1585
116.821 490 22.1359
116.939 498 22.3159
117.056 521 22.8254
117.174 454 21.3073
117.291 436 20.8806
117.409 409 20.2237
117.526 349 18.6815
117.644 394 19.8494
117.761 406 20.1494
117.879 423 20.567
117.996 389 19.7231
118.114 432 20.7846
118.231 447 21.1424
118.349 469 21.6564
118.466 433 20.8087
118.584 477 21.8403
118.701 449 21.1896
118.819 460 21.4476
118.936 399 19.975
119.053 418 20.445
119.171 413 20.3224
119.288 375 19.3649
119.405 349 18.6815
119.523 327 18.0831
119.64 297 17.2337
119.757 306 17.4929
119.875 304 17.4356
119.992 311 17.6352
120.109 346 18.6011
120.226 356 18.868
120.343 337 18.3576
120.46 367 19.1572
120.578 390 19.7484
120.695 339 18.412
120.812 328 18.1108
120.929 342 18.4932
121.046 307 17.5214
121.163 309 17.5784
121.279 300 17.3205
121.396 305 17.4642
121.513 318 17.8326
121.63 292 17.088
121.747 325 18.0278
121.863 348 18.6548
121.98 293 17.1172
122.097 285 16.8819
122.213 324 18
122.33 291 17.0587
122.446 322 17.9444
122.563 260 16.1245
122.679 256 16
122.795 228 15.0997
122.912 250 15.8114
123.028 205 14.3178
123.144 172 13.1149
123.26 159 12.6095
123.377 0 1
123.493 0 1
123.609 0 1
123.725 0 1
123.84 0 1
123.956 0 1
124.072 0 1
124.188 0 1
124.303 0 1
124.419 0 1
126.852 0 1
126.968 0 1
127.083 0 1
127.199 0 1
127.315 0 1
127.431 0 1
127.547 0 1
127.663 0 1
127.779 0 1
127.895 0 1
128.011 0 1
128.127 0 1
128.243 0 1
128.359 480 21.9089
128.476 429 20.7123
128.592 487 22.0681
128.708 473 21.7486
128.825 485 22.0227
128.941 421 20.5183
129.058 469 21.6564
129.174 497 22.2935
129.291 482 21.9545
129.408 481 21.9317
129.524 545 23.3452
129.641 579 24.0624
129.758 529 23
129.875 514 22.6716
129.992 474 21.7715
130.108 434 20.8327
130.225 400 20
130.342 401 20.025
130.459 387 19.6723
130.576 487 22.0681
130.693 470 21.6795
130.81 480 21.9089
130.928 496 22.2711
131.045 494 22.2261
131.162 525 22.9129
131.279 491 22.1585
131.396 499 22.3383
131.513 539 23.2164
131.631 528 22.9783
131.748 519 22.7816
131.865 490 22.1359
131.983 493 22.2036
132.1 438 20.9284
132.217 467 21.6102
132.335 418 20.445
132.452 438 20.9284
132.57 435 20.8567
132.687 428 20.6882
132.804 480 21.9089
132.922 469 21.6564
133.039 497 22.2935
133.157 494 22.2261
133.274 526 22.9347
133.392 518 22.7596
133.509 481 21.9317
133.627 415 20.3715
133.744 412 20.2978
133.862 357 18.8944
133.979 384 19.5959
134.097 426 20.6398
134.214 443 21.0476
134.332 447 21.1424
134.449 447 21.1424
134.567 459 21.4243
134.684 497 22.2935
134.802 509 22.561
134.919 499 22.3383
135.037 491 22.1585
135.154 483 21.9773
135.272 501 22.383
135.389 479 21.8861
135.507 470 21.6795
135.624 493 22.2036
135.742 412 20.2978
135.859 434 20.8327
135.977 420 20.4939
136.094 441 21
136.211 414 20.347
136.329 396 19.8997
136.446 469 21.6564
136.564 473 21.7486
136.681 481 21.9317
136.798 484 22
136.915 434 20.8327
137.033 504 22.4499
137.15 451 21.2368
137.267 392 19.799
137.384 338 18.3848
137.502 396 19.8997
137.619 379 19.4679
137.736 384 19.5959
137.853 421 20.5183
137.97 437 20.9045
138.087 440 20.9762
138.204 475 21.7945
138.321 443 21.0476
138.438 435 20.8567
138.555 454 21.3073
138.672 472 21.7256
138.788 412 20.2978
138.905 380 19.4936
139.022 342 18.4932
139.139 343 18.5203
139.255 335 18.303
139.372 319 17.8606
139.488 302 17.3781
139.605 283 16.8226
139.721 258 16.0624
139.838 250 15.8114
139.954 242 15.5563
140.071 245 15.6525
140.187 257 16.0312
140.303 207 14.3875
140.419 191 13.8203
140.535 208 14.4222
140.652 190 13.784
140.768 0 1
140.884 0 1
141 0 1
141.115 0 1
141.231 0 1
141.347 0 1
141.463 0 1
141.578 0 1
141.694 0 1
144.104 0 1
144.219 0 1
144.335 0 1
144.45 0 1
144.566 0 1
144.682 0 1
144.798 0 1
144.914 0 1
145.03 0 1
145.146 228 15.0997
145.262 297 17.2337
145.378 299 17.2916
145.494 268 16.3707
145.61 304 17.4356
145.726 291 17.0587
145.842 311 17.6352
145.959 300 17.3205
146.075 279 16.7033
146.192 286 16.9115
146.308 235 15.3297
146.425 259 16.0935
146.541 289 17
146.658 271 16.4621
146.774 318 17.8326
146.891 293 17.1172
147.008 267 16.3401
147.125 317 17.8045
147.241 322 17.9444
147.358 308 17.5499
147.475 330 18.1659
147.592 323 17.9722
147.709 299 17.2916
147.826 291 17.0587
147.943 302 17.3781
148.06 279 16.7033
148.177 284 16.8523
148.294 271 16.4621
148.411 273 16.5227
148.528 299 17.2916
148.645 277 16.6433
148.762 305 17.4642
148.88 305 17.4642
148.997 355 18.8414
149.114 297 17.2337
149.231 327 18.0831
149.349 316 17.7764
149.466 312 17.6635
149.583 324 18
149.701 298 17.2627
149.818 263 16.2173
149.935 284 16.8523
150.053 233 15.2643
150.17 264 16.2481
150.287 273 16.5227
150.405 309 17.5784
150.522 341 18.4662
150.64 316 17.7764
150.757 314 17.72
150.875 302 17.3781
150.992 323 17.9722
151.11 307 17.5214
151.227 314 17.72
151.344 324 18
151.462 300 17.3205
151.579 308 17.5499
151.697 303 17.4069
151.814 290 17.0294
151.932 255 15.9687
152.049 317 17.8045
152.167 278 16.6733
152.284 295 17.1756
152.402 296 17.2047
152.519 273 16.5227
152.636 279 16.7033
152.754 296 17.2047
152.871 296 17.2047
152.989 318 17.8326
153.106 306 17.4929
153.223 329 18.1384
153.341 273 16.5227
153.458 290 17.0294
153.575 256 16
153.693 259 16.0935
153.81 262 16.1864
153.927 271 16.4621
154.044 266 16.3095
154.162 278 16.6733
154.279 316 17.7764
154.396 307 17.5214
154.513 295 17.1756
154.63 315 17.7482
154.747 303 17.4069
154.864 310 17.6068
154.981 303 17.4069
155.098 298 17.2627
155.215 261 16.1555
155.332 280 16.7332
155.449 262 16.1864
155.566 265 16.2788
155.683 258 16.0624
155.8 247 15.7162
155.917 265 16.2788
156.033 273 16.5227
156.15 0 1
156.267 0 1
156.383 0 1
156.5 0 1
156.617 0 1
156.733 0 1
156.85 0 1
156.966 0 1
157.082 0 1
157.199 0 1
157.315 0 1
157.431 0 1
157.547 0 1
157.664 0 1
157.78 0 1
157.896 0 1
158.012 0 1
158.128 0 1
158.244 0 1
158.359 0 1
158.475 0 1
158.591 0 1
158.706 0 1
