
6.15755 0 1
6.2731 0 1
6.3887 0 1
6.50437 0 1
6.62009 0 1
6.73587 0 1
6.8517 0 1
6.96759 0 1
7.08353 0 1
7.19952 0 1
7.31557 0 1
7.43166 0 1
7.54781 0 1
7.664 0 1
7.78024 0 1
7.89653 0 1
8.01286 0 1
8.12924 0 1
8.24567 0 1
8.36213 0 1
8.47864 0 1
8.59519 0 1
8.71178 0 1
8.82841 0 1
8.94508 0 1
9.06179 0 1
9.17853 0 1
9.29531 0 1
9.41212 0 1
9.52897 0 1
9.64584 0 1
9.76276 0 1
9.8797 0 1
9.99667 0 1
10.1137 0 1
10.2307 0 1
10.3478 0 1
10.4648 0 1
10.5819 0 1
10.6991 0 1
10.8162 0 1
10.9334 0 1
11.0506 0 1
11.1678 0 1
11.285 0 1
11.4023 0 1
11.5196 0 1
11.6369 0 1
11.7542 0 1
11.8715 0 1
11.9888 0 1
12.1062 0 1
12.2235 0 1
12.3409 0 1
12.4582 0 1
12.5756 0 1
12.693 0 1
12.8104 0 1
12.9278 0 1
13.0452 0 1
13.1626 0 1
13.28 0 1
13.3974 0 1
13.5149 0 1
13.6323 0 1
13.7497 0 1
13.8671 0 1
13.9845 0 1
14.1019 0 1
14.2193 0 1
14.3367 0 1
14.4541 0 1
14.5714 0 1
14.6888 0 1
14.8062 0 1
14.9235 0 1
15.0408 0 0
15.1581 0 0
15.2755 0 0
15.3927 0 0
15.51 0 0
15.6273 0 0
15.7445 0 0
15.8617 0 0
15.9789 0 0
16.0961 0 0
16.2132 0 0
16.3304 0 0
16.4475 0 0
16.5646 0 0
16.6816 0 0
16.7986 0 0
16.9156 0 0
17.0326 0 0
17.1496 0 0
17.2665 0 0
17.3833 0 0
17.5002 0 0
17.617 0 0
17.7338 0 0
17.8505 0 0
17.9672 0 0
18.0839 0 0
18.2005 0 0
18.3171 0 0
18.4337 0 0
18.5502 0 0
18.6666 0 0
18.7831 0 0
18.8994 0 0
19.0158 0 0
19.1321 0 0
19.2483 0 0
19.3645 0 0
19.4806 0 0
19.5967 0 0
19.7128 0 0
19.8288 0 0
19.9447 0 0
20.0606 0 1
20.1764 0 1
20.2922 0 1
20.4079 0 1
20.5236 0 1
20.6392 0 1
20.7548 0 1
20.8702 0 1
23.3078 0 1
23.4233 0 1
23.539 0 1
23.6547 0 1
23.7704 0 1
23.8862 0 1
24.0021 0 1
24.118 0 1
24.234 0 1
24.35 0 1
24.4661 12831 113.274
24.5822 12672 112.57
24.6984 12875 113.468
24.8146 12704 112.712
24.9309 12938 113.745
25.0472 13226 115.004
25.1636 13235 115.043
25.28 13534 116.336
25.3965 13868 117.762
25.513 14032 118.457
25.6296 14255 119.394
25.7462 14240 119.331
25.8628 14316 119.649
25.9795 14384 119.933
26.0962 14068 118.609
26.213 14377 119.904
26.3298 13977 118.224
26.4466 13908 117.932
26.5635 13806 117.499
26.6804 13480 116.103
26.7973 13217 114.965
26.9143 12840 113.314
27.0313 12522 111.902
27.1483 12554 112.045
27.2653 12542 111.991
27.3824 12511 111.853
27.4996 12345 111.108
27.6167 12319 110.991
27.7339 11487 107.177
27.8511 11236 106
27.9683 10740 103.634
28.0855 10675 103.32
28.2028 10816 104
28.3201 10478 102.362
28.4374 10957 104.676
28.5547 10993 104.848
28.6721 11213 105.891
28.7894 11603 107.717
28.9068 11655 107.958
29.0242 11916 109.16
29.1416 12025 109.659
29.259 12182 110.372
29.3764 12234 110.607
29.4939 12104 110.018
29.6113 12096 109.982
29.7288 12463 111.638
29.8463 12181 110.368
29.9638 12188 110.399
30.0812 12429 111.485
30.1987 12139 110.177
30.3162 12104 110.018
30.4337 11694 108.139
30.5512 11179 105.731
30.6687 11097 105.342
30.7862 11321 106.4
30.9037 11571 107.569
31.0212 11313 106.363
31.1387 11276 106.189
31.2562 10704 103.46
31.3737 10499 102.465
31.4912 10388 101.922
31.6087 10143 100.712
31.7262 10147 100.732
31.8436 10138 100.688
31.9611 10372 101.843
32.0785 10490 102.421
32.1959 10803 103.937
32.3134 10955 104.666
32.4308 11255 106.09
32.5482 11572 107.573
32.6655 11613 107.764
32.7829 11711 108.217
32.9002 11589 107.652
33.0176 11609 107.745
33.1349 11639 107.884
33.2522 11919 109.174
33.3694 11898 109.078
33.4867 11705 108.19
33.6039 11567 107.55
33.7211 11619 107.791
33.8383 11740 108.351
33.9554 11353 106.55
34.0725 11344 106.508
34.1896 10804 103.942
34.3067 10683 103.359
34.4237 10839 104.111
34.5407 10947 104.628
34.6577 11075 105.238
34.7746 10703 103.455
34.8915 10592 102.917
35.0084 10222 101.104
35.1252 10020 100.1
35.242 9910 99.549
35.3587 9850 99.2472
35.4755 9583 97.8928
35.5921 9908 99.5389
35.7088 10181 100.901
35.8254 10242 101.203
35.9419 10526 102.596
36.0584 10655 103.223
36.1749 11064 105.186
36.2913 11124 105.47
36.4077 11205 105.854
36.524 11263 106.127
36.6403 11258 106.104
36.7565 11324 106.414
36.8727 11405 106.794
36.9889 11193 105.797
37.1049 10919 104.494
37.221 0 1
37.3369 0 1
37.4529 0 1
37.5687 0 1
37.6845 0 1
37.8003 0 1
37.916 0 1
38.0316 0 1
38.1472 0 1
40.5851 0 1
40.7008 0 1
40.8164 0 1
40.9322 0 1
41.048 0 1
41.1639 0 1
41.2798 0 1
41.3958 0 1
41.5118 0 1
41.6279 0 1
41.744 9105 95.4201
41.8602 9418 97.0464
41.9765 9491 97.4218
42.0928 9459 97.2574
42.2091 9562 97.7855
42.3255 9521 97.5756
42.4419 9524 97.591
42.5584 9512 97.5295
42.675 9333 96.6075
42.7915 9186 95.8436
42.9081 8881 94.2391
43.0248 8737 93.4719
43.1415 8557 92.5041
43.2582 8665 93.086
43.375 8774 93.6696
43.4918 8894 94.308
43.6087 8798 93.7977
43.7256 8316 91.1921
43.8425 8136 90.1998
43.9595 8007 89.4818
44.0765 7634 87.3728
44.1935 7590 87.1206
44.3106 7591 87.1263
44.4277 7735 87.9488
44.5448 7889 88.82
44.6619 8043 89.6828
44.7791 8087 89.9277
44.8963 8342 91.3345
45.0136 8276 90.9725
45.1308 8226 90.6973
45.2481 8126 90.1443
45.3654 8069 89.8276
45.4827 8147 90.2607
45.6001 7957 89.202
45.7174 7972 89.2861
45.8348 7889 88.82
45.9522 7853 88.6172
46.0697 7742 87.9886
46.1871 7640 87.4071
46.3046 7516 86.6949
46.422 7347 85.7146
46.5395 7003 83.6839
46.657 6809 82.5167
46.7745 6593 81.1973
46.892 6567 81.037
47.0096 6927 83.2286
47.1271 6733 82.0549
47.2446 6575 81.0864
47.3622 6343 79.643
47.4797 6095 78.0705
47.5973 5882 76.6942
47.7149 5849 76.4788
47.8324 5814 76.2496
47.95 5861 76.5572
48.0675 6101 78.1089
48.1851 6076 77.9487
48.3027 6315 79.467
48.4202 6150 78.4219
48.5378 6243 79.0127
48.6554 6273 79.2023
48.7729 6289 79.3032
48.8904 6287 79.2906
49.008 6421 80.1311
49.1255 6359 79.7433
49.243 6475 80.4674
49.3605 6449 80.3057
49.478 6411 80.0687
49.5955 6600 81.2404
49.713 6641 81.4923
49.8304 6947 83.3487
49.9479 6606 81.2773
50.0653 6475 80.4674
50.1827 6335 79.5927
50.3001 6248 79.0443
50.4175 6259 79.1138
50.5348 6471 80.4425
50.6521 6940 83.3067
50.7694 6988 83.5943
50.8867 7132 84.4512
51.004 6911 83.1324
51.1212 6974 83.5105
51.2384 6952 83.3787
51.3556 7337 85.6563
51.4727 7661 87.5271
51.5899 8011 89.5042
51.707 8090 89.9444
51.824 8737 93.4719
51.9411 8635 92.9247
52.0581 8940 94.5516
52.175 9021 94.9789
52.2919 8998 94.8578
52.4088 9112 95.4568
52.5257 9112 95.4568
52.6425 9359 96.7419
52.7593 9348 96.6851
52.876 9374 96.8194
52.9927 9458 97.2522
53.1094 9402 96.9639
53.226 9770 98.8433
53.3426 9706 98.519
53.4591 9767 98.8281
53.5756 9802 99.0051
53.692 9506 97.4987
53.8084 9112 95.4568
53.9248 9025 95
54.0411 8840 94.0213
54.1573 9157 95.6922
54.2735 0 1
54.3896 0 1
54.5057 0 1
54.6217 0 1
54.7377 0 1
54.8537 0 1
54.9695 0 1
55.0853 0 1
55.2011 0 1
55.3168 0 1
55.4324 0 1
57.824 0 1
57.9396 0 1
58.0553 0 1
58.1711 0 1
58.2869 0 1
58.4028 0 1
58.5187 0 1
58.6347 0 1
58.7508 0 1
58.8669 0 1
58.983 10624 103.073
59.0992 10586 102.888
59.2155 10602 102.966
59.3318 10727 103.571
59.4482 10890 104.355
59.5646 10673 103.31
59.681 10714 103.508
59.7975 10685 103.368
59.9141 10597 102.942
60.0306 10705 103.465
60.1473 11093 105.323
60.2639 11286 106.236
60.3807 11457 107.037
60.4974 11480 107.145
60.6142 11569 107.559
60.731 11399 106.766
60.8479 11352 106.546
60.9648 11468 107.089
61.0818 11305 106.325
61.1987 11220 105.925
61.3158 11321 106.4
61.4328 11208 105.868
61.5499 11222 105.934
61.667 11163 105.655
61.7841 11077 105.247
61.9013 11272 106.17
62.0185 11199 105.825
62.1357 10780 103.827
62.253 10553 102.728
62.3702 10107 100.534
62.4875 10045 100.225
62.6049 10042 100.21
62.7222 10225 101.119
62.8396 10053 100.265
62.9569 10121 100.603
63.0743 10043 100.215
63.1918 10033 100.165
63.3092 9788 98.9343
63.4267 9853 99.2623
63.5441 10087 100.434
63.6616 10194 100.965
63.7791 10470 102.323
63.8966 10561 102.767
64.0142 10653 103.213
64.1317 10844 104.135
64.2492 10549 102.708
64.3668 10588 102.898
64.4843 10435 102.152
64.6019 10417 102.064
64.7195 10365 101.809
64.837 10641 103.155
64.9546 10513 102.533
65.0722 10302 101.499
65.1898 10243 101.208
65.3074 10471 102.328
65.4249 10261 101.297
65.5425 10289 101.435
65.6601 10194 100.965
65.7777 10098 100.489
65.8952 9927 99.6343
66.0128 9336 96.623
66.1304 9174 95.781
66.2479 8753 93.5575
66.3655 9024 94.9947
66.483 9291 96.3898
66.6005 9279 96.3276
66.718 9289 96.3795
66.8355 9250 96.1769
66.953 9364 96.7678
67.0705 9556 97.7548
67.1879 9787 98.9293
67.3054 9994 99.97
67.4228 10264 101.311
67.5402 10107 100.534
67.6576 10268 101.331
67.7749 9992 99.96
67.8923 10462 102.284
68.0096 10145 100.722
68.1269 10111 100.553
68.2442 10241 101.198
68.3614 10371 101.838
68.4787 10178 100.886
68.5958 10163 100.812
68.713 10227 101.129
68.8302 10182 100.906
68.9473 10562 102.772
69.0643 10410 102.029
69.1814 10393 101.946
69.2984 10245 101.218
69.4154 10456 102.255
69.5323 10250 101.242
69.6492 10105 100.524
69.7661 9390 96.902
69.8829 9127 95.5353
69.9997 9435 97.1339
70.1165 9548 97.7139
70.2332 9635 98.158
70.3499 9604 98
70.4665 9703 98.5038
70.5831 9544 97.6934
70.6996 9762 98.8028
70.8161 10097 100.484
70.9326 10051 100.255
71.049 10355 101.76
71.1653 10336 101.666
71.2817 10311 101.543
71.3979 10118 100.588
71.5141 10020 100.1
71.6303 9848 99.2371
71.7464 8907 94.3769
71.8624 0 1
71.9784 0 1
72.0944 0 1
72.2102 0 1
72.3261 0 1
72.4418 0 1
72.5575 0 1
72.6732 0 1
75.1054 0 1
75.2209 0 1
75.3365 0 1
75.4521 0 1
75.5678 0 1
75.6835 0 1
75.7993 0 1
75.9151 0 1
76.031 0 1
76.147 9043 95.0947
76.263 9775 98.8686
76.3791 10160 100.797
76.4952 10039 100.195
76.6113 10205 101.02
76.7276 10122 100.608
76.8438 10192 100.955
76.9601 10047 100.235
77.0765 10175 100.871
77.1929 10139 100.693
77.3093 10007 100.035
77.4258 9917 99.5841
77.5423 10085 100.424
77.6589 10072 100.359
77.7755 9881 99.4032
77.8921 9875 99.373
78.0088 9946 99.7296
78.1256 9834 99.1665
78.2423 9946 99.7296
78.3591 10158 100.787
78.4759 9940 99.6995
78.5928 9684 98.4073
78.7097 9238 96.1145
78.8266 8856 94.1063
78.9436 7366 85.8254
79.0606 7575 87.0345
79.1776 7672 87.59
79.2946 8464 92
79.4117 8904 94.361
79.5288 9234 96.0937
79.6459 9212 95.9792
79.7631 9507 97.5038
79.8802 9681 98.3921
79.9974 9507 97.5038
80.1147 9342 96.654
80.2319 9489 97.4115
80.3491 9421 97.0618
80.4664 9321 96.5453
80.5837 9384 96.871
80.701 9323 96.5557
80.8183 9211 95.974
80.9357 9327 96.5764
81.053 9205 95.9427
81.1704 9086 95.3205
81.2877 9190 95.8645
81.4051 9165 95.734
81.5225 9259 96.2237
81.6399 8786 93.7337
81.7573 9132 95.5615
81.8747 8733 93.4505
81.9922 8818 93.9042
82.1096 8861 94.1329
82.227 8805 93.835
82.3444 8701 93.2792
82.4619 8054 89.7441
82.5793 7310 85.4985
82.6967 6974 83.5105
82.8142 7183 84.7526
82.9316 7357 85.773
83.049 7972 89.2861
83.1664 7985 89.3588
83.2838 8311 91.1647
83.4012 8554 92.4878
83.5186 8446 91.9021
83.636 8152 90.2884
83.7534 8361 91.4385
83.8708 8288 91.0385
83.9881 8200 90.5539
84.1055 8156 90.3106
84.2228 7875 88.7412
84.3401 8047 89.7051
84.4575 8112 90.0666
84.5747 8087 89.9277
84.692 8247 90.813
84.8093 8053 89.7385
84.9265 8089 89.9389
85.0437 8120 90.111
85.1609 8201 90.5594
85.2781 8004 89.4651
85.3952 8299 91.0988
85.5123 8182 90.4544
85.6294 8215 90.6366
85.7465 8129 90.161
85.8636 8144 90.2441
85.9806 8004 89.4651
86.0976 7429 86.1916
86.2145 6740 82.0975
86.3315 5965 77.2334
86.4484 6760 82.2192
86.5652 7429 86.1916
86.682 8017 89.5377
86.7988 8119 90.1055
86.9156 8353 91.3947
87.0323 8165 90.3604
87.149 8159 90.3272
87.2657 8159 90.3272
87.3823 8139 90.2164
87.4988 8173 90.4046
87.6154 8187 90.482
87.7318 8225 90.6918
87.8483 8206 90.587
87.9647 8164 90.3549
88.081 8185 90.471
88.1973 8475 92.0598
88.3136 8358 91.4221
88.4298 8356 91.4112
88.546 8141 90.2275
88.6621 7998 89.4315
88.7781 8072 89.8443
88.8942 0 1
89.0101 0 1
89.126 0 1
89.2419 0 1
89.3577 0 1
89.4734 0 1
89.5891 0 1
89.7047 0 1
89.8203 0 1
89.9358 0 1
92.3269 0 1
92.4424 0 1
92.558 0 1
92.6736 0 1
92.7893 0 1
92.905 0 1
93.0208 0 1
93.1366 0 1
93.2525 0 1
93.3685 0 1
93.4845 0 1
93.6005 6124 78.256
93.7167 6177 78.5939
93.8328 6095 78.0705
93.949 6056 77.8203
94.0653 6037 77.6981
94.1816 5935 77.039
94.2979 5967 77.2464
94.4143 5804 76.184
94.5307 5706 75.5381
94.6472 5662 75.2463
94.7637 5623 74.9867
94.8803 5688 75.4188
94.9969 5479 74.0203
95.1135 5343 73.0958
95.2302 5182 71.9861
95.3469 4748 68.9057
95.4637 3993 63.1902
95.5805 3735 61.1146
95.6973 4587 67.7274
95.8142 5134 71.6519
95.9311 5269 72.5879
96.048 5094 71.3723
96.1649 5001 70.7177
96.2819 4930 70.214
96.3989 4775 69.1014
96.516 4745 68.884
96.633 4643 68.1396
96.7501 4553 67.4759
96.8673 4408 66.3928
96.9844 4267 65.3223
97.1016 4404 66.3626
97.2188 4212 64.8999
97.336 4037 63.5374
97.4532 4060 63.7181
97.5704 4047 63.616
97.6877 3885 62.3298
97.805 3649 60.407
97.9223 3685 60.7042
98.0396 3459 58.8133
98.1569 3453 58.7622
98.2743 3462 58.8388
98.3916 3276 57.2364
98.509 3251 57.0175
98.6264 3102 55.6956
98.7438 3050 55.2268
98.8612 2831 53.2071
98.9786 2579 50.7839
99.096 2086 45.6727
99.2134 1910 43.7035
99.3308 2321 48.1768
99.4482 2665 51.6236
99.5656 2632 51.303
99.6831 2481 49.8096
99.8005 2451 49.5076
99.9179 2281 47.7598
100.035 2308 48.0416
100.153 2199 46.8935
100.27 2180 46.6905
100.388 2185 46.744
100.505 2245 47.3814
100.622 2197 46.8722
100.74 2204 46.9468
100.857 2325 48.2183
100.975 2416 49.1528
101.092 2498 49.98
101.209 2583 50.8232
101.327 2521 50.2096
101.444 2606 51.049
101.561 2817 53.0754
101.679 2930 54.1295
101.796 2951 54.3231
101.913 3148 56.107
102.03 3195 56.5243
102.148 3184 56.4269
102.265 3586 59.8832
102.382 3314 57.5674
102.499 3275 57.2276
102.616 2733 52.2781
102.733 2426 49.2544
102.851 3446 58.7026
102.968 4068 63.7809
103.085 4209 64.8768
103.202 4322 65.7419
103.319 4412 66.4229
103.436 4492 67.0224
103.552 4417 66.4605
103.669 4560 67.5278
103.786 4668 68.3228
103.903 4763 69.0145
104.02 4813 69.3758
104.137 4804 69.3109
104.253 5123 71.5751
104.37 4973 70.5195
104.487 5239 72.3809
104.603 5394 73.4439
104.72 5511 74.2361
104.836 5448 73.8106
104.953 5688 75.4188
105.069 5688 75.4188
105.186 5741 75.7694
105.302 5909 76.87
105.418 5761 75.9013
105.535 5963 77.2205
105.651 6023 77.608
105.767 5926 76.9805
105.883 5714 75.591
105.999 4586 67.72
106.115 0 1
106.231 0 1
106.347 0 1
106.463 0 1
106.579 0 1
106.694 0 1
106.81 0 1
106.926 0 1
107.041 0 1
107.157 0 1
109.576 0 1
109.692 0 1
109.807 0 1
109.923 0 1
110.039 0 1
110.155 0 1
110.27 0 1
110.386 0 1
110.502 0 1
110.618 5946 77.1103
110.735 6141 78.3645
110.851 5880 76.6812
110.967 5298 72.7874
111.083 4532 67.3201
111.199 4331 65.8103
111.316 4991 70.647
111.432 6090 78.0385
111.549 6326 79.5362
111.665 6414 80.0875
111.782 6289 79.3032
111.898 6276 79.2212
112.015 6130 78.2943
112.132 6171 78.5557
112.248 6008 77.5113
112.365 6140 78.3582
112.482 6115 78.1985
112.599 5862 76.5637
112.716 5773 75.9803
112.832 6042 77.7303
112.949 5703 75.5182
113.066 5707 75.5447
113.183 5638 75.0866
113.3 5512 74.2428
113.417 5518 74.2832
113.534 5438 73.7428
113.652 5393 73.437
113.769 5315 72.904
113.886 5204 72.1388
114.003 5264 72.5534
114.12 5179 71.9653
114.238 5080 71.2741
114.355 4783 69.1592
114.472 4627 68.0221
114.589 3988 63.1506
114.707 3422 58.4979
114.824 3457 58.7963
114.942 3888 62.3538
115.059 4479 66.9253
115.176 4649 68.1836
115.294 4552 67.4685
115.411 4442 66.6483
115.529 4324 65.7571
115.646 4379 66.174
115.764 4361 66.0379
115.881 4343 65.9014
115.999 4228 65.0231
116.116 4150 64.4205
116.234 4099 64.0234
116.351 4088 63.9375
116.469 3991 63.1744
116.586 3866 62.1772
116.704 3904 62.482
116.821 3864 62.1611
116.939 3803 61.6685
117.056 3802 61.6604
117.174 3759 61.3107
117.291 3698 60.8112
117.409 3674 60.6135
117.526 3513 59.2706
117.644 3660 60.4979
117.761 3567 59.7244
117.879 3464 58.8558
117.996 3354 57.9137
118.114 3294 57.3934
118.231 3206 56.6216
118.349 2758 52.5167
118.466 2742 52.3641
118.584 2906 53.9073
118.701 3127 55.9196
118.819 3368 58.0345
118.936 3284 57.3062
119.053 3180 56.3915
119.171 3214 56.6922
119.288 3128 55.9285
119.405 3237 56.8946
119.523 3128 55.9285
119.64 3093 55.6147
119.757 3010 54.8635
119.875 3059 55.3082
119.992 2940 54.2218
120.109 2902 53.8702
120.226 2919 54.0278
120.343 2966 54.461
120.46 2863 53.507
120.578 2961 54.4151
120.695 2984 54.626
120.812 3008 54.8452
120.929 2892 53.7773
121.046 2840 53.2917
121.163 2858 53.4603
121.279 2860 53.479
121.396 2714 52.0961
121.513 2515 50.1498
121.63 2271 47.655
121.747 2166 46.5403
121.863 2640 51.3809
121.98 2855 53.4322
122.097 2942 54.2402
122.213 2706 52.0192
122.33 2816 53.066
122.446 2941 54.231
122.563 2967 54.4702
122.679 3012 54.8817
122.795 3057 55.2901
122.912 3085 55.5428
123.028 3039 55.1271
123.144 3170 56.3028
123.26 3085 55.5428
123.377 0 1
123.493 0 1
123.609 0 1
123.725 0 1
123.84 0 1
123.956 0 1
124.072 0 1
124.188 0 1
124.303 0 1
124.419 0 1
126.852 0 1
126.968 0 1
127.083 0 1
127.199 0 1
127.315 0 1
127.431 0 1
127.547 0 1
127.663 0 1
127.779 0 1
127.895 0 1
128.011 0 1
128.127 0 1
128.243 0 1
128.359 4424 66.5132
128.476 4288 65.4828
128.592 4284 65.4523
128.708 4365 66.0681
128.825 4577 67.6535
128.941 4483 66.9552
129.058 4602 67.838
129.174 4481 66.9403
129.291 4517 67.2086
129.408 4533 67.3276
129.524 4686 68.4544
129.641 4697 68.5347
129.758 4623 67.9926
129.875 4737 68.8259
129.992 4779 69.1303
130.108 4549 67.4463
130.225 4284 65.4523
130.342 3743 61.1801
130.459 3226 56.7979
130.576 2713 52.0865
130.693 2691 51.8748
130.81 3530 59.4138
130.928 4487 66.9851
131.045 4930 70.214
131.162 5261 72.5328
131.279 5234 72.3464
131.396 5281 72.6705
131.513 5266 72.5672
131.631 5300 72.8011
131.748 5573 74.6525
131.865 5344 73.1027
131.983 5292 72.7461
132.1 5518 74.2832
132.217 5513 74.2496
132.335 5557 74.5453
132.452 5474 73.9865
132.57 5478 74.0135
132.687 5419 73.6139
132.804 5884 76.7072
132.922 5601 74.8398
133.039 5702 75.5116
133.157 5601 74.8398
133.274 5750 75.8288
133.392 5771 75.9671
133.509 5737 75.743
133.627 5526 74.3371
133.744 5211 72.1873
133.862 4790 69.2098
133.979 4301 65.582
134.097 3696 60.7947
134.214 3482 59.0085
134.332 3316 57.5847
134.449 4287 65.4752
134.567 5331 73.0137
134.684 6051 77.7882
134.802 6127 78.2752
134.919 6132 78.3071
135.037 6257 79.1012
135.154 6275 79.2149
135.272 6360 79.7496
135.389 6515 80.7155
135.507 6401 80.0062
135.624 6446 80.287
135.742 6585 81.148
135.859 6442 80.2621
135.977 6604 81.265
136.094 6506 80.6598
136.211 6570 81.0555
136.329 6481 80.5047
136.446 6633 81.4432
136.564 6623 81.3818
136.681 6611 81.3081
136.798 6634 81.4494
136.915 6746 82.134
137.033 6667 81.6517
137.15 6663 81.6272
137.267 6286 79.2843
137.384 5997 77.4403
137.502 5569 74.6257
137.619 5008 70.7672
137.736 4646 68.1616
137.853 4253 65.215
137.97 4330 65.8027
138.087 4722 68.7168
138.204 5683 75.3857
138.321 6688 81.7802
138.438 7241 85.0941
138.555 7241 85.0941
138.672 7365 85.8196
138.788 7319 85.5512
138.905 7418 86.1278
139.022 7460 86.3713
139.139 7480 86.487
139.255 7341 85.6796
139.372 7345 85.703
139.488 7389 85.9593
139.605 7620 87.2926
139.721 7462 86.3829
139.838 7673 87.5957
139.954 7539 86.8274
140.071 7386 85.9418
140.187 7725 87.892
140.303 7542 86.8447
140.419 7538 86.8217
140.535 7507 86.6429
140.652 7420 86.1394
140.768 0 1
140.884 0 1
141 0 1
141.115 0 1
141.231 0 1
141.347 0 1
141.463 0 1
141.578 0 1
141.694 0 1
144.104 0 1
144.219 0 1
144.335 0 1
144.45 0 1
144.566 0 1
144.682 0 1
144.798 0 1
144.914 0 1
145.03 0 1
145.146 7480 86.487
145.262 7537 86.8159
145.378 7421 86.1452
145.494 7262 85.2174
145.61 7404 86.0465
145.726 6971 83.4925
145.842 6946 83.3427
145.959 6500 80.6226
146.075 6167 78.5302
146.192 5755 75.8617
146.308 5577 74.6793
146.425 5449 73.8173
146.541 5339 73.0685
146.658 5426 73.6614
146.774 5712 75.5778
146.891 6242 79.0063
147.008 7012 83.7377
147.125 7323 85.5745
147.241 7716 87.8408
147.358 7733 87.9375
147.475 7694 87.7154
147.592 7649 87.4586
147.709 7678 87.6242
147.826 7518 86.7064
147.943 7639 87.4014
148.06 7505 86.6314
148.177 7495 86.5737
148.294 7515 86.6891
148.411 7578 87.0517
148.528 7615 87.264
148.645 7592 87.1321
148.762 7562 86.9598
148.88 7522 86.7295
148.997 7189 84.788
149.114 7706 87.7838
149.231 7375 85.8778
149.349 7180 84.7349
149.466 6703 81.8719
149.583 6576 81.0925
149.701 6179 78.6066
149.818 5913 76.896
149.935 5662 75.2463
150.053 5601 74.8398
150.17 5645 75.1332
150.287 5886 76.7203
150.405 6202 78.7528
150.522 6435 80.2185
150.64 6848 82.7526
150.757 7421 86.1452
150.875 7646 87.4414
150.992 7850 88.6002
151.11 7590 87.1206
151.227 7864 88.6792
151.344 7725 87.892
151.462 7881 88.775
151.579 7753 88.0511
151.697 7887 88.8088
151.814 7810 88.3742
151.932 7786 88.2383
152.049 7894 88.8482
152.167 7805 88.3459
152.284 7743 87.9943
152.402 7945 89.1347
152.519 7806 88.3516
152.636 7806 88.3516
152.754 7631 87.3556
152.871 7617 87.2754
152.989 7195 84.8233
153.106 7071 84.0892
153.223 6640 81.4862
153.341 6569 81.0494
153.458 6220 78.867
153.575 5946 77.1103
153.693 6005 77.4919
153.81 5970 77.2658
153.927 6343 79.643
154.044 6553 80.9506
154.162 6963 83.4446
154.279 7364 85.8138
154.396 7738 87.9659
154.513 7910 88.9382
154.63 8164 90.3549
154.747 8084 89.9111
154.864 8275 90.967
154.981 8298 91.0934
155.098 8283 91.011
155.215 8139 90.2164
155.332 8224 90.6863
155.449 8234 90.7414
155.566 8079 89.8833
155.683 8224 90.6863
155.8 8225 90.6918
155.917 8406 91.6842
156.033 8154 90.2995
156.15 0 1
156.267 0 1
156.383 0 1
156.5 0 1
156.617 0 1
156.733 0 1
156.85 0 1
156.966 0 1
157.082 0 1
157.199 0 1
157.315 0 1
157.431 0 1
157.547 0 1
157.664 0 1
157.78 0 1
157.896 0 1
158.012 0 1
158.128 0 1
158.244 0 1
158.359 0 1
158.475 0 1
158.591 0 1
158.706 0 1
