
6.15755 0 1
6.2731 0 1
6.3887 0 1
6.50437 0 1
6.62009 0 1
6.73587 0 1
6.8517 0 1
6.96759 0 1
7.08353 0 1
7.19952 0 1
7.31557 0 1
7.43166 0 1
7.54781 0 1
7.664 0 1
7.78024 0 1
7.89653 0 1
8.01286 0 1
8.12924 0 1
8.24567 0 1
8.36213 0 1
8.47864 0 1
8.59519 0 1
8.71178 0 1
8.82841 0 1
8.94508 0 1
9.06179 0 1
9.17853 0 1
9.29531 0 1
9.41212 0 1
9.52897 0 1
9.64584 0 1
9.76276 0 1
9.8797 0 1
9.99667 0 1
10.1137 0 1
10.2307 0 1
10.3478 0 1
10.4648 0 1
10.5819 0 1
10.6991 0 1
10.8162 0 1
10.9334 0 1
11.0506 0 1
11.1678 0 1
11.285 0 1
11.4023 0 1
11.5196 0 1
11.6369 0 1
11.7542 0 1
11.8715 0 1
11.9888 0 1
12.1062 0 1
12.2235 0 1
12.3409 0 1
12.4582 0 1
12.5756 0 1
12.693 0 1
12.8104 0 1
12.9278 0 1
13.0452 0 1
13.1626 0 1
13.28 0 1
13.3974 0 1
13.5149 0 1
13.6323 0 1
13.7497 0 1
13.8671 0 1
13.9845 0 1
14.1019 0 1
14.2193 0 1
14.3367 0 1
14.4541 0 1
14.5714 0 1
14.6888 0 1
14.8062 0 1
14.9235 0 1
15.0408 4264 65.2993
15.1581 4463 66.8057
15.2755 4591 67.7569
15.3927 4680 68.4105
15.51 4451 66.7158
15.6273 4217 64.9384
15.7445 3974 63.0397
15.8617 4049 63.6318
15.9789 4220 64.9615
16.0961 4293 65.521
16.2132 4184 64.6838
16.3304 4229 65.0308
16.4475 4122 64.2028
16.5646 4123 64.2106
16.6816 3930 62.6897
16.7986 3850 62.0484
16.9156 3732 61.0901
17.0326 3772 61.4166
17.1496 3812 61.7414
17.2665 3644 60.3656
17.3833 3548 59.5651
17.5002 3640 60.3324
17.617 3582 59.8498
17.7338 3726 61.041
17.8505 3621 60.1747
17.9672 3539 59.4895
18.0839 3566 59.716
18.2005 3594 59.95
18.3171 3575 59.7913
18.4337 3711 60.918
18.5502 3754 61.2699
18.6666 3575 59.7913
18.7831 3615 60.1249
18.8994 3620 60.1664
19.0158 3424 58.515
19.1321 3336 57.7581
19.2483 2989 54.6717
19.3645 2915 53.9907
19.4806 2849 53.376
19.5967 2864 53.5164
19.7128 2878 53.647
19.8288 2755 52.4881
19.9447 2429 49.2849
20.0606 0 1
20.1764 0 1
20.2922 0 1
20.4079 0 1
20.5236 0 1
20.6392 0 1
20.7548 0 1
20.8702 0 1
23.3078 0 1
23.4233 0 1
23.539 0 1
23.6547 0 1
23.7704 0 1
23.8862 0 1
24.0021 0 1
24.118 0 1
24.234 0 1
24.35 0 1
24.4661 1374 37.0675
24.5822 1642 40.5216
24.6984 1979 44.486
24.8146 2331 48.2804
24.9309 2632 51.303
25.0472 2916 54
25.1636 3213 56.6833
25.28 3527 59.3886
25.3965 3769 61.3922
25.513 3740 61.1555
25.6296 3901 62.458
25.7462 3902 62.466
25.8628 3769 61.3922
25.9795 3855 62.0886
26.0962 3814 61.7576
26.213 3653 60.4401
26.3298 3580 59.8331
26.4466 3430 58.5662
26.5635 3343 57.8187
26.6804 3359 57.9569
26.7973 3261 57.1052
26.9143 3149 56.116
27.0313 3092 55.6058
27.1483 3241 56.9298
27.2653 3305 57.4891
27.3824 3466 58.8727
27.4996 3370 58.0517
27.6167 3494 59.1101
27.7339 3267 57.1577
27.8511 3298 57.4282
27.9683 3113 55.7943
28.0855 3089 55.5788
28.2028 3291 57.3672
28.3201 3421 58.4893
28.4374 3586 59.8832
28.5547 3633 60.2744
28.6721 3645 60.3738
28.7894 3634 60.2827
28.9068 3451 58.7452
29.0242 3411 58.4038
29.1416 3364 58
29.259 3284 57.3062
29.3764 3268 57.1664
29.4939 3195 56.5243
29.6113 3339 57.7841
29.7288 3223 56.7715
29.8463 3024 54.9909
29.9638 3165 56.2583
30.0812 2987 54.6535
30.1987 3038 55.1181
30.3162 3040 55.1362
30.4337 2968 54.4794
30.5512 3047 55.1996
30.6687 3057 55.2901
30.7862 3182 56.4092
30.9037 3363 57.9914
31.0212 3462 58.8388
31.1387 3410 58.3952
31.2562 3428 58.5491
31.3737 3346 57.8446
31.4912 3213 56.6833
31.6087 3170 56.3028
31.7262 3222 56.7627
31.8436 3383 58.1636
31.9611 3302 57.463
32.0785 3431 58.5747
32.1959 3286 57.3236
32.3134 3280 57.2713
32.4308 3168 56.285
32.5482 3181 56.4004
32.6655 3070 55.4076
32.7829 3024 54.9909
32.9002 2983 54.6168
33.0176 2994 54.7175
33.1349 2939 54.2125
33.2522 2936 54.1849
33.3694 2925 54.0833
33.4867 2955 54.3599
33.6039 2973 54.5252
33.7211 2796 52.8772
33.8383 2810 53.0094
33.9554 2832 53.2165
34.0725 2779 52.7162
34.1896 2846 53.3479
34.3067 2870 53.5724
34.4237 3020 54.9545
34.5407 3077 55.4707
34.6577 3169 56.2939
34.7746 3166 56.2672
34.8915 3069 55.3986
35.0084 2968 54.4794
35.1252 3013 54.8908
35.242 2703 51.9904
35.3587 2810 53.0094
35.4755 2787 52.792
35.5921 2994 54.7175
35.7088 2968 54.4794
35.8254 3014 54.8999
35.9419 3008 54.8452
36.0584 2973 54.5252
36.1749 2816 53.066
36.2913 2838 53.2729
36.4077 2614 51.1273
36.524 2527 50.2693
36.6403 2376 48.7442
36.7565 2299 47.9479
36.8727 2048 45.2548
36.9889 2044 45.2106
37.1049 1863 43.1625
37.221 0 1
37.3369 0 1
37.4529 0 1
37.5687 0 1
37.6845 0 1
37.8003 0 1
37.916 0 1
38.0316 0 1
38.1472 0 1
40.5851 0 1
40.7008 0 1
40.8164 0 1
40.9322 0 1
41.048 0 1
41.1639 0 1
41.2798 0 1
41.3958 0 1
41.5118 0 1
41.6279 0 1
41.744 1343 36.647
41.8602 1567 39.5854
41.9765 1838 42.8719
42.0928 2075 45.5522
42.2091 2080 45.607
42.3255 2227 47.1911
42.4419 2202 46.9255
42.5584 2218 47.0956
42.675 2311 48.0729
42.7915 2227 47.1911
42.9081 2147 46.3357
43.0248 2040 45.1664
43.1415 2206 46.9681
43.2582 2198 46.8828
43.375 2259 47.5289
43.4918 2349 48.4665
43.6087 2303 47.9896
43.7256 2342 48.3942
43.8425 2292 47.8748
43.9595 2171 46.594
44.0765 2130 46.1519
44.1935 2060 45.3872
44.3106 2218 47.0956
44.4277 2220 47.1169
44.5448 2295 47.9062
44.6619 2196 46.8615
44.7791 2340 48.3735
44.8963 2331 48.2804
45.0136 2304 48
45.1308 2363 48.6107
45.2481 2428 49.2747
45.3654 2334 48.3115
45.4827 2406 49.051
45.6001 2444 49.4368
45.7174 2421 49.2037
45.8348 2422 49.2138
45.9522 2497 49.97
46.0697 2297 47.927
46.1871 2322 48.1871
46.3046 2120 46.0435
46.422 2044 45.2106
46.5395 1963 44.3058
46.657 1951 44.1701
46.7745 2072 45.5192
46.892 2158 46.4543
47.0096 2277 47.7179
47.1271 2241 47.3392
47.2446 2292 47.8748
47.3622 2342 48.3942
47.4797 2390 48.8876
47.5973 2253 47.4658
47.7149 2249 47.4236
47.8324 2203 46.9361
47.95 2191 46.8081
48.0675 2115 45.9891
48.1851 2329 48.2597
48.3027 2287 47.8226
48.4202 2290 47.8539
48.5378 2326 48.2286
48.6554 2288 47.833
48.7729 2335 48.3218
48.8904 2355 48.5283
49.008 2332 48.2908
49.1255 2390 48.8876
49.243 2249 47.4236
49.3605 2303 47.9896
49.478 2163 46.5081
49.5955 2018 44.9222
49.713 2045 45.2217
49.8304 1919 43.8064
49.9479 1864 43.1741
50.0653 1818 42.638
50.1827 1884 43.4051
50.3001 2043 45.1996
50.4175 2048 45.2548
50.5348 2089 45.7056
50.6521 2148 46.3465
50.7694 2213 47.0425
50.8867 2235 47.2758
51.004 2173 46.6154
51.1212 2155 46.422
51.2384 2153 46.4004
51.3556 2135 46.2061
51.4727 2070 45.4973
51.5899 2176 46.6476
51.707 2151 46.3789
51.824 2239 47.3181
51.9411 2341 48.3839
52.0581 2262 47.5605
52.175 2418 49.1732
52.2919 2419 49.1833
52.4088 2481 49.8096
52.5257 2485 49.8498
52.6425 2556 50.5569
52.7593 2526 50.2593
52.876 2468 49.679
52.9927 2407 49.0612
53.1094 2381 48.7955
53.226 2190 46.7974
53.3426 2113 45.9674
53.4591 1995 44.6654
53.5756 1859 43.1161
53.692 1700 41.2311
53.8084 1593 39.9124
53.9248 1563 39.5348
54.0411 1509 38.8458
54.1573 1570 39.6232
54.2735 0 1
54.3896 0 1
54.5057 0 1
54.6217 0 1
54.7377 0 1
54.8537 0 1
54.9695 0 1
55.0853 0 1
55.2011 0 1
55.3168 0 1
55.4324 0 1
57.824 0 1
57.9396 0 1
58.0553 0 1
58.1711 0 1
58.2869 0 1
58.4028 0 1
58.5187 0 1
58.6347 0 1
58.7508 0 1
58.8669 0 1
58.983 42134 205.266
59.0992 73643 271.372
59.2155 108927 330.041
59.3318 140719 375.125
59.4482 163627 404.508
59.5646 181229 425.71
59.681 197026 443.876
59.7975 213896 462.489
59.9141 229913 479.492
60.0306 247322 497.315
60.1473 263326 513.153
60.2639 278862 528.074
60.3807 295472 543.573
60.4974 309861 556.652
60.6142 322765 568.124
60.731 337751 581.163
60.8479 350700 592.199
60.9648 362853 602.373
61.0818 373683 611.296
61.1987 382810 618.716
61.3158 388823 623.557
61.4328 391427 625.641
61.5499 391354 625.583
61.667 379507 616.041
61.7841 351925 593.233
61.9013 306363 553.501
62.0185 255386 505.357
62.1357 220502 469.576
62.253 222269 471.454
62.3702 248899 498.898
62.4875 274616 524.038
62.6049 281855 530.9
62.7222 271246 520.813
62.8396 254685 504.663
62.9569 230616 480.225
63.0743 199694 446.871
63.1918 162814 403.502
63.3092 128979 359.136
63.4267 102189 319.67
63.5441 81503 285.487
63.6616 65598 256.121
63.7791 54039 232.463
63.8966 43577 208.751
64.0142 34733 186.368
64.1317 26277 162.102
64.2492 18773 137.015
64.3668 12190 110.408
64.4843 7811 88.3799
64.6019 5215 72.215
64.7195 4174 64.6065
64.837 3592 59.9333
64.9546 3243 56.9473
65.0722 3173 56.3294
65.1898 3065 55.3624
65.3074 2860 53.479
65.4249 2722 52.1728
65.5425 2554 50.5371
65.6601 2517 50.1697
65.7777 2711 52.0673
65.8952 2883 53.6936
66.0128 2909 53.9351
66.1304 2979 54.5802
66.2479 2912 53.963
66.3655 2958 54.3875
66.483 2920 54.037
66.6005 2933 54.1572
66.718 3044 55.1725
66.8355 2937 54.1941
66.953 2992 54.6992
67.0705 2860 53.479
67.1879 2780 52.7257
67.3054 2697 51.9326
67.4228 2704 52
67.5402 2705 52.0096
67.6576 2681 51.7784
67.7749 2739 52.3355
67.8923 2592 50.9117
68.0096 2568 50.6754
68.1269 2561 50.6063
68.2442 2542 50.4183
68.3614 2446 49.4571
68.4787 2427 49.2646
68.5958 2385 48.8365
68.713 2492 49.9199
68.8302 2468 49.679
68.9473 2382 48.8057
69.0643 2311 48.0729
69.1814 2237 47.2969
69.2984 2268 47.6235
69.4154 2270 47.6445
69.5323 2450 49.4975
69.6492 2691 51.8748
69.7661 2824 53.1413
69.8829 2898 53.8331
69.9997 2769 52.6213
70.1165 3083 55.5248
70.2332 3296 57.4108
70.3499 3274 57.2189
70.4665 3421 58.4893
70.5831 3460 58.8218
70.6996 3359 57.9569
70.8161 3057 55.2901
70.9326 2589 50.8822
71.049 2130 46.1519
71.1653 1870 43.2435
71.2817 1636 40.4475
71.3979 1520 38.9872
71.5141 1387 37.2424
71.6303 1180 34.3511
71.7464 1113 33.3617
71.8624 0 1
71.9784 0 1
72.0944 0 1
72.2102 0 1
72.3261 0 1
72.4418 0 1
72.5575 0 1
72.6732 0 1
75.1054 0 1
75.2209 0 1
75.3365 0 1
75.4521 0 1
75.5678 0 1
75.6835 0 1
75.7993 0 1
75.9151 0 1
76.031 0 1
76.147 1607 40.0874
76.263 1760 41.9524
76.3791 1994 44.6542
76.4952 2011 44.8442
76.6113 2030 45.0555
76.7276 2016 44.8999
76.8438 2118 46.0217
76.9601 2137 46.2277
77.0765 2122 46.0652
77.1929 2140 46.2601
77.3093 2030 45.0555
77.4258 2095 45.7712
77.5423 2101 45.8367
77.6589 1986 44.5646
77.7755 1975 44.441
77.8921 1967 44.3509
78.0088 1978 44.4747
78.1256 1876 43.3128
78.2423 1895 43.5316
78.3591 1870 43.2435
78.4759 1961 44.2832
78.5928 1899 43.5775
78.7097 2009 44.8219
78.8266 1894 43.5201
78.9436 1957 44.238
79.0606 2014 44.8776
79.1776 2054 45.3211
79.2946 2144 46.3033
79.4117 2206 46.9681
79.5288 2182 46.7119
79.6459 2134 46.1952
79.7631 2126 46.1086
79.8802 2069 45.4863
79.9974 2174 46.6262
80.1147 2122 46.0652
80.2319 2147 46.3357
80.3491 2072 45.5192
80.4664 2179 46.6798
80.5837 2214 47.0532
80.701 2159 46.465
80.8183 2074 45.5412
80.9357 2139 46.2493
81.053 2098 45.8039
81.1704 2148 46.3465
81.2877 2094 45.7602
81.4051 2020 44.9444
81.5225 2000 44.7214
81.6399 1976 44.4522
81.7573 2011 44.8442
81.8747 1895 43.5316
81.9922 1942 44.0681
82.1096 2076 45.5631
82.227 2115 45.9891
82.3444 1977 44.4635
82.4619 1884 43.4051
82.5793 2036 45.1221
82.6967 2047 45.2438
82.8142 2140 46.2601
82.9316 2186 46.7547
83.049 2183 46.7226
83.1664 2294 47.8957
83.2838 2248 47.4131
83.4012 2210 47.0106
83.5186 2135 46.2061
83.636 2175 46.6369
83.7534 2108 45.913
83.8708 2106 45.8912
83.9881 2110 45.9347
84.1055 2195 46.8508
84.2228 2177 46.6583
84.3401 2124 46.0869
84.4575 2213 47.0425
84.5747 2203 46.9361
84.692 2042 45.1885
84.8093 2069 45.4863
84.9265 2056 45.3431
85.0437 2045 45.2217
85.1609 1928 43.909
85.2781 2011 44.8442
85.3952 1983 44.5309
85.5123 2064 45.4313
85.6294 2169 46.5725
85.7465 2203 46.9361
85.8636 2156 46.4327
85.9806 2133 46.1844
86.0976 2012 44.8553
86.2145 2105 45.8803
86.3315 2255 47.4868
86.4484 2201 46.9148
86.5652 2270 47.6445
86.682 2255 47.4868
86.7988 2296 47.9166
86.9156 2235 47.2758
87.0323 2224 47.1593
87.149 2182 46.7119
87.2657 2080 45.607
87.3823 2082 45.6289
87.4988 2041 45.1774
87.6154 2088 45.6946
87.7318 1993 44.643
87.8483 1937 44.0114
87.9647 1764 42
88.081 1686 41.0609
88.1973 1496 38.6782
88.3136 1433 37.855
88.4298 1269 35.623
88.546 1204 34.6987
88.6621 1186 34.4384
88.7781 1076 32.8024
88.8942 0 1
89.0101 0 1
89.126 0 1
89.2419 0 1
89.3577 0 1
89.4734 0 1
89.5891 0 1
89.7047 0 1
89.8203 0 1
89.9358 0 1
92.3269 0 1
92.4424 0 1
92.558 0 1
92.6736 0 1
92.7893 0 1
92.905 0 1
93.0208 0 1
93.1366 0 1
93.2525 0 1
93.3685 0 1
93.4845 0 1
93.6005 1777 42.1545
93.7167 1895 43.5316
93.8328 1814 42.5911
93.949 1915 43.7607
94.0653 1870 43.2435
94.1816 1965 44.3283
94.2979 1980 44.4972
94.4143 1989 44.5982
94.5307 1893 43.5086
94.6472 2078 45.5851
94.7637 2159 46.465
94.8803 2199 46.8935
94.9969 2136 46.2169
95.1135 2046 45.2327
95.2302 2127 46.1194
95.3469 2074 45.5412
95.4637 2101 45.8367
95.5805 2273 47.676
95.6973 2323 48.1975
95.8142 2178 46.669
95.9311 2168 46.5618
96.048 2209 47
96.1649 2221 47.1275
96.2819 2300 47.9583
96.3989 2171 46.594
96.516 2108 45.913
96.633 2225 47.1699
96.7501 2184 46.7333
96.8673 2333 48.3011
96.9844 2255 47.4868
97.1016 2253 47.4658
97.2188 2208 46.9894
97.336 2178 46.669
97.4532 2049 45.2659
97.5704 2133 46.1844
97.6877 1955 44.2154
97.805 1915 43.7607
97.9223 1974 44.4297
98.0396 1965 44.3283
98.1569 2040 45.1664
98.2743 2041 45.1774
98.3916 2263 47.571
98.509 2206 46.9681
98.6264 2266 47.6025
98.7438 2262 47.5605
98.8612 2186 46.7547
98.9786 2195 46.8508
99.096 2248 47.4131
99.2134 2332 48.2908
99.3308 2379 48.775
99.4482 2425 49.2443
99.5656 2368 48.6621
99.6831 2390 48.8876
99.8005 2375 48.734
99.9179 2439 49.3862
100.035 2420 49.1935
100.153 2331 48.2804
100.27 2420 49.1935
100.388 2383 48.816
100.505 2389 48.8774
100.622 2350 48.4768
100.74 2291 47.8644
100.857 2294 47.8957
100.975 2264 47.5815
101.092 2169 46.5725
101.209 2150 46.3681
101.327 2113 45.9674
101.444 2161 46.4866
101.561 2095 45.7712
101.679 2158 46.4543
101.796 2261 47.55
101.913 2351 48.4871
102.03 2359 48.5695
102.148 2419 49.1833
102.265 2465 49.6488
102.382 2289 47.8435
102.499 2392 48.9081
102.616 2407 49.0612
102.733 2497 49.97
102.851 2502 50.02
102.968 2588 50.8724
103.085 2571 50.705
103.202 2543 50.4282
103.319 2577 50.7642
103.436 2417 49.163
103.552 2463 49.6286
103.669 2586 50.8527
103.786 2518 50.1797
103.903 2613 51.1175
104.02 2582 50.8134
104.137 2480 49.7996
104.253 2623 51.2152
104.37 2542 50.4183
104.487 2435 49.3457
104.603 2386 48.8467
104.72 2354 48.518
104.836 2215 47.0638
104.953 2152 46.3897
105.069 2170 46.5833
105.186 2085 45.6618
105.302 2073 45.5302
105.418 2029 45.0444
105.535 1857 43.0929
105.651 1786 42.2611
105.767 1660 40.7431
105.883 1445 38.0132
105.999 1295 35.9861
106.115 0 1
106.231 0 1
106.347 0 1
106.463 0 1
106.579 0 1
106.694 0 1
106.81 0 1
106.926 0 1
107.041 0 1
107.157 0 1
109.576 0 1
109.692 0 1
109.807 0 1
109.923 0 1
110.039 0 1
110.155 0 1
110.27 0 1
110.386 0 1
110.502 0 1
110.618 1439 37.9342
110.735 1785 42.2493
110.851 1841 42.9069
110.967 2015 44.8888
111.083 2080 45.607
111.199 2308 48.0416
111.316 2303 47.9896
111.432 2464 49.6387
111.549 2505 50.05
111.665 2412 49.1121
111.782 2409 49.0816
111.898 2397 48.9592
112.015 2411 49.1019
112.132 2472 49.7192
112.248 2463 49.6286
112.365 2398 48.9694
112.482 2428 49.2747
112.599 2521 50.2096
112.716 2445 49.4469
112.832 2345 48.4252
112.949 2237 47.2969
113.066 2167 46.551
113.183 2153 46.4004
113.3 2112 45.9565
113.417 2067 45.4643
113.534 1943 44.0795
113.652 1997 44.6878
113.769 1898 43.566
113.886 1966 44.3396
114.003 2028 45.0333
114.12 2015 44.8888
114.238 2282 47.7703
114.355 2231 47.2335
114.472 2178 46.669
114.589 2132 46.1736
114.707 2060 45.3872
114.824 2135 46.2061
114.942 2092 45.7384
115.059 2128 46.1303
115.176 2187 46.7654
115.294 2099 45.8148
115.411 2000 44.7214
115.529 1998 44.699
115.646 2065 45.4423
115.764 2062 45.4093
115.881 2097 45.793
115.999 2096 45.7821
116.116 2017 44.911
116.234 2042 45.1885
116.351 1991 44.6206
116.469 1941 44.0568
116.586 1881 43.3705
116.704 1903 43.6234
116.821 1846 42.9651
116.939 1819 42.6497
117.056 1797 42.391
117.174 1759 41.9404
117.291 1631 40.3856
117.409 1752 41.8569
117.526 1718 41.4488
117.644 1762 41.9762
117.761 1901 43.6005
117.879 2067 45.4643
117.996 1975 44.441
118.114 1976 44.4522
118.231 1967 44.3509
118.349 1974 44.4297
118.466 1944 44.0908
118.584 2010 44.833
118.701 2089 45.7056
118.819 1910 43.7035
118.936 1855 43.0697
119.053 1863 43.1625
119.171 1872 43.2666
119.288 1864 43.1741
119.405 1802 42.45
119.523 1874 43.2897
119.64 1972 44.4072
119.757 1923 43.852
119.875 1882 43.382
119.992 1905 43.6463
120.109 1822 42.6849
120.226 1830 42.7785
120.343 1765 42.0119
120.46 1724 41.5211
120.578 1803 42.4617
120.695 1706 41.3038
120.812 1630 40.3733
120.929 1598 39.975
121.046 1613 40.1622
121.163 1597 39.9625
121.279 1618 40.2244
121.396 1600 40
121.513 1672 40.8901
121.63 1666 40.8167
121.747 1725 41.5331
121.863 1681 41
121.98 1659 40.7308
122.097 1563 39.5348
122.213 1642 40.5216
122.33 1527 39.0768
122.446 1425 37.7492
122.563 1277 35.7351
122.679 1138 33.7343
122.795 1135 33.6898
122.912 1131 33.6303
123.028 1109 33.3017
123.144 1070 32.7109
123.26 1060 32.5576
123.377 0 1
123.493 0 1
123.609 0 1
123.725 0 1
123.84 0 1
123.956 0 1
124.072 0 1
124.188 0 1
124.303 0 1
124.419 0 1
126.852 0 1
126.968 0 1
127.083 0 1
127.199 0 1
127.315 0 1
127.431 0 1
127.547 0 1
127.663 0 1
127.779 0 1
127.895 0 1
128.011 0 1
128.127 0 1
128.243 0 1
128.359 2037 45.1331
128.476 2152 46.3897
128.592 2114 45.9783
128.708 2129 46.1411
128.825 2163 46.5081
128.941 2235 47.2758
129.058 2189 46.7868
129.174 2211 47.0213
129.291 2156 46.4327
129.408 2147 46.3357
129.524 2181 46.7012
129.641 2116 46
129.758 2041 45.1774
129.875 1932 43.9545
129.992 1893 43.5086
130.108 1914 43.7493
130.225 1907 43.6692
130.342 1985 44.5533
130.459 2126 46.1086
130.576 2307 48.0312
130.693 2441 49.4065
130.81 2518 50.1797
130.928 2606 51.049
131.045 2662 51.5946
131.162 2652 51.4976
131.279 2793 52.8488
131.396 2955 54.3599
131.513 3155 56.1694
131.631 3137 56.0089
131.748 3176 56.356
131.865 3399 58.3009
131.983 3746 61.2046
132.1 3825 61.8466
132.217 4291 65.5057
132.335 4553 67.4759
132.452 4560 67.5278
132.57 4697 68.5347
132.687 4673 68.3593
132.804 4959 70.4202
132.922 5062 71.1477
133.039 5189 72.0347
133.157 5209 72.1734
133.274 5137 71.6729
133.392 5146 71.7356
133.509 5011 70.7884
133.627 5001 70.7177
133.744 4969 70.4911
133.862 4885 69.8928
133.979 4951 70.3633
134.097 5207 72.1595
134.214 5137 71.6729
134.332 5315 72.904
134.449 5289 72.7255
134.567 5040 70.993
134.684 5077 71.2531
134.802 5013 70.8025
134.919 5068 71.1899
135.037 5036 70.9648
135.154 4805 69.3181
135.272 4750 68.9202
135.389 4819 69.419
135.507 4916 70.1142
135.624 5095 71.3793
135.742 5394 73.4439
135.859 5250 72.4569
135.977 5354 73.171
136.094 5267 72.5741
136.211 5305 72.8354
136.329 5396 73.4575
136.446 5242 72.4017
136.564 5168 71.8888
136.681 5354 73.171
136.798 5247 72.4362
136.915 5137 71.6729
137.033 5295 72.7668
137.15 5057 71.1126
137.267 4804 69.3109
137.384 4746 68.8912
137.502 4631 68.0515
137.619 4576 67.6461
137.736 4798 69.2676
137.853 4805 69.3181
137.97 5008 70.7672
138.087 4812 69.3686
138.204 4796 69.2532
138.321 4646 68.1616
138.438 4733 68.7968
138.555 4898 69.9857
138.672 4797 69.2604
138.788 4558 67.513
138.905 4458 66.7683
139.022 4473 66.8805
139.139 4526 67.2756
139.255 4589 67.7422
139.372 4548 67.4389
139.488 4228 65.0231
139.605 4185 64.6916
139.721 3689 60.7371
139.838 3390 58.2237
139.954 3208 56.6392
140.071 2990 54.6809
140.187 2915 53.9907
140.303 2740 52.345
140.419 2574 50.7346
140.535 2671 51.6817
140.652 2465 49.6488
140.768 0 1
140.884 0 1
141 0 1
141.115 0 1
141.231 0 1
141.347 0 1
141.463 0 1
141.578 0 1
141.694 0 1
144.104 0 1
144.219 0 1
144.335 0 1
144.45 0 1
144.566 0 1
144.682 0 1
144.798 0 1
144.914 0 1
145.03 0 1
145.146 4368 66.0908
145.262 4419 66.4756
145.378 4586 67.72
145.494 4549 67.4463
145.61 4638 68.1029
145.726 4720 68.7023
145.842 4614 67.9264
145.959 4702 68.5711
146.075 4622 67.9853
146.192 4644 68.1469
146.308 4470 66.8581
146.425 4540 67.3795
146.541 4671 68.3447
146.658 4910 70.0714
146.774 5133 71.645
146.891 4975 70.5337
147.008 5183 71.9931
147.125 4919 70.1356
147.241 4943 70.3065
147.358 5072 71.218
147.475 4979 70.562
147.592 4943 70.3065
147.709 4670 68.3374
147.826 4527 67.283
147.943 4674 68.3667
148.06 4802 69.2965
148.177 4837 69.5485
148.294 4931 70.2211
148.411 5039 70.9859
148.528 5082 71.2881
148.645 5132 71.638
148.762 5077 71.2531
148.88 5185 72.0069
148.997 5125 71.5891
149.114 4984 70.5975
149.231 5033 70.9436
149.349 5126 71.5961
149.466 5041 71
149.583 5056 71.1056
149.701 4804 69.3109
149.818 4558 67.513
149.935 4528 67.2904
150.053 4425 66.5207
150.17 4601 67.8307
150.287 4556 67.4981
150.405 4651 68.1982
150.522 4663 68.2862
150.64 4538 67.3647
150.757 4458 66.7683
150.875 4416 66.453
150.992 4443 66.6558
151.11 4314 65.681
151.227 4162 64.5136
151.344 3978 63.0714
151.462 3696 60.7947
151.579 3615 60.1249
151.697 3692 60.7618
151.814 4046 63.6082
151.932 4156 64.467
152.049 4089 63.9453
152.167 4263 65.2917
152.284 4157 64.4748
152.402 4201 64.8151
152.519 4176 64.622
152.636 4082 63.8905
152.754 4140 64.3428
152.871 4158 64.4826
152.989 4137 64.3195
153.106 4151 64.4283
153.223 4043 63.5846
153.341 3956 62.8967
153.458 3906 62.498
153.575 3790 61.563
153.693 3723 61.0164
153.81 3841 61.9758
153.927 3769 61.3922
154.044 3825 61.8466
154.162 3764 61.3514
154.279 3704 60.8605
154.396 3756 61.2862
154.513 3832 61.9032
154.63 3846 62.0161
154.747 3843 61.9919
154.864 3768 61.384
154.981 3531 59.4222
155.098 3565 59.7076
155.215 3417 58.4551
155.332 3526 59.3801
155.449 3771 61.4085
155.566 3858 62.1128
155.683 3850 62.0484
155.8 3874 62.2415
155.917 3904 62.482
156.033 3784 61.5142
156.15 0 1
156.267 0 1
156.383 0 1
156.5 0 1
156.617 0 1
156.733 0 1
156.85 0 1
156.966 0 1
157.082 0 1
157.199 0 1
157.315 0 1
157.431 0 1
157.547 0 1
157.664 0 1
157.78 0 1
157.896 0 1
158.012 0 1
158.128 0 1
158.244 0 1
158.359 0 1
158.475 0 1
158.591 0 1
158.706 0 1
