
6.15755 0 1
6.2731 0 1
6.3887 0 1
6.50437 0 1
6.62009 0 1
6.73587 0 1
6.8517 0 1
6.96759 0 1
7.08353 0 1
7.19952 0 1
7.31557 0 1
7.43166 0 1
7.54781 0 1
7.664 0 1
7.78024 0 1
7.89653 0 1
8.01286 0 1
8.12924 0 1
8.24567 0 1
8.36213 0 1
8.47864 0 1
8.59519 0 1
8.71178 0 1
8.82841 0 1
8.94508 0 1
9.06179 0 1
9.17853 0 1
9.29531 0 1
9.41212 0 1
9.52897 0 1
9.64584 0 1
9.76276 0 1
9.8797 0 1
9.99667 0 1
10.1137 0 1
10.2307 0 1
10.3478 0 1
10.4648 0 1
10.5819 0 1
10.6991 0 1
10.8162 0 1
10.9334 0 1
11.0506 0 1
11.1678 0 1
11.285 0 1
11.4023 0 1
11.5196 0 1
11.6369 0 1
11.7542 0 1
11.8715 0 1
11.9888 0 1
12.1062 0 1
12.2235 0 1
12.3409 0 1
12.4582 0 1
12.5756 0 1
12.693 0 1
12.8104 0 1
12.9278 0 1
13.0452 0 1
13.1626 0 1
13.28 0 1
13.3974 0 1
13.5149 0 1
13.6323 0 1
13.7497 0 1
13.8671 0 1
13.9845 0 1
14.1019 0 1
14.2193 0 1
14.3367 0 1
14.4541 0 1
14.5714 0 1
14.6888 0 1
14.8062 0 1
14.9235 0 1
15.0408 4115 64.1483
15.1581 4167 64.5523
15.2755 4407 66.3852
15.3927 4172 64.591
15.51 4117 64.1639
15.6273 4022 63.4192
15.7445 3926 62.6578
15.8617 3872 62.2254
15.9789 3806 61.6928
16.0961 3898 62.434
16.2132 3816 61.7738
16.3304 3730 61.0737
16.4475 3763 61.3433
16.5646 3630 60.2495
16.6816 3652 60.4318
16.7986 3676 60.63
16.9156 3556 59.6322
17.0326 3520 59.3296
17.1496 3514 59.279
17.2665 3499 59.1523
17.3833 3590 59.9166
17.5002 3513 59.2706
17.617 3620 60.1664
17.7338 3500 59.1608
17.8505 3523 59.3549
17.9672 3500 59.1608
18.0839 3469 58.8982
18.2005 3411 58.4038
18.3171 3477 58.9661
18.4337 3417 58.4551
18.5502 3581 59.8415
18.6666 3698 60.8112
18.7831 3588 59.8999
18.8994 3427 58.5406
19.0158 3365 58.0086
19.1321 3162 56.2317
19.2483 2989 54.6717
19.3645 2821 53.1131
19.4806 2790 52.8205
19.5967 2667 51.643
19.7128 2742 52.3641
19.8288 2629 51.2738
19.9447 2450 49.4975
20.0606 0 1
20.1764 0 1
20.2922 0 1
20.4079 0 1
20.5236 0 1
20.6392 0 1
20.7548 0 1
20.8702 0 1
23.3078 0 1
23.4233 0 1
23.539 0 1
23.6547 0 1
23.7704 0 1
23.8862 0 1
24.0021 0 1
24.118 0 1
24.234 0 1
24.35 0 1
24.4661 1366 36.9594
24.5822 1701 41.2432
24.6984 1956 44.2267
24.8146 2310 48.0625
24.9309 2710 52.0577
25.0472 2912 53.963
25.1636 3023 54.9818
25.28 3319 57.6108
25.3965 3593 59.9416
25.513 3907 62.506
25.6296 3914 62.562
25.7462 3805 61.6847
25.8628 3902 62.466
25.9795 3871 62.2174
26.0962 3766 61.3677
26.213 3626 60.2163
26.3298 3596 59.9667
26.4466 3479 58.983
26.5635 3170 56.3028
26.6804 3113 55.7943
26.7973 3021 54.9636
26.9143 3141 56.0446
27.0313 3043 55.1634
27.1483 3170 56.3028
27.2653 3385 58.1808
27.3824 3298 57.4282
27.4996 3297 57.4195
27.6167 3498 59.1439
27.7339 3129 55.9375
27.8511 2857 53.4509
27.9683 2945 54.2679
28.0855 3089 55.5788
28.2028 3153 56.1516
28.3201 3410 58.3952
28.4374 3434 58.6003
28.5547 3516 59.2959
28.6721 3487 59.0508
28.7894 3495 59.1185
28.9068 3427 58.5406
29.0242 3323 57.6455
29.1416 3371 58.0603
29.259 3431 58.5747
29.3764 3248 56.9912
29.4939 3339 57.7841
29.6113 3227 56.8067
29.7288 3168 56.285
29.8463 3089 55.5788
29.9638 3163 56.2406
30.0812 2839 53.2823
30.1987 2854 53.4228
30.3162 2886 53.7215
30.4337 2938 54.2033
30.5512 3003 54.7996
30.6687 3165 56.2583
30.7862 3218 56.7274
30.9037 3365 58.0086
31.0212 3459 58.8133
31.1387 3467 58.8812
31.2562 3253 57.0351
31.3737 3137 56.0089
31.4912 2959 54.3967
31.6087 3153 56.1516
31.7262 3289 57.3498
31.8436 3354 57.9137
31.9611 3407 58.3695
32.0785 3324 57.6541
32.1959 3333 57.7321
32.3134 3195 56.5243
32.4308 3023 54.9818
32.5482 3078 55.4797
32.6655 3058 55.2992
32.7829 2956 54.3691
32.9002 2924 54.074
33.0176 2880 53.6656
33.1349 2975 54.5436
33.2522 2736 52.3068
33.3694 2821 53.1131
33.4867 2978 54.5711
33.6039 2813 53.0377
33.7211 2823 53.1319
33.8383 2820 53.1037
33.9554 2765 52.5833
34.0725 2740 52.345
34.1896 2794 52.8583
34.3067 3011 54.8726
34.4237 3129 55.9375
34.5407 3036 55.0999
34.6577 3149 56.116
34.7746 3165 56.2583
34.8915 3036 55.0999
35.0084 2749 52.4309
35.1252 2480 49.7996
35.242 2654 51.517
35.3587 2829 53.1883
35.4755 2967 54.4702
35.5921 3027 55.0182
35.7088 2925 54.0833
35.8254 3016 54.9181
35.9419 2957 54.3783
36.0584 2873 53.6004
36.1749 2691 51.8748
36.2913 2761 52.5452
36.4077 2718 52.1344
36.524 2491 49.9099
36.6403 2461 49.6085
36.7565 2270 47.6445
36.8727 2293 47.8853
36.9889 2103 45.8585
37.1049 1779 42.1782
37.221 0 1
37.3369 0 1
37.4529 0 1
37.5687 0 1
37.6845 0 1
37.8003 0 1
37.916 0 1
38.0316 0 1
38.1472 0 1
40.5851 0 1
40.7008 0 1
40.8164 0 1
40.9322 0 1
41.048 0 1
41.1639 0 1
41.2798 0 1
41.3958 0 1
41.5118 0 1
41.6279 0 1
41.744 1316 36.2767
41.8602 1485 38.5357
41.9765 1675 40.9268
42.0928 1804 42.4735
42.2091 1967 44.3509
42.3255 2027 45.0222
42.4419 2157 46.4435
42.5584 2225 47.1699
42.675 2151 46.3789
42.7915 2339 48.3632
42.9081 2171 46.594
43.0248 2288 47.833
43.1415 2291 47.8644
43.2582 2269 47.634
43.375 2321 48.1768
43.4918 2408 49.0714
43.6087 2314 48.1041
43.7256 2277 47.7179
43.8425 2157 46.4435
43.9595 2003 44.7549
44.0765 2039 45.1553
44.1935 2103 45.8585
44.3106 2277 47.7179
44.4277 2374 48.7237
44.5448 2401 49
44.6619 2480 49.7996
44.7791 2342 48.3942
44.8963 2421 49.2037
45.0136 2355 48.5283
45.1308 2405 49.0408
45.2481 2441 49.4065
45.3654 2334 48.3115
45.4827 2428 49.2747
45.6001 2513 50.1298
45.7174 2461 49.6085
45.8348 2465 49.6488
45.9522 2462 49.6185
46.0697 2444 49.4368
46.1871 2198 46.8828
46.3046 2225 47.1699
46.422 2114 45.9783
46.5395 2199 46.8935
46.657 2187 46.7654
46.7745 2258 47.5184
46.892 2390 48.8876
47.0096 2360 48.5798
47.1271 2436 49.3559
47.2446 2447 49.4672
47.3622 2325 48.2183
47.4797 2183 46.7226
47.5973 2055 45.3321
47.7149 2124 46.0869
47.8324 2200 46.9042
47.95 2383 48.816
48.0675 2323 48.1975
48.1851 2368 48.6621
48.3027 2416 49.1528
48.4202 2374 48.7237
48.5378 2334 48.3115
48.6554 2394 48.9285
48.7729 2415 49.1426
48.8904 2383 48.816
49.008 2409 49.0816
49.1255 2337 48.3425
49.243 2405 49.0408
49.3605 2302 47.9792
49.478 2230 47.2229
49.5955 2169 46.5725
49.713 2027 45.0222
49.8304 2042 45.1885
49.9479 1870 43.2435
50.0653 2064 45.4313
50.1827 2019 44.9333
50.3001 2083 45.6399
50.4175 2156 46.4327
50.5348 2218 47.0956
50.6521 2160 46.4758
50.7694 2189 46.7868
50.8867 2178 46.669
51.004 2080 45.607
51.1212 1923 43.852
51.2384 1992 44.6318
51.3556 2088 45.6946
51.4727 2261 47.55
51.5899 2381 48.7955
51.707 2350 48.4768
51.824 2272 47.6655
51.9411 2271 47.655
52.0581 2301 47.9687
52.175 2276 47.7074
52.2919 2215 47.0638
52.4088 2199 46.8935
52.5257 2295 47.9062
52.6425 2280 47.7493
52.7593 2297 47.927
52.876 2215 47.0638
52.9927 2250 47.4342
53.1094 2119 46.0326
53.226 2100 45.8258
53.3426 2047 45.2438
53.4591 2105 45.8803
53.5756 1956 44.2267
53.692 1829 42.7668
53.8084 1770 42.0714
53.9248 1674 40.9145
54.0411 1578 39.724
54.1573 1443 37.9868
54.2735 0 1
54.3896 0 1
54.5057 0 1
54.6217 0 1
54.7377 0 1
54.8537 0 1
54.9695 0 1
55.0853 0 1
55.2011 0 1
55.3168 0 1
55.4324 0 1
57.824 0 1
57.9396 0 1
58.0553 0 1
58.1711 0 1
58.2869 0 1
58.4028 0 1
58.5187 0 1
58.6347 0 1
58.7508 0 1
58.8669 0 1
58.983 3200 56.5685
59.0992 3807 61.7009
59.2155 4560 67.5278
59.3318 5151 71.7705
59.4482 5647 75.1465
59.5646 5946 77.1103
59.681 6289 79.3032
59.7975 6470 80.4363
59.9141 6393 79.9562
60.0306 6617 81.3449
60.1473 6731 82.0427
60.2639 6824 82.6075
60.3807 6831 82.6499
60.4974 6921 83.1925
60.6142 7049 83.9583
60.731 6951 83.3727
60.8479 6958 83.4146
60.9648 6625 81.3941
61.0818 6525 80.7775
61.1987 6371 79.8185
61.3158 6297 79.3536
61.4328 6221 78.8733
61.5499 5984 77.3563
61.667 5862 76.5637
61.7841 5765 75.9276
61.9013 5538 74.4177
62.0185 5390 73.4166
62.1357 5320 72.9383
62.253 5177 71.9514
62.3702 5147 71.7426
62.4875 5131 71.631
62.6049 4938 70.2709
62.7222 5224 72.2772
62.8396 5407 73.5323
62.9569 5379 73.3417
63.0743 5025 70.8872
63.1918 4566 67.5722
63.3092 4328 65.7875
63.4267 3876 62.2575
63.5441 3553 59.607
63.6616 3342 57.81
63.7791 3282 57.2887
63.8966 3209 56.648
64.0142 3044 55.1725
64.1317 2839 53.2823
64.2492 2675 51.7204
64.3668 2678 51.7494
64.4843 2610 51.0882
64.6019 2564 50.636
64.7195 2465 49.6488
64.837 2513 50.1298
64.9546 2437 49.366
65.0722 2420 49.1935
65.1898 2513 50.1298
65.3074 2496 49.96
65.4249 2479 49.7896
65.5425 2345 48.4252
65.6601 2367 48.6518
65.7777 2263 47.571
65.8952 2300 47.9583
66.0128 2272 47.6655
66.1304 2162 46.4973
66.2479 2330 48.2701
66.3655 2429 49.2849
66.483 2425 49.2443
66.6005 2557 50.5668
66.718 2460 49.5984
66.8355 2554 50.5371
66.953 2432 49.3153
67.0705 2390 48.8876
67.1879 2315 48.1144
67.3054 2406 49.051
67.4228 2431 49.3052
67.5402 2484 49.8397
67.6576 2513 50.1298
67.7749 2509 50.0899
67.8923 2442 49.4166
68.0096 2478 49.7795
68.1269 2437 49.366
68.2442 2380 48.7852
68.3614 2364 48.621
68.4787 2378 48.7647
68.5958 2310 48.0625
68.713 2433 49.3254
68.8302 2494 49.94
68.9473 2285 47.8017
69.0643 2358 48.5592
69.1814 2385 48.8365
69.2984 2292 47.8748
69.4154 2234 47.2652
69.5323 2157 46.4435
69.6492 2248 47.4131
69.7661 2221 47.1275
69.8829 2345 48.4252
69.9997 2360 48.5798
70.1165 2449 49.4874
70.2332 2343 48.4045
70.3499 2215 47.0638
70.4665 2207 46.9787
70.5831 2015 44.8888
70.6996 1898 43.566
70.8161 1712 41.3763
70.9326 1532 39.1408
71.049 1521 39
71.1653 1369 37
71.2817 1344 36.6606
71.3979 1265 35.5668
71.5141 1226 35.0143
71.6303 1110 33.3167
71.7464 934 30.5614
71.8624 0 1
71.9784 0 1
72.0944 0 1
72.2102 0 1
72.3261 0 1
72.4418 0 1
72.5575 0 1
72.6732 0 1
75.1054 0 1
75.2209 0 1
75.3365 0 1
75.4521 0 1
75.5678 0 1
75.6835 0 1
75.7993 0 1
75.9151 0 1
76.031 0 1
76.147 1467 38.3014
76.263 1684 41.0366
76.3791 1800 42.4264
76.4952 1906 43.6578
76.6113 2042 45.1885
76.7276 2000 44.7214
76.8438 2067 45.4643
76.9601 2096 45.7821
77.0765 2111 45.9456
77.1929 2127 46.1194
77.3093 2019 44.9333
77.4258 2025 45
77.5423 2097 45.793
77.6589 2157 46.4435
77.7755 2129 46.1411
77.8921 2214 47.0532
78.0088 2082 45.6289
78.1256 2090 45.7165
78.2423 1924 43.8634
78.3591 1923 43.852
78.4759 1907 43.6692
78.5928 1804 42.4735
78.7097 1804 42.4735
78.8266 1844 42.9418
78.9436 1959 44.2606
79.0606 2010 44.833
79.1776 1996 44.6766
79.2946 2098 45.8039
79.4117 2162 46.4973
79.5288 2130 46.1519
79.6459 2211 47.0213
79.7631 2112 45.9565
79.8802 2112 45.9565
79.9974 2043 45.1996
80.1147 2114 45.9783
80.2319 2118 46.0217
80.3491 2085 45.6618
80.4664 2204 46.9468
80.5837 2139 46.2493
80.701 2101 45.8367
80.8183 2165 46.5296
80.9357 2179 46.6798
81.053 2126 46.1086
81.1704 2180 46.6905
81.2877 2133 46.1844
81.4051 2125 46.0977
81.5225 2309 48.0521
81.6399 2208 46.9894
81.7573 2199 46.8935
81.8747 2136 46.2169
81.9922 2030 45.0555
82.1096 1961 44.2832
82.227 1922 43.8406
82.3444 1891 43.4856
82.4619 1990 44.6094
82.5793 2019 44.9333
82.6967 2183 46.7226
82.8142 2210 47.0106
82.9316 2249 47.4236
83.049 2282 47.7703
83.1664 2159 46.465
83.2838 2253 47.4658
83.4012 2239 47.3181
83.5186 2110 45.9347
83.636 2146 46.3249
83.7534 2133 46.1844
83.8708 2160 46.4758
83.9881 2219 47.1063
84.1055 2231 47.2335
84.2228 2299 47.9479
84.3401 2191 46.8081
84.4575 2129 46.1411
84.5747 2175 46.6369
84.692 2157 46.4435
84.8093 2191 46.8081
84.9265 2166 46.5403
85.0437 2256 47.4974
85.1609 2295 47.9062
85.2781 2289 47.8435
85.3952 2193 46.8295
85.5123 2111 45.9456
85.6294 2065 45.4423
85.7465 2019 44.9333
85.8636 1978 44.4747
85.9806 2000 44.7214
86.0976 2140 46.2601
86.2145 2148 46.3465
86.3315 2233 47.2546
86.4484 2185 46.744
86.5652 2270 47.6445
86.682 2389 48.8774
86.7988 2323 48.1975
86.9156 2371 48.6929
87.0323 2233 47.2546
87.149 2158 46.4543
87.2657 2243 47.3603
87.3823 2223 47.1487
87.4988 2252 47.4552
87.6154 2116 46
87.7318 2085 45.6618
87.8483 1908 43.6807
87.9647 1884 43.4051
88.081 1736 41.6653
88.1973 1618 40.2244
88.3136 1508 38.833
88.4298 1436 37.8946
88.546 1324 36.3868
88.6621 1261 35.5106
88.7781 1206 34.7275
88.8942 0 1
89.0101 0 1
89.126 0 1
89.2419 0 1
89.3577 0 1
89.4734 0 1
89.5891 0 1
89.7047 0 1
89.8203 0 1
89.9358 0 1
92.3269 0 1
92.4424 0 1
92.558 0 1
92.6736 0 1
92.7893 0 1
92.905 0 1
93.0208 0 1
93.1366 0 1
93.2525 0 1
93.3685 0 1
93.4845 0 1
93.6005 1922 43.8406
93.7167 2045 45.2217
93.8328 2185 46.744
93.949 2206 46.9681
94.0653 2197 46.8722
94.1816 2279 47.7389
94.2979 2356 48.5386
94.4143 2310 48.0625
94.5307 2261 47.55
94.6472 2205 46.9574
94.7637 2114 45.9783
94.8803 2160 46.4758
94.9969 2010 44.833
95.1135 2217 47.085
95.2302 2257 47.5079
95.3469 2210 47.0106
95.4637 2233 47.2546
95.5805 2379 48.775
95.6973 2381 48.7955
95.8142 2405 49.0408
95.9311 2397 48.9592
96.048 2379 48.775
96.1649 2285 47.8017
96.2819 2353 48.5077
96.3989 2270 47.6445
96.516 2272 47.6655
96.633 2395 48.9387
96.7501 2495 49.95
96.8673 2419 49.1833
96.9844 2398 48.9694
97.1016 2354 48.518
97.2188 2373 48.7134
97.336 2259 47.5289
97.4532 2284 47.7912
97.5704 2367 48.6518
97.6877 2335 48.3218
97.805 2301 47.9687
97.9223 2383 48.816
98.0396 2365 48.6313
98.1569 2344 48.4149
98.2743 2309 48.0521
98.3916 2211 47.0213
98.509 2270 47.6445
98.6264 2317 48.1352
98.7438 2336 48.3322
98.8612 2417 49.163
98.9786 2368 48.6621
99.096 2497 49.97
99.2134 2515 50.1498
99.3308 2555 50.547
99.4482 2699 51.9519
99.5656 2629 51.2738
99.6831 2559 50.5866
99.8005 2527 50.2693
99.9179 2511 50.1099
100.035 2413 49.1223
100.153 2572 50.7149
100.27 2609 51.0784
100.388 2628 51.264
100.505 2696 51.923
100.622 2501 50.01
100.74 2497 49.97
100.857 2411 49.1019
100.975 2396 48.949
101.092 2527 50.2693
101.209 2526 50.2593
101.327 2550 50.4975
101.444 2603 51.0196
101.561 2623 51.2152
101.679 2436 49.3559
101.796 2573 50.7247
101.913 2520 50.1996
102.03 2571 50.705
102.148 2367 48.6518
102.265 2519 50.1896
102.382 2411 49.1019
102.499 2504 50.04
102.616 2598 50.9706
102.733 2614 51.1273
102.851 2783 52.7541
102.968 2782 52.7447
103.085 2723 52.1824
103.202 2723 52.1824
103.319 2583 50.8232
103.436 2576 50.7543
103.552 2613 51.1175
103.669 2664 51.614
103.786 2716 52.1153
103.903 2692 51.8845
104.02 2764 52.5738
104.137 2679 51.7591
104.253 2744 52.3832
104.37 2573 50.7247
104.487 2633 51.3128
104.603 2588 50.8724
104.72 2582 50.8134
104.836 2437 49.366
104.953 2536 50.3587
105.069 2412 49.1121
105.186 2334 48.3115
105.302 2180 46.6905
105.418 1933 43.9659
105.535 1851 43.0232
105.651 1723 41.509
105.767 1610 40.1248
105.883 1466 38.2884
105.999 1370 37.0135
106.115 0 1
106.231 0 1
106.347 0 1
106.463 0 1
106.579 0 1
106.694 0 1
106.81 0 1
106.926 0 1
107.041 0 1
107.157 0 1
109.576 0 1
109.692 0 1
109.807 0 1
109.923 0 1
110.039 0 1
110.155 0 1
110.27 0 1
110.386 0 1
110.502 0 1
110.618 1374 37.0675
110.735 1675 40.9268
110.851 1863 43.1625
110.967 1884 43.4051
111.083 2038 45.1442
111.199 2122 46.0652
111.316 2353 48.5077
111.432 2442 49.4166
111.549 2578 50.774
111.665 2513 50.1298
111.782 2467 49.6689
111.898 2437 49.366
112.015 2418 49.1732
112.132 2388 48.8672
112.248 2390 48.8876
112.365 2453 49.5278
112.482 2376 48.7442
112.599 2548 50.4777
112.716 2498 49.98
112.832 2496 49.96
112.949 2366 48.6415
113.066 2292 47.8748
113.183 2442 49.4166
113.3 2356 48.5386
113.417 2332 48.2908
113.534 2278 47.7284
113.652 2299 47.9479
113.769 2282 47.7703
113.886 2255 47.4868
114.003 2183 46.7226
114.12 2233 47.2546
114.238 2266 47.6025
114.355 2353 48.5077
114.472 2183 46.7226
114.589 2113 45.9674
114.707 2182 46.7119
114.824 2279 47.7389
114.942 2420 49.1935
115.059 2384 48.8262
115.176 2367 48.6518
115.294 2335 48.3218
115.411 2357 48.5489
115.529 2375 48.734
115.646 2291 47.8644
115.764 2268 47.6235
115.881 2235 47.2758
115.999 2229 47.2123
116.116 2313 48.0937
116.234 2317 48.1352
116.351 2209 47
116.469 2236 47.2864
116.586 2182 46.7119
116.704 2100 45.8258
116.821 2085 45.6618
116.939 2116 46
117.056 2145 46.3141
117.174 2006 44.7884
117.291 2019 44.9333
117.409 2004 44.7661
117.526 2003 44.7549
117.644 2077 45.5741
117.761 2130 46.1519
117.879 2249 47.4236
117.996 2106 45.8912
118.114 2025 45
118.231 1940 44.0454
118.349 2090 45.7165
118.466 2163 46.5081
118.584 2168 46.5618
118.701 2215 47.0638
118.819 2184 46.7333
118.936 2131 46.1628
119.053 2126 46.1086
119.171 2114 45.9783
119.288 2103 45.8585
119.405 1995 44.6654
119.523 2146 46.3249
119.64 2119 46.0326
119.757 2175 46.6369
119.875 2152 46.3897
119.992 2165 46.5296
120.109 2043 45.1996
120.226 2010 44.833
120.343 1950 44.1588
120.46 2019 44.9333
120.578 2007 44.7996
120.695 1929 43.9204
120.812 1864 43.1741
120.929 1898 43.566
121.046 1816 42.6146
121.163 1782 42.2137
121.279 1906 43.6578
121.396 1906 43.6578
121.513 1989 44.5982
121.63 2008 44.8107
121.747 1865 43.1856
121.863 1761 41.9643
121.98 1631 40.3856
122.097 1712 41.3763
122.213 1689 41.0974
122.33 1702 41.2553
122.446 1595 39.9375
122.563 1494 38.6523
122.679 1431 37.8286
122.795 1334 36.524
122.912 1244 35.2704
123.028 1230 35.0714
123.144 1187 34.4529
123.26 1106 33.2566
123.377 0 1
123.493 0 1
123.609 0 1
123.725 0 1
123.84 0 1
123.956 0 1
124.072 0 1
124.188 0 1
124.303 0 1
124.419 0 1
126.852 0 1
126.968 0 1
127.083 0 1
127.199 0 1
127.315 0 1
127.431 0 1
127.547 0 1
127.663 0 1
127.779 0 1
127.895 0 1
128.011 0 1
128.127 0 1
128.243 0 1
128.359 2240 47.3286
128.476 2241 47.3392
128.592 2253 47.4658
128.708 2269 47.634
128.825 2316 48.1248
128.941 2377 48.7545
129.058 2358 48.5592
129.174 2331 48.2804
129.291 2354 48.518
129.408 2365 48.6313
129.524 2302 47.9792
129.641 2337 48.3425
129.758 2284 47.7912
129.875 2232 47.244
129.992 2240 47.3286
130.108 2354 48.518
130.225 2496 49.96
130.342 2548 50.4777
130.459 2894 53.7959
130.576 3246 56.9737
130.693 3533 59.439
130.81 3849 62.0403
130.928 4561 67.5352
131.045 5122 71.5681
131.162 5937 77.0519
131.279 6468 80.4239
131.396 6556 80.9691
131.513 5884 76.7072
131.631 6466 80.4114
131.748 7923 89.0112
131.865 9084 95.31
131.983 9828 99.1363
132.1 10502 102.479
132.217 10705 103.465
132.335 10564 102.781
132.452 10280 101.39
132.57 9654 98.2548
132.687 8936 94.5304
132.804 8363 91.4494
132.922 7543 86.8504
133.039 7236 85.0647
133.157 6795 82.4318
133.274 6724 82
133.392 6569 81.0494
133.509 6483 80.5171
133.627 6447 80.2932
133.744 6379 79.8686
133.862 6385 79.9062
133.979 6430 80.1873
134.097 6567 81.037
134.214 6458 80.3617
134.332 6165 78.5175
134.449 5948 77.1233
134.567 5524 74.3236
134.684 5545 74.4648
134.802 6027 77.6338
134.919 6091 78.0449
135.037 5677 75.3459
135.154 5311 72.8766
135.272 4919 70.1356
135.389 5271 72.6017
135.507 5732 75.71
135.624 5713 75.5844
135.742 5746 75.8024
135.859 5848 76.4722
135.977 5813 76.243
136.094 5884 76.7072
136.211 5919 76.935
136.329 5914 76.9025
136.446 5773 75.9803
136.564 5593 74.7864
136.681 5720 75.6307
136.798 5706 75.5381
136.915 5470 73.9594
137.033 5475 73.9932
137.15 5193 72.0625
137.267 5262 72.5396
137.384 5252 72.4707
137.502 5229 72.3118
137.619 5208 72.1665
137.736 5302 72.8148
137.853 5064 71.1618
137.97 5110 71.4843
138.087 5034 70.9507
138.204 4926 70.1855
138.321 4975 70.5337
138.438 5232 72.3326
138.555 5365 73.2462
138.672 5395 73.4507
138.788 5029 70.9154
138.905 4535 67.3424
139.022 4671 68.3447
139.139 5109 71.4773
139.255 5009 70.7743
139.372 4846 69.6132
139.488 4939 70.278
139.605 4628 68.0294
139.721 4275 65.3835
139.838 3911 62.538
139.954 3576 59.7997
140.071 3403 58.3352
140.187 3295 57.4021
140.303 3147 56.0981
140.419 3050 55.2268
140.535 2897 53.8238
140.652 2765 52.5833
140.768 0 1
140.884 0 1
141 0 1
141.115 0 1
141.231 0 1
141.347 0 1
141.463 0 1
141.578 0 1
141.694 0 1
144.104 0 1
144.219 0 1
144.335 0 1
144.45 0 1
144.566 0 1
144.682 0 1
144.798 0 1
144.914 0 1
145.03 0 1
145.146 5394 73.4439
145.262 5556 74.5386
145.378 5669 75.2928
145.494 5801 76.1643
145.61 5914 76.9025
145.726 5827 76.3348
145.842 5935 77.039
145.959 5904 76.8375
146.075 5743 75.7826
146.192 5345 73.1095
146.308 5195 72.0763
146.425 5091 71.3512
146.541 5398 73.4711
146.658 5575 74.6659
146.774 5803 76.1774
146.891 5846 76.4591
147.008 5925 76.974
147.125 5876 76.6551
147.241 5956 77.1751
147.358 6003 77.479
147.475 6036 77.6917
147.592 5837 76.4003
147.709 5278 72.6498
147.826 5248 72.4431
147.943 5534 74.3909
148.06 5771 75.9671
148.177 5867 76.5963
148.294 5935 77.039
148.411 6070 77.9102
148.528 6125 78.2624
148.645 5890 76.7463
148.762 5868 76.6029
148.88 5800 76.1577
148.997 6053 77.801
149.114 5903 76.831
149.231 5917 76.922
149.349 5870 76.6159
149.466 5848 76.4722
149.583 5748 75.8156
149.701 5702 75.5116
149.818 5349 73.1369
149.935 5136 71.6659
150.053 5076 71.2461
150.17 5056 71.1056
150.287 5272 72.6085
150.405 5422 73.6342
150.522 5567 74.6123
150.64 5508 74.2159
150.757 5454 73.8512
150.875 5428 73.675
150.992 5573 74.6525
151.11 5371 73.2871
151.227 5214 72.208
151.344 4820 69.4262
151.462 4510 67.1565
151.579 4693 68.5055
151.697 5080 71.2741
151.814 5397 73.4643
151.932 5229 72.3118
152.049 5296 72.7736
152.167 5360 73.212
152.284 5134 71.6519
152.402 5248 72.4431
152.519 5213 72.2011
152.636 5024 70.8802
152.754 5160 71.8331
152.871 4968 70.484
152.989 4888 69.9142
153.106 4886 69.8999
153.223 4745 68.884
153.341 4668 68.3228
153.458 4452 66.7233
153.575 4237 65.0922
153.693 4430 66.5582
153.81 4402 66.3476
153.927 4496 67.0522
154.044 4475 66.8954
154.162 4600 67.8233
154.279 4527 67.283
154.396 4493 67.0298
154.513 4417 66.4605
154.63 4367 66.0833
154.747 4409 66.4003
154.864 4113 64.1327
154.981 3843 61.9919
155.098 3900 62.45
155.215 3996 63.2139
155.332 4162 64.5136
155.449 4388 66.242
155.566 4499 67.0746
155.683 4280 65.4217
155.8 4349 65.9469
155.917 4067 63.773
156.033 4102 64.0469
156.15 0 1
156.267 0 1
156.383 0 1
156.5 0 1
156.617 0 1
156.733 0 1
156.85 0 1
156.966 0 1
157.082 0 1
157.199 0 1
157.315 0 1
157.431 0 1
157.547 0 1
157.664 0 1
157.78 0 1
157.896 0 1
158.012 0 1
158.128 0 1
158.244 0 1
158.359 0 1
158.475 0 1
158.591 0 1
158.706 0 1
