
6.15755 0 1
6.2731 0 1
6.3887 0 1
6.50437 0 1
6.62009 0 1
6.73587 0 1
6.8517 0 1
6.96759 0 1
7.08353 0 1
7.19952 0 1
7.31557 0 1
7.43166 0 1
7.54781 0 1
7.664 0 1
7.78024 0 1
7.89653 0 1
8.01286 0 1
8.12924 0 1
8.24567 0 1
8.36213 0 1
8.47864 0 1
8.59519 0 1
8.71178 0 1
8.82841 0 1
8.94508 0 1
9.06179 0 1
9.17853 0 1
9.29531 0 1
9.41212 0 1
9.52897 0 1
9.64584 0 1
9.76276 0 1
9.8797 0 1
9.99667 0 1
10.1137 0 1
10.2307 0 1
10.3478 0 1
10.4648 0 1
10.5819 0 1
10.6991 0 1
10.8162 0 1
10.9334 0 1
11.0506 0 1
11.1678 0 1
11.285 0 1
11.4023 0 1
11.5196 0 1
11.6369 0 1
11.7542 0 1
11.8715 0 1
11.9888 0 1
12.1062 0 1
12.2235 0 1
12.3409 0 1
12.4582 0 1
12.5756 0 1
12.693 0 1
12.8104 0 1
12.9278 0 1
13.0452 0 1
13.1626 0 1
13.28 0 1
13.3974 0 1
13.5149 0 1
13.6323 0 1
13.7497 0 1
13.8671 0 1
13.9845 0 1
14.1019 0 1
14.2193 0 1
14.3367 0 1
14.4541 0 1
14.5714 0 1
14.6888 0 1
14.8062 0 1
14.9235 0 1
15.0408 371 19.2614
15.1581 420 20.4939
15.2755 395 19.8746
15.3927 447 21.1424
15.51 431 20.7605
15.6273 418 20.445
15.7445 379 19.4679
15.8617 382 19.5448
15.9789 379 19.4679
16.0961 383 19.5704
16.2132 383 19.5704
16.3304 395 19.8746
16.4475 398 19.9499
16.5646 394 19.8494
16.6816 404 20.0998
16.7986 441 21
16.9156 429 20.7123
17.0326 472 21.7256
17.1496 439 20.9523
17.2665 469 21.6564
17.3833 433 20.8087
17.5002 369 19.2094
17.617 415 20.3715
17.7338 378 19.4422
17.8505 355 18.8414
17.9672 389 19.7231
18.0839 365 19.105
18.2005 386 19.6469
18.3171 395 19.8746
18.4337 383 19.5704
18.5502 389 19.7231
18.6666 434 20.8327
18.7831 430 20.7364
18.8994 448 21.166
19.0158 367 19.1572
19.1321 401 20.025
19.2483 388 19.6977
19.3645 365 19.105
19.4806 327 18.0831
19.5967 278 16.6733
19.7128 305 17.4642
19.8288 266 16.3095
19.9447 204 14.2829
20.0606 0 1
20.1764 0 1
20.2922 0 1
20.4079 0 1
20.5236 0 1
20.6392 0 1
20.7548 0 1
20.8702 0 1
23.3078 0 1
23.4233 0 1
23.539 0 1
23.6547 0 1
23.7704 0 1
23.8862 0 1
24.0021 0 1
24.118 0 1
24.234 0 1
24.35 0 1
24.4661 147 12.1244
24.5822 181 13.4536
24.6984 187 13.6748
24.8146 226 15.0333
24.9309 264 16.2481
25.0472 275 16.5831
25.1636 267 16.3401
25.28 288 16.9706
25.3965 313 17.6918
25.513 333 18.2483
25.6296 373 19.3132
25.7462 417 20.4206
25.8628 385 19.6214
25.9795 390 19.7484
26.0962 355 18.8414
26.213 351 18.735
26.3298 334 18.2757
26.4466 311 17.6352
26.5635 347 18.6279
26.6804 349 18.6815
26.7973 338 18.3848
26.9143 367 19.1572
27.0313 364 19.0788
27.1483 340 18.4391
27.2653 373 19.3132
27.3824 365 19.105
27.4996 358 18.9209
27.6167 374 19.3391
27.7339 344 18.5472
27.8511 343 18.5203
27.9683 351 18.735
28.0855 363 19.0526
28.2028 297 17.2337
28.3201 292 17.088
28.4374 292 17.088
28.5547 292 17.088
28.6721 291 17.0587
28.7894 326 18.0555
28.9068 349 18.6815
29.0242 353 18.7883
29.1416 360 18.9737
29.259 372 19.2873
29.3764 345 18.5742
29.4939 340 18.4391
29.6113 358 18.9209
29.7288 349 18.6815
29.8463 323 17.9722
29.9638 297 17.2337
30.0812 275 16.5831
30.1987 341 18.4662
30.3162 298 17.2627
30.4337 326 18.0555
30.5512 305 17.4642
30.6687 323 17.9722
30.7862 322 17.9444
30.9037 333 18.2483
31.0212 369 19.2094
31.1387 390 19.7484
31.2562 326 18.0555
31.3737 346 18.6011
31.4912 319 17.8606
31.6087 304 17.4356
31.7262 294 17.1464
31.8436 256 16
31.9611 291 17.0587
32.0785 283 16.8226
32.1959 250 15.8114
32.3134 294 17.1464
32.4308 351 18.735
32.5482 332 18.2209
32.6655 328 18.1108
32.7829 331 18.1934
32.9002 315 17.7482
33.0176 358 18.9209
33.1349 349 18.6815
33.2522 351 18.735
33.3694 300 17.3205
33.4867 302 17.3781
33.6039 233 15.2643
33.7211 291 17.0587
33.8383 308 17.5499
33.9554 285 16.8819
34.0725 289 17
34.1896 303 17.4069
34.3067 306 17.4929
34.4237 299 17.2916
34.5407 320 17.8885
34.6577 340 18.4391
34.7746 322 17.9444
34.8915 275 16.5831
35.0084 306 17.4929
35.1252 321 17.9165
35.242 296 17.2047
35.3587 287 16.9411
35.4755 274 16.5529
35.5921 254 15.9374
35.7088 236 15.3623
35.8254 244 15.6205
35.9419 260 16.1245
36.0584 265 16.2788
36.1749 274 16.5529
36.2913 305 17.4642
36.4077 295 17.1756
36.524 248 15.748
36.6403 271 16.4621
36.7565 269 16.4012
36.8727 252 15.8745
36.9889 234 15.2971
37.1049 195 13.9642
37.221 0 1
37.3369 0 1
37.4529 0 1
37.5687 0 1
37.6845 0 1
37.8003 0 1
37.916 0 1
38.0316 0 1
38.1472 0 1
40.5851 0 1
40.7008 0 1
40.8164 0 1
40.9322 0 1
41.048 0 1
41.1639 0 1
41.2798 0 1
41.3958 0 1
41.5118 0 1
41.6279 0 1
41.744 154 12.4097
41.8602 164 12.8062
41.9765 194 13.9284
42.0928 197 14.0357
42.2091 198 14.0712
42.3255 191 13.8203
42.4419 161 12.6886
42.5584 210 14.4914
42.675 197 14.0357
42.7915 228 15.0997
42.9081 230 15.1658
43.0248 265 16.2788
43.1415 275 16.5831
43.2582 248 15.748
43.375 236 15.3623
43.4918 246 15.6844
43.6087 278 16.6733
43.7256 260 16.1245
43.8425 262 16.1864
43.9595 261 16.1555
44.0765 234 15.2971
44.1935 260 16.1245
44.3106 261 16.1555
44.4277 245 15.6525
44.5448 201 14.1774
44.6619 215 14.6629
44.7791 209 14.4568
44.8963 232 15.2315
45.0136 214 14.6287
45.1308 229 15.1327
45.2481 278 16.6733
45.3654 277 16.6433
45.4827 257 16.0312
45.6001 267 16.3401
45.7174 260 16.1245
45.8348 269 16.4012
45.9522 204 14.2829
46.0697 231 15.1987
46.1871 204 14.2829
46.3046 210 14.4914
46.422 230 15.1658
46.5395 233 15.2643
46.657 272 16.4924
46.7745 253 15.906
46.892 255 15.9687
47.0096 277 16.6433
47.1271 285 16.8819
47.2446 270 16.4317
47.3622 266 16.3095
47.4797 275 16.5831
47.5973 260 16.1245
47.7149 278 16.6733
47.8324 240 15.4919
47.95 214 14.6287
48.0675 219 14.7986
48.1851 220 14.8324
48.3027 231 15.1987
48.4202 222 14.8997
48.5378 235 15.3297
48.6554 249 15.7797
48.7729 293 17.1172
48.8904 284 16.8523
49.008 277 16.6433
49.1255 289 17
49.243 271 16.4621
49.3605 234 15.2971
49.478 240 15.4919
49.5955 240 15.4919
49.713 200 14.1421
49.8304 206 14.3527
49.9479 217 14.7309
50.0653 226 15.0333
50.1827 273 16.5227
50.3001 263 16.2173
50.4175 264 16.2481
50.5348 255 15.9687
50.6521 281 16.7631
50.7694 260 16.1245
50.8867 246 15.6844
51.004 248 15.748
51.1212 227 15.0665
51.2384 259 16.0935
51.3556 240 15.4919
51.4727 231 15.1987
51.5899 208 14.4222
51.707 190 13.784
51.824 195 13.9642
51.9411 239 15.4596
52.0581 210 14.4914
52.175 262 16.1864
52.2919 266 16.3095
52.4088 294 17.1464
52.5257 259 16.0935
52.6425 286 16.9115
52.7593 279 16.7033
52.876 271 16.4621
52.9927 248 15.748
53.1094 211 14.5258
53.226 236 15.3623
53.3426 190 13.784
53.4591 199 14.1067
53.5756 236 15.3623
53.692 202 14.2127
53.8084 200 14.1421
53.9248 198 14.0712
54.0411 237 15.3948
54.1573 181 13.4536
54.2735 0 1
54.3896 0 1
54.5057 0 1
54.6217 0 1
54.7377 0 1
54.8537 0 1
54.9695 0 1
55.0853 0 1
55.2011 0 1
55.3168 0 1
55.4324 0 1
57.824 0 1
57.9396 0 1
58.0553 0 1
58.1711 0 1
58.2869 0 1
58.4028 0 1
58.5187 0 1
58.6347 0 1
58.7508 0 1
58.8669 0 1
58.983 138 11.7473
59.0992 222 14.8997
59.2155 222 14.8997
59.3318 236 15.3623
59.4482 275 16.5831
59.5646 277 16.6433
59.681 299 17.2916
59.7975 292 17.088
59.9141 327 18.0831
60.0306 303 17.4069
60.1473 312 17.6635
60.2639 265 16.2788
60.3807 285 16.8819
60.4974 281 16.7631
60.6142 277 16.6433
60.731 283 16.8226
60.8479 285 16.8819
60.9648 334 18.2757
61.0818 322 17.9444
61.1987 325 18.0278
61.3158 346 18.6011
61.4328 349 18.6815
61.5499 322 17.9444
61.667 309 17.5784
61.7841 277 16.6433
61.9013 289 17
62.0185 296 17.2047
62.1357 274 16.5529
62.253 277 16.6433
62.3702 333 18.2483
62.4875 338 18.3848
62.6049 361 19
62.7222 360 18.9737
62.8396 379 19.4679
62.9569 327 18.0831
63.0743 359 18.9473
63.1918 351 18.735
63.3092 361 19
63.4267 337 18.3576
63.5441 315 17.7482
63.6616 315 17.7482
63.7791 300 17.3205
63.8966 294 17.1464
64.0142 272 16.4924
64.1317 252 15.8745
64.2492 286 16.9115
64.3668 312 17.6635
64.4843 334 18.2757
64.6019 344 18.5472
64.7195 343 18.5203
64.837 324 18
64.9546 337 18.3576
65.0722 337 18.3576
65.1898 320 17.8885
65.3074 311 17.6352
65.4249 295 17.1756
65.5425 254 15.9374
65.6601 245 15.6525
65.7777 245 15.6525
65.8952 291 17.0587
66.0128 314 17.72
66.1304 311 17.6352
66.2479 319 17.8606
66.3655 333 18.2483
66.483 345 18.5742
66.6005 339 18.412
66.718 323 17.9722
66.8355 332 18.2209
66.953 331 18.1934
67.0705 376 19.3907
67.1879 333 18.2483
67.3054 307 17.5214
67.4228 326 18.0555
67.5402 297 17.2337
67.6576 267 16.3401
67.7749 292 17.088
67.8923 301 17.3494
68.0096 313 17.6918
68.1269 390 19.7484
68.2442 429 20.7123
68.3614 464 21.5407
68.4787 457 21.3776
68.5958 493 22.2036
68.713 487 22.0681
68.8302 502 22.4054
68.9473 480 21.9089
69.0643 455 21.3307
69.1814 520 22.8035
69.2984 484 22
69.4154 510 22.5832
69.5323 556 23.5797
69.6492 579 24.0624
69.7661 618 24.8596
69.8829 634 25.1794
69.9997 669 25.865
70.1165 551 23.4734
70.2332 602 24.5357
70.3499 602 24.5357
70.4665 558 23.622
70.5831 556 23.5797
70.6996 515 22.6936
70.8161 510 22.5832
70.9326 495 22.2486
71.049 401 20.025
71.1653 338 18.3848
71.2817 241 15.5242
71.3979 189 13.7477
71.5141 183 13.5277
71.6303 172 13.1149
71.7464 144 12
71.8624 0 1
71.9784 0 1
72.0944 0 1
72.2102 0 1
72.3261 0 1
72.4418 0 1
72.5575 0 1
72.6732 0 1
75.1054 0 1
75.2209 0 1
75.3365 0 1
75.4521 0 1
75.5678 0 1
75.6835 0 1
75.7993 0 1
75.9151 0 1
76.031 0 1
76.147 234 15.2971
76.263 247 15.7162
76.3791 247 15.7162
76.4952 260 16.1245
76.6113 261 16.1555
76.7276 244 15.6205
76.8438 308 17.5499
76.9601 319 17.8606
77.0765 376 19.3907
77.1929 450 21.2132
77.3093 462 21.4942
77.4258 455 21.3307
77.5423 495 22.2486
77.6589 489 22.1133
77.7755 510 22.5832
77.8921 495 22.2486
78.0088 491 22.1585
78.1256 543 23.3024
78.2423 466 21.587
78.3591 491 22.1585
78.4759 534 23.1084
78.5928 635 25.1992
78.7097 670 25.8844
78.8266 680 26.0768
78.9436 758 27.5318
79.0606 732 27.0555
79.1776 763 27.6225
79.2946 775 27.8388
79.4117 781 27.9464
79.5288 817 28.5832
79.6459 764 27.6405
79.7631 739 27.1846
79.8802 715 26.7395
79.9974 716 26.7582
80.1147 676 26
80.2319 610 24.6982
80.3491 575 23.9792
80.4664 614 24.779
80.5837 581 24.1039
80.701 641 25.318
80.8183 674 25.9615
80.9357 660 25.6905
81.053 669 25.865
81.1704 688 26.2298
81.2877 621 24.9199
81.4051 656 25.6125
81.5225 565 23.7697
81.6399 571 23.8956
81.7573 436 20.8806
81.8747 431 20.7605
81.9922 352 18.7617
82.1096 324 18
82.227 420 20.4939
82.3444 405 20.1246
82.4619 460 21.4476
82.5793 397 19.9249
82.6967 399 19.975
82.8142 387 19.6723
82.9316 390 19.7484
83.049 404 20.0998
83.1664 384 19.5959
83.2838 387 19.6723
83.4012 347 18.6279
83.5186 322 17.9444
83.636 309 17.5784
83.7534 258 16.0624
83.8708 272 16.4924
83.9881 221 14.8661
84.1055 217 14.7309
84.2228 223 14.9332
84.3401 252 15.8745
84.4575 291 17.0587
84.5747 304 17.4356
84.692 314 17.72
84.8093 280 16.7332
84.9265 316 17.7764
85.0437 330 18.1659
85.1609 305 17.4642
85.2781 257 16.0312
85.3952 271 16.4621
85.5123 234 15.2971
85.6294 206 14.3527
85.7465 243 15.5885
85.8636 297 17.2337
85.9806 296 17.2047
86.0976 256 16
86.2145 291 17.0587
86.3315 319 17.8606
86.4484 317 17.8045
86.5652 282 16.7929
86.682 338 18.3848
86.7988 300 17.3205
86.9156 320 17.8885
87.0323 325 18.0278
87.149 291 17.0587
87.2657 283 16.8226
87.3823 268 16.3707
87.4988 229 15.1327
87.6154 196 14
87.7318 210 14.4914
87.8483 193 13.8924
87.9647 222 14.8997
88.081 226 15.0333
88.1973 235 15.3297
88.3136 229 15.1327
88.4298 214 14.6287
88.546 199 14.1067
88.6621 194 13.9284
88.7781 152 12.3288
88.8942 0 1
89.0101 0 1
89.126 0 1
89.2419 0 1
89.3577 0 1
89.4734 0 1
89.5891 0 1
89.7047 0 1
89.8203 0 1
89.9358 0 1
92.3269 0 1
92.4424 0 1
92.558 0 1
92.6736 0 1
92.7893 0 1
92.905 0 1
93.0208 0 1
93.1366 0 1
93.2525 0 1
93.3685 0 1
93.4845 0 1
93.6005 217 14.7309
93.7167 262 16.1864
93.8328 246 15.6844
93.949 278 16.6733
94.0653 315 17.7482
94.1816 269 16.4012
94.2979 279 16.7033
94.4143 306 17.4929
94.5307 306 17.4929
94.6472 268 16.3707
94.7637 256 16
94.8803 290 17.0294
94.9969 327 18.0831
95.1135 299 17.2916
95.2302 344 18.5472
95.3469 369 19.2094
95.4637 389 19.7231
95.5805 381 19.5192
95.6973 409 20.2237
95.8142 386 19.6469
95.9311 394 19.8494
96.048 345 18.5742
96.1649 400 20
96.2819 391 19.7737
96.3989 391 19.7737
96.516 395 19.8746
96.633 343 18.5203
96.7501 320 17.8885
96.8673 312 17.6635
96.9844 311 17.6352
97.1016 324 18
97.2188 287 16.9411
97.336 380 19.4936
97.4532 372 19.2873
97.5704 408 20.199
97.6877 408 20.199
97.805 378 19.4422
97.9223 405 20.1246
98.0396 385 19.6214
98.1569 350 18.7083
98.2743 333 18.2483
98.3916 321 17.9165
98.509 273 16.5227
98.6264 306 17.4929
98.7438 363 19.0526
98.8612 364 19.0788
98.9786 383 19.5704
99.096 360 18.9737
99.2134 374 19.3391
99.3308 399 19.975
99.4482 440 20.9762
99.5656 404 20.0998
99.6831 401 20.025
99.8005 394 19.8494
99.9179 350 18.7083
100.035 358 18.9209
100.153 338 18.3848
100.27 313 17.6918
100.388 259 16.0935
100.505 277 16.6433
100.622 249 15.7797
100.74 268 16.3707
100.857 285 16.8819
100.975 312 17.6635
101.092 316 17.7764
101.209 316 17.7764
101.327 364 19.0788
101.444 316 17.7764
101.561 308 17.5499
101.679 300 17.3205
101.796 269 16.4012
101.913 250 15.8114
102.03 253 15.906
102.148 287 16.9411
102.265 271 16.4621
102.382 351 18.735
102.499 352 18.7617
102.616 375 19.3649
102.733 364 19.0788
102.851 360 18.9737
102.968 406 20.1494
103.085 411 20.2731
103.202 450 21.2132
103.319 433 20.8087
103.436 396 19.8997
103.552 454 21.3073
103.669 445 21.095
103.786 439 20.9523
103.903 357 18.8944
104.02 340 18.4391
104.137 338 18.3848
104.253 367 19.1572
104.37 384 19.5959
104.487 534 23.1084
104.603 599 24.4745
104.72 581 24.1039
104.836 609 24.6779
104.953 596 24.4131
105.069 513 22.6495
105.186 544 23.3238
105.302 522 22.8473
105.418 548 23.4094
105.535 459 21.4243
105.651 494 22.2261
105.767 484 22
105.883 489 22.1133
105.999 502 22.4054
106.115 0 1
106.231 0 1
106.347 0 1
106.463 0 1
106.579 0 1
106.694 0 1
106.81 0 1
106.926 0 1
107.041 0 1
107.157 0 1
109.576 0 1
109.692 0 1
109.807 0 1
109.923 0 1
110.039 0 1
110.155 0 1
110.27 0 1
110.386 0 1
110.502 0 1
110.618 234 15.2971
110.735 305 17.4642
110.851 374 19.3391
110.967 399 19.975
111.083 450 21.2132
111.199 515 22.6936
111.316 517 22.7376
111.432 499 22.3383
111.549 525 22.9129
111.665 476 21.8174
111.782 491 22.1585
111.898 512 22.6274
112.015 482 21.9545
112.132 440 20.9762
112.248 442 21.0238
112.365 415 20.3715
112.482 333 18.2483
112.599 314 17.72
112.716 342 18.4932
112.832 310 17.6068
112.949 338 18.3848
113.066 357 18.8944
113.183 420 20.4939
113.3 383 19.5704
113.417 363 19.0526
113.534 377 19.4165
113.652 369 19.2094
113.769 375 19.3649
113.886 304 17.4356
114.003 295 17.1756
114.12 290 17.0294
114.238 307 17.5214
114.355 330 18.1659
114.472 351 18.735
114.589 349 18.6815
114.707 385 19.6214
114.824 372 19.2873
114.942 351 18.735
115.059 375 19.3649
115.176 343 18.5203
115.294 340 18.4391
115.411 353 18.7883
115.529 323 17.9722
115.646 318 17.8326
115.764 283 16.8226
115.881 269 16.4012
115.999 237 15.3948
116.116 219 14.7986
116.234 213 14.5945
116.351 245 15.6525
116.469 251 15.843
116.586 266 16.3095
116.704 307 17.5214
116.821 280 16.7332
116.939 286 16.9115
117.056 266 16.3095
117.174 263 16.2173
117.291 245 15.6525
117.409 221 14.8661
117.526 260 16.1245
117.644 203 14.2478
117.761 200 14.1421
117.879 244 15.6205
117.996 240 15.4919
118.114 243 15.5885
118.231 278 16.6733
118.349 284 16.8523
118.466 259 16.0935
118.584 275 16.5831
118.701 285 16.8819
118.819 284 16.8523
118.936 271 16.4621
119.053 264 16.2481
119.171 265 16.2788
119.288 255 15.9687
119.405 227 15.0665
119.523 208 14.4222
119.64 207 14.3875
119.757 207 14.3875
119.875 214 14.6287
119.992 231 15.1987
120.109 210 14.4914
120.226 230 15.1658
120.343 236 15.3623
120.46 259 16.0935
120.578 255 15.9687
120.695 236 15.3623
120.812 229 15.1327
120.929 245 15.6525
121.046 213 14.5945
121.163 158 12.5698
121.279 189 13.7477
121.396 209 14.4568
121.513 208 14.4222
121.63 163 12.7671
121.747 234 15.2971
121.863 251 15.843
121.98 212 14.5602
122.097 209 14.4568
122.213 254 15.9374
122.33 221 14.8661
122.446 229 15.1327
122.563 206 14.3527
122.679 172 13.1149
122.795 184 13.5647
122.912 177 13.3041
123.028 141 11.8743
123.144 134 11.5758
123.26 118 10.8628
123.377 0 1
123.493 0 1
123.609 0 1
123.725 0 1
123.84 0 1
123.956 0 1
124.072 0 1
124.188 0 1
124.303 0 1
124.419 0 1
126.852 0 1
126.968 0 1
127.083 0 1
127.199 0 1
127.315 0 1
127.431 0 1
127.547 0 1
127.663 0 1
127.779 0 1
127.895 0 1
128.011 0 1
128.127 0 1
128.243 0 1
128.359 362 19.0263
128.476 353 18.7883
128.592 383 19.5704
128.708 373 19.3132
128.825 378 19.4422
128.941 334 18.2757
129.058 366 19.1311
129.174 401 20.025
129.291 402 20.0499
129.408 424 20.5913
129.524 392 19.799
129.641 414 20.347
129.758 413 20.3224
129.875 392 19.799
129.992 360 18.9737
130.108 347 18.6279
130.225 332 18.2209
130.342 281 16.7631
130.459 283 16.8226
130.576 345 18.5742
130.693 393 19.8242
130.81 388 19.6977
130.928 392 19.799
131.045 424 20.5913
131.162 415 20.3715
131.279 437 20.9045
131.396 430 20.7364
131.513 431 20.7605
131.631 435 20.8567
131.748 433 20.8087
131.865 419 20.4695
131.983 395 19.8746
132.1 391 19.7737
132.217 363 19.0526
132.335 342 18.4932
132.452 321 17.9165
132.57 361 19
132.687 354 18.8149
132.804 362 19.0263
132.922 345 18.5742
133.039 382 19.5448
133.157 388 19.6977
133.274 406 20.1494
133.392 351 18.735
133.509 374 19.3391
133.627 317 17.8045
133.744 329 18.1384
133.862 269 16.4012
133.979 268 16.3707
134.097 305 17.4642
134.214 314 17.72
134.332 330 18.1659
134.449 334 18.2757
134.567 333 18.2483
134.684 323 17.9722
134.802 358 18.9209
134.919 305 17.4642
135.037 306 17.4929
135.154 315 17.7482
135.272 308 17.5499
135.389 280 16.7332
135.507 256 16
135.624 285 16.8819
135.742 246 15.6844
135.859 228 15.0997
135.977 230 15.1658
136.094 239 15.4596
136.211 260 16.1245
136.329 220 14.8324
136.446 251 15.843
136.564 255 15.9687
136.681 248 15.748
136.798 275 16.5831
136.915 239 15.4596
137.033 275 16.5831
137.15 268 16.3707
137.267 251 15.843
137.384 234 15.2971
137.502 208 14.4222
137.619 216 14.6969
137.736 236 15.3623
137.853 226 15.0333
137.97 213 14.5945
138.087 226 15.0333
138.204 218 14.7648
138.321 247 15.7162
138.438 281 16.7631
138.555 263 16.2173
138.672 241 15.5242
138.788 238 15.4272
138.905 225 15
139.022 217 14.7309
139.139 214 14.6287
139.255 225 15
139.372 189 13.7477
139.488 187 13.6748
139.605 173 13.1529
139.721 154 12.4097
139.838 136 11.6619
139.954 146 12.083
140.071 149 12.2066
140.187 151 12.2882
140.303 132 11.4891
140.419 151 12.2882
140.535 108 10.3923
140.652 116 10.7703
140.768 0 1
140.884 0 1
141 0 1
141.115 0 1
141.231 0 1
141.347 0 1
141.463 0 1
141.578 0 1
141.694 0 1
144.104 0 1
144.219 0 1
144.335 0 1
144.45 0 1
144.566 0 1
144.682 0 1
144.798 0 1
144.914 0 1
145.03 0 1
145.146 177 13.3041
145.262 202 14.2127
145.378 219 14.7986
145.494 209 14.4568
145.61 217 14.7309
145.726 218 14.7648
145.842 202 14.2127
145.959 225 15
146.075 224 14.9666
146.192 193 13.8924
146.308 198 14.0712
146.425 193 13.8924
146.541 185 13.6015
146.658 215 14.6629
146.774 233 15.2643
146.891 213 14.5945
147.008 211 14.5258
147.125 224 14.9666
147.241 230 15.1658
147.358 242 15.5563
147.475 233 15.2643
147.592 238 15.4272
147.709 246 15.6844
147.826 264 16.2481
147.943 231 15.1987
148.06 196 14
148.177 217 14.7309
148.294 208 14.4222
148.411 209 14.4568
148.528 232 15.2315
148.645 251 15.843
148.762 240 15.4919
148.88 236 15.3623
148.997 255 15.9687
149.114 218 14.7648
149.231 262 16.1864
149.349 247 15.7162
149.466 264 16.2481
149.583 253 15.906
149.701 220 14.8324
149.818 224 14.9666
149.935 208 14.4222
150.053 193 13.8924
150.17 169 13
150.287 215 14.6629
150.405 205 14.3178
150.522 247 15.7162
150.64 249 15.7797
150.757 256 16
150.875 221 14.8661
150.992 233 15.2643
151.11 242 15.5563
151.227 242 15.5563
151.344 239 15.4596
151.462 226 15.0333
151.579 238 15.4272
151.697 243 15.5885
151.814 219 14.7986
151.932 184 13.5647
152.049 191 13.8203
152.167 212 14.5602
152.284 208 14.4222
152.402 232 15.2315
152.519 227 15.0665
152.636 261 16.1555
152.754 236 15.3623
152.871 271 16.4621
152.989 238 15.4272
153.106 250 15.8114
153.223 234 15.2971
153.341 201 14.1774
153.458 193 13.8924
153.575 208 14.4222
153.693 206 14.3527
153.81 201 14.1774
153.927 235 15.3297
154.044 243 15.5885
154.162 232 15.2315
154.279 212 14.5602
154.396 206 14.3527
154.513 212 14.5602
154.63 233 15.2643
154.747 238 15.4272
154.864 231 15.1987
154.981 220 14.8324
155.098 222 14.8997
155.215 198 14.0712
155.332 222 14.8997
155.449 239 15.4596
155.566 225 15
155.683 187 13.6748
155.8 225 15
155.917 207 14.3875
156.033 200 14.1421
156.15 0 1
156.267 0 1
156.383 0 1
156.5 0 1
156.617 0 1
156.733 0 1
156.85 0 1
156.966 0 1
157.082 0 1
157.199 0 1
157.315 0 1
157.431 0 1
157.547 0 1
157.664 0 1
157.78 0 1
157.896 0 1
158.012 0 1
158.128 0 1
158.244 0 1
158.359 0 1
158.475 0 1
158.591 0 1
158.706 0 1
