
6.15755 0 1
6.2731 0 1
6.3887 0 1
6.50437 0 1
6.62009 0 1
6.73587 0 1
6.8517 0 1
6.96759 0 1
7.08353 0 1
7.19952 0 1
7.31557 0 1
7.43166 0 1
7.54781 0 1
7.664 0 1
7.78024 0 1
7.89653 0 1
8.01286 0 1
8.12924 0 1
8.24567 0 1
8.36213 0 1
8.47864 0 1
8.59519 0 1
8.71178 0 1
8.82841 0 1
8.94508 0 1
9.06179 0 1
9.17853 0 1
9.29531 0 1
9.41212 0 1
9.52897 0 1
9.64584 0 1
9.76276 0 1
9.8797 0 1
9.99667 0 1
10.1137 0 1
10.2307 0 1
10.3478 0 1
10.4648 0 1
10.5819 0 1
10.6991 0 1
10.8162 0 1
10.9334 0 1
11.0506 0 1
11.1678 0 1
11.285 0 1
11.4023 0 1
11.5196 0 1
11.6369 0 1
11.7542 0 1
11.8715 0 1
11.9888 0 1
12.1062 0 1
12.2235 0 1
12.3409 0 1
12.4582 0 1
12.5756 0 1
12.693 0 1
12.8104 0 1
12.9278 0 1
13.0452 0 1
13.1626 0 1
13.28 0 1
13.3974 0 1
13.5149 0 1
13.6323 0 1
13.7497 0 1
13.8671 0 1
13.9845 0 1
14.1019 0 1
14.2193 0 1
14.3367 0 1
14.4541 0 1
14.5714 0 1
14.6888 0 1
14.8062 0 1
14.9235 0 1
15.0408 1834 42.8252
15.1581 1870 43.2435
15.2755 2024 44.9889
15.3927 1994 44.6542
15.51 1929 43.9204
15.6273 1893 43.5086
15.7445 1932 43.9545
15.8617 1846 42.9651
15.9789 1916 43.7721
16.0961 1906 43.6578
16.2132 1977 44.4635
16.3304 1966 44.3396
16.4475 1851 43.0232
16.5646 1928 43.909
16.6816 1861 43.1393
16.7986 1917 43.7836
16.9156 1949 44.1475
17.0326 2074 45.5412
17.1496 2008 44.8107
17.2665 2010 44.833
17.3833 2110 45.9347
17.5002 1994 44.6542
17.617 2108 45.913
17.7338 1967 44.3509
17.8505 2057 45.3542
17.9672 2011 44.8442
18.0839 1996 44.6766
18.2005 2051 45.288
18.3171 2131 46.1628
18.4337 2103 45.8585
18.5502 2072 45.5192
18.6666 2122 46.0652
18.7831 2207 46.9787
18.8994 2150 46.3681
19.0158 2084 45.6508
19.1321 1976 44.4522
19.2483 1911 43.715
19.3645 1961 44.2832
19.4806 1887 43.4396
19.5967 1774 42.1189
19.7128 1679 40.9756
19.8288 1535 39.1791
19.9447 1364 36.9324
20.0606 0 1
20.1764 0 1
20.2922 0 1
20.4079 0 1
20.5236 0 1
20.6392 0 1
20.7548 0 1
20.8702 0 1
23.3078 0 1
23.4233 0 1
23.539 0 1
23.6547 0 1
23.7704 0 1
23.8862 0 1
24.0021 0 1
24.118 0 1
24.234 0 1
24.35 0 1
24.4661 1016 31.8748
24.5822 1229 35.0571
24.6984 1445 38.0132
24.8146 1532 39.1408
24.9309 1676 40.939
25.0472 1697 41.1947
25.1636 1847 42.9767
25.28 1909 43.6921
25.3965 1958 44.2493
25.513 2068 45.4753
25.6296 2176 46.6476
25.7462 2209 47
25.8628 2314 48.1041
25.9795 2304 48
26.0962 2248 47.4131
26.213 2303 47.9896
26.3298 2364 48.621
26.4466 2411 49.1019
26.5635 2334 48.3115
26.6804 2201 46.9148
26.7973 2283 47.7807
26.9143 2279 47.7389
27.0313 2365 48.6313
27.1483 2336 48.3322
27.2653 2430 49.295
27.3824 2508 50.0799
27.4996 2468 49.679
27.6167 2502 50.02
27.7339 2343 48.4045
27.8511 2370 48.6826
27.9683 2443 49.4267
28.0855 2446 49.4571
28.2028 2322 48.1871
28.3201 2343 48.4045
28.4374 2370 48.6826
28.5547 2264 47.5815
28.6721 2204 46.9468
28.7894 2155 46.422
28.9068 2109 45.9239
29.0242 2053 45.31
29.1416 2081 45.618
29.259 2148 46.3465
29.3764 2164 46.5188
29.4939 2257 47.5079
29.6113 2257 47.5079
29.7288 2284 47.7912
29.8463 2334 48.3115
29.9638 2323 48.1975
30.0812 2336 48.3322
30.1987 2270 47.6445
30.3162 2355 48.5283
30.4337 2213 47.0425
30.5512 2442 49.4166
30.6687 2543 50.4282
30.7862 2469 49.689
30.9037 2519 50.1896
31.0212 2451 49.5076
31.1387 2496 49.96
31.2562 2431 49.3052
31.3737 2399 48.9796
31.4912 2461 49.6085
31.6087 2386 48.8467
31.7262 2293 47.8853
31.8436 2375 48.734
31.9611 2382 48.8057
32.0785 2336 48.3322
32.1959 2216 47.0744
32.3134 2195 46.8508
32.4308 2184 46.7333
32.5482 2054 45.3211
32.6655 2181 46.7012
32.7829 2136 46.2169
32.9002 2288 47.833
33.0176 2225 47.1699
33.1349 2255 47.4868
33.2522 2356 48.5386
33.3694 2281 47.7598
33.4867 2342 48.3942
33.6039 2408 49.0714
33.7211 2346 48.4355
33.8383 2377 48.7545
33.9554 2354 48.518
34.0725 2466 49.6588
34.1896 2422 49.2138
34.3067 2407 49.0612
34.4237 2487 49.8698
34.5407 2562 50.6162
34.6577 2491 49.9099
34.7746 2512 50.1199
34.8915 2635 51.3323
35.0084 2536 50.3587
35.1252 2477 49.7695
35.242 2494 49.94
35.3587 2430 49.295
35.4755 2450 49.4975
35.5921 2443 49.4267
35.7088 2422 49.2138
35.8254 2286 47.8121
35.9419 2225 47.1699
36.0584 2057 45.3542
36.1749 2036 45.1221
36.2913 1870 43.2435
36.4077 1925 43.8748
36.524 1914 43.7493
36.6403 1788 42.2847
36.7565 1809 42.5323
36.8727 1835 42.8369
36.9889 1755 41.8927
37.1049 1629 40.3609
37.221 0 1
37.3369 0 1
37.4529 0 1
37.5687 0 1
37.6845 0 1
37.8003 0 1
37.916 0 1
38.0316 0 1
38.1472 0 1
40.5851 0 1
40.7008 0 1
40.8164 0 1
40.9322 0 1
41.048 0 1
41.1639 0 1
41.2798 0 1
41.3958 0 1
41.5118 0 1
41.6279 0 1
41.744 1103 33.2114
41.8602 1213 34.8281
41.9765 1411 37.5633
42.0928 1514 38.9102
42.2091 1619 40.2368
42.3255 1780 42.19
42.4419 1967 44.3509
42.5584 2058 45.3652
42.675 2023 44.9778
42.7915 2147 46.3357
42.9081 2105 45.8803
43.0248 2293 47.8853
43.1415 2333 48.3011
43.2582 2445 49.4469
43.375 2466 49.6588
43.4918 2593 50.9215
43.6087 2594 50.9313
43.7256 2546 50.4579
43.8425 2419 49.1833
43.9595 2404 49.0306
44.0765 2466 49.6588
44.1935 2435 49.3457
44.3106 2558 50.5767
44.4277 2511 50.1099
44.5448 2490 49.8999
44.6619 2330 48.2701
44.7791 2246 47.392
44.8963 2180 46.6905
45.0136 1965 44.3283
45.1308 1896 43.5431
45.2481 1955 44.2154
45.3654 1952 44.1814
45.4827 2014 44.8776
45.6001 2023 44.9778
45.7174 2253 47.4658
45.8348 2281 47.7598
45.9522 2400 48.9898
46.0697 2433 49.3254
46.1871 2552 50.5173
46.3046 2522 50.2195
46.422 2472 49.7192
46.5395 2552 50.5173
46.657 2640 51.3809
46.7745 2617 51.1566
46.892 2581 50.8035
47.0096 2778 52.7067
47.1271 2869 53.563
47.2446 2769 52.6213
47.3622 2746 52.4023
47.4797 2712 52.0769
47.5973 2716 52.1153
47.7149 2636 51.342
47.8324 2762 52.5547
47.95 2751 52.45
48.0675 2615 51.1371
48.1851 2594 50.9313
48.3027 2523 50.2295
48.4202 2426 49.2544
48.5378 2039 45.1553
48.6554 1973 44.4185
48.7729 1978 44.4747
48.8904 1949 44.1475
49.008 1956 44.2267
49.1255 2125 46.0977
49.243 2303 47.9896
49.3605 2509 50.0899
49.478 2613 51.1175
49.5955 2649 51.4684
49.713 2690 51.8652
49.8304 2542 50.4183
49.9479 2536 50.3587
50.0653 2596 50.951
50.1827 2679 51.7591
50.3001 2710 52.0577
50.4175 2791 52.8299
50.5348 2933 54.1572
50.6521 2806 52.9717
50.7694 2887 53.7308
50.8867 2970 54.4977
51.004 2721 52.1632
51.1212 2880 53.6656
51.2384 2796 52.8772
51.3556 2828 53.1789
51.4727 2845 53.3385
51.5899 2832 53.2165
51.707 2708 52.0384
51.824 2569 50.6853
51.9411 2477 49.7695
52.0581 2187 46.7654
52.175 2031 45.0666
52.2919 2017 44.911
52.4088 2052 45.299
52.5257 2060 45.3872
52.6425 2120 46.0435
52.7593 2359 48.5695
52.876 2445 49.4469
52.9927 2539 50.3885
53.1094 2582 50.8134
53.226 2679 51.7591
53.3426 2544 50.4381
53.4591 2469 49.689
53.5756 2397 48.9592
53.692 2389 48.8774
53.8084 2182 46.7119
53.9248 2146 46.3249
54.0411 2127 46.1194
54.1573 2106 45.8912
54.2735 0 1
54.3896 0 1
54.5057 0 1
54.6217 0 1
54.7377 0 1
54.8537 0 1
54.9695 0 1
55.0853 0 1
55.2011 0 1
55.3168 0 1
55.4324 0 1
57.824 0 1
57.9396 0 1
58.0553 0 1
58.1711 0 1
58.2869 0 1
58.4028 0 1
58.5187 0 1
58.6347 0 1
58.7508 0 1
58.8669 0 1
58.983 2152 46.3897
59.0992 2612 51.1077
59.2155 2820 53.1037
59.3318 3113 55.7943
59.4482 3191 56.4889
59.5646 3338 57.7754
59.681 3437 58.6259
59.7975 3552 59.5987
59.9141 3641 60.3407
60.0306 3612 60.0999
60.1473 3710 60.9098
60.2639 3758 61.3025
60.3807 3763 61.3433
60.4974 3622 60.1831
60.6142 3423 58.5064
60.731 3120 55.857
60.8479 2862 53.4977
60.9648 2624 51.225
61.0818 2505 50.05
61.1987 2556 50.5569
61.3158 2722 52.1728
61.4328 2933 54.1572
61.5499 3360 57.9655
61.667 3655 60.4566
61.7841 3883 62.3137
61.9013 4018 63.3877
62.0185 3923 62.6339
62.1357 4031 63.4902
62.253 3996 63.2139
62.3702 4139 64.3351
62.4875 4143 64.3661
62.6049 4391 66.2646
62.7222 4269 65.3376
62.8396 4309 65.643
62.9569 4489 67
63.0743 4249 65.1844
63.1918 4291 65.5057
63.3092 4162 64.5136
63.4267 4271 65.3529
63.5441 4234 65.0692
63.6616 4221 64.9692
63.7791 4157 64.4748
63.8966 4141 64.3506
64.0142 3881 62.2977
64.1317 3631 60.2578
64.2492 3231 56.8419
64.3668 2902 53.8702
64.4843 2681 51.7784
64.6019 2634 51.3225
64.7195 2664 51.614
64.837 2718 52.1344
64.9546 2892 53.7773
65.0722 3461 58.8303
65.1898 3794 61.5955
65.3074 3984 63.1189
65.4249 4079 63.867
65.5425 4202 64.8228
65.6601 4327 65.7799
65.7777 4263 65.2917
65.8952 4179 64.6452
66.0128 4406 66.3777
66.1304 4382 66.1967
66.2479 4380 66.1816
66.3655 4475 66.8954
66.483 4571 67.6092
66.6005 4733 68.7968
66.718 4593 67.7717
66.8355 4667 68.3154
66.953 4363 66.053
67.0705 4444 66.6633
67.1879 4500 67.082
67.3054 4431 66.5658
67.4228 4388 66.242
67.5402 4371 66.1135
67.6576 4004 63.2772
67.7749 3831 61.8951
67.8923 3358 57.9483
68.0096 2985 54.6352
68.1269 2662 51.5946
68.2442 2554 50.5371
68.3614 2510 50.0999
68.4787 2765 52.5833
68.5958 3194 56.5155
68.713 3539 59.4895
68.8302 3880 62.2896
68.9473 4317 65.7039
69.0643 4539 67.3721
69.1814 4634 68.0735
69.2984 4459 66.7757
69.4154 4477 66.9104
69.5323 4341 65.8863
69.6492 4301 65.582
69.7661 4313 65.6734
69.8829 4412 66.4229
69.9997 4307 65.6277
70.1165 4470 66.8581
70.2332 4340 65.8787
70.3499 4113 64.1327
70.4665 4160 64.4981
70.5831 3809 61.7171
70.6996 3693 60.7701
70.8161 3548 59.5651
70.9326 3378 58.1206
71.049 3448 58.7197
71.1653 3024 54.9909
71.2817 2838 53.2729
71.3979 2448 49.4773
71.5141 2130 46.1519
71.6303 1714 41.4005
71.7464 1250 35.3553
71.8624 0 1
71.9784 0 1
72.0944 0 1
72.2102 0 1
72.3261 0 1
72.4418 0 1
72.5575 0 1
72.6732 0 1
75.1054 0 1
75.2209 0 1
75.3365 0 1
75.4521 0 1
75.5678 0 1
75.6835 0 1
75.7993 0 1
75.9151 0 1
76.031 0 1
76.147 3340 57.7927
76.263 3724 61.0246
76.3791 3922 62.6259
76.4952 3816 61.7738
76.6113 3745 61.1964
76.7276 3438 58.6345
76.8438 3150 56.1249
76.9601 2827 53.1695
77.0765 2524 50.2394
77.1929 2452 49.5177
77.3093 2402 49.0102
77.4258 2546 50.4579
77.5423 2831 53.2071
77.6589 3380 58.1378
77.7755 4095 63.9922
77.8921 4630 68.0441
78.0088 4970 70.4982
78.1256 5089 71.3372
78.2423 5220 72.2496
78.3591 5079 71.2671
78.4759 4908 70.0571
78.5928 4955 70.3918
78.7097 5019 70.8449
78.8266 5126 71.5961
78.9436 5371 73.2871
79.0606 5436 73.7292
79.1776 5233 72.3395
79.2946 5388 73.403
79.4117 5521 74.3034
79.5288 5495 74.1283
79.6459 5319 72.9315
79.7631 5311 72.8766
79.8802 5462 73.9053
79.9974 5452 73.8377
80.1147 5518 74.2832
80.2319 5480 74.027
80.3491 5054 71.0915
80.4664 4553 67.4759
80.5837 3763 61.3433
80.701 3202 56.5862
80.8183 2996 54.7357
80.9357 2828 53.1789
81.053 2858 53.4603
81.1704 3068 55.3895
81.2877 3553 59.607
81.4051 4334 65.8331
81.5225 5213 72.2011
81.6399 5713 75.5844
81.7573 6167 78.5302
81.8747 5975 77.2981
81.9922 6040 77.7174
82.1096 6006 77.4984
82.227 5797 76.138
82.3444 5759 75.8881
82.4619 5945 77.1038
82.5793 6048 77.7689
82.6967 6383 79.8937
82.8142 6268 79.1707
82.9316 6544 80.895
83.049 6475 80.4674
83.1664 6291 79.3158
83.2838 6307 79.4166
83.4012 6258 79.1075
83.5186 6241 79
83.636 6061 77.8524
83.7534 6225 78.8987
83.8708 6001 77.4661
83.9881 5564 74.5922
84.1055 4860 69.7137
84.2228 4326 65.7723
84.3401 3901 62.458
84.4575 3330 57.7062
84.5747 3050 55.2268
84.692 3096 55.6417
84.8093 3268 57.1664
84.9265 4070 63.7966
85.0437 5032 70.9366
85.1609 5686 75.4056
85.2781 6468 80.4239
85.3952 6782 82.3529
85.5123 6951 83.3727
85.6294 6808 82.5106
85.7465 6702 81.8657
85.8636 6627 81.4064
85.9806 6488 80.5481
86.0976 6921 83.1925
86.2145 7012 83.7377
86.3315 7272 85.276
86.4484 7122 84.3919
86.5652 7278 85.3112
86.682 7146 84.534
86.7988 6908 83.1144
86.9156 6662 81.6211
87.0323 6456 80.3492
87.149 6422 80.1374
87.2657 6401 80.0062
87.3823 6436 80.2247
87.4988 6027 77.6338
87.6154 5337 73.0548
87.7318 4688 68.469
87.8483 4041 63.5689
87.9647 3244 56.9561
88.081 2784 52.7636
88.1973 2551 50.5074
88.3136 2623 51.2152
88.4298 2822 53.1225
88.546 3073 55.4346
88.6621 3801 61.6523
88.7781 4157 64.4748
88.8942 0 1
89.0101 0 1
89.126 0 1
89.2419 0 1
89.3577 0 1
89.4734 0 1
89.5891 0 1
89.7047 0 1
89.8203 0 1
89.9358 0 1
92.3269 0 1
92.4424 0 1
92.558 0 1
92.6736 0 1
92.7893 0 1
92.905 0 1
93.0208 0 1
93.1366 0 1
93.2525 0 1
93.3685 0 1
93.4845 0 1
93.6005 2904 53.8888
93.7167 3144 56.0714
93.8328 3573 59.7746
93.949 4442 66.6483
94.0653 5492 74.108
94.1816 6277 79.2275
94.2979 6934 83.2706
94.4143 7478 86.4754
94.5307 8010 89.4986
94.6472 7956 89.1964
94.7637 8263 90.901
94.8803 8290 91.0494
94.9969 8239 90.7689
95.1135 8220 90.6642
95.2302 8366 91.4658
95.3469 8532 92.3688
95.4637 8440 91.8695
95.5805 8791 93.7603
95.6973 8675 93.1397
95.8142 8544 92.4338
95.9311 8557 92.5041
96.048 8630 92.8978
96.1649 8592 92.693
96.2819 8236 90.7524
96.3989 8128 90.1554
96.516 8116 90.0888
96.633 7499 86.5968
96.7501 6885 82.9759
96.8673 6071 77.9166
96.9844 5345 73.1095
97.1016 4760 68.9928
97.2188 4205 64.846
97.336 3967 62.9841
97.4532 4129 64.2573
97.5704 4732 68.7895
97.6877 5631 75.04
97.805 6606 81.2773
97.9223 7697 87.7325
98.0396 8222 90.6752
98.1569 8994 94.8367
98.2743 8947 94.5886
98.3916 8868 94.1701
98.509 8597 92.72
98.6264 8557 92.5041
98.7438 8498 92.1846
98.8612 8737 93.4719
98.9786 9013 94.9368
99.096 8986 94.7945
99.2134 9341 96.6488
99.3308 9215 95.9948
99.4482 9251 96.1821
99.5656 8967 94.6942
99.6831 8946 94.5833
99.8005 8931 94.504
99.9179 8765 93.6216
100.035 8779 93.6963
100.153 8626 92.8763
100.27 7927 89.0337
100.388 6945 83.3367
100.505 6227 78.9113
100.622 5339 73.0685
100.74 4770 69.0652
100.857 4407 66.3852
100.975 4448 66.6933
101.092 4860 69.7137
101.209 5410 73.5527
101.327 6601 81.2465
101.444 7694 87.7154
101.561 8840 94.0213
101.679 8898 94.3292
101.796 9243 96.1405
101.913 9123 95.5144
102.03 9170 95.7601
102.148 8946 94.5833
102.265 8904 94.361
102.382 8788 93.7443
102.499 9105 95.4201
102.616 9309 96.4832
102.733 9328 96.5816
102.851 9373 96.8143
102.968 9299 96.4313
103.085 9332 96.6023
103.202 9255 96.2029
103.319 9149 95.6504
103.436 9057 95.1683
103.552 8743 93.504
103.669 8811 93.8669
103.786 8534 92.3797
103.903 7637 87.3899
104.02 6707 81.8963
104.137 6051 77.7882
104.253 5404 73.5119
104.37 4697 68.5347
104.487 4546 67.424
104.603 4581 67.6831
104.72 4966 70.4699
104.836 5660 75.233
104.953 6403 80.0187
105.069 6796 82.4379
105.186 7323 85.5745
105.302 7481 86.4928
105.418 7157 84.5991
105.535 7006 83.7019
105.651 6531 80.8146
105.767 6062 77.8588
105.883 5598 74.8198
105.999 4995 70.6753
106.115 0 1
106.231 0 1
106.347 0 1
106.463 0 1
106.579 0 1
106.694 0 1
106.81 0 1
106.926 0 1
107.041 0 1
107.157 0 1
109.576 0 1
109.692 0 1
109.807 0 1
109.923 0 1
110.039 0 1
110.155 0 1
110.27 0 1
110.386 0 1
110.502 0 1
110.618 5186 72.0139
110.735 5627 75.0133
110.851 5797 76.138
110.967 6098 78.0897
111.083 6617 81.3449
111.199 7089 84.1962
111.316 7429 86.1916
111.432 7797 88.3006
111.549 8003 89.4595
111.665 8159 90.3272
111.782 8227 90.7028
111.898 8176 90.4212
112.015 8097 89.9833
112.132 8038 89.6549
112.248 8017 89.5377
112.365 8042 89.6772
112.482 7865 88.6848
112.599 7007 83.7078
112.716 5943 77.0909
112.832 5281 72.6705
112.949 4654 68.2202
113.066 4376 66.1513
113.183 4211 64.8922
113.3 4185 64.6916
113.417 4694 68.5128
113.534 5576 74.6726
113.652 6629 81.4187
113.769 7433 86.2148
113.886 7760 88.0909
114.003 8040 89.666
114.12 8204 90.5759
114.238 8113 90.0722
114.355 7763 88.1079
114.472 7533 86.7929
114.589 7685 87.6641
114.707 7702 87.761
114.824 7882 88.7806
114.942 8010 89.4986
115.059 7903 88.8988
115.176 8060 89.7775
115.294 8089 89.9389
115.411 7802 88.3289
115.529 7626 87.327
115.646 7375 85.8778
115.764 7267 85.2467
115.881 7292 85.3932
115.999 7294 85.4049
116.116 6969 83.4805
116.234 6194 78.702
116.351 5431 73.6953
116.469 4797 69.2604
116.586 4426 66.5282
116.704 4162 64.5136
116.821 4214 64.9153
116.939 4072 63.8122
117.056 4548 67.4389
117.174 5473 73.9797
117.291 6343 79.643
117.409 6756 82.1949
117.526 7140 84.4985
117.644 7223 84.9882
117.761 7335 85.6446
117.879 7183 84.7526
117.996 6910 83.1264
118.114 6845 82.7345
118.231 7031 83.8511
118.349 7137 84.4808
118.466 7417 86.122
118.584 7352 85.7438
118.701 7150 84.5577
118.819 7186 84.7703
118.936 7226 85.0059
119.053 7092 84.214
119.171 6814 82.547
119.288 6733 82.0549
119.405 6664 81.6333
119.523 6540 80.8703
119.64 6582 81.1295
119.757 6240 78.9937
119.875 5740 75.7628
119.992 5196 72.0833
120.109 4658 68.2495
120.226 4184 64.6838
120.343 3846 62.0161
120.46 3854 62.0806
120.578 3819 61.7981
120.695 4026 63.4508
120.812 4647 68.1689
120.929 5323 72.9589
121.046 5561 74.5721
121.163 5875 76.6485
121.279 6062 77.8588
121.396 6007 77.5048
121.513 5921 76.948
121.63 5749 75.8222
121.747 5389 73.4098
121.863 5462 73.9053
121.98 5366 73.253
122.097 5428 73.675
122.213 5259 72.519
122.33 5262 72.5396
122.446 5223 72.2703
122.563 4894 69.9571
122.679 4590 67.7495
122.795 4276 65.3911
122.912 4109 64.1015
123.028 3769 61.3922
123.144 3491 59.0847
123.26 3398 58.2924
123.377 0 1
123.493 0 1
123.609 0 1
123.725 0 1
123.84 0 1
123.956 0 1
124.072 0 1
124.188 0 1
124.303 0 1
124.419 0 1
126.852 0 1
126.968 0 1
127.083 0 1
127.199 0 1
127.315 0 1
127.431 0 1
127.547 0 1
127.663 0 1
127.779 0 1
127.895 0 1
128.011 0 1
128.127 0 1
128.243 0 1
128.359 6021 77.5951
128.476 6031 77.6595
128.592 6389 79.9312
128.708 6396 79.975
128.825 6422 80.1374
128.941 5909 76.87
129.058 5828 76.3413
129.174 5115 71.5192
129.291 4900 70
129.408 4672 68.352
129.524 4494 67.0373
129.641 4151 64.4283
129.758 4398 66.3174
129.875 4806 69.3253
129.992 5404 73.5119
130.108 5801 76.1643
130.225 6314 79.4607
130.342 6416 80.0999
130.459 6583 81.1357
130.576 6724 82
130.693 6561 81
130.81 6493 80.5792
130.928 6516 80.7217
131.045 6702 81.8657
131.162 6806 82.4985
131.279 6947 83.3487
131.396 6924 83.2106
131.513 6733 82.0549
131.631 6803 82.4803
131.748 6573 81.074
131.865 6620 81.3634
131.983 6304 79.3977
132.1 6249 79.0506
132.217 6530 80.8084
132.335 6335 79.5927
132.452 6264 79.1454
132.57 5925 76.974
132.687 5403 73.5051
132.804 4980 70.5691
132.922 4699 68.5493
133.039 4554 67.4833
133.157 4585 67.7126
133.274 4435 66.5958
133.392 4678 68.3959
133.509 4986 70.6116
133.627 5345 73.1095
133.744 5846 76.4591
133.862 6094 78.0641
133.979 6305 79.404
134.097 6427 80.1686
134.214 6406 80.0375
134.332 6229 78.924
134.449 6181 78.6193
134.567 6415 80.0937
134.684 6438 80.2371
134.802 6665 81.6395
134.919 6771 82.2861
135.037 6521 80.7527
135.154 6363 79.7684
135.272 6346 79.6618
135.389 6137 78.339
135.507 6057 77.8267
135.624 6198 78.7274
135.742 6145 78.3901
135.859 6027 77.6338
135.977 5955 77.1686
136.094 6136 78.3326
136.211 5680 75.3658
136.329 5365 73.2462
136.446 4958 70.4131
136.564 4808 69.3397
136.681 4623 67.9926
136.798 4484 66.9627
136.915 4408 66.3928
137.033 4561 67.5352
137.15 4770 69.0652
137.267 5173 71.9236
137.384 5610 74.8999
137.502 5695 75.4652
137.619 5801 76.1643
137.736 6034 77.6788
137.853 5515 74.263
137.97 5739 75.7562
138.087 5738 75.7496
138.204 5826 76.3282
138.321 5924 76.9675
138.438 5908 76.8635
138.555 6026 77.6273
138.672 5708 75.5513
138.788 5661 75.2396
138.905 5500 74.162
139.022 5364 73.2393
139.139 5109 71.4773
139.255 4830 69.4982
139.372 4623 67.9926
139.488 4400 66.3325
139.605 4282 65.437
139.721 4223 64.9846
139.838 3919 62.6019
139.954 3435 58.6089
140.071 3056 55.2811
140.187 2857 53.4509
140.303 2590 50.892
140.419 2389 48.8774
140.535 2199 46.8935
140.652 2020 44.9444
140.768 0 1
140.884 0 1
141 0 1
141.115 0 1
141.231 0 1
141.347 0 1
141.463 0 1
141.578 0 1
141.694 0 1
144.104 0 1
144.219 0 1
144.335 0 1
144.45 0 1
144.566 0 1
144.682 0 1
144.798 0 1
144.914 0 1
145.03 0 1
145.146 3577 59.808
145.262 3575 59.7913
145.378 3536 59.4643
145.494 3585 59.8749
145.61 3423 58.5064
145.726 3508 59.2284
145.842 3397 58.2838
145.959 3622 60.1831
146.075 3695 60.7865
146.192 3704 60.8605
146.308 3939 62.7615
146.425 3967 62.9841
146.541 3941 62.7774
146.658 4066 63.7652
146.774 4045 63.6003
146.891 4036 63.5295
147.008 4183 64.6761
147.125 4113 64.1327
147.241 4261 65.2763
147.358 4480 66.9328
147.475 4356 66
147.592 4428 66.5432
147.709 4286 65.4675
147.826 4308 65.6354
147.943 4078 63.8592
148.06 4032 63.498
148.177 3920 62.6099
148.294 3985 63.1269
148.411 4068 63.7809
148.528 4006 63.293
148.645 4182 64.6684
148.762 4049 63.6318
148.88 3867 62.1852
148.997 3925 62.6498
149.114 3748 61.2209
149.231 3528 59.397
149.349 3577 59.808
149.466 3505 59.203
149.583 3440 58.6515
149.701 3435 58.6089
149.818 3526 59.3801
149.935 3686 60.7124
150.053 3786 61.5305
150.17 3846 62.0161
150.287 3806 61.6928
150.405 3901 62.458
150.522 3960 62.9285
150.64 3928 62.6738
150.757 4069 63.7887
150.875 4079 63.867
150.992 4059 63.7103
151.11 4180 64.6529
151.227 4152 64.436
151.344 4055 63.6789
151.462 4045 63.6003
151.579 4029 63.4744
151.697 3875 62.2495
151.814 3902 62.466
151.932 3785 61.5224
152.049 3862 62.145
152.167 3974 63.0397
152.284 3822 61.8223
152.402 3775 61.441
152.519 3630 60.2495
152.636 3634 60.2827
152.754 3620 60.1664
152.871 3396 58.2752
152.989 3305 57.4891
153.106 3368 58.0345
153.223 3458 58.8048
153.341 3397 58.2838
153.458 3457 58.7963
153.575 3499 59.1523
153.693 3560 59.6657
153.81 3554 59.6154
153.927 3599 59.9917
154.044 3475 58.9491
154.162 3490 59.0762
154.279 3739 61.1474
154.396 3648 60.3987
154.513 3690 60.7454
154.63 3844 62
154.747 3868 62.1932
154.864 3843 61.9919
154.981 3663 60.5227
155.098 3616 60.1332
155.215 3562 59.6825
155.332 3463 58.8473
155.449 3562 59.6825
155.566 3479 58.983
155.683 3519 59.3212
155.8 3378 58.1206
155.917 3318 57.6021
156.033 3255 57.0526
156.15 0 1
156.267 0 1
156.383 0 1
156.5 0 1
156.617 0 1
156.733 0 1
156.85 0 1
156.966 0 1
157.082 0 1
157.199 0 1
157.315 0 1
157.431 0 1
157.547 0 1
157.664 0 1
157.78 0 1
157.896 0 1
158.012 0 1
158.128 0 1
158.244 0 1
158.359 0 1
158.475 0 1
158.591 0 1
158.706 0 1
