
6.15755 0 1
6.2731 0 1
6.3887 0 1
6.50437 0 1
6.62009 0 1
6.73587 0 1
6.8517 0 1
6.96759 0 1
7.08353 0 1
7.19952 0 1
7.31557 0 1
7.43166 0 1
7.54781 0 1
7.664 0 1
7.78024 0 1
7.89653 0 1
8.01286 0 1
8.12924 0 1
8.24567 0 1
8.36213 0 1
8.47864 0 1
8.59519 0 1
8.71178 0 1
8.82841 0 1
8.94508 0 1
9.06179 0 1
9.17853 0 1
9.29531 0 1
9.41212 0 1
9.52897 0 1
9.64584 0 1
9.76276 0 1
9.8797 0 1
9.99667 0 1
10.1137 0 1
10.2307 0 1
10.3478 0 1
10.4648 0 1
10.5819 0 1
10.6991 0 1
10.8162 0 1
10.9334 0 1
11.0506 0 1
11.1678 0 1
11.285 0 1
11.4023 0 1
11.5196 0 1
11.6369 0 1
11.7542 0 1
11.8715 0 1
11.9888 0 1
12.1062 0 1
12.2235 0 1
12.3409 0 1
12.4582 0 1
12.5756 0 1
12.693 0 1
12.8104 0 1
12.9278 0 1
13.0452 0 1
13.1626 0 1
13.28 0 1
13.3974 0 1
13.5149 0 1
13.6323 0 1
13.7497 0 1
13.8671 0 1
13.9845 0 1
14.1019 0 1
14.2193 0 1
14.3367 0 1
14.4541 0 1
14.5714 0 1
14.6888 0 1
14.8062 0 1
14.9235 0 1
15.0408 0 0
15.1581 0 0
15.2755 0 0
15.3927 0 0
15.51 0 0
15.6273 0 0
15.7445 0 0
15.8617 0 0
15.9789 0 0
16.0961 0 0
16.2132 0 0
16.3304 0 0
16.4475 0 0
16.5646 0 0
16.6816 0 0
16.7986 0 0
16.9156 0 0
17.0326 0 0
17.1496 0 0
17.2665 0 0
17.3833 0 0
17.5002 0 0
17.617 0 0
17.7338 0 0
17.8505 0 0
17.9672 0 0
18.0839 0 0
18.2005 0 0
18.3171 0 0
18.4337 0 0
18.5502 0 0
18.6666 0 0
18.7831 0 0
18.8994 0 0
19.0158 0 0
19.1321 0 0
19.2483 0 0
19.3645 0 0
19.4806 0 0
19.5967 0 0
19.7128 0 0
19.8288 0 0
19.9447 0 0
20.0606 0 1
20.1764 0 1
20.2922 0 1
20.4079 0 1
20.5236 0 1
20.6392 0 1
20.7548 0 1
20.8702 0 1
23.3078 0 1
23.4233 0 1
23.539 0 1
23.6547 0 1
23.7704 0 1
23.8862 0 1
24.0021 0 1
24.118 0 1
24.234 0 1
24.35 0 1
24.4661 1060 32.5576
24.5822 1126 33.5559
24.6984 1170 34.2053
24.8146 1360 36.8782
24.9309 1542 39.2683
25.0472 1857 43.0929
25.1636 1975 44.441
25.28 2057 45.3542
25.3965 2064 45.4313
25.513 2160 46.4758
25.6296 2169 46.5725
25.7462 2174 46.6262
25.8628 2152 46.3897
25.9795 2172 46.6047
26.0962 2222 47.1381
26.213 2186 46.7547
26.3298 2322 48.1871
26.4466 2242 47.3498
26.5635 2308 48.0416
26.6804 2178 46.669
26.7973 2149 46.3573
26.9143 2107 45.9021
27.0313 2045 45.2217
27.1483 1983 44.5309
27.2653 2062 45.4093
27.3824 1867 43.2088
27.4996 1812 42.5676
27.6167 1731 41.6053
27.7339 1820 42.6615
27.8511 1825 42.72
27.9683 1932 43.9545
28.0855 1958 44.2493
28.2028 1960 44.2719
28.3201 1991 44.6206
28.4374 2044 45.2106
28.5547 1986 44.5646
28.6721 2051 45.288
28.7894 2068 45.4753
28.9068 2019 44.9333
29.0242 2015 44.8888
29.1416 2061 45.3982
29.259 2151 46.3789
29.3764 2060 45.3872
29.4939 2051 45.288
29.6113 1932 43.9545
29.7288 1872 43.2666
29.8463 1870 43.2435
29.9638 1914 43.7493
30.0812 1893 43.5086
30.1987 1882 43.382
30.3162 1932 43.9545
30.4337 1985 44.5533
30.5512 2012 44.8553
30.6687 1985 44.5533
30.7862 1925 43.8748
30.9037 1896 43.5431
31.0212 1876 43.3128
31.1387 1816 42.6146
31.2562 1795 42.3674
31.3737 1886 43.4281
31.4912 2009 44.8219
31.6087 2067 45.4643
31.7262 2054 45.3211
31.8436 2142 46.2817
31.9611 2025 45
32.0785 1889 43.4626
32.1959 1904 43.6348
32.3134 1940 44.0454
32.4308 1962 44.2945
32.5482 1916 43.7721
32.6655 1784 42.2374
32.7829 1860 43.1277
32.9002 1740 41.7133
33.0176 1816 42.6146
33.1349 1737 41.6773
33.2522 1749 41.821
33.3694 1632 40.398
33.4867 1696 41.1825
33.6039 1637 40.4599
33.7211 1777 42.1545
33.8383 1823 42.6966
33.9554 1856 43.0813
34.0725 1901 43.6005
34.1896 1940 44.0454
34.3067 1824 42.7083
34.4237 1965 44.3283
34.5407 1860 43.1277
34.6577 1792 42.332
34.7746 1793 42.3438
34.8915 1838 42.8719
35.0084 1985 44.5533
35.1252 1901 43.6005
35.242 1933 43.9659
35.3587 1995 44.6654
35.4755 1914 43.7493
35.5921 1867 43.2088
35.7088 1848 42.9884
35.8254 1754 41.8808
35.9419 1690 41.1096
36.0584 1637 40.4599
36.1749 1667 40.8289
36.2913 1643 40.5339
36.4077 1545 39.3065
36.524 1432 37.8418
36.6403 1288 35.8887
36.7565 1132 33.6452
36.8727 989 31.4484
36.9889 1017 31.8904
37.1049 919 30.315
37.221 0 1
37.3369 0 1
37.4529 0 1
37.5687 0 1
37.6845 0 1
37.8003 0 1
37.916 0 1
38.0316 0 1
38.1472 0 1
40.5851 0 1
40.7008 0 1
40.8164 0 1
40.9322 0 1
41.048 0 1
41.1639 0 1
41.2798 0 1
41.3958 0 1
41.5118 0 1
41.6279 0 1
41.744 1854 43.0581
41.8602 2580 50.7937
41.9765 3176 56.356
42.0928 3525 59.3717
42.2091 3657 60.4731
42.3255 3689 60.7371
42.4419 3605 60.0417
42.5584 3724 61.0246
42.675 3863 62.153
42.7915 3807 61.7009
42.9081 3853 62.0725
43.0248 3833 61.9112
43.1415 3972 63.0238
43.2582 3752 61.2536
43.375 3333 57.7321
43.4918 3434 58.6003
43.6087 3419 58.4722
43.7256 3626 60.2163
43.8425 3690 60.7454
43.9595 3783 61.5061
44.0765 3825 61.8466
44.1935 3706 60.8769
44.3106 3675 60.6218
44.4277 3570 59.7495
44.5448 3690 60.7454
44.6619 3661 60.5062
44.7791 3402 58.3267
44.8963 3539 59.4895
45.0136 3419 58.4722
45.1308 3382 58.155
45.2481 3290 57.3585
45.3654 3139 56.0268
45.4827 3030 55.0454
45.6001 2902 53.8702
45.7174 2927 54.1018
45.8348 2719 52.144
45.9522 2697 51.9326
46.0697 2684 51.8073
46.1871 2551 50.5074
46.3046 2398 48.9694
46.422 2371 48.6929
46.5395 2338 48.3529
46.657 2240 47.3286
46.7745 2031 45.0666
46.892 1778 42.1663
47.0096 1625 40.3113
47.1271 1702 41.2553
47.2446 1642 40.5216
47.3622 1665 40.8044
47.4797 1649 40.6079
47.5973 1628 40.3485
47.7149 1611 40.1373
47.8324 1630 40.3733
47.95 1541 39.2556
48.0675 1575 39.6863
48.1851 1525 39.0512
48.3027 1453 38.1182
48.4202 1451 38.092
48.5378 1462 38.2361
48.6554 1438 37.921
48.7729 1376 37.0945
48.8904 1344 36.6606
49.008 1309 36.1801
49.1255 1336 36.5513
49.243 1315 36.2629
49.3605 1365 36.9459
49.478 1410 37.55
49.5955 1400 37.4166
49.713 1498 38.704
49.8304 1490 38.6005
49.9479 1521 39
50.0653 1492 38.6264
50.1827 1539 39.2301
50.3001 1427 37.7757
50.4175 1315 36.2629
50.5348 1286 35.8608
50.6521 1306 36.1386
50.7694 1354 36.7967
50.8867 1507 38.8201
51.004 1582 39.7744
51.1212 1552 39.3954
51.2384 1559 39.4842
51.3556 1509 38.8458
51.4727 1531 39.128
51.5899 1431 37.8286
51.707 1447 38.0395
51.824 1424 37.7359
51.9411 1424 37.7359
52.0581 1409 37.5366
52.175 1405 37.4833
52.2919 1392 37.3095
52.4088 1363 36.9188
52.5257 1358 36.8511
52.6425 1420 37.6829
52.7593 1420 37.6829
52.876 1315 36.2629
52.9927 1304 36.1109
53.1094 1302 36.0832
53.226 1353 36.7831
53.3426 1391 37.2961
53.4591 1266 35.5809
53.5756 1215 34.8569
53.692 1103 33.2114
53.8084 972 31.1769
53.9248 873 29.5466
54.0411 841 29
54.1573 756 27.4955
54.2735 0 1
54.3896 0 1
54.5057 0 1
54.6217 0 1
54.7377 0 1
54.8537 0 1
54.9695 0 1
55.0853 0 1
55.2011 0 1
55.3168 0 1
55.4324 0 1
57.824 0 1
57.9396 0 1
58.0553 0 1
58.1711 0 1
58.2869 0 1
58.4028 0 1
58.5187 0 1
58.6347 0 1
58.7508 0 1
58.8669 0 1
58.983 1181 34.3657
59.0992 1240 35.2136
59.2155 1254 35.4119
59.3318 1320 36.3318
59.4482 1500 38.7298
59.5646 1548 39.3446
59.681 1691 41.1218
59.7975 1736 41.6653
59.9141 1769 42.0595
60.0306 1710 41.3521
60.1473 1803 42.4617
60.2639 1719 41.4608
60.3807 1764 42
60.4974 1684 41.0366
60.6142 1847 42.9767
60.731 1766 42.0238
60.8479 1815 42.6028
60.9648 1705 41.2916
61.0818 1735 41.6533
61.1987 1796 42.3792
61.3158 1708 41.328
61.4328 1653 40.6571
61.5499 1713 41.3884
61.667 1627 40.3361
61.7841 1651 40.6325
61.9013 1667 40.8289
62.0185 1703 41.2674
62.1357 1769 42.0595
62.253 1677 40.9512
62.3702 1600 40
62.4875 1631 40.3856
62.6049 1551 39.3827
62.7222 1501 38.7427
62.8396 1601 40.0125
62.9569 1686 41.0609
63.0743 1800 42.4264
63.1918 1859 43.1161
63.3092 1811 42.5558
63.4267 1864 43.1741
63.5441 1877 43.3244
63.6616 1870 43.2435
63.7791 1789 42.2966
63.8966 1739 41.7013
64.0142 1789 42.2966
64.1317 1843 42.9302
64.2492 1766 42.0238
64.3668 1790 42.3084
64.4843 1744 41.7612
64.6019 1673 40.9023
64.7195 1764 42
64.837 1616 40.1995
64.9546 1641 40.5093
65.0722 1712 41.3763
65.1898 1588 39.8497
65.3074 1599 39.9875
65.4249 1656 40.694
65.5425 1788 42.2847
65.6601 1648 40.5956
65.7777 1711 41.3642
65.8952 1703 41.2674
66.0128 1604 40.05
66.1304 1428 37.7889
66.2479 1412 37.5766
66.3655 1488 38.5746
66.483 1638 40.4722
66.6005 1736 41.6653
66.718 1690 41.1096
66.8355 1782 42.2137
66.953 1773 42.107
67.0705 1781 42.2019
67.1879 1785 42.2493
67.3054 1790 42.3084
67.4228 1768 42.0476
67.5402 1791 42.3202
67.6576 1759 41.9404
67.7749 1645 40.5586
67.8923 1686 41.0609
68.0096 1708 41.328
68.1269 1773 42.107
68.2442 1661 40.7554
68.3614 1643 40.5339
68.4787 1661 40.7554
68.5958 1624 40.2989
68.713 1620 40.2492
68.8302 1589 39.8623
68.9473 1576 39.6989
69.0643 1589 39.8623
69.1814 1690 41.1096
69.2984 1610 40.1248
69.4154 1601 40.0125
69.5323 1620 40.2492
69.6492 1546 39.3192
69.7661 1379 37.1349
69.8829 1287 35.8748
69.9997 1360 36.8782
70.1165 1499 38.7169
70.2332 1460 38.2099
70.3499 1379 37.1349
70.4665 1280 35.7771
70.5831 1181 34.3657
70.6996 1163 34.1028
70.8161 1088 32.9848
70.9326 1102 33.1964
71.049 997 31.5753
71.1653 1039 32.2335
71.2817 941 30.6757
71.3979 911 30.1828
71.5141 869 29.4788
71.6303 864 29.3939
71.7464 801 28.3019
71.8624 0 1
71.9784 0 1
72.0944 0 1
72.2102 0 1
72.3261 0 1
72.4418 0 1
72.5575 0 1
72.6732 0 1
75.1054 0 1
75.2209 0 1
75.3365 0 1
75.4521 0 1
75.5678 0 1
75.6835 0 1
75.7993 0 1
75.9151 0 1
76.031 0 1
76.147 1381 37.1618
76.263 1480 38.4708
76.3791 1538 39.2173
76.4952 1506 38.8072
76.6113 1619 40.2368
76.7276 1490 38.6005
76.8438 1655 40.6817
76.9601 1642 40.5216
77.0765 1665 40.8044
77.1929 1693 41.1461
77.3093 1680 40.9878
77.4258 1694 41.1582
77.5423 1590 39.8748
77.6589 1593 39.9124
77.7755 1528 39.0896
77.8921 1581 39.7618
78.0088 1493 38.6394
78.1256 1653 40.6571
78.2423 1612 40.1497
78.3591 1705 41.2916
78.4759 1666 40.8167
78.5928 1710 41.3521
78.7097 1490 38.6005
78.8266 1233 35.1141
78.9436 1164 34.1174
79.0606 1171 34.2199
79.1776 1425 37.7492
79.2946 1592 39.8999
79.4117 1681 41
79.5288 1752 41.8569
79.6459 1690 41.1096
79.7631 1687 41.0731
79.8802 1668 40.8412
79.9974 1636 40.4475
80.1147 1661 40.7554
80.2319 1691 41.1218
80.3491 1707 41.3159
80.4664 1747 41.7971
80.5837 1751 41.845
80.701 1717 41.4367
80.8183 1805 42.4853
80.9357 1755 41.8927
81.053 1770 42.0714
81.1704 1753 41.8688
81.2877 1634 40.4228
81.4051 1648 40.5956
81.5225 1685 41.0488
81.6399 1629 40.3609
81.7573 1714 41.4005
81.8747 1669 40.8534
81.9922 1702 41.2553
82.1096 1702 41.2553
82.227 1680 40.9878
82.3444 1568 39.598
82.4619 1390 37.2827
82.5793 1297 36.0139
82.6967 1323 36.3731
82.8142 1478 38.4448
82.9316 1645 40.5586
83.049 1707 41.3159
83.1664 1756 41.9047
83.2838 1768 42.0476
83.4012 1747 41.7971
83.5186 1744 41.7612
83.636 1804 42.4735
83.7534 1744 41.7612
83.8708 1729 41.5812
83.9881 1754 41.8808
84.1055 1800 42.4264
84.2228 1824 42.7083
84.3401 1883 43.3935
84.4575 1889 43.4626
84.5747 1926 43.8862
84.692 1844 42.9418
84.8093 1871 43.2551
84.9265 1750 41.833
85.0437 1747 41.7971
85.1609 1768 42.0476
85.2781 1804 42.4735
85.3952 1798 42.4028
85.5123 1743 41.7493
85.6294 1853 43.0465
85.7465 1787 42.2729
85.8636 1797 42.391
85.9806 1602 40.025
86.0976 1505 38.7943
86.2145 1493 38.6394
86.3315 1692 41.1339
86.4484 2162 46.4973
86.5652 2349 48.4665
86.682 2412 49.1121
86.7988 2590 50.892
86.9156 2662 51.5946
87.0323 2821 53.1131
87.149 3026 55.0091
87.2657 2999 54.7631
87.3823 3071 55.4166
87.4988 3113 55.7943
87.6154 2933 54.1572
87.7318 2588 50.8724
87.8483 2564 50.636
87.9647 2526 50.2593
88.081 2484 49.8397
88.1973 2349 48.4665
88.3136 2331 48.2804
88.4298 2233 47.2546
88.546 2067 45.4643
88.6621 2018 44.9222
88.7781 2039 45.1553
88.8942 0 1
89.0101 0 1
89.126 0 1
89.2419 0 1
89.3577 0 1
89.4734 0 1
89.5891 0 1
89.7047 0 1
89.8203 0 1
89.9358 0 1
92.3269 0 1
92.4424 0 1
92.558 0 1
92.6736 0 1
92.7893 0 1
92.905 0 1
93.0208 0 1
93.1366 0 1
93.2525 0 1
93.3685 0 1
93.4845 0 1
93.6005 3804 61.6766
93.7167 3776 61.4492
93.8328 3763 61.3433
93.949 3706 60.8769
94.0653 3724 61.0246
94.1816 3881 62.2977
94.2979 3789 61.5549
94.4143 3763 61.3433
94.5307 3801 61.6523
94.6472 3742 61.1719
94.7637 3686 60.7124
94.8803 3360 57.9655
94.9969 2868 53.5537
95.1135 2590 50.892
95.2302 2740 52.345
95.3469 3202 56.5862
95.4637 3488 59.0593
95.5805 3779 61.4736
95.6973 3743 61.1801
95.8142 3875 62.2495
95.9311 3831 61.8951
96.048 3845 62.0081
96.1649 3852 62.0645
96.2819 3793 61.5873
96.3989 3930 62.6897
96.516 3828 61.8708
96.633 3869 62.2013
96.7501 3880 62.2896
96.8673 3905 62.49
96.9844 3920 62.6099
97.1016 3979 63.0793
97.2188 4052 63.6553
97.336 3914 62.562
97.4532 3825 61.8466
97.5704 3773 61.4248
97.6877 3816 61.7738
97.805 3774 61.4329
97.9223 3881 62.2977
98.0396 3891 62.3779
98.1569 3757 61.2944
98.2743 3713 60.9344
98.3916 3367 58.0259
98.509 3004 54.8088
98.6264 2636 51.342
98.7438 2658 51.5558
98.8612 3141 56.0446
98.9786 3605 60.0417
99.096 3839 61.9597
99.2134 3751 61.2454
99.3308 3718 60.9754
99.4482 3718 60.9754
99.5656 3713 60.9344
99.6831 3724 61.0246
99.8005 3678 60.6465
99.9179 3585 59.8749
100.035 3679 60.6548
100.153 3741 61.1637
100.27 3785 61.5224
100.388 3877 62.2656
100.505 3733 61.0983
100.622 3940 62.7694
100.74 3797 61.6198
100.857 3805 61.6847
100.975 3810 61.7252
101.092 3801 61.6523
101.209 3707 60.8851
101.327 3668 60.564
101.444 3697 60.803
101.561 3885 62.3298
101.679 3747 61.2127
101.796 3690 60.7454
101.913 3520 59.3296
102.03 3100 55.6776
102.148 2648 51.4587
102.265 2278 47.7284
102.382 2729 52.2398
102.499 2910 53.9444
102.616 3193 56.5066
102.733 3102 55.6956
102.851 3035 55.0908
102.968 2902 53.8702
103.085 2912 53.963
103.202 2845 53.3385
103.319 2671 51.6817
103.436 2566 50.6557
103.552 2460 49.5984
103.669 2324 48.2079
103.786 2310 48.0625
103.903 2201 46.9148
104.02 2248 47.4131
104.137 2218 47.0956
104.253 2167 46.551
104.37 2105 45.8803
104.487 2109 45.9239
104.603 2014 44.8776
104.72 1969 44.3734
104.836 1846 42.9651
104.953 1711 41.3642
105.069 1482 38.4968
105.186 1373 37.054
105.302 1280 35.7771
105.418 1220 34.9285
105.535 1026 32.0312
105.651 912 30.1993
105.767 796 28.2135
105.883 710 26.6458
105.999 643 25.3574
106.115 0 1
106.231 0 1
106.347 0 1
106.463 0 1
106.579 0 1
106.694 0 1
106.81 0 1
106.926 0 1
107.041 0 1
107.157 0 1
109.576 0 1
109.692 0 1
109.807 0 1
109.923 0 1
110.039 0 1
110.155 0 1
110.27 0 1
110.386 0 1
110.502 0 1
110.618 2103 45.8585
110.735 2182 46.7119
110.851 2012 44.8553
110.967 1952 44.1814
111.083 1857 43.0929
111.199 1940 44.0454
111.316 2326 48.2286
111.432 2366 48.6415
111.549 2370 48.6826
111.665 2332 48.2908
111.782 2324 48.2079
111.898 2242 47.3498
112.015 2292 47.8748
112.132 2322 48.1871
112.248 2299 47.9479
112.365 2380 48.7852
112.482 2250 47.4342
112.599 2369 48.6724
112.716 2430 49.295
112.832 2455 49.548
112.949 2601 51
113.066 2541 50.4083
113.183 2557 50.5668
113.3 2685 51.817
113.417 2558 50.5767
113.534 2515 50.1498
113.652 2558 50.5767
113.769 2622 51.2055
113.886 2486 49.8598
114.003 2559 50.5866
114.12 2529 50.2892
114.238 2537 50.3686
114.355 2343 48.4045
114.472 2127 46.1194
114.589 2093 45.7493
114.707 2058 45.3652
114.824 2197 46.8722
114.942 2364 48.621
115.059 2471 49.7092
115.176 2406 49.051
115.294 2370 48.6826
115.411 2393 48.9183
115.529 2341 48.3839
115.646 2387 48.8569
115.764 2399 48.9796
115.881 2322 48.1871
115.999 2373 48.7134
116.116 2475 49.7494
116.234 2460 49.5984
116.351 2493 49.93
116.469 2631 51.2933
116.586 2643 51.4101
116.704 2662 51.5946
116.821 2615 51.1371
116.939 2753 52.469
117.056 2533 50.3289
117.174 2609 51.0784
117.291 2672 51.6914
117.409 2572 50.7149
117.526 2589 50.8822
117.644 2587 50.8626
117.761 2604 51.0294
117.879 2524 50.2394
117.996 2307 48.0312
118.114 2186 46.7547
118.231 2106 45.8912
118.349 2160 46.4758
118.466 2369 48.6724
118.584 2418 49.1732
118.701 2441 49.4065
118.819 2403 49.0204
118.936 2490 49.8999
119.053 2466 49.6588
119.171 2348 48.4562
119.288 2243 47.3603
119.405 2290 47.8539
119.523 2404 49.0306
119.64 2230 47.2229
119.757 2267 47.613
119.875 2411 49.1019
119.992 2365 48.6313
120.109 2406 49.051
120.226 2401 49
120.343 2488 49.8799
120.46 2523 50.2295
120.578 2483 49.8297
120.695 2539 50.3885
120.812 2409 49.0816
120.929 2461 49.6085
121.046 2480 49.7996
121.163 2398 48.9694
121.279 2349 48.4665
121.396 2317 48.1352
121.513 2375 48.734
121.63 2141 46.2709
121.747 1888 43.4511
121.863 1766 42.0238
121.98 1672 40.8901
122.097 1781 42.2019
122.213 1767 42.0357
122.33 1700 41.2311
122.446 1634 40.4228
122.563 1583 39.7869
122.679 1609 40.1123
122.795 1458 38.1838
122.912 1444 38
123.028 1460 38.2099
123.144 1401 37.4299
123.26 1448 38.0526
123.377 0 1
123.493 0 1
123.609 0 1
123.725 0 1
123.84 0 1
123.956 0 1
124.072 0 1
124.188 0 1
124.303 0 1
124.419 0 1
126.852 0 1
126.968 0 1
127.083 0 1
127.199 0 1
127.315 0 1
127.431 0 1
127.547 0 1
127.663 0 1
127.779 0 1
127.895 0 1
128.011 0 1
128.127 0 1
128.243 0 1
128.359 2723 52.1824
128.476 2773 52.6593
128.592 2780 52.7257
128.708 2843 53.3198
128.825 2832 53.2165
128.941 2943 54.2494
129.058 2723 52.1824
129.174 2909 53.9351
129.291 2926 54.0925
129.408 3049 55.2178
129.524 3051 55.2359
129.641 3141 56.0446
129.758 3129 55.9375
129.875 3289 57.3498
129.992 3396 58.2752
130.108 3352 57.8965
130.225 3336 57.7581
130.342 3389 58.2151
130.459 3224 56.7803
130.576 3178 56.3738
130.693 3037 55.109
130.81 2993 54.7083
130.928 2961 54.4151
131.045 3034 55.0818
131.162 3083 55.5248
131.279 3206 56.6216
131.396 3264 57.1314
131.513 3196 56.5332
131.631 3285 57.3149
131.748 3196 56.5332
131.865 3290 57.3585
131.983 3150 56.1249
132.1 3111 55.7763
132.217 3101 55.6866
132.335 3060 55.3173
132.452 3048 55.2087
132.57 3080 55.4977
132.687 2947 54.2863
132.804 3248 56.9912
132.922 3169 56.2939
133.039 3211 56.6657
133.157 3209 56.648
133.274 3255 57.0526
133.392 3379 58.1292
133.509 3456 58.7878
133.627 3419 58.4722
133.744 3515 59.2874
133.862 3557 59.6406
133.979 3549 59.5735
134.097 3484 59.0254
134.214 3338 57.7754
134.332 3344 57.8273
134.449 3399 58.3009
134.567 3390 58.2237
134.684 3471 58.9152
134.802 3523 59.3549
134.919 3631 60.2578
135.037 3570 59.7495
135.154 3434 58.6003
135.272 3520 59.3296
135.389 3476 58.9576
135.507 3345 57.836
135.624 3327 57.6802
135.742 3130 55.9464
135.859 3251 57.0175
135.977 3219 56.7362
136.094 3261 57.1052
136.211 3260 57.0964
136.329 3424 58.515
136.446 3255 57.0526
136.564 3330 57.7062
136.681 3328 57.6888
136.798 3389 58.2151
136.915 3406 58.3609
137.033 3370 58.0517
137.15 3321 57.6281
137.267 3332 57.7235
137.384 3438 58.6345
137.502 3398 58.2924
137.619 3490 59.0762
137.736 3381 58.1464
137.853 3360 57.9655
137.97 3249 57
138.087 3133 55.9732
138.204 3237 56.8946
138.321 3311 57.5413
138.438 3283 57.2975
138.555 3537 59.4727
138.672 3274 57.2189
138.788 3206 56.6216
138.905 3299 57.4369
139.022 3132 55.9643
139.139 3039 55.1271
139.255 2922 54.0555
139.372 2741 52.3546
139.488 2533 50.3289
139.605 2579 50.7839
139.721 2463 49.6286
139.838 2364 48.621
139.954 2349 48.4665
140.071 2261 47.55
140.187 2274 47.6865
140.303 2254 47.4763
140.419 2198 46.8828
140.535 2353 48.5077
140.652 2344 48.4149
140.768 0 1
140.884 0 1
141 0 1
141.115 0 1
141.231 0 1
141.347 0 1
141.463 0 1
141.578 0 1
141.694 0 1
144.104 0 1
144.219 0 1
144.335 0 1
144.45 0 1
144.566 0 1
144.682 0 1
144.798 0 1
144.914 0 1
145.03 0 1
145.146 3273 57.2101
145.262 3270 57.1839
145.378 3326 57.6715
145.494 3389 58.2151
145.61 3365 58.0086
145.726 3420 58.4808
145.842 3460 58.8218
145.959 3407 58.3695
146.075 3409 58.3866
146.192 3544 59.5315
146.308 3223 56.7715
146.425 3387 58.1979
146.541 3244 56.9561
146.658 2928 54.111
146.774 2830 53.1977
146.891 2799 52.9056
147.008 2788 52.8015
147.125 3131 55.9553
147.241 3123 55.8838
147.358 3166 56.2672
147.475 3278 57.2538
147.592 3393 58.2495
147.709 3233 56.8595
147.826 3278 57.2538
147.943 3416 58.4466
148.06 3417 58.4551
148.177 3319 57.6108
148.294 3476 58.9576
148.411 3398 58.2924
148.528 3438 58.6345
148.645 3499 59.1523
148.762 3491 59.0847
148.88 3504 59.1946
148.997 3439 58.643
149.114 3698 60.8112
149.231 3504 59.1946
149.349 3714 60.9426
149.466 3556 59.6322
149.583 3589 59.9083
149.701 3535 59.4559
149.818 3680 60.663
149.935 3562 59.6825
150.053 3468 58.8897
150.17 3482 59.0085
150.287 3239 56.9122
150.405 2965 54.4518
150.522 2825 53.1507
150.64 2856 53.4416
150.757 2942 54.2402
150.875 2826 53.1601
150.992 2922 54.0555
151.11 2801 52.9245
151.227 2751 52.45
151.344 2788 52.8015
151.462 2595 50.9411
151.579 2719 52.144
151.697 2733 52.2781
151.814 2795 52.8678
151.932 2762 52.5547
152.049 2863 53.507
152.167 2756 52.4976
152.284 2863 53.507
152.402 2745 52.3927
152.519 2887 53.7308
152.636 2987 54.6535
152.754 2994 54.7175
152.871 3070 55.4076
152.989 3005 54.8179
153.106 3116 55.8211
153.223 3154 56.1605
153.341 3107 55.7405
153.458 3202 56.5862
153.575 3218 56.7274
153.693 3196 56.5332
153.81 3168 56.285
153.927 3015 54.909
154.044 2870 53.5724
154.162 2824 53.1413
154.279 2931 54.1387
154.396 2983 54.6168
154.513 3113 55.7943
154.63 3090 55.5878
154.747 3202 56.5862
154.864 3034 55.0818
154.981 2951 54.3231
155.098 2900 53.8516
155.215 2781 52.7352
155.332 2604 51.0294
155.449 2595 50.9411
155.566 2500 50
155.683 2292 47.8748
155.8 2329 48.2597
155.917 2008 44.8107
156.033 1897 43.5546
156.15 0 1
156.267 0 1
156.383 0 1
156.5 0 1
156.617 0 1
156.733 0 1
156.85 0 1
156.966 0 1
157.082 0 1
157.199 0 1
157.315 0 1
157.431 0 1
157.547 0 1
157.664 0 1
157.78 0 1
157.896 0 1
158.012 0 1
158.128 0 1
158.244 0 1
158.359 0 1
158.475 0 1
158.591 0 1
158.706 0 1
