
6.15755 0 1
6.2731 0 1
6.3887 0 1
6.50437 0 1
6.62009 0 1
6.73587 0 1
6.8517 0 1
6.96759 0 1
7.08353 0 1
7.19952 0 1
7.31557 0 1
7.43166 0 1
7.54781 0 1
7.664 0 1
7.78024 0 1
7.89653 0 1
8.01286 0 1
8.12924 0 1
8.24567 0 1
8.36213 0 1
8.47864 0 1
8.59519 0 1
8.71178 0 1
8.82841 0 1
8.94508 0 1
9.06179 0 1
9.17853 0 1
9.29531 0 1
9.41212 0 1
9.52897 0 1
9.64584 0 1
9.76276 0 1
9.8797 0 1
9.99667 0 1
10.1137 0 1
10.2307 0 1
10.3478 0 1
10.4648 0 1
10.5819 0 1
10.6991 0 1
10.8162 0 1
10.9334 0 1
11.0506 0 1
11.1678 0 1
11.285 0 1
11.4023 0 1
11.5196 0 1
11.6369 0 1
11.7542 0 1
11.8715 0 1
11.9888 0 1
12.1062 0 1
12.2235 0 1
12.3409 0 1
12.4582 0 1
12.5756 0 1
12.693 0 1
12.8104 0 1
12.9278 0 1
13.0452 0 1
13.1626 0 1
13.28 0 1
13.3974 0 1
13.5149 0 1
13.6323 0 1
13.7497 0 1
13.8671 0 1
13.9845 0 1
14.1019 0 1
14.2193 0 1
14.3367 0 1
14.4541 0 1
14.5714 0 1
14.6888 0 1
14.8062 0 1
14.9235 0 1
15.0408 2101 45.8367
15.1581 2152 46.3897
15.2755 2164 46.5188
15.3927 2249 47.4236
15.51 2202 46.9255
15.6273 2264 47.5815
15.7445 2169 46.5725
15.8617 2186 46.7547
15.9789 2148 46.3465
16.0961 2209 47
16.2132 2158 46.4543
16.3304 2241 47.3392
16.4475 2224 47.1593
16.5646 2289 47.8435
16.6816 2253 47.4658
16.7986 2264 47.5815
16.9156 2271 47.655
17.0326 2320 48.1664
17.1496 2285 47.8017
17.2665 2358 48.5592
17.3833 2367 48.6518
17.5002 2460 49.5984
17.617 2428 49.2747
17.7338 2383 48.816
17.8505 2390 48.8876
17.9672 2343 48.4045
18.0839 2285 47.8017
18.2005 2342 48.3942
18.3171 2417 49.163
18.4337 2436 49.3559
18.5502 2515 50.1498
18.6666 2476 49.7594
18.7831 2515 50.1498
18.8994 2537 50.3686
19.0158 2493 49.93
19.1321 2348 48.4562
19.2483 2267 47.613
19.3645 2180 46.6905
19.4806 2119 46.0326
19.5967 2041 45.1774
19.7128 2054 45.3211
19.8288 1820 42.6615
19.9447 1535 39.1791
20.0606 0 1
20.1764 0 1
20.2922 0 1
20.4079 0 1
20.5236 0 1
20.6392 0 1
20.7548 0 1
20.8702 0 1
23.3078 0 1
23.4233 0 1
23.539 0 1
23.6547 0 1
23.7704 0 1
23.8862 0 1
24.0021 0 1
24.118 0 1
24.234 0 1
24.35 0 1
24.4661 1174 34.2637
24.5822 1330 36.4692
24.6984 1582 39.7744
24.8146 1709 41.3401
24.9309 1869 43.2319
25.0472 2157 46.4435
25.1636 2207 46.9787
25.28 2256 47.4974
25.3965 2298 47.9375
25.513 2397 48.9592
25.6296 2378 48.7647
25.7462 2545 50.448
25.8628 2564 50.636
25.9795 2649 51.4684
26.0962 2627 51.2543
26.213 2784 52.7636
26.3298 2686 51.8266
26.4466 2664 51.614
26.5635 2636 51.342
26.6804 2721 52.1632
26.7973 2628 51.264
26.9143 2695 51.9134
27.0313 2752 52.4595
27.1483 2759 52.5262
27.2653 2953 54.3415
27.3824 2827 53.1695
27.4996 2894 53.7959
27.6167 2898 53.8331
27.7339 2692 51.8845
27.8511 2756 52.4976
27.9683 2757 52.5071
28.0855 2649 51.4684
28.2028 2714 52.0961
28.3201 2799 52.9056
28.4374 2652 51.4976
28.5547 2647 51.449
28.6721 2608 51.0686
28.7894 2531 50.309
28.9068 2452 49.5177
29.0242 2528 50.2792
29.1416 2534 50.3389
29.259 2509 50.0899
29.3764 2565 50.6458
29.4939 2460 49.5984
29.6113 2656 51.5364
29.7288 2693 51.8941
29.8463 2616 51.1468
29.9638 2822 53.1225
30.0812 2682 51.788
30.1987 2645 51.4296
30.3162 2749 52.4309
30.4337 2749 52.4309
30.5512 2789 52.811
30.6687 2863 53.507
30.7862 2994 54.7175
30.9037 2940 54.2218
31.0212 2880 53.6656
31.1387 2895 53.8052
31.2562 2836 53.2541
31.3737 2757 52.5071
31.4912 2726 52.2111
31.6087 2620 51.1859
31.7262 2879 53.6563
31.8436 2753 52.469
31.9611 2800 52.915
32.0785 2754 52.4786
32.1959 2645 51.4296
32.3134 2597 50.9608
32.4308 2448 49.4773
32.5482 2468 49.679
32.6655 2503 50.03
32.7829 2568 50.6754
32.9002 2507 50.07
33.0176 2773 52.6593
33.1349 2624 51.225
33.2522 2703 51.9904
33.3694 2712 52.0769
33.4867 2798 52.8961
33.6039 2780 52.7257
33.7211 2799 52.9056
33.8383 2684 51.8073
33.9554 2788 52.8015
34.0725 2731 52.259
34.1896 2697 51.9326
34.3067 2843 53.3198
34.4237 2985 54.6352
34.5407 2894 53.7959
34.6577 2944 54.2586
34.7746 2851 53.3948
34.8915 2916 54
35.0084 2829 53.1883
35.1252 2879 53.6563
35.242 2822 53.1225
35.3587 2842 53.3104
35.4755 2818 53.0848
35.5921 2791 52.8299
35.7088 2662 51.5946
35.8254 2617 51.1566
35.9419 2582 50.8134
36.0584 2477 49.7695
36.1749 2362 48.6004
36.2913 2262 47.5605
36.4077 2228 47.2017
36.524 2150 46.3681
36.6403 2131 46.1628
36.7565 2051 45.288
36.8727 2074 45.5412
36.9889 2097 45.793
37.1049 1880 43.359
37.221 0 1
37.3369 0 1
37.4529 0 1
37.5687 0 1
37.6845 0 1
37.8003 0 1
37.916 0 1
38.0316 0 1
38.1472 0 1
40.5851 0 1
40.7008 0 1
40.8164 0 1
40.9322 0 1
41.048 0 1
41.1639 0 1
41.2798 0 1
41.3958 0 1
41.5118 0 1
41.6279 0 1
41.744 1213 34.8281
41.8602 1394 37.3363
41.9765 1599 39.9875
42.0928 1757 41.9166
42.2091 1957 44.238
42.3255 2131 46.1628
42.4419 2230 47.2229
42.5584 2295 47.9062
42.675 2319 48.156
42.7915 2355 48.5283
42.9081 2495 49.95
43.0248 2521 50.2096
43.1415 2634 51.3225
43.2582 2754 52.4786
43.375 2918 54.0185
43.4918 3035 55.0908
43.6087 3019 54.9454
43.7256 2873 53.6004
43.8425 2890 53.7587
43.9595 2737 52.3163
44.0765 2830 53.1977
44.1935 2810 53.0094
44.3106 2857 53.4509
44.4277 2883 53.6936
44.5448 2855 53.4322
44.6619 2598 50.9706
44.7791 2582 50.8134
44.8963 2464 49.6387
45.0136 2270 47.6445
45.1308 2230 47.2229
45.2481 2212 47.0319
45.3654 2157 46.4435
45.4827 2263 47.571
45.6001 2436 49.3559
45.7174 2464 49.6387
45.8348 2652 51.4976
45.9522 2822 53.1225
46.0697 2800 52.915
46.1871 2764 52.5738
46.3046 2905 53.8981
46.422 2797 52.8867
46.5395 2888 53.7401
46.657 2961 54.4151
46.7745 3044 55.1725
46.892 3131 55.9553
47.0096 3170 56.3028
47.1271 3203 56.5951
47.2446 3238 56.9034
47.3622 3075 55.4527
47.4797 3069 55.3986
47.5973 3044 55.1725
47.7149 3060 55.3173
47.8324 3150 56.1249
47.95 3154 56.1605
48.0675 2974 54.5344
48.1851 2951 54.3231
48.3027 2841 53.301
48.4202 2649 51.4684
48.5378 2377 48.7545
48.6554 2203 46.9361
48.7729 2314 48.1041
48.8904 2229 47.2123
49.008 2312 48.0833
49.1255 2453 49.5278
49.243 2698 51.9423
49.3605 2662 51.5946
49.478 2896 53.8145
49.5955 2928 54.111
49.713 3044 55.1725
49.8304 2901 53.8609
49.9479 3087 55.5608
50.0653 2995 54.7266
50.1827 3059 55.3082
50.3001 3079 55.4887
50.4175 3215 56.701
50.5348 3243 56.9473
50.6521 3325 57.6628
50.7694 3378 58.1206
50.8867 3337 57.7668
51.004 3315 57.576
51.1212 3185 56.4358
51.2384 3090 55.5878
51.3556 3187 56.4535
51.4727 3165 56.2583
51.5899 3267 57.1577
51.707 3061 55.3263
51.824 3001 54.7814
51.9411 2804 52.9528
52.0581 2457 49.5681
52.175 2420 49.1935
52.2919 2399 48.9796
52.4088 2309 48.0521
52.5257 2324 48.2079
52.6425 2332 48.2908
52.7593 2644 51.4198
52.876 2817 53.0754
52.9927 2867 53.5444
53.1094 2952 54.3323
53.226 2902 53.8702
53.3426 2939 54.2125
53.4591 2753 52.469
53.5756 2761 52.5452
53.692 2568 50.6754
53.8084 2539 50.3885
53.9248 2397 48.9592
54.0411 2472 49.7192
54.1573 2254 47.4763
54.2735 0 1
54.3896 0 1
54.5057 0 1
54.6217 0 1
54.7377 0 1
54.8537 0 1
54.9695 0 1
55.0853 0 1
55.2011 0 1
55.3168 0 1
55.4324 0 1
57.824 0 1
57.9396 0 1
58.0553 0 1
58.1711 0 1
58.2869 0 1
58.4028 0 1
58.5187 0 1
58.6347 0 1
58.7508 0 1
58.8669 0 1
58.983 2558 50.5767
59.0992 2858 53.4603
59.2155 3233 56.8595
59.3318 3460 58.8218
59.4482 3684 60.696
59.5646 3803 61.6685
59.681 3955 62.8888
59.7975 4043 63.5846
59.9141 4013 63.3482
60.0306 4124 64.2184
60.1473 4190 64.7302
60.2639 4182 64.6684
60.3807 4124 64.2184
60.4974 4034 63.5138
60.6142 3811 61.7333
60.731 3462 58.8388
60.8479 3175 56.3471
60.9648 3055 55.2721
61.0818 2868 53.5537
61.1987 2926 54.0925
61.3158 3090 55.5878
61.4328 3425 58.5235
61.5499 3841 61.9758
61.667 4078 63.8592
61.7841 4280 65.4217
61.9013 4316 65.6963
62.0185 4483 66.9552
62.1357 4421 66.4906
62.253 4616 67.9412
62.3702 4544 67.4092
62.4875 4502 67.0969
62.6049 4705 68.593
62.7222 4704 68.5857
62.8396 4812 69.3686
62.9569 4822 69.4406
63.0743 4773 69.0869
63.1918 4876 69.8284
63.3092 4681 68.4178
63.4267 4638 68.1029
63.5441 4608 67.8823
63.6616 4668 68.3228
63.7791 4748 68.9057
63.8966 4595 67.7864
64.0142 4365 66.0681
64.1317 4091 63.9609
64.2492 3668 60.564
64.3668 3272 57.2014
64.4843 3023 54.9818
64.6019 2942 54.2402
64.7195 2806 52.9717
64.837 2987 54.6535
64.9546 3286 57.3236
65.0722 3753 61.2617
65.1898 4119 64.1794
65.3074 4520 67.2309
65.4249 4677 68.3886
65.5425 4719 68.695
65.6601 4765 69.029
65.7777 4680 68.4105
65.8952 4744 68.8767
66.0128 4831 69.5054
66.1304 4786 69.1809
66.2479 4907 70.05
66.3655 4929 70.2068
66.483 5035 70.9577
66.6005 5082 71.2881
66.718 5145 71.7287
66.8355 4933 70.2353
66.953 5097 71.3933
67.0705 4880 69.857
67.1879 4910 70.0714
67.3054 4858 69.6994
67.4228 4858 69.6994
67.5402 4711 68.6367
67.6576 4429 66.5507
67.7749 4127 64.2417
67.8923 3692 60.7618
68.0096 3244 56.9561
68.1269 3010 54.8635
68.2442 2938 54.2033
68.3614 2766 52.5928
68.4787 3087 55.5608
68.5958 3469 58.8982
68.713 3907 62.506
68.8302 4424 66.5132
68.9473 4652 68.2056
69.0643 4842 69.5845
69.1814 5056 71.1056
69.2984 4947 70.3349
69.4154 4951 70.3633
69.5323 4777 69.1158
69.6492 4644 68.1469
69.7661 4704 68.5857
69.8829 4575 67.6387
69.9997 4852 69.6563
70.1165 4800 69.282
70.2332 4580 67.6757
70.3499 4642 68.1322
70.4665 4485 66.9701
70.5831 4199 64.7997
70.6996 3944 62.8013
70.8161 3792 61.5792
70.9326 3787 61.5386
71.049 3558 59.649
71.1653 3216 56.7098
71.2817 3039 55.1271
71.3979 2693 51.8941
71.5141 2383 48.816
71.6303 1796 42.3792
71.7464 1255 35.426
71.8624 0 1
71.9784 0 1
72.0944 0 1
72.2102 0 1
72.3261 0 1
72.4418 0 1
72.5575 0 1
72.6732 0 1
75.1054 0 1
75.2209 0 1
75.3365 0 1
75.4521 0 1
75.5678 0 1
75.6835 0 1
75.7993 0 1
75.9151 0 1
76.031 0 1
76.147 3555 59.6238
76.263 3980 63.0872
76.3791 4187 64.707
76.4952 4118 64.1716
76.6113 3965 62.9682
76.7276 3723 61.0164
76.8438 3366 58.0172
76.9601 3121 55.8659
77.0765 2793 52.8488
77.1929 2626 51.2445
77.3093 2678 51.7494
77.4258 2814 53.0471
77.5423 3081 55.5068
77.6589 3812 61.7414
77.7755 4332 65.8179
77.8921 4966 70.4699
78.0088 5227 72.298
78.1256 5435 73.7225
78.2423 5555 74.5319
78.3591 5322 72.952
78.4759 5316 72.9109
78.5928 5384 73.3757
78.7097 5291 72.7393
78.8266 5307 72.8492
78.9436 5809 76.2168
79.0606 5705 75.5315
79.1776 5718 75.6175
79.2946 5899 76.8049
79.4117 5912 76.8895
79.5288 5777 76.0066
79.6459 5711 75.5712
79.7631 5826 76.3282
79.8802 5693 75.452
79.9974 5761 75.9013
80.1147 5878 76.6681
80.2319 5719 75.6241
80.3491 5270 72.5948
80.4664 4662 68.2788
80.5837 4093 63.9766
80.701 3462 58.8388
80.8183 3194 56.5155
80.9357 3045 55.1815
81.053 2973 54.5252
81.1704 3369 58.0431
81.2877 3929 62.6817
81.4051 4576 67.6461
81.5225 5479 74.0203
81.6399 5947 77.1168
81.7573 6406 80.0375
81.8747 6309 79.4292
81.9922 6417 80.1062
82.1096 6252 79.0696
82.227 6151 78.4283
82.3444 6149 78.4156
82.4619 6432 80.1998
82.5793 6462 80.3866
82.6967 6484 80.5233
82.8142 6647 81.5291
82.9316 6939 83.3007
83.049 6854 82.7889
83.1664 6758 82.2071
83.2838 6821 82.5893
83.4012 6736 82.0731
83.5186 6526 80.7837
83.636 6560 80.9938
83.7534 6583 81.1357
83.8708 6333 79.5801
83.9881 5876 76.6551
84.1055 5175 71.9375
84.2228 4700 68.5565
84.3401 3928 62.6738
84.4575 3529 59.4054
84.5747 3278 57.2538
84.692 3372 58.0689
84.8093 3605 60.0417
84.9265 4395 66.2948
85.0437 5266 72.5672
85.1609 6052 77.7946
85.2781 6723 81.9939
85.3952 7108 84.309
85.5123 7179 84.729
85.6294 7333 85.6329
85.7465 7068 84.0714
85.8636 6962 83.4386
85.9806 7009 83.7198
86.0976 7412 86.093
86.2145 7262 85.2174
86.3315 7533 86.7929
86.4484 7452 86.325
86.5652 7488 86.5332
86.682 7495 86.5737
86.7988 7338 85.6621
86.9156 6988 83.5943
87.0323 6904 83.0903
87.149 6754 82.1827
87.2657 6664 81.6333
87.3823 6584 81.1419
87.4988 6242 79.0063
87.6154 5587 74.7462
87.7318 5027 70.9013
87.8483 4170 64.5755
87.9647 3380 58.1378
88.081 2980 54.5894
88.1973 2672 51.6914
88.3136 2689 51.8556
88.4298 2806 52.9717
88.546 3406 58.3609
88.6621 3792 61.5792
88.7781 4300 65.5744
88.8942 0 1
89.0101 0 1
89.126 0 1
89.2419 0 1
89.3577 0 1
89.4734 0 1
89.5891 0 1
89.7047 0 1
89.8203 0 1
89.9358 0 1
92.3269 0 1
92.4424 0 1
92.558 0 1
92.6736 0 1
92.7893 0 1
92.905 0 1
93.0208 0 1
93.1366 0 1
93.2525 0 1
93.3685 0 1
93.4845 0 1
93.6005 3158 56.1961
93.7167 3363 57.9914
93.8328 3758 61.3025
93.949 4580 67.6757
94.0653 5700 75.4983
94.1816 6752 82.1706
94.2979 7373 85.8662
94.4143 7728 87.909
94.5307 8271 90.945
94.6472 8496 92.1737
94.7637 8597 92.72
94.8803 8538 92.4013
94.9969 8395 91.6242
95.1135 8603 92.7524
95.2302 8692 93.2309
95.3469 8824 93.9361
95.4637 9086 95.3205
95.5805 9110 95.4463
95.6973 9078 95.2785
95.8142 9223 96.0365
95.9311 8728 93.4238
96.048 8918 94.4352
96.1649 8820 93.9149
96.2819 8732 93.4452
96.3989 8494 92.1629
96.516 8262 90.8955
96.633 7793 88.278
96.7501 6901 83.0723
96.8673 6391 79.9437
96.9844 5661 75.2396
97.1016 4924 70.1712
97.2188 4548 67.4389
97.336 4298 65.5591
97.4532 4408 66.3928
97.5704 5008 70.7672
97.6877 6012 77.5371
97.805 7156 84.5931
97.9223 7928 89.0393
98.0396 8624 92.8655
98.1569 8985 94.7892
98.2743 9094 95.3625
98.3916 9033 95.0421
98.509 9118 95.4882
98.6264 8893 94.3027
98.7438 8943 94.5674
98.8612 8996 94.8472
98.9786 9322 96.5505
99.096 9334 96.6126
99.2134 9486 97.3961
99.3308 9503 97.4833
99.4482 9622 98.0918
99.5656 9309 96.4832
99.6831 9297 96.421
99.8005 9244 96.1457
99.9179 9238 96.1145
100.035 9098 95.3834
100.153 8883 94.2497
100.27 8179 90.4378
100.388 7302 85.4517
100.505 6318 79.4858
100.622 5640 75.0999
100.74 4935 70.2496
100.857 4633 68.0661
100.975 4718 68.6877
101.092 4926 70.1855
101.209 5886 76.7203
101.327 6982 83.5584
101.444 8196 90.5318
101.561 8954 94.6256
101.679 9486 97.3961
101.796 9526 97.6012
101.913 9556 97.7548
102.03 9262 96.2393
102.148 9321 96.5453
102.265 9304 96.4572
102.382 9031 95.0316
102.499 9455 97.2368
102.616 9655 98.2599
102.733 9719 98.585
102.851 9605 98.0051
102.968 9952 99.7597
103.085 9745 98.7168
103.202 9543 97.6883
103.319 9336 96.623
103.436 9173 95.7758
103.552 9331 96.5971
103.669 9112 95.4568
103.786 8855 94.101
103.903 7891 88.8313
104.02 7063 84.0417
104.137 6202 78.7528
104.253 5526 74.3371
104.37 4962 70.4415
104.487 4658 68.2495
104.603 4813 69.3758
104.72 5192 72.0555
104.836 5960 77.201
104.953 6679 81.7251
105.069 7293 85.3991
105.186 7522 86.7295
105.302 7498 86.591
105.418 7439 86.2496
105.535 7259 85.1998
105.651 6835 82.6741
105.767 6222 78.8797
105.883 5677 75.3459
105.999 5176 71.9444
106.115 0 1
106.231 0 1
106.347 0 1
106.463 0 1
106.579 0 1
106.694 0 1
106.81 0 1
106.926 0 1
107.041 0 1
107.157 0 1
109.576 0 1
109.692 0 1
109.807 0 1
109.923 0 1
110.039 0 1
110.155 0 1
110.27 0 1
110.386 0 1
110.502 0 1
110.618 5474 73.9865
110.735 6015 77.5564
110.851 6141 78.3645
110.967 6525 80.7775
111.083 6892 83.0181
111.199 7532 86.7871
111.316 7973 89.2917
111.432 8146 90.2552
111.549 8473 92.0489
111.665 8511 92.2551
111.782 8386 91.5751
111.898 8573 92.5905
112.015 8386 91.5751
112.132 8368 91.4768
112.248 8504 92.2171
112.365 8371 91.4932
112.482 8053 89.7385
112.599 7081 84.1487
112.716 6329 79.555
112.832 5497 74.1418
112.949 5022 70.8661
113.066 4499 67.0746
113.183 4450 66.7083
113.3 4551 67.4611
113.417 4868 69.7711
113.534 5856 76.5245
113.652 6981 83.5524
113.769 7589 87.1149
113.886 7972 89.2861
114.003 8519 92.2984
114.12 8772 93.659
114.238 8320 91.214
114.355 8029 89.6047
114.472 7851 88.6059
114.589 8186 90.4765
114.707 8116 90.0888
114.824 8583 92.6445
114.942 8306 91.1373
115.059 8571 92.5797
115.176 8486 92.1195
115.294 8384 91.5642
115.411 8329 91.2634
115.529 7958 89.2076
115.646 7768 88.1363
115.764 7833 88.5042
115.881 7767 88.1306
115.999 7500 86.6025
116.116 7318 85.5453
116.234 6527 80.7899
116.351 5756 75.8683
116.469 4950 70.3562
116.586 4589 67.7422
116.704 4280 65.4217
116.821 4303 65.5973
116.939 4373 66.1287
117.056 4864 69.7424
117.174 5972 77.2787
117.291 6579 81.111
117.409 7403 86.0407
117.526 7654 87.4871
117.644 7752 88.0454
117.761 7813 88.3912
117.879 7559 86.9425
117.996 7407 86.0639
118.114 7164 84.6404
118.231 7421 86.1452
118.349 7745 88.0057
118.466 7650 87.4643
118.584 7616 87.2697
118.701 7822 88.4421
118.819 7653 87.4814
118.936 7596 87.155
119.053 7404 86.0465
119.171 7256 85.1822
119.288 6977 83.5284
119.405 6992 83.6182
119.523 7059 84.0179
119.64 6782 82.3529
119.757 6676 81.7068
119.875 6202 78.7528
119.992 5313 72.8903
120.109 4800 69.282
120.226 4437 66.6108
120.343 4159 64.4903
120.46 4119 64.1794
120.578 4242 65.1306
120.695 4165 64.5368
120.812 4985 70.6045
120.929 5413 73.5731
121.046 6094 78.0641
121.163 6182 78.6257
121.279 6300 79.3725
121.396 6271 79.1896
121.513 6168 78.5366
121.63 6026 77.6273
121.747 5619 74.96
121.863 5644 75.1266
121.98 5901 76.818
122.097 5845 76.4526
122.213 5738 75.7496
122.33 5673 75.3193
122.446 5279 72.6567
122.563 5242 72.4017
122.679 4895 69.9643
122.795 4504 67.1118
122.912 4368 66.0908
123.028 4037 63.5374
123.144 3769 61.3922
123.26 3494 59.1101
123.377 0 1
123.493 0 1
123.609 0 1
123.725 0 1
123.84 0 1
123.956 0 1
124.072 0 1
124.188 0 1
124.303 0 1
124.419 0 1
126.852 0 1
126.968 0 1
127.083 0 1
127.199 0 1
127.315 0 1
127.431 0 1
127.547 0 1
127.663 0 1
127.779 0 1
127.895 0 1
128.011 0 1
128.127 0 1
128.243 0 1
128.359 6478 80.486
128.476 6638 81.4739
128.592 6865 82.8553
128.708 6892 83.0181
128.825 7025 83.8153
128.941 6536 80.8455
129.058 6181 78.6193
129.174 5684 75.3923
129.291 5199 72.1041
129.408 5038 70.9789
129.524 4778 69.1231
129.641 4591 67.7569
129.758 4674 68.3667
129.875 5140 71.6938
129.992 5771 75.9671
130.108 6500 80.6226
130.225 6827 82.6257
130.342 7022 83.7974
130.459 7065 84.0536
130.576 7255 85.1763
130.693 6938 83.2947
130.81 6965 83.4566
130.928 6960 83.4266
131.045 7247 85.1293
131.162 7424 86.1626
131.279 7554 86.9138
131.396 7328 85.6037
131.513 7431 86.2032
131.631 7250 85.1469
131.748 7154 84.5813
131.865 7051 83.9702
131.983 6976 83.5225
132.1 6847 82.7466
132.217 7029 83.8391
132.335 6886 82.9819
132.452 6773 82.2982
132.57 6442 80.2621
132.687 5716 75.6042
132.804 5608 74.8866
132.922 5181 71.9792
133.039 4914 70.0999
133.157 4769 69.0579
133.274 4852 69.6563
133.392 4879 69.8498
133.509 5412 73.5663
133.627 6034 77.6788
133.744 6190 78.6766
133.862 6672 81.6823
133.979 6946 83.3427
134.097 7005 83.6959
134.214 6724 82
134.332 6633 81.4432
134.449 6893 83.0241
134.567 6998 83.654
134.684 6985 83.5763
134.802 7171 84.6818
134.919 7238 85.0764
135.037 7178 84.7231
135.154 7001 83.672
135.272 6896 83.0422
135.389 6797 82.4439
135.507 6857 82.807
135.624 6753 82.1766
135.742 6588 81.1665
135.859 6813 82.5409
135.977 6727 82.0183
136.094 6406 80.0375
136.211 6213 78.8226
136.329 5810 76.2234
136.446 5474 73.9865
136.564 5294 72.7599
136.681 4991 70.647
136.798 4807 69.3325
136.915 4860 69.7137
137.033 4958 70.4131
137.15 5268 72.581
137.267 5812 76.2365
137.384 6019 77.5822
137.502 6275 79.2149
137.619 6407 80.0437
137.736 6495 80.5916
137.853 6297 79.3536
137.97 6443 80.2683
138.087 6291 79.3158
138.204 6561 81
138.321 6579 81.111
138.438 6420 80.1249
138.555 6532 80.8208
138.672 6370 79.8123
138.788 6275 79.2149
138.905 5923 76.961
139.022 5767 75.9408
139.139 5611 74.9066
139.255 5081 71.2811
139.372 5080 71.2741
139.488 4858 69.6994
139.605 4764 69.0217
139.721 4516 67.2012
139.838 4272 65.3605
139.954 3821 61.8142
140.071 3309 57.5239
140.187 3012 54.8817
140.303 2808 52.9906
140.419 2620 51.1859
140.535 2366 48.6415
140.652 2181 46.7012
140.768 0 1
140.884 0 1
141 0 1
141.115 0 1
141.231 0 1
141.347 0 1
141.463 0 1
141.578 0 1
141.694 0 1
144.104 0 1
144.219 0 1
144.335 0 1
144.45 0 1
144.566 0 1
144.682 0 1
144.798 0 1
144.914 0 1
145.03 0 1
145.146 3936 62.7375
145.262 4026 63.4508
145.378 4005 63.2851
145.494 4014 63.3561
145.61 3884 62.3217
145.726 3808 61.709
145.842 3926 62.6578
145.959 3943 62.7933
146.075 4136 64.3117
146.192 4254 65.2227
146.308 4311 65.6582
146.425 4296 65.5439
146.541 4646 68.1616
146.658 4421 66.4906
146.774 4499 67.0746
146.891 4548 67.4389
147.008 4663 68.2862
147.125 4674 68.3667
147.241 4806 69.3253
147.358 4920 70.1427
147.475 4846 69.6132
147.592 4852 69.6563
147.709 4839 69.5629
147.826 4748 68.9057
147.943 4668 68.3228
148.06 4512 67.1714
148.177 4430 66.5582
148.294 4669 68.3301
148.411 4557 67.5056
148.528 4622 67.9853
148.645 4553 67.4759
148.762 4532 67.3201
148.88 4403 66.3551
148.997 4244 65.146
149.114 4162 64.5136
149.231 4125 64.2262
149.349 4024 63.435
149.466 3898 62.434
149.583 3931 62.6977
149.701 4018 63.3877
149.818 3909 62.522
149.935 4146 64.3894
150.053 4314 65.681
150.17 4249 65.1844
150.287 4350 65.9545
150.405 4267 65.3223
150.522 4151 64.4283
150.64 4262 65.284
150.757 4454 66.7383
150.875 4597 67.8012
150.992 4615 67.9338
151.11 4604 67.8528
151.227 4649 68.1836
151.344 4673 68.3593
151.462 4516 67.2012
151.579 4392 66.2722
151.697 4257 65.2457
151.814 4350 65.9545
151.932 4136 64.3117
152.049 4314 65.681
152.167 4367 66.0833
152.284 4413 66.4304
152.402 4131 64.2729
152.519 4152 64.436
152.636 4041 63.5689
152.754 4050 63.6396
152.871 3934 62.7216
152.989 3839 61.9597
153.106 3684 60.696
153.223 3825 61.8466
153.341 3731 61.0819
153.458 3737 61.131
153.575 3882 62.3057
153.693 3906 62.498
153.81 4022 63.4192
153.927 3866 62.1772
154.044 3843 61.9919
154.162 3971 63.0159
154.279 4096 64
154.396 4213 64.9076
154.513 4147 64.3972
154.63 4289 65.4905
154.747 4418 66.468
154.864 4220 64.9615
154.981 4083 63.8984
155.098 3979 63.0793
155.215 4041 63.5689
155.332 4013 63.3482
155.449 3903 62.474
155.566 3879 62.2816
155.683 3847 62.0242
155.8 3880 62.2896
155.917 3738 61.1392
156.033 3682 60.6795
156.15 0 1
156.267 0 1
156.383 0 1
156.5 0 1
156.617 0 1
156.733 0 1
156.85 0 1
156.966 0 1
157.082 0 1
157.199 0 1
157.315 0 1
157.431 0 1
157.547 0 1
157.664 0 1
157.78 0 1
157.896 0 1
158.012 0 1
158.128 0 1
158.244 0 1
158.359 0 1
158.475 0 1
158.591 0 1
158.706 0 1
