
6.15755 0 1
6.2731 0 1
6.3887 0 1
6.50437 0 1
6.62009 0 1
6.73587 0 1
6.8517 0 1
6.96759 0 1
7.08353 0 1
7.19952 0 1
7.31557 0 1
7.43166 0 1
7.54781 0 1
7.664 0 1
7.78024 0 1
7.89653 0 1
8.01286 0 1
8.12924 0 1
8.24567 0 1
8.36213 0 1
8.47864 0 1
8.59519 0 1
8.71178 0 1
8.82841 0 1
8.94508 0 1
9.06179 0 1
9.17853 0 1
9.29531 0 1
9.41212 0 1
9.52897 0 1
9.64584 0 1
9.76276 0 1
9.8797 0 1
9.99667 0 1
10.1137 0 1
10.2307 0 1
10.3478 0 1
10.4648 0 1
10.5819 0 1
10.6991 0 1
10.8162 0 1
10.9334 0 1
11.0506 0 1
11.1678 0 1
11.285 0 1
11.4023 0 1
11.5196 0 1
11.6369 0 1
11.7542 0 1
11.8715 0 1
11.9888 0 1
12.1062 0 1
12.2235 0 1
12.3409 0 1
12.4582 0 1
12.5756 0 1
12.693 0 1
12.8104 0 1
12.9278 0 1
13.0452 0 1
13.1626 0 1
13.28 0 1
13.3974 0 1
13.5149 0 1
13.6323 0 1
13.7497 0 1
13.8671 0 1
13.9845 0 1
14.1019 0 1
14.2193 0 1
14.3367 0 1
14.4541 0 1
14.5714 0 1
14.6888 0 1
14.8062 0 1
14.9235 0 1
15.0408 3232 56.8507
15.1581 3449 58.7282
15.2755 3551 59.5903
15.3927 3578 59.8164
15.51 3459 58.8133
15.6273 3441 58.66
15.7445 3495 59.1185
15.8617 3453 58.7622
15.9789 3413 58.4209
16.0961 3410 58.3952
16.2132 3436 58.6174
16.3304 3355 57.9224
16.4475 3510 59.2453
16.5646 3429 58.5577
16.6816 3665 60.5392
16.7986 3504 59.1946
16.9156 3550 59.5819
17.0326 3572 59.7662
17.1496 3531 59.4222
17.2665 3539 59.4895
17.3833 3644 60.3656
17.5002 3554 59.6154
17.617 3670 60.5805
17.7338 3729 61.0655
17.8505 3581 59.8415
17.9672 3725 61.0328
18.0839 3617 60.1415
18.2005 3607 60.0583
18.3171 3626 60.2163
18.4337 3644 60.3656
18.5502 3890 62.3699
18.6666 4020 63.4035
18.7831 3963 62.9524
18.8994 3768 61.384
19.0158 3787 61.5386
19.1321 3698 60.8112
19.2483 3496 59.127
19.3645 3448 58.7197
19.4806 3379 58.1292
19.5967 3125 55.9017
19.7128 3092 55.6058
19.8288 2868 53.5537
19.9447 2453 49.5278
20.0606 0 1
20.1764 0 1
20.2922 0 1
20.4079 0 1
20.5236 0 1
20.6392 0 1
20.7548 0 1
20.8702 0 1
23.3078 0 1
23.4233 0 1
23.539 0 1
23.6547 0 1
23.7704 0 1
23.8862 0 1
24.0021 0 1
24.118 0 1
24.234 0 1
24.35 0 1
24.4661 1946 44.1135
24.5822 2280 47.7493
24.6984 2602 51.0098
24.8146 2947 54.2863
24.9309 3020 54.9545
25.0472 3216 56.7098
25.1636 3423 58.5064
25.28 3505 59.203
25.3965 3552 59.5987
25.513 3706 60.8769
25.6296 3834 61.9193
25.7462 4021 63.4114
25.8628 4141 64.3506
25.9795 4067 63.773
26.0962 4102 64.0469
26.213 4144 64.3739
26.3298 4245 65.1537
26.4466 4152 64.436
26.5635 4146 64.3894
26.6804 4100 64.0312
26.7973 4140 64.3428
26.9143 4274 65.3758
27.0313 4163 64.5213
27.1483 4455 66.7458
27.2653 4425 66.5207
27.3824 4489 67
27.4996 4470 66.8581
27.6167 4522 67.2458
27.7339 4174 64.6065
27.8511 4376 66.1513
27.9683 4226 65.0077
28.0855 4235 65.0769
28.2028 4249 65.1844
28.3201 4165 64.5368
28.4374 4087 63.9296
28.5547 4041 63.5689
28.6721 4052 63.6553
28.7894 3777 61.4573
28.9068 3835 61.9274
29.0242 3791 61.5711
29.1416 3842 61.9839
29.259 3759 61.3107
29.3764 3871 62.2174
29.4939 3950 62.849
29.6113 4094 63.9844
29.7288 4053 63.6632
29.8463 4211 64.8922
29.9638 4141 64.3506
30.0812 4120 64.1872
30.1987 4111 64.1171
30.3162 4297 65.5515
30.4337 4188 64.7148
30.5512 4297 65.5515
30.6687 4402 66.3476
30.7862 4355 65.9924
30.9037 4608 67.8823
31.0212 4606 67.8675
31.1387 4449 66.7008
31.2562 4351 65.9621
31.3737 4363 66.053
31.4912 4161 64.5058
31.6087 4314 65.681
31.7262 4350 65.9545
31.8436 4302 65.5896
31.9611 4221 64.9692
32.0785 4114 64.1405
32.1959 4023 63.4271
32.3134 3883 62.3137
32.4308 3759 61.3107
32.5482 3797 61.6198
32.6655 3759 61.3107
32.7829 3929 62.6817
32.9002 4005 63.2851
33.0176 4016 63.3719
33.1349 4054 63.671
33.2522 4144 64.3739
33.3694 4258 65.2534
33.4867 4233 65.0615
33.6039 4279 65.4141
33.7211 4275 65.3835
33.8383 4192 64.7457
33.9554 4073 63.8201
34.0725 4270 65.3452
34.1896 4466 66.8281
34.3067 4404 66.3626
34.4237 4584 67.7052
34.5407 4601 67.8307
34.6577 4557 67.5056
34.7746 4584 67.7052
34.8915 4470 66.8581
35.0084 4459 66.7757
35.1252 4405 66.3702
35.242 4378 66.1665
35.3587 4361 66.0379
35.4755 4298 65.5591
35.5921 4337 65.8559
35.7088 4230 65.0385
35.8254 4127 64.2417
35.9419 3895 62.4099
36.0584 3687 60.7207
36.1749 3513 59.2706
36.2913 3496 59.127
36.4077 3360 57.9655
36.524 3367 58.0259
36.6403 3223 56.7715
36.7565 3143 56.0625
36.8727 3256 57.0614
36.9889 3157 56.1872
37.1049 2901 53.8609
37.221 0 1
37.3369 0 1
37.4529 0 1
37.5687 0 1
37.6845 0 1
37.8003 0 1
37.916 0 1
38.0316 0 1
38.1472 0 1
40.5851 0 1
40.7008 0 1
40.8164 0 1
40.9322 0 1
41.048 0 1
41.1639 0 1
41.2798 0 1
41.3958 0 1
41.5118 0 1
41.6279 0 1
41.744 1905 43.6463
41.8602 2090 45.7165
41.9765 2485 49.8498
42.0928 2812 53.0283
42.2091 3085 55.5428
42.3255 3303 57.4717
42.4419 3471 58.9152
42.5584 3607 60.0583
42.675 3704 60.8605
42.7915 3756 61.2862
42.9081 3896 62.4179
43.0248 3978 63.0714
43.1415 4264 65.2993
43.2582 4412 66.4229
43.375 4505 67.1193
43.4918 4539 67.3721
43.6087 4572 67.6166
43.7256 4558 67.513
43.8425 4509 67.1491
43.9595 4462 66.7982
44.0765 4473 66.8805
44.1935 4404 66.3626
44.3106 4530 67.3053
44.4277 4647 68.1689
44.5448 4397 66.3099
44.6619 4184 64.6838
44.7791 4045 63.6003
44.8963 3957 62.9047
45.0136 3679 60.6548
45.1308 3540 59.4979
45.2481 3409 58.3866
45.3654 3583 59.8582
45.4827 3635 60.291
45.6001 3810 61.7252
45.7174 4042 63.5767
45.8348 4192 64.7457
45.9522 4318 65.7115
46.0697 4396 66.3023
46.1871 4429 66.5507
46.3046 4380 66.1816
46.422 4577 67.6535
46.5395 4539 67.3721
46.657 4701 68.5638
46.7745 4865 69.7496
46.892 4947 70.3349
47.0096 5063 71.1548
47.1271 5156 71.8053
47.2446 5240 72.3878
47.3622 4974 70.5266
47.4797 4870 69.7854
47.5973 4951 70.3633
47.7149 4913 70.0928
47.8324 4993 70.6612
47.95 4873 69.8069
48.0675 4838 69.5557
48.1851 4748 68.9057
48.3027 4471 66.8655
48.4202 4080 63.8749
48.5378 3780 61.4817
48.6554 3606 60.05
48.7729 3503 59.1861
48.8904 3645 60.3738
49.008 3720 60.9918
49.1255 3943 62.7933
49.243 4147 64.3972
49.3605 4581 67.6831
49.478 4677 68.3886
49.5955 4748 68.9057
49.713 4803 69.3037
49.8304 4869 69.7782
49.9479 4748 68.9057
50.0653 4838 69.5557
50.1827 4848 69.6276
50.3001 5179 71.9653
50.4175 5078 71.2601
50.5348 5444 73.7835
50.6521 5320 72.9383
50.7694 5329 73
50.8867 5307 72.8492
51.004 5235 72.3533
51.1212 5043 71.0141
51.2384 5187 72.0208
51.3556 5017 70.8308
51.4727 5154 71.7914
51.5899 5216 72.2219
51.707 4952 70.3704
51.824 4609 67.8896
51.9411 4403 66.3551
52.0581 3953 62.8729
52.175 3798 61.6279
52.2919 3657 60.4731
52.4088 3729 61.0655
52.5257 3913 62.554
52.6425 4098 64.0156
52.7593 4220 64.9615
52.876 4465 66.8207
52.9927 4612 67.9117
53.1094 4597 67.8012
53.226 4618 67.9559
53.3426 4553 67.4759
53.4591 4443 66.6558
53.5756 4363 66.053
53.692 4118 64.1716
53.8084 4132 64.2806
53.9248 4153 64.4438
54.0411 3889 62.3618
54.1573 3810 61.7252
54.2735 0 1
54.3896 0 1
54.5057 0 1
54.6217 0 1
54.7377 0 1
54.8537 0 1
54.9695 0 1
55.0853 0 1
55.2011 0 1
55.3168 0 1
55.4324 0 1
57.824 0 1
57.9396 0 1
58.0553 0 1
58.1711 0 1
58.2869 0 1
58.4028 0 1
58.5187 0 1
58.6347 0 1
58.7508 0 1
58.8669 0 1
58.983 4246 65.1613
59.0992 4828 69.4838
59.2155 5317 72.9178
59.3318 5685 75.3989
59.4482 5921 76.948
59.5646 6114 78.1921
59.681 6443 80.2683
59.7975 6374 79.8373
59.9141 6601 81.2465
60.0306 6788 82.3893
60.1473 7012 83.7377
60.2639 6851 82.7708
60.3807 6963 83.4446
60.4974 6513 80.7032
60.6142 6293 79.3284
60.731 5808 76.2102
60.8479 5164 71.861
60.9648 4708 68.6149
61.0818 4575 67.6387
61.1987 4706 68.6003
61.3158 5014 70.8096
61.4328 5394 73.4439
61.5499 6105 78.1345
61.667 6681 81.7374
61.7841 7109 84.3149
61.9013 7353 85.7496
62.0185 7411 86.0872
62.1357 7297 85.4225
62.253 7396 86
62.3702 7407 86.0639
62.4875 7604 87.2009
62.6049 7695 87.7211
62.7222 7877 88.7525
62.8396 8183 90.4599
62.9569 8040 89.666
63.0743 8152 90.2884
63.1918 8267 90.923
63.3092 7975 89.3029
63.4267 7758 88.0795
63.5441 7955 89.1908
63.6616 7743 87.9943
63.7791 7883 88.7863
63.8966 7684 87.6584
64.0142 7229 85.0235
64.1317 6696 81.8291
64.2492 6061 77.8524
64.3668 5276 72.6361
64.4843 4849 69.6348
64.6019 4560 67.5278
64.7195 4733 68.7968
64.837 5071 71.211
64.9546 5493 74.1148
65.0722 6342 79.6367
65.1898 6893 83.0241
65.3074 7372 85.8604
65.4249 7770 88.1476
65.5425 7997 89.4259
65.6601 7944 89.1291
65.7777 7916 88.9719
65.8952 7983 89.3476
66.0128 8112 90.0666
66.1304 8119 90.1055
66.2479 8295 91.0769
66.3655 8480 92.0869
66.483 8588 92.6715
66.6005 8657 93.043
66.718 8680 93.1665
66.8355 8658 93.0484
66.953 8562 92.5311
67.0705 8310 91.1592
67.1879 8202 90.5649
67.3054 8340 91.3236
67.4228 8240 90.7744
67.5402 8070 89.8332
67.6576 7702 87.761
67.7749 6980 83.5464
67.8923 6146 78.3964
68.0096 5275 72.6292
68.1269 4952 70.3704
68.2442 4766 69.0362
68.3614 4733 68.7968
68.4787 5157 71.8123
68.5958 5703 75.5182
68.713 6663 81.6272
68.8302 7403 86.0407
68.9473 8301 91.1098
69.0643 8499 92.19
69.1814 8606 92.7685
69.2984 8585 92.6553
69.4154 8415 91.7333
69.5323 7902 88.8932
69.6492 8162 90.3438
69.7661 7983 89.3476
69.8829 8122 90.1221
69.9997 8194 90.5207
70.1165 8257 90.868
70.2332 8154 90.2995
70.3499 7970 89.2749
70.4665 7512 86.6718
70.5831 7257 85.188
70.6996 6959 83.4206
70.8161 6715 81.9451
70.9326 6564 81.0185
71.049 6243 79.0127
71.1653 5896 76.7854
71.2817 5516 74.2698
71.3979 4923 70.1641
71.5141 4108 64.0937
71.6303 3199 56.5597
71.7464 2191 46.8081
71.8624 0 1
71.9784 0 1
72.0944 0 1
72.2102 0 1
72.3261 0 1
72.4418 0 1
72.5575 0 1
72.6732 0 1
75.1054 0 1
75.2209 0 1
75.3365 0 1
75.4521 0 1
75.5678 0 1
75.6835 0 1
75.7993 0 1
75.9151 0 1
76.031 0 1
76.147 6360 79.7496
76.263 6927 83.2286
76.3791 7359 85.7846
76.4952 7125 84.4097
76.6113 6923 83.2046
76.7276 6452 80.3243
76.8438 6027 77.6338
76.9601 5251 72.4638
77.0765 4901 70.0071
77.1929 4593 67.7717
77.3093 4537 67.3573
77.4258 4718 68.6877
77.5423 5286 72.7049
77.6589 6490 80.5605
77.7755 7571 87.0115
77.8921 8635 92.9247
78.0088 9167 95.7445
78.1256 9570 97.8264
78.2423 9825 99.1211
78.3591 9551 97.7292
78.4759 9359 96.7419
78.5928 9436 97.1391
78.7097 9613 98.0459
78.8266 9623 98.0969
78.9436 10303 101.504
79.0606 10126 100.628
79.1776 10216 101.074
79.2946 10564 102.781
79.4117 10533 102.63
79.5288 10461 102.279
79.6459 10536 102.645
79.7631 10099 100.494
79.8802 10171 100.851
79.9974 10608 102.995
80.1147 10606 102.985
80.2319 10329 101.632
80.3491 9582 97.8877
80.4664 8453 91.9402
80.5837 7414 86.1046
80.701 6232 78.943
80.8183 5367 73.2598
80.9357 5273 72.6154
81.053 5470 73.9594
81.1704 5691 75.4387
81.2877 7035 83.8749
81.4051 8417 91.7442
81.5225 10132 100.658
81.6399 10718 103.528
81.7573 11449 107
81.8747 11685 108.097
81.9922 11654 107.954
82.1096 11455 107.028
82.227 11222 105.934
82.3444 11052 105.128
82.4619 11359 106.579
82.5793 11797 108.614
82.6967 12140 110.182
82.8142 12134 110.154
82.9316 12216 110.526
83.049 12424 111.463
83.1664 12464 111.642
83.2838 12258 110.716
83.4012 12187 110.395
83.5186 12053 109.786
83.636 12152 110.236
83.7534 11907 109.119
83.8708 11510 107.285
83.9881 10514 102.538
84.1055 9642 98.1937
84.2228 8526 92.3363
84.3401 7490 86.5448
84.4575 6308 79.4229
84.5747 5716 75.6042
84.692 5894 76.7724
84.8093 6612 81.3142
84.9265 7984 89.3532
85.0437 9680 98.387
85.1609 11159 105.636
85.2781 12167 110.304
85.3952 13159 114.713
85.5123 13522 116.284
85.6294 13375 115.65
85.7465 12935 113.732
85.8636 12989 113.969
85.9806 12846 113.34
86.0976 13407 115.789
86.2145 13703 117.06
86.3315 13988 118.271
86.4484 13797 117.461
86.5652 14061 118.579
86.682 13804 117.49
86.7988 13376 115.655
86.9156 13263 115.165
87.0323 12621 112.343
87.149 12675 112.583
87.2657 12466 111.651
87.3823 12553 112.04
87.4988 11711 108.217
87.6154 10578 102.849
87.7318 9197 95.901
87.8483 7853 88.6172
87.9647 6376 79.8499
88.081 5316 72.9109
88.1973 4902 70.0143
88.3136 4833 69.5198
88.4298 5390 73.4166
88.546 6225 78.8987
88.6621 7465 86.4002
88.7781 8353 91.3947
88.8942 0 1
89.0101 0 1
89.126 0 1
89.2419 0 1
89.3577 0 1
89.4734 0 1
89.5891 0 1
89.7047 0 1
89.8203 0 1
89.9358 0 1
92.3269 0 1
92.4424 0 1
92.558 0 1
92.6736 0 1
92.7893 0 1
92.905 0 1
93.0208 0 1
93.1366 0 1
93.2525 0 1
93.3685 0 1
93.4845 0 1
93.6005 5700 75.4983
93.7167 6097 78.0833
93.8328 6964 83.4506
93.949 8605 92.7631
94.0653 10574 102.83
94.1816 12567 112.103
94.2979 13936 118.051
94.4143 14778 121.565
94.5307 15638 125.052
94.6472 16340 127.828
94.7637 16250 127.475
94.8803 16261 127.519
94.9969 16269 127.55
95.1135 16320 127.75
95.2302 16700 129.228
95.3469 16998 130.376
95.4637 17355 131.738
95.5805 17251 131.343
95.6973 17203 131.16
95.8142 17110 130.805
95.9311 17025 130.48
96.048 16838 129.761
96.1649 16620 128.919
96.2819 16567 128.713
96.3989 16262 127.523
96.516 15765 125.559
96.633 15081 122.805
96.7501 13472 116.069
96.8673 12048 109.763
96.9844 10591 102.913
97.1016 9168 95.7497
97.2188 8308 91.1482
97.336 7896 88.8594
97.4532 8116 90.0888
97.5704 9389 96.8969
97.6877 11274 106.179
97.805 13299 115.321
97.9223 15121 122.967
98.0396 16500 128.452
98.1569 17195 131.13
98.2743 17537 132.427
98.3916 17456 132.121
98.509 17194 131.126
98.6264 17092 130.736
98.7438 17101 130.771
98.8612 17483 132.223
98.9786 17745 133.21
99.096 18263 135.141
99.2134 18238 135.048
99.3308 18107 134.562
99.4482 18352 135.47
99.5656 17867 133.667
99.6831 17906 133.813
99.8005 17833 133.54
99.9179 17609 132.699
100.035 17305 131.548
100.153 16859 129.842
100.27 15307 123.721
100.388 13900 117.898
100.505 12204 110.472
100.622 10747 103.668
100.74 9395 96.9278
100.857 8660 93.0591
100.975 8761 93.6002
101.092 9436 97.1391
101.209 10977 104.771
101.327 13207 114.922
101.444 15673 125.192
101.561 17021 130.465
101.679 18153 134.733
101.796 18478 135.934
101.913 18466 135.89
102.03 17765 133.285
102.148 17629 132.774
102.265 17944 133.955
102.382 17729 133.15
102.499 18288 135.233
102.616 18478 135.934
102.733 18710 136.785
102.851 19039 137.982
102.968 18912 137.521
103.085 18682 136.682
103.202 18463 135.879
103.319 17917 133.854
103.436 18009 134.198
103.552 17976 134.075
103.669 17294 131.507
103.786 16667 129.101
103.903 15048 122.67
104.02 13502 116.198
104.137 11624 107.815
104.253 10173 100.861
104.37 9295 96.4106
104.487 9099 95.3887
104.603 9164 95.7288
104.72 10020 100.1
104.836 11453 107.019
104.953 12793 113.106
105.069 13749 117.256
105.186 14448 120.2
105.302 14995 122.454
105.418 14726 121.351
105.535 14008 118.355
105.651 13162 114.726
105.767 12179 110.359
105.883 10958 104.68
105.999 10284 101.41
106.115 0 1
106.231 0 1
106.347 0 1
106.463 0 1
106.579 0 1
106.694 0 1
106.81 0 1
106.926 0 1
107.041 0 1
107.157 0 1
109.576 0 1
109.692 0 1
109.807 0 1
109.923 0 1
110.039 0 1
110.155 0 1
110.27 0 1
110.386 0 1
110.502 0 1
110.618 10292 101.449
110.735 11158 105.631
110.851 11548 107.462
110.967 12335 111.063
111.083 13254 115.126
111.199 14100 118.743
111.316 15042 122.646
111.432 15341 123.859
111.549 15824 125.793
111.665 16191 127.244
111.782 16292 127.64
111.898 16425 128.16
112.015 16086 126.831
112.132 15949 126.289
112.248 15890 126.056
112.365 15887 126.044
112.482 15356 123.919
112.599 13754 117.277
112.716 12159 110.268
112.832 10300 101.489
112.949 9360 96.7471
113.066 8524 92.3255
113.183 8150 90.2774
113.3 8307 91.1427
113.417 9086 95.3205
113.534 11051 105.124
113.652 13008 114.053
113.769 14399 119.996
113.886 15126 122.988
114.003 15956 126.317
114.12 16112 126.933
114.238 15619 124.976
114.355 15445 124.278
114.472 14901 122.07
114.589 14796 121.639
114.707 15297 123.681
114.824 15507 124.527
114.942 15847 125.885
115.059 15916 126.159
115.176 15966 126.357
115.294 15577 124.808
115.411 15257 123.519
115.529 15165 123.146
115.646 14618 120.905
115.764 14635 120.975
115.881 14530 120.54
115.999 14396 119.983
116.116 13640 116.79
116.234 12352 111.14
116.351 10875 104.283
116.469 9549 97.719
116.586 8618 92.8332
116.704 8063 89.7942
116.821 7889 88.82
116.939 8048 89.7106
117.056 9014 94.9421
117.174 10600 102.956
117.291 12449 111.575
117.409 13363 115.598
117.526 14178 119.071
117.644 14301 119.587
117.761 14271 119.461
117.879 14066 118.6
117.996 13390 115.715
118.114 13273 115.209
118.231 13484 116.121
118.349 14138 118.903
118.466 13949 118.106
118.584 14348 119.783
118.701 14049 118.528
118.819 14195 119.143
118.936 14123 118.84
119.053 13631 116.752
119.171 13545 116.383
119.288 13129 114.582
119.405 12632 112.392
119.523 12933 113.723
119.64 12683 112.619
119.757 12421 111.45
119.875 11221 105.929
119.992 9793 98.9596
120.109 8792 93.7657
120.226 8218 90.6532
120.343 7688 87.6812
120.46 7354 85.7555
120.578 7534 86.7986
120.695 7891 88.8313
120.812 8699 93.2684
120.929 10131 100.653
121.046 10878 104.298
121.163 11230 105.972
121.279 11433 106.925
121.396 11844 108.83
121.513 11400 106.771
121.63 10979 104.781
121.747 10498 102.46
121.863 10504 102.489
121.98 10484 102.391
122.097 10538 102.655
122.213 10412 102.039
122.33 10343 101.701
122.446 10073 100.364
122.563 9596 97.9592
122.679 9230 96.0729
122.795 8421 91.766
122.912 7842 88.5551
123.028 7500 86.6025
123.144 7171 84.6818
123.26 6409 80.0562
123.377 0 1
123.493 0 1
123.609 0 1
123.725 0 1
123.84 0 1
123.956 0 1
124.072 0 1
124.188 0 1
124.303 0 1
124.419 0 1
126.852 0 1
126.968 0 1
127.083 0 1
127.199 0 1
127.315 0 1
127.431 0 1
127.547 0 1
127.663 0 1
127.779 0 1
127.895 0 1
128.011 0 1
128.127 0 1
128.243 0 1
128.359 11769 108.485
128.476 12174 110.336
128.592 11817 108.706
128.708 12270 110.77
128.825 12274 110.788
128.941 11903 109.101
129.058 11148 105.584
129.174 10123 100.613
129.291 9292 96.395
129.408 8968 94.6995
129.524 8540 92.4121
129.641 8482 92.0978
129.758 8695 93.247
129.875 9040 95.0789
129.992 10073 100.364
130.108 11092 105.319
130.225 12014 109.608
130.342 12599 112.245
130.459 12741 112.876
130.576 12709 112.734
130.693 12377 111.252
130.81 12417 111.432
130.928 12570 112.116
131.045 12758 112.951
131.162 13189 114.843
131.279 13427 115.875
131.396 13215 114.957
131.513 13230 115.022
131.631 13116 114.525
131.748 12736 112.854
131.865 12455 111.602
131.983 12277 110.802
132.1 12246 110.662
132.217 12099 109.995
132.335 12072 109.873
132.452 11860 108.904
132.57 11259 106.108
132.687 10366 101.814
132.804 9803 99.0101
132.922 9109 95.4411
133.039 8671 93.1182
133.157 8474 92.0543
133.274 8523 92.3201
133.392 8852 94.0851
133.509 9799 98.9899
133.627 10283 101.405
133.744 11135 105.523
133.862 11839 108.807
133.979 12170 110.318
134.097 12206 110.481
134.214 11967 109.394
134.332 11889 109.037
134.449 11949 109.311
134.567 12158 110.263
134.684 12472 111.678
134.802 12618 112.33
134.919 12622 112.348
135.037 12628 112.374
135.154 12499 111.799
135.272 12346 111.113
135.389 12125 110.114
135.507 11967 109.394
135.624 11633 107.856
135.742 11667 108.014
135.859 11734 108.324
135.977 11604 107.722
136.094 11186 105.764
136.211 10950 104.642
136.329 10036 100.18
136.446 9675 98.3616
136.564 9382 96.8607
136.681 8846 94.0532
136.798 8728 93.4238
136.915 8549 92.4608
137.033 8748 93.5307
137.15 9391 96.9072
137.267 9905 99.5239
137.384 10470 102.323
137.502 11088 105.3
137.619 11185 105.759
137.736 11621 107.801
137.853 10857 104.197
137.97 11054 105.138
138.087 10993 104.848
138.204 11212 105.887
138.321 11568 107.555
138.438 11530 107.378
138.555 11648 107.926
138.672 11278 106.198
138.788 10840 104.115
138.905 10444 102.196
139.022 10132 100.658
139.139 9782 98.904
139.255 9442 97.17
139.372 8899 94.3345
139.488 8632 92.9086
139.605 8321 91.2195
139.721 7823 88.4477
139.838 7401 86.0291
139.954 6681 81.7374
140.071 5966 77.2399
140.187 5370 73.2803
140.303 5107 71.4633
140.419 4557 67.5056
140.535 4216 64.9307
140.652 4045 63.6003
140.768 0 1
140.884 0 1
141 0 1
141.115 0 1
141.231 0 1
141.347 0 1
141.463 0 1
141.578 0 1
141.694 0 1
144.104 0 1
144.219 0 1
144.335 0 1
144.45 0 1
144.566 0 1
144.682 0 1
144.798 0 1
144.914 0 1
145.03 0 1
145.146 6653 81.5659
145.262 6757 82.201
145.378 6876 82.9216
145.494 6625 81.3941
145.61 6618 81.3511
145.726 6465 80.4052
145.842 6624 81.388
145.959 6780 82.3408
146.075 7110 84.3208
146.192 7250 85.1469
146.308 7393 85.9826
146.425 7688 87.6812
146.541 7741 87.983
146.658 7626 87.327
146.774 7693 87.7097
146.891 7633 87.367
147.008 7870 88.713
147.125 7831 88.4929
147.241 8200 90.5539
147.358 8450 91.9239
147.475 8220 90.6642
147.592 8284 91.0165
147.709 7999 89.4371
147.826 8146 90.2552
147.943 7820 88.4308
148.06 7625 87.3212
148.177 7646 87.4414
148.294 7564 86.9713
148.411 7548 86.8792
148.528 7611 87.241
148.645 7688 87.6812
148.762 7469 86.4234
148.88 7319 85.5512
148.997 7435 86.2264
149.114 6981 83.5524
149.231 6843 82.7224
149.349 6901 83.0723
149.466 6548 80.9197
149.583 6570 81.0555
149.701 6695 81.823
149.818 6723 81.9939
149.935 7029 83.8391
150.053 7163 84.6345
150.17 7300 85.44
150.287 7281 85.3288
150.405 7394 85.9884
150.522 7210 84.9117
150.64 7168 84.664
150.757 7571 87.0115
150.875 7773 88.1646
150.992 7828 88.476
151.11 7780 88.2043
151.227 7755 88.0625
151.344 7553 86.908
151.462 7665 87.55
151.579 7397 86.0058
151.697 7252 85.1587
151.814 7157 84.5991
151.932 6981 83.5524
152.049 7330 85.6154
152.167 7431 86.2032
152.284 6990 83.6062
152.402 7093 84.22
152.519 6921 83.1925
152.636 6750 82.1584
152.754 6595 81.2096
152.871 6484 80.5233
152.989 6305 79.404
153.106 6303 79.3914
153.223 6145 78.3901
153.341 6400 80
153.458 6507 80.666
153.575 6566 81.0309
153.693 6679 81.7251
153.81 6768 82.2679
153.927 6808 82.5106
154.044 6569 81.0494
154.162 6508 80.6722
154.279 6751 82.1645
154.396 6868 82.8734
154.513 7041 83.9107
154.63 7319 85.5512
154.747 7134 84.463
154.864 7038 83.8928
154.981 6902 83.0783
155.098 6872 82.8975
155.215 6741 82.1036
155.332 6561 81
155.449 6314 79.4607
155.566 6429 80.181
155.683 6506 80.6598
155.8 6271 79.1896
155.917 6274 79.2086
156.033 6093 78.0577
156.15 0 1
156.267 0 1
156.383 0 1
156.5 0 1
156.617 0 1
156.733 0 1
156.85 0 1
156.966 0 1
157.082 0 1
157.199 0 1
157.315 0 1
157.431 0 1
157.547 0 1
157.664 0 1
157.78 0 1
157.896 0 1
158.012 0 1
158.128 0 1
158.244 0 1
158.359 0 1
158.475 0 1
158.591 0 1
158.706 0 1
