
6.15755 0 1
6.2731 0 1
6.3887 0 1
6.50437 0 1
6.62009 0 1
6.73587 0 1
6.8517 0 1
6.96759 0 1
7.08353 0 1
7.19952 0 1
7.31557 0 1
7.43166 0 1
7.54781 0 1
7.664 0 1
7.78024 0 1
7.89653 0 1
8.01286 0 1
8.12924 0 1
8.24567 0 1
8.36213 0 1
8.47864 0 1
8.59519 0 1
8.71178 0 1
8.82841 0 1
8.94508 0 1
9.06179 0 1
9.17853 0 1
9.29531 0 1
9.41212 0 1
9.52897 0 1
9.64584 0 1
9.76276 0 1
9.8797 0 1
9.99667 0 1
10.1137 0 1
10.2307 0 1
10.3478 0 1
10.4648 0 1
10.5819 0 1
10.6991 0 1
10.8162 0 1
10.9334 0 1
11.0506 0 1
11.1678 0 1
11.285 0 1
11.4023 0 1
11.5196 0 1
11.6369 0 1
11.7542 0 1
11.8715 0 1
11.9888 0 1
12.1062 0 1
12.2235 0 1
12.3409 0 1
12.4582 0 1
12.5756 0 1
12.693 0 1
12.8104 0 1
12.9278 0 1
13.0452 0 1
13.1626 0 1
13.28 0 1
13.3974 0 1
13.5149 0 1
13.6323 0 1
13.7497 0 1
13.8671 0 1
13.9845 0 1
14.1019 0 1
14.2193 0 1
14.3367 0 1
14.4541 0 1
14.5714 0 1
14.6888 0 1
14.8062 0 1
14.9235 0 1
15.0408 0 0
15.1581 0 0
15.2755 0 0
15.3927 0 0
15.51 0 0
15.6273 0 0
15.7445 0 0
15.8617 0 0
15.9789 0 0
16.0961 0 0
16.2132 0 0
16.3304 0 0
16.4475 0 0
16.5646 0 0
16.6816 0 0
16.7986 0 0
16.9156 0 0
17.0326 0 0
17.1496 0 0
17.2665 0 0
17.3833 0 0
17.5002 0 0
17.617 0 0
17.7338 0 0
17.8505 0 0
17.9672 0 0
18.0839 0 0
18.2005 0 0
18.3171 0 0
18.4337 0 0
18.5502 0 0
18.6666 0 0
18.7831 0 0
18.8994 0 0
19.0158 0 0
19.1321 0 0
19.2483 0 0
19.3645 0 0
19.4806 0 0
19.5967 0 0
19.7128 0 0
19.8288 0 0
19.9447 0 0
20.0606 0 1
20.1764 0 1
20.2922 0 1
20.4079 0 1
20.5236 0 1
20.6392 0 1
20.7548 0 1
20.8702 0 1
23.3078 0 1
23.4233 0 1
23.539 0 1
23.6547 0 1
23.7704 0 1
23.8862 0 1
24.0021 0 1
24.118 0 1
24.234 0 1
24.35 0 1
24.4661 1298 36.0278
24.5822 1442 37.9737
24.6984 1549 39.3573
24.8146 1708 41.328
24.9309 2030 45.0555
25.0472 2320 48.1664
25.1636 2497 49.97
25.28 2637 51.3517
25.3965 2622 51.2055
25.513 2715 52.1057
25.6296 2703 51.9904
25.7462 2739 52.3355
25.8628 2646 51.4393
25.9795 2714 52.0961
26.0962 2780 52.7257
26.213 2846 53.3479
26.3298 2813 53.0377
26.4466 2788 52.8015
26.5635 2770 52.6308
26.6804 2769 52.6213
26.7973 2764 52.5738
26.9143 2649 51.4684
27.0313 2584 50.8331
27.1483 2476 49.7594
27.2653 2553 50.5272
27.3824 2511 50.1099
27.4996 2405 49.0408
27.6167 2175 46.6369
27.7339 2287 47.8226
27.8511 2424 49.2341
27.9683 2568 50.6754
28.0855 2508 50.0799
28.2028 2458 49.5782
28.3201 2588 50.8724
28.4374 2638 51.3615
28.5547 2489 49.8899
28.6721 2518 50.1797
28.7894 2597 50.9608
28.9068 2611 51.0979
29.0242 2642 51.4004
29.1416 2686 51.8266
29.259 2649 51.4684
29.3764 2593 50.9215
29.4939 2517 50.1697
29.6113 2523 50.2295
29.7288 2379 48.775
29.8463 2457 49.5681
29.9638 2475 49.7494
30.0812 2457 49.5681
30.1987 2416 49.1528
30.3162 2580 50.7937
30.4337 2594 50.9313
30.5512 2563 50.6261
30.6687 2574 50.7346
30.7862 2595 50.9411
30.9037 2396 48.949
31.0212 2258 47.5184
31.1387 2386 48.8467
31.2562 2357 48.5489
31.3737 2423 49.224
31.4912 2567 50.6656
31.6087 2647 51.449
31.7262 2646 51.4393
31.8436 2612 51.1077
31.9611 2558 50.5767
32.0785 2527 50.2693
32.1959 2625 51.2348
32.3134 2434 49.3356
32.4308 2472 49.7192
32.5482 2412 49.1121
32.6655 2387 48.8569
32.7829 2316 48.1248
32.9002 2275 47.697
33.0176 2306 48.0208
33.1349 2292 47.8748
33.2522 2265 47.592
33.3694 2293 47.8853
33.4867 2254 47.4763
33.6039 2286 47.8121
33.7211 2304 48
33.8383 2389 48.8774
33.9554 2414 49.1325
34.0725 2416 49.1528
34.1896 2465 49.6488
34.3067 2501 50.01
34.4237 2408 49.0714
34.5407 2381 48.7955
34.6577 2318 48.1456
34.7746 2350 48.4768
34.8915 2309 48.0521
35.0084 2382 48.8057
35.1252 2486 49.8598
35.242 2574 50.7346
35.3587 2608 51.0686
35.4755 2491 49.9099
35.5921 2423 49.224
35.7088 2513 50.1298
35.8254 2302 47.9792
35.9419 2303 47.9896
36.0584 2208 46.9894
36.1749 2090 45.7165
36.2913 2018 44.9222
36.4077 2097 45.793
36.524 1970 44.3847
36.6403 1729 41.5812
36.7565 1522 39.0128
36.8727 1642 40.5216
36.9889 1519 38.9744
37.1049 1398 37.3898
37.221 0 1
37.3369 0 1
37.4529 0 1
37.5687 0 1
37.6845 0 1
37.8003 0 1
37.916 0 1
38.0316 0 1
38.1472 0 1
40.5851 0 1
40.7008 0 1
40.8164 0 1
40.9322 0 1
41.048 0 1
41.1639 0 1
41.2798 0 1
41.3958 0 1
41.5118 0 1
41.6279 0 1
41.744 1848 42.9884
41.8602 2460 49.5984
41.9765 2982 54.6077
42.0928 3205 56.6127
42.2091 3320 57.6194
42.3255 3320 57.6194
42.4419 3361 57.9741
42.5584 3364 58
42.675 3424 58.515
42.7915 3507 59.2199
42.9081 3531 59.4222
43.0248 3587 59.8916
43.1415 3623 60.1914
43.2582 3485 59.0339
43.375 3121 55.8659
43.4918 3278 57.2538
43.6087 3350 57.8792
43.7256 3305 57.4891
43.8425 3438 58.6345
43.9595 3387 58.1979
44.0765 3360 57.9655
44.1935 3376 58.1034
44.3106 3419 58.4722
44.4277 3248 56.9912
44.5448 3036 55.0999
44.6619 2978 54.5711
44.7791 2837 53.2635
44.8963 2652 51.4976
45.0136 2523 50.2295
45.1308 2482 49.8197
45.2481 2301 47.9687
45.3654 2233 47.2546
45.4827 2213 47.0425
45.6001 2056 45.3431
45.7174 2075 45.5522
45.8348 2002 44.7437
45.9522 2052 45.299
46.0697 2039 45.1553
46.1871 2050 45.2769
46.3046 2119 46.0326
46.422 2246 47.392
46.5395 2183 46.7226
46.657 2180 46.6905
46.7745 2143 46.2925
46.892 2002 44.7437
47.0096 1955 44.2154
47.1271 2025 45
47.2446 2061 45.3982
47.3622 2136 46.2169
47.4797 2050 45.2769
47.5973 2125 46.0977
47.7149 2175 46.6369
47.8324 2126 46.1086
47.95 2097 45.793
48.0675 2065 45.4423
48.1851 2107 45.9021
48.3027 2087 45.6837
48.4202 2016 44.8999
48.5378 1977 44.4635
48.6554 1941 44.0568
48.7729 2006 44.7884
48.8904 1817 42.6263
49.008 1807 42.5088
49.1255 1821 42.6732
49.243 1864 43.1741
49.3605 1873 43.2782
49.478 1912 43.7264
49.5955 1963 44.3058
49.713 2029 45.0444
49.8304 2016 44.8999
49.9479 1999 44.7102
50.0653 2049 45.2659
50.1827 1989 44.5982
50.3001 1925 43.8748
50.4175 1643 40.5339
50.5348 1624 40.2989
50.6521 1808 42.5206
50.7694 1883 43.3935
50.8867 2045 45.2217
51.004 2123 46.076
51.1212 2125 46.0977
51.2384 2157 46.4435
51.3556 2068 45.4753
51.4727 2097 45.793
51.5899 2060 45.3872
51.707 2060 45.3872
51.824 1975 44.441
51.9411 2070 45.4973
52.0581 2050 45.2769
52.175 1944 44.0908
52.2919 1962 44.2945
52.4088 1937 44.0114
52.5257 1838 42.8719
52.6425 1831 42.7902
52.7593 1854 43.0581
52.876 1811 42.5558
52.9927 1838 42.8719
53.1094 1898 43.566
53.226 1885 43.4166
53.3426 1910 43.7035
53.4591 1935 43.9886
53.5756 1604 40.05
53.692 1491 38.6135
53.8084 1389 37.2693
53.9248 1147 33.8674
54.0411 1014 31.8434
54.1573 983 31.3528
54.2735 0 1
54.3896 0 1
54.5057 0 1
54.6217 0 1
54.7377 0 1
54.8537 0 1
54.9695 0 1
55.0853 0 1
55.2011 0 1
55.3168 0 1
55.4324 0 1
57.824 0 1
57.9396 0 1
58.0553 0 1
58.1711 0 1
58.2869 0 1
58.4028 0 1
58.5187 0 1
58.6347 0 1
58.7508 0 1
58.8669 0 1
58.983 1717 41.4367
59.0992 1692 41.1339
59.2155 1717 41.4367
59.3318 1830 42.7785
59.4482 2063 45.4203
59.5646 2247 47.4025
59.681 2441 49.4065
59.7975 2437 49.366
59.9141 2466 49.6588
60.0306 2441 49.4065
60.1473 2465 49.6488
60.2639 2444 49.4368
60.3807 2422 49.2138
60.4974 2486 49.8598
60.6142 2479 49.7896
60.731 2523 50.2295
60.8479 2485 49.8498
60.9648 2596 50.951
61.0818 2492 49.9199
61.1987 2396 48.949
61.3158 2455 49.548
61.4328 2421 49.2037
61.5499 2293 47.8853
61.667 2294 47.8957
61.7841 2398 48.9694
61.9013 2367 48.6518
62.0185 2419 49.1833
62.1357 2343 48.4045
62.253 2417 49.163
62.3702 2414 49.1325
62.4875 2278 47.7284
62.6049 2210 47.0106
62.7222 2199 46.8935
62.8396 2222 47.1381
62.9569 2412 49.1121
63.0743 2494 49.94
63.1918 2549 50.4876
63.3092 2523 50.2295
63.4267 2534 50.3389
63.5441 2495 49.95
63.6616 2470 49.6991
63.7791 2500 50
63.8966 2505 50.05
64.0142 2569 50.6853
64.1317 2444 49.4368
64.2492 2477 49.7695
64.3668 2497 49.97
64.4843 2508 50.0799
64.6019 2465 49.6488
64.7195 2393 48.9183
64.837 2417 49.163
64.9546 2367 48.6518
65.0722 2237 47.2969
65.1898 2423 49.224
65.3074 2270 47.6445
65.4249 2282 47.7703
65.5425 2339 48.3632
65.6601 2310 48.0625
65.7777 2359 48.5695
65.8952 2441 49.4065
66.0128 2313 48.0937
66.1304 1999 44.7102
66.2479 1948 44.1362
66.3655 1952 44.1814
66.483 2195 46.8508
66.6005 2466 49.6588
66.718 2513 50.1298
66.8355 2525 50.2494
66.953 2443 49.4267
67.0705 2499 49.99
67.1879 2507 50.07
67.3054 2458 49.5782
67.4228 2488 49.8799
67.5402 2456 49.558
67.6576 2350 48.4768
67.7749 2414 49.1325
67.8923 2416 49.1528
68.0096 2494 49.94
68.1269 2407 49.0612
68.2442 2335 48.3218
68.3614 2336 48.3322
68.4787 2249 47.4236
68.5958 2287 47.8226
68.713 2222 47.1381
68.8302 2152 46.3897
68.9473 2220 47.1169
69.0643 2315 48.1144
69.1814 2185 46.744
69.2984 2293 47.8853
69.4154 2328 48.2494
69.5323 2317 48.1352
69.6492 2195 46.8508
69.7661 2018 44.9222
69.8829 1776 42.1426
69.9997 1917 43.7836
70.1165 2085 45.6618
70.2332 2135 46.2061
70.3499 2009 44.8219
70.4665 1838 42.8719
70.5831 1672 40.8901
70.6996 1626 40.3237
70.8161 1546 39.3192
70.9326 1541 39.2556
71.049 1444 38
71.1653 1345 36.6742
71.2817 1358 36.8511
71.3979 1272 35.6651
71.5141 1249 35.3412
71.6303 1229 35.0571
71.7464 1072 32.7414
71.8624 0 1
71.9784 0 1
72.0944 0 1
72.2102 0 1
72.3261 0 1
72.4418 0 1
72.5575 0 1
72.6732 0 1
75.1054 0 1
75.2209 0 1
75.3365 0 1
75.4521 0 1
75.5678 0 1
75.6835 0 1
75.7993 0 1
75.9151 0 1
76.031 0 1
76.147 1961 44.2832
76.263 2083 45.6399
76.3791 2066 45.4533
76.4952 2218 47.0956
76.6113 2079 45.5961
76.7276 2187 46.7654
76.8438 2324 48.2079
76.9601 2162 46.4973
77.0765 2215 47.0638
77.1929 2282 47.7703
77.3093 2251 47.4447
77.4258 2223 47.1487
77.5423 2246 47.392
77.6589 2246 47.392
77.7755 2108 45.913
77.8921 2075 45.5522
78.0088 2112 45.9565
78.1256 2221 47.1275
78.2423 2246 47.392
78.3591 2270 47.6445
78.4759 2235 47.2758
78.5928 2192 46.8188
78.7097 1925 43.8748
78.8266 1723 41.509
78.9436 1449 38.0657
79.0606 1575 39.6863
79.1776 1837 42.8602
79.2946 2180 46.6905
79.4117 2262 47.5605
79.5288 2394 48.9285
79.6459 2288 47.833
79.7631 2356 48.5386
79.8802 2365 48.6313
79.9974 2373 48.7134
80.1147 2264 47.5815
80.2319 2315 48.1144
80.3491 2250 47.4342
80.4664 2291 47.8644
80.5837 2442 49.4166
80.701 2411 49.1019
80.8183 2393 48.9183
80.9357 2333 48.3011
81.053 2351 48.4871
81.1704 2483 49.8297
81.2877 2291 47.8644
81.4051 2265 47.592
81.5225 2291 47.8644
81.6399 2284 47.7912
81.7573 2386 48.8467
81.8747 2576 50.7543
81.9922 2663 51.6043
82.1096 2673 51.7011
82.227 2748 52.4214
82.3444 2556 50.5569
82.4619 2330 48.2701
82.5793 2057 45.3542
82.6967 2225 47.1699
82.8142 2720 52.1536
82.9316 3207 56.6304
83.049 3516 59.2959
83.1664 3730 61.0737
83.2838 3845 62.0081
83.4012 3868 62.1932
83.5186 4043 63.5846
83.636 3954 62.8808
83.7534 4046 63.6082
83.8708 4258 65.2534
83.9881 4354 65.9848
84.1055 4371 66.1135
84.2228 4251 65.1997
84.3401 4364 66.0606
84.4575 4345 65.9166
84.5747 4497 67.0597
84.692 4424 66.5132
84.8093 4524 67.2607
84.9265 4156 64.467
85.0437 4069 63.7887
85.1609 4250 65.192
85.2781 4212 64.8999
85.3952 4265 65.307
85.5123 4090 63.9531
85.6294 4242 65.1306
85.7465 4177 64.6297
85.8636 3740 61.1555
85.9806 3241 56.9298
86.0976 2665 51.6236
86.2145 2663 51.6043
86.3315 3080 55.4977
86.4484 3776 61.4492
86.5652 3964 62.9603
86.682 4100 64.0312
86.7988 4098 64.0156
86.9156 4047 63.616
87.0323 4187 64.707
87.149 4178 64.6375
87.2657 4021 63.4114
87.3823 4160 64.4981
87.4988 3999 63.2376
87.6154 3608 60.0666
87.7318 3289 57.3498
87.8483 3029 55.0364
87.9647 3051 55.2359
88.081 2984 54.626
88.1973 2937 54.1941
88.3136 2782 52.7447
88.4298 2745 52.3927
88.546 2552 50.5173
88.6621 2432 49.3153
88.7781 2374 48.7237
88.8942 0 1
89.0101 0 1
89.126 0 1
89.2419 0 1
89.3577 0 1
89.4734 0 1
89.5891 0 1
89.7047 0 1
89.8203 0 1
89.9358 0 1
92.3269 0 1
92.4424 0 1
92.558 0 1
92.6736 0 1
92.7893 0 1
92.905 0 1
93.0208 0 1
93.1366 0 1
93.2525 0 1
93.3685 0 1
93.4845 0 1
93.6005 4322 65.7419
93.7167 4401 66.34
93.8328 4238 65.0999
93.949 4369 66.0984
94.0653 4316 65.6963
94.1816 4422 66.4981
94.2979 4398 66.3174
94.4143 4498 67.0671
94.5307 4326 65.7723
94.6472 4253 65.215
94.7637 4085 63.914
94.8803 3882 62.3057
94.9969 3300 57.4456
95.1135 2985 54.6352
95.2302 3205 56.6127
95.3469 3569 59.7411
95.4637 4053 63.6632
95.5805 4316 65.6963
95.6973 4386 66.2269
95.8142 4489 67
95.9311 4555 67.4907
96.048 4506 67.1267
96.1649 4462 66.7982
96.2819 4421 66.4906
96.3989 4515 67.1937
96.516 4618 67.9559
96.633 4515 67.1937
96.7501 4601 67.8307
96.8673 4579 67.6683
96.9844 4645 68.1542
97.1016 4618 67.9559
97.2188 4772 69.0797
97.336 4511 67.164
97.4532 4562 67.5426
97.5704 4414 66.4379
97.6877 4506 67.1267
97.805 4397 66.3099
97.9223 4533 67.3276
98.0396 4556 67.4981
98.1569 4404 66.3626
98.2743 4218 64.9461
98.3916 3783 61.5061
98.509 3359 57.9569
98.6264 3003 54.7996
98.7438 3029 55.0364
98.8612 3400 58.3095
98.9786 3710 60.9098
99.096 3854 62.0806
99.2134 3855 62.0886
99.3308 3759 61.3107
99.4482 3656 60.4649
99.5656 3497 59.1354
99.6831 3466 58.8727
99.8005 3369 58.0431
99.9179 3341 57.8014
100.035 3178 56.3738
100.153 3104 55.7136
100.27 3194 56.5155
100.388 3041 55.1453
100.505 3187 56.4535
100.622 3099 55.6687
100.74 3241 56.9298
100.857 3137 56.0089
100.975 3082 55.5158
101.092 2982 54.6077
101.209 3031 55.0545
101.327 3027 55.0182
101.444 3007 54.8361
101.561 3029 55.0364
101.679 2987 54.6535
101.796 3016 54.9181
101.913 2913 53.9722
102.03 2660 51.5752
102.148 2398 48.9694
102.265 2145 46.3141
102.382 2509 50.0899
102.499 2662 51.5946
102.616 2756 52.4976
102.733 2779 52.7162
102.851 2802 52.9339
102.968 2818 53.0848
103.085 2726 52.2111
103.202 2761 52.5452
103.319 2709 52.0481
103.436 2729 52.2398
103.552 2801 52.9245
103.669 2654 51.517
103.786 2783 52.7541
103.903 2715 52.1057
104.02 2814 53.0471
104.137 2793 52.8488
104.253 2863 53.507
104.37 2685 51.817
104.487 2735 52.2972
104.603 2590 50.892
104.72 2586 50.8527
104.836 2470 49.6991
104.953 2200 46.9042
105.069 1997 44.6878
105.186 1795 42.3674
105.302 1693 41.1461
105.418 1572 39.6485
105.535 1422 37.7094
105.651 1233 35.1141
105.767 987 31.4166
105.883 871 29.5127
105.999 820 28.6356
106.115 0 1
106.231 0 1
106.347 0 1
106.463 0 1
106.579 0 1
106.694 0 1
106.81 0 1
106.926 0 1
107.041 0 1
107.157 0 1
109.576 0 1
109.692 0 1
109.807 0 1
109.923 0 1
110.039 0 1
110.155 0 1
110.27 0 1
110.386 0 1
110.502 0 1
110.618 2697 51.9326
110.735 2915 53.9907
110.851 2755 52.4881
110.967 2483 49.8297
111.083 2396 48.949
111.199 2658 51.5558
111.316 2875 53.619
111.432 3049 55.2178
111.549 3005 54.8179
111.665 3031 55.0545
111.782 3055 55.2721
111.898 3043 55.1634
112.015 3003 54.7996
112.132 2998 54.754
112.248 3001 54.7814
112.365 3151 56.1338
112.482 3086 55.5518
112.599 3109 55.7584
112.716 3198 56.5509
112.832 3378 58.1206
112.949 3309 57.5239
113.066 3404 58.3438
113.183 3433 58.5918
113.3 3455 58.7792
113.417 3412 58.4123
113.534 3349 57.8705
113.652 3381 58.1464
113.769 3320 57.6194
113.886 3346 57.8446
114.003 3206 56.6216
114.12 3354 57.9137
114.238 3254 57.0438
114.355 2970 54.4977
114.472 2615 51.1371
114.589 2634 51.3225
114.707 2659 51.5655
114.824 2882 53.6843
114.942 3090 55.5878
115.059 3175 56.3471
115.176 3159 56.205
115.294 3119 55.848
115.411 3111 55.7763
115.529 3124 55.8928
115.646 3176 56.356
115.764 3048 55.2087
115.881 2954 54.3507
115.999 3122 55.8749
116.116 3197 56.542
116.234 3116 55.8211
116.351 3256 57.0614
116.469 3344 57.8273
116.586 3405 58.3524
116.704 3471 58.9152
116.821 3452 58.7537
116.939 3446 58.7026
117.056 3430 58.5662
117.174 3385 58.1808
117.291 3363 57.9914
117.409 3289 57.3498
117.526 3318 57.6021
117.644 3328 57.6888
117.761 3272 57.2014
117.879 3272 57.2014
117.996 2950 54.3139
118.114 2713 52.0865
118.231 2592 50.9117
118.349 2760 52.5357
118.466 3138 56.0179
118.584 3029 55.0364
118.701 3218 56.7274
118.819 3172 56.3205
118.936 3076 55.4617
119.053 3076 55.4617
119.171 3063 55.3444
119.288 3002 54.7905
119.405 2909 53.9351
119.523 2996 54.7357
119.64 2993 54.7083
119.757 2986 54.6443
119.875 2986 54.6443
119.992 3153 56.1516
120.109 3114 55.8032
120.226 3331 57.7148
120.343 3213 56.6833
120.46 3266 57.1489
120.578 3164 56.2494
120.695 3209 56.648
120.812 3284 57.3062
120.929 3156 56.1783
121.046 3058 55.2992
121.163 3058 55.2992
121.279 3149 56.116
121.396 3093 55.6147
121.513 3027 55.0182
121.63 2690 51.8652
121.747 2394 48.9285
121.863 2174 46.6262
121.98 2064 45.4313
122.097 2169 46.5725
122.213 2234 47.2652
122.33 2222 47.1381
122.446 2256 47.4974
122.563 2069 45.4863
122.679 2103 45.8585
122.795 1931 43.9431
122.912 1885 43.4166
123.028 1845 42.9535
123.144 1820 42.6615
123.26 1824 42.7083
123.377 0 1
123.493 0 1
123.609 0 1
123.725 0 1
123.84 0 1
123.956 0 1
124.072 0 1
124.188 0 1
124.303 0 1
124.419 0 1
126.852 0 1
126.968 0 1
127.083 0 1
127.199 0 1
127.315 0 1
127.431 0 1
127.547 0 1
127.663 0 1
127.779 0 1
127.895 0 1
128.011 0 1
128.127 0 1
128.243 0 1
128.359 3591 59.925
128.476 3620 60.1664
128.592 3490 59.0762
128.708 3586 59.8832
128.825 3692 60.7618
128.941 3607 60.0583
129.058 3634 60.2827
129.174 3757 61.2944
129.291 3725 61.0328
129.408 3816 61.7738
129.524 4056 63.6867
129.641 4006 63.293
129.758 4125 64.2262
129.875 4235 65.0769
129.992 4323 65.7495
130.108 4280 65.4217
130.225 4213 64.9076
130.342 4213 64.9076
130.459 4087 63.9296
130.576 3979 63.0793
130.693 3880 62.2896
130.81 3772 61.4166
130.928 3710 60.9098
131.045 3902 62.466
131.162 3886 62.3378
131.279 4002 63.2614
131.396 4272 65.3605
131.513 4079 63.867
131.631 4129 64.2573
131.748 4091 63.9609
131.865 4046 63.6082
131.983 3976 63.0555
132.1 3962 62.9444
132.217 4000 63.2456
132.335 3975 63.0476
132.452 3816 61.7738
132.57 3874 62.2415
132.687 3723 61.0164
132.804 4172 64.591
132.922 4046 63.6082
133.039 3995 63.206
133.157 4120 64.1872
133.274 4229 65.0308
133.392 4327 65.7799
133.509 4373 66.1287
133.627 4483 66.9552
133.744 4511 67.164
133.862 4383 66.2042
133.979 4577 67.6535
134.097 4516 67.2012
134.214 4238 65.0999
134.332 4111 64.1171
134.449 4049 63.6318
134.567 4176 64.622
134.684 4248 65.1767
134.802 4459 66.7757
134.919 4446 66.6783
135.037 4393 66.2797
135.154 4449 66.7008
135.272 4416 66.453
135.389 4409 66.4003
135.507 4339 65.8711
135.624 4267 65.3223
135.742 4165 64.5368
135.859 4256 65.238
135.977 4168 64.56
136.094 4107 64.0859
136.211 4200 64.8074
136.329 4121 64.195
136.446 4134 64.2962
136.564 4287 65.4752
136.681 4266 65.3146
136.798 4294 65.5286
136.915 4300 65.5744
137.033 4329 65.7951
137.15 4423 66.5056
137.267 4254 65.2227
137.384 4392 66.2722
137.502 4315 65.6887
137.619 4332 65.8179
137.736 4252 65.2074
137.853 3970 63.0079
137.97 3995 63.206
138.087 3914 62.562
138.204 4008 63.3088
138.321 4122 64.2028
138.438 4236 65.0846
138.555 4287 65.4752
138.672 4213 64.9076
138.788 4046 63.6082
138.905 4018 63.3877
139.022 3976 63.0555
139.139 3730 61.0737
139.255 3713 60.9344
139.372 3530 59.4138
139.488 3345 57.836
139.605 3236 56.8859
139.721 3123 55.8838
139.838 3125 55.9017
139.954 3025 55
140.071 2916 54
140.187 3030 55.0454
140.303 2922 54.0555
140.419 2879 53.6563
140.535 2951 54.3231
140.652 3112 55.7853
140.768 0 1
140.884 0 1
141 0 1
141.115 0 1
141.231 0 1
141.347 0 1
141.463 0 1
141.578 0 1
141.694 0 1
144.104 0 1
144.219 0 1
144.335 0 1
144.45 0 1
144.566 0 1
144.682 0 1
144.798 0 1
144.914 0 1
145.03 0 1
145.146 8454 91.9456
145.262 8933 94.5145
145.378 8733 93.4505
145.494 9010 94.921
145.61 8959 94.652
145.726 9066 95.2155
145.842 9033 95.0421
145.959 9106 95.4254
146.075 9070 95.2365
146.192 8989 94.8103
146.308 9085 95.3153
146.425 8871 94.186
146.541 8114 90.0777
146.658 7091 84.2081
146.774 5845 76.4526
146.891 5867 76.5963
147.008 6620 81.3634
147.125 7931 89.0562
147.241 8535 92.3851
147.358 8719 93.3756
147.475 8935 94.5251
147.592 9103 95.4096
147.709 9173 95.7758
147.826 9030 95.0263
147.943 8872 94.1913
148.06 9114 95.4673
148.177 9018 94.9632
148.294 8859 94.1223
148.411 9026 95.0053
148.528 9019 94.9684
148.645 9212 95.9792
148.762 9273 96.2964
148.88 8982 94.7734
148.997 8806 93.8403
149.114 9295 96.4106
149.231 9218 96.0104
149.349 9457 97.2471
149.466 9050 95.1315
149.583 9437 97.1442
149.701 9318 96.5298
149.818 9298 96.4261
149.935 9348 96.6851
150.053 9316 96.5194
150.17 8796 93.787
150.287 7788 88.2496
150.405 6627 81.4064
150.522 5950 77.1362
150.64 6577 81.0987
150.757 7622 87.3041
150.875 8728 93.4238
150.992 8965 94.6837
151.11 8809 93.8563
151.227 8970 94.7101
151.344 8865 94.1541
151.462 8633 92.9139
151.579 8990 94.8156
151.697 8867 94.1647
151.814 8996 94.8472
151.932 8981 94.7681
152.049 9169 95.7549
152.167 9088 95.331
152.284 8865 94.1541
152.402 8962 94.6678
152.519 8976 94.7418
152.636 9220 96.0208
152.754 9188 95.8541
152.871 9359 96.7419
152.989 9427 97.0927
153.106 9458 97.2522
153.223 9435 97.1339
153.341 9567 97.811
153.458 9376 96.8297
153.575 9304 96.4572
153.693 9468 97.3036
153.81 8989 94.8103
153.927 8076 89.8666
154.044 6960 83.4266
154.162 6471 80.4425
154.279 6888 82.994
154.396 8084 89.9111
154.513 9040 95.0789
154.63 9394 96.9226
154.747 9265 96.2549
154.864 9211 95.974
154.981 9091 95.3467
155.098 9073 95.2523
155.215 9013 94.9368
155.332 8789 93.7497
155.449 8501 92.2009
155.566 8451 91.9293
155.683 8328 91.2579
155.8 8118 90.0999
155.917 7886 88.8032
156.033 7648 87.4528
156.15 0 1
156.267 0 1
156.383 0 1
156.5 0 1
156.617 0 1
156.733 0 1
156.85 0 1
156.966 0 1
157.082 0 1
157.199 0 1
157.315 0 1
157.431 0 1
157.547 0 1
157.664 0 1
157.78 0 1
157.896 0 1
158.012 0 1
158.128 0 1
158.244 0 1
158.359 0 1
158.475 0 1
158.591 0 1
158.706 0 1
