
6.15755 0 1
6.2731 0 1
6.3887 0 1
6.50437 0 1
6.62009 0 1
6.73587 0 1
6.8517 0 1
6.96759 0 1
7.08353 0 1
7.19952 0 1
7.31557 0 1
7.43166 0 1
7.54781 0 1
7.664 0 1
7.78024 0 1
7.89653 0 1
8.01286 0 1
8.12924 0 1
8.24567 0 1
8.36213 0 1
8.47864 0 1
8.59519 0 1
8.71178 0 1
8.82841 0 1
8.94508 0 1
9.06179 0 1
9.17853 0 1
9.29531 0 1
9.41212 0 1
9.52897 0 1
9.64584 0 1
9.76276 0 1
9.8797 0 1
9.99667 0 1
10.1137 0 1
10.2307 0 1
10.3478 0 1
10.4648 0 1
10.5819 0 1
10.6991 0 1
10.8162 0 1
10.9334 0 1
11.0506 0 1
11.1678 0 1
11.285 0 1
11.4023 0 1
11.5196 0 1
11.6369 0 1
11.7542 0 1
11.8715 0 1
11.9888 0 1
12.1062 0 1
12.2235 0 1
12.3409 0 1
12.4582 0 1
12.5756 0 1
12.693 0 1
12.8104 0 1
12.9278 0 1
13.0452 0 1
13.1626 0 1
13.28 0 1
13.3974 0 1
13.5149 0 1
13.6323 0 1
13.7497 0 1
13.8671 0 1
13.9845 0 1
14.1019 0 1
14.2193 0 1
14.3367 0 1
14.4541 0 1
14.5714 0 1
14.6888 0 1
14.8062 0 1
14.9235 0 1
15.0408 8906 94.3716
15.1581 9510 97.5192
15.2755 9625 98.1071
15.3927 9532 97.632
15.51 9731 98.6458
15.6273 9249 96.1717
15.7445 9664 98.3056
15.8617 9523 97.5859
15.9789 9659 98.2802
16.0961 9869 99.3428
16.2132 9861 99.3026
16.3304 10231 101.148
16.4475 10502 102.479
16.5646 10779 103.822
16.6816 11503 107.252
16.7986 11679 108.069
16.9156 11866 108.931
17.0326 11898 109.078
17.1496 12409 111.396
17.2665 12832 113.278
17.3833 13048 114.228
17.5002 12986 113.956
17.617 13107 114.486
17.7338 13317 115.399
17.8505 13292 115.291
17.9672 12990 113.974
18.0839 12185 110.386
18.2005 11997 109.531
18.3171 12054 109.791
18.4337 12479 111.709
18.5502 12928 113.701
18.6666 13313 115.382
18.7831 13342 115.508
18.8994 13649 116.829
19.0158 13277 115.226
19.1321 12813 113.195
19.2483 12523 111.906
19.3645 12403 111.369
19.4806 12315 110.973
19.5967 11941 109.275
19.7128 11870 108.95
19.8288 11536 107.406
19.9447 10360 101.784
20.0606 0 1
20.1764 0 1
20.2922 0 1
20.4079 0 1
20.5236 0 1
20.6392 0 1
20.7548 0 1
20.8702 0 1
23.3078 0 1
23.4233 0 1
23.539 0 1
23.6547 0 1
23.7704 0 1
23.8862 0 1
24.0021 0 1
24.118 0 1
24.234 0 1
24.35 0 1
24.4661 12029 109.677
24.5822 12140 110.182
24.6984 12045 109.75
24.8146 11811 108.678
24.9309 11744 108.37
25.0472 11680 108.074
25.1636 11719 108.254
25.28 11996 109.526
25.3965 12241 110.639
25.513 12855 113.38
25.6296 13053 114.25
25.7462 13249 115.104
25.8628 13965 118.174
25.9795 14138 118.903
26.0962 14194 119.139
26.213 14081 118.663
26.3298 14294 119.558
26.4466 13979 118.233
26.5635 14126 118.853
26.6804 13465 116.039
26.7973 12727 112.814
26.9143 12405 111.378
27.0313 12879 113.486
27.1483 13424 115.862
27.2653 13689 117
27.3824 13745 117.239
27.4996 13751 117.265
27.6167 13299 115.321
27.7339 13199 114.887
27.8511 12954 113.816
27.9683 12789 113.088
28.0855 12387 111.297
28.2028 12476 111.696
28.3201 12187 110.395
28.4374 11990 109.499
28.5547 11769 108.485
28.6721 11659 107.977
28.7894 11855 108.881
28.9068 12179 110.359
29.0242 12260 110.725
29.1416 12362 111.185
29.259 13032 114.158
29.3764 13102 114.464
29.4939 13359 115.581
29.6113 13648 116.825
29.7288 13688 116.996
29.8463 13882 117.822
29.9638 13702 117.056
30.0812 13342 115.508
30.1987 12900 113.578
30.3162 12087 109.941
30.4337 11513 107.299
30.5512 11796 108.609
30.6687 12122 110.1
30.7862 12827 113.256
30.9037 13012 114.07
31.0212 13378 115.663
31.1387 13088 114.403
31.2562 12939 113.75
31.3737 12854 113.375
31.4912 12408 111.391
31.6087 12332 111.05
31.7262 12181 110.368
31.8436 11854 108.876
31.9611 11873 108.963
32.0785 11662 107.991
32.1959 11557 107.503
32.3134 11525 107.355
32.4308 11454 107.023
32.5482 11547 107.457
32.6655 12109 110.041
32.7829 12343 111.099
32.9002 12556 112.054
33.0176 12942 113.763
33.1349 13196 114.874
33.2522 13231 115.026
33.3694 13522 116.284
33.4867 13308 115.36
33.6039 13325 115.434
33.7211 13199 114.887
33.8383 12851 113.362
33.9554 12145 110.204
34.0725 11464 107.07
34.1896 10913 104.465
34.3067 11617 107.782
34.4237 12154 110.245
34.5407 12416 111.427
34.6577 12497 111.79
34.7746 12616 112.321
34.8915 12645 112.45
35.0084 12327 111.027
35.1252 12103 110.014
35.242 12148 110.218
35.3587 11735 108.328
35.4755 11768 108.48
35.5921 11575 107.587
35.7088 11272 106.17
35.8254 11317 106.381
35.9419 10939 104.59
36.0584 10870 104.259
36.1749 11039 105.067
36.2913 11189 105.778
36.4077 11343 106.504
36.524 11662 107.991
36.6403 11924 109.197
36.7565 12174 110.336
36.8727 12395 111.333
36.9889 12663 112.53
37.1049 12556 112.054
37.221 0 1
37.3369 0 1
37.4529 0 1
37.5687 0 1
37.6845 0 1
37.8003 0 1
37.916 0 1
38.0316 0 1
38.1472 0 1
40.5851 0 1
40.7008 0 1
40.8164 0 1
40.9322 0 1
41.048 0 1
41.1639 0 1
41.2798 0 1
41.3958 0 1
41.5118 0 1
41.6279 0 1
41.744 8943 94.5674
41.8602 9754 98.7623
41.9765 10242 101.203
42.0928 10612 103.015
42.2091 10530 102.616
42.3255 10644 103.17
42.4419 10523 102.582
42.5584 10632 103.112
42.675 10250 101.242
42.7915 9572 97.8366
42.9081 9002 94.8789
43.0248 8611 92.7955
43.1415 8937 94.5357
43.2582 9275 96.3068
43.375 9763 98.8079
43.4918 9625 98.1071
43.6087 9948 99.7397
43.7256 9764 98.813
43.8425 9660 98.2853
43.9595 9485 97.391
44.0765 9194 95.8853
44.1935 9021 94.9789
44.3106 8887 94.2709
44.4277 8755 93.5682
44.5448 8379 91.5369
44.6619 7999 89.4371
44.7791 7763 88.1079
44.8963 7538 86.8217
45.0136 7454 86.3366
45.1308 7613 87.2525
45.2481 7658 87.51
45.3654 7809 88.3685
45.4827 7764 88.1136
45.6001 7985 89.3588
45.7174 8194 90.5207
45.8348 8247 90.813
45.9522 8317 91.1976
46.0697 8016 89.5321
46.1871 7965 89.2468
46.3046 7517 86.7006
46.422 7096 84.2378
46.5395 6704 81.878
46.657 6464 80.399
46.7745 6696 81.8291
46.892 6995 83.6361
47.0096 7200 84.8528
47.1271 7452 86.325
47.2446 7491 86.5506
47.3622 7385 85.936
47.4797 7232 85.0412
47.5973 7125 84.4097
47.7149 6944 83.3307
47.8324 6893 83.0241
47.95 6656 81.5843
48.0675 6627 81.4064
48.1851 6409 80.0562
48.3027 6197 78.721
48.4202 5970 77.2658
48.5378 6020 77.5887
48.6554 6006 77.4984
48.7729 6237 78.9747
48.8904 6310 79.4355
49.008 6261 79.1265
49.1255 6831 82.6499
49.243 6920 83.1865
49.3605 7016 83.7616
49.478 7082 84.1546
49.5955 7283 85.3405
49.713 7098 84.2496
49.8304 6774 82.3043
49.9479 6339 79.6178
50.0653 5899 76.8049
50.1827 5845 76.4526
50.3001 6133 78.3135
50.4175 6668 81.6578
50.5348 6951 83.3727
50.6521 7322 85.5687
50.7694 7450 86.3134
50.8867 7514 86.6833
51.004 7853 88.6172
51.1212 7832 88.4986
51.2384 7808 88.3629
51.3556 7776 88.1816
51.4727 7842 88.5551
51.5899 7941 89.1123
51.707 7742 87.9886
51.824 7734 87.9432
51.9411 7682 87.647
52.0581 7602 87.1894
52.175 7753 88.0511
52.2919 8050 89.7218
52.4088 8593 92.6984
52.5257 8861 94.1329
52.6425 9096 95.373
52.7593 9440 97.1597
52.876 9568 97.8162
52.9927 9690 98.4378
53.1094 9933 99.6644
53.226 10012 100.06
53.3426 9943 99.7146
53.4591 9484 97.3858
53.5756 8959 94.652
53.692 8441 91.8749
53.8084 8343 91.34
53.9248 8746 93.5201
54.0411 9356 96.7264
54.1573 9603 97.9949
54.2735 0 1
54.3896 0 1
54.5057 0 1
54.6217 0 1
54.7377 0 1
54.8537 0 1
54.9695 0 1
55.0853 0 1
55.2011 0 1
55.3168 0 1
55.4324 0 1
57.824 0 1
57.9396 0 1
58.0553 0 1
58.1711 0 1
58.2869 0 1
58.4028 0 1
58.5187 0 1
58.6347 0 1
58.7508 0 1
58.8669 0 1
58.983 9866 99.3277
59.0992 10480 102.372
59.2155 11021 104.981
59.3318 11614 107.768
59.4482 12353 111.144
59.5646 12555 112.049
59.681 12649 112.468
59.7975 12673 112.574
59.9141 12499 111.799
60.0306 12470 111.669
60.1473 12233 110.603
60.2639 11946 109.298
60.3807 11717 108.245
60.4974 11176 105.717
60.6142 10804 103.942
60.731 10586 102.888
60.8479 10418 102.069
60.9648 10578 102.849
61.0818 10815 103.995
61.1987 11065 105.19
61.3158 11647 107.921
61.4328 12040 109.727
61.5499 12216 110.526
61.667 12165 110.295
61.7841 12129 110.132
61.9013 12049 109.768
62.0185 11622 107.805
62.1357 10897 104.389
62.253 10471 102.328
62.3702 9774 98.8635
62.4875 9923 99.6143
62.6049 10430 102.127
62.7222 10860 104.211
62.8396 11415 106.841
62.9569 11922 109.188
63.0743 11976 109.435
63.1918 11863 108.917
63.3092 12072 109.873
63.4267 11878 108.986
63.5441 11840 108.812
63.6616 11526 107.359
63.7791 11447 106.991
63.8966 11076 105.243
64.0142 10682 103.354
64.1317 10374 101.853
64.2492 9782 98.904
64.3668 9653 98.2497
64.4843 9685 98.4124
64.6019 9822 99.106
64.7195 10441 102.181
64.837 10872 104.269
64.9546 11266 106.141
65.0722 11534 107.396
65.1898 11477 107.131
65.3074 11750 108.397
65.4249 11307 106.334
65.5425 11439 106.953
65.6601 10694 103.412
65.7777 10063 100.315
65.8952 9458 97.2522
66.0128 9251 96.1821
66.1304 9481 97.3704
66.2479 10086 100.429
66.3655 10517 102.552
66.483 11059 105.162
66.6005 11630 107.842
66.718 11666 108.009
66.8355 11521 107.336
66.953 11573 107.578
67.0705 11713 108.227
67.1879 11390 106.724
67.3054 11248 106.057
67.4228 11369 106.626
67.5402 10772 103.788
67.6576 10499 102.465
67.7749 10036 100.18
67.8923 9661 98.2904
68.0096 9431 97.1133
68.1269 9448 97.2008
68.2442 9768 98.8332
68.3614 9985 99.925
68.4787 10487 102.406
68.5958 11259 106.108
68.713 11631 107.847
68.8302 11761 108.448
68.9473 11809 108.669
69.0643 11876 108.977
69.1814 11724 108.277
69.2984 11286 106.236
69.4154 10693 103.407
69.5323 9811 99.0505
69.6492 9496 97.4474
69.7661 9837 99.1817
69.8829 10477 102.357
69.9997 11023 104.99
70.1165 11735 108.328
70.2332 12076 109.891
70.3499 12197 110.44
70.4665 12400 111.355
70.5831 12605 112.272
70.6996 12217 110.531
70.8161 12413 111.414
70.9326 12289 110.856
71.049 11802 108.637
71.1653 11589 107.652
71.2817 11276 106.189
71.3979 10843 104.13
71.5141 10099 100.494
71.6303 9399 96.9484
71.7464 8791 93.7603
71.8624 0 1
71.9784 0 1
72.0944 0 1
72.2102 0 1
72.3261 0 1
72.4418 0 1
72.5575 0 1
72.6732 0 1
75.1054 0 1
75.2209 0 1
75.3365 0 1
75.4521 0 1
75.5678 0 1
75.6835 0 1
75.7993 0 1
75.9151 0 1
76.031 0 1
76.147 11264 106.132
76.263 11494 107.21
76.3791 11793 108.596
76.4952 11373 106.644
76.6113 10672 103.305
76.7276 10172 100.856
76.8438 10015 100.075
76.9601 9920 99.5992
77.0765 10336 101.666
77.1929 10610 103.005
77.3093 11479 107.14
77.4258 12056 109.8
77.5423 12382 111.274
77.6589 12572 112.125
77.7755 12642 112.437
77.8921 12531 111.942
78.0088 12113 110.059
78.1256 11341 106.494
78.2423 10510 102.518
78.3591 9842 99.2069
78.4759 9347 96.6799
78.5928 9344 96.6644
78.7097 10110 100.548
78.8266 10555 102.738
78.9436 11740 108.351
79.0606 11888 109.032
79.1776 12078 109.9
79.2946 12434 111.508
79.4117 12367 111.207
79.5288 12542 111.991
79.6459 12329 111.036
79.7631 12244 110.653
79.8802 12049 109.768
79.9974 11500 107.238
80.1147 11589 107.652
80.2319 10718 103.528
80.3491 10154 100.767
80.4664 9707 98.5241
80.5837 9637 98.1682
80.701 9855 99.2724
80.8183 10694 103.412
80.9357 11350 106.536
81.053 11718 108.25
81.1704 12334 111.059
81.2877 12315 110.973
81.4051 12328 111.032
81.5225 12400 111.355
81.6399 11902 109.096
81.7573 11858 108.894
81.8747 10340 101.686
81.9922 9882 99.4082
82.1096 9324 96.5609
82.227 9596 97.9592
82.3444 10101 100.504
82.4619 11007 104.914
82.5793 11595 107.68
82.6967 11826 108.747
82.8142 12048 109.763
82.9316 12275 110.793
83.049 12541 111.987
83.1664 12654 112.49
83.2838 12388 111.301
83.4012 12486 111.741
83.5186 12023 109.649
83.636 11829 108.761
83.7534 11558 107.508
83.8708 11133 105.513
83.9881 10463 102.289
84.1055 9735 98.6661
84.2228 9784 98.9141
84.3401 10229 101.139
84.4575 10569 102.806
84.5747 11315 106.372
84.692 11961 109.366
84.8093 12653 112.486
84.9265 12836 113.296
85.0437 12757 112.947
85.1609 12642 112.437
85.2781 12355 111.153
85.3952 11245 106.042
85.5123 10439 102.171
85.6294 9975 99.8749
85.7465 9597 97.9643
85.8636 10021 100.105
85.9806 11029 105.019
86.0976 12075 109.886
86.2145 12005 109.567
86.3315 12681 112.61
86.4484 12928 113.701
86.5652 13197 114.878
86.682 13507 116.22
86.7988 13587 116.563
86.9156 13358 115.577
87.0323 12977 113.917
87.149 12857 113.389
87.2657 12426 111.472
87.3823 12582 112.17
87.4988 11657 107.968
87.6154 11012 104.938
87.7318 10410 102.029
87.8483 10638 103.141
87.9647 11256 106.094
88.081 12008 109.581
88.1973 12784 113.066
88.3136 13219 114.974
88.4298 13393 115.728
88.546 13545 116.383
88.6621 13272 115.204
88.7781 13075 114.346
88.8942 0 1
89.0101 0 1
89.126 0 1
89.2419 0 1
89.3577 0 1
89.4734 0 1
89.5891 0 1
89.7047 0 1
89.8203 0 1
89.9358 0 1
92.3269 0 1
92.4424 0 1
92.558 0 1
92.6736 0 1
92.7893 0 1
92.905 0 1
93.0208 0 1
93.1366 0 1
93.2525 0 1
93.3685 0 1
93.4845 0 1
93.6005 12910 113.622
93.7167 13056 114.263
93.8328 12802 113.146
93.949 12744 112.889
94.0653 12551 112.031
94.1816 11476 107.126
94.2979 11133 105.513
94.4143 10473 102.338
94.5307 10210 101.045
94.6472 10404 102
94.7637 11039 105.067
94.8803 11694 108.139
94.9969 12219 110.54
95.1135 12790 113.093
95.2302 12775 113.027
95.3469 13214 114.952
95.4637 13457 116.004
95.5805 13636 116.773
95.6973 13541 116.366
95.8142 13419 115.84
95.9311 13612 116.67
96.048 13263 115.165
96.1649 12949 113.794
96.2819 12637 112.414
96.3989 11940 109.27
96.516 11281 106.212
96.633 10738 103.624
96.7501 10637 103.136
96.8673 10713 103.504
96.9844 11288 106.245
97.1016 12566 112.098
97.2188 13100 114.455
97.336 13579 116.529
97.4532 13368 115.62
97.5704 13273 115.209
97.6877 13011 114.066
97.805 12343 111.099
97.9223 11436 106.939
98.0396 10886 104.336
98.1569 10206 101.025
98.2743 10326 101.617
98.3916 10303 101.504
98.509 11136 105.527
98.6264 11718 108.25
98.7438 12273 110.784
98.8612 12638 112.419
98.9786 13041 114.197
99.096 13221 114.983
99.2134 13303 115.339
99.3308 13222 114.987
99.4482 12835 113.292
99.5656 13185 114.826
99.6831 12729 112.823
99.8005 12438 111.526
99.9179 12161 110.277
100.035 11658 107.972
100.153 10842 104.125
100.27 10219 101.089
100.388 10403 101.995
100.505 11031 105.029
100.622 11773 108.503
100.74 12335 111.063
100.857 13044 114.21
100.975 13214 114.952
101.092 13099 114.451
101.209 13366 115.611
101.327 12620 112.339
101.444 12253 110.693
101.561 11352 106.546
101.679 10885 104.331
101.796 10295 101.464
101.913 10224 101.114
102.03 10811 103.976
102.148 11795 108.605
102.265 11273 106.174
102.382 13378 115.663
102.499 13200 114.891
102.616 13487 116.134
102.733 13691 117.009
102.851 13777 117.375
102.968 14027 118.436
103.085 13733 117.188
103.202 13794 117.448
103.319 13482 116.112
103.436 13270 115.195
103.552 12606 112.276
103.669 11871 108.954
103.786 11402 106.78
103.903 11052 105.128
104.02 11571 107.569
104.137 12635 112.406
104.253 13339 115.495
104.37 14106 118.769
104.487 14313 119.637
104.603 14210 119.206
104.72 14008 118.355
104.836 13520 116.276
104.953 12642 112.437
105.069 11924 109.197
105.186 11459 107.047
105.302 10990 104.833
105.418 11151 105.598
105.535 11993 109.513
105.651 12491 111.763
105.767 13026 114.132
105.883 13730 117.175
105.999 13952 118.119
106.115 0 1
106.231 0 1
106.347 0 1
106.463 0 1
106.579 0 1
106.694 0 1
106.81 0 1
106.926 0 1
107.041 0 1
107.157 0 1
109.576 0 1
109.692 0 1
109.807 0 1
109.923 0 1
110.039 0 1
110.155 0 1
110.27 0 1
110.386 0 1
110.502 0 1
110.618 10635 103.126
110.735 11456 107.033
110.851 11830 108.766
110.967 12103 110.014
111.083 12339 111.081
111.199 12273 110.784
111.316 12722 112.792
111.432 12643 112.441
111.549 12527 111.924
111.665 12212 110.508
111.782 11975 109.43
111.898 11498 107.229
112.015 10931 104.551
112.132 10013 100.065
112.248 9537 97.6576
112.365 9442 97.17
112.482 10368 101.823
112.599 10629 103.097
112.716 11333 106.457
112.832 11370 106.63
112.949 11727 108.291
113.066 11428 106.902
113.183 11313 106.363
113.3 10746 103.663
113.417 10266 101.321
113.534 9418 97.0464
113.652 9042 95.0894
113.769 8535 92.3851
113.886 8323 91.2305
114.003 8638 92.9408
114.12 9276 96.312
114.238 9545 97.6985
114.355 9860 99.2975
114.472 10020 100.1
114.589 10037 100.185
114.707 10410 102.029
114.824 10221 101.099
114.942 10318 101.578
115.059 10006 100.03
115.176 10058 100.29
115.294 9599 97.9745
115.411 9305 96.4624
115.529 8855 94.101
115.646 8282 91.0055
115.764 7538 86.8217
115.881 7310 85.4985
115.999 7703 87.7667
116.116 8182 90.4544
116.234 8660 93.0591
116.351 8737 93.4719
116.469 8681 93.1719
116.586 8818 93.9042
116.704 8610 92.7901
116.821 8358 91.4221
116.939 8005 89.4707
117.056 7443 86.2728
117.174 6999 83.66
117.291 6978 83.5344
117.409 6583 81.1357
117.526 6747 82.1401
117.644 7185 84.7644
117.761 7481 86.4928
117.879 7816 88.4081
117.996 8045 89.6939
118.114 8225 90.6918
118.231 8349 91.3729
118.349 8345 91.351
118.466 8262 90.8955
118.584 8413 91.7224
118.701 8388 91.586
118.819 8407 91.6897
118.936 8165 90.3604
119.053 8048 89.7106
119.171 7823 88.4477
119.288 7249 85.1411
119.405 6838 82.6922
119.523 6973 83.5045
119.64 7196 84.8292
119.757 7909 88.9326
119.875 8407 91.6897
119.992 8449 91.9184
120.109 8681 93.1719
120.226 8614 92.8116
120.343 8871 94.186
120.46 8671 93.1182
120.578 8381 91.5478
120.695 7992 89.398
120.812 7654 87.4871
120.929 7397 86.0058
121.046 7298 85.4283
121.163 7150 84.5577
121.279 7770 88.1476
121.396 8140 90.2219
121.513 8710 93.3274
121.63 8728 93.4238
121.747 9134 95.572
121.863 9438 97.1494
121.98 9491 97.4218
122.097 9691 98.4429
122.213 9952 99.7597
122.33 9837 99.1817
122.446 10051 100.255
122.563 9870 99.3479
122.679 9801 99
122.795 9517 97.5551
122.912 9278 96.3224
123.028 8815 93.8882
123.144 8394 91.6188
123.26 8298 91.0934
123.377 0 1
123.493 0 1
123.609 0 1
123.725 0 1
123.84 0 1
123.956 0 1
124.072 0 1
124.188 0 1
124.303 0 1
124.419 0 1
126.852 0 1
126.968 0 1
127.083 0 1
127.199 0 1
127.315 0 1
127.431 0 1
127.547 0 1
127.663 0 1
127.779 0 1
127.895 0 1
128.011 0 1
128.127 0 1
128.243 0 1
128.359 10098 100.489
128.476 9569 97.8213
128.592 10119 100.593
128.708 10513 102.533
128.825 11409 106.813
128.941 11978 109.444
129.058 11932 109.234
129.174 11711 108.217
129.291 11911 109.138
129.408 11491 107.196
129.524 11073 105.228
129.641 10813 103.986
129.758 9963 99.8148
129.875 9554 97.7446
129.992 9399 96.9484
130.108 9158 95.6974
130.225 9420 97.0567
130.342 9681 98.3921
130.459 10062 100.31
130.576 10000 100
130.693 10547 102.699
130.81 10513 102.533
130.928 10710 103.489
131.045 10806 103.952
131.162 10598 102.947
131.279 10648 103.189
131.396 10409 102.025
131.513 10649 103.194
131.631 10215 101.069
131.748 9688 98.4276
131.865 9313 96.5039
131.983 8936 94.5304
132.1 8833 93.984
132.217 9248 96.1665
132.335 9961 99.8048
132.452 10096 100.479
132.57 10136 100.678
132.687 9980 99.8999
132.804 10500 102.47
132.922 9831 99.1514
133.039 9446 97.1905
133.157 8886 94.2656
133.274 8708 93.3167
133.392 8349 91.3729
133.509 7985 89.3588
133.627 7940 89.1067
133.744 7879 88.7637
133.862 8076 89.8666
133.979 8197 90.5373
134.097 8438 91.8586
134.214 8672 93.1236
134.332 8412 91.717
134.449 8654 93.0269
134.567 8600 92.7362
134.684 8597 92.72
134.802 8634 92.9193
134.919 8467 92.0163
135.037 8418 91.7497
135.154 8155 90.305
135.272 7693 87.7097
135.389 7541 86.8389
135.507 7199 84.8469
135.624 6856 82.801
135.742 7126 84.4156
135.859 7503 86.6199
135.977 7617 87.2754
136.094 7706 87.7838
136.211 7778 88.193
136.329 7680 87.6356
136.446 7596 87.155
136.564 7294 85.4049
136.681 7121 84.386
136.798 6723 81.9939
136.915 6467 80.4177
137.033 6213 78.8226
137.15 6023 77.608
137.267 5998 77.4468
137.384 6174 78.5748
137.502 6412 80.075
137.619 6384 79.8999
137.736 6805 82.4924
137.853 6725 82.0061
137.97 6816 82.5591
138.087 7182 84.7467
138.204 7352 85.7438
138.321 7426 86.1742
138.438 7616 87.2697
138.555 7634 87.3728
138.672 7690 87.6926
138.788 7426 86.1742
138.905 7376 85.8836
139.022 7196 84.8292
139.139 7010 83.7257
139.255 7138 84.4867
139.372 7451 86.3192
139.488 8041 89.6716
139.605 8454 91.9456
139.721 8426 91.7932
139.838 8596 92.7146
139.954 8629 92.8924
140.071 8689 93.2148
140.187 8696 93.2523
140.303 8441 91.8749
140.419 7982 89.342
140.535 7793 88.278
140.652 7585 87.0919
140.768 0 1
140.884 0 1
141 0 1
141.115 0 1
141.231 0 1
141.347 0 1
141.463 0 1
141.578 0 1
141.694 0 1
144.104 0 1
144.219 0 1
144.335 0 1
144.45 0 1
144.566 0 1
144.682 0 1
144.798 0 1
144.914 0 1
145.03 0 1
145.146 7408 86.0697
145.262 7392 85.9767
145.378 7143 84.5163
145.494 6972 83.4985
145.61 6569 81.0494
145.726 6287 79.2906
145.842 6157 78.4666
145.959 6015 77.5564
146.075 6181 78.6193
146.192 6256 79.0949
146.308 6222 78.8797
146.425 6389 79.9312
146.541 6256 79.0949
146.658 6368 79.7997
146.774 6251 79.0633
146.891 6494 80.5854
147.008 6342 79.6367
147.125 6534 80.8332
147.241 6417 80.1062
147.358 6283 79.2654
147.475 6077 77.9551
147.592 5852 76.4984
147.709 5536 74.4043
147.826 5521 74.3034
147.943 5549 74.4916
148.06 5617 74.9466
148.177 6000 77.4597
148.294 5855 76.518
148.411 5941 77.0779
148.528 5846 76.4591
148.645 5844 76.4461
148.762 5760 75.8947
148.88 5548 74.4849
148.997 5652 75.1798
149.114 5073 71.225
149.231 5121 71.5612
149.349 4973 70.5195
149.466 4809 69.347
149.583 4721 68.7095
149.701 4752 68.9348
149.818 5017 70.8308
149.935 4967 70.4769
150.053 5026 70.8943
150.17 5145 71.7287
150.287 5080 71.2741
150.405 5286 72.7049
150.522 5244 72.4155
150.64 5407 73.5323
150.757 5344 73.1027
150.875 5474 73.9865
150.992 5350 73.1437
151.11 5464 73.9189
151.227 5312 72.8835
151.344 5117 71.5332
151.462 5002 70.7248
151.579 4968 70.484
151.697 5357 73.1915
151.814 5664 75.2596
151.932 5805 76.1906
152.049 5722 75.6439
152.167 5865 76.5833
152.284 5877 76.6616
152.402 5779 76.0197
152.519 5801 76.1643
152.636 5723 75.6505
152.754 5480 74.027
152.871 5501 74.1687
152.989 5249 72.45
153.106 5325 72.9726
153.223 5182 71.9861
153.341 5348 73.13
153.458 5542 74.4446
153.575 5551 74.505
153.693 5719 75.6241
153.81 5608 74.8866
153.927 5770 75.9605
154.044 5992 77.408
154.162 5930 77.0065
154.279 6274 79.2086
154.396 6305 79.404
154.513 6351 79.6932
154.63 6571 81.0617
154.747 6468 80.4239
154.864 6545 80.9012
154.981 6292 79.3221
155.098 6164 78.5111
155.215 6423 80.1436
155.332 6636 81.4616
155.449 6810 82.5227
155.566 6933 83.2646
155.683 7029 83.8391
155.8 7068 84.0714
155.917 7183 84.7526
156.033 7243 85.1058
156.15 0 1
156.267 0 1
156.383 0 1
156.5 0 1
156.617 0 1
156.733 0 1
156.85 0 1
156.966 0 1
157.082 0 1
157.199 0 1
157.315 0 1
157.431 0 1
157.547 0 1
157.664 0 1
157.78 0 1
157.896 0 1
158.012 0 1
158.128 0 1
158.244 0 1
158.359 0 1
158.475 0 1
158.591 0 1
158.706 0 1
