
6.15755 0 1
6.2731 0 1
6.3887 0 1
6.50437 0 1
6.62009 0 1
6.73587 0 1
6.8517 0 1
6.96759 0 1
7.08353 0 1
7.19952 0 1
7.31557 0 1
7.43166 0 1
7.54781 0 1
7.664 0 1
7.78024 0 1
7.89653 0 1
8.01286 0 1
8.12924 0 1
8.24567 0 1
8.36213 0 1
8.47864 0 1
8.59519 0 1
8.71178 0 1
8.82841 0 1
8.94508 0 1
9.06179 0 1
9.17853 0 1
9.29531 0 1
9.41212 0 1
9.52897 0 1
9.64584 0 1
9.76276 0 1
9.8797 0 1
9.99667 0 1
10.1137 0 1
10.2307 0 1
10.3478 0 1
10.4648 0 1
10.5819 0 1
10.6991 0 1
10.8162 0 1
10.9334 0 1
11.0506 0 1
11.1678 0 1
11.285 0 1
11.4023 0 1
11.5196 0 1
11.6369 0 1
11.7542 0 1
11.8715 0 1
11.9888 0 1
12.1062 0 1
12.2235 0 1
12.3409 0 1
12.4582 0 1
12.5756 0 1
12.693 0 1
12.8104 0 1
12.9278 0 1
13.0452 0 1
13.1626 0 1
13.28 0 1
13.3974 0 1
13.5149 0 1
13.6323 0 1
13.7497 0 1
13.8671 0 1
13.9845 0 1
14.1019 0 1
14.2193 0 1
14.3367 0 1
14.4541 0 1
14.5714 0 1
14.6888 0 1
14.8062 0 1
14.9235 0 1
15.0408 3051 55.2359
15.1581 3157 56.1872
15.2755 3233 56.8595
15.3927 3393 58.2495
15.51 3385 58.1808
15.6273 3283 57.2975
15.7445 3256 57.0614
15.8617 3147 56.0981
15.9789 3188 56.4624
16.0961 3213 56.6833
16.2132 3092 55.6058
16.3304 3033 55.0727
16.4475 2972 54.5161
16.5646 3006 54.827
16.6816 2850 53.3854
16.7986 2839 53.2823
16.9156 2840 53.2917
17.0326 2682 51.788
17.1496 2687 51.8363
17.2665 2663 51.6043
17.3833 2715 52.1057
17.5002 2624 51.225
17.617 2565 50.6458
17.7338 2639 51.3712
17.8505 2539 50.3885
17.9672 2541 50.4083
18.0839 2538 50.3786
18.2005 2673 51.7011
18.3171 2683 51.7977
18.4337 2609 51.0784
18.5502 2548 50.4777
18.6666 2557 50.5668
18.7831 2819 53.0943
18.8994 2713 52.0865
19.0158 2747 52.4118
19.1321 2669 51.6624
19.2483 2588 50.8724
19.3645 2448 49.4773
19.4806 2348 48.4562
19.5967 2173 46.6154
19.7128 2027 45.0222
19.8288 1935 43.9886
19.9447 1672 40.8901
20.0606 0 1
20.1764 0 1
20.2922 0 1
20.4079 0 1
20.5236 0 1
20.6392 0 1
20.7548 0 1
20.8702 0 1
23.3078 0 1
23.4233 0 1
23.539 0 1
23.6547 0 1
23.7704 0 1
23.8862 0 1
24.0021 0 1
24.118 0 1
24.234 0 1
24.35 0 1
24.4661 1271 35.6511
24.5822 1393 37.3229
24.6984 1586 39.8246
24.8146 1742 41.7373
24.9309 2038 45.1442
25.0472 2256 47.4974
25.1636 2572 50.7149
25.28 2605 51.0392
25.3965 2736 52.3068
25.513 2763 52.5642
25.6296 2961 54.4151
25.7462 2890 53.7587
25.8628 2949 54.3047
25.9795 2779 52.7162
26.0962 2656 51.5364
26.213 2634 51.3225
26.3298 2486 49.8598
26.4466 2362 48.6004
26.5635 2345 48.4252
26.6804 2411 49.1019
26.7973 2469 49.689
26.9143 2372 48.7032
27.0313 2179 46.6798
27.1483 2233 47.2546
27.2653 2356 48.5386
27.3824 2513 50.1298
27.4996 2468 49.679
27.6167 2437 49.366
27.7339 2503 50.03
27.8511 2412 49.1121
27.9683 2495 49.95
28.0855 2529 50.2892
28.2028 2573 50.7247
28.3201 2549 50.4876
28.4374 2486 49.8598
28.5547 2577 50.7642
28.6721 2529 50.2892
28.7894 2601 51
28.9068 2574 50.7346
29.0242 2489 49.8899
29.1416 2535 50.3488
29.259 2431 49.3052
29.3764 2369 48.6724
29.4939 2300 47.9583
29.6113 2314 48.1041
29.7288 2204 46.9468
29.8463 2101 45.8367
29.9638 2237 47.2969
30.0812 2209 47
30.1987 2324 48.2079
30.3162 2247 47.4025
30.4337 2238 47.3075
30.5512 2198 46.8828
30.6687 2208 46.9894
30.7862 2352 48.4974
30.9037 2474 49.7393
31.0212 2473 49.7293
31.1387 2511 50.1099
31.2562 2551 50.5074
31.3737 2428 49.2747
31.4912 2572 50.7149
31.6087 2452 49.5177
31.7262 2472 49.7192
31.8436 2547 50.4678
31.9611 2392 48.9081
32.0785 2414 49.1325
32.1959 2464 49.6387
32.3134 2401 49
32.4308 2363 48.6107
32.5482 2277 47.7179
32.6655 2265 47.592
32.7829 2196 46.8615
32.9002 2226 47.1805
33.0176 2105 45.8803
33.1349 2089 45.7056
33.2522 1950 44.1588
33.3694 1996 44.6766
33.4867 1999 44.7102
33.6039 2020 44.9444
33.7211 2089 45.7056
33.8383 2122 46.0652
33.9554 2157 46.4435
34.0725 2268 47.6235
34.1896 2075 45.5522
34.3067 2095 45.7712
34.4237 2175 46.6369
34.5407 2252 47.4552
34.6577 2349 48.4665
34.7746 2292 47.8748
34.8915 2237 47.2969
35.0084 2190 46.7974
35.1252 2207 46.9787
35.242 2137 46.2277
35.3587 2239 47.3181
35.4755 2187 46.7654
35.5921 2212 47.0319
35.7088 2267 47.613
35.8254 2191 46.8081
35.9419 2110 45.9347
36.0584 2078 45.5851
36.1749 2100 45.8258
36.2913 2026 45.0111
36.4077 1998 44.699
36.524 1839 42.8836
36.6403 1722 41.497
36.7565 1599 39.9875
36.8727 1474 38.3927
36.9889 1426 37.7624
37.1049 1202 34.6699
37.221 0 1
37.3369 0 1
37.4529 0 1
37.5687 0 1
37.6845 0 1
37.8003 0 1
37.916 0 1
38.0316 0 1
38.1472 0 1
40.5851 0 1
40.7008 0 1
40.8164 0 1
40.9322 0 1
41.048 0 1
41.1639 0 1
41.2798 0 1
41.3958 0 1
41.5118 0 1
41.6279 0 1
41.744 938 30.6268
41.8602 1146 33.8526
41.9765 1218 34.8999
42.0928 1283 35.819
42.2091 1357 36.8375
42.3255 1455 38.1445
42.4419 1526 39.064
42.5584 1585 39.8121
42.675 1705 41.2916
42.7915 1719 41.4608
42.9081 1689 41.0974
43.0248 1713 41.3884
43.1415 1591 39.8873
43.2582 1579 39.7366
43.375 1686 41.0609
43.4918 1735 41.6533
43.6087 1688 41.0853
43.7256 1562 39.5221
43.8425 1578 39.724
43.9595 1645 40.5586
44.0765 1665 40.8044
44.1935 1640 40.4969
44.3106 1695 41.1704
44.4277 1673 40.9023
44.5448 1740 41.7133
44.6619 1712 41.3763
44.7791 1781 42.2019
44.8963 1765 42.0119
45.0136 1634 40.4228
45.1308 1775 42.1307
45.2481 1740 41.7133
45.3654 1808 42.5206
45.4827 1719 41.4608
45.6001 1659 40.7308
45.7174 1605 40.0625
45.8348 1577 39.7115
45.9522 1637 40.4599
46.0697 1666 40.8167
46.1871 1605 40.0625
46.3046 1663 40.7799
46.422 1689 41.0974
46.5395 1622 40.2741
46.657 1574 39.6737
46.7745 1570 39.6232
46.892 1647 40.5832
47.0096 1665 40.8044
47.1271 1742 41.7373
47.2446 1670 40.8656
47.3622 1614 40.1746
47.4797 1588 39.8497
47.5973 1591 39.8873
47.7149 1756 41.9047
47.8324 1706 41.3038
47.95 1704 41.2795
48.0675 1680 40.9878
48.1851 1750 41.833
48.3027 1780 42.19
48.4202 1779 42.1782
48.5378 1678 40.9634
48.6554 1706 41.3038
48.7729 1767 42.0357
48.8904 1721 41.4849
49.008 1637 40.4599
49.1255 1680 40.9878
49.243 1590 39.8748
49.3605 1544 39.2938
49.478 1536 39.1918
49.5955 1555 39.4335
49.713 1557 39.4588
49.8304 1680 40.9878
49.9479 1642 40.5216
50.0653 1638 40.4722
50.1827 1634 40.4228
50.3001 1627 40.3361
50.4175 1610 40.1248
50.5348 1630 40.3733
50.6521 1809 42.5323
50.7694 1778 42.1663
50.8867 1679 40.9756
51.004 1541 39.2556
51.1212 1666 40.8167
51.2384 1718 41.4488
51.3556 1730 41.5933
51.4727 1765 42.0119
51.5899 1857 43.0929
51.707 1746 41.7852
51.824 1685 41.0488
51.9411 1670 40.8656
52.0581 1734 41.6413
52.175 1799 42.4146
52.2919 1765 42.0119
52.4088 1681 41
52.5257 1728 41.5692
52.6425 1654 40.6694
52.7593 1494 38.6523
52.876 1615 40.1871
52.9927 1461 38.223
53.1094 1503 38.7685
53.226 1451 38.092
53.3426 1495 38.6652
53.4591 1495 38.6652
53.5756 1479 38.4578
53.692 1455 38.1445
53.8084 1444 38
53.9248 1422 37.7094
54.0411 1538 39.2173
54.1573 1709 41.3401
54.2735 0 1
54.3896 0 1
54.5057 0 1
54.6217 0 1
54.7377 0 1
54.8537 0 1
54.9695 0 1
55.0853 0 1
55.2011 0 1
55.3168 0 1
55.4324 0 1
57.824 0 1
57.9396 0 1
58.0553 0 1
58.1711 0 1
58.2869 0 1
58.4028 0 1
58.5187 0 1
58.6347 0 1
58.7508 0 1
58.8669 0 1
58.983 11080 105.262
59.0992 13219 114.974
59.2155 15005 122.495
59.3318 16711 129.271
59.4482 19497 139.632
59.5646 21604 146.983
59.681 24021 154.987
59.7975 25817 160.677
59.9141 28205 167.943
60.0306 32339 179.83
60.1473 37290 193.106
60.2639 41520 203.765
60.3807 44216 210.276
60.4974 45729 213.843
60.6142 46554 215.764
60.731 46834 216.412
60.8479 47203 217.263
60.9648 47365 217.635
61.0818 45867 214.166
61.1987 45672 213.71
61.3158 42878 207.07
61.4328 40657 201.636
61.5499 37155 192.756
61.667 33004 181.67
61.7841 28078 167.565
61.9013 23300 152.643
62.0185 19580 139.929
62.1357 15980 126.412
62.253 13164 114.734
62.3702 10624 103.073
62.4875 8629 92.8924
62.6049 6945 83.3367
62.7222 5396 73.4575
62.8396 4352 65.9697
62.9569 3723 61.0164
63.0743 3094 55.6237
63.1918 2689 51.8556
63.3092 2500 50
63.4267 2269 47.634
63.5441 2199 46.8935
63.6616 2103 45.8585
63.7791 2128 46.1303
63.8966 2171 46.594
64.0142 2183 46.7226
64.1317 2152 46.3897
64.2492 2051 45.288
64.3668 1960 44.2719
64.4843 2081 45.618
64.6019 1940 44.0454
64.7195 1938 44.0227
64.837 1963 44.3058
64.9546 1850 43.0116
65.0722 1791 42.3202
65.1898 1755 41.8927
65.3074 1795 42.3674
65.4249 1740 41.7133
65.5425 1848 42.9884
65.6601 1880 43.359
65.7777 1981 44.5084
65.8952 1948 44.1362
66.0128 1952 44.1814
66.1304 1863 43.1625
66.2479 2004 44.7661
66.3655 2000 44.7214
66.483 2001 44.7325
66.6005 1949 44.1475
66.718 2001 44.7325
66.8355 1880 43.359
66.953 1952 44.1814
67.0705 1881 43.3705
67.1879 1932 43.9545
67.3054 2054 45.3211
67.4228 2144 46.3033
67.5402 2022 44.9667
67.6576 2057 45.3542
67.7749 2052 45.299
67.8923 2005 44.7772
68.0096 2017 44.911
68.1269 1922 43.8406
68.2442 1943 44.0795
68.3614 1951 44.1701
68.4787 1856 43.0813
68.5958 1801 42.4382
68.713 1820 42.6615
68.8302 1675 40.9268
68.9473 1692 41.1339
69.0643 1702 41.2553
69.1814 1731 41.6053
69.2984 1853 43.0465
69.4154 1911 43.715
69.5323 1947 44.1248
69.6492 1942 44.0681
69.7661 1913 43.7379
69.8829 1896 43.5431
69.9997 1806 42.4971
70.1165 1853 43.0465
70.2332 1728 41.5692
70.3499 1701 41.2432
70.4665 1600 40
70.5831 1545 39.3065
70.6996 1472 38.3667
70.8161 1378 37.1214
70.9326 1366 36.9594
71.049 1317 36.2905
71.1653 1176 34.2929
71.2817 1156 34
71.3979 1011 31.7962
71.5141 1004 31.686
71.6303 905 30.0832
71.7464 763 27.6225
71.8624 0 1
71.9784 0 1
72.0944 0 1
72.2102 0 1
72.3261 0 1
72.4418 0 1
72.5575 0 1
72.6732 0 1
75.1054 0 1
75.2209 0 1
75.3365 0 1
75.4521 0 1
75.5678 0 1
75.6835 0 1
75.7993 0 1
75.9151 0 1
76.031 0 1
76.147 1202 34.6699
76.263 1318 36.3043
76.3791 1564 39.5474
76.4952 1664 40.7922
76.6113 1705 41.2916
76.7276 1724 41.5211
76.8438 1705 41.2916
76.9601 1690 41.1096
77.0765 1682 41.0122
77.1929 1689 41.0974
77.3093 1638 40.4722
77.4258 1724 41.5211
77.5423 1614 40.1746
77.6589 1502 38.7556
77.7755 1542 39.2683
77.8921 1495 38.6652
78.0088 1514 38.9102
78.1256 1466 38.2884
78.2423 1504 38.7814
78.3591 1627 40.3361
78.4759 1673 40.9023
78.5928 1662 40.7676
78.7097 1744 41.7612
78.8266 1542 39.2683
78.9436 1777 42.1545
79.0606 1764 42
79.1776 1685 41.0488
79.2946 1734 41.6413
79.4117 1652 40.6448
79.5288 1701 41.2432
79.6459 1668 40.8412
79.7631 1682 41.0122
79.8802 1790 42.3084
79.9974 1750 41.833
80.1147 1810 42.5441
80.2319 1788 42.2847
80.3491 1778 42.1663
80.4664 1819 42.6497
80.5837 1774 42.1189
80.701 1774 42.1189
80.8183 1666 40.8167
80.9357 1708 41.328
81.053 1731 41.6053
81.1704 1765 42.0119
81.2877 1646 40.5709
81.4051 1614 40.1746
81.5225 1571 39.6358
81.6399 1548 39.3446
81.7573 1580 39.7492
81.8747 1479 38.4578
81.9922 1508 38.833
82.1096 1632 40.398
82.227 1749 41.821
82.3444 1633 40.4104
82.4619 1725 41.5331
82.5793 1751 41.845
82.6967 1582 39.7744
82.8142 1714 41.4005
82.9316 1778 42.1663
83.049 1762 41.9762
83.1664 1764 42
83.2838 1791 42.3202
83.4012 1668 40.8412
83.5186 1703 41.2674
83.636 1792 42.332
83.7534 1808 42.5206
83.8708 1853 43.0465
83.9881 1817 42.6263
84.1055 1877 43.3244
84.2228 1812 42.5676
84.3401 1864 43.1741
84.4575 1844 42.9418
84.5747 1758 41.9285
84.692 1820 42.6615
84.8093 1754 41.8808
84.9265 1760 41.9524
85.0437 1692 41.1339
85.1609 1633 40.4104
85.2781 1575 39.6863
85.3952 1531 39.128
85.5123 1568 39.598
85.6294 1678 40.9634
85.7465 1732 41.6173
85.8636 1800 42.4264
85.9806 1816 42.6146
86.0976 1877 43.3244
86.2145 1761 41.9643
86.3315 1794 42.3556
86.4484 1751 41.845
86.5652 1915 43.7607
86.682 1777 42.1545
86.7988 1866 43.1972
86.9156 1760 41.9524
87.0323 1758 41.9285
87.149 1727 41.5572
87.2657 1845 42.9535
87.3823 1824 42.7083
87.4988 1795 42.3674
87.6154 1792 42.332
87.7318 1766 42.0238
87.8483 1621 40.2616
87.9647 1540 39.2428
88.081 1432 37.8418
88.1973 1303 36.0971
88.3136 1231 35.0856
88.4298 1209 34.7707
88.546 1024 32
88.6621 1011 31.7962
88.7781 892 29.8664
88.8942 0 1
89.0101 0 1
89.126 0 1
89.2419 0 1
89.3577 0 1
89.4734 0 1
89.5891 0 1
89.7047 0 1
89.8203 0 1
89.9358 0 1
92.3269 0 1
92.4424 0 1
92.558 0 1
92.6736 0 1
92.7893 0 1
92.905 0 1
93.0208 0 1
93.1366 0 1
93.2525 0 1
93.3685 0 1
93.4845 0 1
93.6005 1423 37.7227
93.7167 1479 38.4578
93.8328 1658 40.7185
93.949 1715 41.4126
94.0653 1765 42.0119
94.1816 1766 42.0238
94.2979 1737 41.6773
94.4143 1692 41.1339
94.5307 1591 39.8873
94.6472 1509 38.8458
94.7637 1591 39.8873
94.8803 1647 40.5832
94.9969 1815 42.6028
95.1135 1726 41.5452
95.2302 1808 42.5206
95.3469 1763 41.9881
95.4637 1807 42.5088
95.5805 1809 42.5323
95.6973 1872 43.2666
95.8142 1813 42.5793
95.9311 1780 42.19
96.048 1797 42.391
96.1649 1732 41.6173
96.2819 1810 42.5441
96.3989 1821 42.6732
96.516 1944 44.0908
96.633 1880 43.359
96.7501 1892 43.4971
96.8673 1903 43.6234
96.9844 1928 43.909
97.1016 1919 43.8064
97.2188 1852 43.0349
97.336 1799 42.4146
97.4532 1864 43.1741
97.5704 1847 42.9767
97.6877 1800 42.4264
97.805 1761 41.9643
97.9223 1775 42.1307
98.0396 1710 41.3521
98.1569 1650 40.6202
98.2743 1704 41.2795
98.3916 1717 41.4367
98.509 1728 41.5692
98.6264 1876 43.3128
98.7438 1864 43.1741
98.8612 1843 42.9302
98.9786 1960 44.2719
99.096 1849 43
99.2134 1919 43.8064
99.3308 1977 44.4635
99.4482 1983 44.5309
99.5656 2049 45.2659
99.6831 1916 43.7721
99.8005 1951 44.1701
99.9179 1945 44.1022
100.035 1953 44.1928
100.153 1984 44.5421
100.27 2010 44.833
100.388 1951 44.1701
100.505 2083 45.6399
100.622 1934 43.9773
100.74 1888 43.4511
100.857 1990 44.6094
100.975 1881 43.3705
101.092 1872 43.2666
101.209 1901 43.6005
101.327 2099 45.8148
101.444 1930 43.9318
101.561 1917 43.7836
101.679 1823 42.6966
101.796 1812 42.5676
101.913 1790 42.3084
102.03 1781 42.2019
102.148 1787 42.2729
102.265 1988 44.587
102.382 1915 43.7607
102.499 1929 43.9204
102.616 2042 45.1885
102.733 2111 45.9456
102.851 2022 44.9667
102.968 2096 45.7821
103.085 2118 46.0217
103.202 2037 45.1331
103.319 2023 44.9778
103.436 2032 45.0777
103.552 2043 45.1996
103.669 2122 46.0652
103.786 2098 45.8039
103.903 2182 46.7119
104.02 2138 46.2385
104.137 2163 46.5081
104.253 2066 45.4533
104.37 2015 44.8888
104.487 2050 45.2769
104.603 2089 45.7056
104.72 2051 45.288
104.836 2001 44.7325
104.953 2020 44.9444
105.069 1892 43.4971
105.186 1795 42.3674
105.302 1623 40.2865
105.418 1569 39.6106
105.535 1479 38.4578
105.651 1339 36.5923
105.767 1317 36.2905
105.883 1165 34.1321
105.999 1065 32.6343
106.115 0 1
106.231 0 1
106.347 0 1
106.463 0 1
106.579 0 1
106.694 0 1
106.81 0 1
106.926 0 1
107.041 0 1
107.157 0 1
109.576 0 1
109.692 0 1
109.807 0 1
109.923 0 1
110.039 0 1
110.155 0 1
110.27 0 1
110.386 0 1
110.502 0 1
110.618 934 30.5614
110.735 1181 34.3657
110.851 1277 35.7351
110.967 1468 38.3145
111.083 1573 39.6611
111.199 1680 40.9878
111.316 1816 42.6146
111.432 1913 43.7379
111.549 1985 44.5533
111.665 1966 44.3396
111.782 1986 44.5646
111.898 1864 43.1741
112.015 1846 42.9651
112.132 1840 42.8952
112.248 1810 42.5441
112.365 1865 43.1856
112.482 1939 44.0341
112.599 1929 43.9204
112.716 1920 43.8178
112.832 1860 43.1277
112.949 1822 42.6849
113.066 1767 42.0357
113.183 1826 42.7317
113.3 1801 42.4382
113.417 1785 42.2493
113.534 1886 43.4281
113.652 1782 42.2137
113.769 1928 43.909
113.886 1749 41.821
114.003 1719 41.4608
114.12 1751 41.845
114.238 1697 41.1947
114.355 1597 39.9625
114.472 1628 40.3485
114.589 1626 40.3237
114.707 1684 41.0366
114.824 1807 42.5088
114.942 1783 42.2256
115.059 1894 43.5201
115.176 1931 43.9431
115.294 1820 42.6615
115.411 1845 42.9535
115.529 1708 41.328
115.646 1704 41.2795
115.764 1770 42.0714
115.881 1817 42.6263
115.999 1844 42.9418
116.116 1819 42.6497
116.234 1755 41.8927
116.351 1765 42.0119
116.469 1772 42.0951
116.586 1755 41.8927
116.704 1733 41.6293
116.821 1667 40.8289
116.939 1712 41.3763
117.056 1709 41.3401
117.174 1741 41.7253
117.291 1705 41.2916
117.409 1709 41.3401
117.526 1716 41.4246
117.644 1661 40.7554
117.761 1677 40.9512
117.879 1522 39.0128
117.996 1460 38.2099
118.114 1374 37.0675
118.231 1520 38.9872
118.349 1620 40.2492
118.466 1812 42.5676
118.584 1835 42.8369
118.701 1815 42.6028
118.819 1826 42.7317
118.936 1821 42.6732
119.053 1777 42.1545
119.171 1749 41.821
119.288 1786 42.2611
119.405 1890 43.4741
119.523 1907 43.6692
119.64 1828 42.7551
119.757 1942 44.0681
119.875 1943 44.0795
119.992 1918 43.795
120.109 1826 42.7317
120.226 1793 42.3438
120.343 1684 41.0366
120.46 1665 40.8044
120.578 1702 41.2553
120.695 1720 41.4729
120.812 1656 40.694
120.929 1648 40.5956
121.046 1613 40.1622
121.163 1524 39.0384
121.279 1569 39.6106
121.396 1466 38.2884
121.513 1391 37.2961
121.63 1274 35.6931
121.747 1172 34.2345
121.863 1223 34.9714
121.98 1195 34.5688
122.097 1302 36.0832
122.213 1390 37.2827
122.33 1314 36.2491
122.446 1269 35.623
122.563 1212 34.8138
122.679 1107 33.2716
122.795 1020 31.9374
122.912 933 30.545
123.028 918 30.2985
123.144 831 28.8271
123.26 834 28.8791
123.377 0 1
123.493 0 1
123.609 0 1
123.725 0 1
123.84 0 1
123.956 0 1
124.072 0 1
124.188 0 1
124.303 0 1
124.419 0 1
126.852 0 1
126.968 0 1
127.083 0 1
127.199 0 1
127.315 0 1
127.431 0 1
127.547 0 1
127.663 0 1
127.779 0 1
127.895 0 1
128.011 0 1
128.127 0 1
128.243 0 1
128.359 1567 39.5854
128.476 1536 39.1918
128.592 1581 39.7618
128.708 1654 40.6694
128.825 1784 42.2374
128.941 1744 41.7612
129.058 1694 41.1582
129.174 1750 41.833
129.291 1700 41.2311
129.408 1684 41.0366
129.524 1757 41.9166
129.641 1749 41.821
129.758 1804 42.4735
129.875 1867 43.2088
129.992 1796 42.3792
130.108 1849 43
130.225 1883 43.3935
130.342 1878 43.3359
130.459 1795 42.3674
130.576 1819 42.6497
130.693 1739 41.7013
130.81 1833 42.8135
130.928 2105 45.8803
131.045 2166 46.5403
131.162 2527 50.2693
131.279 2467 49.6689
131.396 2718 52.1344
131.513 2703 51.9904
131.631 2883 53.6936
131.748 2934 54.1664
131.865 3019 54.9454
131.983 3145 56.0803
132.1 3220 56.745
132.217 3484 59.0254
132.335 3861 62.1369
132.452 4116 64.1561
132.57 4435 66.5958
132.687 4781 69.1448
132.804 5472 73.973
132.922 5935 77.039
133.039 6926 83.2226
133.157 7990 89.3868
133.274 9154 95.6765
133.392 10399 101.975
133.509 12809 113.177
133.627 15003 122.487
133.744 17027 130.488
133.862 18556 136.22
133.979 19864 140.94
134.097 19771 140.609
134.214 16579 128.759
134.332 11693 108.134
134.449 11809 108.669
134.567 19887 141.021
134.684 26843 163.838
134.802 29753 172.491
134.919 31762 178.219
135.037 32747 180.961
135.154 33527 183.104
135.272 34524 185.806
135.389 35827 189.28
135.507 36509 191.073
135.624 37951 194.81
135.742 38258 195.597
135.859 39186 197.955
135.977 40773 201.923
136.094 42190 205.402
136.211 43213 207.877
136.329 44451 210.834
136.446 44686 211.391
136.564 45357 212.972
136.681 46722 216.153
136.798 48439 220.089
136.915 50879 225.564
137.033 52813 229.811
137.15 55071 234.672
137.267 57674 240.154
137.384 58721 242.324
137.502 60735 246.445
137.619 61955 248.908
137.736 61682 248.359
137.853 55187 234.919
137.97 47574 218.115
138.087 38985 197.446
138.204 44858 211.797
138.321 63650 252.29
138.438 78747 280.619
138.555 87464 295.743
138.672 92152 303.565
138.788 96537 310.704
138.905 100170 316.496
139.022 103873 322.293
139.139 102592 320.3
139.255 97872 312.845
139.372 94698 307.73
139.488 95411 308.887
139.605 97631 312.46
139.721 99227 315.003
139.838 99940 316.133
139.954 102150 319.609
140.071 102724 320.506
140.187 104742 323.639
140.303 103304 321.409
140.419 103468 321.664
140.535 102247 319.761
140.652 97617 312.437
140.768 0 1
140.884 0 1
141 0 1
141.115 0 1
141.231 0 1
141.347 0 1
141.463 0 1
141.578 0 1
141.694 0 1
144.104 0 1
144.219 0 1
144.335 0 1
144.45 0 1
144.566 0 1
144.682 0 1
144.798 0 1
144.914 0 1
145.03 0 1
145.146 92026 303.358
145.262 118851 344.748
145.378 134931 367.33
145.494 140903 375.37
145.61 141828 376.601
145.726 136491 369.447
145.842 130438 361.162
145.959 123461 351.37
146.075 116413 341.193
146.192 109683 331.184
146.308 102722 320.503
146.425 96114 310.023
146.541 89608 299.346
146.658 83974 289.783
146.774 78961 281
146.891 75411 274.611
147.008 74341 272.655
147.125 71564 267.514
147.241 70231 265.011
147.358 67329 259.478
147.475 63862 252.709
147.592 60347 245.656
147.709 57663 240.131
147.826 56846 238.424
147.943 56934 238.608
148.06 55712 236.034
148.177 53732 231.802
148.294 51629 227.22
148.411 48913 221.163
148.528 45691 213.755
148.645 42294 205.655
148.762 39194 197.975
148.88 36372 190.714
148.997 34112 184.694
149.114 31350 177.059
149.231 30105 173.508
149.349 28699 169.408
149.466 26304 162.185
149.583 25546 159.831
149.701 24314 155.929
149.818 23149 152.148
149.935 21972 148.23
150.053 19799 140.709
150.17 17394 131.886
150.287 15254 123.507
150.405 14613 120.884
150.522 14757 121.478
150.64 14661 121.083
150.757 14350 119.791
150.875 14037 118.478
150.992 13228 115.013
151.11 12125 110.114
151.227 10593 102.922
151.344 10082 100.409
151.462 10149 100.742
151.579 9948 99.7397
151.697 10006 100.03
151.814 9861 99.3026
151.932 9597 97.9643
152.049 9439 97.1545
152.167 9249 96.1717
152.284 8844 94.0425
152.402 8856 94.1063
152.519 8373 91.5041
152.636 8111 90.0611
152.754 7968 89.2637
152.871 7705 87.7781
152.989 7486 86.5217
153.106 7306 85.4751
153.223 6962 83.4386
153.341 7036 83.8809
153.458 6565 81.0247
153.575 6396 79.975
153.693 5863 76.5702
153.81 5127 71.6031
153.927 4844 69.5989
154.044 4756 68.9638
154.162 5177 71.9514
154.279 5451 73.8309
154.396 5627 75.0133
154.513 5633 75.0533
154.63 5559 74.5587
154.747 5683 75.3857
154.864 5573 74.6525
154.981 5443 73.7767
155.098 5229 72.3118
155.215 5154 71.7914
155.332 5293 72.753
155.449 5515 74.263
155.566 5586 74.7395
155.683 5609 74.8933
155.8 5714 75.591
155.917 5621 74.9733
156.033 5815 76.2561
156.15 0 1
156.267 0 1
156.383 0 1
156.5 0 1
156.617 0 1
156.733 0 1
156.85 0 1
156.966 0 1
157.082 0 1
157.199 0 1
157.315 0 1
157.431 0 1
157.547 0 1
157.664 0 1
157.78 0 1
157.896 0 1
158.012 0 1
158.128 0 1
158.244 0 1
158.359 0 1
158.475 0 1
158.591 0 1
158.706 0 1
