
6.15755 0 1
6.2731 0 1
6.3887 0 1
6.50437 0 1
6.62009 0 1
6.73587 0 1
6.8517 0 1
6.96759 0 1
7.08353 0 1
7.19952 0 1
7.31557 0 1
7.43166 0 1
7.54781 0 1
7.664 0 1
7.78024 0 1
7.89653 0 1
8.01286 0 1
8.12924 0 1
8.24567 0 1
8.36213 0 1
8.47864 0 1
8.59519 0 1
8.71178 0 1
8.82841 0 1
8.94508 0 1
9.06179 0 1
9.17853 0 1
9.29531 0 1
9.41212 0 1
9.52897 0 1
9.64584 0 1
9.76276 0 1
9.8797 0 1
9.99667 0 1
10.1137 0 1
10.2307 0 1
10.3478 0 1
10.4648 0 1
10.5819 0 1
10.6991 0 1
10.8162 0 1
10.9334 0 1
11.0506 0 1
11.1678 0 1
11.285 0 1
11.4023 0 1
11.5196 0 1
11.6369 0 1
11.7542 0 1
11.8715 0 1
11.9888 0 1
12.1062 0 1
12.2235 0 1
12.3409 0 1
12.4582 0 1
12.5756 0 1
12.693 0 1
12.8104 0 1
12.9278 0 1
13.0452 0 1
13.1626 0 1
13.28 0 1
13.3974 0 1
13.5149 0 1
13.6323 0 1
13.7497 0 1
13.8671 0 1
13.9845 0 1
14.1019 0 1
14.2193 0 1
14.3367 0 1
14.4541 0 1
14.5714 0 1
14.6888 0 1
14.8062 0 1
14.9235 0 1
15.0408 2861 53.4883
15.1581 3171 56.3116
15.2755 3346 57.8446
15.3927 3351 57.8878
15.51 3321 57.6281
15.6273 3328 57.6888
15.7445 3090 55.5878
15.8617 3102 55.6956
15.9789 3019 54.9454
16.0961 2927 54.1018
16.2132 2919 54.0278
16.3304 3003 54.7996
16.4475 2837 53.2635
16.5646 2704 52
16.6816 2741 52.3546
16.7986 2817 53.0754
16.9156 2668 51.6527
17.0326 2622 51.2055
17.1496 2482 49.8197
17.2665 2654 51.517
17.3833 2528 50.2792
17.5002 2515 50.1498
17.617 2489 49.8899
17.7338 2578 50.774
17.8505 2640 51.3809
17.9672 2682 51.788
18.0839 2647 51.449
18.2005 2606 51.049
18.3171 2624 51.225
18.4337 2539 50.3885
18.5502 2491 49.9099
18.6666 2597 50.9608
18.7831 2551 50.5074
18.8994 2599 50.9804
19.0158 2603 51.0196
19.1321 2457 49.5681
19.2483 2373 48.7134
19.3645 2273 47.676
19.4806 2103 45.8585
19.5967 2147 46.3357
19.7128 2040 45.1664
19.8288 1886 43.4281
19.9447 1671 40.8779
20.0606 0 1
20.1764 0 1
20.2922 0 1
20.4079 0 1
20.5236 0 1
20.6392 0 1
20.7548 0 1
20.8702 0 1
23.3078 0 1
23.4233 0 1
23.539 0 1
23.6547 0 1
23.7704 0 1
23.8862 0 1
24.0021 0 1
24.118 0 1
24.234 0 1
24.35 0 1
24.4661 1147 33.8674
24.5822 1385 37.2156
24.6984 1510 38.8587
24.8146 1703 41.2674
24.9309 2016 44.8999
25.0472 2386 48.8467
25.1636 2433 49.3254
25.28 2634 51.3225
25.3965 2675 51.7204
25.513 2745 52.3927
25.6296 2667 51.643
25.7462 2845 53.3385
25.8628 2696 51.923
25.9795 2755 52.4881
26.0962 2662 51.5946
26.213 2597 50.9608
26.3298 2407 49.0612
26.4466 2323 48.1975
26.5635 2311 48.0729
26.6804 2254 47.4763
26.7973 2352 48.4974
26.9143 2349 48.4665
27.0313 2094 45.7602
27.1483 2171 46.594
27.2653 2291 47.8644
27.3824 2435 49.3457
27.4996 2368 48.6621
27.6167 2463 49.6286
27.7339 2214 47.0532
27.8511 2346 48.4355
27.9683 2420 49.1935
28.0855 2491 49.9099
28.2028 2543 50.4282
28.3201 2512 50.1199
28.4374 2438 49.3761
28.5547 2499 49.99
28.6721 2464 49.6387
28.7894 2540 50.3984
28.9068 2441 49.4065
29.0242 2513 50.1298
29.1416 2407 49.0612
29.259 2450 49.4975
29.3764 2366 48.6415
29.4939 2190 46.7974
29.6113 2184 46.7333
29.7288 2095 45.7712
29.8463 2070 45.4973
29.9638 2077 45.5741
30.0812 2180 46.6905
30.1987 2142 46.2817
30.3162 2198 46.8828
30.4337 2209 47
30.5512 2141 46.2709
30.6687 2151 46.3789
30.7862 2162 46.4973
30.9037 2400 48.9898
31.0212 2453 49.5278
31.1387 2426 49.2544
31.2562 2428 49.2747
31.3737 2438 49.3761
31.4912 2390 48.8876
31.6087 2410 49.0918
31.7262 2487 49.8698
31.8436 2381 48.7955
31.9611 2403 49.0204
32.0785 2381 48.7955
32.1959 2387 48.8569
32.3134 2309 48.0521
32.4308 2302 47.9792
32.5482 2201 46.9148
32.6655 2088 45.6946
32.7829 2119 46.0326
32.9002 2104 45.8694
33.0176 2157 46.4435
33.1349 1915 43.7607
33.2522 1972 44.4072
33.3694 1961 44.2832
33.4867 1926 43.8862
33.6039 2016 44.8999
33.7211 2069 45.4863
33.8383 2081 45.618
33.9554 2073 45.5302
34.0725 2198 46.8828
34.1896 2022 44.9667
34.3067 2036 45.1221
34.4237 2015 44.8888
34.5407 2301 47.9687
34.6577 2271 47.655
34.7746 2224 47.1593
34.8915 2112 45.9565
35.0084 2134 46.1952
35.1252 2157 46.4435
35.242 2221 47.1275
35.3587 2212 47.0319
35.4755 2179 46.6798
35.5921 2215 47.0638
35.7088 2157 46.4435
35.8254 2177 46.6583
35.9419 2087 45.6837
36.0584 2041 45.1774
36.1749 2009 44.8219
36.2913 2057 45.3542
36.4077 1891 43.4856
36.524 1866 43.1972
36.6403 1723 41.509
36.7565 1594 39.9249
36.8727 1425 37.7492
36.9889 1317 36.2905
37.1049 1240 35.2136
37.221 0 1
37.3369 0 1
37.4529 0 1
37.5687 0 1
37.6845 0 1
37.8003 0 1
37.916 0 1
38.0316 0 1
38.1472 0 1
40.5851 0 1
40.7008 0 1
40.8164 0 1
40.9322 0 1
41.048 0 1
41.1639 0 1
41.2798 0 1
41.3958 0 1
41.5118 0 1
41.6279 0 1
41.744 921 30.348
41.8602 1166 34.1467
41.9765 1232 35.0999
42.0928 1317 36.2905
42.2091 1440 37.9473
42.3255 1422 37.7094
42.4419 1542 39.2683
42.5584 1699 41.2189
42.675 1656 40.694
42.7915 1654 40.6694
42.9081 1635 40.4351
43.0248 1717 41.4367
43.1415 1637 40.4599
43.2582 1632 40.398
43.375 1612 40.1497
43.4918 1676 40.939
43.6087 1785 42.2493
43.7256 1652 40.6448
43.8425 1601 40.0125
43.9595 1636 40.4475
44.0765 1618 40.2244
44.1935 1677 40.9512
44.3106 1635 40.4351
44.4277 1746 41.7852
44.5448 1731 41.6053
44.6619 1811 42.5558
44.7791 1813 42.5793
44.8963 1776 42.1426
45.0136 1803 42.4617
45.1308 1826 42.7317
45.2481 1794 42.3556
45.3654 1774 42.1189
45.4827 1736 41.6653
45.6001 1679 40.9756
45.7174 1602 40.025
45.8348 1615 40.1871
45.9522 1623 40.2865
46.0697 1606 40.0749
46.1871 1694 41.1582
46.3046 1722 41.497
46.422 1690 41.1096
46.5395 1590 39.8748
46.657 1680 40.9878
46.7745 1580 39.7492
46.892 1611 40.1373
47.0096 1610 40.1248
47.1271 1667 40.8289
47.2446 1722 41.497
47.3622 1551 39.3827
47.4797 1523 39.0256
47.5973 1604 40.05
47.7149 1635 40.4351
47.8324 1739 41.7013
47.95 1705 41.2916
48.0675 1663 40.7799
48.1851 1718 41.4488
48.3027 1715 41.4126
48.4202 1727 41.5572
48.5378 1756 41.9047
48.6554 1671 40.8779
48.7729 1693 41.1461
48.8904 1571 39.6358
49.008 1598 39.975
49.1255 1601 40.0125
49.243 1522 39.0128
49.3605 1511 38.8716
49.478 1373 37.054
49.5955 1479 38.4578
49.713 1431 37.8286
49.8304 1499 38.7169
49.9479 1486 38.5487
50.0653 1634 40.4228
50.1827 1553 39.4081
50.3001 1541 39.2556
50.4175 1522 39.0128
50.5348 1503 38.7685
50.6521 1615 40.1871
50.7694 1595 39.9375
50.8867 1567 39.5854
51.004 1524 39.0384
51.1212 1521 39
51.2384 1600 40
51.3556 1597 39.9625
51.4727 1781 42.2019
51.5899 1607 40.0874
51.707 1671 40.8779
51.824 1801 42.4382
51.9411 1715 41.4126
52.0581 1633 40.4104
52.175 1576 39.6989
52.2919 1619 40.2368
52.4088 1618 40.2244
52.5257 1597 39.9625
52.6425 1616 40.1995
52.7593 1509 38.8458
52.876 1554 39.4208
52.9927 1494 38.6523
53.1094 1507 38.8201
53.226 1397 37.3765
53.3426 1595 39.9375
53.4591 1477 38.4318
53.5756 1538 39.2173
53.692 1427 37.7757
53.8084 1398 37.3898
53.9248 1380 37.1484
54.0411 1234 35.1283
54.1573 1206 34.7275
54.2735 0 1
54.3896 0 1
54.5057 0 1
54.6217 0 1
54.7377 0 1
54.8537 0 1
54.9695 0 1
55.0853 0 1
55.2011 0 1
55.3168 0 1
55.4324 0 1
57.824 0 1
57.9396 0 1
58.0553 0 1
58.1711 0 1
58.2869 0 1
58.4028 0 1
58.5187 0 1
58.6347 0 1
58.7508 0 1
58.8669 0 1
58.983 2517 50.1697
59.0992 2999 54.7631
59.2155 3252 57.0263
59.3318 3711 60.918
59.4482 3880 62.2896
59.5646 4192 64.7457
59.681 4274 65.3758
59.7975 4586 67.72
59.9141 4753 68.942
60.0306 5061 71.1407
60.1473 5252 72.4707
60.2639 5335 73.0411
60.3807 5409 73.5459
60.4974 5824 76.3151
60.6142 6388 79.925
60.731 6593 81.1973
60.8479 7405 86.0523
60.9648 8064 89.7998
61.0818 8971 94.7154
61.1987 9203 95.9323
61.3158 8622 92.8547
61.4328 7531 86.7813
61.5499 6487 80.5419
61.667 6246 79.0316
61.7841 7608 87.2238
61.9013 11253 106.08
62.0185 17200 131.149
62.1357 23581 153.561
62.253 28224 168
62.3702 31381 177.147
62.4875 32534 180.372
62.6049 32772 181.03
62.7222 31811 178.356
62.8396 29543 171.881
62.9569 26701 163.404
63.0743 23183 152.26
63.1918 20019 141.489
63.3092 17287 131.48
63.4267 15827 125.805
63.5441 14313 119.637
63.6616 12662 112.526
63.7791 10771 103.783
63.8966 8688 93.2094
64.0142 6769 82.2739
64.1317 5280 72.6636
64.2492 4160 64.4981
64.3668 3537 59.4727
64.4843 2931 54.1387
64.6019 2689 51.8556
64.7195 2419 49.1833
64.837 2272 47.6655
64.9546 2050 45.2769
65.0722 2006 44.7884
65.1898 1903 43.6234
65.3074 1862 43.1509
65.4249 1889 43.4626
65.5425 1960 44.2719
65.6601 2055 45.3321
65.7777 2183 46.7226
65.8952 2231 47.2335
66.0128 2266 47.6025
66.1304 2136 46.2169
66.2479 2167 46.551
66.3655 2137 46.2277
66.483 2120 46.0435
66.6005 2149 46.3573
66.718 2127 46.1194
66.8355 2050 45.2769
66.953 2115 45.9891
67.0705 2090 45.7165
67.1879 2048 45.2548
67.3054 2158 46.4543
67.4228 2094 45.7602
67.5402 2198 46.8828
67.6576 2188 46.7761
67.7749 2123 46.076
67.8923 2112 45.9565
68.0096 2069 45.4863
68.1269 1990 44.6094
68.2442 2031 45.0666
68.3614 1962 44.2945
68.4787 2030 45.0555
68.5958 1855 43.0697
68.713 1790 42.3084
68.8302 1668 40.8412
68.9473 1749 41.821
69.0643 1715 41.4126
69.1814 1859 43.1161
69.2984 1955 44.2154
69.4154 1976 44.4522
69.5323 1944 44.0908
69.6492 2004 44.7661
69.7661 1949 44.1475
69.8829 1930 43.9318
69.9997 1899 43.5775
70.1165 1847 42.9767
70.2332 1793 42.3438
70.3499 1864 43.1741
70.4665 1696 41.1825
70.5831 1604 40.05
70.6996 1488 38.5746
70.8161 1470 38.3406
70.9326 1380 37.1484
71.049 1215 34.8569
71.1653 1227 35.0286
71.2817 1201 34.6554
71.3979 1013 31.8277
71.5141 961 31
71.6303 911 30.1828
71.7464 792 28.1425
71.8624 0 1
71.9784 0 1
72.0944 0 1
72.2102 0 1
72.3261 0 1
72.4418 0 1
72.5575 0 1
72.6732 0 1
75.1054 0 1
75.2209 0 1
75.3365 0 1
75.4521 0 1
75.5678 0 1
75.6835 0 1
75.7993 0 1
75.9151 0 1
76.031 0 1
76.147 1168 34.176
76.263 1382 37.1753
76.3791 1498 38.704
76.4952 1694 41.1582
76.6113 1738 41.6893
76.7276 1726 41.5452
76.8438 1634 40.4228
76.9601 1723 41.509
77.0765 1654 40.6694
77.1929 1700 41.2311
77.3093 1635 40.4351
77.4258 1589 39.8623
77.5423 1601 40.0125
77.6589 1639 40.4846
77.7755 1644 40.5463
77.8921 1479 38.4578
78.0088 1448 38.0526
78.1256 1450 38.0789
78.2423 1500 38.7298
78.3591 1555 39.4335
78.4759 1626 40.3237
78.5928 1662 40.7676
78.7097 1622 40.2741
78.8266 1597 39.9625
78.9436 1624 40.2989
79.0606 1560 39.4968
79.1776 1633 40.4104
79.2946 1591 39.8873
79.4117 1737 41.6773
79.5288 1572 39.6485
79.6459 1677 40.9512
79.7631 1638 40.4722
79.8802 1683 41.0244
79.9974 1741 41.7253
80.1147 1792 42.332
80.2319 1721 41.4849
80.3491 1798 42.4028
80.4664 1759 41.9404
80.5837 1737 41.6773
80.701 1707 41.3159
80.8183 1729 41.5812
80.9357 1737 41.6773
81.053 1644 40.5463
81.1704 1756 41.9047
81.2877 1675 40.9268
81.4051 1696 41.1825
81.5225 1588 39.8497
81.6399 1538 39.2173
81.7573 1534 39.1663
81.8747 1486 38.5487
81.9922 1483 38.5097
82.1096 1664 40.7922
82.227 1658 40.7185
82.3444 1653 40.6571
82.4619 1713 41.3884
82.5793 1640 40.4969
82.6967 1689 41.0974
82.8142 1803 42.4617
82.9316 1731 41.6053
83.049 1775 42.1307
83.1664 1688 41.0853
83.2838 1719 41.4608
83.4012 1740 41.7133
83.5186 1652 40.6448
83.636 1717 41.4367
83.7534 1833 42.8135
83.8708 1826 42.7317
83.9881 1880 43.359
84.1055 1744 41.7612
84.2228 1756 41.9047
84.3401 1763 41.9881
84.4575 1728 41.5692
84.5747 1676 40.939
84.692 1763 41.9881
84.8093 1832 42.8019
84.9265 1741 41.7253
85.0437 1736 41.6653
85.1609 1548 39.3446
85.2781 1576 39.6989
85.3952 1547 39.3319
85.5123 1517 38.9487
85.6294 1587 39.8372
85.7465 1678 40.9634
85.8636 1688 41.0853
85.9806 1794 42.3556
86.0976 1741 41.7253
86.2145 1632 40.398
86.3315 1745 41.7732
86.4484 1791 42.3202
86.5652 1886 43.4281
86.682 1850 43.0116
86.7988 1805 42.4853
86.9156 1703 41.2674
87.0323 1762 41.9762
87.149 1610 40.1248
87.2657 1726 41.5452
87.3823 1652 40.6448
87.4988 1796 42.3792
87.6154 1600 40
87.7318 1600 40
87.8483 1576 39.6989
87.9647 1474 38.3927
88.081 1376 37.0945
88.1973 1291 35.9305
88.3136 1161 34.0735
88.4298 1111 33.3317
88.546 1008 31.749
88.6621 1002 31.6544
88.7781 940 30.6594
88.8942 0 1
89.0101 0 1
89.126 0 1
89.2419 0 1
89.3577 0 1
89.4734 0 1
89.5891 0 1
89.7047 0 1
89.8203 0 1
89.9358 0 1
92.3269 0 1
92.4424 0 1
92.558 0 1
92.6736 0 1
92.7893 0 1
92.905 0 1
93.0208 0 1
93.1366 0 1
93.2525 0 1
93.3685 0 1
93.4845 0 1
93.6005 1446 38.0263
93.7167 1479 38.4578
93.8328 1552 39.3954
93.949 1669 40.8534
94.0653 1692 41.1339
94.1816 1754 41.8808
94.2979 1734 41.6413
94.4143 1590 39.8748
94.5307 1700 41.2311
94.6472 1558 39.4715
94.7637 1667 40.8289
94.8803 1627 40.3361
94.9969 1731 41.6053
95.1135 1731 41.6053
95.2302 1753 41.8688
95.3469 1791 42.3202
95.4637 1768 42.0476
95.5805 1775 42.1307
95.6973 1838 42.8719
95.8142 1816 42.6146
95.9311 1837 42.8602
96.048 1777 42.1545
96.1649 1705 41.2916
96.2819 1750 41.833
96.3989 1754 41.8808
96.516 1799 42.4146
96.633 1818 42.638
96.7501 1836 42.8486
96.8673 1808 42.5206
96.9844 1831 42.7902
97.1016 1824 42.7083
97.2188 1871 43.2551
97.336 1759 41.9404
97.4532 1794 42.3556
97.5704 1803 42.4617
97.6877 1714 41.4005
97.805 1823 42.6966
97.9223 1851 43.0232
98.0396 1733 41.6293
98.1569 1733 41.6293
98.2743 1671 40.8779
98.3916 1640 40.4969
98.509 1692 41.1339
98.6264 1800 42.4264
98.7438 1800 42.4264
98.8612 1849 43
98.9786 1868 43.2204
99.096 1885 43.4166
99.2134 1869 43.2319
99.3308 2045 45.2217
99.4482 1990 44.6094
99.5656 1968 44.3621
99.6831 1838 42.8719
99.8005 1915 43.7607
99.9179 1855 43.0697
100.035 1835 42.8369
100.153 1888 43.4511
100.27 2002 44.7437
100.388 1855 43.0697
100.505 1867 43.2088
100.622 1842 42.9185
100.74 1949 44.1475
100.857 1867 43.2088
100.975 1874 43.2897
101.092 1846 42.9651
101.209 1885 43.4166
101.327 1954 44.2041
101.444 2014 44.8776
101.561 1999 44.7102
101.679 1915 43.7607
101.796 1848 42.9884
101.913 1790 42.3084
102.03 1855 43.0697
102.148 1795 42.3674
102.265 1851 43.0232
102.382 1866 43.1972
102.499 1951 44.1701
102.616 2008 44.8107
102.733 1993 44.643
102.851 2013 44.8665
102.968 2088 45.6946
103.085 2121 46.0543
103.202 2016 44.8999
103.319 2003 44.7549
103.436 1973 44.4185
103.552 2007 44.7996
103.669 1951 44.1701
103.786 2003 44.7549
103.903 2044 45.2106
104.02 2025 45
104.137 2079 45.5961
104.253 2090 45.7165
104.37 1938 44.0227
104.487 2010 44.833
104.603 2004 44.7661
104.72 2000 44.7214
104.836 1945 44.1022
104.953 1862 43.1509
105.069 1826 42.7317
105.186 1747 41.7971
105.302 1707 41.3159
105.418 1576 39.6989
105.535 1442 37.9737
105.651 1248 35.327
105.767 1223 34.9714
105.883 1204 34.6987
105.999 1088 32.9848
106.115 0 1
106.231 0 1
106.347 0 1
106.463 0 1
106.579 0 1
106.694 0 1
106.81 0 1
106.926 0 1
107.041 0 1
107.157 0 1
109.576 0 1
109.692 0 1
109.807 0 1
109.923 0 1
110.039 0 1
110.155 0 1
110.27 0 1
110.386 0 1
110.502 0 1
110.618 1002 31.6544
110.735 1143 33.8083
110.851 1277 35.7351
110.967 1367 36.973
111.083 1512 38.8844
111.199 1717 41.4367
111.316 1813 42.5793
111.432 1941 44.0568
111.549 1933 43.9659
111.665 1964 44.317
111.782 1961 44.2832
111.898 1908 43.6807
112.015 1800 42.4264
112.132 1851 43.0232
112.248 1783 42.2256
112.365 1863 43.1625
112.482 1814 42.5911
112.599 1930 43.9318
112.716 1904 43.6348
112.832 1849 43
112.949 1738 41.6893
113.066 1742 41.7373
113.183 1734 41.6413
113.3 1783 42.2256
113.417 1754 41.8808
113.534 1791 42.3202
113.652 1800 42.4264
113.769 1747 41.7971
113.886 1846 42.9651
114.003 1600 40
114.12 1666 40.8167
114.238 1598 39.975
114.355 1467 38.3014
114.472 1525 39.0512
114.589 1549 39.3573
114.707 1636 40.4475
114.824 1683 41.0244
114.942 1735 41.6533
115.059 1719 41.4608
115.176 1817 42.6263
115.294 1765 42.0119
115.411 1662 40.7676
115.529 1630 40.3733
115.646 1533 39.1535
115.764 1551 39.3827
115.881 1648 40.5956
115.999 1651 40.6325
116.116 1682 41.0122
116.234 1683 41.0244
116.351 1616 40.1995
116.469 1651 40.6325
116.586 1602 40.025
116.704 1549 39.3573
116.821 1684 41.0366
116.939 1650 40.6202
117.056 1669 40.8534
117.174 1644 40.5463
117.291 1675 40.9268
117.409 1714 41.4005
117.526 1713 41.3884
117.644 1550 39.37
117.761 1530 39.1152
117.879 1490 38.6005
117.996 1399 37.4032
118.114 1352 36.7696
118.231 1445 38.0132
118.349 1598 39.975
118.466 1624 40.2989
118.584 1716 41.4246
118.701 1652 40.6448
118.819 1556 39.4462
118.936 1586 39.8246
119.053 1562 39.5221
119.171 1533 39.1535
119.288 1466 38.2884
119.405 1493 38.6394
119.523 1511 38.8716
119.64 1537 39.2046
119.757 1526 39.064
119.875 1567 39.5854
119.992 1499 38.7169
120.109 1506 38.8072
120.226 1492 38.6264
120.343 1490 38.6005
120.46 1534 39.1663
120.578 1459 38.1969
120.695 1494 38.6523
120.812 1525 39.0512
120.929 1522 39.0128
121.046 1611 40.1373
121.163 1499 38.7169
121.279 1519 38.9744
121.396 1518 38.9615
121.513 1374 37.0675
121.63 1288 35.8887
121.747 1161 34.0735
121.863 1231 35.0856
121.98 1280 35.7771
122.097 1348 36.7151
122.213 1335 36.5377
122.33 1269 35.623
122.446 1247 35.3129
122.563 1208 34.7563
122.679 1119 33.4515
122.795 1070 32.7109
122.912 934 30.5614
123.028 937 30.6105
123.144 836 28.9137
123.26 782 27.9643
123.377 0 1
123.493 0 1
123.609 0 1
123.725 0 1
123.84 0 1
123.956 0 1
124.072 0 1
124.188 0 1
124.303 0 1
124.419 0 1
126.852 0 1
126.968 0 1
127.083 0 1
127.199 0 1
127.315 0 1
127.431 0 1
127.547 0 1
127.663 0 1
127.779 0 1
127.895 0 1
128.011 0 1
128.127 0 1
128.243 0 1
128.359 1522 39.0128
128.476 1555 39.4335
128.592 1684 41.0366
128.708 1563 39.5348
128.825 1650 40.6202
128.941 1707 41.3159
129.058 1715 41.4126
129.174 1731 41.6053
129.291 1810 42.5441
129.408 1734 41.6413
129.524 1718 41.4488
129.641 1893 43.5086
129.758 1919 43.8064
129.875 2119 46.0326
129.992 2221 47.1275
130.108 2402 49.0102
130.225 2459 49.5883
130.342 2699 51.9519
130.459 2796 52.8772
130.576 3312 57.55
130.693 3925 62.6498
130.81 5109 71.4773
130.928 7438 86.2438
131.045 11149 105.589
131.162 16779 129.534
131.279 24690 157.131
131.396 34679 186.223
131.513 47477 217.892
131.631 61992 248.982
131.748 78612 280.378
131.865 95454 308.956
131.983 114363 338.176
132.1 129199 359.443
132.217 145796 381.832
132.335 160032 400.04
132.452 171239 413.81
132.57 181023 425.468
132.687 182768 427.514
132.804 186082 431.372
132.922 178603 422.614
133.039 171815 414.506
133.157 162799 403.484
133.274 153938 392.349
133.392 147165 383.621
133.509 140972 375.462
133.627 135030 367.464
133.744 129662 360.086
133.862 124315 352.583
133.979 116969 342.007
134.097 109310 330.621
134.214 101993 319.363
134.332 96257 310.253
134.449 91901 303.152
134.567 87701 296.144
134.684 83836 289.544
134.802 80008 282.857
134.919 77936 279.17
135.037 75065 273.98
135.154 73240 270.629
135.272 71327 267.071
135.389 69205 263.068
135.507 67610 260.019
135.624 66095 257.089
135.742 63471 251.935
135.859 61605 248.204
135.977 58913 242.72
136.094 55840 236.305
136.211 53159 230.562
136.329 50532 224.793
136.446 47195 217.244
136.564 43875 209.464
136.681 41732 204.284
136.798 38894 197.216
136.915 36757 191.721
137.033 34589 185.981
137.15 33454 182.904
137.267 31824 178.393
137.384 30027 173.283
137.502 28345 168.36
137.619 26225 161.941
137.736 23415 153.02
137.853 19627 140.096
137.97 17944 133.955
138.087 17714 133.094
138.204 18346 135.447
138.321 18056 134.373
138.438 16914 130.054
138.555 15792 125.666
138.672 14636 120.979
138.788 13801 117.478
138.905 13473 116.073
139.022 12682 112.614
139.139 11825 108.743
139.255 10807 103.957
139.372 10128 100.638
139.488 9580 97.8775
139.605 8492 92.152
139.721 7754 88.0568
139.838 7150 84.5577
139.954 6467 80.4177
140.071 6050 77.7817
140.187 5603 74.8532
140.303 5238 72.374
140.419 4761 69
140.535 4350 65.9545
140.652 4092 63.9687
140.768 0 1
140.884 0 1
141 0 1
141.115 0 1
141.231 0 1
141.347 0 1
141.463 0 1
141.578 0 1
141.694 0 1
144.104 0 1
144.219 0 1
144.335 0 1
144.45 0 1
144.566 0 1
144.682 0 1
144.798 0 1
144.914 0 1
145.03 0 1
145.146 5622 74.98
145.262 6034 77.6788
145.378 6294 79.3347
145.494 6622 81.3757
145.61 6748 82.1462
145.726 7121 84.386
145.842 7191 84.7998
145.959 7500 86.6025
146.075 7409 86.0755
146.192 7684 87.6584
146.308 7460 86.3713
146.425 6998 83.654
146.541 6161 78.492
146.658 5086 71.3162
146.774 5060 71.1337
146.891 6273 79.2023
147.008 7806 88.3516
147.125 8449 91.9184
147.241 8860 94.1276
147.358 9056 95.163
147.475 9163 95.7236
147.592 9273 96.2964
147.709 8913 94.4087
147.826 9043 95.0947
147.943 9144 95.6243
148.06 8875 94.2072
148.177 9057 95.1683
148.294 9415 97.0309
148.411 9330 96.5919
148.528 9329 96.5867
148.645 9259 96.2237
148.762 9275 96.3068
148.88 9208 95.9583
148.997 9334 96.6126
149.114 9103 95.4096
149.231 9073 95.2523
149.349 9104 95.4149
149.466 8852 94.0851
149.583 8884 94.255
149.701 8751 93.5468
149.818 8415 91.7333
149.935 8168 90.377
150.053 7527 86.7583
150.17 6853 82.7828
150.287 5899 76.8049
150.405 5322 72.952
150.522 5485 74.0608
150.64 6313 79.4544
150.757 7066 84.0595
150.875 7330 85.6154
150.992 7330 85.6154
151.11 7118 84.3682
151.227 7033 83.863
151.344 6958 83.4146
151.462 6716 81.9512
151.579 6371 79.8185
151.697 6455 80.343
151.814 6342 79.6367
151.932 6440 80.2496
152.049 6569 81.0494
152.167 6605 81.2712
152.284 6507 80.666
152.402 6530 80.8084
152.519 6357 79.7308
152.636 6459 80.3679
152.754 6575 81.0864
152.871 6430 80.1873
152.989 6359 79.7433
153.106 6319 79.4921
153.223 6200 78.7401
153.341 6326 79.5362
153.458 6173 78.5684
153.575 5676 75.3392
153.693 5237 72.3671
153.81 4757 68.971
153.927 4730 68.775
154.044 4913 70.0928
154.162 5107 71.4633
154.279 5126 71.5961
154.396 5387 73.3962
154.513 5526 74.3371
154.63 5663 75.2529
154.747 5573 74.6525
154.864 5448 73.8106
154.981 5232 72.3326
155.098 5249 72.45
155.215 4907 70.05
155.332 5112 71.4983
155.449 5189 72.0347
155.566 5288 72.7186
155.683 5412 73.5663
155.8 5303 72.8217
155.917 5353 73.1642
156.033 5212 72.1942
156.15 0 1
156.267 0 1
156.383 0 1
156.5 0 1
156.617 0 1
156.733 0 1
156.85 0 1
156.966 0 1
157.082 0 1
157.199 0 1
157.315 0 1
157.431 0 1
157.547 0 1
157.664 0 1
157.78 0 1
157.896 0 1
158.012 0 1
158.128 0 1
158.244 0 1
158.359 0 1
158.475 0 1
158.591 0 1
158.706 0 1
