
6.15755 0 1
6.2731 0 1
6.3887 0 1
6.50437 0 1
6.62009 0 1
6.73587 0 1
6.8517 0 1
6.96759 0 1
7.08353 0 1
7.19952 0 1
7.31557 0 1
7.43166 0 1
7.54781 0 1
7.664 0 1
7.78024 0 1
7.89653 0 1
8.01286 0 1
8.12924 0 1
8.24567 0 1
8.36213 0 1
8.47864 0 1
8.59519 0 1
8.71178 0 1
8.82841 0 1
8.94508 0 1
9.06179 0 1
9.17853 0 1
9.29531 0 1
9.41212 0 1
9.52897 0 1
9.64584 0 1
9.76276 0 1
9.8797 0 1
9.99667 0 1
10.1137 0 1
10.2307 0 1
10.3478 0 1
10.4648 0 1
10.5819 0 1
10.6991 0 1
10.8162 0 1
10.9334 0 1
11.0506 0 1
11.1678 0 1
11.285 0 1
11.4023 0 1
11.5196 0 1
11.6369 0 1
11.7542 0 1
11.8715 0 1
11.9888 0 1
12.1062 0 1
12.2235 0 1
12.3409 0 1
12.4582 0 1
12.5756 0 1
12.693 0 1
12.8104 0 1
12.9278 0 1
13.0452 0 1
13.1626 0 1
13.28 0 1
13.3974 0 1
13.5149 0 1
13.6323 0 1
13.7497 0 1
13.8671 0 1
13.9845 0 1
14.1019 0 1
14.2193 0 1
14.3367 0 1
14.4541 0 1
14.5714 0 1
14.6888 0 1
14.8062 0 1
14.9235 0 1
15.0408 0 0
15.1581 0 0
15.2755 0 0
15.3927 0 0
15.51 0 0
15.6273 0 0
15.7445 0 0
15.8617 0 0
15.9789 0 0
16.0961 0 0
16.2132 0 0
16.3304 0 0
16.4475 0 0
16.5646 0 0
16.6816 0 0
16.7986 0 0
16.9156 0 0
17.0326 0 0
17.1496 0 0
17.2665 0 0
17.3833 0 0
17.5002 0 0
17.617 0 0
17.7338 0 0
17.8505 0 0
17.9672 0 0
18.0839 0 0
18.2005 0 0
18.3171 0 0
18.4337 0 0
18.5502 0 0
18.6666 0 0
18.7831 0 0
18.8994 0 0
19.0158 0 0
19.1321 0 0
19.2483 0 0
19.3645 0 0
19.4806 0 0
19.5967 0 0
19.7128 0 0
19.8288 0 0
19.9447 0 0
20.0606 0 1
20.1764 0 1
20.2922 0 1
20.4079 0 1
20.5236 0 1
20.6392 0 1
20.7548 0 1
20.8702 0 1
23.3078 0 1
23.4233 0 1
23.539 0 1
23.6547 0 1
23.7704 0 1
23.8862 0 1
24.0021 0 1
24.118 0 1
24.234 0 1
24.35 0 1
24.4661 49871 223.318
24.5822 50533 224.795
24.6984 50188 224.027
24.8146 50320 224.321
24.9309 49809 223.179
25.0472 49317 222.074
25.1636 48737 220.765
25.28 49032 221.432
25.3965 49979 223.56
25.513 51699 227.374
25.6296 53005 230.228
25.7462 55622 235.843
25.8628 56466 237.626
25.9795 57567 239.931
26.0962 57082 238.918
26.213 57666 240.137
26.3298 56456 237.605
26.4466 56216 237.099
26.5635 53623 231.566
26.6804 51217 226.312
26.7973 49381 222.218
26.9143 49471 222.421
27.0313 51743 227.471
27.1483 54000 232.379
27.2653 55392 235.355
27.3824 55895 236.421
27.4996 56459 237.611
27.6167 55762 236.14
27.7339 54944 234.401
27.8511 54173 232.751
27.9683 53651 231.627
28.0855 52361 228.825
28.2028 51234 226.349
28.3201 51436 226.795
28.4374 50067 223.757
28.5547 48707 220.697
28.6721 48281 219.729
28.7894 47949 218.973
28.9068 48244 219.645
29.0242 49948 223.49
29.1416 51248 226.38
29.259 52378 228.862
29.3764 53713 231.761
29.4939 54820 234.137
29.6113 54641 233.754
29.7288 55103 234.74
29.8463 54917 234.344
29.9638 53907 232.179
30.0812 51014 225.863
30.1987 48455 220.125
30.3162 46434 215.485
30.4337 47257 217.387
30.5512 49739 223.022
30.6687 51749 227.484
30.7862 52377 228.86
30.9037 54174 232.753
31.0212 55080 234.691
31.1387 54915 234.339
31.2562 54589 233.643
31.3737 54157 232.717
31.4912 53551 231.411
31.6087 52693 229.55
31.7262 51845 227.695
31.8436 51029 225.896
31.9611 49672 222.872
32.0785 48906 221.147
32.1959 47913 218.89
32.3134 47607 218.19
32.4308 48807 220.923
32.5482 49544 222.585
32.6655 50730 225.233
32.7829 52004 228.044
32.9002 53321 230.913
33.0176 54011 232.403
33.1349 54624 233.718
33.2522 53551 231.411
33.3694 55137 234.813
33.4867 54509 233.472
33.6039 53964 232.302
33.7211 50853 225.506
33.8383 47743 218.502
33.9554 45993 214.46
34.0725 46191 214.921
34.1896 47991 219.068
34.3067 50295 224.265
34.4237 52280 228.648
34.5407 53322 230.916
34.6577 54400 233.238
34.7746 54363 233.159
34.8915 53740 231.819
35.0084 53386 231.054
35.1252 52734 229.639
35.242 52492 229.111
35.3587 51514 226.967
35.4755 51311 226.519
35.5921 49669 222.865
35.7088 49401 222.263
35.8254 47977 219.037
35.9419 46691 216.081
36.0584 46949 216.677
36.1749 47794 218.618
36.2913 48764 220.826
36.4077 49892 223.365
36.524 51372 226.654
36.6403 52038 228.118
36.7565 53313 230.896
36.8727 53125 230.489
36.9889 53158 230.56
37.1049 52778 229.735
37.221 0 1
37.3369 0 1
37.4529 0 1
37.5687 0 1
37.6845 0 1
37.8003 0 1
37.916 0 1
38.0316 0 1
38.1472 0 1
40.5851 0 1
40.7008 0 1
40.8164 0 1
40.9322 0 1
41.048 0 1
41.1639 0 1
41.2798 0 1
41.3958 0 1
41.5118 0 1
41.6279 0 1
41.744 41940 204.793
41.8602 44114 210.033
41.9765 44977 212.078
42.0928 45476 213.251
42.2091 45453 213.197
42.3255 45477 213.253
42.4419 43220 207.894
42.5584 40534 201.331
42.675 38022 194.992
42.7915 37269 193.052
42.9081 38654 196.606
43.0248 40951 202.364
43.1415 42178 205.373
43.2582 43361 208.233
43.375 43881 209.478
43.4918 44153 210.126
43.6087 43715 209.081
43.7256 43810 209.308
43.8425 42539 206.25
43.9595 41367 203.389
44.0765 40650 201.618
44.1935 39963 199.907
44.3106 38572 196.398
44.4277 37198 192.868
44.5448 35936 189.568
44.6619 34264 185.105
44.7791 33502 183.036
44.8963 34107 184.681
45.0136 34121 184.719
45.1308 34964 186.987
45.2481 35685 188.905
45.3654 36504 191.06
45.4827 36850 191.964
45.6001 36330 190.604
45.7174 35862 189.373
45.8348 35482 188.367
45.9522 34347 185.329
46.0697 31646 177.893
46.1871 29553 171.91
46.3046 27979 167.269
46.422 28531 168.911
46.5395 30222 173.845
46.657 31348 177.054
46.7745 31959 178.771
46.892 32250 179.583
47.0096 32521 180.336
47.1271 32504 180.289
47.2446 32025 178.955
47.3622 31763 178.222
47.4797 30624 174.997
47.5973 30043 173.329
47.7149 29276 171.102
47.8324 28223 167.997
47.95 27339 165.345
48.0675 26841 163.832
48.1851 25204 158.758
48.3027 24408 156.231
48.4202 24558 156.71
48.5378 25251 158.906
48.6554 25656 160.175
48.7729 26660 163.279
48.8904 27231 165.018
49.008 27673 166.352
49.1255 27755 166.598
49.243 27818 166.787
49.3605 27558 166.006
49.478 26332 162.271
49.5955 24590 156.812
49.713 23713 153.99
49.8304 22637 150.456
49.9479 23649 153.782
50.0653 26010 161.276
50.1827 27495 165.816
50.3001 28901 170.003
50.4175 29898 172.91
50.5348 31363 177.096
50.6521 31719 178.098
50.7694 32886 181.345
50.8867 33033 181.75
51.004 33207 182.228
51.1212 33795 183.834
51.2384 33758 183.734
51.3556 34342 185.316
51.4727 33525 183.098
51.5899 33186 182.17
51.707 32429 180.081
51.824 32609 180.58
51.9411 33667 183.486
52.0581 35322 187.941
52.175 37923 194.738
52.2919 39194 197.975
52.4088 40820 202.04
52.5257 41855 204.585
52.6425 42848 206.998
52.7593 42952 207.249
52.876 43278 208.034
52.9927 43055 207.497
53.1094 40703 201.75
53.226 37779 194.368
53.3426 36065 189.908
53.4591 36008 189.758
53.5756 38327 195.773
53.692 41580 203.912
53.8084 44255 210.369
53.9248 46214 214.974
54.0411 47739 218.493
54.1573 48792 220.889
54.2735 0 1
54.3896 0 1
54.5057 0 1
54.6217 0 1
54.7377 0 1
54.8537 0 1
54.9695 0 1
55.0853 0 1
55.2011 0 1
55.3168 0 1
55.4324 0 1
57.824 0 1
57.9396 0 1
58.0553 0 1
58.1711 0 1
58.2869 0 1
58.4028 0 1
58.5187 0 1
58.6347 0 1
58.7508 0 1
58.8669 0 1
58.983 50933 225.683
59.0992 54655 233.784
59.2155 56735 238.191
59.3318 57968 240.765
59.4482 58213 241.274
59.5646 58239 241.328
59.681 57793 240.402
59.7975 57064 238.881
59.9141 56151 236.962
60.0306 54091 232.575
60.1473 52312 228.718
60.2639 50341 224.368
60.3807 47962 219.002
60.4974 47261 217.396
60.6142 48037 219.173
60.731 48928 221.197
60.8479 49709 222.955
60.9648 51446 226.817
61.0818 52878 229.952
61.1987 52713 229.593
61.3158 52765 229.706
61.4328 51934 227.89
61.5499 50083 223.792
61.667 47314 217.518
61.7841 43962 209.671
61.9013 42383 205.871
62.0185 41242 203.081
62.1357 42853 207.01
62.253 45493 213.291
62.3702 48181 219.502
62.4875 49719 222.978
62.6049 51194 226.261
62.7222 52418 228.95
62.8396 52307 228.707
62.9569 52952 230.113
63.0743 53097 230.428
63.1918 52479 229.083
63.3092 51109 226.073
63.4267 50574 224.887
63.5441 48753 220.801
63.6616 46925 216.622
63.7791 44649 211.303
63.8966 43063 207.516
64.0142 42448 206.029
64.1317 43117 207.646
64.2492 44270 210.404
64.3668 45276 212.782
64.4843 46882 216.523
64.6019 47670 218.335
64.7195 48294 219.759
64.837 48103 219.324
64.9546 47554 218.069
65.0722 46231 215.014
65.1898 43278 208.034
65.3074 40876 202.178
65.4249 38083 195.149
65.5425 36970 192.276
65.6601 37773 194.353
65.7777 40558 201.39
65.8952 42732 206.717
66.0128 45849 214.124
66.1304 46925 216.622
66.2479 48276 219.718
66.3655 49457 222.389
66.483 50076 223.777
66.6005 50426 224.557
66.718 50038 223.692
66.8355 49292 222.018
66.953 48818 220.948
67.0705 47527 218.007
67.1879 45724 213.832
67.3054 44009 209.783
67.4228 42242 205.529
67.5402 40615 201.532
67.6576 40073 200.182
67.7749 40992 202.465
67.8923 42306 205.684
68.0096 44738 211.514
68.1269 46621 215.919
68.2442 47715 218.438
68.3614 48628 220.518
68.4787 49039 221.448
68.5958 47943 218.959
68.713 47023 216.848
68.8302 44026 209.824
68.9473 41014 202.519
69.0643 38497 196.207
69.1814 37771 194.348
69.2984 39515 198.784
69.4154 42709 206.662
69.5323 45923 214.297
69.6492 48190 219.522
69.7661 49779 223.112
69.8829 52602 229.351
69.9997 53587 231.489
70.1165 54659 233.793
70.2332 54949 234.412
70.3499 54433 233.309
70.4665 54355 233.142
70.5831 53485 231.268
70.6996 51954 227.934
70.8161 50900 225.61
70.9326 48676 220.626
71.049 46269 215.102
71.1653 43850 209.404
71.2817 42601 206.4
71.3979 42510 206.18
71.5141 43571 208.737
71.6303 44811 211.686
71.7464 42777 206.826
71.8624 0 1
71.9784 0 1
72.0944 0 1
72.2102 0 1
72.3261 0 1
72.4418 0 1
72.5575 0 1
72.6732 0 1
75.1054 0 1
75.2209 0 1
75.3365 0 1
75.4521 0 1
75.5678 0 1
75.6835 0 1
75.7993 0 1
75.9151 0 1
76.031 0 1
76.147 46892 216.546
76.263 50164 223.973
76.3791 48160 219.454
76.4952 45176 212.546
76.6113 43875 209.464
76.7276 44120 210.048
76.8438 46032 214.551
76.9601 48038 219.176
77.0765 50256 224.179
77.1929 51757 227.502
77.3093 53146 230.534
77.4258 53414 231.115
77.5423 53092 230.417
77.6589 51698 227.372
77.7755 48007 219.105
77.8921 43814 209.318
78.0088 40823 202.047
78.1256 38498 196.209
78.2423 36898 192.089
78.3591 38366 195.872
78.4759 42806 206.896
78.5928 45866 214.163
78.7097 47882 218.82
78.8266 50516 224.758
78.9436 52596 229.338
79.0606 52716 229.6
79.1776 53300 230.868
79.2946 53621 231.562
79.4117 53562 231.435
79.5288 53000 230.217
79.6459 52321 228.738
79.7631 49653 222.83
79.8802 47782 218.591
79.9974 45390 213.049
80.1147 42501 206.158
80.2319 40255 200.636
80.3491 40024 200.06
80.4664 41883 204.653
80.5837 43697 209.038
80.701 45848 214.121
80.8183 46983 216.756
80.9357 47372 217.651
81.053 47160 217.164
81.1704 47733 218.479
81.2877 47233 217.332
81.4051 44297 210.469
81.5225 40752 201.871
81.6399 36774 191.765
81.7573 34843 186.663
81.8747 33146 182.06
81.9922 34351 185.34
82.1096 38222 195.504
82.227 41084 202.692
82.3444 42722 206.693
82.4619 45118 212.41
82.5793 46465 215.557
82.6967 45844 214.112
82.8142 46502 215.643
82.9316 47124 217.081
83.049 46948 216.675
83.1664 45489 213.282
83.2838 44430 210.784
83.4012 42894 207.109
83.5186 40969 202.408
83.636 38960 197.383
83.7534 36659 191.465
83.8708 34611 186.04
83.9881 35358 188.037
84.1055 35909 189.497
84.2228 37812 194.453
84.3401 40510 201.271
84.4575 41991 204.917
84.5747 43377 208.271
84.692 43620 208.854
84.8093 43964 209.676
84.9265 42089 205.156
85.0437 38314 195.74
85.1609 35378 188.09
85.2781 32920 181.439
85.3952 32417 180.047
85.5123 32505 180.291
85.6294 35863 189.375
85.7465 39184 197.949
85.8636 42975 207.304
85.9806 44609 211.208
86.0976 47501 217.947
86.2145 49145 221.687
86.3315 50072 223.768
86.4484 51802 227.601
86.5652 52222 228.521
86.682 52411 228.934
86.7988 51950 227.925
86.9156 51163 226.192
87.0323 49520 222.531
87.149 47843 218.73
87.2657 45639 213.633
87.3823 43872 209.456
87.4988 43071 207.536
87.6154 44900 211.896
87.7318 47667 218.328
87.8483 50730 225.233
87.9647 53048 230.322
88.081 54427 233.296
88.1973 55731 236.074
88.3136 56358 237.398
88.4298 54427 233.296
88.546 50763 225.306
88.6621 46958 216.698
88.7781 43627 208.871
88.8942 0 1
89.0101 0 1
89.126 0 1
89.2419 0 1
89.3577 0 1
89.4734 0 1
89.5891 0 1
89.7047 0 1
89.8203 0 1
89.9358 0 1
92.3269 0 1
92.4424 0 1
92.558 0 1
92.6736 0 1
92.7893 0 1
92.905 0 1
93.0208 0 1
93.1366 0 1
93.2525 0 1
93.3685 0 1
93.4845 0 1
93.6005 57186 239.136
93.7167 57960 240.749
93.8328 57125 239.008
93.949 54738 233.962
94.0653 50552 224.838
94.1816 47652 218.293
94.2979 44747 211.535
94.4143 43438 208.418
94.5307 43309 208.108
94.6472 45309 212.859
94.7637 48872 221.07
94.8803 52863 229.92
94.9969 55224 234.998
95.1135 57194 239.153
95.2302 59246 243.405
95.3469 60260 245.479
95.4637 61185 247.356
95.5805 61610 248.214
95.6973 62928 250.855
95.8142 62509 250.018
95.9311 61287 247.562
96.048 59690 244.315
96.1649 57706 240.221
96.2819 56045 236.738
96.3989 53825 232.002
96.516 50784 225.353
96.633 49899 223.381
96.7501 50574 224.887
96.8673 52105 228.265
96.9844 54885 234.275
97.1016 57449 239.685
97.2188 58813 242.514
97.336 58757 242.398
97.4532 59146 243.2
97.5704 56902 238.541
97.6877 52939 230.085
97.805 48696 220.672
97.9223 45141 212.464
98.0396 42819 206.928
98.1569 42155 205.317
98.2743 43083 207.564
98.3916 46391 215.386
98.509 50455 224.622
98.6264 52479 229.083
98.7438 54990 234.499
98.8612 57240 239.249
98.9786 58783 242.452
99.096 59774 244.487
99.2134 60478 245.923
99.3308 60978 246.937
99.4482 60685 246.343
99.5656 59438 243.799
99.6831 58514 241.897
99.8005 56237 237.143
99.9179 54493 233.437
100.035 51572 227.095
100.153 48912 221.161
100.27 48676 220.626
100.388 50543 224.818
100.505 53562 231.435
100.622 55251 235.055
100.74 56937 238.615
100.857 57731 240.273
100.975 58030 240.894
101.092 57406 239.595
101.209 55110 234.755
101.327 50938 225.694
101.444 47195 217.244
101.561 44163 210.15
101.679 43173 207.781
101.796 42806 206.896
101.913 45487 213.277
102.03 49709 222.955
102.148 53138 230.517
102.265 59618 244.168
102.382 54700 233.88
102.499 60134 245.222
102.616 61615 248.224
102.733 62464 249.928
102.851 64175 253.328
102.968 64140 253.259
103.085 63075 251.147
103.202 62369 249.738
103.319 60344 245.65
103.436 58632 242.14
103.552 55762 236.14
103.669 52480 229.085
103.786 52234 228.548
103.903 54476 233.401
104.02 58153 241.149
104.137 60727 246.428
104.253 63828 252.642
104.37 62185 249.369
104.487 65295 255.529
104.603 64258 253.492
104.72 61532 248.056
104.836 56500 237.697
104.953 53055 230.337
105.069 50304 224.286
105.186 49152 221.703
105.302 49220 221.856
105.418 53849 232.054
105.535 58879 242.65
105.651 62949 250.896
105.767 66207 257.307
105.883 69147 262.958
105.999 72462 269.188
106.115 0 1
106.231 0 1
106.347 0 1
106.463 0 1
106.579 0 1
106.694 0 1
106.81 0 1
106.926 0 1
107.041 0 1
107.157 0 1
109.576 0 1
109.692 0 1
109.807 0 1
109.923 0 1
110.039 0 1
110.155 0 1
110.27 0 1
110.386 0 1
110.502 0 1
110.618 69980 264.537
110.735 76626 276.814
110.851 79993 282.83
110.967 83278 288.579
111.083 85185 291.865
111.199 86901 294.79
111.316 88641 297.726
111.432 89417 299.027
111.549 89267 298.776
111.665 88048 296.729
111.782 85911 293.106
111.898 83880 289.62
112.015 79484 281.929
112.132 74434 272.826
112.248 71658 267.69
112.365 72751 269.724
112.482 78122 279.503
112.599 80109 283.035
112.716 83605 289.145
112.832 84206 290.183
112.949 84562 290.795
113.066 84834 291.263
113.183 82758 287.677
113.3 77410 278.227
113.417 71106 266.657
113.534 66824 258.503
113.652 63562 252.115
113.769 60726 246.426
113.886 62576 250.152
114.003 66065 257.031
114.12 71668 267.709
114.238 76284 276.196
114.355 79212 281.446
114.472 85745 292.822
114.589 79669 282.257
114.707 84612 290.881
114.824 86177 293.559
114.942 87314 295.489
115.059 88115 296.842
115.176 87784 296.284
115.294 85704 292.752
115.411 83549 289.048
115.529 81265 285.07
115.646 76687 276.924
115.764 73032 270.244
115.881 73041 270.261
115.999 76292 276.21
116.116 81316 285.16
116.234 84184 290.145
116.351 84838 291.27
116.469 84448 290.599
116.586 85350 292.147
116.704 84599 290.859
116.821 81036 284.668
116.939 75335 274.472
117.056 70431 265.388
117.174 66669 258.203
117.291 62849 250.697
117.409 62071 249.141
117.526 65261 255.462
117.644 70314 265.168
117.761 74544 273.027
117.879 78775 280.669
117.996 80720 284.113
118.114 82590 287.385
118.231 83694 289.299
118.349 84551 290.777
118.466 84949 291.46
118.584 85796 292.91
118.701 86670 294.398
118.819 84485 290.663
118.936 82550 287.315
119.053 80686 284.053
119.171 77393 278.196
119.288 72665 269.564
119.405 69556 263.735
119.523 69257 263.167
119.64 72916 270.03
119.757 76426 276.453
119.875 77691 278.731
119.992 77650 278.657
120.109 78223 279.684
120.226 77250 277.939
120.343 76580 276.731
120.46 73377 270.882
120.578 68107 260.973
120.695 63291 251.577
120.812 60080 245.112
120.929 57993 240.817
121.046 55731 236.074
121.163 56946 238.634
121.279 59854 244.651
121.396 64047 253.075
121.513 67094 259.025
121.63 68992 262.663
121.747 71607 267.595
121.863 71605 267.591
121.98 71779 267.916
122.097 72830 269.87
122.213 72275 268.84
122.33 71888 268.119
122.446 70707 265.908
122.563 68907 262.501
122.679 67528 259.862
122.795 65576 256.078
122.912 62839 250.677
123.028 58830 242.549
123.144 56799 238.325
123.26 56376 237.436
123.377 0 1
123.493 0 1
123.609 0 1
123.725 0 1
123.84 0 1
123.956 0 1
124.072 0 1
124.188 0 1
124.303 0 1
124.419 0 1
126.852 0 1
126.968 0 1
127.083 0 1
127.199 0 1
127.315 0 1
127.431 0 1
127.547 0 1
127.663 0 1
127.779 0 1
127.895 0 1
128.011 0 1
128.127 0 1
128.243 0 1
128.359 60170 245.296
128.476 60557 246.083
128.592 63655 252.299
128.708 67294 259.411
128.825 69542 263.708
128.941 70760 266.008
129.058 70555 265.622
129.174 70908 266.286
129.291 70275 265.094
129.408 67363 259.544
129.524 63391 251.776
129.641 60621 246.213
129.758 58013 240.859
129.875 56145 236.949
129.992 55119 234.774
130.108 57154 239.069
130.225 60886 246.751
130.342 64401 253.774
130.459 66831 258.517
130.576 71282 266.987
130.693 71331 267.079
130.81 72890 269.981
130.928 74316 272.61
131.045 75110 274.062
131.162 76038 275.75
131.279 76705 276.957
131.396 77044 277.568
131.513 75516 274.802
131.631 73889 271.825
131.748 71618 267.615
131.865 68399 261.532
131.983 67171 259.174
132.1 69896 264.379
132.217 73946 271.93
132.335 76374 276.358
132.452 77137 277.735
132.57 77314 278.054
132.687 74458 272.87
132.804 79464 281.894
132.922 74451 272.857
133.039 70339 265.215
133.157 67457 259.725
133.274 63978 252.939
133.392 61811 248.618
133.509 60617 246.205
133.627 61188 247.362
133.744 64335 253.643
133.862 67832 260.446
133.979 70862 266.199
134.097 73068 270.311
134.214 75014 273.887
134.332 74785 273.468
134.449 77101 277.671
134.567 78042 279.36
134.684 79445 281.86
134.802 79841 282.561
134.919 79743 282.388
135.037 78767 280.655
135.154 77289 278.009
135.272 74263 272.512
135.389 72270 268.831
135.507 68591 261.899
135.624 69543 263.71
135.742 73039 270.257
135.859 76498 276.583
135.977 78043 279.362
136.094 78560 280.286
136.211 78026 279.331
136.329 78265 279.759
136.446 77262 277.96
136.564 74135 272.277
136.681 69844 264.28
136.798 67284 259.392
136.915 64487 253.943
137.033 61846 248.689
137.15 61079 247.142
137.267 61438 247.867
137.384 64278 253.531
137.502 67252 259.33
137.619 69442 263.519
137.736 71175 266.786
137.853 71927 268.192
137.97 74901 273.68
138.087 74021 272.068
138.204 76456 276.507
138.321 77298 278.025
138.438 77995 279.276
138.555 79668 282.255
138.672 78546 280.261
138.788 77738 278.815
138.905 74794 273.485
139.022 72396 269.065
139.139 69788 264.174
139.255 70035 264.641
139.372 73357 270.845
139.488 76269 276.168
139.605 78888 280.87
139.721 78106 279.475
139.838 78768 280.656
139.954 78605 280.366
140.071 76714 276.973
140.187 75076 274
140.303 70746 265.981
140.419 67237 259.301
140.535 64662 254.287
140.652 61818 248.632
140.768 0 1
140.884 0 1
141 0 1
141.115 0 1
141.231 0 1
141.347 0 1
141.463 0 1
141.578 0 1
141.694 0 1
144.104 0 1
144.219 0 1
144.335 0 1
144.45 0 1
144.566 0 1
144.682 0 1
144.798 0 1
144.914 0 1
145.03 0 1
145.146 64609 254.183
145.262 63845 252.676
145.378 61753 248.502
145.494 59014 242.928
145.61 57211 239.188
145.726 55654 235.911
145.842 54755 233.998
145.959 55489 235.561
146.075 57392 239.566
146.192 60079 245.11
146.308 61790 248.576
146.425 63041 251.08
146.541 64580 254.126
146.658 65183 255.31
146.774 66409 257.699
146.891 67343 259.505
147.008 67493 259.794
147.125 69103 262.874
147.241 68815 262.326
147.358 68050 260.864
147.475 66668 258.201
147.592 64298 253.571
147.709 61734 248.463
147.826 60520 246.008
147.943 62991 250.98
148.06 64634 254.232
148.177 66841 258.536
148.294 68191 261.134
148.411 68067 260.897
148.528 67602 260.004
148.645 66795 258.447
148.762 66274 257.437
148.88 63837 252.66
148.997 60071 245.094
149.114 60303 245.567
149.231 56767 238.258
149.349 55300 235.16
149.466 52942 230.091
149.583 54378 233.191
149.701 55686 235.979
149.818 57624 240.05
149.935 59128 243.162
150.053 60708 246.39
150.17 61742 248.479
150.287 62576 250.152
150.405 64514 253.996
150.522 64447 253.864
150.64 66335 257.556
150.757 66698 258.26
150.875 66724 258.31
150.992 65525 255.979
151.11 64150 253.279
151.227 63292 251.579
151.344 60272 245.504
151.462 58415 241.692
151.579 61132 247.249
151.697 63463 251.919
151.814 66219 257.331
151.932 66994 258.832
152.049 67634 260.065
152.167 66829 258.513
152.284 66998 258.84
152.402 65148 255.241
152.519 62468 249.936
152.636 60523 246.014
152.754 58352 241.562
152.871 57470 239.729
152.989 55865 236.358
153.106 54272 232.964
153.223 54973 234.463
153.341 56992 238.73
153.458 58450 241.764
153.575 60529 246.026
153.693 61060 247.103
153.81 62794 250.587
153.927 64172 253.322
154.044 65671 256.264
154.162 66448 257.775
154.279 68627 261.968
154.396 68950 262.583
154.513 69821 264.237
154.63 69060 262.793
154.747 68081 260.923
154.864 66052 257.006
154.981 63582 252.155
155.098 62597 250.194
155.215 63201 251.398
155.332 66645 258.157
155.449 68641 261.994
155.566 68335 261.41
155.683 69119 262.905
155.8 68571 261.861
155.917 67596 259.992
156.033 66956 258.759
156.15 0 1
156.267 0 1
156.383 0 1
156.5 0 1
156.617 0 1
156.733 0 1
156.85 0 1
156.966 0 1
157.082 0 1
157.199 0 1
157.315 0 1
157.431 0 1
157.547 0 1
157.664 0 1
157.78 0 1
157.896 0 1
158.012 0 1
158.128 0 1
158.244 0 1
158.359 0 1
158.475 0 1
158.591 0 1
158.706 0 1
