
6.15755 0 1
6.2731 0 1
6.3887 0 1
6.50437 0 1
6.62009 0 1
6.73587 0 1
6.8517 0 1
6.96759 0 1
7.08353 0 1
7.19952 0 1
7.31557 0 1
7.43166 0 1
7.54781 0 1
7.664 0 1
7.78024 0 1
7.89653 0 1
8.01286 0 1
8.12924 0 1
8.24567 0 1
8.36213 0 1
8.47864 0 1
8.59519 0 1
8.71178 0 1
8.82841 0 1
8.94508 0 1
9.06179 0 1
9.17853 0 1
9.29531 0 1
9.41212 0 1
9.52897 0 1
9.64584 0 1
9.76276 0 1
9.8797 0 1
9.99667 0 1
10.1137 0 1
10.2307 0 1
10.3478 0 1
10.4648 0 1
10.5819 0 1
10.6991 0 1
10.8162 0 1
10.9334 0 1
11.0506 0 1
11.1678 0 1
11.285 0 1
11.4023 0 1
11.5196 0 1
11.6369 0 1
11.7542 0 1
11.8715 0 1
11.9888 0 1
12.1062 0 1
12.2235 0 1
12.3409 0 1
12.4582 0 1
12.5756 0 1
12.693 0 1
12.8104 0 1
12.9278 0 1
13.0452 0 1
13.1626 0 1
13.28 0 1
13.3974 0 1
13.5149 0 1
13.6323 0 1
13.7497 0 1
13.8671 0 1
13.9845 0 1
14.1019 0 1
14.2193 0 1
14.3367 0 1
14.4541 0 1
14.5714 0 1
14.6888 0 1
14.8062 0 1
14.9235 0 1
15.0408 0 0
15.1581 0 0
15.2755 0 0
15.3927 0 0
15.51 0 0
15.6273 0 0
15.7445 0 0
15.8617 0 0
15.9789 0 0
16.0961 0 0
16.2132 0 0
16.3304 0 0
16.4475 0 0
16.5646 0 0
16.6816 0 0
16.7986 0 0
16.9156 0 0
17.0326 0 0
17.1496 0 0
17.2665 0 0
17.3833 0 0
17.5002 0 0
17.617 0 0
17.7338 0 0
17.8505 0 0
17.9672 0 0
18.0839 0 0
18.2005 0 0
18.3171 0 0
18.4337 0 0
18.5502 0 0
18.6666 0 0
18.7831 0 0
18.8994 0 0
19.0158 0 0
19.1321 0 0
19.2483 0 0
19.3645 0 0
19.4806 0 0
19.5967 0 0
19.7128 0 0
19.8288 0 0
19.9447 0 0
20.0606 0 1
20.1764 0 1
20.2922 0 1
20.4079 0 1
20.5236 0 1
20.6392 0 1
20.7548 0 1
20.8702 0 1
23.3078 0 1
23.4233 0 1
23.539 0 1
23.6547 0 1
23.7704 0 1
23.8862 0 1
24.0021 0 1
24.118 0 1
24.234 0 1
24.35 0 1
24.4661 1263 35.5387
24.5822 1209 34.7707
24.6984 1203 34.6843
24.8146 1279 35.7631
24.9309 1188 34.4674
25.0472 1070 32.7109
25.1636 1169 34.1906
25.28 1242 35.242
25.3965 1266 35.5809
25.513 1397 37.3765
25.6296 1420 37.6829
25.7462 1372 37.0405
25.8628 1421 37.6962
25.9795 1399 37.4032
26.0962 1514 38.9102
26.213 1452 38.1051
26.3298 1417 37.6431
26.4466 1430 37.8153
26.5635 1314 36.2491
26.6804 1308 36.1663
26.7973 1275 35.7071
26.9143 1321 36.3456
27.0313 1289 35.9026
27.1483 1360 36.8782
27.2653 1392 37.3095
27.3824 1403 37.4566
27.4996 1470 38.3406
27.6167 1406 37.4967
27.7339 1306 36.1386
27.8511 1370 37.0135
27.9683 1348 36.7151
28.0855 1262 35.5246
28.2028 1273 35.6791
28.3201 1197 34.5977
28.4374 1181 34.3657
28.5547 1121 33.4813
28.6721 1174 34.2637
28.7894 1222 34.9571
28.9068 1236 35.1568
29.0242 1262 35.5246
29.1416 1307 36.1525
29.259 1379 37.1349
29.3764 1455 38.1445
29.4939 1389 37.2693
29.6113 1328 36.4417
29.7288 1416 37.6298
29.8463 1389 37.2693
29.9638 1316 36.2767
30.0812 1358 36.8511
30.1987 1254 35.4119
30.3162 1282 35.805
30.4337 1254 35.4119
30.5512 1301 36.0694
30.6687 1351 36.756
30.7862 1299 36.0416
30.9037 1393 37.3229
31.0212 1412 37.5766
31.1387 1417 37.6431
31.2562 1403 37.4566
31.3737 1331 36.4829
31.4912 1370 37.0135
31.6087 1312 36.2215
31.7262 1228 35.0428
31.8436 1250 35.3553
31.9611 1158 34.0294
32.0785 1145 33.8378
32.1959 1177 34.3074
32.3134 1229 35.0571
32.4308 1221 34.9428
32.5482 1318 36.3043
32.6655 1361 36.8917
32.7829 1346 36.6879
32.9002 1357 36.8375
33.0176 1433 37.855
33.1349 1335 36.5377
33.2522 1419 37.6696
33.3694 1363 36.9188
33.4867 1395 37.3497
33.6039 1393 37.3229
33.7211 1354 36.7967
33.8383 1345 36.6742
33.9554 1349 36.7287
34.0725 1344 36.6606
34.1896 1344 36.6606
34.3067 1391 37.2961
34.4237 1441 37.9605
34.5407 1422 37.7094
34.6577 1403 37.4566
34.7746 1394 37.3363
34.8915 1445 38.0132
35.0084 1397 37.3765
35.1252 1289 35.9026
35.242 1256 35.4401
35.3587 1287 35.8748
35.4755 1238 35.1852
35.5921 1134 33.6749
35.7088 1166 34.1467
35.8254 1182 34.3802
35.9419 1118 33.4365
36.0584 1171 34.2199
36.1749 1187 34.4529
36.2913 1286 35.8608
36.4077 1352 36.7696
36.524 1328 36.4417
36.6403 1352 36.7696
36.7565 1390 37.2827
36.8727 1441 37.9605
36.9889 1388 37.2559
37.1049 1313 36.2353
37.221 0 1
37.3369 0 1
37.4529 0 1
37.5687 0 1
37.6845 0 1
37.8003 0 1
37.916 0 1
38.0316 0 1
38.1472 0 1
40.5851 0 1
40.7008 0 1
40.8164 0 1
40.9322 0 1
41.048 0 1
41.1639 0 1
41.2798 0 1
41.3958 0 1
41.5118 0 1
41.6279 0 1
41.744 1221 34.9428
41.8602 1242 35.242
41.9765 1195 34.5688
42.0928 1316 36.2767
42.2091 1255 35.426
42.3255 1290 35.9166
42.4419 1289 35.9026
42.5584 1261 35.5106
42.675 1156 34
42.7915 1149 33.8969
42.9081 1162 34.0881
43.0248 1191 34.5109
43.1415 1223 34.9714
43.2582 1256 35.4401
43.375 1248 35.327
43.4918 1351 36.756
43.6087 1286 35.8608
43.7256 1240 35.2136
43.8425 1265 35.5668
43.9595 1185 34.4238
44.0765 1130 33.6155
44.1935 1085 32.9393
44.3106 1076 32.8024
44.4277 985 31.3847
44.5448 958 30.9516
44.6619 896 29.9333
44.7791 874 29.5635
44.8963 975 31.225
45.0136 1007 31.7333
45.1308 1009 31.7648
45.2481 1091 33.0303
45.3654 1067 32.665
45.4827 1063 32.6037
45.6001 1095 33.0908
45.7174 1165 34.1321
45.8348 1046 32.3419
45.9522 1003 31.6702
46.0697 1060 32.5576
46.1871 927 30.4467
46.3046 920 30.3315
46.422 945 30.7409
46.5395 919 30.315
46.657 1035 32.1714
46.7745 941 30.6757
46.892 1012 31.8119
47.0096 1062 32.5883
47.1271 998 31.5911
47.2446 991 31.4802
47.3622 969 31.1288
47.4797 933 30.545
47.5973 904 30.0666
47.7149 891 29.8496
47.8324 856 29.2575
47.95 799 28.2666
48.0675 753 27.4408
48.1851 679 26.0576
48.3027 676 26
48.4202 732 27.0555
48.5378 704 26.533
48.6554 806 28.3901
48.7729 840 28.9828
48.8904 851 29.1719
49.008 920 30.3315
49.1255 929 30.4795
49.243 944 30.7246
49.3605 882 29.6985
49.478 874 29.5635
49.5955 842 29.0172
49.713 818 28.6007
49.8304 826 28.7402
49.9479 828 28.775
50.0653 950 30.8221
50.1827 985 31.3847
50.3001 1030 32.0936
50.4175 997 31.5753
50.5348 1064 32.619
50.6521 1058 32.5269
50.7694 1090 33.0151
50.8867 1113 33.3617
51.004 1167 34.1614
51.1212 1083 32.909
51.2384 1089 33
51.3556 1051 32.4191
51.4727 1037 32.2025
51.5899 956 30.9192
51.707 908 30.133
51.824 978 31.273
51.9411 967 31.0966
52.0581 1083 32.909
52.175 1187 34.4529
52.2919 1210 34.7851
52.4088 1320 36.3318
52.5257 1315 36.2629
52.6425 1310 36.1939
52.7593 1375 37.081
52.876 1341 36.6197
52.9927 1359 36.8646
53.1094 1378 37.1214
53.226 1302 36.0832
53.3426 1300 36.0555
53.4591 1309 36.1801
53.5756 1300 36.0555
53.692 1323 36.3731
53.8084 1440 37.9473
53.9248 1465 38.2753
54.0411 1449 38.0657
54.1573 1479 38.4578
54.2735 0 1
54.3896 0 1
54.5057 0 1
54.6217 0 1
54.7377 0 1
54.8537 0 1
54.9695 0 1
55.0853 0 1
55.2011 0 1
55.3168 0 1
55.4324 0 1
57.824 0 1
57.9396 0 1
58.0553 0 1
58.1711 0 1
58.2869 0 1
58.4028 0 1
58.5187 0 1
58.6347 0 1
58.7508 0 1
58.8669 0 1
58.983 1833 42.8135
59.0992 1843 42.9302
59.2155 1839 42.8836
59.3318 1880 43.359
59.4482 1928 43.909
59.5646 1905 43.6463
59.681 1930 43.9318
59.7975 1836 42.8486
59.9141 1792 42.332
60.0306 1722 41.497
60.1473 1633 40.4104
60.2639 1435 37.8814
60.3807 1412 37.5766
60.4974 1397 37.3765
60.6142 1444 38
60.731 1577 39.7115
60.8479 1624 40.2989
60.9648 1731 41.6053
61.0818 1813 42.5793
61.1987 1963 44.3058
61.3158 1856 43.0813
61.4328 1887 43.4396
61.5499 1870 43.2435
61.667 1873 43.2782
61.7841 1830 42.7785
61.9013 1750 41.833
62.0185 1778 42.1663
62.1357 1824 42.7083
62.253 1749 41.821
62.3702 1932 43.9545
62.4875 1924 43.8634
62.6049 1933 43.9659
62.7222 1949 44.1475
62.8396 1965 44.3283
62.9569 1944 44.0908
63.0743 1980 44.4972
63.1918 1905 43.6463
63.3092 1853 43.0465
63.4267 1852 43.0349
63.5441 1761 41.9643
63.6616 1629 40.3609
63.7791 1521 39
63.8966 1424 37.7359
64.0142 1380 37.1484
64.1317 1389 37.2693
64.2492 1487 38.5616
64.3668 1700 41.2311
64.4843 1797 42.391
64.6019 1931 43.9431
64.7195 1996 44.6766
64.837 1974 44.4297
64.9546 1917 43.7836
65.0722 1851 43.0232
65.1898 1791 42.3202
65.3074 1880 43.359
65.4249 1818 42.638
65.5425 1740 41.7133
65.6601 1744 41.7612
65.7777 1774 42.1189
65.8952 1912 43.7264
66.0128 1941 44.0568
66.1304 2039 45.1553
66.2479 2057 45.3542
66.3655 2060 45.3872
66.483 2017 44.911
66.6005 2071 45.5082
66.718 2029 45.0444
66.8355 2088 45.6946
66.953 1982 44.5197
67.0705 1875 43.3013
67.1879 1827 42.7434
67.3054 1660 40.7431
67.4228 1426 37.7624
67.5402 1347 36.7015
67.6576 1435 37.8814
67.7749 1376 37.0945
67.8923 1715 41.4126
68.0096 1868 43.2204
68.1269 1980 44.4972
68.2442 1994 44.6542
68.3614 2046 45.2327
68.4787 2090 45.7165
68.5958 2149 46.3573
68.713 2189 46.7868
68.8302 2058 45.3652
68.9473 2072 45.5192
69.0643 2027 45.0222
69.1814 2025 45
69.2984 2059 45.3762
69.4154 2084 45.6508
69.5323 2139 46.2493
69.6492 2211 47.0213
69.7661 2279 47.7389
69.8829 2318 48.1456
69.9997 2349 48.4665
70.1165 2337 48.3425
70.2332 2351 48.4871
70.3499 2418 49.1732
70.4665 2342 48.3942
70.5831 2270 47.6445
70.6996 2184 46.7333
70.8161 2069 45.4863
70.9326 1969 44.3734
71.049 1772 42.0951
71.1653 1614 40.1746
71.2817 1504 38.7814
71.3979 1530 39.1152
71.5141 1638 40.4722
71.6303 1730 41.5933
71.7464 1743 41.7493
71.8624 0 1
71.9784 0 1
72.0944 0 1
72.2102 0 1
72.3261 0 1
72.4418 0 1
72.5575 0 1
72.6732 0 1
75.1054 0 1
75.2209 0 1
75.3365 0 1
75.4521 0 1
75.5678 0 1
75.6835 0 1
75.7993 0 1
75.9151 0 1
76.031 0 1
76.147 2061 45.3982
76.263 1994 44.6542
76.3791 1907 43.6692
76.4952 1698 41.2068
76.6113 1561 39.5095
76.7276 1708 41.328
76.8438 1919 43.8064
76.9601 2093 45.7493
77.0765 2327 48.239
77.1929 2580 50.7937
77.3093 2516 50.1597
77.4258 2629 51.2738
77.5423 2623 51.2152
77.6589 2587 50.8626
77.7755 2673 51.7011
77.8921 2670 51.672
78.0088 2685 51.817
78.1256 2559 50.5866
78.2423 2517 50.1697
78.3591 2502 50.02
78.4759 2558 50.5767
78.5928 2765 52.5833
78.7097 2791 52.8299
78.8266 2855 53.4322
78.9436 2752 52.4595
79.0606 2803 52.9434
79.1776 2744 52.3832
79.2946 2855 53.4322
79.4117 2873 53.6004
79.5288 2878 53.647
79.6459 2685 51.817
79.7631 2644 51.4198
79.8802 2616 51.1468
79.9974 2263 47.571
80.1147 2038 45.1442
80.2319 1805 42.4853
80.3491 1766 42.0238
80.4664 2035 45.111
80.5837 2293 47.8853
80.701 2553 50.5272
80.8183 2738 52.3259
80.9357 2880 53.6656
81.053 2874 53.6097
81.1704 2877 53.6377
81.2877 2839 53.2823
81.4051 2849 53.376
81.5225 2952 54.3323
81.6399 2866 53.535
81.7573 2759 52.5262
81.8747 2645 51.4296
81.9922 2563 50.6261
82.1096 2682 51.788
82.227 2789 52.811
82.3444 2976 54.5527
82.4619 3021 54.9636
82.5793 2938 54.2033
82.6967 3120 55.857
82.8142 3026 55.0091
82.9316 2989 54.6717
83.049 2883 53.6936
83.1664 2912 53.963
83.2838 2825 53.1507
83.4012 2643 51.4101
83.5186 2689 51.8556
83.636 2396 48.949
83.7534 2158 46.4543
83.8708 1854 43.0581
83.9881 1838 42.8719
84.1055 2024 44.9889
84.2228 2260 47.5395
84.3401 2526 50.2593
84.4575 2791 52.8299
84.5747 2921 54.0463
84.692 2999 54.7631
84.8093 3108 55.7494
84.9265 3166 56.2672
85.0437 3107 55.7405
85.1609 3109 55.7584
85.2781 2994 54.7175
85.3952 3026 55.0091
85.5123 2907 53.9166
85.6294 2924 54.074
85.7465 3017 54.9272
85.8636 3151 56.1338
85.9806 3239 56.9122
86.0976 3319 57.6108
86.2145 3306 57.4978
86.3315 3303 57.4717
86.4484 3535 59.4559
86.5652 3488 59.0593
86.682 3429 58.5577
86.7988 3536 59.4643
86.9156 3433 58.5918
87.0323 3196 56.5332
87.149 3060 55.3173
87.2657 2875 53.619
87.3823 2468 49.679
87.4988 2267 47.613
87.6154 2388 48.8672
87.7318 2781 52.7352
87.8483 3114 55.8032
87.9647 3528 59.397
88.081 3618 60.1498
88.1973 3627 60.2246
88.3136 3745 61.1964
88.4298 3825 61.8466
88.546 3835 61.9274
88.6621 3790 61.563
88.7781 3747 61.2127
88.8942 0 1
89.0101 0 1
89.126 0 1
89.2419 0 1
89.3577 0 1
89.4734 0 1
89.5891 0 1
89.7047 0 1
89.8203 0 1
89.9358 0 1
92.3269 0 1
92.4424 0 1
92.558 0 1
92.6736 0 1
92.7893 0 1
92.905 0 1
93.0208 0 1
93.1366 0 1
93.2525 0 1
93.3685 0 1
93.4845 0 1
93.6005 4016 63.3719
93.7167 4012 63.3404
93.8328 4147 64.3972
93.949 4125 64.2262
94.0653 4043 63.5846
94.1816 4113 64.1327
94.2979 3972 63.0238
94.4143 3905 62.49
94.5307 4049 63.6318
94.6472 3885 62.3298
94.7637 3875 62.2495
94.8803 3893 62.3939
94.9969 4039 63.5531
95.1135 4103 64.0547
95.2302 4124 64.2184
95.3469 4321 65.7343
95.4637 4353 65.9773
95.5805 4335 65.8407
95.6973 4516 67.2012
95.8142 4384 66.2118
95.9311 4298 65.5591
96.048 4236 65.0846
96.1649 4099 64.0234
96.2819 3903 62.474
96.3989 3478 58.9746
96.516 3097 55.6507
96.633 2850 53.3854
96.7501 2750 52.4404
96.8673 2986 54.6443
96.9844 3393 58.2495
97.1016 3825 61.8466
97.2188 4287 65.4752
97.336 4489 67
97.4532 4600 67.8233
97.5704 4502 67.0969
97.6877 4616 67.9412
97.805 4691 68.4909
97.9223 4542 67.3944
98.0396 4707 68.6076
98.1569 4418 66.468
98.2743 4300 65.5744
98.3916 4339 65.8711
98.509 4415 66.4455
98.6264 4386 66.2269
98.7438 4477 66.9104
98.8612 4606 67.8675
98.9786 4750 68.9202
99.096 4759 68.9855
99.2134 4747 68.8985
99.3308 4857 69.6922
99.4482 4849 69.6348
99.5656 4773 69.0869
99.6831 4655 68.2276
99.8005 4598 67.8086
99.9179 4317 65.7039
100.035 3851 62.0564
100.153 3446 58.7026
100.27 3109 55.7584
100.388 3185 56.4358
100.505 3561 59.6741
100.622 4210 64.8845
100.74 4490 67.0075
100.857 4899 69.9929
100.975 5019 70.8449
101.092 4967 70.4769
101.209 4951 70.3633
101.327 4981 70.5762
101.444 4871 69.7925
101.561 5110 71.4843
101.679 4957 70.406
101.796 4861 69.7209
101.913 4652 68.2056
102.03 4670 68.3374
102.148 4563 67.55
102.265 4979 70.562
102.382 4706 68.6003
102.499 5016 70.8237
102.616 5322 72.952
102.733 5312 72.8835
102.851 5260 72.5259
102.968 5389 73.4098
103.085 5256 72.4983
103.202 5101 71.4213
103.319 4947 70.3349
103.436 4757 68.971
103.552 4246 65.1613
103.669 3701 60.8358
103.786 3257 57.0701
103.903 3466 58.8727
104.02 4088 63.9375
104.137 4609 67.8896
104.253 5259 72.519
104.37 5251 72.4638
104.487 5460 73.8918
104.603 5323 72.9589
104.72 5433 73.7089
104.836 5466 73.9324
104.953 5481 74.0338
105.069 5453 73.8444
105.186 5367 73.2598
105.302 5374 73.3076
105.418 5253 72.4776
105.535 5099 71.4073
105.651 5179 71.9653
105.767 5290 72.7324
105.883 5503 74.1822
105.999 5516 74.2698
106.115 0 1
106.231 0 1
106.347 0 1
106.463 0 1
106.579 0 1
106.694 0 1
106.81 0 1
106.926 0 1
107.041 0 1
107.157 0 1
109.576 0 1
109.692 0 1
109.807 0 1
109.923 0 1
110.039 0 1
110.155 0 1
110.27 0 1
110.386 0 1
110.502 0 1
110.618 4791 69.217
110.735 4976 70.5408
110.851 5079 71.2671
110.967 5200 72.111
111.083 5245 72.4224
111.199 5187 72.0208
111.316 5259 72.519
111.432 5265 72.5603
111.549 5388 73.403
111.665 5154 71.7914
111.782 4786 69.1809
111.898 4522 67.2458
112.015 4074 63.8279
112.132 3733 61.0983
112.248 3159 56.205
112.365 3308 57.5152
112.482 3649 60.407
112.599 4049 63.6318
112.716 4647 68.1689
112.832 4699 68.5493
112.949 4802 69.2965
113.066 4837 69.5485
113.183 4796 69.2532
113.3 4758 68.9783
113.417 4811 69.3614
113.534 4736 68.8186
113.652 4681 68.4178
113.769 4463 66.8057
113.886 4533 67.3276
114.003 4498 67.0671
114.12 4309 65.643
114.238 4405 66.3702
114.355 4358 66.0151
114.472 4379 66.174
114.589 4400 66.3325
114.707 4568 67.587
114.824 4597 67.8012
114.942 4659 68.2569
115.059 4653 68.2129
115.176 4539 67.3721
115.294 4464 66.8132
115.411 4266 65.3146
115.529 3977 63.0635
115.646 3555 59.6238
115.764 3160 56.2139
115.881 2820 53.1037
115.999 3159 56.205
116.116 3476 58.9576
116.234 3888 62.3538
116.351 4474 66.888
116.469 4501 67.0895
116.586 4558 67.513
116.704 4565 67.5648
116.821 4551 67.4611
116.939 4571 67.6092
117.056 4587 67.7274
117.174 4520 67.2309
117.291 4412 66.4229
117.409 4367 66.0833
117.526 4439 66.6258
117.644 4354 65.9848
117.761 4354 65.9848
117.879 4292 65.5134
117.996 4290 65.4981
118.114 4468 66.8431
118.231 4504 67.1118
118.349 4455 66.7458
118.466 4570 67.6018
118.584 4543 67.4018
118.701 4687 68.4617
118.819 4476 66.9029
118.936 4426 66.5282
119.053 4240 65.1153
119.171 4007 63.3009
119.288 3473 58.9322
119.405 3131 55.9553
119.523 2845 53.3385
119.64 3037 55.109
119.757 3434 58.6003
119.875 3800 61.6441
119.992 4110 64.1093
120.109 4204 64.8383
120.226 4449 66.7008
120.343 4522 67.2458
120.46 4398 66.3174
120.578 4234 65.0692
120.695 4253 65.215
120.812 4406 66.3777
120.929 4249 65.1844
121.046 4379 66.174
121.163 4229 65.0308
121.279 4221 64.9692
121.396 4124 64.2184
121.513 4096 64
121.63 4151 64.4283
121.747 4019 63.3956
121.863 4178 64.6375
121.98 4238 65.0999
122.097 4237 65.0922
122.213 4318 65.7115
122.33 4239 65.1076
122.446 4139 64.3351
122.563 4184 64.6838
122.679 4103 64.0547
122.795 3916 62.578
122.912 3659 60.4897
123.028 3353 57.9051
123.144 2956 54.3691
123.26 2816 53.066
123.377 0 1
123.493 0 1
123.609 0 1
123.725 0 1
123.84 0 1
123.956 0 1
124.072 0 1
124.188 0 1
124.303 0 1
124.419 0 1
126.852 0 1
126.968 0 1
127.083 0 1
127.199 0 1
127.315 0 1
127.431 0 1
127.547 0 1
127.663 0 1
127.779 0 1
127.895 0 1
128.011 0 1
128.127 0 1
128.243 0 1
128.359 3197 56.542
128.476 3093 55.6147
128.592 3058 55.2992
128.708 3635 60.291
128.825 4023 63.4271
128.941 4360 66.0303
129.058 4478 66.9179
129.174 4664 68.2935
129.291 4590 67.7495
129.408 4661 68.2715
129.524 4528 67.2904
129.641 4536 67.3498
129.758 4559 67.5204
129.875 4522 67.2458
129.992 4513 67.1789
130.108 4423 66.5056
130.225 4359 66.0227
130.342 4420 66.4831
130.459 4206 64.8537
130.576 4343 65.9014
130.693 4283 65.4446
130.81 4319 65.7191
130.928 4403 66.3551
131.045 4414 66.4379
131.162 4453 66.7308
131.279 4422 66.4981
131.396 4371 66.1135
131.513 4278 65.4064
131.631 4155 64.4593
131.748 4012 63.3404
131.865 3497 59.1354
131.983 3066 55.3715
132.1 3040 55.1362
132.217 3470 58.9067
132.335 3745 61.1964
132.452 4023 63.4271
132.57 4275 65.3835
132.687 4164 64.5291
132.804 4405 66.3702
132.922 4182 64.6684
133.039 4365 66.0681
133.157 4402 66.3476
133.274 4313 65.6734
133.392 4173 64.5988
133.509 4166 64.5446
133.627 4171 64.5833
133.744 4192 64.7457
133.862 4199 64.7997
133.979 4161 64.5058
134.097 4117 64.1639
134.214 4117 64.1639
134.332 4015 63.364
134.449 4116 64.1561
134.567 4054 63.671
134.684 4157 64.4748
134.802 4262 65.284
134.919 4214 64.9153
135.037 4152 64.436
135.154 3953 62.8729
135.272 3896 62.4179
135.389 3573 59.7746
135.507 3131 55.9553
135.624 2879 53.6563
135.742 3026 55.0091
135.859 3328 57.6888
135.977 3683 60.6877
136.094 4056 63.6867
136.211 4200 64.8074
136.329 4235 65.0769
136.446 4038 63.5453
136.564 4237 65.0922
136.681 4305 65.6125
136.798 4186 64.6993
136.915 4111 64.1171
137.033 4090 63.9531
137.15 4068 63.7809
137.267 4115 64.1483
137.384 3889 62.3618
137.502 3998 63.2297
137.619 3937 62.7455
137.736 3924 62.6418
137.853 3918 62.5939
137.97 3864 62.1611
138.087 4161 64.5058
138.204 3981 63.0952
138.321 4048 63.6239
138.438 3960 62.9285
138.555 4098 64.0156
138.672 4018 63.3877
138.788 3901 62.458
138.905 3703 60.8523
139.022 3637 60.3075
139.139 3227 56.8067
139.255 3025 55
139.372 3066 55.3715
139.488 3237 56.8946
139.605 3579 59.8247
139.721 3763 61.3433
139.838 4132 64.2806
139.954 4167 64.5523
140.071 4040 63.561
140.187 4134 64.2962
140.303 4085 63.914
140.419 3970 63.0079
140.535 4023 63.4271
140.652 3895 62.4099
140.768 0 1
140.884 0 1
141 0 1
141.115 0 1
141.231 0 1
141.347 0 1
141.463 0 1
141.578 0 1
141.694 0 1
144.104 0 1
144.219 0 1
144.335 0 1
144.45 0 1
144.566 0 1
144.682 0 1
144.798 0 1
144.914 0 1
145.03 0 1
145.146 3428 58.5491
145.262 3514 59.279
145.378 3401 58.3181
145.494 3491 59.0847
145.61 3359 57.9569
145.726 3469 58.8982
145.842 3340 57.7927
145.959 3286 57.3236
146.075 3287 57.3324
146.192 3325 57.6628
146.308 3416 58.4466
146.425 3275 57.2276
146.541 3186 56.4447
146.658 3310 57.5326
146.774 3148 56.107
146.891 3235 56.8771
147.008 3122 55.8749
147.125 3412 58.4123
147.241 3311 57.5413
147.358 3230 56.8331
147.475 3050 55.2268
147.592 2880 53.6656
147.709 2605 51.0392
147.826 2386 48.8467
147.943 2457 49.5681
148.06 2558 50.5767
148.177 2789 52.811
148.294 3127 55.9196
148.411 3237 56.8946
148.528 3324 57.6541
148.645 3132 55.9643
148.762 3195 56.5243
148.88 3177 56.3649
148.997 3073 55.4346
149.114 3305 57.4891
149.231 3152 56.1427
149.349 3134 55.9821
149.466 2816 53.066
149.583 2850 53.3854
149.701 2942 54.2402
149.818 2941 54.231
149.935 3113 55.7943
150.053 3005 54.8179
150.17 3011 54.8726
150.287 3001 54.7814
150.405 3025 55
150.522 3069 55.3986
150.64 3014 54.8999
150.757 2949 54.3047
150.875 3093 55.6147
150.992 2957 54.3783
151.11 2749 52.4309
151.227 2763 52.5642
151.344 2517 50.1697
151.462 2378 48.7647
151.579 2343 48.4045
151.697 2445 49.4469
151.814 2715 52.1057
151.932 2943 54.2494
152.049 3068 55.3895
152.167 3088 55.5698
152.284 3188 56.4624
152.402 3180 56.3915
152.519 3194 56.5155
152.636 3030 55.0454
152.754 3125 55.9017
152.871 3002 54.7905
152.989 3000 54.7723
153.106 2982 54.6077
153.223 3015 54.909
153.341 2896 53.8145
153.458 2881 53.6749
153.575 2995 54.7266
153.693 3036 55.0999
153.81 3139 56.0268
153.927 3048 55.2087
154.044 3009 54.8544
154.162 3032 55.0636
154.279 3026 55.0091
154.396 3100 55.6776
154.513 3099 55.6687
154.63 3119 55.848
154.747 2973 54.5252
154.864 2884 53.7029
154.981 2813 53.0377
155.098 2651 51.4879
155.215 2588 50.8724
155.332 2690 51.8652
155.449 2921 54.0463
155.566 3095 55.6327
155.683 3141 56.0446
155.8 3172 56.3205
155.917 3196 56.5332
156.033 3135 55.9911
156.15 0 1
156.267 0 1
156.383 0 1
156.5 0 1
156.617 0 1
156.733 0 1
156.85 0 1
156.966 0 1
157.082 0 1
157.199 0 1
157.315 0 1
157.431 0 1
157.547 0 1
157.664 0 1
157.78 0 1
157.896 0 1
158.012 0 1
158.128 0 1
158.244 0 1
158.359 0 1
158.475 0 1
158.591 0 1
158.706 0 1
