
6.15755 0 1
6.2731 0 1
6.3887 0 1
6.50437 0 1
6.62009 0 1
6.73587 0 1
6.8517 0 1
6.96759 0 1
7.08353 0 1
7.19952 0 1
7.31557 0 1
7.43166 0 1
7.54781 0 1
7.664 0 1
7.78024 0 1
7.89653 0 1
8.01286 0 1
8.12924 0 1
8.24567 0 1
8.36213 0 1
8.47864 0 1
8.59519 0 1
8.71178 0 1
8.82841 0 1
8.94508 0 1
9.06179 0 1
9.17853 0 1
9.29531 0 1
9.41212 0 1
9.52897 0 1
9.64584 0 1
9.76276 0 1
9.8797 0 1
9.99667 0 1
10.1137 0 1
10.2307 0 1
10.3478 0 1
10.4648 0 1
10.5819 0 1
10.6991 0 1
10.8162 0 1
10.9334 0 1
11.0506 0 1
11.1678 0 1
11.285 0 1
11.4023 0 1
11.5196 0 1
11.6369 0 1
11.7542 0 1
11.8715 0 1
11.9888 0 1
12.1062 0 1
12.2235 0 1
12.3409 0 1
12.4582 0 1
12.5756 0 1
12.693 0 1
12.8104 0 1
12.9278 0 1
13.0452 0 1
13.1626 0 1
13.28 0 1
13.3974 0 1
13.5149 0 1
13.6323 0 1
13.7497 0 1
13.8671 0 1
13.9845 0 1
14.1019 0 1
14.2193 0 1
14.3367 0 1
14.4541 0 1
14.5714 0 1
14.6888 0 1
14.8062 0 1
14.9235 0 1
15.0408 1322 36.3593
15.1581 1425 37.7492
15.2755 1543 39.281
15.3927 1456 38.1576
15.51 1519 38.9744
15.6273 1539 39.2301
15.7445 1590 39.8748
15.8617 1553 39.4081
15.9789 1454 38.1314
16.0961 1482 38.4968
16.2132 1528 39.0896
16.3304 1557 39.4588
16.4475 1594 39.9249
16.5646 1620 40.2492
16.6816 1644 40.5463
16.7986 1719 41.4608
16.9156 1797 42.391
17.0326 1688 41.0853
17.1496 1801 42.4382
17.2665 1738 41.6893
17.3833 1694 41.1582
17.5002 1655 40.6817
17.617 1615 40.1871
17.7338 1609 40.1123
17.8505 1578 39.724
17.9672 1560 39.4968
18.0839 1541 39.2556
18.2005 1560 39.4968
18.3171 1681 41
18.4337 1678 40.9634
18.5502 1640 40.4969
18.6666 1688 41.0853
18.7831 1717 41.4367
18.8994 1838 42.8719
19.0158 1663 40.7799
19.1321 1742 41.7373
19.2483 1535 39.1791
19.3645 1521 39
19.4806 1477 38.4318
19.5967 1358 36.8511
19.7128 1251 35.3695
19.8288 1204 34.6987
19.9447 1095 33.0908
20.0606 0 1
20.1764 0 1
20.2922 0 1
20.4079 0 1
20.5236 0 1
20.6392 0 1
20.7548 0 1
20.8702 0 1
23.3078 0 1
23.4233 0 1
23.539 0 1
23.6547 0 1
23.7704 0 1
23.8862 0 1
24.0021 0 1
24.118 0 1
24.234 0 1
24.35 0 1
24.4661 733 27.074
24.5822 836 28.9137
24.6984 964 31.0483
24.8146 1072 32.7414
24.9309 1162 34.0881
25.0472 1218 34.8999
25.1636 1404 37.47
25.28 1462 38.2361
25.3965 1676 40.939
25.513 1751 41.845
25.6296 1865 43.1856
25.7462 1753 41.8688
25.8628 1910 43.7035
25.9795 1864 43.1741
26.0962 1913 43.7379
26.213 1855 43.0697
26.3298 1770 42.0714
26.4466 1566 39.5727
26.5635 1572 39.6485
26.6804 1616 40.1995
26.7973 1661 40.7554
26.9143 1698 41.2068
27.0313 1702 41.2553
27.1483 1733 41.6293
27.2653 1832 42.8019
27.3824 1853 43.0465
27.4996 1815 42.6028
27.6167 1798 42.4028
27.7339 1812 42.5676
27.8511 1654 40.6694
27.9683 1699 41.2189
28.0855 1586 39.8246
28.2028 1532 39.1408
28.3201 1546 39.3192
28.4374 1480 38.4708
28.5547 1602 40.025
28.6721 1553 39.4081
28.7894 1681 41
28.9068 1729 41.5812
29.0242 1845 42.9535
29.1416 1943 44.0795
29.259 1871 43.2551
29.3764 1884 43.4051
29.4939 1947 44.1248
29.6113 1776 42.1426
29.7288 1712 41.3763
29.8463 1666 40.8167
29.9638 1567 39.5854
30.0812 1469 38.3275
30.1987 1532 39.1408
30.3162 1569 39.6106
30.4337 1558 39.4715
30.5512 1664 40.7922
30.6687 1757 41.9166
30.7862 1675 40.9268
30.9037 1695 41.1704
31.0212 1786 42.2611
31.1387 1854 43.0581
31.2562 1728 41.5692
31.3737 1711 41.3642
31.4912 1674 40.9145
31.6087 1614 40.1746
31.7262 1487 38.5616
31.8436 1452 38.1051
31.9611 1528 39.0896
32.0785 1499 38.7169
32.1959 1562 39.5221
32.3134 1607 40.0874
32.4308 1709 41.3401
32.5482 1702 41.2553
32.6655 1795 42.3674
32.7829 1809 42.5323
32.9002 1858 43.1045
33.0176 1814 42.5911
33.1349 1780 42.19
33.2522 1720 41.4729
33.3694 1645 40.5586
33.4867 1573 39.6611
33.6039 1392 37.3095
33.7211 1491 38.6135
33.8383 1457 38.1707
33.9554 1424 37.7359
34.0725 1582 39.7744
34.1896 1631 40.3856
34.3067 1574 39.6737
34.4237 1666 40.8167
34.5407 1649 40.6079
34.6577 1645 40.5586
34.7746 1717 41.4367
34.8915 1701 41.2432
35.0084 1558 39.4715
35.1252 1545 39.3065
35.242 1534 39.1663
35.3587 1482 38.4968
35.4755 1464 38.2623
35.5921 1466 38.2884
35.7088 1393 37.3229
35.8254 1468 38.3145
35.9419 1475 38.4057
36.0584 1504 38.7814
36.1749 1567 39.5854
36.2913 1583 39.7869
36.4077 1577 39.7115
36.524 1537 39.2046
36.6403 1516 38.9358
36.7565 1383 37.1887
36.8727 1346 36.6879
36.9889 1260 35.4965
37.1049 1093 33.0606
37.221 0 1
37.3369 0 1
37.4529 0 1
37.5687 0 1
37.6845 0 1
37.8003 0 1
37.916 0 1
38.0316 0 1
38.1472 0 1
40.5851 0 1
40.7008 0 1
40.8164 0 1
40.9322 0 1
41.048 0 1
41.1639 0 1
41.2798 0 1
41.3958 0 1
41.5118 0 1
41.6279 0 1
41.744 762 27.6043
41.8602 846 29.0861
41.9765 983 31.3528
42.0928 983 31.3528
42.2091 957 30.9354
42.3255 977 31.257
42.4419 950 30.8221
42.5584 997 31.5753
42.675 1062 32.5883
42.7915 1181 34.3657
42.9081 1211 34.7994
43.0248 1275 35.7071
43.1415 1406 37.4967
43.2582 1343 36.647
43.375 1374 37.0675
43.4918 1368 36.9865
43.6087 1325 36.4005
43.7256 1387 37.2424
43.8425 1404 37.47
43.9595 1246 35.2987
44.0765 1315 36.2629
44.1935 1246 35.2987
44.3106 1208 34.7563
44.4277 1103 33.2114
44.5448 1181 34.3657
44.6619 1192 34.5254
44.7791 1279 35.7631
44.8963 1297 36.0139
45.0136 1373 37.054
45.1308 1384 37.2022
45.2481 1372 37.0405
45.3654 1474 38.3927
45.4827 1479 38.4578
45.6001 1393 37.3229
45.7174 1394 37.3363
45.8348 1259 35.4824
45.9522 1160 34.0588
46.0697 1174 34.2637
46.1871 1125 33.541
46.3046 1137 33.7194
46.422 1200 34.641
46.5395 1295 35.9861
46.657 1356 36.8239
46.7745 1460 38.2099
46.892 1359 36.8646
47.0096 1435 37.8814
47.1271 1370 37.0135
47.2446 1425 37.7492
47.3622 1469 38.3275
47.4797 1373 37.054
47.5973 1388 37.2559
47.7149 1350 36.7423
47.8324 1297 36.0139
47.95 1224 34.9857
48.0675 1211 34.7994
48.1851 1246 35.2987
48.3027 1245 35.2846
48.4202 1279 35.7631
48.5378 1336 36.5513
48.6554 1401 37.4299
48.7729 1417 37.6431
48.8904 1429 37.8021
49.008 1492 38.6264
49.1255 1474 38.3927
49.243 1429 37.8021
49.3605 1260 35.4965
49.478 1149 33.8969
49.5955 1137 33.7194
49.713 1119 33.4515
49.8304 1110 33.3167
49.9479 1210 34.7851
50.0653 1267 35.5949
50.1827 1323 36.3731
50.3001 1360 36.8782
50.4175 1369 37
50.5348 1365 36.9459
50.6521 1439 37.9342
50.7694 1476 38.4187
50.8867 1455 38.1445
51.004 1429 37.8021
51.1212 1493 38.6394
51.2384 1411 37.5633
51.3556 1392 37.3095
51.4727 1375 37.081
51.5899 1297 36.0139
51.707 1261 35.5106
51.824 1388 37.2559
51.9411 1450 38.0789
52.0581 1609 40.1123
52.175 1696 41.1825
52.2919 1639 40.4846
52.4088 1687 41.0731
52.5257 1762 41.9762
52.6425 1905 43.6463
52.7593 1865 43.1856
52.876 1795 42.3674
52.9927 1651 40.6325
53.1094 1608 40.0999
53.226 1492 38.6264
53.3426 1491 38.6135
53.4591 1437 37.9078
53.5756 1454 38.1314
53.692 1491 38.6135
53.8084 1472 38.3667
53.9248 1353 36.7831
54.0411 1410 37.55
54.1573 1256 35.4401
54.2735 0 1
54.3896 0 1
54.5057 0 1
54.6217 0 1
54.7377 0 1
54.8537 0 1
54.9695 0 1
55.0853 0 1
55.2011 0 1
55.3168 0 1
55.4324 0 1
57.824 0 1
57.9396 0 1
58.0553 0 1
58.1711 0 1
58.2869 0 1
58.4028 0 1
58.5187 0 1
58.6347 0 1
58.7508 0 1
58.8669 0 1
58.983 1074 32.7719
59.0992 1224 34.9857
59.2155 1319 36.318
59.3318 1388 37.2559
59.4482 1549 39.3573
59.5646 1501 38.7427
59.681 1606 40.0749
59.7975 1589 39.8623
59.9141 1654 40.6694
60.0306 1545 39.3065
60.1473 1542 39.2683
60.2639 1529 39.1024
60.3807 1514 38.9102
60.4974 1511 38.8716
60.6142 1532 39.1408
60.731 1618 40.2244
60.8479 1763 41.9881
60.9648 1770 42.0714
61.0818 1817 42.6263
61.1987 1760 41.9524
61.3158 1812 42.5676
61.4328 1665 40.8044
61.5499 1635 40.4351
61.667 1457 38.1707
61.7841 1419 37.6696
61.9013 1402 37.4433
62.0185 1364 36.9324
62.1357 1427 37.7757
62.253 1557 39.4588
62.3702 1618 40.2244
62.4875 1603 40.0375
62.6049 1715 41.4126
62.7222 1692 41.1339
62.8396 1746 41.7852
62.9569 1654 40.6694
63.0743 1768 42.0476
63.1918 1760 41.9524
63.3092 1685 41.0488
63.4267 1607 40.0874
63.5441 1552 39.3954
63.6616 1548 39.3446
63.7791 1499 38.7169
63.8966 1510 38.8587
64.0142 1458 38.1838
64.1317 1612 40.1497
64.2492 1619 40.2368
64.3668 1686 41.0609
64.4843 1760 41.9524
64.6019 1690 41.1096
64.7195 1817 42.6263
64.837 1683 41.0244
64.9546 1715 41.4126
65.0722 1645 40.5586
65.1898 1483 38.5097
65.3074 1338 36.5787
65.4249 1352 36.7696
65.5425 1291 35.9305
65.6601 1339 36.5923
65.7777 1422 37.7094
65.8952 1539 39.2301
66.0128 1630 40.3733
66.1304 1605 40.0625
66.2479 1669 40.8534
66.3655 1709 41.3401
66.483 1698 41.2068
66.6005 1725 41.5331
66.718 1690 41.1096
66.8355 1703 41.2674
66.953 1719 41.4608
67.0705 1610 40.1248
67.1879 1584 39.7995
67.3054 1494 38.6523
67.4228 1341 36.6197
67.5402 1339 36.5923
67.6576 1343 36.647
67.7749 1450 38.0789
67.8923 1579 39.7366
68.0096 1591 39.8873
68.1269 1607 40.0874
68.2442 1626 40.3237
68.3614 1659 40.7308
68.4787 1653 40.6571
68.5958 1660 40.7431
68.713 1537 39.2046
68.8302 1465 38.2753
68.9473 1370 37.0135
69.0643 1228 35.0428
69.1814 1199 34.6266
69.2984 1282 35.805
69.4154 1354 36.7967
69.5323 1472 38.3667
69.6492 1483 38.5097
69.7661 1563 39.5348
69.8829 1633 40.4104
69.9997 1521 39
70.1165 1436 37.8946
70.2332 1523 39.0256
70.3499 1445 38.0132
70.4665 1296 36
70.5831 1306 36.1386
70.6996 1231 35.0856
70.8161 1141 33.7787
70.9326 1055 32.4808
71.049 927 30.4467
71.1653 757 27.5136
71.2817 679 26.0576
71.3979 648 25.4558
71.5141 610 24.6982
71.6303 643 25.3574
71.7464 562 23.7065
71.8624 0 1
71.9784 0 1
72.0944 0 1
72.2102 0 1
72.3261 0 1
72.4418 0 1
72.5575 0 1
72.6732 0 1
75.1054 0 1
75.2209 0 1
75.3365 0 1
75.4521 0 1
75.5678 0 1
75.6835 0 1
75.7993 0 1
75.9151 0 1
76.031 0 1
76.147 991 31.4802
76.263 1046 32.3419
76.3791 1121 33.4813
76.4952 1026 32.0312
76.6113 1099 33.1512
76.7276 1213 34.8281
76.8438 1226 35.0143
76.9601 1457 38.1707
77.0765 1424 37.7359
77.1929 1479 38.4578
77.3093 1471 38.3536
77.4258 1491 38.6135
77.5423 1471 38.3536
77.6589 1356 36.8239
77.7755 1235 35.1426
77.8921 1189 34.4819
78.0088 1053 32.45
78.1256 1028 32.0624
78.2423 1017 31.8904
78.3591 1108 33.2866
78.4759 1185 34.4238
78.5928 1272 35.6651
78.7097 1364 36.9324
78.8266 1449 38.0657
78.9436 1490 38.6005
79.0606 1404 37.47
79.1776 1461 38.223
79.2946 1490 38.6005
79.4117 1553 39.4081
79.5288 1459 38.1969
79.6459 1383 37.1887
79.7631 1437 37.9078
79.8802 1358 36.8511
79.9974 1353 36.7831
80.1147 1189 34.4819
80.2319 1197 34.5977
80.3491 1202 34.6699
80.4664 1365 36.9459
80.5837 1375 37.081
80.701 1457 38.1707
80.8183 1531 39.128
80.9357 1495 38.6652
81.053 1515 38.923
81.1704 1485 38.5357
81.2877 1564 39.5474
81.4051 1420 37.6829
81.5225 1245 35.2846
81.6399 1186 34.4384
81.7573 1149 33.8969
81.8747 1081 32.8786
81.9922 1093 33.0606
82.1096 1159 34.0441
82.227 1254 35.4119
82.3444 1392 37.3095
82.4619 1416 37.6298
82.5793 1511 38.8716
82.6967 1473 38.3797
82.8142 1546 39.3192
82.9316 1513 38.8973
83.049 1484 38.5227
83.1664 1620 40.2492
83.2838 1533 39.1535
83.4012 1497 38.6911
83.5186 1410 37.55
83.636 1343 36.647
83.7534 1286 35.8608
83.8708 1186 34.4384
83.9881 1228 35.0428
84.1055 1307 36.1525
84.2228 1357 36.8375
84.3401 1435 37.8814
84.4575 1579 39.7366
84.5747 1558 39.4715
84.692 1487 38.5616
84.8093 1546 39.3192
84.9265 1522 39.0128
85.0437 1387 37.2424
85.1609 1297 36.0139
85.2781 1131 33.6303
85.3952 1147 33.8674
85.5123 1122 33.4963
85.6294 1122 33.4963
85.7465 1234 35.1283
85.8636 1303 36.0971
85.9806 1433 37.855
86.0976 1474 38.3927
86.2145 1511 38.8716
86.3315 1542 39.2683
86.4484 1525 39.0512
86.5652 1626 40.3237
86.682 1483 38.5097
86.7988 1561 39.5095
86.9156 1516 38.9358
87.0323 1506 38.8072
87.149 1403 37.4566
87.2657 1431 37.8286
87.3823 1248 35.327
87.4988 1160 34.0588
87.6154 1025 32.0156
87.7318 1095 33.0908
87.8483 1204 34.6987
87.9647 1179 34.3366
88.081 1195 34.5688
88.1973 1171 34.2199
88.3136 1114 33.3766
88.4298 1046 32.3419
88.546 1044 32.311
88.6621 835 28.8964
88.7781 648 25.4558
88.8942 0 1
89.0101 0 1
89.126 0 1
89.2419 0 1
89.3577 0 1
89.4734 0 1
89.5891 0 1
89.7047 0 1
89.8203 0 1
89.9358 0 1
92.3269 0 1
92.4424 0 1
92.558 0 1
92.6736 0 1
92.7893 0 1
92.905 0 1
93.0208 0 1
93.1366 0 1
93.2525 0 1
93.3685 0 1
93.4845 0 1
93.6005 1151 33.9264
93.7167 1267 35.5949
93.8328 1285 35.8469
93.949 1301 36.0694
94.0653 1367 36.973
94.1816 1286 35.8608
94.2979 1230 35.0714
94.4143 1192 34.5254
94.5307 1160 34.0588
94.6472 1122 33.4963
94.7637 1096 33.1059
94.8803 1242 35.242
94.9969 1342 36.6333
95.1135 1366 36.9594
95.2302 1505 38.7943
95.3469 1508 38.833
95.4637 1513 38.8973
95.5805 1598 39.975
95.6973 1485 38.5357
95.8142 1618 40.2244
95.9311 1565 39.5601
96.048 1563 39.5348
96.1649 1507 38.8201
96.2819 1514 38.9102
96.3989 1437 37.9078
96.516 1419 37.6696
96.633 1355 36.8103
96.7501 1244 35.2704
96.8673 1331 36.4829
96.9844 1340 36.606
97.1016 1449 38.0657
97.2188 1534 39.1663
97.336 1547 39.3319
97.4532 1622 40.2741
97.5704 1700 41.2311
97.6877 1585 39.8121
97.805 1565 39.5601
97.9223 1357 36.8375
98.0396 1269 35.623
98.1569 1205 34.7131
98.2743 1156 34
98.3916 1139 33.7491
98.509 1173 34.2491
98.6264 1332 36.4966
98.7438 1461 38.223
98.8612 1449 38.0657
98.9786 1554 39.4208
99.096 1572 39.6485
99.2134 1666 40.8167
99.3308 1703 41.2674
99.4482 1723 41.509
99.5656 1709 41.3401
99.6831 1631 40.3856
99.8005 1682 41.0122
99.9179 1584 39.7995
100.035 1516 38.9358
100.153 1382 37.1753
100.27 1343 36.647
100.388 1386 37.229
100.505 1442 37.9737
100.622 1567 39.5854
100.74 1648 40.5956
100.857 1679 40.9756
100.975 1765 42.0119
101.092 1715 41.4126
101.209 1678 40.9634
101.327 1704 41.2795
101.444 1603 40.0375
101.561 1470 38.3406
101.679 1346 36.6879
101.796 1308 36.1663
101.913 1183 34.3948
102.03 1230 35.0714
102.148 1362 36.9053
102.265 1513 38.8973
102.382 1593 39.9124
102.499 1605 40.0625
102.616 1675 40.9268
102.733 1654 40.6694
102.851 1792 42.332
102.968 1760 41.9524
103.085 1772 42.0951
103.202 1713 41.3884
103.319 1710 41.3521
103.436 1636 40.4475
103.552 1692 41.1339
103.669 1504 38.7814
103.786 1511 38.8716
103.903 1481 38.4838
104.02 1523 39.0256
104.137 1661 40.7554
104.253 1751 41.845
104.37 1762 41.9762
104.487 1798 42.4028
104.603 1788 42.2847
104.72 1833 42.8135
104.836 1669 40.8534
104.953 1510 38.8587
105.069 1349 36.7287
105.186 1235 35.1426
105.302 1190 34.4964
105.418 1104 33.2265
105.535 1106 33.2566
105.651 1127 33.5708
105.767 1104 33.2265
105.883 1070 32.7109
105.999 1014 31.8434
106.115 0 1
106.231 0 1
106.347 0 1
106.463 0 1
106.579 0 1
106.694 0 1
106.81 0 1
106.926 0 1
107.041 0 1
107.157 0 1
109.576 0 1
109.692 0 1
109.807 0 1
109.923 0 1
110.039 0 1
110.155 0 1
110.27 0 1
110.386 0 1
110.502 0 1
110.618 742 27.2397
110.735 990 31.4643
110.851 1157 34.0147
110.967 1313 36.2353
111.083 1422 37.7094
111.199 1479 38.4578
111.316 1572 39.6485
111.432 1612 40.1497
111.549 1529 39.1024
111.665 1707 41.3159
111.782 1672 40.8901
111.898 1575 39.6863
112.015 1542 39.2683
112.132 1465 38.2753
112.248 1383 37.1887
112.365 1358 36.8511
112.482 1384 37.2022
112.599 1453 38.1182
112.716 1511 38.8716
112.832 1636 40.4475
112.949 1700 41.2311
113.066 1664 40.7922
113.183 1590 39.8748
113.3 1651 40.6325
113.417 1653 40.6571
113.534 1468 38.3145
113.652 1460 38.2099
113.769 1273 35.6791
113.886 1166 34.1467
114.003 1159 34.0441
114.12 1195 34.5688
114.238 1296 36
114.355 1499 38.7169
114.472 1476 38.4187
114.589 1692 41.1339
114.707 1609 40.1123
114.824 1682 41.0122
114.942 1724 41.5211
115.059 1699 41.2189
115.176 1638 40.4722
115.294 1655 40.6817
115.411 1696 41.1825
115.529 1586 39.8246
115.646 1661 40.7554
115.764 1494 38.6523
115.881 1467 38.3014
115.999 1363 36.9188
116.116 1398 37.3898
116.234 1436 37.8946
116.351 1668 40.8412
116.469 1696 41.1825
116.586 1711 41.3642
116.704 1671 40.8779
116.821 1735 41.6533
116.939 1679 40.9756
117.056 1678 40.9634
117.174 1513 38.8973
117.291 1416 37.6298
117.409 1237 35.171
117.526 1191 34.5109
117.644 1122 33.4963
117.761 1273 35.6791
117.879 1342 36.6333
117.996 1503 38.7685
118.114 1607 40.0874
118.231 1620 40.2492
118.349 1550 39.37
118.466 1645 40.5586
118.584 1610 40.1248
118.701 1610 40.1248
118.819 1531 39.128
118.936 1614 40.1746
119.053 1525 39.0512
119.171 1547 39.3319
119.288 1428 37.7889
119.405 1448 38.0526
119.523 1308 36.1663
119.64 1302 36.0832
119.757 1267 35.5949
119.875 1421 37.6962
119.992 1515 38.923
120.109 1519 38.9744
120.226 1455 38.1445
120.343 1572 39.6485
120.46 1526 39.064
120.578 1548 39.3446
120.695 1440 37.9473
120.812 1430 37.8153
120.929 1312 36.2215
121.046 1226 35.0143
121.163 1077 32.8177
121.279 1030 32.0936
121.396 1114 33.3766
121.513 1151 33.9264
121.63 1146 33.8526
121.747 1302 36.0832
121.863 1252 35.3836
121.98 1278 35.7491
122.097 1209 34.7707
122.213 1164 34.1174
122.33 1165 34.1321
122.446 1162 34.0881
122.563 1055 32.4808
122.679 1038 32.218
122.795 948 30.7896
122.912 817 28.5832
123.028 791 28.1247
123.144 648 25.4558
123.26 661 25.7099
123.377 0 1
123.493 0 1
123.609 0 1
123.725 0 1
123.84 0 1
123.956 0 1
124.072 0 1
124.188 0 1
124.303 0 1
124.419 0 1
126.852 0 1
126.968 0 1
127.083 0 1
127.199 0 1
127.315 0 1
127.431 0 1
127.547 0 1
127.663 0 1
127.779 0 1
127.895 0 1
128.011 0 1
128.127 0 1
128.243 0 1
128.359 1451 38.092
128.476 1465 38.2753
128.592 1415 37.6165
128.708 1472 38.3667
128.825 1448 38.0526
128.941 1527 39.0768
129.058 1608 40.0999
129.174 1716 41.4246
129.291 1635 40.4351
129.408 1712 41.3763
129.524 1672 40.8901
129.641 1726 41.5452
129.758 1594 39.9249
129.875 1495 38.6652
129.992 1450 38.0789
130.108 1294 35.9722
130.225 1264 35.5528
130.342 1249 35.3412
130.459 1336 36.5513
130.576 1505 38.7943
130.693 1510 38.8587
130.81 1570 39.6232
130.928 1627 40.3361
131.045 1658 40.7185
131.162 1695 41.1704
131.279 1787 42.2729
131.396 1754 41.8808
131.513 1650 40.6202
131.631 1739 41.7013
131.748 1612 40.1497
131.865 1517 38.9487
131.983 1595 39.9375
132.1 1489 38.5876
132.217 1490 38.6005
132.335 1580 39.7492
132.452 1603 40.0375
132.57 1607 40.0874
132.687 1648 40.5956
132.804 1722 41.497
132.922 1709 41.3401
133.039 1700 41.2311
133.157 1693 41.1461
133.274 1662 40.7676
133.392 1608 40.0999
133.509 1469 38.3275
133.627 1450 38.0789
133.744 1294 35.9722
133.862 1216 34.8712
133.979 1269 35.623
134.097 1406 37.4967
134.214 1513 38.8973
134.332 1535 39.1791
134.449 1614 40.1746
134.567 1670 40.8656
134.684 1722 41.497
134.802 1683 41.0244
134.919 1730 41.5933
135.037 1765 42.0119
135.154 1702 41.2553
135.272 1607 40.0874
135.389 1632 40.398
135.507 1660 40.7431
135.624 1480 38.4708
135.742 1530 39.1152
135.859 1497 38.6911
135.977 1557 39.4588
136.094 1465 38.2753
136.211 1641 40.5093
136.329 1689 41.0974
136.446 1774 42.1189
136.564 1696 41.1825
136.681 1702 41.2553
136.798 1740 41.7133
136.915 1715 41.4126
137.033 1524 39.0384
137.15 1512 38.8844
137.267 1363 36.9188
137.384 1289 35.9026
137.502 1270 35.6371
137.619 1235 35.1426
137.736 1434 37.8682
137.853 1515 38.923
137.97 1517 38.9487
138.087 1557 39.4588
138.204 1614 40.1746
138.321 1621 40.2616
138.438 1649 40.6079
138.555 1684 41.0366
138.672 1542 39.2683
138.788 1674 40.9145
138.905 1559 39.4842
139.022 1462 38.2361
139.139 1460 38.2099
139.255 1308 36.1663
139.372 1216 34.8712
139.488 1105 33.2415
139.605 1159 34.0441
139.721 1177 34.3074
139.838 1171 34.2199
139.954 1152 33.9411
140.071 1161 34.0735
140.187 976 31.241
140.303 933 30.545
140.419 871 29.5127
140.535 822 28.6705
140.652 742 27.2397
140.768 0 1
140.884 0 1
141 0 1
141.115 0 1
141.231 0 1
141.347 0 1
141.463 0 1
141.578 0 1
141.694 0 1
144.104 0 1
144.219 0 1
144.335 0 1
144.45 0 1
144.566 0 1
144.682 0 1
144.798 0 1
144.914 0 1
145.03 0 1
145.146 1133 33.6601
145.262 1340 36.606
145.378 1343 36.647
145.494 1390 37.2827
145.61 1368 36.9865
145.726 1338 36.5787
145.842 1209 34.7707
145.959 1192 34.5254
146.075 1042 32.28
146.192 1058 32.5269
146.308 1050 32.4037
146.425 1073 32.7567
146.541 1165 34.1321
146.658 1224 34.9857
146.774 1226 35.0143
146.891 1228 35.0428
147.008 1266 35.5809
147.125 1295 35.9861
147.241 1288 35.8887
147.358 1364 36.9324
147.475 1324 36.3868
147.592 1307 36.1525
147.709 1309 36.1801
147.826 1281 35.7911
147.943 1195 34.5688
148.06 1208 34.7563
148.177 1204 34.6987
148.294 1193 34.5398
148.411 1198 34.6121
148.528 1245 35.2846
148.645 1309 36.1801
148.762 1307 36.1525
148.88 1347 36.7015
148.997 1372 37.0405
149.114 1366 36.9594
149.231 1309 36.1801
149.349 1386 37.229
149.466 1238 35.1852
149.583 1240 35.2136
149.701 1150 33.9116
149.818 1106 33.2566
149.935 1090 33.0151
150.053 975 31.225
150.17 1159 34.0441
150.287 1149 33.8969
150.405 1169 34.1906
150.522 1243 35.2562
150.64 1231 35.0856
150.757 1249 35.3412
150.875 1293 35.9583
150.992 1293 35.9583
151.11 1289 35.9026
151.227 1242 35.242
151.344 1220 34.9285
151.462 1239 35.1994
151.579 1162 34.0881
151.697 1174 34.2637
151.814 1108 33.2866
151.932 1133 33.6601
152.049 1176 34.2929
152.167 1151 33.9264
152.284 1207 34.7419
152.402 1244 35.2704
152.519 1239 35.1994
152.636 1286 35.8608
152.754 1307 36.1525
152.871 1279 35.7631
152.989 1289 35.9026
153.106 1189 34.4819
153.223 1120 33.4664
153.341 1046 32.3419
153.458 1017 31.8904
153.575 958 30.9516
153.693 966 31.0805
153.81 988 31.4325
153.927 1045 32.3265
154.044 1126 33.5559
154.162 1130 33.6155
154.279 1131 33.6303
154.396 1263 35.5387
154.513 1168 34.176
154.63 1266 35.5809
154.747 1151 33.9264
154.864 1178 34.322
154.981 1148 33.8821
155.098 1160 34.0588
155.215 1175 34.2783
155.332 1048 32.3728
155.449 1059 32.5423
155.566 1077 32.8177
155.683 1073 32.7567
155.8 1033 32.1403
155.917 1094 33.0757
156.033 1072 32.7414
156.15 0 1
156.267 0 1
156.383 0 1
156.5 0 1
156.617 0 1
156.733 0 1
156.85 0 1
156.966 0 1
157.082 0 1
157.199 0 1
157.315 0 1
157.431 0 1
157.547 0 1
157.664 0 1
157.78 0 1
157.896 0 1
158.012 0 1
158.128 0 1
158.244 0 1
158.359 0 1
158.475 0 1
158.591 0 1
158.706 0 1
