
6.15755 0 1
6.2731 0 1
6.3887 0 1
6.50437 0 1
6.62009 0 1
6.73587 0 1
6.8517 0 1
6.96759 0 1
7.08353 0 1
7.19952 0 1
7.31557 0 1
7.43166 0 1
7.54781 0 1
7.664 0 1
7.78024 0 1
7.89653 0 1
8.01286 0 1
8.12924 0 1
8.24567 0 1
8.36213 0 1
8.47864 0 1
8.59519 0 1
8.71178 0 1
8.82841 0 1
8.94508 0 1
9.06179 0 1
9.17853 0 1
9.29531 0 1
9.41212 0 1
9.52897 0 1
9.64584 0 1
9.76276 0 1
9.8797 0 1
9.99667 0 1
10.1137 0 1
10.2307 0 1
10.3478 0 1
10.4648 0 1
10.5819 0 1
10.6991 0 1
10.8162 0 1
10.9334 0 1
11.0506 0 1
11.1678 0 1
11.285 0 1
11.4023 0 1
11.5196 0 1
11.6369 0 1
11.7542 0 1
11.8715 0 1
11.9888 0 1
12.1062 0 1
12.2235 0 1
12.3409 0 1
12.4582 0 1
12.5756 0 1
12.693 0 1
12.8104 0 1
12.9278 0 1
13.0452 0 1
13.1626 0 1
13.28 0 1
13.3974 0 1
13.5149 0 1
13.6323 0 1
13.7497 0 1
13.8671 0 1
13.9845 0 1
14.1019 0 1
14.2193 0 1
14.3367 0 1
14.4541 0 1
14.5714 0 1
14.6888 0 1
14.8062 0 1
14.9235 0 1
15.0408 681 26.096
15.1581 699 26.4386
15.2755 750 27.3861
15.3927 821 28.6531
15.51 780 27.9285
15.6273 762 27.6043
15.7445 736 27.1293
15.8617 804 28.3549
15.9789 769 27.7308
16.0961 740 27.2029
16.2132 762 27.6043
16.3304 756 27.4955
16.4475 771 27.7669
16.5646 791 28.1247
16.6816 848 29.1204
16.7986 842 29.0172
16.9156 916 30.2655
17.0326 894 29.8998
17.1496 918 30.2985
17.2665 795 28.1957
17.3833 834 28.8791
17.5002 871 29.5127
17.617 772 27.7849
17.7338 794 28.178
17.8505 770 27.7489
17.9672 741 27.2213
18.0839 774 27.8209
18.2005 725 26.9258
18.3171 795 28.1957
18.4337 862 29.3598
18.5502 861 29.3428
18.6666 886 29.7658
18.7831 888 29.7993
18.8994 865 29.4109
19.0158 794 28.178
19.1321 788 28.0713
19.2483 771 27.7669
19.3645 733 27.074
19.4806 702 26.4953
19.5967 645 25.3969
19.7128 630 25.0998
19.8288 580 24.0832
19.9447 488 22.0907
20.0606 0 1
20.1764 0 1
20.2922 0 1
20.4079 0 1
20.5236 0 1
20.6392 0 1
20.7548 0 1
20.8702 0 1
23.3078 0 1
23.4233 0 1
23.539 0 1
23.6547 0 1
23.7704 0 1
23.8862 0 1
24.0021 0 1
24.118 0 1
24.234 0 1
24.35 0 1
24.4661 316 17.7764
24.5822 421 20.5183
24.6984 458 21.4009
24.8146 485 22.0227
24.9309 583 24.1454
25.0472 625 25
25.1636 604 24.5764
25.28 713 26.7021
25.3965 740 27.2029
25.513 754 27.4591
25.6296 833 28.8617
25.7462 933 30.545
25.8628 850 29.1548
25.9795 853 29.2062
26.0962 885 29.7489
26.213 902 30.0333
26.3298 744 27.2764
26.4466 800 28.2843
26.5635 722 26.8701
26.6804 738 27.1662
26.7973 777 27.8747
26.9143 793 28.1603
27.0313 799 28.2666
27.1483 782 27.9643
27.2653 880 29.6648
27.3824 833 28.8617
27.4996 892 29.8664
27.6167 847 29.1033
27.7339 803 28.3373
27.8511 785 28.0179
27.9683 784 28
28.0855 791 28.1247
28.2028 781 27.9464
28.3201 710 26.6458
28.4374 696 26.3818
28.5547 695 26.3629
28.6721 734 27.0924
28.7894 720 26.8328
28.9068 843 29.0345
29.0242 826 28.7402
29.1416 885 29.7489
29.259 868 29.4618
29.3764 887 29.7825
29.4939 832 28.8444
29.6113 848 29.1204
29.7288 803 28.3373
29.8463 768 27.7128
29.9638 698 26.4197
30.0812 685 26.1725
30.1987 788 28.0713
30.3162 775 27.8388
30.4337 760 27.5681
30.5512 744 27.2764
30.6687 792 28.1425
30.7862 828 28.775
30.9037 810 28.4605
31.0212 829 28.7924
31.1387 832 28.8444
31.2562 790 28.1069
31.3737 753 27.4408
31.4912 783 27.9821
31.6087 756 27.4955
31.7262 691 26.2869
31.8436 710 26.6458
31.9611 664 25.7682
32.0785 684 26.1534
32.1959 742 27.2397
32.3134 703 26.5141
32.4308 730 27.0185
32.5482 844 29.0517
32.6655 790 28.1069
32.7829 847 29.1033
32.9002 851 29.1719
33.0176 806 28.3901
33.1349 811 28.4781
33.2522 749 27.3679
33.3694 771 27.7669
33.4867 735 27.1109
33.6039 665 25.7876
33.7211 641 25.318
33.8383 650 25.4951
33.9554 709 26.6271
34.0725 745 27.2947
34.1896 718 26.7955
34.3067 792 28.1425
34.4237 755 27.4773
34.5407 751 27.4044
34.6577 808 28.4253
34.7746 774 27.8209
34.8915 760 27.5681
35.0084 799 28.2666
35.1252 777 27.8747
35.242 694 26.3439
35.3587 693 26.3249
35.4755 620 24.8998
35.5921 683 26.1343
35.7088 632 25.1396
35.8254 678 26.0384
35.9419 640 25.2982
36.0584 695 26.3629
36.1749 710 26.6458
36.2913 678 26.0384
36.4077 735 27.1109
36.524 697 26.4008
36.6403 719 26.8142
36.7565 676 26
36.8727 594 24.3721
36.9889 589 24.2693
37.1049 521 22.8254
37.221 0 1
37.3369 0 1
37.4529 0 1
37.5687 0 1
37.6845 0 1
37.8003 0 1
37.916 0 1
38.0316 0 1
38.1472 0 1
40.5851 0 1
40.7008 0 1
40.8164 0 1
40.9322 0 1
41.048 0 1
41.1639 0 1
41.2798 0 1
41.3958 0 1
41.5118 0 1
41.6279 0 1
41.744 379 19.4679
41.8602 447 21.1424
41.9765 467 21.6102
42.0928 446 21.1187
42.2091 460 21.4476
42.3255 448 21.166
42.4419 472 21.7256
42.5584 441 21
42.675 488 22.0907
42.7915 534 23.1084
42.9081 592 24.3311
43.0248 588 24.2487
43.1415 614 24.779
43.2582 600 24.4949
43.375 654 25.5734
43.4918 657 25.632
43.6087 637 25.2389
43.7256 653 25.5539
43.8425 653 25.5539
43.9595 634 25.1794
44.0765 642 25.3377
44.1935 623 24.96
44.3106 579 24.0624
44.4277 561 23.6854
44.5448 479 21.8861
44.6619 495 22.2486
44.7791 543 23.3024
44.8963 572 23.9165
45.0136 600 24.4949
45.1308 632 25.1396
45.2481 640 25.2982
45.3654 616 24.8193
45.4827 681 26.096
45.6001 672 25.923
45.7174 639 25.2784
45.8348 634 25.1794
45.9522 574 23.9583
46.0697 562 23.7065
46.1871 549 23.4307
46.3046 542 23.2809
46.422 562 23.7065
46.5395 599 24.4745
46.657 602 24.5357
46.7745 649 25.4755
46.892 639 25.2784
47.0096 630 25.0998
47.1271 694 26.3439
47.2446 642 25.3377
47.3622 665 25.7876
47.4797 692 26.3059
47.5973 640 25.2982
47.7149 610 24.6982
47.8324 608 24.6577
47.95 550 23.4521
48.0675 550 23.4521
48.1851 525 22.9129
48.3027 555 23.5584
48.4202 588 24.2487
48.5378 614 24.779
48.6554 684 26.1534
48.7729 645 25.3969
48.8904 653 25.5539
49.008 663 25.7488
49.1255 727 26.9629
49.243 643 25.3574
49.3605 596 24.4131
49.478 531 23.0434
49.5955 539 23.2164
49.713 500 22.3607
49.8304 508 22.5389
49.9479 561 23.6854
50.0653 603 24.5561
50.1827 603 24.5561
50.3001 650 25.4951
50.4175 605 24.5967
50.5348 637 25.2389
50.6521 612 24.7386
50.7694 621 24.9199
50.8867 639 25.2784
51.004 665 25.7876
51.1212 586 24.2074
51.2384 624 24.98
51.3556 617 24.8395
51.4727 543 23.3024
51.5899 493 22.2036
51.707 495 22.2486
51.824 542 23.2809
51.9411 581 24.1039
52.0581 668 25.8457
52.175 637 25.2389
52.2919 663 25.7488
52.4088 659 25.671
52.5257 676 26
52.6425 677 26.0192
52.7593 708 26.6083
52.876 641 25.318
52.9927 615 24.7992
53.1094 545 23.3452
53.226 509 22.561
53.3426 563 23.7276
53.4591 496 22.2711
53.5756 516 22.7156
53.692 551 23.4734
53.8084 524 22.891
53.9248 504 22.4499
54.0411 461 21.4709
54.1573 478 21.8632
54.2735 0 1
54.3896 0 1
54.5057 0 1
54.6217 0 1
54.7377 0 1
54.8537 0 1
54.9695 0 1
55.0853 0 1
55.2011 0 1
55.3168 0 1
55.4324 0 1
57.824 0 1
57.9396 0 1
58.0553 0 1
58.1711 0 1
58.2869 0 1
58.4028 0 1
58.5187 0 1
58.6347 0 1
58.7508 0 1
58.8669 0 1
58.983 457 21.3776
59.0992 516 22.7156
59.2155 578 24.0416
59.3318 629 25.0799
59.4482 672 25.923
59.5646 734 27.0924
59.681 701 26.4764
59.7975 790 28.1069
59.9141 807 28.4077
60.0306 689 26.2488
60.1473 781 27.9464
60.2639 704 26.533
60.3807 738 27.1662
60.4974 645 25.3969
60.6142 703 26.5141
60.731 721 26.8514
60.8479 815 28.5482
60.9648 798 28.2489
61.0818 810 28.4605
61.1987 833 28.8617
61.3158 838 28.9482
61.4328 821 28.6531
61.5499 778 27.8927
61.667 739 27.1846
61.7841 736 27.1293
61.9013 657 25.632
62.0185 623 24.96
62.1357 659 25.671
62.253 672 25.923
62.3702 705 26.5518
62.4875 763 27.6225
62.6049 789 28.0891
62.7222 832 28.8444
62.8396 788 28.0713
62.9569 818 28.6007
63.0743 790 28.1069
63.1918 799 28.2666
63.3092 767 27.6948
63.4267 717 26.7769
63.5441 749 27.3679
63.6616 748 27.3496
63.7791 637 25.2389
63.8966 693 26.3249
64.0142 672 25.923
64.1317 704 26.533
64.2492 702 26.4953
64.3668 764 27.6405
64.4843 806 28.3901
64.6019 824 28.7054
64.7195 852 29.189
64.837 844 29.0517
64.9546 811 28.4781
65.0722 751 27.4044
65.1898 738 27.1662
65.3074 662 25.7294
65.4249 619 24.8797
65.5425 625 25
65.6601 638 25.2587
65.7777 692 26.3059
65.8952 759 27.55
66.0128 753 27.4408
66.1304 820 28.6356
66.2479 836 28.9137
66.3655 816 28.5657
66.483 886 29.7658
66.6005 866 29.4279
66.718 837 28.931
66.8355 803 28.3373
66.953 878 29.6311
67.0705 786 28.0357
67.1879 747 27.3313
67.3054 787 28.0535
67.4228 667 25.8263
67.5402 617 24.8395
67.6576 675 25.9808
67.7749 691 26.2869
67.8923 739 27.1846
68.0096 873 29.5466
68.1269 818 28.6007
68.2442 853 29.2062
68.3614 830 28.8097
68.4787 914 30.2324
68.5958 920 30.3315
68.713 851 29.1719
68.8302 799 28.2666
68.9473 771 27.7669
69.0643 725 26.9258
69.1814 728 26.9815
69.2984 758 27.5318
69.4154 756 27.4955
69.5323 835 28.8964
69.6492 950 30.8221
69.7661 908 30.133
69.8829 865 29.4109
69.9997 929 30.4795
70.1165 950 30.8221
70.2332 921 30.348
70.3499 906 30.0998
70.4665 844 29.0517
70.5831 814 28.5307
70.6996 791 28.1247
70.8161 794 28.178
70.9326 686 26.1916
71.049 612 24.7386
71.1653 499 22.3383
71.2817 405 20.1246
71.3979 402 20.0499
71.5141 390 19.7484
71.6303 364 19.0788
71.7464 343 18.5203
71.8624 0 1
71.9784 0 1
72.0944 0 1
72.2102 0 1
72.3261 0 1
72.4418 0 1
72.5575 0 1
72.6732 0 1
75.1054 0 1
75.2209 0 1
75.3365 0 1
75.4521 0 1
75.5678 0 1
75.6835 0 1
75.7993 0 1
75.9151 0 1
76.031 0 1
76.147 622 24.9399
76.263 556 23.5797
76.3791 626 25.02
76.4952 620 24.8998
76.6113 601 24.5153
76.7276 592 24.3311
76.8438 622 24.9399
76.9601 756 27.4955
77.0765 758 27.5318
77.1929 733 27.074
77.3093 759 27.55
77.4258 814 28.5307
77.5423 743 27.258
77.6589 755 27.4773
77.7755 694 26.3439
77.8921 648 25.4558
78.0088 535 23.1301
78.1256 525 22.9129
78.2423 537 23.1733
78.3591 551 23.4734
78.4759 601 24.5153
78.5928 618 24.8596
78.7097 662 25.7294
78.8266 638 25.2587
78.9436 744 27.2764
79.0606 747 27.3313
79.1776 692 26.3059
79.2946 696 26.3818
79.4117 766 27.6767
79.5288 739 27.1846
79.6459 705 26.5518
79.7631 689 26.2488
79.8802 649 25.4755
79.9974 663 25.7488
80.1147 612 24.7386
80.2319 581 24.1039
80.3491 573 23.9374
80.4664 568 23.8328
80.5837 622 24.9399
80.701 695 26.3629
80.8183 736 27.1293
80.9357 745 27.2947
81.053 786 28.0357
81.1704 722 26.8701
81.2877 754 27.4591
81.4051 754 27.4591
81.5225 702 26.4953
81.6399 604 24.5764
81.7573 597 24.4336
81.8747 512 22.6274
81.9922 568 23.8328
82.1096 595 24.3926
82.227 592 24.3311
82.3444 639 25.2784
82.4619 737 27.1477
82.5793 747 27.3313
82.6967 714 26.7208
82.8142 704 26.533
82.9316 757 27.5136
83.049 733 27.074
83.1664 670 25.8844
83.2838 758 27.5318
83.4012 738 27.1662
83.5186 705 26.5518
83.636 697 26.4008
83.7534 604 24.5764
83.8708 559 23.6432
83.9881 580 24.0832
84.1055 596 24.4131
84.2228 603 24.5561
84.3401 726 26.9444
84.4575 682 26.1151
84.5747 756 27.4955
84.692 720 26.8328
84.8093 783 27.9821
84.9265 767 27.6948
85.0437 717 26.7769
85.1609 654 25.5734
85.2781 591 24.3105
85.3952 562 23.7065
85.5123 580 24.0832
85.6294 598 24.454
85.7465 660 25.6905
85.8636 707 26.5895
85.9806 713 26.7021
86.0976 745 27.2947
86.2145 742 27.2397
86.3315 790 28.1069
86.4484 743 27.258
86.5652 771 27.7669
86.682 775 27.8388
86.7988 789 28.0891
86.9156 780 27.9285
87.0323 720 26.8328
87.149 692 26.3059
87.2657 663 25.7488
87.3823 593 24.3516
87.4988 527 22.9565
87.6154 546 23.3666
87.7318 504 22.4499
87.8483 512 22.6274
87.9647 567 23.8118
88.081 614 24.779
88.1973 588 24.2487
88.3136 587 24.2281
88.4298 595 24.3926
88.546 535 23.1301
88.6621 423 20.567
88.7781 328 18.1108
88.8942 0 1
89.0101 0 1
89.126 0 1
89.2419 0 1
89.3577 0 1
89.4734 0 1
89.5891 0 1
89.7047 0 1
89.8203 0 1
89.9358 0 1
92.3269 0 1
92.4424 0 1
92.558 0 1
92.6736 0 1
92.7893 0 1
92.905 0 1
93.0208 0 1
93.1366 0 1
93.2525 0 1
93.3685 0 1
93.4845 0 1
93.6005 543 23.3024
93.7167 547 23.388
93.8328 602 24.5357
93.949 579 24.0624
94.0653 658 25.6515
94.1816 633 25.1595
94.2979 622 24.9399
94.4143 565 23.7697
94.5307 583 24.1454
94.6472 564 23.7487
94.7637 533 23.0868
94.8803 629 25.0799
94.9969 644 25.3772
95.1135 660 25.6905
95.2302 651 25.5147
95.3469 753 27.4408
95.4637 780 27.9285
95.5805 781 27.9464
95.6973 780 27.9285
95.8142 719 26.8142
95.9311 795 28.1957
96.048 689 26.2488
96.1649 714 26.7208
96.2819 698 26.4197
96.3989 727 26.9629
96.516 638 25.2587
96.633 628 25.0599
96.7501 634 25.1794
96.8673 566 23.7908
96.9844 603 24.5561
97.1016 660 25.6905
97.2188 721 26.8514
97.336 697 26.4008
97.4532 739 27.1846
97.5704 747 27.3313
97.6877 763 27.6225
97.805 761 27.5862
97.9223 703 26.5141
98.0396 633 25.1595
98.1569 568 23.8328
98.2743 573 23.9374
98.3916 569 23.8537
98.509 570 23.8747
98.6264 618 24.8596
98.7438 650 25.4951
98.8612 702 26.4953
98.9786 739 27.1846
99.096 766 27.6767
99.2134 762 27.6043
99.3308 813 28.5132
99.4482 780 27.9285
99.5656 770 27.7489
99.6831 760 27.5681
99.8005 788 28.0713
99.9179 758 27.5318
100.035 757 27.5136
100.153 713 26.7021
100.27 641 25.318
100.388 584 24.1661
100.505 621 24.9199
100.622 745 27.2947
100.74 735 27.1109
100.857 774 27.8209
100.975 777 27.8747
101.092 826 28.7402
101.209 766 27.6767
101.327 783 27.9821
101.444 777 27.8747
101.561 748 27.3496
101.679 668 25.8457
101.796 614 24.779
101.913 557 23.6008
102.03 611 24.7184
102.148 643 25.3574
102.265 739 27.1846
102.382 782 27.9643
102.499 750 27.3861
102.616 766 27.6767
102.733 870 29.4958
102.851 830 28.8097
102.968 827 28.7576
103.085 833 28.8617
103.202 821 28.6531
103.319 854 29.2233
103.436 754 27.4591
103.552 755 27.4773
103.669 778 27.8927
103.786 671 25.9037
103.903 582 24.1247
104.02 688 26.2298
104.137 716 26.7582
104.253 748 27.3496
104.37 878 29.6311
104.487 819 28.6182
104.603 874 29.5635
104.72 889 29.8161
104.836 824 28.7054
104.953 750 27.3861
105.069 651 25.5147
105.186 632 25.1396
105.302 587 24.2281
105.418 496 22.2711
105.535 503 22.4277
105.651 565 23.7697
105.767 568 23.8328
105.883 519 22.7816
105.999 545 23.3452
106.115 0 1
106.231 0 1
106.347 0 1
106.463 0 1
106.579 0 1
106.694 0 1
106.81 0 1
106.926 0 1
107.041 0 1
107.157 0 1
109.576 0 1
109.692 0 1
109.807 0 1
109.923 0 1
110.039 0 1
110.155 0 1
110.27 0 1
110.386 0 1
110.502 0 1
110.618 343 18.5203
110.735 443 21.0476
110.851 516 22.7156
110.967 609 24.6779
111.083 616 24.8193
111.199 705 26.5518
111.316 750 27.3861
111.432 753 27.4408
111.549 779 27.9106
111.665 779 27.9106
111.782 769 27.7308
111.898 774 27.8209
112.015 749 27.3679
112.132 699 26.4386
112.248 666 25.807
112.365 583 24.1454
112.482 605 24.5967
112.599 657 25.632
112.716 680 26.0768
112.832 680 26.0768
112.949 754 27.4591
113.066 776 27.8568
113.183 783 27.9821
113.3 766 27.6767
113.417 709 26.6271
113.534 696 26.3818
113.652 647 25.4362
113.769 621 24.9199
113.886 544 23.3238
114.003 536 23.1517
114.12 622 24.9399
114.238 567 23.8118
114.355 686 26.1916
114.472 688 26.2298
114.589 781 27.9464
114.707 756 27.4955
114.824 752 27.4226
114.942 781 27.9464
115.059 783 27.9821
115.176 813 28.5132
115.294 778 27.8927
115.411 753 27.4408
115.529 746 27.313
115.646 673 25.9422
115.764 628 25.0599
115.881 651 25.5147
115.999 598 24.454
116.116 633 25.1595
116.234 672 25.923
116.351 686 26.1916
116.469 748 27.3496
116.586 742 27.2397
116.704 773 27.8029
116.821 724 26.9072
116.939 756 27.4955
117.056 726 26.9444
117.174 705 26.5518
117.291 625 25
117.409 602 24.5357
117.526 529 23
117.644 574 23.9583
117.761 565 23.7697
117.879 614 24.779
117.996 664 25.7682
118.114 687 26.2107
118.231 743 27.258
118.349 702 26.4953
118.466 805 28.3725
118.584 742 27.2397
118.701 750 27.3861
118.819 730 27.0185
118.936 730 27.0185
119.053 705 26.5518
119.171 676 26
119.288 645 25.3969
119.405 643 25.3574
119.523 603 24.5561
119.64 603 24.5561
119.757 620 24.8998
119.875 640 25.2982
119.992 694 26.3439
120.109 702 26.4953
120.226 743 27.258
120.343 773 27.8029
120.46 720 26.8328
120.578 709 26.6271
120.695 720 26.8328
120.812 745 27.2947
120.929 645 25.3969
121.046 582 24.1247
121.163 561 23.6854
121.279 547 23.388
121.396 601 24.5153
121.513 618 24.8596
121.63 592 24.3311
121.747 634 25.1794
121.863 641 25.318
121.98 643 25.3574
122.097 613 24.7588
122.213 611 24.7184
122.33 640 25.2982
122.446 581 24.1039
122.563 602 24.5357
122.679 522 22.8473
122.795 479 21.8861
122.912 471 21.7025
123.028 418 20.445
123.144 328 18.1108
123.26 316 17.7764
123.377 0 1
123.493 0 1
123.609 0 1
123.725 0 1
123.84 0 1
123.956 0 1
124.072 0 1
124.188 0 1
124.303 0 1
124.419 0 1
126.852 0 1
126.968 0 1
127.083 0 1
127.199 0 1
127.315 0 1
127.431 0 1
127.547 0 1
127.663 0 1
127.779 0 1
127.895 0 1
128.011 0 1
128.127 0 1
128.243 0 1
128.359 776 27.8568
128.476 785 28.0179
128.592 781 27.9464
128.708 710 26.6458
128.825 741 27.2213
128.941 793 28.1603
129.058 855 29.2404
129.174 891 29.8496
129.291 896 29.9333
129.408 934 30.5614
129.524 933 30.545
129.641 942 30.692
129.758 955 30.9031
129.875 892 29.8664
129.992 813 28.5132
130.108 753 27.4408
130.225 702 26.4953
130.342 730 27.0185
130.459 737 27.1477
130.576 852 29.189
130.693 829 28.7924
130.81 840 28.9828
130.928 871 29.5127
131.045 901 30.0167
131.162 952 30.8545
131.279 913 30.2159
131.396 962 31.0161
131.513 944 30.7246
131.631 936 30.5941
131.748 904 30.0666
131.865 875 29.5804
131.983 829 28.7924
132.1 850 29.1548
132.217 727 26.9629
132.335 739 27.1846
132.452 851 29.1719
132.57 889 29.8161
132.687 926 30.4302
132.804 903 30.05
132.922 941 30.6757
133.039 968 31.1127
133.157 975 31.225
133.274 886 29.7658
133.392 885 29.7489
133.509 817 28.5832
133.627 739 27.1846
133.744 747 27.3313
133.862 709 26.6271
133.979 728 26.9815
134.097 767 27.6948
134.214 889 29.8161
134.332 829 28.7924
134.449 900 30
134.567 924 30.3974
134.684 895 29.9166
134.802 915 30.249
134.919 959 30.9677
135.037 1008 31.749
135.154 867 29.4449
135.272 886 29.7658
135.389 892 29.8664
135.507 793 28.1603
135.624 842 29.0172
135.742 792 28.1425
135.859 801 28.3019
135.977 783 27.9821
136.094 777 27.8747
136.211 892 29.8664
136.329 886 29.7658
136.446 923 30.3809
136.564 838 28.9482
136.681 918 30.2985
136.798 884 29.7321
136.915 947 30.7734
137.033 817 28.5832
137.15 814 28.5307
137.267 747 27.3313
137.384 658 25.6515
137.502 725 26.9258
137.619 668 25.8457
137.736 700 26.4575
137.853 796 28.2135
137.97 799 28.2666
138.087 806 28.3901
138.204 815 28.5482
138.321 885 29.7489
138.438 878 29.6311
138.555 795 28.1957
138.672 834 28.8791
138.788 816 28.5657
138.905 778 27.8927
139.022 718 26.7955
139.139 738 27.1662
139.255 618 24.8596
139.372 597 24.4336
139.488 515 22.6936
139.605 497 22.2935
139.721 551 23.4734
139.838 540 23.2379
139.954 522 22.8473
140.071 528 22.9783
140.187 471 21.7025
140.303 475 21.7945
140.419 412 20.2978
140.535 422 20.5426
140.652 363 19.0526
140.768 0 1
140.884 0 1
141 0 1
141.115 0 1
141.231 0 1
141.347 0 1
141.463 0 1
141.578 0 1
141.694 0 1
144.104 0 1
144.219 0 1
144.335 0 1
144.45 0 1
144.566 0 1
144.682 0 1
144.798 0 1
144.914 0 1
145.03 0 1
145.146 564 23.7487
145.262 590 24.2899
145.378 633 25.1595
145.494 634 25.1794
145.61 660 25.6905
145.726 591 24.3105
145.842 551 23.4734
145.959 550 23.4521
146.075 522 22.8473
146.192 490 22.1359
146.308 503 22.4277
146.425 504 22.4499
146.541 518 22.7596
146.658 580 24.0832
146.774 570 23.8747
146.891 561 23.6854
147.008 567 23.8118
147.125 625 25
147.241 551 23.4734
147.358 571 23.8956
147.475 615 24.7992
147.592 538 23.1948
147.709 544 23.3238
147.826 569 23.8537
147.943 558 23.622
148.06 529 23
148.177 507 22.5167
148.294 489 22.1133
148.411 488 22.0907
148.528 560 23.6643
148.645 561 23.6854
148.762 603 24.5561
148.88 572 23.9165
148.997 633 25.1595
149.114 558 23.622
149.231 609 24.6779
149.349 618 24.8596
149.466 608 24.6577
149.583 569 23.8537
149.701 526 22.9347
149.818 496 22.2711
149.935 480 21.9089
150.053 468 21.6333
150.17 504 22.4499
150.287 490 22.1359
150.405 535 23.1301
150.522 589 24.2693
150.64 527 22.9565
150.757 545 23.3452
150.875 541 23.2594
150.992 537 23.1733
151.11 584 24.1661
151.227 576 24
151.344 580 24.0832
151.462 508 22.5389
151.579 528 22.9783
151.697 574 23.9583
151.814 477 21.8403
151.932 443 21.0476
152.049 472 21.7256
152.167 518 22.7596
152.284 537 23.1733
152.402 546 23.3666
152.519 537 23.1733
152.636 559 23.6432
152.754 584 24.1661
152.871 551 23.4734
152.989 579 24.0624
153.106 549 23.4307
153.223 557 23.6008
153.341 491 22.1585
153.458 464 21.5407
153.575 434 20.8327
153.693 429 20.7123
153.81 490 22.1359
153.927 499 22.3383
154.044 494 22.2261
154.162 522 22.8473
154.279 517 22.7376
154.396 559 23.6432
154.513 542 23.2809
154.63 531 23.0434
154.747 491 22.1585
154.864 519 22.7816
154.981 509 22.561
155.098 510 22.5832
155.215 497 22.2935
155.332 466 21.587
155.449 448 21.166
155.566 450 21.2132
155.683 491 22.1585
155.8 484 22
155.917 508 22.5389
156.033 489 22.1133
156.15 0 1
156.267 0 1
156.383 0 1
156.5 0 1
156.617 0 1
156.733 0 1
156.85 0 1
156.966 0 1
157.082 0 1
157.199 0 1
157.315 0 1
157.431 0 1
157.547 0 1
157.664 0 1
157.78 0 1
157.896 0 1
158.012 0 1
158.128 0 1
158.244 0 1
158.359 0 1
158.475 0 1
158.591 0 1
158.706 0 1
