
6.15755 0 1
6.2731 0 1
6.3887 0 1
6.50437 0 1
6.62009 0 1
6.73587 0 1
6.8517 0 1
6.96759 0 1
7.08353 0 1
7.19952 0 1
7.31557 0 1
7.43166 0 1
7.54781 0 1
7.664 0 1
7.78024 0 1
7.89653 0 1
8.01286 0 1
8.12924 0 1
8.24567 0 1
8.36213 0 1
8.47864 0 1
8.59519 0 1
8.71178 0 1
8.82841 0 1
8.94508 0 1
9.06179 0 1
9.17853 0 1
9.29531 0 1
9.41212 0 1
9.52897 0 1
9.64584 0 1
9.76276 0 1
9.8797 0 1
9.99667 0 1
10.1137 0 1
10.2307 0 1
10.3478 0 1
10.4648 0 1
10.5819 0 1
10.6991 0 1
10.8162 0 1
10.9334 0 1
11.0506 0 1
11.1678 0 1
11.285 0 1
11.4023 0 1
11.5196 0 1
11.6369 0 1
11.7542 0 1
11.8715 0 1
11.9888 0 1
12.1062 0 1
12.2235 0 1
12.3409 0 1
12.4582 0 1
12.5756 0 1
12.693 0 1
12.8104 0 1
12.9278 0 1
13.0452 0 1
13.1626 0 1
13.28 0 1
13.3974 0 1
13.5149 0 1
13.6323 0 1
13.7497 0 1
13.8671 0 1
13.9845 0 1
14.1019 0 1
14.2193 0 1
14.3367 0 1
14.4541 0 1
14.5714 0 1
14.6888 0 1
14.8062 0 1
14.9235 0 1
15.0408 0 0
15.1581 0 0
15.2755 0 0
15.3927 0 0
15.51 0 0
15.6273 0 0
15.7445 0 0
15.8617 0 0
15.9789 0 0
16.0961 0 0
16.2132 0 0
16.3304 0 0
16.4475 0 0
16.5646 0 0
16.6816 0 0
16.7986 0 0
16.9156 0 0
17.0326 0 0
17.1496 0 0
17.2665 0 0
17.3833 0 0
17.5002 0 0
17.617 0 0
17.7338 0 0
17.8505 0 0
17.9672 0 0
18.0839 0 0
18.2005 0 0
18.3171 0 0
18.4337 0 0
18.5502 0 0
18.6666 0 0
18.7831 0 0
18.8994 0 0
19.0158 0 0
19.1321 0 0
19.2483 0 0
19.3645 0 0
19.4806 0 0
19.5967 0 0
19.7128 0 0
19.8288 0 0
19.9447 0 0
20.0606 0 1
20.1764 0 1
20.2922 0 1
20.4079 0 1
20.5236 0 1
20.6392 0 1
20.7548 0 1
20.8702 0 1
23.3078 0 1
23.4233 0 1
23.539 0 1
23.6547 0 1
23.7704 0 1
23.8862 0 1
24.0021 0 1
24.118 0 1
24.234 0 1
24.35 0 1
24.4661 1502 38.7556
24.5822 1485 38.5357
24.6984 1437 37.9078
24.8146 1438 37.921
24.9309 1461 38.223
25.0472 1426 37.7624
25.1636 1456 38.1576
25.28 1442 37.9737
25.3965 1469 38.3275
25.513 1496 38.6782
25.6296 1515 38.923
25.7462 1503 38.7685
25.8628 1546 39.3192
25.9795 1571 39.6358
26.0962 1610 40.1248
26.213 1498 38.704
26.3298 1514 38.9102
26.4466 1426 37.7624
26.5635 1356 36.8239
26.6804 1272 35.6651
26.7973 1263 35.5387
26.9143 1299 36.0416
27.0313 1345 36.6742
27.1483 1532 39.1408
27.2653 1531 39.128
27.3824 1562 39.5221
27.4996 1503 38.7685
27.6167 1558 39.4715
27.7339 1542 39.2683
27.8511 1439 37.9342
27.9683 1482 38.4968
28.0855 1526 39.064
28.2028 1508 38.833
28.3201 1389 37.2693
28.4374 1397 37.3765
28.5547 1342 36.6333
28.6721 1396 37.3631
28.7894 1390 37.2827
28.9068 1430 37.8153
29.0242 1389 37.2693
29.1416 1394 37.3363
29.259 1416 37.6298
29.3764 1393 37.3229
29.4939 1429 37.8021
29.6113 1429 37.8021
29.7288 1475 38.4057
29.8463 1439 37.9342
29.9638 1350 36.7423
30.0812 1247 35.3129
30.1987 1191 34.5109
30.3162 1147 33.8674
30.4337 1186 34.4384
30.5512 1236 35.1568
30.6687 1298 36.0278
30.7862 1465 38.2753
30.9037 1424 37.7359
31.0212 1476 38.4187
31.1387 1495 38.6652
31.2562 1475 38.4057
31.3737 1397 37.3765
31.4912 1417 37.6431
31.6087 1440 37.9473
31.7262 1384 37.2022
31.8436 1406 37.4967
31.9611 1354 36.7967
32.0785 1368 36.9865
32.1959 1368 36.9865
32.3134 1352 36.7696
32.4308 1321 36.3456
32.5482 1441 37.9605
32.6655 1294 35.9722
32.7829 1366 36.9594
32.9002 1334 36.524
33.0176 1335 36.5377
33.1349 1297 36.0139
33.2522 1413 37.5899
33.3694 1347 36.7015
33.4867 1362 36.9053
33.6039 1345 36.6742
33.7211 1183 34.3948
33.8383 1128 33.5857
33.9554 1080 32.8634
34.0725 1109 33.3017
34.1896 1191 34.5109
34.3067 1270 35.6371
34.4237 1393 37.3229
34.5407 1378 37.1214
34.6577 1365 36.9459
34.7746 1427 37.7757
34.8915 1326 36.4143
35.0084 1418 37.6563
35.1252 1373 37.054
35.242 1352 36.7696
35.3587 1340 36.606
35.4755 1357 36.8375
35.5921 1337 36.565
35.7088 1380 37.1484
35.8254 1349 36.7287
35.9419 1331 36.4829
36.0584 1396 37.3631
36.1749 1356 36.8239
36.2913 1201 34.6554
36.4077 1303 36.0971
36.524 1305 36.1248
36.6403 1254 35.4119
36.7565 1325 36.4005
36.8727 1395 37.3497
36.9889 1373 37.054
37.1049 1339 36.5923
37.221 0 1
37.3369 0 1
37.4529 0 1
37.5687 0 1
37.6845 0 1
37.8003 0 1
37.916 0 1
38.0316 0 1
38.1472 0 1
40.5851 0 1
40.7008 0 1
40.8164 0 1
40.9322 0 1
41.048 0 1
41.1639 0 1
41.2798 0 1
41.3958 0 1
41.5118 0 1
41.6279 0 1
41.744 991 31.4802
41.8602 1000 31.6228
41.9765 1072 32.7414
42.0928 1099 33.1512
42.2091 1108 33.2866
42.3255 1090 33.0151
42.4419 1031 32.1092
42.5584 964 31.0483
42.675 912 30.1993
42.7915 829 28.7924
42.9081 859 29.3087
43.0248 946 30.7571
43.1415 947 30.7734
43.2582 926 30.4302
43.375 973 31.1929
43.4918 1058 32.5269
43.6087 1026 32.0312
43.7256 1029 32.078
43.8425 973 31.1929
43.9595 925 30.4138
44.0765 936 30.5941
44.1935 890 29.8329
44.3106 883 29.7153
44.4277 891 29.8496
44.5448 898 29.9666
44.6619 831 28.8271
44.7791 832 28.8444
44.8963 881 29.6816
45.0136 811 28.4781
45.1308 715 26.7395
45.2481 760 27.5681
45.3654 767 27.6948
45.4827 768 27.7128
45.6001 812 28.4956
45.7174 780 27.9285
45.8348 789 28.0891
45.9522 762 27.6043
46.0697 635 25.1992
46.1871 628 25.0599
46.3046 623 24.96
46.422 605 24.5967
46.5395 636 25.219
46.657 657 25.632
46.7745 714 26.7208
46.892 725 26.9258
47.0096 772 27.7849
47.1271 707 26.5895
47.2446 743 27.258
47.3622 706 26.5707
47.4797 681 26.096
47.5973 665 25.7876
47.7149 737 27.1477
47.8324 647 25.4362
47.95 642 25.3377
48.0675 621 24.9199
48.1851 631 25.1197
48.3027 529 23
48.4202 576 24
48.5378 566 23.7908
48.6554 579 24.0624
48.7729 560 23.6643
48.8904 577 24.0208
49.008 573 23.9374
49.1255 560 23.6643
49.243 579 24.0624
49.3605 559 23.6432
49.478 537 23.1733
49.5955 495 22.2486
49.713 486 22.0454
49.8304 430 20.7364
49.9479 472 21.7256
50.0653 542 23.2809
50.1827 575 23.9792
50.3001 654 25.5734
50.4175 603 24.5561
50.5348 679 26.0576
50.6521 720 26.8328
50.7694 725 26.9258
50.8867 710 26.6458
51.004 724 26.9072
51.1212 756 27.4955
51.2384 751 27.4044
51.3556 794 28.178
51.4727 764 27.6405
51.5899 818 28.6007
51.707 772 27.7849
51.824 790 28.1069
51.9411 821 28.6531
52.0581 862 29.3598
52.175 854 29.2233
52.2919 881 29.6816
52.4088 875 29.5804
52.5257 943 30.7083
52.6425 939 30.6431
52.7593 934 30.5614
52.876 963 31.0322
52.9927 883 29.7153
53.1094 846 29.0861
53.226 801 28.3019
53.3426 776 27.8568
53.4591 757 27.5136
53.5756 768 27.7128
53.692 946 30.7571
53.8084 1002 31.6544
53.9248 1069 32.6956
54.0411 1002 31.6544
54.1573 1105 33.2415
54.2735 0 1
54.3896 0 1
54.5057 0 1
54.6217 0 1
54.7377 0 1
54.8537 0 1
54.9695 0 1
55.0853 0 1
55.2011 0 1
55.3168 0 1
55.4324 0 1
57.824 0 1
57.9396 0 1
58.0553 0 1
58.1711 0 1
58.2869 0 1
58.4028 0 1
58.5187 0 1
58.6347 0 1
58.7508 0 1
58.8669 0 1
58.983 1148 33.8821
59.0992 1237 35.171
59.2155 1235 35.1426
59.3318 1306 36.1386
59.4482 1318 36.3043
59.5646 1366 36.9594
59.681 1313 36.2353
59.7975 1242 35.242
59.9141 1260 35.4965
60.0306 1238 35.1852
60.1473 1226 35.0143
60.2639 1215 34.8569
60.3807 1170 34.2053
60.4974 1161 34.0735
60.6142 1109 33.3017
60.731 1129 33.6006
60.8479 1140 33.7639
60.9648 1161 34.0735
61.0818 1213 34.8281
61.1987 1155 33.9853
61.3158 1201 34.6554
61.4328 1116 33.4066
61.5499 1116 33.4066
61.667 1026 32.0312
61.7841 1005 31.7017
61.9013 898 29.9666
62.0185 837 28.931
62.1357 924 30.3974
62.253 1041 32.2645
62.3702 1132 33.6452
62.4875 1120 33.4664
62.6049 1193 34.5398
62.7222 1235 35.1426
62.8396 1259 35.4824
62.9569 1323 36.3731
63.0743 1330 36.4692
63.1918 1320 36.3318
63.3092 1277 35.7351
63.4267 1275 35.7071
63.5441 1233 35.1141
63.6616 1205 34.7131
63.7791 1243 35.2562
63.8966 1299 36.0416
64.0142 1230 35.0714
64.1317 1217 34.8855
64.2492 1245 35.2846
64.3668 1254 35.4119
64.4843 1271 35.6511
64.6019 1273 35.6791
64.7195 1204 34.6987
64.837 1204 34.6987
64.9546 1236 35.1568
65.0722 1248 35.327
65.1898 1224 34.9857
65.3074 1041 32.2645
65.4249 975 31.225
65.5425 912 30.1993
65.6601 889 29.8161
65.7777 1007 31.7333
65.8952 1060 32.5576
66.0128 1230 35.0714
66.1304 1250 35.3553
66.2479 1334 36.524
66.3655 1278 35.7491
66.483 1346 36.6879
66.6005 1423 37.7227
66.718 1342 36.6333
66.8355 1326 36.4143
66.953 1357 36.8375
67.0705 1190 34.4964
67.1879 1284 35.8329
67.3054 1253 35.3977
67.4228 1107 33.2716
67.5402 1213 34.8281
67.6576 1129 33.6006
67.7749 1175 34.2783
67.8923 1107 33.2716
68.0096 1122 33.4963
68.1269 1129 33.6006
68.2442 1182 34.3802
68.3614 1121 33.4813
68.4787 1163 34.1028
68.5958 1179 34.3366
68.713 1089 33
68.8302 1064 32.619
68.9473 935 30.5778
69.0643 887 29.7825
69.1814 859 29.3087
69.2984 855 29.2404
69.4154 921 30.348
69.5323 1044 32.311
69.6492 1091 33.0303
69.7661 1169 34.1906
69.8829 1218 34.8999
69.9997 1221 34.9428
70.1165 1198 34.6121
70.2332 1263 35.5387
70.3499 1321 36.3456
70.4665 1247 35.3129
70.5831 1329 36.4555
70.6996 1218 34.8999
70.8161 1141 33.7787
70.9326 1130 33.6155
71.049 1144 33.8231
71.1653 1102 33.1964
71.2817 1099 33.1512
71.3979 1136 33.7046
71.5141 1014 31.8434
71.6303 984 31.3688
71.7464 958 30.9516
71.8624 0 1
71.9784 0 1
72.0944 0 1
72.2102 0 1
72.3261 0 1
72.4418 0 1
72.5575 0 1
72.6732 0 1
75.1054 0 1
75.2209 0 1
75.3365 0 1
75.4521 0 1
75.5678 0 1
75.6835 0 1
75.7993 0 1
75.9151 0 1
76.031 0 1
76.147 1180 34.3511
76.263 1120 33.4664
76.3791 1124 33.5261
76.4952 1117 33.4215
76.6113 1091 33.0303
76.7276 1122 33.4963
76.8438 1105 33.2415
76.9601 1123 33.5112
77.0765 1168 34.176
77.1929 1170 34.2053
77.3093 1145 33.8378
77.4258 1175 34.2783
77.5423 1145 33.8378
77.6589 1131 33.6303
77.7755 1081 32.8786
77.8921 998 31.5911
78.0088 849 29.1376
78.1256 838 28.9482
78.2423 778 27.8927
78.3591 778 27.8927
78.4759 858 29.2916
78.5928 984 31.3688
78.7097 1046 32.3419
78.8266 1070 32.7109
78.9436 1281 35.7911
79.0606 1223 34.9714
79.1776 1226 35.0143
79.2946 1243 35.2562
79.4117 1152 33.9411
79.5288 1253 35.3977
79.6459 1192 34.5254
79.7631 1168 34.176
79.8802 1089 33
79.9974 1067 32.665
80.1147 953 30.8707
80.2319 937 30.6105
80.3491 1001 31.6386
80.4664 962 31.0161
80.5837 982 31.3369
80.701 994 31.5278
80.8183 986 31.4006
80.9357 1044 32.311
81.053 949 30.8058
81.1704 1071 32.7261
81.2877 1020 31.9374
81.4051 987 31.4166
81.5225 943 30.7083
81.6399 804 28.3549
81.7573 758 27.5318
81.8747 665 25.7876
81.9922 686 26.1916
82.1096 770 27.7489
82.227 865 29.4109
82.3444 913 30.2159
82.4619 1001 31.6386
82.5793 1021 31.9531
82.6967 1025 32.0156
82.8142 1082 32.8938
82.9316 1034 32.1559
83.049 1044 32.311
83.1664 1012 31.8119
83.2838 922 30.3645
83.4012 977 31.257
83.5186 891 29.8496
83.636 846 29.0861
83.7534 865 29.4109
83.8708 845 29.0689
83.9881 835 28.8964
84.1055 840 28.9828
84.2228 819 28.6182
84.3401 858 29.2916
84.4575 896 29.9333
84.5747 915 30.249
84.692 947 30.7734
84.8093 909 30.1496
84.9265 865 29.4109
85.0437 827 28.7576
85.1609 726 26.9444
85.2781 693 26.3249
85.3952 673 25.9422
85.5123 666 25.807
85.6294 702 26.4953
85.7465 813 28.5132
85.8636 952 30.8545
85.9806 1026 32.0312
86.0976 996 31.5595
86.2145 1090 33.0151
86.3315 1058 32.5269
86.4484 1087 32.9697
86.5652 1168 34.176
86.682 1159 34.0441
86.7988 1129 33.6006
86.9156 1090 33.0151
87.0323 1103 33.2114
87.149 1050 32.4037
87.2657 963 31.0322
87.3823 1031 32.1092
87.4988 1016 31.8748
87.6154 1073 32.7567
87.7318 982 31.3369
87.8483 1050 32.4037
87.9647 1092 33.0454
88.081 1069 32.6956
88.1973 1202 34.6699
88.3136 1160 34.0588
88.4298 1053 32.45
88.546 1023 31.9844
88.6621 997 31.5753
88.7781 876 29.5973
88.8942 0 1
89.0101 0 1
89.126 0 1
89.2419 0 1
89.3577 0 1
89.4734 0 1
89.5891 0 1
89.7047 0 1
89.8203 0 1
89.9358 0 1
92.3269 0 1
92.4424 0 1
92.558 0 1
92.6736 0 1
92.7893 0 1
92.905 0 1
93.0208 0 1
93.1366 0 1
93.2525 0 1
93.3685 0 1
93.4845 0 1
93.6005 1146 33.8526
93.7167 1124 33.5261
93.8328 1127 33.5708
93.949 1112 33.3467
94.0653 1073 32.7567
94.1816 1008 31.749
94.2979 899 29.9833
94.4143 802 28.3196
94.5307 820 28.6356
94.6472 848 29.1204
94.7637 903 30.05
94.8803 948 30.7896
94.9969 1055 32.4808
95.1135 1167 34.1614
95.2302 1173 34.2491
95.3469 1245 35.2846
95.4637 1240 35.2136
95.5805 1305 36.1248
95.6973 1268 35.609
95.8142 1388 37.2559
95.9311 1314 36.2491
96.048 1205 34.7131
96.1649 1165 34.1321
96.2819 1198 34.6121
96.3989 1140 33.7639
96.516 1080 32.8634
96.633 1070 32.7109
96.7501 1160 34.0588
96.8673 1077 32.8177
96.9844 1057 32.5115
97.1016 1099 33.1512
97.2188 1101 33.1813
97.336 1157 34.0147
97.4532 1212 34.8138
97.5704 1140 33.7639
97.6877 1169 34.1906
97.805 1015 31.8591
97.9223 1018 31.9061
98.0396 830 28.8097
98.1569 825 28.7228
98.2743 798 28.2489
98.3916 838 28.9482
98.509 995 31.5436
98.6264 1045 32.3265
98.7438 1132 33.6452
98.8612 1168 34.176
98.9786 1257 35.4542
99.096 1336 36.5513
99.2134 1265 35.5668
99.3308 1393 37.3229
99.4482 1308 36.1663
99.5656 1256 35.4401
99.6831 1254 35.4119
99.8005 1214 34.8425
99.9179 1176 34.2929
100.035 1145 33.8378
100.153 1131 33.6303
100.27 1167 34.1614
100.388 1126 33.5559
100.505 1145 33.8378
100.622 1126 33.5559
100.74 1140 33.7639
100.857 1205 34.7131
100.975 1228 35.0428
101.092 1183 34.3948
101.209 1177 34.3074
101.327 1087 32.9697
101.444 990 31.4643
101.561 948 30.7896
101.679 862 29.3598
101.796 804 28.3549
101.913 861 29.3428
102.03 964 31.0483
102.148 1108 33.2866
102.265 1160 34.0588
102.382 1206 34.7275
102.499 1307 36.1525
102.616 1401 37.4299
102.733 1442 37.9737
102.851 1371 37.027
102.968 1392 37.3095
103.085 1414 37.6032
103.202 1374 37.0675
103.319 1297 36.0139
103.436 1258 35.4683
103.552 1200 34.641
103.669 1155 33.9853
103.786 1188 34.4674
103.903 1154 33.9706
104.02 1129 33.6006
104.137 1251 35.3695
104.253 1289 35.9026
104.37 1263 35.5387
104.487 1294 35.9722
104.603 1344 36.6606
104.72 1285 35.8469
104.836 1199 34.6266
104.953 1116 33.4066
105.069 1015 31.8591
105.186 880 29.6648
105.302 928 30.4631
105.418 968 31.1127
105.535 1110 33.3167
105.651 1273 35.6791
105.767 1365 36.9459
105.883 1386 37.229
105.999 1497 38.6911
106.115 0 1
106.231 0 1
106.347 0 1
106.463 0 1
106.579 0 1
106.694 0 1
106.81 0 1
106.926 0 1
107.041 0 1
107.157 0 1
109.576 0 1
109.692 0 1
109.807 0 1
109.923 0 1
110.039 0 1
110.155 0 1
110.27 0 1
110.386 0 1
110.502 0 1
110.618 1034 32.1559
110.735 1260 35.4965
110.851 1267 35.5949
110.967 1413 37.5899
111.083 1395 37.3497
111.199 1452 38.1051
111.316 1446 38.0263
111.432 1494 38.6523
111.549 1393 37.3229
111.665 1366 36.9594
111.782 1368 36.9865
111.898 1302 36.0832
112.015 1212 34.8138
112.132 1248 35.327
112.248 1205 34.7131
112.365 1202 34.6699
112.482 1119 33.4515
112.599 1123 33.5112
112.716 1252 35.3836
112.832 1196 34.5832
112.949 1243 35.2562
113.066 1266 35.5809
113.183 1186 34.4384
113.3 1181 34.3657
113.417 1095 33.0908
113.534 995 31.5436
113.652 932 30.5287
113.769 897 29.95
113.886 914 30.2324
114.003 872 29.5296
114.12 1066 32.6497
114.238 1132 33.6452
114.355 1223 34.9714
114.472 1268 35.609
114.589 1299 36.0416
114.707 1334 36.524
114.824 1335 36.5377
114.942 1444 38
115.059 1396 37.3631
115.176 1395 37.3497
115.294 1276 35.7211
115.411 1288 35.8887
115.529 1234 35.1283
115.646 1218 34.8999
115.764 1177 34.3074
115.881 1159 34.0441
115.999 1119 33.4515
116.116 1224 34.9857
116.234 1222 34.9571
116.351 1210 34.7851
116.469 1246 35.2987
116.586 1280 35.7771
116.704 1220 34.9285
116.821 1269 35.623
116.939 1136 33.7046
117.056 1048 32.3728
117.174 951 30.8383
117.291 970 31.1448
117.409 918 30.2985
117.526 989 31.4484
117.644 1076 32.8024
117.761 1146 33.8526
117.879 1255 35.426
117.996 1281 35.7911
118.114 1353 36.7831
118.231 1423 37.7227
118.349 1422 37.7094
118.466 1433 37.855
118.584 1423 37.7227
118.701 1434 37.8682
118.819 1396 37.3631
118.936 1351 36.756
119.053 1320 36.3318
119.171 1339 36.5923
119.288 1307 36.1525
119.405 1172 34.2345
119.523 1220 34.9285
119.64 1163 34.1028
119.757 1208 34.7563
119.875 1262 35.5246
119.992 1202 34.6699
120.109 1189 34.4819
120.226 1227 35.0286
120.343 1203 34.6843
120.46 1244 35.2704
120.578 1070 32.7109
120.695 1047 32.3574
120.812 1048 32.3728
120.929 930 30.4959
121.046 975 31.225
121.163 949 30.8058
121.279 1012 31.8119
121.396 1135 33.6898
121.513 1310 36.1939
121.63 1390 37.2827
121.747 1319 36.318
121.863 1397 37.3765
121.98 1417 37.6431
122.097 1494 38.6523
122.213 1400 37.4166
122.33 1470 38.3406
122.446 1435 37.8814
122.563 1392 37.3095
122.679 1388 37.2559
122.795 1297 36.0139
122.912 1236 35.1568
123.028 1238 35.1852
123.144 1172 34.2345
123.26 1124 33.5261
123.377 0 1
123.493 0 1
123.609 0 1
123.725 0 1
123.84 0 1
123.956 0 1
124.072 0 1
124.188 0 1
124.303 0 1
124.419 0 1
126.852 0 1
126.968 0 1
127.083 0 1
127.199 0 1
127.315 0 1
127.431 0 1
127.547 0 1
127.663 0 1
127.779 0 1
127.895 0 1
128.011 0 1
128.127 0 1
128.243 0 1
128.359 1379 37.1349
128.476 1323 36.3731
128.592 1297 36.0139
128.708 1289 35.9026
128.825 1329 36.4555
128.941 1428 37.7889
129.058 1414 37.6032
129.174 1382 37.1753
129.291 1372 37.0405
129.408 1332 36.4966
129.524 1262 35.5246
129.641 1215 34.8569
129.758 1192 34.5254
129.875 1179 34.3366
129.992 1113 33.3617
130.108 1126 33.5559
130.225 1174 34.2637
130.342 1203 34.6843
130.459 1380 37.1484
130.576 1414 37.6032
130.693 1450 38.0789
130.81 1517 38.9487
130.928 1530 39.1152
131.045 1446 38.0263
131.162 1503 38.7685
131.279 1524 39.0384
131.396 1549 39.3573
131.513 1540 39.2428
131.631 1456 38.1576
131.748 1383 37.1887
131.865 1377 37.108
131.983 1236 35.1568
132.1 1335 36.5377
132.217 1349 36.7287
132.335 1379 37.1349
132.452 1454 38.1314
132.57 1393 37.3229
132.687 1422 37.7094
132.804 1480 38.4708
132.922 1358 36.8511
133.039 1373 37.054
133.157 1276 35.7211
133.274 1174 34.2637
133.392 1191 34.5109
133.509 1121 33.4813
133.627 1089 33
133.744 1200 34.641
133.862 1323 36.3731
133.979 1272 35.6651
134.097 1394 37.3363
134.214 1376 37.0945
134.332 1517 38.9487
134.449 1534 39.1663
134.567 1401 37.4299
134.684 1499 38.7169
134.802 1507 38.8201
134.919 1526 39.064
135.037 1528 39.0896
135.154 1457 38.1707
135.272 1399 37.4032
135.389 1397 37.3765
135.507 1388 37.2559
135.624 1222 34.9571
135.742 1248 35.327
135.859 1296 36
135.977 1417 37.6431
136.094 1458 38.1838
136.211 1493 38.6394
136.329 1437 37.9078
136.446 1365 36.9459
136.564 1408 37.5233
136.681 1316 36.2767
136.798 1330 36.4692
136.915 1135 33.6898
137.033 1140 33.7639
137.15 1119 33.4515
137.267 1140 33.7639
137.384 1200 34.641
137.502 1205 34.7131
137.619 1313 36.2353
137.736 1327 36.428
137.853 1441 37.9605
137.97 1435 37.8814
138.087 1368 36.9865
138.204 1457 38.1707
138.321 1491 38.6135
138.438 1527 39.0768
138.555 1529 39.1024
138.672 1466 38.2884
138.788 1466 38.2884
138.905 1472 38.3667
139.022 1337 36.565
139.139 1287 35.8748
139.255 1292 35.9444
139.372 1303 36.0971
139.488 1368 36.9865
139.605 1405 37.4833
139.721 1528 39.0896
139.838 1429 37.8021
139.954 1394 37.3363
140.071 1298 36.0278
140.187 1380 37.1484
140.303 1341 36.6197
140.419 1191 34.5109
140.535 1223 34.9714
140.652 1097 33.121
140.768 0 1
140.884 0 1
141 0 1
141.115 0 1
141.231 0 1
141.347 0 1
141.463 0 1
141.578 0 1
141.694 0 1
144.104 0 1
144.219 0 1
144.335 0 1
144.45 0 1
144.566 0 1
144.682 0 1
144.798 0 1
144.914 0 1
145.03 0 1
145.146 1006 31.7175
145.262 1044 32.311
145.378 1047 32.3574
145.494 1028 32.0624
145.61 906 30.0998
145.726 938 30.6268
145.842 895 29.9166
145.959 861 29.3428
146.075 870 29.4958
146.192 885 29.7489
146.308 950 30.8221
146.425 1008 31.749
146.541 1067 32.665
146.658 1029 32.078
146.774 1045 32.3265
146.891 1111 33.3317
147.008 1076 32.8024
147.125 1101 33.1813
147.241 1116 33.4066
147.358 1083 32.909
147.475 1124 33.5261
147.592 1097 33.121
147.709 1147 33.8674
147.826 1112 33.3467
147.943 1049 32.3883
148.06 1008 31.749
148.177 968 31.1127
148.294 963 31.0322
148.411 1043 32.2955
148.528 1097 33.121
148.645 1110 33.3167
148.762 1123 33.5112
148.88 1071 32.7261
148.997 1148 33.8821
149.114 1078 32.8329
149.231 1053 32.45
149.349 1012 31.8119
149.466 996 31.5595
149.583 991 31.4802
149.701 915 30.249
149.818 901 30.0167
149.935 899 29.9833
150.053 974 31.209
150.17 986 31.4006
150.287 988 31.4325
150.405 1090 33.0151
150.522 1042 32.28
150.64 1079 32.8481
150.757 1072 32.7414
150.875 1114 33.3766
150.992 1164 34.1174
151.11 1131 33.6303
151.227 1136 33.7046
151.344 1178 34.322
151.462 1122 33.4963
151.579 1067 32.665
151.697 1105 33.2415
151.814 1012 31.8119
151.932 1004 31.686
152.049 1025 32.0156
152.167 1058 32.5269
152.284 1177 34.3074
152.402 1088 32.9848
152.519 1143 33.8083
152.636 1113 33.3617
152.754 1121 33.4813
152.871 1055 32.4808
152.989 1091 33.0303
153.106 1039 32.2335
153.223 994 31.5278
153.341 1011 31.7962
153.458 964 31.0483
153.575 1042 32.28
153.693 1027 32.0468
153.81 1089 33
153.927 1117 33.4215
154.044 1141 33.7787
154.162 1068 32.6803
154.279 1143 33.8083
154.396 1167 34.1614
154.513 1252 35.3836
154.63 1309 36.1801
154.747 1267 35.5949
154.864 1258 35.4683
154.981 1281 35.7911
155.098 1197 34.5977
155.215 1200 34.641
155.332 1166 34.1467
155.449 1142 33.7935
155.566 1188 34.4674
155.683 1206 34.7275
155.8 1232 35.0999
155.917 1252 35.3836
156.033 1235 35.1426
156.15 0 1
156.267 0 1
156.383 0 1
156.5 0 1
156.617 0 1
156.733 0 1
156.85 0 1
156.966 0 1
157.082 0 1
157.199 0 1
157.315 0 1
157.431 0 1
157.547 0 1
157.664 0 1
157.78 0 1
157.896 0 1
158.012 0 1
158.128 0 1
158.244 0 1
158.359 0 1
158.475 0 1
158.591 0 1
158.706 0 1
