
6.15755 0 1
6.2731 0 1
6.3887 0 1
6.50437 0 1
6.62009 0 1
6.73587 0 1
6.8517 0 1
6.96759 0 1
7.08353 0 1
7.19952 0 1
7.31557 0 1
7.43166 0 1
7.54781 0 1
7.664 0 1
7.78024 0 1
7.89653 0 1
8.01286 0 1
8.12924 0 1
8.24567 0 1
8.36213 0 1
8.47864 0 1
8.59519 0 1
8.71178 0 1
8.82841 0 1
8.94508 0 1
9.06179 0 1
9.17853 0 1
9.29531 0 1
9.41212 0 1
9.52897 0 1
9.64584 0 1
9.76276 0 1
9.8797 0 1
9.99667 0 1
10.1137 0 1
10.2307 0 1
10.3478 0 1
10.4648 0 1
10.5819 0 1
10.6991 0 1
10.8162 0 1
10.9334 0 1
11.0506 0 1
11.1678 0 1
11.285 0 1
11.4023 0 1
11.5196 0 1
11.6369 0 1
11.7542 0 1
11.8715 0 1
11.9888 0 1
12.1062 0 1
12.2235 0 1
12.3409 0 1
12.4582 0 1
12.5756 0 1
12.693 0 1
12.8104 0 1
12.9278 0 1
13.0452 0 1
13.1626 0 1
13.28 0 1
13.3974 0 1
13.5149 0 1
13.6323 0 1
13.7497 0 1
13.8671 0 1
13.9845 0 1
14.1019 0 1
14.2193 0 1
14.3367 0 1
14.4541 0 1
14.5714 0 1
14.6888 0 1
14.8062 0 1
14.9235 0 1
15.0408 0 0
15.1581 0 0
15.2755 0 0
15.3927 0 0
15.51 0 0
15.6273 0 0
15.7445 0 0
15.8617 0 0
15.9789 0 0
16.0961 0 0
16.2132 0 0
16.3304 0 0
16.4475 0 0
16.5646 0 0
16.6816 0 0
16.7986 0 0
16.9156 0 0
17.0326 0 0
17.1496 0 0
17.2665 0 0
17.3833 0 0
17.5002 0 0
17.617 0 0
17.7338 0 0
17.8505 0 0
17.9672 0 0
18.0839 0 0
18.2005 0 0
18.3171 0 0
18.4337 0 0
18.5502 0 0
18.6666 0 0
18.7831 0 0
18.8994 0 0
19.0158 0 0
19.1321 0 0
19.2483 0 0
19.3645 0 0
19.4806 0 0
19.5967 0 0
19.7128 0 0
19.8288 0 0
19.9447 0 0
20.0606 0 1
20.1764 0 1
20.2922 0 1
20.4079 0 1
20.5236 0 1
20.6392 0 1
20.7548 0 1
20.8702 0 1
23.3078 0 1
23.4233 0 1
23.539 0 1
23.6547 0 1
23.7704 0 1
23.8862 0 1
24.0021 0 1
24.118 0 1
24.234 0 1
24.35 0 1
24.4661 1357 36.8375
24.5822 1438 37.921
24.6984 1487 38.5616
24.8146 1767 42.0357
24.9309 2057 45.3542
25.0472 2384 48.8262
25.1636 2563 50.6261
25.28 2690 51.8652
25.3965 2673 51.7011
25.513 2737 52.3163
25.6296 2761 52.5452
25.7462 2873 53.6004
25.8628 2783 52.7541
25.9795 2824 53.1413
26.0962 2809 53
26.213 2773 52.6593
26.3298 2876 53.6284
26.4466 2943 54.2494
26.5635 2891 53.768
26.6804 2801 52.9245
26.7973 2656 51.5364
26.9143 2633 51.3128
27.0313 2479 49.7896
27.1483 2633 51.3128
27.2653 2550 50.4975
27.3824 2487 49.8698
27.4996 2374 48.7237
27.6167 2278 47.7284
27.7339 2205 46.9574
27.8511 2360 48.5798
27.9683 2626 51.2445
28.0855 2647 51.449
28.2028 2675 51.7204
28.3201 2666 51.6333
28.4374 2482 49.8197
28.5547 2538 50.3786
28.6721 2660 51.5752
28.7894 2648 51.4587
28.9068 2572 50.7149
29.0242 2594 50.9313
29.1416 2648 51.4587
29.259 2640 51.3809
29.3764 2721 52.1632
29.4939 2563 50.6261
29.6113 2589 50.8822
29.7288 2486 49.8598
29.8463 2332 48.2908
29.9638 2494 49.94
30.0812 2454 49.5379
30.1987 2467 49.6689
30.3162 2471 49.7092
30.4337 2549 50.4876
30.5512 2510 50.0999
30.6687 2500 50
30.7862 2523 50.2295
30.9037 2382 48.8057
31.0212 2471 49.7092
31.1387 2370 48.6826
31.2562 2401 49
31.3737 2481 49.8096
31.4912 2684 51.8073
31.6087 2630 51.2835
31.7262 2576 50.7543
31.8436 2701 51.9711
31.9611 2593 50.9215
32.0785 2601 51
32.1959 2603 51.0196
32.3134 2557 50.5668
32.4308 2560 50.5964
32.5482 2456 49.558
32.6655 2388 48.8672
32.7829 2323 48.1975
32.9002 2405 49.0408
33.0176 2250 47.4342
33.1349 2358 48.5592
33.2522 2304 48
33.3694 2308 48.0416
33.4867 2250 47.4342
33.6039 2273 47.676
33.7211 2312 48.0833
33.8383 2353 48.5077
33.9554 2480 49.7996
34.0725 2480 49.7996
34.1896 2560 50.5964
34.3067 2447 49.4672
34.4237 2502 50.02
34.5407 2382 48.8057
34.6577 2300 47.9583
34.7746 2344 48.4149
34.8915 2369 48.6724
35.0084 2460 49.5984
35.1252 2643 51.4101
35.242 2594 50.9313
35.3587 2531 50.309
35.4755 2586 50.8527
35.5921 2455 49.548
35.7088 2435 49.3457
35.8254 2451 49.5076
35.9419 2311 48.0729
36.0584 2195 46.8508
36.1749 2213 47.0425
36.2913 2148 46.3465
36.4077 2099 45.8148
36.524 1943 44.0795
36.6403 1686 41.0609
36.7565 1592 39.8999
36.8727 1458 38.1838
36.9889 1395 37.3497
37.1049 1517 38.9487
37.221 0 1
37.3369 0 1
37.4529 0 1
37.5687 0 1
37.6845 0 1
37.8003 0 1
37.916 0 1
38.0316 0 1
38.1472 0 1
40.5851 0 1
40.7008 0 1
40.8164 0 1
40.9322 0 1
41.048 0 1
41.1639 0 1
41.2798 0 1
41.3958 0 1
41.5118 0 1
41.6279 0 1
41.744 1865 43.1856
41.8602 2456 49.558
41.9765 3084 55.5338
42.0928 3251 57.0175
42.2091 3274 57.2189
42.3255 3345 57.836
42.4419 3321 57.6281
42.5584 3383 58.1636
42.675 3481 59
42.7915 3464 58.8558
42.9081 3653 60.4401
43.0248 3672 60.597
43.1415 3560 59.6657
43.2582 3407 58.3695
43.375 3180 56.3915
43.4918 3244 56.9561
43.6087 3246 56.9737
43.7256 3331 57.7148
43.8425 3506 59.2115
43.9595 3510 59.2453
44.0765 3355 57.9224
44.1935 3224 56.7803
44.3106 3298 57.4282
44.4277 3110 55.7674
44.5448 3072 55.4256
44.6619 2812 53.0283
44.7791 2755 52.4881
44.8963 2695 51.9134
45.0136 2557 50.5668
45.1308 2564 50.636
45.2481 2333 48.3011
45.3654 2205 46.9574
45.4827 2223 47.1487
45.6001 2095 45.7712
45.7174 2051 45.288
45.8348 1970 44.3847
45.9522 1996 44.6766
46.0697 2083 45.6399
46.1871 2071 45.5082
46.3046 2134 46.1952
46.422 2202 46.9255
46.5395 2270 47.6445
46.657 2243 47.3603
46.7745 2170 46.5833
46.892 2089 45.7056
47.0096 1972 44.4072
47.1271 2053 45.31
47.2446 2150 46.3681
47.3622 2137 46.2277
47.4797 2119 46.0326
47.5973 2131 46.1628
47.7149 2223 47.1487
47.8324 2230 47.2229
47.95 2093 45.7493
48.0675 2071 45.5082
48.1851 2104 45.8694
48.3027 2054 45.3211
48.4202 1988 44.587
48.5378 1920 43.8178
48.6554 1924 43.8634
48.7729 1976 44.4522
48.8904 1855 43.0697
49.008 1834 42.8252
49.1255 1829 42.7668
49.243 1883 43.3935
49.3605 1929 43.9204
49.478 1911 43.715
49.5955 2110 45.9347
49.713 2001 44.7325
49.8304 2105 45.8803
49.9479 2095 45.7712
50.0653 2126 46.1086
50.1827 2091 45.7275
50.3001 1983 44.5309
50.4175 1808 42.5206
50.5348 1639 40.4846
50.6521 1818 42.638
50.7694 2012 44.8553
50.8867 2129 46.1411
51.004 2151 46.3789
51.1212 2193 46.8295
51.2384 2048 45.2548
51.3556 2104 45.8694
51.4727 2155 46.422
51.5899 2136 46.2169
51.707 2098 45.8039
51.824 2091 45.7275
51.9411 2094 45.7602
52.0581 1972 44.4072
52.175 1995 44.6654
52.2919 2013 44.8665
52.4088 1982 44.5197
52.5257 1927 43.8976
52.6425 1818 42.638
52.7593 1839 42.8836
52.876 1848 42.9884
52.9927 1895 43.5316
53.1094 1836 42.8486
53.226 1875 43.3013
53.3426 1872 43.2666
53.4591 1851 43.0232
53.5756 1741 41.7253
53.692 1536 39.1918
53.8084 1369 37
53.9248 1205 34.7131
54.0411 1096 33.1059
54.1573 1019 31.9218
54.2735 0 1
54.3896 0 1
54.5057 0 1
54.6217 0 1
54.7377 0 1
54.8537 0 1
54.9695 0 1
55.0853 0 1
55.2011 0 1
55.3168 0 1
55.4324 0 1
57.824 0 1
57.9396 0 1
58.0553 0 1
58.1711 0 1
58.2869 0 1
58.4028 0 1
58.5187 0 1
58.6347 0 1
58.7508 0 1
58.8669 0 1
58.983 1717 41.4367
59.0992 1777 42.1545
59.2155 1821 42.6732
59.3318 1953 44.1928
59.4482 2101 45.8367
59.5646 2275 47.697
59.681 2446 49.4571
59.7975 2547 50.4678
59.9141 2395 48.9387
60.0306 2437 49.366
60.1473 2477 49.7695
60.2639 2439 49.3862
60.3807 2443 49.4267
60.4974 2515 50.1498
60.6142 2486 49.8598
60.731 2470 49.6991
60.8479 2512 50.1199
60.9648 2497 49.97
61.0818 2451 49.5076
61.1987 2470 49.6991
61.3158 2479 49.7896
61.4328 2424 49.2341
61.5499 2329 48.2597
61.667 2310 48.0625
61.7841 2277 47.7179
61.9013 2376 48.7442
62.0185 2402 49.0102
62.1357 2469 49.689
62.253 2559 50.5866
62.3702 2368 48.6621
62.4875 2241 47.3392
62.6049 2178 46.669
62.7222 2123 46.076
62.8396 2250 47.4342
62.9569 2413 49.1223
63.0743 2528 50.2792
63.1918 2497 49.97
63.3092 2534 50.3389
63.4267 2573 50.7247
63.5441 2518 50.1797
63.6616 2590 50.892
63.7791 2448 49.4773
63.8966 2543 50.4282
64.0142 2534 50.3389
64.1317 2521 50.2096
64.2492 2536 50.3587
64.3668 2553 50.5272
64.4843 2519 50.1896
64.6019 2479 49.7896
64.7195 2427 49.2646
64.837 2335 48.3218
64.9546 2407 49.0612
65.0722 2424 49.2341
65.1898 2250 47.4342
65.3074 2399 48.9796
65.4249 2377 48.7545
65.5425 2374 48.7237
65.6601 2486 49.8598
65.7777 2408 49.0714
65.8952 2407 49.0612
66.0128 2234 47.2652
66.1304 2033 45.0888
66.2479 1934 43.9773
66.3655 1890 43.4741
66.483 2199 46.8935
66.6005 2460 49.5984
66.718 2532 50.319
66.8355 2515 50.1498
66.953 2533 50.3289
67.0705 2539 50.3885
67.1879 2538 50.3786
67.3054 2578 50.774
67.4228 2504 50.04
67.5402 2393 48.9183
67.6576 2482 49.8197
67.7749 2437 49.366
67.8923 2453 49.5278
68.0096 2419 49.1833
68.1269 2531 50.309
68.2442 2474 49.7393
68.3614 2360 48.5798
68.4787 2287 47.8226
68.5958 2369 48.6724
68.713 2254 47.4763
68.8302 2310 48.0625
68.9473 2211 47.0213
69.0643 2311 48.0729
69.1814 2319 48.156
69.2984 2306 48.0208
69.4154 2287 47.8226
69.5323 2371 48.6929
69.6492 2090 45.7165
69.7661 1968 44.3621
69.8829 1794 42.3556
69.9997 1883 43.3935
70.1165 2085 45.6618
70.2332 2055 45.3321
70.3499 1919 43.8064
70.4665 1817 42.6263
70.5831 1717 41.4367
70.6996 1664 40.7922
70.8161 1642 40.5216
70.9326 1509 38.8458
71.049 1465 38.2753
71.1653 1402 37.4433
71.2817 1382 37.1753
71.3979 1243 35.2562
71.5141 1263 35.5387
71.6303 1217 34.8855
71.7464 1112 33.3467
71.8624 0 1
71.9784 0 1
72.0944 0 1
72.2102 0 1
72.3261 0 1
72.4418 0 1
72.5575 0 1
72.6732 0 1
75.1054 0 1
75.2209 0 1
75.3365 0 1
75.4521 0 1
75.5678 0 1
75.6835 0 1
75.7993 0 1
75.9151 0 1
76.031 0 1
76.147 1932 43.9545
76.263 2145 46.3141
76.3791 2148 46.3465
76.4952 2211 47.0213
76.6113 2185 46.744
76.7276 2152 46.3897
76.8438 2280 47.7493
76.9601 2198 46.8828
77.0765 2276 47.7074
77.1929 2254 47.4763
77.3093 2269 47.634
77.4258 2205 46.9574
77.5423 2265 47.592
77.6589 2206 46.9681
77.7755 2152 46.3897
77.8921 2139 46.2493
78.0088 2231 47.2335
78.1256 2194 46.8402
78.2423 2249 47.4236
78.3591 2403 49.0204
78.4759 2304 48
78.5928 2183 46.7226
78.7097 1928 43.909
78.8266 1707 41.3159
78.9436 1563 39.5348
79.0606 1580 39.7492
79.1776 1893 43.5086
79.2946 2217 47.085
79.4117 2276 47.7074
79.5288 2393 48.9183
79.6459 2435 49.3457
79.7631 2378 48.7647
79.8802 2291 47.8644
79.9974 2397 48.9592
80.1147 2324 48.2079
80.2319 2385 48.8365
80.3491 2368 48.6621
80.4664 2312 48.0833
80.5837 2364 48.621
80.701 2449 49.4874
80.8183 2396 48.949
80.9357 2514 50.1398
81.053 2439 49.3862
81.1704 2433 49.3254
81.2877 2321 48.1768
81.4051 2422 49.2138
81.5225 2313 48.0937
81.6399 2300 47.9583
81.7573 2423 49.224
81.8747 2520 50.1996
81.9922 2682 51.788
82.1096 2722 52.1728
82.227 2653 51.5073
82.3444 2453 49.5278
82.4619 2244 47.3709
82.5793 2113 45.9674
82.6967 2300 47.9583
82.8142 2692 51.8845
82.9316 3191 56.4889
83.049 3628 60.2329
83.1664 3705 60.8687
83.2838 3783 61.5061
83.4012 4025 63.4429
83.5186 4091 63.9609
83.636 4098 64.0156
83.7534 4244 65.146
83.8708 4173 64.5988
83.9881 4259 65.261
84.1055 4321 65.7343
84.2228 4351 65.9621
84.3401 4455 66.7458
84.4575 4485 66.9701
84.5747 4368 66.0908
84.692 4451 66.7158
84.8093 4323 65.7495
84.9265 4286 65.4675
85.0437 4350 65.9545
85.1609 4210 64.8845
85.2781 4148 64.405
85.3952 4204 64.8383
85.5123 4192 64.7457
85.6294 4314 65.681
85.7465 4020 63.4035
85.8636 3772 61.4166
85.9806 3298 57.4282
86.0976 2779 52.7162
86.2145 2766 52.5928
86.3315 3121 55.8659
86.4484 3883 62.3137
86.5652 4141 64.3506
86.682 4216 64.9307
86.7988 4051 63.6475
86.9156 4292 65.5134
87.0323 4157 64.4748
87.149 4219 64.9538
87.2657 4089 63.9453
87.3823 4256 65.238
87.4988 4064 63.7495
87.6154 3644 60.3656
87.7318 3355 57.9224
87.8483 3122 55.8749
87.9647 3039 55.1271
88.081 3060 55.3173
88.1973 2992 54.6992
88.3136 2849 53.376
88.4298 2615 51.1371
88.546 2427 49.2646
88.6621 2543 50.4282
88.7781 2242 47.3498
88.8942 0 1
89.0101 0 1
89.126 0 1
89.2419 0 1
89.3577 0 1
89.4734 0 1
89.5891 0 1
89.7047 0 1
89.8203 0 1
89.9358 0 1
92.3269 0 1
92.4424 0 1
92.558 0 1
92.6736 0 1
92.7893 0 1
92.905 0 1
93.0208 0 1
93.1366 0 1
93.2525 0 1
93.3685 0 1
93.4845 0 1
93.6005 4558 67.513
93.7167 4404 66.3626
93.8328 4530 67.3053
93.949 4447 66.6858
94.0653 4258 65.2534
94.1816 4499 67.0746
94.2979 4391 66.2646
94.4143 4508 67.1416
94.5307 4391 66.2646
94.6472 4277 65.3988
94.7637 4145 64.3817
94.8803 3772 61.4166
94.9969 3354 57.9137
95.1135 3093 55.6147
95.2302 3270 57.1839
95.3469 3840 61.9677
95.4637 4233 65.0615
95.5805 4410 66.4078
95.6973 4611 67.9043
95.8142 4537 67.3573
95.9311 4592 67.7643
96.048 4466 66.8281
96.1649 4549 67.4463
96.2819 4501 67.0895
96.3989 4629 68.0368
96.516 4428 66.5432
96.633 4646 68.1616
96.7501 4566 67.5722
96.8673 4702 68.5711
96.9844 4690 68.4836
97.1016 4714 68.6586
97.2188 4677 68.3886
97.336 4536 67.3498
97.4532 4421 66.4906
97.5704 4377 66.1589
97.6877 4487 66.9851
97.805 4527 67.283
97.9223 4613 67.9191
98.0396 4366 66.0757
98.1569 4336 65.8483
98.2743 4215 64.923
98.3916 3804 61.6766
98.509 3364 58
98.6264 2980 54.5894
98.7438 3039 55.1271
98.8612 3207 56.6304
98.9786 3834 61.9193
99.096 3899 62.442
99.2134 3810 61.7252
99.3308 3605 60.0417
99.4482 3512 59.2621
99.5656 3464 58.8558
99.6831 3403 58.3352
99.8005 3266 57.1489
99.9179 3258 57.0789
100.035 3067 55.3805
100.153 3106 55.7315
100.27 3189 56.4712
100.388 2981 54.5985
100.505 3179 56.3826
100.622 3050 55.2268
100.74 3192 56.4978
100.857 3012 54.8817
100.975 3065 55.3624
101.092 3048 55.2087
101.209 2997 54.7449
101.327 3010 54.8635
101.444 3081 55.5068
101.561 2973 54.5252
101.679 2985 54.6352
101.796 2983 54.6168
101.913 2876 53.6284
102.03 2741 52.3546
102.148 2390 48.8876
102.265 2203 46.9361
102.382 2546 50.4579
102.499 2711 52.0673
102.616 2810 53.0094
102.733 2873 53.6004
102.851 2976 54.5527
102.968 2862 53.4977
103.085 2899 53.8424
103.202 2951 54.3231
103.319 2774 52.6688
103.436 2830 53.1977
103.552 2767 52.6023
103.669 2777 52.6972
103.786 2717 52.1249
103.903 2774 52.6688
104.02 2767 52.6023
104.137 2768 52.6118
104.253 2981 54.5985
104.37 2705 52.0096
104.487 2794 52.8583
104.603 2674 51.7107
104.72 2614 51.1273
104.836 2434 49.3356
104.953 2160 46.4758
105.069 1879 43.3474
105.186 1874 43.2897
105.302 1635 40.4351
105.418 1598 39.975
105.535 1451 38.092
105.651 1279 35.7631
105.767 1019 31.9218
105.883 859 29.3087
105.999 878 29.6311
106.115 0 1
106.231 0 1
106.347 0 1
106.463 0 1
106.579 0 1
106.694 0 1
106.81 0 1
106.926 0 1
107.041 0 1
107.157 0 1
109.576 0 1
109.692 0 1
109.807 0 1
109.923 0 1
110.039 0 1
110.155 0 1
110.27 0 1
110.386 0 1
110.502 0 1
110.618 2651 51.4879
110.735 2829 53.1883
110.851 2700 51.9615
110.967 2460 49.5984
111.083 2344 48.4149
111.199 2617 51.1566
111.316 2978 54.5711
111.432 3058 55.2992
111.549 3102 55.6956
111.665 3062 55.3353
111.782 3132 55.9643
111.898 3121 55.8659
112.015 3015 54.909
112.132 2973 54.5252
112.248 3024 54.9909
112.365 3044 55.1725
112.482 2999 54.7631
112.599 3142 56.0535
112.716 3289 57.3498
112.832 3254 57.0438
112.949 3340 57.7927
113.066 3418 58.4637
113.183 3429 58.5577
113.3 3344 57.8273
113.417 3356 57.931
113.534 3272 57.2014
113.652 3403 58.3352
113.769 3388 58.2065
113.886 3381 58.1464
114.003 3371 58.0603
114.12 3382 58.155
114.238 3145 56.0803
114.355 3047 55.1996
114.472 2680 51.7687
114.589 2626 51.2445
114.707 2700 51.9615
114.824 2975 54.5436
114.942 3149 56.116
115.059 3158 56.1961
115.176 3100 55.6776
115.294 3193 56.5066
115.411 3143 56.0625
115.529 3217 56.7186
115.646 3165 56.2583
115.764 3024 54.9909
115.881 3147 56.0981
115.999 3153 56.1516
116.116 3100 55.6776
116.234 3240 56.921
116.351 3372 58.0689
116.469 3356 57.931
116.586 3474 58.9406
116.704 3567 59.7244
116.821 3449 58.7282
116.939 3468 58.8897
117.056 3497 59.1354
117.174 3480 58.9915
117.291 3347 57.8533
117.409 3491 59.0847
117.526 3445 58.6941
117.644 3367 58.0259
117.761 3371 58.0603
117.879 3236 56.8859
117.996 2977 54.5619
118.114 2753 52.469
118.231 2611 51.0979
118.349 2790 52.8205
118.466 3107 55.7405
118.584 3122 55.8749
118.701 3182 56.4092
118.819 3085 55.5428
118.936 3305 57.4891
119.053 3101 55.6866
119.171 3055 55.2721
119.288 3027 55.0182
119.405 3116 55.8211
119.523 3041 55.1453
119.64 3049 55.2178
119.757 3159 56.205
119.875 3139 56.0268
119.992 3092 55.6058
120.109 3205 56.6127
120.226 3149 56.116
120.343 3174 56.3383
120.46 3259 57.0877
120.578 3262 57.1139
120.695 3166 56.2672
120.812 3127 55.9196
120.929 3143 56.0625
121.046 3125 55.9017
121.163 3086 55.5518
121.279 3134 55.9821
121.396 3116 55.8211
121.513 2930 54.1295
121.63 2702 51.9808
121.747 2434 49.3356
121.863 2222 47.1381
121.98 2143 46.2925
122.097 2133 46.1844
122.213 2279 47.7389
122.33 2248 47.4131
122.446 2171 46.594
122.563 2133 46.1844
122.679 2119 46.0326
122.795 2006 44.7884
122.912 1922 43.8406
123.028 1854 43.0581
123.144 1796 42.3792
123.26 1837 42.8602
123.377 0 1
123.493 0 1
123.609 0 1
123.725 0 1
123.84 0 1
123.956 0 1
124.072 0 1
124.188 0 1
124.303 0 1
124.419 0 1
126.852 0 1
126.968 0 1
127.083 0 1
127.199 0 1
127.315 0 1
127.431 0 1
127.547 0 1
127.663 0 1
127.779 0 1
127.895 0 1
128.011 0 1
128.127 0 1
128.243 0 1
128.359 3595 59.9583
128.476 3560 59.6657
128.592 3413 58.4209
128.708 3608 60.0666
128.825 3548 59.5651
128.941 3697 60.803
129.058 3738 61.1392
129.174 3696 60.7947
129.291 4018 63.3877
129.408 3837 61.9435
129.524 4042 63.5767
129.641 4014 63.3561
129.758 4019 63.3956
129.875 4177 64.6297
129.992 4250 65.192
130.108 4325 65.7647
130.225 4413 66.4304
130.342 4220 64.9615
130.459 3964 62.9603
130.576 4078 63.8592
130.693 3806 61.6928
130.81 3790 61.563
130.928 3793 61.5873
131.045 3905 62.49
131.162 3924 62.6418
131.279 4190 64.7302
131.396 4306 65.6201
131.513 4087 63.9296
131.631 4105 64.0703
131.748 4020 63.4035
131.865 4019 63.3956
131.983 4052 63.6553
132.1 4052 63.6553
132.217 3981 63.0952
132.335 4005 63.2851
132.452 3815 61.7657
132.57 4071 63.8044
132.687 3850 62.0484
132.804 4123 64.2106
132.922 4025 63.4429
133.039 4004 63.2772
133.157 4167 64.5523
133.274 4247 65.169
133.392 4379 66.174
133.509 4404 66.3626
133.627 4497 67.0597
133.744 4531 67.3127
133.862 4440 66.6333
133.979 4473 66.8805
134.097 4415 66.4455
134.214 4353 65.9773
134.332 4251 65.1997
134.449 4256 65.238
134.567 4220 64.9615
134.684 4243 65.1383
134.802 4345 65.9166
134.919 4415 66.4455
135.037 4528 67.2904
135.154 4512 67.1714
135.272 4463 66.8057
135.389 4419 66.4756
135.507 4314 65.681
135.624 4180 64.6529
135.742 4278 65.4064
135.859 4205 64.846
135.977 4150 64.4205
136.094 4209 64.8768
136.211 4109 64.1015
136.329 4151 64.4283
136.446 4316 65.6963
136.564 4255 65.2304
136.681 4099 64.0234
136.798 4292 65.5134
136.915 4336 65.8483
137.033 4347 65.9318
137.15 4400 66.3325
137.267 4315 65.6887
137.384 4477 66.9104
137.502 4332 65.8179
137.619 4303 65.5973
137.736 4334 65.8331
137.853 4071 63.8044
137.97 4082 63.8905
138.087 3897 62.426
138.204 3926 62.6578
138.321 4179 64.6452
138.438 4218 64.9461
138.555 4281 65.4294
138.672 4208 64.8691
138.788 4182 64.6684
138.905 4152 64.436
139.022 3916 62.578
139.139 3800 61.6441
139.255 3666 60.5475
139.372 3519 59.3212
139.488 3371 58.0603
139.605 3267 57.1577
139.721 3136 56
139.838 3021 54.9636
139.954 3068 55.3895
140.071 2917 54.0093
140.187 3039 55.1271
140.303 2908 53.9259
140.419 2828 53.1789
140.535 3058 55.2992
140.652 3075 55.4527
140.768 0 1
140.884 0 1
141 0 1
141.115 0 1
141.231 0 1
141.347 0 1
141.463 0 1
141.578 0 1
141.694 0 1
144.104 0 1
144.219 0 1
144.335 0 1
144.45 0 1
144.566 0 1
144.682 0 1
144.798 0 1
144.914 0 1
145.03 0 1
145.146 8549 92.4608
145.262 8976 94.7418
145.378 8947 94.5886
145.494 9174 95.781
145.61 8995 94.842
145.726 9303 96.4521
145.842 9355 96.7212
145.959 9328 96.5816
146.075 9233 96.0885
146.192 9173 95.7758
146.308 9114 95.4673
146.425 8948 94.5939
146.541 8229 90.7138
146.658 7181 84.7408
146.774 6105 78.1345
146.891 5850 76.4853
147.008 6870 82.8855
147.125 8017 89.5377
147.241 8777 93.6856
147.358 8951 94.6097
147.475 8890 94.2868
147.592 8838 94.0106
147.709 8966 94.689
147.826 9067 95.2208
147.943 9011 94.9263
148.06 9289 96.3795
148.177 8969 94.7048
148.294 8982 94.7734
148.411 8994 94.8367
148.528 9132 95.5615
148.645 9172 95.7706
148.762 9124 95.5196
148.88 9191 95.8697
148.997 8962 94.6678
149.114 9354 96.7161
149.231 9215 95.9948
149.349 9268 96.2705
149.466 9336 96.623
149.583 9484 97.3858
149.701 9288 96.3743
149.818 9460 97.2625
149.935 9418 97.0464
150.053 9413 97.0206
150.17 9018 94.9632
150.287 8015 89.5265
150.405 6636 81.4616
150.522 6080 77.9744
150.64 6623 81.3818
150.757 7745 88.0057
150.875 8714 93.3488
150.992 9149 95.6504
151.11 8871 94.186
151.227 8925 94.4722
151.344 8999 94.8631
151.462 8804 93.8296
151.579 9122 95.5092
151.697 9033 95.0421
151.814 8910 94.3928
151.932 9248 96.1665
152.049 9028 95.0158
152.167 9210 95.9687
152.284 9161 95.7131
152.402 9260 96.2289
152.519 9112 95.4568
152.636 9280 96.3328
152.754 9292 96.395
152.871 9411 97.0103
152.989 9424 97.0773
153.106 9738 98.6813
153.223 9555 97.7497
153.341 9713 98.5546
153.458 9331 96.5971
153.575 9621 98.0867
153.693 9617 98.0663
153.81 9154 95.6765
153.927 8307 91.1427
154.044 7110 84.3208
154.162 6630 81.4248
154.279 7081 84.1487
154.396 8265 90.912
154.513 9159 95.7027
154.63 9500 97.4679
154.747 9389 96.8969
154.864 9258 96.2185
154.981 9264 96.2497
155.098 9396 96.933
155.215 9103 95.4096
155.332 8920 94.4458
155.449 8609 92.7847
155.566 8533 92.3742
155.683 8326 91.2469
155.8 8213 90.6256
155.917 8096 89.9778
156.033 7743 87.9943
156.15 0 1
156.267 0 1
156.383 0 1
156.5 0 1
156.617 0 1
156.733 0 1
156.85 0 1
156.966 0 1
157.082 0 1
157.199 0 1
157.315 0 1
157.431 0 1
157.547 0 1
157.664 0 1
157.78 0 1
157.896 0 1
158.012 0 1
158.128 0 1
158.244 0 1
158.359 0 1
158.475 0 1
158.591 0 1
158.706 0 1
