
6.15755 0 1
6.2731 0 1
6.3887 0 1
6.50437 0 1
6.62009 0 1
6.73587 0 1
6.8517 0 1
6.96759 0 1
7.08353 0 1
7.19952 0 1
7.31557 0 1
7.43166 0 1
7.54781 0 1
7.664 0 1
7.78024 0 1
7.89653 0 1
8.01286 0 1
8.12924 0 1
8.24567 0 1
8.36213 0 1
8.47864 0 1
8.59519 0 1
8.71178 0 1
8.82841 0 1
8.94508 0 1
9.06179 0 1
9.17853 0 1
9.29531 0 1
9.41212 0 1
9.52897 0 1
9.64584 0 1
9.76276 0 1
9.8797 0 1
9.99667 0 1
10.1137 0 1
10.2307 0 1
10.3478 0 1
10.4648 0 1
10.5819 0 1
10.6991 0 1
10.8162 0 1
10.9334 0 1
11.0506 0 1
11.1678 0 1
11.285 0 1
11.4023 0 1
11.5196 0 1
11.6369 0 1
11.7542 0 1
11.8715 0 1
11.9888 0 1
12.1062 0 1
12.2235 0 1
12.3409 0 1
12.4582 0 1
12.5756 0 1
12.693 0 1
12.8104 0 1
12.9278 0 1
13.0452 0 1
13.1626 0 1
13.28 0 1
13.3974 0 1
13.5149 0 1
13.6323 0 1
13.7497 0 1
13.8671 0 1
13.9845 0 1
14.1019 0 1
14.2193 0 1
14.3367 0 1
14.4541 0 1
14.5714 0 1
14.6888 0 1
14.8062 0 1
14.9235 0 1
15.0408 3098 55.6597
15.1581 3332 57.7235
15.2755 3319 57.6108
15.3927 3189 56.4712
15.51 3248 56.9912
15.6273 3079 55.4887
15.7445 2909 53.9351
15.8617 2966 54.461
15.9789 3100 55.6776
16.0961 3142 56.0535
16.2132 3025 55
16.3304 3039 55.1271
16.4475 3044 55.1725
16.5646 2882 53.6843
16.6816 2871 53.5817
16.7986 2843 53.3198
16.9156 2768 52.6118
17.0326 2690 51.8652
17.1496 2604 51.0294
17.2665 2658 51.5558
17.3833 2705 52.0096
17.5002 2665 51.6236
17.617 2617 51.1566
17.7338 2654 51.517
17.8505 2590 50.892
17.9672 2540 50.3984
18.0839 2658 51.5558
18.2005 2585 50.8429
18.3171 2538 50.3786
18.4337 2712 52.0769
18.5502 2647 51.449
18.6666 2600 50.9902
18.7831 2639 51.3712
18.8994 2556 50.5569
19.0158 2471 49.7092
19.1321 2374 48.7237
19.2483 2112 45.9565
19.3645 2041 45.1774
19.4806 2104 45.8694
19.5967 2147 46.3357
19.7128 2110 45.9347
19.8288 1919 43.8064
19.9447 1745 41.7732
20.0606 0 1
20.1764 0 1
20.2922 0 1
20.4079 0 1
20.5236 0 1
20.6392 0 1
20.7548 0 1
20.8702 0 1
23.3078 0 1
23.4233 0 1
23.539 0 1
23.6547 0 1
23.7704 0 1
23.8862 0 1
24.0021 0 1
24.118 0 1
24.234 0 1
24.35 0 1
24.4661 1053 32.45
24.5822 1216 34.8712
24.6984 1449 38.0657
24.8146 1708 41.328
24.9309 1907 43.6692
25.0472 2131 46.1628
25.1636 2418 49.1732
25.28 2436 49.3559
25.3965 2577 50.7642
25.513 2733 52.2781
25.6296 2812 53.0283
25.7462 2887 53.7308
25.8628 2754 52.4786
25.9795 2764 52.5738
26.0962 2737 52.3163
26.213 2700 51.9615
26.3298 2586 50.8527
26.4466 2470 49.6991
26.5635 2315 48.1144
26.6804 2351 48.4871
26.7973 2219 47.1063
26.9143 2240 47.3286
27.0313 2056 45.3431
27.1483 2299 47.9479
27.2653 2280 47.7493
27.3824 2376 48.7442
27.4996 2419 49.1833
27.6167 2475 49.7494
27.7339 2340 48.3735
27.8511 2485 49.8498
27.9683 2361 48.5901
28.0855 2198 46.8828
28.2028 2310 48.0625
28.3201 2402 49.0102
28.4374 2459 49.5883
28.5547 2524 50.2394
28.6721 2589 50.8822
28.7894 2561 50.6063
28.9068 2552 50.5173
29.0242 2514 50.1398
29.1416 2347 48.4458
29.259 2411 49.1019
29.3764 2270 47.6445
29.4939 2337 48.3425
29.6113 2288 47.833
29.7288 2309 48.0521
29.8463 2170 46.5833
29.9638 2261 47.55
30.0812 2150 46.3681
30.1987 2156 46.4327
30.3162 2176 46.6476
30.4337 2136 46.2169
30.5512 2163 46.5081
30.6687 2216 47.0744
30.7862 2252 47.4552
30.9037 2297 47.927
31.0212 2491 49.9099
31.1387 2451 49.5076
31.2562 2488 49.8799
31.3737 2375 48.734
31.4912 2339 48.3632
31.6087 2339 48.3632
31.7262 2364 48.621
31.8436 2325 48.2183
31.9611 2375 48.734
32.0785 2390 48.8876
32.1959 2301 47.9687
32.3134 2338 48.3529
32.4308 2201 46.9148
32.5482 2152 46.3897
32.6655 2145 46.3141
32.7829 2211 47.0213
32.9002 2030 45.0555
33.0176 2027 45.0222
33.1349 2066 45.4533
33.2522 2036 45.1221
33.3694 2055 45.3321
33.4867 2117 46.0109
33.6039 2040 45.1664
33.7211 2125 46.0977
33.8383 1991 44.6206
33.9554 2057 45.3542
34.0725 1980 44.4972
34.1896 1861 43.1393
34.3067 2108 45.913
34.4237 2060 45.3872
34.5407 2200 46.9042
34.6577 2248 47.4131
34.7746 2326 48.2286
34.8915 2223 47.1487
35.0084 2127 46.1194
35.1252 2021 44.9555
35.242 1943 44.0795
35.3587 1950 44.1588
35.4755 2054 45.3211
35.5921 2011 44.8442
35.7088 2139 46.2493
35.8254 2077 45.5741
35.9419 2036 45.1221
36.0584 2037 45.1331
36.1749 1938 44.0227
36.2913 1921 43.8292
36.4077 1908 43.6807
36.524 1812 42.5676
36.6403 1716 41.4246
36.7565 1606 40.0749
36.8727 1546 39.3192
36.9889 1469 38.3275
37.1049 1307 36.1525
37.221 0 1
37.3369 0 1
37.4529 0 1
37.5687 0 1
37.6845 0 1
37.8003 0 1
37.916 0 1
38.0316 0 1
38.1472 0 1
40.5851 0 1
40.7008 0 1
40.8164 0 1
40.9322 0 1
41.048 0 1
41.1639 0 1
41.2798 0 1
41.3958 0 1
41.5118 0 1
41.6279 0 1
41.744 1010 31.7805
41.8602 1074 32.7719
41.9765 1262 35.5246
42.0928 1339 36.5923
42.2091 1519 38.9744
42.3255 1527 39.0768
42.4419 1587 39.8372
42.5584 1631 40.3856
42.675 1701 41.2432
42.7915 1594 39.9249
42.9081 1492 38.6264
43.0248 1468 38.3145
43.1415 1564 39.5474
43.2582 1605 40.0625
43.375 1655 40.6817
43.4918 1690 41.1096
43.6087 1678 40.9634
43.7256 1619 40.2368
43.8425 1647 40.5832
43.9595 1544 39.2938
44.0765 1542 39.2683
44.1935 1512 38.8844
44.3106 1571 39.6358
44.4277 1648 40.5956
44.5448 1630 40.3733
44.6619 1546 39.3192
44.7791 1656 40.694
44.8963 1634 40.4228
45.0136 1768 42.0476
45.1308 1688 41.0853
45.2481 1723 41.509
45.3654 1707 41.3159
45.4827 1748 41.8091
45.6001 1810 42.5441
45.7174 1758 41.9285
45.8348 1734 41.6413
45.9522 1717 41.4367
46.0697 1699 41.2189
46.1871 1626 40.3237
46.3046 1548 39.3446
46.422 1521 39
46.5395 1503 38.7685
46.657 1451 38.092
46.7745 1567 39.5854
46.892 1555 39.4335
47.0096 1655 40.6817
47.1271 1806 42.4971
47.2446 1692 41.1339
47.3622 1731 41.6053
47.4797 1747 41.7971
47.5973 1642 40.5216
47.7149 1579 39.7366
47.8324 1546 39.3192
47.95 1587 39.8372
48.0675 1665 40.8044
48.1851 1652 40.6448
48.3027 1697 41.1947
48.4202 1702 41.2553
48.5378 1720 41.4729
48.6554 1675 40.9268
48.7729 1767 42.0357
48.8904 1687 41.0731
49.008 1690 41.1096
49.1255 1688 41.0853
49.243 1670 40.8656
49.3605 1702 41.2553
49.478 1582 39.7744
49.5955 1540 39.2428
49.713 1469 38.3275
49.8304 1427 37.7757
49.9479 1311 36.2077
50.0653 1348 36.7151
50.1827 1313 36.2353
50.3001 1485 38.5357
50.4175 1530 39.1152
50.5348 1588 39.8497
50.6521 1606 40.0749
50.7694 1552 39.3954
50.8867 1602 40.025
51.004 1588 39.8497
51.1212 1579 39.7366
51.2384 1504 38.7814
51.3556 1475 38.4057
51.4727 1645 40.5586
51.5899 1562 39.5221
51.707 1599 39.9875
51.824 1616 40.1995
51.9411 1746 41.7852
52.0581 1719 41.4608
52.175 1808 42.5206
52.2919 1774 42.1189
52.4088 1804 42.4735
52.5257 1769 42.0595
52.6425 1840 42.8952
52.7593 1785 42.2493
52.876 1813 42.5793
52.9927 1829 42.7668
53.1094 1746 41.7852
53.226 1609 40.1123
53.3426 1557 39.4588
53.4591 1437 37.9078
53.5756 1430 37.8153
53.692 1332 36.4966
53.8084 1209 34.7707
53.9248 1212 34.8138
54.0411 1191 34.5109
54.1573 1251 35.3695
54.2735 0 1
54.3896 0 1
54.5057 0 1
54.6217 0 1
54.7377 0 1
54.8537 0 1
54.9695 0 1
55.0853 0 1
55.2011 0 1
55.3168 0 1
55.4324 0 1
57.824 0 1
57.9396 0 1
58.0553 0 1
58.1711 0 1
58.2869 0 1
58.4028 0 1
58.5187 0 1
58.6347 0 1
58.7508 0 1
58.8669 0 1
58.983 32092 179.142
59.0992 55166 234.874
59.2155 81332 285.188
59.3318 105795 325.261
59.4482 124556 352.925
59.5646 137798 371.212
59.681 150647 388.133
59.7975 161881 402.344
59.9141 174704 417.976
60.0306 186499 431.855
60.1473 199783 446.971
60.2639 212473 460.948
60.3807 223366 472.616
60.4974 235317 485.095
60.6142 245448 495.427
60.731 255036 505.011
60.8479 266711 516.441
60.9648 276500 525.833
61.0818 283973 532.891
61.1987 291414 539.828
61.3158 294953 543.096
61.4328 298922 546.738
61.5499 297728 545.645
61.667 290297 538.792
61.7841 270404 520.004
61.9013 238501 488.366
62.0185 200603 447.887
62.1357 175531 418.964
62.253 173175 416.143
62.3702 190466 436.424
62.4875 209192 457.375
62.6049 216172 464.943
62.7222 209896 458.144
62.8396 197527 444.44
62.9569 181002 425.443
63.0743 156936 396.151
63.1918 130469 361.205
63.3092 104331 323.003
63.4267 82926 287.969
63.5441 66384 257.651
63.6616 53628 231.577
63.7791 43807 209.301
63.8966 35719 188.995
64.0142 28760 169.588
64.1317 22056 148.513
64.2492 16065 126.748
64.3668 10800 103.923
64.4843 6984 83.5703
64.6019 4564 67.5574
64.7195 3356 57.931
64.837 2848 53.3667
64.9546 2533 50.3289
65.0722 2502 50.02
65.1898 2291 47.8644
65.3074 2209 47
65.4249 2060 45.3872
65.5425 1980 44.4972
65.6601 2031 45.0666
65.7777 2006 44.7884
65.8952 2103 45.8585
66.0128 2113 45.9674
66.1304 2297 47.927
66.2479 2242 47.3498
66.3655 2255 47.4868
66.483 2222 47.1381
66.6005 2260 47.5395
66.718 2315 48.1144
66.8355 2213 47.0425
66.953 2173 46.6154
67.0705 2083 45.6399
67.1879 2049 45.2659
67.3054 2100 45.8258
67.4228 2026 45.0111
67.5402 1975 44.441
67.6576 2067 45.4643
67.7749 2053 45.31
67.8923 1898 43.566
68.0096 2002 44.7437
68.1269 1965 44.3283
68.2442 1907 43.6692
68.3614 1767 42.0357
68.4787 1856 43.0813
68.5958 1802 42.45
68.713 1885 43.4166
68.8302 1788 42.2847
68.9473 1787 42.2729
69.0643 1756 41.9047
69.1814 1757 41.9166
69.2984 1742 41.7373
69.4154 1768 42.0476
69.5323 1803 42.4617
69.6492 2031 45.0666
69.7661 2199 46.8935
69.8829 2239 47.3181
69.9997 2244 47.3709
70.1165 2263 47.571
70.2332 2453 49.5278
70.3499 2553 50.5272
70.4665 2617 51.1566
70.5831 2560 50.5964
70.6996 2533 50.3289
70.8161 2295 47.9062
70.9326 2012 44.8553
71.049 1683 41.0244
71.1653 1505 38.7943
71.2817 1265 35.5668
71.3979 1184 34.4093
71.5141 1070 32.7109
71.6303 918 30.2985
71.7464 796 28.2135
71.8624 0 1
71.9784 0 1
72.0944 0 1
72.2102 0 1
72.3261 0 1
72.4418 0 1
72.5575 0 1
72.6732 0 1
75.1054 0 1
75.2209 0 1
75.3365 0 1
75.4521 0 1
75.5678 0 1
75.6835 0 1
75.7993 0 1
75.9151 0 1
76.031 0 1
76.147 1255 35.426
76.263 1332 36.4966
76.3791 1508 38.833
76.4952 1547 39.3319
76.6113 1597 39.9625
76.7276 1572 39.6485
76.8438 1609 40.1123
76.9601 1669 40.8534
77.0765 1645 40.5586
77.1929 1677 40.9512
77.3093 1653 40.6571
77.4258 1575 39.6863
77.5423 1613 40.1622
77.6589 1572 39.6485
77.7755 1562 39.5221
77.8921 1512 38.8844
78.0088 1474 38.3927
78.1256 1419 37.6696
78.2423 1416 37.6298
78.3591 1456 38.1576
78.4759 1488 38.5746
78.5928 1472 38.3667
78.7097 1502 38.7556
78.8266 1448 38.0526
78.9436 1513 38.8973
79.0606 1517 38.9487
79.1776 1602 40.025
79.2946 1627 40.3361
79.4117 1656 40.694
79.5288 1714 41.4005
79.6459 1641 40.5093
79.7631 1623 40.2865
79.8802 1602 40.025
79.9974 1668 40.8412
80.1147 1631 40.3856
80.2319 1677 40.9512
80.3491 1649 40.6079
80.4664 1676 40.939
80.5837 1731 41.6053
80.701 1674 40.9145
80.8183 1666 40.8167
80.9357 1645 40.5586
81.053 1598 39.975
81.1704 1637 40.4599
81.2877 1662 40.7676
81.4051 1682 41.0122
81.5225 1580 39.7492
81.6399 1475 38.4057
81.7573 1573 39.6611
81.8747 1514 38.9102
81.9922 1474 38.3927
82.1096 1581 39.7618
82.227 1598 39.975
82.3444 1547 39.3319
82.4619 1610 40.1248
82.5793 1525 39.0512
82.6967 1627 40.3361
82.8142 1746 41.7852
82.9316 1762 41.9762
83.049 1702 41.2553
83.1664 1714 41.4005
83.2838 1726 41.5452
83.4012 1721 41.4849
83.5186 1742 41.7373
83.636 1689 41.0974
83.7534 1676 40.939
83.8708 1611 40.1373
83.9881 1736 41.6653
84.1055 1761 41.9643
84.2228 1648 40.5956
84.3401 1748 41.8091
84.4575 1680 40.9878
84.5747 1727 41.5572
84.692 1709 41.3401
84.8093 1725 41.5331
84.9265 1625 40.3113
85.0437 1642 40.5216
85.1609 1587 39.8372
85.2781 1504 38.7814
85.3952 1590 39.8748
85.5123 1578 39.724
85.6294 1611 40.1373
85.7465 1697 41.1947
85.8636 1634 40.4228
85.9806 1635 40.4351
86.0976 1605 40.0625
86.2145 1569 39.6106
86.3315 1660 40.7431
86.4484 1786 42.2611
86.5652 1831 42.7902
86.682 1704 41.2795
86.7988 1785 42.2493
86.9156 1711 41.3642
87.0323 1750 41.833
87.149 1727 41.5572
87.2657 1707 41.3159
87.3823 1737 41.6773
87.4988 1647 40.5832
87.6154 1643 40.5339
87.7318 1634 40.4228
87.8483 1536 39.1918
87.9647 1423 37.7227
88.081 1324 36.3868
88.1973 1253 35.3977
88.3136 1170 34.2053
88.4298 1040 32.249
88.546 998 31.5911
88.6621 942 30.692
88.7781 849 29.1376
88.8942 0 1
89.0101 0 1
89.126 0 1
89.2419 0 1
89.3577 0 1
89.4734 0 1
89.5891 0 1
89.7047 0 1
89.8203 0 1
89.9358 0 1
92.3269 0 1
92.4424 0 1
92.558 0 1
92.6736 0 1
92.7893 0 1
92.905 0 1
93.0208 0 1
93.1366 0 1
93.2525 0 1
93.3685 0 1
93.4845 0 1
93.6005 1429 37.8021
93.7167 1508 38.833
93.8328 1566 39.5727
93.949 1585 39.8121
94.0653 1566 39.5727
94.1816 1543 39.281
94.2979 1611 40.1373
94.4143 1549 39.3573
94.5307 1598 39.975
94.6472 1686 41.0609
94.7637 1717 41.4367
94.8803 1787 42.2729
94.9969 1698 41.2068
95.1135 1718 41.4488
95.2302 1675 40.9268
95.3469 1656 40.694
95.4637 1791 42.3202
95.5805 1679 40.9756
95.6973 1794 42.3556
95.8142 1776 42.1426
95.9311 1699 41.2189
96.048 1786 42.2611
96.1649 1800 42.4264
96.2819 1829 42.7668
96.3989 1780 42.19
96.516 1798 42.4028
96.633 1754 41.8808
96.7501 1824 42.7083
96.8673 1897 43.5546
96.9844 1814 42.5911
97.1016 1780 42.19
97.2188 1793 42.3438
97.336 1740 41.7133
97.4532 1676 40.939
97.5704 1667 40.8289
97.6877 1684 41.0366
97.805 1624 40.2989
97.9223 1577 39.7115
98.0396 1650 40.6202
98.1569 1704 41.2795
98.2743 1750 41.833
98.3916 1843 42.9302
98.509 1887 43.4396
98.6264 1795 42.3674
98.7438 1772 42.0951
98.8612 1767 42.0357
98.9786 1777 42.1545
99.096 1848 42.9884
99.2134 1919 43.8064
99.3308 1931 43.9431
99.4482 1932 43.9545
99.5656 1939 44.0341
99.6831 1883 43.3935
99.8005 1919 43.8064
99.9179 1921 43.8292
100.035 1838 42.8719
100.153 1844 42.9418
100.27 2032 45.0777
100.388 1903 43.6234
100.505 1907 43.6692
100.622 1873 43.2782
100.74 1915 43.7607
100.857 1889 43.4626
100.975 1769 42.0595
101.092 1748 41.8091
101.209 1756 41.9047
101.327 1796 42.3792
101.444 1688 41.0853
101.561 1764 42
101.679 1744 41.7612
101.796 1832 42.8019
101.913 1800 42.4264
102.03 1909 43.6921
102.148 1967 44.3509
102.265 1920 43.8178
102.382 1929 43.9204
102.499 1902 43.6119
102.616 1961 44.2832
102.733 2009 44.8219
102.851 2028 45.0333
102.968 2056 45.3431
103.085 2042 45.1885
103.202 2085 45.6618
103.319 2000 44.7214
103.436 2010 44.833
103.552 2035 45.111
103.669 2043 45.1996
103.786 2153 46.4004
103.903 2183 46.7226
104.02 2084 45.6508
104.137 2117 46.0109
104.253 2068 45.4753
104.37 2024 44.9889
104.487 2094 45.7602
104.603 1982 44.5197
104.72 1886 43.4281
104.836 1814 42.5911
104.953 1777 42.1545
105.069 1749 41.821
105.186 1654 40.6694
105.302 1618 40.2244
105.418 1667 40.8289
105.535 1567 39.5854
105.651 1446 38.0263
105.767 1317 36.2905
105.883 1262 35.5246
105.999 1054 32.4654
106.115 0 1
106.231 0 1
106.347 0 1
106.463 0 1
106.579 0 1
106.694 0 1
106.81 0 1
106.926 0 1
107.041 0 1
107.157 0 1
109.576 0 1
109.692 0 1
109.807 0 1
109.923 0 1
110.039 0 1
110.155 0 1
110.27 0 1
110.386 0 1
110.502 0 1
110.618 1092 33.0454
110.735 1393 37.3229
110.851 1517 38.9487
110.967 1585 39.8121
111.083 1758 41.9285
111.199 1844 42.9418
111.316 1867 43.2088
111.432 1995 44.6654
111.549 2052 45.299
111.665 1983 44.5309
111.782 1921 43.8292
111.898 2004 44.7661
112.015 1915 43.7607
112.132 1963 44.3058
112.248 1976 44.4522
112.365 2001 44.7325
112.482 2129 46.1411
112.599 2021 44.9555
112.716 2063 45.4203
112.832 1909 43.6921
112.949 1921 43.8292
113.066 1827 42.7434
113.183 1848 42.9884
113.3 1840 42.8952
113.417 1784 42.2374
113.534 1684 41.0366
113.652 1617 40.2119
113.769 1626 40.3237
113.886 1690 41.1096
114.003 1593 39.9124
114.12 1736 41.6653
114.238 1757 41.9166
114.355 1719 41.4608
114.472 1786 42.2611
114.589 1769 42.0595
114.707 1764 42
114.824 1787 42.2729
114.942 1714 41.4005
115.059 1797 42.391
115.176 1843 42.9302
115.294 1746 41.7852
115.411 1702 41.2553
115.529 1710 41.3521
115.646 1756 41.9047
115.764 1619 40.2368
115.881 1702 41.2553
115.999 1665 40.8044
116.116 1796 42.3792
116.234 1715 41.4126
116.351 1676 40.939
116.469 1714 41.4005
116.586 1613 40.1622
116.704 1608 40.0999
116.821 1643 40.5339
116.939 1502 38.7556
117.056 1451 38.092
117.174 1489 38.5876
117.291 1393 37.3229
117.409 1428 37.7889
117.526 1453 38.1182
117.644 1488 38.5746
117.761 1615 40.1871
117.879 1570 39.6232
117.996 1564 39.5474
118.114 1681 41
118.231 1575 39.6863
118.349 1657 40.7063
118.466 1660 40.7431
118.584 1614 40.1746
118.701 1667 40.8289
118.819 1628 40.3485
118.936 1589 39.8623
119.053 1542 39.2683
119.171 1576 39.6989
119.288 1660 40.7431
119.405 1645 40.5586
119.523 1613 40.1622
119.64 1612 40.1497
119.757 1605 40.0625
119.875 1539 39.2301
119.992 1525 39.0512
120.109 1513 38.8973
120.226 1607 40.0874
120.343 1601 40.0125
120.46 1537 39.2046
120.578 1462 38.2361
120.695 1449 38.0657
120.812 1345 36.6742
120.929 1273 35.6791
121.046 1243 35.2562
121.163 1358 36.8511
121.279 1323 36.3731
121.396 1384 37.2022
121.513 1376 37.0945
121.63 1420 37.6829
121.747 1394 37.3363
121.863 1481 38.4838
121.98 1281 35.7911
122.097 1333 36.5103
122.213 1324 36.3868
122.33 1259 35.4824
122.446 1181 34.3657
122.563 1182 34.3802
122.679 978 31.273
122.795 969 31.1288
122.912 924 30.3974
123.028 901 30.0167
123.144 887 29.7825
123.26 883 29.7153
123.377 0 1
123.493 0 1
123.609 0 1
123.725 0 1
123.84 0 1
123.956 0 1
124.072 0 1
124.188 0 1
124.303 0 1
124.419 0 1
126.852 0 1
126.968 0 1
127.083 0 1
127.199 0 1
127.315 0 1
127.431 0 1
127.547 0 1
127.663 0 1
127.779 0 1
127.895 0 1
128.011 0 1
128.127 0 1
128.243 0 1
128.359 1719 41.4608
128.476 1687 41.0731
128.592 1771 42.0833
128.708 1744 41.7612
128.825 1847 42.9767
128.941 1882 43.382
129.058 1851 43.0232
129.174 1825 42.72
129.291 1886 43.4281
129.408 1847 42.9767
129.524 1762 41.9762
129.641 1710 41.3521
129.758 1676 40.939
129.875 1688 41.0853
129.992 1596 39.95
130.108 1529 39.1024
130.225 1526 39.064
130.342 1635 40.4351
130.459 1773 42.107
130.576 2004 44.7661
130.693 1993 44.643
130.81 2177 46.6583
130.928 2154 46.4112
131.045 2102 45.8476
131.162 2125 46.0977
131.279 2252 47.4552
131.396 2522 50.2195
131.513 2537 50.3686
131.631 2539 50.3885
131.748 2587 50.8626
131.865 2737 52.3163
131.983 2919 54.0278
132.1 3095 55.6327
132.217 3478 58.9746
132.335 3577 59.808
132.452 3635 60.291
132.57 3645 60.3738
132.687 3781 61.4898
132.804 3906 62.498
132.922 3866 62.1772
133.039 3990 63.1664
133.157 4062 63.7338
133.274 3999 63.2376
133.392 4179 64.6452
133.509 3929 62.6817
133.627 3926 62.6578
133.744 3911 62.538
133.862 3884 62.3217
133.979 3933 62.7136
134.097 4064 63.7495
134.214 4231 65.0461
134.332 4106 64.0781
134.449 4242 65.1306
134.567 3943 62.7933
134.684 3927 62.6658
134.802 3820 61.8061
134.919 3999 63.2376
135.037 3838 61.9516
135.154 3862 62.145
135.272 3725 61.0328
135.389 3883 62.3137
135.507 3888 62.3538
135.624 3962 62.9444
135.742 4057 63.6946
135.859 4104 64.0625
135.977 4199 64.7997
136.094 4178 64.6375
136.211 4173 64.5988
136.329 4151 64.4283
136.446 4027 63.4586
136.564 4077 63.8514
136.681 4151 64.4283
136.798 4288 65.4828
136.915 4177 64.6297
137.033 4015 63.364
137.15 3921 62.6179
137.267 3752 61.2536
137.384 3616 60.1332
137.502 3637 60.3075
137.619 3670 60.5805
137.736 3916 62.578
137.853 3773 61.4248
137.97 3919 62.6019
138.087 3753 61.2617
138.204 3764 61.3514
138.321 3702 60.8441
138.438 3798 61.6279
138.555 3818 61.79
138.672 3785 61.5224
138.788 3555 59.6238
138.905 3499 59.1523
139.022 3484 59.0254
139.139 3515 59.2874
139.255 3635 60.291
139.372 3596 59.9667
139.488 3417 58.4551
139.605 3102 55.6956
139.721 2915 53.9907
139.838 2623 51.2152
139.954 2591 50.9019
140.071 2492 49.9199
140.187 2374 48.7237
140.303 2188 46.7761
140.419 2168 46.5618
140.535 2096 45.7821
140.652 1945 44.1022
140.768 0 1
140.884 0 1
141 0 1
141.115 0 1
141.231 0 1
141.347 0 1
141.463 0 1
141.578 0 1
141.694 0 1
144.104 0 1
144.219 0 1
144.335 0 1
144.45 0 1
144.566 0 1
144.682 0 1
144.798 0 1
144.914 0 1
145.03 0 1
145.146 3333 57.7321
145.262 3501 59.1692
145.378 3638 60.3158
145.494 3541 59.5063
145.61 3711 60.918
145.726 3690 60.7454
145.842 3767 61.3759
145.959 3787 61.5386
146.075 3552 59.5987
146.192 3614 60.1166
146.308 3638 60.3158
146.425 3574 59.7829
146.541 3754 61.2699
146.658 3797 61.6198
146.774 3980 63.0872
146.891 3980 63.0872
147.008 3971 63.0159
147.125 3948 62.8331
147.241 3985 63.1269
147.358 4054 63.671
147.475 3876 62.2575
147.592 3863 62.153
147.709 3838 61.9516
147.826 3441 58.66
147.943 3626 60.2163
148.06 3743 61.1801
148.177 3920 62.6099
148.294 3917 62.5859
148.411 3994 63.1981
148.528 3979 63.0793
148.645 4096 64
148.762 4017 63.3798
148.88 3958 62.9126
148.997 4067 63.773
149.114 4018 63.3877
149.231 3896 62.4179
149.349 3990 63.1664
149.466 3887 62.3458
149.583 3775 61.441
149.701 3753 61.2617
149.818 3575 59.7913
149.935 3471 58.9152
150.053 3431 58.5747
150.17 3460 58.8218
150.287 3626 60.2163
150.405 3586 59.8832
150.522 3710 60.9098
150.64 3571 59.7578
150.757 3472 58.9237
150.875 3422 58.4979
150.992 3542 59.5147
151.11 3471 58.9152
151.227 3248 56.9912
151.344 3139 56.0268
151.462 2945 54.2679
151.579 2879 53.6563
151.697 3041 55.1453
151.814 3207 56.6304
151.932 3229 56.8243
152.049 3296 57.4108
152.167 3286 57.3236
152.284 3261 57.1052
152.402 3263 57.1227
152.519 3298 57.4282
152.636 3299 57.4369
152.754 3344 57.8273
152.871 3254 57.0438
152.989 3313 57.5587
153.106 3227 56.8067
153.223 3136 56
153.341 3143 56.0625
153.458 3085 55.5428
153.575 2954 54.3507
153.693 2939 54.2125
153.81 3002 54.7905
153.927 3021 54.9636
154.044 3016 54.9181
154.162 3014 54.8999
154.279 3022 54.9727
154.396 2892 53.7773
154.513 2997 54.7449
154.63 3060 55.3173
154.747 3052 55.2449
154.864 2932 54.1479
154.981 2676 51.7301
155.098 2788 52.8015
155.215 2704 52
155.332 2812 53.0283
155.449 2865 53.5257
155.566 2943 54.2494
155.683 3142 56.0535
155.8 3084 55.5338
155.917 3086 55.5518
156.033 3061 55.3263
156.15 0 1
156.267 0 1
156.383 0 1
156.5 0 1
156.617 0 1
156.733 0 1
156.85 0 1
156.966 0 1
157.082 0 1
157.199 0 1
157.315 0 1
157.431 0 1
157.547 0 1
157.664 0 1
157.78 0 1
157.896 0 1
158.012 0 1
158.128 0 1
158.244 0 1
158.359 0 1
158.475 0 1
158.591 0 1
158.706 0 1
