
6.15755 0 1
6.2731 0 1
6.3887 0 1
6.50437 0 1
6.62009 0 1
6.73587 0 1
6.8517 0 1
6.96759 0 1
7.08353 0 1
7.19952 0 1
7.31557 0 1
7.43166 0 1
7.54781 0 1
7.664 0 1
7.78024 0 1
7.89653 0 1
8.01286 0 1
8.12924 0 1
8.24567 0 1
8.36213 0 1
8.47864 0 1
8.59519 0 1
8.71178 0 1
8.82841 0 1
8.94508 0 1
9.06179 0 1
9.17853 0 1
9.29531 0 1
9.41212 0 1
9.52897 0 1
9.64584 0 1
9.76276 0 1
9.8797 0 1
9.99667 0 1
10.1137 0 1
10.2307 0 1
10.3478 0 1
10.4648 0 1
10.5819 0 1
10.6991 0 1
10.8162 0 1
10.9334 0 1
11.0506 0 1
11.1678 0 1
11.285 0 1
11.4023 0 1
11.5196 0 1
11.6369 0 1
11.7542 0 1
11.8715 0 1
11.9888 0 1
12.1062 0 1
12.2235 0 1
12.3409 0 1
12.4582 0 1
12.5756 0 1
12.693 0 1
12.8104 0 1
12.9278 0 1
13.0452 0 1
13.1626 0 1
13.28 0 1
13.3974 0 1
13.5149 0 1
13.6323 0 1
13.7497 0 1
13.8671 0 1
13.9845 0 1
14.1019 0 1
14.2193 0 1
14.3367 0 1
14.4541 0 1
14.5714 0 1
14.6888 0 1
14.8062 0 1
14.9235 0 1
15.0408 2972 54.5161
15.1581 3082 55.5158
15.2755 3092 55.6058
15.3927 3101 55.6866
15.51 3161 56.2228
15.6273 3132 55.9643
15.7445 2960 54.4059
15.8617 3008 54.8452
15.9789 2971 54.5069
16.0961 2747 52.4118
16.2132 2801 52.9245
16.3304 2726 52.2111
16.4475 2766 52.5928
16.5646 2676 51.7301
16.6816 2675 51.7204
16.7986 2601 51
16.9156 2531 50.309
17.0326 2411 49.1019
17.1496 2514 50.1398
17.2665 2435 49.3457
17.3833 2512 50.1199
17.5002 2551 50.5074
17.617 2507 50.07
17.7338 2531 50.309
17.8505 2479 49.7896
17.9672 2466 49.6588
18.0839 2481 49.8096
18.2005 2414 49.1325
18.3171 2467 49.6689
18.4337 2603 51.0196
18.5502 2553 50.5272
18.6666 2546 50.4579
18.7831 2509 50.0899
18.8994 2665 51.6236
19.0158 2435 49.3457
19.1321 2507 50.07
19.2483 2358 48.5592
19.3645 2178 46.669
19.4806 2137 46.2277
19.5967 1940 44.0454
19.7128 1924 43.8634
19.8288 1843 42.9302
19.9447 1601 40.0125
20.0606 0 1
20.1764 0 1
20.2922 0 1
20.4079 0 1
20.5236 0 1
20.6392 0 1
20.7548 0 1
20.8702 0 1
23.3078 0 1
23.4233 0 1
23.539 0 1
23.6547 0 1
23.7704 0 1
23.8862 0 1
24.0021 0 1
24.118 0 1
24.234 0 1
24.35 0 1
24.4661 1219 34.9142
24.5822 1411 37.5633
24.6984 1539 39.2301
24.8146 1863 43.1625
24.9309 2011 44.8442
25.0472 2282 47.7703
25.1636 2492 49.9199
25.28 2703 51.9904
25.3965 2668 51.6527
25.513 2761 52.5452
25.6296 2798 52.8961
25.7462 2820 53.1037
25.8628 2888 53.7401
25.9795 2885 53.7122
26.0962 2873 53.6004
26.213 2611 51.0979
26.3298 2562 50.6162
26.4466 2483 49.8297
26.5635 2382 48.8057
26.6804 2348 48.4562
26.7973 2289 47.8435
26.9143 2380 48.7852
27.0313 2304 48
27.1483 2435 49.3457
27.2653 2322 48.1871
27.3824 2383 48.816
27.4996 2528 50.2792
27.6167 2496 49.96
27.7339 2609 51.0784
27.8511 2498 49.98
27.9683 2575 50.7445
28.0855 2516 50.1597
28.2028 2546 50.4579
28.3201 2523 50.2295
28.4374 2554 50.5371
28.5547 2519 50.1896
28.6721 2582 50.8134
28.7894 2555 50.547
28.9068 2506 50.06
29.0242 2495 49.95
29.1416 2484 49.8397
29.259 2472 49.7192
29.3764 2335 48.3218
29.4939 2408 49.0714
29.6113 2303 47.9896
29.7288 2289 47.8435
29.8463 2147 46.3357
29.9638 2111 45.9456
30.0812 2121 46.0543
30.1987 2064 45.4313
30.3162 2164 46.5188
30.4337 2263 47.571
30.5512 2260 47.5395
30.6687 2219 47.1063
30.7862 2259 47.5289
30.9037 2343 48.4045
31.0212 2400 48.9898
31.1387 2465 49.6488
31.2562 2498 49.98
31.3737 2480 49.7996
31.4912 2435 49.3457
31.6087 2435 49.3457
31.7262 2383 48.816
31.8436 2356 48.5386
31.9611 2270 47.6445
32.0785 2381 48.7955
32.1959 2309 48.0521
32.3134 2339 48.3632
32.4308 2386 48.8467
32.5482 2209 47
32.6655 2295 47.9062
32.7829 2228 47.2017
32.9002 2106 45.8912
33.0176 1989 44.5982
33.1349 2058 45.3652
33.2522 2105 45.8803
33.3694 1968 44.3621
33.4867 1985 44.5533
33.6039 1972 44.4072
33.7211 1959 44.2606
33.8383 2015 44.8888
33.9554 2087 45.6837
34.0725 2229 47.2123
34.1896 2087 45.6837
34.3067 2131 46.1628
34.4237 2108 45.913
34.5407 2211 47.0213
34.6577 2234 47.2652
34.7746 2222 47.1381
34.8915 2234 47.2652
35.0084 2193 46.8295
35.1252 2167 46.551
35.242 2122 46.0652
35.3587 2181 46.7012
35.4755 2107 45.9021
35.5921 2162 46.4973
35.7088 2122 46.0652
35.8254 2165 46.5296
35.9419 2068 45.4753
36.0584 2053 45.31
36.1749 2095 45.7712
36.2913 1996 44.6766
36.4077 1972 44.4072
36.524 1832 42.8019
36.6403 1722 41.497
36.7565 1646 40.5709
36.8727 1586 39.8246
36.9889 1353 36.7831
37.1049 1226 35.0143
37.221 0 1
37.3369 0 1
37.4529 0 1
37.5687 0 1
37.6845 0 1
37.8003 0 1
37.916 0 1
38.0316 0 1
38.1472 0 1
40.5851 0 1
40.7008 0 1
40.8164 0 1
40.9322 0 1
41.048 0 1
41.1639 0 1
41.2798 0 1
41.3958 0 1
41.5118 0 1
41.6279 0 1
41.744 976 31.241
41.8602 1105 33.2415
41.9765 1236 35.1568
42.0928 1346 36.6879
42.2091 1449 38.0657
42.3255 1415 37.6165
42.4419 1564 39.5474
42.5584 1553 39.4081
42.675 1661 40.7554
42.7915 1730 41.5933
42.9081 1814 42.5911
43.0248 1661 40.7554
43.1415 1536 39.1918
43.2582 1586 39.8246
43.375 1656 40.694
43.4918 1731 41.6053
43.6087 1666 40.8167
43.7256 1627 40.3361
43.8425 1645 40.5586
43.9595 1615 40.1871
44.0765 1620 40.2492
44.1935 1539 39.2301
44.3106 1739 41.7013
44.4277 1659 40.7308
44.5448 1619 40.2368
44.6619 1732 41.6173
44.7791 1678 40.9634
44.8963 1767 42.0357
45.0136 1736 41.6653
45.1308 1642 40.5216
45.2481 1735 41.6533
45.3654 1737 41.6773
45.4827 1662 40.7676
45.6001 1665 40.8044
45.7174 1620 40.2492
45.8348 1638 40.4722
45.9522 1627 40.3361
46.0697 1520 38.9872
46.1871 1539 39.2301
46.3046 1660 40.7431
46.422 1708 41.328
46.5395 1670 40.8656
46.657 1574 39.6737
46.7745 1532 39.1408
46.892 1583 39.7869
47.0096 1638 40.4722
47.1271 1704 41.2795
47.2446 1712 41.3763
47.3622 1650 40.6202
47.4797 1668 40.8412
47.5973 1683 41.0244
47.7149 1637 40.4599
47.8324 1678 40.9634
47.95 1635 40.4351
48.0675 1623 40.2865
48.1851 1702 41.2553
48.3027 1662 40.7676
48.4202 1803 42.4617
48.5378 1674 40.9145
48.6554 1699 41.2189
48.7729 1650 40.6202
48.8904 1705 41.2916
49.008 1661 40.7554
49.1255 1636 40.4475
49.243 1532 39.1408
49.3605 1499 38.7169
49.478 1429 37.8021
49.5955 1470 38.3406
49.713 1471 38.3536
49.8304 1579 39.7366
49.9479 1558 39.4715
50.0653 1586 39.8246
50.1827 1492 38.6264
50.3001 1425 37.7492
50.4175 1457 38.1707
50.5348 1617 40.2119
50.6521 1623 40.2865
50.7694 1633 40.4104
50.8867 1582 39.7744
51.004 1543 39.281
51.1212 1511 38.8716
51.2384 1476 38.4187
51.3556 1612 40.1497
51.4727 1563 39.5348
51.5899 1669 40.8534
51.707 1689 41.0974
51.824 1616 40.1995
51.9411 1670 40.8656
52.0581 1630 40.3733
52.175 1619 40.2368
52.2919 1634 40.4228
52.4088 1635 40.4351
52.5257 1562 39.5221
52.6425 1620 40.2492
52.7593 1481 38.4838
52.876 1448 38.0526
52.9927 1417 37.6431
53.1094 1500 38.7298
53.226 1412 37.5766
53.3426 1443 37.9868
53.4591 1544 39.2938
53.5756 1379 37.1349
53.692 1374 37.0675
53.8084 1182 34.3802
53.9248 1196 34.5832
54.0411 1095 33.0908
54.1573 1016 31.8748
54.2735 0 1
54.3896 0 1
54.5057 0 1
54.6217 0 1
54.7377 0 1
54.8537 0 1
54.9695 0 1
55.0853 0 1
55.2011 0 1
55.3168 0 1
55.4324 0 1
57.824 0 1
57.9396 0 1
58.0553 0 1
58.1711 0 1
58.2869 0 1
58.4028 0 1
58.5187 0 1
58.6347 0 1
58.7508 0 1
58.8669 0 1
58.983 1443 37.9868
59.0992 1716 41.4246
59.2155 1924 43.8634
59.3318 1962 44.2945
59.4482 2214 47.0532
59.5646 2295 47.9062
59.681 2361 48.5901
59.7975 2340 48.3735
59.9141 2474 49.7393
60.0306 2585 50.8429
60.1473 2645 51.4296
60.2639 2552 50.5173
60.3807 2665 51.6236
60.4974 2620 51.1859
60.6142 2610 51.0882
60.731 2664 51.614
60.8479 2633 51.3128
60.9648 2502 50.02
61.0818 2507 50.07
61.1987 2454 49.5379
61.3158 2337 48.3425
61.4328 2236 47.2864
61.5499 2303 47.9896
61.667 2214 47.0532
61.7841 2169 46.5725
61.9013 2117 46.0109
62.0185 2089 45.7056
62.1357 2163 46.5081
62.253 2131 46.1628
62.3702 2083 45.6399
62.4875 2134 46.1952
62.6049 2119 46.0326
62.7222 2057 45.3542
62.8396 2022 44.9667
62.9569 2056 45.3431
63.0743 2099 45.8148
63.1918 2035 45.111
63.3092 1920 43.8178
63.4267 2037 45.1331
63.5441 2102 45.8476
63.6616 2132 46.1736
63.7791 2103 45.8585
63.8966 2096 45.7821
64.0142 2135 46.2061
64.1317 2098 45.8039
64.2492 2138 46.2385
64.3668 2090 45.7165
64.4843 1966 44.3396
64.6019 1965 44.3283
64.7195 1995 44.6654
64.837 1956 44.2267
64.9546 1886 43.4281
65.0722 1933 43.9659
65.1898 1711 41.3642
65.3074 1691 41.1218
65.4249 1797 42.391
65.5425 1828 42.7551
65.6601 1971 44.3959
65.7777 1933 43.9659
65.8952 1910 43.7035
66.0128 1877 43.3244
66.1304 1952 44.1814
66.2479 1971 44.3959
66.3655 2028 45.0333
66.483 2032 45.0777
66.6005 1965 44.3283
66.718 1913 43.7379
66.8355 1891 43.4856
66.953 1909 43.6921
67.0705 1899 43.5775
67.1879 2008 44.8107
67.3054 2074 45.5412
67.4228 2053 45.31
67.5402 2036 45.1221
67.6576 2041 45.1774
67.7749 2083 45.6399
67.8923 1960 44.2719
68.0096 1987 44.5758
68.1269 1956 44.2267
68.2442 1935 43.9886
68.3614 1877 43.3244
68.4787 1837 42.8602
68.5958 1815 42.6028
68.713 1787 42.2729
68.8302 1740 41.7133
68.9473 1789 42.2966
69.0643 1767 42.0357
69.1814 1762 41.9762
69.2984 1833 42.8135
69.4154 1919 43.8064
69.5323 1950 44.1588
69.6492 1910 43.7035
69.7661 1943 44.0795
69.8829 1910 43.7035
69.9997 1877 43.3244
70.1165 1928 43.909
70.2332 1865 43.1856
70.3499 1674 40.9145
70.4665 1606 40.0749
70.5831 1391 37.2961
70.6996 1432 37.8418
70.8161 1336 36.5513
70.9326 1326 36.4143
71.049 1264 35.5528
71.1653 1179 34.3366
71.2817 1153 33.9559
71.3979 1034 32.1559
71.5141 982 31.3369
71.6303 930 30.4959
71.7464 752 27.4226
71.8624 0 1
71.9784 0 1
72.0944 0 1
72.2102 0 1
72.3261 0 1
72.4418 0 1
72.5575 0 1
72.6732 0 1
75.1054 0 1
75.2209 0 1
75.3365 0 1
75.4521 0 1
75.5678 0 1
75.6835 0 1
75.7993 0 1
75.9151 0 1
76.031 0 1
76.147 1164 34.1174
76.263 1338 36.5787
76.3791 1491 38.6135
76.4952 1598 39.975
76.6113 1716 41.4246
76.7276 1703 41.2674
76.8438 1799 42.4146
76.9601 1703 41.2674
77.0765 1616 40.1995
77.1929 1611 40.1373
77.3093 1610 40.1248
77.4258 1618 40.2244
77.5423 1679 40.9756
77.6589 1538 39.2173
77.7755 1486 38.5487
77.8921 1419 37.6696
78.0088 1521 39
78.1256 1411 37.5633
78.2423 1459 38.1969
78.3591 1558 39.4715
78.4759 1719 41.4608
78.5928 1698 41.2068
78.7097 1680 40.9878
78.8266 1583 39.7869
78.9436 1713 41.3884
79.0606 1613 40.1622
79.1776 1631 40.3856
79.2946 1740 41.7133
79.4117 1657 40.7063
79.5288 1587 39.8372
79.6459 1601 40.0125
79.7631 1593 39.9124
79.8802 1661 40.7554
79.9974 1713 41.3884
80.1147 1818 42.638
80.2319 1799 42.4146
80.3491 1835 42.8369
80.4664 1806 42.4971
80.5837 1806 42.4971
80.701 1811 42.5558
80.8183 1737 41.6773
80.9357 1736 41.6653
81.053 1699 41.2189
81.1704 1660 40.7431
81.2877 1666 40.8167
81.4051 1619 40.2368
81.5225 1549 39.3573
81.6399 1476 38.4187
81.7573 1467 38.3014
81.8747 1477 38.4318
81.9922 1575 39.6863
82.1096 1675 40.9268
82.227 1696 41.1825
82.3444 1755 41.8927
82.4619 1765 42.0119
82.5793 1776 42.1426
82.6967 1721 41.4849
82.8142 1694 41.1582
82.9316 1759 41.9404
83.049 1786 42.2611
83.1664 1673 40.9023
83.2838 1615 40.1871
83.4012 1661 40.7554
83.5186 1619 40.2368
83.636 1839 42.8836
83.7534 1807 42.5088
83.8708 1909 43.6921
83.9881 1852 43.0349
84.1055 1883 43.3935
84.2228 1899 43.5775
84.3401 1916 43.7721
84.4575 1736 41.6653
84.5747 1755 41.8927
84.692 1833 42.8135
84.8093 1758 41.9285
84.9265 1678 40.9634
85.0437 1640 40.4969
85.1609 1631 40.3856
85.2781 1561 39.5095
85.3952 1558 39.4715
85.5123 1557 39.4588
85.6294 1673 40.9023
85.7465 1773 42.107
85.8636 1845 42.9535
85.9806 1818 42.638
86.0976 1811 42.5558
86.2145 1848 42.9884
86.3315 1816 42.6146
86.4484 1796 42.3792
86.5652 1913 43.7379
86.682 1802 42.45
86.7988 1825 42.72
86.9156 1762 41.9762
87.0323 1750 41.833
87.149 1792 42.332
87.2657 1804 42.4735
87.3823 1836 42.8486
87.4988 1766 42.0238
87.6154 1720 41.4729
87.7318 1702 41.2553
87.8483 1611 40.1373
87.9647 1547 39.3319
88.081 1410 37.55
88.1973 1360 36.8782
88.3136 1237 35.171
88.4298 1157 34.0147
88.546 1011 31.7962
88.6621 948 30.7896
88.7781 906 30.0998
88.8942 0 1
89.0101 0 1
89.126 0 1
89.2419 0 1
89.3577 0 1
89.4734 0 1
89.5891 0 1
89.7047 0 1
89.8203 0 1
89.9358 0 1
92.3269 0 1
92.4424 0 1
92.558 0 1
92.6736 0 1
92.7893 0 1
92.905 0 1
93.0208 0 1
93.1366 0 1
93.2525 0 1
93.3685 0 1
93.4845 0 1
93.6005 1442 37.9737
93.7167 1535 39.1791
93.8328 1611 40.1373
93.949 1695 41.1704
94.0653 1749 41.821
94.1816 1636 40.4475
94.2979 1618 40.2244
94.4143 1665 40.8044
94.5307 1614 40.1746
94.6472 1621 40.2616
94.7637 1673 40.9023
94.8803 1749 41.821
94.9969 1822 42.6849
95.1135 1776 42.1426
95.2302 1881 43.3705
95.3469 1849 43
95.4637 1797 42.391
95.5805 1867 43.2088
95.6973 1845 42.9535
95.8142 1808 42.5206
95.9311 1832 42.8019
96.048 1855 43.0697
96.1649 1770 42.0714
96.2819 1760 41.9524
96.3989 1821 42.6732
96.516 1917 43.7836
96.633 1859 43.1161
96.7501 1959 44.2606
96.8673 1893 43.5086
96.9844 1894 43.5201
97.1016 1961 44.2832
97.2188 1819 42.6497
97.336 1812 42.5676
97.4532 1797 42.391
97.5704 1854 43.0581
97.6877 1813 42.5793
97.805 1778 42.1663
97.9223 1700 41.2311
98.0396 1696 41.1825
98.1569 1674 40.9145
98.2743 1738 41.6893
98.3916 1708 41.328
98.509 1858 43.1045
98.6264 1967 44.3509
98.7438 1971 44.3959
98.8612 2028 45.0333
98.9786 2018 44.9222
99.096 2044 45.2106
99.2134 2114 45.9783
99.3308 2084 45.6508
99.4482 2158 46.4543
99.5656 2072 45.5192
99.6831 2065 45.4423
99.8005 2063 45.4203
99.9179 2155 46.422
100.035 2097 45.793
100.153 2054 45.3211
100.27 2206 46.9681
100.388 2126 46.1086
100.505 2117 46.0109
100.622 2062 45.4093
100.74 2052 45.299
100.857 2007 44.7996
100.975 2090 45.7165
101.092 2029 45.0444
101.209 2032 45.0777
101.327 2030 45.0555
101.444 1956 44.2267
101.561 1925 43.8748
101.679 1828 42.7551
101.796 1886 43.4281
101.913 1897 43.5546
102.03 1906 43.6578
102.148 2024 44.9889
102.265 2164 46.5188
102.382 2166 46.5403
102.499 2129 46.1411
102.616 2130 46.1519
102.733 2228 47.2017
102.851 2243 47.3603
102.968 2326 48.2286
103.085 2280 47.7493
103.202 2284 47.7912
103.319 2174 46.6262
103.436 2196 46.8615
103.552 2169 46.5725
103.669 2216 47.0744
103.786 2371 48.6929
103.903 2322 48.1871
104.02 2266 47.6025
104.137 2281 47.7598
104.253 2253 47.4658
104.37 2213 47.0425
104.487 2231 47.2335
104.603 2216 47.0744
104.72 2132 46.1736
104.836 2119 46.0326
104.953 2058 45.3652
105.069 1983 44.5309
105.186 1924 43.8634
105.302 1712 41.3763
105.418 1586 39.8246
105.535 1533 39.1535
105.651 1487 38.5616
105.767 1399 37.4032
105.883 1259 35.4824
105.999 1203 34.6843
106.115 0 1
106.231 0 1
106.347 0 1
106.463 0 1
106.579 0 1
106.694 0 1
106.81 0 1
106.926 0 1
107.041 0 1
107.157 0 1
109.576 0 1
109.692 0 1
109.807 0 1
109.923 0 1
110.039 0 1
110.155 0 1
110.27 0 1
110.386 0 1
110.502 0 1
110.618 964 31.0483
110.735 1179 34.3366
110.851 1463 38.2492
110.967 1679 40.9756
111.083 1806 42.4971
111.199 1877 43.3244
111.316 1993 44.643
111.432 2038 45.1442
111.549 2062 45.4093
111.665 2066 45.4533
111.782 2031 45.0666
111.898 2000 44.7214
112.015 1991 44.6206
112.132 1920 43.8178
112.248 1869 43.2319
112.365 1962 44.2945
112.482 1973 44.4185
112.599 2105 45.8803
112.716 2032 45.0777
112.832 2073 45.5302
112.949 1907 43.6692
113.066 1922 43.8406
113.183 1937 44.0114
113.3 1880 43.359
113.417 1939 44.0341
113.534 1932 43.9545
113.652 1880 43.359
113.769 1910 43.7035
113.886 1774 42.1189
114.003 1667 40.8289
114.12 1661 40.7554
114.238 1594 39.9249
114.355 1680 40.9878
114.472 1746 41.7852
114.589 1838 42.8719
114.707 1853 43.0465
114.824 1682 41.0122
114.942 1894 43.5201
115.059 1910 43.7035
115.176 1874 43.2897
115.294 1824 42.7083
115.411 1751 41.845
115.529 1726 41.5452
115.646 1760 41.9524
115.764 1719 41.4608
115.881 1763 41.9881
115.999 1788 42.2847
116.116 1812 42.5676
116.234 1879 43.3474
116.351 1676 40.939
116.469 1840 42.8952
116.586 1729 41.5812
116.704 1568 39.598
116.821 1647 40.5832
116.939 1682 41.0122
117.056 1723 41.509
117.174 1698 41.2068
117.291 1752 41.8569
117.409 1610 40.1248
117.526 1656 40.694
117.644 1558 39.4715
117.761 1493 38.6394
117.879 1478 38.4448
117.996 1515 38.923
118.114 1596 39.95
118.231 1633 40.4104
118.349 1620 40.2492
118.466 1747 41.7971
118.584 1675 40.9268
118.701 1729 41.5812
118.819 1767 42.0357
118.936 1687 41.0731
119.053 1563 39.5348
119.171 1588 39.8497
119.288 1536 39.1918
119.405 1571 39.6358
119.523 1638 40.4722
119.64 1666 40.8167
119.757 1678 40.9634
119.875 1634 40.4228
119.992 1648 40.5956
120.109 1572 39.6485
120.226 1695 41.1704
120.343 1534 39.1663
120.46 1643 40.5339
120.578 1627 40.3361
120.695 1566 39.5727
120.812 1586 39.8246
120.929 1596 39.95
121.046 1653 40.6571
121.163 1516 38.9358
121.279 1456 38.1576
121.396 1457 38.1707
121.513 1316 36.2767
121.63 1307 36.1525
121.747 1309 36.1801
121.863 1316 36.2767
121.98 1396 37.3631
122.097 1324 36.3868
122.213 1373 37.054
122.33 1325 36.4005
122.446 1288 35.8887
122.563 1224 34.9857
122.679 1122 33.4963
122.795 1043 32.2955
122.912 950 30.8221
123.028 930 30.4959
123.144 838 28.9482
123.26 869 29.4788
123.377 0 1
123.493 0 1
123.609 0 1
123.725 0 1
123.84 0 1
123.956 0 1
124.072 0 1
124.188 0 1
124.303 0 1
124.419 0 1
126.852 0 1
126.968 0 1
127.083 0 1
127.199 0 1
127.315 0 1
127.431 0 1
127.547 0 1
127.663 0 1
127.779 0 1
127.895 0 1
128.011 0 1
128.127 0 1
128.243 0 1
128.359 1586 39.8246
128.476 1629 40.3609
128.592 1693 41.1461
128.708 1700 41.2311
128.825 1810 42.5441
128.941 1768 42.0476
129.058 1918 43.795
129.174 1827 42.7434
129.291 1810 42.5441
129.408 1772 42.0951
129.524 1794 42.3556
129.641 1838 42.8719
129.758 1871 43.2551
129.875 1866 43.1972
129.992 1823 42.6966
130.108 1938 44.0227
130.225 1884 43.4051
130.342 1921 43.8292
130.459 1872 43.2666
130.576 1861 43.1393
130.693 1767 42.0357
130.81 1775 42.1307
130.928 1821 42.6732
131.045 1996 44.6766
131.162 2161 46.4866
131.279 2344 48.4149
131.396 2352 48.4974
131.513 2385 48.8365
131.631 2470 49.6991
131.748 2411 49.1019
131.865 2509 50.0899
131.983 2448 49.4773
132.1 2495 49.95
132.217 2659 51.5655
132.335 2814 53.0471
132.452 2924 54.074
132.57 3068 55.3895
132.687 3033 55.0727
132.804 3355 57.9224
132.922 3216 56.7098
133.039 3307 57.5065
133.157 3439 58.643
133.274 3500 59.1608
133.392 3463 58.8473
133.509 3649 60.407
133.627 3514 59.279
133.744 3473 58.9322
133.862 3444 58.6856
133.979 3286 57.3236
134.097 3269 57.1752
134.214 3030 55.0454
134.332 2934 54.1664
134.449 2833 53.2259
134.567 3297 57.4195
134.684 3806 61.6928
134.802 3768 61.384
134.919 3858 62.1128
135.037 3838 61.9516
135.154 3884 62.3217
135.272 3714 60.9426
135.389 3737 61.131
135.507 3662 60.5145
135.624 3698 60.8112
135.742 3675 60.6218
135.859 3747 61.2127
135.977 3853 62.0725
136.094 4103 64.0547
136.211 4141 64.3506
136.329 4098 64.0156
136.446 4247 65.169
136.564 4184 64.6838
136.681 4220 64.9615
136.798 4330 65.8027
136.915 4383 66.2042
137.033 4454 66.7383
137.15 4307 65.6277
137.267 4581 67.6831
137.384 4602 67.838
137.502 4574 67.6314
137.619 4355 65.9924
137.736 4097 64.0078
137.853 3732 61.0901
137.97 3600 60
138.087 3848 62.0322
138.204 4664 68.2935
138.321 5175 71.9375
138.438 5284 72.6911
138.555 5513 74.2496
138.672 5487 74.0743
138.788 5615 74.9333
138.905 5618 74.9533
139.022 5357 73.1915
139.139 4902 70.0143
139.255 4262 65.284
139.372 3596 59.9667
139.488 3390 58.2237
139.605 3344 57.8273
139.721 3891 62.3779
139.838 4232 65.0538
139.954 4227 65.0154
140.071 3724 61.0246
140.187 3338 57.7754
140.303 3033 55.0727
140.419 2868 53.5537
140.535 2755 52.4881
140.652 2448 49.4773
140.768 0 1
140.884 0 1
141 0 1
141.115 0 1
141.231 0 1
141.347 0 1
141.463 0 1
141.578 0 1
141.694 0 1
144.104 0 1
144.219 0 1
144.335 0 1
144.45 0 1
144.566 0 1
144.682 0 1
144.798 0 1
144.914 0 1
145.03 0 1
145.146 4124 64.2184
145.262 4338 65.8635
145.378 4329 65.7951
145.494 4591 67.7569
145.61 4517 67.2086
145.726 4733 68.7968
145.842 4682 68.4251
145.959 4840 69.5701
146.075 4827 69.4766
146.192 4799 69.2748
146.308 4794 69.2387
146.425 4411 66.4154
146.541 3896 62.4179
146.658 3481 59
146.774 3374 58.0861
146.891 4100 64.0312
147.008 4759 68.9855
147.125 5253 72.4776
147.241 5398 73.4711
147.358 5403 73.5051
147.475 5520 74.2967
147.592 5529 74.3572
147.709 5433 73.7089
147.826 5344 73.1027
147.943 5178 71.9583
148.06 5027 70.9013
148.177 5108 71.4703
148.294 5203 72.1318
148.411 5341 73.0821
148.528 5507 74.2092
148.645 5495 74.1283
148.762 5632 75.0467
148.88 5576 74.6726
148.997 5706 75.5381
149.114 5682 75.379
149.231 5586 74.7395
149.349 5738 75.7496
149.466 5721 75.6373
149.583 5759 75.8881
149.701 5794 76.1183
149.818 5720 75.6307
149.935 5648 75.1532
150.053 5307 72.8492
150.17 4644 68.1469
150.287 3865 62.1691
150.405 3810 61.7252
150.522 4370 66.106
150.64 4915 70.1071
150.757 5287 72.7118
150.875 5531 74.3707
150.992 5543 74.4513
151.11 5575 74.6659
151.227 5438 73.7428
151.344 5325 72.9726
151.462 5231 72.3257
151.579 5137 71.6729
151.697 5179 71.9653
151.814 5177 71.9514
151.932 5300 72.8011
152.049 5412 73.5663
152.167 5485 74.0608
152.284 5507 74.2092
152.402 5456 73.8647
152.519 5442 73.7699
152.636 5647 75.1465
152.754 5661 75.2396
152.871 5743 75.7826
152.989 5666 75.2728
153.106 5768 75.9474
153.223 5899 76.8049
153.341 5829 76.3479
153.458 5654 75.1931
153.575 5429 73.6817
153.693 5120 71.5542
153.81 4762 69.0072
153.927 4320 65.7267
154.044 4473 66.8805
154.162 4741 68.8549
154.279 5047 71.0422
154.396 5505 74.1957
154.513 5773 75.9803
154.63 6088 78.0256
154.747 6089 78.032
154.864 6176 78.5875
154.981 6195 78.7083
155.098 6211 78.8099
155.215 6417 80.1062
155.332 6829 82.6378
155.449 7556 86.9253
155.566 8124 90.1332
155.683 8613 92.8062
155.8 8870 94.1807
155.917 9144 95.6243
156.033 9381 96.8556
156.15 0 1
156.267 0 1
156.383 0 1
156.5 0 1
156.617 0 1
156.733 0 1
156.85 0 1
156.966 0 1
157.082 0 1
157.199 0 1
157.315 0 1
157.431 0 1
157.547 0 1
157.664 0 1
157.78 0 1
157.896 0 1
158.012 0 1
158.128 0 1
158.244 0 1
158.359 0 1
158.475 0 1
158.591 0 1
158.706 0 1
