
6.15755 0 1
6.2731 0 1
6.3887 0 1
6.50437 0 1
6.62009 0 1
6.73587 0 1
6.8517 0 1
6.96759 0 1
7.08353 0 1
7.19952 0 1
7.31557 0 1
7.43166 0 1
7.54781 0 1
7.664 0 1
7.78024 0 1
7.89653 0 1
8.01286 0 1
8.12924 0 1
8.24567 0 1
8.36213 0 1
8.47864 0 1
8.59519 0 1
8.71178 0 1
8.82841 0 1
8.94508 0 1
9.06179 0 1
9.17853 0 1
9.29531 0 1
9.41212 0 1
9.52897 0 1
9.64584 0 1
9.76276 0 1
9.8797 0 1
9.99667 0 1
10.1137 0 1
10.2307 0 1
10.3478 0 1
10.4648 0 1
10.5819 0 1
10.6991 0 1
10.8162 0 1
10.9334 0 1
11.0506 0 1
11.1678 0 1
11.285 0 1
11.4023 0 1
11.5196 0 1
11.6369 0 1
11.7542 0 1
11.8715 0 1
11.9888 0 1
12.1062 0 1
12.2235 0 1
12.3409 0 1
12.4582 0 1
12.5756 0 1
12.693 0 1
12.8104 0 1
12.9278 0 1
13.0452 0 1
13.1626 0 1
13.28 0 1
13.3974 0 1
13.5149 0 1
13.6323 0 1
13.7497 0 1
13.8671 0 1
13.9845 0 1
14.1019 0 1
14.2193 0 1
14.3367 0 1
14.4541 0 1
14.5714 0 1
14.6888 0 1
14.8062 0 1
14.9235 0 1
15.0408 0 0
15.1581 0 0
15.2755 0 0
15.3927 0 0
15.51 0 0
15.6273 0 0
15.7445 0 0
15.8617 0 0
15.9789 0 0
16.0961 0 0
16.2132 0 0
16.3304 0 0
16.4475 0 0
16.5646 0 0
16.6816 0 0
16.7986 0 0
16.9156 0 0
17.0326 0 0
17.1496 0 0
17.2665 0 0
17.3833 0 0
17.5002 0 0
17.617 0 0
17.7338 0 0
17.8505 0 0
17.9672 0 0
18.0839 0 0
18.2005 0 0
18.3171 0 0
18.4337 0 0
18.5502 0 0
18.6666 0 0
18.7831 0 0
18.8994 0 0
19.0158 0 0
19.1321 0 0
19.2483 0 0
19.3645 0 0
19.4806 0 0
19.5967 0 0
19.7128 0 0
19.8288 0 0
19.9447 0 0
20.0606 0 1
20.1764 0 1
20.2922 0 1
20.4079 0 1
20.5236 0 1
20.6392 0 1
20.7548 0 1
20.8702 0 1
23.3078 0 1
23.4233 0 1
23.539 0 1
23.6547 0 1
23.7704 0 1
23.8862 0 1
24.0021 0 1
24.118 0 1
24.234 0 1
24.35 0 1
24.4661 1339 36.5923
24.5822 1340 36.606
24.6984 1321 36.3456
24.8146 1379 37.1349
24.9309 1327 36.428
25.0472 1332 36.4966
25.1636 1318 36.3043
25.28 1404 37.47
25.3965 1476 38.4187
25.513 1466 38.2884
25.6296 1479 38.4578
25.7462 1518 38.9615
25.8628 1390 37.2827
25.9795 1464 38.2623
26.0962 1431 37.8286
26.213 1455 38.1445
26.3298 1433 37.855
26.4466 1395 37.3497
26.5635 1493 38.6394
26.6804 1400 37.4166
26.7973 1353 36.7831
26.9143 1250 35.3553
27.0313 1289 35.9026
27.1483 1232 35.0999
27.2653 1271 35.6511
27.3824 1320 36.3318
27.4996 1246 35.2987
27.6167 1290 35.9166
27.7339 1345 36.6742
27.8511 1320 36.3318
27.9683 1260 35.4965
28.0855 1195 34.5688
28.2028 1243 35.2562
28.3201 1193 34.5398
28.4374 1280 35.7771
28.5547 1244 35.2704
28.6721 1337 36.565
28.7894 1293 35.9583
28.9068 1327 36.428
29.0242 1348 36.7151
29.1416 1324 36.3868
29.259 1371 37.027
29.3764 1340 36.606
29.4939 1385 37.2156
29.6113 1317 36.2905
29.7288 1370 37.0135
29.8463 1356 36.8239
29.9638 1310 36.1939
30.0812 1323 36.3731
30.1987 1346 36.6879
30.3162 1337 36.565
30.4337 1226 35.0143
30.5512 1160 34.0588
30.6687 1106 33.2566
30.7862 1210 34.7851
30.9037 1194 34.5543
31.0212 1290 35.9166
31.1387 1263 35.5387
31.2562 1173 34.2491
31.3737 1239 35.1994
31.4912 1159 34.0441
31.6087 1161 34.0735
31.7262 1200 34.641
31.8436 1211 34.7994
31.9611 1171 34.2199
32.0785 1239 35.1994
32.1959 1257 35.4542
32.3134 1313 36.2353
32.4308 1298 36.0278
32.5482 1315 36.2629
32.6655 1327 36.428
32.7829 1279 35.7631
32.9002 1400 37.4166
33.0176 1327 36.428
33.1349 1374 37.0675
33.2522 1359 36.8646
33.3694 1284 35.8329
33.4867 1284 35.8329
33.6039 1353 36.7831
33.7211 1304 36.1109
33.8383 1296 36
33.9554 1262 35.5246
34.0725 1246 35.2987
34.1896 1136 33.7046
34.3067 1087 32.9697
34.4237 1090 33.0151
34.5407 1155 33.9853
34.6577 1215 34.8569
34.7746 1197 34.5977
34.8915 1251 35.3695
35.0084 1201 34.6554
35.1252 1126 33.5559
35.242 1070 32.7109
35.3587 1229 35.0571
35.4755 1191 34.5109
35.5921 1231 35.0856
35.7088 1256 35.4401
35.8254 1247 35.3129
35.9419 1242 35.242
36.0584 1283 35.819
36.1749 1316 36.2767
36.2913 1257 35.4542
36.4077 1278 35.7491
36.524 1195 34.5688
36.6403 1226 35.0143
36.7565 1262 35.5246
36.8727 1227 35.0286
36.9889 1324 36.3868
37.1049 1205 34.7131
37.221 0 1
37.3369 0 1
37.4529 0 1
37.5687 0 1
37.6845 0 1
37.8003 0 1
37.916 0 1
38.0316 0 1
38.1472 0 1
40.5851 0 1
40.7008 0 1
40.8164 0 1
40.9322 0 1
41.048 0 1
41.1639 0 1
41.2798 0 1
41.3958 0 1
41.5118 0 1
41.6279 0 1
41.744 1041 32.2645
41.8602 1037 32.2025
41.9765 1003 31.6702
42.0928 1042 32.28
42.2091 1026 32.0312
42.3255 1096 33.1059
42.4419 1089 33
42.5584 1038 32.218
42.675 1080 32.8634
42.7915 1042 32.28
42.9081 986 31.4006
43.0248 979 31.289
43.1415 929 30.4795
43.2582 907 30.1164
43.375 921 30.348
43.4918 955 30.9031
43.6087 984 31.3688
43.7256 944 30.7246
43.8425 924 30.3974
43.9595 922 30.3645
44.0765 903 30.05
44.1935 959 30.9677
44.3106 958 30.9516
44.4277 952 30.8545
44.5448 943 30.7083
44.6619 929 30.4795
44.7791 945 30.7409
44.8963 966 31.0805
45.0136 958 30.9516
45.1308 903 30.05
45.2481 916 30.2655
45.3654 935 30.5778
45.4827 964 31.0483
45.6001 911 30.1828
45.7174 869 29.4788
45.8348 915 30.249
45.9522 901 30.0167
46.0697 848 29.1204
46.1871 904 30.0666
46.3046 917 30.282
46.422 826 28.7402
46.5395 817 28.5832
46.657 744 27.2764
46.7745 692 26.3059
46.892 714 26.7208
47.0096 699 26.4386
47.1271 780 27.9285
47.2446 676 26
47.3622 686 26.1916
47.4797 708 26.6083
47.5973 650 25.4951
47.7149 691 26.2869
47.8324 676 26
47.95 724 26.9072
48.0675 705 26.5518
48.1851 718 26.7955
48.3027 737 27.1477
48.4202 733 27.074
48.5378 683 26.1343
48.6554 720 26.8328
48.7729 726 26.9444
48.8904 731 27.037
49.008 726 26.9444
49.1255 693 26.3249
49.243 706 26.5707
49.3605 717 26.7769
49.478 696 26.3818
49.5955 738 27.1662
49.713 754 27.4591
49.8304 743 27.258
49.9479 771 27.7669
50.0653 756 27.4955
50.1827 713 26.7021
50.3001 627 25.04
50.4175 590 24.2899
50.5348 631 25.1197
50.6521 672 25.923
50.7694 699 26.4386
50.8867 703 26.5141
51.004 752 27.4226
51.1212 769 27.7308
51.2384 795 28.1957
51.3556 814 28.5307
51.4727 862 29.3598
51.5899 876 29.5973
51.707 961 31
51.824 907 30.1164
51.9411 947 30.7734
52.0581 832 28.8444
52.175 909 30.1496
52.2919 929 30.4795
52.4088 954 30.8869
52.5257 985 31.3847
52.6425 925 30.4138
52.7593 951 30.8383
52.876 932 30.5287
52.9927 932 30.5287
53.1094 924 30.3974
53.226 922 30.3645
53.3426 978 31.273
53.4591 1037 32.2025
53.5756 1053 32.45
53.692 1053 32.45
53.8084 960 30.9839
53.9248 897 29.95
54.0411 820 28.6356
54.1573 800 28.2843
54.2735 0 1
54.3896 0 1
54.5057 0 1
54.6217 0 1
54.7377 0 1
54.8537 0 1
54.9695 0 1
55.0853 0 1
55.2011 0 1
55.3168 0 1
55.4324 0 1
57.824 0 1
57.9396 0 1
58.0553 0 1
58.1711 0 1
58.2869 0 1
58.4028 0 1
58.5187 0 1
58.6347 0 1
58.7508 0 1
58.8669 0 1
58.983 1038 32.218
59.0992 1032 32.1248
59.2155 943 30.7083
59.3318 905 30.0832
59.4482 989 31.4484
59.5646 983 31.3528
59.681 985 31.3847
59.7975 979 31.289
59.9141 1007 31.7333
60.0306 1072 32.7414
60.1473 1100 33.1662
60.2639 1052 32.4345
60.3807 1084 32.9242
60.4974 1045 32.3265
60.6142 994 31.5278
60.731 1072 32.7414
60.8479 1032 32.1248
60.9648 1000 31.6228
61.0818 1059 32.5423
61.1987 979 31.289
61.3158 1021 31.9531
61.4328 1031 32.1092
61.5499 972 31.1769
61.667 1037 32.2025
61.7841 1028 32.0624
61.9013 931 30.5123
62.0185 962 31.0161
62.1357 937 30.6105
62.253 993 31.5119
62.3702 936 30.5941
62.4875 954 30.8869
62.6049 910 30.1662
62.7222 851 29.1719
62.8396 867 29.4449
62.9569 851 29.1719
63.0743 900 30
63.1918 907 30.1164
63.3092 892 29.8664
63.4267 894 29.8998
63.5441 881 29.6816
63.6616 984 31.3688
63.7791 935 30.5778
63.8966 884 29.7321
64.0142 929 30.4795
64.1317 865 29.4109
64.2492 939 30.6431
64.3668 892 29.8664
64.4843 875 29.5804
64.6019 890 29.8329
64.7195 866 29.4279
64.837 887 29.7825
64.9546 822 28.6705
65.0722 922 30.3645
65.1898 842 29.0172
65.3074 851 29.1719
65.4249 877 29.6142
65.5425 853 29.2062
65.6601 875 29.5804
65.7777 826 28.7402
65.8952 809 28.4429
66.0128 835 28.8964
66.1304 787 28.0535
66.2479 735 27.1109
66.3655 716 26.7582
66.483 734 27.0924
66.6005 728 26.9815
66.718 753 27.4408
66.8355 769 27.7308
66.953 770 27.7489
67.0705 761 27.5862
67.1879 838 28.9482
67.3054 852 29.189
67.4228 779 27.9106
67.5402 788 28.0713
67.6576 838 28.9482
67.7749 802 28.3196
67.8923 769 27.7308
68.0096 822 28.6705
68.1269 837 28.931
68.2442 797 28.2312
68.3614 769 27.7308
68.4787 770 27.7489
68.5958 796 28.2135
68.713 768 27.7128
68.8302 791 28.1247
68.9473 802 28.3196
69.0643 738 27.1662
69.1814 782 27.9643
69.2984 730 27.0185
69.4154 781 27.9464
69.5323 772 27.7849
69.6492 733 27.074
69.7661 784 28
69.8829 754 27.4591
69.9997 659 25.671
70.1165 684 26.1534
70.2332 638 25.2587
70.3499 664 25.7682
70.4665 696 26.3818
70.5831 718 26.7955
70.6996 758 27.5318
70.8161 735 27.1109
70.9326 733 27.074
71.049 725 26.9258
71.1653 752 27.4226
71.2817 730 27.0185
71.3979 656 25.6125
71.5141 684 26.1534
71.6303 677 26.0192
71.7464 596 24.4131
71.8624 0 1
71.9784 0 1
72.0944 0 1
72.2102 0 1
72.3261 0 1
72.4418 0 1
72.5575 0 1
72.6732 0 1
75.1054 0 1
75.2209 0 1
75.3365 0 1
75.4521 0 1
75.5678 0 1
75.6835 0 1
75.7993 0 1
75.9151 0 1
76.031 0 1
76.147 483 21.9773
76.263 568 23.8328
76.3791 582 24.1247
76.4952 539 23.2164
76.6113 532 23.0651
76.7276 536 23.1517
76.8438 555 23.5584
76.9601 585 24.1868
77.0765 559 23.6432
77.1929 555 23.5584
77.3093 554 23.5372
77.4258 570 23.8747
77.5423 533 23.0868
77.6589 467 21.6102
77.7755 483 21.9773
77.8921 515 22.6936
78.0088 537 23.1733
78.1256 443 21.0476
78.2423 475 21.7945
78.3591 451 21.2368
78.4759 508 22.5389
78.5928 478 21.8632
78.7097 466 21.587
78.8266 481 21.9317
78.9436 408 20.199
79.0606 390 19.7484
79.1776 310 17.6068
79.2946 333 18.2483
79.4117 382 19.5448
79.5288 387 19.6723
79.6459 399 19.975
79.7631 375 19.3649
79.8802 380 19.4936
79.9974 354 18.8149
80.1147 357 18.8944
80.2319 365 19.105
80.3491 368 19.1833
80.4664 370 19.2354
80.5837 333 18.2483
80.701 340 18.4391
80.8183 320 17.8885
80.9357 347 18.6279
81.053 313 17.6918
81.1704 317 17.8045
81.2877 299 17.2916
81.4051 301 17.3494
81.5225 319 17.8606
81.6399 278 16.6733
81.7573 254 15.9374
81.8747 252 15.8745
81.9922 286 16.9115
82.1096 235 15.3297
82.227 250 15.8114
82.3444 233 15.2643
82.4619 219 14.7986
82.5793 195 13.9642
82.6967 201 14.1774
82.8142 197 14.0357
82.9316 131 11.4455
83.049 174 13.1909
83.1664 172 13.1149
83.2838 160 12.6491
83.4012 164 12.8062
83.5186 158 12.5698
83.636 161 12.6886
83.7534 147 12.1244
83.8708 125 11.1803
83.9881 114 10.6771
84.1055 146 12.083
84.2228 124 11.1355
84.3401 98 9.89949
84.4575 117 10.8167
84.5747 127 11.2694
84.692 135 11.619
84.8093 98 9.89949
84.9265 93 9.64365
85.0437 102 10.0995
85.1609 103 10.1489
85.2781 88 9.38083
85.3952 79 8.88819
85.5123 95 9.74679
85.6294 92 9.59166
85.7465 89 9.43398
85.8636 76 8.7178
85.9806 90 9.48683
86.0976 95 9.74679
86.2145 76 8.7178
86.3315 77 8.77496
86.4484 91 9.53939
86.5652 131 11.4455
86.682 114 10.6771
86.7988 114 10.6771
86.9156 139 11.7898
87.0323 140 11.8322
87.149 138 11.7473
87.2657 158 12.5698
87.3823 162 12.7279
87.4988 157 12.53
87.6154 176 13.2665
87.7318 180 13.4164
87.8483 170 13.0384
87.9647 181 13.4536
88.081 207 14.3875
88.1973 243 15.5885
88.3136 223 14.9332
88.4298 222 14.8997
88.546 236 15.3623
88.6621 228 15.0997
88.7781 250 15.8114
88.8942 0 1
89.0101 0 1
89.126 0 1
89.2419 0 1
89.3577 0 1
89.4734 0 1
89.5891 0 1
89.7047 0 1
89.8203 0 1
89.9358 0 1
92.3269 0 1
92.4424 0 1
92.558 0 1
92.6736 0 1
92.7893 0 1
92.905 0 1
93.0208 0 1
93.1366 0 1
93.2525 0 1
93.3685 0 1
93.4845 0 1
93.6005 399 19.975
93.7167 421 20.5183
93.8328 403 20.0749
93.949 377 19.4165
94.0653 356 18.868
94.1816 361 19
94.2979 363 19.0526
94.4143 327 18.0831
94.5307 344 18.5472
94.6472 308 17.5499
94.7637 333 18.2483
94.8803 331 18.1934
94.9969 281 16.7631
95.1135 323 17.9722
95.2302 287 16.9411
95.3469 305 17.4642
95.4637 211 14.5258
95.5805 215 14.6629
95.6973 272 16.4924
95.8142 328 18.1108
95.9311 348 18.6548
96.048 325 18.0278
96.1649 374 19.3391
96.2819 347 18.6279
96.3989 410 20.2485
96.516 353 18.7883
96.633 413 20.3224
96.7501 408 20.199
96.8673 426 20.6398
96.9844 398 19.9499
97.1016 439 20.9523
97.2188 443 21.0476
97.336 494 22.2261
97.4532 499 22.3383
97.5704 479 21.8861
97.6877 534 23.1084
97.805 533 23.0868
97.9223 535 23.1301
98.0396 485 22.0227
98.1569 514 22.6716
98.2743 569 23.8537
98.3916 539 23.2164
98.509 570 23.8747
98.6264 582 24.1247
98.7438 622 24.9399
98.8612 631 25.1197
98.9786 523 22.8692
99.096 401 20.025
99.2134 402 20.0499
99.3308 582 24.1247
99.4482 683 26.1343
99.5656 710 26.6458
99.6831 672 25.923
99.8005 674 25.9615
99.9179 745 27.2947
100.035 725 26.9258
100.153 721 26.8514
100.27 716 26.7582
100.388 684 26.1534
100.505 739 27.1846
100.622 756 27.4955
100.74 728 26.9815
100.857 752 27.4226
100.975 786 28.0357
101.092 760 27.5681
101.209 825 28.7228
101.327 767 27.6948
101.444 826 28.7402
101.561 753 27.4408
101.679 819 28.6182
101.796 813 28.5132
101.913 817 28.5832
102.03 874 29.5635
102.148 830 28.8097
102.265 881 29.6816
102.382 771 27.7669
102.499 793 28.1603
102.616 599 24.4745
102.733 523 22.8692
102.851 706 26.5707
102.968 817 28.5832
103.085 827 28.7576
103.202 898 29.9666
103.319 823 28.688
103.436 824 28.7054
103.552 801 28.3019
103.669 852 29.189
103.786 844 29.0517
103.903 855 29.2404
104.02 830 28.8097
104.137 871 29.5127
104.253 863 29.3769
104.37 843 29.0345
104.487 828 28.775
104.603 895 29.9166
104.72 831 28.8271
104.836 905 30.0832
104.953 862 29.3598
105.069 936 30.5941
105.186 898 29.9666
105.302 835 28.8964
105.418 868 29.4618
105.535 865 29.4109
105.651 878 29.6311
105.767 825 28.7228
105.883 810 28.4605
105.999 727 26.9629
106.115 0 1
106.231 0 1
106.347 0 1
106.463 0 1
106.579 0 1
106.694 0 1
106.81 0 1
106.926 0 1
107.041 0 1
107.157 0 1
109.576 0 1
109.692 0 1
109.807 0 1
109.923 0 1
110.039 0 1
110.155 0 1
110.27 0 1
110.386 0 1
110.502 0 1
110.618 689 26.2488
110.735 718 26.7955
110.851 674 25.9615
110.967 632 25.1396
111.083 634 25.1794
111.199 529 23
111.316 523 22.8692
111.432 560 23.6643
111.549 614 24.779
111.665 691 26.2869
111.782 620 24.8998
111.898 667 25.8263
112.015 652 25.5343
112.132 642 25.3377
112.248 584 24.1661
112.365 564 23.7487
112.482 628 25.0599
112.599 618 24.8596
112.716 509 22.561
112.832 574 23.9583
112.949 563 23.7276
113.066 572 23.9165
113.183 549 23.4307
113.3 536 23.1517
113.417 599 24.4745
113.534 527 22.9565
113.652 492 22.1811
113.769 523 22.8692
113.886 551 23.4734
114.003 543 23.3024
114.12 489 22.1133
114.238 537 23.1733
114.355 457 21.3776
114.472 471 21.7025
114.589 446 21.1187
114.707 421 20.5183
114.824 388 19.6977
114.942 406 20.1494
115.059 429 20.7123
115.176 463 21.5174
115.294 457 21.3776
115.411 500 22.3607
115.529 503 22.4277
115.646 498 22.3159
115.764 446 21.1187
115.881 498 22.3159
115.999 470 21.6795
116.116 443 21.0476
116.234 496 22.2711
116.351 487 22.0681
116.469 475 21.7945
116.586 483 21.9773
116.704 457 21.3776
116.821 450 21.2132
116.939 443 21.0476
117.056 462 21.4942
117.174 461 21.4709
117.291 464 21.5407
117.409 476 21.8174
117.526 447 21.1424
117.644 458 21.4009
117.761 493 22.2036
117.879 416 20.3961
117.996 357 18.8944
118.114 384 19.5959
118.231 388 19.6977
118.349 429 20.7123
118.466 431 20.7605
118.584 465 21.5639
118.701 478 21.8632
118.819 477 21.8403
118.936 493 22.2036
119.053 471 21.7025
119.171 479 21.8861
119.288 497 22.2935
119.405 470 21.6795
119.523 473 21.7486
119.64 474 21.7715
119.757 482 21.9545
119.875 468 21.6333
119.992 493 22.2036
120.109 473 21.7486
120.226 494 22.2261
120.343 478 21.8632
120.46 482 21.9545
120.578 474 21.7715
120.695 474 21.7715
120.812 511 22.6053
120.929 536 23.1517
121.046 469 21.6564
121.163 503 22.4277
121.279 478 21.8632
121.396 508 22.5389
121.513 480 21.9089
121.63 399 19.975
121.747 345 18.5742
121.863 365 19.105
121.98 401 20.025
122.097 493 22.2036
122.213 458 21.4009
122.33 511 22.6053
122.446 465 21.5639
122.563 535 23.1301
122.679 521 22.8254
122.795 575 23.9792
122.912 554 23.5372
123.028 592 24.3311
123.144 560 23.6643
123.26 543 23.3024
123.377 0 1
123.493 0 1
123.609 0 1
123.725 0 1
123.84 0 1
123.956 0 1
124.072 0 1
124.188 0 1
124.303 0 1
124.419 0 1
126.852 0 1
126.968 0 1
127.083 0 1
127.199 0 1
127.315 0 1
127.431 0 1
127.547 0 1
127.663 0 1
127.779 0 1
127.895 0 1
128.011 0 1
128.127 0 1
128.243 0 1
128.359 662 25.7294
128.476 670 25.8844
128.592 720 26.8328
128.708 696 26.3818
128.825 697 26.4008
128.941 698 26.4197
129.058 705 26.5518
129.174 678 26.0384
129.291 751 27.4044
129.408 689 26.2488
129.524 735 27.1109
129.641 681 26.096
129.758 695 26.3629
129.875 735 27.1109
129.992 754 27.4591
130.108 664 25.7682
130.225 644 25.3772
130.342 589 24.2693
130.459 571 23.8956
130.576 543 23.3024
130.693 484 22
130.81 460 21.4476
130.928 505 22.4722
131.045 631 25.1197
131.162 677 26.0192
131.279 723 26.8887
131.396 711 26.6646
131.513 732 27.0555
131.631 722 26.8701
131.748 773 27.8029
131.865 745 27.2947
131.983 719 26.8142
132.1 718 26.7955
132.217 717 26.7769
132.335 732 27.0555
132.452 722 26.8701
132.57 692 26.3059
132.687 702 26.4953
132.804 788 28.0713
132.922 776 27.8568
133.039 684 26.1534
133.157 833 28.8617
133.274 762 27.6043
133.392 747 27.3313
133.509 739 27.1846
133.627 763 27.6225
133.744 779 27.9106
133.862 745 27.2947
133.979 656 25.6125
134.097 645 25.3969
134.214 598 24.454
134.332 567 23.8118
134.449 516 22.7156
134.567 593 24.3516
134.684 702 26.4953
134.802 746 27.313
134.919 788 28.0713
135.037 804 28.3549
135.154 833 28.8617
135.272 844 29.0517
135.389 835 28.8964
135.507 815 28.5482
135.624 773 27.8029
135.742 884 29.7321
135.859 802 28.3196
135.977 865 29.4109
136.094 770 27.7489
136.211 784 28
136.329 876 29.5973
136.446 811 28.4781
136.564 899 29.9833
136.681 873 29.5466
136.798 873 29.5466
136.915 799 28.2666
137.033 814 28.5307
137.15 830 28.8097
137.267 827 28.7576
137.384 848 29.1204
137.502 798 28.2489
137.619 726 26.9444
137.736 627 25.04
137.853 622 24.9399
137.97 565 23.7697
138.087 676 26
138.204 636 25.219
138.321 711 26.6646
138.438 817 28.5832
138.555 847 29.1033
138.672 925 30.4138
138.788 936 30.5941
138.905 937 30.6105
139.022 942 30.692
139.139 938 30.6268
139.255 952 30.8545
139.372 921 30.348
139.488 879 29.6479
139.605 943 30.7083
139.721 904 30.0666
139.838 946 30.7571
139.954 927 30.4467
140.071 947 30.7734
140.187 909 30.1496
140.303 936 30.5941
140.419 850 29.1548
140.535 894 29.8998
140.652 945 30.7409
140.768 0 1
140.884 0 1
141 0 1
141.115 0 1
141.231 0 1
141.347 0 1
141.463 0 1
141.578 0 1
141.694 0 1
144.104 0 1
144.219 0 1
144.335 0 1
144.45 0 1
144.566 0 1
144.682 0 1
144.798 0 1
144.914 0 1
145.03 0 1
145.146 895 29.9166
145.262 849 29.1376
145.378 910 30.1662
145.494 911 30.1828
145.61 880 29.6648
145.726 869 29.4788
145.842 827 28.7576
145.959 806 28.3901
146.075 803 28.3373
146.192 743 27.258
146.308 745 27.2947
146.425 716 26.7582
146.541 696 26.3818
146.658 709 26.6271
146.774 730 27.0185
146.891 742 27.2397
147.008 748 27.3496
147.125 780 27.9285
147.241 859 29.3087
147.358 839 28.9655
147.475 848 29.1204
147.592 866 29.4279
147.709 874 29.5635
147.826 850 29.1548
147.943 881 29.6816
148.06 891 29.8496
148.177 885 29.7489
148.294 874 29.5635
148.411 899 29.9833
148.528 900 30
148.645 872 29.5296
148.762 837 28.931
148.88 869 29.4788
148.997 804 28.3549
149.114 924 30.3974
149.231 854 29.2233
149.349 841 29
149.466 835 28.8964
149.583 795 28.1957
149.701 777 27.8747
149.818 798 28.2489
149.935 712 26.6833
150.053 684 26.1534
150.17 726 26.9444
150.287 686 26.1916
150.405 752 27.4226
150.522 763 27.6225
150.64 788 28.0713
150.757 748 27.3496
150.875 845 29.0689
150.992 808 28.4253
151.11 872 29.5296
151.227 861 29.3428
151.344 878 29.6311
151.462 867 29.4449
151.579 885 29.7489
151.697 941 30.6757
151.814 875 29.5804
151.932 883 29.7153
152.049 885 29.7489
152.167 864 29.3939
152.284 881 29.6816
152.402 885 29.7489
152.519 904 30.0666
152.636 883 29.7153
152.754 853 29.2062
152.871 839 28.9655
152.989 888 29.7993
153.106 844 29.0517
153.223 825 28.7228
153.341 795 28.1957
153.458 766 27.6767
153.575 719 26.8142
153.693 721 26.8514
153.81 734 27.0924
153.927 778 27.8927
154.044 830 28.8097
154.162 779 27.9106
154.279 842 29.0172
154.396 877 29.6142
154.513 916 30.2655
154.63 870 29.4958
154.747 894 29.8998
154.864 945 30.7409
154.981 931 30.5123
155.098 918 30.2985
155.215 851 29.1719
155.332 943 30.7083
155.449 944 30.7246
155.566 960 30.9839
155.683 959 30.9677
155.8 960 30.9839
155.917 906 30.0998
156.033 950 30.8221
156.15 0 1
156.267 0 1
156.383 0 1
156.5 0 1
156.617 0 1
156.733 0 1
156.85 0 1
156.966 0 1
157.082 0 1
157.199 0 1
157.315 0 1
157.431 0 1
157.547 0 1
157.664 0 1
157.78 0 1
157.896 0 1
158.012 0 1
158.128 0 1
158.244 0 1
158.359 0 1
158.475 0 1
158.591 0 1
158.706 0 1
