
6.15755 0 1
6.2731 0 1
6.3887 0 1
6.50437 0 1
6.62009 0 1
6.73587 0 1
6.8517 0 1
6.96759 0 1
7.08353 0 1
7.19952 0 1
7.31557 0 1
7.43166 0 1
7.54781 0 1
7.664 0 1
7.78024 0 1
7.89653 0 1
8.01286 0 1
8.12924 0 1
8.24567 0 1
8.36213 0 1
8.47864 0 1
8.59519 0 1
8.71178 0 1
8.82841 0 1
8.94508 0 1
9.06179 0 1
9.17853 0 1
9.29531 0 1
9.41212 0 1
9.52897 0 1
9.64584 0 1
9.76276 0 1
9.8797 0 1
9.99667 0 1
10.1137 0 1
10.2307 0 1
10.3478 0 1
10.4648 0 1
10.5819 0 1
10.6991 0 1
10.8162 0 1
10.9334 0 1
11.0506 0 1
11.1678 0 1
11.285 0 1
11.4023 0 1
11.5196 0 1
11.6369 0 1
11.7542 0 1
11.8715 0 1
11.9888 0 1
12.1062 0 1
12.2235 0 1
12.3409 0 1
12.4582 0 1
12.5756 0 1
12.693 0 1
12.8104 0 1
12.9278 0 1
13.0452 0 1
13.1626 0 1
13.28 0 1
13.3974 0 1
13.5149 0 1
13.6323 0 1
13.7497 0 1
13.8671 0 1
13.9845 0 1
14.1019 0 1
14.2193 0 1
14.3367 0 1
14.4541 0 1
14.5714 0 1
14.6888 0 1
14.8062 0 1
14.9235 0 1
15.0408 0 0
15.1581 0 0
15.2755 0 0
15.3927 0 0
15.51 0 0
15.6273 0 0
15.7445 0 0
15.8617 0 0
15.9789 0 0
16.0961 0 0
16.2132 0 0
16.3304 0 0
16.4475 0 0
16.5646 0 0
16.6816 0 0
16.7986 0 0
16.9156 0 0
17.0326 0 0
17.1496 0 0
17.2665 0 0
17.3833 0 0
17.5002 0 0
17.617 0 0
17.7338 0 0
17.8505 0 0
17.9672 0 0
18.0839 0 0
18.2005 0 0
18.3171 0 0
18.4337 0 0
18.5502 0 0
18.6666 0 0
18.7831 0 0
18.8994 0 0
19.0158 0 0
19.1321 0 0
19.2483 0 0
19.3645 0 0
19.4806 0 0
19.5967 0 0
19.7128 0 0
19.8288 0 0
19.9447 0 0
20.0606 0 1
20.1764 0 1
20.2922 0 1
20.4079 0 1
20.5236 0 1
20.6392 0 1
20.7548 0 1
20.8702 0 1
23.3078 0 1
23.4233 0 1
23.539 0 1
23.6547 0 1
23.7704 0 1
23.8862 0 1
24.0021 0 1
24.118 0 1
24.234 0 1
24.35 0 1
24.4661 1632 40.398
24.5822 1571 39.6358
24.6984 1552 39.3954
24.8146 1577 39.7115
24.9309 1647 40.5832
25.0472 1748 41.8091
25.1636 1651 40.6325
25.28 1705 41.2916
25.3965 1807 42.5088
25.513 1804 42.4735
25.6296 1847 42.9767
25.7462 1792 42.332
25.8628 1770 42.0714
25.9795 1789 42.2966
26.0962 1798 42.4028
26.213 1722 41.497
26.3298 1812 42.5676
26.4466 1784 42.2374
26.5635 1751 41.845
26.6804 1712 41.3763
26.7973 1612 40.1497
26.9143 1570 39.6232
27.0313 1471 38.3536
27.1483 1490 38.6005
27.2653 1533 39.1535
27.3824 1582 39.7744
27.4996 1613 40.1622
27.6167 1619 40.2368
27.7339 1487 38.5616
27.8511 1479 38.4578
27.9683 1539 39.2301
28.0855 1561 39.5095
28.2028 1528 39.0896
28.3201 1537 39.2046
28.4374 1618 40.2244
28.5547 1578 39.724
28.6721 1661 40.7554
28.7894 1647 40.5832
28.9068 1666 40.8167
29.0242 1650 40.6202
29.1416 1647 40.5832
29.259 1664 40.7922
29.3764 1684 41.0366
29.4939 1679 40.9756
29.6113 1704 41.2795
29.7288 1709 41.3401
29.8463 1670 40.8656
29.9638 1631 40.3856
30.0812 1694 41.1582
30.1987 1594 39.9249
30.3162 1586 39.8246
30.4337 1428 37.7889
30.5512 1443 37.9868
30.6687 1444 38
30.7862 1489 38.5876
30.9037 1499 38.7169
31.0212 1513 38.8973
31.1387 1592 39.8999
31.2562 1518 38.9615
31.3737 1517 38.9487
31.4912 1430 37.8153
31.6087 1474 38.3927
31.7262 1497 38.6911
31.8436 1493 38.6394
31.9611 1534 39.1663
32.0785 1588 39.8497
32.1959 1565 39.5601
32.3134 1640 40.4969
32.4308 1614 40.1746
32.5482 1599 39.9875
32.6655 1646 40.5709
32.7829 1628 40.3485
32.9002 1602 40.025
33.0176 1579 39.7366
33.1349 1582 39.7744
33.2522 1587 39.8372
33.3694 1656 40.694
33.4867 1619 40.2368
33.6039 1605 40.0625
33.7211 1605 40.0625
33.8383 1661 40.7554
33.9554 1509 38.8458
34.0725 1553 39.4081
34.1896 1447 38.0395
34.3067 1397 37.3765
34.4237 1393 37.3229
34.5407 1369 37
34.6577 1417 37.6431
34.7746 1469 38.3275
34.8915 1441 37.9605
35.0084 1491 38.6135
35.1252 1399 37.4032
35.242 1448 38.0526
35.3587 1395 37.3497
35.4755 1419 37.6696
35.5921 1476 38.4187
35.7088 1505 38.7943
35.8254 1512 38.8844
35.9419 1520 38.9872
36.0584 1639 40.4846
36.1749 1549 39.3573
36.2913 1589 39.8623
36.4077 1568 39.598
36.524 1531 39.128
36.6403 1552 39.3954
36.7565 1564 39.5474
36.8727 1580 39.7492
36.9889 1609 40.1123
37.1049 1521 39
37.221 0 1
37.3369 0 1
37.4529 0 1
37.5687 0 1
37.6845 0 1
37.8003 0 1
37.916 0 1
38.0316 0 1
38.1472 0 1
40.5851 0 1
40.7008 0 1
40.8164 0 1
40.9322 0 1
41.048 0 1
41.1639 0 1
41.2798 0 1
41.3958 0 1
41.5118 0 1
41.6279 0 1
41.744 1301 36.0694
41.8602 1234 35.1283
41.9765 1248 35.327
42.0928 1250 35.3553
42.2091 1294 35.9722
42.3255 1281 35.7911
42.4419 1352 36.7696
42.5584 1307 36.1525
42.675 1347 36.7015
42.7915 1346 36.6879
42.9081 1266 35.5809
43.0248 1092 33.0454
43.1415 1121 33.4813
43.2582 1140 33.7639
43.375 1175 34.2783
43.4918 1246 35.2987
43.6087 1173 34.2491
43.7256 1184 34.4093
43.8425 1160 34.0588
43.9595 1183 34.3948
44.0765 1087 32.9697
44.1935 1102 33.1964
44.3106 1201 34.6554
44.4277 1187 34.4529
44.5448 1166 34.1467
44.6619 1172 34.2345
44.7791 1205 34.7131
44.8963 1156 34
45.0136 1110 33.3167
45.1308 1164 34.1174
45.2481 1172 34.2345
45.3654 1167 34.1614
45.4827 1166 34.1467
45.6001 1172 34.2345
45.7174 1149 33.8969
45.8348 1141 33.7787
45.9522 1059 32.5423
46.0697 1161 34.0735
46.1871 1107 33.2716
46.3046 1117 33.4215
46.422 1059 32.5423
46.5395 1007 31.7333
46.657 880 29.6648
46.7745 888 29.7993
46.892 937 30.6105
47.0096 896 29.9333
47.1271 888 29.7993
47.2446 907 30.1164
47.3622 936 30.5941
47.4797 852 29.189
47.5973 916 30.2655
47.7149 838 28.9482
47.8324 871 29.5127
47.95 850 29.1548
48.0675 899 29.9833
48.1851 903 30.05
48.3027 893 29.8831
48.4202 930 30.4959
48.5378 854 29.2233
48.6554 865 29.4109
48.7729 877 29.6142
48.8904 895 29.9166
49.008 901 30.0167
49.1255 912 30.1993
49.243 902 30.0333
49.3605 865 29.4109
49.478 883 29.7153
49.5955 913 30.2159
49.713 928 30.4631
49.8304 964 31.0483
49.9479 896 29.9333
50.0653 902 30.0333
50.1827 879 29.6479
50.3001 760 27.5681
50.4175 828 28.775
50.5348 838 28.9482
50.6521 928 30.4631
50.7694 881 29.6816
50.8867 975 31.225
51.004 962 31.0161
51.1212 983 31.3528
51.2384 949 30.8058
51.3556 1065 32.6343
51.4727 1068 32.6803
51.5899 1044 32.311
51.707 1071 32.7261
51.824 1136 33.7046
51.9411 1094 33.0757
52.0581 1164 34.1174
52.175 1189 34.4819
52.2919 1182 34.3802
52.4088 1197 34.5977
52.5257 1218 34.8999
52.6425 1208 34.7563
52.7593 1166 34.1467
52.876 1198 34.6121
52.9927 1263 35.5387
53.1094 1222 34.9571
53.226 1198 34.6121
53.3426 1211 34.7994
53.4591 1285 35.8469
53.5756 1263 35.5387
53.692 1227 35.0286
53.8084 1167 34.1614
53.9248 1075 32.7872
54.0411 971 31.1609
54.1573 1073 32.7567
54.2735 0 1
54.3896 0 1
54.5057 0 1
54.6217 0 1
54.7377 0 1
54.8537 0 1
54.9695 0 1
55.0853 0 1
55.2011 0 1
55.3168 0 1
55.4324 0 1
57.824 0 1
57.9396 0 1
58.0553 0 1
58.1711 0 1
58.2869 0 1
58.4028 0 1
58.5187 0 1
58.6347 0 1
58.7508 0 1
58.8669 0 1
58.983 1281 35.7911
59.0992 1285 35.8469
59.2155 1204 34.6987
59.3318 1153 33.9559
59.4482 1227 35.0286
59.5646 1291 35.9305
59.681 1217 34.8855
59.7975 1309 36.1801
59.9141 1257 35.4542
60.0306 1305 36.1248
60.1473 1337 36.565
60.2639 1297 36.0139
60.3807 1318 36.3043
60.4974 1386 37.229
60.6142 1331 36.4829
60.731 1310 36.1939
60.8479 1298 36.0278
60.9648 1361 36.8917
61.0818 1291 35.9305
61.1987 1237 35.171
61.3158 1192 34.5254
61.4328 1247 35.3129
61.5499 1403 37.4566
61.667 1237 35.171
61.7841 1240 35.2136
61.9013 1256 35.4401
62.0185 1172 34.2345
62.1357 1259 35.4824
62.253 1230 35.0714
62.3702 1187 34.4529
62.4875 1141 33.7787
62.6049 1099 33.1512
62.7222 1048 32.3728
62.8396 1023 31.9844
62.9569 1069 32.6956
63.0743 1040 32.249
63.1918 1111 33.3317
63.3092 1120 33.4664
63.4267 1133 33.6601
63.5441 1161 34.0735
63.6616 1201 34.6554
63.7791 1143 33.8083
63.8966 1120 33.4664
64.0142 1196 34.5832
64.1317 1183 34.3948
64.2492 1164 34.1174
64.3668 1137 33.7194
64.4843 1128 33.5857
64.6019 1099 33.1512
64.7195 1112 33.3467
64.837 1142 33.7935
64.9546 1181 34.3657
65.0722 1076 32.8024
65.1898 1096 33.1059
65.3074 1115 33.3916
65.4249 989 31.4484
65.5425 1059 32.5423
65.6601 1116 33.4066
65.7777 1071 32.7261
65.8952 1059 32.5423
66.0128 1056 32.4962
66.1304 1021 31.9531
66.2479 953 30.8707
66.3655 911 30.1828
66.483 893 29.8831
66.6005 908 30.133
66.718 897 29.95
66.8355 977 31.257
66.953 1034 32.1559
67.0705 1057 32.5115
67.1879 981 31.3209
67.3054 1011 31.7962
67.4228 1059 32.5423
67.5402 984 31.3688
67.6576 1003 31.6702
67.7749 978 31.273
67.8923 1013 31.8277
68.0096 955 30.9031
68.1269 962 31.0161
68.2442 970 31.1448
68.3614 971 31.1609
68.4787 1000 31.6228
68.5958 1030 32.0936
68.713 977 31.257
68.8302 978 31.273
68.9473 1015 31.8591
69.0643 1019 31.9218
69.1814 991 31.4802
69.2984 1009 31.7648
69.4154 989 31.4484
69.5323 969 31.1288
69.6492 975 31.225
69.7661 951 30.8383
69.8829 904 30.0666
69.9997 869 29.4788
70.1165 796 28.2135
70.2332 846 29.0861
70.3499 836 28.9137
70.4665 908 30.133
70.5831 927 30.4467
70.6996 951 30.8383
70.8161 943 30.7083
70.9326 927 30.4467
71.049 925 30.4138
71.1653 957 30.9354
71.2817 886 29.7658
71.3979 872 29.5296
71.5141 865 29.4109
71.6303 801 28.3019
71.7464 788 28.0713
71.8624 0 1
71.9784 0 1
72.0944 0 1
72.2102 0 1
72.3261 0 1
72.4418 0 1
72.5575 0 1
72.6732 0 1
75.1054 0 1
75.2209 0 1
75.3365 0 1
75.4521 0 1
75.5678 0 1
75.6835 0 1
75.7993 0 1
75.9151 0 1
76.031 0 1
76.147 699 26.4386
76.263 693 26.3249
76.3791 722 26.8701
76.4952 723 26.8887
76.6113 718 26.7955
76.7276 723 26.8887
76.8438 700 26.4575
76.9601 714 26.7208
77.0765 708 26.6083
77.1929 740 27.2029
77.3093 653 25.5539
77.4258 696 26.3818
77.5423 675 25.9808
77.6589 685 26.1725
77.7755 625 25
77.8921 665 25.7876
78.0088 641 25.318
78.1256 661 25.7099
78.2423 592 24.3311
78.3591 638 25.2587
78.4759 633 25.1595
78.5928 609 24.6779
78.7097 605 24.5967
78.8266 677 26.0192
78.9436 504 22.4499
79.0606 519 22.7816
79.1776 402 20.0499
79.2946 384 19.5959
79.4117 460 21.4476
79.5288 546 23.3666
79.6459 535 23.1301
79.7631 497 22.2935
79.8802 530 23.0217
79.9974 487 22.0681
80.1147 541 23.2594
80.2319 485 22.0227
80.3491 417 20.4206
80.4664 453 21.2838
80.5837 420 20.4939
80.701 436 20.8806
80.8183 438 20.9284
80.9357 413 20.3224
81.053 409 20.2237
81.1704 347 18.6279
81.2877 377 19.4165
81.4051 331 18.1934
81.5225 373 19.3132
81.6399 329 18.1384
81.7573 355 18.8414
81.8747 318 17.8326
81.9922 341 18.4662
82.1096 309 17.5784
82.227 293 17.1172
82.3444 326 18.0555
82.4619 290 17.0294
82.5793 257 16.0312
82.6967 269 16.4012
82.8142 237 15.3948
82.9316 206 14.3527
83.049 227 15.0665
83.1664 240 15.4919
83.2838 239 15.4596
83.4012 228 15.0997
83.5186 222 14.8997
83.636 210 14.4914
83.7534 205 14.3178
83.8708 187 13.6748
83.9881 171 13.0767
84.1055 169 13
84.2228 137 11.7047
84.3401 163 12.7671
84.4575 169 13
84.5747 136 11.6619
84.692 155 12.4499
84.8093 144 12
84.9265 136 11.6619
85.0437 139 11.7898
85.1609 136 11.6619
85.2781 143 11.9583
85.3952 132 11.4891
85.5123 134 11.5758
85.6294 134 11.5758
85.7465 121 11
85.8636 138 11.7473
85.9806 146 12.083
86.0976 125 11.1803
86.2145 117 10.8167
86.3315 106 10.2956
86.4484 148 12.1655
86.5652 158 12.5698
86.682 171 13.0767
86.7988 194 13.9284
86.9156 155 12.4499
87.0323 198 14.0712
87.149 190 13.784
87.2657 157 12.53
87.3823 205 14.3178
87.4988 210 14.4914
87.6154 196 14
87.7318 204 14.2829
87.8483 265 16.2788
87.9647 223 14.9332
88.081 246 15.6844
88.1973 292 17.088
88.3136 299 17.2916
88.4298 311 17.6352
88.546 294 17.1464
88.6621 326 18.0555
88.7781 339 18.412
88.8942 0 1
89.0101 0 1
89.126 0 1
89.2419 0 1
89.3577 0 1
89.4734 0 1
89.5891 0 1
89.7047 0 1
89.8203 0 1
89.9358 0 1
92.3269 0 1
92.4424 0 1
92.558 0 1
92.6736 0 1
92.7893 0 1
92.905 0 1
93.0208 0 1
93.1366 0 1
93.2525 0 1
93.3685 0 1
93.4845 0 1
93.6005 478 21.8632
93.7167 530 23.0217
93.8328 509 22.561
93.949 509 22.561
94.0653 460 21.4476
94.1816 454 21.3073
94.2979 477 21.8403
94.4143 451 21.2368
94.5307 418 20.445
94.6472 440 20.9762
94.7637 391 19.7737
94.8803 460 21.4476
94.9969 399 19.975
95.1135 413 20.3224
95.2302 357 18.8944
95.3469 345 18.5742
95.4637 308 17.5499
95.5805 291 17.0587
95.6973 367 19.1572
95.8142 396 19.8997
95.9311 454 21.3073
96.048 413 20.3224
96.1649 462 21.4942
96.2819 471 21.7025
96.3989 457 21.3776
96.516 528 22.9783
96.633 509 22.561
96.7501 512 22.6274
96.8673 557 23.6008
96.9844 535 23.1301
97.1016 543 23.3024
97.2188 538 23.1948
97.336 605 24.5967
97.4532 592 24.3311
97.5704 618 24.8596
97.6877 614 24.779
97.805 652 25.5343
97.9223 633 25.1595
98.0396 661 25.7099
98.1569 714 26.7208
98.2743 707 26.5895
98.3916 731 27.037
98.509 689 26.2488
98.6264 733 27.074
98.7438 738 27.1662
98.8612 685 26.1725
98.9786 689 26.2488
99.096 532 23.0651
99.2134 503 22.4277
99.3308 703 26.5141
99.4482 815 28.5482
99.5656 840 28.9828
99.6831 854 29.2233
99.8005 929 30.4795
99.9179 874 29.5635
100.035 888 29.7993
100.153 872 29.5296
100.27 909 30.1496
100.388 910 30.1662
100.505 870 29.4958
100.622 908 30.133
100.74 956 30.9192
100.857 929 30.4795
100.975 942 30.692
101.092 954 30.8869
101.209 980 31.305
101.327 949 30.8058
101.444 1006 31.7175
101.561 989 31.4484
101.679 961 31
101.796 1004 31.686
101.913 1072 32.7414
102.03 1024 32
102.148 998 31.5911
102.265 1048 32.3728
102.382 960 30.9839
102.499 926 30.4302
102.616 820 28.6356
102.733 693 26.3249
102.851 819 28.6182
102.968 1011 31.7962
103.085 1020 31.9374
103.202 1041 32.2645
103.319 1031 32.1092
103.436 1028 32.0624
103.552 1043 32.2955
103.669 1033 32.1403
103.786 1097 33.121
103.903 1084 32.9242
104.02 1083 32.909
104.137 1017 31.8904
104.253 1119 33.4515
104.37 1025 32.0156
104.487 1076 32.8024
104.603 1139 33.7491
104.72 1054 32.4654
104.836 1086 32.9545
104.953 1120 33.4664
105.069 1146 33.8526
105.186 1110 33.3167
105.302 1076 32.8024
105.418 1069 32.6956
105.535 1096 33.1059
105.651 1098 33.1361
105.767 1104 33.2265
105.883 1030 32.0936
105.999 854 29.2233
106.115 0 1
106.231 0 1
106.347 0 1
106.463 0 1
106.579 0 1
106.694 0 1
106.81 0 1
106.926 0 1
107.041 0 1
107.157 0 1
109.576 0 1
109.692 0 1
109.807 0 1
109.923 0 1
110.039 0 1
110.155 0 1
110.27 0 1
110.386 0 1
110.502 0 1
110.618 868 29.4618
110.735 866 29.4279
110.851 866 29.4279
110.967 857 29.2746
111.083 768 27.7128
111.199 669 25.865
111.316 708 26.6083
111.432 697 26.4008
111.549 793 28.1603
111.665 842 29.0172
111.782 863 29.3769
111.898 799 28.2666
112.015 810 28.4605
112.132 803 28.3373
112.248 804 28.3549
112.365 734 27.0924
112.482 734 27.0924
112.599 720 26.8328
112.716 745 27.2947
112.832 683 26.1343
112.949 696 26.3818
113.066 710 26.6458
113.183 679 26.0576
113.3 696 26.3818
113.417 716 26.7582
113.534 694 26.3439
113.652 675 25.9808
113.769 667 25.8263
113.886 661 25.7099
114.003 720 26.8328
114.12 578 24.0416
114.238 701 26.4764
114.355 647 25.4362
114.472 551 23.4734
114.589 578 24.0416
114.707 574 23.9583
114.824 570 23.8747
114.942 569 23.8537
115.059 588 24.2487
115.176 611 24.7184
115.294 635 25.1992
115.411 610 24.6982
115.529 660 25.6905
115.646 669 25.865
115.764 614 24.779
115.881 595 24.3926
115.999 627 25.04
116.116 577 24.0208
116.234 621 24.9199
116.351 565 23.7697
116.469 569 23.8537
116.586 625 25
116.704 633 25.1595
116.821 607 24.6374
116.939 612 24.7386
117.056 585 24.1868
117.174 559 23.6432
117.291 561 23.6854
117.409 606 24.6171
117.526 575 23.9792
117.644 584 24.1661
117.761 588 24.2487
117.879 551 23.4734
117.996 502 22.4054
118.114 486 22.0454
118.231 544 23.3238
118.349 567 23.8118
118.466 607 24.6374
118.584 560 23.6643
118.701 569 23.8537
118.819 561 23.6854
118.936 634 25.1794
119.053 620 24.8998
119.171 680 26.0768
119.288 590 24.2899
119.405 595 24.3926
119.523 614 24.779
119.64 652 25.5343
119.757 621 24.9199
119.875 629 25.0799
119.992 631 25.1197
120.109 649 25.4755
120.226 621 24.9199
120.343 660 25.6905
120.46 656 25.6125
120.578 584 24.1661
120.695 651 25.5147
120.812 641 25.318
120.929 654 25.5734
121.046 615 24.7992
121.163 669 25.865
121.279 680 26.0768
121.396 630 25.0998
121.513 581 24.1039
121.63 514 22.6716
121.747 459 21.4243
121.863 475 21.7945
121.98 577 24.0208
122.097 614 24.779
122.213 635 25.1992
122.33 646 25.4165
122.446 656 25.6125
122.563 649 25.4755
122.679 665 25.7876
122.795 726 26.9444
122.912 709 26.6271
123.028 704 26.533
123.144 721 26.8514
123.26 665 25.7876
123.377 0 1
123.493 0 1
123.609 0 1
123.725 0 1
123.84 0 1
123.956 0 1
124.072 0 1
124.188 0 1
124.303 0 1
124.419 0 1
126.852 0 1
126.968 0 1
127.083 0 1
127.199 0 1
127.315 0 1
127.431 0 1
127.547 0 1
127.663 0 1
127.779 0 1
127.895 0 1
128.011 0 1
128.127 0 1
128.243 0 1
128.359 889 29.8161
128.476 823 28.688
128.592 903 30.05
128.708 872 29.5296
128.825 891 29.8496
128.941 863 29.3769
129.058 941 30.6757
129.174 871 29.5127
129.291 843 29.0345
129.408 912 30.1993
129.524 920 30.3315
129.641 909 30.1496
129.758 920 30.3315
129.875 898 29.9666
129.992 904 30.0666
130.108 877 29.6142
130.225 893 29.8831
130.342 795 28.1957
130.459 717 26.7769
130.576 675 25.9808
130.693 612 24.7386
130.81 615 24.7992
130.928 618 24.8596
131.045 718 26.7955
131.162 920 30.3315
131.279 920 30.3315
131.396 877 29.6142
131.513 934 30.5614
131.631 937 30.6105
131.748 935 30.5778
131.865 905 30.0832
131.983 965 31.0644
132.1 952 30.8545
132.217 955 30.9031
132.335 1016 31.8748
132.452 933 30.545
132.57 917 30.282
132.687 928 30.4631
132.804 1003 31.6702
132.922 917 30.282
133.039 982 31.3369
133.157 918 30.2985
133.274 917 30.282
133.392 973 31.1929
133.509 979 31.289
133.627 986 31.4006
133.744 890 29.8329
133.862 852 29.189
133.979 830 28.8097
134.097 818 28.6007
134.214 698 26.4197
134.332 683 26.1343
134.449 699 26.4386
134.567 703 26.5141
134.684 859 29.3087
134.802 929 30.4795
134.919 951 30.8383
135.037 991 31.4802
135.154 1008 31.749
135.272 1013 31.8277
135.389 1015 31.8591
135.507 1018 31.9061
135.624 1025 32.0156
135.742 1026 32.0312
135.859 1009 31.7648
135.977 1033 32.1403
136.094 999 31.607
136.211 1036 32.187
136.329 1062 32.5883
136.446 1052 32.4345
136.564 1041 32.2645
136.681 1111 33.3317
136.798 1033 32.1403
136.915 1082 32.8938
137.033 1119 33.4515
137.15 1090 33.0151
137.267 1070 32.7109
137.384 1023 31.9844
137.502 980 31.305
137.619 934 30.5614
137.736 933 30.545
137.853 826 28.7402
137.97 850 29.1548
138.087 903 30.05
138.204 869 29.4788
138.321 879 29.6479
138.438 986 31.4006
138.555 1006 31.7175
138.672 1117 33.4215
138.788 1139 33.7491
138.905 1136 33.7046
139.022 1203 34.6843
139.139 1155 33.9853
139.255 1186 34.4384
139.372 1131 33.6303
139.488 1182 34.3802
139.605 1162 34.0881
139.721 1200 34.641
139.838 1091 33.0303
139.954 1168 34.176
140.071 1145 33.8378
140.187 1193 34.5398
140.303 1107 33.2716
140.419 1156 34
140.535 1104 33.2265
140.652 1108 33.2866
140.768 0 1
140.884 0 1
141 0 1
141.115 0 1
141.231 0 1
141.347 0 1
141.463 0 1
141.578 0 1
141.694 0 1
144.104 0 1
144.219 0 1
144.335 0 1
144.45 0 1
144.566 0 1
144.682 0 1
144.798 0 1
144.914 0 1
145.03 0 1
145.146 1072 32.7414
145.262 1164 34.1174
145.378 1119 33.4515
145.494 1145 33.8378
145.61 1227 35.0286
145.726 1096 33.1059
145.842 1075 32.7872
145.959 1115 33.3916
146.075 981 31.3209
146.192 974 31.209
146.308 916 30.2655
146.425 940 30.6594
146.541 896 29.9333
146.658 874 29.5635
146.774 953 30.8707
146.891 987 31.4166
147.008 960 30.9839
147.125 1010 31.7805
147.241 1060 32.5576
147.358 1145 33.8378
147.475 1134 33.6749
147.592 1139 33.7491
147.709 1182 34.3802
147.826 1137 33.7194
147.943 1113 33.3617
148.06 1127 33.5708
148.177 1062 32.5883
148.294 1154 33.9706
148.411 1093 33.0606
148.528 1130 33.6155
148.645 1125 33.541
148.762 1142 33.7935
148.88 1051 32.4191
148.997 1111 33.3317
149.114 1121 33.4813
149.231 1078 32.8329
149.349 1048 32.3728
149.466 978 31.273
149.583 1078 32.8329
149.701 1040 32.249
149.818 1004 31.686
149.935 906 30.0998
150.053 950 30.8221
150.17 906 30.0998
150.287 892 29.8664
150.405 923 30.3809
150.522 969 31.1288
150.64 974 31.209
150.757 1030 32.0936
150.875 1041 32.2645
150.992 1118 33.4365
151.11 1095 33.0908
151.227 1140 33.7639
151.344 1096 33.1059
151.462 1117 33.4215
151.579 1126 33.5559
151.697 1140 33.7639
151.814 1149 33.8969
151.932 1152 33.9411
152.049 1095 33.0908
152.167 1149 33.8969
152.284 1099 33.1512
152.402 1181 34.3657
152.519 1135 33.6898
152.636 1155 33.9853
152.754 1139 33.7491
152.871 1131 33.6303
152.989 1067 32.665
153.106 1123 33.5112
153.223 1067 32.665
153.341 1044 32.311
153.458 1007 31.7333
153.575 957 30.9354
153.693 931 30.5123
153.81 972 31.1769
153.927 1001 31.6386
154.044 959 30.9677
154.162 995 31.5436
154.279 1063 32.6037
154.396 1128 33.5857
154.513 1156 34
154.63 1097 33.121
154.747 1244 35.2704
154.864 1188 34.4674
154.981 1193 34.5398
155.098 1160 34.0588
155.215 1290 35.9166
155.332 1241 35.2278
155.449 1205 34.7131
155.566 1159 34.0441
155.683 1176 34.2929
155.8 1213 34.8281
155.917 1213 34.8281
156.033 1229 35.0571
156.15 0 1
156.267 0 1
156.383 0 1
156.5 0 1
156.617 0 1
156.733 0 1
156.85 0 1
156.966 0 1
157.082 0 1
157.199 0 1
157.315 0 1
157.431 0 1
157.547 0 1
157.664 0 1
157.78 0 1
157.896 0 1
158.012 0 1
158.128 0 1
158.244 0 1
158.359 0 1
158.475 0 1
158.591 0 1
158.706 0 1
