
6.15755 0 1
6.2731 0 1
6.3887 0 1
6.50437 0 1
6.62009 0 1
6.73587 0 1
6.8517 0 1
6.96759 0 1
7.08353 0 1
7.19952 0 1
7.31557 0 1
7.43166 0 1
7.54781 0 1
7.664 0 1
7.78024 0 1
7.89653 0 1
8.01286 0 1
8.12924 0 1
8.24567 0 1
8.36213 0 1
8.47864 0 1
8.59519 0 1
8.71178 0 1
8.82841 0 1
8.94508 0 1
9.06179 0 1
9.17853 0 1
9.29531 0 1
9.41212 0 1
9.52897 0 1
9.64584 0 1
9.76276 0 1
9.8797 0 1
9.99667 0 1
10.1137 0 1
10.2307 0 1
10.3478 0 1
10.4648 0 1
10.5819 0 1
10.6991 0 1
10.8162 0 1
10.9334 0 1
11.0506 0 1
11.1678 0 1
11.285 0 1
11.4023 0 1
11.5196 0 1
11.6369 0 1
11.7542 0 1
11.8715 0 1
11.9888 0 1
12.1062 0 1
12.2235 0 1
12.3409 0 1
12.4582 0 1
12.5756 0 1
12.693 0 1
12.8104 0 1
12.9278 0 1
13.0452 0 1
13.1626 0 1
13.28 0 1
13.3974 0 1
13.5149 0 1
13.6323 0 1
13.7497 0 1
13.8671 0 1
13.9845 0 1
14.1019 0 1
14.2193 0 1
14.3367 0 1
14.4541 0 1
14.5714 0 1
14.6888 0 1
14.8062 0 1
14.9235 0 1
15.0408 11892 109.05
15.1581 12535 111.96
15.2755 12998 114.009
15.3927 12919 113.662
15.51 13114 114.516
15.6273 12780 113.049
15.7445 12715 112.761
15.8617 12621 112.343
15.9789 12263 110.738
16.0961 12262 110.734
16.2132 12225 110.567
16.3304 12169 110.313
16.4475 12282 110.824
16.5646 12275 110.793
16.6816 12362 111.185
16.7986 12327 111.027
16.9156 12365 111.198
17.0326 12333 111.054
17.1496 12274 110.788
17.2665 12065 109.841
17.3833 12284 110.833
17.5002 12005 109.567
17.617 12363 111.189
17.7338 12345 111.108
17.8505 12434 111.508
17.9672 12558 112.062
18.0839 12465 111.647
18.2005 12876 113.472
18.3171 13186 114.83
18.4337 13070 114.324
18.5502 13316 115.395
18.6666 13432 115.897
18.7831 13583 116.546
18.8994 13365 115.607
19.0158 12808 113.172
19.1321 12763 112.973
19.2483 12274 110.788
19.3645 11698 108.157
19.4806 11268 106.151
19.5967 10618 103.044
19.7128 10152 100.757
19.8288 9635 98.158
19.9447 8589 92.6769
20.0606 0 1
20.1764 0 1
20.2922 0 1
20.4079 0 1
20.5236 0 1
20.6392 0 1
20.7548 0 1
20.8702 0 1
23.3078 0 1
23.4233 0 1
23.539 0 1
23.6547 0 1
23.7704 0 1
23.8862 0 1
24.0021 0 1
24.118 0 1
24.234 0 1
24.35 0 1
24.4661 5400 73.4847
24.5822 5794 76.1183
24.6984 6573 81.074
24.8146 7262 85.2174
24.9309 8316 91.1921
25.0472 9104 95.4149
25.1636 9902 99.5088
25.28 11040 105.071
25.3965 11860 108.904
25.513 12694 112.668
25.6296 13376 115.655
25.7462 13484 116.121
25.8628 14048 118.524
25.9795 14155 118.975
26.0962 14448 120.2
26.213 14308 119.616
26.3298 14376 119.9
26.4466 14303 119.595
26.5635 14122 118.836
26.6804 14223 119.26
26.7973 14200 119.164
26.9143 14113 118.798
27.0313 14171 119.042
27.1483 14180 119.08
27.2653 14431 120.129
27.3824 14625 120.934
27.4996 14523 120.511
27.6167 14488 120.366
27.7339 14140 118.912
27.8511 13525 116.297
27.9683 13298 115.317
28.0855 13144 114.647
28.2028 12985 113.952
28.3201 13033 114.162
28.4374 13131 114.591
28.5547 13363 115.598
28.6721 13522 116.284
28.7894 13569 116.486
28.9068 13903 117.911
29.0242 13804 117.49
29.1416 14035 118.469
29.259 14229 119.285
29.3764 13991 118.284
29.4939 13874 117.788
29.6113 14302 119.591
29.7288 14150 118.954
29.8463 14366 119.858
29.9638 14320 119.666
30.0812 14251 119.378
30.1987 14331 119.712
30.3162 14458 120.241
30.4337 14418 120.075
30.5512 14459 120.246
30.6687 14583 120.76
30.7862 14623 120.926
30.9037 14617 120.901
31.0212 14979 122.389
31.1387 14613 120.884
31.2562 14526 120.524
31.3737 13805 117.495
31.4912 13530 116.319
31.6087 13542 116.37
31.7262 13566 116.473
31.8436 13557 116.435
31.9611 13872 117.779
32.0785 13364 115.603
32.1959 13895 117.877
32.3134 14146 118.937
32.4308 14380 119.917
32.5482 14300 119.583
32.6655 14698 121.235
32.7829 14340 119.75
32.9002 14171 119.042
33.0176 14275 119.478
33.1349 14309 119.62
33.2522 14408 120.033
33.3694 14660 121.078
33.4867 14627 120.942
33.6039 14695 121.223
33.7211 14848 121.852
33.8383 14729 121.363
33.9554 14938 122.221
34.0725 14937 122.217
34.1896 15044 122.654
34.3067 15058 122.711
34.4237 14978 122.385
34.5407 14993 122.446
34.6577 15261 123.535
34.7746 15095 122.862
34.8915 14631 120.959
35.0084 14052 118.541
35.1252 13693 117.017
35.242 13579 116.529
35.3587 13856 117.712
35.4755 13692 117.013
35.5921 13765 117.324
35.7088 13660 116.876
35.8254 13895 117.877
35.9419 14063 118.588
36.0584 14152 118.962
36.1749 14440 120.167
36.2913 14290 119.541
36.4077 14012 118.372
36.524 13959 118.148
36.6403 13398 115.75
36.7565 12792 113.102
36.8727 12090 109.955
36.9889 11526 107.359
37.1049 10570 102.811
37.221 0 1
37.3369 0 1
37.4529 0 1
37.5687 0 1
37.6845 0 1
37.8003 0 1
37.916 0 1
38.0316 0 1
38.1472 0 1
40.5851 0 1
40.7008 0 1
40.8164 0 1
40.9322 0 1
41.048 0 1
41.1639 0 1
41.2798 0 1
41.3958 0 1
41.5118 0 1
41.6279 0 1
41.744 6090 78.0385
41.8602 6891 83.012
41.9765 8083 89.9055
42.0928 8931 94.504
42.2091 9836 99.1766
42.3255 11048 105.109
42.4419 11670 108.028
42.5584 12467 111.656
42.675 13105 114.477
42.7915 13356 115.568
42.9081 13610 116.662
43.0248 13910 117.941
43.1415 13896 117.881
43.2582 14098 118.735
43.375 14493 120.387
43.4918 14458 120.241
43.6087 14594 120.806
43.7256 14420 120.083
43.8425 13826 117.584
43.9595 13671 116.923
44.0765 13198 114.883
44.1935 13244 115.083
44.3106 13519 116.271
44.4277 13849 117.682
44.5448 13607 116.649
44.6619 13757 117.29
44.7791 14058 118.566
44.8963 14206 119.189
45.0136 14224 119.264
45.1308 14212 119.214
45.2481 14479 120.329
45.3654 14326 119.691
45.4827 14209 119.202
45.6001 14425 120.104
45.7174 14117 118.815
45.8348 14451 120.212
45.9522 14851 121.865
46.0697 14627 120.942
46.1871 14919 122.143
46.3046 14864 121.918
46.422 15425 124.197
46.5395 15153 123.098
46.657 15627 125.008
46.7745 15461 124.342
46.892 15767 125.567
47.0096 15795 125.678
47.1271 16176 127.185
47.2446 16069 126.764
47.3622 15832 125.825
47.4797 15095 122.862
47.5973 14692 121.211
47.7149 14369 119.871
47.8324 14505 120.437
47.95 14737 121.396
48.0675 14974 122.368
48.1851 15053 122.691
48.3027 15421 124.181
48.4202 15387 124.044
48.5378 15354 123.911
48.6554 15351 123.899
48.7729 15210 123.329
48.8904 15344 123.871
49.008 15145 123.065
49.1255 14908 122.098
49.243 14790 121.614
49.3605 14996 122.458
49.478 15100 122.882
49.5955 15266 123.556
49.713 15434 124.234
49.8304 15910 126.135
49.9479 16083 126.819
50.0653 16061 126.732
50.1827 16128 126.996
50.3001 16234 127.413
50.4175 16399 128.059
50.5348 16497 128.441
50.6521 16583 128.775
50.7694 16822 129.7
50.8867 16224 127.373
51.004 15855 125.917
51.1212 15315 123.754
51.2384 14983 122.405
51.3556 15255 123.511
51.4727 15456 124.322
51.5899 15544 124.676
51.707 16131 127.008
51.824 16282 127.601
51.9411 16166 127.146
52.0581 16188 127.232
52.175 16292 127.64
52.2919 15870 125.976
52.4088 15801 125.702
52.5257 15660 125.14
52.6425 15675 125.2
52.7593 15464 124.354
52.876 15410 124.137
52.9927 15302 123.701
53.1094 15532 124.627
53.226 15357 123.923
53.3426 15422 124.185
53.4591 15647 125.088
53.5756 15849 125.893
53.692 15664 125.156
53.8084 15215 123.349
53.9248 14433 120.137
54.0411 13251 115.113
54.1573 11709 108.208
54.2735 0 1
54.3896 0 1
54.5057 0 1
54.6217 0 1
54.7377 0 1
54.8537 0 1
54.9695 0 1
55.0853 0 1
55.2011 0 1
55.3168 0 1
55.4324 0 1
57.824 0 1
57.9396 0 1
58.0553 0 1
58.1711 0 1
58.2869 0 1
58.4028 0 1
58.5187 0 1
58.6347 0 1
58.7508 0 1
58.8669 0 1
58.983 10675 103.32
59.0992 12274 110.788
59.2155 13737 117.205
59.3318 15492 124.467
59.4482 17066 130.637
59.5646 18145 134.703
59.681 18989 137.801
59.7975 19251 138.748
59.9141 19503 139.653
60.0306 19546 139.807
60.1473 19895 141.05
60.2639 20776 144.139
60.3807 21236 145.726
60.4974 21780 147.58
60.6142 21971 148.226
60.731 21901 147.99
60.8479 21780 147.58
60.9648 21529 146.728
61.0818 21538 146.758
61.1987 21674 147.221
61.3158 22072 148.566
61.4328 21193 145.578
61.5499 21399 146.284
61.667 21627 147.061
61.7841 21829 147.746
61.9013 21679 147.238
62.0185 22415 149.716
62.1357 22710 150.698
62.253 23121 152.056
62.3702 23473 153.209
62.4875 23499 153.294
62.6049 24195 155.547
62.7222 24467 156.419
62.8396 24344 156.026
62.9569 24893 157.775
63.0743 23868 154.493
63.1918 23500 153.297
63.3092 22716 150.718
63.4267 21983 148.267
63.5441 22054 148.506
63.6616 22255 149.181
63.7791 22431 149.77
63.8966 22639 150.463
64.0142 22985 151.608
64.1317 22850 151.162
64.2492 22825 151.079
64.3668 22718 150.725
64.4843 22517 150.057
64.6019 22301 149.335
64.7195 22320 149.399
64.837 22434 149.78
64.9546 22194 148.977
65.0722 22181 148.933
65.1898 22300 149.332
65.3074 22248 149.158
65.4249 22717 150.722
65.5425 23016 151.71
65.6601 23492 153.271
65.7777 23544 153.441
65.8952 24022 154.99
66.0128 24413 156.247
66.1304 24797 157.471
66.2479 25267 158.956
66.3655 25123 158.502
66.483 25393 159.352
66.6005 25542 159.819
66.718 24701 157.166
66.8355 23443 153.111
66.953 22920 151.394
67.0705 22555 150.183
67.1879 22512 150.04
67.3054 23004 151.671
67.4228 23197 152.306
67.5402 23248 152.473
67.6576 23455 153.15
67.7749 22882 151.268
67.8923 23360 152.84
68.0096 23234 152.427
68.1269 23395 152.954
68.2442 23476 153.219
68.3614 23290 152.611
68.4787 23270 152.545
68.5958 23337 152.765
68.713 22985 151.608
68.8302 23203 152.325
68.9473 22811 151.033
69.0643 23305 152.66
69.1814 23355 152.823
69.2984 23464 153.18
69.4154 23793 154.25
69.5323 24070 155.145
69.6492 24133 155.348
69.7661 25078 158.36
69.8829 25212 158.783
69.9997 24914 157.842
70.1165 24996 158.101
70.2332 25110 158.461
70.3499 23962 154.797
70.4665 22455 149.85
70.5831 20807 144.246
70.6996 19255 138.762
70.8161 17785 133.36
70.9326 16417 128.129
71.049 14795 121.635
71.1653 13607 116.649
71.2817 12573 112.129
71.3979 11485 107.168
71.5141 10666 103.276
71.6303 10078 100.389
71.7464 8806 93.8403
71.8624 0 1
71.9784 0 1
72.0944 0 1
72.2102 0 1
72.3261 0 1
72.4418 0 1
72.5575 0 1
72.6732 0 1
75.1054 0 1
75.2209 0 1
75.3365 0 1
75.4521 0 1
75.5678 0 1
75.6835 0 1
75.7993 0 1
75.9151 0 1
76.031 0 1
76.147 12574 112.134
76.263 14723 121.338
76.3791 17265 131.396
76.4952 19249 138.741
76.6113 21001 144.917
76.7276 21655 147.156
76.8438 22130 148.762
76.9601 22521 150.07
77.0765 22581 150.27
77.1929 23435 153.085
77.3093 23719 154.01
77.4258 23724 154.026
77.5423 23984 154.868
77.6589 24089 155.206
77.7755 23557 153.483
77.8921 23959 154.787
78.0088 24252 155.731
78.1256 24406 156.224
78.2423 24911 157.832
78.3591 25121 158.496
78.4759 25672 160.225
78.5928 25501 159.69
78.7097 26630 163.187
78.8266 26722 163.469
78.9436 27318 165.282
79.0606 26490 162.757
79.1776 26726 163.481
79.2946 26600 163.095
79.4117 26452 162.641
79.5288 25371 159.283
79.6459 24545 156.668
79.7631 23722 154.019
79.8802 24092 155.216
79.9974 25030 158.209
80.1147 25346 159.204
80.2319 25859 160.807
80.3491 26026 161.326
80.4664 26641 163.221
80.5837 26534 162.893
80.701 26470 162.696
80.8183 26542 162.917
80.9357 27043 164.448
81.053 27444 165.662
81.1704 27438 165.644
81.2877 27322 165.294
81.4051 27040 164.438
81.5225 27097 164.612
81.6399 27401 165.532
81.7573 27127 164.703
81.8747 27683 166.382
81.9922 28037 167.443
82.1096 28857 169.873
82.227 29073 170.508
82.3444 29656 172.209
82.4619 30261 173.957
82.5793 30591 174.903
82.6967 30155 173.652
82.8142 30465 174.542
82.9316 29907 172.936
83.049 29147 170.725
83.1664 28440 168.642
83.2838 26849 163.857
83.4012 26012 161.282
83.5186 26183 161.812
83.636 27034 164.42
83.7534 27779 166.67
83.8708 28394 168.505
83.9881 29040 170.411
84.1055 28786 169.664
84.2228 29428 171.546
84.3401 30130 173.58
84.4575 29872 172.835
84.5747 30514 174.683
84.692 31014 176.108
84.8093 31612 177.798
84.9265 30901 175.787
85.0437 30704 175.226
85.1609 30089 173.462
85.2781 30455 174.514
85.3952 30543 174.766
85.5123 31100 176.352
85.6294 31727 178.121
85.7465 32185 179.402
85.8636 32422 180.061
85.9806 32568 180.466
86.0976 33213 182.244
86.2145 33031 181.744
86.3315 32785 181.066
86.4484 33011 181.689
86.5652 32921 181.441
86.682 32289 179.691
86.7988 31064 176.25
86.9156 29706 172.354
87.0323 29114 170.628
87.149 29460 171.639
87.2657 30127 173.571
87.3823 31159 176.519
87.4988 31176 176.567
87.6154 31914 178.645
87.7318 32088 179.131
87.8483 31900 178.606
87.9647 30594 174.911
88.081 28947 170.138
88.1973 26505 162.804
88.3136 23549 153.457
88.4298 21023 144.993
88.546 18418 135.713
88.6621 16362 127.914
88.7781 15023 122.568
88.8942 0 1
89.0101 0 1
89.126 0 1
89.2419 0 1
89.3577 0 1
89.4734 0 1
89.5891 0 1
89.7047 0 1
89.8203 0 1
89.9358 0 1
92.3269 0 1
92.4424 0 1
92.558 0 1
92.6736 0 1
92.7893 0 1
92.905 0 1
93.0208 0 1
93.1366 0 1
93.2525 0 1
93.3685 0 1
93.4845 0 1
93.6005 20626 143.618
93.7167 24629 156.936
93.8328 28707 169.431
93.949 31775 178.255
94.0653 34246 185.057
94.1816 35169 187.534
94.2979 35991 189.713
94.4143 35694 188.929
94.5307 36219 190.313
94.6472 36578 191.254
94.7637 36968 192.271
94.8803 36753 191.711
94.9969 37354 193.272
95.1135 37913 194.713
95.2302 37669 194.085
95.3469 37652 194.041
95.4637 38095 195.179
95.5805 38529 196.288
95.6973 38087 195.159
95.8142 37685 194.126
95.9311 36413 190.822
96.048 35155 187.497
96.1649 34079 184.605
96.2819 33171 182.129
96.3989 33032 181.747
96.516 33213 182.244
96.633 34267 185.113
96.7501 35078 187.291
96.8673 36157 190.15
96.9844 36693 191.554
97.1016 37112 192.645
97.2188 37402 193.396
97.336 37758 194.314
97.4532 38529 196.288
97.5704 39105 197.75
97.6877 39034 197.57
97.805 39024 197.545
97.9223 38480 196.163
98.0396 38342 195.811
98.1569 38062 195.095
98.2743 37949 194.805
98.3916 38473 196.145
98.509 38760 196.876
98.6264 39691 199.226
98.7438 39823 199.557
98.8612 39576 198.937
98.9786 39695 199.236
99.096 39847 199.617
99.2134 40047 200.117
99.3308 41008 202.504
99.4482 41534 203.799
99.5656 41102 202.736
99.6831 39914 199.785
99.8005 38751 196.853
99.9179 38005 194.949
100.035 37608 193.928
100.153 37304 193.142
100.27 38372 195.888
100.388 38640 196.571
100.505 39418 198.54
100.622 39822 199.555
100.74 40022 200.055
100.857 40379 200.945
100.975 40034 200.085
101.092 41199 202.975
101.209 41474 203.652
101.327 41319 203.271
101.444 40998 202.48
101.561 40512 201.276
101.679 40750 201.866
101.796 40758 201.886
101.913 40890 202.213
102.03 41296 203.214
102.148 41952 204.822
102.265 41636 204.049
102.382 42636 206.485
102.499 41763 204.36
102.616 41951 204.819
102.733 42728 206.708
102.851 43357 208.223
102.968 43807 209.301
103.085 43363 208.238
103.202 42575 206.337
103.319 40957 202.378
103.436 39389 198.467
103.552 38692 196.703
103.669 38366 195.872
103.786 39203 197.997
103.903 40221 200.552
104.02 40774 201.926
104.137 41282 203.18
104.253 41134 202.815
104.37 42525 206.216
104.487 42191 205.404
104.603 42591 206.376
104.72 42798 206.877
104.836 42155 205.317
104.953 41650 204.083
105.069 41065 202.645
105.186 40200 200.499
105.302 39468 198.666
105.418 37467 193.564
105.535 34957 186.968
105.651 31677 177.98
105.767 28013 167.371
105.883 24713 157.204
105.999 21358 146.144
106.115 0 1
106.231 0 1
106.347 0 1
106.463 0 1
106.579 0 1
106.694 0 1
106.81 0 1
106.926 0 1
107.041 0 1
107.157 0 1
109.576 0 1
109.692 0 1
109.807 0 1
109.923 0 1
110.039 0 1
110.155 0 1
110.27 0 1
110.386 0 1
110.502 0 1
110.618 18895 137.459
110.735 22266 149.218
110.851 24509 156.554
110.967 26836 163.817
111.083 29358 171.342
111.199 31250 176.777
111.316 33704 183.586
111.432 35876 189.41
111.549 36883 192.049
111.665 36673 191.502
111.782 35460 188.308
111.898 34357 185.356
112.015 33397 182.748
112.132 32430 180.083
112.248 32168 179.354
112.365 33045 181.783
112.482 33122 181.995
112.599 35600 188.68
112.716 35143 187.465
112.832 35481 188.364
112.949 35104 187.361
113.066 34624 186.075
113.183 35178 187.558
113.3 35797 189.201
113.417 35553 188.555
113.534 35021 187.139
113.652 34819 186.598
113.769 34925 186.882
113.886 34612 186.043
114.003 34933 186.904
114.12 35740 189.05
114.238 35816 189.251
114.355 34869 186.732
114.472 32904 181.395
114.589 35794 189.193
114.707 34741 186.389
114.824 35747 189.069
114.942 36556 191.196
115.059 37282 193.085
115.176 37153 192.751
115.294 35864 189.378
115.411 34391 185.448
115.529 33070 181.852
115.646 31937 178.709
115.764 31230 176.72
115.881 31143 176.474
115.999 31952 178.751
116.116 32269 179.636
116.234 33141 182.047
116.351 33571 183.224
116.469 33159 182.096
116.586 33013 181.695
116.704 32903 181.392
116.821 33441 182.869
116.939 33627 183.377
117.056 33228 182.285
117.174 33293 182.464
117.291 33012 181.692
117.409 32792 181.086
117.526 33132 182.022
117.644 33016 181.703
117.761 33468 182.943
117.879 33089 181.904
117.996 32508 180.3
118.114 32346 179.85
118.231 32931 181.469
118.349 32727 180.906
118.466 34187 184.897
118.584 34499 185.739
118.701 34824 186.612
118.819 33849 183.981
118.936 32649 180.69
119.053 31138 176.46
119.171 30143 173.617
119.288 29215 170.924
119.405 28795 169.691
119.523 28612 169.151
119.64 29343 171.298
119.757 29991 173.179
119.875 29827 172.705
119.992 30188 173.747
120.109 30345 174.198
120.226 29984 173.159
120.343 30286 174.029
120.46 30405 174.37
120.578 30192 173.758
120.695 29869 172.827
120.812 30370 174.27
120.929 29691 172.311
121.046 29895 172.902
121.163 29972 173.124
121.279 29919 172.971
121.396 30055 173.364
121.513 29112 170.622
121.63 29020 170.353
121.747 28652 169.269
121.863 27501 165.834
121.98 27908 167.057
122.097 27649 166.28
122.213 26718 163.456
122.33 26168 161.765
122.446 25060 158.304
122.563 23342 152.781
122.679 20642 143.673
122.795 18479 135.937
122.912 16405 128.082
123.028 14673 121.132
123.144 14052 118.541
123.26 13195 114.869
123.377 0 1
123.493 0 1
123.609 0 1
123.725 0 1
123.84 0 1
123.956 0 1
124.072 0 1
124.188 0 1
124.303 0 1
124.419 0 1
126.852 0 1
126.968 0 1
127.083 0 1
127.199 0 1
127.315 0 1
127.431 0 1
127.547 0 1
127.663 0 1
127.779 0 1
127.895 0 1
128.011 0 1
128.127 0 1
128.243 0 1
128.359 27923 167.102
128.476 28039 167.448
128.592 28703 169.42
128.708 29221 170.942
128.825 30102 173.499
128.941 30785 175.457
129.058 31121 176.411
129.174 31472 177.403
129.291 31184 176.59
129.408 31654 177.916
129.524 31335 177.017
129.641 31388 177.167
129.758 31698 178.039
129.875 31602 177.77
129.992 31933 178.698
130.108 31811 178.356
130.225 31803 178.334
130.342 31574 177.691
130.459 30976 176
130.576 31281 176.864
130.693 30497 174.634
130.81 30274 173.994
130.928 29878 172.853
131.045 30930 175.869
131.162 31814 178.365
131.279 32741 180.945
131.396 33059 181.821
131.513 32800 181.108
131.631 31788 178.292
131.748 30882 175.733
131.865 29505 171.77
131.983 28770 169.617
132.1 28638 169.228
132.217 28877 169.932
132.335 29315 171.216
132.452 29926 172.991
132.57 30291 174.043
132.687 30920 175.841
132.804 30338 174.178
132.922 30582 174.877
133.039 30279 174.009
133.157 30920 175.841
133.274 30784 175.454
133.392 30914 175.824
133.509 30772 175.419
133.627 31154 176.505
133.744 31064 176.25
133.862 30937 175.889
133.979 30431 174.445
134.097 30394 174.339
134.214 29883 172.867
134.332 29209 170.906
134.449 29090 170.558
134.567 29538 171.866
134.684 30681 175.16
134.802 31314 176.958
134.919 31741 178.16
135.037 31623 177.829
135.154 31327 176.994
135.272 30253 173.934
135.389 28965 170.191
135.507 28024 167.404
135.624 28165 167.824
135.742 28393 168.502
135.859 28592 169.092
135.977 29163 170.772
136.094 29494 171.738
136.211 29843 172.751
136.329 29971 173.121
136.446 30103 173.502
136.564 29838 172.737
136.681 30119 173.548
136.798 29978 173.142
136.915 30244 173.908
137.033 30198 173.776
137.15 30483 174.594
137.267 30226 173.856
137.384 29753 172.491
137.502 29725 172.409
137.619 28811 169.738
137.736 29028 170.376
137.853 27296 165.215
137.97 28027 167.413
138.087 27110 164.651
138.204 28544 168.95
138.321 28852 169.859
138.438 29686 172.296
138.555 30049 173.346
138.672 30017 173.254
138.788 29136 170.693
138.905 28054 167.493
139.022 26445 162.619
139.139 24712 157.201
139.255 23890 154.564
139.372 22983 151.601
139.488 22278 149.258
139.605 21515 146.68
139.721 20537 143.307
139.838 19574 139.907
139.954 18493 135.989
140.071 17155 130.977
140.187 15621 124.984
140.303 14702 121.252
140.419 13619 116.7
140.535 12932 113.719
140.652 12319 110.991
140.768 0 1
140.884 0 1
141 0 1
141.115 0 1
141.231 0 1
141.347 0 1
141.463 0 1
141.578 0 1
141.694 0 1
144.104 0 1
144.219 0 1
144.335 0 1
144.45 0 1
144.566 0 1
144.682 0 1
144.798 0 1
144.914 0 1
145.03 0 1
145.146 20192 142.099
145.262 21525 146.714
145.378 22181 148.933
145.494 22289 149.295
145.61 22353 149.509
145.726 22767 150.887
145.842 22930 151.427
145.959 22904 151.341
146.075 22265 149.215
146.192 22050 148.492
146.308 21838 147.777
146.425 21809 147.679
146.541 21447 146.448
146.658 21031 145.021
146.774 21060 145.121
146.891 21358 146.144
147.008 22052 148.499
147.125 22622 150.406
147.241 23131 152.089
147.358 23010 151.69
147.475 23089 151.951
147.592 22784 150.944
147.709 22191 148.966
147.826 21473 146.537
147.943 20852 144.402
148.06 20822 144.298
148.177 20737 144.003
148.294 20954 144.755
148.411 21591 146.939
148.528 21481 146.564
148.645 21817 147.706
148.762 22425 149.75
148.88 22200 148.997
148.997 22780 150.93
149.114 21640 147.105
149.231 22183 148.94
149.349 22154 148.842
149.466 22023 148.401
149.583 22161 148.866
149.701 21889 147.949
149.818 21467 146.516
149.935 21275 145.86
150.053 21114 145.307
150.17 20740 144.014
150.287 20907 144.593
150.405 20735 143.997
150.522 20620 143.597
150.64 21572 146.874
150.757 22273 149.241
150.875 22396 149.653
150.992 22510 150.033
151.11 22559 150.197
151.227 22457 149.857
151.344 21922 148.061
151.462 21200 145.602
151.579 20758 144.076
151.697 20616 143.583
151.814 20554 143.367
151.932 20535 143.3
152.049 20528 143.276
152.167 21055 145.103
152.284 21326 146.034
152.402 21464 146.506
152.519 21215 145.654
152.636 21626 147.058
152.754 21162 145.472
152.871 21215 145.654
152.989 21016 144.969
153.106 21301 145.949
153.223 21175 145.516
153.341 20553 143.363
153.458 20341 142.622
153.575 19917 141.128
153.693 19867 140.95
153.81 19627 140.096
153.927 19529 139.746
154.044 19462 139.506
154.162 20310 142.513
154.279 20842 144.368
154.396 21532 146.738
154.513 21289 145.908
154.63 21244 145.753
154.747 21370 146.185
154.864 21138 145.389
154.981 20308 142.506
155.098 19599 139.996
155.215 19250 138.744
155.332 19160 138.42
155.449 19099 138.199
155.566 19207 138.589
155.683 19020 137.913
155.8 18729 136.854
155.917 18825 137.204
156.033 18687 136.7
156.15 0 1
156.267 0 1
156.383 0 1
156.5 0 1
156.617 0 1
156.733 0 1
156.85 0 1
156.966 0 1
157.082 0 1
157.199 0 1
157.315 0 1
157.431 0 1
157.547 0 1
157.664 0 1
157.78 0 1
157.896 0 1
158.012 0 1
158.128 0 1
158.244 0 1
158.359 0 1
158.475 0 1
158.591 0 1
158.706 0 1
