
6.15755 0 1
6.2731 0 1
6.3887 0 1
6.50437 0 1
6.62009 0 1
6.73587 0 1
6.8517 0 1
6.96759 0 1
7.08353 0 1
7.19952 0 1
7.31557 0 1
7.43166 0 1
7.54781 0 1
7.664 0 1
7.78024 0 1
7.89653 0 1
8.01286 0 1
8.12924 0 1
8.24567 0 1
8.36213 0 1
8.47864 0 1
8.59519 0 1
8.71178 0 1
8.82841 0 1
8.94508 0 1
9.06179 0 1
9.17853 0 1
9.29531 0 1
9.41212 0 1
9.52897 0 1
9.64584 0 1
9.76276 0 1
9.8797 0 1
9.99667 0 1
10.1137 0 1
10.2307 0 1
10.3478 0 1
10.4648 0 1
10.5819 0 1
10.6991 0 1
10.8162 0 1
10.9334 0 1
11.0506 0 1
11.1678 0 1
11.285 0 1
11.4023 0 1
11.5196 0 1
11.6369 0 1
11.7542 0 1
11.8715 0 1
11.9888 0 1
12.1062 0 1
12.2235 0 1
12.3409 0 1
12.4582 0 1
12.5756 0 1
12.693 0 1
12.8104 0 1
12.9278 0 1
13.0452 0 1
13.1626 0 1
13.28 0 1
13.3974 0 1
13.5149 0 1
13.6323 0 1
13.7497 0 1
13.8671 0 1
13.9845 0 1
14.1019 0 1
14.2193 0 1
14.3367 0 1
14.4541 0 1
14.5714 0 1
14.6888 0 1
14.8062 0 1
14.9235 0 1
15.0408 0 0
15.1581 0 0
15.2755 0 0
15.3927 0 0
15.51 0 0
15.6273 0 0
15.7445 0 0
15.8617 0 0
15.9789 0 0
16.0961 0 0
16.2132 0 0
16.3304 0 0
16.4475 0 0
16.5646 0 0
16.6816 0 0
16.7986 0 0
16.9156 0 0
17.0326 0 0
17.1496 0 0
17.2665 0 0
17.3833 0 0
17.5002 0 0
17.617 0 0
17.7338 0 0
17.8505 0 0
17.9672 0 0
18.0839 0 0
18.2005 0 0
18.3171 0 0
18.4337 0 0
18.5502 0 0
18.6666 0 0
18.7831 0 0
18.8994 0 0
19.0158 0 0
19.1321 0 0
19.2483 0 0
19.3645 0 0
19.4806 0 0
19.5967 0 0
19.7128 0 0
19.8288 0 0
19.9447 0 0
20.0606 0 1
20.1764 0 1
20.2922 0 1
20.4079 0 1
20.5236 0 1
20.6392 0 1
20.7548 0 1
20.8702 0 1
23.3078 0 1
23.4233 0 1
23.539 0 1
23.6547 0 1
23.7704 0 1
23.8862 0 1
24.0021 0 1
24.118 0 1
24.234 0 1
24.35 0 1
24.4661 1687 41.0731
24.5822 1675 40.9268
24.6984 1693 41.1461
24.8146 1707 41.3159
24.9309 1709 41.3401
25.0472 1597 39.9625
25.1636 1475 38.4057
25.28 1460 38.2099
25.3965 1491 38.6135
25.513 1540 39.2428
25.6296 1661 40.7554
25.7462 1741 41.7253
25.8628 1863 43.1625
25.9795 1764 42
26.0962 1832 42.8019
26.213 1904 43.6348
26.3298 1809 42.5323
26.4466 1776 42.1426
26.5635 1750 41.833
26.6804 1747 41.7971
26.7973 1701 41.2432
26.9143 1689 41.0974
27.0313 1834 42.8252
27.1483 1802 42.45
27.2653 1830 42.7785
27.3824 1819 42.6497
27.4996 1922 43.8406
27.6167 1818 42.638
27.7339 1774 42.1189
27.8511 1797 42.391
27.9683 1753 41.8688
28.0855 1800 42.4264
28.2028 1693 41.1461
28.3201 1784 42.2374
28.4374 1636 40.4475
28.5547 1625 40.3113
28.6721 1550 39.37
28.7894 1462 38.2361
28.9068 1474 38.3927
29.0242 1472 38.3667
29.1416 1513 38.8973
29.259 1646 40.5709
29.3764 1828 42.7551
29.4939 1768 42.0476
29.6113 1856 43.0813
29.7288 1748 41.8091
29.8463 1815 42.6028
29.9638 1731 41.6053
30.0812 1615 40.1871
30.1987 1643 40.5339
30.3162 1653 40.6571
30.4337 1660 40.7431
30.5512 1646 40.5709
30.6687 1686 41.0609
30.7862 1801 42.4382
30.9037 1836 42.8486
31.0212 1851 43.0232
31.1387 1834 42.8252
31.2562 1836 42.8486
31.3737 1802 42.45
31.4912 1708 41.328
31.6087 1824 42.7083
31.7262 1782 42.2137
31.8436 1789 42.2966
31.9611 1683 41.0244
32.0785 1641 40.5093
32.1959 1474 38.3927
32.3134 1456 38.1576
32.4308 1408 37.5233
32.5482 1480 38.4708
32.6655 1577 39.7115
32.7829 1739 41.7013
32.9002 1739 41.7013
33.0176 1748 41.8091
33.1349 1775 42.1307
33.2522 1768 42.0476
33.3694 1764 42
33.4867 1821 42.6732
33.6039 1756 41.9047
33.7211 1710 41.3521
33.8383 1563 39.5348
33.9554 1601 40.0125
34.0725 1587 39.8372
34.1896 1626 40.3237
34.3067 1600 40
34.4237 1742 41.7373
34.5407 1845 42.9535
34.6577 1832 42.8019
34.7746 1749 41.821
34.8915 1820 42.6615
35.0084 1795 42.3674
35.1252 1870 43.2435
35.242 1772 42.0951
35.3587 1769 42.0595
35.4755 1709 41.3401
35.5921 1719 41.4608
35.7088 1657 40.7063
35.8254 1559 39.4842
35.9419 1450 38.0789
36.0584 1437 37.9078
36.1749 1461 38.223
36.2913 1406 37.4967
36.4077 1521 39
36.524 1525 39.0512
36.6403 1582 39.7744
36.7565 1717 41.4367
36.8727 1635 40.4351
36.9889 1626 40.3237
37.1049 1741 41.7253
37.221 0 1
37.3369 0 1
37.4529 0 1
37.5687 0 1
37.6845 0 1
37.8003 0 1
37.916 0 1
38.0316 0 1
38.1472 0 1
40.5851 0 1
40.7008 0 1
40.8164 0 1
40.9322 0 1
41.048 0 1
41.1639 0 1
41.2798 0 1
41.3958 0 1
41.5118 0 1
41.6279 0 1
41.744 1336 36.5513
41.8602 1346 36.6879
41.9765 1364 36.9324
42.0928 1423 37.7227
42.2091 1463 38.2492
42.3255 1496 38.6782
42.4419 1378 37.1214
42.5584 1327 36.428
42.675 1270 35.6371
42.7915 1221 34.9428
42.9081 1191 34.5109
43.0248 1270 35.6371
43.1415 1326 36.4143
43.2582 1356 36.8239
43.375 1411 37.5633
43.4918 1376 37.0945
43.6087 1481 38.4838
43.7256 1465 38.2753
43.8425 1487 38.5616
43.9595 1412 37.5766
44.0765 1427 37.7757
44.1935 1417 37.6431
44.3106 1302 36.0832
44.4277 1348 36.7151
44.5448 1186 34.4384
44.6619 1068 32.6803
44.7791 1060 32.5576
44.8963 1006 31.7175
45.0136 1010 31.7805
45.1308 1067 32.665
45.2481 1190 34.4964
45.3654 1103 33.2114
45.4827 1176 34.2929
45.6001 1124 33.5261
45.7174 1146 33.8526
45.8348 1126 33.5559
45.9522 1081 32.8786
46.0697 1047 32.3574
46.1871 946 30.7571
46.3046 916 30.2655
46.422 899 29.9833
46.5395 976 31.241
46.657 1044 32.311
46.7745 1119 33.4515
46.892 1080 32.8634
47.0096 1058 32.5269
47.1271 1098 33.1361
47.2446 1080 32.8634
47.3622 1026 32.0312
47.4797 1089 33
47.5973 1058 32.5269
47.7149 1048 32.3728
47.8324 1046 32.3419
47.95 1029 32.078
48.0675 905 30.0832
48.1851 865 29.4109
48.3027 827 28.7576
48.4202 828 28.775
48.5378 833 28.8617
48.6554 878 29.6311
48.7729 922 30.3645
48.8904 920 30.3315
49.008 949 30.8058
49.1255 926 30.4302
49.243 1011 31.7962
49.3605 923 30.3809
49.478 869 29.4788
49.5955 865 29.4109
49.713 782 27.9643
49.8304 773 27.8029
49.9479 761 27.5862
50.0653 863 29.3769
50.1827 876 29.5973
50.3001 900 30
50.4175 966 31.0805
50.5348 1000 31.6228
50.6521 1068 32.6803
50.7694 1098 33.1361
50.8867 1085 32.9393
51.004 1147 33.8674
51.1212 1181 34.3657
51.2384 1154 33.9706
51.3556 1111 33.3317
51.4727 1134 33.6749
51.5899 1033 32.1403
51.707 1026 32.0312
51.824 1032 32.1248
51.9411 1076 32.8024
52.0581 1129 33.6006
52.175 1213 34.8281
52.2919 1217 34.8855
52.4088 1204 34.6987
52.5257 1215 34.8569
52.6425 1236 35.1568
52.7593 1306 36.1386
52.876 1293 35.9583
52.9927 1274 35.6931
53.1094 1200 34.641
53.226 1082 32.8938
53.3426 1054 32.4654
53.4591 1053 32.45
53.5756 1172 34.2345
53.692 1242 35.242
53.8084 1301 36.0694
53.9248 1379 37.1349
54.0411 1434 37.8682
54.1573 1475 38.4057
54.2735 0 1
54.3896 0 1
54.5057 0 1
54.6217 0 1
54.7377 0 1
54.8537 0 1
54.9695 0 1
55.0853 0 1
55.2011 0 1
55.3168 0 1
55.4324 0 1
57.824 0 1
57.9396 0 1
58.0553 0 1
58.1711 0 1
58.2869 0 1
58.4028 0 1
58.5187 0 1
58.6347 0 1
58.7508 0 1
58.8669 0 1
58.983 1459 38.1969
59.0992 1612 40.1497
59.2155 1664 40.7922
59.3318 1711 41.3642
59.4482 1657 40.7063
59.5646 1753 41.8688
59.681 1722 41.497
59.7975 1667 40.8289
59.9141 1655 40.6817
60.0306 1589 39.8623
60.1473 1549 39.3573
60.2639 1384 37.2022
60.3807 1404 37.47
60.4974 1363 36.9188
60.6142 1397 37.3765
60.731 1428 37.7889
60.8479 1434 37.8682
60.9648 1529 39.1024
61.0818 1486 38.5487
61.1987 1579 39.7366
61.3158 1552 39.3954
61.4328 1436 37.8946
61.5499 1439 37.9342
61.667 1356 36.8239
61.7841 1270 35.6371
61.9013 1270 35.6371
62.0185 1297 36.0139
62.1357 1367 36.973
62.253 1379 37.1349
62.3702 1552 39.3954
62.4875 1581 39.7618
62.6049 1746 41.7852
62.7222 1654 40.6694
62.8396 1810 42.5441
62.9569 1779 42.1782
63.0743 1852 43.0349
63.1918 1858 43.1045
63.3092 1797 42.391
63.4267 1792 42.332
63.5441 1669 40.8534
63.6616 1623 40.2865
63.7791 1524 39.0384
63.8966 1530 39.1152
64.0142 1569 39.6106
64.1317 1543 39.281
64.2492 1593 39.9124
64.3668 1671 40.8779
64.4843 1683 41.0244
64.6019 1698 41.2068
64.7195 1755 41.8927
64.837 1752 41.8569
64.9546 1693 41.1461
65.0722 1604 40.05
65.1898 1508 38.833
65.3074 1420 37.6829
65.4249 1227 35.0286
65.5425 1193 34.5398
65.6601 1276 35.7211
65.7777 1429 37.8021
65.8952 1470 38.3406
66.0128 1599 39.9875
66.1304 1664 40.7922
66.2479 1689 41.0974
66.3655 1749 41.821
66.483 1850 43.0116
66.6005 1837 42.8602
66.718 1632 40.398
66.8355 1757 41.9166
66.953 1679 40.9756
67.0705 1595 39.9375
67.1879 1578 39.724
67.3054 1434 37.8682
67.4228 1389 37.2693
67.5402 1387 37.2424
67.6576 1358 36.8511
67.7749 1404 37.47
67.8923 1382 37.1753
68.0096 1455 38.1445
68.1269 1331 36.4829
68.2442 1516 38.9358
68.3614 1466 38.2884
68.4787 1477 38.4318
68.5958 1397 37.3765
68.713 1338 36.5787
68.8302 1160 34.0588
68.9473 1149 33.8969
69.0643 1008 31.749
69.1814 1038 32.218
69.2984 1104 33.2265
69.4154 1199 34.6266
69.5323 1320 36.3318
69.6492 1336 36.5513
69.7661 1490 38.6005
69.8829 1526 39.064
69.9997 1594 39.9249
70.1165 1484 38.5227
70.2332 1615 40.1871
70.3499 1603 40.0375
70.4665 1609 40.1123
70.5831 1546 39.3192
70.6996 1445 38.0132
70.8161 1421 37.6962
70.9326 1421 37.6962
71.049 1272 35.6651
71.1653 1202 34.6699
71.2817 1240 35.2136
71.3979 1188 34.4674
71.5141 1303 36.0971
71.6303 1304 36.1109
71.7464 1264 35.5528
71.8624 0 1
71.9784 0 1
72.0944 0 1
72.2102 0 1
72.3261 0 1
72.4418 0 1
72.5575 0 1
72.6732 0 1
75.1054 0 1
75.2209 0 1
75.3365 0 1
75.4521 0 1
75.5678 0 1
75.6835 0 1
75.7993 0 1
75.9151 0 1
76.031 0 1
76.147 1278 35.7491
76.263 1380 37.1484
76.3791 1292 35.9444
76.4952 1208 34.7563
76.6113 1232 35.0999
76.7276 1368 36.9865
76.8438 1409 37.5366
76.9601 1357 36.8375
77.0765 1372 37.0405
77.1929 1344 36.6606
77.3093 1446 38.0263
77.4258 1467 38.3014
77.5423 1409 37.5366
77.6589 1388 37.2559
77.7755 1134 33.6749
77.8921 1065 32.6343
78.0088 1031 32.1092
78.1256 970 31.1448
78.2423 937 30.6105
78.3591 1081 32.8786
78.4759 1242 35.242
78.5928 1288 35.8887
78.7097 1393 37.3229
78.8266 1377 37.108
78.9436 1573 39.6611
79.0606 1460 38.2099
79.1776 1526 39.064
79.2946 1509 38.8458
79.4117 1567 39.5854
79.5288 1533 39.1535
79.6459 1532 39.1408
79.7631 1320 36.3318
79.8802 1317 36.2905
79.9974 1265 35.5668
80.1147 1262 35.5246
80.2319 1229 35.0571
80.3491 1303 36.0971
80.4664 1291 35.9305
80.5837 1264 35.5528
80.701 1253 35.3977
80.8183 1338 36.5787
80.9357 1332 36.4966
81.053 1317 36.2905
81.1704 1323 36.3731
81.2877 1250 35.3553
81.4051 1149 33.8969
81.5225 967 31.0966
81.6399 928 30.4631
81.7573 839 28.9655
81.8747 797 28.2312
81.9922 904 30.0666
82.1096 1185 34.4238
82.227 1161 34.0735
82.3444 1291 35.9305
82.4619 1292 35.9444
82.5793 1418 37.6563
82.6967 1389 37.2693
82.8142 1378 37.1214
82.9316 1329 36.4555
83.049 1423 37.7227
83.1664 1295 35.9861
83.2838 1339 36.5923
83.4012 1208 34.7563
83.5186 1160 34.0588
83.636 1122 33.4963
83.7534 1115 33.3916
83.8708 1202 34.6699
83.9881 1165 34.1321
84.1055 1126 33.5559
84.2228 1137 33.7194
84.3401 1198 34.6121
84.4575 1172 34.2345
84.5747 1228 35.0428
84.692 1274 35.6931
84.8093 1211 34.7994
84.9265 1042 32.28
85.0437 896 29.9333
85.1609 882 29.6985
85.2781 772 27.7849
85.3952 757 27.5136
85.5123 808 28.4253
85.6294 937 30.6105
85.7465 1111 33.3317
85.8636 1239 35.1994
85.9806 1294 35.9722
86.0976 1429 37.8021
86.2145 1432 37.8418
86.3315 1506 38.8072
86.4484 1428 37.7889
86.5652 1480 38.4708
86.682 1577 39.7115
86.7988 1407 37.51
86.9156 1384 37.2022
87.0323 1308 36.1663
87.149 1338 36.5787
87.2657 1324 36.3868
87.3823 1310 36.1939
87.4988 1276 35.7211
87.6154 1335 36.5377
87.7318 1394 37.3363
87.8483 1336 36.5513
87.9647 1320 36.3318
88.081 1416 37.6298
88.1973 1449 38.0657
88.3136 1421 37.6962
88.4298 1304 36.1109
88.546 1132 33.6452
88.6621 1094 33.0757
88.7781 920 30.3315
88.8942 0 1
89.0101 0 1
89.126 0 1
89.2419 0 1
89.3577 0 1
89.4734 0 1
89.5891 0 1
89.7047 0 1
89.8203 0 1
89.9358 0 1
92.3269 0 1
92.4424 0 1
92.558 0 1
92.6736 0 1
92.7893 0 1
92.905 0 1
93.0208 0 1
93.1366 0 1
93.2525 0 1
93.3685 0 1
93.4845 0 1
93.6005 1453 38.1182
93.7167 1461 38.223
93.8328 1369 37
93.949 1396 37.3631
94.0653 1112 33.3467
94.1816 1007 31.7333
94.2979 924 30.3974
94.4143 868 29.4618
94.5307 903 30.05
94.6472 1009 31.7648
94.7637 1248 35.327
94.8803 1372 37.0405
94.9969 1459 38.1969
95.1135 1524 39.0384
95.2302 1517 38.9487
95.3469 1598 39.975
95.4637 1577 39.7115
95.5805 1633 40.4104
95.6973 1634 40.4228
95.8142 1716 41.4246
95.9311 1518 38.9615
96.048 1474 38.3927
96.1649 1480 38.4708
96.2819 1426 37.7624
96.3989 1468 38.3145
96.516 1474 38.3927
96.633 1476 38.4187
96.7501 1496 38.6782
96.8673 1484 38.5227
96.9844 1523 39.0256
97.1016 1521 39
97.2188 1527 39.0768
97.336 1516 38.9358
97.4532 1584 39.7995
97.5704 1568 39.598
97.6877 1307 36.1525
97.805 1107 33.2716
97.9223 953 30.8707
98.0396 917 30.282
98.1569 901 30.0167
98.2743 961 31
98.3916 1141 33.7787
98.509 1344 36.6606
98.6264 1456 38.1576
98.7438 1505 38.7943
98.8612 1538 39.2173
98.9786 1668 40.8412
99.096 1707 41.3159
99.2134 1632 40.398
99.3308 1696 41.1825
99.4482 1629 40.3609
99.5656 1672 40.8901
99.6831 1611 40.1373
99.8005 1525 39.0512
99.9179 1581 39.7618
100.035 1582 39.7744
100.153 1556 39.4462
100.27 1444 38
100.388 1501 38.7427
100.505 1567 39.5854
100.622 1599 39.9875
100.74 1567 39.5854
100.857 1583 39.7869
100.975 1627 40.3361
101.092 1513 38.8973
101.209 1406 37.4967
101.327 1290 35.9166
101.444 1093 33.0606
101.561 950 30.8221
101.679 882 29.6985
101.796 987 31.4166
101.913 1099 33.1512
102.03 1374 37.0675
102.148 1604 40.05
102.265 1549 39.3573
102.382 1770 42.0714
102.499 1690 41.1096
102.616 1772 42.0951
102.733 1906 43.6578
102.851 1775 42.1307
102.968 1756 41.9047
103.085 1870 43.2435
103.202 1761 41.9643
103.319 1702 41.2553
103.436 1721 41.4849
103.552 1674 40.9145
103.669 1685 41.0488
103.786 1588 39.8497
103.903 1593 39.9124
104.02 1616 40.1995
104.137 1596 39.95
104.253 1661 40.7554
104.37 1715 41.4126
104.487 1669 40.8534
104.603 1680 40.9878
104.72 1533 39.1535
104.836 1259 35.4824
104.953 1100 33.1662
105.069 979 31.289
105.186 1005 31.7017
105.302 1056 32.4962
105.418 1272 35.6651
105.535 1522 39.0128
105.651 1783 42.2256
105.767 1806 42.4971
105.883 1888 43.4511
105.999 1890 43.4741
106.115 0 1
106.231 0 1
106.347 0 1
106.463 0 1
106.579 0 1
106.694 0 1
106.81 0 1
106.926 0 1
107.041 0 1
107.157 0 1
109.576 0 1
109.692 0 1
109.807 0 1
109.923 0 1
110.039 0 1
110.155 0 1
110.27 0 1
110.386 0 1
110.502 0 1
110.618 1450 38.0789
110.735 1628 40.3485
110.851 1790 42.3084
110.967 1722 41.497
111.083 1776 42.1426
111.199 1773 42.107
111.316 1834 42.8252
111.432 1735 41.6533
111.549 1713 41.3884
111.665 1812 42.5676
111.782 1801 42.4382
111.898 1682 41.0122
112.015 1699 41.2189
112.132 1654 40.6694
112.248 1620 40.2492
112.365 1609 40.1123
112.482 1562 39.5221
112.599 1693 41.1461
112.716 1562 39.5221
112.832 1603 40.0375
112.949 1610 40.1248
113.066 1540 39.2428
113.183 1530 39.1152
113.3 1447 38.0395
113.417 1181 34.3657
113.534 1055 32.4808
113.652 943 30.7083
113.769 953 30.8707
113.886 1019 31.9218
114.003 1190 34.4964
114.12 1320 36.3318
114.238 1547 39.3319
114.355 1627 40.3361
114.472 1592 39.8999
114.589 1685 41.0488
114.707 1766 42.0238
114.824 1854 43.0581
114.942 1708 41.328
115.059 1748 41.8091
115.176 1730 41.5933
115.294 1647 40.5832
115.411 1770 42.0714
115.529 1602 40.025
115.646 1675 40.9268
115.764 1525 39.0512
115.881 1579 39.7366
115.999 1637 40.4599
116.116 1478 38.4448
116.234 1539 39.2301
116.351 1510 38.8587
116.469 1501 38.7427
116.586 1581 39.7618
116.704 1542 39.2683
116.821 1414 37.6032
116.939 1208 34.7563
117.056 1103 33.2114
117.174 1048 32.3728
117.291 987 31.4166
117.409 972 31.1769
117.526 1097 33.121
117.644 1246 35.2987
117.761 1435 37.8814
117.879 1575 39.6863
117.996 1597 39.9625
118.114 1716 41.4246
118.231 1684 41.0366
118.349 1641 40.5093
118.466 1710 41.3521
118.584 1705 41.2916
118.701 1716 41.4246
118.819 1727 41.5572
118.936 1718 41.4488
119.053 1607 40.0874
119.171 1558 39.4715
119.288 1535 39.1791
119.405 1492 38.6264
119.523 1521 39
119.64 1611 40.1373
119.757 1490 38.6005
119.875 1484 38.5227
119.992 1538 39.2173
120.109 1508 38.833
120.226 1540 39.2428
120.343 1443 37.9868
120.46 1414 37.6032
120.578 1269 35.623
120.695 1170 34.2053
120.812 1086 32.9545
120.929 999 31.607
121.046 1071 32.7261
121.163 1088 32.9848
121.279 1164 34.1174
121.396 1311 36.2077
121.513 1385 37.2156
121.63 1552 39.3954
121.747 1567 39.5854
121.863 1610 40.1248
121.98 1657 40.7063
122.097 1666 40.8167
122.213 1635 40.4351
122.33 1627 40.3361
122.446 1733 41.6293
122.563 1705 41.2916
122.679 1596 39.95
122.795 1584 39.7995
122.912 1577 39.7115
123.028 1453 38.1182
123.144 1507 38.8201
123.26 1344 36.6606
123.377 0 1
123.493 0 1
123.609 0 1
123.725 0 1
123.84 0 1
123.956 0 1
124.072 0 1
124.188 0 1
124.303 0 1
124.419 0 1
126.852 0 1
126.968 0 1
127.083 0 1
127.199 0 1
127.315 0 1
127.431 0 1
127.547 0 1
127.663 0 1
127.779 0 1
127.895 0 1
128.011 0 1
128.127 0 1
128.243 0 1
128.359 1757 41.9166
128.476 1640 40.4969
128.592 1678 40.9634
128.708 1596 39.95
128.825 1725 41.5331
128.941 1725 41.5331
129.058 1706 41.3038
129.174 1685 41.0488
129.291 1663 40.7799
129.408 1549 39.3573
129.524 1472 38.3667
129.641 1300 36.0555
129.758 1152 33.9411
129.875 1049 32.3883
129.992 1154 33.9706
130.108 1139 33.7491
130.225 1293 35.9583
130.342 1485 38.5357
130.459 1525 39.0512
130.576 1690 41.1096
130.693 1609 40.1123
130.81 1725 41.5331
130.928 1662 40.7676
131.045 1755 41.8927
131.162 1897 43.5546
131.279 1822 42.6849
131.396 1819 42.6497
131.513 1815 42.6028
131.631 1778 42.1663
131.748 1783 42.2256
131.865 1758 41.9285
131.983 1752 41.8569
132.1 1712 41.3763
132.217 1794 42.3556
132.335 1712 41.3763
132.452 1799 42.4146
132.57 1718 41.4488
132.687 1732 41.6173
132.804 1697 41.1947
132.922 1655 40.6817
133.039 1615 40.1871
133.157 1443 37.9868
133.274 1326 36.4143
133.392 1221 34.9428
133.509 1157 34.0147
133.627 1124 33.5261
133.744 1290 35.9166
133.862 1424 37.7359
133.979 1533 39.1535
134.097 1604 40.05
134.214 1587 39.8372
134.332 1619 40.2368
134.449 1684 41.0366
134.567 1839 42.8836
134.684 1953 44.1928
134.802 1839 42.8836
134.919 1815 42.6028
135.037 1883 43.3935
135.154 1920 43.8178
135.272 1784 42.2374
135.389 1866 43.1972
135.507 1824 42.7083
135.624 1790 42.3084
135.742 1778 42.1663
135.859 1840 42.8952
135.977 1780 42.19
136.094 1673 40.9023
136.211 1762 41.9762
136.329 1712 41.3763
136.446 1733 41.6293
136.564 1616 40.1995
136.681 1478 38.4448
136.798 1481 38.4838
136.915 1347 36.7015
137.033 1193 34.5398
137.15 1147 33.8674
137.267 1136 33.7046
137.384 1230 35.0714
137.502 1360 36.8782
137.619 1486 38.5487
137.736 1483 38.5097
137.853 1580 39.7492
137.97 1619 40.2368
138.087 1641 40.5093
138.204 1808 42.5206
138.321 1929 43.9204
138.438 1908 43.6807
138.555 1890 43.4741
138.672 1890 43.4741
138.788 1900 43.589
138.905 1874 43.2897
139.022 1839 42.8836
139.139 1815 42.6028
139.255 1802 42.45
139.372 1781 42.2019
139.488 1852 43.0349
139.605 1833 42.8135
139.721 1900 43.589
139.838 1730 41.5933
139.954 1803 42.4617
140.071 1803 42.4617
140.187 1712 41.3763
140.303 1658 40.7185
140.419 1455 38.1445
140.535 1338 36.5787
140.652 1240 35.2136
140.768 0 1
140.884 0 1
141 0 1
141.115 0 1
141.231 0 1
141.347 0 1
141.463 0 1
141.578 0 1
141.694 0 1
144.104 0 1
144.219 0 1
144.335 0 1
144.45 0 1
144.566 0 1
144.682 0 1
144.798 0 1
144.914 0 1
145.03 0 1
145.146 1204 34.6987
145.262 1329 36.4555
145.378 1253 35.3977
145.494 1226 35.0143
145.61 1121 33.4813
145.726 1074 32.7719
145.842 975 31.225
145.959 932 30.5287
146.075 931 30.5123
146.192 926 30.4302
146.308 1038 32.218
146.425 1050 32.4037
146.541 1143 33.8083
146.658 1170 34.2053
146.774 1298 36.0278
146.891 1286 35.8608
147.008 1428 37.7889
147.125 1418 37.6563
147.241 1493 38.6394
147.358 1443 37.9868
147.475 1473 38.3797
147.592 1498 38.704
147.709 1447 38.0395
147.826 1423 37.7227
147.943 1444 38
148.06 1366 36.9594
148.177 1325 36.4005
148.294 1383 37.1887
148.411 1364 36.9324
148.528 1359 36.8646
148.645 1423 37.7227
148.762 1433 37.855
148.88 1372 37.0405
148.997 1322 36.3593
149.114 1386 37.229
149.231 1251 35.3695
149.349 1163 34.1028
149.466 1138 33.7343
149.583 1096 33.1059
149.701 1044 32.311
149.818 996 31.5595
149.935 932 30.5287
150.053 934 30.5614
150.17 1030 32.0936
150.287 1072 32.7414
150.405 1238 35.1852
150.522 1239 35.1994
150.64 1315 36.2629
150.757 1387 37.2424
150.875 1436 37.8946
150.992 1436 37.8946
151.11 1395 37.3497
151.227 1377 37.108
151.344 1432 37.8418
151.462 1388 37.2559
151.579 1420 37.6829
151.697 1389 37.2693
151.814 1340 36.606
151.932 1414 37.6032
152.049 1344 36.6606
152.167 1382 37.1753
152.284 1354 36.7967
152.402 1374 37.0675
152.519 1455 38.1445
152.636 1421 37.6962
152.754 1311 36.2077
152.871 1349 36.7287
152.989 1142 33.7935
153.106 1135 33.6898
153.223 1064 32.619
153.341 1007 31.7333
153.458 942 30.692
153.575 985 31.3847
153.693 1011 31.7962
153.81 1076 32.8024
153.927 1182 34.3802
154.044 1279 35.7631
154.162 1401 37.4299
154.279 1401 37.4299
154.396 1496 38.6782
154.513 1482 38.4968
154.63 1619 40.2368
154.747 1511 38.8716
154.864 1522 39.0128
154.981 1593 39.9124
155.098 1592 39.8999
155.215 1531 39.128
155.332 1496 38.6782
155.449 1511 38.8716
155.566 1530 39.1152
155.683 1507 38.8201
155.8 1503 38.7685
155.917 1648 40.5956
156.033 1497 38.6911
156.15 0 1
156.267 0 1
156.383 0 1
156.5 0 1
156.617 0 1
156.733 0 1
156.85 0 1
156.966 0 1
157.082 0 1
157.199 0 1
157.315 0 1
157.431 0 1
157.547 0 1
157.664 0 1
157.78 0 1
157.896 0 1
158.012 0 1
158.128 0 1
158.244 0 1
158.359 0 1
158.475 0 1
158.591 0 1
158.706 0 1
