
6.15755 0 1
6.2731 0 1
6.3887 0 1
6.50437 0 1
6.62009 0 1
6.73587 0 1
6.8517 0 1
6.96759 0 1
7.08353 0 1
7.19952 0 1
7.31557 0 1
7.43166 0 1
7.54781 0 1
7.664 0 1
7.78024 0 1
7.89653 0 1
8.01286 0 1
8.12924 0 1
8.24567 0 1
8.36213 0 1
8.47864 0 1
8.59519 0 1
8.71178 0 1
8.82841 0 1
8.94508 0 1
9.06179 0 1
9.17853 0 1
9.29531 0 1
9.41212 0 1
9.52897 0 1
9.64584 0 1
9.76276 0 1
9.8797 0 1
9.99667 0 1
10.1137 0 1
10.2307 0 1
10.3478 0 1
10.4648 0 1
10.5819 0 1
10.6991 0 1
10.8162 0 1
10.9334 0 1
11.0506 0 1
11.1678 0 1
11.285 0 1
11.4023 0 1
11.5196 0 1
11.6369 0 1
11.7542 0 1
11.8715 0 1
11.9888 0 1
12.1062 0 1
12.2235 0 1
12.3409 0 1
12.4582 0 1
12.5756 0 1
12.693 0 1
12.8104 0 1
12.9278 0 1
13.0452 0 1
13.1626 0 1
13.28 0 1
13.3974 0 1
13.5149 0 1
13.6323 0 1
13.7497 0 1
13.8671 0 1
13.9845 0 1
14.1019 0 1
14.2193 0 1
14.3367 0 1
14.4541 0 1
14.5714 0 1
14.6888 0 1
14.8062 0 1
14.9235 0 1
15.0408 0 0
15.1581 0 0
15.2755 0 0
15.3927 0 0
15.51 0 0
15.6273 0 0
15.7445 0 0
15.8617 0 0
15.9789 0 0
16.0961 0 0
16.2132 0 0
16.3304 0 0
16.4475 0 0
16.5646 0 0
16.6816 0 0
16.7986 0 0
16.9156 0 0
17.0326 0 0
17.1496 0 0
17.2665 0 0
17.3833 0 0
17.5002 0 0
17.617 0 0
17.7338 0 0
17.8505 0 0
17.9672 0 0
18.0839 0 0
18.2005 0 0
18.3171 0 0
18.4337 0 0
18.5502 0 0
18.6666 0 0
18.7831 0 0
18.8994 0 0
19.0158 0 0
19.1321 0 0
19.2483 0 0
19.3645 0 0
19.4806 0 0
19.5967 0 0
19.7128 0 0
19.8288 0 0
19.9447 0 0
20.0606 0 1
20.1764 0 1
20.2922 0 1
20.4079 0 1
20.5236 0 1
20.6392 0 1
20.7548 0 1
20.8702 0 1
23.3078 0 1
23.4233 0 1
23.539 0 1
23.6547 0 1
23.7704 0 1
23.8862 0 1
24.0021 0 1
24.118 0 1
24.234 0 1
24.35 0 1
24.4661 1615 40.1871
24.5822 1671 40.8779
24.6984 1591 39.8873
24.8146 1530 39.1152
24.9309 1504 38.7814
25.0472 1497 38.6911
25.1636 1527 39.0768
25.28 1514 38.9102
25.3965 1734 41.6413
25.513 1714 41.4005
25.6296 1691 41.1218
25.7462 1859 43.1161
25.8628 1796 42.3792
25.9795 1869 43.2319
26.0962 1787 42.2729
26.213 1860 43.1277
26.3298 1844 42.9418
26.4466 1671 40.8779
26.5635 1726 41.5452
26.6804 1568 39.598
26.7973 1660 40.7431
26.9143 1665 40.8044
27.0313 1737 41.6773
27.1483 1739 41.7013
27.2653 1749 41.821
27.3824 1835 42.8369
27.4996 1761 41.9643
27.6167 1799 42.4146
27.7339 1698 41.2068
27.8511 1703 41.2674
27.9683 1620 40.2492
28.0855 1672 40.8901
28.2028 1567 39.5854
28.3201 1570 39.6232
28.4374 1481 38.4838
28.5547 1451 38.092
28.6721 1498 38.704
28.7894 1427 37.7757
28.9068 1512 38.8844
29.0242 1623 40.2865
29.1416 1709 41.3401
29.259 1704 41.2795
29.3764 1669 40.8534
29.4939 1742 41.7373
29.6113 1697 41.1947
29.7288 1690 41.1096
29.8463 1698 41.2068
29.9638 1693 41.1461
30.0812 1536 39.1918
30.1987 1494 38.6523
30.3162 1511 38.8716
30.4337 1649 40.6079
30.5512 1621 40.2616
30.6687 1592 39.8999
30.7862 1758 41.9285
30.9037 1732 41.6173
31.0212 1774 42.1189
31.1387 1763 41.9881
31.2562 1726 41.5452
31.3737 1627 40.3361
31.4912 1634 40.4228
31.6087 1612 40.1497
31.7262 1626 40.3237
31.8436 1595 39.9375
31.9611 1459 38.1969
32.0785 1482 38.4968
32.1959 1453 38.1182
32.3134 1536 39.1918
32.4308 1567 39.5854
32.5482 1614 40.1746
32.6655 1698 41.2068
32.7829 1790 42.3084
32.9002 1781 42.2019
33.0176 1806 42.4971
33.1349 1738 41.6893
33.2522 1751 41.845
33.3694 1770 42.0714
33.4867 1596 39.95
33.6039 1702 41.2553
33.7211 1636 40.4475
33.8383 1553 39.4081
33.9554 1584 39.7995
34.0725 1590 39.8748
34.1896 1640 40.4969
34.3067 1648 40.5956
34.4237 1650 40.6202
34.5407 1755 41.8927
34.6577 1738 41.6893
34.7746 1736 41.6653
34.8915 1806 42.4971
35.0084 1724 41.5211
35.1252 1715 41.4126
35.242 1727 41.5572
35.3587 1684 41.0366
35.4755 1635 40.4351
35.5921 1544 39.2938
35.7088 1547 39.3319
35.8254 1436 37.8946
35.9419 1450 38.0789
36.0584 1505 38.7943
36.1749 1582 39.7744
36.2913 1617 40.2119
36.4077 1688 41.0853
36.524 1770 42.0714
36.6403 1764 42
36.7565 1759 41.9404
36.8727 1748 41.8091
36.9889 1755 41.8927
37.1049 1650 40.6202
37.221 0 1
37.3369 0 1
37.4529 0 1
37.5687 0 1
37.6845 0 1
37.8003 0 1
37.916 0 1
38.0316 0 1
38.1472 0 1
40.5851 0 1
40.7008 0 1
40.8164 0 1
40.9322 0 1
41.048 0 1
41.1639 0 1
41.2798 0 1
41.3958 0 1
41.5118 0 1
41.6279 0 1
41.744 1377 37.108
41.8602 1519 38.9744
41.9765 1467 38.3014
42.0928 1519 38.9744
42.2091 1512 38.8844
42.3255 1496 38.6782
42.4419 1364 36.9324
42.5584 1401 37.4299
42.675 1268 35.609
42.7915 1314 36.2491
42.9081 1382 37.1753
43.0248 1465 38.2753
43.1415 1481 38.4838
43.2582 1446 38.0263
43.375 1399 37.4032
43.4918 1511 38.8716
43.6087 1452 38.1051
43.7256 1398 37.3898
43.8425 1483 38.5097
43.9595 1362 36.9053
44.0765 1349 36.7287
44.1935 1288 35.8887
44.3106 1264 35.5528
44.4277 1261 35.5106
44.5448 1168 34.176
44.6619 1077 32.8177
44.7791 1067 32.665
44.8963 1134 33.6749
45.0136 1161 34.0735
45.1308 1299 36.0416
45.2481 1308 36.1663
45.3654 1278 35.7491
45.4827 1225 35
45.6001 1305 36.1248
45.7174 1248 35.327
45.8348 1282 35.805
45.9522 1250 35.3553
46.0697 1110 33.3167
46.1871 1044 32.311
46.3046 1086 32.9545
46.422 1125 33.541
46.5395 1180 34.3511
46.657 1196 34.5832
46.7745 1167 34.1614
46.892 1183 34.3948
47.0096 1173 34.2491
47.1271 1195 34.5688
47.2446 1198 34.6121
47.3622 1135 33.6898
47.4797 1159 34.0441
47.5973 1101 33.1813
47.7149 1082 32.8938
47.8324 1054 32.4654
47.95 968 31.1127
48.0675 897 29.95
48.1851 876 29.5973
48.3027 821 28.6531
48.4202 891 29.8496
48.5378 941 30.6757
48.6554 946 30.7571
48.7729 1009 31.7648
48.8904 1108 33.2866
49.008 1108 33.2866
49.1255 1087 32.9697
49.243 1092 33.0454
49.3605 1049 32.3883
49.478 1047 32.3574
49.5955 979 31.289
49.713 1012 31.8119
49.8304 941 30.6757
49.9479 935 30.5778
50.0653 1070 32.7109
50.1827 1236 35.1568
50.3001 1139 33.7491
50.4175 1193 34.5398
50.5348 1228 35.0428
50.6521 1257 35.4542
50.7694 1282 35.805
50.8867 1285 35.8469
51.004 1371 37.027
51.1212 1278 35.7491
51.2384 1296 36
51.3556 1244 35.2704
51.4727 1223 34.9714
51.5899 1180 34.3511
51.707 1122 33.4963
51.824 1147 33.8674
51.9411 1265 35.5668
52.0581 1343 36.647
52.175 1458 38.1838
52.2919 1399 37.4032
52.4088 1498 38.704
52.5257 1528 39.0896
52.6425 1600 40
52.7593 1613 40.1622
52.876 1610 40.1248
52.9927 1608 40.0999
53.1094 1527 39.0768
53.226 1532 39.1408
53.3426 1460 38.2099
53.4591 1549 39.3573
53.5756 1598 39.975
53.692 1607 40.0874
53.8084 1647 40.5832
53.9248 1749 41.821
54.0411 1758 41.9285
54.1573 1835 42.8369
54.2735 0 1
54.3896 0 1
54.5057 0 1
54.6217 0 1
54.7377 0 1
54.8537 0 1
54.9695 0 1
55.0853 0 1
55.2011 0 1
55.3168 0 1
55.4324 0 1
57.824 0 1
57.9396 0 1
58.0553 0 1
58.1711 0 1
58.2869 0 1
58.4028 0 1
58.5187 0 1
58.6347 0 1
58.7508 0 1
58.8669 0 1
58.983 2116 46
59.0992 2220 47.1169
59.2155 2259 47.5289
59.3318 2216 47.0744
59.4482 2232 47.244
59.5646 2238 47.3075
59.681 2305 48.0104
59.7975 2247 47.4025
59.9141 2171 46.594
60.0306 2114 45.9783
60.1473 1994 44.6542
60.2639 1769 42.0595
60.3807 1668 40.8412
60.4974 1672 40.8901
60.6142 1781 42.2019
60.731 1873 43.2782
60.8479 1940 44.0454
60.9648 2135 46.2061
61.0818 2065 45.4423
61.1987 2186 46.7547
61.3158 2213 47.0425
61.4328 2099 45.8148
61.5499 2062 45.4093
61.667 1939 44.0341
61.7841 1940 44.0454
61.9013 1958 44.2493
62.0185 1988 44.587
62.1357 1925 43.8748
62.253 2121 46.0543
62.3702 2034 45.0999
62.4875 2147 46.3357
62.6049 2200 46.9042
62.7222 2167 46.551
62.8396 2195 46.8508
62.9569 2318 48.1456
63.0743 2282 47.7703
63.1918 2219 47.1063
63.3092 2179 46.6798
63.4267 2071 45.5082
63.5441 1967 44.3509
63.6616 1902 43.6119
63.7791 1736 41.6653
63.8966 1621 40.2616
64.0142 1573 39.6611
64.1317 1658 40.7185
64.2492 1782 42.2137
64.3668 1964 44.317
64.4843 2072 45.5192
64.6019 2138 46.2385
64.7195 2002 44.7437
64.837 2184 46.7333
64.9546 2153 46.4004
65.0722 2079 45.5961
65.1898 2071 45.5082
65.3074 2054 45.3211
65.4249 1934 43.9773
65.5425 1849 43
65.6601 1886 43.4281
65.7777 1969 44.3734
65.8952 2088 45.6946
66.0128 2062 45.4093
66.1304 2237 47.2969
66.2479 2300 47.9583
66.3655 2294 47.8957
66.483 2316 48.1248
66.6005 2314 48.1041
66.718 2315 48.1144
66.8355 2297 47.927
66.953 2283 47.7807
67.0705 2118 46.0217
67.1879 1993 44.643
67.3054 1914 43.7493
67.4228 1729 41.5812
67.5402 1533 39.1535
67.6576 1683 41.0244
67.7749 1708 41.328
67.8923 1888 43.4511
68.0096 2001 44.7325
68.1269 2184 46.7333
68.2442 2192 46.8188
68.3614 2176 46.6476
68.4787 2305 48.0104
68.5958 2314 48.1041
68.713 2315 48.1144
68.8302 2397 48.9592
68.9473 2203 46.9361
69.0643 2206 46.9681
69.1814 2115 45.9891
69.2984 2099 45.8148
69.4154 2083 45.6399
69.5323 2360 48.5798
69.6492 2417 49.163
69.7661 2466 49.6588
69.8829 2535 50.3488
69.9997 2612 51.1077
70.1165 2642 51.4004
70.2332 2611 51.0979
70.3499 2704 52
70.4665 2530 50.2991
70.5831 2510 50.0999
70.6996 2404 49.0306
70.8161 2258 47.5184
70.9326 2292 47.8748
71.049 1903 43.6234
71.1653 1814 42.5911
71.2817 1745 41.7732
71.3979 1764 42
71.5141 1804 42.4735
71.6303 1977 44.4635
71.7464 2021 44.9555
71.8624 0 1
71.9784 0 1
72.0944 0 1
72.2102 0 1
72.3261 0 1
72.4418 0 1
72.5575 0 1
72.6732 0 1
75.1054 0 1
75.2209 0 1
75.3365 0 1
75.4521 0 1
75.5678 0 1
75.6835 0 1
75.7993 0 1
75.9151 0 1
76.031 0 1
76.147 2355 48.5283
76.263 2453 49.5278
76.3791 2262 47.5605
76.4952 1996 44.6766
76.6113 1915 43.7607
76.7276 2061 45.3982
76.8438 2146 46.3249
76.9601 2363 48.6107
77.0765 2779 52.7162
77.1929 2798 52.8961
77.3093 2846 53.3479
77.4258 3046 55.1906
77.5423 2884 53.7029
77.6589 2872 53.591
77.7755 2844 53.3292
77.8921 3015 54.909
78.0088 2740 52.345
78.1256 2621 51.1957
78.2423 2659 51.5655
78.3591 2617 51.1566
78.4759 2506 50.06
78.5928 2715 52.1057
78.7097 2942 54.2402
78.8266 3159 56.205
78.9436 2880 53.6656
79.0606 3074 55.4437
79.1776 3050 55.2268
79.2946 3250 57.0088
79.4117 3199 56.5597
79.5288 3103 55.7046
79.6459 3067 55.3805
79.7631 3009 54.8544
79.8802 2869 53.563
79.9974 2558 50.5767
80.1147 2184 46.7333
80.2319 2118 46.0217
80.3491 2213 47.0425
80.4664 2297 47.927
80.5837 2586 50.8527
80.701 2847 53.3573
80.8183 2977 54.5619
80.9357 3001 54.7814
81.053 3123 55.8838
81.1704 3186 56.4447
81.2877 3178 56.3738
81.4051 3087 55.5608
81.5225 3074 55.4437
81.6399 2856 53.4416
81.7573 2966 54.461
81.8747 2717 52.1249
81.9922 2732 52.2685
82.1096 2767 52.6023
82.227 2903 53.8795
82.3444 3035 55.0908
82.4619 3110 55.7674
82.5793 3169 56.2939
82.6967 3279 57.2626
82.8142 3394 58.258
82.9316 3180 56.3915
83.049 3366 58.0172
83.1664 3163 56.2406
83.2838 3039 55.1271
83.4012 3083 55.5248
83.5186 2947 54.2863
83.636 2660 51.5752
83.7534 2309 48.0521
83.8708 2179 46.6798
83.9881 2097 45.793
84.1055 2335 48.3218
84.2228 2663 51.6043
84.3401 2906 53.9073
84.4575 3072 55.4256
84.5747 3188 56.4624
84.692 3370 58.0517
84.8093 3423 58.5064
84.9265 3414 58.4294
85.0437 3331 57.7148
85.1609 3248 56.9912
85.2781 3201 56.5774
85.3952 3060 55.3173
85.5123 3079 55.4887
85.6294 3085 55.5428
85.7465 3231 56.8419
85.8636 3349 57.8705
85.9806 3503 59.1861
86.0976 3631 60.2578
86.2145 3661 60.5062
86.3315 3788 61.5467
86.4484 4074 63.8279
86.5652 4011 63.3325
86.682 4083 63.8984
86.7988 3942 62.7853
86.9156 3874 62.2415
87.0323 3787 61.5386
87.149 3641 60.3407
87.2657 3327 57.6802
87.3823 2938 54.2033
87.4988 2862 53.4977
87.6154 2958 54.3875
87.7318 3268 57.1664
87.8483 3776 61.4492
87.9647 4200 64.8074
88.081 4273 65.3682
88.1973 4540 67.3795
88.3136 4346 65.9242
88.4298 4450 66.7083
88.546 4450 66.7083
88.6621 4384 66.2118
88.7781 4262 65.284
88.8942 0 1
89.0101 0 1
89.126 0 1
89.2419 0 1
89.3577 0 1
89.4734 0 1
89.5891 0 1
89.7047 0 1
89.8203 0 1
89.9358 0 1
92.3269 0 1
92.4424 0 1
92.558 0 1
92.6736 0 1
92.7893 0 1
92.905 0 1
93.0208 0 1
93.1366 0 1
93.2525 0 1
93.3685 0 1
93.4845 0 1
93.6005 4789 69.2026
93.7167 4886 69.8999
93.8328 5087 71.3232
93.949 4895 69.9643
94.0653 5067 71.1829
94.1816 4910 70.0714
94.2979 4785 69.1737
94.4143 4647 68.1689
94.5307 4538 67.3647
94.6472 4561 67.5352
94.7637 4472 66.873
94.8803 4709 68.6222
94.9969 4772 69.0797
95.1135 4982 70.5833
95.2302 5196 72.0833
95.3469 5321 72.9452
95.4637 5321 72.9452
95.5805 5515 74.263
95.6973 5578 74.686
95.8142 5485 74.0608
95.9311 5434 73.7157
96.048 5274 72.6223
96.1649 5047 71.0422
96.2819 4923 70.1641
96.3989 4648 68.1762
96.516 4138 64.3273
96.633 3854 62.0806
96.7501 3768 61.384
96.8673 4002 63.2614
96.9844 4450 66.7083
97.1016 4812 69.3686
97.2188 5440 73.7564
97.336 5650 75.1665
97.4532 5870 76.6159
97.5704 5906 76.8505
97.6877 5750 75.8288
97.805 5724 75.6571
97.9223 5449 73.8173
98.0396 5395 73.4507
98.1569 5248 72.4431
98.2743 5122 71.5681
98.3916 5131 71.631
98.509 5169 71.8958
98.6264 5115 71.5192
98.7438 5500 74.162
98.8612 5725 75.6637
98.9786 5931 77.013
99.096 5973 77.2852
99.2134 6101 78.1089
99.3308 6064 77.8717
99.4482 6219 78.8606
99.5656 6026 77.6273
99.6831 6043 77.7367
99.8005 5727 75.6769
99.9179 5397 73.4643
100.035 5276 72.6361
100.153 4759 68.9855
100.27 4340 65.8787
100.388 4528 67.2904
100.505 4823 69.4478
100.622 5572 74.6458
100.74 6005 77.4919
100.857 6132 78.3071
100.975 6174 78.5748
101.092 6313 79.4544
101.209 6376 79.8499
101.327 6355 79.7183
101.444 6347 79.6681
101.561 6172 78.5621
101.679 6208 78.7909
101.796 5963 77.2205
101.913 5718 75.6175
102.03 5709 75.5579
102.148 5943 77.0909
102.265 6392 79.95
102.382 5969 77.2593
102.499 6554 80.9568
102.616 6590 81.1788
102.733 6775 82.3104
102.851 6966 83.4626
102.968 6838 82.6922
103.085 6803 82.4803
103.202 6650 81.5475
103.319 6536 80.8455
103.436 6226 78.905
103.552 5889 76.7398
103.669 5420 73.6206
103.786 4823 69.4478
103.903 4907 70.05
104.02 5189 72.0347
104.137 6018 77.5758
104.253 6711 81.9207
104.37 6750 82.1584
104.487 7053 83.9821
104.603 7135 84.4689
104.72 7064 84.0476
104.836 7168 84.664
104.953 7077 84.1249
105.069 6764 82.2435
105.186 6671 81.6762
105.302 6583 81.1357
105.418 6509 80.6784
105.535 6514 80.7094
105.651 6558 80.9815
105.767 6781 82.3468
105.883 6958 83.4146
105.999 7409 86.0755
106.115 0 1
106.231 0 1
106.347 0 1
106.463 0 1
106.579 0 1
106.694 0 1
106.81 0 1
106.926 0 1
107.041 0 1
107.157 0 1
109.576 0 1
109.692 0 1
109.807 0 1
109.923 0 1
110.039 0 1
110.155 0 1
110.27 0 1
110.386 0 1
110.502 0 1
110.618 6119 78.224
110.735 6244 79.019
110.851 6272 79.196
110.967 6620 81.3634
111.083 6702 81.8657
111.199 6817 82.5651
111.316 7049 83.9583
111.432 6873 82.9036
111.549 6759 82.2131
111.665 6695 81.823
111.782 6345 79.6555
111.898 6070 77.9102
112.015 5849 76.4788
112.132 5299 72.7942
112.248 4754 68.9493
112.365 4503 67.1044
112.482 4800 69.282
112.599 5320 72.9383
112.716 5827 76.3348
112.832 6246 79.0316
112.949 6120 78.2304
113.066 6311 79.4418
113.183 6224 78.8923
113.3 6148 78.4092
113.417 6117 78.2113
113.534 5882 76.6942
113.652 5596 74.8064
113.769 5551 74.505
113.886 5376 73.3212
114.003 5188 72.0278
114.12 5229 72.3118
114.238 5452 73.8377
114.355 5491 74.1013
114.472 5628 75.02
114.589 5670 75.2994
114.707 5783 76.046
114.824 5682 75.379
114.942 5718 75.6175
115.059 5897 76.7919
115.176 5813 76.243
115.294 5618 74.9533
115.411 5334 73.0342
115.529 5386 73.3894
115.646 4871 69.7925
115.764 4440 66.6333
115.881 4147 64.3972
115.999 4174 64.6065
116.116 4470 66.8581
116.234 4863 69.7352
116.351 5447 73.8038
116.469 5720 75.6307
116.586 5707 75.5447
116.704 5669 75.2928
116.821 5835 76.3872
116.939 5621 74.9733
117.056 5740 75.7628
117.174 5408 73.5391
117.291 5411 73.5595
117.409 5201 72.118
117.526 5071 71.211
117.644 5193 72.0625
117.761 5280 72.6636
117.879 5299 72.7942
117.996 5202 72.1249
118.114 5444 73.7835
118.231 5708 75.5513
118.349 5494 74.1215
118.466 5707 75.5447
118.584 5668 75.2861
118.701 5686 75.4056
118.819 5626 75.0067
118.936 5440 73.7564
119.053 5351 73.1505
119.171 5068 71.1899
119.288 4785 69.1737
119.405 4297 65.5515
119.523 3972 63.0238
119.64 4026 63.4508
119.757 4252 65.2074
119.875 4730 68.775
119.992 5187 72.0208
120.109 5274 72.6223
120.226 5398 73.4711
120.343 5444 73.7835
120.46 5492 74.108
120.578 5414 73.5799
120.695 5330 73.0068
120.812 5325 72.9726
120.929 5159 71.8262
121.046 5041 71
121.163 4891 69.9357
121.279 4899 69.9929
121.396 4833 69.5198
121.513 4950 70.3562
121.63 4907 70.05
121.747 4996 70.6824
121.863 5271 72.6017
121.98 5167 71.8818
122.097 5338 73.0616
122.213 5338 73.0616
122.33 5237 72.3671
122.446 5330 73.0068
122.563 5267 72.5741
122.679 5067 71.1829
122.795 4911 70.0785
122.912 4787 69.1881
123.028 4471 66.8655
123.144 4092 63.9687
123.26 3824 61.8385
123.377 0 1
123.493 0 1
123.609 0 1
123.725 0 1
123.84 0 1
123.956 0 1
124.072 0 1
124.188 0 1
124.303 0 1
124.419 0 1
126.852 0 1
126.968 0 1
127.083 0 1
127.199 0 1
127.315 0 1
127.431 0 1
127.547 0 1
127.663 0 1
127.779 0 1
127.895 0 1
128.011 0 1
128.127 0 1
128.243 0 1
128.359 4400 66.3325
128.476 4179 64.6452
128.592 4030 63.4823
128.708 4394 66.2873
128.825 4974 70.5266
128.941 5384 73.3757
129.058 5455 73.858
129.174 5535 74.3976
129.291 5640 75.0999
129.408 5654 75.1931
129.524 5542 74.4446
129.641 5518 74.2832
129.758 5463 73.9121
129.875 5329 73
129.992 5280 72.6636
130.108 5022 70.8661
130.225 5164 71.861
130.342 5156 71.8053
130.459 5095 71.3793
130.576 5214 72.208
130.693 5353 73.1642
130.81 5301 72.808
130.928 5442 73.7699
131.045 5398 73.4711
131.162 5461 73.8986
131.279 5602 74.8465
131.396 5349 73.1369
131.513 5187 72.0208
131.631 5086 71.3162
131.748 4962 70.4415
131.865 4624 68
131.983 4190 64.7302
132.1 4125 64.2262
132.217 4179 64.6452
132.335 4528 67.2904
132.452 4913 70.0928
132.57 4984 70.5975
132.687 5109 71.4773
132.804 5322 72.952
132.922 5223 72.2703
133.039 5237 72.3671
133.157 5348 73.13
133.274 5112 71.4983
133.392 5151 71.7705
133.509 5021 70.859
133.627 4979 70.562
133.744 4947 70.3349
133.862 4736 68.8186
133.979 4934 70.2424
134.097 4832 69.5126
134.214 5024 70.8802
134.332 4981 70.5762
134.449 5021 70.859
134.567 4924 70.1712
134.684 5082 71.2881
134.802 5114 71.5122
134.919 5228 72.3049
135.037 5113 71.5052
135.154 4954 70.3847
135.272 4861 69.7209
135.389 4606 67.8675
135.507 4120 64.1872
135.624 3836 61.9355
135.742 3832 61.9032
135.859 3983 63.111
135.977 4332 65.8179
136.094 4839 69.5629
136.211 5163 71.854
136.329 5017 70.8308
136.446 5087 71.3232
136.564 5032 70.9366
136.681 5161 71.8401
136.798 5081 71.2811
136.915 5055 71.0985
137.033 4928 70.1997
137.15 4718 68.6877
137.267 4769 69.0579
137.384 4704 68.5857
137.502 4567 67.5796
137.619 4825 69.4622
137.736 4899 69.9929
137.853 4679 68.4032
137.97 4702 68.5711
138.087 4881 69.8642
138.204 4967 70.4769
138.321 4874 69.814
138.438 5090 71.3442
138.555 5065 71.1688
138.672 4977 70.5479
138.788 4818 69.4118
138.905 4655 68.2276
139.022 4636 68.0882
139.139 4279 65.4141
139.255 3891 62.3779
139.372 3882 62.3057
139.488 3955 62.8888
139.605 4411 66.4154
139.721 4671 68.3447
139.838 4935 70.2496
139.954 5036 70.9648
140.071 4866 69.7567
140.187 5062 71.1477
140.303 4929 70.2068
140.419 4977 70.5479
140.535 4861 69.7209
140.652 4691 68.4909
140.768 0 1
140.884 0 1
141 0 1
141.115 0 1
141.231 0 1
141.347 0 1
141.463 0 1
141.578 0 1
141.694 0 1
144.104 0 1
144.219 0 1
144.335 0 1
144.45 0 1
144.566 0 1
144.682 0 1
144.798 0 1
144.914 0 1
145.03 0 1
145.146 4216 64.9307
145.262 4209 64.8768
145.378 4173 64.5988
145.494 4278 65.4064
145.61 4180 64.6529
145.726 4042 63.5767
145.842 4034 63.5138
145.959 3900 62.45
146.075 4007 63.3009
146.192 3872 62.2254
146.308 4069 63.7887
146.425 3846 62.0161
146.541 4041 63.5689
146.658 4063 63.7417
146.774 3890 62.3699
146.891 3913 62.554
147.008 4005 63.2851
147.125 4183 64.6761
147.241 3999 63.2376
147.358 4006 63.293
147.475 3971 63.0159
147.592 3689 60.7371
147.709 3583 59.8582
147.826 3233 56.8595
147.943 3043 55.1634
148.06 3173 56.3294
148.177 3482 59.0085
148.294 3653 60.4401
148.411 3913 62.554
148.528 3959 62.9206
148.645 3914 62.562
148.762 3847 62.0242
148.88 3977 63.0635
148.997 3885 62.3298
149.114 4015 63.364
149.231 3943 62.7933
149.349 3860 62.1289
149.466 3644 60.3656
149.583 3625 60.208
149.701 3563 59.6909
149.818 3521 59.338
149.935 3633 60.2744
150.053 3639 60.3241
150.17 3622 60.1831
150.287 3680 60.663
150.405 3716 60.959
150.522 3866 62.1772
150.64 3780 61.4817
150.757 3777 61.4573
150.875 3781 61.4898
150.992 3826 61.8547
151.11 3728 61.0574
151.227 3512 59.2621
151.344 3290 57.3585
151.462 3090 55.5878
151.579 2985 54.6352
151.697 3206 56.6216
151.814 3407 58.3695
151.932 3621 60.1747
152.049 3820 61.8061
152.167 3853 62.0725
152.284 3975 63.0476
152.402 3862 62.145
152.519 3970 63.0079
152.636 3959 62.9206
152.754 3765 61.3596
152.871 3643 60.3573
152.989 3696 60.7947
153.106 3584 59.8665
153.223 3549 59.5735
153.341 3496 59.127
153.458 3506 59.2115
153.575 3528 59.397
153.693 3580 59.8331
153.81 3570 59.7495
153.927 3689 60.7371
154.044 3637 60.3075
154.162 3698 60.8112
154.279 3819 61.7981
154.396 3853 62.0725
154.513 3930 62.6897
154.63 3784 61.5142
154.747 3747 61.2127
154.864 3547 59.5567
154.981 3449 58.7282
155.098 3336 57.7581
155.215 3200 56.5685
155.332 3384 58.1722
155.449 3478 58.9746
155.566 3708 60.8933
155.683 3728 61.0574
155.8 3854 62.0806
155.917 3916 62.578
156.033 3830 61.887
156.15 0 1
156.267 0 1
156.383 0 1
156.5 0 1
156.617 0 1
156.733 0 1
156.85 0 1
156.966 0 1
157.082 0 1
157.199 0 1
157.315 0 1
157.431 0 1
157.547 0 1
157.664 0 1
157.78 0 1
157.896 0 1
158.012 0 1
158.128 0 1
158.244 0 1
158.359 0 1
158.475 0 1
158.591 0 1
158.706 0 1
