
6.15755 0 1
6.2731 0 1
6.3887 0 1
6.50437 0 1
6.62009 0 1
6.73587 0 1
6.8517 0 1
6.96759 0 1
7.08353 0 1
7.19952 0 1
7.31557 0 1
7.43166 0 1
7.54781 0 1
7.664 0 1
7.78024 0 1
7.89653 0 1
8.01286 0 1
8.12924 0 1
8.24567 0 1
8.36213 0 1
8.47864 0 1
8.59519 0 1
8.71178 0 1
8.82841 0 1
8.94508 0 1
9.06179 0 1
9.17853 0 1
9.29531 0 1
9.41212 0 1
9.52897 0 1
9.64584 0 1
9.76276 0 1
9.8797 0 1
9.99667 0 1
10.1137 0 1
10.2307 0 1
10.3478 0 1
10.4648 0 1
10.5819 0 1
10.6991 0 1
10.8162 0 1
10.9334 0 1
11.0506 0 1
11.1678 0 1
11.285 0 1
11.4023 0 1
11.5196 0 1
11.6369 0 1
11.7542 0 1
11.8715 0 1
11.9888 0 1
12.1062 0 1
12.2235 0 1
12.3409 0 1
12.4582 0 1
12.5756 0 1
12.693 0 1
12.8104 0 1
12.9278 0 1
13.0452 0 1
13.1626 0 1
13.28 0 1
13.3974 0 1
13.5149 0 1
13.6323 0 1
13.7497 0 1
13.8671 0 1
13.9845 0 1
14.1019 0 1
14.2193 0 1
14.3367 0 1
14.4541 0 1
14.5714 0 1
14.6888 0 1
14.8062 0 1
14.9235 0 1
15.0408 29060 170.47
15.1581 30149 173.635
15.2755 30667 175.12
15.3927 31150 176.494
15.51 30555 174.8
15.6273 30335 174.169
15.7445 29599 172.044
15.8617 29618 172.099
15.9789 29924 172.986
16.0961 30677 175.149
16.2132 31643 177.885
16.3304 31882 178.555
16.4475 32730 180.914
16.5646 33086 181.896
16.6816 33681 183.524
16.7986 34055 184.54
16.9156 34414 185.51
17.0326 35094 187.334
17.1496 35035 187.176
17.2665 35898 189.468
17.3833 35399 188.146
17.5002 35423 188.21
17.617 35760 189.103
17.7338 35496 188.404
17.8505 35068 187.265
17.9672 34926 186.885
18.0839 34786 186.51
18.2005 34657 186.164
18.3171 35445 188.268
18.4337 36102 190.005
18.5502 37236 192.966
18.6666 37858 194.571
18.7831 38361 195.86
18.8994 37951 194.81
19.0158 37398 193.386
19.1321 36307 190.544
19.2483 34788 186.515
19.3645 33727 183.649
19.4806 32658 180.715
19.5967 32069 179.078
19.7128 31464 177.381
19.8288 29489 171.724
19.9447 25831 160.72
20.0606 0 1
20.1764 0 1
20.2922 0 1
20.4079 0 1
20.5236 0 1
20.6392 0 1
20.7548 0 1
20.8702 0 1
23.3078 0 1
23.4233 0 1
23.539 0 1
23.6547 0 1
23.7704 0 1
23.8862 0 1
24.0021 0 1
24.118 0 1
24.234 0 1
24.35 0 1
24.4661 21155 145.448
24.5822 24889 157.762
24.6984 28338 168.339
24.8146 32327 179.797
24.9309 35149 187.481
25.0472 37992 194.915
25.1636 40026 200.065
25.28 42107 205.2
25.3965 44541 211.047
25.513 47157 217.157
25.6296 48873 221.072
25.7462 49716 222.971
25.8628 50612 224.971
25.9795 50970 225.765
26.0962 50754 225.286
26.213 51187 226.245
26.3298 51157 226.179
26.4466 50460 224.633
26.5635 50828 225.451
26.6804 50419 224.542
26.7973 51301 226.497
26.9143 51257 226.4
27.0313 53322 230.916
27.1483 54594 233.654
27.2653 56730 238.181
27.3824 57123 239.004
27.4996 57670 240.146
27.6167 56474 237.643
27.7339 55413 235.4
27.8511 54113 232.622
27.9683 53284 230.833
28.0855 52830 229.848
28.2028 52965 230.141
28.3201 53373 231.026
28.4374 52752 229.678
28.5547 52647 229.449
28.6721 52441 229
28.7894 52190 228.451
28.9068 52277 228.642
29.0242 52380 228.867
29.1416 53001 230.219
29.259 52709 229.584
29.3764 52899 229.998
29.4939 52686 229.534
29.6113 52823 229.833
29.7288 53418 231.123
29.8463 54478 233.405
29.9638 54434 233.311
30.0812 54465 233.377
30.1987 54576 233.615
30.3162 55729 236.07
30.4337 56935 238.611
30.5512 58934 242.763
30.6687 60476 245.919
30.7862 61308 247.605
30.9037 63080 251.157
31.0212 63170 251.336
31.1387 62135 249.269
31.2562 61047 247.077
31.3737 60531 246.03
31.4912 59218 243.347
31.6087 58731 242.345
31.7262 59111 243.128
31.8436 59950 244.847
31.9611 59181 243.271
32.0785 58643 242.163
32.1959 58097 241.033
32.3134 57659 240.123
32.4308 57837 240.493
32.5482 58788 242.462
32.6655 58847 242.584
32.7829 59222 243.356
32.9002 59092 243.088
33.0176 59357 243.633
33.1349 59441 243.805
33.2522 59378 243.676
33.3694 60300 245.561
33.4867 61255 247.497
33.6039 61906 248.809
33.7211 62736 250.472
33.8383 62874 250.747
33.9554 63015 251.028
34.0725 64983 254.918
34.1896 66765 258.389
34.3067 68858 262.408
34.4237 70197 264.947
34.5407 71945 268.226
34.6577 72888 269.978
34.7746 72249 268.792
34.8915 71750 267.862
35.0084 70605 265.716
35.1252 69628 263.871
35.242 69398 263.435
35.3587 69749 264.1
35.4755 70278 265.1
35.5921 69955 264.49
35.7088 68506 261.737
35.8254 66911 258.672
35.9419 64625 254.214
36.0584 62823 250.645
36.1749 60629 246.23
36.2913 59930 244.806
36.4077 58778 242.442
36.524 57429 239.643
36.6403 56539 237.779
36.7565 55280 235.117
36.8727 55104 234.742
36.9889 53917 232.2
37.1049 50691 225.147
37.221 0 1
37.3369 0 1
37.4529 0 1
37.5687 0 1
37.6845 0 1
37.8003 0 1
37.916 0 1
38.0316 0 1
38.1472 0 1
40.5851 0 1
40.7008 0 1
40.8164 0 1
40.9322 0 1
41.048 0 1
41.1639 0 1
41.2798 0 1
41.3958 0 1
41.5118 0 1
41.6279 0 1
41.744 41694 204.191
41.8602 46026 214.537
41.9765 50107 223.846
42.0928 55221 234.991
42.2091 61394 247.778
42.3255 68092 260.944
42.4419 73669 271.42
42.5584 77011 277.509
42.675 80073 282.972
42.7915 83279 288.581
42.9081 88207 296.997
43.0248 94849 307.976
43.1415 100072 316.342
43.2582 104198 322.797
43.375 107108 327.274
43.4918 109813 331.38
43.6087 109095 330.295
43.7256 109593 331.048
43.8425 108487 329.374
43.9595 106355 326.121
44.0765 106499 326.342
44.1935 108350 329.166
44.3106 110182 331.937
44.4277 109239 330.513
44.5448 106015 325.599
44.6619 101081 317.932
44.7791 97417 312.117
44.8963 92205 303.653
45.0136 90017 300.028
45.1308 88918 298.191
45.2481 88446 297.399
45.3654 89290 298.814
45.4827 90981 301.631
45.6001 95482 309.002
45.7174 100622 317.21
45.8348 106954 327.038
45.9522 111439 333.825
46.0697 114488 338.361
46.1871 114114 337.808
46.3046 114427 338.271
46.422 116573 341.428
46.5395 120674 347.382
46.657 125072 353.655
46.7745 127460 357.015
46.892 130807 361.673
47.0096 132612 364.159
47.1271 133645 365.575
47.2446 133232 365.01
47.3622 133125 364.863
47.4797 130335 361.019
47.5973 127175 356.616
47.7149 127171 356.61
47.8324 130463 361.197
47.95 130081 360.667
48.0675 123543 351.487
48.1851 119960 346.352
48.3027 110893 333.006
48.4202 102915 320.804
48.5378 95310 308.723
48.6554 90486 300.809
48.7729 89924 299.873
48.8904 90705 301.173
49.008 92266 303.753
49.1255 96957 311.379
49.243 105270 324.453
49.3605 113684 337.171
49.478 119180 345.225
49.5955 119689 345.961
49.713 119302 345.401
49.8304 118175 343.766
49.9479 118814 344.694
50.0653 122031 349.329
50.1827 126017 354.989
50.3001 128670 358.706
50.4175 130344 361.032
50.5348 130923 361.833
50.6521 131102 362.08
50.7694 131671 362.865
50.8867 128735 358.797
51.004 125934 354.872
51.1212 122612 350.16
51.2384 123466 351.377
51.3556 124566 352.939
51.4727 123723 351.743
51.5899 120549 347.202
51.707 113878 337.458
51.824 106379 326.158
51.9411 96448 310.561
52.0581 86895 294.78
52.175 82439 287.122
52.2919 80752 284.169
52.4088 80925 284.473
52.5257 82072 286.482
52.6425 84680 290.998
52.7593 89100 298.496
52.876 93937 306.491
52.9927 97966 312.995
53.1094 98301 313.53
53.226 95548 309.108
53.3426 92886 304.772
53.4591 89181 298.632
53.5756 85741 292.816
53.692 84050 289.914
53.8084 81950 286.269
53.9248 79652 282.227
54.0411 76136 275.928
54.1573 71129 266.7
54.2735 0 1
54.3896 0 1
54.5057 0 1
54.6217 0 1
54.7377 0 1
54.8537 0 1
54.9695 0 1
55.0853 0 1
55.2011 0 1
55.3168 0 1
55.4324 0 1
57.824 0 1
57.9396 0 1
58.0553 0 1
58.1711 0 1
58.2869 0 1
58.4028 0 1
58.5187 0 1
58.6347 0 1
58.7508 0 1
58.8669 0 1
58.983 66658 258.182
59.0992 75437 274.658
59.2155 80651 283.991
59.3318 85817 292.945
59.4482 89783 299.638
59.5646 92809 304.646
59.681 94405 307.254
59.7975 96349 310.401
59.9141 98112 313.228
60.0306 100810 317.506
60.1473 102262 319.784
60.2639 100455 316.946
60.3807 96836 311.185
60.4974 89385 298.973
60.6142 81267 285.074
60.731 72708 269.644
60.8479 65446 255.824
60.9648 61737 248.469
61.0818 60566 246.102
61.1987 63088 251.173
61.3158 69038 262.751
61.4328 78015 279.312
61.5499 86642 294.35
61.667 93719 306.136
61.7841 96362 310.422
61.9013 95239 308.608
62.0185 94541 307.475
62.1357 93279 305.416
62.253 94103 306.762
62.3702 95862 309.616
62.4875 98061 313.147
62.6049 98792 314.312
62.7222 99204 314.967
62.8396 99753 315.837
62.9569 99362 315.217
63.0743 98598 314.003
63.1918 96203 310.166
63.3092 94762 307.834
63.4267 94381 307.215
63.5441 95099 308.381
63.6616 95298 308.704
63.7791 91528 302.536
63.8966 86707 294.461
64.0142 79340 281.674
64.1317 71211 266.854
64.2492 62196 249.391
64.3668 54448 233.341
64.4843 50518 224.762
64.6019 49437 222.344
64.7195 50601 224.947
64.837 55600 235.797
64.9546 63871 252.727
65.0722 72821 269.854
65.1898 80329 283.424
65.3074 84510 290.706
65.4249 83060 288.201
65.5425 82700 287.576
65.6601 80941 284.501
65.7777 80272 283.323
65.8952 81978 286.318
66.0128 83629 289.187
66.1304 85171 291.841
66.2479 85686 292.722
66.3655 86287 293.746
66.483 86764 294.557
66.6005 86327 293.815
66.718 84770 291.153
66.8355 83048 288.18
66.953 82052 286.447
67.0705 82254 286.8
67.1879 83362 288.725
67.3054 82346 286.96
67.4228 80205 283.205
67.5402 74507 272.96
67.6576 68070 260.902
67.7749 60655 246.282
67.8923 51972 227.974
68.0096 45199 212.601
68.1269 41899 204.692
68.2442 40778 201.936
68.3614 42739 206.734
68.4787 48381 219.957
68.5958 55534 235.657
68.713 64155 253.288
68.8302 72116 268.544
68.9473 75335 274.472
69.0643 75135 274.108
69.1814 73673 271.428
69.2984 69915 264.414
69.4154 68032 260.829
69.5323 67455 259.721
69.6492 67311 259.444
69.7661 67993 260.755
69.8829 67658 260.112
69.9997 67404 259.623
70.1165 66048 256.998
70.2332 64536 254.039
70.3499 61960 248.918
70.4665 59040 242.981
70.5831 55344 235.253
70.6996 53462 231.219
70.8161 52321 228.738
70.9326 50551 224.835
71.049 47018 216.836
71.1653 42515 206.192
71.2817 38534 196.301
71.3979 33467 182.94
71.5141 28160 167.809
71.6303 21082 145.196
71.7464 14312 119.633
71.8624 0 1
71.9784 0 1
72.0944 0 1
72.2102 0 1
72.3261 0 1
72.4418 0 1
72.5575 0 1
72.6732 0 1
75.1054 0 1
75.2209 0 1
75.3365 0 1
75.4521 0 1
75.5678 0 1
75.6835 0 1
75.7993 0 1
75.9151 0 1
76.031 0 1
76.147 45459 213.211
76.263 48840 220.998
76.3791 48562 220.368
76.4952 46290 215.151
76.6113 43619 208.852
76.7276 40437 201.09
76.8438 37051 192.486
76.9601 33576 183.238
77.0765 30973 175.991
77.1929 30700 175.214
77.3093 32105 179.179
77.4258 35077 187.289
77.5423 42700 206.64
77.6589 50907 225.626
77.7755 58498 241.864
77.8921 62349 249.698
78.0088 62469 249.938
78.1256 60912 246.804
78.2423 59833 244.608
78.3591 58393 241.646
78.4759 58686 242.252
78.5928 61028 247.038
78.7097 62141 249.281
78.8266 61578 248.149
78.9436 64826 254.61
79.0606 64014 253.01
79.1776 64680 254.323
79.2946 64700 254.362
79.4117 64067 253.115
79.5288 62560 250.12
79.6459 62502 250.004
79.7631 63783 252.553
79.8802 64672 254.307
79.9974 64682 254.327
80.1147 61955 248.908
80.2319 56167 236.996
80.3491 51351 226.608
80.4664 45931 214.315
80.5837 39181 197.942
80.701 33411 182.787
80.8183 31053 176.219
80.9357 31043 176.19
81.053 32280 179.666
81.1704 38057 195.082
81.2877 47364 217.633
81.4051 56253 237.177
81.5225 62920 250.839
81.6399 63702 252.393
81.7573 63590 252.171
81.8747 59438 243.799
81.9922 58238 241.326
82.1096 58513 241.895
82.227 59677 244.289
82.3444 60834 246.645
82.4619 62957 250.912
82.5793 63556 252.103
82.6967 64452 253.874
82.8142 64334 253.641
82.9316 64803 254.564
83.049 64124 253.227
83.1664 62571 250.142
83.2838 61979 248.956
83.4012 63035 251.068
83.5186 64430 253.831
83.636 63720 252.428
83.7534 59428 243.779
83.8708 53857 232.071
83.9881 50259 224.185
84.1055 46795 216.322
84.2228 42462 206.063
84.3401 36231 190.344
84.4575 33130 182.016
84.5747 32728 180.909
84.692 35411 188.178
84.8093 43476 208.509
84.9265 52627 229.406
85.0437 60085 245.122
85.1609 65956 256.819
85.2781 68557 261.834
85.3952 66763 258.385
85.5123 65824 256.562
85.6294 64529 254.026
85.7465 65955 256.817
85.8636 69001 262.68
85.9806 70961 266.385
86.0976 72563 269.375
86.2145 72468 269.199
86.3315 74931 273.735
86.4484 71430 267.264
86.5652 71478 267.354
86.682 68939 262.562
86.7988 65960 256.827
86.9156 65072 255.092
87.0323 65983 256.872
87.149 64729 254.419
87.2657 61608 248.21
87.3823 56621 237.952
87.4988 52178 228.425
87.6154 48486 220.195
87.7318 44767 211.582
87.8483 38552 196.347
87.9647 32857 181.265
88.081 29071 170.502
88.1973 27556 166
88.3136 28081 167.574
88.4298 33252 182.351
88.546 39843 199.607
88.6621 46320 215.221
88.7781 49445 222.362
88.8942 0 1
89.0101 0 1
89.126 0 1
89.2419 0 1
89.3577 0 1
89.4734 0 1
89.5891 0 1
89.7047 0 1
89.8203 0 1
89.9358 0 1
92.3269 0 1
92.4424 0 1
92.558 0 1
92.6736 0 1
92.7893 0 1
92.905 0 1
93.0208 0 1
93.1366 0 1
93.2525 0 1
93.3685 0 1
93.4845 0 1
93.6005 41998 204.934
93.7167 47390 217.692
93.8328 56128 236.913
93.949 66558 257.988
94.0653 75828 275.369
94.1816 83842 289.555
94.2979 90260 300.433
94.4143 94182 306.891
94.5307 98041 313.115
94.6472 103107 321.103
94.7637 108751 329.774
94.8803 112456 335.345
94.9969 114762 338.765
95.1135 115069 339.218
95.2302 116863 341.852
95.3469 118016 343.535
95.4637 118797 344.669
95.5805 117041 342.113
95.6973 114350 338.157
95.8142 113316 336.624
95.9311 109997 331.658
96.048 108216 328.962
96.1649 105976 325.54
96.2819 104615 323.442
96.3989 99402 315.281
96.516 92855 304.721
96.633 86878 294.751
96.7501 80539 283.794
96.8673 74706 273.324
96.9844 68882 262.454
97.1016 63100 251.197
97.2188 60517 246.002
97.336 62033 249.064
97.4532 68545 261.811
97.5704 80024 282.885
97.6877 91961 303.251
97.805 104078 322.611
97.9223 115516 339.876
98.0396 124324 352.596
98.1569 129038 359.219
98.2743 133524 365.409
98.3916 139716 373.786
98.509 147197 383.663
98.6264 149366 386.479
98.7438 149665 386.866
98.8612 148149 384.901
98.9786 148411 385.241
99.096 147547 384.118
99.2134 144212 379.753
99.3308 139016 372.848
99.4482 133988 366.044
99.5656 129349 359.651
99.6831 125009 353.566
99.8005 123012 350.731
99.9179 118625 344.42
100.035 112221 334.994
100.153 103875 322.296
100.27 93540 305.843
100.388 83619 289.17
100.505 74477 272.905
100.622 67544 259.892
100.74 63798 252.583
100.857 63995 252.972
100.975 67547 259.898
101.092 77347 278.113
101.209 92058 303.411
101.327 107241 327.477
101.444 119425 345.579
101.561 129528 359.9
101.679 134428 366.644
101.796 136354 369.261
101.913 139477 373.466
102.03 143315 378.57
102.148 146863 383.227
102.265 147940 384.63
102.382 141572 376.261
102.499 141112 375.649
102.616 140023 374.196
102.733 138096 371.613
102.851 134586 366.86
102.968 131103 362.081
103.085 125620 354.429
103.202 122615 350.164
103.319 122033 349.332
103.436 119891 346.253
103.552 115499 339.851
103.669 107839 328.388
103.786 96996 311.442
103.903 87939 296.545
104.02 78923 280.932
104.137 69929 264.441
104.253 62998 250.994
104.37 59614 244.16
104.487 62137 249.273
104.603 67079 258.996
104.72 75143 274.122
104.836 84293 290.333
104.953 90761 301.266
105.069 92331 303.86
105.186 89999 299.998
105.302 86355 293.862
105.418 81775 285.963
105.535 77233 277.908
105.651 71586 267.556
105.767 66956 258.759
105.883 62945 250.888
105.999 59106 243.117
106.115 0 1
106.231 0 1
106.347 0 1
106.463 0 1
106.579 0 1
106.694 0 1
106.81 0 1
106.926 0 1
107.041 0 1
107.157 0 1
109.576 0 1
109.692 0 1
109.807 0 1
109.923 0 1
110.039 0 1
110.155 0 1
110.27 0 1
110.386 0 1
110.502 0 1
110.618 62159 249.317
110.735 71486 267.369
110.851 80198 283.193
110.967 86437 294.002
111.083 92300 303.809
111.199 97597 312.405
111.316 103229 321.293
111.432 106363 326.133
111.549 108416 329.266
111.665 108542 329.457
111.782 108843 329.914
111.898 110511 332.432
112.015 114634 338.576
112.132 115989 340.572
112.248 111320 333.647
112.365 102738 320.528
112.482 91241 302.061
112.599 79786 282.464
112.716 70488 265.496
112.832 61717 248.429
112.949 57842 240.504
113.066 57669 240.144
113.183 60682 246.337
113.3 69256 263.165
113.417 83716 289.337
113.534 97210 311.785
113.652 106484 326.319
113.769 109435 330.81
113.886 108122 328.819
114.003 105766 325.217
114.12 103621 321.902
114.238 103304 321.409
114.355 106963 327.052
114.472 109301 330.607
114.589 110144 331.879
114.707 111916 334.538
114.824 112716 335.732
114.942 113847 337.412
115.059 113719 337.222
115.176 113103 336.308
115.294 110557 332.501
115.411 109375 330.719
115.529 111125 333.354
115.646 111103 333.321
115.764 109902 331.515
115.881 103538 321.773
115.999 94903 308.063
116.116 85133 291.776
116.234 75730 275.191
116.351 67193 259.216
116.469 60856 246.69
116.586 58170 241.185
116.704 59240 243.393
116.821 63177 251.35
116.939 73226 270.603
117.056 85939 293.154
117.174 95260 308.642
117.291 101904 319.224
117.409 102641 320.376
117.526 100026 316.269
117.644 98543 313.916
117.761 97614 312.432
117.879 99063 314.743
117.996 101017 317.832
118.114 103623 321.905
118.231 104052 322.571
118.349 106694 326.64
118.466 106193 325.873
118.584 106630 326.542
118.701 106886 326.934
118.819 105094 324.182
118.936 102612 320.331
119.053 101571 318.702
119.171 103017 320.963
119.288 104251 322.879
119.405 101661 318.843
119.523 96909 311.302
119.64 89588 299.313
119.757 80703 284.083
119.875 72405 269.082
119.992 65038 255.025
120.109 59567 244.064
120.226 58081 241
120.343 57735 240.281
120.46 60278 245.516
120.578 64935 254.823
120.695 73731 271.535
120.812 82298 286.876
120.929 86860 294.72
121.046 88823 298.032
121.163 85976 293.217
121.279 83105 288.279
121.396 80848 284.338
121.513 79359 281.707
121.63 80830 284.306
121.747 80177 283.155
121.863 80534 283.785
121.98 79958 282.768
122.097 79592 282.121
122.213 78204 279.65
122.33 75625 275
122.446 73000 270.185
122.563 69186 263.032
122.679 65110 255.167
122.795 62095 249.189
122.912 60508 245.984
123.028 57389 239.56
123.144 52992 230.2
123.26 46594 215.856
123.377 0 1
123.493 0 1
123.609 0 1
123.725 0 1
123.84 0 1
123.956 0 1
124.072 0 1
124.188 0 1
124.303 0 1
124.419 0 1
126.852 0 1
126.968 0 1
127.083 0 1
127.199 0 1
127.315 0 1
127.431 0 1
127.547 0 1
127.663 0 1
127.779 0 1
127.895 0 1
128.011 0 1
128.127 0 1
128.243 0 1
128.359 95055 308.31
128.476 97419 312.12
128.592 96546 310.719
128.708 93754 306.193
128.825 88532 297.543
128.941 82590 287.385
129.058 76786 277.103
129.174 73066 270.307
129.291 71305 267.03
129.408 70930 266.327
129.524 71572 267.529
129.641 74284 272.551
129.758 80575 283.857
129.875 87026 295.002
129.992 92535 304.196
130.108 95067 308.329
130.225 95268 308.655
130.342 95523 309.068
130.459 94067 306.703
130.576 99619 315.625
130.693 100798 317.487
130.81 102338 319.903
130.928 103935 322.39
131.045 106088 325.712
131.162 106744 326.717
131.279 107831 328.376
131.396 107594 328.015
131.513 106843 326.868
131.631 104135 322.7
131.748 103858 322.27
131.865 105449 324.729
131.983 104763 323.671
132.1 102665 320.414
132.217 99199 314.959
132.335 93747 306.181
132.452 87435 295.694
132.57 82038 286.423
132.687 76844 277.208
132.804 76061 275.792
132.922 73803 271.667
133.039 73544 271.19
133.157 74833 273.556
133.274 78080 279.428
133.392 82497 287.223
133.509 87639 296.039
133.627 90375 300.624
133.744 91587 302.633
133.862 92341 303.877
133.979 92447 304.051
134.097 93642 306.01
134.214 96838 311.188
134.332 99267 315.067
134.449 100857 317.58
134.567 102032 319.424
134.684 103423 321.594
134.802 104455 323.195
134.919 104929 323.927
135.037 104140 322.707
135.154 102090 319.515
135.272 99892 316.057
135.389 100593 317.164
135.507 101474 318.55
135.624 100530 317.065
135.742 98596 314
135.859 95033 308.274
135.977 91005 301.67
136.094 86496 294.102
136.211 81748 285.916
136.329 79493 281.945
136.446 78351 279.912
136.564 77917 279.136
136.681 77510 278.406
136.798 77593 278.555
136.915 78879 280.854
137.033 81557 285.582
137.15 85674 292.701
137.267 87870 296.429
137.384 87730 296.193
137.502 88181 296.953
137.619 87781 296.279
137.736 89866 299.777
137.853 90288 300.48
137.97 95922 309.713
138.087 95465 308.974
138.204 97688 312.551
138.321 96683 310.939
138.438 94784 307.87
138.555 94736 307.792
138.672 92572 304.256
138.788 89057 298.424
138.905 84142 290.072
139.022 81503 285.487
139.139 80161 283.127
139.255 77866 279.045
139.372 74249 272.487
139.488 69584 263.788
139.605 64450 253.87
139.721 58943 242.782
139.838 54022 232.426
139.954 51160 226.186
140.071 47597 218.167
140.187 44952 212.019
140.303 41262 203.13
140.419 37787 194.389
140.535 35019 187.134
140.652 32976 181.593
140.768 0 1
140.884 0 1
141 0 1
141.115 0 1
141.231 0 1
141.347 0 1
141.463 0 1
141.578 0 1
141.694 0 1
144.104 0 1
144.219 0 1
144.335 0 1
144.45 0 1
144.566 0 1
144.682 0 1
144.798 0 1
144.914 0 1
145.03 0 1
145.146 60053 245.057
145.262 61742 248.479
145.378 62390 249.78
145.494 63111 251.219
145.61 62772 250.543
145.726 63156 251.309
145.842 64011 253.004
145.959 65073 255.094
146.075 65119 255.184
146.192 65413 255.76
146.308 65267 255.474
146.425 65149 255.243
146.541 66458 257.794
146.658 67853 260.486
146.774 70659 265.818
146.891 72505 269.268
147.008 74619 273.165
147.125 74933 273.739
147.241 75865 275.436
147.358 76554 276.684
147.475 77015 277.516
147.592 75207 274.239
147.709 73777 271.619
147.826 72938 270.07
147.943 73397 270.919
148.06 72998 270.181
148.177 72155 268.617
148.294 71523 267.438
148.411 71219 266.869
148.528 71049 266.55
148.645 70663 265.825
148.762 70035 264.641
148.88 70005 264.585
148.997 71302 267.024
149.114 67994 260.757
149.231 67737 260.263
149.349 67710 260.211
149.466 65505 255.939
149.583 66032 256.967
149.701 65954 256.815
149.818 65769 256.455
149.935 66033 256.969
150.053 65404 255.742
150.17 65422 255.777
150.287 66497 257.87
150.405 68592 261.901
150.522 71447 267.296
150.64 73853 271.759
150.757 75068 273.985
150.875 75709 275.153
150.992 77003 277.494
151.11 76641 276.841
151.227 75522 274.813
151.344 74013 272.053
151.462 72112 268.537
151.579 70601 265.708
151.697 71425 267.255
151.814 71582 267.548
151.932 70361 265.256
152.049 70213 264.977
152.167 70080 264.726
152.284 69863 264.316
152.402 69156 262.975
152.519 69630 263.875
152.636 69497 263.623
152.754 69642 263.898
152.871 68570 261.859
152.989 66909 258.668
153.106 66788 258.434
153.223 65541 256.01
153.341 65384 255.703
153.458 64682 254.327
153.575 64087 253.154
153.693 63174 251.344
153.81 63465 251.923
153.927 64460 253.89
154.044 66647 258.161
154.162 68661 262.032
154.279 70696 265.887
154.396 71597 267.576
154.513 72455 269.175
154.63 73009 270.202
154.747 72630 269.5
154.864 72082 268.481
154.981 68979 262.639
155.098 67570 259.942
155.215 67167 259.166
155.332 67733 260.256
155.449 66585 258.041
155.566 65857 256.626
155.683 64421 253.813
155.8 63785 252.557
155.917 62994 250.986
156.033 61596 248.185
156.15 0 1
156.267 0 1
156.383 0 1
156.5 0 1
156.617 0 1
156.733 0 1
156.85 0 1
156.966 0 1
157.082 0 1
157.199 0 1
157.315 0 1
157.431 0 1
157.547 0 1
157.664 0 1
157.78 0 1
157.896 0 1
158.012 0 1
158.128 0 1
158.244 0 1
158.359 0 1
158.475 0 1
158.591 0 1
158.706 0 1
