
6.15755 0 1
6.2731 0 1
6.3887 0 1
6.50437 0 1
6.62009 0 1
6.73587 0 1
6.8517 0 1
6.96759 0 1
7.08353 0 1
7.19952 0 1
7.31557 0 1
7.43166 0 1
7.54781 0 1
7.664 0 1
7.78024 0 1
7.89653 0 1
8.01286 0 1
8.12924 0 1
8.24567 0 1
8.36213 0 1
8.47864 0 1
8.59519 0 1
8.71178 0 1
8.82841 0 1
8.94508 0 1
9.06179 0 1
9.17853 0 1
9.29531 0 1
9.41212 0 1
9.52897 0 1
9.64584 0 1
9.76276 0 1
9.8797 0 1
9.99667 0 1
10.1137 0 1
10.2307 0 1
10.3478 0 1
10.4648 0 1
10.5819 0 1
10.6991 0 1
10.8162 0 1
10.9334 0 1
11.0506 0 1
11.1678 0 1
11.285 0 1
11.4023 0 1
11.5196 0 1
11.6369 0 1
11.7542 0 1
11.8715 0 1
11.9888 0 1
12.1062 0 1
12.2235 0 1
12.3409 0 1
12.4582 0 1
12.5756 0 1
12.693 0 1
12.8104 0 1
12.9278 0 1
13.0452 0 1
13.1626 0 1
13.28 0 1
13.3974 0 1
13.5149 0 1
13.6323 0 1
13.7497 0 1
13.8671 0 1
13.9845 0 1
14.1019 0 1
14.2193 0 1
14.3367 0 1
14.4541 0 1
14.5714 0 1
14.6888 0 1
14.8062 0 1
14.9235 0 1
15.0408 0 0
15.1581 0 0
15.2755 0 0
15.3927 0 0
15.51 0 0
15.6273 0 0
15.7445 0 0
15.8617 0 0
15.9789 0 0
16.0961 0 0
16.2132 0 0
16.3304 0 0
16.4475 0 0
16.5646 0 0
16.6816 0 0
16.7986 0 0
16.9156 0 0
17.0326 0 0
17.1496 0 0
17.2665 0 0
17.3833 0 0
17.5002 0 0
17.617 0 0
17.7338 0 0
17.8505 0 0
17.9672 0 0
18.0839 0 0
18.2005 0 0
18.3171 0 0
18.4337 0 0
18.5502 0 0
18.6666 0 0
18.7831 0 0
18.8994 0 0
19.0158 0 0
19.1321 0 0
19.2483 0 0
19.3645 0 0
19.4806 0 0
19.5967 0 0
19.7128 0 0
19.8288 0 0
19.9447 0 0
20.0606 0 1
20.1764 0 1
20.2922 0 1
20.4079 0 1
20.5236 0 1
20.6392 0 1
20.7548 0 1
20.8702 0 1
23.3078 0 1
23.4233 0 1
23.539 0 1
23.6547 0 1
23.7704 0 1
23.8862 0 1
24.0021 0 1
24.118 0 1
24.234 0 1
24.35 0 1
24.4661 1380 37.1484
24.5822 1502 38.7556
24.6984 1452 38.1051
24.8146 1383 37.1887
24.9309 1439 37.9342
25.0472 1300 36.0555
25.1636 1366 36.9594
25.28 1485 38.5357
25.3965 1511 38.8716
25.513 1609 40.1123
25.6296 1582 39.7744
25.7462 1606 40.0749
25.8628 1629 40.3609
25.9795 1683 41.0244
26.0962 1656 40.694
26.213 1649 40.6079
26.3298 1693 41.1461
26.4466 1555 39.4335
26.5635 1482 38.4968
26.6804 1478 38.4448
26.7973 1464 38.2623
26.9143 1437 37.9078
27.0313 1551 39.3827
27.1483 1549 39.3573
27.2653 1594 39.9249
27.3824 1566 39.5727
27.4996 1683 41.0244
27.6167 1591 39.8873
27.7339 1552 39.3954
27.8511 1511 38.8716
27.9683 1529 39.1024
28.0855 1492 38.6264
28.2028 1464 38.2623
28.3201 1348 36.7151
28.4374 1444 38
28.5547 1270 35.6371
28.6721 1363 36.9188
28.7894 1374 37.0675
28.9068 1378 37.1214
29.0242 1491 38.6135
29.1416 1525 39.0512
29.259 1569 39.6106
29.3764 1537 39.2046
29.4939 1524 39.0384
29.6113 1512 38.8844
29.7288 1500 38.7298
29.8463 1571 39.6358
29.9638 1502 38.7556
30.0812 1338 36.5787
30.1987 1388 37.2559
30.3162 1368 36.9865
30.4337 1432 37.8418
30.5512 1433 37.855
30.6687 1482 38.4968
30.7862 1620 40.2492
30.9037 1531 39.128
31.0212 1602 40.025
31.1387 1532 39.1408
31.2562 1518 38.9615
31.3737 1426 37.7624
31.4912 1552 39.3954
31.6087 1390 37.2827
31.7262 1443 37.9868
31.8436 1474 38.3927
31.9611 1347 36.7015
32.0785 1361 36.8917
32.1959 1331 36.4829
32.3134 1370 37.0135
32.4308 1471 38.3536
32.5482 1503 38.7685
32.6655 1556 39.4462
32.7829 1449 38.0657
32.9002 1533 39.1535
33.0176 1590 39.8748
33.1349 1517 38.9487
33.2522 1522 39.0128
33.3694 1511 38.8716
33.4867 1543 39.281
33.6039 1480 38.4708
33.7211 1485 38.5357
33.8383 1384 37.2022
33.9554 1406 37.4967
34.0725 1370 37.0135
34.1896 1487 38.5616
34.3067 1472 38.3667
34.4237 1563 39.5348
34.5407 1619 40.2368
34.6577 1648 40.5956
34.7746 1546 39.3192
34.8915 1616 40.1995
35.0084 1530 39.1152
35.1252 1506 38.8072
35.242 1563 39.5348
35.3587 1405 37.4833
35.4755 1436 37.8946
35.5921 1335 36.5377
35.7088 1290 35.9166
35.8254 1296 36
35.9419 1276 35.7211
36.0584 1338 36.5787
36.1749 1395 37.3497
36.2913 1452 38.1051
36.4077 1450 38.0789
36.524 1505 38.7943
36.6403 1538 39.2173
36.7565 1587 39.8372
36.8727 1503 38.7685
36.9889 1529 39.1024
37.1049 1485 38.5357
37.221 0 1
37.3369 0 1
37.4529 0 1
37.5687 0 1
37.6845 0 1
37.8003 0 1
37.916 0 1
38.0316 0 1
38.1472 0 1
40.5851 0 1
40.7008 0 1
40.8164 0 1
40.9322 0 1
41.048 0 1
41.1639 0 1
41.2798 0 1
41.3958 0 1
41.5118 0 1
41.6279 0 1
41.744 1262 35.5246
41.8602 1284 35.8329
41.9765 1297 36.0139
42.0928 1307 36.1525
42.2091 1259 35.4824
42.3255 1279 35.7631
42.4419 1239 35.1994
42.5584 1221 34.9428
42.675 1187 34.4529
42.7915 1194 34.5543
42.9081 1193 34.5398
43.0248 1330 36.4692
43.1415 1314 36.2491
43.2582 1235 35.1426
43.375 1241 35.2278
43.4918 1313 36.2353
43.6087 1300 36.0555
43.7256 1331 36.4829
43.8425 1262 35.5246
43.9595 1202 34.6699
44.0765 1277 35.7351
44.1935 1141 33.7787
44.3106 1091 33.0303
44.4277 1039 32.2335
44.5448 926 30.4302
44.6619 982 31.3369
44.7791 1048 32.3728
44.8963 1024 32
45.0136 1046 32.3419
45.1308 1158 34.0294
45.2481 1149 33.8969
45.3654 1128 33.5857
45.4827 1103 33.2114
45.6001 1114 33.3766
45.7174 1108 33.2866
45.8348 1135 33.6898
45.9522 1147 33.8674
46.0697 1003 31.6702
46.1871 977 31.257
46.3046 963 31.0322
46.422 987 31.4166
46.5395 996 31.5595
46.657 1073 32.7567
46.7745 1041 32.2645
46.892 1035 32.1714
47.0096 1072 32.7414
47.1271 1020 31.9374
47.2446 970 31.1448
47.3622 1006 31.7175
47.4797 1014 31.8434
47.5973 1002 31.6544
47.7149 967 31.0966
47.8324 861 29.3428
47.95 877 29.6142
48.0675 828 28.775
48.1851 737 27.1477
48.3027 764 27.6405
48.4202 817 28.5832
48.5378 854 29.2233
48.6554 926 30.4302
48.7729 920 30.3315
48.8904 912 30.1993
49.008 947 30.7734
49.1255 922 30.3645
49.243 937 30.6105
49.3605 915 30.249
49.478 939 30.6431
49.5955 879 29.6479
49.713 815 28.5482
49.8304 823 28.688
49.9479 918 30.2985
50.0653 918 30.2985
50.1827 1065 32.6343
50.3001 989 31.4484
50.4175 1030 32.0936
50.5348 1058 32.5269
50.6521 1170 34.2053
50.7694 1239 35.1994
50.8867 1167 34.1614
51.004 1107 33.2716
51.1212 1139 33.7491
51.2384 1160 34.0588
51.3556 1131 33.6303
51.4727 1052 32.4345
51.5899 1035 32.1714
51.707 968 31.1127
51.824 1038 32.218
51.9411 1076 32.8024
52.0581 1124 33.5261
52.175 1287 35.8748
52.2919 1338 36.5787
52.4088 1346 36.6879
52.5257 1400 37.4166
52.6425 1432 37.8418
52.7593 1403 37.4566
52.876 1394 37.3363
52.9927 1454 38.1314
53.1094 1286 35.8608
53.226 1333 36.5103
53.3426 1354 36.7967
53.4591 1313 36.2353
53.5756 1359 36.8646
53.692 1487 38.5616
53.8084 1529 39.1024
53.9248 1552 39.3954
54.0411 1503 38.7685
54.1573 1584 39.7995
54.2735 0 1
54.3896 0 1
54.5057 0 1
54.6217 0 1
54.7377 0 1
54.8537 0 1
54.9695 0 1
55.0853 0 1
55.2011 0 1
55.3168 0 1
55.4324 0 1
57.824 0 1
57.9396 0 1
58.0553 0 1
58.1711 0 1
58.2869 0 1
58.4028 0 1
58.5187 0 1
58.6347 0 1
58.7508 0 1
58.8669 0 1
58.983 1886 43.4281
59.0992 2024 44.9889
59.2155 1932 43.9545
59.3318 1958 44.2493
59.4482 1981 44.5084
59.5646 2065 45.4423
59.681 2063 45.4203
59.7975 1940 44.0454
59.9141 1871 43.2551
60.0306 1765 42.0119
60.1473 1697 41.1947
60.2639 1609 40.1123
60.3807 1450 38.0789
60.4974 1499 38.7169
60.6142 1603 40.0375
60.731 1606 40.0749
60.8479 1821 42.6732
60.9648 1810 42.5441
61.0818 1847 42.9767
61.1987 1975 44.441
61.3158 1884 43.4051
61.4328 1912 43.7264
61.5499 1868 43.2204
61.667 1800 42.4264
61.7841 1787 42.2729
61.9013 1695 41.1704
62.0185 1652 40.6448
62.1357 1736 41.6653
62.253 1737 41.6773
62.3702 1831 42.7902
62.4875 1925 43.8748
62.6049 1934 43.9773
62.7222 2010 44.833
62.8396 1930 43.9318
62.9569 1886 43.4281
63.0743 1949 44.1475
63.1918 1961 44.2832
63.3092 1924 43.8634
63.4267 1891 43.4856
63.5441 1810 42.5441
63.6616 1662 40.7676
63.7791 1534 39.1663
63.8966 1508 38.833
64.0142 1420 37.6829
64.1317 1514 38.9102
64.2492 1598 39.975
64.3668 1803 42.4617
64.4843 1784 42.2374
64.6019 1916 43.7721
64.7195 1921 43.8292
64.837 1842 42.9185
64.9546 1890 43.4741
65.0722 1909 43.6921
65.1898 1837 42.8602
65.3074 1772 42.0951
65.4249 1605 40.0625
65.5425 1696 41.1825
65.6601 1685 41.0488
65.7777 1712 41.3763
65.8952 1919 43.8064
66.0128 1895 43.5316
66.1304 2034 45.0999
66.2479 2039 45.1553
66.3655 2035 45.111
66.483 2047 45.2438
66.6005 2020 44.9444
66.718 1979 44.486
66.8355 1997 44.6878
66.953 1935 43.9886
67.0705 1899 43.5775
67.1879 1816 42.6146
67.3054 1652 40.6448
67.4228 1556 39.4462
67.5402 1399 37.4032
67.6576 1491 38.6135
67.7749 1548 39.3446
67.8923 1707 41.3159
68.0096 1810 42.5441
68.1269 2029 45.0444
68.2442 2041 45.1774
68.3614 2058 45.3652
68.4787 2033 45.0888
68.5958 2137 46.2277
68.713 2097 45.793
68.8302 1986 44.5646
68.9473 1895 43.5316
69.0643 1861 43.1393
69.1814 1898 43.566
69.2984 1783 42.2256
69.4154 2005 44.7772
69.5323 2059 45.3762
69.6492 2184 46.7333
69.7661 2226 47.1805
69.8829 2269 47.634
69.9997 2296 47.9166
70.1165 2311 48.0729
70.2332 2393 48.9183
70.3499 2389 48.8774
70.4665 2393 48.9183
70.5831 2271 47.655
70.6996 2132 46.1736
70.8161 2185 46.744
70.9326 1993 44.643
71.049 1836 42.8486
71.1653 1601 40.0125
71.2817 1563 39.5348
71.3979 1645 40.5586
71.5141 1730 41.5933
71.6303 1895 43.5316
71.7464 1921 43.8292
71.8624 0 1
71.9784 0 1
72.0944 0 1
72.2102 0 1
72.3261 0 1
72.4418 0 1
72.5575 0 1
72.6732 0 1
75.1054 0 1
75.2209 0 1
75.3365 0 1
75.4521 0 1
75.5678 0 1
75.6835 0 1
75.7993 0 1
75.9151 0 1
76.031 0 1
76.147 2180 46.6905
76.263 2195 46.8508
76.3791 2036 45.1221
76.4952 1837 42.8602
76.6113 1776 42.1426
76.7276 1916 43.7721
76.8438 2044 45.2106
76.9601 2201 46.9148
77.0765 2491 49.9099
77.1929 2562 50.6162
77.3093 2625 51.2348
77.4258 2543 50.4282
77.5423 2755 52.4881
77.6589 2672 51.6914
77.7755 2729 52.2398
77.8921 2485 49.8498
78.0088 2512 50.1199
78.1256 2405 49.0408
78.2423 2329 48.2597
78.3591 2317 48.1352
78.4759 2473 49.7293
78.5928 2544 50.4381
78.7097 2667 51.643
78.8266 2841 53.301
78.9436 2731 52.259
79.0606 2832 53.2165
79.1776 2859 53.4696
79.2946 2771 52.6403
79.4117 2821 53.1131
79.5288 2855 53.4322
79.6459 2792 52.8394
79.7631 2621 51.1957
79.8802 2437 49.366
79.9974 2341 48.3839
80.1147 2079 45.5961
80.2319 2015 44.8888
80.3491 1998 44.699
80.4664 2168 46.5618
80.5837 2486 49.8598
80.701 2634 51.3225
80.8183 2793 52.8488
80.9357 2778 52.7067
81.053 2889 53.7494
81.1704 2859 53.4696
81.2877 2928 54.111
81.4051 2955 54.3599
81.5225 2843 53.3198
81.6399 2704 52
81.7573 2621 51.1957
81.8747 2560 50.5964
81.9922 2533 50.3289
82.1096 2530 50.2991
82.227 2634 51.3225
82.3444 2813 53.0377
82.4619 2873 53.6004
82.5793 2883 53.6936
82.6967 3019 54.9454
82.8142 3088 55.5698
82.9316 3037 55.109
83.049 2986 54.6443
83.1664 3000 54.7723
83.2838 2952 54.3323
83.4012 2822 53.1225
83.5186 2700 51.9615
83.636 2499 49.99
83.7534 2181 46.7012
83.8708 2053 45.31
83.9881 1966 44.3396
84.1055 2206 46.9681
84.2228 2461 49.6085
84.3401 2721 52.1632
84.4575 2873 53.6004
84.5747 3095 55.6327
84.692 3150 56.1249
84.8093 3248 56.9912
84.9265 3095 55.6327
85.0437 3166 56.2672
85.1609 3161 56.2228
85.2781 2992 54.6992
85.3952 2838 53.2729
85.5123 2742 52.3641
85.6294 2964 54.4426
85.7465 2890 53.7587
85.8636 3104 55.7136
85.9806 3215 56.701
86.0976 3370 58.0517
86.2145 3566 59.716
86.3315 3382 58.155
86.4484 3712 60.9262
86.5652 3722 61.0082
86.682 3701 60.8358
86.7988 3696 60.7947
86.9156 3555 59.6238
87.0323 3438 58.6345
87.149 3361 57.9741
87.2657 3032 55.0636
87.3823 2739 52.3355
87.4988 2629 51.2738
87.6154 2862 53.4977
87.7318 3180 56.3915
87.8483 3560 59.6657
87.9647 3992 63.1823
88.081 4011 63.3325
88.1973 4218 64.9461
88.3136 4170 64.5755
88.4298 4163 64.5213
88.546 4207 64.8614
88.6621 4118 64.1716
88.7781 3973 63.0317
88.8942 0 1
89.0101 0 1
89.126 0 1
89.2419 0 1
89.3577 0 1
89.4734 0 1
89.5891 0 1
89.7047 0 1
89.8203 0 1
89.9358 0 1
92.3269 0 1
92.4424 0 1
92.558 0 1
92.6736 0 1
92.7893 0 1
92.905 0 1
93.0208 0 1
93.1366 0 1
93.2525 0 1
93.3685 0 1
93.4845 0 1
93.6005 4891 69.9357
93.7167 4555 67.4907
93.8328 4706 68.6003
93.949 4776 69.1086
94.0653 4693 68.5055
94.1816 4719 68.695
94.2979 4540 67.3795
94.4143 4503 67.1044
94.5307 4393 66.2797
94.6472 4282 65.437
94.7637 4255 65.2304
94.8803 4393 66.2797
94.9969 4439 66.6258
95.1135 4663 68.2862
95.2302 4898 69.9857
95.3469 4891 69.9357
95.4637 5086 71.3162
95.5805 5097 71.3933
95.6973 5150 71.7635
95.8142 5231 72.3257
95.9311 5132 71.638
96.048 5206 72.1526
96.1649 4921 70.1498
96.2819 4760 68.9928
96.3989 4452 66.7233
96.516 4073 63.8201
96.633 3702 60.8441
96.7501 3666 60.5475
96.8673 3937 62.7455
96.9844 4294 65.5286
97.1016 4881 69.8642
97.2188 5149 71.7565
97.336 5454 73.8512
97.4532 5402 73.4983
97.5704 5598 74.8198
97.6877 5432 73.7021
97.805 5529 74.3572
97.9223 5401 73.4915
98.0396 5207 72.1595
98.1569 5153 71.7844
98.2743 4953 70.3776
98.3916 4951 70.3633
98.509 4917 70.1213
98.6264 5124 71.5821
98.7438 5206 72.1526
98.8612 5422 73.6342
98.9786 5786 76.0658
99.096 5652 75.1798
99.2134 5805 76.1906
99.3308 5814 76.2496
99.4482 5780 76.0263
99.5656 5828 76.3413
99.6831 5797 76.138
99.8005 5557 74.5453
99.9179 5206 72.1526
100.035 5000 70.7107
100.153 4534 67.335
100.27 4287 65.4752
100.388 4363 66.053
100.505 4724 68.7314
100.622 5225 72.2842
100.74 5767 75.9408
100.857 6097 78.0833
100.975 6234 78.9557
101.092 6037 77.6981
101.209 6054 77.8075
101.327 6203 78.7591
101.444 6284 79.2717
101.561 5880 76.6812
101.679 5751 75.8353
101.796 5653 75.1864
101.913 5627 75.0133
102.03 5496 74.135
102.148 5539 74.4245
102.265 6226 78.905
102.382 5710 75.5645
102.499 6410 80.0625
102.616 6250 79.0569
102.733 6494 80.5854
102.851 6520 80.7465
102.968 6671 81.6762
103.085 6669 81.6639
103.202 6606 81.2773
103.319 6464 80.399
103.436 6009 77.5177
103.552 5881 76.6877
103.669 5177 71.9514
103.786 4761 69
103.903 4826 69.4694
104.02 5263 72.5465
104.137 5894 76.7724
104.253 6647 81.5291
104.37 6559 80.9877
104.487 6860 82.8251
104.603 7137 84.4808
104.72 6976 83.5225
104.836 6824 82.6075
104.953 6811 82.5288
105.069 6769 82.2739
105.186 6402 80.0125
105.302 6395 79.9687
105.418 6193 78.6956
105.535 6152 78.4347
105.651 6447 80.2932
105.767 6649 81.5414
105.883 6764 82.2435
105.999 6858 82.813
106.115 0 1
106.231 0 1
106.347 0 1
106.463 0 1
106.579 0 1
106.694 0 1
106.81 0 1
106.926 0 1
107.041 0 1
107.157 0 1
109.576 0 1
109.692 0 1
109.807 0 1
109.923 0 1
110.039 0 1
110.155 0 1
110.27 0 1
110.386 0 1
110.502 0 1
110.618 5723 75.6505
110.735 6076 77.9487
110.851 6366 79.7872
110.967 6583 81.1357
111.083 6393 79.9562
111.199 6756 82.1949
111.316 6702 81.8657
111.432 6586 81.1542
111.549 6598 81.2281
111.665 6472 80.4487
111.782 6306 79.4103
111.898 5872 76.629
112.015 5522 74.3102
112.132 5119 71.5472
112.248 4615 67.9338
112.365 4578 67.6609
112.482 4754 68.9493
112.599 5011 70.7884
112.716 5649 75.1598
112.832 6028 77.6402
112.949 5908 76.8635
113.066 6172 78.5621
113.183 5991 77.4016
113.3 6002 77.4726
113.417 5817 76.2693
113.534 5790 76.092
113.652 5554 74.5252
113.769 5238 72.374
113.886 5328 72.9932
114.003 4947 70.3349
114.12 5089 71.3372
114.238 5208 72.1665
114.355 5278 72.6498
114.472 5361 73.2189
114.589 5431 73.6953
114.707 5607 74.8799
114.824 5672 75.3127
114.942 5681 75.3724
115.059 5686 75.4056
115.176 5516 74.2698
115.294 5551 74.505
115.411 5188 72.0278
115.529 4988 70.6258
115.646 4784 69.1665
115.764 4290 65.4981
115.881 4005 63.2851
115.999 3963 62.9524
116.116 4410 66.4078
116.234 4801 69.2892
116.351 5280 72.6636
116.469 5483 74.0473
116.586 5422 73.6342
116.704 5460 73.8918
116.821 5546 74.4715
116.939 5589 74.7596
117.056 5471 73.9662
117.174 5507 74.2092
117.291 5212 72.1942
117.409 4976 70.5408
117.526 4749 68.913
117.644 4946 70.3278
117.761 4885 69.8928
117.879 5118 71.5402
117.996 5204 72.1388
118.114 5161 71.8401
118.231 5473 73.9797
118.349 5224 72.2772
118.466 5267 72.5741
118.584 5523 74.3169
118.701 5453 73.8444
118.819 5333 73.0274
118.936 5328 72.9932
119.053 5173 71.9236
119.171 4880 69.857
119.288 4488 66.9925
119.405 4188 64.7148
119.523 3943 62.7933
119.64 3964 62.9603
119.757 4211 64.8922
119.875 4760 68.9928
119.992 5022 70.8661
120.109 5124 71.5821
120.226 5297 72.7805
120.343 5187 72.0208
120.46 5255 72.4914
120.578 5302 72.8148
120.695 5281 72.6705
120.812 5091 71.3512
120.929 5099 71.4073
121.046 4934 70.2424
121.163 4829 69.491
121.279 4665 68.3008
121.396 4687 68.4617
121.513 4567 67.5796
121.63 4826 69.4694
121.747 4758 68.9783
121.863 4814 69.383
121.98 4955 70.3918
122.097 4950 70.3562
122.213 5221 72.2565
122.33 5059 71.1266
122.446 5146 71.7356
122.563 5015 70.8167
122.679 4784 69.1665
122.795 4770 69.0652
122.912 4646 68.1616
123.028 4392 66.2722
123.144 4112 64.1249
123.26 3662 60.5145
123.377 0 1
123.493 0 1
123.609 0 1
123.725 0 1
123.84 0 1
123.956 0 1
124.072 0 1
124.188 0 1
124.303 0 1
124.419 0 1
126.852 0 1
126.968 0 1
127.083 0 1
127.199 0 1
127.315 0 1
127.431 0 1
127.547 0 1
127.663 0 1
127.779 0 1
127.895 0 1
128.011 0 1
128.127 0 1
128.243 0 1
128.359 4232 65.0538
128.476 3846 62.0161
128.592 3964 62.9603
128.708 4446 66.6783
128.825 4747 68.8985
128.941 5092 71.3583
129.058 5371 73.2871
129.174 5319 72.9315
129.291 5433 73.7089
129.408 5312 72.8835
129.524 5349 73.1369
129.641 5398 73.4711
129.758 5182 71.9861
129.875 5026 70.8943
129.992 5055 71.0985
130.108 4959 70.4202
130.225 4833 69.5198
130.342 4806 69.3253
130.459 4774 69.0941
130.576 5040 70.993
130.693 5013 70.8025
130.81 5104 71.4423
130.928 4962 70.4415
131.045 5006 70.7531
131.162 5041 71
131.279 5143 71.7147
131.396 5298 72.7874
131.513 5053 71.0845
131.631 4918 70.1285
131.748 4704 68.5857
131.865 4305 65.6125
131.983 3906 62.498
132.1 3825 61.8466
132.217 4048 63.6239
132.335 4345 65.9166
132.452 4577 67.6535
132.57 4993 70.6612
132.687 4804 69.3109
132.804 5101 71.4213
132.922 5149 71.7565
133.039 5002 70.7248
133.157 5095 71.3793
133.274 5048 71.0493
133.392 4834 69.527
133.509 4811 69.3614
133.627 4618 67.9559
133.744 4515 67.1937
133.862 4540 67.3795
133.979 4545 67.4166
134.097 4613 67.9191
134.214 4767 69.0435
134.332 4654 68.2202
134.449 4738 68.8331
134.567 4713 68.6513
134.684 4874 69.814
134.802 4811 69.3614
134.919 4807 69.3325
135.037 4953 70.3776
135.154 4707 68.6076
135.272 4613 67.9191
135.389 4427 66.5357
135.507 4063 63.7417
135.624 3663 60.5227
135.742 3692 60.7618
135.859 3868 62.1932
135.977 4245 65.1537
136.094 4656 68.2349
136.211 4824 69.455
136.329 4952 70.3704
136.446 4833 69.5198
136.564 4981 70.5762
136.681 5014 70.8096
136.798 4907 70.05
136.915 4849 69.6348
137.033 4525 67.2681
137.15 4493 67.0298
137.267 4619 67.9632
137.384 4432 66.5733
137.502 4494 67.0373
137.619 4405 66.3702
137.736 4535 67.3424
137.853 4463 66.8057
137.97 4447 66.6858
138.087 4702 68.5711
138.204 4524 67.2607
138.321 4498 67.0671
138.438 4674 68.3667
138.555 4732 68.7895
138.672 4667 68.3154
138.788 4601 67.8307
138.905 4568 67.587
139.022 4293 65.521
139.139 3952 62.8649
139.255 3675 60.6218
139.372 3732 61.0901
139.488 3865 62.1691
139.605 4129 64.2573
139.721 4493 67.0298
139.838 4548 67.4389
139.954 4761 69
140.071 4647 68.1689
140.187 4736 68.8186
140.303 4731 68.7823
140.419 4636 68.0882
140.535 4548 67.4389
140.652 4392 66.2722
140.768 0 1
140.884 0 1
141 0 1
141.115 0 1
141.231 0 1
141.347 0 1
141.463 0 1
141.578 0 1
141.694 0 1
144.104 0 1
144.219 0 1
144.335 0 1
144.45 0 1
144.566 0 1
144.682 0 1
144.798 0 1
144.914 0 1
145.03 0 1
145.146 4026 63.4508
145.262 4091 63.9609
145.378 4059 63.7103
145.494 3958 62.9126
145.61 3966 62.9762
145.726 3724 61.0246
145.842 3741 61.1637
145.959 3645 60.3738
146.075 3743 61.1801
146.192 3716 60.959
146.308 3700 60.8276
146.425 3683 60.6877
146.541 3708 60.8933
146.658 3697 60.803
146.774 3644 60.3656
146.891 3685 60.7042
147.008 3707 60.8851
147.125 3885 62.3298
147.241 3852 62.0645
147.358 3702 60.8441
147.475 3568 59.7327
147.592 3427 58.5406
147.709 3198 56.5509
147.826 3001 54.7814
147.943 2914 53.9815
148.06 3056 55.2811
148.177 3235 56.8771
148.294 3541 59.5063
148.411 3562 59.6825
148.528 3742 61.1719
148.645 3780 61.4817
148.762 3835 61.9274
148.88 3697 60.803
148.997 3500 59.1608
149.114 3865 62.1691
149.231 3629 60.2412
149.349 3540 59.4979
149.466 3422 58.4979
149.583 3385 58.1808
149.701 3409 58.3866
149.818 3199 56.5597
149.935 3427 58.5406
150.053 3418 58.4637
150.17 3458 58.8048
150.287 3427 58.5406
150.405 3507 59.2199
150.522 3468 58.8897
150.64 3518 59.3127
150.757 3601 60.0083
150.875 3542 59.5147
150.992 3397 58.2838
151.11 3361 57.9741
151.227 3228 56.8155
151.344 3012 54.8817
151.462 2761 52.5452
151.579 2746 52.4023
151.697 2813 53.0377
151.814 3078 55.4797
151.932 3374 58.0861
152.049 3509 59.2368
152.167 3554 59.6154
152.284 3630 60.2495
152.402 3637 60.3075
152.519 3488 59.0593
152.636 3511 59.2537
152.754 3559 59.6574
152.871 3445 58.6941
152.989 3361 57.9741
153.106 3349 57.8705
153.223 3210 56.6569
153.341 3246 56.9737
153.458 3241 56.9298
153.575 3318 57.6021
153.693 3247 56.9825
153.81 3346 57.8446
153.927 3418 58.4637
154.044 3441 58.66
154.162 3413 58.4209
154.279 3555 59.6238
154.396 3557 59.6406
154.513 3524 59.3633
154.63 3526 59.3801
154.747 3577 59.808
154.864 3377 58.112
154.981 3248 56.9912
155.098 3048 55.2087
155.215 2909 53.9351
155.332 3071 55.4166
155.449 3281 57.28
155.566 3301 57.4543
155.683 3484 59.0254
155.8 3534 59.4475
155.917 3465 58.8643
156.033 3553 59.607
156.15 0 1
156.267 0 1
156.383 0 1
156.5 0 1
156.617 0 1
156.733 0 1
156.85 0 1
156.966 0 1
157.082 0 1
157.199 0 1
157.315 0 1
157.431 0 1
157.547 0 1
157.664 0 1
157.78 0 1
157.896 0 1
158.012 0 1
158.128 0 1
158.244 0 1
158.359 0 1
158.475 0 1
158.591 0 1
158.706 0 1
