
6.15755 0 1
6.2731 0 1
6.3887 0 1
6.50437 0 1
6.62009 0 1
6.73587 0 1
6.8517 0 1
6.96759 0 1
7.08353 0 1
7.19952 0 1
7.31557 0 1
7.43166 0 1
7.54781 0 1
7.664 0 1
7.78024 0 1
7.89653 0 1
8.01286 0 1
8.12924 0 1
8.24567 0 1
8.36213 0 1
8.47864 0 1
8.59519 0 1
8.71178 0 1
8.82841 0 1
8.94508 0 1
9.06179 0 1
9.17853 0 1
9.29531 0 1
9.41212 0 1
9.52897 0 1
9.64584 0 1
9.76276 0 1
9.8797 0 1
9.99667 0 1
10.1137 0 1
10.2307 0 1
10.3478 0 1
10.4648 0 1
10.5819 0 1
10.6991 0 1
10.8162 0 1
10.9334 0 1
11.0506 0 1
11.1678 0 1
11.285 0 1
11.4023 0 1
11.5196 0 1
11.6369 0 1
11.7542 0 1
11.8715 0 1
11.9888 0 1
12.1062 0 1
12.2235 0 1
12.3409 0 1
12.4582 0 1
12.5756 0 1
12.693 0 1
12.8104 0 1
12.9278 0 1
13.0452 0 1
13.1626 0 1
13.28 0 1
13.3974 0 1
13.5149 0 1
13.6323 0 1
13.7497 0 1
13.8671 0 1
13.9845 0 1
14.1019 0 1
14.2193 0 1
14.3367 0 1
14.4541 0 1
14.5714 0 1
14.6888 0 1
14.8062 0 1
14.9235 0 1
15.0408 0 0
15.1581 0 0
15.2755 0 0
15.3927 0 0
15.51 0 0
15.6273 0 0
15.7445 0 0
15.8617 0 0
15.9789 0 0
16.0961 0 0
16.2132 0 0
16.3304 0 0
16.4475 0 0
16.5646 0 0
16.6816 0 0
16.7986 0 0
16.9156 0 0
17.0326 0 0
17.1496 0 0
17.2665 0 0
17.3833 0 0
17.5002 0 0
17.617 0 0
17.7338 0 0
17.8505 0 0
17.9672 0 0
18.0839 0 0
18.2005 0 0
18.3171 0 0
18.4337 0 0
18.5502 0 0
18.6666 0 0
18.7831 0 0
18.8994 0 0
19.0158 0 0
19.1321 0 0
19.2483 0 0
19.3645 0 0
19.4806 0 0
19.5967 0 0
19.7128 0 0
19.8288 0 0
19.9447 0 0
20.0606 0 1
20.1764 0 1
20.2922 0 1
20.4079 0 1
20.5236 0 1
20.6392 0 1
20.7548 0 1
20.8702 0 1
23.3078 0 1
23.4233 0 1
23.539 0 1
23.6547 0 1
23.7704 0 1
23.8862 0 1
24.0021 0 1
24.118 0 1
24.234 0 1
24.35 0 1
24.4661 861 29.3428
24.5822 853 29.2062
24.6984 897 29.95
24.8146 928 30.4631
24.9309 910 30.1662
25.0472 942 30.692
25.1636 978 31.273
25.28 1022 31.9687
25.3965 1012 31.8119
25.513 992 31.496
25.6296 1060 32.5576
25.7462 999 31.607
25.8628 1018 31.9061
25.9795 1027 32.0468
26.0962 1066 32.6497
26.213 1019 31.9218
26.3298 959 30.9677
26.4466 997 31.5753
26.5635 987 31.4166
26.6804 965 31.0644
26.7973 945 30.7409
26.9143 909 30.1496
27.0313 827 28.7576
27.1483 869 29.4788
27.2653 894 29.8998
27.3824 836 28.9137
27.4996 932 30.5287
27.6167 897 29.95
27.7339 957 30.9354
27.8511 842 29.0172
27.9683 856 29.2575
28.0855 799 28.2666
28.2028 860 29.3258
28.3201 845 29.0689
28.4374 860 29.3258
28.5547 870 29.4958
28.6721 910 30.1662
28.7894 928 30.4631
28.9068 949 30.8058
29.0242 898 29.9666
29.1416 923 30.3809
29.259 909 30.1496
29.3764 945 30.7409
29.4939 920 30.3315
29.6113 934 30.5614
29.7288 943 30.7083
29.8463 957 30.9354
29.9638 956 30.9192
30.0812 923 30.3809
30.1987 948 30.7896
30.3162 873 29.5466
30.4337 856 29.2575
30.5512 799 28.2666
30.6687 784 28
30.7862 856 29.2575
30.9037 824 28.7054
31.0212 901 30.0167
31.1387 885 29.7489
31.2562 829 28.7924
31.3737 844 29.0517
31.4912 806 28.3901
31.6087 801 28.3019
31.7262 848 29.1204
31.8436 836 28.9137
31.9611 853 29.2062
32.0785 850 29.1548
32.1959 915 30.249
32.3134 938 30.6268
32.4308 936 30.5941
32.5482 940 30.6594
32.6655 912 30.1993
32.7829 955 30.9031
32.9002 950 30.8221
33.0176 895 29.9166
33.1349 906 30.0998
33.2522 908 30.133
33.3694 965 31.0644
33.4867 972 31.1769
33.6039 895 29.9166
33.7211 874 29.5635
33.8383 930 30.4959
33.9554 951 30.8383
34.0725 837 28.931
34.1896 781 27.9464
34.3067 802 28.3196
34.4237 757 27.5136
34.5407 762 27.6043
34.6577 809 28.4429
34.7746 830 28.8097
34.8915 805 28.3725
35.0084 827 28.7576
35.1252 843 29.0345
35.242 795 28.1957
35.3587 817 28.5832
35.4755 841 29
35.5921 864 29.3939
35.7088 842 29.0172
35.8254 856 29.2575
35.9419 916 30.2655
36.0584 887 29.7825
36.1749 883 29.7153
36.2913 953 30.8707
36.4077 889 29.8161
36.524 917 30.282
36.6403 877 29.6142
36.7565 860 29.3258
36.8727 873 29.5466
36.9889 911 30.1828
37.1049 898 29.9666
37.221 0 1
37.3369 0 1
37.4529 0 1
37.5687 0 1
37.6845 0 1
37.8003 0 1
37.916 0 1
38.0316 0 1
38.1472 0 1
40.5851 0 1
40.7008 0 1
40.8164 0 1
40.9322 0 1
41.048 0 1
41.1639 0 1
41.2798 0 1
41.3958 0 1
41.5118 0 1
41.6279 0 1
41.744 666 25.807
41.8602 757 27.5136
41.9765 770 27.7489
42.0928 749 27.3679
42.2091 713 26.7021
42.3255 742 27.2397
42.4419 743 27.258
42.5584 727 26.9629
42.675 752 27.4226
42.7915 752 27.4226
42.9081 734 27.0924
43.0248 681 26.096
43.1415 642 25.3377
43.2582 654 25.5734
43.375 655 25.593
43.4918 653 25.5539
43.6087 657 25.632
43.7256 661 25.7099
43.8425 643 25.3574
43.9595 680 26.0768
44.0765 633 25.1595
44.1935 659 25.671
44.3106 664 25.7682
44.4277 655 25.593
44.5448 698 26.4197
44.6619 690 26.2679
44.7791 670 25.8844
44.8963 660 25.6905
45.0136 652 25.5343
45.1308 655 25.593
45.2481 619 24.8797
45.3654 611 24.7184
45.4827 664 25.7682
45.6001 703 26.5141
45.7174 675 25.9808
45.8348 613 24.7588
45.9522 654 25.5734
46.0697 621 24.9199
46.1871 594 24.3721
46.3046 621 24.9199
46.422 580 24.0832
46.5395 599 24.4745
46.657 517 22.7376
46.7745 519 22.7816
46.892 495 22.2486
47.0096 512 22.6274
47.1271 471 21.7025
47.2446 525 22.9129
47.3622 523 22.8692
47.4797 508 22.5389
47.5973 485 22.0227
47.7149 473 21.7486
47.8324 488 22.0907
47.95 483 21.9773
48.0675 538 23.1948
48.1851 503 22.4277
48.3027 475 21.7945
48.4202 504 22.4499
48.5378 494 22.2261
48.6554 481 21.9317
48.7729 499 22.3383
48.8904 506 22.4944
49.008 556 23.5797
49.1255 552 23.4947
49.243 511 22.6053
49.3605 538 23.1948
49.478 528 22.9783
49.5955 508 22.5389
49.713 534 23.1084
49.8304 535 23.1301
49.9479 556 23.5797
50.0653 514 22.6716
50.1827 485 22.0227
50.3001 465 21.5639
50.4175 431 20.7605
50.5348 425 20.6155
50.6521 491 22.1585
50.7694 547 23.388
50.8867 500 22.3607
51.004 503 22.4277
51.1212 547 23.388
51.2384 573 23.9374
51.3556 566 23.7908
51.4727 575 23.9792
51.5899 611 24.7184
51.707 656 25.6125
51.824 704 26.533
51.9411 642 25.3377
52.0581 629 25.0799
52.175 602 24.5357
52.2919 640 25.2982
52.4088 650 25.4951
52.5257 653 25.5539
52.6425 664 25.7682
52.7593 635 25.1992
52.876 651 25.5147
52.9927 636 25.219
53.1094 720 26.8328
53.226 716 26.7582
53.3426 676 26
53.4591 776 27.8568
53.5756 692 26.3059
53.692 695 26.3629
53.8084 712 26.6833
53.9248 638 25.2587
54.0411 571 23.8956
54.1573 646 25.4165
54.2735 0 1
54.3896 0 1
54.5057 0 1
54.6217 0 1
54.7377 0 1
54.8537 0 1
54.9695 0 1
55.0853 0 1
55.2011 0 1
55.3168 0 1
55.4324 0 1
57.824 0 1
57.9396 0 1
58.0553 0 1
58.1711 0 1
58.2869 0 1
58.4028 0 1
58.5187 0 1
58.6347 0 1
58.7508 0 1
58.8669 0 1
58.983 731 27.037
59.0992 644 25.3772
59.2155 659 25.671
59.3318 707 26.5895
59.4482 647 25.4362
59.5646 678 26.0384
59.681 729 27
59.7975 697 26.4008
59.9141 760 27.5681
60.0306 810 28.4605
60.1473 761 27.5862
60.2639 764 27.6405
60.3807 732 27.0555
60.4974 745 27.2947
60.6142 729 27
60.731 679 26.0576
60.8479 758 27.5318
60.9648 743 27.258
61.0818 773 27.8029
61.1987 729 27
61.3158 761 27.5862
61.4328 696 26.3818
61.5499 678 26.0384
61.667 696 26.3818
61.7841 711 26.6646
61.9013 717 26.7769
62.0185 660 25.6905
62.1357 673 25.9422
62.253 665 25.7876
62.3702 631 25.1197
62.4875 677 26.0192
62.6049 602 24.5357
62.7222 588 24.2487
62.8396 639 25.2784
62.9569 603 24.5561
63.0743 662 25.7294
63.1918 612 24.7386
63.3092 659 25.671
63.4267 619 24.8797
63.5441 625 25
63.6616 637 25.2389
63.7791 639 25.2784
63.8966 673 25.9422
64.0142 619 24.8797
64.1317 640 25.2982
64.2492 693 26.3249
64.3668 616 24.8193
64.4843 613 24.7588
64.6019 641 25.318
64.7195 638 25.2587
64.837 606 24.6171
64.9546 631 25.1197
65.0722 647 25.4362
65.1898 616 24.8193
65.3074 646 25.4165
65.4249 581 24.1039
65.5425 622 24.9399
65.6601 616 24.8193
65.7777 587 24.2281
65.8952 588 24.2487
66.0128 591 24.3105
66.1304 617 24.8395
66.2479 508 22.5389
66.3655 530 23.0217
66.483 505 22.4722
66.6005 554 23.5372
66.718 521 22.8254
66.8355 534 23.1084
66.953 545 23.3452
67.0705 578 24.0416
67.1879 597 24.4336
67.3054 589 24.2693
67.4228 552 23.4947
67.5402 581 24.1039
67.6576 545 23.3452
67.7749 587 24.2281
67.8923 565 23.7697
68.0096 560 23.6643
68.1269 594 24.3721
68.2442 518 22.7596
68.3614 567 23.8118
68.4787 592 24.3311
68.5958 538 23.1948
68.713 564 23.7487
68.8302 542 23.2809
68.9473 540 23.2379
69.0643 559 23.6432
69.1814 538 23.1948
69.2984 563 23.7276
69.4154 548 23.4094
69.5323 526 22.9347
69.6492 577 24.0208
69.7661 528 22.9783
69.8829 481 21.9317
69.9997 502 22.4054
70.1165 496 22.2711
70.2332 507 22.5167
70.3499 460 21.4476
70.4665 476 21.8174
70.5831 493 22.2036
70.6996 509 22.561
70.8161 522 22.8473
70.9326 481 21.9317
71.049 501 22.383
71.1653 489 22.1133
71.2817 480 21.9089
71.3979 525 22.9129
71.5141 427 20.664
71.6303 490 22.1359
71.7464 450 21.2132
71.8624 0 1
71.9784 0 1
72.0944 0 1
72.2102 0 1
72.3261 0 1
72.4418 0 1
72.5575 0 1
72.6732 0 1
75.1054 0 1
75.2209 0 1
75.3365 0 1
75.4521 0 1
75.5678 0 1
75.6835 0 1
75.7993 0 1
75.9151 0 1
76.031 0 1
76.147 420 20.4939
76.263 406 20.1494
76.3791 416 20.3961
76.4952 389 19.7231
76.6113 421 20.5183
76.7276 399 19.975
76.8438 448 21.166
76.9601 368 19.1833
77.0765 376 19.3907
77.1929 391 19.7737
77.3093 388 19.6977
77.4258 373 19.3132
77.5423 373 19.3132
77.6589 353 18.7883
77.7755 393 19.8242
77.8921 365 19.105
78.0088 351 18.735
78.1256 345 18.5742
78.2423 342 18.4932
78.3591 345 18.5742
78.4759 357 18.8944
78.5928 333 18.2483
78.7097 329 18.1384
78.8266 327 18.0831
78.9436 301 17.3494
79.0606 307 17.5214
79.1776 243 15.5885
79.2946 249 15.7797
79.4117 297 17.2337
79.5288 310 17.6068
79.6459 294 17.1464
79.7631 258 16.0624
79.8802 289 17
79.9974 274 16.5529
80.1147 253 15.906
80.2319 252 15.8745
80.3491 271 16.4621
80.4664 255 15.9687
80.5837 238 15.4272
80.701 253 15.906
80.8183 243 15.5885
80.9357 226 15.0333
81.053 226 15.0333
81.1704 233 15.2643
81.2877 226 15.0333
81.4051 199 14.1067
81.5225 212 14.5602
81.6399 212 14.5602
81.7573 163 12.7671
81.8747 184 13.5647
81.9922 174 13.1909
82.1096 190 13.784
82.227 197 14.0357
82.3444 158 12.5698
82.4619 152 12.3288
82.5793 166 12.8841
82.6967 166 12.8841
82.8142 151 12.2882
82.9316 122 11.0454
83.049 132 11.4891
83.1664 130 11.4018
83.2838 132 11.4891
83.4012 134 11.5758
83.5186 91 9.53939
83.636 133 11.5326
83.7534 101 10.0499
83.8708 101 10.0499
83.9881 112 10.583
84.1055 95 9.74679
84.2228 103 10.1489
84.3401 92 9.59166
84.4575 86 9.27362
84.5747 78 8.83176
84.692 84 9.16515
84.8093 79 8.88819
84.9265 70 8.3666
85.0437 81 9
85.1609 65 8.06226
85.2781 78 8.83176
85.3952 56 7.48331
85.5123 69 8.30662
85.6294 76 8.7178
85.7465 65 8.06226
85.8636 79 8.88819
85.9806 74 8.60233
86.0976 60 7.74597
86.2145 75 8.66025
86.3315 68 8.24621
86.4484 92 9.59166
86.5652 89 9.43398
86.682 108 10.3923
86.7988 96 9.79796
86.9156 94 9.69536
87.0323 98 9.89949
87.149 99 9.94987
87.2657 98 9.89949
87.3823 101 10.0499
87.4988 107 10.3441
87.6154 140 11.8322
87.7318 123 11.0905
87.8483 111 10.5357
87.9647 144 12
88.081 157 12.53
88.1973 173 13.1529
88.3136 173 13.1529
88.4298 170 13.0384
88.546 171 13.0767
88.6621 183 13.5277
88.7781 156 12.49
88.8942 0 1
89.0101 0 1
89.126 0 1
89.2419 0 1
89.3577 0 1
89.4734 0 1
89.5891 0 1
89.7047 0 1
89.8203 0 1
89.9358 0 1
92.3269 0 1
92.4424 0 1
92.558 0 1
92.6736 0 1
92.7893 0 1
92.905 0 1
93.0208 0 1
93.1366 0 1
93.2525 0 1
93.3685 0 1
93.4845 0 1
93.6005 268 16.3707
93.7167 265 16.2788
93.8328 239 15.4596
93.949 267 16.3401
94.0653 253 15.906
94.1816 256 16
94.2979 258 16.0624
94.4143 233 15.2643
94.5307 231 15.1987
94.6472 222 14.8997
94.7637 217 14.7309
94.8803 225 15
94.9969 208 14.4222
95.1135 239 15.4596
95.2302 231 15.1987
95.3469 163 12.7671
95.4637 188 13.7113
95.5805 154 12.4097
95.6973 192 13.8564
95.8142 274 16.5529
95.9311 272 16.4924
96.048 249 15.7797
96.1649 263 16.2173
96.2819 236 15.3623
96.3989 283 16.8226
96.516 276 16.6132
96.633 297 17.2337
96.7501 285 16.8819
96.8673 285 16.8819
96.9844 310 17.6068
97.1016 315 17.7482
97.2188 310 17.6068
97.336 302 17.3781
97.4532 324 18
97.5704 348 18.6548
97.6877 357 18.8944
97.805 347 18.6279
97.9223 397 19.9249
98.0396 404 20.0998
98.1569 337 18.3576
98.2743 409 20.2237
98.3916 409 20.2237
98.509 422 20.5426
98.6264 411 20.2731
98.7438 383 19.5704
98.8612 394 19.8494
98.9786 347 18.6279
99.096 275 16.5831
99.2134 246 15.6844
99.3308 397 19.9249
99.4482 476 21.8174
99.5656 457 21.3776
99.6831 490 22.1359
99.8005 490 22.1359
99.9179 492 22.1811
100.035 483 21.9773
100.153 480 21.9089
100.27 460 21.4476
100.388 511 22.6053
100.505 501 22.383
100.622 574 23.9583
100.74 491 22.1585
100.857 533 23.0868
100.975 558 23.622
101.092 547 23.388
101.209 528 22.9783
101.327 497 22.2935
101.444 579 24.0624
101.561 548 23.4094
101.679 578 24.0416
101.796 570 23.8747
101.913 544 23.3238
102.03 565 23.7697
102.148 581 24.1039
102.265 610 24.6982
102.382 564 23.7487
102.499 564 23.7487
102.616 459 21.4243
102.733 367 19.1572
102.851 466 21.587
102.968 542 23.2809
103.085 587 24.2281
103.202 571 23.8956
103.319 579 24.0624
103.436 586 24.2074
103.552 585 24.1868
103.669 596 24.4131
103.786 573 23.9374
103.903 577 24.0208
104.02 615 24.7992
104.137 621 24.9199
104.253 644 25.3772
104.37 577 24.0208
104.487 640 25.2982
104.603 594 24.3721
104.72 629 25.0799
104.836 576 24
104.953 655 25.593
105.069 617 24.8395
105.186 644 25.3772
105.302 618 24.8596
105.418 638 25.2587
105.535 615 24.7992
105.651 628 25.0599
105.767 614 24.779
105.883 619 24.8797
105.999 554 23.5372
106.115 0 1
106.231 0 1
106.347 0 1
106.463 0 1
106.579 0 1
106.694 0 1
106.81 0 1
106.926 0 1
107.041 0 1
107.157 0 1
109.576 0 1
109.692 0 1
109.807 0 1
109.923 0 1
110.039 0 1
110.155 0 1
110.27 0 1
110.386 0 1
110.502 0 1
110.618 488 22.0907
110.735 468 21.6333
110.851 458 21.4009
110.967 463 21.5174
111.083 420 20.4939
111.199 369 19.2094
111.316 351 18.735
111.432 393 19.8242
111.549 465 21.5639
111.665 460 21.4476
111.782 444 21.0713
111.898 426 20.6398
112.015 437 20.9045
112.132 435 20.8567
112.248 434 20.8327
112.365 422 20.5426
112.482 396 19.8997
112.599 452 21.2603
112.716 435 20.8567
112.832 448 21.166
112.949 394 19.8494
113.066 376 19.3907
113.183 388 19.6977
113.3 385 19.6214
113.417 398 19.9499
113.534 372 19.2873
113.652 375 19.3649
113.769 370 19.2354
113.886 418 20.445
114.003 356 18.868
114.12 379 19.4679
114.238 364 19.0788
114.355 298 17.2627
114.472 362 19.0263
114.589 342 18.4932
114.707 328 18.1108
114.824 293 17.1172
114.942 273 16.5227
115.059 291 17.0587
115.176 351 18.735
115.294 365 19.105
115.411 345 18.5742
115.529 333 18.2483
115.646 334 18.2757
115.764 344 18.5472
115.881 367 19.1572
115.999 332 18.2209
116.116 372 19.2873
116.234 349 18.6815
116.351 305 17.4642
116.469 345 18.5742
116.586 336 18.3303
116.704 360 18.9737
116.821 288 16.9706
116.939 326 18.0555
117.056 273 16.5227
117.174 313 17.6918
117.291 348 18.6548
117.409 366 19.1311
117.526 339 18.412
117.644 369 19.2094
117.761 330 18.1659
117.879 304 17.4356
117.996 287 16.9411
118.114 261 16.1555
118.231 282 16.7929
118.349 270 16.4317
118.466 351 18.735
118.584 325 18.0278
118.701 322 17.9444
118.819 356 18.868
118.936 340 18.4391
119.053 353 18.7883
119.171 342 18.4932
119.288 362 19.0263
119.405 378 19.4422
119.523 347 18.6279
119.64 333 18.2483
119.757 365 19.105
119.875 354 18.8149
119.992 357 18.8944
120.109 343 18.5203
120.226 397 19.9249
120.343 353 18.7883
120.46 330 18.1659
120.578 382 19.5448
120.695 354 18.8149
120.812 374 19.3391
120.929 350 18.7083
121.046 368 19.1833
121.163 372 19.2873
121.279 350 18.7083
121.396 355 18.8414
121.513 339 18.412
121.63 319 17.8606
121.747 277 16.6433
121.863 266 16.3095
121.98 292 17.088
122.097 338 18.3848
122.213 353 18.7883
122.33 356 18.868
122.446 388 19.6977
122.563 384 19.5959
122.679 387 19.6723
122.795 364 19.0788
122.912 400 20
123.028 380 19.4936
123.144 385 19.6214
123.26 380 19.4936
123.377 0 1
123.493 0 1
123.609 0 1
123.725 0 1
123.84 0 1
123.956 0 1
124.072 0 1
124.188 0 1
124.303 0 1
124.419 0 1
126.852 0 1
126.968 0 1
127.083 0 1
127.199 0 1
127.315 0 1
127.431 0 1
127.547 0 1
127.663 0 1
127.779 0 1
127.895 0 1
128.011 0 1
128.127 0 1
128.243 0 1
128.359 469 21.6564
128.476 472 21.7256
128.592 490 22.1359
128.708 488 22.0907
128.825 537 23.1733
128.941 506 22.4944
129.058 477 21.8403
129.174 483 21.9773
129.291 489 22.1133
129.408 457 21.3776
129.524 513 22.6495
129.641 517 22.7376
129.758 537 23.1733
129.875 474 21.7715
129.992 464 21.5407
130.108 509 22.561
130.225 512 22.6274
130.342 449 21.1896
130.459 408 20.199
130.576 365 19.105
130.693 345 18.5742
130.81 354 18.8149
130.928 379 19.4679
131.045 445 21.095
131.162 540 23.2379
131.279 504 22.4499
131.396 550 23.4521
131.513 507 22.5167
131.631 528 22.9783
131.748 516 22.7156
131.865 522 22.8473
131.983 520 22.8035
132.1 576 24
132.217 554 23.5372
132.335 533 23.0868
132.452 532 23.0651
132.57 553 23.516
132.687 551 23.4734
132.804 590 24.2899
132.922 549 23.4307
133.039 598 24.454
133.157 520 22.8035
133.274 545 23.3452
133.392 548 23.4094
133.509 543 23.3024
133.627 585 24.1868
133.744 508 22.5389
133.862 489 22.1133
133.979 457 21.3776
134.097 440 20.9762
134.214 442 21.0238
134.332 375 19.3649
134.449 395 19.8746
134.567 425 20.6155
134.684 496 22.2711
134.802 552 23.4947
134.919 618 24.8596
135.037 631 25.1197
135.154 595 24.3926
135.272 512 22.6274
135.389 556 23.5797
135.507 547 23.388
135.624 583 24.1454
135.742 579 24.0624
135.859 631 25.1197
135.977 589 24.2693
136.094 578 24.0416
136.211 615 24.7992
136.329 634 25.1794
136.446 624 24.98
136.564 609 24.6779
136.681 600 24.4949
136.798 634 25.1794
136.915 604 24.5764
137.033 591 24.3105
137.15 566 23.7908
137.267 566 23.7908
137.384 580 24.0832
137.502 552 23.4947
137.619 501 22.383
137.736 463 21.5174
137.853 467 21.6102
137.97 429 20.7123
138.087 419 20.4695
138.204 482 21.9545
138.321 515 22.6936
138.438 594 24.3721
138.555 597 24.4336
138.672 617 24.8395
138.788 583 24.1454
138.905 633 25.1595
139.022 685 26.1725
139.139 709 26.6271
139.255 676 26
139.372 697 26.4008
139.488 666 25.807
139.605 637 25.2389
139.721 638 25.2587
139.838 625 25
139.954 679 26.0576
140.071 592 24.3311
140.187 640 25.2982
140.303 686 26.1916
140.419 631 25.1197
140.535 657 25.632
140.652 616 24.8193
140.768 0 1
140.884 0 1
141 0 1
141.115 0 1
141.231 0 1
141.347 0 1
141.463 0 1
141.578 0 1
141.694 0 1
144.104 0 1
144.219 0 1
144.335 0 1
144.45 0 1
144.566 0 1
144.682 0 1
144.798 0 1
144.914 0 1
145.03 0 1
145.146 674 25.9615
145.262 617 24.8395
145.378 672 25.923
145.494 604 24.5764
145.61 626 25.02
145.726 634 25.1794
145.842 643 25.3574
145.959 547 23.388
146.075 605 24.5967
146.192 546 23.3666
146.308 506 22.4944
146.425 528 22.9783
146.541 520 22.8035
146.658 483 21.9773
146.774 530 23.0217
146.891 575 23.9792
147.008 557 23.6008
147.125 528 22.9783
147.241 573 23.9374
147.358 623 24.96
147.475 653 25.5539
147.592 650 25.4951
147.709 660 25.6905
147.826 633 25.1595
147.943 614 24.779
148.06 676 26
148.177 649 25.4755
148.294 643 25.3574
148.411 623 24.96
148.528 606 24.6171
148.645 625 25
148.762 670 25.8844
148.88 595 24.3926
148.997 581 24.1039
149.114 660 25.6905
149.231 580 24.0832
149.349 625 25
149.466 592 24.3311
149.583 543 23.3024
149.701 556 23.5797
149.818 508 22.5389
149.935 515 22.6936
150.053 525 22.9129
150.17 525 22.9129
150.287 504 22.4499
150.405 529 23
150.522 530 23.0217
150.64 569 23.8537
150.757 557 23.6008
150.875 563 23.7276
150.992 597 24.4336
151.11 631 25.1197
151.227 640 25.2982
151.344 645 25.3969
151.462 619 24.8797
151.579 639 25.2784
151.697 666 25.807
151.814 626 25.02
151.932 618 24.8596
152.049 658 25.6515
152.167 599 24.4745
152.284 659 25.671
152.402 647 25.4362
152.519 655 25.593
152.636 650 25.4951
152.754 637 25.2389
152.871 661 25.7099
152.989 639 25.2784
153.106 635 25.1992
153.223 592 24.3311
153.341 602 24.5357
153.458 524 22.891
153.575 565 23.7697
153.693 536 23.1517
153.81 567 23.8118
153.927 492 22.1811
154.044 579 24.0624
154.162 585 24.1868
154.279 561 23.6854
154.396 612 24.7386
154.513 613 24.7588
154.63 653 25.5539
154.747 651 25.5147
154.864 675 25.9808
154.981 688 26.2298
155.098 667 25.8263
155.215 687 26.2107
155.332 659 25.671
155.449 705 26.5518
155.566 698 26.4197
155.683 703 26.5141
155.8 640 25.2982
155.917 718 26.7955
156.033 731 27.037
156.15 0 1
156.267 0 1
156.383 0 1
156.5 0 1
156.617 0 1
156.733 0 1
156.85 0 1
156.966 0 1
157.082 0 1
157.199 0 1
157.315 0 1
157.431 0 1
157.547 0 1
157.664 0 1
157.78 0 1
157.896 0 1
158.012 0 1
158.128 0 1
158.244 0 1
158.359 0 1
158.475 0 1
158.591 0 1
158.706 0 1
