
6.15755 0 1
6.2731 0 1
6.3887 0 1
6.50437 0 1
6.62009 0 1
6.73587 0 1
6.8517 0 1
6.96759 0 1
7.08353 0 1
7.19952 0 1
7.31557 0 1
7.43166 0 1
7.54781 0 1
7.664 0 1
7.78024 0 1
7.89653 0 1
8.01286 0 1
8.12924 0 1
8.24567 0 1
8.36213 0 1
8.47864 0 1
8.59519 0 1
8.71178 0 1
8.82841 0 1
8.94508 0 1
9.06179 0 1
9.17853 0 1
9.29531 0 1
9.41212 0 1
9.52897 0 1
9.64584 0 1
9.76276 0 1
9.8797 0 1
9.99667 0 1
10.1137 0 1
10.2307 0 1
10.3478 0 1
10.4648 0 1
10.5819 0 1
10.6991 0 1
10.8162 0 1
10.9334 0 1
11.0506 0 1
11.1678 0 1
11.285 0 1
11.4023 0 1
11.5196 0 1
11.6369 0 1
11.7542 0 1
11.8715 0 1
11.9888 0 1
12.1062 0 1
12.2235 0 1
12.3409 0 1
12.4582 0 1
12.5756 0 1
12.693 0 1
12.8104 0 1
12.9278 0 1
13.0452 0 1
13.1626 0 1
13.28 0 1
13.3974 0 1
13.5149 0 1
13.6323 0 1
13.7497 0 1
13.8671 0 1
13.9845 0 1
14.1019 0 1
14.2193 0 1
14.3367 0 1
14.4541 0 1
14.5714 0 1
14.6888 0 1
14.8062 0 1
14.9235 0 1
15.0408 3262 57.1139
15.1581 3319 57.6108
15.2755 3354 57.9137
15.3927 3361 57.9741
15.51 3215 56.701
15.6273 3140 56.0357
15.7445 2900 53.8516
15.8617 2921 54.0463
15.9789 3096 55.6417
16.0961 3011 54.8726
16.2132 3042 55.1543
16.3304 3004 54.8088
16.4475 3020 54.9545
16.5646 2961 54.4151
16.6816 2806 52.9717
16.7986 2843 53.3198
16.9156 2714 52.0961
17.0326 2600 50.9902
17.1496 2780 52.7257
17.2665 2798 52.8961
17.3833 2660 51.5752
17.5002 2754 52.4786
17.617 2658 51.5558
17.7338 2739 52.3355
17.8505 2797 52.8867
17.9672 2703 51.9904
18.0839 2722 52.1728
18.2005 2617 51.1566
18.3171 2628 51.264
18.4337 2638 51.3615
18.5502 2684 51.8073
18.6666 2634 51.3225
18.7831 2782 52.7447
18.8994 2653 51.5073
19.0158 2595 50.9411
19.1321 2374 48.7237
19.2483 2381 48.7955
19.3645 2114 45.9783
19.4806 2118 46.0217
19.5967 2098 45.8039
19.7128 2109 45.9239
19.8288 1999 44.7102
19.9447 1721 41.4849
20.0606 0 1
20.1764 0 1
20.2922 0 1
20.4079 0 1
20.5236 0 1
20.6392 0 1
20.7548 0 1
20.8702 0 1
23.3078 0 1
23.4233 0 1
23.539 0 1
23.6547 0 1
23.7704 0 1
23.8862 0 1
24.0021 0 1
24.118 0 1
24.234 0 1
24.35 0 1
24.4661 1065 32.6343
24.5822 1194 34.5543
24.6984 1440 37.9473
24.8146 1700 41.2311
24.9309 2099 45.8148
25.0472 2322 48.1871
25.1636 2471 49.7092
25.28 2619 51.1762
25.3965 2632 51.303
25.513 2825 53.1507
25.6296 2856 53.4416
25.7462 2913 53.9722
25.8628 2856 53.4416
25.9795 2776 52.6878
26.0962 2755 52.4881
26.213 2667 51.643
26.3298 2551 50.5074
26.4466 2547 50.4678
26.5635 2456 49.558
26.6804 2351 48.4871
26.7973 2316 48.1248
26.9143 2279 47.7389
27.0313 2248 47.4131
27.1483 2241 47.3392
27.2653 2392 48.9081
27.3824 2336 48.3322
27.4996 2447 49.4672
27.6167 2436 49.3559
27.7339 2464 49.6387
27.8511 2417 49.163
27.9683 2412 49.1121
28.0855 2360 48.5798
28.2028 2343 48.4045
28.3201 2334 48.3115
28.4374 2542 50.4183
28.5547 2589 50.8822
28.6721 2616 51.1468
28.7894 2595 50.9411
28.9068 2503 50.03
29.0242 2565 50.6458
29.1416 2531 50.309
29.259 2462 49.6185
29.3764 2352 48.4974
29.4939 2301 47.9687
29.6113 2256 47.4974
29.7288 2323 48.1975
29.8463 2252 47.4552
29.9638 2271 47.655
30.0812 2267 47.613
30.1987 2036 45.1221
30.3162 2070 45.4973
30.4337 2056 45.3431
30.5512 2128 46.1303
30.6687 2204 46.9468
30.7862 2268 47.6235
30.9037 2377 48.7545
31.0212 2509 50.0899
31.1387 2447 49.4672
31.2562 2444 49.4368
31.3737 2324 48.2079
31.4912 2247 47.4025
31.6087 2296 47.9166
31.7262 2242 47.3498
31.8436 2223 47.1487
31.9611 2346 48.4355
32.0785 2328 48.2494
32.1959 2332 48.2908
32.3134 2314 48.1041
32.4308 2206 46.9681
32.5482 2096 45.7821
32.6655 2055 45.3321
32.7829 2166 46.5403
32.9002 2059 45.3762
33.0176 2006 44.7884
33.1349 1935 43.9886
33.2522 2016 44.8999
33.3694 2008 44.8107
33.4867 2102 45.8476
33.6039 2096 45.7821
33.7211 2044 45.2106
33.8383 2081 45.618
33.9554 1920 43.8178
34.0725 1985 44.5533
34.1896 1972 44.4072
34.3067 2008 44.8107
34.4237 2132 46.1736
34.5407 2158 46.4543
34.6577 2238 47.3075
34.7746 2211 47.0213
34.8915 2203 46.9361
35.0084 2249 47.4236
35.1252 2045 45.2217
35.242 2070 45.4973
35.3587 2037 45.1331
35.4755 2009 44.8219
35.5921 2066 45.4533
35.7088 2024 44.9889
35.8254 2099 45.8148
35.9419 2040 45.1664
36.0584 2047 45.2438
36.1749 1954 44.2041
36.2913 1926 43.8862
36.4077 1819 42.6497
36.524 1728 41.5692
36.6403 1680 40.9878
36.7565 1610 40.1248
36.8727 1564 39.5474
36.9889 1430 37.8153
37.1049 1264 35.5528
37.221 0 1
37.3369 0 1
37.4529 0 1
37.5687 0 1
37.6845 0 1
37.8003 0 1
37.916 0 1
38.0316 0 1
38.1472 0 1
40.5851 0 1
40.7008 0 1
40.8164 0 1
40.9322 0 1
41.048 0 1
41.1639 0 1
41.2798 0 1
41.3958 0 1
41.5118 0 1
41.6279 0 1
41.744 895 29.9166
41.8602 1146 33.8526
41.9765 1286 35.8608
42.0928 1441 37.9605
42.2091 1496 38.6782
42.3255 1532 39.1408
42.4419 1595 39.9375
42.5584 1664 40.7922
42.675 1565 39.5601
42.7915 1559 39.4842
42.9081 1365 36.9459
43.0248 1455 38.1445
43.1415 1483 38.5097
43.2582 1582 39.7744
43.375 1611 40.1373
43.4918 1594 39.9249
43.6087 1663 40.7799
43.7256 1619 40.2368
43.8425 1551 39.3827
43.9595 1628 40.3485
44.0765 1582 39.7744
44.1935 1448 38.0526
44.3106 1548 39.3446
44.4277 1613 40.1622
44.5448 1606 40.0749
44.6619 1627 40.3361
44.7791 1697 41.1947
44.8963 1619 40.2368
45.0136 1710 41.3521
45.1308 1722 41.497
45.2481 1746 41.7852
45.3654 1794 42.3556
45.4827 1915 43.7607
45.6001 1866 43.1972
45.7174 1799 42.4146
45.8348 1874 43.2897
45.9522 1863 43.1625
46.0697 1757 41.9166
46.1871 1691 41.1218
46.3046 1592 39.8999
46.422 1480 38.4708
46.5395 1414 37.6032
46.657 1481 38.4838
46.7745 1480 38.4708
46.892 1513 38.8973
47.0096 1653 40.6571
47.1271 1688 41.0853
47.2446 1669 40.8534
47.3622 1640 40.4969
47.4797 1635 40.4351
47.5973 1574 39.6737
47.7149 1548 39.3446
47.8324 1509 38.8458
47.95 1606 40.0749
48.0675 1538 39.2173
48.1851 1636 40.4475
48.3027 1665 40.8044
48.4202 1630 40.3733
48.5378 1740 41.7133
48.6554 1667 40.8289
48.7729 1681 41
48.8904 1636 40.4475
49.008 1662 40.7676
49.1255 1660 40.7431
49.243 1652 40.6448
49.3605 1643 40.5339
49.478 1585 39.8121
49.5955 1510 38.8587
49.713 1420 37.6829
49.8304 1360 36.8782
49.9479 1313 36.2353
50.0653 1367 36.973
50.1827 1413 37.5899
50.3001 1497 38.6911
50.4175 1513 38.8973
50.5348 1562 39.5221
50.6521 1566 39.5727
50.7694 1640 40.4969
50.8867 1667 40.8289
51.004 1643 40.5339
51.1212 1603 40.0375
51.2384 1609 40.1123
51.3556 1625 40.3113
51.4727 1673 40.9023
51.5899 1866 43.1972
51.707 1923 43.852
51.824 2099 45.8148
51.9411 2339 48.3632
52.0581 2519 50.1896
52.175 2630 51.2835
52.2919 2834 53.2353
52.4088 2856 53.4416
52.5257 2685 51.817
52.6425 2757 52.5071
52.7593 2628 51.264
52.876 2612 51.1077
52.9927 2864 53.5164
53.1094 2730 52.2494
53.226 2649 51.4684
53.3426 2622 51.2055
53.4591 2485 49.8498
53.5756 2807 52.9811
53.692 3924 62.6418
53.8084 5712 75.5778
53.9248 7758 88.0795
54.0411 10580 102.859
54.1573 13482 116.112
54.2735 0 1
54.3896 0 1
54.5057 0 1
54.6217 0 1
54.7377 0 1
54.8537 0 1
54.9695 0 1
55.0853 0 1
55.2011 0 1
55.3168 0 1
55.4324 0 1
57.824 0 1
57.9396 0 1
58.0553 0 1
58.1711 0 1
58.2869 0 1
58.4028 0 1
58.5187 0 1
58.6347 0 1
58.7508 0 1
58.8669 0 1
58.983 55906 236.444
59.0992 61643 248.28
59.2155 62343 249.686
59.3318 59944 244.835
59.4482 56436 237.563
59.5646 52315 228.725
59.681 48476 220.173
59.7975 43611 208.832
59.9141 39068 197.656
60.0306 34315 185.243
60.1473 30136 173.597
60.2639 26244 162
60.3807 23181 152.253
60.4974 20982 144.852
60.6142 18701 136.752
60.731 16697 129.217
60.8479 14490 120.374
60.9648 12087 109.941
61.0818 10026 100.13
61.1987 8327 91.2524
61.3158 6803 82.4803
61.4328 5799 76.1512
61.5499 4893 69.95
61.667 4079 63.867
61.7841 3440 58.6515
61.9013 3039 55.1271
62.0185 2839 53.2823
62.1357 2605 51.0392
62.253 2488 49.8799
62.3702 2472 49.7192
62.4875 2555 50.547
62.6049 2415 49.1426
62.7222 2600 50.9902
62.8396 2699 51.9519
62.9569 2817 53.0754
63.0743 2775 52.6783
63.1918 2627 51.2543
63.3092 2361 48.5901
63.4267 2205 46.9574
63.5441 2059 45.3762
63.6616 1951 44.1701
63.7791 1963 44.3058
63.8966 1923 43.852
64.0142 2000 44.7214
64.1317 2020 44.9444
64.2492 2052 45.299
64.3668 1935 43.9886
64.4843 2026 45.0111
64.6019 1895 43.5316
64.7195 1928 43.909
64.837 1875 43.3013
64.9546 1924 43.8634
65.0722 1915 43.7607
65.1898 1790 42.3084
65.3074 1779 42.1782
65.4249 1771 42.0833
65.5425 1716 41.4246
65.6601 1790 42.3084
65.7777 1774 42.1189
65.8952 1669 40.8534
66.0128 1791 42.3202
66.1304 1751 41.845
66.2479 1799 42.4146
66.3655 1841 42.9069
66.483 1820 42.6615
66.6005 1931 43.9431
66.718 1932 43.9545
66.8355 1926 43.8862
66.953 1901 43.6005
67.0705 1905 43.6463
67.1879 1927 43.8976
67.3054 1822 42.6849
67.4228 1849 43
67.5402 1953 44.1928
67.6576 1915 43.7607
67.7749 1867 43.2088
67.8923 1913 43.7379
68.0096 1977 44.4635
68.1269 1860 43.1277
68.2442 1845 42.9535
68.3614 1834 42.8252
68.4787 1804 42.4735
68.5958 1801 42.4382
68.713 1698 41.2068
68.8302 1728 41.5692
68.9473 1708 41.328
69.0643 1739 41.7013
69.1814 1667 40.8289
69.2984 1755 41.8927
69.4154 1726 41.5452
69.5323 1738 41.6893
69.6492 1676 40.939
69.7661 1736 41.6653
69.8829 1782 42.2137
69.9997 1761 41.9643
70.1165 1836 42.8486
70.2332 1839 42.8836
70.3499 1688 41.0853
70.4665 1611 40.1373
70.5831 1621 40.2616
70.6996 1409 37.5366
70.8161 1331 36.4829
70.9326 1253 35.3977
71.049 1162 34.0881
71.1653 1110 33.3167
71.2817 1094 33.0757
71.3979 1008 31.749
71.5141 943 30.7083
71.6303 845 29.0689
71.7464 744 27.2764
71.8624 0 1
71.9784 0 1
72.0944 0 1
72.2102 0 1
72.3261 0 1
72.4418 0 1
72.5575 0 1
72.6732 0 1
75.1054 0 1
75.2209 0 1
75.3365 0 1
75.4521 0 1
75.5678 0 1
75.6835 0 1
75.7993 0 1
75.9151 0 1
76.031 0 1
76.147 1215 34.8569
76.263 1370 37.0135
76.3791 1412 37.5766
76.4952 1547 39.3319
76.6113 1503 38.7685
76.7276 1626 40.3237
76.8438 1604 40.05
76.9601 1623 40.2865
77.0765 1574 39.6737
77.1929 1645 40.5586
77.3093 1531 39.128
77.4258 1540 39.2428
77.5423 1536 39.1918
77.6589 1533 39.1535
77.7755 1514 38.9102
77.8921 1421 37.6962
78.0088 1429 37.8021
78.1256 1449 38.0657
78.2423 1467 38.3014
78.3591 1514 38.9102
78.4759 1548 39.3446
78.5928 1537 39.2046
78.7097 1499 38.7169
78.8266 1389 37.2693
78.9436 1525 39.0512
79.0606 1534 39.1663
79.1776 1620 40.2492
79.2946 1554 39.4208
79.4117 1648 40.5956
79.5288 1718 41.4488
79.6459 1618 40.2244
79.7631 1608 40.0999
79.8802 1624 40.2989
79.9974 1539 39.2301
80.1147 1619 40.2368
80.2319 1684 41.0366
80.3491 1691 41.1218
80.4664 1672 40.8901
80.5837 1683 41.0244
80.701 1629 40.3609
80.8183 1730 41.5933
80.9357 1600 40
81.053 1681 41
81.1704 1549 39.3573
81.2877 1650 40.6202
81.4051 1580 39.7492
81.5225 1517 38.9487
81.6399 1459 38.1969
81.7573 1536 39.1918
81.8747 1410 37.55
81.9922 1537 39.2046
82.1096 1617 40.2119
82.227 1673 40.9023
82.3444 1581 39.7618
82.4619 1600 40
82.5793 1438 37.921
82.6967 1584 39.7995
82.8142 1695 41.1704
82.9316 1739 41.7013
83.049 1751 41.845
83.1664 1753 41.8688
83.2838 1712 41.3763
83.4012 1754 41.8808
83.5186 1844 42.9418
83.636 1683 41.0244
83.7534 1689 41.0974
83.8708 1658 40.7185
83.9881 1701 41.2432
84.1055 1647 40.5832
84.2228 1789 42.2966
84.3401 1725 41.5331
84.4575 1691 41.1218
84.5747 1626 40.3237
84.692 1655 40.6817
84.8093 1569 39.6106
84.9265 1522 39.0128
85.0437 1486 38.5487
85.1609 1513 38.8973
85.2781 1526 39.064
85.3952 1515 38.923
85.5123 1627 40.3361
85.6294 1616 40.1995
85.7465 1722 41.497
85.8636 1671 40.8779
85.9806 1637 40.4599
86.0976 1597 39.9625
86.2145 1624 40.2989
86.3315 1676 40.939
86.4484 1702 41.2553
86.5652 1770 42.0714
86.682 1697 41.1947
86.7988 1666 40.8167
86.9156 1749 41.821
87.0323 1761 41.9643
87.149 1791 42.3202
87.2657 1670 40.8656
87.3823 1677 40.9512
87.4988 1684 41.0366
87.6154 1652 40.6448
87.7318 1586 39.8246
87.8483 1459 38.1969
87.9647 1402 37.4433
88.081 1341 36.6197
88.1973 1226 35.0143
88.3136 1108 33.2866
88.4298 1050 32.4037
88.546 1003 31.6702
88.6621 871 29.5127
88.7781 825 28.7228
88.8942 0 1
89.0101 0 1
89.126 0 1
89.2419 0 1
89.3577 0 1
89.4734 0 1
89.5891 0 1
89.7047 0 1
89.8203 0 1
89.9358 0 1
92.3269 0 1
92.4424 0 1
92.558 0 1
92.6736 0 1
92.7893 0 1
92.905 0 1
93.0208 0 1
93.1366 0 1
93.2525 0 1
93.3685 0 1
93.4845 0 1
93.6005 1401 37.4299
93.7167 1447 38.0395
93.8328 1532 39.1408
93.949 1623 40.2865
94.0653 1548 39.3446
94.1816 1466 38.2884
94.2979 1602 40.025
94.4143 1440 37.9473
94.5307 1533 39.1535
94.6472 1663 40.7799
94.7637 1659 40.7308
94.8803 1719 41.4608
94.9969 1638 40.4722
95.1135 1645 40.5586
95.2302 1632 40.398
95.3469 1687 41.0731
95.4637 1670 40.8656
95.5805 1686 41.0609
95.6973 1789 42.2966
95.8142 1713 41.3884
95.9311 1708 41.328
96.048 1698 41.2068
96.1649 1762 41.9762
96.2819 1743 41.7493
96.3989 1726 41.5452
96.516 1720 41.4729
96.633 1766 42.0238
96.7501 1792 42.332
96.8673 1805 42.4853
96.9844 1766 42.0238
97.1016 1742 41.7373
97.2188 1711 41.3642
97.336 1700 41.2311
97.4532 1635 40.4351
97.5704 1595 39.9375
97.6877 1556 39.4462
97.805 1556 39.4462
97.9223 1554 39.4208
98.0396 1513 38.8973
98.1569 1573 39.6611
98.2743 1708 41.328
98.3916 1829 42.7668
98.509 1832 42.8019
98.6264 1808 42.5206
98.7438 1824 42.7083
98.8612 1732 41.6173
98.9786 1764 42
99.096 1747 41.7971
99.2134 1790 42.3084
99.3308 1910 43.7035
99.4482 1853 43.0465
99.5656 1875 43.3013
99.6831 1902 43.6119
99.8005 1929 43.9204
99.9179 1867 43.2088
100.035 1885 43.4166
100.153 1994 44.6542
100.27 1985 44.5533
100.388 2000 44.7214
100.505 1950 44.1588
100.622 1903 43.6234
100.74 1798 42.4028
100.857 1788 42.2847
100.975 1816 42.6146
101.092 1800 42.4264
101.209 1790 42.3084
101.327 1746 41.7852
101.444 1703 41.2674
101.561 1714 41.4005
101.679 1743 41.7493
101.796 1789 42.2966
101.913 1878 43.3359
102.03 1893 43.5086
102.148 2033 45.0888
102.265 2063 45.4203
102.382 1996 44.6766
102.499 2047 45.2438
102.616 1992 44.6318
102.733 2032 45.0777
102.851 2014 44.8776
102.968 2136 46.2169
103.085 2023 44.9778
103.202 2121 46.0543
103.319 2095 45.7712
103.436 2089 45.7056
103.552 2150 46.3681
103.669 2250 47.4342
103.786 2331 48.2804
103.903 2408 49.0714
104.02 2485 49.8498
104.137 2477 49.7695
104.253 2611 51.0979
104.37 2682 51.788
104.487 2693 51.8941
104.603 2756 52.4976
104.72 2797 52.8867
104.836 2736 52.3068
104.953 2769 52.6213
105.069 2913 53.9722
105.186 2828 53.1789
105.302 2898 53.8331
105.418 2735 52.2972
105.535 2588 50.8724
105.651 2458 49.5782
105.767 2325 48.2183
105.883 2170 46.5833
105.999 2013 44.8665
106.115 0 1
106.231 0 1
106.347 0 1
106.463 0 1
106.579 0 1
106.694 0 1
106.81 0 1
106.926 0 1
107.041 0 1
107.157 0 1
109.576 0 1
109.692 0 1
109.807 0 1
109.923 0 1
110.039 0 1
110.155 0 1
110.27 0 1
110.386 0 1
110.502 0 1
110.618 2995 54.7266
110.735 4645 68.1542
110.851 5420 73.6206
110.967 5870 76.6159
111.083 6444 80.2745
111.199 6634 81.4494
111.316 6999 83.66
111.432 7246 85.1234
111.549 7351 85.738
111.665 7339 85.668
111.782 7404 86.0465
111.898 7409 86.0755
112.015 7482 86.4986
112.132 7759 88.0852
112.248 7953 89.1796
112.365 7991 89.3924
112.482 7958 89.2076
112.599 7751 88.0398
112.716 7681 87.6413
112.832 7578 87.0517
112.949 7205 84.8823
113.066 6728 82.0244
113.183 6449 80.3057
113.3 6197 78.721
113.417 5916 76.9155
113.534 4815 69.3902
113.652 3780 61.4817
113.769 3395 58.2666
113.886 3210 56.6569
114.003 3798 61.6279
114.12 5430 73.6885
114.238 7102 84.2734
114.355 7837 88.5268
114.472 8231 90.7249
114.589 8720 93.3809
114.707 8850 94.0744
114.824 8704 93.2952
114.942 8830 93.9681
115.059 8839 94.016
115.176 8623 92.8601
115.294 8269 90.934
115.411 7739 87.9716
115.529 7743 87.9943
115.646 7537 86.8159
115.764 7099 84.2556
115.881 6544 80.895
115.999 6156 78.4602
116.116 5844 76.4461
116.234 5166 71.8749
116.351 4165 64.5368
116.469 3145 56.0803
116.586 2398 48.9694
116.704 2101 45.8367
116.821 1797 42.391
116.939 1701 41.2432
117.056 1601 40.0125
117.174 1422 37.7094
117.291 1446 38.0263
117.409 1390 37.2827
117.526 1428 37.7889
117.644 1432 37.8418
117.761 1601 40.0125
117.879 1600 40
117.996 1631 40.3856
118.114 1663 40.7799
118.231 1630 40.3733
118.349 1670 40.8656
118.466 1659 40.7308
118.584 1672 40.8901
118.701 1664 40.7922
118.819 1616 40.1995
118.936 1571 39.6358
119.053 1534 39.1663
119.171 1559 39.4842
119.288 1560 39.4968
119.405 1573 39.6611
119.523 1606 40.0749
119.64 1668 40.8412
119.757 1650 40.6202
119.875 1625 40.3113
119.992 1496 38.6782
120.109 1576 39.6989
120.226 1533 39.1535
120.343 1523 39.0256
120.46 1463 38.2492
120.578 1490 38.6005
120.695 1455 38.1445
120.812 1420 37.6829
120.929 1349 36.7287
121.046 1279 35.7631
121.163 1252 35.3836
121.279 1272 35.6651
121.396 1318 36.3043
121.513 1390 37.2827
121.63 1400 37.4166
121.747 1402 37.4433
121.863 1352 36.7696
121.98 1397 37.3765
122.097 1375 37.081
122.213 1379 37.1349
122.33 1269 35.623
122.446 1177 34.3074
122.563 1145 33.8378
122.679 1021 31.9531
122.795 945 30.7409
122.912 953 30.8707
123.028 930 30.4959
123.144 903 30.05
123.26 884 29.7321
123.377 0 1
123.493 0 1
123.609 0 1
123.725 0 1
123.84 0 1
123.956 0 1
124.072 0 1
124.188 0 1
124.303 0 1
124.419 0 1
126.852 0 1
126.968 0 1
127.083 0 1
127.199 0 1
127.315 0 1
127.431 0 1
127.547 0 1
127.663 0 1
127.779 0 1
127.895 0 1
128.011 0 1
128.127 0 1
128.243 0 1
128.359 1568 39.598
128.476 1695 41.1704
128.592 1737 41.6773
128.708 1799 42.4146
128.825 1852 43.0349
128.941 1840 42.8952
129.058 1819 42.6497
129.174 1696 41.1825
129.291 1777 42.1545
129.408 1738 41.6893
129.524 1789 42.2966
129.641 1776 42.1426
129.758 1719 41.4608
129.875 1635 40.4351
129.992 1481 38.4838
130.108 1510 38.8587
130.225 1536 39.1918
130.342 1599 39.9875
130.459 1692 41.1339
130.576 1877 43.3244
130.693 1959 44.2606
130.81 2044 45.2106
130.928 2059 45.3762
131.045 2079 45.5961
131.162 2104 45.8694
131.279 2295 47.9062
131.396 2397 48.9592
131.513 2461 49.6085
131.631 2351 48.4871
131.748 2439 49.3862
131.865 2651 51.4879
131.983 2851 53.3948
132.1 3092 55.6058
132.217 3187 56.4535
132.335 3182 56.4092
132.452 3611 60.0916
132.57 3643 60.3573
132.687 3653 60.4401
132.804 3948 62.8331
132.922 3946 62.8172
133.039 4060 63.7181
133.157 4216 64.9307
133.274 4163 64.5213
133.392 4260 65.2687
133.509 4191 64.7379
133.627 4025 63.4429
133.744 3928 62.6738
133.862 4052 63.6553
133.979 3916 62.578
134.097 4158 64.4826
134.214 4277 65.3988
134.332 4155 64.4593
134.449 4094 63.9844
134.567 4096 64
134.684 4056 63.6867
134.802 4136 64.3117
134.919 4129 64.2573
135.037 4178 64.6375
135.154 3876 62.2575
135.272 3694 60.7783
135.389 3614 60.1166
135.507 3679 60.6548
135.624 3922 62.6259
135.742 4254 65.2227
135.859 4198 64.792
135.977 4204 64.8383
136.094 4207 64.8614
136.211 3958 62.9126
136.329 3999 63.2376
136.446 3961 62.9365
136.564 4110 64.1093
136.681 3967 62.9841
136.798 4023 63.4271
136.915 3894 62.4019
137.033 3885 62.3298
137.15 3718 60.9754
137.267 3657 60.4731
137.384 3523 59.3549
137.502 3362 57.9828
137.619 3437 58.6259
137.736 3591 59.925
137.853 3432 58.5833
137.97 3733 61.0983
138.087 3604 60.0333
138.204 3658 60.4814
138.321 3590 59.9166
138.438 3551 59.5903
138.555 3679 60.6548
138.672 3560 59.6657
138.788 3403 58.3352
138.905 3266 57.1489
139.022 3218 56.7274
139.139 3381 58.1464
139.255 3333 57.7321
139.372 3287 57.3324
139.488 3258 57.0789
139.605 3133 55.9732
139.721 2880 53.6656
139.838 2633 51.3128
139.954 2579 50.7839
140.071 2463 49.6286
140.187 2257 47.5079
140.303 2250 47.4342
140.419 2098 45.8039
140.535 2023 44.9778
140.652 1953 44.1928
140.768 0 1
140.884 0 1
141 0 1
141.115 0 1
141.231 0 1
141.347 0 1
141.463 0 1
141.578 0 1
141.694 0 1
144.104 0 1
144.219 0 1
144.335 0 1
144.45 0 1
144.566 0 1
144.682 0 1
144.798 0 1
144.914 0 1
145.03 0 1
145.146 3072 55.4256
145.262 3299 57.4369
145.378 3249 57
145.494 3272 57.2014
145.61 3321 57.6281
145.726 3231 56.8419
145.842 3345 57.836
145.959 3357 57.9396
146.075 3210 56.6569
146.192 3265 57.1402
146.308 3063 55.3444
146.425 3018 54.9363
146.541 3257 57.0701
146.658 3447 58.7112
146.774 3468 58.8897
146.891 3456 58.7878
147.008 3378 58.1206
147.125 3310 57.5326
147.241 3400 58.3095
147.358 3501 59.1692
147.475 3490 59.0762
147.592 3536 59.4643
147.709 3304 57.4804
147.826 3175 56.3471
147.943 3211 56.6657
148.06 3267 57.1577
148.177 3311 57.5413
148.294 3319 57.6108
148.411 3373 58.0775
148.528 3432 58.5833
148.645 3417 58.4551
148.762 3502 59.1777
148.88 3422 58.4979
148.997 3369 58.0431
149.114 3365 58.0086
149.231 3390 58.2237
149.349 3406 58.3609
149.466 3274 57.2189
149.583 3355 57.9224
149.701 3349 57.8705
149.818 3111 55.7763
149.935 3177 56.3649
150.053 3162 56.2317
150.17 3011 54.8726
150.287 3167 56.2761
150.405 3276 57.2364
150.522 3213 56.6833
150.64 3245 56.9649
150.757 3115 55.8122
150.875 3126 55.9106
150.992 3305 57.4891
151.11 3542 59.5147
151.227 3316 57.5847
151.344 3080 55.4977
151.462 3011 54.8726
151.579 2999 54.7631
151.697 3103 55.7046
151.814 3293 57.3847
151.932 3267 57.1577
152.049 3559 59.6574
152.167 3458 58.8048
152.284 3572 59.7662
152.402 3653 60.4401
152.519 3528 59.397
152.636 3562 59.6825
152.754 3558 59.649
152.871 3535 59.4559
152.989 3585 59.8749
153.106 3548 59.5651
153.223 3517 59.3043
153.341 3400 58.3095
153.458 3445 58.6941
153.575 3324 57.6541
153.693 3287 57.3324
153.81 3198 56.5509
153.927 3099 55.6687
154.044 3194 56.5155
154.162 3162 56.2317
154.279 3083 55.5248
154.396 3111 55.7763
154.513 3286 57.3236
154.63 3384 58.1722
154.747 3589 59.9083
154.864 3456 58.7878
154.981 3270 57.1839
155.098 3232 56.8507
155.215 3158 56.1961
155.332 3345 57.836
155.449 3542 59.5147
155.566 3761 61.327
155.683 3897 62.426
155.8 4170 64.5755
155.917 4193 64.7534
156.033 4492 67.0224
156.15 0 1
156.267 0 1
156.383 0 1
156.5 0 1
156.617 0 1
156.733 0 1
156.85 0 1
156.966 0 1
157.082 0 1
157.199 0 1
157.315 0 1
157.431 0 1
157.547 0 1
157.664 0 1
157.78 0 1
157.896 0 1
158.012 0 1
158.128 0 1
158.244 0 1
158.359 0 1
158.475 0 1
158.591 0 1
158.706 0 1
