
6.15755 0 1
6.2731 0 1
6.3887 0 1
6.50437 0 1
6.62009 0 1
6.73587 0 1
6.8517 0 1
6.96759 0 1
7.08353 0 1
7.19952 0 1
7.31557 0 1
7.43166 0 1
7.54781 0 1
7.664 0 1
7.78024 0 1
7.89653 0 1
8.01286 0 1
8.12924 0 1
8.24567 0 1
8.36213 0 1
8.47864 0 1
8.59519 0 1
8.71178 0 1
8.82841 0 1
8.94508 0 1
9.06179 0 1
9.17853 0 1
9.29531 0 1
9.41212 0 1
9.52897 0 1
9.64584 0 1
9.76276 0 1
9.8797 0 1
9.99667 0 1
10.1137 0 1
10.2307 0 1
10.3478 0 1
10.4648 0 1
10.5819 0 1
10.6991 0 1
10.8162 0 1
10.9334 0 1
11.0506 0 1
11.1678 0 1
11.285 0 1
11.4023 0 1
11.5196 0 1
11.6369 0 1
11.7542 0 1
11.8715 0 1
11.9888 0 1
12.1062 0 1
12.2235 0 1
12.3409 0 1
12.4582 0 1
12.5756 0 1
12.693 0 1
12.8104 0 1
12.9278 0 1
13.0452 0 1
13.1626 0 1
13.28 0 1
13.3974 0 1
13.5149 0 1
13.6323 0 1
13.7497 0 1
13.8671 0 1
13.9845 0 1
14.1019 0 1
14.2193 0 1
14.3367 0 1
14.4541 0 1
14.5714 0 1
14.6888 0 1
14.8062 0 1
14.9235 0 1
15.0408 1292 35.9444
15.1581 1319 36.318
15.2755 1453 38.1182
15.3927 1501 38.7427
15.51 1490 38.6005
15.6273 1403 37.4566
15.7445 1465 38.2753
15.8617 1453 38.1182
15.9789 1429 37.8021
16.0961 1434 37.8682
16.2132 1375 37.081
16.3304 1435 37.8814
16.4475 1494 38.6523
16.5646 1598 39.975
16.6816 1595 39.9375
16.7986 1735 41.6533
16.9156 1709 41.3401
17.0326 1694 41.1582
17.1496 1715 41.4126
17.2665 1694 41.1582
17.3833 1653 40.6571
17.5002 1630 40.3733
17.617 1583 39.7869
17.7338 1500 38.7298
17.8505 1472 38.3667
17.9672 1467 38.3014
18.0839 1511 38.8716
18.2005 1452 38.1051
18.3171 1581 39.7618
18.4337 1528 39.0896
18.5502 1570 39.6232
18.6666 1625 40.3113
18.7831 1680 40.9878
18.8994 1633 40.4104
19.0158 1610 40.1248
19.1321 1652 40.6448
19.2483 1533 39.1535
19.3645 1482 38.4968
19.4806 1366 36.9594
19.5967 1297 36.0139
19.7128 1153 33.9559
19.8288 1070 32.7109
19.9447 1001 31.6386
20.0606 0 1
20.1764 0 1
20.2922 0 1
20.4079 0 1
20.5236 0 1
20.6392 0 1
20.7548 0 1
20.8702 0 1
23.3078 0 1
23.4233 0 1
23.539 0 1
23.6547 0 1
23.7704 0 1
23.8862 0 1
24.0021 0 1
24.118 0 1
24.234 0 1
24.35 0 1
24.4661 692 26.3059
24.5822 800 28.2843
24.6984 929 30.4795
24.8146 1019 31.9218
24.9309 1111 33.3317
25.0472 1259 35.4824
25.1636 1287 35.8748
25.28 1504 38.7814
25.3965 1566 39.5727
25.513 1642 40.5216
25.6296 1722 41.497
25.7462 1745 41.7732
25.8628 1786 42.2611
25.9795 1792 42.332
26.0962 1798 42.4028
26.213 1709 41.3401
26.3298 1636 40.4475
26.4466 1645 40.5586
26.5635 1548 39.3446
26.6804 1545 39.3065
26.7973 1560 39.4968
26.9143 1653 40.6571
27.0313 1591 39.8873
27.1483 1640 40.4969
27.2653 1690 41.1096
27.3824 1790 42.3084
27.4996 1754 41.8808
27.6167 1642 40.5216
27.7339 1632 40.398
27.8511 1614 40.1746
27.9683 1557 39.4588
28.0855 1541 39.2556
28.2028 1481 38.4838
28.3201 1474 38.3927
28.4374 1473 38.3797
28.5547 1445 38.0132
28.6721 1436 37.8946
28.7894 1512 38.8844
28.9068 1647 40.5832
29.0242 1652 40.6448
29.1416 1850 43.0116
29.259 1847 42.9767
29.3764 1792 42.332
29.4939 1744 41.7612
29.6113 1758 41.9285
29.7288 1706 41.3038
29.8463 1537 39.2046
29.9638 1554 39.4208
30.0812 1433 37.855
30.1987 1476 38.4187
30.3162 1498 38.704
30.4337 1489 38.5876
30.5512 1581 39.7618
30.6687 1556 39.4462
30.7862 1562 39.5221
30.9037 1640 40.4969
31.0212 1650 40.6202
31.1387 1721 41.4849
31.2562 1620 40.2492
31.3737 1593 39.9124
31.4912 1490 38.6005
31.6087 1499 38.7169
31.7262 1488 38.5746
31.8436 1451 38.092
31.9611 1368 36.9865
32.0785 1491 38.6135
32.1959 1414 37.6032
32.3134 1498 38.704
32.4308 1588 39.8497
32.5482 1648 40.5956
32.6655 1657 40.7063
32.7829 1648 40.5956
32.9002 1711 41.3642
33.0176 1727 41.5572
33.1349 1776 42.1426
33.2522 1626 40.3237
33.3694 1631 40.3856
33.4867 1497 38.6911
33.6039 1443 37.9868
33.7211 1436 37.8946
33.8383 1362 36.9053
33.9554 1432 37.8418
34.0725 1441 37.9605
34.1896 1450 38.0789
34.3067 1552 39.3954
34.4237 1558 39.4715
34.5407 1558 39.4715
34.6577 1687 41.0731
34.7746 1604 40.05
34.8915 1551 39.3827
35.0084 1535 39.1791
35.1252 1549 39.3573
35.242 1433 37.855
35.3587 1415 37.6165
35.4755 1341 36.6197
35.5921 1368 36.9865
35.7088 1327 36.428
35.8254 1361 36.8917
35.9419 1382 37.1753
36.0584 1479 38.4578
36.1749 1512 38.8844
36.2913 1439 37.9342
36.4077 1500 38.7298
36.524 1514 38.9102
36.6403 1485 38.5357
36.7565 1381 37.1618
36.8727 1256 35.4401
36.9889 1166 34.1467
37.1049 1081 32.8786
37.221 0 1
37.3369 0 1
37.4529 0 1
37.5687 0 1
37.6845 0 1
37.8003 0 1
37.916 0 1
38.0316 0 1
38.1472 0 1
40.5851 0 1
40.7008 0 1
40.8164 0 1
40.9322 0 1
41.048 0 1
41.1639 0 1
41.2798 0 1
41.3958 0 1
41.5118 0 1
41.6279 0 1
41.744 810 28.4605
41.8602 906 30.0998
41.9765 890 29.8329
42.0928 1001 31.6386
42.2091 889 29.8161
42.3255 903 30.05
42.4419 936 30.5941
42.5584 990 31.4643
42.675 1030 32.0936
42.7915 1105 33.2415
42.9081 1212 34.8138
43.0248 1167 34.1614
43.1415 1280 35.7771
43.2582 1310 36.1939
43.375 1315 36.2629
43.4918 1300 36.0555
43.6087 1320 36.3318
43.7256 1231 35.0856
43.8425 1275 35.7071
43.9595 1217 34.8855
44.0765 1182 34.3802
44.1935 1162 34.0881
44.3106 1126 33.5559
44.4277 1045 32.3265
44.5448 1054 32.4654
44.6619 1090 33.0151
44.7791 1158 34.0294
44.8963 1246 35.2987
45.0136 1332 36.4966
45.1308 1355 36.8103
45.2481 1329 36.4555
45.3654 1345 36.6742
45.4827 1349 36.7287
45.6001 1374 37.0675
45.7174 1325 36.4005
45.8348 1175 34.2783
45.9522 1154 33.9706
46.0697 1047 32.3574
46.1871 1108 33.2866
46.3046 1132 33.6452
46.422 1133 33.6601
46.5395 1264 35.5528
46.657 1269 35.623
46.7745 1264 35.5528
46.892 1313 36.2353
47.0096 1318 36.3043
47.1271 1323 36.3731
47.2446 1408 37.5233
47.3622 1263 35.5387
47.4797 1274 35.6931
47.5973 1249 35.3412
47.7149 1264 35.5528
47.8324 1197 34.5977
47.95 1127 33.5708
48.0675 1131 33.6303
48.1851 1150 33.9116
48.3027 1168 34.176
48.4202 1182 34.3802
48.5378 1321 36.3456
48.6554 1352 36.7696
48.7729 1321 36.3456
48.8904 1327 36.428
49.008 1345 36.6742
49.1255 1303 36.0971
49.243 1302 36.0832
49.3605 1216 34.8712
49.478 1163 34.1028
49.5955 1101 33.1813
49.713 995 31.5436
49.8304 1062 32.5883
49.9479 1069 32.6956
50.0653 1171 34.2199
50.1827 1226 35.0143
50.3001 1286 35.8608
50.4175 1317 36.2905
50.5348 1323 36.3731
50.6521 1280 35.7771
50.7694 1334 36.524
50.8867 1266 35.5809
51.004 1372 37.0405
51.1212 1317 36.2905
51.2384 1288 35.8887
51.3556 1283 35.819
51.4727 1251 35.3695
51.5899 1190 34.4964
51.707 1291 35.9305
51.824 1291 35.9305
51.9411 1420 37.6829
52.0581 1484 38.5227
52.175 1558 39.4715
52.2919 1641 40.5093
52.4088 1739 41.7013
52.5257 1662 40.7676
52.6425 1741 41.7253
52.7593 1700 41.2311
52.876 1656 40.694
52.9927 1588 39.8497
53.1094 1440 37.9473
53.226 1540 39.2428
53.3426 1420 37.6829
53.4591 1381 37.1618
53.5756 1431 37.8286
53.692 1395 37.3497
53.8084 1404 37.47
53.9248 1393 37.3229
54.0411 1350 36.7423
54.1573 1260 35.4965
54.2735 0 1
54.3896 0 1
54.5057 0 1
54.6217 0 1
54.7377 0 1
54.8537 0 1
54.9695 0 1
55.0853 0 1
55.2011 0 1
55.3168 0 1
55.4324 0 1
57.824 0 1
57.9396 0 1
58.0553 0 1
58.1711 0 1
58.2869 0 1
58.4028 0 1
58.5187 0 1
58.6347 0 1
58.7508 0 1
58.8669 0 1
58.983 1036 32.187
59.0992 1192 34.5254
59.2155 1226 35.0143
59.3318 1357 36.8375
59.4482 1444 38
59.5646 1507 38.8201
59.681 1539 39.2301
59.7975 1492 38.6264
59.9141 1468 38.3145
60.0306 1484 38.5227
60.1473 1493 38.6394
60.2639 1417 37.6431
60.3807 1366 36.9594
60.4974 1439 37.9342
60.6142 1523 39.0256
60.731 1526 39.064
60.8479 1623 40.2865
60.9648 1610 40.1248
61.0818 1754 41.8808
61.1987 1713 41.3884
61.3158 1639 40.4846
61.4328 1563 39.5348
61.5499 1517 38.9487
61.667 1469 38.3275
61.7841 1306 36.1386
61.9013 1278 35.7491
62.0185 1289 35.9026
62.1357 1415 37.6165
62.253 1443 37.9868
62.3702 1571 39.6358
62.4875 1564 39.5474
62.6049 1643 40.5339
62.7222 1617 40.2119
62.8396 1619 40.2368
62.9569 1697 41.1947
63.0743 1607 40.0874
63.1918 1573 39.6611
63.3092 1579 39.7366
63.4267 1488 38.5746
63.5441 1446 38.0263
63.6616 1502 38.7556
63.7791 1351 36.756
63.8966 1398 37.3898
64.0142 1375 37.081
64.1317 1408 37.5233
64.2492 1526 39.064
64.3668 1569 39.6106
64.4843 1611 40.1373
64.6019 1707 41.3159
64.7195 1598 39.975
64.837 1682 41.0122
64.9546 1644 40.5463
65.0722 1594 39.9249
65.1898 1470 38.3406
65.3074 1386 37.229
65.4249 1288 35.8887
65.5425 1240 35.2136
65.6601 1283 35.819
65.7777 1294 35.9722
65.8952 1351 36.756
66.0128 1483 38.5097
66.1304 1465 38.2753
66.2479 1537 39.2046
66.3655 1553 39.4081
66.483 1610 40.1248
66.6005 1597 39.9625
66.718 1663 40.7799
66.8355 1571 39.6358
66.953 1539 39.2301
67.0705 1573 39.6611
67.1879 1400 37.4166
67.3054 1399 37.4032
67.4228 1367 36.973
67.5402 1234 35.1283
67.6576 1255 35.426
67.7749 1354 36.7967
67.8923 1460 38.2099
68.0096 1526 39.064
68.1269 1573 39.6611
68.2442 1547 39.3319
68.3614 1619 40.2368
68.4787 1623 40.2865
68.5958 1571 39.6358
68.713 1569 39.6106
68.8302 1385 37.2156
68.9473 1314 36.2491
69.0643 1265 35.5668
69.1814 1178 34.322
69.2984 1189 34.4819
69.4154 1311 36.2077
69.5323 1322 36.3593
69.6492 1411 37.5633
69.7661 1441 37.9605
69.8829 1532 39.1408
69.9997 1411 37.5633
70.1165 1483 38.5097
70.2332 1340 36.606
70.3499 1443 37.9868
70.4665 1285 35.8469
70.5831 1219 34.9142
70.6996 1165 34.1321
70.8161 1102 33.1964
70.9326 1026 32.0312
71.049 950 30.8221
71.1653 761 27.5862
71.2817 717 26.7769
71.3979 630 25.0998
71.5141 602 24.5357
71.6303 597 24.4336
71.7464 546 23.3666
71.8624 0 1
71.9784 0 1
72.0944 0 1
72.2102 0 1
72.3261 0 1
72.4418 0 1
72.5575 0 1
72.6732 0 1
75.1054 0 1
75.2209 0 1
75.3365 0 1
75.4521 0 1
75.5678 0 1
75.6835 0 1
75.7993 0 1
75.9151 0 1
76.031 0 1
76.147 918 30.2985
76.263 989 31.4484
76.3791 943 30.7083
76.4952 1018 31.9061
76.6113 987 31.4166
76.7276 1176 34.2929
76.8438 1163 34.1028
76.9601 1281 35.7911
77.0765 1307 36.1525
77.1929 1471 38.3536
77.3093 1410 37.55
77.4258 1390 37.2827
77.5423 1355 36.8103
77.6589 1342 36.6333
77.7755 1182 34.3802
77.8921 1090 33.0151
78.0088 1015 31.8591
78.1256 948 30.7896
78.2423 947 30.7734
78.3591 1081 32.8786
78.4759 1106 33.2566
78.5928 1201 34.6554
78.7097 1301 36.0694
78.8266 1250 35.3553
78.9436 1304 36.1109
79.0606 1393 37.3229
79.1776 1376 37.0945
79.2946 1327 36.428
79.4117 1398 37.3898
79.5288 1256 35.4401
79.6459 1368 36.9865
79.7631 1277 35.7351
79.8802 1257 35.4542
79.9974 1233 35.1141
80.1147 1119 33.4515
80.2319 1158 34.0294
80.3491 1143 33.8083
80.4664 1218 34.8999
80.5837 1260 35.4965
80.701 1390 37.2827
80.8183 1435 37.8814
80.9357 1364 36.9324
81.053 1441 37.9605
81.1704 1383 37.1887
81.2877 1474 38.3927
81.4051 1334 36.524
81.5225 1269 35.623
81.6399 1077 32.8177
81.7573 1050 32.4037
81.8747 1051 32.4191
81.9922 1025 32.0156
82.1096 1132 33.6452
82.227 1179 34.3366
82.3444 1229 35.0571
82.4619 1287 35.8748
82.5793 1344 36.6606
82.6967 1381 37.1618
82.8142 1416 37.6298
82.9316 1490 38.6005
83.049 1430 37.8153
83.1664 1398 37.3898
83.2838 1346 36.6879
83.4012 1311 36.2077
83.5186 1269 35.623
83.636 1222 34.9571
83.7534 1199 34.6266
83.8708 1130 33.6155
83.9881 1082 32.8938
84.1055 1184 34.4093
84.2228 1322 36.3593
84.3401 1382 37.1753
84.4575 1454 38.1314
84.5747 1425 37.7492
84.692 1498 38.704
84.8093 1483 38.5097
84.9265 1434 37.8682
85.0437 1397 37.3765
85.1609 1194 34.5543
85.2781 1144 33.8231
85.3952 1019 31.9218
85.5123 993 31.5119
85.6294 1034 32.1559
85.7465 1207 34.7419
85.8636 1258 35.4683
85.9806 1234 35.1283
86.0976 1342 36.6333
86.2145 1360 36.8782
86.3315 1411 37.5633
86.4484 1428 37.7889
86.5652 1482 38.4968
86.682 1437 37.9078
86.7988 1430 37.8153
86.9156 1332 36.4966
87.0323 1381 37.1618
87.149 1369 37
87.2657 1245 35.2846
87.3823 1151 33.9264
87.4988 1076 32.8024
87.6154 1013 31.8277
87.7318 1017 31.8904
87.8483 995 31.5436
87.9647 1072 32.7414
88.081 1159 34.0441
88.1973 1114 33.3766
88.3136 1017 31.8904
88.4298 1008 31.749
88.546 982 31.3369
88.6621 831 28.8271
88.7781 624 24.98
88.8942 0 1
89.0101 0 1
89.126 0 1
89.2419 0 1
89.3577 0 1
89.4734 0 1
89.5891 0 1
89.7047 0 1
89.8203 0 1
89.9358 0 1
92.3269 0 1
92.4424 0 1
92.558 0 1
92.6736 0 1
92.7893 0 1
92.905 0 1
93.0208 0 1
93.1366 0 1
93.2525 0 1
93.3685 0 1
93.4845 0 1
93.6005 1155 33.9853
93.7167 1118 33.4365
93.8328 1179 34.3366
93.949 1249 35.3412
94.0653 1245 35.2846
94.1816 1284 35.8329
94.2979 1231 35.0856
94.4143 1116 33.4066
94.5307 1045 32.3265
94.6472 1048 32.3728
94.7637 1075 32.7872
94.8803 1186 34.4384
94.9969 1288 35.8887
95.1135 1258 35.4683
95.2302 1348 36.7151
95.3469 1435 37.8814
95.4637 1397 37.3765
95.5805 1466 38.2884
95.6973 1421 37.6962
95.8142 1466 38.2884
95.9311 1506 38.8072
96.048 1367 36.973
96.1649 1409 37.5366
96.2819 1336 36.5513
96.3989 1315 36.2629
96.516 1237 35.171
96.633 1249 35.3412
96.7501 1154 33.9706
96.8673 1170 34.2053
96.9844 1230 35.0714
97.1016 1298 36.0278
97.2188 1318 36.3043
97.336 1397 37.3765
97.4532 1516 38.9358
97.5704 1547 39.3319
97.6877 1449 38.0657
97.805 1459 38.1969
97.9223 1331 36.4829
98.0396 1231 35.0856
98.1569 1147 33.8674
98.2743 1105 33.2415
98.3916 1054 32.4654
98.509 1104 33.2265
98.6264 1282 35.805
98.7438 1326 36.4143
98.8612 1378 37.1214
98.9786 1489 38.5876
99.096 1436 37.8946
99.2134 1459 38.1969
99.3308 1518 38.9615
99.4482 1513 38.8973
99.5656 1554 39.4208
99.6831 1488 38.5746
99.8005 1520 38.9872
99.9179 1437 37.9078
100.035 1409 37.5366
100.153 1416 37.6298
100.27 1353 36.7831
100.388 1314 36.2491
100.505 1299 36.0416
100.622 1389 37.2693
100.74 1431 37.8286
100.857 1589 39.8623
100.975 1645 40.5586
101.092 1543 39.281
101.209 1659 40.7308
101.327 1536 39.1918
101.444 1485 38.5357
101.561 1333 36.5103
101.679 1243 35.2562
101.796 1175 34.2783
101.913 1107 33.2716
102.03 1162 34.0881
102.148 1242 35.242
102.265 1310 36.1939
102.382 1516 38.9358
102.499 1448 38.0526
102.616 1591 39.8873
102.733 1655 40.6817
102.851 1594 39.9249
102.968 1602 40.025
103.085 1593 39.9124
103.202 1598 39.975
103.319 1593 39.9124
103.436 1566 39.5727
103.552 1518 38.9615
103.669 1367 36.973
103.786 1384 37.2022
103.903 1368 36.9865
104.02 1409 37.5366
104.137 1425 37.7492
104.253 1520 38.9872
104.37 1694 41.1582
104.487 1728 41.5692
104.603 1762 41.9762
104.72 1616 40.1995
104.836 1659 40.7308
104.953 1474 38.3927
105.069 1308 36.1663
105.186 1148 33.8821
105.302 1049 32.3883
105.418 1086 32.9545
105.535 1005 31.7017
105.651 1040 32.249
105.767 1072 32.7414
105.883 1058 32.5269
105.999 954 30.8869
106.115 0 1
106.231 0 1
106.347 0 1
106.463 0 1
106.579 0 1
106.694 0 1
106.81 0 1
106.926 0 1
107.041 0 1
107.157 0 1
109.576 0 1
109.692 0 1
109.807 0 1
109.923 0 1
110.039 0 1
110.155 0 1
110.27 0 1
110.386 0 1
110.502 0 1
110.618 678 26.0384
110.735 882 29.6985
110.851 982 31.3369
110.967 1170 34.2053
111.083 1212 34.8138
111.199 1361 36.8917
111.316 1414 37.6032
111.432 1492 38.6264
111.549 1462 38.2361
111.665 1487 38.5616
111.782 1499 38.7169
111.898 1502 38.7556
112.015 1446 38.0263
112.132 1371 37.027
112.248 1272 35.6651
112.365 1254 35.4119
112.482 1209 34.7707
112.599 1340 36.606
112.716 1435 37.8814
112.832 1427 37.7757
112.949 1500 38.7298
113.066 1529 39.1024
113.183 1516 38.9358
113.3 1516 38.9358
113.417 1533 39.1535
113.534 1397 37.3765
113.652 1267 35.5949
113.769 1128 33.5857
113.886 1047 32.3574
114.003 1163 34.1028
114.12 1132 33.6452
114.238 1199 34.6266
114.355 1362 36.9053
114.472 1414 37.6032
114.589 1578 39.724
114.707 1498 38.704
114.824 1562 39.5221
114.942 1447 38.0395
115.059 1544 39.2938
115.176 1525 39.0512
115.294 1500 38.7298
115.411 1539 39.2301
115.529 1402 37.4433
115.646 1393 37.3229
115.764 1420 37.6829
115.881 1379 37.1349
115.999 1337 36.565
116.116 1303 36.0971
116.234 1394 37.3363
116.351 1460 38.2099
116.469 1534 39.1663
116.586 1547 39.3319
116.704 1527 39.0768
116.821 1596 39.95
116.939 1534 39.1663
117.056 1514 38.9102
117.174 1440 37.9473
117.291 1257 35.4542
117.409 1108 33.2866
117.526 1098 33.1361
117.644 1083 32.909
117.761 1166 34.1467
117.879 1279 35.7631
117.996 1355 36.8103
118.114 1395 37.3497
118.231 1499 38.7169
118.349 1448 38.0526
118.466 1556 39.4462
118.584 1555 39.4335
118.701 1482 38.4968
118.819 1426 37.7624
118.936 1463 38.2492
119.053 1475 38.4057
119.171 1375 37.081
119.288 1409 37.5366
119.405 1300 36.0555
119.523 1249 35.3412
119.64 1188 34.4674
119.757 1230 35.0714
119.875 1233 35.1141
119.992 1338 36.5787
120.109 1427 37.7757
120.226 1418 37.6563
120.343 1402 37.4433
120.46 1456 38.1576
120.578 1390 37.2827
120.695 1436 37.8946
120.812 1297 36.0139
120.929 1230 35.0714
121.046 1076 32.8024
121.163 1010 31.7805
121.279 1020 31.9374
121.396 993 31.5119
121.513 1058 32.5269
121.63 1145 33.8378
121.747 1157 34.0147
121.863 1137 33.7194
121.98 1142 33.7935
122.097 1163 34.1028
122.213 1163 34.1028
122.33 1131 33.6303
122.446 1059 32.5423
122.563 978 31.273
122.679 1003 31.6702
122.795 928 30.4631
122.912 818 28.6007
123.028 732 27.0555
123.144 641 25.318
123.26 570 23.8747
123.377 0 1
123.493 0 1
123.609 0 1
123.725 0 1
123.84 0 1
123.956 0 1
124.072 0 1
124.188 0 1
124.303 0 1
124.419 0 1
126.852 0 1
126.968 0 1
127.083 0 1
127.199 0 1
127.315 0 1
127.431 0 1
127.547 0 1
127.663 0 1
127.779 0 1
127.895 0 1
128.011 0 1
128.127 0 1
128.243 0 1
128.359 1327 36.428
128.476 1345 36.6742
128.592 1310 36.1939
128.708 1342 36.6333
128.825 1363 36.9188
128.941 1478 38.4448
129.058 1465 38.2753
129.174 1551 39.3827
129.291 1603 40.0375
129.408 1558 39.4715
129.524 1564 39.5474
129.641 1515 38.923
129.758 1538 39.2173
129.875 1381 37.1618
129.992 1357 36.8375
130.108 1257 35.4542
130.225 1194 34.5543
130.342 1107 33.2716
130.459 1237 35.171
130.576 1266 35.5809
130.693 1324 36.3868
130.81 1438 37.921
130.928 1443 37.9868
131.045 1505 38.7943
131.162 1460 38.2099
131.279 1537 39.2046
131.396 1596 39.95
131.513 1537 39.2046
131.631 1530 39.1152
131.748 1438 37.921
131.865 1505 38.7943
131.983 1445 38.0132
132.1 1397 37.3765
132.217 1382 37.1753
132.335 1384 37.2022
132.452 1452 38.1051
132.57 1476 38.4187
132.687 1549 39.3573
132.804 1587 39.8372
132.922 1593 39.9124
133.039 1609 40.1123
133.157 1617 40.2119
133.274 1594 39.9249
133.392 1494 38.6523
133.509 1452 38.1051
133.627 1312 36.2215
133.744 1301 36.0694
133.862 1172 34.2345
133.979 1188 34.4674
134.097 1307 36.1525
134.214 1439 37.9342
134.332 1445 38.0132
134.449 1524 39.0384
134.567 1482 38.4968
134.684 1559 39.4842
134.802 1561 39.5095
134.919 1633 40.4104
135.037 1576 39.6989
135.154 1561 39.5095
135.272 1551 39.3827
135.389 1543 39.281
135.507 1478 38.4448
135.624 1465 38.2753
135.742 1313 36.2353
135.859 1385 37.2156
135.977 1416 37.6298
136.094 1530 39.1152
136.211 1489 38.5876
136.329 1589 39.8623
136.446 1607 40.0874
136.564 1676 40.939
136.681 1600 40
136.798 1607 40.0874
136.915 1612 40.1497
137.033 1437 37.9078
137.15 1409 37.5366
137.267 1273 35.6791
137.384 1239 35.1994
137.502 1157 34.0147
137.619 1256 35.4401
137.736 1247 35.3129
137.853 1352 36.7696
137.97 1357 36.8375
138.087 1440 37.9473
138.204 1474 38.3927
138.321 1511 38.8716
138.438 1555 39.4335
138.555 1609 40.1123
138.672 1596 39.95
138.788 1522 39.0128
138.905 1433 37.855
139.022 1317 36.2905
139.139 1297 36.0139
139.255 1283 35.819
139.372 1166 34.1467
139.488 1075 32.7872
139.605 1053 32.45
139.721 1040 32.249
139.838 1054 32.4654
139.954 1051 32.4191
140.071 1009 31.7648
140.187 958 30.9516
140.303 881 29.6816
140.419 877 29.6142
140.535 804 28.3549
140.652 727 26.9629
140.768 0 1
140.884 0 1
141 0 1
141.115 0 1
141.231 0 1
141.347 0 1
141.463 0 1
141.578 0 1
141.694 0 1
144.104 0 1
144.219 0 1
144.335 0 1
144.45 0 1
144.566 0 1
144.682 0 1
144.798 0 1
144.914 0 1
145.03 0 1
145.146 1169 34.1906
145.262 1222 34.9571
145.378 1239 35.1994
145.494 1277 35.7351
145.61 1251 35.3695
145.726 1207 34.7419
145.842 1145 33.8378
145.959 1093 33.0606
146.075 998 31.5911
146.192 992 31.496
146.308 945 30.7409
146.425 944 30.7246
146.541 1002 31.6544
146.658 1122 33.4963
146.774 1121 33.4813
146.891 1111 33.3317
147.008 1213 34.8281
147.125 1133 33.6601
147.241 1222 34.9571
147.358 1242 35.242
147.475 1178 34.322
147.592 1217 34.8855
147.709 1181 34.3657
147.826 1198 34.6121
147.943 1098 33.1361
148.06 1110 33.3167
148.177 1109 33.3017
148.294 1127 33.5708
148.411 1135 33.6898
148.528 1175 34.2783
148.645 1212 34.8138
148.762 1211 34.7994
148.88 1237 35.171
148.997 1283 35.819
149.114 1224 34.9857
149.231 1217 34.8855
149.349 1267 35.5949
149.466 1219 34.9142
149.583 1114 33.3766
149.701 1102 33.1964
149.818 1018 31.9061
149.935 978 31.273
150.053 955 30.9031
150.17 1009 31.7648
150.287 1015 31.8591
150.405 1086 32.9545
150.522 1064 32.619
150.64 1156 34
150.757 1152 33.9411
150.875 1227 35.0286
150.992 1144 33.8231
151.11 1164 34.1174
151.227 1125 33.541
151.344 1182 34.3802
151.462 1064 32.619
151.579 1116 33.4066
151.697 1108 33.2866
151.814 1021 31.9531
151.932 1041 32.2645
152.049 1082 32.8938
152.167 1114 33.3766
152.284 1068 32.6803
152.402 1199 34.6266
152.519 1159 34.0441
152.636 1197 34.5977
152.754 1219 34.9142
152.871 1209 34.7707
152.989 1162 34.0881
153.106 1139 33.7491
153.223 1023 31.9844
153.341 970 31.1448
153.458 938 30.6268
153.575 916 30.2655
153.693 903 30.05
153.81 958 30.9516
153.927 1013 31.8277
154.044 1004 31.686
154.162 1104 33.2265
154.279 1053 32.45
154.396 1042 32.28
154.513 1108 33.2866
154.63 1149 33.8969
154.747 1060 32.5576
154.864 1044 32.311
154.981 1111 33.3317
155.098 1043 32.2955
155.215 1007 31.7333
155.332 956 30.9192
155.449 955 30.9031
155.566 898 29.9666
155.683 934 30.5614
155.8 923 30.3809
155.917 983 31.3528
156.033 1030 32.0936
156.15 0 1
156.267 0 1
156.383 0 1
156.5 0 1
156.617 0 1
156.733 0 1
156.85 0 1
156.966 0 1
157.082 0 1
157.199 0 1
157.315 0 1
157.431 0 1
157.547 0 1
157.664 0 1
157.78 0 1
157.896 0 1
158.012 0 1
158.128 0 1
158.244 0 1
158.359 0 1
158.475 0 1
158.591 0 1
158.706 0 1
