
6.15755 0 1
6.2731 0 1
6.3887 0 1
6.50437 0 1
6.62009 0 1
6.73587 0 1
6.8517 0 1
6.96759 0 1
7.08353 0 1
7.19952 0 1
7.31557 0 1
7.43166 0 1
7.54781 0 1
7.664 0 1
7.78024 0 1
7.89653 0 1
8.01286 0 1
8.12924 0 1
8.24567 0 1
8.36213 0 1
8.47864 0 1
8.59519 0 1
8.71178 0 1
8.82841 0 1
8.94508 0 1
9.06179 0 1
9.17853 0 1
9.29531 0 1
9.41212 0 1
9.52897 0 1
9.64584 0 1
9.76276 0 1
9.8797 0 1
9.99667 0 1
10.1137 0 1
10.2307 0 1
10.3478 0 1
10.4648 0 1
10.5819 0 1
10.6991 0 1
10.8162 0 1
10.9334 0 1
11.0506 0 1
11.1678 0 1
11.285 0 1
11.4023 0 1
11.5196 0 1
11.6369 0 1
11.7542 0 1
11.8715 0 1
11.9888 0 1
12.1062 0 1
12.2235 0 1
12.3409 0 1
12.4582 0 1
12.5756 0 1
12.693 0 1
12.8104 0 1
12.9278 0 1
13.0452 0 1
13.1626 0 1
13.28 0 1
13.3974 0 1
13.5149 0 1
13.6323 0 1
13.7497 0 1
13.8671 0 1
13.9845 0 1
14.1019 0 1
14.2193 0 1
14.3367 0 1
14.4541 0 1
14.5714 0 1
14.6888 0 1
14.8062 0 1
14.9235 0 1
15.0408 8858 94.1169
15.1581 9394 96.9226
15.2755 9654 98.2548
15.3927 9770 98.8433
15.51 9828 99.1363
15.6273 9680 98.387
15.7445 9788 98.9343
15.8617 9559 97.7701
15.9789 9861 99.3026
16.0961 9837 99.1817
16.2132 9958 99.7898
16.3304 10453 102.24
16.4475 10650 103.199
16.5646 10875 104.283
16.6816 11434 106.93
16.7986 11619 107.791
16.9156 12085 109.932
17.0326 12375 111.243
17.1496 12671 112.566
17.2665 12676 112.588
17.3833 13020 114.105
17.5002 13250 115.109
17.617 13353 115.555
17.7338 13055 114.258
17.8505 13282 115.248
17.9672 12881 113.494
18.0839 12590 112.205
18.2005 12238 110.625
18.3171 12465 111.647
18.4337 12617 112.325
18.5502 13057 114.267
18.6666 13403 115.771
18.7831 13628 116.739
18.8994 13741 117.222
19.0158 13475 116.082
19.1321 13185 114.826
19.2483 12971 113.89
19.3645 12681 112.61
19.4806 12483 111.727
19.5967 12089 109.95
19.7128 12231 110.594
19.8288 11812 108.683
19.9447 10726 103.566
20.0606 0 1
20.1764 0 1
20.2922 0 1
20.4079 0 1
20.5236 0 1
20.6392 0 1
20.7548 0 1
20.8702 0 1
23.3078 0 1
23.4233 0 1
23.539 0 1
23.6547 0 1
23.7704 0 1
23.8862 0 1
24.0021 0 1
24.118 0 1
24.234 0 1
24.35 0 1
24.4661 12118 110.082
24.5822 12220 110.544
24.6984 12356 111.158
24.8146 12125 110.114
24.9309 12102 110.009
25.0472 11951 109.321
25.1636 11924 109.197
25.28 12288 110.851
25.3965 12444 111.553
25.513 13087 114.398
25.6296 13516 116.258
25.7462 13733 117.188
25.8628 14106 118.769
25.9795 14258 119.407
26.0962 14274 119.474
26.213 14426 120.108
26.3298 14429 120.121
26.4466 14379 119.912
26.5635 14231 119.294
26.6804 13800 117.473
26.7973 13003 114.031
26.9143 12655 112.494
27.0313 13300 115.326
27.1483 13694 117.021
27.2653 13907 117.928
27.3824 14152 118.962
27.4996 14020 118.406
27.6167 13587 116.563
27.7339 13268 115.187
27.8511 13157 114.704
27.9683 13038 114.184
28.0855 12766 112.987
28.2028 12601 112.254
28.3201 12209 110.494
28.4374 12275 110.793
28.5547 12263 110.738
28.6721 12160 110.272
28.7894 11896 109.069
28.9068 12123 110.104
29.0242 12377 111.252
29.1416 12692 112.659
29.259 13049 114.232
29.3764 13270 115.195
29.4939 13846 117.669
29.6113 13762 117.312
29.7288 13915 117.962
29.8463 14173 119.05
29.9638 13889 117.852
30.0812 13727 117.162
30.1987 13237 115.052
30.3162 12313 110.964
30.4337 12017 109.622
30.5512 12158 110.263
30.6687 12795 113.115
30.7862 12989 113.969
30.9037 13272 115.204
31.0212 13555 116.426
31.1387 13525 116.297
31.2562 13249 115.104
31.3737 12893 113.547
31.4912 12949 113.794
31.6087 12553 112.04
31.7262 12261 110.729
31.8436 12227 110.576
31.9611 12068 109.854
32.0785 11963 109.375
32.1959 11850 108.858
32.3134 11671 108.032
32.4308 11747 108.384
32.5482 11969 109.403
32.6655 12255 110.702
32.7829 12645 112.45
32.9002 12937 113.741
33.0176 13264 115.169
33.1349 13574 116.508
33.2522 13596 116.602
33.3694 13562 116.456
33.4867 13523 116.288
33.6039 13505 116.211
33.7211 13788 117.422
33.8383 13155 114.695
33.9554 12370 111.221
34.0725 11729 108.301
34.1896 11301 106.306
34.3067 11841 108.816
34.4237 12315 110.973
34.5407 12892 113.543
34.6577 12787 113.08
34.7746 12694 112.668
34.8915 12775 113.027
35.0084 12423 111.459
35.1252 12358 111.167
35.242 12298 110.896
35.3587 11919 109.174
35.4755 12100 110
35.5921 11780 108.536
35.7088 11525 107.355
35.8254 11369 106.626
35.9419 11332 106.452
36.0584 11197 105.816
36.1749 11275 106.184
36.2913 11389 106.719
36.4077 11760 108.444
36.524 11708 108.204
36.6403 12170 110.318
36.7565 12335 111.063
36.8727 12855 113.38
36.9889 12775 113.027
37.1049 12831 113.274
37.221 0 1
37.3369 0 1
37.4529 0 1
37.5687 0 1
37.6845 0 1
37.8003 0 1
37.916 0 1
38.0316 0 1
38.1472 0 1
40.5851 0 1
40.7008 0 1
40.8164 0 1
40.9322 0 1
41.048 0 1
41.1639 0 1
41.2798 0 1
41.3958 0 1
41.5118 0 1
41.6279 0 1
41.744 9232 96.0833
41.8602 9985 99.925
41.9765 10389 101.926
42.0928 10779 103.822
42.2091 10788 103.865
42.3255 10988 104.824
42.4419 10754 103.701
42.5584 10591 102.913
42.675 10655 103.223
42.7915 10128 100.638
42.9081 9247 96.1613
43.0248 8697 93.2577
43.1415 9071 95.2418
43.2582 9464 97.2831
43.375 9749 98.737
43.4918 9965 99.8248
43.6087 10045 100.225
43.7256 10118 100.588
43.8425 10050 100.25
43.9595 9575 97.8519
44.0765 9605 98.0051
44.1935 9201 95.9218
44.3106 9072 95.247
44.4277 8832 93.9787
44.5448 8613 92.8062
44.6619 8153 90.294
44.7791 8106 90.0333
44.8963 7871 88.7187
45.0136 7661 87.5271
45.1308 7738 87.9659
45.2481 7919 88.9888
45.3654 7884 88.7919
45.4827 7987 89.37
45.6001 8297 91.0879
45.7174 8669 93.1075
45.8348 8515 92.2768
45.9522 8587 92.6661
46.0697 8436 91.8477
46.1871 8273 90.956
46.3046 7866 88.6905
46.422 7388 85.9535
46.5395 6873 82.9036
46.657 6702 81.8657
46.7745 6987 83.5883
46.892 7236 85.0647
47.0096 7451 86.3192
47.1271 7536 86.8101
47.2446 7544 86.8562
47.3622 7513 86.6776
47.4797 7381 85.9127
47.5973 7483 86.5043
47.7149 7175 84.7054
47.8324 7041 83.9107
47.95 6826 82.6196
48.0675 6692 81.8046
48.1851 6636 81.4616
48.3027 6267 79.1644
48.4202 6342 79.6367
48.5378 6115 78.1985
48.6554 6294 79.3347
48.7729 6297 79.3536
48.8904 6556 80.9691
49.008 6738 82.0853
49.1255 7033 83.863
49.243 7170 84.6759
49.3605 7218 84.9588
49.478 7370 85.8487
49.5955 7265 85.235
49.713 7216 84.947
49.8304 7036 83.8809
49.9479 6448 80.2994
50.0653 6229 78.924
50.1827 6097 78.0833
50.3001 6442 80.2621
50.4175 6900 83.0662
50.5348 7145 84.5281
50.6521 7702 87.761
50.7694 7778 88.193
50.8867 8060 89.7775
51.004 8010 89.4986
51.1212 8221 90.6697
51.2384 8124 90.1332
51.3556 8193 90.5152
51.4727 8326 91.2469
51.5899 8208 90.598
51.707 8072 89.8443
51.824 8146 90.2552
51.9411 7962 89.23
52.0581 7863 88.6736
52.175 7947 89.1459
52.2919 8270 90.9395
52.4088 8620 92.844
52.5257 8938 94.541
52.6425 9384 96.871
52.7593 9758 98.7826
52.876 10071 100.354
52.9927 9847 99.2321
53.1094 10135 100.673
53.226 10232 101.153
53.3426 10368 101.823
53.4591 10046 100.23
53.5756 9154 95.6765
53.692 8849 94.0691
53.8084 8480 92.0869
53.9248 8754 93.5628
54.0411 9549 97.719
54.1573 9941 99.7046
54.2735 0 1
54.3896 0 1
54.5057 0 1
54.6217 0 1
54.7377 0 1
54.8537 0 1
54.9695 0 1
55.0853 0 1
55.2011 0 1
55.3168 0 1
55.4324 0 1
57.824 0 1
57.9396 0 1
58.0553 0 1
58.1711 0 1
58.2869 0 1
58.4028 0 1
58.5187 0 1
58.6347 0 1
58.7508 0 1
58.8669 0 1
58.983 10112 100.558
59.0992 10815 103.995
59.2155 11544 107.443
59.3318 12055 109.795
59.4482 12581 112.165
59.5646 12800 113.137
59.681 12979 113.925
59.7975 12764 112.978
59.9141 12836 113.296
60.0306 12556 112.054
60.1473 12672 112.57
60.2639 12131 110.141
60.3807 11846 108.839
60.4974 11849 108.853
60.6142 11154 105.612
60.731 10708 103.479
60.8479 10628 103.092
60.9648 10847 104.149
61.0818 11032 105.033
61.1987 11228 105.962
61.3158 11872 108.959
61.4328 12066 109.845
61.5499 12520 111.893
61.667 12539 111.978
61.7841 12497 111.79
61.9013 12338 111.077
62.0185 11820 108.72
62.1357 11138 105.537
62.253 10437 102.162
62.3702 10200 100.995
62.4875 10260 101.292
62.6049 10773 103.793
62.7222 11151 105.598
62.8396 12183 110.377
62.9569 12033 109.695
63.0743 12462 111.633
63.1918 12540 111.982
63.3092 12437 111.521
63.4267 12416 111.427
63.5441 12200 110.454
63.6616 11918 109.17
63.7791 11847 108.844
63.8966 11459 107.047
64.0142 11117 105.437
64.1317 10518 102.557
64.2492 10248 101.232
64.3668 10004 100.02
64.4843 9939 99.6945
64.6019 10183 100.911
64.7195 10552 102.723
64.837 11226 105.953
64.9546 11522 107.341
65.0722 11762 108.453
65.1898 11870 108.95
65.3074 12168 110.309
65.4249 11829 108.761
65.5425 11754 108.416
65.6601 11208 105.868
65.7777 10262 101.302
65.8952 9668 98.326
66.0128 9391 96.9072
66.1304 9786 98.9242
66.2479 10461 102.279
66.3655 11115 105.428
66.483 11589 107.652
66.6005 11918 109.17
66.718 12128 110.127
66.8355 12260 110.725
66.953 12013 109.604
67.0705 12089 109.95
67.1879 11976 109.435
67.3054 11740 108.351
67.4228 11338 106.48
67.5402 11201 105.835
67.6576 10798 103.913
67.7749 10433 102.142
67.8923 10015 100.075
68.0096 9744 98.7117
68.1269 9937 99.6845
68.2442 10147 100.732
68.3614 10542 102.674
68.4787 10893 104.37
68.5958 11546 107.452
68.713 12155 110.25
68.8302 12103 110.014
68.9473 12323 111.009
69.0643 12186 110.39
69.1814 11987 109.485
69.2984 11820 108.72
69.4154 11073 105.228
69.5323 10303 101.504
69.6492 9813 99.0606
69.7661 10312 101.548
69.8829 10861 104.216
69.9997 11665 108.005
70.1165 12083 109.923
70.2332 12362 111.185
70.3499 12692 112.659
70.4665 12810 113.181
70.5831 13086 114.394
70.6996 13004 114.035
70.8161 12817 113.212
70.9326 12630 112.383
71.049 12359 111.171
71.1653 12093 109.968
71.2817 11599 107.699
71.3979 11203 105.844
71.5141 10521 102.572
71.6303 9819 99.0909
71.7464 9005 94.8947
71.8624 0 1
71.9784 0 1
72.0944 0 1
72.2102 0 1
72.3261 0 1
72.4418 0 1
72.5575 0 1
72.6732 0 1
75.1054 0 1
75.2209 0 1
75.3365 0 1
75.4521 0 1
75.5678 0 1
75.6835 0 1
75.7993 0 1
75.9151 0 1
76.031 0 1
76.147 11684 108.093
76.263 12113 110.059
76.3791 12183 110.377
76.4952 11664 108
76.6113 11362 106.593
76.7276 10709 103.484
76.8438 10296 101.469
76.9601 10372 101.843
77.0765 10598 102.947
77.1929 11128 105.489
77.3093 11847 108.844
77.4258 12411 111.405
77.5423 13062 114.289
77.6589 13200 114.891
77.7755 12884 113.508
77.8921 12874 113.464
78.0088 12716 112.765
78.1256 11988 109.49
78.2423 10913 104.465
78.3591 9993 99.965
78.4759 9541 97.678
78.5928 9913 99.564
78.7097 10512 102.528
78.8266 11134 105.518
78.9436 12255 110.702
79.0606 12464 111.642
79.1776 12474 111.687
79.2946 12916 113.649
79.4117 13154 114.691
79.5288 13114 114.516
79.6459 13161 114.721
79.7631 12823 113.239
79.8802 12554 112.045
79.9974 12212 110.508
80.1147 11954 109.334
80.2319 11289 106.25
80.3491 10772 103.788
80.4664 9935 99.6745
80.5837 10066 100.329
80.701 10321 101.592
80.8183 10913 104.465
80.9357 11729 108.301
81.053 12311 110.955
81.1704 12780 113.049
81.2877 13057 114.267
81.4051 12996 114
81.5225 12803 113.15
81.6399 12643 112.441
81.7573 12349 111.126
81.8747 11174 105.707
81.9922 10211 101.049
82.1096 9696 98.4683
82.227 9849 99.2421
82.3444 10557 102.747
82.4619 11492 107.201
82.5793 12115 110.068
82.6967 12165 110.295
82.8142 12741 112.876
82.9316 12892 113.543
83.049 13053 114.25
83.1664 13155 114.695
83.2838 13205 114.913
83.4012 12801 113.142
83.5186 12725 112.805
83.636 12448 111.571
83.7534 12043 109.741
83.8708 11518 107.322
83.9881 10959 104.685
84.1055 10101 100.504
84.2228 10098 100.489
84.3401 10441 102.181
84.4575 10948 104.633
84.5747 11695 108.143
84.692 12791 113.097
84.8093 13215 114.957
84.9265 13078 114.359
85.0437 13507 116.22
85.1609 13114 114.516
85.2781 12772 113.013
85.3952 11935 109.247
85.5123 11042 105.081
85.6294 10367 101.818
85.7465 10032 100.16
85.8636 10479 102.367
85.9806 11294 106.273
86.0976 12492 111.768
86.2145 12736 112.854
86.3315 13122 114.551
86.4484 13791 117.435
86.5652 13765 117.324
86.682 13732 117.184
86.7988 14175 119.059
86.9156 13809 117.512
87.0323 13772 117.354
87.149 13631 116.752
87.2657 13294 115.3
87.3823 12898 113.569
87.4988 12004 109.563
87.6154 11396 106.752
87.7318 11002 104.89
87.8483 10950 104.642
87.9647 11681 108.079
88.081 12295 110.883
88.1973 13386 115.698
88.3136 13806 117.499
88.4298 13939 118.064
88.546 14015 118.385
88.6621 13814 117.533
88.7781 13505 116.211
88.8942 0 1
89.0101 0 1
89.126 0 1
89.2419 0 1
89.3577 0 1
89.4734 0 1
89.5891 0 1
89.7047 0 1
89.8203 0 1
89.9358 0 1
92.3269 0 1
92.4424 0 1
92.558 0 1
92.6736 0 1
92.7893 0 1
92.905 0 1
93.0208 0 1
93.1366 0 1
93.2525 0 1
93.3685 0 1
93.4845 0 1
93.6005 13434 115.905
93.7167 13294 115.3
93.8328 13136 114.612
93.949 13227 115.009
94.0653 12684 112.623
94.1816 11961 109.366
94.2979 11271 106.165
94.4143 10778 103.817
94.5307 10643 103.165
94.6472 10666 103.276
94.7637 11284 106.226
94.8803 12088 109.945
94.9969 12675 112.583
95.1135 13073 114.337
95.2302 13367 115.616
95.3469 13667 116.906
95.4637 13533 116.331
95.5805 13871 117.775
95.6973 14162 119.004
95.8142 13976 118.22
95.9311 13997 118.309
96.048 13513 116.245
96.1649 13336 115.482
96.2819 13053 114.25
96.3989 12568 112.107
96.516 11781 108.54
96.633 11057 105.152
96.7501 10750 103.682
96.8673 11277 106.193
96.9844 11888 109.032
97.1016 12550 112.027
97.2188 13260 115.152
97.336 13767 117.333
97.4532 13716 117.115
97.5704 13833 117.614
97.6877 13545 116.383
97.805 12672 112.57
97.9223 11792 108.591
98.0396 11227 105.958
98.1569 10686 103.373
98.2743 10401 101.985
98.3916 10829 104.062
98.509 11503 107.252
98.6264 12280 110.815
98.7438 12689 112.645
98.8612 13091 114.416
98.9786 13360 115.585
99.096 13510 116.233
99.2134 13821 117.563
99.3308 13676 116.944
99.4482 13646 116.816
99.5656 13593 116.589
99.6831 13451 115.978
99.8005 13048 114.228
99.9179 12581 112.165
100.035 11981 109.458
100.153 11282 106.217
100.27 10691 103.397
100.388 10582 102.869
100.505 11380 106.677
100.622 12017 109.622
100.74 13027 114.136
100.857 13351 115.547
100.975 13436 115.914
101.092 13612 116.67
101.209 13420 115.845
101.327 13027 114.136
101.444 12697 112.681
101.561 11859 108.899
101.679 11207 105.863
101.796 10667 103.281
101.913 10698 103.431
102.03 11302 106.311
102.148 12061 109.823
102.265 11868 108.94
102.382 14383 119.929
102.499 13916 117.966
102.616 13889 117.852
102.733 14030 118.448
102.851 14317 119.654
102.968 14636 120.979
103.085 14287 119.528
103.202 14233 119.302
103.319 13669 116.914
103.436 13663 116.889
103.552 12983 113.943
103.669 12286 110.842
103.786 11482 107.154
103.903 11610 107.75
104.02 11992 109.508
104.137 13129 114.582
104.253 13737 117.205
104.37 14298 119.574
104.487 14802 121.663
104.603 14673 121.132
104.72 14763 121.503
104.836 14430 120.125
104.953 13362 115.594
105.069 12220 110.544
105.186 11869 108.945
105.302 11490 107.191
105.418 11644 107.907
105.535 12346 111.113
105.651 13159 114.713
105.767 13656 116.859
105.883 13985 118.258
105.999 14165 119.017
106.115 0 1
106.231 0 1
106.347 0 1
106.463 0 1
106.579 0 1
106.694 0 1
106.81 0 1
106.926 0 1
107.041 0 1
107.157 0 1
109.576 0 1
109.692 0 1
109.807 0 1
109.923 0 1
110.039 0 1
110.155 0 1
110.27 0 1
110.386 0 1
110.502 0 1
110.618 11012 104.938
110.735 11983 109.467
110.851 12208 110.49
110.967 12451 111.584
111.083 12658 112.508
111.199 12942 113.763
111.316 12957 113.829
111.432 13178 114.795
111.549 13045 114.215
111.665 12818 113.217
111.782 12150 110.227
111.898 12022 109.645
112.015 11366 106.611
112.132 10477 102.357
112.248 9641 98.1886
112.365 9767 98.8281
112.482 10558 102.752
112.599 10976 104.766
112.716 11611 107.754
112.832 12008 109.581
112.949 11897 109.073
113.066 11853 108.871
113.183 11832 108.775
113.3 11233 105.986
113.417 10270 101.341
113.534 9603 97.9949
113.652 9402 96.9639
113.769 9055 95.1578
113.886 8738 93.4773
114.003 9033 95.0421
114.12 9689 98.4327
114.238 10090 100.449
114.355 10281 101.395
114.472 10609 103
114.589 10367 101.818
114.707 10479 102.367
114.824 10711 103.494
114.942 10291 101.445
115.059 10562 102.772
115.176 10203 101.01
115.294 10018 100.09
115.411 9588 97.9183
115.529 9217 96.0052
115.646 8748 93.5307
115.764 7911 88.9438
115.881 7597 87.1608
115.999 7829 88.4816
116.116 8345 91.351
116.234 8907 94.3769
116.351 9271 96.286
116.469 8977 94.747
116.586 9002 94.8789
116.704 8902 94.3504
116.821 8689 93.2148
116.939 8309 91.1537
117.056 7788 88.2496
117.174 7264 85.2291
117.291 7141 84.5044
117.409 6761 82.2253
117.526 7070 84.0833
117.644 7382 85.9186
117.761 7735 87.9488
117.879 8035 89.6382
117.996 8403 91.6679
118.114 8571 92.5797
118.231 8712 93.3381
118.349 8679 93.1612
118.466 8652 93.0161
118.584 8780 93.7017
118.701 8682 93.1773
118.819 8506 92.228
118.936 8591 92.6876
119.053 8236 90.7524
119.171 8014 89.5209
119.288 7654 87.4871
119.405 7254 85.1704
119.523 7149 84.5518
119.64 7623 87.3098
119.757 8217 90.6477
119.875 8602 92.747
119.992 8797 93.7923
120.109 8945 94.578
120.226 9048 95.121
120.343 9121 95.5039
120.46 8983 94.7787
120.578 8762 93.6056
120.695 8431 91.8205
120.812 8176 90.4212
120.929 7729 87.9147
121.046 7431 86.2032
121.163 7459 86.3655
121.279 7903 88.8988
121.396 8447 91.9076
121.513 8700 93.2738
121.63 9183 95.828
121.747 9418 97.0464
121.863 9296 96.4158
121.98 10051 100.255
122.097 9993 99.965
122.213 10061 100.305
122.33 10266 101.321
122.446 10249 101.237
122.563 10210 101.045
122.679 10267 101.326
122.795 10011 100.055
122.912 9622 98.0918
123.028 9243 96.1405
123.144 8631 92.9032
123.26 8591 92.6876
123.377 0 1
123.493 0 1
123.609 0 1
123.725 0 1
123.84 0 1
123.956 0 1
124.072 0 1
124.188 0 1
124.303 0 1
124.419 0 1
126.852 0 1
126.968 0 1
127.083 0 1
127.199 0 1
127.315 0 1
127.431 0 1
127.547 0 1
127.663 0 1
127.779 0 1
127.895 0 1
128.011 0 1
128.127 0 1
128.243 0 1
128.359 10586 102.888
128.476 9944 99.7196
128.592 10174 100.866
128.708 10749 103.677
128.825 11862 108.913
128.941 12272 110.779
129.058 12248 110.671
129.174 12411 111.405
129.291 12205 110.476
129.408 11860 108.904
129.524 11322 106.405
129.641 10925 104.523
129.758 10499 102.465
129.875 10104 100.519
129.992 9483 97.3807
130.108 9561 97.7804
130.225 9714 98.5596
130.342 10154 100.767
130.459 10354 101.755
130.576 10515 102.543
130.693 10873 104.274
130.81 10832 104.077
130.928 11006 104.909
131.045 10886 104.336
131.162 11126 105.48
131.279 11274 106.179
131.396 10930 104.547
131.513 11019 104.971
131.631 10669 103.291
131.748 10002 100.01
131.865 9468 97.3036
131.983 9162 95.7183
132.1 9186 95.8436
132.217 9904 99.5188
132.335 10215 101.069
132.452 10562 102.772
132.57 10501 102.474
132.687 10261 101.297
132.804 10907 104.437
132.922 10327 101.622
133.039 10008 100.04
133.157 9426 97.0876
133.274 9008 94.9105
133.392 8714 93.3488
133.509 8234 90.7414
133.627 8310 91.1592
133.744 8197 90.5373
133.862 8548 92.4554
133.979 8586 92.6607
134.097 8765 93.6216
134.214 8904 94.361
134.332 8667 93.0967
134.449 9024 94.9947
134.567 8996 94.8472
134.684 8917 94.4299
134.802 8786 93.7337
134.919 9018 94.9632
135.037 8707 93.3113
135.154 8645 92.9785
135.272 8198 90.5428
135.389 7908 88.9269
135.507 7378 85.8953
135.624 7378 85.8953
135.742 7282 85.3346
135.859 7759 88.0852
135.977 7974 89.2973
136.094 7962 89.23
136.211 7890 88.8257
136.329 8044 89.6883
136.446 7907 88.9213
136.564 7801 88.3233
136.681 7299 85.4342
136.798 7073 84.1011
136.915 6657 81.5904
137.033 6612 81.3142
137.15 6487 80.5419
137.267 6370 79.8123
137.384 6318 79.4858
137.502 6655 81.5782
137.619 6795 82.4318
137.736 6981 83.5524
137.853 7155 84.5872
137.97 7274 85.2877
138.087 7456 86.3481
138.204 7509 86.6545
138.321 7772 88.1589
138.438 7767 88.1306
138.555 7803 88.3346
138.672 8101 90.0056
138.788 7931 89.0562
138.905 7641 87.4128
139.022 7497 86.5852
139.139 7198 84.841
139.255 7370 85.8487
139.372 7771 88.1533
139.488 8394 91.6188
139.605 8781 93.707
139.721 8711 93.3327
139.838 8998 94.8578
139.954 8953 94.6203
140.071 8787 93.739
140.187 8894 94.308
140.303 8550 92.4662
140.419 8354 91.4002
140.535 7985 89.3588
140.652 8042 89.6772
140.768 0 1
140.884 0 1
141 0 1
141.115 0 1
141.231 0 1
141.347 0 1
141.463 0 1
141.578 0 1
141.694 0 1
144.104 0 1
144.219 0 1
144.335 0 1
144.45 0 1
144.566 0 1
144.682 0 1
144.798 0 1
144.914 0 1
145.03 0 1
145.146 7471 86.4349
145.262 7826 88.4647
145.378 7314 85.5219
145.494 7198 84.841
145.61 6926 83.2226
145.726 6569 81.0494
145.842 6386 79.9125
145.959 6398 79.9875
146.075 6418 80.1124
146.192 6423 80.1436
146.308 6441 80.2558
146.425 6579 81.111
146.541 6516 80.7217
146.658 6555 80.963
146.774 6538 80.8579
146.891 6836 82.6801
147.008 6563 81.0123
147.125 6802 82.4742
147.241 6734 82.061
147.358 6474 80.4612
147.475 6401 80.0062
147.592 6107 78.1473
147.709 6064 77.8717
147.826 5766 75.9342
147.943 5611 74.9066
148.06 5833 76.3741
148.177 6004 77.4855
148.294 6182 78.6257
148.411 6187 78.6575
148.528 6205 78.7718
148.645 6445 80.2808
148.762 5991 77.4016
148.88 5966 77.2399
148.997 6030 77.6531
149.114 5256 72.4983
149.231 5373 73.3008
149.349 5069 71.1969
149.466 4971 70.5053
149.583 4924 70.1712
149.701 4910 70.0714
149.818 5048 71.0493
149.935 5045 71.0282
150.053 5316 72.9109
150.17 5235 72.3533
150.287 5358 73.1984
150.405 5494 74.1215
150.522 5523 74.3169
150.64 5695 75.4652
150.757 5619 74.96
150.875 5756 75.8683
150.992 5747 75.809
151.11 5724 75.6571
151.227 5466 73.9324
151.344 5388 73.403
151.462 5216 72.2219
151.579 5260 72.5259
151.697 5612 74.9133
151.814 5809 76.2168
151.932 6103 78.1217
152.049 6144 78.3837
152.167 6276 79.2212
152.284 6115 78.1985
152.402 6064 77.8717
152.519 6102 78.1153
152.636 5934 77.0325
152.754 5919 76.935
152.871 5626 75.0067
152.989 5421 73.6274
153.106 5483 74.0473
153.223 5476 74
153.341 5595 74.7997
153.458 5693 75.452
153.575 5727 75.6769
153.693 5916 76.9155
153.81 6141 78.3645
153.927 6122 78.2432
154.044 6167 78.5302
154.162 6354 79.712
154.279 6475 80.4674
154.396 6661 81.6149
154.513 6736 82.0731
154.63 6926 83.2226
154.747 6919 83.1805
154.864 6761 82.2253
154.981 6610 81.3019
155.098 6548 80.9197
155.215 6591 81.185
155.332 7026 83.8212
155.449 7405 86.0523
155.566 7311 85.5044
155.683 7472 86.4407
155.8 7452 86.325
155.917 7537 86.8159
156.033 7526 86.7525
156.15 0 1
156.267 0 1
156.383 0 1
156.5 0 1
156.617 0 1
156.733 0 1
156.85 0 1
156.966 0 1
157.082 0 1
157.199 0 1
157.315 0 1
157.431 0 1
157.547 0 1
157.664 0 1
157.78 0 1
157.896 0 1
158.012 0 1
158.128 0 1
158.244 0 1
158.359 0 1
158.475 0 1
158.591 0 1
158.706 0 1
