
6.15755 0 1
6.2731 0 1
6.3887 0 1
6.50437 0 1
6.62009 0 1
6.73587 0 1
6.8517 0 1
6.96759 0 1
7.08353 0 1
7.19952 0 1
7.31557 0 1
7.43166 0 1
7.54781 0 1
7.664 0 1
7.78024 0 1
7.89653 0 1
8.01286 0 1
8.12924 0 1
8.24567 0 1
8.36213 0 1
8.47864 0 1
8.59519 0 1
8.71178 0 1
8.82841 0 1
8.94508 0 1
9.06179 0 1
9.17853 0 1
9.29531 0 1
9.41212 0 1
9.52897 0 1
9.64584 0 1
9.76276 0 1
9.8797 0 1
9.99667 0 1
10.1137 0 1
10.2307 0 1
10.3478 0 1
10.4648 0 1
10.5819 0 1
10.6991 0 1
10.8162 0 1
10.9334 0 1
11.0506 0 1
11.1678 0 1
11.285 0 1
11.4023 0 1
11.5196 0 1
11.6369 0 1
11.7542 0 1
11.8715 0 1
11.9888 0 1
12.1062 0 1
12.2235 0 1
12.3409 0 1
12.4582 0 1
12.5756 0 1
12.693 0 1
12.8104 0 1
12.9278 0 1
13.0452 0 1
13.1626 0 1
13.28 0 1
13.3974 0 1
13.5149 0 1
13.6323 0 1
13.7497 0 1
13.8671 0 1
13.9845 0 1
14.1019 0 1
14.2193 0 1
14.3367 0 1
14.4541 0 1
14.5714 0 1
14.6888 0 1
14.8062 0 1
14.9235 0 1
15.0408 0 0
15.1581 0 0
15.2755 0 0
15.3927 0 0
15.51 0 0
15.6273 0 0
15.7445 0 0
15.8617 0 0
15.9789 0 0
16.0961 0 0
16.2132 0 0
16.3304 0 0
16.4475 0 0
16.5646 0 0
16.6816 0 0
16.7986 0 0
16.9156 0 0
17.0326 0 0
17.1496 0 0
17.2665 0 0
17.3833 0 0
17.5002 0 0
17.617 0 0
17.7338 0 0
17.8505 0 0
17.9672 0 0
18.0839 0 0
18.2005 0 0
18.3171 0 0
18.4337 0 0
18.5502 0 0
18.6666 0 0
18.7831 0 0
18.8994 0 0
19.0158 0 0
19.1321 0 0
19.2483 0 0
19.3645 0 0
19.4806 0 0
19.5967 0 0
19.7128 0 0
19.8288 0 0
19.9447 0 0
20.0606 0 1
20.1764 0 1
20.2922 0 1
20.4079 0 1
20.5236 0 1
20.6392 0 1
20.7548 0 1
20.8702 0 1
23.3078 0 1
23.4233 0 1
23.539 0 1
23.6547 0 1
23.7704 0 1
23.8862 0 1
24.0021 0 1
24.118 0 1
24.234 0 1
24.35 0 1
24.4661 1235 35.1426
24.5822 1204 34.6987
24.6984 1278 35.7491
24.8146 1326 36.4143
24.9309 1277 35.7351
25.0472 1288 35.8887
25.1636 1363 36.9188
25.28 1351 36.756
25.3965 1365 36.9459
25.513 1358 36.8511
25.6296 1394 37.3363
25.7462 1422 37.7094
25.8628 1453 38.1182
25.9795 1391 37.2961
26.0962 1456 38.1576
26.213 1330 36.4692
26.3298 1340 36.606
26.4466 1418 37.6563
26.5635 1344 36.6606
26.6804 1311 36.2077
26.7973 1268 35.609
26.9143 1178 34.322
27.0313 1185 34.4238
27.1483 1208 34.7563
27.2653 1250 35.3553
27.3824 1239 35.1994
27.4996 1314 36.2491
27.6167 1258 35.4683
27.7339 1226 35.0143
27.8511 1215 34.8569
27.9683 1191 34.5109
28.0855 1212 34.8138
28.2028 1203 34.6843
28.3201 1131 33.6303
28.4374 1189 34.4819
28.5547 1302 36.0832
28.6721 1212 34.8138
28.7894 1324 36.3868
28.9068 1316 36.2767
29.0242 1257 35.4542
29.1416 1318 36.3043
29.259 1424 37.7359
29.3764 1348 36.7151
29.4939 1325 36.4005
29.6113 1316 36.2767
29.7288 1312 36.2215
29.8463 1307 36.1525
29.9638 1348 36.7151
30.0812 1300 36.0555
30.1987 1275 35.7071
30.3162 1294 35.9722
30.4337 1176 34.2929
30.5512 1116 33.4066
30.6687 1073 32.7567
30.7862 1164 34.1174
30.9037 1189 34.4819
31.0212 1232 35.0999
31.1387 1225 35
31.2562 1234 35.1283
31.3737 1158 34.0294
31.4912 1136 33.7046
31.6087 1169 34.1906
31.7262 1221 34.9428
31.8436 1163 34.1028
31.9611 1220 34.9285
32.0785 1220 34.9285
32.1959 1224 34.9857
32.3134 1253 35.3977
32.4308 1216 34.8712
32.5482 1261 35.5106
32.6655 1322 36.3593
32.7829 1262 35.5246
32.9002 1303 36.0971
33.0176 1265 35.5668
33.1349 1297 36.0139
33.2522 1262 35.5246
33.3694 1273 35.6791
33.4867 1239 35.1994
33.6039 1276 35.7211
33.7211 1230 35.0714
33.8383 1271 35.6511
33.9554 1189 34.4819
34.0725 1143 33.8083
34.1896 1097 33.121
34.3067 1076 32.8024
34.4237 1078 32.8329
34.5407 1093 33.0606
34.6577 1192 34.5254
34.7746 1142 33.7935
34.8915 1165 34.1321
35.0084 1091 33.0303
35.1252 1100 33.1662
35.242 1100 33.1662
35.3587 1124 33.5261
35.4755 1146 33.8526
35.5921 1233 35.1141
35.7088 1206 34.7275
35.8254 1228 35.0428
35.9419 1260 35.4965
36.0584 1274 35.6931
36.1749 1188 34.4674
36.2913 1268 35.609
36.4077 1191 34.5109
36.524 1232 35.0999
36.6403 1329 36.4555
36.7565 1307 36.1525
36.8727 1299 36.0416
36.9889 1184 34.4093
37.1049 1240 35.2136
37.221 0 1
37.3369 0 1
37.4529 0 1
37.5687 0 1
37.6845 0 1
37.8003 0 1
37.916 0 1
38.0316 0 1
38.1472 0 1
40.5851 0 1
40.7008 0 1
40.8164 0 1
40.9322 0 1
41.048 0 1
41.1639 0 1
41.2798 0 1
41.3958 0 1
41.5118 0 1
41.6279 0 1
41.744 1009 31.7648
41.8602 997 31.5753
41.9765 1007 31.7333
42.0928 1007 31.7333
42.2091 995 31.5436
42.3255 1059 32.5423
42.4419 1041 32.2645
42.5584 984 31.3688
42.675 1055 32.4808
42.7915 998 31.5911
42.9081 961 31
43.0248 914 30.2324
43.1415 858 29.2916
43.2582 875 29.5804
43.375 866 29.4279
43.4918 1000 31.6228
43.6087 961 31
43.7256 973 31.1929
43.8425 903 30.05
43.9595 893 29.8831
44.0765 880 29.6648
44.1935 843 29.0345
44.3106 898 29.9666
44.4277 914 30.2324
44.5448 903 30.05
44.6619 895 29.9166
44.7791 935 30.5778
44.8963 939 30.6431
45.0136 888 29.7993
45.1308 950 30.8221
45.2481 906 30.0998
45.3654 943 30.7083
45.4827 902 30.0333
45.6001 877 29.6142
45.7174 882 29.6985
45.8348 859 29.3087
45.9522 830 28.8097
46.0697 847 29.1033
46.1871 846 29.0861
46.3046 822 28.6705
46.422 777 27.8747
46.5395 773 27.8029
46.657 767 27.6948
46.7745 641 25.318
46.892 676 26
47.0096 684 26.1534
47.1271 767 27.6948
47.2446 732 27.0555
47.3622 673 25.9422
47.4797 685 26.1725
47.5973 707 26.5895
47.7149 649 25.4755
47.8324 658 25.6515
47.95 719 26.8142
48.0675 727 26.9629
48.1851 717 26.7769
48.3027 773 27.8029
48.4202 733 27.074
48.5378 711 26.6646
48.6554 660 25.6905
48.7729 680 26.0768
48.8904 699 26.4386
49.008 720 26.8328
49.1255 687 26.2107
49.243 675 25.9808
49.3605 779 27.9106
49.478 699 26.4386
49.5955 750 27.3861
49.713 760 27.5681
49.8304 718 26.7955
49.9479 718 26.7955
50.0653 754 27.4591
50.1827 728 26.9815
50.3001 581 24.1039
50.4175 647 25.4362
50.5348 707 26.5895
50.6521 724 26.9072
50.7694 772 27.7849
50.8867 712 26.6833
51.004 734 27.0924
51.1212 763 27.6225
51.2384 816 28.5657
51.3556 818 28.6007
51.4727 876 29.5973
51.5899 831 28.8271
51.707 875 29.5804
51.824 888 29.7993
51.9411 942 30.692
52.0581 942 30.692
52.175 939 30.6431
52.2919 1007 31.7333
52.4088 908 30.133
52.5257 852 29.189
52.6425 905 30.0832
52.7593 937 30.6105
52.876 944 30.7246
52.9927 862 29.3598
53.1094 999 31.607
53.226 1071 32.7261
53.3426 979 31.289
53.4591 1008 31.749
53.5756 976 31.241
53.692 935 30.5778
53.8084 911 30.1828
53.9248 899 29.9833
54.0411 783 27.9821
54.1573 913 30.2159
54.2735 0 1
54.3896 0 1
54.5057 0 1
54.6217 0 1
54.7377 0 1
54.8537 0 1
54.9695 0 1
55.0853 0 1
55.2011 0 1
55.3168 0 1
55.4324 0 1
57.824 0 1
57.9396 0 1
58.0553 0 1
58.1711 0 1
58.2869 0 1
58.4028 0 1
58.5187 0 1
58.6347 0 1
58.7508 0 1
58.8669 0 1
58.983 996 31.5595
59.0992 937 30.6105
59.2155 918 30.2985
59.3318 912 30.1993
59.4482 945 30.7409
59.5646 1029 32.078
59.681 1009 31.7648
59.7975 962 31.0161
59.9141 1098 33.1361
60.0306 1033 32.1403
60.1473 1038 32.218
60.2639 1025 32.0156
60.3807 1068 32.6803
60.4974 1011 31.7962
60.6142 1001 31.6386
60.731 1063 32.6037
60.8479 1129 33.6006
60.9648 1037 32.2025
61.0818 1047 32.3574
61.1987 1038 32.218
61.3158 1032 32.1248
61.4328 997 31.5753
61.5499 1001 31.6386
61.667 999 31.607
61.7841 994 31.5278
61.9013 976 31.241
62.0185 988 31.4325
62.1357 974 31.209
62.253 950 30.8221
62.3702 933 30.545
62.4875 824 28.7054
62.6049 850 29.1548
62.7222 833 28.8617
62.8396 871 29.5127
62.9569 896 29.9333
63.0743 891 29.8496
63.1918 898 29.9666
63.3092 864 29.3939
63.4267 915 30.249
63.5441 929 30.4795
63.6616 933 30.545
63.7791 869 29.4788
63.8966 902 30.0333
64.0142 959 30.9677
64.1317 982 31.3369
64.2492 961 31
64.3668 900 30
64.4843 923 30.3809
64.6019 895 29.9166
64.7195 818 28.6007
64.837 885 29.7489
64.9546 892 29.8664
65.0722 812 28.4956
65.1898 878 29.6311
65.3074 833 28.8617
65.4249 859 29.3087
65.5425 838 28.9482
65.6601 853 29.2062
65.7777 846 29.0861
65.8952 872 29.5296
66.0128 839 28.9655
66.1304 809 28.4429
66.2479 747 27.3313
66.3655 652 25.5343
66.483 727 26.9629
66.6005 750 27.3861
66.718 732 27.0555
66.8355 759 27.55
66.953 818 28.6007
67.0705 799 28.2666
67.1879 837 28.931
67.3054 843 29.0345
67.4228 836 28.9137
67.5402 797 28.2312
67.6576 792 28.1425
67.7749 812 28.4956
67.8923 780 27.9285
68.0096 802 28.3196
68.1269 806 28.3901
68.2442 762 27.6043
68.3614 777 27.8747
68.4787 804 28.3549
68.5958 788 28.0713
68.713 760 27.5681
68.8302 760 27.5681
68.9473 826 28.7402
69.0643 757 27.5136
69.1814 816 28.5657
69.2984 752 27.4226
69.4154 807 28.4077
69.5323 796 28.2135
69.6492 759 27.55
69.7661 761 27.5862
69.8829 730 27.0185
69.9997 657 25.632
70.1165 670 25.8844
70.2332 686 26.1916
70.3499 708 26.6083
70.4665 704 26.533
70.5831 700 26.4575
70.6996 730 27.0185
70.8161 745 27.2947
70.9326 818 28.6007
71.049 732 27.0555
71.1653 748 27.3496
71.2817 751 27.4044
71.3979 689 26.2488
71.5141 689 26.2488
71.6303 687 26.2107
71.7464 618 24.8596
71.8624 0 1
71.9784 0 1
72.0944 0 1
72.2102 0 1
72.3261 0 1
72.4418 0 1
72.5575 0 1
72.6732 0 1
75.1054 0 1
75.2209 0 1
75.3365 0 1
75.4521 0 1
75.5678 0 1
75.6835 0 1
75.7993 0 1
75.9151 0 1
76.031 0 1
76.147 510 22.5832
76.263 588 24.2487
76.3791 550 23.4521
76.4952 541 23.2594
76.6113 578 24.0416
76.7276 536 23.1517
76.8438 567 23.8118
76.9601 568 23.8328
77.0765 521 22.8254
77.1929 541 23.2594
77.3093 548 23.4094
77.4258 492 22.1811
77.5423 534 23.1084
77.6589 557 23.6008
77.7755 464 21.5407
77.8921 515 22.6936
78.0088 493 22.2036
78.1256 475 21.7945
78.2423 489 22.1133
78.3591 521 22.8254
78.4759 504 22.4499
78.5928 458 21.4009
78.7097 445 21.095
78.8266 496 22.2711
78.9436 413 20.3224
79.0606 385 19.6214
79.1776 364 19.0788
79.2946 374 19.3391
79.4117 394 19.8494
79.5288 392 19.799
79.6459 446 21.1187
79.7631 392 19.799
79.8802 365 19.105
79.9974 402 20.0499
80.1147 336 18.3303
80.2319 365 19.105
80.3491 376 19.3907
80.4664 347 18.6279
80.5837 391 19.7737
80.701 365 19.105
80.8183 310 17.6068
80.9357 296 17.2047
81.053 330 18.1659
81.1704 345 18.5742
81.2877 317 17.8045
81.4051 305 17.4642
81.5225 275 16.5831
81.6399 295 17.1756
81.7573 261 16.1555
81.8747 291 17.0587
81.9922 271 16.4621
82.1096 257 16.0312
82.227 246 15.6844
82.3444 268 16.3707
82.4619 222 14.8997
82.5793 229 15.1327
82.6967 224 14.9666
82.8142 194 13.9284
82.9316 178 13.3417
83.049 155 12.4499
83.1664 207 14.3875
83.2838 164 12.8062
83.4012 177 13.3041
83.5186 177 13.3041
83.636 173 13.1529
83.7534 167 12.9228
83.8708 135 11.619
83.9881 136 11.6619
84.1055 147 12.1244
84.2228 126 11.225
84.3401 126 11.225
84.4575 124 11.1355
84.5747 124 11.1355
84.692 120 10.9545
84.8093 117 10.8167
84.9265 107 10.3441
85.0437 111 10.5357
85.1609 93 9.64365
85.2781 113 10.6301
85.3952 108 10.3923
85.5123 92 9.59166
85.6294 108 10.3923
85.7465 99 9.94987
85.8636 99 9.94987
85.9806 83 9.11043
86.0976 109 10.4403
86.2145 80 8.94427
86.3315 104 10.198
86.4484 123 11.0905
86.5652 121 11
86.682 141 11.8743
86.7988 134 11.5758
86.9156 164 12.8062
87.0323 126 11.225
87.149 147 12.1244
87.2657 154 12.4097
87.3823 144 12
87.4988 153 12.3693
87.6154 149 12.2066
87.7318 199 14.1067
87.8483 187 13.6748
87.9647 191 13.8203
88.081 177 13.3041
88.1973 224 14.9666
88.3136 210 14.4914
88.4298 214 14.6287
88.546 240 15.4919
88.6621 254 15.9374
88.7781 254 15.9374
88.8942 0 1
89.0101 0 1
89.126 0 1
89.2419 0 1
89.3577 0 1
89.4734 0 1
89.5891 0 1
89.7047 0 1
89.8203 0 1
89.9358 0 1
92.3269 0 1
92.4424 0 1
92.558 0 1
92.6736 0 1
92.7893 0 1
92.905 0 1
93.0208 0 1
93.1366 0 1
93.2525 0 1
93.3685 0 1
93.4845 0 1
93.6005 391 19.7737
93.7167 391 19.7737
93.8328 404 20.0998
93.949 383 19.5704
94.0653 346 18.6011
94.1816 327 18.0831
94.2979 342 18.4932
94.4143 332 18.2209
94.5307 328 18.1108
94.6472 344 18.5472
94.7637 306 17.4929
94.8803 338 18.3848
94.9969 310 17.6068
95.1135 312 17.6635
95.2302 284 16.8523
95.3469 279 16.7033
95.4637 242 15.5563
95.5805 256 16
95.6973 265 16.2788
95.8142 334 18.2757
95.9311 389 19.7231
96.048 353 18.7883
96.1649 383 19.5704
96.2819 391 19.7737
96.3989 389 19.7231
96.516 374 19.3391
96.633 362 19.0263
96.7501 415 20.3715
96.8673 413 20.3224
96.9844 429 20.7123
97.1016 442 21.0238
97.2188 463 21.5174
97.336 436 20.8806
97.4532 470 21.6795
97.5704 488 22.0907
97.6877 531 23.0434
97.805 524 22.891
97.9223 509 22.561
98.0396 502 22.4054
98.1569 518 22.7596
98.2743 527 22.9565
98.3916 540 23.2379
98.509 553 23.516
98.6264 550 23.4521
98.7438 569 23.8537
98.8612 568 23.8328
98.9786 512 22.6274
99.096 402 20.0499
99.2134 412 20.2978
99.3308 512 22.6274
99.4482 617 24.8395
99.5656 647 25.4362
99.6831 701 26.4764
99.8005 660 25.6905
99.9179 670 25.8844
100.035 649 25.4755
100.153 703 26.5141
100.27 729 27
100.388 677 26.0192
100.505 702 26.4953
100.622 714 26.7208
100.74 720 26.8328
100.857 745 27.2947
100.975 758 27.5318
101.092 785 28.0179
101.209 770 27.7489
101.327 767 27.6948
101.444 768 27.7128
101.561 828 28.775
101.679 750 27.3861
101.796 727 26.9629
101.913 813 28.5132
102.03 814 28.5307
102.148 848 29.1204
102.265 842 29.0172
102.382 768 27.7128
102.499 746 27.313
102.616 610 24.6982
102.733 554 23.5372
102.851 653 25.5539
102.968 756 27.4955
103.085 817 28.5832
103.202 854 29.2233
103.319 800 28.2843
103.436 791 28.1247
103.552 803 28.3373
103.669 828 28.775
103.786 859 29.3087
103.903 818 28.6007
104.02 876 29.5973
104.137 827 28.7576
104.253 829 28.7924
104.37 837 28.931
104.487 887 29.7825
104.603 880 29.6648
104.72 837 28.931
104.836 848 29.1204
104.953 863 29.3769
105.069 885 29.7489
105.186 868 29.4618
105.302 944 30.7246
105.418 863 29.3769
105.535 856 29.2575
105.651 873 29.5466
105.767 848 29.1204
105.883 796 28.2135
105.999 721 26.8514
106.115 0 1
106.231 0 1
106.347 0 1
106.463 0 1
106.579 0 1
106.694 0 1
106.81 0 1
106.926 0 1
107.041 0 1
107.157 0 1
109.576 0 1
109.692 0 1
109.807 0 1
109.923 0 1
110.039 0 1
110.155 0 1
110.27 0 1
110.386 0 1
110.502 0 1
110.618 701 26.4764
110.735 726 26.9444
110.851 664 25.7682
110.967 696 26.3818
111.083 591 24.3105
111.199 529 23
111.316 539 23.2164
111.432 571 23.8956
111.549 636 25.219
111.665 656 25.6125
111.782 591 24.3105
111.898 645 25.3969
112.015 622 24.9399
112.132 614 24.779
112.248 672 25.923
112.365 625 25
112.482 616 24.8193
112.599 557 23.6008
112.716 609 24.6779
112.832 563 23.7276
112.949 592 24.3311
113.066 539 23.2164
113.183 548 23.4094
113.3 547 23.388
113.417 551 23.4734
113.534 527 22.9565
113.652 519 22.7816
113.769 559 23.6432
113.886 557 23.6008
114.003 541 23.2594
114.12 548 23.4094
114.238 483 21.9773
114.355 486 22.0454
114.472 468 21.6333
114.589 487 22.0681
114.707 450 21.2132
114.824 408 20.199
114.942 417 20.4206
115.059 481 21.9317
115.176 455 21.3307
115.294 473 21.7486
115.411 497 22.2935
115.529 435 20.8567
115.646 486 22.0454
115.764 483 21.9773
115.881 511 22.6053
115.999 468 21.6333
116.116 450 21.2132
116.234 491 22.1585
116.351 477 21.8403
116.469 456 21.3542
116.586 482 21.9545
116.704 485 22.0227
116.821 509 22.561
116.939 490 22.1359
117.056 495 22.2486
117.174 458 21.4009
117.291 487 22.0681
117.409 477 21.8403
117.526 507 22.5167
117.644 478 21.8632
117.761 493 22.2036
117.879 422 20.5426
117.996 373 19.3132
118.114 392 19.799
118.231 409 20.2237
118.349 456 21.3542
118.466 478 21.8632
118.584 508 22.5389
118.701 491 22.1585
118.819 485 22.0227
118.936 522 22.8473
119.053 543 23.3024
119.171 516 22.7156
119.288 480 21.9089
119.405 497 22.2935
119.523 480 21.9089
119.64 488 22.0907
119.757 494 22.2261
119.875 547 23.388
119.992 487 22.0681
120.109 470 21.6795
120.226 488 22.0907
120.343 501 22.383
120.46 513 22.6495
120.578 497 22.2935
120.695 494 22.2261
120.812 474 21.7715
120.929 557 23.6008
121.046 505 22.4722
121.163 526 22.9347
121.279 517 22.7376
121.396 470 21.6795
121.513 476 21.8174
121.63 431 20.7605
121.747 384 19.5959
121.863 372 19.2873
121.98 398 19.9499
122.097 465 21.5639
122.213 528 22.9783
122.33 507 22.5167
122.446 501 22.383
122.563 523 22.8692
122.679 549 23.4307
122.795 544 23.3238
122.912 574 23.9583
123.028 529 23
123.144 548 23.4094
123.26 516 22.7156
123.377 0 1
123.493 0 1
123.609 0 1
123.725 0 1
123.84 0 1
123.956 0 1
124.072 0 1
124.188 0 1
124.303 0 1
124.419 0 1
126.852 0 1
126.968 0 1
127.083 0 1
127.199 0 1
127.315 0 1
127.431 0 1
127.547 0 1
127.663 0 1
127.779 0 1
127.895 0 1
128.011 0 1
128.127 0 1
128.243 0 1
128.359 687 26.2107
128.476 641 25.318
128.592 763 27.6225
128.708 672 25.923
128.825 737 27.1477
128.941 705 26.5518
129.058 690 26.2679
129.174 702 26.4953
129.291 672 25.923
129.408 698 26.4197
129.524 707 26.5895
129.641 695 26.3629
129.758 682 26.1151
129.875 680 26.0768
129.992 728 26.9815
130.108 698 26.4197
130.225 672 25.923
130.342 638 25.2587
130.459 570 23.8747
130.576 548 23.4094
130.693 469 21.6564
130.81 467 21.6102
130.928 499 22.3383
131.045 603 24.5561
131.162 688 26.2298
131.279 682 26.1151
131.396 722 26.8701
131.513 697 26.4008
131.631 766 27.6767
131.748 759 27.55
131.865 755 27.4773
131.983 742 27.2397
132.1 752 27.4226
132.217 729 27
132.335 765 27.6586
132.452 748 27.3496
132.57 783 27.9821
132.687 752 27.4226
132.804 720 26.8328
132.922 790 28.1069
133.039 751 27.4044
133.157 784 28
133.274 755 27.4773
133.392 760 27.5681
133.509 741 27.2213
133.627 717 26.7769
133.744 755 27.4773
133.862 717 26.7769
133.979 694 26.3439
134.097 609 24.6779
134.214 559 23.6432
134.332 571 23.8956
134.449 583 24.1454
134.567 594 24.3721
134.684 683 26.1343
134.802 772 27.7849
134.919 772 27.7849
135.037 796 28.2135
135.154 810 28.4605
135.272 801 28.3019
135.389 779 27.9106
135.507 847 29.1033
135.624 797 28.2312
135.742 821 28.6531
135.859 824 28.7054
135.977 891 29.8496
136.094 802 28.3196
136.211 843 29.0345
136.329 816 28.5657
136.446 859 29.3087
136.564 803 28.3373
136.681 918 30.2985
136.798 825 28.7228
136.915 878 29.6311
137.033 827 28.7576
137.15 846 29.0861
137.267 835 28.8964
137.384 811 28.4781
137.502 777 27.8747
137.619 689 26.2488
137.736 712 26.6833
137.853 642 25.3377
137.97 646 25.4165
138.087 638 25.2587
138.204 672 25.923
138.321 714 26.7208
138.438 782 27.9643
138.555 860 29.3258
138.672 920 30.3315
138.788 821 28.6531
138.905 970 31.1448
139.022 877 29.6142
139.139 941 30.6757
139.255 935 30.5778
139.372 923 30.3809
139.488 912 30.1993
139.605 938 30.6268
139.721 921 30.348
139.838 878 29.6311
139.954 937 30.6105
140.071 924 30.3974
140.187 882 29.6985
140.303 840 28.9828
140.419 916 30.2655
140.535 899 29.9833
140.652 889 29.8161
140.768 0 1
140.884 0 1
141 0 1
141.115 0 1
141.231 0 1
141.347 0 1
141.463 0 1
141.578 0 1
141.694 0 1
144.104 0 1
144.219 0 1
144.335 0 1
144.45 0 1
144.566 0 1
144.682 0 1
144.798 0 1
144.914 0 1
145.03 0 1
145.146 884 29.7321
145.262 894 29.8998
145.378 893 29.8831
145.494 865 29.4109
145.61 921 30.348
145.726 891 29.8496
145.842 872 29.5296
145.959 858 29.2916
146.075 778 27.8927
146.192 780 27.9285
146.308 775 27.8388
146.425 710 26.6458
146.541 705 26.5518
146.658 689 26.2488
146.774 706 26.5707
146.891 734 27.0924
147.008 772 27.7849
147.125 809 28.4429
147.241 860 29.3258
147.358 881 29.6816
147.475 895 29.9166
147.592 919 30.315
147.709 912 30.1993
147.826 889 29.8161
147.943 885 29.7489
148.06 819 28.6182
148.177 854 29.2233
148.294 881 29.6816
148.411 877 29.6142
148.528 868 29.4618
148.645 869 29.4788
148.762 939 30.6431
148.88 829 28.7924
148.997 824 28.7054
149.114 895 29.9166
149.231 881 29.6816
149.349 857 29.2746
149.466 881 29.6816
149.583 828 28.775
149.701 799 28.2666
149.818 737 27.1477
149.935 753 27.4408
150.053 711 26.6646
150.17 719 26.8142
150.287 726 26.9444
150.405 725 26.9258
150.522 708 26.6083
150.64 759 27.55
150.757 798 28.2489
150.875 832 28.8444
150.992 835 28.8964
151.11 872 29.5296
151.227 908 30.133
151.344 838 28.9482
151.462 906 30.0998
151.579 892 29.8664
151.697 927 30.4467
151.814 933 30.545
151.932 844 29.0517
152.049 866 29.4279
152.167 860 29.3258
152.284 891 29.8496
152.402 937 30.6105
152.519 851 29.1719
152.636 877 29.6142
152.754 900 30
152.871 931 30.5123
152.989 878 29.6311
153.106 887 29.7825
153.223 854 29.2233
153.341 817 28.5832
153.458 775 27.8388
153.575 795 28.1957
153.693 761 27.5862
153.81 744 27.2764
153.927 812 28.4956
154.044 774 27.8209
154.162 833 28.8617
154.279 837 28.931
154.396 842 29.0172
154.513 873 29.5466
154.63 879 29.6479
154.747 920 30.3315
154.864 937 30.6105
154.981 961 31
155.098 938 30.6268
155.215 967 31.0966
155.332 953 30.8707
155.449 969 31.1288
155.566 985 31.3847
155.683 944 30.7246
155.8 933 30.545
155.917 984 31.3688
156.033 997 31.5753
156.15 0 1
156.267 0 1
156.383 0 1
156.5 0 1
156.617 0 1
156.733 0 1
156.85 0 1
156.966 0 1
157.082 0 1
157.199 0 1
157.315 0 1
157.431 0 1
157.547 0 1
157.664 0 1
157.78 0 1
157.896 0 1
158.012 0 1
158.128 0 1
158.244 0 1
158.359 0 1
158.475 0 1
158.591 0 1
158.706 0 1
