
6.15755 0 1
6.2731 0 1
6.3887 0 1
6.50437 0 1
6.62009 0 1
6.73587 0 1
6.8517 0 1
6.96759 0 1
7.08353 0 1
7.19952 0 1
7.31557 0 1
7.43166 0 1
7.54781 0 1
7.664 0 1
7.78024 0 1
7.89653 0 1
8.01286 0 1
8.12924 0 1
8.24567 0 1
8.36213 0 1
8.47864 0 1
8.59519 0 1
8.71178 0 1
8.82841 0 1
8.94508 0 1
9.06179 0 1
9.17853 0 1
9.29531 0 1
9.41212 0 1
9.52897 0 1
9.64584 0 1
9.76276 0 1
9.8797 0 1
9.99667 0 1
10.1137 0 1
10.2307 0 1
10.3478 0 1
10.4648 0 1
10.5819 0 1
10.6991 0 1
10.8162 0 1
10.9334 0 1
11.0506 0 1
11.1678 0 1
11.285 0 1
11.4023 0 1
11.5196 0 1
11.6369 0 1
11.7542 0 1
11.8715 0 1
11.9888 0 1
12.1062 0 1
12.2235 0 1
12.3409 0 1
12.4582 0 1
12.5756 0 1
12.693 0 1
12.8104 0 1
12.9278 0 1
13.0452 0 1
13.1626 0 1
13.28 0 1
13.3974 0 1
13.5149 0 1
13.6323 0 1
13.7497 0 1
13.8671 0 1
13.9845 0 1
14.1019 0 1
14.2193 0 1
14.3367 0 1
14.4541 0 1
14.5714 0 1
14.6888 0 1
14.8062 0 1
14.9235 0 1
15.0408 0 0
15.1581 0 0
15.2755 0 0
15.3927 0 0
15.51 0 0
15.6273 0 0
15.7445 0 0
15.8617 0 0
15.9789 0 0
16.0961 0 0
16.2132 0 0
16.3304 0 0
16.4475 0 0
16.5646 0 0
16.6816 0 0
16.7986 0 0
16.9156 0 0
17.0326 0 0
17.1496 0 0
17.2665 0 0
17.3833 0 0
17.5002 0 0
17.617 0 0
17.7338 0 0
17.8505 0 0
17.9672 0 0
18.0839 0 0
18.2005 0 0
18.3171 0 0
18.4337 0 0
18.5502 0 0
18.6666 0 0
18.7831 0 0
18.8994 0 0
19.0158 0 0
19.1321 0 0
19.2483 0 0
19.3645 0 0
19.4806 0 0
19.5967 0 0
19.7128 0 0
19.8288 0 0
19.9447 0 0
20.0606 0 1
20.1764 0 1
20.2922 0 1
20.4079 0 1
20.5236 0 1
20.6392 0 1
20.7548 0 1
20.8702 0 1
23.3078 0 1
23.4233 0 1
23.539 0 1
23.6547 0 1
23.7704 0 1
23.8862 0 1
24.0021 0 1
24.118 0 1
24.234 0 1
24.35 0 1
24.4661 1396 37.3631
24.5822 1504 38.7814
24.6984 1608 40.0999
24.8146 1846 42.9651
24.9309 2144 46.3033
25.0472 2492 49.9199
25.1636 2697 51.9326
25.28 2744 52.3832
25.3965 2859 53.4696
25.513 2914 53.9815
25.6296 3008 54.8452
25.7462 2896 53.8145
25.8628 2939 54.2125
25.9795 2868 53.5537
26.0962 2920 54.037
26.213 3014 54.8999
26.3298 3020 54.9545
26.4466 2937 54.1941
26.5635 2905 53.8981
26.6804 2945 54.2679
26.7973 2861 53.4883
26.9143 2898 53.8331
27.0313 2733 52.2781
27.1483 2705 52.0096
27.2653 2712 52.0769
27.3824 2623 51.2152
27.4996 2492 49.9199
27.6167 2415 49.1426
27.7339 2362 48.6004
27.8511 2499 49.99
27.9683 2587 50.8626
28.0855 2671 51.6817
28.2028 2723 52.1824
28.3201 2673 51.7011
28.4374 2733 52.2781
28.5547 2865 53.5257
28.6721 2765 52.5833
28.7894 2679 51.7591
28.9068 2674 51.7107
29.0242 2736 52.3068
29.1416 2774 52.6688
29.259 2823 53.1319
29.3764 2822 53.1225
29.4939 2713 52.0865
29.6113 2545 50.448
29.7288 2522 50.2195
29.8463 2537 50.3686
29.9638 2510 50.0999
30.0812 2598 50.9706
30.1987 2664 51.614
30.3162 2696 51.923
30.4337 2642 51.4004
30.5512 2662 51.5946
30.6687 2666 51.6333
30.7862 2719 52.144
30.9037 2557 50.5668
31.0212 2540 50.3984
31.1387 2485 49.8498
31.2562 2470 49.6991
31.3737 2683 51.7977
31.4912 2833 53.2259
31.6087 2767 52.6023
31.7262 2792 52.8394
31.8436 2748 52.4214
31.9611 2713 52.0865
32.0785 2754 52.4786
32.1959 2808 52.9906
32.3134 2660 51.5752
32.4308 2635 51.3323
32.5482 2530 50.2991
32.6655 2573 50.7247
32.7829 2456 49.558
32.9002 2371 48.6929
33.0176 2455 49.548
33.1349 2376 48.7442
33.2522 2384 48.8262
33.3694 2269 47.634
33.4867 2454 49.5379
33.6039 2388 48.8672
33.7211 2468 49.679
33.8383 2573 50.7247
33.9554 2496 49.96
34.0725 2576 50.7543
34.1896 2634 51.3225
34.3067 2662 51.5946
34.4237 2639 51.3712
34.5407 2479 49.7896
34.6577 2486 49.8598
34.7746 2481 49.8096
34.8915 2445 49.4469
35.0084 2702 51.9808
35.1252 2763 52.5642
35.242 2762 52.5547
35.3587 2810 53.0094
35.4755 2652 51.4976
35.5921 2724 52.192
35.7088 2490 49.8999
35.8254 2453 49.5278
35.9419 2496 49.96
36.0584 2273 47.676
36.1749 2377 48.7545
36.2913 2268 47.6235
36.4077 2155 46.422
36.524 2100 45.8258
36.6403 1914 43.7493
36.7565 1648 40.5956
36.8727 1582 39.7744
36.9889 1540 39.2428
37.1049 1490 38.6005
37.221 0 1
37.3369 0 1
37.4529 0 1
37.5687 0 1
37.6845 0 1
37.8003 0 1
37.916 0 1
38.0316 0 1
38.1472 0 1
40.5851 0 1
40.7008 0 1
40.8164 0 1
40.9322 0 1
41.048 0 1
41.1639 0 1
41.2798 0 1
41.3958 0 1
41.5118 0 1
41.6279 0 1
41.744 1895 43.5316
41.8602 2553 50.5272
41.9765 3031 55.0545
42.0928 3243 56.9473
42.2091 3296 57.4108
42.3255 3351 57.8878
42.4419 3445 58.6941
42.5584 3544 59.5315
42.675 3577 59.808
42.7915 3497 59.1354
42.9081 3659 60.4897
43.0248 3735 61.1146
43.1415 3746 61.2046
43.2582 3532 59.4306
43.375 3317 57.5934
43.4918 3356 57.931
43.6087 3459 58.8133
43.7256 3434 58.6003
43.8425 3518 59.3127
43.9595 3646 60.3821
44.0765 3750 61.2372
44.1935 3604 60.0333
44.3106 3619 60.1581
44.4277 3501 59.1692
44.5448 3458 58.8048
44.6619 3389 58.2151
44.7791 3242 56.9386
44.8963 3036 55.0999
45.0136 2932 54.1479
45.1308 2905 53.8981
45.2481 2732 52.2685
45.3654 2629 51.2738
45.4827 2594 50.9313
45.6001 2628 51.264
45.7174 2394 48.9285
45.8348 2305 48.0104
45.9522 2414 49.1325
46.0697 2327 48.239
46.1871 2367 48.6518
46.3046 2363 48.6107
46.422 2371 48.6929
46.5395 2447 49.4672
46.657 2391 48.8979
46.7745 2321 48.1768
46.892 2179 46.6798
47.0096 2040 45.1664
47.1271 2222 47.1381
47.2446 2248 47.4131
47.3622 2212 47.0319
47.4797 2336 48.3322
47.5973 2305 48.0104
47.7149 2264 47.5815
47.8324 2241 47.3392
47.95 2172 46.6047
48.0675 2274 47.6865
48.1851 2234 47.2652
48.3027 2125 46.0977
48.4202 2204 46.9468
48.5378 2099 45.8148
48.6554 2002 44.7437
48.7729 2040 45.1664
48.8904 2027 45.0222
49.008 1991 44.6206
49.1255 1946 44.1135
49.243 1961 44.2832
49.3605 2006 44.7884
49.478 1987 44.5758
49.5955 2148 46.3465
49.713 2155 46.422
49.8304 2189 46.7868
49.9479 2203 46.9361
50.0653 2221 47.1275
50.1827 2281 47.7598
50.3001 2033 45.0888
50.4175 1812 42.5676
50.5348 1668 40.8412
50.6521 1841 42.9069
50.7694 2025 45
50.8867 2095 45.7712
51.004 2214 47.0532
51.1212 2262 47.5605
51.2384 2369 48.6724
51.3556 2309 48.0521
51.4727 2248 47.4131
51.5899 2264 47.5815
51.707 2212 47.0319
51.824 2227 47.1911
51.9411 2182 46.7119
52.0581 2129 46.1411
52.175 2128 46.1303
52.2919 2048 45.2548
52.4088 1961 44.2832
52.5257 1972 44.4072
52.6425 1978 44.4747
52.7593 1951 44.1701
52.876 1966 44.3396
52.9927 1978 44.4747
53.1094 2011 44.8442
53.226 2026 45.0111
53.3426 2090 45.7165
53.4591 1917 43.7836
53.5756 1718 41.4488
53.692 1547 39.3319
53.8084 1381 37.1618
53.9248 1247 35.3129
54.0411 1136 33.7046
54.1573 1025 32.0156
54.2735 0 1
54.3896 0 1
54.5057 0 1
54.6217 0 1
54.7377 0 1
54.8537 0 1
54.9695 0 1
55.0853 0 1
55.2011 0 1
55.3168 0 1
55.4324 0 1
57.824 0 1
57.9396 0 1
58.0553 0 1
58.1711 0 1
58.2869 0 1
58.4028 0 1
58.5187 0 1
58.6347 0 1
58.7508 0 1
58.8669 0 1
58.983 1789 42.2966
59.0992 1756 41.9047
59.2155 1869 43.2319
59.3318 1914 43.7493
59.4482 2197 46.8722
59.5646 2356 48.5386
59.681 2458 49.5782
59.7975 2593 50.9215
59.9141 2591 50.9019
60.0306 2635 51.3323
60.1473 2688 51.8459
60.2639 2655 51.5267
60.3807 2520 50.1996
60.4974 2649 51.4684
60.6142 2701 51.9711
60.731 2620 51.1859
60.8479 2610 51.0882
60.9648 2566 50.6557
61.0818 2676 51.7301
61.1987 2618 51.1664
61.3158 2561 50.6063
61.4328 2525 50.2494
61.5499 2384 48.8262
61.667 2496 49.96
61.7841 2505 50.05
61.9013 2489 49.8899
62.0185 2651 51.4879
62.1357 2553 50.5272
62.253 2536 50.3587
62.3702 2629 51.2738
62.4875 2297 47.927
62.6049 2222 47.1381
62.7222 2259 47.5289
62.8396 2407 49.0612
62.9569 2573 50.7247
63.0743 2644 51.4198
63.1918 2680 51.7687
63.3092 2771 52.6403
63.4267 2652 51.4976
63.5441 2721 52.1632
63.6616 2678 51.7494
63.7791 2652 51.4976
63.8966 2666 51.6333
64.0142 2646 51.4393
64.1317 2579 50.7839
64.2492 2622 51.2055
64.3668 2588 50.8724
64.4843 2607 51.0588
64.6019 2607 51.0588
64.7195 2495 49.95
64.837 2532 50.319
64.9546 2435 49.3457
65.0722 2551 50.5074
65.1898 2538 50.3786
65.3074 2482 49.8197
65.4249 2480 49.7996
65.5425 2530 50.2991
65.6601 2547 50.4678
65.7777 2606 51.049
65.8952 2528 50.2792
66.0128 2377 48.7545
66.1304 2242 47.3498
66.2479 2022 44.9667
66.3655 2150 46.3681
66.483 2313 48.0937
66.6005 2617 51.1566
66.718 2673 51.7011
66.8355 2640 51.3809
66.953 2574 50.7346
67.0705 2616 51.1468
67.1879 2605 51.0392
67.3054 2594 50.9313
67.4228 2584 50.8331
67.5402 2555 50.547
67.6576 2639 51.3712
67.7749 2540 50.3984
67.8923 2545 50.448
68.0096 2563 50.6261
68.1269 2645 51.4296
68.2442 2497 49.97
68.3614 2573 50.7247
68.4787 2485 49.8498
68.5958 2432 49.3153
68.713 2407 49.0612
68.8302 2272 47.6655
68.9473 2342 48.3942
69.0643 2367 48.6518
69.1814 2517 50.1697
69.2984 2439 49.3862
69.4154 2448 49.4773
69.5323 2460 49.5984
69.6492 2248 47.4131
69.7661 2032 45.0777
69.8829 1847 42.9767
69.9997 1980 44.4972
70.1165 2199 46.8935
70.2332 2156 46.4327
70.3499 2070 45.4973
70.4665 1925 43.8748
70.5831 1747 41.7971
70.6996 1766 42.0238
70.8161 1590 39.8748
70.9326 1590 39.8748
71.049 1504 38.7814
71.1653 1507 38.8201
71.2817 1384 37.2022
71.3979 1408 37.5233
71.5141 1308 36.1663
71.6303 1241 35.2278
71.7464 1155 33.9853
71.8624 0 1
71.9784 0 1
72.0944 0 1
72.2102 0 1
72.3261 0 1
72.4418 0 1
72.5575 0 1
72.6732 0 1
75.1054 0 1
75.2209 0 1
75.3365 0 1
75.4521 0 1
75.5678 0 1
75.6835 0 1
75.7993 0 1
75.9151 0 1
76.031 0 1
76.147 1958 44.2493
76.263 2220 47.1169
76.3791 2325 48.2183
76.4952 2266 47.6025
76.6113 2218 47.0956
76.7276 2325 48.2183
76.8438 2429 49.2849
76.9601 2368 48.6621
77.0765 2400 48.9898
77.1929 2370 48.6826
77.3093 2344 48.4149
77.4258 2367 48.6518
77.5423 2363 48.6107
77.6589 2365 48.6313
77.7755 2345 48.4252
77.8921 2301 47.9687
78.0088 2325 48.2183
78.1256 2338 48.3529
78.2423 2371 48.6929
78.3591 2438 49.3761
78.4759 2385 48.8365
78.5928 2333 48.3011
78.7097 2032 45.0777
78.8266 1841 42.9069
78.9436 1676 40.939
79.0606 1751 41.845
79.1776 1996 44.6766
79.2946 2438 49.3761
79.4117 2406 49.051
79.5288 2392 48.9081
79.6459 2525 50.2494
79.7631 2494 49.94
79.8802 2496 49.96
79.9974 2448 49.4773
80.1147 2423 49.224
80.2319 2515 50.1498
80.3491 2449 49.4874
80.4664 2557 50.5668
80.5837 2511 50.1099
80.701 2505 50.05
80.8183 2550 50.4975
80.9357 2613 51.1175
81.053 2593 50.9215
81.1704 2479 49.7896
81.2877 2536 50.3587
81.4051 2409 49.0816
81.5225 2493 49.93
81.6399 2502 50.02
81.7573 2469 49.689
81.8747 2694 51.9038
81.9922 2665 51.6236
82.1096 2867 53.5444
82.227 2783 52.7541
82.3444 2658 51.5558
82.4619 2431 49.3052
82.5793 2242 47.3498
82.6967 2285 47.8017
82.8142 2853 53.4135
82.9316 3433 58.5918
83.049 3683 60.6877
83.1664 3719 60.9836
83.2838 3962 62.9444
83.4012 3940 62.7694
83.5186 4121 64.195
83.636 4223 64.9846
83.7534 4275 65.3835
83.8708 4333 65.8255
83.9881 4370 66.106
84.1055 4502 67.0969
84.2228 4457 66.7608
84.3401 4474 66.888
84.4575 4565 67.5648
84.5747 4598 67.8086
84.692 4470 66.8581
84.8093 4560 67.5278
84.9265 4511 67.164
85.0437 4383 66.2042
85.1609 4356 66
85.2781 4374 66.1362
85.3952 4321 65.7343
85.5123 4489 67
85.6294 4378 66.1665
85.7465 4380 66.1816
85.8636 4029 63.4744
85.9806 3366 58.0172
86.0976 2765 52.5833
86.2145 2821 53.1131
86.3315 3208 56.6392
86.4484 3852 62.0645
86.5652 4169 64.5678
86.682 4237 65.0922
86.7988 4342 65.8939
86.9156 4407 66.3852
87.0323 4313 65.6734
87.149 4290 65.4981
87.2657 4239 65.1076
87.3823 4350 65.9545
87.4988 4080 63.8749
87.6154 3820 61.8061
87.7318 3482 59.0085
87.8483 3192 56.4978
87.9647 3112 55.7853
88.081 3051 55.2359
88.1973 3048 55.2087
88.3136 2882 53.6843
88.4298 2787 52.792
88.546 2629 51.2738
88.6621 2488 49.8799
88.7781 2395 48.9387
88.8942 0 1
89.0101 0 1
89.126 0 1
89.2419 0 1
89.3577 0 1
89.4734 0 1
89.5891 0 1
89.7047 0 1
89.8203 0 1
89.9358 0 1
92.3269 0 1
92.4424 0 1
92.558 0 1
92.6736 0 1
92.7893 0 1
92.905 0 1
93.0208 0 1
93.1366 0 1
93.2525 0 1
93.3685 0 1
93.4845 0 1
93.6005 4534 67.335
93.7167 4576 67.6461
93.8328 4598 67.8086
93.949 4537 67.3573
94.0653 4512 67.1714
94.1816 4613 67.9191
94.2979 4446 66.6783
94.4143 4511 67.164
94.5307 4425 66.5207
94.6472 4416 66.453
94.7637 4336 65.8483
94.8803 3996 63.2139
94.9969 3502 59.1777
95.1135 3286 57.3236
95.2302 3299 57.4369
95.3469 3793 61.5873
95.4637 4340 65.8787
95.5805 4517 67.2086
95.6973 4613 67.9191
95.8142 4724 68.7314
95.9311 4614 67.9264
96.048 4671 68.3447
96.1649 4775 69.1014
96.2819 4821 69.4334
96.3989 4611 67.9043
96.516 4688 68.469
96.633 4736 68.8186
96.7501 4875 69.8212
96.8673 4849 69.6348
96.9844 4793 69.2315
97.1016 4767 69.0435
97.2188 4782 69.152
97.336 4747 68.8985
97.4532 4686 68.4544
97.5704 4678 68.3959
97.6877 4698 68.542
97.805 4595 67.7864
97.9223 4770 69.0652
98.0396 4689 68.4763
98.1569 4649 68.1836
98.2743 4450 66.7083
98.3916 4036 63.5295
98.509 3587 59.8916
98.6264 3236 56.8859
98.7438 3450 58.7367
98.8612 3675 60.6218
98.9786 4364 66.0606
99.096 4432 66.5733
99.2134 4597 67.8012
99.3308 4516 67.2012
99.4482 4686 68.4544
99.5656 4596 67.7938
99.6831 4526 67.2756
99.8005 4467 66.8356
99.9179 4416 66.453
100.035 4352 65.9697
100.153 4319 65.7191
100.27 4283 65.4446
100.388 4272 65.3605
100.505 4248 65.1767
100.622 4105 64.0703
100.74 4117 64.1639
100.857 3950 62.849
100.975 3804 61.6766
101.092 3710 60.9098
101.209 3493 59.1016
101.327 3497 59.1354
101.444 3412 58.4123
101.561 3502 59.1777
101.679 3317 57.5934
101.796 3248 56.9912
101.913 3068 55.3895
102.03 2859 53.4696
102.148 2458 49.5782
102.265 2310 48.0625
102.382 2617 51.1566
102.499 2831 53.2071
102.616 3066 55.3715
102.733 3072 55.4256
102.851 3038 55.1181
102.968 3024 54.9909
103.085 3021 54.9636
103.202 2970 54.4977
103.319 2951 54.3231
103.436 2971 54.5069
103.552 2941 54.231
103.669 2910 53.9444
103.786 2910 53.9444
103.903 2944 54.2586
104.02 2962 54.4243
104.137 3062 55.3353
104.253 3052 55.2449
104.37 2944 54.2586
104.487 2842 53.3104
104.603 2823 53.1319
104.72 2722 52.1728
104.836 2580 50.7937
104.953 2290 47.8539
105.069 2085 45.6618
105.186 1857 43.0929
105.302 1740 41.7133
105.418 1633 40.4104
105.535 1495 38.6652
105.651 1303 36.0971
105.767 1072 32.7414
105.883 912 30.1993
105.999 921 30.348
106.115 0 1
106.231 0 1
106.347 0 1
106.463 0 1
106.579 0 1
106.694 0 1
106.81 0 1
106.926 0 1
107.041 0 1
107.157 0 1
109.576 0 1
109.692 0 1
109.807 0 1
109.923 0 1
110.039 0 1
110.155 0 1
110.27 0 1
110.386 0 1
110.502 0 1
110.618 2922 54.0555
110.735 3044 55.1725
110.851 2801 52.9245
110.967 2635 51.3323
111.083 2556 50.5569
111.199 2803 52.9434
111.316 3093 55.6147
111.432 3198 56.5509
111.549 3281 57.28
111.665 3201 56.5774
111.782 3148 56.107
111.898 3227 56.8067
112.015 3161 56.2228
112.132 3172 56.3205
112.248 3292 57.376
112.365 3274 57.2189
112.482 3256 57.0614
112.599 3478 58.9746
112.716 3253 57.0351
112.832 3428 58.5491
112.949 3427 58.5406
113.066 3649 60.407
113.183 3624 60.1997
113.3 3583 59.8582
113.417 3639 60.3241
113.534 3604 60.0333
113.652 3509 59.2368
113.769 3560 59.6657
113.886 3531 59.4222
114.003 3588 59.8999
114.12 3566 59.716
114.238 3460 58.8218
114.355 3157 56.1872
114.472 2812 53.0283
114.589 2712 52.0769
114.707 2847 53.3573
114.824 3203 56.5951
114.942 3253 57.0351
115.059 3391 58.2323
115.176 3371 58.0603
115.294 3382 58.155
115.411 3231 56.8419
115.529 3228 56.8155
115.646 3371 58.0603
115.764 3316 57.5847
115.881 3285 57.3149
115.999 3282 57.2887
116.116 3286 57.3236
116.234 3370 58.0517
116.351 3483 59.0169
116.469 3558 59.649
116.586 3606 60.05
116.704 3705 60.8687
116.821 3718 60.9754
116.939 3664 60.531
117.056 3722 61.0082
117.174 3664 60.531
117.291 3619 60.1581
117.409 3607 60.0583
117.526 3561 59.6741
117.644 3579 59.8247
117.761 3434 58.6003
117.879 3358 57.9483
117.996 3051 55.2359
118.114 2892 53.7773
118.231 2828 53.1789
118.349 2988 54.6626
118.466 3100 55.6776
118.584 3279 57.2626
118.701 3373 58.0775
118.819 3214 56.6922
118.936 3378 58.1206
119.053 3366 58.0172
119.171 3258 57.0789
119.288 3252 57.0263
119.405 3313 57.5587
119.523 3222 56.7627
119.64 3222 56.7627
119.757 3158 56.1961
119.875 3315 57.576
119.992 3300 57.4456
120.109 3393 58.2495
120.226 3403 58.3352
120.343 3426 58.532
120.46 3537 59.4727
120.578 3522 59.3464
120.695 3435 58.6089
120.812 3373 58.0775
120.929 3374 58.0861
121.046 3304 57.4804
121.163 3279 57.2626
121.279 3368 58.0345
121.396 3329 57.6975
121.513 3123 55.8838
121.63 2927 54.1018
121.747 2566 50.6557
121.863 2279 47.7389
121.98 2322 48.1871
122.097 2256 47.4974
122.213 2473 49.7293
122.33 2374 48.7237
122.446 2274 47.6865
122.563 2264 47.5815
122.679 2184 46.7333
122.795 2133 46.1844
122.912 2131 46.1628
123.028 1942 44.0681
123.144 2018 44.9222
123.26 1973 44.4185
123.377 0 1
123.493 0 1
123.609 0 1
123.725 0 1
123.84 0 1
123.956 0 1
124.072 0 1
124.188 0 1
124.303 0 1
124.419 0 1
126.852 0 1
126.968 0 1
127.083 0 1
127.199 0 1
127.315 0 1
127.431 0 1
127.547 0 1
127.663 0 1
127.779 0 1
127.895 0 1
128.011 0 1
128.127 0 1
128.243 0 1
128.359 3667 60.5558
128.476 3783 61.5061
128.592 3759 61.3107
128.708 3837 61.9435
128.825 3831 61.8951
128.941 3978 63.0714
129.058 4074 63.8279
129.174 4048 63.6239
129.291 4004 63.2772
129.408 4083 63.8984
129.524 4256 65.238
129.641 4248 65.1767
129.758 4461 66.7907
129.875 4483 66.9552
129.992 4599 67.8159
130.108 4574 67.6314
130.225 4552 67.4685
130.342 4518 67.2161
130.459 4352 65.9697
130.576 4392 66.2722
130.693 4034 63.5138
130.81 3865 62.1691
130.928 4111 64.1171
131.045 4015 63.364
131.162 4143 64.3661
131.279 4231 65.0461
131.396 4343 65.9014
131.513 4375 66.1438
131.631 4325 65.7647
131.748 4293 65.521
131.865 4312 65.6658
131.983 4408 66.3928
132.1 4241 65.123
132.217 4332 65.8179
132.335 4255 65.2304
132.452 4165 64.5368
132.57 4186 64.6993
132.687 3960 62.9285
132.804 4406 66.3777
132.922 4370 66.106
133.039 4350 65.9545
133.157 4366 66.0757
133.274 4420 66.4831
133.392 4499 67.0746
133.509 4689 68.4763
133.627 4651 68.1982
133.744 4693 68.5055
133.862 4812 69.3686
133.979 4832 69.5126
134.097 4655 68.2276
134.214 4701 68.5638
134.332 4427 66.5357
134.449 4420 66.4831
134.567 4489 67
134.684 4631 68.0515
134.802 4670 68.3374
134.919 4785 69.1737
135.037 4903 70.0214
135.154 4688 68.469
135.272 4547 67.4314
135.389 4718 68.6877
135.507 4510 67.1565
135.624 4355 65.9924
135.742 4510 67.1565
135.859 4496 67.0522
135.977 4258 65.2534
136.094 4432 66.5733
136.211 4472 66.873
136.329 4449 66.7008
136.446 4503 67.1044
136.564 4362 66.0454
136.681 4429 66.5507
136.798 4447 66.6858
136.915 4617 67.9485
137.033 4570 67.6018
137.15 4615 67.9338
137.267 4684 68.4398
137.384 4619 67.9632
137.502 4637 68.0955
137.619 4602 67.838
137.736 4472 66.873
137.853 4304 65.6049
137.97 4263 65.2917
138.087 4022 63.4192
138.204 4275 65.3835
138.321 4235 65.0769
138.438 4442 66.6483
138.555 4469 66.8506
138.672 4428 66.5432
138.788 4461 66.7907
138.905 4356 66
139.022 4258 65.2534
139.139 3945 62.8092
139.255 3909 62.522
139.372 3592 59.9333
139.488 3524 59.3633
139.605 3388 58.2065
139.721 3288 57.3411
139.838 3152 56.1427
139.954 3106 55.7315
140.071 3204 56.6039
140.187 3069 55.3986
140.303 2915 53.9907
140.419 3026 55.0091
140.535 3164 56.2494
140.652 3278 57.2538
140.768 0 1
140.884 0 1
141 0 1
141.115 0 1
141.231 0 1
141.347 0 1
141.463 0 1
141.578 0 1
141.694 0 1
144.104 0 1
144.219 0 1
144.335 0 1
144.45 0 1
144.566 0 1
144.682 0 1
144.798 0 1
144.914 0 1
145.03 0 1
145.146 8803 93.8243
145.262 8897 94.3239
145.378 8945 94.578
145.494 9236 96.1041
145.61 9196 95.8958
145.726 9297 96.421
145.842 9152 95.6661
145.959 9416 97.0361
146.075 9224 96.0417
146.192 9478 97.355
146.308 9496 97.4474
146.425 9046 95.1105
146.541 8214 90.6311
146.658 7193 84.8116
146.774 6285 79.278
146.891 5961 77.2075
147.008 6831 82.6499
147.125 8090 89.9444
147.241 8560 92.5203
147.358 9016 94.9526
147.475 9136 95.5824
147.592 9208 95.9583
147.709 9232 96.0833
147.826 9222 96.0312
147.943 9135 95.5772
148.06 9282 96.3431
148.177 9344 96.6644
148.294 9270 96.2808
148.411 9320 96.5401
148.528 9235 96.0989
148.645 9089 95.3362
148.762 9240 96.1249
148.88 9396 96.933
148.997 9159 95.7027
149.114 9809 99.0404
149.231 9333 96.6075
149.349 9737 98.6762
149.466 9441 97.1648
149.583 9635 98.158
149.701 9438 97.1494
149.818 9676 98.3667
149.935 9632 98.1428
150.053 9521 97.5756
150.17 9068 95.226
150.287 8193 90.5152
150.405 6747 82.1401
150.522 6363 79.7684
150.64 6711 81.9207
150.757 7942 89.1179
150.875 8760 93.5949
150.992 9256 96.2081
151.11 9056 95.163
151.227 9018 94.9632
151.344 8993 94.8314
151.462 8997 94.8525
151.579 9244 96.1457
151.697 9259 96.2237
151.814 9199 95.9114
151.932 9197 95.901
152.049 9223 96.0365
152.167 9419 97.0515
152.284 9291 96.3898
152.402 9335 96.6178
152.519 9355 96.7212
152.636 9580 97.8775
152.754 9402 96.9639
152.871 9606 98.0102
152.989 9585 97.903
153.106 9618 98.0714
153.223 9619 98.0765
153.341 9847 99.2321
153.458 9834 99.1665
153.575 9708 98.5292
153.693 9526 97.6012
153.81 8998 94.8578
153.927 8283 91.011
154.044 7180 84.7349
154.162 6669 81.6639
154.279 7405 86.0523
154.396 8259 90.879
154.513 9306 96.4676
154.63 9464 97.2831
154.747 9539 97.6678
154.864 9373 96.8143
154.981 9322 96.5505
155.098 9244 96.1457
155.215 9071 95.2418
155.332 8902 94.3504
155.449 8583 92.6445
155.566 8731 93.4398
155.683 8302 91.1153
155.8 8385 91.5696
155.917 8020 89.5545
156.033 7761 88.0965
156.15 0 1
156.267 0 1
156.383 0 1
156.5 0 1
156.617 0 1
156.733 0 1
156.85 0 1
156.966 0 1
157.082 0 1
157.199 0 1
157.315 0 1
157.431 0 1
157.547 0 1
157.664 0 1
157.78 0 1
157.896 0 1
158.012 0 1
158.128 0 1
158.244 0 1
158.359 0 1
158.475 0 1
158.591 0 1
158.706 0 1
