
6.15755 0 1
6.2731 0 1
6.3887 0 1
6.50437 0 1
6.62009 0 1
6.73587 0 1
6.8517 0 1
6.96759 0 1
7.08353 0 1
7.19952 0 1
7.31557 0 1
7.43166 0 1
7.54781 0 1
7.664 0 1
7.78024 0 1
7.89653 0 1
8.01286 0 1
8.12924 0 1
8.24567 0 1
8.36213 0 1
8.47864 0 1
8.59519 0 1
8.71178 0 1
8.82841 0 1
8.94508 0 1
9.06179 0 1
9.17853 0 1
9.29531 0 1
9.41212 0 1
9.52897 0 1
9.64584 0 1
9.76276 0 1
9.8797 0 1
9.99667 0 1
10.1137 0 1
10.2307 0 1
10.3478 0 1
10.4648 0 1
10.5819 0 1
10.6991 0 1
10.8162 0 1
10.9334 0 1
11.0506 0 1
11.1678 0 1
11.285 0 1
11.4023 0 1
11.5196 0 1
11.6369 0 1
11.7542 0 1
11.8715 0 1
11.9888 0 1
12.1062 0 1
12.2235 0 1
12.3409 0 1
12.4582 0 1
12.5756 0 1
12.693 0 1
12.8104 0 1
12.9278 0 1
13.0452 0 1
13.1626 0 1
13.28 0 1
13.3974 0 1
13.5149 0 1
13.6323 0 1
13.7497 0 1
13.8671 0 1
13.9845 0 1
14.1019 0 1
14.2193 0 1
14.3367 0 1
14.4541 0 1
14.5714 0 1
14.6888 0 1
14.8062 0 1
14.9235 0 1
15.0408 0 0
15.1581 0 0
15.2755 0 0
15.3927 0 0
15.51 0 0
15.6273 0 0
15.7445 0 0
15.8617 0 0
15.9789 0 0
16.0961 0 0
16.2132 0 0
16.3304 0 0
16.4475 0 0
16.5646 0 0
16.6816 0 0
16.7986 0 0
16.9156 0 0
17.0326 0 0
17.1496 0 0
17.2665 0 0
17.3833 0 0
17.5002 0 0
17.617 0 0
17.7338 0 0
17.8505 0 0
17.9672 0 0
18.0839 0 0
18.2005 0 0
18.3171 0 0
18.4337 0 0
18.5502 0 0
18.6666 0 0
18.7831 0 0
18.8994 0 0
19.0158 0 0
19.1321 0 0
19.2483 0 0
19.3645 0 0
19.4806 0 0
19.5967 0 0
19.7128 0 0
19.8288 0 0
19.9447 0 0
20.0606 0 1
20.1764 0 1
20.2922 0 1
20.4079 0 1
20.5236 0 1
20.6392 0 1
20.7548 0 1
20.8702 0 1
23.3078 0 1
23.4233 0 1
23.539 0 1
23.6547 0 1
23.7704 0 1
23.8862 0 1
24.0021 0 1
24.118 0 1
24.234 0 1
24.35 0 1
24.4661 5461 73.8986
24.5822 5571 74.6391
24.6984 5703 75.5182
24.8146 5732 75.71
24.9309 5751 75.8353
25.0472 5981 77.3369
25.1636 6047 77.7625
25.28 6034 77.6788
25.3965 6129 78.2879
25.513 6185 78.6448
25.6296 6253 79.0759
25.7462 6395 79.9687
25.8628 6153 78.4411
25.9795 6328 79.5487
26.0962 6108 78.1537
26.213 6147 78.4028
26.3298 6039 77.711
26.4466 6036 77.6917
26.5635 6015 77.5564
26.6804 5763 75.9144
26.7973 5694 75.4586
26.9143 5582 74.7128
27.0313 5362 73.2257
27.1483 5490 74.0945
27.2653 5494 74.1215
27.3824 5476 74
27.4996 5297 72.7805
27.6167 5332 73.0205
27.7339 5053 71.0845
27.8511 4876 69.8284
27.9683 4784 69.1665
28.0855 4751 68.9275
28.2028 4735 68.8113
28.3201 4778 69.1231
28.4374 5137 71.6729
28.5547 5213 72.2011
28.6721 5302 72.8148
28.7894 5486 74.0675
28.9068 5326 72.9794
29.0242 5317 72.9178
29.1416 5492 74.108
29.259 5270 72.5948
29.3764 5417 73.6003
29.4939 5253 72.4776
29.6113 5236 72.3602
29.7288 5173 71.9236
29.8463 5264 72.5534
29.9638 5145 71.7287
30.0812 5055 71.0985
30.1987 5065 71.1688
30.3162 4881 69.8642
30.4337 4620 67.9706
30.5512 4599 67.8159
30.6687 4647 68.1689
30.7862 4666 68.3081
30.9037 4643 68.1396
31.0212 4847 69.6204
31.1387 4627 68.0221
31.2562 4484 66.9627
31.3737 4524 67.2607
31.4912 4161 64.5058
31.6087 4340 65.8787
31.7262 4215 64.923
31.8436 4274 65.3758
31.9611 4601 67.8307
32.0785 4521 67.2384
32.1959 4739 68.8404
32.3134 4841 69.5773
32.4308 4828 69.4838
32.5482 4771 69.0724
32.6655 4756 68.9638
32.7829 4893 69.95
32.9002 4738 68.8331
33.0176 4711 68.6367
33.1349 4852 69.6563
33.2522 4753 68.942
33.3694 4643 68.1396
33.4867 4728 68.7605
33.6039 4833 69.5198
33.7211 4779 69.1303
33.8383 4652 68.2056
33.9554 4486 66.9776
34.0725 4269 65.3376
34.1896 4279 65.4141
34.3067 4219 64.9538
34.4237 4200 64.8074
34.5407 4370 66.106
34.6577 4256 65.238
34.7746 4183 64.6761
34.8915 4151 64.4283
35.0084 4055 63.6789
35.1252 3887 62.3458
35.242 3825 61.8466
35.3587 3779 61.4736
35.4755 3887 62.3458
35.5921 4062 63.7338
35.7088 4189 64.7225
35.8254 4221 64.9692
35.9419 4372 66.1211
36.0584 4291 65.5057
36.1749 4545 67.4166
36.2913 4417 66.4605
36.4077 4499 67.0746
36.524 4339 65.8711
36.6403 4407 66.3852
36.7565 4408 66.3928
36.8727 4379 66.174
36.9889 4334 65.8331
37.1049 4317 65.7039
37.221 0 1
37.3369 0 1
37.4529 0 1
37.5687 0 1
37.6845 0 1
37.8003 0 1
37.916 0 1
38.0316 0 1
38.1472 0 1
40.5851 0 1
40.7008 0 1
40.8164 0 1
40.9322 0 1
41.048 0 1
41.1639 0 1
41.2798 0 1
41.3958 0 1
41.5118 0 1
41.6279 0 1
41.744 3242 56.9386
41.8602 3392 58.2409
41.9765 3349 57.8705
42.0928 3399 58.3009
42.2091 3315 57.576
42.3255 3391 58.2323
42.4419 3276 57.2364
42.5584 3312 57.55
42.675 3381 58.1464
42.7915 3238 56.9034
42.9081 3099 55.6687
43.0248 2975 54.5436
43.1415 3016 54.9181
43.2582 2894 53.7959
43.375 2959 54.3967
43.4918 2953 54.3415
43.6087 2981 54.5985
43.7256 2877 53.6377
43.8425 2727 52.2207
43.9595 2666 51.6333
44.0765 2562 50.6162
44.1935 2744 52.3832
44.3106 2708 52.0384
44.4277 2771 52.6403
44.5448 2723 52.1824
44.6619 2871 53.5817
44.7791 2795 52.8678
44.8963 2832 53.2165
45.0136 2837 53.2635
45.1308 2841 53.301
45.2481 2716 52.1153
45.3654 2660 51.5752
45.4827 2714 52.0961
45.6001 2784 52.7636
45.7174 2670 51.672
45.8348 2781 52.7352
45.9522 2649 51.4684
46.0697 2704 52
46.1871 2672 51.6914
46.3046 2533 50.3289
46.422 2486 49.8598
46.5395 2488 49.8799
46.657 2348 48.4562
46.7745 2329 48.2597
46.892 2268 47.6235
47.0096 2390 48.8876
47.1271 2350 48.4768
47.2446 2282 47.7703
47.3622 2125 46.0977
47.4797 2085 45.6618
47.5973 2070 45.4973
47.7149 2020 44.9444
47.8324 1971 44.3959
47.95 2124 46.0869
48.0675 2289 47.8435
48.1851 2218 47.0956
48.3027 2230 47.2229
48.4202 2192 46.8188
48.5378 2134 46.1952
48.6554 2164 46.5188
48.7729 2155 46.422
48.8904 2114 45.9783
49.008 2143 46.2925
49.1255 2234 47.2652
49.243 2147 46.3357
49.3605 2207 46.9787
49.478 2245 47.3814
49.5955 2202 46.9255
49.713 2231 47.2335
49.8304 2335 48.3218
49.9479 2223 47.1487
50.0653 2117 46.0109
50.1827 2194 46.8402
50.3001 2119 46.0326
50.4175 2168 46.5618
50.5348 2090 45.7165
50.6521 2296 47.9166
50.7694 2257 47.5079
50.8867 2309 48.0521
51.004 2210 47.0106
51.1212 2216 47.0744
51.2384 2323 48.1975
51.3556 2484 49.8397
51.4727 2610 51.0882
51.5899 2653 51.5073
51.707 2767 52.6023
51.824 2882 53.6843
51.9411 2871 53.5817
52.0581 2939 54.2125
52.175 2976 54.5527
52.2919 2986 54.6443
52.4088 2897 53.8238
52.5257 3062 55.3353
52.6425 3017 54.9272
52.7593 2962 54.4243
52.876 3151 56.1338
52.9927 3083 55.5248
53.1094 3249 57
53.226 3201 56.5774
53.3426 3211 56.6657
53.4591 3308 57.5152
53.5756 3284 57.3062
53.692 3290 57.3585
53.8084 3147 56.0981
53.9248 3040 55.1362
54.0411 2940 54.2218
54.1573 3136 56
54.2735 0 1
54.3896 0 1
54.5057 0 1
54.6217 0 1
54.7377 0 1
54.8537 0 1
54.9695 0 1
55.0853 0 1
55.2011 0 1
55.3168 0 1
55.4324 0 1
57.824 0 1
57.9396 0 1
58.0553 0 1
58.1711 0 1
58.2869 0 1
58.4028 0 1
58.5187 0 1
58.6347 0 1
58.7508 0 1
58.8669 0 1
58.983 3787 61.5386
59.0992 3669 60.5723
59.2155 3610 60.0833
59.3318 3502 59.1777
59.4482 3489 59.0678
59.5646 3568 59.7327
59.681 3618 60.1498
59.7975 3514 59.279
59.9141 3708 60.8933
60.0306 3686 60.7124
60.1473 3698 60.8112
60.2639 3915 62.57
60.3807 3795 61.6036
60.4974 3820 61.8061
60.6142 3768 61.384
60.731 3691 60.7536
60.8479 3780 61.4817
60.9648 3704 60.8605
61.0818 3679 60.6548
61.1987 3701 60.8358
61.3158 3665 60.5392
61.4328 3600 60
61.5499 3631 60.2578
61.667 3694 60.7783
61.7841 3608 60.0666
61.9013 3678 60.6465
62.0185 3574 59.7829
62.1357 3556 59.6322
62.253 3580 59.8331
62.3702 3522 59.3464
62.4875 3509 59.2368
62.6049 3248 56.9912
62.7222 3193 56.5066
62.8396 3294 57.3934
62.9569 3222 56.7627
63.0743 3172 56.3205
63.1918 2993 54.7083
63.3092 3016 54.9181
63.4267 3231 56.8419
63.5441 3312 57.55
63.6616 3412 58.4123
63.7791 3389 58.2151
63.8966 3410 58.3952
64.0142 3371 58.0603
64.1317 3343 57.8187
64.2492 3425 58.5235
64.3668 3358 57.9483
64.4843 3342 57.81
64.6019 3272 57.2014
64.7195 3358 57.9483
64.837 3366 58.0172
64.9546 3293 57.3847
65.0722 3271 57.1927
65.1898 3306 57.4978
65.3074 3342 57.81
65.4249 3247 56.9825
65.5425 3198 56.5509
65.6601 3168 56.285
65.7777 3395 58.2666
65.8952 3248 56.9912
66.0128 3190 56.4801
66.1304 3114 55.8032
66.2479 3035 55.0908
66.3655 2871 53.5817
66.483 2945 54.2679
66.6005 2891 53.768
66.718 2827 53.1695
66.8355 2983 54.6168
66.953 3060 55.3173
67.0705 3115 55.8122
67.1879 3171 56.3116
67.3054 3330 57.7062
67.4228 3192 56.4978
67.5402 3248 56.9912
67.6576 3297 57.4195
67.7749 3236 56.8859
67.8923 3205 56.6127
68.0096 3297 57.4195
68.1269 3064 55.3534
68.2442 3240 56.921
68.3614 3149 56.116
68.4787 3246 56.9737
68.5958 3182 56.4092
68.713 3302 57.463
68.8302 3239 56.9122
68.9473 3161 56.2228
69.0643 3233 56.8595
69.1814 3258 57.0789
69.2984 3301 57.4543
69.4154 3312 57.55
69.5323 3278 57.2538
69.6492 3325 57.6628
69.7661 3424 58.515
69.8829 3208 56.6392
69.9997 3242 56.9386
70.1165 3190 56.4801
70.2332 3071 55.4166
70.3499 2964 54.4426
70.4665 2941 54.231
70.5831 3046 55.1906
70.6996 3209 56.648
70.8161 3332 57.7235
70.9326 3374 58.0861
71.049 3319 57.6108
71.1653 3340 57.7927
71.2817 3100 55.6776
71.3979 3163 56.2406
71.5141 3077 55.4707
71.6303 3103 55.7046
71.7464 2815 53.0566
71.8624 0 1
71.9784 0 1
72.0944 0 1
72.2102 0 1
72.3261 0 1
72.4418 0 1
72.5575 0 1
72.6732 0 1
75.1054 0 1
75.2209 0 1
75.3365 0 1
75.4521 0 1
75.5678 0 1
75.6835 0 1
75.7993 0 1
75.9151 0 1
76.031 0 1
76.147 3012 54.8817
76.263 3085 55.5428
76.3791 3117 55.8301
76.4952 3146 56.0892
76.6113 3105 55.7225
76.7276 3149 56.116
76.8438 3112 55.7853
76.9601 3157 56.1872
77.0765 3192 56.4978
77.1929 3188 56.4624
77.3093 3213 56.6833
77.4258 3194 56.5155
77.5423 3111 55.7763
77.6589 3092 55.6058
77.7755 3076 55.4617
77.8921 3083 55.5248
78.0088 3132 55.9643
78.1256 2977 54.5619
78.2423 3000 54.7723
78.3591 3011 54.8726
78.4759 3036 55.0999
78.5928 2991 54.69
78.7097 2945 54.2679
78.8266 3177 56.3649
78.9436 2825 53.1507
79.0606 2713 52.0865
79.1776 2371 48.6929
79.2946 2398 48.9694
79.4117 2504 50.04
79.5288 2750 52.4404
79.6459 2848 53.3667
79.7631 2904 53.8888
79.8802 2818 53.0848
79.9974 2818 53.0848
80.1147 2875 53.619
80.2319 2811 53.0189
80.3491 2705 52.0096
80.4664 2729 52.2398
80.5837 2704 52
80.701 2757 52.5071
80.8183 2643 51.4101
80.9357 2537 50.3686
81.053 2711 52.0673
81.1704 2692 51.8845
81.2877 2723 52.1824
81.4051 2612 51.1077
81.5225 2717 52.1249
81.6399 2575 50.7445
81.7573 2724 52.192
81.8747 2586 50.8527
81.9922 2585 50.8429
82.1096 2525 50.2494
82.227 2486 49.8598
82.3444 2518 50.1797
82.4619 2548 50.4777
82.5793 2424 49.2341
82.6967 2559 50.5866
82.8142 2183 46.7226
82.9316 1880 43.359
83.049 1978 44.4747
83.1664 2221 47.1275
83.2838 2360 48.5798
83.4012 2384 48.8262
83.5186 2354 48.518
83.636 2290 47.8539
83.7534 2281 47.7598
83.8708 2233 47.2546
83.9881 2266 47.6025
84.1055 2198 46.8828
84.2228 2245 47.3814
84.3401 2219 47.1063
84.4575 2198 46.8828
84.5747 2195 46.8508
84.692 2274 47.6865
84.8093 2251 47.4447
84.9265 2267 47.613
85.0437 2226 47.1805
85.1609 2225 47.1699
85.2781 2152 46.3897
85.3952 2189 46.7868
85.5123 2136 46.2169
85.6294 2091 45.7275
85.7465 2166 46.5403
85.8636 2220 47.1169
85.9806 2132 46.1736
86.0976 2185 46.744
86.2145 2148 46.3465
86.3315 2003 44.7549
86.4484 2012 44.8553
86.5652 1873 43.2782
86.682 1960 44.2719
86.7988 2186 46.7547
86.9156 2189 46.7868
87.0323 2180 46.6905
87.149 2165 46.5296
87.2657 2078 45.5851
87.3823 2112 45.9565
87.4988 2170 46.5833
87.6154 2114 45.9783
87.7318 2104 45.8694
87.8483 2106 45.8912
87.9647 2048 45.2548
88.081 2070 45.4973
88.1973 2086 45.6727
88.3136 2205 46.9574
88.4298 2088 45.6946
88.546 2128 46.1303
88.6621 2110 45.9347
88.7781 2037 45.1331
88.8942 0 1
89.0101 0 1
89.126 0 1
89.2419 0 1
89.3577 0 1
89.4734 0 1
89.5891 0 1
89.7047 0 1
89.8203 0 1
89.9358 0 1
92.3269 0 1
92.4424 0 1
92.558 0 1
92.6736 0 1
92.7893 0 1
92.905 0 1
93.0208 0 1
93.1366 0 1
93.2525 0 1
93.3685 0 1
93.4845 0 1
93.6005 2076 45.5631
93.7167 2151 46.3789
93.8328 2113 45.9674
93.949 2188 46.7761
94.0653 2052 45.299
94.1816 2091 45.7275
94.2979 2051 45.288
94.4143 2150 46.3681
94.5307 2202 46.9255
94.6472 2133 46.1844
94.7637 2119 46.0326
94.8803 2188 46.7761
94.9969 2272 47.6655
95.1135 2173 46.6154
95.2302 2295 47.9062
95.3469 2324 48.2079
95.4637 2166 46.5403
95.5805 2182 46.7119
95.6973 1980 44.4972
95.8142 1983 44.5309
95.9311 2226 47.1805
96.048 2411 49.1019
96.1649 2469 49.689
96.2819 2362 48.6004
96.3989 2427 49.2646
96.516 2397 48.9592
96.633 2413 49.1223
96.7501 2406 49.051
96.8673 2431 49.3052
96.9844 2291 47.8644
97.1016 2316 48.1248
97.2188 2289 47.8435
97.336 2327 48.239
97.4532 2340 48.3735
97.5704 2332 48.2908
97.6877 2359 48.5695
97.805 2289 47.8435
97.9223 2260 47.5395
98.0396 2312 48.0833
98.1569 2318 48.1456
98.2743 2285 47.8017
98.3916 2273 47.676
98.509 2315 48.1144
98.6264 2150 46.3681
98.7438 2183 46.7226
98.8612 2383 48.816
98.9786 2248 47.4131
99.096 2155 46.422
99.2134 2112 45.9565
99.3308 2098 45.8039
99.4482 2038 45.1442
99.5656 2222 47.1381
99.6831 2198 46.8828
99.8005 2291 47.8644
99.9179 2185 46.744
100.035 2302 47.9792
100.153 2205 46.9574
100.27 2115 45.9891
100.388 2191 46.8081
100.505 2233 47.2546
100.622 2248 47.4131
100.74 2201 46.9148
100.857 2205 46.9574
100.975 2220 47.1169
101.092 2150 46.3681
101.209 2285 47.8017
101.327 2250 47.4342
101.444 2209 47
101.561 2325 48.2183
101.679 2332 48.2908
101.796 2308 48.0416
101.913 2345 48.4252
102.03 2348 48.4562
102.148 2334 48.3115
102.265 2444 49.4368
102.382 2295 47.9062
102.499 2306 48.0208
102.616 2318 48.1456
102.733 2131 46.1628
102.851 2102 45.8476
102.968 2089 45.7056
103.085 2295 47.9062
103.202 2267 47.613
103.319 2218 47.0956
103.436 2249 47.4236
103.552 2273 47.676
103.669 2274 47.6865
103.786 2202 46.9255
103.903 2118 46.0217
104.02 2082 45.6289
104.137 2083 45.6399
104.253 2121 46.0543
104.37 2122 46.0652
104.487 2101 45.8367
104.603 2063 45.4203
104.72 2105 45.8803
104.836 2086 45.6727
104.953 2066 45.4533
105.069 1986 44.5646
105.186 1947 44.1248
105.302 1940 44.0454
105.418 1965 44.3283
105.535 1902 43.6119
105.651 1950 44.1588
105.767 1793 42.3438
105.883 1892 43.4971
105.999 1869 43.2319
106.115 0 1
106.231 0 1
106.347 0 1
106.463 0 1
106.579 0 1
106.694 0 1
106.81 0 1
106.926 0 1
107.041 0 1
107.157 0 1
109.576 0 1
109.692 0 1
109.807 0 1
109.923 0 1
110.039 0 1
110.155 0 1
110.27 0 1
110.386 0 1
110.502 0 1
110.618 1137 33.7194
110.735 1170 34.2053
110.851 1102 33.1964
110.967 1128 33.5857
111.083 1146 33.8526
111.199 1175 34.2783
111.316 1187 34.4529
111.432 1221 34.9428
111.549 1055 32.4808
111.665 993 31.5119
111.782 1070 32.7109
111.898 1103 33.2114
112.015 1093 33.0606
112.132 1078 32.8329
112.248 1073 32.7567
112.365 1052 32.4345
112.482 1077 32.8177
112.599 977 31.257
112.716 1030 32.0936
112.832 1060 32.5576
112.949 1027 32.0468
113.066 1072 32.7414
113.183 1075 32.7872
113.3 1005 31.7017
113.417 1079 32.8481
113.534 1045 32.3265
113.652 1053 32.45
113.769 1054 32.4654
113.886 1061 32.573
114.003 1085 32.9393
114.12 1007 31.7333
114.238 1133 33.6601
114.355 1074 32.7719
114.472 976 31.241
114.589 839 28.9655
114.707 896 29.9333
114.824 1006 31.7175
114.942 1126 33.5559
115.059 1177 34.3074
115.176 1131 33.6303
115.294 1092 33.0454
115.411 1145 33.8378
115.529 1137 33.7194
115.646 1202 34.6699
115.764 1196 34.5832
115.881 1166 34.1467
115.999 1172 34.2345
116.116 1178 34.322
116.234 1161 34.0735
116.351 1255 35.426
116.469 1166 34.1467
116.586 1230 35.0714
116.704 1235 35.1426
116.821 1256 35.4401
116.939 1294 35.9722
117.056 1236 35.1568
117.174 1226 35.0143
117.291 1326 36.4143
117.409 1420 37.6829
117.526 1322 36.3593
117.644 1500 38.7298
117.761 1335 36.5377
117.879 1411 37.5633
117.996 1316 36.2767
118.114 1238 35.1852
118.231 1100 33.1662
118.349 1083 32.909
118.466 1298 36.0278
118.584 1404 37.47
118.701 1513 38.8973
118.819 1522 39.0128
118.936 1539 39.2301
119.053 1550 39.37
119.171 1539 39.2301
119.288 1519 38.9744
119.405 1624 40.2989
119.523 1549 39.3573
119.64 1595 39.9375
119.757 1610 40.1248
119.875 1617 40.2119
119.992 1546 39.3192
120.109 1556 39.4462
120.226 1603 40.0375
120.343 1619 40.2368
120.46 1682 41.0122
120.578 1563 39.5348
120.695 1634 40.4228
120.812 1637 40.4599
120.929 1649 40.6079
121.046 1685 41.0488
121.163 1788 42.2847
121.279 1756 41.9047
121.396 1730 41.5933
121.513 1733 41.6293
121.63 1729 41.5812
121.747 1594 39.9249
121.863 1450 38.0789
121.98 1431 37.8286
122.097 1383 37.1887
122.213 1497 38.6911
122.33 1778 42.1663
122.446 1903 43.6234
122.563 1923 43.852
122.679 1934 43.9773
122.795 1867 43.2088
122.912 1890 43.4741
123.028 1953 44.1928
123.144 1848 42.9884
123.26 1937 44.0114
123.377 0 1
123.493 0 1
123.609 0 1
123.725 0 1
123.84 0 1
123.956 0 1
124.072 0 1
124.188 0 1
124.303 0 1
124.419 0 1
126.852 0 1
126.968 0 1
127.083 0 1
127.199 0 1
127.315 0 1
127.431 0 1
127.547 0 1
127.663 0 1
127.779 0 1
127.895 0 1
128.011 0 1
128.127 0 1
128.243 0 1
128.359 2535 50.3488
128.476 2504 50.04
128.592 2574 50.7346
128.708 2476 49.7594
128.825 2519 50.1896
128.941 2527 50.2693
129.058 2380 48.7852
129.174 2527 50.2693
129.291 2513 50.1298
129.408 2482 49.8197
129.524 2541 50.4083
129.641 2524 50.2394
129.758 2572 50.7149
129.875 2712 52.0769
129.992 2581 50.8035
130.108 2652 51.4976
130.225 2625 51.2348
130.342 2669 51.6624
130.459 2446 49.4571
130.576 2523 50.2295
130.693 2220 47.1169
130.81 2105 45.8803
130.928 2084 45.6508
131.045 2134 46.1952
131.162 2273 47.676
131.279 2492 49.9199
131.396 2645 51.4296
131.513 2677 51.7397
131.631 2736 52.3068
131.748 2745 52.3927
131.865 2590 50.892
131.983 2704 52
132.1 2741 52.3546
132.217 2668 51.6527
132.335 2661 51.5849
132.452 2678 51.7494
132.57 2658 51.5558
132.687 2742 52.3641
132.804 2722 52.1728
132.922 2675 51.7204
133.039 2632 51.303
133.157 2744 52.3832
133.274 2665 51.6236
133.392 2727 52.2207
133.509 2758 52.5167
133.627 2771 52.6403
133.744 2709 52.0481
133.862 2757 52.5071
133.979 2610 51.0882
134.097 2543 50.4282
134.214 2423 49.224
134.332 2235 47.2758
134.449 2198 46.8828
134.567 2292 47.8748
134.684 2417 49.163
134.802 2570 50.6952
134.919 2587 50.8626
135.037 2794 52.8583
135.154 2875 53.619
135.272 2898 53.8331
135.389 2789 52.811
135.507 2898 53.8331
135.624 2883 53.6936
135.742 2943 54.2494
135.859 2870 53.5724
135.977 2872 53.591
136.094 2899 53.8424
136.211 2913 53.9722
136.329 2950 54.3139
136.446 2830 53.1977
136.564 2879 53.6563
136.681 2868 53.5537
136.798 2898 53.8331
136.915 2931 54.1387
137.033 2917 54.0093
137.15 3004 54.8088
137.267 2971 54.5069
137.384 2934 54.1664
137.502 2818 53.0848
137.619 2745 52.3927
137.736 2680 51.7687
137.853 2416 49.1528
137.97 2446 49.4571
138.087 2488 49.8799
138.204 2408 49.0714
138.321 2678 51.7494
138.438 2639 51.3712
138.555 2909 53.9351
138.672 2946 54.2771
138.788 2982 54.6077
138.905 3058 55.2992
139.022 3091 55.5968
139.139 3023 54.9818
139.255 3038 55.1181
139.372 3183 56.4181
139.488 3040 55.1362
139.605 3073 55.4346
139.721 3120 55.857
139.838 3036 55.0999
139.954 3098 55.6597
140.071 3039 55.1271
140.187 3071 55.4166
140.303 2977 54.5619
140.419 2924 54.074
140.535 2995 54.7266
140.652 3039 55.1271
140.768 0 1
140.884 0 1
141 0 1
141.115 0 1
141.231 0 1
141.347 0 1
141.463 0 1
141.578 0 1
141.694 0 1
144.104 0 1
144.219 0 1
144.335 0 1
144.45 0 1
144.566 0 1
144.682 0 1
144.798 0 1
144.914 0 1
145.03 0 1
145.146 2856 53.4416
145.262 2787 52.792
145.378 2790 52.8205
145.494 2766 52.5928
145.61 2808 52.9906
145.726 2907 53.9166
145.842 2842 53.3104
145.959 2773 52.6593
146.075 2761 52.5452
146.192 2643 51.4101
146.308 2557 50.5668
146.425 2417 49.163
146.541 2358 48.5592
146.658 2255 47.4868
146.774 2383 48.816
146.891 2398 48.9694
147.008 2571 50.705
147.125 2615 51.1371
147.241 2730 52.2494
147.358 2652 51.4976
147.475 2606 51.049
147.592 2703 51.9904
147.709 2713 52.0865
147.826 2822 53.1225
147.943 2865 53.5257
148.06 2743 52.3737
148.177 2675 51.7204
148.294 2646 51.4393
148.411 2722 52.1728
148.528 2693 51.8941
148.645 2754 52.4786
148.762 2585 50.8429
148.88 2721 52.1632
148.997 2589 50.8822
149.114 2786 52.7826
149.231 2721 52.1632
149.349 2558 50.5767
149.466 2691 51.8748
149.583 2532 50.319
149.701 2478 49.7795
149.818 2485 49.8498
149.935 2305 48.0104
150.053 2343 48.4045
150.17 2274 47.6865
150.287 2234 47.2652
150.405 2336 48.3322
150.522 2460 49.5984
150.64 2449 49.4874
150.757 2562 50.6162
150.875 2488 49.8799
150.992 2553 50.5272
151.11 2499 49.99
151.227 2525 50.2494
151.344 2651 51.4879
151.462 2733 52.2781
151.579 2743 52.3737
151.697 2741 52.3546
151.814 2710 52.0577
151.932 2836 53.2541
152.049 2715 52.1057
152.167 2739 52.3355
152.284 2756 52.4976
152.402 2705 52.0096
152.519 2703 51.9904
152.636 2641 51.3907
152.754 2724 52.192
152.871 2672 51.6914
152.989 2640 51.3809
153.106 2643 51.4101
153.223 2656 51.5364
153.341 2611 51.0979
153.458 2529 50.2892
153.575 2352 48.4974
153.693 2311 48.0729
153.81 2316 48.1248
153.927 2296 47.9166
154.044 2369 48.6724
154.162 2564 50.636
154.279 2546 50.4579
154.396 2631 51.2933
154.513 2731 52.259
154.63 2686 51.8266
154.747 2748 52.4214
154.864 2721 52.1632
154.981 2740 52.345
155.098 2715 52.1057
155.215 2832 53.2165
155.332 2830 53.1977
155.449 2862 53.4977
155.566 2733 52.2781
155.683 2784 52.7636
155.8 2822 53.1225
155.917 2817 53.0754
156.033 2805 52.9623
156.15 0 1
156.267 0 1
156.383 0 1
156.5 0 1
156.617 0 1
156.733 0 1
156.85 0 1
156.966 0 1
157.082 0 1
157.199 0 1
157.315 0 1
157.431 0 1
157.547 0 1
157.664 0 1
157.78 0 1
157.896 0 1
158.012 0 1
158.128 0 1
158.244 0 1
158.359 0 1
158.475 0 1
158.591 0 1
158.706 0 1
