
6.15755 0 1
6.2731 0 1
6.3887 0 1
6.50437 0 1
6.62009 0 1
6.73587 0 1
6.8517 0 1
6.96759 0 1
7.08353 0 1
7.19952 0 1
7.31557 0 1
7.43166 0 1
7.54781 0 1
7.664 0 1
7.78024 0 1
7.89653 0 1
8.01286 0 1
8.12924 0 1
8.24567 0 1
8.36213 0 1
8.47864 0 1
8.59519 0 1
8.71178 0 1
8.82841 0 1
8.94508 0 1
9.06179 0 1
9.17853 0 1
9.29531 0 1
9.41212 0 1
9.52897 0 1
9.64584 0 1
9.76276 0 1
9.8797 0 1
9.99667 0 1
10.1137 0 1
10.2307 0 1
10.3478 0 1
10.4648 0 1
10.5819 0 1
10.6991 0 1
10.8162 0 1
10.9334 0 1
11.0506 0 1
11.1678 0 1
11.285 0 1
11.4023 0 1
11.5196 0 1
11.6369 0 1
11.7542 0 1
11.8715 0 1
11.9888 0 1
12.1062 0 1
12.2235 0 1
12.3409 0 1
12.4582 0 1
12.5756 0 1
12.693 0 1
12.8104 0 1
12.9278 0 1
13.0452 0 1
13.1626 0 1
13.28 0 1
13.3974 0 1
13.5149 0 1
13.6323 0 1
13.7497 0 1
13.8671 0 1
13.9845 0 1
14.1019 0 1
14.2193 0 1
14.3367 0 1
14.4541 0 1
14.5714 0 1
14.6888 0 1
14.8062 0 1
14.9235 0 1
15.0408 0 0
15.1581 0 0
15.2755 0 0
15.3927 0 0
15.51 0 0
15.6273 0 0
15.7445 0 0
15.8617 0 0
15.9789 0 0
16.0961 0 0
16.2132 0 0
16.3304 0 0
16.4475 0 0
16.5646 0 0
16.6816 0 0
16.7986 0 0
16.9156 0 0
17.0326 0 0
17.1496 0 0
17.2665 0 0
17.3833 0 0
17.5002 0 0
17.617 0 0
17.7338 0 0
17.8505 0 0
17.9672 0 0
18.0839 0 0
18.2005 0 0
18.3171 0 0
18.4337 0 0
18.5502 0 0
18.6666 0 0
18.7831 0 0
18.8994 0 0
19.0158 0 0
19.1321 0 0
19.2483 0 0
19.3645 0 0
19.4806 0 0
19.5967 0 0
19.7128 0 0
19.8288 0 0
19.9447 0 0
20.0606 0 1
20.1764 0 1
20.2922 0 1
20.4079 0 1
20.5236 0 1
20.6392 0 1
20.7548 0 1
20.8702 0 1
23.3078 0 1
23.4233 0 1
23.539 0 1
23.6547 0 1
23.7704 0 1
23.8862 0 1
24.0021 0 1
24.118 0 1
24.234 0 1
24.35 0 1
24.4661 1276 35.7211
24.5822 1224 34.9857
24.6984 1272 35.6651
24.8146 1199 34.6266
24.9309 1188 34.4674
25.0472 1216 34.8712
25.1636 1175 34.2783
25.28 1140 33.7639
25.3965 1216 34.8712
25.513 1249 35.3412
25.6296 1322 36.3593
25.7462 1384 37.2022
25.8628 1374 37.0675
25.9795 1428 37.7889
26.0962 1443 37.9868
26.213 1451 38.092
26.3298 1402 37.4433
26.4466 1477 38.4318
26.5635 1321 36.3456
26.6804 1213 34.8281
26.7973 1277 35.7351
26.9143 1281 35.7911
27.0313 1343 36.647
27.1483 1398 37.3898
27.2653 1515 38.923
27.3824 1481 38.4838
27.4996 1415 37.6165
27.6167 1437 37.9078
27.7339 1436 37.8946
27.8511 1319 36.318
27.9683 1377 37.108
28.0855 1356 36.8239
28.2028 1314 36.2491
28.3201 1210 34.7851
28.4374 1204 34.6987
28.5547 1158 34.0294
28.6721 1147 33.8674
28.7894 1091 33.0303
28.9068 1151 33.9264
29.0242 1205 34.7131
29.1416 1132 33.6452
29.259 1237 35.171
29.3764 1207 34.7419
29.4939 1327 36.428
29.6113 1229 35.0571
29.7288 1308 36.1663
29.8463 1334 36.524
29.9638 1249 35.3412
30.0812 1230 35.0714
30.1987 1157 34.0147
30.3162 1184 34.4093
30.4337 1222 34.9571
30.5512 1268 35.609
30.6687 1352 36.7696
30.7862 1329 36.4555
30.9037 1345 36.6742
31.0212 1390 37.2827
31.1387 1340 36.606
31.2562 1374 37.0675
31.3737 1404 37.47
31.4912 1311 36.2077
31.6087 1293 35.9583
31.7262 1233 35.1141
31.8436 1205 34.7131
31.9611 1145 33.8378
32.0785 1118 33.4365
32.1959 1117 33.4215
32.3134 1157 34.0147
32.4308 1116 33.4066
32.5482 1136 33.7046
32.6655 1203 34.6843
32.7829 1266 35.5809
32.9002 1225 35
33.0176 1262 35.5246
33.1349 1242 35.242
33.2522 1281 35.7911
33.3694 1276 35.7211
33.4867 1248 35.327
33.6039 1245 35.2846
33.7211 1215 34.8569
33.8383 1215 34.8569
33.9554 1187 34.4529
34.0725 1221 34.9428
34.1896 1210 34.7851
34.3067 1328 36.4417
34.4237 1267 35.5949
34.5407 1256 35.4401
34.6577 1393 37.3229
34.7746 1309 36.1801
34.8915 1381 37.1618
35.0084 1357 36.8375
35.1252 1283 35.819
35.242 1269 35.623
35.3587 1157 34.0147
35.4755 1190 34.4964
35.5921 1121 33.4813
35.7088 1143 33.8083
35.8254 1045 32.3265
35.9419 1064 32.619
36.0584 1054 32.4654
36.1749 1060 32.5576
36.2913 1120 33.4664
36.4077 1072 32.7414
36.524 1193 34.5398
36.6403 1223 34.9714
36.7565 1223 34.9714
36.8727 1245 35.2846
36.9889 1245 35.2846
37.1049 1276 35.7211
37.221 0 1
37.3369 0 1
37.4529 0 1
37.5687 0 1
37.6845 0 1
37.8003 0 1
37.916 0 1
38.0316 0 1
38.1472 0 1
40.5851 0 1
40.7008 0 1
40.8164 0 1
40.9322 0 1
41.048 0 1
41.1639 0 1
41.2798 0 1
41.3958 0 1
41.5118 0 1
41.6279 0 1
41.744 885 29.7489
41.8602 993 31.5119
41.9765 974 31.209
42.0928 1030 32.0936
42.2091 1065 32.6343
42.3255 1025 32.0156
42.4419 1033 32.1403
42.5584 929 30.4795
42.675 837 28.931
42.7915 850 29.1548
42.9081 950 30.8221
43.0248 943 30.7083
43.1415 899 29.9833
43.2582 971 31.1609
43.375 995 31.5436
43.4918 1113 33.3617
43.6087 1014 31.8434
43.7256 984 31.3688
43.8425 971 31.1609
43.9595 944 30.7246
44.0765 895 29.9166
44.1935 926 30.4302
44.3106 871 29.5127
44.4277 801 28.3019
44.5448 746 27.313
44.6619 730 27.0185
44.7791 697 26.4008
44.8963 733 27.074
45.0136 762 27.6043
45.1308 694 26.3439
45.2481 665 25.7876
45.3654 760 27.5681
45.4827 755 27.4773
45.6001 760 27.5681
45.7174 798 28.2489
45.8348 734 27.0924
45.9522 819 28.6182
46.0697 677 26.0192
46.1871 670 25.8844
46.3046 658 25.6515
46.422 596 24.4131
46.5395 703 26.5141
46.657 689 26.2488
46.7745 675 25.9808
46.892 760 27.5681
47.0096 739 27.1846
47.1271 793 28.1603
47.2446 689 26.2488
47.3622 706 26.5707
47.4797 695 26.3629
47.5973 758 27.5318
47.7149 658 25.6515
47.8324 677 26.0192
47.95 651 25.5147
48.0675 527 22.9565
48.1851 581 24.1039
48.3027 496 22.2711
48.4202 469 21.6564
48.5378 508 22.5389
48.6554 522 22.8473
48.7729 562 23.7065
48.8904 548 23.4094
49.008 626 25.02
49.1255 579 24.0624
49.243 626 25.02
49.3605 607 24.6374
49.478 597 24.4336
49.5955 549 23.4307
49.713 515 22.6936
49.8304 526 22.9347
49.9479 482 21.9545
50.0653 517 22.7376
50.1827 549 23.4307
50.3001 666 25.807
50.4175 671 25.9037
50.5348 674 25.9615
50.6521 706 26.5707
50.7694 669 25.865
50.8867 768 27.7128
51.004 741 27.2213
51.1212 743 27.258
51.2384 784 28
51.3556 771 27.7669
51.4727 730 27.0185
51.5899 723 26.8887
51.707 625 25
51.824 695 26.3629
51.9411 705 26.5518
52.0581 694 26.3439
52.175 778 27.8927
52.2919 844 29.0517
52.4088 813 28.5132
52.5257 887 29.7825
52.6425 942 30.692
52.7593 922 30.3645
52.876 977 31.257
52.9927 979 31.289
53.1094 905 30.0832
53.226 877 29.6142
53.3426 852 29.189
53.4591 828 28.775
53.5756 862 29.3598
53.692 923 30.3809
53.8084 974 31.209
53.9248 1024 32
54.0411 1057 32.5115
54.1573 1137 33.7194
54.2735 0 1
54.3896 0 1
54.5057 0 1
54.6217 0 1
54.7377 0 1
54.8537 0 1
54.9695 0 1
55.0853 0 1
55.2011 0 1
55.3168 0 1
55.4324 0 1
57.824 0 1
57.9396 0 1
58.0553 0 1
58.1711 0 1
58.2869 0 1
58.4028 0 1
58.5187 0 1
58.6347 0 1
58.7508 0 1
58.8669 0 1
58.983 1111 33.3317
59.0992 1156 34
59.2155 1305 36.1248
59.3318 1320 36.3318
59.4482 1222 34.9571
59.5646 1286 35.8608
59.681 1346 36.6879
59.7975 1312 36.2215
59.9141 1298 36.0278
60.0306 1242 35.242
60.1473 1118 33.4365
60.2639 1069 32.6956
60.3807 1045 32.3265
60.4974 1005 31.7017
60.6142 1017 31.8904
60.731 989 31.4484
60.8479 1043 32.2955
60.9648 1079 32.8481
61.0818 1063 32.6037
61.1987 1140 33.7639
61.3158 1117 33.4215
61.4328 1100 33.1662
61.5499 1094 33.0757
61.667 1046 32.3419
61.7841 1010 31.7805
61.9013 1015 31.8591
62.0185 956 30.9192
62.1357 1012 31.8119
62.253 1014 31.8434
62.3702 1124 33.5261
62.4875 1203 34.6843
62.6049 1264 35.5528
62.7222 1333 36.5103
62.8396 1305 36.1248
62.9569 1281 35.7911
63.0743 1320 36.3318
63.1918 1330 36.4692
63.3092 1263 35.5387
63.4267 1314 36.2491
63.5441 1238 35.1852
63.6616 1207 34.7419
63.7791 1129 33.6006
63.8966 1062 32.5883
64.0142 1067 32.665
64.1317 1000 31.6228
64.2492 1045 32.3265
64.3668 1121 33.4813
64.4843 1098 33.1361
64.6019 1138 33.7343
64.7195 1188 34.4674
64.837 1162 34.0881
64.9546 1173 34.2491
65.0722 1158 34.0294
65.1898 1162 34.0881
65.3074 1020 31.9374
65.4249 928 30.4631
65.5425 912 30.1993
65.6601 959 30.9677
65.7777 992 31.496
65.8952 1084 32.9242
66.0128 1168 34.176
66.1304 1209 34.7707
66.2479 1237 35.171
66.3655 1256 35.4401
66.483 1271 35.6511
66.6005 1303 36.0971
66.718 1307 36.1525
66.8355 1235 35.1426
66.953 1244 35.2704
67.0705 1177 34.3074
67.1879 1134 33.6749
67.3054 1073 32.7567
67.4228 967 31.0966
67.5402 979 31.289
67.6576 882 29.6985
67.7749 889 29.8161
67.8923 970 31.1448
68.0096 942 30.692
68.1269 1020 31.9374
68.2442 1063 32.6037
68.3614 1095 33.0908
68.4787 1060 32.5576
68.5958 1034 32.1559
68.713 1074 32.7719
68.8302 944 30.7246
68.9473 953 30.8707
69.0643 871 29.5127
69.1814 857 29.2746
69.2984 887 29.7825
69.4154 981 31.3209
69.5323 1003 31.6702
69.6492 1148 33.8821
69.7661 1126 33.5559
69.8829 1162 34.0881
69.9997 1203 34.6843
70.1165 1212 34.8138
70.2332 1310 36.1939
70.3499 1267 35.5949
70.4665 1302 36.0832
70.5831 1211 34.7994
70.6996 1211 34.7994
70.8161 1153 33.9559
70.9326 1102 33.1964
71.049 953 30.8707
71.1653 955 30.9031
71.2817 892 29.8664
71.3979 830 28.8097
71.5141 832 28.8444
71.6303 867 29.4449
71.7464 850 29.1548
71.8624 0 1
71.9784 0 1
72.0944 0 1
72.2102 0 1
72.3261 0 1
72.4418 0 1
72.5575 0 1
72.6732 0 1
75.1054 0 1
75.2209 0 1
75.3365 0 1
75.4521 0 1
75.5678 0 1
75.6835 0 1
75.7993 0 1
75.9151 0 1
76.031 0 1
76.147 1030 32.0936
76.263 1152 33.9411
76.3791 1040 32.249
76.4952 977 31.257
76.6113 899 29.9833
76.7276 898 29.9666
76.8438 913 30.2159
76.9601 988 31.4325
77.0765 1018 31.9061
77.1929 1060 32.5576
77.3093 1122 33.4963
77.4258 1084 32.9242
77.5423 1129 33.6006
77.6589 1091 33.0303
77.7755 1038 32.218
77.8921 909 30.1496
78.0088 868 29.4618
78.1256 844 29.0517
78.2423 827 28.7576
78.3591 860 29.3258
78.4759 932 30.5287
78.5928 1007 31.7333
78.7097 1077 32.8177
78.8266 1052 32.4345
78.9436 1253 35.3977
79.0606 1151 33.9264
79.1776 1156 34
79.2946 1196 34.5832
79.4117 1184 34.4093
79.5288 1200 34.641
79.6459 1141 33.7787
79.7631 1138 33.7343
79.8802 1083 32.909
79.9974 986 31.4006
80.1147 940 30.6594
80.2319 864 29.3939
80.3491 823 28.688
80.4664 829 28.7924
80.5837 883 29.7153
80.701 929 30.4795
80.8183 973 31.1929
80.9357 1036 32.187
81.053 1014 31.8434
81.1704 1019 31.9218
81.2877 995 31.5436
81.4051 989 31.4484
81.5225 882 29.6985
81.6399 791 28.1247
81.7573 692 26.3059
81.8747 663 25.7488
81.9922 716 26.7582
82.1096 821 28.6531
82.227 921 30.348
82.3444 956 30.9192
82.4619 976 31.241
82.5793 1075 32.7872
82.6967 1054 32.4654
82.8142 1048 32.3728
82.9316 1135 33.6898
83.049 1031 32.1092
83.1664 998 31.5911
83.2838 1026 32.0312
83.4012 886 29.7658
83.5186 905 30.0832
83.636 907 30.1164
83.7534 808 28.4253
83.8708 711 26.6646
83.9881 712 26.6833
84.1055 723 26.8887
84.2228 781 27.9464
84.3401 821 28.6531
84.4575 915 30.249
84.5747 895 29.9166
84.692 922 30.3645
84.8093 897 29.95
84.9265 908 30.133
85.0437 815 28.5482
85.1609 763 27.6225
85.2781 682 26.1151
85.3952 681 26.096
85.5123 652 25.5343
85.6294 755 27.4773
85.7465 839 28.9655
85.8636 913 30.2159
85.9806 999 31.607
86.0976 1065 32.6343
86.2145 1077 32.8177
86.3315 1117 33.4215
86.4484 1077 32.8177
86.5652 1248 35.327
86.682 1180 34.3511
86.7988 1164 34.1174
86.9156 1155 33.9853
87.0323 1134 33.6749
87.149 1025 32.0156
87.2657 955 30.9031
87.3823 882 29.6985
87.4988 907 30.1164
87.6154 902 30.0333
87.7318 971 31.1609
87.8483 959 30.9677
87.9647 1005 31.7017
88.081 1144 33.8231
88.1973 1154 33.9706
88.3136 1193 34.5398
88.4298 1076 32.8024
88.546 965 31.0644
88.6621 896 29.9333
88.7781 903 30.05
88.8942 0 1
89.0101 0 1
89.126 0 1
89.2419 0 1
89.3577 0 1
89.4734 0 1
89.5891 0 1
89.7047 0 1
89.8203 0 1
89.9358 0 1
92.3269 0 1
92.4424 0 1
92.558 0 1
92.6736 0 1
92.7893 0 1
92.905 0 1
93.0208 0 1
93.1366 0 1
93.2525 0 1
93.3685 0 1
93.4845 0 1
93.6005 1073 32.7567
93.7167 1083 32.909
93.8328 1049 32.3883
93.949 1080 32.8634
94.0653 1052 32.4345
94.1816 949 30.8058
94.2979 885 29.7489
94.4143 862 29.3598
94.5307 858 29.2916
94.6472 858 29.2916
94.7637 993 31.5119
94.8803 1010 31.7805
94.9969 1110 33.3167
95.1135 1168 34.176
95.2302 1212 34.8138
95.3469 1231 35.0856
95.4637 1240 35.2136
95.5805 1229 35.0571
95.6973 1364 36.9324
95.8142 1295 35.9861
95.9311 1292 35.9444
96.048 1198 34.6121
96.1649 1168 34.176
96.2819 1179 34.3366
96.3989 1082 32.8938
96.516 1044 32.311
96.633 1007 31.7333
96.7501 962 31.0161
96.8673 1004 31.686
96.9844 1050 32.4037
97.1016 1072 32.7414
97.2188 1176 34.2929
97.336 1139 33.7491
97.4532 1179 34.3366
97.5704 1150 33.9116
97.6877 1093 33.0606
97.805 976 31.241
97.9223 864 29.3939
98.0396 841 29
98.1569 790 28.1069
98.2743 828 28.775
98.3916 879 29.6479
98.509 953 30.8707
98.6264 1084 32.9242
98.7438 1127 33.5708
98.8612 1185 34.4238
98.9786 1301 36.0694
99.096 1328 36.4417
99.2134 1339 36.5923
99.3308 1312 36.2215
99.4482 1297 36.0139
99.5656 1280 35.7771
99.6831 1228 35.0428
99.8005 1208 34.7563
99.9179 1114 33.3766
100.035 1094 33.0757
100.153 1007 31.7333
100.27 937 30.6105
100.388 1009 31.7648
100.505 1066 32.6497
100.622 1138 33.7343
100.74 1174 34.2637
100.857 1170 34.2053
100.975 1221 34.9428
101.092 1177 34.3074
101.209 1155 33.9853
101.327 1051 32.4191
101.444 951 30.8383
101.561 867 29.4449
101.679 850 29.1548
101.796 821 28.6531
101.913 909 30.1496
102.03 1014 31.8434
102.148 1142 33.7935
102.265 1185 34.4238
102.382 1327 36.428
102.499 1353 36.7831
102.616 1373 37.054
102.733 1426 37.7624
102.851 1358 36.8511
102.968 1336 36.5513
103.085 1435 37.8814
103.202 1336 36.5513
103.319 1305 36.1248
103.436 1289 35.9026
103.552 1161 34.0735
103.669 1145 33.8378
103.786 1081 32.8786
103.903 1099 33.1512
104.02 1058 32.5269
104.137 1131 33.6303
104.253 1241 35.2278
104.37 1250 35.3553
104.487 1297 36.0139
104.603 1283 35.819
104.72 1202 34.6699
104.836 1128 33.5857
104.953 1048 32.3728
105.069 953 30.8707
105.186 943 30.7083
105.302 950 30.8221
105.418 1090 33.0151
105.535 1134 33.6749
105.651 1283 35.819
105.767 1386 37.229
105.883 1429 37.8021
105.999 1465 38.2753
106.115 0 1
106.231 0 1
106.347 0 1
106.463 0 1
106.579 0 1
106.694 0 1
106.81 0 1
106.926 0 1
107.041 0 1
107.157 0 1
109.576 0 1
109.692 0 1
109.807 0 1
109.923 0 1
110.039 0 1
110.155 0 1
110.27 0 1
110.386 0 1
110.502 0 1
110.618 1104 33.2265
110.735 1274 35.6931
110.851 1324 36.3868
110.967 1387 37.2424
111.083 1391 37.2961
111.199 1415 37.6165
111.316 1489 38.5876
111.432 1461 38.223
111.549 1422 37.7094
111.665 1435 37.8814
111.782 1291 35.9305
111.898 1321 36.3456
112.015 1283 35.819
112.132 1112 33.3467
112.248 1237 35.171
112.365 1112 33.3467
112.482 1066 32.6497
112.599 1192 34.5254
112.716 1240 35.2136
112.832 1249 35.3412
112.949 1185 34.4238
113.066 1268 35.609
113.183 1220 34.9285
113.3 1108 33.2866
113.417 1023 31.9844
113.534 953 30.8707
113.652 893 29.8831
113.769 886 29.7658
113.886 906 30.0998
114.003 883 29.7153
114.12 1051 32.4191
114.238 1237 35.171
114.355 1341 36.6197
114.472 1261 35.5106
114.589 1381 37.1618
114.707 1384 37.2022
114.824 1399 37.4032
114.942 1347 36.7015
115.059 1426 37.7624
115.176 1361 36.8917
115.294 1372 37.0405
115.411 1320 36.3318
115.529 1225 35
115.646 1234 35.1283
115.764 1174 34.2637
115.881 1120 33.4664
115.999 1157 34.0147
116.116 1199 34.6266
116.234 1155 33.9853
116.351 1204 34.6987
116.469 1268 35.609
116.586 1310 36.1939
116.704 1257 35.4542
116.821 1215 34.8569
116.939 1098 33.1361
117.056 1051 32.4191
117.174 1022 31.9687
117.291 937 30.6105
117.409 935 30.5778
117.526 919 30.315
117.644 1104 33.2265
117.761 1177 34.3074
117.879 1284 35.8329
117.996 1368 36.9865
118.114 1426 37.7624
118.231 1376 37.0945
118.349 1452 38.1051
118.466 1471 38.3536
118.584 1486 38.5487
118.701 1477 38.4318
118.819 1387 37.2424
118.936 1401 37.4299
119.053 1346 36.6879
119.171 1318 36.3043
119.288 1324 36.3868
119.405 1216 34.8712
119.523 1199 34.6266
119.64 1207 34.7419
119.757 1194 34.5543
119.875 1257 35.4542
119.992 1221 34.9428
120.109 1280 35.7771
120.226 1299 36.0416
120.343 1279 35.7631
120.46 1255 35.426
120.578 1137 33.7194
120.695 1078 32.8329
120.812 1044 32.311
120.929 1026 32.0312
121.046 942 30.692
121.163 1027 32.0468
121.279 1080 32.8634
121.396 1161 34.0735
121.513 1323 36.3731
121.63 1347 36.7015
121.747 1325 36.4005
121.863 1422 37.7094
121.98 1419 37.6696
122.097 1441 37.9605
122.213 1408 37.5233
122.33 1375 37.081
122.446 1450 38.0789
122.563 1328 36.4417
122.679 1274 35.6931
122.795 1269 35.623
122.912 1297 36.0139
123.028 1185 34.4238
123.144 1212 34.8138
123.26 1122 33.4963
123.377 0 1
123.493 0 1
123.609 0 1
123.725 0 1
123.84 0 1
123.956 0 1
124.072 0 1
124.188 0 1
124.303 0 1
124.419 0 1
126.852 0 1
126.968 0 1
127.083 0 1
127.199 0 1
127.315 0 1
127.431 0 1
127.547 0 1
127.663 0 1
127.779 0 1
127.895 0 1
128.011 0 1
128.127 0 1
128.243 0 1
128.359 1298 36.0278
128.476 1284 35.8329
128.592 1297 36.0139
128.708 1326 36.4143
128.825 1308 36.1663
128.941 1354 36.7967
129.058 1345 36.6742
129.174 1380 37.1484
129.291 1403 37.4566
129.408 1345 36.6742
129.524 1280 35.7771
129.641 1195 34.5688
129.758 1191 34.5109
129.875 1079 32.8481
129.992 1118 33.4365
130.108 1107 33.2716
130.225 1089 33
130.342 1315 36.2629
130.459 1315 36.2629
130.576 1511 38.8716
130.693 1452 38.1051
130.81 1517 38.9487
130.928 1460 38.2099
131.045 1551 39.3827
131.162 1599 39.9875
131.279 1497 38.6911
131.396 1518 38.9615
131.513 1487 38.5616
131.631 1467 38.3014
131.748 1420 37.6829
131.865 1345 36.6742
131.983 1334 36.524
132.1 1371 37.027
132.217 1369 37
132.335 1435 37.8814
132.452 1363 36.9188
132.57 1428 37.7889
132.687 1375 37.081
132.804 1439 37.9342
132.922 1361 36.8917
133.039 1344 36.6606
133.157 1212 34.8138
133.274 1147 33.8674
133.392 1205 34.7131
133.509 1109 33.3017
133.627 1087 32.9697
133.744 1193 34.5398
133.862 1231 35.0856
133.979 1271 35.6511
134.097 1360 36.8782
134.214 1408 37.5233
134.332 1490 38.6005
134.449 1471 38.3536
134.567 1455 38.1445
134.684 1544 39.2938
134.802 1494 38.6523
134.919 1501 38.7427
135.037 1503 38.7685
135.154 1432 37.8418
135.272 1412 37.5766
135.389 1320 36.3318
135.507 1292 35.9444
135.624 1346 36.6879
135.742 1347 36.7015
135.859 1393 37.3229
135.977 1455 38.1445
136.094 1461 38.223
136.211 1411 37.5633
136.329 1374 37.0675
136.446 1365 36.9459
136.564 1355 36.8103
136.681 1354 36.7967
136.798 1209 34.7707
136.915 1174 34.2637
137.033 1141 33.7787
137.15 1050 32.4037
137.267 1094 33.0757
137.384 1143 33.8083
137.502 1251 35.3695
137.619 1344 36.6606
137.736 1362 36.9053
137.853 1403 37.4566
137.97 1473 38.3797
138.087 1334 36.524
138.204 1485 38.5357
138.321 1541 39.2556
138.438 1501 38.7427
138.555 1474 38.3927
138.672 1547 39.3319
138.788 1495 38.6652
138.905 1455 38.1445
139.022 1396 37.3631
139.139 1396 37.3631
139.255 1465 38.2753
139.372 1452 38.1051
139.488 1401 37.4299
139.605 1426 37.7624
139.721 1440 37.9473
139.838 1383 37.1887
139.954 1363 36.9188
140.071 1415 37.6165
140.187 1324 36.3868
140.303 1294 35.9722
140.419 1251 35.3695
140.535 1162 34.0881
140.652 1057 32.5115
140.768 0 1
140.884 0 1
141 0 1
141.115 0 1
141.231 0 1
141.347 0 1
141.463 0 1
141.578 0 1
141.694 0 1
144.104 0 1
144.219 0 1
144.335 0 1
144.45 0 1
144.566 0 1
144.682 0 1
144.798 0 1
144.914 0 1
145.03 0 1
145.146 1035 32.1714
145.262 1025 32.0156
145.378 1039 32.2335
145.494 1051 32.4191
145.61 1000 31.6228
145.726 918 30.2985
145.842 914 30.2324
145.959 868 29.4618
146.075 889 29.8161
146.192 920 30.3315
146.308 935 30.5778
146.425 1028 32.0624
146.541 1047 32.3574
146.658 1032 32.1248
146.774 1145 33.8378
146.891 1139 33.7491
147.008 1176 34.2929
147.125 1165 34.1321
147.241 1203 34.6843
147.358 1238 35.1852
147.475 1249 35.3412
147.592 1180 34.3511
147.709 1125 33.541
147.826 1134 33.6749
147.943 1095 33.0908
148.06 1070 32.7109
148.177 1106 33.2566
148.294 1109 33.3017
148.411 1099 33.1512
148.528 1177 34.3074
148.645 1207 34.7419
148.762 1200 34.641
148.88 1094 33.0757
148.997 1110 33.3167
149.114 1217 34.8855
149.231 1079 32.8481
149.349 1054 32.4654
149.466 1013 31.8277
149.583 965 31.0644
149.701 943 30.7083
149.818 917 30.282
149.935 1006 31.7175
150.053 977 31.257
150.17 1045 32.3265
150.287 1029 32.078
150.405 1102 33.1964
150.522 1118 33.4365
150.64 1192 34.5254
150.757 1178 34.322
150.875 1206 34.7275
150.992 1202 34.6699
151.11 1223 34.9714
151.227 1258 35.4683
151.344 1227 35.0286
151.462 1196 34.5832
151.579 1192 34.5254
151.697 1217 34.8855
151.814 1180 34.3511
151.932 1141 33.7787
152.049 1196 34.5832
152.167 1150 33.9116
152.284 1202 34.6699
152.402 1129 33.6006
152.519 1138 33.7343
152.636 1182 34.3802
152.754 1165 34.1321
152.871 1150 33.9116
152.989 1097 33.121
153.106 1057 32.5115
153.223 1048 32.3728
153.341 989 31.4484
153.458 986 31.4006
153.575 980 31.305
153.693 1075 32.7872
153.81 1080 32.8634
153.927 1054 32.4654
154.044 1161 34.0735
154.162 1224 34.9857
154.279 1226 35.0143
154.396 1235 35.1426
154.513 1353 36.7831
154.63 1287 35.8748
154.747 1421 37.6962
154.864 1310 36.1939
154.981 1304 36.1109
155.098 1421 37.6962
155.215 1356 36.8239
155.332 1229 35.0571
155.449 1332 36.4966
155.566 1266 35.5809
155.683 1268 35.609
155.8 1215 34.8569
155.917 1211 34.7994
156.033 1245 35.2846
156.15 0 1
156.267 0 1
156.383 0 1
156.5 0 1
156.617 0 1
156.733 0 1
156.85 0 1
156.966 0 1
157.082 0 1
157.199 0 1
157.315 0 1
157.431 0 1
157.547 0 1
157.664 0 1
157.78 0 1
157.896 0 1
158.012 0 1
158.128 0 1
158.244 0 1
158.359 0 1
158.475 0 1
158.591 0 1
158.706 0 1
