
6.15755 0 1
6.2731 0 1
6.3887 0 1
6.50437 0 1
6.62009 0 1
6.73587 0 1
6.8517 0 1
6.96759 0 1
7.08353 0 1
7.19952 0 1
7.31557 0 1
7.43166 0 1
7.54781 0 1
7.664 0 1
7.78024 0 1
7.89653 0 1
8.01286 0 1
8.12924 0 1
8.24567 0 1
8.36213 0 1
8.47864 0 1
8.59519 0 1
8.71178 0 1
8.82841 0 1
8.94508 0 1
9.06179 0 1
9.17853 0 1
9.29531 0 1
9.41212 0 1
9.52897 0 1
9.64584 0 1
9.76276 0 1
9.8797 0 1
9.99667 0 1
10.1137 0 1
10.2307 0 1
10.3478 0 1
10.4648 0 1
10.5819 0 1
10.6991 0 1
10.8162 0 1
10.9334 0 1
11.0506 0 1
11.1678 0 1
11.285 0 1
11.4023 0 1
11.5196 0 1
11.6369 0 1
11.7542 0 1
11.8715 0 1
11.9888 0 1
12.1062 0 1
12.2235 0 1
12.3409 0 1
12.4582 0 1
12.5756 0 1
12.693 0 1
12.8104 0 1
12.9278 0 1
13.0452 0 1
13.1626 0 1
13.28 0 1
13.3974 0 1
13.5149 0 1
13.6323 0 1
13.7497 0 1
13.8671 0 1
13.9845 0 1
14.1019 0 1
14.2193 0 1
14.3367 0 1
14.4541 0 1
14.5714 0 1
14.6888 0 1
14.8062 0 1
14.9235 0 1
15.0408 4297 65.5515
15.1581 4310 65.6506
15.2755 4505 67.1193
15.3927 4343 65.9014
15.51 4380 66.1816
15.6273 4312 65.6658
15.7445 4246 65.1613
15.8617 4099 64.0234
15.9789 3961 62.9365
16.0961 3865 62.1691
16.2132 4034 63.5138
16.3304 4080 63.8749
16.4475 4029 63.4744
16.5646 3909 62.522
16.6816 3910 62.53
16.7986 3728 61.0574
16.9156 3761 61.327
17.0326 3731 61.0819
17.1496 3835 61.9274
17.2665 3692 60.7618
17.3833 3753 61.2617
17.5002 3723 61.0164
17.617 3764 61.3514
17.7338 3672 60.597
17.8505 3761 61.327
17.9672 3716 60.959
18.0839 3701 60.8358
18.2005 3783 61.5061
18.3171 3836 61.9355
18.4337 3772 61.4166
18.5502 3736 61.1228
18.6666 3718 60.9754
18.7831 3670 60.5805
18.8994 3580 59.8331
19.0158 3573 59.7746
19.1321 3339 57.7841
19.2483 3257 57.0701
19.3645 3057 55.2901
19.4806 2978 54.5711
19.5967 2832 53.2165
19.7128 2907 53.9166
19.8288 2879 53.6563
19.9447 2587 50.8626
20.0606 0 1
20.1764 0 1
20.2922 0 1
20.4079 0 1
20.5236 0 1
20.6392 0 1
20.7548 0 1
20.8702 0 1
23.3078 0 1
23.4233 0 1
23.539 0 1
23.6547 0 1
23.7704 0 1
23.8862 0 1
24.0021 0 1
24.118 0 1
24.234 0 1
24.35 0 1
24.4661 1574 39.6737
24.5822 1659 40.7308
24.6984 1995 44.6654
24.8146 2264 47.5815
24.9309 2512 50.1199
25.0472 2902 53.8702
25.1636 3304 57.4804
25.28 3668 60.564
25.3965 3820 61.8061
25.513 4011 63.3325
25.6296 4050 63.6396
25.7462 4228 65.0231
25.8628 4278 65.4064
25.9795 4277 65.3988
26.0962 4162 64.5136
26.213 3953 62.8729
26.3298 3873 62.2334
26.4466 3754 61.2699
26.5635 3568 59.7327
26.6804 3534 59.4475
26.7973 3494 59.1101
26.9143 3544 59.5315
27.0313 3509 59.2368
27.1483 3635 60.291
27.2653 3593 59.9416
27.3824 3576 59.7997
27.4996 3577 59.808
27.6167 3497 59.1354
27.7339 3526 59.3801
27.8511 3479 58.983
27.9683 3527 59.3886
28.0855 3522 59.3464
28.2028 3512 59.2621
28.3201 3495 59.1185
28.4374 3562 59.6825
28.5547 3521 59.338
28.6721 3607 60.0583
28.7894 3570 59.7495
28.9068 3622 60.1831
29.0242 3652 60.4318
29.1416 3619 60.1581
29.259 3576 59.7997
29.3764 3689 60.7371
29.4939 3540 59.4979
29.6113 3658 60.4814
29.7288 3438 58.6345
29.8463 3361 57.9741
29.9638 3381 58.1464
30.0812 3256 57.0614
30.1987 3328 57.6888
30.3162 3360 57.9655
30.4337 3336 57.7581
30.5512 3477 58.9661
30.6687 3357 57.9396
30.7862 3491 59.0847
30.9037 3639 60.3241
31.0212 3539 59.4895
31.1387 3583 59.8582
31.2562 3560 59.6657
31.3737 3454 58.7707
31.4912 3536 59.4643
31.6087 3536 59.4643
31.7262 3349 57.8705
31.8436 3302 57.463
31.9611 3406 58.3609
32.0785 3267 57.1577
32.1959 3150 56.1249
32.3134 3303 57.4717
32.4308 3238 56.9034
32.5482 3205 56.6127
32.6655 3195 56.5243
32.7829 3132 55.9643
32.9002 3180 56.3915
33.0176 3083 55.5248
33.1349 3107 55.7405
33.2522 3137 56.0089
33.3694 3142 56.0535
33.4867 3084 55.5338
33.6039 3184 56.4269
33.7211 3131 55.9553
33.8383 3175 56.3471
33.9554 3122 55.8749
34.0725 3163 56.2406
34.1896 3174 56.3383
34.3067 3176 56.356
34.4237 3169 56.2939
34.5407 3139 56.0268
34.6577 3245 56.9649
34.7746 3103 55.7046
34.8915 3095 55.6327
35.0084 2983 54.6168
35.1252 2919 54.0278
35.242 3043 55.1634
35.3587 3091 55.5968
35.4755 3010 54.8635
35.5921 2944 54.2586
35.7088 2802 52.9339
35.8254 2881 53.6749
35.9419 2961 54.4151
36.0584 2947 54.2863
36.1749 2865 53.5257
36.2913 2882 53.6843
36.4077 2908 53.9259
36.524 2893 53.7866
36.6403 2683 51.7977
36.7565 2654 51.517
36.8727 2476 49.7594
36.9889 2284 47.7912
37.1049 2003 44.7549
37.221 0 1
37.3369 0 1
37.4529 0 1
37.5687 0 1
37.6845 0 1
37.8003 0 1
37.916 0 1
38.0316 0 1
38.1472 0 1
40.5851 0 1
40.7008 0 1
40.8164 0 1
40.9322 0 1
41.048 0 1
41.1639 0 1
41.2798 0 1
41.3958 0 1
41.5118 0 1
41.6279 0 1
41.744 1195 34.5688
41.8602 1428 37.7889
41.9765 1623 40.2865
42.0928 1744 41.7612
42.2091 2051 45.288
42.3255 2205 46.9574
42.4419 2401 49
42.5584 2281 47.7598
42.675 2280 47.7493
42.7915 2404 49.0306
42.9081 2384 48.8262
43.0248 2393 48.9183
43.1415 2311 48.0729
43.2582 2244 47.3709
43.375 2275 47.697
43.4918 2389 48.8774
43.6087 2321 48.1768
43.7256 2237 47.2969
43.8425 2176 46.6476
43.9595 2230 47.2229
44.0765 2354 48.518
44.1935 2403 49.0204
44.3106 2257 47.5079
44.4277 2225 47.1699
44.5448 2175 46.6369
44.6619 2107 45.9021
44.7791 2234 47.2652
44.8963 2173 46.6154
45.0136 2390 48.8876
45.1308 2276 47.7074
45.2481 2340 48.3735
45.3654 2472 49.7192
45.4827 2464 49.6387
45.6001 2559 50.5866
45.7174 2487 49.8698
45.8348 2482 49.8197
45.9522 2518 50.1797
46.0697 2455 49.548
46.1871 2265 47.592
46.3046 2419 49.1833
46.422 2291 47.8644
46.5395 2248 47.4131
46.657 2206 46.9681
46.7745 2191 46.8081
46.892 2247 47.4025
47.0096 2258 47.5184
47.1271 2420 49.1935
47.2446 2231 47.2335
47.3622 2294 47.8957
47.4797 2177 46.6583
47.5973 2283 47.7807
47.7149 2238 47.3075
47.8324 2295 47.9062
47.95 2222 47.1381
48.0675 2102 45.8476
48.1851 2020 44.9444
48.3027 2099 45.8148
48.4202 2103 45.8585
48.5378 2175 46.6369
48.6554 2235 47.2758
48.7729 2253 47.4658
48.8904 2397 48.9592
49.008 2397 48.9592
49.1255 2403 49.0204
49.243 2389 48.8774
49.3605 2387 48.8569
49.478 2333 48.3011
49.5955 2323 48.1975
49.713 2203 46.9361
49.8304 2185 46.744
49.9479 2083 45.6399
50.0653 2072 45.5192
50.1827 2020 44.9444
50.3001 1886 43.4281
50.4175 2128 46.1303
50.5348 2218 47.0956
50.6521 2234 47.2652
50.7694 2152 46.3897
50.8867 2076 45.5631
51.004 2157 46.4435
51.1212 2119 46.0326
51.2384 2235 47.2758
51.3556 2191 46.8081
51.4727 2099 45.8148
51.5899 2013 44.8665
51.707 2079 45.5961
51.824 2030 45.0555
51.9411 2043 45.1996
52.0581 2106 45.8912
52.175 2205 46.9574
52.2919 2176 46.6476
52.4088 2143 46.2925
52.5257 2237 47.2969
52.6425 2224 47.1593
52.7593 2276 47.7074
52.876 2284 47.7912
52.9927 2249 47.4236
53.1094 2221 47.1275
53.226 2300 47.9583
53.3426 2109 45.9239
53.4591 2168 46.5618
53.5756 2020 44.9444
53.692 1867 43.2088
53.8084 1667 40.8289
53.9248 1597 39.9625
54.0411 1494 38.6523
54.1573 1423 37.7227
54.2735 0 1
54.3896 0 1
54.5057 0 1
54.6217 0 1
54.7377 0 1
54.8537 0 1
54.9695 0 1
55.0853 0 1
55.2011 0 1
55.3168 0 1
55.4324 0 1
57.824 0 1
57.9396 0 1
58.0553 0 1
58.1711 0 1
58.2869 0 1
58.4028 0 1
58.5187 0 1
58.6347 0 1
58.7508 0 1
58.8669 0 1
58.983 1554 39.4208
59.0992 1899 43.5775
59.2155 2171 46.594
59.3318 2487 49.8698
59.4482 2722 52.1728
59.5646 2908 53.9259
59.681 3087 55.5608
59.7975 3170 56.3028
59.9141 3096 55.6417
60.0306 3307 57.5065
60.1473 3232 56.8507
60.2639 3244 56.9561
60.3807 3159 56.205
60.4974 3101 55.6866
60.6142 3148 56.107
60.731 3143 56.0625
60.8479 3238 56.9034
60.9648 3185 56.4358
61.0818 3209 56.648
61.1987 3178 56.3738
61.3158 3258 57.0789
61.4328 3286 57.3236
61.5499 3313 57.5587
61.667 3207 56.6304
61.7841 3147 56.0981
61.9013 3189 56.4712
62.0185 2995 54.7266
62.1357 2862 53.4977
62.253 2881 53.6749
62.3702 2610 51.0882
62.4875 2661 51.5849
62.6049 2597 50.9608
62.7222 2757 52.5071
62.8396 2728 52.2303
62.9569 2785 52.7731
63.0743 2792 52.8394
63.1918 2690 51.8652
63.3092 2734 52.2877
63.4267 2753 52.469
63.5441 2646 51.4393
63.6616 2607 51.0588
63.7791 2524 50.2394
63.8966 2372 48.7032
64.0142 2332 48.2908
64.1317 2378 48.7647
64.2492 2392 48.9081
64.3668 2517 50.1697
64.4843 2428 49.2747
64.6019 2521 50.2096
64.7195 2480 49.7996
64.837 2427 49.2646
64.9546 2596 50.951
65.0722 2603 51.0196
65.1898 2555 50.547
65.3074 2671 51.6817
65.4249 2572 50.7149
65.5425 2537 50.3686
65.6601 2500 50
65.7777 2418 49.1732
65.8952 2241 47.3392
66.0128 2191 46.8081
66.1304 2190 46.7974
66.2479 2359 48.5695
66.3655 2526 50.2593
66.483 2418 49.1732
66.6005 2589 50.8822
66.718 2531 50.309
66.8355 2606 51.049
66.953 2516 50.1597
67.0705 2605 51.0392
67.1879 2517 50.1697
67.3054 2462 49.6185
67.4228 2445 49.4469
67.5402 2359 48.5695
67.6576 2329 48.2597
67.7749 2209 47
67.8923 2284 47.7912
68.0096 2350 48.4768
68.1269 2355 48.5283
68.2442 2446 49.4571
68.3614 2405 49.0408
68.4787 2520 50.1996
68.5958 2578 50.774
68.713 2462 49.6185
68.8302 2549 50.4876
68.9473 2580 50.7937
69.0643 2569 50.6853
69.1814 2583 50.8232
69.2984 2422 49.2138
69.4154 2393 48.9183
69.5323 2269 47.634
69.6492 2118 46.0217
69.7661 2139 46.2493
69.8829 2352 48.4974
69.9997 2334 48.3115
70.1165 2430 49.295
70.2332 2413 49.1223
70.3499 2396 48.949
70.4665 2258 47.5184
70.5831 2119 46.0326
70.6996 1873 43.2782
70.8161 1851 43.0232
70.9326 1731 41.6053
71.049 1519 38.9744
71.1653 1385 37.2156
71.2817 1290 35.9166
71.3979 1118 33.4365
71.5141 1054 32.4654
71.6303 996 31.5595
71.7464 848 29.1204
71.8624 0 1
71.9784 0 1
72.0944 0 1
72.2102 0 1
72.3261 0 1
72.4418 0 1
72.5575 0 1
72.6732 0 1
75.1054 0 1
75.2209 0 1
75.3365 0 1
75.4521 0 1
75.5678 0 1
75.6835 0 1
75.7993 0 1
75.9151 0 1
76.031 0 1
76.147 1452 38.1051
76.263 1670 40.8656
76.3791 1765 42.0119
76.4952 1793 42.3438
76.6113 1823 42.6966
76.7276 1854 43.0581
76.8438 1866 43.1972
76.9601 1902 43.6119
77.0765 1978 44.4747
77.1929 2072 45.5192
77.3093 2026 45.0111
77.4258 2038 45.1442
77.5423 2072 45.5192
77.6589 2172 46.6047
77.7755 2124 46.0869
77.8921 2156 46.4327
78.0088 2230 47.2229
78.1256 2240 47.3286
78.2423 2216 47.0744
78.3591 2102 45.8476
78.4759 2038 45.1442
78.5928 1847 42.9767
78.7097 1820 42.6615
78.8266 1828 42.7551
78.9436 1991 44.6206
79.0606 1999 44.7102
79.1776 2021 44.9555
79.2946 2120 46.0435
79.4117 2215 47.0638
79.5288 2248 47.4131
79.6459 2254 47.4763
79.7631 2186 46.7547
79.8802 2153 46.4004
79.9974 2128 46.1303
80.1147 2001 44.7325
80.2319 2019 44.9333
80.3491 1889 43.4626
80.4664 1987 44.5758
80.5837 1966 44.3396
80.701 2224 47.1593
80.8183 2148 46.3465
80.9357 2159 46.465
81.053 2223 47.1487
81.1704 2204 46.9468
81.2877 2205 46.9574
81.4051 2212 47.0319
81.5225 2296 47.9166
81.6399 2288 47.833
81.7573 2402 49.0102
81.8747 2337 48.3425
81.9922 2284 47.7912
82.1096 2140 46.2601
82.227 2051 45.288
82.3444 1893 43.5086
82.4619 1983 44.5309
82.5793 1980 44.4972
82.6967 2080 45.607
82.8142 2169 46.5725
82.9316 2303 47.9896
83.049 2283 47.7807
83.1664 2370 48.6826
83.2838 2390 48.8876
83.4012 2270 47.6445
83.5186 2253 47.4658
83.636 2192 46.8188
83.7534 2050 45.2769
83.8708 2114 45.9783
83.9881 1953 44.1928
84.1055 1962 44.2945
84.2228 2088 45.6946
84.3401 2080 45.607
84.4575 2232 47.244
84.5747 2196 46.8615
84.692 2185 46.744
84.8093 2276 47.7074
84.9265 2239 47.3181
85.0437 2371 48.6929
85.1609 2378 48.7647
85.2781 2410 49.0918
85.3952 2424 49.2341
85.5123 2368 48.6621
85.6294 2378 48.7647
85.7465 2160 46.4758
85.8636 2060 45.3872
85.9806 2029 45.0444
86.0976 2049 45.2659
86.2145 2212 47.0319
86.3315 2307 48.0312
86.4484 2210 47.0106
86.5652 2427 49.2646
86.682 2406 49.051
86.7988 2471 49.7092
86.9156 2397 48.9592
87.0323 2359 48.5695
87.149 2335 48.3218
87.2657 2202 46.9255
87.3823 2110 45.9347
87.4988 1998 44.699
87.6154 1910 43.7035
87.7318 1997 44.6878
87.8483 1969 44.3734
87.9647 1928 43.909
88.081 1800 42.4264
88.1973 1707 41.3159
88.3136 1674 40.9145
88.4298 1616 40.1995
88.546 1536 39.1918
88.6621 1421 37.6962
88.7781 1256 35.4401
88.8942 0 1
89.0101 0 1
89.126 0 1
89.2419 0 1
89.3577 0 1
89.4734 0 1
89.5891 0 1
89.7047 0 1
89.8203 0 1
89.9358 0 1
92.3269 0 1
92.4424 0 1
92.558 0 1
92.6736 0 1
92.7893 0 1
92.905 0 1
93.0208 0 1
93.1366 0 1
93.2525 0 1
93.3685 0 1
93.4845 0 1
93.6005 1776 42.1426
93.7167 1899 43.5775
93.8328 2078 45.5851
93.949 2134 46.1952
94.0653 2189 46.7868
94.1816 2374 48.7237
94.2979 2395 48.9387
94.4143 2482 49.8197
94.5307 2469 49.689
94.6472 2460 49.5984
94.7637 2394 48.9285
94.8803 2206 46.9681
94.9969 2144 46.3033
95.1135 2188 46.7761
95.2302 2217 47.085
95.3469 2278 47.7284
95.4637 2496 49.96
95.5805 2432 49.3153
95.6973 2456 49.558
95.8142 2527 50.2693
95.9311 2405 49.0408
96.048 2546 50.4579
96.1649 2476 49.7594
96.2819 2365 48.6313
96.3989 2292 47.8748
96.516 2242 47.3498
96.633 2176 46.6476
96.7501 2217 47.085
96.8673 2275 47.697
96.9844 2269 47.634
97.1016 2349 48.4665
97.2188 2340 48.3735
97.336 2403 49.0204
97.4532 2405 49.0408
97.5704 2413 49.1223
97.6877 2507 50.07
97.805 2522 50.2195
97.9223 2540 50.3984
98.0396 2591 50.9019
98.1569 2488 49.8799
98.2743 2439 49.3862
98.3916 2370 48.6826
98.509 2352 48.4974
98.6264 2388 48.8672
98.7438 2381 48.7955
98.8612 2364 48.621
98.9786 2546 50.4579
99.096 2665 51.6236
99.2134 2656 51.5364
99.3308 2723 52.1824
99.4482 2779 52.7162
99.5656 2717 52.1249
99.6831 2620 51.1859
99.8005 2663 51.6043
99.9179 2576 50.7543
100.035 2460 49.5984
100.153 2396 48.949
100.27 2292 47.8748
100.388 2521 50.2096
100.505 2518 50.1797
100.622 2577 50.7642
100.74 2593 50.9215
100.857 2505 50.05
100.975 2509 50.0899
101.092 2614 51.1273
101.209 2673 51.7011
101.327 2691 51.8748
101.444 2779 52.7162
101.561 2751 52.45
101.679 2839 53.2823
101.796 2772 52.6498
101.913 2664 51.614
102.03 2513 50.1298
102.148 2466 49.6588
102.265 2490 49.8999
102.382 2572 50.7149
102.499 2741 52.3546
102.616 2787 52.792
102.733 2791 52.8299
102.851 2827 53.1695
102.968 2999 54.7631
103.085 3044 55.1725
103.202 2999 54.7631
103.319 2905 53.8981
103.436 2836 53.2541
103.552 2784 52.7636
103.669 2730 52.2494
103.786 2752 52.4595
103.903 2816 53.066
104.02 3011 54.8726
104.137 2951 54.3231
104.253 2866 53.535
104.37 3008 54.8452
104.487 3132 55.9643
104.603 3048 55.2087
104.72 2955 54.3599
104.836 2922 54.0555
104.953 2949 54.3047
105.069 2919 54.0278
105.186 2657 51.5461
105.302 2529 50.2892
105.418 2301 47.9687
105.535 2166 46.5403
105.651 1920 43.8178
105.767 1820 42.6615
105.883 1739 41.7013
105.999 1582 39.7744
106.115 0 1
106.231 0 1
106.347 0 1
106.463 0 1
106.579 0 1
106.694 0 1
106.81 0 1
106.926 0 1
107.041 0 1
107.157 0 1
109.576 0 1
109.692 0 1
109.807 0 1
109.923 0 1
110.039 0 1
110.155 0 1
110.27 0 1
110.386 0 1
110.502 0 1
110.618 1343 36.647
110.735 1633 40.4104
110.851 1744 41.7612
110.967 1947 44.1248
111.083 2145 46.3141
111.199 2341 48.3839
111.316 2517 50.1697
111.432 2724 52.192
111.549 2760 52.5357
111.665 2739 52.3355
111.782 2699 51.9519
111.898 2754 52.4786
112.015 2636 51.342
112.132 2506 50.06
112.248 2527 50.2693
112.365 2443 49.4267
112.482 2614 51.1273
112.599 2649 51.4684
112.716 2602 51.0098
112.832 2634 51.3225
112.949 2542 50.4183
113.066 2511 50.1099
113.183 2413 49.1223
113.3 2496 49.96
113.417 2517 50.1697
113.534 2642 51.4004
113.652 2528 50.2792
113.769 2482 49.8197
113.886 2598 50.9706
114.003 2371 48.6929
114.12 2394 48.9285
114.238 2249 47.4236
114.355 2129 46.1411
114.472 2240 47.3286
114.589 2274 47.6865
114.707 2282 47.7703
114.824 2407 49.0612
114.942 2416 49.1528
115.059 2365 48.6313
115.176 2487 49.8698
115.294 2525 50.2494
115.411 2376 48.7442
115.529 2310 48.0625
115.646 2250 47.4342
115.764 2079 45.5961
115.881 2238 47.3075
115.999 2188 46.7761
116.116 2258 47.5184
116.234 2231 47.2335
116.351 2309 48.0521
116.469 2265 47.592
116.586 2173 46.6154
116.704 2214 47.0532
116.821 2209 47
116.939 2262 47.5605
117.056 2251 47.4447
117.174 2263 47.571
117.291 2278 47.7284
117.409 2250 47.4342
117.526 2231 47.2335
117.644 2156 46.4327
117.761 2207 46.9787
117.879 2104 45.8694
117.996 2053 45.31
118.114 2162 46.4973
118.231 2140 46.2601
118.349 2298 47.9375
118.466 2284 47.7912
118.584 2300 47.9583
118.701 2297 47.927
118.819 2361 48.5901
118.936 2149 46.3573
119.053 2187 46.7654
119.171 2078 45.5851
119.288 1970 44.3847
119.405 1935 43.9886
119.523 2071 45.5082
119.64 2005 44.7772
119.757 2225 47.1699
119.875 2190 46.7974
119.992 2089 45.7056
120.109 2048 45.2548
120.226 2046 45.2327
120.343 2028 45.0333
120.46 1947 44.1248
120.578 2148 46.3465
120.695 2025 45
120.812 2065 45.4423
120.929 2067 45.4643
121.046 2091 45.7275
121.163 2104 45.8694
121.279 1963 44.3058
121.396 1844 42.9418
121.513 1784 42.2374
121.63 1888 43.4511
121.747 1768 42.0476
121.863 1819 42.6497
121.98 1837 42.8602
122.097 1896 43.5431
122.213 1938 44.0227
122.33 1784 42.2374
122.446 1656 40.694
122.563 1541 39.2556
122.679 1442 37.9737
122.795 1269 35.623
122.912 1240 35.2136
123.028 1063 32.6037
123.144 1079 32.8481
123.26 1019 31.9218
123.377 0 1
123.493 0 1
123.609 0 1
123.725 0 1
123.84 0 1
123.956 0 1
124.072 0 1
124.188 0 1
124.303 0 1
124.419 0 1
126.852 0 1
126.968 0 1
127.083 0 1
127.199 0 1
127.315 0 1
127.431 0 1
127.547 0 1
127.663 0 1
127.779 0 1
127.895 0 1
128.011 0 1
128.127 0 1
128.243 0 1
128.359 2070 45.4973
128.476 2043 45.1996
128.592 2101 45.8367
128.708 2210 47.0106
128.825 2305 48.0104
128.941 2290 47.8539
129.058 2361 48.5901
129.174 2277 47.7179
129.291 2330 48.2701
129.408 2325 48.2183
129.524 2348 48.4562
129.641 2264 47.5815
129.758 2343 48.4045
129.875 2392 48.9081
129.992 2427 49.2646
130.108 2457 49.5681
130.225 2385 48.8365
130.342 2290 47.8539
130.459 2299 47.9479
130.576 2277 47.7179
130.693 2380 48.7852
130.81 2240 47.3286
130.928 2499 49.99
131.045 2553 50.5272
131.162 2689 51.8556
131.279 2908 53.9259
131.396 2994 54.7175
131.513 3048 55.2087
131.631 2959 54.3967
131.748 2912 53.963
131.865 3067 55.3805
131.983 3111 55.7763
132.1 3243 56.9473
132.217 3395 58.2666
132.335 3669 60.5723
132.452 3676 60.63
132.57 3803 61.6685
132.687 3872 62.2254
132.804 4146 64.3894
132.922 4211 64.8922
133.039 4173 64.5988
133.157 4336 65.8483
133.274 4365 66.0681
133.392 4395 66.2948
133.509 4343 65.9014
133.627 4383 66.2042
133.744 4360 66.0303
133.862 4321 65.7343
133.979 3968 62.9921
134.097 3819 61.7981
134.214 3950 62.849
134.332 3987 63.1427
134.449 4088 63.9375
134.567 4190 64.7302
134.684 4540 67.3795
134.802 4548 67.4389
134.919 4535 67.3424
135.037 4516 67.2012
135.154 4196 64.7765
135.272 3841 61.9758
135.389 3834 61.9193
135.507 4129 64.2573
135.624 4157 64.4748
135.742 4429 66.5507
135.859 4459 66.7757
135.977 4527 67.283
136.094 4626 68.0147
136.211 4730 68.775
136.329 4680 68.4105
136.446 4713 68.6513
136.564 4716 68.6731
136.681 4689 68.4763
136.798 4814 69.383
136.915 4813 69.3758
137.033 4791 69.217
137.15 4824 69.455
137.267 4897 69.9786
137.384 4764 69.0217
137.502 4479 66.9253
137.619 4433 66.5808
137.736 4307 65.6277
137.853 3974 63.0397
137.97 4192 64.7457
138.087 4401 66.34
138.204 4860 69.7137
138.321 4988 70.6258
138.438 5128 71.6101
138.555 5141 71.7008
138.672 5203 72.1318
138.788 4848 69.6276
138.905 4144 64.3739
139.022 3838 61.9516
139.139 4074 63.8279
139.255 4383 66.2042
139.372 4443 66.6558
139.488 4381 66.1891
139.605 4465 66.8207
139.721 4168 64.56
139.838 3776 61.4492
139.954 3529 59.4054
140.071 3286 57.3236
140.187 3180 56.3915
140.303 2925 54.0833
140.419 2865 53.5257
140.535 2798 52.8961
140.652 2661 51.5849
140.768 0 1
140.884 0 1
141 0 1
141.115 0 1
141.231 0 1
141.347 0 1
141.463 0 1
141.578 0 1
141.694 0 1
144.104 0 1
144.219 0 1
144.335 0 1
144.45 0 1
144.566 0 1
144.682 0 1
144.798 0 1
144.914 0 1
145.03 0 1
145.146 5761 75.9013
145.262 6031 77.6595
145.378 6072 77.923
145.494 6135 78.3262
145.61 6280 79.2465
145.726 6141 78.3645
145.842 6145 78.3901
145.959 5957 77.1816
146.075 5713 75.5844
146.192 5560 74.5654
146.308 5419 73.6139
146.425 5367 73.2598
146.541 5591 74.773
146.658 5926 76.9805
146.774 6003 77.479
146.891 5970 77.2658
147.008 6378 79.8624
147.125 6298 79.3599
147.241 6488 80.5481
147.358 6454 80.3368
147.475 6448 80.2994
147.592 6334 79.5864
147.709 5955 77.1686
147.826 5235 72.3533
147.943 4761 69
148.06 5031 70.9295
148.177 5508 74.2159
148.294 6095 78.0705
148.411 6228 78.9177
148.528 6376 79.8499
148.645 6433 80.206
148.762 6229 78.924
148.88 6494 80.5854
148.997 6291 79.3158
149.114 6165 78.5175
149.231 6234 78.9557
149.349 6389 79.9312
149.466 6245 79.0253
149.583 6266 79.1581
149.701 6193 78.6956
149.818 6177 78.5939
149.935 6062 77.8588
150.053 6032 77.666
150.17 5821 76.2955
150.287 5931 77.013
150.405 5842 76.433
150.522 5929 77
150.64 6200 78.7401
150.757 6373 79.8311
150.875 6234 78.9557
150.992 6337 79.6053
151.11 6392 79.95
151.227 6157 78.4666
151.344 5933 77.026
151.462 5302 72.8148
151.579 4730 68.775
151.697 4847 69.6204
151.814 5524 74.3236
151.932 6046 77.756
152.049 6503 80.6412
152.167 6420 80.1249
152.284 6527 80.7899
152.402 6381 79.8812
152.519 6493 80.5792
152.636 6413 80.0812
152.754 6489 80.5543
152.871 6253 79.0759
152.989 6437 80.2309
153.106 6468 80.4239
153.223 6210 78.8036
153.341 6154 78.4474
153.458 6111 78.1729
153.575 6087 78.0192
153.693 5798 76.1446
153.81 5639 75.0933
153.927 5590 74.7663
154.044 5724 75.6571
154.162 5543 74.4513
154.279 5901 76.818
154.396 6030 77.6531
154.513 6029 77.6466
154.63 5925 76.974
154.747 5727 75.6769
154.864 5606 74.8732
154.981 5342 73.089
155.098 5157 71.8123
155.215 5110 71.4843
155.332 5445 73.7902
155.449 5696 75.4718
155.566 6193 78.6956
155.683 6219 78.8606
155.8 6363 79.7684
155.917 6252 79.0696
156.033 6208 78.7909
156.15 0 1
156.267 0 1
156.383 0 1
156.5 0 1
156.617 0 1
156.733 0 1
156.85 0 1
156.966 0 1
157.082 0 1
157.199 0 1
157.315 0 1
157.431 0 1
157.547 0 1
157.664 0 1
157.78 0 1
157.896 0 1
158.012 0 1
158.128 0 1
158.244 0 1
158.359 0 1
158.475 0 1
158.591 0 1
158.706 0 1
