
6.15755 0 1
6.2731 0 1
6.3887 0 1
6.50437 0 1
6.62009 0 1
6.73587 0 1
6.8517 0 1
6.96759 0 1
7.08353 0 1
7.19952 0 1
7.31557 0 1
7.43166 0 1
7.54781 0 1
7.664 0 1
7.78024 0 1
7.89653 0 1
8.01286 0 1
8.12924 0 1
8.24567 0 1
8.36213 0 1
8.47864 0 1
8.59519 0 1
8.71178 0 1
8.82841 0 1
8.94508 0 1
9.06179 0 1
9.17853 0 1
9.29531 0 1
9.41212 0 1
9.52897 0 1
9.64584 0 1
9.76276 0 1
9.8797 0 1
9.99667 0 1
10.1137 0 1
10.2307 0 1
10.3478 0 1
10.4648 0 1
10.5819 0 1
10.6991 0 1
10.8162 0 1
10.9334 0 1
11.0506 0 1
11.1678 0 1
11.285 0 1
11.4023 0 1
11.5196 0 1
11.6369 0 1
11.7542 0 1
11.8715 0 1
11.9888 0 1
12.1062 0 1
12.2235 0 1
12.3409 0 1
12.4582 0 1
12.5756 0 1
12.693 0 1
12.8104 0 1
12.9278 0 1
13.0452 0 1
13.1626 0 1
13.28 0 1
13.3974 0 1
13.5149 0 1
13.6323 0 1
13.7497 0 1
13.8671 0 1
13.9845 0 1
14.1019 0 1
14.2193 0 1
14.3367 0 1
14.4541 0 1
14.5714 0 1
14.6888 0 1
14.8062 0 1
14.9235 0 1
15.0408 0 0
15.1581 0 0
15.2755 0 0
15.3927 0 0
15.51 0 0
15.6273 0 0
15.7445 0 0
15.8617 0 0
15.9789 0 0
16.0961 0 0
16.2132 0 0
16.3304 0 0
16.4475 0 0
16.5646 0 0
16.6816 0 0
16.7986 0 0
16.9156 0 0
17.0326 0 0
17.1496 0 0
17.2665 0 0
17.3833 0 0
17.5002 0 0
17.617 0 0
17.7338 0 0
17.8505 0 0
17.9672 0 0
18.0839 0 0
18.2005 0 0
18.3171 0 0
18.4337 0 0
18.5502 0 0
18.6666 0 0
18.7831 0 0
18.8994 0 0
19.0158 0 0
19.1321 0 0
19.2483 0 0
19.3645 0 0
19.4806 0 0
19.5967 0 0
19.7128 0 0
19.8288 0 0
19.9447 0 0
20.0606 0 1
20.1764 0 1
20.2922 0 1
20.4079 0 1
20.5236 0 1
20.6392 0 1
20.7548 0 1
20.8702 0 1
23.3078 0 1
23.4233 0 1
23.539 0 1
23.6547 0 1
23.7704 0 1
23.8862 0 1
24.0021 0 1
24.118 0 1
24.234 0 1
24.35 0 1
24.4661 15828 125.809
24.5822 15876 126
24.6984 15626 125.004
24.8146 15722 125.387
24.9309 15562 124.748
25.0472 15407 124.125
25.1636 15909 126.131
25.28 16098 126.878
25.3965 16631 128.961
25.513 16920 130.077
25.6296 17693 133.015
25.7462 18093 134.51
25.8628 18513 136.062
25.9795 18550 136.198
26.0962 18520 136.088
26.213 18461 135.871
26.3298 18039 134.309
26.4466 17707 133.068
26.5635 16461 128.3
26.6804 16233 127.409
26.7973 16144 127.059
26.9143 16473 128.347
27.0313 16637 128.984
27.1483 17415 131.966
27.2653 17410 131.947
27.3824 17720 133.116
27.4996 18153 134.733
27.6167 17675 132.947
27.7339 17400 131.909
27.8511 16895 129.981
27.9683 16902 130.008
28.0855 16545 128.627
28.2028 15889 126.052
28.3201 15938 126.246
28.4374 15645 125.08
28.5547 15231 123.414
28.6721 15013 122.528
28.7894 15610 124.94
28.9068 16065 126.748
29.0242 16559 128.682
29.1416 17121 130.847
29.259 17559 132.51
29.3764 17786 133.364
29.4939 18034 134.291
29.6113 18157 134.748
29.7288 18057 134.376
29.8463 17104 130.782
29.9638 16630 128.957
30.0812 15831 125.821
30.1987 15187 123.236
30.3162 14937 122.217
30.4337 15605 124.92
30.5512 16071 126.771
30.6687 16823 129.704
30.7862 16593 128.814
30.9037 17351 131.723
31.0212 17317 131.594
31.1387 17452 132.106
31.2562 17149 130.954
31.3737 16696 129.213
31.4912 16840 129.769
31.6087 16406 128.086
31.7262 16126 126.988
31.8436 15723 125.391
31.9611 15271 123.576
32.0785 15175 123.187
32.1959 15243 123.463
32.3134 15396 124.081
32.4308 15904 126.111
32.5482 16500 128.452
32.6655 16969 130.265
32.7829 17504 132.303
32.9002 17661 132.895
33.0176 18016 134.224
33.1349 17886 133.739
33.2522 17519 132.359
33.3694 17932 133.91
33.4867 17574 132.567
33.6039 16520 128.53
33.7211 15647 125.088
33.8383 14746 121.433
33.9554 14743 121.421
34.0725 15177 123.195
34.1896 15894 126.071
34.3067 16179 127.197
34.4237 16527 128.557
34.5407 17052 130.583
34.6577 17022 130.468
34.7746 17077 130.679
34.8915 17012 130.43
35.0084 16807 129.642
35.1252 16726 129.329
35.242 16360 127.906
35.3587 15712 125.348
35.4755 15962 126.341
35.5921 15596 124.884
35.7088 15096 122.866
35.8254 15107 122.911
35.9419 15108 122.915
36.0584 15304 123.709
36.1749 15714 125.355
36.2913 16193 127.252
36.4077 16725 129.325
36.524 16898 129.992
36.6403 17196 131.134
36.7565 17533 132.412
36.8727 17246 131.324
36.9889 17209 131.183
37.1049 16937 130.142
37.221 0 1
37.3369 0 1
37.4529 0 1
37.5687 0 1
37.6845 0 1
37.8003 0 1
37.916 0 1
38.0316 0 1
38.1472 0 1
40.5851 0 1
40.7008 0 1
40.8164 0 1
40.9322 0 1
41.048 0 1
41.1639 0 1
41.2798 0 1
41.3958 0 1
41.5118 0 1
41.6279 0 1
41.744 13604 116.636
41.8602 13881 117.818
41.9765 14222 119.256
42.0928 14336 119.733
42.2091 14357 119.821
42.3255 13631 116.752
42.4419 12530 111.937
42.5584 11692 108.13
42.675 11400 106.771
42.7915 12077 109.895
42.9081 12395 111.333
43.0248 12943 113.767
43.1415 13381 115.676
43.2582 13552 116.413
43.375 13570 116.49
43.4918 13623 116.718
43.6087 13516 116.258
43.7256 13573 116.503
43.8425 13208 114.926
43.9595 12962 113.851
44.0765 12515 111.87
44.1935 12107 110.032
44.3106 11809 108.669
44.4277 11396 106.752
44.5448 10896 104.384
44.6619 10732 103.595
44.7791 10917 104.484
44.8963 11256 106.094
45.0136 11646 107.917
45.1308 11930 109.225
45.2481 11961 109.366
45.3654 12129 110.132
45.4827 12123 110.104
45.6001 11950 109.316
45.7174 11681 108.079
45.8348 11289 106.25
45.9522 10415 102.054
46.0697 9750 98.7421
46.1871 9088 95.331
46.3046 9013 94.9368
46.422 9380 96.8504
46.5395 9874 99.368
46.657 10214 101.064
46.7745 10411 102.034
46.892 10636 103.131
47.0096 10705 103.465
47.1271 10613 103.019
47.2446 10328 101.627
47.3622 10033 100.165
47.4797 10047 100.235
47.5973 9736 98.6712
47.7149 9483 97.3807
47.8324 9154 95.6765
47.95 8802 93.819
48.0675 8310 91.1592
48.1851 8208 90.598
48.3027 8284 91.0165
48.4202 8432 91.8259
48.5378 8541 92.4175
48.6554 8953 94.6203
48.7729 9153 95.6713
48.8904 9264 96.2497
49.008 9528 97.6115
49.1255 9484 97.3858
49.243 9083 95.3048
49.3605 8564 92.5419
49.478 7950 89.1628
49.5955 7675 87.6071
49.713 7081 84.1487
49.8304 7237 85.0706
49.9479 7803 88.3346
50.0653 8516 92.2822
50.1827 8886 94.2656
50.3001 9538 97.6627
50.4175 9661 98.2904
50.5348 9756 98.7725
50.6521 9991 99.955
50.7694 10314 101.558
50.8867 10377 101.868
51.004 10416 102.059
51.1212 10481 102.377
51.2384 10349 101.73
51.3556 10372 101.843
51.4727 10099 100.494
51.5899 10022 100.11
51.707 10012 100.06
51.824 10302 101.499
51.9411 10877 104.293
52.0581 11701 108.171
52.175 12079 109.905
52.2919 12714 112.756
52.4088 13018 114.096
52.5257 13168 114.752
52.6425 13251 115.113
52.7593 13526 116.301
52.876 13130 114.586
52.9927 12450 111.58
53.1094 11487 107.177
53.226 10919 104.494
53.3426 10503 102.484
53.4591 11057 105.152
53.5756 12048 109.763
53.692 12805 113.159
53.8084 13721 117.137
53.9248 14315 119.645
54.0411 14617 120.901
54.1573 14892 122.033
54.2735 0 1
54.3896 0 1
54.5057 0 1
54.6217 0 1
54.7377 0 1
54.8537 0 1
54.9695 0 1
55.0853 0 1
55.2011 0 1
55.3168 0 1
55.4324 0 1
57.824 0 1
57.9396 0 1
58.0553 0 1
58.1711 0 1
58.2869 0 1
58.4028 0 1
58.5187 0 1
58.6347 0 1
58.7508 0 1
58.8669 0 1
58.983 16078 126.799
59.0992 17087 130.717
59.2155 17739 133.188
59.3318 17782 133.349
59.4482 17819 133.488
59.5646 17962 134.022
59.681 17603 132.676
59.7975 17517 132.352
59.9141 16854 129.823
60.0306 16344 127.844
60.1473 15855 125.917
60.2639 15160 123.126
60.3807 14812 121.705
60.4974 14975 122.372
60.6142 15274 123.588
60.731 16102 126.894
60.8479 16330 127.789
60.9648 16832 129.738
61.0818 17047 130.564
61.1987 16832 129.738
61.3158 16485 128.394
61.4328 15632 125.028
61.5499 14789 121.61
61.667 13591 116.58
61.7841 12833 113.283
61.9013 12637 112.414
62.0185 12692 112.659
62.1357 13590 116.576
62.253 14236 119.315
62.3702 15121 122.967
62.4875 15120 122.963
62.6049 15651 125.104
62.7222 16294 127.648
62.8396 15923 126.186
62.9569 15980 126.412
63.0743 16094 126.862
63.1918 15760 125.539
63.3092 15619 124.976
63.4267 15224 123.386
63.5441 14682 121.169
63.6616 14196 119.147
63.7791 13525 116.297
63.8966 13304 115.343
64.0142 13421 115.849
64.1317 14064 118.592
64.2492 14026 118.431
64.3668 14899 122.061
64.4843 15076 122.784
64.6019 15431 124.222
64.7195 15206 123.313
64.837 15017 122.544
64.9546 14802 121.663
65.0722 13684 116.979
65.1898 12465 111.647
65.3074 11939 109.266
65.4249 10886 104.336
65.5425 10761 103.735
65.6601 11681 108.079
65.7777 12525 111.915
65.8952 13291 115.287
66.0128 13962 118.161
66.1304 14465 120.271
66.2479 14876 121.967
66.3655 15157 123.114
66.483 15236 123.434
66.6005 15374 123.992
66.718 15188 123.24
66.8355 14886 122.008
66.953 14526 120.524
67.0705 14376 119.9
67.1879 13733 117.188
67.3054 13371 115.633
67.4228 13014 114.079
67.5402 12591 112.21
67.6576 12880 113.49
67.7749 13683 116.974
67.8923 13950 118.11
68.0096 15019 122.552
68.1269 15177 123.195
68.2442 15611 124.944
68.3614 15855 125.917
68.4787 16065 126.748
68.5958 15377 124.004
68.713 14680 121.161
68.8302 13507 116.22
68.9473 13048 114.228
69.0643 12578 112.152
69.1814 12843 113.327
69.2984 13878 117.805
69.4154 15070 122.76
69.5323 16241 127.44
69.6492 17392 131.879
69.7661 18003 134.175
69.8829 19531 139.753
69.9997 19722 140.435
70.1165 20401 142.832
70.2332 21014 144.962
70.3499 20954 144.755
70.4665 20984 144.859
70.5831 21255 145.791
70.6996 20972 144.817
70.8161 20663 143.746
70.9326 19787 140.666
71.049 18834 137.237
71.1653 18586 136.33
71.2817 18723 136.832
71.3979 19550 139.821
71.5141 20088 141.732
71.6303 20806 144.243
71.7464 20048 141.591
71.8624 0 1
71.9784 0 1
72.0944 0 1
72.2102 0 1
72.3261 0 1
72.4418 0 1
72.5575 0 1
72.6732 0 1
75.1054 0 1
75.2209 0 1
75.3365 0 1
75.4521 0 1
75.5678 0 1
75.6835 0 1
75.7993 0 1
75.9151 0 1
76.031 0 1
76.147 20450 143.003
76.263 21484 146.574
76.3791 20256 142.324
76.4952 19417 139.345
76.6113 19173 138.467
76.7276 20019 141.489
76.8438 21215 145.654
76.9601 21855 147.834
77.0765 22239 149.127
77.1929 22135 148.778
77.3093 21938 148.115
77.4258 21158 145.458
77.5423 20452 143.01
77.6589 18663 136.613
77.7755 16744 129.399
77.8921 15152 123.093
78.0088 13890 117.856
78.1256 12497 111.79
78.2423 12460 111.624
78.3591 13780 117.388
78.4759 14931 122.192
78.5928 15988 126.444
78.7097 16410 128.102
78.8266 16614 128.895
78.9436 17675 132.947
79.0606 17150 130.958
79.1776 17271 131.419
79.2946 16987 130.334
79.4117 16911 130.042
79.5288 16829 129.727
79.6459 16122 126.972
79.7631 15231 123.414
79.8802 14689 121.198
79.9974 13675 116.94
80.1147 12845 113.336
80.2319 12530 111.937
80.3491 12948 113.789
80.4664 13632 116.756
80.5837 14332 119.716
80.701 14533 120.553
80.8183 14754 121.466
80.9357 14939 122.225
81.053 14736 121.392
81.1704 14691 121.206
81.2877 13898 117.89
81.4051 12601 112.254
81.5225 11551 107.476
81.6399 10126 100.628
81.7573 9637 98.1682
81.8747 9464 97.2831
81.9922 10400 101.98
82.1096 11549 107.466
82.227 12312 110.959
82.3444 12803 113.15
82.4619 13486 116.129
82.5793 14089 118.697
82.6967 13884 117.83
82.8142 14033 118.461
82.9316 14226 119.273
83.049 14206 119.189
83.1664 14102 118.752
83.2838 14040 118.491
83.4012 13438 115.922
83.5186 13164 114.734
83.636 12157 110.259
83.7534 11693 108.134
83.8708 11318 106.386
83.9881 11764 108.462
84.1055 13032 114.158
84.2228 13636 116.773
84.3401 14336 119.733
84.4575 14712 121.293
84.5747 14568 120.698
84.692 14886 122.008
84.8093 14454 120.225
84.9265 13347 115.529
85.0437 12291 110.865
85.1609 11627 107.829
85.2781 10634 103.121
85.3952 10410 102.029
85.5123 11006 104.909
85.6294 12652 112.481
85.7465 13839 117.639
85.8636 14845 121.84
85.9806 15705 125.32
86.0976 16230 127.397
86.2145 17077 130.679
86.3315 17219 131.221
86.4484 17884 133.731
86.5652 17861 133.645
86.682 17977 134.078
86.7988 17953 133.989
86.9156 17778 133.334
87.0323 17352 131.727
87.149 16463 128.308
87.2657 15924 126.19
87.3823 15473 124.391
87.4988 15721 125.383
87.6154 16691 129.194
87.7318 18100 134.536
87.8483 18414 135.698
87.9647 18950 137.659
88.081 19209 138.597
88.1973 19461 139.503
88.3136 18878 137.397
88.4298 17887 133.742
88.546 16279 127.589
88.6621 15133 123.016
88.7781 13822 117.567
88.8942 0 1
89.0101 0 1
89.126 0 1
89.2419 0 1
89.3577 0 1
89.4734 0 1
89.5891 0 1
89.7047 0 1
89.8203 0 1
89.9358 0 1
92.3269 0 1
92.4424 0 1
92.558 0 1
92.6736 0 1
92.7893 0 1
92.905 0 1
93.0208 0 1
93.1366 0 1
93.2525 0 1
93.3685 0 1
93.4845 0 1
93.6005 17595 132.646
93.7167 17514 132.34
93.8328 16537 128.596
93.949 15515 124.559
94.0653 14347 119.779
94.1816 13075 114.346
94.2979 12346 111.113
94.4143 11961 109.366
94.5307 12383 111.279
94.6472 13047 114.223
94.7637 13989 118.275
94.8803 15052 122.687
94.9969 15697 125.288
95.1135 16287 127.621
95.2302 16513 128.503
95.3469 16840 129.769
95.4637 17465 132.155
95.5805 17423 131.996
95.6973 17587 132.616
95.8142 17694 133.019
95.9311 17384 131.848
96.048 16734 129.36
96.1649 16153 127.094
96.2819 15608 124.932
96.3989 14910 122.107
96.516 14565 120.686
96.633 14439 120.162
96.7501 15253 123.503
96.8673 15964 126.349
96.9844 16391 128.027
97.1016 17024 130.476
97.2188 16774 129.514
97.336 16596 128.825
97.4532 16214 127.334
97.5704 15402 124.105
97.6877 14027 118.436
97.805 12881 113.494
97.9223 11890 109.041
98.0396 11458 107.042
98.1569 11507 107.271
98.2743 12173 110.331
98.3916 13286 115.265
98.509 14467 120.279
98.6264 15112 122.931
98.7438 15801 125.702
98.8612 16259 127.511
98.9786 16711 129.271
99.096 16925 130.096
99.2134 17157 130.985
99.3308 17509 132.322
99.4482 17493 132.261
99.5656 17318 131.598
99.6831 17039 130.534
99.8005 16265 127.534
99.9179 15568 124.772
100.035 14605 120.851
100.153 14230 119.29
100.27 15050 122.678
100.388 15936 126.238
100.505 16647 129.023
100.622 17020 130.461
100.74 16968 130.261
100.857 16781 129.541
100.975 17074 130.668
101.092 16221 127.362
101.209 15149 123.081
101.327 13904 117.915
101.444 12938 113.745
101.561 12115 110.068
101.679 11728 108.296
101.796 12015 109.613
101.913 12978 113.921
102.03 14159 118.992
102.148 15242 123.458
102.265 17319 131.602
102.382 15866 125.96
102.499 17346 131.704
102.616 17615 132.722
102.733 17757 133.255
102.851 18059 134.384
102.968 17989 134.123
103.085 18383 135.584
103.202 17872 133.686
103.319 17369 131.792
103.436 16377 127.973
103.552 15846 125.881
103.669 15458 124.33
103.786 15979 126.408
103.903 16950 130.192
104.02 17521 132.367
104.137 18241 135.059
104.253 18445 135.812
104.37 17877 133.705
104.487 18525 136.107
104.603 18062 134.395
104.72 16506 128.476
104.836 14987 122.421
104.953 13924 118
105.069 13430 115.888
105.186 12805 113.159
105.302 13340 115.499
105.418 14597 120.818
105.535 15801 125.702
105.651 16926 130.1
105.767 17819 133.488
105.883 18437 135.783
105.999 18599 136.378
106.115 0 1
106.231 0 1
106.347 0 1
106.463 0 1
106.579 0 1
106.694 0 1
106.81 0 1
106.926 0 1
107.041 0 1
107.157 0 1
109.576 0 1
109.692 0 1
109.807 0 1
109.923 0 1
110.039 0 1
110.155 0 1
110.27 0 1
110.386 0 1
110.502 0 1
110.618 15409 124.133
110.735 16459 128.293
110.851 17580 132.59
110.967 18014 134.216
111.083 18147 134.711
111.199 18317 135.34
111.316 19023 137.924
111.432 18974 137.746
111.549 18818 137.179
111.665 18827 137.212
111.782 18443 135.805
111.898 17831 133.533
112.015 16885 129.942
112.132 16056 126.712
112.248 16025 126.59
112.365 16494 128.429
112.482 17831 133.533
112.599 17973 134.063
112.716 18079 134.458
112.832 18063 134.399
112.949 17994 134.142
113.066 17940 133.94
113.183 16987 130.334
113.3 15527 124.607
113.417 14467 120.279
113.534 13598 116.61
113.652 12913 113.635
113.769 12356 111.158
113.886 12889 113.53
114.003 13858 117.72
114.12 14625 120.934
114.238 16079 126.803
114.355 16502 128.46
114.472 17903 133.802
114.589 16457 128.285
114.707 17601 132.669
114.824 17985 134.108
114.942 18065 134.406
115.059 18420 135.72
115.176 18155 134.74
115.294 17903 133.802
115.411 17784 133.357
115.529 17050 130.576
115.646 16535 128.588
115.764 16004 126.507
115.881 16194 127.256
115.999 17237 131.29
116.116 17868 133.671
116.234 18104 134.551
116.351 18317 135.34
116.469 17998 134.157
116.586 18239 135.052
116.704 17757 133.255
116.821 16424 128.156
116.939 15310 123.734
117.056 14411 120.046
117.174 13799 117.469
117.291 12868 113.437
117.409 12897 113.565
117.526 13730 117.175
117.644 14796 121.639
117.761 15612 124.948
117.879 16474 128.351
117.996 16927 130.104
118.114 17580 132.59
118.231 17989 134.123
118.349 18030 134.276
118.466 18341 135.429
118.584 18442 135.801
118.701 18670 136.638
118.819 18517 136.077
118.936 18164 134.774
119.053 17889 133.75
119.171 17144 130.935
119.288 16242 127.444
119.405 16113 126.937
119.523 16345 127.848
119.64 17098 130.759
119.757 17855 133.623
119.875 18105 134.555
119.992 17828 133.522
120.109 18020 134.239
120.226 18280 135.204
120.343 17779 133.338
120.46 16731 129.348
120.578 15698 125.292
120.695 14608 120.864
120.812 13847 117.673
120.929 13096 114.438
121.046 12789 113.088
121.163 13510 116.233
121.279 14199 119.16
121.396 14987 122.421
121.513 16145 127.063
121.63 16733 129.356
121.747 17408 131.939
121.863 17818 133.484
121.98 17862 133.649
122.097 18598 136.374
122.213 18257 135.118
122.33 18556 136.22
122.446 18366 135.521
122.563 18224 134.996
122.679 17749 133.225
122.795 17621 132.744
122.912 16826 129.715
123.028 16312 127.718
123.144 16139 127.039
123.26 16477 128.363
123.377 0 1
123.493 0 1
123.609 0 1
123.725 0 1
123.84 0 1
123.956 0 1
124.072 0 1
124.188 0 1
124.303 0 1
124.419 0 1
126.852 0 1
126.968 0 1
127.083 0 1
127.199 0 1
127.315 0 1
127.431 0 1
127.547 0 1
127.663 0 1
127.779 0 1
127.895 0 1
128.011 0 1
128.127 0 1
128.243 0 1
128.359 19275 138.834
128.476 19598 139.993
128.592 20796 144.208
128.708 21318 146.007
128.825 21892 147.959
128.941 21992 148.297
129.058 21920 148.054
129.174 21826 147.736
129.291 21229 145.702
129.408 20329 142.58
129.524 18959 137.692
129.641 17884 133.731
129.758 17227 131.252
129.875 16323 127.761
129.992 16016 126.554
130.108 16602 128.849
130.225 17240 131.301
130.342 17979 134.086
130.459 18394 135.624
130.576 19986 141.372
130.693 20056 141.619
130.81 20279 142.404
130.928 20892 144.541
131.045 21197 145.592
131.162 21409 146.318
131.279 21363 146.161
131.396 21480 146.561
131.513 21202 145.609
131.631 20975 144.827
131.748 20519 143.245
131.865 20004 141.435
131.983 19887 141.021
132.1 20569 143.419
132.217 21355 146.134
132.335 21618 147.031
132.452 21700 147.309
132.57 21622 147.044
132.687 20997 144.903
132.804 22097 148.651
132.922 20469 143.07
133.039 19311 138.964
133.157 18335 135.407
133.274 17388 131.864
133.392 16681 129.155
133.509 16014 126.546
133.627 16324 127.765
133.744 16742 129.391
133.862 17796 133.402
133.979 18654 136.58
134.097 19029 137.946
134.214 19651 140.182
134.332 19608 140.029
134.449 20391 142.797
134.567 20676 143.792
134.684 21069 145.152
134.802 20957 144.765
134.919 21219 145.667
135.037 20915 144.62
135.154 20545 143.335
135.272 20310 142.513
135.389 19934 141.188
135.507 19657 140.203
135.624 19899 141.064
135.742 20722 143.951
135.859 21094 145.238
135.977 21597 146.959
136.094 21321 146.017
136.211 21623 147.048
136.329 21342 146.089
136.446 21029 145.014
136.564 19946 141.23
136.681 18763 136.978
136.798 18333 135.399
136.915 17361 131.761
137.033 16468 128.328
137.15 16218 127.35
137.267 16400 128.062
137.384 16870 129.885
137.502 17560 132.514
137.619 17909 133.825
137.736 18632 136.499
137.853 18750 136.931
137.97 19766 140.592
138.087 19597 139.989
138.204 20467 143.063
138.321 20755 144.066
138.438 20893 144.544
138.555 21220 145.671
138.672 21365 146.168
138.788 21039 145.048
138.905 20759 144.08
139.022 19888 141.025
139.139 20241 142.271
139.255 20472 143.08
139.372 21037 145.041
139.488 21504 146.642
139.605 22101 148.664
139.721 21789 147.611
139.838 21852 147.824
139.954 22125 148.745
140.071 21259 145.805
140.187 21043 145.062
140.303 19605 140.018
140.419 18730 136.858
140.535 18097 134.525
140.652 17184 131.088
140.768 0 1
140.884 0 1
141 0 1
141.115 0 1
141.231 0 1
141.347 0 1
141.463 0 1
141.578 0 1
141.694 0 1
144.104 0 1
144.219 0 1
144.335 0 1
144.45 0 1
144.566 0 1
144.682 0 1
144.798 0 1
144.914 0 1
145.03 0 1
145.146 19831 140.823
145.262 19151 138.387
145.378 18384 135.588
145.494 18050 134.35
145.61 17402 131.917
145.726 16790 129.576
145.842 16419 128.137
145.959 16483 128.386
146.075 16929 130.111
146.192 17703 133.053
146.308 18313 135.326
146.425 18466 135.89
146.541 18874 137.383
146.658 19232 138.679
146.774 19698 140.35
146.891 19664 140.228
147.008 20125 141.863
147.125 20255 142.32
147.241 20539 143.314
147.358 20392 142.801
147.475 19836 140.84
147.592 19199 138.56
147.709 18904 137.492
147.826 19061 138.062
147.943 19798 140.705
148.06 19748 140.528
148.177 20786 144.174
148.294 20242 142.274
148.411 20572 143.429
148.528 20620 143.597
148.645 20141 141.919
148.762 19974 141.329
148.88 19256 138.766
148.997 18106 134.559
149.114 18091 134.503
149.231 17084 130.706
149.349 16505 128.472
149.466 15755 125.519
149.583 15820 125.778
149.701 16165 127.142
149.818 16437 128.207
149.935 17062 130.622
150.053 17384 131.848
150.17 17551 132.48
150.287 18109 134.57
150.405 18349 135.458
150.522 18849 137.292
150.64 19178 138.485
150.757 19318 138.989
150.875 19742 140.506
150.992 19286 138.874
151.11 18572 136.279
151.227 18450 135.831
151.344 18238 135.048
151.462 17797 133.405
151.579 18743 136.905
151.697 19334 139.047
151.814 19772 140.613
151.932 19938 141.202
152.049 20047 141.587
152.167 19841 140.858
152.284 19967 141.305
152.402 19286 138.874
152.519 18617 136.444
152.636 17911 133.832
152.754 17711 133.083
152.871 16835 129.75
152.989 16414 128.117
153.106 15841 125.861
153.223 15608 124.932
153.341 16078 126.799
153.458 16536 128.592
153.575 16836 129.754
153.693 17350 131.719
153.81 17572 132.559
153.927 17962 134.022
154.044 18580 136.308
154.162 18602 136.389
154.279 19291 138.892
154.396 19644 140.157
154.513 19964 141.294
154.63 19814 140.762
154.747 19169 138.452
154.864 19065 138.076
154.981 18592 136.352
155.098 18713 136.795
155.215 19412 139.327
155.332 19892 141.039
155.449 19819 140.78
155.566 19966 141.301
155.683 20027 141.517
155.8 19946 141.23
155.917 19996 141.407
156.033 19791 140.68
156.15 0 1
156.267 0 1
156.383 0 1
156.5 0 1
156.617 0 1
156.733 0 1
156.85 0 1
156.966 0 1
157.082 0 1
157.199 0 1
157.315 0 1
157.431 0 1
157.547 0 1
157.664 0 1
157.78 0 1
157.896 0 1
158.012 0 1
158.128 0 1
158.244 0 1
158.359 0 1
158.475 0 1
158.591 0 1
158.706 0 1
