
6.15755 0 1
6.2731 0 1
6.3887 0 1
6.50437 0 1
6.62009 0 1
6.73587 0 1
6.8517 0 1
6.96759 0 1
7.08353 0 1
7.19952 0 1
7.31557 0 1
7.43166 0 1
7.54781 0 1
7.664 0 1
7.78024 0 1
7.89653 0 1
8.01286 0 1
8.12924 0 1
8.24567 0 1
8.36213 0 1
8.47864 0 1
8.59519 0 1
8.71178 0 1
8.82841 0 1
8.94508 0 1
9.06179 0 1
9.17853 0 1
9.29531 0 1
9.41212 0 1
9.52897 0 1
9.64584 0 1
9.76276 0 1
9.8797 0 1
9.99667 0 1
10.1137 0 1
10.2307 0 1
10.3478 0 1
10.4648 0 1
10.5819 0 1
10.6991 0 1
10.8162 0 1
10.9334 0 1
11.0506 0 1
11.1678 0 1
11.285 0 1
11.4023 0 1
11.5196 0 1
11.6369 0 1
11.7542 0 1
11.8715 0 1
11.9888 0 1
12.1062 0 1
12.2235 0 1
12.3409 0 1
12.4582 0 1
12.5756 0 1
12.693 0 1
12.8104 0 1
12.9278 0 1
13.0452 0 1
13.1626 0 1
13.28 0 1
13.3974 0 1
13.5149 0 1
13.6323 0 1
13.7497 0 1
13.8671 0 1
13.9845 0 1
14.1019 0 1
14.2193 0 1
14.3367 0 1
14.4541 0 1
14.5714 0 1
14.6888 0 1
14.8062 0 1
14.9235 0 1
15.0408 2083 45.6399
15.1581 2143 46.2925
15.2755 2302 47.9792
15.3927 2272 47.6655
15.51 2407 49.0612
15.6273 2414 49.1325
15.7445 2382 48.8057
15.8617 2340 48.3735
15.9789 2157 46.4435
16.0961 2200 46.9042
16.2132 2196 46.8615
16.3304 2081 45.618
16.4475 2234 47.2652
16.5646 2145 46.3141
16.6816 2223 47.1487
16.7986 2103 45.8585
16.9156 2163 46.5081
17.0326 2100 45.8258
17.1496 2055 45.3321
17.2665 2103 45.8585
17.3833 2083 45.6399
17.5002 2099 45.8148
17.617 2045 45.2217
17.7338 2067 45.4643
17.8505 2025 45
17.9672 2160 46.4758
18.0839 2283 47.7807
18.2005 2265 47.592
18.3171 2207 46.9787
18.4337 2218 47.0956
18.5502 2242 47.3498
18.6666 2344 48.4149
18.7831 2453 49.5278
18.8994 2400 48.9898
19.0158 2240 47.3286
19.1321 2216 47.0744
19.2483 2083 45.6399
19.3645 1831 42.7902
19.4806 1737 41.6773
19.5967 1594 39.9249
19.7128 1469 38.3275
19.8288 1393 37.3229
19.9447 1247 35.3129
20.0606 0 1
20.1764 0 1
20.2922 0 1
20.4079 0 1
20.5236 0 1
20.6392 0 1
20.7548 0 1
20.8702 0 1
23.3078 0 1
23.4233 0 1
23.539 0 1
23.6547 0 1
23.7704 0 1
23.8862 0 1
24.0021 0 1
24.118 0 1
24.234 0 1
24.35 0 1
24.4661 913 30.2159
24.5822 1064 32.619
24.6984 1118 33.4365
24.8146 1161 34.0735
24.9309 1336 36.5513
25.0472 1354 36.7967
25.1636 1561 39.5095
25.28 1632 40.398
25.3965 1733 41.6293
25.513 1919 43.8064
25.6296 2022 44.9667
25.7462 2215 47.0638
25.8628 2270 47.6445
25.9795 2342 48.3942
26.0962 2406 49.051
26.213 2364 48.621
26.3298 2263 47.571
26.4466 2218 47.0956
26.5635 2136 46.2169
26.6804 2100 45.8258
26.7973 2171 46.594
26.9143 2211 47.0213
27.0313 2201 46.9148
27.1483 2244 47.3709
27.2653 2365 48.6313
27.3824 2367 48.6518
27.4996 2216 47.0744
27.6167 2271 47.655
27.7339 2223 47.1487
27.8511 2173 46.6154
27.9683 2062 45.4093
28.0855 1889 43.4626
28.2028 1956 44.2267
28.3201 1886 43.4281
28.4374 1729 41.5812
28.5547 1683 41.0244
28.6721 1788 42.2847
28.7894 1937 44.0114
28.9068 2014 44.8776
29.0242 2015 44.8888
29.1416 2015 44.8888
29.259 2048 45.2548
29.3764 2096 45.7821
29.4939 2113 45.9674
29.6113 2121 46.0543
29.7288 2144 46.3033
29.8463 2122 46.0652
29.9638 2084 45.6508
30.0812 1992 44.6318
30.1987 2033 45.0888
30.3162 2095 45.7712
30.4337 2282 47.7703
30.5512 2146 46.3249
30.6687 2193 46.8295
30.7862 2136 46.2169
30.9037 2216 47.0744
31.0212 2300 47.9583
31.1387 2117 46.0109
31.2562 2110 45.9347
31.3737 2134 46.1952
31.4912 2065 45.4423
31.6087 1968 44.3621
31.7262 1894 43.5201
31.8436 1779 42.1782
31.9611 1633 40.4104
32.0785 1736 41.6653
32.1959 1784 42.2374
32.3134 1862 43.1509
32.4308 1942 44.0681
32.5482 2096 45.7821
32.6655 1960 44.2719
32.7829 2031 45.0666
32.9002 1981 44.5084
33.0176 2089 45.7056
33.1349 2126 46.1086
33.2522 2087 45.6837
33.3694 2167 46.551
33.4867 2086 45.6727
33.6039 1962 44.2945
33.7211 1960 44.2719
33.8383 1959 44.2606
33.9554 2024 44.9889
34.0725 2155 46.422
34.1896 2135 46.2061
34.3067 2133 46.1844
34.4237 2171 46.594
34.5407 2263 47.571
34.6577 2262 47.5605
34.7746 2128 46.1303
34.8915 2100 45.8258
35.0084 2061 45.3982
35.1252 1968 44.3621
35.242 1871 43.2551
35.3587 1944 44.0908
35.4755 1884 43.4051
35.5921 1798 42.4028
35.7088 1583 39.7869
35.8254 1680 40.9878
35.9419 1699 41.2189
36.0584 1717 41.4367
36.1749 1858 43.1045
36.2913 1835 42.8369
36.4077 1890 43.4741
36.524 1862 43.1509
36.6403 1828 42.7551
36.7565 1764 42
36.8727 1748 41.8091
36.9889 1687 41.0731
37.1049 1676 40.939
37.221 0 1
37.3369 0 1
37.4529 0 1
37.5687 0 1
37.6845 0 1
37.8003 0 1
37.916 0 1
38.0316 0 1
38.1472 0 1
40.5851 0 1
40.7008 0 1
40.8164 0 1
40.9322 0 1
41.048 0 1
41.1639 0 1
41.2798 0 1
41.3958 0 1
41.5118 0 1
41.6279 0 1
41.744 950 30.8221
41.8602 1038 32.218
41.9765 1188 34.4674
42.0928 1209 34.7707
42.2091 1227 35.0286
42.3255 1352 36.7696
42.4419 1380 37.1484
42.5584 1496 38.6782
42.675 1594 39.9249
42.7915 1715 41.4126
42.9081 1854 43.0581
43.0248 1943 44.0795
43.1415 1928 43.909
43.2582 1997 44.6878
43.375 1992 44.6318
43.4918 1969 44.3734
43.6087 2026 45.0111
43.7256 1940 44.0454
43.8425 1961 44.2832
43.9595 1947 44.1248
44.0765 1971 44.3959
44.1935 1828 42.7551
44.3106 1808 42.5206
44.4277 1608 40.0999
44.5448 1571 39.6358
44.6619 1553 39.4081
44.7791 1642 40.5216
44.8963 1786 42.2611
45.0136 1845 42.9535
45.1308 1824 42.7083
45.2481 1916 43.7721
45.3654 1932 43.9545
45.4827 1943 44.0795
45.6001 1948 44.1362
45.7174 1881 43.3705
45.8348 1916 43.7721
45.9522 1955 44.2154
46.0697 1914 43.7493
46.1871 1841 42.9069
46.3046 2002 44.7437
46.422 1991 44.6206
46.5395 2097 45.793
46.657 2068 45.4753
46.7745 2166 46.5403
46.892 2156 46.4327
47.0096 2242 47.3498
47.1271 2176 46.6476
47.2446 2253 47.4658
47.3622 2268 47.6235
47.4797 2220 47.1169
47.5973 2136 46.2169
47.7149 2116 46
47.8324 2025 45
47.95 1877 43.3244
48.0675 1691 41.1218
48.1851 1664 40.7922
48.3027 1723 41.509
48.4202 1920 43.8178
48.5378 2000 44.7214
48.6554 2097 45.793
48.7729 2007 44.7996
48.8904 2149 46.3573
49.008 2125 46.0977
49.1255 2157 46.4435
49.243 2135 46.2061
49.3605 2143 46.2925
49.478 2109 45.9239
49.5955 2036 45.1221
49.713 2065 45.4423
49.8304 2214 47.0532
49.9479 2098 45.8039
50.0653 2393 48.9183
50.1827 2319 48.156
50.3001 2320 48.1664
50.4175 2416 49.1528
50.5348 2421 49.2037
50.6521 2423 49.224
50.7694 2487 49.8698
50.8867 2541 50.4083
51.004 2343 48.4045
51.1212 2291 47.8644
51.2384 2270 47.6445
51.3556 2093 45.7493
51.4727 2053 45.31
51.5899 1854 43.0581
51.707 1832 42.8019
51.824 2024 44.9889
51.9411 2157 46.4435
52.0581 2303 47.9896
52.175 2326 48.2286
52.2919 2395 48.9387
52.4088 2454 49.5379
52.5257 2352 48.4974
52.6425 2379 48.775
52.7593 2384 48.8262
52.876 2320 48.1664
52.9927 2336 48.3322
53.1094 2298 47.9375
53.226 2269 47.634
53.3426 2362 48.6004
53.4591 2423 49.224
53.5756 2273 47.676
53.692 2338 48.3529
53.8084 2346 48.4355
53.9248 2285 47.8017
54.0411 2199 46.8935
54.1573 2019 44.9333
54.2735 0 1
54.3896 0 1
54.5057 0 1
54.6217 0 1
54.7377 0 1
54.8537 0 1
54.9695 0 1
55.0853 0 1
55.2011 0 1
55.3168 0 1
55.4324 0 1
57.824 0 1
57.9396 0 1
58.0553 0 1
58.1711 0 1
58.2869 0 1
58.4028 0 1
58.5187 0 1
58.6347 0 1
58.7508 0 1
58.8669 0 1
58.983 1826 42.7317
59.0992 2201 46.9148
59.2155 2321 48.1768
59.3318 2752 52.4595
59.4482 2961 54.4151
59.5646 3172 56.3205
59.681 3366 58.0172
59.7975 3272 57.2014
59.9141 3354 57.9137
60.0306 3357 57.9396
60.1473 3197 56.542
60.2639 3068 55.3895
60.3807 3035 55.0908
60.4974 2902 53.8702
60.6142 3166 56.2672
60.731 3384 58.1722
60.8479 3672 60.597
60.9648 3919 62.6019
61.0818 3812 61.7414
61.1987 3994 63.1981
61.3158 3961 62.9365
61.4328 3900 62.45
61.5499 3926 62.6578
61.667 4029 63.4744
61.7841 3851 62.0564
61.9013 3790 61.563
62.0185 3843 61.9919
62.1357 3939 62.7615
62.253 4039 63.5531
62.3702 4134 64.2962
62.4875 4281 65.4294
62.6049 4302 65.5896
62.7222 4417 66.4605
62.8396 4322 65.7419
62.9569 4656 68.2349
63.0743 4552 67.4685
63.1918 4415 66.4455
63.3092 4248 65.1767
63.4267 4195 64.7688
63.5441 3922 62.6259
63.6616 3692 60.7618
63.7791 3338 57.7754
63.8966 3123 55.8838
64.0142 3285 57.3149
64.1317 3491 59.0847
64.2492 3721 61
64.3668 3961 62.9365
64.4843 4025 63.4429
64.6019 4159 64.4903
64.7195 4230 65.0385
64.837 4256 65.238
64.9546 4131 64.2729
65.0722 4223 64.9846
65.1898 4142 64.3584
65.3074 4231 65.0461
65.4249 4036 63.5295
65.5425 4182 64.6684
65.6601 4096 64
65.7777 4122 64.2028
65.8952 4337 65.8559
66.0128 4294 65.5286
66.1304 4384 66.2118
66.2479 4519 67.2235
66.3655 4625 68.0074
66.483 4709 68.6222
66.6005 4792 69.2243
66.718 4724 68.7314
66.8355 4515 67.1937
66.953 4347 65.9318
67.0705 4189 64.7225
67.1879 3942 62.7853
67.3054 3506 59.2115
67.4228 3242 56.9386
67.5402 2977 54.5619
67.6576 3195 56.5243
67.7749 3486 59.0424
67.8923 3885 62.3298
68.0096 4074 63.8279
68.1269 4241 65.123
68.2442 4099 64.0234
68.3614 4346 65.9242
68.4787 4287 65.4752
68.5958 4327 65.7799
68.713 4275 65.3835
68.8302 4352 65.9697
68.9473 4303 65.5973
69.0643 4211 64.8922
69.1814 4176 64.622
69.2984 4077 63.8514
69.4154 4200 64.8074
69.5323 4213 64.9076
69.6492 4204 64.8383
69.7661 4449 66.7008
69.8829 4387 66.2344
69.9997 4360 66.0303
70.1165 4330 65.8027
70.2332 4340 65.8787
70.3499 4224 64.9923
70.4665 4017 63.3798
70.5831 3731 61.0819
70.6996 3618 60.1498
70.8161 3216 56.7098
70.9326 2640 51.3809
71.049 2138 46.2385
71.1653 1798 42.4028
71.2817 1605 40.0625
71.3979 1645 40.5586
71.5141 1674 40.9145
71.6303 1636 40.4475
71.7464 1511 38.8716
71.8624 0 1
71.9784 0 1
72.0944 0 1
72.2102 0 1
72.3261 0 1
72.4418 0 1
72.5575 0 1
72.6732 0 1
75.1054 0 1
75.2209 0 1
75.3365 0 1
75.4521 0 1
75.5678 0 1
75.6835 0 1
75.7993 0 1
75.9151 0 1
76.031 0 1
76.147 2230 47.2229
76.263 2262 47.5605
76.3791 2281 47.7598
76.4952 2154 46.4112
76.6113 2388 48.8672
76.7276 2638 51.3615
76.8438 3041 55.1453
76.9601 3473 58.9322
77.0765 3528 59.397
77.1929 3805 61.6847
77.3093 3853 62.0725
77.4258 3853 62.0725
77.5423 3971 63.0159
77.6589 3932 62.7057
77.7755 3862 62.145
77.8921 3762 61.3351
78.0088 3701 60.8358
78.1256 3686 60.7124
78.2423 3695 60.7865
78.3591 3647 60.3904
78.4759 3727 61.0492
78.5928 3837 61.9435
78.7097 4022 63.4192
78.8266 3909 62.522
78.9436 4157 64.4748
79.0606 4253 65.215
79.1776 4249 65.1844
79.2946 4267 65.3223
79.4117 4263 65.2917
79.5288 4110 64.1093
79.6459 4073 63.8201
79.7631 3623 60.1914
79.8802 3337 57.7668
79.9974 3058 55.2992
80.1147 2750 52.4404
80.2319 2739 52.3355
80.3491 2921 54.0463
80.4664 3286 57.3236
80.5837 3629 60.2412
80.701 3731 61.0819
80.8183 3820 61.8061
80.9357 3997 63.2218
81.053 4012 63.3404
81.1704 4049 63.6318
81.2877 4060 63.7181
81.4051 3994 63.1981
81.5225 3956 62.8967
81.6399 3852 62.0645
81.7573 3963 62.9524
81.8747 3784 61.5142
81.9922 3930 62.6897
82.1096 3864 62.1611
82.227 3898 62.434
82.3444 3982 63.1031
82.4619 4139 64.3351
82.5793 4190 64.7302
82.6967 4446 66.6783
82.8142 4406 66.3777
82.9316 4532 67.3201
83.049 4507 67.1342
83.1664 4290 65.4981
83.2838 3926 62.6578
83.4012 3950 62.849
83.5186 3499 59.1523
83.636 3120 55.857
83.7534 2741 52.3546
83.8708 2731 52.259
83.9881 2885 53.7122
84.1055 3267 57.1577
84.2228 3700 60.8276
84.3401 3914 62.562
84.4575 3999 63.2376
84.5747 4108 64.0937
84.692 4192 64.7457
84.8093 4214 64.9153
84.9265 4277 65.3988
85.0437 4117 64.1639
85.1609 4023 63.4271
85.2781 3939 62.7615
85.3952 3888 62.3538
85.5123 3934 62.7216
85.6294 3877 62.2656
85.7465 3965 62.9682
85.8636 3971 63.0159
85.9806 4037 63.5374
86.0976 4241 65.123
86.2145 4322 65.7419
86.3315 4555 67.4907
86.4484 4334 65.8331
86.5652 4457 66.7608
86.682 4318 65.7115
86.7988 4269 65.3376
86.9156 4176 64.622
87.0323 3692 60.7618
87.149 3450 58.7367
87.2657 3067 55.3805
87.3823 2784 52.7636
87.4988 2835 53.2447
87.6154 3020 54.9545
87.7318 3415 58.438
87.8483 3681 60.6712
87.9647 3568 59.7327
88.081 3696 60.7947
88.1973 3586 59.8832
88.3136 3411 58.4038
88.4298 3109 55.7584
88.546 2723 52.1824
88.6621 2238 47.3075
88.7781 1962 44.2945
88.8942 0 1
89.0101 0 1
89.126 0 1
89.2419 0 1
89.3577 0 1
89.4734 0 1
89.5891 0 1
89.7047 0 1
89.8203 0 1
89.9358 0 1
92.3269 0 1
92.4424 0 1
92.558 0 1
92.6736 0 1
92.7893 0 1
92.905 0 1
93.0208 0 1
93.1366 0 1
93.2525 0 1
93.3685 0 1
93.4845 0 1
93.6005 2869 53.563
93.7167 3113 55.7943
93.8328 3374 58.0861
93.949 3558 59.649
94.0653 3846 62.0161
94.1816 4042 63.5767
94.2979 4132 64.2806
94.4143 4061 63.726
94.5307 4143 64.3661
94.6472 4116 64.1561
94.7637 4106 64.0781
94.8803 4205 64.846
94.9969 4334 65.8331
95.1135 4378 66.1665
95.2302 4588 67.7348
95.3469 4704 68.5857
95.4637 4724 68.7314
95.5805 4777 69.1158
95.6973 4618 67.9559
95.8142 4562 67.5426
95.9311 4408 66.3928
96.048 4230 65.0385
96.1649 3819 61.7981
96.2819 3540 59.4979
96.3989 3281 57.28
96.516 3224 56.7803
96.633 3163 56.2406
96.7501 3407 58.3695
96.8673 3695 60.7865
96.9844 3934 62.7216
97.1016 4189 64.7225
97.2188 4460 66.7832
97.336 4313 65.6734
97.4532 4371 66.1135
97.5704 4357 66.0076
97.6877 4339 65.8711
97.805 4232 65.0538
97.9223 4159 64.4903
98.0396 4070 63.7966
98.1569 4010 63.3246
98.2743 4105 64.0703
98.3916 4051 63.6475
98.509 4355 65.9924
98.6264 4425 66.5207
98.7438 4390 66.2571
98.8612 4575 67.6387
98.9786 4779 69.1303
99.096 4756 68.9638
99.2134 4703 68.5784
99.3308 4891 69.9357
99.4482 4690 68.4836
99.5656 4286 65.4675
99.6831 4198 64.792
99.8005 4054 63.671
99.9179 3583 59.8582
100.035 3454 58.7707
100.153 3472 58.9237
100.27 3705 60.8687
100.388 3874 62.2415
100.505 4155 64.4593
100.622 4363 66.053
100.74 4311 65.6582
100.857 4505 67.1193
100.975 4505 67.1193
101.092 4385 66.2193
101.209 4525 67.2681
101.327 4333 65.8255
101.444 4290 65.4981
101.561 4221 64.9692
101.679 4132 64.2806
101.796 4174 64.6065
101.913 4195 64.7688
102.03 4290 65.4981
102.148 4362 66.0454
102.265 4694 68.5128
102.382 4682 68.4251
102.499 4775 69.1014
102.616 4814 69.383
102.733 4861 69.7209
102.851 4764 69.0217
102.968 4791 69.217
103.085 4591 67.7569
103.202 4323 65.7495
103.319 4027 63.4586
103.436 3724 61.0246
103.552 3552 59.5987
103.669 3617 60.1415
103.786 3646 60.3821
103.903 3900 62.45
104.02 4167 64.5523
104.137 4282 65.437
104.253 4350 65.9545
104.37 4425 66.5207
104.487 4390 66.2571
104.603 4389 66.2495
104.72 4129 64.2573
104.836 4053 63.6632
104.953 3897 62.426
105.069 3823 61.8304
105.186 3613 60.1082
105.302 3556 59.6322
105.418 3450 58.7367
105.535 3361 57.9741
105.651 3375 58.0948
105.767 3170 56.3028
105.883 2904 53.8888
105.999 2510 50.0999
106.115 0 1
106.231 0 1
106.347 0 1
106.463 0 1
106.579 0 1
106.694 0 1
106.81 0 1
106.926 0 1
107.041 0 1
107.157 0 1
109.576 0 1
109.692 0 1
109.807 0 1
109.923 0 1
110.039 0 1
110.155 0 1
110.27 0 1
110.386 0 1
110.502 0 1
110.618 2134 46.1952
110.735 2330 48.2701
110.851 2838 53.2729
110.967 3163 56.2406
111.083 3573 59.7746
111.199 3914 62.562
111.316 3930 62.6897
111.432 4104 64.0625
111.549 4285 65.4599
111.665 4186 64.6993
111.782 4104 64.0625
111.898 3934 62.7216
112.015 3640 60.3324
112.132 3371 58.0603
112.248 3042 55.1543
112.365 3090 55.5878
112.482 3511 59.2537
112.599 3678 60.6465
112.716 3932 62.7057
112.832 4017 63.3798
112.949 4046 63.6082
113.066 3993 63.1902
113.183 4091 63.9609
113.3 3993 63.1902
113.417 3929 62.6817
113.534 3734 61.1065
113.652 3728 61.0574
113.769 3625 60.208
113.886 3562 59.6825
114.003 3514 59.279
114.12 3825 61.8466
114.238 3920 62.6099
114.355 4079 63.867
114.472 4198 64.792
114.589 4225 65
114.707 4233 65.0615
114.824 4440 66.6333
114.942 4274 65.3758
115.059 4188 64.7148
115.176 4246 65.1613
115.294 4034 63.5138
115.411 3899 62.442
115.529 3586 59.8832
115.646 3414 58.4294
115.764 3206 56.6216
115.881 3041 55.1453
115.999 3292 57.376
116.116 3543 59.5231
116.234 3852 62.0645
116.351 3824 61.8385
116.469 3848 62.0322
116.586 3867 62.1852
116.704 3895 62.4099
116.821 3807 61.7009
116.939 3812 61.7414
117.056 3704 60.8605
117.174 3489 59.0678
117.291 3570 59.7495
117.409 3395 58.2666
117.526 3520 59.3296
117.644 3533 59.439
117.761 3715 60.9508
117.879 3670 60.5805
117.996 3918 62.5939
118.114 4165 64.5368
118.231 4077 63.8514
118.349 3952 62.8649
118.466 4036 63.5295
118.584 4004 63.2772
118.701 3973 63.0317
118.819 4020 63.4035
118.936 3644 60.3656
119.053 3663 60.5227
119.171 3464 58.8558
119.288 3212 56.6745
119.405 3072 55.4256
119.523 3060 55.3173
119.64 3263 57.1227
119.757 3438 58.6345
119.875 3598 59.9833
119.992 3730 61.0737
120.109 3589 59.9083
120.226 3500 59.1608
120.343 3601 60.0083
120.46 3683 60.6877
120.578 3575 59.7913
120.695 3271 57.1927
120.812 3345 57.836
120.929 3358 57.9483
121.046 3163 56.2406
121.163 3171 56.3116
121.279 3222 56.7627
121.396 3263 57.1227
121.513 3403 58.3352
121.63 3417 58.4551
121.747 3452 58.7537
121.863 3368 58.0345
121.98 3415 58.438
122.097 3486 59.0424
122.213 3265 57.1402
122.33 3257 57.0701
122.446 3016 54.9181
122.563 2795 52.8678
122.679 2614 51.1273
122.795 2198 46.8828
122.912 1975 44.441
123.028 1769 42.0595
123.144 1676 40.939
123.26 1584 39.7995
123.377 0 1
123.493 0 1
123.609 0 1
123.725 0 1
123.84 0 1
123.956 0 1
124.072 0 1
124.188 0 1
124.303 0 1
124.419 0 1
126.852 0 1
126.968 0 1
127.083 0 1
127.199 0 1
127.315 0 1
127.431 0 1
127.547 0 1
127.663 0 1
127.779 0 1
127.895 0 1
128.011 0 1
128.127 0 1
128.243 0 1
128.359 3481 59
128.476 3276 57.2364
128.592 3330 57.7062
128.708 3665 60.5392
128.825 3879 62.2816
128.941 3993 63.1902
129.058 4050 63.6396
129.174 3970 63.0079
129.291 4053 63.6632
129.408 3954 62.8808
129.524 3971 63.0159
129.641 3892 62.3859
129.758 3802 61.6604
129.875 3711 60.918
129.992 3487 59.0508
130.108 3678 60.6465
130.225 3525 59.3717
130.342 3724 61.0246
130.459 3773 61.4248
130.576 4251 65.1997
130.693 4131 64.2729
130.81 4199 64.7997
130.928 4135 64.304
131.045 4164 64.5291
131.162 4323 65.7495
131.279 4371 66.1135
131.396 4143 64.3661
131.513 4349 65.9469
131.631 4122 64.2028
131.748 3844 62
131.865 3705 60.8687
131.983 3567 59.7244
132.1 3465 58.8643
132.217 3562 59.6825
132.335 3760 61.3188
132.452 3918 62.5939
132.57 4154 64.4515
132.687 3975 63.0476
132.804 4114 64.1405
132.922 4076 63.8436
133.039 4022 63.4192
133.157 4058 63.7024
133.274 3890 62.3699
133.392 3676 60.63
133.509 3684 60.696
133.627 3638 60.3158
133.744 3522 59.3464
133.862 3835 61.9274
133.979 3968 62.9921
134.097 4131 64.2729
134.214 4227 65.0154
134.332 4140 64.3428
134.449 4154 64.4515
134.567 4103 64.0547
134.684 4235 65.0769
134.802 4285 65.4599
134.919 4337 65.8559
135.037 4094 63.9844
135.154 4141 64.3506
135.272 3942 62.7853
135.389 3858 62.1128
135.507 3624 60.1997
135.624 3445 58.6941
135.742 3540 59.4979
135.859 3658 60.4814
135.977 3926 62.6578
136.094 3975 63.0476
136.211 4039 63.5531
136.329 3945 62.8092
136.446 3933 62.7136
136.564 3844 62
136.681 4050 63.6396
136.798 3919 62.6019
136.915 3728 61.0574
137.033 3635 60.291
137.15 3432 58.5833
137.267 3454 58.7707
137.384 3600 60
137.502 3570 59.7495
137.619 3994 63.1981
137.736 3923 62.6339
137.853 3761 61.327
137.97 3985 63.1269
138.087 3925 62.6498
138.204 3955 62.8888
138.321 3900 62.45
138.438 4031 63.4902
138.555 3929 62.6817
138.672 3837 61.9435
138.788 3680 60.663
138.905 3548 59.5651
139.022 3379 58.1292
139.139 3254 57.0438
139.255 2915 53.9907
139.372 3112 55.7853
139.488 2910 53.9444
139.605 2994 54.7175
139.721 2956 54.3691
139.838 2764 52.5738
139.954 2585 50.8429
140.071 2288 47.833
140.187 2187 46.7654
140.303 2050 45.2769
140.419 1861 43.1393
140.535 1822 42.6849
140.652 1609 40.1123
140.768 0 1
140.884 0 1
141 0 1
141.115 0 1
141.231 0 1
141.347 0 1
141.463 0 1
141.578 0 1
141.694 0 1
144.104 0 1
144.219 0 1
144.335 0 1
144.45 0 1
144.566 0 1
144.682 0 1
144.798 0 1
144.914 0 1
145.03 0 1
145.146 2862 53.4977
145.262 2945 54.2679
145.378 2926 54.0925
145.494 3019 54.9454
145.61 2947 54.2863
145.726 2800 52.915
145.842 2733 52.2781
145.959 2747 52.4118
146.075 2674 51.7107
146.192 2734 52.2877
146.308 2784 52.7636
146.425 2968 54.4794
146.541 2995 54.7266
146.658 3163 56.2406
146.774 3080 55.4977
146.891 3093 55.6147
147.008 3070 55.4076
147.125 3038 55.1181
147.241 3101 55.6866
147.358 3129 55.9375
147.475 3215 56.701
147.592 2994 54.7175
147.709 2840 53.2917
147.826 2925 54.0833
147.943 2729 52.2398
148.06 2750 52.4404
148.177 2799 52.9056
148.294 2833 53.2259
148.411 3028 55.0273
148.528 3131 55.9553
148.645 3010 54.8635
148.762 3073 55.4346
148.88 3033 55.0727
148.997 3146 56.0892
149.114 2940 54.2218
149.231 3054 55.263
149.349 2864 53.5164
149.466 2752 52.4595
149.583 2712 52.0769
149.701 2609 51.0784
149.818 2570 50.6952
149.935 2692 51.8845
150.053 2827 53.1695
150.17 2905 53.8981
150.287 3037 55.109
150.405 2998 54.754
150.522 2967 54.4702
150.64 3039 55.1271
150.757 3050 55.2268
150.875 3068 55.3895
150.992 3034 55.0818
151.11 3019 54.9454
151.227 2971 54.5069
151.344 3020 54.9545
151.462 2802 52.9339
151.579 2676 51.7301
151.697 2541 50.4083
151.814 2676 51.7301
151.932 2808 52.9906
152.049 2836 53.2541
152.167 2992 54.6992
152.284 2960 54.4059
152.402 3058 55.2992
152.519 2961 54.4151
152.636 2875 53.619
152.754 2963 54.4334
152.871 2819 53.0943
152.989 2698 51.9423
153.106 2655 51.5267
153.223 2647 51.449
153.341 2504 50.04
153.458 2529 50.2892
153.575 2616 51.1468
153.693 2831 53.2071
153.81 2774 52.6688
153.927 2765 52.5833
154.044 2808 52.9906
154.162 2856 53.4416
154.279 2828 53.1789
154.396 2866 53.535
154.513 2994 54.7175
154.63 3005 54.8179
154.747 2906 53.9073
154.864 2793 52.8488
154.981 2743 52.3737
155.098 2657 51.5461
155.215 2528 50.2792
155.332 2547 50.4678
155.449 2584 50.8331
155.566 2707 52.0288
155.683 2627 51.2543
155.8 2703 51.9904
155.917 2637 51.3517
156.033 2593 50.9215
156.15 0 1
156.267 0 1
156.383 0 1
156.5 0 1
156.617 0 1
156.733 0 1
156.85 0 1
156.966 0 1
157.082 0 1
157.199 0 1
157.315 0 1
157.431 0 1
157.547 0 1
157.664 0 1
157.78 0 1
157.896 0 1
158.012 0 1
158.128 0 1
158.244 0 1
158.359 0 1
158.475 0 1
158.591 0 1
158.706 0 1
