
6.15755 0 1
6.2731 0 1
6.3887 0 1
6.50437 0 1
6.62009 0 1
6.73587 0 1
6.8517 0 1
6.96759 0 1
7.08353 0 1
7.19952 0 1
7.31557 0 1
7.43166 0 1
7.54781 0 1
7.664 0 1
7.78024 0 1
7.89653 0 1
8.01286 0 1
8.12924 0 1
8.24567 0 1
8.36213 0 1
8.47864 0 1
8.59519 0 1
8.71178 0 1
8.82841 0 1
8.94508 0 1
9.06179 0 1
9.17853 0 1
9.29531 0 1
9.41212 0 1
9.52897 0 1
9.64584 0 1
9.76276 0 1
9.8797 0 1
9.99667 0 1
10.1137 0 1
10.2307 0 1
10.3478 0 1
10.4648 0 1
10.5819 0 1
10.6991 0 1
10.8162 0 1
10.9334 0 1
11.0506 0 1
11.1678 0 1
11.285 0 1
11.4023 0 1
11.5196 0 1
11.6369 0 1
11.7542 0 1
11.8715 0 1
11.9888 0 1
12.1062 0 1
12.2235 0 1
12.3409 0 1
12.4582 0 1
12.5756 0 1
12.693 0 1
12.8104 0 1
12.9278 0 1
13.0452 0 1
13.1626 0 1
13.28 0 1
13.3974 0 1
13.5149 0 1
13.6323 0 1
13.7497 0 1
13.8671 0 1
13.9845 0 1
14.1019 0 1
14.2193 0 1
14.3367 0 1
14.4541 0 1
14.5714 0 1
14.6888 0 1
14.8062 0 1
14.9235 0 1
15.0408 0 0
15.1581 0 0
15.2755 0 0
15.3927 0 0
15.51 0 0
15.6273 0 0
15.7445 0 0
15.8617 0 0
15.9789 0 0
16.0961 0 0
16.2132 0 0
16.3304 0 0
16.4475 0 0
16.5646 0 0
16.6816 0 0
16.7986 0 0
16.9156 0 0
17.0326 0 0
17.1496 0 0
17.2665 0 0
17.3833 0 0
17.5002 0 0
17.617 0 0
17.7338 0 0
17.8505 0 0
17.9672 0 0
18.0839 0 0
18.2005 0 0
18.3171 0 0
18.4337 0 0
18.5502 0 0
18.6666 0 0
18.7831 0 0
18.8994 0 0
19.0158 0 0
19.1321 0 0
19.2483 0 0
19.3645 0 0
19.4806 0 0
19.5967 0 0
19.7128 0 0
19.8288 0 0
19.9447 0 0
20.0606 0 1
20.1764 0 1
20.2922 0 1
20.4079 0 1
20.5236 0 1
20.6392 0 1
20.7548 0 1
20.8702 0 1
23.3078 0 1
23.4233 0 1
23.539 0 1
23.6547 0 1
23.7704 0 1
23.8862 0 1
24.0021 0 1
24.118 0 1
24.234 0 1
24.35 0 1
24.4661 12772 113.013
24.5822 12657 112.503
24.6984 12768 112.996
24.8146 12763 112.973
24.9309 12856 113.384
25.0472 12831 113.274
25.1636 13308 115.36
25.28 13309 115.365
25.3965 13882 117.822
25.513 14079 118.655
25.6296 14288 119.532
25.7462 14288 119.532
25.8628 14388 119.95
25.9795 14423 120.096
26.0962 14206 119.189
26.213 14311 119.629
26.3298 13917 117.97
26.4466 13932 118.034
26.5635 13789 117.427
26.6804 13536 116.344
26.7973 13260 115.152
26.9143 12719 112.779
27.0313 12406 111.382
27.1483 12367 111.207
27.2653 12754 112.934
27.3824 12459 111.62
27.4996 12334 111.059
27.6167 12082 109.918
27.7339 11486 107.173
27.8511 10989 104.828
27.9683 10925 104.523
28.0855 10454 102.245
28.2028 10620 103.053
28.3201 10497 102.455
28.4374 10422 102.088
28.5547 10690 103.392
28.6721 11159 105.636
28.7894 11310 106.348
28.9068 11576 107.592
29.0242 11890 109.041
29.1416 11993 109.513
29.259 11860 108.904
29.3764 12027 109.668
29.4939 12014 109.608
29.6113 12101 110.005
29.7288 12011 109.595
29.8463 12278 110.806
29.9638 11978 109.444
30.0812 12041 109.731
30.1987 11919 109.174
30.3162 11808 108.665
30.4337 11239 106.014
30.5512 11102 105.366
30.6687 10963 104.704
30.7862 11232 105.981
30.9037 11218 105.915
31.0212 11104 105.376
31.1387 11084 105.281
31.2562 10841 104.12
31.3737 10457 102.259
31.4912 10241 101.198
31.6087 10280 101.39
31.7262 10013 100.065
31.8436 10025 100.125
31.9611 10210 101.045
32.0785 10318 101.578
32.1959 10677 103.33
32.3134 10792 103.885
32.4308 11066 105.195
32.5482 11207 105.863
32.6655 11435 106.935
32.7829 11714 108.231
32.9002 11672 108.037
33.0176 11480 107.145
33.1349 11597 107.689
33.2522 11640 107.889
33.3694 11719 108.254
33.4867 11605 107.727
33.6039 11670 108.028
33.7211 11717 108.245
33.8383 11640 107.889
33.9554 11300 106.301
34.0725 11096 105.338
34.1896 10853 104.178
34.3067 10588 102.898
34.4237 10690 103.392
34.5407 10721 103.542
34.6577 10881 104.312
34.7746 10536 102.645
34.8915 10578 102.849
35.0084 10058 100.29
35.1252 10018 100.09
35.242 9724 98.6103
35.3587 9638 98.1733
35.4755 9696 98.4683
35.5921 9910 99.549
35.7088 10243 101.208
35.8254 10122 100.608
35.9419 10336 101.666
36.0584 10554 102.733
36.1749 10914 104.47
36.2913 11010 104.929
36.4077 11093 105.323
36.524 11176 105.717
36.6403 11323 106.41
36.7565 11340 106.489
36.8727 10963 104.704
36.9889 11324 106.414
37.1049 11018 104.967
37.221 0 1
37.3369 0 1
37.4529 0 1
37.5687 0 1
37.6845 0 1
37.8003 0 1
37.916 0 1
38.0316 0 1
38.1472 0 1
40.5851 0 1
40.7008 0 1
40.8164 0 1
40.9322 0 1
41.048 0 1
41.1639 0 1
41.2798 0 1
41.3958 0 1
41.5118 0 1
41.6279 0 1
41.744 9119 95.4935
41.8602 9184 95.8332
41.9765 9339 96.6385
42.0928 9181 95.8175
42.2091 9344 96.6644
42.3255 9452 97.2214
42.4419 9323 96.5557
42.5584 9335 96.6178
42.675 9362 96.7574
42.7915 9114 95.4673
42.9081 8798 93.7977
43.0248 8641 92.957
43.1415 8481 92.0923
43.2582 8716 93.3595
43.375 8624 92.8655
43.4918 8814 93.8829
43.6087 8599 92.7308
43.7256 8348 91.3674
43.8425 8128 90.1554
43.9595 7694 87.7154
44.0765 7780 88.2043
44.1935 7619 87.2869
44.3106 7762 88.1022
44.4277 7716 87.8408
44.5448 7871 88.7187
44.6619 7933 89.0674
44.7791 8112 90.0666
44.8963 8230 90.7193
45.0136 8279 90.989
45.1308 8332 91.2798
45.2481 7973 89.2917
45.3654 7972 89.2861
45.4827 7880 88.7694
45.6001 7916 88.9719
45.7174 7870 88.713
45.8348 7867 88.6961
45.9522 7782 88.2156
46.0697 7699 87.7439
46.1871 7434 86.2206
46.3046 7456 86.3481
46.422 7413 86.0988
46.5395 7030 83.8451
46.657 6836 82.6801
46.7745 6689 81.7863
46.892 6393 79.9562
47.0096 6653 81.5659
47.1271 6665 81.6395
47.2446 6667 81.6517
47.3622 6215 78.8353
47.4797 6017 77.5693
47.5973 5749 75.8222
47.7149 5836 76.3937
47.8324 5660 75.233
47.95 5635 75.0666
48.0675 6010 77.5242
48.1851 5833 76.3741
48.3027 6080 77.9744
48.4202 6149 78.4156
48.5378 6106 78.1409
48.6554 6242 79.0063
48.7729 6267 79.1644
48.8904 6156 78.4602
49.008 6408 80.05
49.1255 6431 80.1935
49.243 6421 80.1311
49.3605 6458 80.3617
49.478 6410 80.0625
49.5955 6418 80.1124
49.713 6708 81.9024
49.8304 6668 81.6578
49.9479 6648 81.5353
50.0653 6447 80.2932
50.1827 6292 79.3221
50.3001 6382 79.8874
50.4175 6312 79.4481
50.5348 6469 80.4301
50.6521 6787 82.3833
50.7694 6938 83.2947
50.8867 6994 83.6301
51.004 6940 83.3067
51.1212 7128 84.4275
51.2384 6969 83.4805
51.3556 7147 84.5399
51.4727 7508 86.6487
51.5899 7849 88.5946
51.707 8160 90.3327
51.824 8308 91.1482
51.9411 8666 93.0914
52.0581 8549 92.4608
52.175 8826 93.9468
52.2919 8962 94.6678
52.4088 9042 95.0894
52.5257 9323 96.5557
52.6425 9205 95.9427
52.7593 9092 95.352
52.876 9311 96.4935
52.9927 9489 97.4115
53.1094 9504 97.4885
53.226 9736 98.6712
53.3426 9630 98.1326
53.4591 9827 99.1312
53.5756 9825 99.1211
53.692 9459 97.2574
53.8084 9223 96.0365
53.9248 8971 94.7154
54.0411 8981 94.7681
54.1573 9259 96.2237
54.2735 0 1
54.3896 0 1
54.5057 0 1
54.6217 0 1
54.7377 0 1
54.8537 0 1
54.9695 0 1
55.0853 0 1
55.2011 0 1
55.3168 0 1
55.4324 0 1
57.824 0 1
57.9396 0 1
58.0553 0 1
58.1711 0 1
58.2869 0 1
58.4028 0 1
58.5187 0 1
58.6347 0 1
58.7508 0 1
58.8669 0 1
58.983 10457 102.259
59.0992 10391 101.936
59.2155 10329 101.632
59.3318 10578 102.849
59.4482 10516 102.548
59.5646 10553 102.728
59.681 10501 102.474
59.7975 10517 102.552
59.9141 10548 102.703
60.0306 10647 103.184
60.1473 10832 104.077
60.2639 11083 105.276
60.3807 11365 106.607
60.4974 11373 106.644
60.6142 11242 106.028
60.731 11249 106.061
60.8479 11569 107.559
60.9648 11315 106.372
61.0818 11401 106.775
61.1987 11168 105.679
61.3158 11324 106.414
61.4328 11089 105.304
61.5499 11116 105.432
61.667 10944 104.614
61.7841 11048 105.109
61.9013 10938 104.585
62.0185 10982 104.795
62.1357 10877 104.293
62.253 10441 102.181
62.3702 10204 101.015
62.4875 9795 98.9697
62.6049 9803 99.0101
62.7222 9929 99.6444
62.8396 9880 99.3982
62.9569 10062 100.31
63.0743 9866 99.3277
63.1918 9773 98.8585
63.3092 9673 98.3514
63.4267 9819 99.0909
63.5441 10037 100.185
63.6616 10240 101.193
63.7791 10220 101.094
63.8966 10697 103.426
64.0142 10447 102.211
64.1317 10671 103.301
64.2492 10459 102.269
64.3668 10530 102.616
64.4843 10369 101.828
64.6019 10387 101.917
64.7195 10205 101.02
64.837 10364 101.804
64.9546 10157 100.782
65.0722 10226 101.124
65.1898 10188 100.936
65.3074 10431 102.132
65.4249 10081 100.404
65.5425 10184 100.916
65.6601 9985 99.925
65.7777 10208 101.035
65.8952 9710 98.5393
66.0128 9422 97.067
66.1304 8949 94.5992
66.2479 8858 94.1169
66.3655 9120 95.4987
66.483 9203 95.9323
66.6005 9302 96.4469
66.718 9288 96.3743
66.8355 9197 95.901
66.953 9208 95.9583
67.0705 9279 96.3276
67.1879 9745 98.7168
67.3054 9940 99.6995
67.4228 10147 100.732
67.5402 10101 100.504
67.6576 10225 101.119
67.7749 9825 99.1211
67.8923 10064 100.319
68.0096 10092 100.459
68.1269 10183 100.911
68.2442 10104 100.519
68.3614 10166 100.827
68.4787 10106 100.529
68.5958 10332 101.646
68.713 10206 101.025
68.8302 10358 101.774
68.9473 10294 101.459
69.0643 10211 101.049
69.1814 10330 101.637
69.2984 10270 101.341
69.4154 10225 101.119
69.5323 10218 101.084
69.6492 9886 99.4284
69.7661 9527 97.6064
69.8829 9121 95.5039
69.9997 9233 96.0885
70.1165 9474 97.3345
70.2332 9704 98.5089
70.3499 9596 97.9592
70.4665 9424 97.0773
70.5831 9608 98.0204
70.6996 9745 98.7168
70.8161 9746 98.7218
70.9326 10187 100.931
71.049 10251 101.247
71.1653 10193 100.96
71.2817 10090 100.449
71.3979 10107 100.534
71.5141 10011 100.055
71.6303 9804 99.0152
71.7464 9100 95.3939
71.8624 0 1
71.9784 0 1
72.0944 0 1
72.2102 0 1
72.3261 0 1
72.4418 0 1
72.5575 0 1
72.6732 0 1
75.1054 0 1
75.2209 0 1
75.3365 0 1
75.4521 0 1
75.5678 0 1
75.6835 0 1
75.7993 0 1
75.9151 0 1
76.031 0 1
76.147 9085 95.3153
76.263 9790 98.9444
76.3791 10001 100.005
76.4952 9892 99.4585
76.6113 10088 100.439
76.7276 10074 100.369
76.8438 10087 100.434
76.9601 10087 100.434
77.0765 10082 100.409
77.1929 9923 99.6143
77.3093 10087 100.434
77.4258 9808 99.0353
77.5423 9949 99.7447
77.6589 9997 99.985
77.7755 9806 99.0252
77.8921 10103 100.514
78.0088 9793 98.9596
78.1256 9815 99.0707
78.2423 9797 98.9798
78.3591 9973 99.8649
78.4759 9798 98.9848
78.5928 9520 97.5705
78.7097 9247 96.1613
78.8266 8849 94.0691
78.9436 7484 86.5101
79.0606 7590 87.1206
79.1776 7835 88.5155
79.2946 8541 92.4175
79.4117 8834 93.9894
79.5288 9222 96.0312
79.6459 9332 96.6023
79.7631 9425 97.0824
79.8802 9420 97.0567
79.9974 9498 97.4577
80.1147 9429 97.103
80.2319 9296 96.4158
80.3491 9339 96.6385
80.4664 9241 96.1301
80.5837 9197 95.901
80.701 9080 95.289
80.8183 9108 95.4358
80.9357 9349 96.6902
81.053 9230 96.0729
81.1704 9054 95.1525
81.2877 9032 95.0368
81.4051 9132 95.5615
81.5225 9224 96.0417
81.6399 8806 93.8403
81.7573 8596 92.7146
81.8747 8770 93.6483
81.9922 8702 93.2845
82.1096 8847 94.0585
82.227 8870 94.1807
82.3444 8493 92.1575
82.4619 8191 90.5041
82.5793 7230 85.0294
82.6967 6842 82.7164
82.8142 6940 83.3067
82.9316 7300 85.44
83.049 7661 87.5271
83.1664 7972 89.2861
83.2838 8222 90.6752
83.4012 8347 91.3619
83.5186 8374 91.5096
83.636 8158 90.3216
83.7534 8221 90.6697
83.8708 8018 89.5433
83.9881 7933 89.0674
84.1055 8140 90.2219
84.2228 8046 89.6995
84.3401 8117 90.0944
84.4575 8092 89.9555
84.5747 7968 89.2637
84.692 7913 88.955
84.8093 8024 89.5768
84.9265 8004 89.4651
85.0437 8058 89.7664
85.1609 8021 89.56
85.2781 7987 89.37
85.3952 8018 89.5433
85.5123 7951 89.1684
85.6294 7982 89.342
85.7465 8111 90.0611
85.8636 7973 89.2917
85.9806 7759 88.0852
86.0976 7598 87.1665
86.2145 6661 81.6149
86.3315 6001 77.4661
86.4484 6778 82.3286
86.5652 7481 86.4928
86.682 7898 88.8707
86.7988 8238 90.7634
86.9156 8236 90.7524
87.0323 8365 91.4604
87.149 8252 90.8405
87.2657 8130 90.1665
87.3823 8267 90.923
87.4988 8192 90.5097
87.6154 8135 90.1942
87.7318 8128 90.1554
87.8483 8024 89.5768
87.9647 8086 89.9222
88.081 8149 90.2718
88.1973 8349 91.3729
88.3136 8166 90.3659
88.4298 8179 90.4378
88.546 8146 90.2552
88.6621 7973 89.2917
88.7781 7894 88.8482
88.8942 0 1
89.0101 0 1
89.126 0 1
89.2419 0 1
89.3577 0 1
89.4734 0 1
89.5891 0 1
89.7047 0 1
89.8203 0 1
89.9358 0 1
92.3269 0 1
92.4424 0 1
92.558 0 1
92.6736 0 1
92.7893 0 1
92.905 0 1
93.0208 0 1
93.1366 0 1
93.2525 0 1
93.3685 0 1
93.4845 0 1
93.6005 6185 78.6448
93.7167 6275 79.2149
93.8328 6082 77.9872
93.949 6177 78.5939
94.0653 5988 77.3822
94.1816 5910 76.8765
94.2979 5833 76.3741
94.4143 5721 75.6373
94.5307 5841 76.4264
94.6472 5580 74.6994
94.7637 5551 74.505
94.8803 5735 75.7298
94.9969 5506 74.2024
95.1135 5441 73.7631
95.2302 5233 72.3395
95.3469 4624 68
95.4637 3911 62.538
95.5805 3736 61.1228
95.6973 4553 67.4759
95.8142 5070 71.2039
95.9311 5082 71.2881
96.048 5154 71.7914
96.1649 5058 71.1196
96.2819 4838 69.5557
96.3989 4858 69.6994
96.516 4662 68.2788
96.633 4551 67.4611
96.7501 4420 66.4831
96.8673 4287 65.4752
96.9844 4308 65.6354
97.1016 4145 64.3817
97.2188 4256 65.238
97.336 4086 63.9218
97.4532 4046 63.6082
97.5704 3870 62.2093
97.6877 3817 61.7819
97.805 3804 61.6766
97.9223 3649 60.407
98.0396 3535 59.4559
98.1569 3407 58.3695
98.2743 3340 57.7927
98.3916 3210 56.6569
98.509 3102 55.6956
98.6264 3027 55.0182
98.7438 3058 55.2992
98.8612 2873 53.6004
98.9786 2598 50.9706
99.096 2045 45.2217
99.2134 1862 43.1509
99.3308 2316 48.1248
99.4482 2549 50.4876
99.5656 2501 50.01
99.6831 2523 50.2295
99.8005 2395 48.9387
99.9179 2315 48.1144
100.035 2242 47.3498
100.153 2260 47.5395
100.27 2146 46.3249
100.388 2185 46.744
100.505 2129 46.1411
100.622 2216 47.0744
100.74 2171 46.594
100.857 2254 47.4763
100.975 2394 48.9285
101.092 2354 48.518
101.209 2617 51.1566
101.327 2607 51.0588
101.444 2712 52.0769
101.561 2746 52.4023
101.679 2916 54
101.796 2940 54.2218
101.913 3070 55.4076
102.03 3069 55.3986
102.148 3226 56.7979
102.265 3623 60.1914
102.382 3216 56.7098
102.499 3325 57.6628
102.616 2708 52.0384
102.733 2428 49.2747
102.851 3410 58.3952
102.968 3958 62.9126
103.085 4200 64.8074
103.202 4219 64.9538
103.319 4291 65.5057
103.436 4403 66.3551
103.552 4505 67.1193
103.669 4516 67.2012
103.786 4633 68.0661
103.903 4743 68.8694
104.02 4750 68.9202
104.137 4812 69.3686
104.253 4994 70.6682
104.37 5021 70.859
104.487 5182 71.9861
104.603 5306 72.8423
104.72 5383 73.3689
104.836 5553 74.5185
104.953 5673 75.3193
105.069 5646 75.1399
105.186 5863 76.5702
105.302 5658 75.2197
105.418 5880 76.6812
105.535 5932 77.0195
105.651 6090 78.0385
105.767 6022 77.6015
105.883 5701 75.505
105.999 4572 67.6166
106.115 0 1
106.231 0 1
106.347 0 1
106.463 0 1
106.579 0 1
106.694 0 1
106.81 0 1
106.926 0 1
107.041 0 1
107.157 0 1
109.576 0 1
109.692 0 1
109.807 0 1
109.923 0 1
110.039 0 1
110.155 0 1
110.27 0 1
110.386 0 1
110.502 0 1
110.618 5858 76.5376
110.735 5962 77.214
110.851 5783 76.046
110.967 5157 71.8123
111.083 4543 67.4018
111.199 4344 65.909
111.316 4969 70.4911
111.432 6048 77.7689
111.549 6498 80.6102
111.665 6399 79.9937
111.782 6193 78.6956
111.898 6211 78.8099
112.015 6142 78.3709
112.132 6135 78.3262
112.248 6074 77.9359
112.365 6159 78.4793
112.482 5990 77.3951
112.599 5740 75.7628
112.716 5814 76.2496
112.832 5770 75.9605
112.949 5705 75.5315
113.066 5635 75.0666
113.183 5434 73.7157
113.3 5619 74.96
113.417 5342 73.089
113.534 5347 73.1232
113.652 5376 73.3212
113.769 5366 73.253
113.886 5297 72.7805
114.003 5210 72.1803
114.12 5118 71.5402
114.238 5082 71.2881
114.355 4794 69.2387
114.472 4405 66.3702
114.589 3754 61.2699
114.707 3361 57.9741
114.824 3378 58.1206
114.942 3877 62.2656
115.059 4424 66.5132
115.176 4522 67.2458
115.294 4514 67.1863
115.411 4514 67.1863
115.529 4429 66.5507
115.646 4323 65.7495
115.764 4403 66.3551
115.881 4251 65.1997
115.999 4096 64
116.116 4133 64.2884
116.234 3962 62.9444
116.351 3944 62.8013
116.469 3868 62.1932
116.586 3870 62.2093
116.704 3865 62.1691
116.821 3821 61.8142
116.939 3805 61.6847
117.056 3573 59.7746
117.174 3709 60.9016
117.291 3701 60.8358
117.409 3513 59.2706
117.526 3619 60.1581
117.644 3486 59.0424
117.761 3431 58.5747
117.879 3464 58.8558
117.996 3373 58.0775
118.114 3352 57.8965
118.231 3134 55.9821
118.349 2729 52.2398
118.466 2675 51.7204
118.584 2852 53.4041
118.701 3101 55.6866
118.819 3294 57.3934
118.936 3245 56.9649
119.053 3256 57.0614
119.171 3146 56.0892
119.288 3082 55.5158
119.405 3065 55.3624
119.523 2984 54.626
119.64 2996 54.7357
119.757 3027 55.0182
119.875 2880 53.6656
119.992 3033 55.0727
120.109 2997 54.7449
120.226 2876 53.6284
120.343 3025 55
120.46 2939 54.2125
120.578 2881 53.6749
120.695 2818 53.0848
120.812 2941 54.231
120.929 3007 54.8361
121.046 2925 54.0833
121.163 2870 53.5724
121.279 2809 53
121.396 2814 53.0471
121.513 2333 48.3011
121.63 2280 47.7493
121.747 2299 47.9479
121.863 2554 50.5371
121.98 2843 53.3198
122.097 2916 54
122.213 2789 52.811
122.33 2777 52.6972
122.446 2818 53.0848
122.563 2959 54.3967
122.679 2871 53.5817
122.795 3085 55.5428
122.912 3074 55.4437
123.028 3054 55.263
123.144 3054 55.263
123.26 3091 55.5968
123.377 0 1
123.493 0 1
123.609 0 1
123.725 0 1
123.84 0 1
123.956 0 1
124.072 0 1
124.188 0 1
124.303 0 1
124.419 0 1
126.852 0 1
126.968 0 1
127.083 0 1
127.199 0 1
127.315 0 1
127.431 0 1
127.547 0 1
127.663 0 1
127.779 0 1
127.895 0 1
128.011 0 1
128.127 0 1
128.243 0 1
128.359 4211 64.8922
128.476 4316 65.6963
128.592 4349 65.9469
128.708 4389 66.2495
128.825 4498 67.0671
128.941 4544 67.4092
129.058 4496 67.0522
129.174 4521 67.2384
129.291 4606 67.8675
129.408 4450 66.7083
129.524 4647 68.1689
129.641 4637 68.0955
129.758 4666 68.3081
129.875 4702 68.5711
129.992 4724 68.7314
130.108 4473 66.8805
130.225 4345 65.9166
130.342 3848 62.0322
130.459 2986 54.6443
130.576 2675 51.7204
130.693 2740 52.345
130.81 3456 58.7878
130.928 4400 66.3325
131.045 5015 70.8167
131.162 5114 71.5122
131.279 5192 72.0555
131.396 5258 72.5121
131.513 5165 71.8679
131.631 5402 73.4983
131.748 5444 73.7835
131.865 5314 72.8972
131.983 5361 73.2189
132.1 5453 73.8444
132.217 5455 73.858
132.335 5390 73.4166
132.452 5428 73.675
132.57 5541 74.4379
132.687 5276 72.6361
132.804 5884 76.7072
132.922 5587 74.7462
133.039 5547 74.4782
133.157 5665 75.2662
133.274 5783 76.046
133.392 5636 75.0733
133.509 5714 75.591
133.627 5543 74.4513
133.744 5234 72.3464
133.862 4618 67.9559
133.979 4183 64.6761
134.097 3708 60.8933
134.214 3311 57.5413
134.332 3429 58.5577
134.449 4269 65.3376
134.567 5183 71.9931
134.684 5843 76.4395
134.802 6097 78.0833
134.919 6159 78.4793
135.037 6142 78.3709
135.154 6334 79.5864
135.272 6338 79.6116
135.389 6369 79.806
135.507 6234 78.9557
135.624 6265 79.1518
135.742 6480 80.4984
135.859 6395 79.9687
135.977 6339 79.6178
136.094 6427 80.1686
136.211 6528 80.796
136.329 6484 80.5233
136.446 6621 81.3695
136.564 6655 81.5782
136.681 6770 82.28
136.798 6428 80.1748
136.915 6562 81.0062
137.033 6622 81.3757
137.15 6555 80.963
137.267 6222 78.8797
137.384 5945 77.1038
137.502 5294 72.7599
137.619 4834 69.527
137.736 4562 67.5426
137.853 4251 65.1997
137.97 4273 65.3682
138.087 4868 69.7711
138.204 5709 75.5579
138.321 6520 80.7465
138.438 7034 83.8689
138.555 7155 84.5872
138.672 7283 85.3405
138.788 7329 85.6096
138.905 7353 85.7496
139.022 7371 85.8545
139.139 7278 85.3112
139.255 7413 86.0988
139.372 7460 86.3713
139.488 7387 85.9477
139.605 7497 86.5852
139.721 7449 86.3076
139.838 7467 86.4118
139.954 7600 87.178
140.071 7405 86.0523
140.187 7549 86.885
140.303 7345 85.703
140.419 7419 86.1336
140.535 7441 86.2612
140.652 7302 85.4517
140.768 0 1
140.884 0 1
141 0 1
141.115 0 1
141.231 0 1
141.347 0 1
141.463 0 1
141.578 0 1
141.694 0 1
144.104 0 1
144.219 0 1
144.335 0 1
144.45 0 1
144.566 0 1
144.682 0 1
144.798 0 1
144.914 0 1
145.03 0 1
145.146 7141 84.5044
145.262 7322 85.5687
145.378 7423 86.1568
145.494 7415 86.1104
145.61 7145 84.5281
145.726 7001 83.672
145.842 6786 82.3772
145.959 6544 80.895
146.075 6007 77.5048
146.192 5727 75.6769
146.308 5404 73.5119
146.425 5195 72.0763
146.541 5268 72.581
146.658 5439 73.7496
146.774 5757 75.8749
146.891 6289 79.3032
147.008 6759 82.2131
147.125 7333 85.6329
147.241 7589 87.1149
147.358 7451 86.3192
147.475 7600 87.178
147.592 7562 86.9598
147.709 7548 86.8792
147.826 7526 86.7525
147.943 7552 86.9022
148.06 7353 85.7496
148.177 7463 86.3887
148.294 7401 86.0291
148.411 7495 86.5737
148.528 7646 87.4414
148.645 7454 86.3366
148.762 7427 86.18
148.88 7476 86.4639
148.997 7025 83.8153
149.114 7651 87.47
149.231 7190 84.7939
149.349 6979 83.5404
149.466 6641 81.4923
149.583 6494 80.5854
149.701 6215 78.8353
149.818 5788 76.0789
149.935 5678 75.3525
150.053 5571 74.6391
150.17 5636 75.0733
150.287 5760 75.8947
150.405 6118 78.2176
150.522 6318 79.4858
150.64 6706 81.8902
150.757 7163 84.6345
150.875 7547 86.8735
150.992 7628 87.3384
151.11 7495 86.5737
151.227 7704 87.7724
151.344 7540 86.8332
151.462 7617 87.2754
151.579 7671 87.5842
151.697 7679 87.6299
151.814 7819 88.4251
151.932 7761 88.0965
152.049 7747 88.017
152.167 7817 88.4138
152.284 7691 87.6983
152.402 7935 89.0786
152.519 7649 87.4586
152.636 7654 87.4871
152.754 7536 86.8101
152.871 7546 86.8677
152.989 7144 84.5222
153.106 6875 82.9156
153.223 6652 81.5598
153.341 6344 79.6492
153.458 6056 77.8203
153.575 5858 76.5376
153.693 5815 76.2561
153.81 5931 77.013
153.927 6337 79.6053
154.044 6655 81.5782
154.162 6876 82.9216
154.279 7293 85.3991
154.396 7772 88.1589
154.513 8099 89.9944
154.63 8043 89.6828
154.747 8061 89.7831
154.864 8019 89.5489
154.981 8087 89.9277
155.098 8256 90.8625
155.215 8228 90.7083
155.332 8088 89.9333
155.449 8112 90.0666
155.566 8169 90.3825
155.683 8187 90.482
155.8 8231 90.7249
155.917 8077 89.8721
156.033 8262 90.8955
156.15 0 1
156.267 0 1
156.383 0 1
156.5 0 1
156.617 0 1
156.733 0 1
156.85 0 1
156.966 0 1
157.082 0 1
157.199 0 1
157.315 0 1
157.431 0 1
157.547 0 1
157.664 0 1
157.78 0 1
157.896 0 1
158.012 0 1
158.128 0 1
158.244 0 1
158.359 0 1
158.475 0 1
158.591 0 1
158.706 0 1
