
6.15755 0 1
6.2731 0 1
6.3887 0 1
6.50437 0 1
6.62009 0 1
6.73587 0 1
6.8517 0 1
6.96759 0 1
7.08353 0 1
7.19952 0 1
7.31557 0 1
7.43166 0 1
7.54781 0 1
7.664 0 1
7.78024 0 1
7.89653 0 1
8.01286 0 1
8.12924 0 1
8.24567 0 1
8.36213 0 1
8.47864 0 1
8.59519 0 1
8.71178 0 1
8.82841 0 1
8.94508 0 1
9.06179 0 1
9.17853 0 1
9.29531 0 1
9.41212 0 1
9.52897 0 1
9.64584 0 1
9.76276 0 1
9.8797 0 1
9.99667 0 1
10.1137 0 1
10.2307 0 1
10.3478 0 1
10.4648 0 1
10.5819 0 1
10.6991 0 1
10.8162 0 1
10.9334 0 1
11.0506 0 1
11.1678 0 1
11.285 0 1
11.4023 0 1
11.5196 0 1
11.6369 0 1
11.7542 0 1
11.8715 0 1
11.9888 0 1
12.1062 0 1
12.2235 0 1
12.3409 0 1
12.4582 0 1
12.5756 0 1
12.693 0 1
12.8104 0 1
12.9278 0 1
13.0452 0 1
13.1626 0 1
13.28 0 1
13.3974 0 1
13.5149 0 1
13.6323 0 1
13.7497 0 1
13.8671 0 1
13.9845 0 1
14.1019 0 1
14.2193 0 1
14.3367 0 1
14.4541 0 1
14.5714 0 1
14.6888 0 1
14.8062 0 1
14.9235 0 1
15.0408 9544 97.6934
15.1581 9816 99.0757
15.2755 9819 99.0909
15.3927 9822 99.106
15.51 9723 98.6053
15.6273 9517 97.5551
15.7445 9487 97.4012
15.8617 9492 97.4269
15.9789 9722 98.6002
16.0961 9922 99.6092
16.2132 10391 101.936
16.3304 10695 103.417
16.4475 11195 105.806
16.5646 11068 105.205
16.6816 11141 105.551
16.7986 11317 106.381
16.9156 11081 105.266
17.0326 11015 104.952
17.1496 11190 105.783
17.2665 10947 104.628
17.3833 10921 104.504
17.5002 10886 104.336
17.617 11225 105.948
17.7338 11321 106.4
17.8505 11580 107.61
17.9672 11718 108.25
18.0839 12026 109.663
18.2005 12362 111.185
18.3171 12570 112.116
18.4337 12840 113.314
18.5502 13008 114.053
18.6666 12787 113.08
18.7831 13077 114.355
18.8994 12936 113.737
19.0158 12551 112.031
19.1321 12319 110.991
19.2483 11994 109.517
19.3645 11696 108.148
19.4806 11603 107.717
19.5967 12294 110.878
19.7128 12384 111.283
19.8288 12833 113.283
19.9447 11912 109.142
20.0606 0 1
20.1764 0 1
20.2922 0 1
20.4079 0 1
20.5236 0 1
20.6392 0 1
20.7548 0 1
20.8702 0 1
23.3078 0 1
23.4233 0 1
23.539 0 1
23.6547 0 1
23.7704 0 1
23.8862 0 1
24.0021 0 1
24.118 0 1
24.234 0 1
24.35 0 1
24.4661 12184 110.381
24.5822 12035 109.704
24.6984 12444 111.553
24.8146 12738 112.863
24.9309 13218 114.97
25.0472 13643 116.803
25.1636 13865 117.75
25.28 14031 118.453
25.3965 14049 118.528
25.513 13672 116.927
25.6296 13679 116.957
25.7462 13583 116.546
25.8628 13618 116.696
25.9795 13464 116.034
26.0962 13211 114.939
26.213 13503 116.202
26.3298 13908 117.932
26.4466 13968 118.186
26.5635 14525 120.52
26.6804 14758 121.483
26.7973 15396 124.081
26.9143 15480 124.419
27.0313 15514 124.555
27.1483 15653 125.112
27.2653 15834 125.833
27.3824 16054 126.704
27.4996 15860 125.936
27.6167 15223 123.382
27.7339 14899 122.061
27.8511 14431 120.129
27.9683 14191 119.126
28.0855 13643 116.803
28.2028 13205 114.913
28.3201 13224 114.996
28.4374 13866 117.754
28.5547 14533 120.553
28.6721 14636 120.979
28.7894 15061 122.723
28.9068 14709 121.281
29.0242 14823 121.75
29.1416 14124 118.844
29.259 13689 117
29.3764 13641 116.795
29.4939 13255 115.13
29.6113 13278 115.23
29.7288 13250 115.109
29.8463 13759 117.299
29.9638 14138 118.903
30.0812 14513 120.47
30.1987 14948 122.262
30.3162 15110 122.923
30.4337 15400 124.097
30.5512 16127 126.992
30.6687 16061 126.732
30.7862 16652 129.043
30.9037 16036 126.633
31.0212 16412 128.109
31.1387 15742 125.467
31.2562 15457 124.326
31.3737 15233 123.422
31.4912 14755 121.47
31.6087 14360 119.833
31.7262 14116 118.811
31.8436 14045 118.512
31.9611 14301 119.587
32.0785 14843 121.832
32.1959 15236 123.434
32.3134 15536 124.643
32.4308 15777 125.607
32.5482 15489 124.455
32.6655 15089 122.837
32.7829 14586 120.773
32.9002 14095 118.722
33.0176 13893 117.869
33.1349 13743 117.231
33.2522 13840 117.644
33.3694 13813 117.529
33.4867 14533 120.553
33.6039 14536 120.565
33.7211 15076 122.784
33.8383 15351 123.899
33.9554 16162 127.13
34.0725 16266 127.538
34.1896 16226 127.381
34.3067 16676 129.136
34.4237 16781 129.541
34.5407 16932 130.123
34.6577 16752 129.43
34.7746 16726 129.329
34.8915 15900 126.095
35.0084 15792 125.666
35.1252 15564 124.756
35.242 14950 122.27
35.3587 14665 121.099
35.4755 14533 120.553
35.5921 14391 119.962
35.7088 14872 121.951
35.8254 15586 124.844
35.9419 15724 125.395
36.0584 16010 126.531
36.1749 16067 126.756
36.2913 15823 125.79
36.4077 15142 123.053
36.524 14691 121.206
36.6403 14302 119.591
36.7565 13993 118.292
36.8727 13872 117.779
36.9889 13824 117.576
37.1049 14213 119.218
37.221 0 1
37.3369 0 1
37.4529 0 1
37.5687 0 1
37.6845 0 1
37.8003 0 1
37.916 0 1
38.0316 0 1
38.1472 0 1
40.5851 0 1
40.7008 0 1
40.8164 0 1
40.9322 0 1
41.048 0 1
41.1639 0 1
41.2798 0 1
41.3958 0 1
41.5118 0 1
41.6279 0 1
41.744 11804 108.646
41.8602 12126 110.118
41.9765 12117 110.077
42.0928 11952 109.325
42.2091 12439 111.53
42.3255 12563 112.085
42.4419 13371 115.633
42.5584 13814 117.533
42.675 14332 119.716
42.7915 14879 121.98
42.9081 14945 122.25
43.0248 15499 124.495
43.1415 15301 123.697
43.2582 15360 123.935
43.375 15326 123.798
43.4918 15588 124.852
43.6087 15393 124.069
43.7256 14514 120.474
43.8425 14367 119.862
43.9595 13822 117.567
44.0765 13588 116.568
44.1935 12975 113.908
44.3106 12625 112.361
44.4277 12813 113.195
44.5448 12876 113.472
44.6619 13293 115.295
44.7791 13488 116.138
44.8963 13268 115.187
45.0136 13036 114.175
45.1308 12509 111.844
45.2481 11964 109.38
45.3654 11279 106.203
45.4827 10613 103.019
45.6001 10771 103.783
45.7174 10589 102.903
45.8348 11117 105.437
45.9522 11390 106.724
46.0697 11588 107.648
46.1871 11866 108.931
46.3046 12283 110.829
46.422 12806 113.164
46.5395 13037 114.18
46.657 13025 114.127
46.7745 13173 114.774
46.892 13131 114.591
47.0096 13395 115.737
47.1271 12994 113.991
47.2446 12964 113.86
47.3622 12494 111.777
47.4797 12162 110.281
47.5973 11627 107.829
47.7149 11291 106.259
47.8324 10893 104.37
47.95 10673 103.31
48.0675 10878 104.298
48.1851 11127 105.485
48.3027 11231 105.976
48.4202 11189 105.778
48.5378 10897 104.389
48.6554 10412 102.039
48.7729 10100 100.499
48.8904 9401 96.9588
49.008 9190 95.8645
49.1255 8948 94.5939
49.243 9008 94.9105
49.3605 9187 95.8488
49.478 9632 98.1428
49.5955 10043 100.215
49.713 10551 102.718
49.8304 11003 104.895
49.9479 11591 107.662
50.0653 11982 109.462
50.1827 12019 109.631
50.3001 12326 111.023
50.4175 12458 111.615
50.5348 12547 112.013
50.6521 12760 112.96
50.7694 12623 112.352
50.8867 12378 111.256
51.004 12297 110.892
51.1212 12163 110.286
51.2384 12179 110.359
51.3556 12213 110.512
51.4727 11987 109.485
51.5899 12664 112.534
51.707 13082 114.377
51.824 13537 116.349
51.9411 14141 118.916
52.0581 14132 118.878
52.175 13809 117.512
52.2919 13119 114.538
52.4088 12738 112.863
52.5257 12228 110.58
52.6425 12070 109.864
52.7593 12107 110.032
52.876 12242 110.644
52.9927 12982 113.939
53.1094 14025 118.427
53.226 14952 122.278
53.3426 15796 125.682
53.4591 16904 130.015
53.5756 17843 133.578
53.692 17622 132.748
53.8084 18237 135.044
53.9248 18708 136.777
54.0411 18802 137.12
54.1573 18937 137.612
54.2735 0 1
54.3896 0 1
54.5057 0 1
54.6217 0 1
54.7377 0 1
54.8537 0 1
54.9695 0 1
55.0853 0 1
55.2011 0 1
55.3168 0 1
55.4324 0 1
57.824 0 1
57.9396 0 1
58.0553 0 1
58.1711 0 1
58.2869 0 1
58.4028 0 1
58.5187 0 1
58.6347 0 1
58.7508 0 1
58.8669 0 1
58.983 21199 145.599
59.0992 22690 150.632
59.2155 22585 150.283
59.3318 22772 150.904
59.4482 22556 150.187
59.5646 22461 149.87
59.681 22412 149.706
59.7975 21925 148.071
59.9141 21399 146.284
60.0306 21360 146.151
60.1473 20735 143.997
60.2639 21207 145.626
60.3807 21106 145.279
60.4974 21166 145.485
60.6142 21057 145.11
60.731 20248 142.295
60.8479 19068 138.087
60.9648 18249 135.089
61.0818 17325 131.624
61.1987 16790 129.576
61.3158 16402 128.07
61.4328 16537 128.596
61.5499 17021 130.465
61.667 17875 133.697
61.7841 18784 137.055
61.9013 19838 140.847
62.0185 20364 142.702
62.1357 21465 146.509
62.253 21873 147.895
62.3702 21954 148.169
62.4875 22330 149.432
62.6049 22713 150.708
62.7222 22245 149.148
62.8396 22380 149.599
62.9569 22175 148.913
63.0743 21801 147.652
63.1918 21165 145.482
63.3092 20904 144.582
63.4267 20394 142.808
63.5441 20070 141.669
63.6616 20045 141.58
63.7791 20360 142.688
63.8966 20368 142.717
64.0142 20604 143.541
64.1317 20183 142.067
64.2492 19810 140.748
64.3668 18799 137.109
64.4843 17806 133.439
64.6019 16893 129.973
64.7195 15815 125.758
64.837 15560 124.74
64.9546 15578 124.812
65.0722 15844 125.873
65.1898 16524 128.546
65.3074 17836 133.551
65.4249 18410 135.683
65.5425 19650 140.178
65.6601 20430 142.934
65.7777 21440 146.424
65.8952 21908 148.014
66.0128 22202 149.003
66.1304 22474 149.913
66.2479 22360 149.533
66.3655 22463 149.877
66.483 22354 149.513
66.6005 22140 148.795
66.718 21845 147.801
66.8355 21752 147.486
66.953 21358 146.144
67.0705 21123 145.338
67.1879 20996 144.9
67.3054 20980 144.845
67.4228 21100 145.258
67.5402 21500 146.629
67.6576 21556 146.82
67.7749 21475 146.544
67.8923 21094 145.238
68.0096 20322 142.555
68.1269 19136 138.333
68.2442 17847 133.593
68.3614 17019 130.457
68.4787 16407 128.09
68.5958 16621 128.922
68.713 17203 131.16
68.8302 18124 134.625
68.9473 19199 138.56
69.0643 20917 144.627
69.1814 22019 148.388
69.2984 23547 153.45
69.4154 24440 156.333
69.5323 25042 158.247
69.6492 25863 160.82
69.7661 26070 161.462
69.8829 26709 163.429
69.9997 26999 164.314
70.1165 26980 164.256
70.2332 26826 163.786
70.3499 26785 163.661
70.4665 26295 162.157
70.5831 26147 161.7
70.6996 25909 160.963
70.8161 25688 160.275
70.9326 25289 159.025
71.049 25352 159.223
71.1653 25620 160.062
71.2817 26021 161.31
71.3979 25698 160.306
71.5141 24957 157.978
71.6303 22985 151.608
71.7464 19880 140.996
71.8624 0 1
71.9784 0 1
72.0944 0 1
72.2102 0 1
72.3261 0 1
72.4418 0 1
72.5575 0 1
72.6732 0 1
75.1054 0 1
75.2209 0 1
75.3365 0 1
75.4521 0 1
75.5678 0 1
75.6835 0 1
75.7993 0 1
75.9151 0 1
76.031 0 1
76.147 25469 159.59
76.263 27141 164.745
76.3791 28210 167.958
76.4952 29314 171.213
76.6113 29519 171.811
76.7276 30149 173.635
76.8438 29156 170.751
76.9601 27640 166.253
77.0765 25499 159.684
77.1929 23346 152.794
77.3093 21554 146.813
77.4258 20427 142.923
77.5423 20149 141.947
77.6589 20252 142.31
77.7755 21570 146.867
77.8921 23689 153.912
78.0088 25797 160.614
78.1256 28133 167.729
78.2423 29966 173.107
78.3591 31593 177.744
78.4759 32126 179.237
78.5928 32626 180.627
78.7097 32891 181.359
78.8266 31743 178.166
78.9436 34578 185.952
79.0606 32732 180.92
79.1776 32190 179.416
79.2946 32153 179.313
79.4117 31933 178.698
79.5288 31598 177.758
79.6459 31192 176.613
79.7631 30064 173.39
79.8802 29956 173.078
79.9974 29680 172.279
80.1147 30208 173.804
80.2319 30807 175.519
80.3491 31313 176.955
80.4664 31351 177.062
80.5837 30136 173.597
80.701 27786 166.691
80.8183 25025 158.193
80.9357 22696 150.652
81.053 21182 145.54
81.1704 20117 141.834
81.2877 20147 141.94
81.4051 20950 144.741
81.5225 22365 149.549
81.6399 25372 159.286
81.7573 27703 166.442
81.8747 29240 170.997
81.9922 30776 175.431
82.1096 31648 177.899
82.227 32160 179.332
82.3444 32158 179.327
82.4619 32351 179.864
82.5793 33003 181.667
82.6967 32037 178.989
82.8142 31626 177.837
82.9316 31191 176.61
83.049 30725 175.285
83.1664 30345 174.198
83.2838 29705 172.351
83.4012 29411 171.496
83.5186 28947 170.138
83.636 28553 168.976
83.7534 28685 169.366
83.8708 29612 172.081
83.9881 30155 173.652
84.1055 30003 173.214
84.2228 28814 169.747
84.3401 26647 163.239
84.4575 24661 157.038
84.5747 22345 149.482
84.692 20705 143.892
84.8093 19462 139.506
84.9265 19905 141.085
85.0437 21018 144.976
85.1609 23527 153.385
85.2781 25713 160.353
85.3952 28540 168.938
85.5123 30575 174.857
85.6294 32979 181.601
85.7465 34491 185.718
85.8636 35705 188.958
85.9806 36350 190.657
86.0976 36437 190.885
86.2145 36859 191.987
86.3315 38514 196.25
86.4484 36444 190.903
86.5652 37385 193.352
86.682 38027 195.005
86.7988 37704 194.175
86.9156 37526 193.716
87.0323 37462 193.551
87.149 37374 193.324
87.2657 37068 192.531
87.3823 38623 196.527
87.4988 38971 197.411
87.6154 40136 200.34
87.7318 39000 197.484
87.8483 37007 192.372
87.9647 34153 184.805
88.081 31580 177.708
88.1973 28956 170.165
88.3136 26968 164.219
88.4298 26314 162.216
88.546 26938 164.128
88.6621 29098 170.581
88.7781 32301 179.725
88.8942 0 1
89.0101 0 1
89.126 0 1
89.2419 0 1
89.3577 0 1
89.4734 0 1
89.5891 0 1
89.7047 0 1
89.8203 0 1
89.9358 0 1
92.3269 0 1
92.4424 0 1
92.558 0 1
92.6736 0 1
92.7893 0 1
92.905 0 1
93.0208 0 1
93.1366 0 1
93.2525 0 1
93.3685 0 1
93.4845 0 1
93.6005 30325 174.141
93.7167 29316 171.219
93.8328 29393 171.444
93.949 30298 174.063
94.0653 32450 180.139
94.1816 35709 188.968
94.2979 39382 198.449
94.4143 42155 205.317
94.5307 44711 211.45
94.6472 46732 216.176
94.7637 48053 219.21
94.8803 48999 221.357
94.9969 48878 221.084
95.1135 49612 222.738
95.2302 49920 223.428
95.3469 50022 223.656
95.4637 49639 222.798
95.5805 49559 222.619
95.6973 49219 221.854
95.8142 48945 221.235
95.9311 48415 220.034
96.048 48331 219.843
96.1649 47388 217.688
96.2819 47006 216.809
96.3989 47087 216.995
96.516 48095 219.306
96.633 48793 220.891
96.7501 48591 220.434
96.8673 47317 217.525
96.9844 44379 210.663
97.1016 40730 201.817
97.2188 37601 193.91
97.336 34705 186.293
97.4532 32085 179.123
97.5704 31050 176.21
97.6877 31437 177.305
97.805 33400 182.757
97.9223 36728 191.646
98.0396 40261 200.651
98.1569 43242 207.947
98.2743 46195 214.93
98.3916 48484 220.191
98.509 50649 225.053
98.6264 51045 225.931
98.7438 51286 226.464
98.8612 51521 226.982
98.9786 51775 227.541
99.096 51171 226.21
99.2134 50994 225.819
99.3308 51331 226.563
99.4482 51699 227.374
99.5656 50931 225.679
99.6831 50517 224.76
99.8005 49423 222.313
99.9179 48675 220.624
100.035 49209 221.831
100.153 50363 224.417
100.27 50836 225.468
100.388 50232 224.125
100.505 48638 220.54
100.622 45449 213.188
100.74 42218 205.47
100.857 38526 196.28
100.975 35046 187.206
101.092 32742 180.948
101.209 32051 179.028
101.327 33656 183.456
101.444 35997 189.729
101.561 40108 200.27
101.679 43480 208.519
101.796 47444 217.816
101.913 50302 224.281
102.03 52109 228.274
102.148 52974 230.161
102.265 51763 227.515
102.382 54544 233.547
102.499 53995 232.368
102.616 54162 232.727
102.733 53605 231.528
102.851 53479 231.255
102.968 53884 232.129
103.085 53407 231.1
103.202 52749 229.672
103.319 51865 227.739
103.436 51037 225.914
103.552 51366 226.641
103.669 52086 228.224
103.786 53266 230.794
103.903 53578 231.469
104.02 51898 227.811
104.137 48955 221.258
104.253 45612 213.57
104.37 42069 205.107
104.487 38160 195.346
104.603 35650 188.812
104.72 35030 187.163
104.836 35926 189.542
104.953 38536 196.306
105.069 42059 205.083
105.186 45988 214.448
105.302 50161 223.967
105.418 53415 231.117
105.535 55368 235.304
105.651 56427 237.544
105.767 57205 239.176
105.883 57975 240.78
105.999 57015 238.778
106.115 0 1
106.231 0 1
106.347 0 1
106.463 0 1
106.579 0 1
106.694 0 1
106.81 0 1
106.926 0 1
107.041 0 1
107.157 0 1
109.576 0 1
109.692 0 1
109.807 0 1
109.923 0 1
110.039 0 1
110.155 0 1
110.27 0 1
110.386 0 1
110.502 0 1
110.618 50505 224.733
110.735 51311 226.519
110.851 52563 229.266
110.967 53240 230.738
111.083 52694 229.552
111.199 52412 228.937
111.316 52957 230.124
111.432 53821 231.994
111.549 52686 229.534
111.665 52141 228.344
111.782 51077 226.002
111.898 49897 223.376
112.015 49794 223.146
112.132 50497 224.715
112.248 51031 225.9
112.365 51352 226.61
112.482 48133 219.392
112.599 47804 218.641
112.716 43745 209.153
112.832 40440 201.097
112.949 37185 192.834
113.066 34523 185.804
113.183 33286 182.445
113.3 33353 182.628
113.417 34380 185.418
113.534 37158 192.764
113.652 39955 199.887
113.769 42934 207.205
113.886 46193 214.926
114.003 47600 218.174
114.12 48581 220.411
114.238 49534 222.562
114.355 49817 223.197
114.472 48974 221.301
114.589 49928 223.446
114.707 48201 219.547
114.824 48118 219.358
114.942 48815 220.941
115.059 49127 221.646
115.176 49220 221.856
115.294 48610 220.477
115.411 47811 218.657
115.529 46968 216.721
115.646 47627 218.236
115.764 48270 219.704
115.881 48876 221.079
115.999 48144 219.417
116.116 46468 215.564
116.234 44397 210.706
116.351 41732 204.284
116.469 38906 197.246
116.586 36015 189.776
116.704 33961 184.285
116.821 33002 181.665
116.939 33105 181.948
117.056 34571 185.933
117.174 36844 191.948
117.291 39360 198.394
117.409 42399 205.91
117.526 44576 211.13
117.644 46868 216.49
117.761 47274 217.426
117.879 48443 220.098
117.996 48488 220.2
118.114 48099 219.315
118.231 48468 220.154
118.349 47384 217.679
118.466 46909 216.585
118.584 47597 218.167
118.701 47822 218.682
118.819 47576 218.119
118.936 46857 216.465
119.053 45711 213.801
119.171 45273 212.775
119.288 45220 212.65
119.405 46573 215.808
119.523 46810 216.356
119.64 46135 214.791
119.757 45741 213.871
119.875 43385 208.291
119.992 41022 202.539
120.109 38701 196.726
120.226 35923 189.534
120.343 33843 183.965
120.46 32760 180.997
120.578 32398 179.994
120.695 33046 181.786
120.812 34428 185.548
120.929 36450 190.919
121.046 39217 198.033
121.163 41413 203.502
121.279 43468 208.49
121.396 44719 211.469
121.513 45280 212.791
121.63 46825 216.391
121.747 45977 214.422
121.863 45787 213.979
121.98 45339 212.93
122.097 44942 211.995
122.213 44428 210.78
122.33 44504 210.96
122.446 44969 212.059
122.563 44481 210.905
122.679 44137 210.088
122.795 42883 207.082
122.912 42654 206.528
123.028 42705 206.652
123.144 43556 208.701
123.26 43299 208.084
123.377 0 1
123.493 0 1
123.609 0 1
123.725 0 1
123.84 0 1
123.956 0 1
124.072 0 1
124.188 0 1
124.303 0 1
124.419 0 1
126.852 0 1
126.968 0 1
127.083 0 1
127.199 0 1
127.315 0 1
127.431 0 1
127.547 0 1
127.663 0 1
127.779 0 1
127.895 0 1
128.011 0 1
128.127 0 1
128.243 0 1
128.359 46238 215.03
128.476 46466 215.56
128.592 46035 214.558
128.708 44772 211.594
128.825 43045 207.473
128.941 40885 202.2
129.058 38769 196.898
129.174 36898 192.089
129.291 35629 188.756
129.408 35226 187.686
129.524 35146 187.473
129.641 36276 190.463
129.758 38057 195.082
129.875 40004 200.01
129.992 42302 205.675
130.108 43726 209.108
130.225 45054 212.259
130.342 45346 212.946
130.459 44728 211.49
130.576 46954 216.689
130.693 45740 213.869
130.81 44414 210.746
130.928 44321 210.526
131.045 44699 211.421
131.162 45469 213.235
131.279 46228 215.007
131.396 45623 213.595
131.513 45428 213.138
131.631 44565 211.104
131.748 44892 211.877
131.865 46018 214.518
131.983 46039 214.567
132.1 45111 212.394
132.217 44062 209.91
132.335 42831 206.957
132.452 41398 203.465
132.57 39140 197.838
132.687 36601 191.314
132.804 35770 189.13
132.922 34732 186.365
133.039 34313 185.238
133.157 34797 186.54
133.274 36200 190.263
133.392 38132 195.274
133.509 40130 200.325
133.627 41119 202.778
133.744 42687 206.608
133.862 43319 208.132
133.979 43501 208.569
134.097 43552 208.691
134.214 43243 207.95
134.332 43601 208.809
134.449 41766 204.367
134.567 41964 204.851
134.684 42995 207.352
134.802 44231 210.312
134.919 43700 209.045
135.037 43200 207.846
135.154 42535 206.24
135.272 42843 206.986
135.389 43240 207.942
135.507 43559 208.708
135.624 43725 209.105
135.742 43093 207.589
135.859 42031 205.015
135.977 40859 202.136
136.094 39180 197.939
136.211 37391 193.368
136.329 35844 189.325
136.446 35005 187.096
136.564 33810 183.875
136.681 33730 183.657
136.798 34325 185.27
136.915 35216 187.659
137.033 36704 191.583
137.15 37947 194.8
137.267 39216 198.03
137.384 39989 199.972
137.502 40858 202.134
137.619 41111 202.758
137.736 41256 203.116
137.853 40814 202.025
137.97 40489 201.219
138.087 39116 197.778
138.204 39759 199.397
138.321 40527 201.313
138.438 41471 203.644
138.555 42133 205.263
138.672 42205 205.439
138.788 41459 203.615
138.905 41250 203.101
139.022 42170 205.353
139.139 41985 204.902
139.255 42114 205.217
139.372 41996 204.929
139.488 41376 203.411
139.605 40629 201.566
139.721 38738 196.82
139.838 37498 193.644
139.954 35633 188.767
140.071 34222 184.992
140.187 33898 184.114
140.303 33124 182
140.419 33450 182.893
140.535 33725 183.644
140.652 33962 184.288
140.768 0 1
140.884 0 1
141 0 1
141.115 0 1
141.231 0 1
141.347 0 1
141.463 0 1
141.578 0 1
141.694 0 1
144.104 0 1
144.219 0 1
144.335 0 1
144.45 0 1
144.566 0 1
144.682 0 1
144.798 0 1
144.914 0 1
145.03 0 1
145.146 23675 153.867
145.262 25451 159.534
145.378 26157 161.731
145.494 26672 163.316
145.61 27378 165.463
145.726 28045 167.466
145.842 28546 168.956
145.959 29682 172.285
146.075 30127 173.571
146.192 30822 175.562
146.308 30596 174.917
146.425 30743 175.337
146.541 30596 174.917
146.658 30226 173.856
146.774 29683 172.288
146.891 29210 170.909
147.008 30234 173.879
147.125 30161 173.669
147.241 31173 176.559
147.358 31434 177.296
147.475 31664 177.944
147.592 31145 176.479
147.709 31203 176.644
147.826 31973 178.81
147.943 31885 178.564
148.06 32205 179.458
148.177 31468 177.392
148.294 31322 176.98
148.411 30385 174.313
148.528 30233 173.876
148.645 29547 171.892
148.762 28385 168.478
148.88 27833 166.832
148.997 27153 164.782
149.114 28025 167.407
149.231 27927 167.114
149.349 27701 166.436
149.466 28971 170.209
149.583 29290 171.143
149.701 29706 172.354
149.818 30574 174.854
149.935 30732 175.305
150.053 30945 175.912
150.17 31072 176.273
150.287 30726 175.288
150.405 30897 175.775
150.522 30188 173.747
150.64 29938 173.026
150.757 30535 174.743
150.875 31209 176.661
150.992 31449 177.339
151.11 31812 178.359
151.227 32015 178.927
151.344 31691 178.02
151.462 31439 177.31
151.579 32281 179.669
151.697 32297 179.714
151.814 31984 178.841
151.932 31942 178.723
152.049 31157 176.513
152.167 30669 175.126
152.284 30051 173.352
152.402 29457 171.63
152.519 28738 169.523
152.636 28333 168.324
152.754 28685 169.366
152.871 28343 168.354
152.989 28707 169.431
153.106 28939 170.115
153.223 29560 171.93
153.341 30243 173.905
153.458 30707 175.234
153.575 31201 176.638
153.693 31530 177.567
153.81 32043 179.006
153.927 31469 177.395
154.044 30570 174.843
154.162 30055 173.364
154.279 30261 173.957
154.396 31045 176.196
154.513 31610 177.792
154.63 32596 180.544
154.747 33092 181.912
154.864 32776 181.041
154.981 33372 182.68
155.098 33591 183.278
155.215 33605 183.317
155.332 33477 182.967
155.449 33217 182.255
155.566 32747 180.961
155.683 31809 178.351
155.8 31683 177.997
155.917 31045 176.196
156.033 30436 174.459
156.15 0 1
156.267 0 1
156.383 0 1
156.5 0 1
156.617 0 1
156.733 0 1
156.85 0 1
156.966 0 1
157.082 0 1
157.199 0 1
157.315 0 1
157.431 0 1
157.547 0 1
157.664 0 1
157.78 0 1
157.896 0 1
158.012 0 1
158.128 0 1
158.244 0 1
158.359 0 1
158.475 0 1
158.591 0 1
158.706 0 1
