
6.15755 0 1
6.2731 0 1
6.3887 0 1
6.50437 0 1
6.62009 0 1
6.73587 0 1
6.8517 0 1
6.96759 0 1
7.08353 0 1
7.19952 0 1
7.31557 0 1
7.43166 0 1
7.54781 0 1
7.664 0 1
7.78024 0 1
7.89653 0 1
8.01286 0 1
8.12924 0 1
8.24567 0 1
8.36213 0 1
8.47864 0 1
8.59519 0 1
8.71178 0 1
8.82841 0 1
8.94508 0 1
9.06179 0 1
9.17853 0 1
9.29531 0 1
9.41212 0 1
9.52897 0 1
9.64584 0 1
9.76276 0 1
9.8797 0 1
9.99667 0 1
10.1137 0 1
10.2307 0 1
10.3478 0 1
10.4648 0 1
10.5819 0 1
10.6991 0 1
10.8162 0 1
10.9334 0 1
11.0506 0 1
11.1678 0 1
11.285 0 1
11.4023 0 1
11.5196 0 1
11.6369 0 1
11.7542 0 1
11.8715 0 1
11.9888 0 1
12.1062 0 1
12.2235 0 1
12.3409 0 1
12.4582 0 1
12.5756 0 1
12.693 0 1
12.8104 0 1
12.9278 0 1
13.0452 0 1
13.1626 0 1
13.28 0 1
13.3974 0 1
13.5149 0 1
13.6323 0 1
13.7497 0 1
13.8671 0 1
13.9845 0 1
14.1019 0 1
14.2193 0 1
14.3367 0 1
14.4541 0 1
14.5714 0 1
14.6888 0 1
14.8062 0 1
14.9235 0 1
15.0408 1620 40.2492
15.1581 1632 40.398
15.2755 1609 40.1123
15.3927 1587 39.8372
15.51 1623 40.2865
15.6273 1641 40.5093
15.7445 1585 39.8121
15.8617 1563 39.5348
15.9789 1642 40.5216
16.0961 1511 38.8716
16.2132 1491 38.6135
16.3304 1555 39.4335
16.4475 1525 39.0512
16.5646 1552 39.3954
16.6816 1501 38.7427
16.7986 1557 39.4588
16.9156 1539 39.2301
17.0326 1495 38.6652
17.1496 1508 38.833
17.2665 1493 38.6394
17.3833 1498 38.704
17.5002 1457 38.1707
17.617 1433 37.855
17.7338 1366 36.9594
17.8505 1363 36.9188
17.9672 1500 38.7298
18.0839 1584 39.7995
18.2005 1593 39.9124
18.3171 1691 41.1218
18.4337 1685 41.0488
18.5502 1674 40.9145
18.6666 1673 40.9023
18.7831 1654 40.6694
18.8994 1683 41.0244
19.0158 1510 38.8587
19.1321 1549 39.3573
19.2483 1570 39.6232
19.3645 1620 40.2492
19.4806 1518 38.9615
19.5967 1482 38.4968
19.7128 1371 37.027
19.8288 1043 32.2955
19.9447 413 20.3224
20.0606 0 1
20.1764 0 1
20.2922 0 1
20.4079 0 1
20.5236 0 1
20.6392 0 1
20.7548 0 1
20.8702 0 1
23.3078 0 1
23.4233 0 1
23.539 0 1
23.6547 0 1
23.7704 0 1
23.8862 0 1
24.0021 0 1
24.118 0 1
24.234 0 1
24.35 0 1
24.4661 1512 38.8844
24.5822 1604 40.05
24.6984 1556 39.4462
24.8146 1549 39.3573
24.9309 1534 39.1663
25.0472 1585 39.8121
25.1636 1534 39.1663
25.28 1558 39.4715
25.3965 1520 38.9872
25.513 1577 39.7115
25.6296 1626 40.3237
25.7462 1648 40.5956
25.8628 1695 41.1704
25.9795 1656 40.694
26.0962 1582 39.7744
26.213 1690 41.1096
26.3298 1671 40.8779
26.4466 1647 40.5832
26.5635 1451 38.092
26.6804 1311 36.2077
26.7973 1354 36.7967
26.9143 1423 37.7227
27.0313 1500 38.7298
27.1483 1543 39.281
27.2653 1569 39.6106
27.3824 1667 40.8289
27.4996 1631 40.3856
27.6167 1655 40.6817
27.7339 1567 39.5854
27.8511 1634 40.4228
27.9683 1622 40.2741
28.0855 1595 39.9375
28.2028 1657 40.7063
28.3201 1482 38.4968
28.4374 1532 39.1408
28.5547 1486 38.5487
28.6721 1494 38.6523
28.7894 1526 39.064
28.9068 1434 37.8682
29.0242 1544 39.2938
29.1416 1501 38.7427
29.259 1480 38.4708
29.3764 1511 38.8716
29.4939 1555 39.4335
29.6113 1527 39.0768
29.7288 1537 39.2046
29.8463 1478 38.4448
29.9638 1429 37.8021
30.0812 1327 36.428
30.1987 1207 34.7419
30.3162 1227 35.0286
30.4337 1320 36.3318
30.5512 1410 37.55
30.6687 1425 37.7492
30.7862 1570 39.6232
30.9037 1556 39.4462
31.0212 1575 39.6863
31.1387 1512 38.8844
31.2562 1497 38.6911
31.3737 1529 39.1024
31.4912 1538 39.2173
31.6087 1491 38.6135
31.7262 1536 39.1918
31.8436 1495 38.6652
31.9611 1437 37.9078
32.0785 1481 38.4838
32.1959 1460 38.2099
32.3134 1416 37.6298
32.4308 1454 38.1314
32.5482 1469 38.3275
32.6655 1487 38.5616
32.7829 1447 38.0395
32.9002 1530 39.1152
33.0176 1534 39.1663
33.1349 1485 38.5357
33.2522 1523 39.0256
33.3694 1449 38.0657
33.4867 1519 38.9744
33.6039 1394 37.3363
33.7211 1322 36.3593
33.8383 1254 35.4119
33.9554 1179 34.3366
34.0725 1212 34.8138
34.1896 1319 36.318
34.3067 1397 37.3765
34.4237 1415 37.6165
34.5407 1517 38.9487
34.6577 1500 38.7298
34.7746 1510 38.8587
34.8915 1542 39.2683
35.0084 1493 38.6394
35.1252 1464 38.2623
35.242 1465 38.2753
35.3587 1520 38.9872
35.4755 1531 39.128
35.5921 1395 37.3497
35.7088 1447 38.0395
35.8254 1431 37.8286
35.9419 1400 37.4166
36.0584 1414 37.6032
36.1749 1445 38.0132
36.2913 1359 36.8646
36.4077 1475 38.4057
36.524 1374 37.0675
36.6403 1438 37.921
36.7565 1371 37.027
36.8727 1438 37.921
36.9889 1463 38.2492
37.1049 1438 37.921
37.221 0 1
37.3369 0 1
37.4529 0 1
37.5687 0 1
37.6845 0 1
37.8003 0 1
37.916 0 1
38.0316 0 1
38.1472 0 1
40.5851 0 1
40.7008 0 1
40.8164 0 1
40.9322 0 1
41.048 0 1
41.1639 0 1
41.2798 0 1
41.3958 0 1
41.5118 0 1
41.6279 0 1
41.744 1120 33.4664
41.8602 1122 33.4963
41.9765 1228 35.0428
42.0928 1151 33.9264
42.2091 1222 34.9571
42.3255 1170 34.2053
42.4419 1051 32.4191
42.5584 994 31.5278
42.675 910 30.1662
42.7915 910 30.1662
42.9081 1048 32.3728
43.0248 1030 32.0936
43.1415 986 31.4006
43.2582 1047 32.3574
43.375 1119 33.4515
43.4918 1206 34.7275
43.6087 1095 33.0908
43.7256 1115 33.3916
43.8425 1153 33.9559
43.9595 1119 33.4515
44.0765 1104 33.2265
44.1935 1007 31.7333
44.3106 1017 31.8904
44.4277 964 31.0483
44.5448 912 30.1993
44.6619 963 31.0322
44.7791 935 30.5778
44.8963 902 30.0333
45.0136 865 29.4109
45.1308 851 29.1719
45.2481 903 30.05
45.3654 839 28.9655
45.4827 857 29.2746
45.6001 869 29.4788
45.7174 838 28.9482
45.8348 808 28.4253
45.9522 836 28.9137
46.0697 761 27.5862
46.1871 658 25.6515
46.3046 633 25.1595
46.422 671 25.9037
46.5395 682 26.1151
46.657 715 26.7395
46.7745 786 28.0357
46.892 791 28.1247
47.0096 809 28.4429
47.1271 818 28.6007
47.2446 742 27.2397
47.3622 789 28.0891
47.4797 757 27.5136
47.5973 771 27.7669
47.7149 725 26.9258
47.8324 701 26.4764
47.95 680 26.0768
48.0675 609 24.6779
48.1851 622 24.9399
48.3027 674 25.9615
48.4202 682 26.1151
48.5378 613 24.7588
48.6554 626 25.02
48.7729 617 24.8395
48.8904 624 24.98
49.008 670 25.8844
49.1255 647 25.4362
49.243 651 25.5147
49.3605 611 24.7184
49.478 629 25.0799
49.5955 560 23.6643
49.713 537 23.1733
49.8304 517 22.7376
49.9479 494 22.2261
50.0653 593 24.3516
50.1827 627 25.04
50.3001 687 26.2107
50.4175 688 26.2298
50.5348 710 26.6458
50.6521 796 28.2135
50.7694 780 27.9285
50.8867 818 28.6007
51.004 860 29.3258
51.1212 828 28.775
51.2384 816 28.5657
51.3556 874 29.5635
51.4727 927 30.4467
51.5899 879 29.6479
51.707 862 29.3598
51.824 903 30.05
51.9411 875 29.5804
52.0581 910 30.1662
52.175 903 30.05
52.2919 968 31.1127
52.4088 954 30.8869
52.5257 978 31.273
52.6425 989 31.4484
52.7593 1061 32.573
52.876 1046 32.3419
52.9927 1058 32.5269
53.1094 926 30.4302
53.226 960 30.9839
53.3426 827 28.7576
53.4591 849 29.1376
53.5756 860 29.3258
53.692 990 31.4643
53.8084 1104 33.2265
53.9248 1125 33.541
54.0411 1193 34.5398
54.1573 1202 34.6699
54.2735 0 1
54.3896 0 1
54.5057 0 1
54.6217 0 1
54.7377 0 1
54.8537 0 1
54.9695 0 1
55.0853 0 1
55.2011 0 1
55.3168 0 1
55.4324 0 1
57.824 0 1
57.9396 0 1
58.0553 0 1
58.1711 0 1
58.2869 0 1
58.4028 0 1
58.5187 0 1
58.6347 0 1
58.7508 0 1
58.8669 0 1
58.983 1288 35.8887
59.0992 1335 36.5377
59.2155 1441 37.9605
59.3318 1485 38.5357
59.4482 1420 37.6829
59.5646 1441 37.9605
59.681 1473 38.3797
59.7975 1409 37.5366
59.9141 1458 38.1838
60.0306 1373 37.054
60.1473 1339 36.5923
60.2639 1283 35.819
60.3807 1279 35.7631
60.4974 1301 36.0694
60.6142 1224 34.9857
60.731 1286 35.8608
60.8479 1264 35.5528
60.9648 1206 34.7275
61.0818 1231 35.0856
61.1987 1238 35.1852
61.3158 1298 36.0278
61.4328 1341 36.6197
61.5499 1192 34.5254
61.667 1170 34.2053
61.7841 1066 32.6497
61.9013 1034 32.1559
62.0185 996 31.5595
62.1357 1050 32.4037
62.253 1122 33.4963
62.3702 1241 35.2278
62.4875 1270 35.6371
62.6049 1294 35.9722
62.7222 1351 36.756
62.8396 1395 37.3497
62.9569 1419 37.6696
63.0743 1531 39.128
63.1918 1471 38.3536
63.3092 1451 38.092
63.4267 1474 38.3927
63.5441 1382 37.1753
63.6616 1348 36.7151
63.7791 1360 36.8782
63.8966 1372 37.0405
64.0142 1337 36.565
64.1317 1375 37.081
64.2492 1363 36.9188
64.3668 1372 37.0405
64.4843 1314 36.2491
64.6019 1343 36.647
64.7195 1424 37.7359
64.837 1363 36.9188
64.9546 1363 36.9188
65.0722 1338 36.5787
65.1898 1241 35.2278
65.3074 1216 34.8712
65.4249 1003 31.6702
65.5425 1013 31.8277
65.6601 1024 32
65.7777 1032 32.1248
65.8952 1216 34.8712
66.0128 1291 35.9305
66.1304 1334 36.524
66.2479 1432 37.8418
66.3655 1470 38.3406
66.483 1405 37.4833
66.6005 1429 37.8021
66.718 1522 39.0128
66.8355 1444 38
66.953 1464 38.2623
67.0705 1406 37.4967
67.1879 1391 37.2961
67.3054 1320 36.3318
67.4228 1306 36.1386
67.5402 1310 36.1939
67.6576 1246 35.2987
67.7749 1209 34.7707
67.8923 1210 34.7851
68.0096 1209 34.7707
68.1269 1221 34.9428
68.2442 1165 34.1321
68.3614 1257 35.4542
68.4787 1251 35.3695
68.5958 1247 35.3129
68.713 1168 34.176
68.8302 1197 34.5977
68.9473 1034 32.1559
69.0643 959 30.9677
69.1814 905 30.0832
69.2984 864 29.3939
69.4154 979 31.289
69.5323 1061 32.573
69.6492 1168 34.176
69.7661 1295 35.9861
69.8829 1237 35.171
69.9997 1406 37.4967
70.1165 1407 37.51
70.2332 1398 37.3898
70.3499 1390 37.2827
70.4665 1372 37.0405
70.5831 1323 36.3731
70.6996 1390 37.2827
70.8161 1280 35.7771
70.9326 1237 35.171
71.049 1220 34.9285
71.1653 1218 34.8999
71.2817 1160 34.0588
71.3979 1077 32.8177
71.5141 1160 34.0588
71.6303 1116 33.4066
71.7464 1071 32.7261
71.8624 0 1
71.9784 0 1
72.0944 0 1
72.2102 0 1
72.3261 0 1
72.4418 0 1
72.5575 0 1
72.6732 0 1
75.1054 0 1
75.2209 0 1
75.3365 0 1
75.4521 0 1
75.5678 0 1
75.6835 0 1
75.7993 0 1
75.9151 0 1
76.031 0 1
76.147 1192 34.5254
76.263 1266 35.5809
76.3791 1266 35.5809
76.4952 1215 34.8569
76.6113 1190 34.4964
76.7276 1277 35.7351
76.8438 1201 34.6554
76.9601 1221 34.9428
77.0765 1284 35.8329
77.1929 1272 35.6651
77.3093 1346 36.6879
77.4258 1314 36.2491
77.5423 1292 35.9444
77.6589 1312 36.2215
77.7755 1243 35.2562
77.8921 1096 33.1059
78.0088 977 31.257
78.1256 885 29.7489
78.2423 837 28.931
78.3591 875 29.5804
78.4759 960 30.9839
78.5928 1082 32.8938
78.7097 1198 34.6121
78.8266 1276 35.7211
78.9436 1342 36.6333
79.0606 1260 35.4965
79.1776 1369 37
79.2946 1403 37.4566
79.4117 1333 36.5103
79.5288 1370 37.0135
79.6459 1320 36.3318
79.7631 1238 35.1852
79.8802 1251 35.3695
79.9974 1156 34
80.1147 1062 32.5883
80.2319 1078 32.8329
80.3491 1099 33.1512
80.4664 1040 32.249
80.5837 1077 32.8177
80.701 1107 33.2716
80.8183 1073 32.7567
80.9357 1132 33.6452
81.053 1145 33.8378
81.1704 1176 34.2929
81.2877 1087 32.9697
81.4051 1122 33.4963
81.5225 953 30.8707
81.6399 952 30.8545
81.7573 824 28.7054
81.8747 771 27.7669
81.9922 719 26.8142
82.1096 832 28.8444
82.227 907 30.1164
82.3444 960 30.9839
82.4619 1090 33.0151
82.5793 1134 33.6749
82.6967 1146 33.8526
82.8142 1139 33.7491
82.9316 1149 33.8969
83.049 1116 33.4066
83.1664 1142 33.7935
83.2838 1078 32.8329
83.4012 1134 33.6749
83.5186 972 31.1769
83.636 986 31.4006
83.7534 950 30.8221
83.8708 910 30.1662
83.9881 944 30.7246
84.1055 946 30.7571
84.2228 967 31.0966
84.3401 962 31.0161
84.4575 991 31.4802
84.5747 1006 31.7175
84.692 1054 32.4654
84.8093 1048 32.3728
84.9265 970 31.1448
85.0437 938 30.6268
85.1609 881 29.6816
85.2781 793 28.1603
85.3952 747 27.3313
85.5123 716 26.7582
85.6294 782 27.9643
85.7465 891 29.8496
85.8636 937 30.6105
85.9806 1078 32.8329
86.0976 1137 33.7194
86.2145 1145 33.8378
86.3315 1311 36.2077
86.4484 1193 34.5398
86.5652 1257 35.4542
86.682 1315 36.2629
86.7988 1252 35.3836
86.9156 1199 34.6266
87.0323 1229 35.0571
87.149 1171 34.2199
87.2657 1139 33.7491
87.3823 1173 34.2491
87.4988 1132 33.6452
87.6154 1043 32.2955
87.7318 1142 33.7935
87.8483 1167 34.1614
87.9647 1284 35.8329
88.081 1250 35.3553
88.1973 1291 35.9305
88.3136 1340 36.606
88.4298 1326 36.4143
88.546 1188 34.4674
88.6621 1147 33.8674
88.7781 968 31.1127
88.8942 0 1
89.0101 0 1
89.126 0 1
89.2419 0 1
89.3577 0 1
89.4734 0 1
89.5891 0 1
89.7047 0 1
89.8203 0 1
89.9358 0 1
92.3269 0 1
92.4424 0 1
92.558 0 1
92.6736 0 1
92.7893 0 1
92.905 0 1
93.0208 0 1
93.1366 0 1
93.2525 0 1
93.3685 0 1
93.4845 0 1
93.6005 1228 35.0428
93.7167 1286 35.8608
93.8328 1230 35.0714
93.949 1262 35.5246
94.0653 1115 33.3916
94.1816 1155 33.9853
94.2979 996 31.5595
94.4143 926 30.4302
94.5307 914 30.2324
94.6472 896 29.9333
94.7637 1016 31.8748
94.8803 1090 33.0151
94.9969 1209 34.7707
95.1135 1266 35.5809
95.2302 1339 36.5923
95.3469 1377 37.108
95.4637 1413 37.5899
95.5805 1498 38.704
95.6973 1462 38.2361
95.8142 1485 38.5357
95.9311 1440 37.9473
96.048 1319 36.318
96.1649 1356 36.8239
96.2819 1344 36.6606
96.3989 1202 34.6699
96.516 1276 35.7211
96.633 1184 34.4093
96.7501 1179 34.3366
96.8673 1159 34.0441
96.9844 1228 35.0428
97.1016 1278 35.7491
97.2188 1281 35.7911
97.336 1329 36.4555
97.4532 1288 35.8887
97.5704 1326 36.4143
97.6877 1293 35.9583
97.805 1180 34.3511
97.9223 1030 32.0936
98.0396 948 30.7896
98.1569 910 30.1662
98.2743 903 30.05
98.3916 958 30.9516
98.509 1082 32.8938
98.6264 1143 33.8083
98.7438 1277 35.7351
98.8612 1378 37.1214
98.9786 1417 37.6431
99.096 1518 38.9615
99.2134 1431 37.8286
99.3308 1465 38.2753
99.4482 1548 39.3446
99.5656 1401 37.4299
99.6831 1453 38.1182
99.8005 1327 36.428
99.9179 1325 36.4005
100.035 1337 36.565
100.153 1265 35.5668
100.27 1210 34.7851
100.388 1277 35.7351
100.505 1248 35.327
100.622 1226 35.0143
100.74 1288 35.8887
100.857 1383 37.1887
100.975 1324 36.3868
101.092 1364 36.9324
101.209 1348 36.7151
101.327 1281 35.7911
101.444 1108 33.2866
101.561 1001 31.6386
101.679 1052 32.4345
101.796 943 30.7083
101.913 921 30.348
102.03 1134 33.6749
102.148 1224 34.9857
102.265 1326 36.4143
102.382 1391 37.2961
102.499 1412 37.5766
102.616 1495 38.6652
102.733 1531 39.128
102.851 1513 38.8973
102.968 1541 39.2556
103.085 1483 38.5097
103.202 1445 38.0132
103.319 1393 37.3229
103.436 1415 37.6165
103.552 1323 36.3731
103.669 1339 36.5923
103.786 1263 35.5387
103.903 1271 35.6511
104.02 1313 36.2353
104.137 1370 37.0135
104.253 1348 36.7151
104.37 1496 38.6782
104.487 1371 37.027
104.603 1427 37.7757
104.72 1465 38.2753
104.836 1322 36.3593
104.953 1157 34.0147
105.069 1086 32.9545
105.186 1021 31.9531
105.302 1037 32.2025
105.418 1104 33.2265
105.535 1318 36.3043
105.651 1477 38.4318
105.767 1534 39.1663
105.883 1685 41.0488
105.999 1612 40.1497
106.115 0 1
106.231 0 1
106.347 0 1
106.463 0 1
106.579 0 1
106.694 0 1
106.81 0 1
106.926 0 1
107.041 0 1
107.157 0 1
109.576 0 1
109.692 0 1
109.807 0 1
109.923 0 1
110.039 0 1
110.155 0 1
110.27 0 1
110.386 0 1
110.502 0 1
110.618 1201 34.6554
110.735 1324 36.3868
110.851 1503 38.7685
110.967 1501 38.7427
111.083 1596 39.95
111.199 1583 39.7869
111.316 1649 40.6079
111.432 1582 39.7744
111.549 1575 39.6863
111.665 1518 38.9615
111.782 1486 38.5487
111.898 1448 38.0526
112.015 1421 37.6962
112.132 1314 36.2491
112.248 1334 36.524
112.365 1298 36.0278
112.482 1254 35.4119
112.599 1329 36.4555
112.716 1301 36.0694
112.832 1390 37.2827
112.949 1426 37.7624
113.066 1365 36.9459
113.183 1320 36.3318
113.3 1342 36.6333
113.417 1238 35.1852
113.534 1060 32.5576
113.652 992 31.496
113.769 1072 32.7414
113.886 963 31.0322
114.003 1015 31.8591
114.12 1216 34.8712
114.238 1201 34.6554
114.355 1412 37.5766
114.472 1415 37.6165
114.589 1451 38.092
114.707 1456 38.1576
114.824 1463 38.2492
114.942 1470 38.3406
115.059 1505 38.7943
115.176 1579 39.7366
115.294 1498 38.704
115.411 1428 37.7889
115.529 1365 36.9459
115.646 1342 36.6333
115.764 1272 35.6651
115.881 1234 35.1283
115.999 1242 35.242
116.116 1287 35.8748
116.234 1267 35.5949
116.351 1395 37.3497
116.469 1376 37.0945
116.586 1376 37.0945
116.704 1388 37.2559
116.821 1424 37.7359
116.939 1296 36
117.056 1168 34.176
117.174 1167 34.1614
117.291 1055 32.4808
117.409 1011 31.7962
117.526 1037 32.2025
117.644 1161 34.0735
117.761 1330 36.4692
117.879 1414 37.6032
117.996 1446 38.0263
118.114 1505 38.7943
118.231 1603 40.0375
118.349 1540 39.2428
118.466 1613 40.1622
118.584 1570 39.6232
118.701 1523 39.0256
118.819 1558 39.4715
118.936 1475 38.4057
119.053 1467 38.3014
119.171 1393 37.3229
119.288 1394 37.3363
119.405 1311 36.2077
119.523 1325 36.4005
119.64 1327 36.428
119.757 1367 36.973
119.875 1338 36.5787
119.992 1321 36.3456
120.109 1365 36.9459
120.226 1358 36.8511
120.343 1407 37.51
120.46 1383 37.1887
120.578 1335 36.5377
120.695 1210 34.7851
120.812 1158 34.0294
120.929 1144 33.8231
121.046 1169 34.1906
121.163 1057 32.5115
121.279 1141 33.7787
121.396 1224 34.9857
121.513 1352 36.7696
121.63 1432 37.8418
121.747 1465 38.2753
121.863 1551 39.3827
121.98 1554 39.4208
122.097 1608 40.0999
122.213 1508 38.833
122.33 1563 39.5348
122.446 1622 40.2741
122.563 1470 38.3406
122.679 1478 38.4448
122.795 1427 37.7757
122.912 1399 37.4032
123.028 1391 37.2961
123.144 1310 36.1939
123.26 1287 35.8748
123.377 0 1
123.493 0 1
123.609 0 1
123.725 0 1
123.84 0 1
123.956 0 1
124.072 0 1
124.188 0 1
124.303 0 1
124.419 0 1
126.852 0 1
126.968 0 1
127.083 0 1
127.199 0 1
127.315 0 1
127.431 0 1
127.547 0 1
127.663 0 1
127.779 0 1
127.895 0 1
128.011 0 1
128.127 0 1
128.243 0 1
128.359 1458 38.1838
128.476 1426 37.7624
128.592 1345 36.6742
128.708 1509 38.8458
128.825 1459 38.1969
128.941 1539 39.2301
129.058 1563 39.5348
129.174 1500 38.7298
129.291 1494 38.6523
129.408 1498 38.704
129.524 1447 38.0395
129.641 1428 37.7889
129.758 1252 35.3836
129.875 1278 35.7491
129.992 1311 36.2077
130.108 1266 35.5809
130.225 1275 35.7071
130.342 1408 37.5233
130.459 1457 38.1707
130.576 1586 39.8246
130.693 1596 39.95
130.81 1650 40.6202
130.928 1613 40.1622
131.045 1613 40.1622
131.162 1624 40.2989
131.279 1617 40.2119
131.396 1752 41.8569
131.513 1752 41.8569
131.631 1622 40.2741
131.748 1647 40.5832
131.865 1613 40.1622
131.983 1512 38.8844
132.1 1436 37.8946
132.217 1449 38.0657
132.335 1566 39.5727
132.452 1615 40.1871
132.57 1577 39.7115
132.687 1587 39.8372
132.804 1631 40.3856
132.922 1607 40.0874
133.039 1446 38.0263
133.157 1402 37.4433
133.274 1345 36.6742
133.392 1276 35.7211
133.509 1286 35.8608
133.627 1228 35.0428
133.744 1339 36.5923
133.862 1353 36.7831
133.979 1419 37.6696
134.097 1548 39.3446
134.214 1652 40.6448
134.332 1630 40.3733
134.449 1541 39.2556
134.567 1643 40.5339
134.684 1675 40.9268
134.802 1728 41.5692
134.919 1775 42.1307
135.037 1697 41.1947
135.154 1648 40.5956
135.272 1636 40.4475
135.389 1563 39.5348
135.507 1569 39.6106
135.624 1447 38.0395
135.742 1391 37.2961
135.859 1542 39.2683
135.977 1563 39.5348
136.094 1549 39.3573
136.211 1588 39.8497
136.329 1621 40.2616
136.446 1547 39.3319
136.564 1499 38.7169
136.681 1455 38.1445
136.798 1432 37.8418
136.915 1410 37.55
137.033 1332 36.4966
137.15 1310 36.1939
137.267 1277 35.7351
137.384 1366 36.9594
137.502 1453 38.1182
137.619 1515 38.923
137.736 1507 38.8201
137.853 1494 38.6523
137.97 1620 40.2492
138.087 1606 40.0749
138.204 1651 40.6325
138.321 1627 40.3361
138.438 1626 40.3237
138.555 1731 41.6053
138.672 1610 40.1248
138.788 1661 40.7554
138.905 1633 40.4104
139.022 1591 39.8873
139.139 1506 38.8072
139.255 1471 38.3536
139.372 1425 37.7492
139.488 1470 38.3406
139.605 1496 38.6782
139.721 1575 39.6863
139.838 1574 39.6737
139.954 1591 39.8873
140.071 1562 39.5221
140.187 1560 39.4968
140.303 1456 38.1576
140.419 1375 37.081
140.535 1240 35.2136
140.652 1259 35.4824
140.768 0 1
140.884 0 1
141 0 1
141.115 0 1
141.231 0 1
141.347 0 1
141.463 0 1
141.578 0 1
141.694 0 1
144.104 0 1
144.219 0 1
144.335 0 1
144.45 0 1
144.566 0 1
144.682 0 1
144.798 0 1
144.914 0 1
145.03 0 1
145.146 1123 33.5112
145.262 1192 34.5254
145.378 1192 34.5254
145.494 1129 33.6006
145.61 1101 33.1813
145.726 1032 32.1248
145.842 1029 32.078
145.959 1028 32.0624
146.075 1007 31.7333
146.192 1005 31.7017
146.308 1109 33.3017
146.425 1138 33.7343
146.541 1163 34.1028
146.658 1161 34.0735
146.774 1293 35.9583
146.891 1189 34.4819
147.008 1289 35.9026
147.125 1264 35.5528
147.241 1271 35.6511
147.358 1326 36.4143
147.475 1270 35.6371
147.592 1266 35.5809
147.709 1217 34.8855
147.826 1227 35.0286
147.943 1204 34.6987
148.06 1157 34.0147
148.177 1089 33
148.294 1154 33.9706
148.411 1172 34.2345
148.528 1225 35
148.645 1216 34.8712
148.762 1208 34.7563
148.88 1238 35.1852
148.997 1307 36.1525
149.114 1229 35.0571
149.231 1132 33.6452
149.349 1180 34.3511
149.466 1111 33.3317
149.583 1133 33.6601
149.701 1044 32.311
149.818 1101 33.1813
149.935 1063 32.6037
150.053 1034 32.1559
150.17 1086 32.9545
150.287 1207 34.7419
150.405 1273 35.6791
150.522 1208 34.7563
150.64 1195 34.5688
150.757 1258 35.4683
150.875 1236 35.1568
150.992 1309 36.1801
151.11 1390 37.2827
151.227 1317 36.2905
151.344 1289 35.9026
151.462 1276 35.7211
151.579 1260 35.4965
151.697 1286 35.8608
151.814 1160 34.0588
151.932 1093 33.0606
152.049 1161 34.0735
152.167 1211 34.7994
152.284 1323 36.3731
152.402 1335 36.5377
152.519 1290 35.9166
152.636 1295 35.9861
152.754 1332 36.4966
152.871 1258 35.4683
152.989 1145 33.8378
153.106 1169 34.1906
153.223 1142 33.7935
153.341 1088 32.9848
153.458 1151 33.9264
153.575 1148 33.8821
153.693 1117 33.4215
153.81 1192 34.5254
153.927 1266 35.5809
154.044 1288 35.8887
154.162 1247 35.3129
154.279 1358 36.8511
154.396 1410 37.55
154.513 1412 37.5766
154.63 1423 37.7227
154.747 1415 37.6165
154.864 1482 38.4968
154.981 1469 38.3275
155.098 1378 37.1214
155.215 1328 36.4417
155.332 1331 36.4829
155.449 1311 36.2077
155.566 1290 35.9166
155.683 1325 36.4005
155.8 1362 36.9053
155.917 1387 37.2424
156.033 1363 36.9188
156.15 0 1
156.267 0 1
156.383 0 1
156.5 0 1
156.617 0 1
156.733 0 1
156.85 0 1
156.966 0 1
157.082 0 1
157.199 0 1
157.315 0 1
157.431 0 1
157.547 0 1
157.664 0 1
157.78 0 1
157.896 0 1
158.012 0 1
158.128 0 1
158.244 0 1
158.359 0 1
158.475 0 1
158.591 0 1
158.706 0 1
