
6.15755 0 1
6.2731 0 1
6.3887 0 1
6.50437 0 1
6.62009 0 1
6.73587 0 1
6.8517 0 1
6.96759 0 1
7.08353 0 1
7.19952 0 1
7.31557 0 1
7.43166 0 1
7.54781 0 1
7.664 0 1
7.78024 0 1
7.89653 0 1
8.01286 0 1
8.12924 0 1
8.24567 0 1
8.36213 0 1
8.47864 0 1
8.59519 0 1
8.71178 0 1
8.82841 0 1
8.94508 0 1
9.06179 0 1
9.17853 0 1
9.29531 0 1
9.41212 0 1
9.52897 0 1
9.64584 0 1
9.76276 0 1
9.8797 0 1
9.99667 0 1
10.1137 0 1
10.2307 0 1
10.3478 0 1
10.4648 0 1
10.5819 0 1
10.6991 0 1
10.8162 0 1
10.9334 0 1
11.0506 0 1
11.1678 0 1
11.285 0 1
11.4023 0 1
11.5196 0 1
11.6369 0 1
11.7542 0 1
11.8715 0 1
11.9888 0 1
12.1062 0 1
12.2235 0 1
12.3409 0 1
12.4582 0 1
12.5756 0 1
12.693 0 1
12.8104 0 1
12.9278 0 1
13.0452 0 1
13.1626 0 1
13.28 0 1
13.3974 0 1
13.5149 0 1
13.6323 0 1
13.7497 0 1
13.8671 0 1
13.9845 0 1
14.1019 0 1
14.2193 0 1
14.3367 0 1
14.4541 0 1
14.5714 0 1
14.6888 0 1
14.8062 0 1
14.9235 0 1
15.0408 0 0
15.1581 0 0
15.2755 0 0
15.3927 0 0
15.51 0 0
15.6273 0 0
15.7445 0 0
15.8617 0 0
15.9789 0 0
16.0961 0 0
16.2132 0 0
16.3304 0 0
16.4475 0 0
16.5646 0 0
16.6816 0 0
16.7986 0 0
16.9156 0 0
17.0326 0 0
17.1496 0 0
17.2665 0 0
17.3833 0 0
17.5002 0 0
17.617 0 0
17.7338 0 0
17.8505 0 0
17.9672 0 0
18.0839 0 0
18.2005 0 0
18.3171 0 0
18.4337 0 0
18.5502 0 0
18.6666 0 0
18.7831 0 0
18.8994 0 0
19.0158 0 0
19.1321 0 0
19.2483 0 0
19.3645 0 0
19.4806 0 0
19.5967 0 0
19.7128 0 0
19.8288 0 0
19.9447 0 0
20.0606 0 1
20.1764 0 1
20.2922 0 1
20.4079 0 1
20.5236 0 1
20.6392 0 1
20.7548 0 1
20.8702 0 1
23.3078 0 1
23.4233 0 1
23.539 0 1
23.6547 0 1
23.7704 0 1
23.8862 0 1
24.0021 0 1
24.118 0 1
24.234 0 1
24.35 0 1
24.4661 1269 35.623
24.5822 1374 37.0675
24.6984 1473 38.3797
24.8146 1669 40.8534
24.9309 1898 43.566
25.0472 2221 47.1275
25.1636 2403 49.0204
25.28 2547 50.4678
25.3965 2643 51.4101
25.513 2532 50.319
25.6296 2578 50.774
25.7462 2623 51.2152
25.8628 2698 51.9423
25.9795 2593 50.9215
26.0962 2692 51.8845
26.213 2642 51.4004
26.3298 2702 51.9808
26.4466 2819 53.0943
26.5635 2674 51.7107
26.6804 2635 51.3323
26.7973 2702 51.9808
26.9143 2564 50.636
27.0313 2463 49.6286
27.1483 2455 49.548
27.2653 2486 49.8598
27.3824 2471 49.7092
27.4996 2239 47.3181
27.6167 2156 46.4327
27.7339 2111 45.9456
27.8511 2245 47.3814
27.9683 2331 48.2804
28.0855 2388 48.8672
28.2028 2472 49.7192
28.3201 2410 49.0918
28.4374 2443 49.4267
28.5547 2392 48.9081
28.6721 2441 49.4065
28.7894 2458 49.5782
28.9068 2492 49.9199
29.0242 2517 50.1697
29.1416 2500 50
29.259 2567 50.6656
29.3764 2483 49.8297
29.4939 2374 48.7237
29.6113 2270 47.6445
29.7288 2333 48.3011
29.8463 2265 47.592
29.9638 2251 47.4447
30.0812 2271 47.655
30.1987 2282 47.7703
30.3162 2322 48.1871
30.4337 2324 48.2079
30.5512 2304 48
30.6687 2373 48.7134
30.7862 2421 49.2037
30.9037 2306 48.0208
31.0212 2072 45.5192
31.1387 2196 46.8615
31.2562 2215 47.0638
31.3737 2425 49.2443
31.4912 2401 49
31.6087 2558 50.5767
31.7262 2457 49.5681
31.8436 2429 49.2849
31.9611 2353 48.5077
32.0785 2477 49.7695
32.1959 2311 48.0729
32.3134 2314 48.1041
32.4308 2361 48.5901
32.5482 2278 47.7284
32.6655 2233 47.2546
32.7829 2258 47.5184
32.9002 2296 47.9166
33.0176 2181 46.7012
33.1349 2096 45.7821
33.2522 2128 46.1303
33.3694 2092 45.7384
33.4867 2182 46.7119
33.6039 2065 45.4423
33.7211 2178 46.669
33.8383 2177 46.6583
33.9554 2231 47.2335
34.0725 2230 47.2229
34.1896 2231 47.2335
34.3067 2207 46.9787
34.4237 2389 48.8774
34.5407 2129 46.1411
34.6577 2127 46.1194
34.7746 2098 45.8039
34.8915 2231 47.2335
35.0084 2227 47.1911
35.1252 2512 50.1199
35.242 2265 47.592
35.3587 2299 47.9479
35.4755 2382 48.8057
35.5921 2348 48.4562
35.7088 2184 46.7333
35.8254 2204 46.9468
35.9419 2116 46
36.0584 2051 45.288
36.1749 1992 44.6318
36.2913 1956 44.2267
36.4077 1915 43.7607
36.524 1785 42.2493
36.6403 1702 41.2553
36.7565 1551 39.3827
36.8727 1479 38.4578
36.9889 1427 37.7757
37.1049 1408 37.5233
37.221 0 1
37.3369 0 1
37.4529 0 1
37.5687 0 1
37.6845 0 1
37.8003 0 1
37.916 0 1
38.0316 0 1
38.1472 0 1
40.5851 0 1
40.7008 0 1
40.8164 0 1
40.9322 0 1
41.048 0 1
41.1639 0 1
41.2798 0 1
41.3958 0 1
41.5118 0 1
41.6279 0 1
41.744 2290 47.8539
41.8602 3076 55.4617
41.9765 3665 60.5392
42.0928 3811 61.7333
42.2091 3930 62.6897
42.3255 3907 62.506
42.4419 3945 62.8092
42.5584 3954 62.8808
42.675 4028 63.4665
42.7915 4059 63.7103
42.9081 4177 64.6297
43.0248 4222 64.9769
43.1415 4092 63.9687
43.2582 4005 63.2851
43.375 3732 61.0901
43.4918 3688 60.7289
43.6087 3780 61.4817
43.7256 3841 61.9758
43.8425 3860 62.1289
43.9595 3985 63.1269
44.0765 3847 62.0242
44.1935 3829 61.8789
44.3106 3721 61
44.4277 3627 60.2246
44.5448 3508 59.2284
44.6619 3316 57.5847
44.7791 3192 56.4978
44.8963 3029 55.0364
45.0136 2981 54.5985
45.1308 2560 50.5964
45.2481 2543 50.4282
45.3654 2442 49.4166
45.4827 2225 47.1699
45.6001 2126 46.1086
45.7174 2025 45
45.8348 1967 44.3509
45.9522 1933 43.9659
46.0697 1944 44.0908
46.1871 1927 43.8976
46.3046 1925 43.8748
46.422 1987 44.5758
46.5395 1927 43.8976
46.657 1989 44.5982
46.7745 2036 45.1221
46.892 1814 42.5911
47.0096 1773 42.107
47.1271 1825 42.72
47.2446 1911 43.715
47.3622 1899 43.5775
47.4797 1941 44.0568
47.5973 1887 43.4396
47.7149 1895 43.5316
47.8324 1859 43.1161
47.95 1946 44.1135
48.0675 1867 43.2088
48.1851 1854 43.0581
48.3027 1789 42.2966
48.4202 1728 41.5692
48.5378 1812 42.5676
48.6554 1657 40.7063
48.7729 1741 41.7253
48.8904 1695 41.1704
49.008 1571 39.6358
49.1255 1681 41
49.243 1692 41.1339
49.3605 1661 40.7554
49.478 1713 41.3884
49.5955 1672 40.8901
49.713 1745 41.7732
49.8304 1838 42.8719
49.9479 1869 43.2319
50.0653 1843 42.9302
50.1827 1814 42.5911
50.3001 1666 40.8167
50.4175 1519 38.9744
50.5348 1506 38.8072
50.6521 1556 39.4462
50.7694 1678 40.9634
50.8867 1812 42.5676
51.004 1876 43.3128
51.1212 1918 43.795
51.2384 1846 42.9651
51.3556 1786 42.2611
51.4727 1835 42.8369
51.5899 1835 42.8369
51.707 1836 42.8486
51.824 1790 42.3084
51.9411 1736 41.6653
52.0581 1758 41.9285
52.175 1748 41.8091
52.2919 1650 40.6202
52.4088 1684 41.0366
52.5257 1655 40.6817
52.6425 1661 40.7554
52.7593 1600 40
52.876 1678 40.9634
52.9927 1575 39.6863
53.1094 1588 39.8497
53.226 1653 40.6571
53.3426 1651 40.6325
53.4591 1660 40.7431
53.5756 1459 38.1969
53.692 1292 35.9444
53.8084 1199 34.6266
53.9248 1098 33.1361
54.0411 958 30.9516
54.1573 916 30.2655
54.2735 0 1
54.3896 0 1
54.5057 0 1
54.6217 0 1
54.7377 0 1
54.8537 0 1
54.9695 0 1
55.0853 0 1
55.2011 0 1
55.3168 0 1
55.4324 0 1
57.824 0 1
57.9396 0 1
58.0553 0 1
58.1711 0 1
58.2869 0 1
58.4028 0 1
58.5187 0 1
58.6347 0 1
58.7508 0 1
58.8669 0 1
58.983 1456 38.1576
59.0992 1522 39.0128
59.2155 1530 39.1152
59.3318 1595 39.9375
59.4482 1784 42.2374
59.5646 1970 44.3847
59.681 2044 45.2106
59.7975 2111 45.9456
59.9141 2025 45
60.0306 2093 45.7493
60.1473 2154 46.4112
60.2639 2119 46.0326
60.3807 2079 45.5961
60.4974 2128 46.1303
60.6142 2098 45.8039
60.731 2079 45.5961
60.8479 2121 46.0543
60.9648 2160 46.4758
61.0818 2161 46.4866
61.1987 2134 46.1952
61.3158 2102 45.8476
61.4328 2004 44.7661
61.5499 1990 44.6094
61.667 1974 44.4297
61.7841 2014 44.8776
61.9013 1992 44.6318
62.0185 2037 45.1331
62.1357 2095 45.7712
62.253 2090 45.7165
62.3702 1995 44.6654
62.4875 2004 44.7661
62.6049 1859 43.1161
62.7222 1835 42.8369
62.8396 1935 43.9886
62.9569 2110 45.9347
63.0743 2194 46.8402
63.1918 2225 47.1699
63.3092 2224 47.1593
63.4267 2253 47.4658
63.5441 2150 46.3681
63.6616 2110 45.9347
63.7791 2193 46.8295
63.8966 2114 45.9783
64.0142 2135 46.2061
64.1317 2087 45.6837
64.2492 2137 46.2277
64.3668 2169 46.5725
64.4843 2145 46.3141
64.6019 2064 45.4313
64.7195 1946 44.1135
64.837 2063 45.4203
64.9546 1963 44.3058
65.0722 1997 44.6878
65.1898 1942 44.0681
65.3074 2069 45.4863
65.4249 2066 45.4533
65.5425 2047 45.2438
65.6601 1995 44.6654
65.7777 2203 46.9361
65.8952 2011 44.8442
66.0128 1999 44.7102
66.1304 1863 43.1625
66.2479 1646 40.5709
66.3655 1801 42.4382
66.483 1957 44.238
66.6005 2089 45.7056
66.718 2137 46.2277
66.8355 2155 46.422
66.953 2130 46.1519
67.0705 2130 46.1519
67.1879 2168 46.5618
67.3054 2129 46.1411
67.4228 2123 46.076
67.5402 2082 45.6289
67.6576 2051 45.288
67.7749 2005 44.7772
67.8923 2067 45.4643
68.0096 2101 45.8367
68.1269 2120 46.0435
68.2442 1992 44.6318
68.3614 2053 45.31
68.4787 1984 44.5421
68.5958 1943 44.0795
68.713 1923 43.852
68.8302 1869 43.2319
68.9473 1900 43.589
69.0643 1964 44.317
69.1814 2006 44.7884
69.2984 1926 43.8862
69.4154 1995 44.6654
69.5323 2074 45.5412
69.6492 1853 43.0465
69.7661 1679 40.9756
69.8829 1545 39.3065
69.9997 1630 40.3733
70.1165 1793 42.3438
70.2332 1714 41.4005
70.3499 1704 41.2795
70.4665 1532 39.1408
70.5831 1462 38.2361
70.6996 1446 38.0263
70.8161 1350 36.7423
70.9326 1383 37.1887
71.049 1258 35.4683
71.1653 1184 34.4093
71.2817 1188 34.4674
71.3979 1099 33.1512
71.5141 1075 32.7872
71.6303 1096 33.1059
71.7464 1031 32.1092
71.8624 0 1
71.9784 0 1
72.0944 0 1
72.2102 0 1
72.3261 0 1
72.4418 0 1
72.5575 0 1
72.6732 0 1
75.1054 0 1
75.2209 0 1
75.3365 0 1
75.4521 0 1
75.5678 0 1
75.6835 0 1
75.7993 0 1
75.9151 0 1
76.031 0 1
76.147 1606 40.0749
76.263 1755 41.8927
76.3791 1776 42.1426
76.4952 1894 43.5201
76.6113 1879 43.3474
76.7276 1837 42.8602
76.8438 1856 43.0813
76.9601 2014 44.8776
77.0765 2007 44.7996
77.1929 1969 44.3734
77.3093 1938 44.0227
77.4258 2003 44.7549
77.5423 1886 43.4281
77.6589 1888 43.4511
77.7755 1805 42.4853
77.8921 1883 43.3935
78.0088 1859 43.1161
78.1256 1809 42.5323
78.2423 1960 44.2719
78.3591 1889 43.4626
78.4759 1982 44.5197
78.5928 1919 43.8064
78.7097 1786 42.2611
78.8266 1453 38.1182
78.9436 1431 37.8286
79.0606 1384 37.2022
79.1776 1730 41.5933
79.2946 1825 42.72
79.4117 1908 43.6807
79.5288 2073 45.5302
79.6459 2022 44.9667
79.7631 2023 44.9778
79.8802 2009 44.8219
79.9974 2043 45.1996
80.1147 2028 45.0333
80.2319 1960 44.2719
80.3491 2037 45.1331
80.4664 2052 45.299
80.5837 1990 44.6094
80.701 2058 45.3652
80.8183 2144 46.3033
80.9357 2137 46.2277
81.053 2052 45.299
81.1704 2078 45.5851
81.2877 2053 45.31
81.4051 1917 43.7836
81.5225 2028 45.0333
81.6399 1968 44.3621
81.7573 2106 45.8912
81.8747 2211 47.0213
81.9922 2229 47.2123
82.1096 2277 47.7179
82.227 2473 49.7293
82.3444 2278 47.7284
82.4619 2066 45.4533
82.5793 1900 43.589
82.6967 2047 45.2438
82.8142 2529 50.2892
82.9316 2993 54.7083
83.049 3246 56.9737
83.1664 3512 59.2621
83.2838 3579 59.8247
83.4012 3650 60.4152
83.5186 3736 61.1228
83.636 3788 61.5467
83.7534 3856 62.0967
83.8708 3915 62.57
83.9881 4038 63.5453
84.1055 4130 64.2651
84.2228 4049 63.6318
84.3401 4090 63.9531
84.4575 4123 64.2106
84.5747 4133 64.2884
84.692 4025 63.4429
84.8093 3988 63.1506
84.9265 3964 62.9603
85.0437 3846 62.0161
85.1609 3867 62.1852
85.2781 3972 63.0238
85.3952 3881 62.2977
85.5123 3966 62.9762
85.6294 3878 62.2736
85.7465 3852 62.0645
85.8636 3469 58.8982
85.9806 3135 55.9911
86.0976 2628 51.264
86.2145 2561 50.6063
86.3315 2800 52.915
86.4484 3635 60.291
86.5652 3706 60.8769
86.682 3699 60.8194
86.7988 3868 62.1932
86.9156 3896 62.4179
87.0323 3868 62.1932
87.149 3918 62.5939
87.2657 3878 62.2736
87.3823 3799 61.636
87.4988 3692 60.7618
87.6154 3466 58.8727
87.7318 3129 55.9375
87.8483 3048 55.2087
87.9647 2802 52.9339
88.081 2860 53.479
88.1973 2668 51.6527
88.3136 2649 51.4684
88.4298 2517 50.1697
88.546 2323 48.1975
88.6621 2244 47.3709
88.7781 2128 46.1303
88.8942 0 1
89.0101 0 1
89.126 0 1
89.2419 0 1
89.3577 0 1
89.4734 0 1
89.5891 0 1
89.7047 0 1
89.8203 0 1
89.9358 0 1
92.3269 0 1
92.4424 0 1
92.558 0 1
92.6736 0 1
92.7893 0 1
92.905 0 1
93.0208 0 1
93.1366 0 1
93.2525 0 1
93.3685 0 1
93.4845 0 1
93.6005 4152 64.436
93.7167 4279 65.4141
93.8328 4080 63.8749
93.949 4125 64.2262
94.0653 4092 63.9687
94.1816 4200 64.8074
94.2979 4053 63.6632
94.4143 4115 64.1483
94.5307 4060 63.7181
94.6472 3969 63
94.7637 3956 62.8967
94.8803 3439 58.643
94.9969 3177 56.3649
95.1135 2905 53.8981
95.2302 3076 55.4617
95.3469 3489 59.0678
95.4637 3923 62.6339
95.5805 4173 64.5988
95.6973 4240 65.1153
95.8142 4231 65.0461
95.9311 4206 64.8537
96.048 4210 64.8845
96.1649 4260 65.2687
96.2819 4217 64.9384
96.3989 4225 65
96.516 4243 65.1383
96.633 4331 65.8103
96.7501 4281 65.4294
96.8673 4336 65.8483
96.9844 4302 65.5896
97.1016 4323 65.7495
97.2188 4220 64.9615
97.336 4272 65.3605
97.4532 4160 64.4981
97.5704 4162 64.5136
97.6877 4145 64.3817
97.805 4273 65.3682
97.9223 4375 66.1438
98.0396 4312 65.6658
98.1569 4268 65.3299
98.2743 3998 63.2297
98.3916 3810 61.7252
98.509 3193 56.5066
98.6264 2987 54.6535
98.7438 2981 54.5985
98.8612 3253 57.0351
98.9786 3691 60.7536
99.096 3695 60.7865
99.2134 3816 61.7738
99.3308 3624 60.1997
99.4482 3625 60.208
99.5656 3482 59.0085
99.6831 3496 59.127
99.8005 3364 58
99.9179 3329 57.6975
100.035 3173 56.3294
100.153 3115 55.8122
100.27 3027 55.0182
100.388 3022 54.9727
100.505 2902 53.8702
100.622 2964 54.4426
100.74 2846 53.3479
100.857 2773 52.6593
100.975 2728 52.2303
101.092 2648 51.4587
101.209 2801 52.9245
101.327 2693 51.8941
101.444 2724 52.192
101.561 2689 51.8556
101.679 2812 53.0283
101.796 2612 51.1077
101.913 2563 50.6261
102.03 2401 49
102.148 2154 46.4112
102.265 1949 44.1475
102.382 2200 46.9042
102.499 2338 48.3529
102.616 2500 50
102.733 2539 50.3885
102.851 2560 50.5964
102.968 2557 50.5668
103.085 2535 50.3488
103.202 2497 49.97
103.319 2578 50.774
103.436 2464 49.6387
103.552 2386 48.8467
103.669 2511 50.1099
103.786 2462 49.6185
103.903 2460 49.5984
104.02 2430 49.295
104.137 2479 49.7896
104.253 2581 50.8035
104.37 2524 50.2394
104.487 2401 49
104.603 2351 48.4871
104.72 2251 47.4447
104.836 2139 46.2493
104.953 1974 44.4297
105.069 1688 41.0853
105.186 1610 40.1248
105.302 1530 39.1152
105.418 1378 37.1214
105.535 1277 35.7351
105.651 1157 34.0147
105.767 912 30.1993
105.883 793 28.1603
105.999 769 27.7308
106.115 0 1
106.231 0 1
106.347 0 1
106.463 0 1
106.579 0 1
106.694 0 1
106.81 0 1
106.926 0 1
107.041 0 1
107.157 0 1
109.576 0 1
109.692 0 1
109.807 0 1
109.923 0 1
110.039 0 1
110.155 0 1
110.27 0 1
110.386 0 1
110.502 0 1
110.618 2571 50.705
110.735 2638 51.3615
110.851 2501 50.01
110.967 2273 47.676
111.083 2215 47.0638
111.199 2409 49.0816
111.316 2547 50.4678
111.432 2785 52.7731
111.549 2852 53.4041
111.665 2721 52.1632
111.782 2807 52.9811
111.898 2740 52.345
112.015 2715 52.1057
112.132 2781 52.7352
112.248 2740 52.345
112.365 2721 52.1632
112.482 2699 51.9519
112.599 2808 52.9906
112.716 2896 53.8145
112.832 3033 55.0727
112.949 3012 54.8817
113.066 3038 55.1181
113.183 3086 55.5518
113.3 2966 54.461
113.417 3014 54.8999
113.534 3045 55.1815
113.652 3089 55.5788
113.769 2939 54.2125
113.886 3096 55.6417
114.003 3057 55.2901
114.12 3029 55.0364
114.238 2938 54.2033
114.355 2727 52.2207
114.472 2415 49.1426
114.589 2448 49.4773
114.707 2530 50.2991
114.824 2587 50.8626
114.942 2764 52.5738
115.059 2816 53.066
115.176 2914 53.9815
115.294 2850 53.3854
115.411 2863 53.507
115.529 2873 53.6004
115.646 2716 52.1153
115.764 2737 52.3163
115.881 2821 53.1131
115.999 2771 52.6403
116.116 2831 53.2071
116.234 2852 53.4041
116.351 3055 55.2721
116.469 2901 53.8609
116.586 3084 55.5338
116.704 3104 55.7136
116.821 3116 55.8211
116.939 3107 55.7405
117.056 3078 55.4797
117.174 3168 56.285
117.291 3071 55.4166
117.409 3043 55.1634
117.526 3098 55.6597
117.644 3099 55.6687
117.761 2992 54.6992
117.879 2911 53.9537
117.996 2796 52.8772
118.114 2495 49.95
118.231 2491 49.9099
118.349 2623 51.2152
118.466 2793 52.8488
118.584 2853 53.4135
118.701 2824 53.1413
118.819 2836 53.2541
118.936 2874 53.6097
119.053 2757 52.5071
119.171 2861 53.4883
119.288 2793 52.8488
119.405 2742 52.3641
119.523 2707 52.0288
119.64 2749 52.4309
119.757 2740 52.345
119.875 2705 52.0096
119.992 2833 53.2259
120.109 2907 53.9166
120.226 2974 54.5344
120.343 2954 54.3507
120.46 2975 54.5436
120.578 2909 53.9351
120.695 2948 54.2955
120.812 2869 53.563
120.929 2947 54.2863
121.046 2927 54.1018
121.163 2846 53.3479
121.279 2838 53.2729
121.396 2783 52.7541
121.513 2786 52.7826
121.63 2532 50.319
121.747 2411 49.1019
121.863 2055 45.3321
121.98 2013 44.8665
122.097 1905 43.6463
122.213 1938 44.0227
122.33 2073 45.5302
122.446 2007 44.7996
122.563 1991 44.6206
122.679 1870 43.2435
122.795 1795 42.3674
122.912 1804 42.4735
123.028 1723 41.509
123.144 1557 39.4588
123.26 1655 40.6817
123.377 0 1
123.493 0 1
123.609 0 1
123.725 0 1
123.84 0 1
123.956 0 1
124.072 0 1
124.188 0 1
124.303 0 1
124.419 0 1
126.852 0 1
126.968 0 1
127.083 0 1
127.199 0 1
127.315 0 1
127.431 0 1
127.547 0 1
127.663 0 1
127.779 0 1
127.895 0 1
128.011 0 1
128.127 0 1
128.243 0 1
128.359 3249 57
128.476 3303 57.4717
128.592 3219 56.7362
128.708 3294 57.3934
128.825 3303 57.4717
128.941 3389 58.2151
129.058 3376 58.1034
129.174 3413 58.4209
129.291 3527 59.3886
129.408 3669 60.5723
129.524 3649 60.407
129.641 3729 61.0655
129.758 3833 61.9112
129.875 3911 62.538
129.992 3954 62.8808
130.108 3935 62.7296
130.225 4051 63.6475
130.342 4065 63.7574
130.459 3774 61.4329
130.576 3873 62.2334
130.693 3735 61.1146
130.81 3494 59.1101
130.928 3485 59.0339
131.045 3523 59.3549
131.162 3755 61.2781
131.279 3776 61.4492
131.396 3722 61.0082
131.513 3869 62.2013
131.631 3899 62.442
131.748 3784 61.5142
131.865 3693 60.7701
131.983 3801 61.6523
132.1 3759 61.3107
132.217 3594 59.95
132.335 3550 59.5819
132.452 3624 60.1997
132.57 3510 59.2453
132.687 3531 59.4222
132.804 3875 62.2495
132.922 3790 61.563
133.039 3794 61.5955
133.157 3860 62.1289
133.274 3850 62.0484
133.392 3910 62.53
133.509 4002 63.2614
133.627 4064 63.7495
133.744 4213 64.9076
133.862 4181 64.6607
133.979 4227 65.0154
134.097 4134 64.2962
134.214 4079 63.867
134.332 3941 62.7774
134.449 3955 62.8888
134.567 3885 62.3298
134.684 4112 64.1249
134.802 4101 64.0391
134.919 4118 64.1716
135.037 4136 64.3117
135.154 4077 63.8514
135.272 4087 63.9296
135.389 4107 64.0859
135.507 4023 63.4271
135.624 4005 63.2851
135.742 3908 62.514
135.859 3949 62.8411
135.977 3753 61.2617
136.094 3878 62.2736
136.211 3842 61.9839
136.329 3932 62.7057
136.446 3736 61.1228
136.564 3869 62.2013
136.681 3960 62.9285
136.798 3892 62.3859
136.915 4032 63.498
137.033 4061 63.726
137.15 4012 63.3404
137.267 4012 63.3404
137.384 4184 64.6838
137.502 4005 63.2851
137.619 4133 64.2884
137.736 4019 63.3956
137.853 3788 61.5467
137.97 3776 61.4492
138.087 3613 60.1082
138.204 3809 61.7171
138.321 3892 62.3859
138.438 3912 62.546
138.555 3977 63.0635
138.672 4059 63.7103
138.788 3870 62.2093
138.905 3785 61.5224
139.022 3702 60.8441
139.139 3586 59.8832
139.255 3454 58.7707
139.372 3271 57.1927
139.488 3199 56.5597
139.605 3140 56.0357
139.721 2899 53.8424
139.838 2879 53.6563
139.954 2841 53.301
140.071 2809 53
140.187 2712 52.0769
140.303 2705 52.0096
140.419 2714 52.0961
140.535 2786 52.7826
140.652 2835 53.2447
140.768 0 1
140.884 0 1
141 0 1
141.115 0 1
141.231 0 1
141.347 0 1
141.463 0 1
141.578 0 1
141.694 0 1
144.104 0 1
144.219 0 1
144.335 0 1
144.45 0 1
144.566 0 1
144.682 0 1
144.798 0 1
144.914 0 1
145.03 0 1
145.146 8355 91.4057
145.262 8500 92.1954
145.378 8589 92.6769
145.494 8748 93.5307
145.61 8741 93.4933
145.726 8567 92.5581
145.842 8804 93.8296
145.959 8854 94.0957
146.075 8659 93.0537
146.192 8811 93.8669
146.308 8671 93.1182
146.425 8765 93.6216
146.541 7901 88.8876
146.658 7001 83.672
146.774 5832 76.3675
146.891 5703 75.5182
147.008 6425 80.1561
147.125 7495 86.5737
147.241 8257 90.868
147.358 8528 92.3472
147.475 8690 93.2202
147.592 8712 93.3381
147.709 8636 92.9301
147.826 8823 93.9308
147.943 8525 92.3309
148.06 8742 93.4987
148.177 8609 92.7847
148.294 8556 92.4986
148.411 8720 93.3809
148.528 8716 93.3595
148.645 8753 93.5575
148.762 8665 93.086
148.88 8831 93.9734
148.997 8373 91.5041
149.114 9246 96.1561
149.231 8796 93.787
149.349 9265 96.2549
149.466 8876 94.2125
149.583 9031 95.0316
149.701 8946 94.5833
149.818 8996 94.8472
149.935 8965 94.6837
150.053 8836 94
150.17 8503 92.2117
150.287 7501 86.6083
150.405 6456 80.3492
150.522 5970 77.2658
150.64 6369 79.806
150.757 7366 85.8254
150.875 8428 91.8041
150.992 8683 93.1826
151.11 8613 92.8062
151.227 8605 92.7631
151.344 8643 92.9677
151.462 8452 91.9348
151.579 8599 92.7308
151.697 8666 93.0914
151.814 8804 93.8296
151.932 8926 94.4775
152.049 8838 94.0106
152.167 8775 93.675
152.284 8852 94.0851
152.402 8936 94.5304
152.519 8837 94.0053
152.636 8942 94.5621
152.754 8970 94.7101
152.871 9066 95.2155
152.989 9164 95.7288
153.106 9179 95.8071
153.223 9191 95.8697
153.341 9024 94.9947
153.458 9436 97.1391
153.575 9407 96.9897
153.693 9340 96.6437
153.81 8892 94.2974
153.927 8107 90.0389
154.044 7134 84.463
154.162 6350 79.6869
154.279 6875 82.9156
154.396 7892 88.8369
154.513 8820 93.9149
154.63 9129 95.5458
154.747 9135 95.5772
154.864 9022 94.9842
154.981 8856 94.1063
155.098 8866 94.1594
155.215 8811 93.8669
155.332 8619 92.8386
155.449 8430 91.815
155.566 8308 91.1482
155.683 8062 89.7886
155.8 8027 89.5935
155.917 7884 88.7919
156.033 7687 87.6755
156.15 0 1
156.267 0 1
156.383 0 1
156.5 0 1
156.617 0 1
156.733 0 1
156.85 0 1
156.966 0 1
157.082 0 1
157.199 0 1
157.315 0 1
157.431 0 1
157.547 0 1
157.664 0 1
157.78 0 1
157.896 0 1
158.012 0 1
158.128 0 1
158.244 0 1
158.359 0 1
158.475 0 1
158.591 0 1
158.706 0 1
