
6.15755 0 1
6.2731 0 1
6.3887 0 1
6.50437 0 1
6.62009 0 1
6.73587 0 1
6.8517 0 1
6.96759 0 1
7.08353 0 1
7.19952 0 1
7.31557 0 1
7.43166 0 1
7.54781 0 1
7.664 0 1
7.78024 0 1
7.89653 0 1
8.01286 0 1
8.12924 0 1
8.24567 0 1
8.36213 0 1
8.47864 0 1
8.59519 0 1
8.71178 0 1
8.82841 0 1
8.94508 0 1
9.06179 0 1
9.17853 0 1
9.29531 0 1
9.41212 0 1
9.52897 0 1
9.64584 0 1
9.76276 0 1
9.8797 0 1
9.99667 0 1
10.1137 0 1
10.2307 0 1
10.3478 0 1
10.4648 0 1
10.5819 0 1
10.6991 0 1
10.8162 0 1
10.9334 0 1
11.0506 0 1
11.1678 0 1
11.285 0 1
11.4023 0 1
11.5196 0 1
11.6369 0 1
11.7542 0 1
11.8715 0 1
11.9888 0 1
12.1062 0 1
12.2235 0 1
12.3409 0 1
12.4582 0 1
12.5756 0 1
12.693 0 1
12.8104 0 1
12.9278 0 1
13.0452 0 1
13.1626 0 1
13.28 0 1
13.3974 0 1
13.5149 0 1
13.6323 0 1
13.7497 0 1
13.8671 0 1
13.9845 0 1
14.1019 0 1
14.2193 0 1
14.3367 0 1
14.4541 0 1
14.5714 0 1
14.6888 0 1
14.8062 0 1
14.9235 0 1
15.0408 0 0
15.1581 0 0
15.2755 0 0
15.3927 0 0
15.51 0 0
15.6273 0 0
15.7445 0 0
15.8617 0 0
15.9789 0 0
16.0961 0 0
16.2132 0 0
16.3304 0 0
16.4475 0 0
16.5646 0 0
16.6816 0 0
16.7986 0 0
16.9156 0 0
17.0326 0 0
17.1496 0 0
17.2665 0 0
17.3833 0 0
17.5002 0 0
17.617 0 0
17.7338 0 0
17.8505 0 0
17.9672 0 0
18.0839 0 0
18.2005 0 0
18.3171 0 0
18.4337 0 0
18.5502 0 0
18.6666 0 0
18.7831 0 0
18.8994 0 0
19.0158 0 0
19.1321 0 0
19.2483 0 0
19.3645 0 0
19.4806 0 0
19.5967 0 0
19.7128 0 0
19.8288 0 0
19.9447 0 0
20.0606 0 1
20.1764 0 1
20.2922 0 1
20.4079 0 1
20.5236 0 1
20.6392 0 1
20.7548 0 1
20.8702 0 1
23.3078 0 1
23.4233 0 1
23.539 0 1
23.6547 0 1
23.7704 0 1
23.8862 0 1
24.0021 0 1
24.118 0 1
24.234 0 1
24.35 0 1
24.4661 917 30.282
24.5822 971 31.1609
24.6984 901 30.0167
24.8146 893 29.8831
24.9309 975 31.225
25.0472 944 30.7246
25.1636 959 30.9677
25.28 980 31.305
25.3965 963 31.0322
25.513 1037 32.2025
25.6296 984 31.3688
25.7462 1035 32.1714
25.8628 1003 31.6702
25.9795 1072 32.7414
26.0962 1064 32.619
26.213 1025 32.0156
26.3298 999 31.607
26.4466 1018 31.9061
26.5635 995 31.5436
26.6804 984 31.3688
26.7973 932 30.5287
26.9143 863 29.3769
27.0313 864 29.3939
27.1483 830 28.8097
27.2653 872 29.5296
27.3824 840 28.9828
27.4996 872 29.5296
27.6167 929 30.4795
27.7339 878 29.6311
27.8511 851 29.1719
27.9683 848 29.1204
28.0855 839 28.9655
28.2028 852 29.189
28.3201 853 29.2062
28.4374 878 29.6311
28.5547 870 29.4958
28.6721 937 30.6105
28.7894 962 31.0161
28.9068 917 30.282
29.0242 929 30.4795
29.1416 943 30.7083
29.259 974 31.209
29.3764 879 29.6479
29.4939 939 30.6431
29.6113 889 29.8161
29.7288 963 31.0322
29.8463 900 30
29.9638 971 31.1609
30.0812 932 30.5287
30.1987 895 29.9166
30.3162 897 29.95
30.4337 834 28.8791
30.5512 795 28.1957
30.6687 723 26.8887
30.7862 815 28.5482
30.9037 789 28.0891
31.0212 866 29.4279
31.1387 851 29.1719
31.2562 815 28.5482
31.3737 851 29.1719
31.4912 852 29.189
31.6087 848 29.1204
31.7262 801 28.3019
31.8436 837 28.931
31.9611 887 29.7825
32.0785 880 29.6648
32.1959 873 29.5466
32.3134 907 30.1164
32.4308 916 30.2655
32.5482 974 31.209
32.6655 948 30.7896
32.7829 925 30.4138
32.9002 932 30.5287
33.0176 901 30.0167
33.1349 917 30.282
33.2522 911 30.1828
33.3694 923 30.3809
33.4867 864 29.3939
33.6039 885 29.7489
33.7211 918 30.2985
33.8383 899 29.9833
33.9554 833 28.8617
34.0725 832 28.8444
34.1896 774 27.8209
34.3067 751 27.4044
34.4237 749 27.3679
34.5407 803 28.3373
34.6577 764 27.6405
34.7746 833 28.8617
34.8915 842 29.0172
35.0084 767 27.6948
35.1252 803 28.3373
35.242 760 27.5681
35.3587 810 28.4605
35.4755 824 28.7054
35.5921 862 29.3598
35.7088 851 29.1719
35.8254 876 29.5973
35.9419 868 29.4618
36.0584 875 29.5804
36.1749 923 30.3809
36.2913 862 29.3598
36.4077 849 29.1376
36.524 910 30.1662
36.6403 887 29.7825
36.7565 835 28.8964
36.8727 848 29.1204
36.9889 818 28.6007
37.1049 835 28.8964
37.221 0 1
37.3369 0 1
37.4529 0 1
37.5687 0 1
37.6845 0 1
37.8003 0 1
37.916 0 1
38.0316 0 1
38.1472 0 1
40.5851 0 1
40.7008 0 1
40.8164 0 1
40.9322 0 1
41.048 0 1
41.1639 0 1
41.2798 0 1
41.3958 0 1
41.5118 0 1
41.6279 0 1
41.744 697 26.4008
41.8602 738 27.1662
41.9765 722 26.8701
42.0928 714 26.7208
42.2091 790 28.1069
42.3255 713 26.7021
42.4419 716 26.7582
42.5584 702 26.4953
42.675 723 26.8887
42.7915 783 27.9821
42.9081 693 26.3249
43.0248 679 26.0576
43.1415 644 25.3772
43.2582 627 25.04
43.375 666 25.807
43.4918 670 25.8844
43.6087 669 25.865
43.7256 707 26.5895
43.8425 648 25.4558
43.9595 628 25.0599
44.0765 684 26.1534
44.1935 658 25.6515
44.3106 647 25.4362
44.4277 682 26.1151
44.5448 703 26.5141
44.6619 654 25.5734
44.7791 671 25.9037
44.8963 698 26.4197
45.0136 634 25.1794
45.1308 688 26.2298
45.2481 667 25.8263
45.3654 646 25.4165
45.4827 685 26.1725
45.6001 656 25.6125
45.7174 651 25.5147
45.8348 576 24
45.9522 624 24.98
46.0697 621 24.9199
46.1871 570 23.8747
46.3046 541 23.2594
46.422 597 24.4336
46.5395 610 24.6982
46.657 542 23.2809
46.7745 469 21.6564
46.892 468 21.6333
47.0096 458 21.4009
47.1271 514 22.6716
47.2446 528 22.9783
47.3622 467 21.6102
47.4797 496 22.2711
47.5973 499 22.3383
47.7149 470 21.6795
47.8324 492 22.1811
47.95 487 22.0681
48.0675 539 23.2164
48.1851 476 21.8174
48.3027 519 22.7816
48.4202 466 21.587
48.5378 525 22.9129
48.6554 501 22.383
48.7729 513 22.6495
48.8904 494 22.2261
49.008 474 21.7715
49.1255 488 22.0907
49.243 521 22.8254
49.3605 469 21.6564
49.478 502 22.4054
49.5955 505 22.4722
49.713 505 22.4722
49.8304 495 22.2486
49.9479 508 22.5389
50.0653 484 22
50.1827 500 22.3607
50.3001 476 21.8174
50.4175 421 20.5183
50.5348 405 20.1246
50.6521 488 22.0907
50.7694 506 22.4944
50.8867 496 22.2711
51.004 484 22
51.1212 552 23.4947
51.2384 514 22.6716
51.3556 522 22.8473
51.4727 547 23.388
51.5899 554 23.5372
51.707 588 24.2487
51.824 623 24.96
51.9411 613 24.7588
52.0581 617 24.8395
52.175 605 24.5967
52.2919 620 24.8998
52.4088 641 25.318
52.5257 619 24.8797
52.6425 632 25.1396
52.7593 648 25.4558
52.876 639 25.2784
52.9927 707 26.5895
53.1094 703 26.5141
53.226 671 25.9037
53.3426 681 26.096
53.4591 655 25.593
53.5756 694 26.3439
53.692 696 26.3818
53.8084 674 25.9615
53.9248 625 25
54.0411 598 24.454
54.1573 532 23.0651
54.2735 0 1
54.3896 0 1
54.5057 0 1
54.6217 0 1
54.7377 0 1
54.8537 0 1
54.9695 0 1
55.0853 0 1
55.2011 0 1
55.3168 0 1
55.4324 0 1
57.824 0 1
57.9396 0 1
58.0553 0 1
58.1711 0 1
58.2869 0 1
58.4028 0 1
58.5187 0 1
58.6347 0 1
58.7508 0 1
58.8669 0 1
58.983 744 27.2764
59.0992 679 26.0576
59.2155 669 25.865
59.3318 629 25.0799
59.4482 623 24.96
59.5646 651 25.5147
59.681 675 25.9808
59.7975 670 25.8844
59.9141 666 25.807
60.0306 725 26.9258
60.1473 726 26.9444
60.2639 720 26.8328
60.3807 734 27.0924
60.4974 746 27.313
60.6142 761 27.5862
60.731 731 27.037
60.8479 666 25.807
60.9648 682 26.1151
61.0818 698 26.4197
61.1987 712 26.6833
61.3158 654 25.5734
61.4328 674 25.9615
61.5499 665 25.7876
61.667 709 26.6271
61.7841 672 25.923
61.9013 701 26.4764
62.0185 700 26.4575
62.1357 667 25.8263
62.253 628 25.0599
62.3702 635 25.1992
62.4875 611 24.7184
62.6049 608 24.6577
62.7222 573 23.9374
62.8396 621 24.9199
62.9569 570 23.8747
63.0743 607 24.6374
63.1918 582 24.1247
63.3092 569 23.8537
63.4267 639 25.2784
63.5441 616 24.8193
63.6616 625 25
63.7791 644 25.3772
63.8966 593 24.3516
64.0142 599 24.4745
64.1317 640 25.2982
64.2492 613 24.7588
64.3668 588 24.2487
64.4843 656 25.6125
64.6019 603 24.5561
64.7195 584 24.1661
64.837 577 24.0208
64.9546 569 23.8537
65.0722 620 24.8998
65.1898 580 24.0832
65.3074 577 24.0208
65.4249 577 24.0208
65.5425 564 23.7487
65.6601 602 24.5357
65.7777 584 24.1661
65.8952 566 23.7908
66.0128 536 23.1517
66.1304 529 23
66.2479 458 21.4009
66.3655 479 21.8861
66.483 469 21.6564
66.6005 514 22.6716
66.718 509 22.561
66.8355 516 22.7156
66.953 574 23.9583
67.0705 574 23.9583
67.1879 575 23.9792
67.3054 536 23.1517
67.4228 608 24.6577
67.5402 573 23.9374
67.6576 572 23.9165
67.7749 566 23.7908
67.8923 548 23.4094
68.0096 561 23.6854
68.1269 538 23.1948
68.2442 578 24.0416
68.3614 527 22.9565
68.4787 537 23.1733
68.5958 519 22.7816
68.713 532 23.0651
68.8302 527 22.9565
68.9473 568 23.8328
69.0643 528 22.9783
69.1814 518 22.7596
69.2984 531 23.0434
69.4154 491 22.1585
69.5323 523 22.8692
69.6492 520 22.8035
69.7661 560 23.6643
69.8829 480 21.9089
69.9997 474 21.7715
70.1165 423 20.567
70.2332 473 21.7486
70.3499 457 21.3776
70.4665 508 22.5389
70.5831 453 21.2838
70.6996 538 23.1948
70.8161 503 22.4277
70.9326 518 22.7596
71.049 534 23.1084
71.1653 494 22.2261
71.2817 472 21.7256
71.3979 460 21.4476
71.5141 478 21.8632
71.6303 435 20.8567
71.7464 409 20.2237
71.8624 0 1
71.9784 0 1
72.0944 0 1
72.2102 0 1
72.3261 0 1
72.4418 0 1
72.5575 0 1
72.6732 0 1
75.1054 0 1
75.2209 0 1
75.3365 0 1
75.4521 0 1
75.5678 0 1
75.6835 0 1
75.7993 0 1
75.9151 0 1
76.031 0 1
76.147 360 18.9737
76.263 370 19.2354
76.3791 378 19.4422
76.4952 384 19.5959
76.6113 386 19.6469
76.7276 362 19.0263
76.8438 394 19.8494
76.9601 384 19.5959
77.0765 372 19.2873
77.1929 364 19.0788
77.3093 389 19.7231
77.4258 345 18.5742
77.5423 360 18.9737
77.6589 353 18.7883
77.7755 342 18.4932
77.8921 339 18.412
78.0088 328 18.1108
78.1256 355 18.8414
78.2423 294 17.1464
78.3591 317 17.8045
78.4759 315 17.7482
78.5928 319 17.8606
78.7097 308 17.5499
78.8266 312 17.6635
78.9436 287 16.9411
79.0606 267 16.3401
79.1776 224 14.9666
79.2946 208 14.4222
79.4117 259 16.0935
79.5288 272 16.4924
79.6459 283 16.8226
79.7631 264 16.2481
79.8802 258 16.0624
79.9974 263 16.2173
80.1147 269 16.4012
80.2319 280 16.7332
80.3491 232 15.2315
80.4664 248 15.748
80.5837 236 15.3623
80.701 198 14.0712
80.8183 209 14.4568
80.9357 207 14.3875
81.053 218 14.7648
81.1704 193 13.8924
81.2877 197 14.0357
81.4051 201 14.1774
81.5225 188 13.7113
81.6399 195 13.9642
81.7573 163 12.7671
81.8747 152 12.3288
81.9922 157 12.53
82.1096 154 12.4097
82.227 153 12.3693
82.3444 126 11.225
82.4619 129 11.3578
82.5793 139 11.7898
82.6967 126 11.225
82.8142 121 11
82.9316 111 10.5357
83.049 105 10.247
83.1664 116 10.7703
83.2838 124 11.1355
83.4012 79 8.88819
83.5186 86 9.27362
83.636 99 9.94987
83.7534 97 9.84886
83.8708 77 8.77496
83.9881 87 9.32738
84.1055 76 8.7178
84.2228 82 9.05539
84.3401 80 8.94427
84.4575 83 9.11043
84.5747 79 8.88819
84.692 74 8.60233
84.8093 65 8.06226
84.9265 66 8.12404
85.0437 75 8.66025
85.1609 50 7.07107
85.2781 67 8.18535
85.3952 64 8
85.5123 52 7.2111
85.6294 51 7.14143
85.7465 67 8.18535
85.8636 61 7.81025
85.9806 64 8
86.0976 55 7.4162
86.2145 42 6.48074
86.3315 57 7.54983
86.4484 67 8.18535
86.5652 64 8
86.682 86 9.27362
86.7988 84 9.16515
86.9156 86 9.27362
87.0323 69 8.30662
87.149 93 9.64365
87.2657 106 10.2956
87.3823 88 9.38083
87.4988 103 10.1489
87.6154 98 9.89949
87.7318 119 10.9087
87.8483 103 10.1489
87.9647 115 10.7238
88.081 144 12
88.1973 134 11.5758
88.3136 140 11.8322
88.4298 172 13.1149
88.546 149 12.2066
88.6621 168 12.9615
88.7781 168 12.9615
88.8942 0 1
89.0101 0 1
89.126 0 1
89.2419 0 1
89.3577 0 1
89.4734 0 1
89.5891 0 1
89.7047 0 1
89.8203 0 1
89.9358 0 1
92.3269 0 1
92.4424 0 1
92.558 0 1
92.6736 0 1
92.7893 0 1
92.905 0 1
93.0208 0 1
93.1366 0 1
93.2525 0 1
93.3685 0 1
93.4845 0 1
93.6005 265 16.2788
93.7167 279 16.7033
93.8328 257 16.0312
93.949 254 15.9374
94.0653 271 16.4621
94.1816 235 15.3297
94.2979 246 15.6844
94.4143 233 15.2643
94.5307 266 16.3095
94.6472 221 14.8661
94.7637 212 14.5602
94.8803 200 14.1421
94.9969 202 14.2127
95.1135 203 14.2478
95.2302 170 13.0384
95.3469 171 13.0767
95.4637 141 11.8743
95.5805 132 11.4891
95.6973 184 13.5647
95.8142 245 15.6525
95.9311 216 14.6969
96.048 233 15.2643
96.1649 287 16.9411
96.2819 246 15.6844
96.3989 251 15.843
96.516 245 15.6525
96.633 265 16.2788
96.7501 260 16.1245
96.8673 293 17.1172
96.9844 263 16.2173
97.1016 286 16.9115
97.2188 333 18.2483
97.336 323 17.9722
97.4532 301 17.3494
97.5704 361 19
97.6877 350 18.7083
97.805 357 18.8944
97.9223 341 18.4662
98.0396 372 19.2873
98.1569 365 19.105
98.2743 429 20.7123
98.3916 374 19.3391
98.509 383 19.5704
98.6264 458 21.4009
98.7438 434 20.8327
98.8612 377 19.4165
98.9786 369 19.2094
99.096 294 17.1464
99.2134 273 16.5227
99.3308 364 19.0788
99.4482 463 21.5174
99.5656 422 20.5426
99.6831 472 21.7256
99.8005 473 21.7486
99.9179 472 21.7256
100.035 481 21.9317
100.153 513 22.6495
100.27 534 23.1084
100.388 513 22.6495
100.505 509 22.561
100.622 475 21.7945
100.74 524 22.891
100.857 489 22.1133
100.975 512 22.6274
101.092 529 23
101.209 591 24.3105
101.327 498 22.3159
101.444 529 23
101.561 577 24.0208
101.679 600 24.4949
101.796 558 23.622
101.913 577 24.0208
102.03 569 23.8537
102.148 543 23.3024
102.265 583 24.1454
102.382 517 22.7376
102.499 526 22.9347
102.616 420 20.4939
102.733 379 19.4679
102.851 441 21
102.968 520 22.8035
103.085 587 24.2281
103.202 552 23.4947
103.319 583 24.1454
103.436 574 23.9583
103.552 583 24.1454
103.669 587 24.2281
103.786 575 23.9792
103.903 586 24.2074
104.02 550 23.4521
104.137 556 23.5797
104.253 597 24.4336
104.37 587 24.2281
104.487 575 23.9792
104.603 648 25.4558
104.72 578 24.0416
104.836 602 24.5357
104.953 670 25.8844
105.069 578 24.0416
105.186 612 24.7386
105.302 582 24.1247
105.418 626 25.02
105.535 623 24.96
105.651 652 25.5343
105.767 604 24.5764
105.883 561 23.6854
105.999 500 22.3607
106.115 0 1
106.231 0 1
106.347 0 1
106.463 0 1
106.579 0 1
106.694 0 1
106.81 0 1
106.926 0 1
107.041 0 1
107.157 0 1
109.576 0 1
109.692 0 1
109.807 0 1
109.923 0 1
110.039 0 1
110.155 0 1
110.27 0 1
110.386 0 1
110.502 0 1
110.618 507 22.5167
110.735 477 21.8403
110.851 465 21.5639
110.967 492 22.1811
111.083 384 19.5959
111.199 378 19.4422
111.316 368 19.1833
111.432 355 18.8414
111.549 411 20.2731
111.665 428 20.6882
111.782 455 21.3307
111.898 429 20.7123
112.015 408 20.199
112.132 421 20.5183
112.248 387 19.6723
112.365 336 18.3303
112.482 397 19.9249
112.599 373 19.3132
112.716 390 19.7484
112.832 378 19.4422
112.949 358 18.9209
113.066 376 19.3907
113.183 391 19.7737
113.3 359 18.9473
113.417 390 19.7484
113.534 355 18.8414
113.652 338 18.3848
113.769 335 18.303
113.886 370 19.2354
114.003 342 18.4932
114.12 335 18.303
114.238 328 18.1108
114.355 347 18.6279
114.472 306 17.4929
114.589 303 17.4069
114.707 319 17.8606
114.824 280 16.7332
114.942 264 16.2481
115.059 286 16.9115
115.176 312 17.6635
115.294 366 19.1311
115.411 301 17.3494
115.529 320 17.8885
115.646 362 19.0263
115.764 296 17.2047
115.881 304 17.4356
115.999 319 17.8606
116.116 271 16.4621
116.234 333 18.2483
116.351 313 17.6918
116.469 310 17.6068
116.586 316 17.7764
116.704 332 18.2209
116.821 315 17.7482
116.939 308 17.5499
117.056 327 18.0831
117.174 305 17.4642
117.291 304 17.4356
117.409 344 18.5472
117.526 307 17.5214
117.644 290 17.0294
117.761 312 17.6635
117.879 293 17.1172
117.996 243 15.5885
118.114 236 15.3623
118.231 284 16.8523
118.349 309 17.5784
118.466 290 17.0294
118.584 295 17.1756
118.701 301 17.3494
118.819 296 17.2047
118.936 289 17
119.053 345 18.5742
119.171 336 18.3303
119.288 311 17.6352
119.405 338 18.3848
119.523 287 16.9411
119.64 343 18.5203
119.757 328 18.1108
119.875 325 18.0278
119.992 325 18.0278
120.109 338 18.3848
120.226 349 18.6815
120.343 276 16.6132
120.46 318 17.8326
120.578 312 17.6635
120.695 346 18.6011
120.812 327 18.0831
120.929 332 18.2209
121.046 375 19.3649
121.163 299 17.2916
121.279 346 18.6011
121.396 319 17.8606
121.513 303 17.4069
121.63 253 15.906
121.747 239 15.4596
121.863 248 15.748
121.98 269 16.4012
122.097 298 17.2627
122.213 337 18.3576
122.33 356 18.868
122.446 318 17.8326
122.563 337 18.3576
122.679 345 18.5742
122.795 366 19.1311
122.912 363 19.0526
123.028 339 18.412
123.144 313 17.6918
123.26 383 19.5704
123.377 0 1
123.493 0 1
123.609 0 1
123.725 0 1
123.84 0 1
123.956 0 1
124.072 0 1
124.188 0 1
124.303 0 1
124.419 0 1
126.852 0 1
126.968 0 1
127.083 0 1
127.199 0 1
127.315 0 1
127.431 0 1
127.547 0 1
127.663 0 1
127.779 0 1
127.895 0 1
128.011 0 1
128.127 0 1
128.243 0 1
128.359 447 21.1424
128.476 430 20.7364
128.592 488 22.0907
128.708 456 21.3542
128.825 456 21.3542
128.941 450 21.2132
129.058 447 21.1424
129.174 488 22.0907
129.291 474 21.7715
129.408 513 22.6495
129.524 489 22.1133
129.641 481 21.9317
129.758 509 22.561
129.875 474 21.7715
129.992 466 21.587
130.108 486 22.0454
130.225 446 21.1187
130.342 450 21.2132
130.459 388 19.6977
130.576 349 18.6815
130.693 325 18.0278
130.81 282 16.7929
130.928 331 18.1934
131.045 415 20.3715
131.162 445 21.095
131.279 491 22.1585
131.396 513 22.6495
131.513 511 22.6053
131.631 506 22.4944
131.748 474 21.7715
131.865 553 23.516
131.983 458 21.4009
132.1 499 22.3383
132.217 504 22.4499
132.335 500 22.3607
132.452 541 23.2594
132.57 501 22.383
132.687 447 21.1424
132.804 524 22.891
132.922 541 23.2594
133.039 486 22.0454
133.157 534 23.1084
133.274 506 22.4944
133.392 534 23.1084
133.509 517 22.7376
133.627 535 23.1301
133.744 483 21.9773
133.862 486 22.0454
133.979 446 21.1187
134.097 404 20.0998
134.214 373 19.3132
134.332 375 19.3649
134.449 352 18.7617
134.567 398 19.9499
134.684 451 21.2368
134.802 508 22.5389
134.919 533 23.0868
135.037 516 22.7156
135.154 556 23.5797
135.272 520 22.8035
135.389 544 23.3238
135.507 585 24.1868
135.624 577 24.0208
135.742 545 23.3452
135.859 581 24.1039
135.977 570 23.8747
136.094 596 24.4131
136.211 598 24.454
136.329 562 23.7065
136.446 500 22.3607
136.564 576 24
136.681 613 24.7588
136.798 578 24.0416
136.915 572 23.9165
137.033 577 24.0208
137.15 538 23.1948
137.267 608 24.6577
137.384 574 23.9583
137.502 508 22.5389
137.619 457 21.3776
137.736 449 21.1896
137.853 432 20.7846
137.97 410 20.2485
138.087 459 21.4243
138.204 443 21.0476
138.321 471 21.7025
138.438 559 23.6432
138.555 567 23.8118
138.672 564 23.7487
138.788 578 24.0416
138.905 603 24.5561
139.022 591 24.3105
139.139 584 24.1661
139.255 655 25.593
139.372 641 25.318
139.488 664 25.7682
139.605 636 25.219
139.721 668 25.8457
139.838 608 24.6577
139.954 631 25.1197
140.071 624 24.98
140.187 644 25.3772
140.303 610 24.6982
140.419 641 25.318
140.535 617 24.8395
140.652 605 24.5967
140.768 0 1
140.884 0 1
141 0 1
141.115 0 1
141.231 0 1
141.347 0 1
141.463 0 1
141.578 0 1
141.694 0 1
144.104 0 1
144.219 0 1
144.335 0 1
144.45 0 1
144.566 0 1
144.682 0 1
144.798 0 1
144.914 0 1
145.03 0 1
145.146 559 23.6432
145.262 587 24.2281
145.378 600 24.4949
145.494 554 23.5372
145.61 586 24.2074
145.726 599 24.4745
145.842 555 23.5584
145.959 573 23.9374
146.075 514 22.6716
146.192 543 23.3024
146.308 495 22.2486
146.425 490 22.1359
146.541 455 21.3307
146.658 478 21.8632
146.774 473 21.7486
146.891 468 21.6333
147.008 508 22.5389
147.125 529 23
147.241 545 23.3452
147.358 563 23.7276
147.475 606 24.6171
147.592 679 26.0576
147.709 581 24.1039
147.826 561 23.6854
147.943 574 23.9583
148.06 599 24.4745
148.177 539 23.2164
148.294 560 23.6643
148.411 579 24.0624
148.528 602 24.5357
148.645 560 23.6643
148.762 576 24
148.88 594 24.3721
148.997 553 23.516
149.114 605 24.5967
149.231 547 23.388
149.349 534 23.1084
149.466 546 23.3666
149.583 543 23.3024
149.701 464 21.5407
149.818 497 22.2935
149.935 474 21.7715
150.053 471 21.7025
150.17 521 22.8254
150.287 486 22.0454
150.405 441 21
150.522 492 22.1811
150.64 529 23
150.757 530 23.0217
150.875 537 23.1733
150.992 559 23.6432
151.11 601 24.5153
151.227 584 24.1661
151.344 624 24.98
151.462 583 24.1454
151.579 591 24.3105
151.697 609 24.6779
151.814 563 23.7276
151.932 621 24.9199
152.049 581 24.1039
152.167 584 24.1661
152.284 613 24.7588
152.402 564 23.7487
152.519 591 24.3105
152.636 593 24.3516
152.754 585 24.1868
152.871 569 23.8537
152.989 589 24.2693
153.106 528 22.9783
153.223 555 23.5584
153.341 614 24.779
153.458 511 22.6053
153.575 506 22.4944
153.693 527 22.9565
153.81 505 22.4722
153.927 480 21.9089
154.044 532 23.0651
154.162 536 23.1517
154.279 519 22.7816
154.396 549 23.4307
154.513 555 23.5584
154.63 596 24.4131
154.747 604 24.5764
154.864 622 24.9399
154.981 612 24.7386
155.098 631 25.1197
155.215 650 25.4951
155.332 648 25.4558
155.449 643 25.3574
155.566 656 25.6125
155.683 625 25
155.8 603 24.5561
155.917 671 25.9037
156.033 620 24.8998
156.15 0 1
156.267 0 1
156.383 0 1
156.5 0 1
156.617 0 1
156.733 0 1
156.85 0 1
156.966 0 1
157.082 0 1
157.199 0 1
157.315 0 1
157.431 0 1
157.547 0 1
157.664 0 1
157.78 0 1
157.896 0 1
158.012 0 1
158.128 0 1
158.244 0 1
158.359 0 1
158.475 0 1
158.591 0 1
158.706 0 1
