
6.15755 0 1
6.2731 0 1
6.3887 0 1
6.50437 0 1
6.62009 0 1
6.73587 0 1
6.8517 0 1
6.96759 0 1
7.08353 0 1
7.19952 0 1
7.31557 0 1
7.43166 0 1
7.54781 0 1
7.664 0 1
7.78024 0 1
7.89653 0 1
8.01286 0 1
8.12924 0 1
8.24567 0 1
8.36213 0 1
8.47864 0 1
8.59519 0 1
8.71178 0 1
8.82841 0 1
8.94508 0 1
9.06179 0 1
9.17853 0 1
9.29531 0 1
9.41212 0 1
9.52897 0 1
9.64584 0 1
9.76276 0 1
9.8797 0 1
9.99667 0 1
10.1137 0 1
10.2307 0 1
10.3478 0 1
10.4648 0 1
10.5819 0 1
10.6991 0 1
10.8162 0 1
10.9334 0 1
11.0506 0 1
11.1678 0 1
11.285 0 1
11.4023 0 1
11.5196 0 1
11.6369 0 1
11.7542 0 1
11.8715 0 1
11.9888 0 1
12.1062 0 1
12.2235 0 1
12.3409 0 1
12.4582 0 1
12.5756 0 1
12.693 0 1
12.8104 0 1
12.9278 0 1
13.0452 0 1
13.1626 0 1
13.28 0 1
13.3974 0 1
13.5149 0 1
13.6323 0 1
13.7497 0 1
13.8671 0 1
13.9845 0 1
14.1019 0 1
14.2193 0 1
14.3367 0 1
14.4541 0 1
14.5714 0 1
14.6888 0 1
14.8062 0 1
14.9235 0 1
15.0408 0 0
15.1581 0 0
15.2755 0 0
15.3927 0 0
15.51 0 0
15.6273 0 0
15.7445 0 0
15.8617 0 0
15.9789 0 0
16.0961 0 0
16.2132 0 0
16.3304 0 0
16.4475 0 0
16.5646 0 0
16.6816 0 0
16.7986 0 0
16.9156 0 0
17.0326 0 0
17.1496 0 0
17.2665 0 0
17.3833 0 0
17.5002 0 0
17.617 0 0
17.7338 0 0
17.8505 0 0
17.9672 0 0
18.0839 0 0
18.2005 0 0
18.3171 0 0
18.4337 0 0
18.5502 0 0
18.6666 0 0
18.7831 0 0
18.8994 0 0
19.0158 0 0
19.1321 0 0
19.2483 0 0
19.3645 0 0
19.4806 0 0
19.5967 0 0
19.7128 0 0
19.8288 0 0
19.9447 0 0
20.0606 0 1
20.1764 0 1
20.2922 0 1
20.4079 0 1
20.5236 0 1
20.6392 0 1
20.7548 0 1
20.8702 0 1
23.3078 0 1
23.4233 0 1
23.539 0 1
23.6547 0 1
23.7704 0 1
23.8862 0 1
24.0021 0 1
24.118 0 1
24.234 0 1
24.35 0 1
24.4661 1555 39.4335
24.5822 1547 39.3319
24.6984 1485 38.5357
24.8146 1507 38.8201
24.9309 1467 38.3014
25.0472 1429 37.8021
25.1636 1522 39.0128
25.28 1477 38.4318
25.3965 1576 39.6989
25.513 1642 40.5216
25.6296 1666 40.8167
25.7462 1768 42.0476
25.8628 1726 41.5452
25.9795 1780 42.19
26.0962 1678 40.9634
26.213 1730 41.5933
26.3298 1678 40.9634
26.4466 1642 40.5216
26.5635 1590 39.8748
26.6804 1521 39
26.7973 1467 38.3014
26.9143 1497 38.6911
27.0313 1608 40.0999
27.1483 1694 41.1582
27.2653 1678 40.9634
27.3824 1683 41.0244
27.4996 1619 40.2368
27.6167 1695 41.1704
27.7339 1689 41.0974
27.8511 1572 39.6485
27.9683 1593 39.9124
28.0855 1537 39.2046
28.2028 1502 38.7556
28.3201 1395 37.3497
28.4374 1356 36.8239
28.5547 1367 36.973
28.6721 1439 37.9342
28.7894 1443 37.9868
28.9068 1443 37.9868
29.0242 1505 38.7943
29.1416 1594 39.9249
29.259 1623 40.2865
29.3764 1604 40.05
29.4939 1570 39.6232
29.6113 1642 40.5216
29.7288 1566 39.5727
29.8463 1604 40.05
29.9638 1513 38.8973
30.0812 1470 38.3406
30.1987 1491 38.6135
30.3162 1512 38.8844
30.4337 1486 38.5487
30.5512 1479 38.4578
30.6687 1640 40.4969
30.7862 1644 40.5463
30.9037 1655 40.6817
31.0212 1671 40.8779
31.1387 1621 40.2616
31.2562 1605 40.0625
31.3737 1669 40.8534
31.4912 1675 40.9268
31.6087 1610 40.1248
31.7262 1556 39.4462
31.8436 1441 37.9605
31.9611 1397 37.3765
32.0785 1299 36.0416
32.1959 1400 37.4166
32.3134 1375 37.081
32.4308 1429 37.8021
32.5482 1543 39.281
32.6655 1586 39.8246
32.7829 1627 40.3361
32.9002 1688 41.0853
33.0176 1658 40.7185
33.1349 1600 40
33.2522 1569 39.6106
33.3694 1570 39.6232
33.4867 1627 40.3361
33.6039 1525 39.0512
33.7211 1542 39.2683
33.8383 1411 37.5633
33.9554 1453 38.1182
34.0725 1395 37.3497
34.1896 1573 39.6611
34.3067 1533 39.1535
34.4237 1620 40.2492
34.5407 1594 39.9249
34.6577 1646 40.5709
34.7746 1595 39.9375
34.8915 1729 41.5812
35.0084 1617 40.2119
35.1252 1549 39.3573
35.242 1574 39.6737
35.3587 1574 39.6737
35.4755 1495 38.6652
35.5921 1338 36.5787
35.7088 1434 37.8682
35.8254 1342 36.6333
35.9419 1375 37.081
36.0584 1375 37.081
36.1749 1450 38.0789
36.2913 1487 38.5616
36.4077 1531 39.128
36.524 1577 39.7115
36.6403 1616 40.1995
36.7565 1587 39.8372
36.8727 1691 41.1218
36.9889 1545 39.3065
37.1049 1529 39.1024
37.221 0 1
37.3369 0 1
37.4529 0 1
37.5687 0 1
37.6845 0 1
37.8003 0 1
37.916 0 1
38.0316 0 1
38.1472 0 1
40.5851 0 1
40.7008 0 1
40.8164 0 1
40.9322 0 1
41.048 0 1
41.1639 0 1
41.2798 0 1
41.3958 0 1
41.5118 0 1
41.6279 0 1
41.744 1278 35.7491
41.8602 1340 36.606
41.9765 1356 36.8239
42.0928 1375 37.081
42.2091 1368 36.9865
42.3255 1351 36.756
42.4419 1263 35.5387
42.5584 1233 35.1141
42.675 1244 35.2704
42.7915 1211 34.7994
42.9081 1222 34.9571
43.0248 1321 36.3456
43.1415 1290 35.9166
43.2582 1310 36.1939
43.375 1410 37.55
43.4918 1396 37.3631
43.6087 1339 36.5923
43.7256 1391 37.2961
43.8425 1311 36.2077
43.9595 1272 35.6651
44.0765 1272 35.6651
44.1935 1246 35.2987
44.3106 1187 34.4529
44.4277 1105 33.2415
44.5448 1007 31.7333
44.6619 1002 31.6544
44.7791 1134 33.6749
44.8963 1085 32.9393
45.0136 1125 33.541
45.1308 1157 34.0147
45.2481 1199 34.6266
45.3654 1239 35.1994
45.4827 1202 34.6699
45.6001 1155 33.9853
45.7174 1132 33.6452
45.8348 1161 34.0735
45.9522 1163 34.1028
46.0697 1059 32.5423
46.1871 998 31.5911
46.3046 947 30.7734
46.422 1007 31.7333
46.5395 1077 32.8177
46.657 1148 33.8821
46.7745 1140 33.7639
46.892 1075 32.7872
47.0096 1151 33.9264
47.1271 1068 32.6803
47.2446 1041 32.2645
47.3622 1046 32.3419
47.4797 1053 32.45
47.5973 1071 32.7261
47.7149 972 31.1769
47.8324 930 30.4959
47.95 916 30.2655
48.0675 854 29.2233
48.1851 748 27.3496
48.3027 778 27.8927
48.4202 811 28.4781
48.5378 864 29.3939
48.6554 920 30.3315
48.7729 913 30.2159
48.8904 949 30.8058
49.008 1007 31.7333
49.1255 1017 31.8904
49.243 1026 32.0312
49.3605 969 31.1288
49.478 969 31.1288
49.5955 854 29.2233
49.713 904 30.0666
49.8304 888 29.7993
49.9479 973 31.1929
50.0653 934 30.5614
50.1827 1046 32.3419
50.3001 1105 33.2415
50.4175 1123 33.5112
50.5348 1128 33.5857
50.6521 1126 33.5559
50.7694 1219 34.9142
50.8867 1214 34.8425
51.004 1295 35.9861
51.1212 1165 34.1321
51.2384 1240 35.2136
51.3556 1167 34.1614
51.4727 1280 35.7771
51.5899 1092 33.0454
51.707 1044 32.311
51.824 1124 33.5261
51.9411 1132 33.6452
52.0581 1257 35.4542
52.175 1341 36.6197
52.2919 1353 36.7831
52.4088 1421 37.6962
52.5257 1487 38.5616
52.6425 1502 38.7556
52.7593 1508 38.833
52.876 1489 38.5876
52.9927 1524 39.0384
53.1094 1449 38.0657
53.226 1452 38.1051
53.3426 1326 36.4143
53.4591 1373 37.054
53.5756 1433 37.855
53.692 1463 38.2492
53.8084 1544 39.2938
53.9248 1617 40.2119
54.0411 1671 40.8779
54.1573 1686 41.0609
54.2735 0 1
54.3896 0 1
54.5057 0 1
54.6217 0 1
54.7377 0 1
54.8537 0 1
54.9695 0 1
55.0853 0 1
55.2011 0 1
55.3168 0 1
55.4324 0 1
57.824 0 1
57.9396 0 1
58.0553 0 1
58.1711 0 1
58.2869 0 1
58.4028 0 1
58.5187 0 1
58.6347 0 1
58.7508 0 1
58.8669 0 1
58.983 2105 45.8803
59.0992 2063 45.4203
59.2155 2077 45.5741
59.3318 2067 45.4643
59.4482 2129 46.1411
59.5646 2087 45.6837
59.681 2087 45.6837
59.7975 2054 45.3211
59.9141 2017 44.911
60.0306 1950 44.1588
60.1473 1743 41.7493
60.2639 1677 40.9512
60.3807 1607 40.0874
60.4974 1567 39.5854
60.6142 1649 40.6079
60.731 1787 42.2729
60.8479 1768 42.0476
60.9648 1957 44.238
61.0818 2013 44.8665
61.1987 1978 44.4747
61.3158 1933 43.9659
61.4328 1987 44.5758
61.5499 2000 44.7214
61.667 1901 43.6005
61.7841 1824 42.7083
61.9013 1810 42.5441
62.0185 1828 42.7551
62.1357 1878 43.3359
62.253 1996 44.6766
62.3702 2079 45.5961
62.4875 1925 43.8748
62.6049 1943 44.0795
62.7222 2155 46.422
62.8396 2069 45.4863
62.9569 2087 45.6837
63.0743 2052 45.299
63.1918 2063 45.4203
63.3092 2039 45.1553
63.4267 1939 44.0341
63.5441 1817 42.6263
63.6616 1757 41.9166
63.7791 1596 39.95
63.8966 1497 38.6911
64.0142 1597 39.9625
64.1317 1633 40.4104
64.2492 1717 41.4367
64.3668 1795 42.3674
64.4843 1842 42.9185
64.6019 1954 44.2041
64.7195 1950 44.1588
64.837 2019 44.9333
64.9546 2009 44.8219
65.0722 1989 44.5982
65.1898 1885 43.4166
65.3074 1801 42.4382
65.4249 1739 41.7013
65.5425 1770 42.0714
65.6601 1766 42.0238
65.7777 1888 43.4511
65.8952 1890 43.4741
66.0128 2006 44.7884
66.1304 1995 44.6654
66.2479 2193 46.8295
66.3655 2112 45.9565
66.483 2112 45.9565
66.6005 2162 46.4973
66.718 2051 45.288
66.8355 2147 46.3357
66.953 2040 45.1664
67.0705 2013 44.8665
67.1879 1820 42.6615
67.3054 1773 42.107
67.4228 1581 39.7618
67.5402 1498 38.704
67.6576 1579 39.7366
67.7749 1563 39.5348
67.8923 1755 41.8927
68.0096 1923 43.852
68.1269 2007 44.7996
68.2442 2045 45.2217
68.3614 2121 46.0543
68.4787 2132 46.1736
68.5958 2173 46.6154
68.713 2182 46.7119
68.8302 2086 45.6727
68.9473 2076 45.5631
69.0643 2030 45.0555
69.1814 1898 43.566
69.2984 1992 44.6318
69.4154 1988 44.587
69.5323 2139 46.2493
69.6492 2199 46.8935
69.7661 2274 47.6865
69.8829 2342 48.3942
69.9997 2364 48.621
70.1165 2492 49.9199
70.2332 2492 49.9199
70.3499 2531 50.309
70.4665 2333 48.3011
70.5831 2474 49.7393
70.6996 2371 48.6929
70.8161 2149 46.3573
70.9326 2026 45.0111
71.049 1889 43.4626
71.1653 1635 40.4351
71.2817 1618 40.2244
71.3979 1630 40.3733
71.5141 1788 42.2847
71.6303 1997 44.6878
71.7464 1891 43.4856
71.8624 0 1
71.9784 0 1
72.0944 0 1
72.2102 0 1
72.3261 0 1
72.4418 0 1
72.5575 0 1
72.6732 0 1
75.1054 0 1
75.2209 0 1
75.3365 0 1
75.4521 0 1
75.5678 0 1
75.6835 0 1
75.7993 0 1
75.9151 0 1
76.031 0 1
76.147 2331 48.2804
76.263 2253 47.4658
76.3791 2057 45.3542
76.4952 1935 43.9886
76.6113 1857 43.0929
76.7276 1878 43.3359
76.8438 2143 46.2925
76.9601 2313 48.0937
77.0765 2528 50.2792
77.1929 2679 51.7591
77.3093 2729 52.2398
77.4258 2958 54.3875
77.5423 2701 51.9711
77.6589 2757 52.5071
77.7755 2770 52.6308
77.8921 2700 51.9615
78.0088 2617 51.1566
78.1256 2585 50.8429
78.2423 2371 48.6929
78.3591 2464 49.6387
78.4759 2519 50.1896
78.5928 2648 51.4587
78.7097 2820 53.1037
78.8266 2939 54.2125
78.9436 2729 52.2398
79.0606 2935 54.1756
79.1776 3042 55.1543
79.2946 2898 53.8331
79.4117 2925 54.0833
79.5288 2929 54.1202
79.6459 2891 53.768
79.7631 2735 52.2972
79.8802 2651 51.4879
79.9974 2483 49.8297
80.1147 2174 46.6262
80.2319 2025 45
80.3491 2099 45.8148
80.4664 2219 47.1063
80.5837 2548 50.4777
80.701 2706 52.0192
80.8183 2875 53.619
80.9357 2969 54.4885
81.053 3009 54.8544
81.1704 2942 54.2402
81.2877 2916 54
81.4051 3081 55.5068
81.5225 2898 53.8331
81.6399 2824 53.1413
81.7573 2804 52.9528
81.8747 2562 50.6162
81.9922 2537 50.3686
82.1096 2594 50.9313
82.227 2690 51.8652
82.3444 2858 53.4603
82.4619 2988 54.6626
82.5793 2980 54.5894
82.6967 3197 56.542
82.8142 3136 56
82.9316 3018 54.9363
83.049 2989 54.6717
83.1664 3088 55.5698
83.2838 2967 54.4702
83.4012 2854 53.4228
83.5186 2689 51.8556
83.636 2560 50.5964
83.7534 2301 47.9687
83.8708 2026 45.0111
83.9881 2027 45.0222
84.1055 2364 48.621
84.2228 2562 50.6162
84.3401 2831 53.2071
84.4575 3019 54.9454
84.5747 3154 56.1605
84.692 3243 56.9473
84.8093 3185 56.4358
84.9265 3316 57.5847
85.0437 3181 56.4004
85.1609 3083 55.5248
85.2781 3075 55.4527
85.3952 3006 54.827
85.5123 2981 54.5985
85.6294 2941 54.231
85.7465 3067 55.3805
85.8636 3216 56.7098
85.9806 3431 58.5747
86.0976 3591 59.925
86.2145 3566 59.716
86.3315 3528 59.397
86.4484 3917 62.5859
86.5652 3991 63.1744
86.682 3822 61.8223
86.7988 3738 61.1392
86.9156 3751 61.2454
87.0323 3685 60.7042
87.149 3482 59.0085
87.2657 3176 56.356
87.3823 2880 53.6656
87.4988 2698 51.9423
87.6154 2961 54.4151
87.7318 3227 56.8067
87.8483 3582 59.8498
87.9647 3998 63.2297
88.081 4114 64.1405
88.1973 4234 65.0692
88.3136 4278 65.4064
88.4298 4272 65.3605
88.546 4306 65.6201
88.6621 4278 65.4064
88.7781 4156 64.467
88.8942 0 1
89.0101 0 1
89.126 0 1
89.2419 0 1
89.3577 0 1
89.4734 0 1
89.5891 0 1
89.7047 0 1
89.8203 0 1
89.9358 0 1
92.3269 0 1
92.4424 0 1
92.558 0 1
92.6736 0 1
92.7893 0 1
92.905 0 1
93.0208 0 1
93.1366 0 1
93.2525 0 1
93.3685 0 1
93.4845 0 1
93.6005 4687 68.4617
93.7167 4903 70.0214
93.8328 4848 69.6276
93.949 4780 69.1375
94.0653 4869 69.7782
94.1816 4769 69.0579
94.2979 4790 69.2098
94.4143 4418 66.468
94.5307 4473 66.8805
94.6472 4241 65.123
94.7637 4323 65.7495
94.8803 4607 67.8749
94.9969 4645 68.1542
95.1135 4868 69.7711
95.2302 4998 70.6965
95.3469 4931 70.2211
95.4637 5307 72.8492
95.5805 5194 72.0694
95.6973 5340 73.0753
95.8142 5326 72.9794
95.9311 5305 72.8354
96.048 5218 72.2357
96.1649 4967 70.4769
96.2819 4790 69.2098
96.3989 4453 66.7308
96.516 4071 63.8044
96.633 3792 61.5792
96.7501 3653 60.4401
96.8673 3859 62.1208
96.9844 4370 66.106
97.1016 4846 69.6132
97.2188 5169 71.8958
97.336 5534 74.3909
97.4532 5556 74.5386
97.5704 5655 75.1997
97.6877 5665 75.2662
97.805 5546 74.4715
97.9223 5382 73.3621
98.0396 5346 73.1163
98.1569 5174 71.9305
98.2743 5000 70.7107
98.3916 5057 71.1126
98.509 5126 71.5961
98.6264 5125 71.5891
98.7438 5404 73.5119
98.8612 5585 74.7329
98.9786 5756 75.8683
99.096 5818 76.2758
99.2134 5965 77.2334
99.3308 5944 77.0973
99.4482 6037 77.6981
99.5656 6033 77.6724
99.6831 5754 75.8551
99.8005 5559 74.5587
99.9179 5305 72.8354
100.035 5115 71.5192
100.153 4639 68.1102
100.27 4351 65.9621
100.388 4301 65.582
100.505 4642 68.1322
100.622 5287 72.7118
100.74 5912 76.8895
100.857 6110 78.1665
100.975 6241 79
101.092 6339 79.6178
101.209 6282 79.2591
101.327 6221 78.8733
101.444 6222 78.8797
101.561 6045 77.7496
101.679 5936 77.0454
101.796 5790 76.092
101.913 5602 74.8465
102.03 5627 75.0133
102.148 5716 75.6042
102.265 6395 79.9687
102.382 5846 76.4591
102.499 6496 80.5978
102.616 6562 81.0062
102.733 6679 81.7251
102.851 6783 82.359
102.968 6755 82.1888
103.085 6746 82.134
103.202 6642 81.4985
103.319 6351 79.6932
103.436 6198 78.7274
103.552 5793 76.1118
103.669 5332 73.0205
103.786 4804 69.3109
103.903 4742 68.8622
104.02 5222 72.2634
104.137 5953 77.1557
104.253 6680 81.7313
104.37 6693 81.8108
104.487 6957 83.4086
104.603 6921 83.1925
104.72 7039 83.8987
104.836 6973 83.5045
104.953 7111 84.3267
105.069 6716 81.9512
105.186 6495 80.5916
105.302 6339 79.6178
105.418 6320 79.4984
105.535 6288 79.2969
105.651 6418 80.1124
105.767 6775 82.3104
105.883 6839 82.6982
105.999 7095 84.2318
106.115 0 1
106.231 0 1
106.347 0 1
106.463 0 1
106.579 0 1
106.694 0 1
106.81 0 1
106.926 0 1
107.041 0 1
107.157 0 1
109.576 0 1
109.692 0 1
109.807 0 1
109.923 0 1
110.039 0 1
110.155 0 1
110.27 0 1
110.386 0 1
110.502 0 1
110.618 5914 76.9025
110.735 6172 78.5621
110.851 6224 78.8923
110.967 6536 80.8455
111.083 6611 81.3081
111.199 6768 82.2679
111.316 6770 82.28
111.432 6965 83.4566
111.549 6786 82.3772
111.665 6562 81.0062
111.782 6475 80.4674
111.898 5825 76.3217
112.015 5632 75.0467
112.132 5093 71.3653
112.248 4708 68.6149
112.365 4493 67.0298
112.482 4907 70.05
112.599 5243 72.4086
112.716 5681 75.3724
112.832 6023 77.608
112.949 6080 77.9744
113.066 6252 79.0696
113.183 6159 78.4793
113.3 6029 77.6466
113.417 5880 76.6812
113.534 5715 75.5976
113.652 5618 74.9533
113.769 5406 73.5255
113.886 5382 73.3621
114.003 5237 72.3671
114.12 5237 72.3671
114.238 5317 72.9178
114.355 5287 72.7118
114.472 5270 72.5948
114.589 5522 74.3102
114.707 5674 75.326
114.824 5520 74.2967
114.942 5766 75.9342
115.059 5685 75.3989
115.176 5643 75.1199
115.294 5548 74.4849
115.411 5382 73.3621
115.529 5204 72.1388
115.646 4773 69.0869
115.764 4331 65.8103
115.881 3977 63.0635
115.999 4035 63.5216
116.116 4486 66.9776
116.234 4883 69.8785
116.351 5235 72.3533
116.469 5527 74.3438
116.586 5632 75.0467
116.704 5439 73.7496
116.821 5557 74.5453
116.939 5556 74.5386
117.056 5482 74.0405
117.174 5533 74.3841
117.291 5347 73.1232
117.409 5134 71.6519
117.526 4973 70.5195
117.644 4988 70.6258
117.761 4996 70.6824
117.879 5220 72.2496
117.996 5079 71.2671
118.114 5521 74.3034
118.231 5490 74.0945
118.349 5374 73.3076
118.466 5459 73.885
118.584 5586 74.7395
118.701 5621 74.9733
118.819 5490 74.0945
118.936 5342 73.089
119.053 5208 72.1665
119.171 4987 70.6187
119.288 4617 67.9485
119.405 4214 64.9153
119.523 4050 63.6396
119.64 4038 63.5453
119.757 4418 66.468
119.875 4630 68.0441
119.992 5093 71.3653
120.109 5154 71.7914
120.226 5253 72.4776
120.343 5343 73.0958
120.46 5263 72.5465
120.578 5237 72.3671
120.695 5282 72.6774
120.812 5267 72.5741
120.929 4939 70.278
121.046 5040 70.993
121.163 4970 70.4982
121.279 4608 67.8823
121.396 4650 68.1909
121.513 4729 68.7677
121.63 4985 70.6045
121.747 4812 69.3686
121.863 5025 70.8872
121.98 4989 70.6329
122.097 5276 72.6361
122.213 5067 71.1829
122.33 5143 71.7147
122.446 5168 71.8888
122.563 5033 70.9436
122.679 5017 70.8308
122.795 4827 69.4766
122.912 4703 68.5784
123.028 4433 66.5808
123.144 4001 63.2535
123.26 3781 61.4898
123.377 0 1
123.493 0 1
123.609 0 1
123.725 0 1
123.84 0 1
123.956 0 1
124.072 0 1
124.188 0 1
124.303 0 1
124.419 0 1
126.852 0 1
126.968 0 1
127.083 0 1
127.199 0 1
127.315 0 1
127.431 0 1
127.547 0 1
127.663 0 1
127.779 0 1
127.895 0 1
128.011 0 1
128.127 0 1
128.243 0 1
128.359 4319 65.7191
128.476 4071 63.8044
128.592 3938 62.7535
128.708 4393 66.2797
128.825 4733 68.7968
128.941 5270 72.5948
129.058 5345 73.1095
129.174 5420 73.6206
129.291 5481 74.0338
129.408 5464 73.9189
129.524 5528 74.3505
129.641 5469 73.9527
129.758 5352 73.1574
129.875 5167 71.8818
129.992 5187 72.0208
130.108 4949 70.3491
130.225 4815 69.3902
130.342 4904 70.0286
130.459 4969 70.4911
130.576 5165 71.8679
130.693 5198 72.0972
130.81 5078 71.2601
130.928 5203 72.1318
131.045 5205 72.1457
131.162 5190 72.0417
131.279 5287 72.7118
131.396 5200 72.111
131.513 5129 71.617
131.631 5112 71.4983
131.748 4745 68.884
131.865 4585 67.7126
131.983 3991 63.1744
132.1 3893 62.3939
132.217 4124 64.2184
132.335 4330 65.8027
132.452 4902 70.0143
132.57 5023 70.8731
132.687 4946 70.3278
132.804 5236 72.3602
132.922 5137 71.6729
133.039 5160 71.8331
133.157 5173 71.9236
133.274 5146 71.7356
133.392 4964 70.4557
133.509 4811 69.3614
133.627 4765 69.029
133.744 4603 67.8454
133.862 4720 68.7023
133.979 4869 69.7782
134.097 4829 69.491
134.214 4951 70.3633
134.332 4822 69.4406
134.449 4949 70.3491
134.567 4863 69.7352
134.684 4939 70.278
134.802 4954 70.3847
134.919 5037 70.9718
135.037 5014 70.8096
135.154 4802 69.2965
135.272 4644 68.1469
135.389 4455 66.7458
135.507 4024 63.435
135.624 3805 61.6847
135.742 3752 61.2536
135.859 4116 64.1561
135.977 4444 66.6633
136.094 4726 68.7459
136.211 4799 69.2748
136.329 4994 70.6682
136.446 5048 71.0493
136.564 4924 70.1712
136.681 5043 71.0141
136.798 4804 69.3109
136.915 4930 70.214
137.033 4747 68.8985
137.15 4690 68.4836
137.267 4507 67.1342
137.384 4600 67.8233
137.502 4669 68.3301
137.619 4581 67.6831
137.736 4465 66.8207
137.853 4456 66.7533
137.97 4564 67.5574
138.087 4760 68.9928
138.204 4620 67.9706
138.321 4730 68.775
138.438 4732 68.7895
138.555 4734 68.8041
138.672 4843 69.5917
138.788 4690 68.4836
138.905 4617 67.9485
139.022 4448 66.6933
139.139 4102 64.0469
139.255 3831 61.8951
139.372 3617 60.1415
139.488 3805 61.6847
139.605 4187 64.707
139.721 4611 67.9043
139.838 4753 68.942
139.954 4796 69.2532
140.071 4818 69.4118
140.187 4799 69.2748
140.303 4824 69.455
140.419 4685 68.4471
140.535 4790 69.2098
140.652 4549 67.4463
140.768 0 1
140.884 0 1
141 0 1
141.115 0 1
141.231 0 1
141.347 0 1
141.463 0 1
141.578 0 1
141.694 0 1
144.104 0 1
144.219 0 1
144.335 0 1
144.45 0 1
144.566 0 1
144.682 0 1
144.798 0 1
144.914 0 1
145.03 0 1
145.146 3928 62.6738
145.262 4131 64.2729
145.378 4120 64.1872
145.494 3996 63.2139
145.61 3968 62.9921
145.726 3876 62.2575
145.842 3909 62.522
145.959 3801 61.6523
146.075 3707 60.8851
146.192 3656 60.4649
146.308 3927 62.6658
146.425 3872 62.2254
146.541 3865 62.1691
146.658 3882 62.3057
146.774 3847 62.0242
146.891 3807 61.7009
147.008 3974 63.0397
147.125 4007 63.3009
147.241 3865 62.1691
147.358 3751 61.2454
147.475 3647 60.3904
147.592 3585 59.8749
147.709 3423 58.5064
147.826 3106 55.7315
147.943 2956 54.3691
148.06 3066 55.3715
148.177 3348 57.8619
148.294 3634 60.2827
148.411 3744 61.1882
148.528 3841 61.9758
148.645 3954 62.8808
148.762 3784 61.5142
148.88 3824 61.8385
148.997 3634 60.2827
149.114 3953 62.8729
149.231 3621 60.1747
149.349 3705 60.8687
149.466 3494 59.1101
149.583 3431 58.5747
149.701 3478 58.9746
149.818 3536 59.4643
149.935 3491 59.0847
150.053 3581 59.8415
150.17 3371 58.0603
150.287 3538 59.4811
150.405 3536 59.4643
150.522 3688 60.7289
150.64 3587 59.8916
150.757 3705 60.8687
150.875 3700 60.8276
150.992 3522 59.3464
151.11 3400 58.3095
151.227 3429 58.5577
151.344 3135 55.9911
151.462 2867 53.5444
151.579 2930 54.1295
151.697 2969 54.4885
151.814 3228 56.8155
151.932 3367 58.0259
152.049 3616 60.1332
152.167 3605 60.0417
152.284 3729 61.0655
152.402 3777 61.4573
152.519 3638 60.3158
152.636 3581 59.8415
152.754 3644 60.3656
152.871 3493 59.1016
152.989 3555 59.6238
153.106 3507 59.2199
153.223 3364 58
153.341 3304 57.4804
153.458 3347 57.8533
153.575 3348 57.8619
153.693 3392 58.2409
153.81 3522 59.3464
153.927 3404 58.3438
154.044 3586 59.8832
154.162 3538 59.4811
154.279 3707 60.8851
154.396 3702 60.8441
154.513 3722 61.0082
154.63 3661 60.5062
154.747 3561 59.6741
154.864 3348 57.8619
154.981 3351 57.8878
155.098 3083 55.5248
155.215 3038 55.1181
155.332 3096 55.6417
155.449 3316 57.5847
155.566 3586 59.8832
155.683 3571 59.7578
155.8 3710 60.9098
155.917 3630 60.2495
156.033 3683 60.6877
156.15 0 1
156.267 0 1
156.383 0 1
156.5 0 1
156.617 0 1
156.733 0 1
156.85 0 1
156.966 0 1
157.082 0 1
157.199 0 1
157.315 0 1
157.431 0 1
157.547 0 1
157.664 0 1
157.78 0 1
157.896 0 1
158.012 0 1
158.128 0 1
158.244 0 1
158.359 0 1
158.475 0 1
158.591 0 1
158.706 0 1
