
6.15755 0 1
6.2731 0 1
6.3887 0 1
6.50437 0 1
6.62009 0 1
6.73587 0 1
6.8517 0 1
6.96759 0 1
7.08353 0 1
7.19952 0 1
7.31557 0 1
7.43166 0 1
7.54781 0 1
7.664 0 1
7.78024 0 1
7.89653 0 1
8.01286 0 1
8.12924 0 1
8.24567 0 1
8.36213 0 1
8.47864 0 1
8.59519 0 1
8.71178 0 1
8.82841 0 1
8.94508 0 1
9.06179 0 1
9.17853 0 1
9.29531 0 1
9.41212 0 1
9.52897 0 1
9.64584 0 1
9.76276 0 1
9.8797 0 1
9.99667 0 1
10.1137 0 1
10.2307 0 1
10.3478 0 1
10.4648 0 1
10.5819 0 1
10.6991 0 1
10.8162 0 1
10.9334 0 1
11.0506 0 1
11.1678 0 1
11.285 0 1
11.4023 0 1
11.5196 0 1
11.6369 0 1
11.7542 0 1
11.8715 0 1
11.9888 0 1
12.1062 0 1
12.2235 0 1
12.3409 0 1
12.4582 0 1
12.5756 0 1
12.693 0 1
12.8104 0 1
12.9278 0 1
13.0452 0 1
13.1626 0 1
13.28 0 1
13.3974 0 1
13.5149 0 1
13.6323 0 1
13.7497 0 1
13.8671 0 1
13.9845 0 1
14.1019 0 1
14.2193 0 1
14.3367 0 1
14.4541 0 1
14.5714 0 1
14.6888 0 1
14.8062 0 1
14.9235 0 1
15.0408 3392 58.2409
15.1581 3605 60.0417
15.2755 3650 60.4152
15.3927 3614 60.1166
15.51 3780 61.4817
15.6273 3569 59.7411
15.7445 3719 60.9836
15.8617 3770 61.4003
15.9789 3862 62.145
16.0961 3664 60.531
16.2132 3818 61.79
16.3304 3783 61.5061
16.4475 3802 61.6604
16.5646 3808 61.709
16.6816 3829 61.8789
16.7986 3948 62.8331
16.9156 3914 62.562
17.0326 4020 63.4035
17.1496 4016 63.3719
17.2665 4126 64.2339
17.3833 3937 62.7455
17.5002 3941 62.7774
17.617 4134 64.2962
17.7338 4035 63.5216
17.8505 3827 61.8628
17.9672 3742 61.1719
18.0839 3615 60.1249
18.2005 3459 58.8133
18.3171 3721 61
18.4337 3842 61.9839
18.5502 4113 64.1327
18.6666 4383 66.2042
18.7831 4493 67.0298
18.8994 4602 67.838
19.0158 4439 66.6258
19.1321 4576 67.6461
19.2483 4441 66.6408
19.3645 4510 67.1565
19.4806 4506 67.1267
19.5967 4526 67.2756
19.7128 4559 67.5204
19.8288 4424 66.5132
19.9447 3862 62.145
20.0606 0 1
20.1764 0 1
20.2922 0 1
20.4079 0 1
20.5236 0 1
20.6392 0 1
20.7548 0 1
20.8702 0 1
23.3078 0 1
23.4233 0 1
23.539 0 1
23.6547 0 1
23.7704 0 1
23.8862 0 1
24.0021 0 1
24.118 0 1
24.234 0 1
24.35 0 1
24.4661 4862 69.728
24.5822 4932 70.2282
24.6984 4920 70.1427
24.8146 4777 69.1158
24.9309 4922 70.157
25.0472 4893 69.95
25.1636 4699 68.5493
25.28 4649 68.1836
25.3965 4696 68.5274
25.513 4706 68.6003
25.6296 4950 70.3562
25.7462 5145 71.7287
25.8628 5090 71.3442
25.9795 5287 72.7118
26.0962 5195 72.0763
26.213 5236 72.3602
26.3298 5181 71.9792
26.4466 5202 72.1249
26.5635 5120 71.5542
26.6804 4693 68.5055
26.7973 4601 67.8307
26.9143 4355 65.9924
27.0313 4175 64.6142
27.1483 4429 66.5507
27.2653 4654 68.2202
27.3824 4920 70.1427
27.4996 4980 70.5691
27.6167 5080 71.2741
27.7339 5153 71.7844
27.8511 5053 71.0845
27.9683 5046 71.0352
28.0855 5110 71.4843
28.2028 4960 70.4273
28.3201 5030 70.9225
28.4374 5035 70.9577
28.5547 4910 70.0714
28.6721 4854 69.6707
28.7894 4752 68.9348
28.9068 4769 69.0579
29.0242 4703 68.5784
29.1416 4759 68.9855
29.259 4917 70.1213
29.3764 5100 71.4143
29.4939 5189 72.0347
29.6113 5083 71.2952
29.7288 5168 71.8888
29.8463 5221 72.2565
29.9638 5046 71.0352
30.0812 5009 70.7743
30.1987 4901 70.0071
30.3162 4521 67.2384
30.4337 4425 66.5207
30.5512 4403 66.3551
30.6687 4262 65.284
30.7862 4408 66.3928
30.9037 4611 67.9043
31.0212 4891 69.9357
31.1387 4788 69.1954
31.2562 5065 71.1688
31.3737 5040 70.993
31.4912 5138 71.6798
31.6087 5132 71.638
31.7262 4990 70.6399
31.8436 5086 71.3162
31.9611 4967 70.4769
32.0785 5070 71.2039
32.1959 4877 69.8355
32.3134 4855 69.6778
32.4308 4776 69.1086
32.5482 4801 69.2892
32.6655 4915 70.1071
32.7829 5034 70.9507
32.9002 5063 71.1548
33.0176 5109 71.4773
33.1349 5184 72
33.2522 5294 72.7599
33.3694 5185 72.0069
33.4867 5233 72.3395
33.6039 5150 71.7635
33.7211 5024 70.8802
33.8383 5005 70.746
33.9554 4701 68.5638
34.0725 4640 68.1175
34.1896 4554 67.4833
34.3067 4329 65.7951
34.4237 4326 65.7723
34.5407 4569 67.5944
34.6577 4780 69.1375
34.7746 4952 70.3704
34.8915 4858 69.6994
35.0084 4778 69.1231
35.1252 4978 70.5549
35.242 4963 70.4486
35.3587 4970 70.4982
35.4755 5058 71.1196
35.5921 5125 71.5891
35.7088 4921 70.1498
35.8254 4830 69.4982
35.9419 4873 69.8069
36.0584 4688 68.469
36.1749 4677 68.3886
36.2913 4752 68.9348
36.4077 4690 68.4836
36.524 4880 69.857
36.6403 5050 71.0634
36.7565 5114 71.5122
36.8727 5062 71.1477
36.9889 5076 71.2461
37.1049 5029 70.9154
37.221 0 1
37.3369 0 1
37.4529 0 1
37.5687 0 1
37.6845 0 1
37.8003 0 1
37.916 0 1
38.0316 0 1
38.1472 0 1
40.5851 0 1
40.7008 0 1
40.8164 0 1
40.9322 0 1
41.048 0 1
41.1639 0 1
41.2798 0 1
41.3958 0 1
41.5118 0 1
41.6279 0 1
41.744 4069 63.7887
41.8602 4304 65.6049
41.9765 4266 65.3146
42.0928 4356 66
42.2091 4330 65.8027
42.3255 4449 66.7008
42.4419 4324 65.7571
42.5584 4310 65.6506
42.675 4214 64.9153
42.7915 4326 65.7723
42.9081 4095 63.9922
43.0248 3906 62.498
43.1415 3906 62.498
43.2582 3973 63.0317
43.375 4071 63.8044
43.4918 4116 64.1561
43.6087 4165 64.5368
43.7256 3930 62.6897
43.8425 4054 63.671
43.9595 3998 63.2297
44.0765 4011 63.3325
44.1935 3902 62.466
44.3106 3899 62.442
44.4277 3949 62.8411
44.5448 3718 60.9754
44.6619 3640 60.3324
44.7791 3557 59.6406
44.8963 3632 60.2661
45.0136 3601 60.0083
45.1308 3542 59.5147
45.2481 3581 59.8415
45.3654 3631 60.2578
45.4827 3647 60.3904
45.6001 3701 60.8358
45.7174 3583 59.8582
45.8348 3568 59.7327
45.9522 3553 59.607
46.0697 3442 58.6686
46.1871 3368 58.0345
46.3046 3340 57.7927
46.422 3287 57.3324
46.5395 3132 55.9643
46.657 3130 55.9464
46.7745 3129 55.9375
46.892 3123 55.8838
47.0096 3176 56.356
47.1271 3222 56.7627
47.2446 3208 56.6392
47.3622 3015 54.909
47.4797 3023 54.9818
47.5973 3141 56.0446
47.7149 2995 54.7266
47.8324 3021 54.9636
47.95 3066 55.3715
48.0675 2871 53.5817
48.1851 2919 54.0278
48.3027 2713 52.0865
48.4202 2806 52.9717
48.5378 2732 52.2685
48.6554 2784 52.7636
48.7729 3013 54.8908
48.8904 2963 54.4334
49.008 3071 55.4166
49.1255 3007 54.8361
49.243 3022 54.9727
49.3605 3093 55.6147
49.478 3052 55.2449
49.5955 3014 54.8999
49.713 2943 54.2494
49.8304 3040 55.1362
49.9479 2942 54.2402
50.0653 2849 53.376
50.1827 2895 53.8052
50.3001 2923 54.0648
50.4175 2831 53.2071
50.5348 2857 53.4509
50.6521 2994 54.7175
50.7694 3016 54.9181
50.8867 3156 56.1783
51.004 3218 56.7274
51.1212 3200 56.5685
51.2384 3309 57.5239
51.3556 3418 58.4637
51.4727 3358 57.9483
51.5899 3434 58.6003
51.707 3329 57.6975
51.824 3367 58.0259
51.9411 3560 59.6657
52.0581 3421 58.4893
52.175 3552 59.5987
52.2919 3878 62.2736
52.4088 3939 62.7615
52.5257 3951 62.857
52.6425 4012 63.3404
52.7593 3986 63.1348
52.876 4044 63.5925
52.9927 4128 64.2495
53.1094 4115 64.1483
53.226 4133 64.2884
53.3426 4149 64.4127
53.4591 4122 64.2028
53.5756 4027 63.4586
53.692 3981 63.0952
53.8084 4024 63.435
53.9248 3969 63
54.0411 3963 62.9524
54.1573 3990 63.1664
54.2735 0 1
54.3896 0 1
54.5057 0 1
54.6217 0 1
54.7377 0 1
54.8537 0 1
54.9695 0 1
55.0853 0 1
55.2011 0 1
55.3168 0 1
55.4324 0 1
57.824 0 1
57.9396 0 1
58.0553 0 1
58.1711 0 1
58.2869 0 1
58.4028 0 1
58.5187 0 1
58.6347 0 1
58.7508 0 1
58.8669 0 1
58.983 4578 67.6609
59.0992 4565 67.5648
59.2155 4686 68.4544
59.3318 4799 69.2748
59.4482 4751 68.9275
59.5646 4650 68.1909
59.681 4750 68.9202
59.7975 4702 68.5711
59.9141 4772 69.0797
60.0306 4764 69.0217
60.1473 4553 67.4759
60.2639 4683 68.4324
60.3807 4490 67.0075
60.4974 4394 66.2873
60.6142 4545 67.4166
60.731 4605 67.8602
60.8479 4655 68.2276
60.9648 4876 69.8284
61.0818 4609 67.8896
61.1987 4665 68.3008
61.3158 4759 68.9855
61.4328 4777 69.1158
61.5499 4699 68.5493
61.667 4685 68.4471
61.7841 4618 67.9559
61.9013 4642 68.1322
62.0185 4687 68.4617
62.1357 4556 67.4981
62.253 4515 67.1937
62.3702 4424 66.5132
62.4875 4404 66.3626
62.6049 4380 66.1816
62.7222 4543 67.4018
62.8396 4508 67.1416
62.9569 4467 66.8356
63.0743 4365 66.0681
63.1918 4236 65.0846
63.3092 4150 64.4205
63.4267 4147 64.3972
63.5441 4173 64.5988
63.6616 4241 65.123
63.7791 4205 64.846
63.8966 4103 64.0547
64.0142 4220 64.9615
64.1317 4077 63.8514
64.2492 4136 64.3117
64.3668 4245 65.1537
64.4843 4374 66.1362
64.6019 4401 66.34
64.7195 4388 66.242
64.837 4409 66.4003
64.9546 4282 65.437
65.0722 4335 65.8407
65.1898 4209 64.8768
65.3074 4335 65.8407
65.4249 4253 65.215
65.5425 4212 64.8999
65.6601 4323 65.7495
65.7777 4163 64.5213
65.8952 4303 65.5973
66.0128 4051 63.6475
66.1304 4213 64.9076
66.2479 4135 64.304
66.3655 4252 65.2074
66.483 4243 65.1383
66.6005 4231 65.0461
66.718 4182 64.6684
66.8355 4046 63.6082
66.953 4003 63.2693
67.0705 3861 62.1369
67.1879 3985 63.1269
67.3054 4057 63.6946
67.4228 3938 62.7535
67.5402 3948 62.8331
67.6576 3944 62.8013
67.7749 3894 62.4019
67.8923 4112 64.1249
68.0096 4219 64.9538
68.1269 4325 65.7647
68.2442 4398 66.3174
68.3614 4414 66.4379
68.4787 4461 66.7907
68.5958 4300 65.5744
68.713 4402 66.3476
68.8302 4274 65.3758
68.9473 4506 67.1267
69.0643 4324 65.7571
69.1814 4301 65.582
69.2984 4376 66.1513
69.4154 4402 66.3476
69.5323 4425 66.5207
69.6492 4419 66.4756
69.7661 4346 65.9242
69.8829 4547 67.4314
69.9997 4445 66.6708
70.1165 4529 67.2978
70.2332 4560 67.5278
70.3499 4403 66.3551
70.4665 4150 64.4205
70.5831 4151 64.4283
70.6996 3935 62.7296
70.8161 4161 64.5058
70.9326 3953 62.8729
71.049 3947 62.8252
71.1653 3959 62.9206
71.2817 3865 62.1691
71.3979 3931 62.6977
71.5141 3963 62.9524
71.6303 4044 63.5925
71.7464 3746 61.2046
71.8624 0 1
71.9784 0 1
72.0944 0 1
72.2102 0 1
72.3261 0 1
72.4418 0 1
72.5575 0 1
72.6732 0 1
75.1054 0 1
75.2209 0 1
75.3365 0 1
75.4521 0 1
75.5678 0 1
75.6835 0 1
75.7993 0 1
75.9151 0 1
76.031 0 1
76.147 3498 59.1439
76.263 3747 61.2127
76.3791 3820 61.8061
76.4952 3761 61.327
76.6113 3870 62.2093
76.7276 3866 62.1772
76.8438 4044 63.5925
76.9601 4229 65.0308
77.0765 4280 65.4217
77.1929 4452 66.7233
77.3093 4506 67.1267
77.4258 4588 67.7348
77.5423 4460 66.7832
77.6589 4384 66.2118
77.7755 4386 66.2269
77.8921 4397 66.3099
78.0088 4301 65.582
78.1256 4307 65.6277
78.2423 4167 64.5523
78.3591 4248 65.1767
78.4759 4292 65.5134
78.5928 4331 65.8103
78.7097 4331 65.8103
78.8266 4319 65.7191
78.9436 4579 67.6683
79.0606 4428 66.5432
79.1776 4240 65.1153
79.2946 4355 65.9924
79.4117 4266 65.3146
79.5288 4054 63.671
79.6459 3915 62.57
79.7631 3673 60.6053
79.8802 3526 59.3801
79.9974 3597 59.975
80.1147 3606 60.05
80.2319 3674 60.6135
80.3491 3905 62.49
80.4664 4024 63.435
80.5837 4055 63.6789
80.701 4058 63.7024
80.8183 4220 64.9615
80.9357 4423 66.5056
81.053 4263 65.2917
81.1704 4238 65.0999
81.2877 4150 64.4205
81.4051 4157 64.4748
81.5225 4142 64.3584
81.6399 4080 63.8749
81.7573 4017 63.3798
81.8747 3927 62.6658
81.9922 3946 62.8172
82.1096 4083 63.8984
82.227 4008 63.3088
82.3444 4077 63.8514
82.4619 4238 65.0999
82.5793 4165 64.5368
82.6967 4100 64.0312
82.8142 4064 63.7495
82.9316 3948 62.8331
83.049 3869 62.2013
83.1664 3655 60.4566
83.2838 3356 57.931
83.4012 3170 56.3028
83.5186 3021 54.9636
83.636 3110 55.7674
83.7534 3165 56.2583
83.8708 3273 57.2101
83.9881 3460 58.8218
84.1055 3698 60.8112
84.2228 3717 60.9672
84.3401 3864 62.1611
84.4575 3850 62.0484
84.5747 3851 62.0564
84.692 4028 63.4665
84.8093 3916 62.578
84.9265 3914 62.562
85.0437 3865 62.1691
85.1609 3844 62
85.2781 3880 62.2896
85.3952 3873 62.2334
85.5123 3963 62.9524
85.6294 3962 62.9444
85.7465 4080 63.8749
85.8636 4124 64.2184
85.9806 4243 65.1383
86.0976 4226 65.0077
86.2145 4168 64.56
86.3315 4406 66.3777
86.4484 4103 64.0547
86.5652 4258 65.2534
86.682 4338 65.8635
86.7988 4065 63.7574
86.9156 3729 61.0655
87.0323 3484 59.0254
87.149 3400 58.3095
87.2657 3520 59.3296
87.3823 3704 60.8605
87.4988 3720 60.9918
87.6154 4024 63.435
87.7318 4228 65.0231
87.8483 4207 64.8614
87.9647 4353 65.9773
88.081 4316 65.6963
88.1973 4392 66.2722
88.3136 4466 66.8281
88.4298 4521 67.2384
88.546 4355 65.9924
88.6621 4309 65.643
88.7781 4270 65.3452
88.8942 0 1
89.0101 0 1
89.126 0 1
89.2419 0 1
89.3577 0 1
89.4734 0 1
89.5891 0 1
89.7047 0 1
89.8203 0 1
89.9358 0 1
92.3269 0 1
92.4424 0 1
92.558 0 1
92.6736 0 1
92.7893 0 1
92.905 0 1
93.0208 0 1
93.1366 0 1
93.2525 0 1
93.3685 0 1
93.4845 0 1
93.6005 4314 65.681
93.7167 4410 66.4078
93.8328 4396 66.3023
93.949 4315 65.6887
94.0653 4228 65.0231
94.1816 4275 65.3835
94.2979 4243 65.1383
94.4143 4220 64.9615
94.5307 4230 65.0385
94.6472 4387 66.2344
94.7637 4442 66.6483
94.8803 4437 66.6108
94.9969 4447 66.6858
95.1135 4528 67.2904
95.2302 4579 67.6683
95.3469 4650 68.1909
95.4637 4831 69.5054
95.5805 4667 68.3154
95.6973 4663 68.2862
95.8142 4586 67.72
95.9311 4467 66.8356
96.048 4017 63.3798
96.1649 3754 61.2699
96.2819 3418 58.4637
96.3989 3280 57.2713
96.516 3535 59.4559
96.633 3585 59.8749
96.7501 4082 63.8905
96.8673 4286 65.4675
96.9844 4421 66.4906
97.1016 4600 67.8233
97.2188 4478 66.9179
97.336 4790 69.2098
97.4532 4599 67.8159
97.5704 4652 68.2056
97.6877 4421 66.4906
97.805 4446 66.6783
97.9223 4396 66.3023
98.0396 4252 65.2074
98.1569 4368 66.0908
98.2743 4526 67.2756
98.3916 4513 67.1789
98.509 4572 67.6166
98.6264 4662 68.2788
98.7438 4773 69.0869
98.8612 4727 68.7532
98.9786 4783 69.1592
99.096 4817 69.4046
99.2134 4764 69.0217
99.3308 4759 68.9855
99.4482 4793 69.2315
99.5656 4623 67.9926
99.6831 4322 65.7419
99.8005 3916 62.578
99.9179 3666 60.5475
100.035 3609 60.075
100.153 3636 60.2993
100.27 4005 63.2851
100.388 4348 65.9394
100.505 4521 67.2384
100.622 4718 68.6877
100.74 4696 68.5274
100.857 4706 68.6003
100.975 4682 68.4251
101.092 4701 68.5638
101.209 4663 68.2862
101.327 4514 67.1863
101.444 4395 66.2948
101.561 4508 67.1416
101.679 4353 65.9773
101.796 4508 67.1416
101.913 4694 68.5128
102.03 4787 69.1881
102.148 4825 69.4622
102.265 4777 69.1158
102.382 5126 71.5961
102.499 5076 71.2461
102.616 4979 70.562
102.733 5041 71
102.851 5016 70.8237
102.968 5108 71.4703
103.085 4884 69.8856
103.202 4639 68.1102
103.319 4244 65.146
103.436 3714 60.9426
103.552 3582 59.8498
103.669 3581 59.8415
103.786 4112 64.1249
103.903 4467 66.8356
104.02 4883 69.8785
104.137 4906 70.0428
104.253 5041 71
104.37 5024 70.8802
104.487 5043 71.0141
104.603 4918 70.1285
104.72 4907 70.05
104.836 4978 70.5549
104.953 4761 69
105.069 4730 68.775
105.186 4824 69.455
105.302 4864 69.7424
105.418 5039 70.9859
105.535 5063 71.1548
105.651 5087 71.3232
105.767 5319 72.9315
105.883 5364 73.2393
105.999 5189 72.0347
106.115 0 1
106.231 0 1
106.347 0 1
106.463 0 1
106.579 0 1
106.694 0 1
106.81 0 1
106.926 0 1
107.041 0 1
107.157 0 1
109.576 0 1
109.692 0 1
109.807 0 1
109.923 0 1
110.039 0 1
110.155 0 1
110.27 0 1
110.386 0 1
110.502 0 1
110.618 4859 69.7065
110.735 4852 69.6563
110.851 5058 71.1196
110.967 5063 71.1548
111.083 4968 70.484
111.199 5137 71.6729
111.316 5124 71.5821
111.432 5218 72.2357
111.549 5077 71.2531
111.665 4857 69.6922
111.782 4629 68.0368
111.898 4083 63.8984
112.015 3489 59.0678
112.132 3121 55.8659
112.248 3359 57.9569
112.365 3815 61.7657
112.482 4316 65.6963
112.599 4820 69.4262
112.716 4735 68.8113
112.832 4649 68.1836
112.949 4894 69.9571
113.066 4794 69.2387
113.183 4658 68.2495
113.3 4648 68.1762
113.417 4490 67.0075
113.534 4435 66.5958
113.652 4444 66.6633
113.769 4587 67.7274
113.886 4616 67.9412
114.003 4753 68.942
114.12 4709 68.6222
114.238 4816 69.3974
114.355 4797 69.2604
114.472 4840 69.5701
114.589 4903 70.0214
114.707 4850 69.6419
114.824 4936 70.2567
114.942 4890 69.9285
115.059 4804 69.3109
115.176 4754 68.9493
115.294 4540 67.3795
115.411 4190 64.7302
115.529 3806 61.6928
115.646 3206 56.6216
115.764 2980 54.5894
115.881 3358 57.9483
115.999 3982 63.1031
116.116 4174 64.6065
116.234 4487 66.9851
116.351 4492 67.0224
116.469 4609 67.8896
116.586 4384 66.2118
116.704 4498 67.0671
116.821 4244 65.146
116.939 4413 66.4304
117.056 4196 64.7765
117.174 4227 65.0154
117.291 4280 65.4217
117.409 4282 65.437
117.526 4449 66.7008
117.644 4468 66.8431
117.761 4487 66.9851
117.879 4590 67.7495
117.996 4446 66.6783
118.114 4709 68.6222
118.231 4622 67.9853
118.349 4631 68.0515
118.466 4569 67.5944
118.584 4554 67.4833
118.701 4565 67.5648
118.819 4428 66.5432
118.936 4137 64.3195
119.053 3895 62.4099
119.171 3359 57.9569
119.288 2894 53.7959
119.405 2739 52.3355
119.523 3158 56.1961
119.64 3657 60.4731
119.757 4040 63.561
119.875 4157 64.4748
119.992 4172 64.591
120.109 4257 65.2457
120.226 4223 64.9846
120.343 4085 63.914
120.46 4109 64.1015
120.578 4038 63.5453
120.695 3929 62.6817
120.812 4028 63.4665
120.929 3879 62.2816
121.046 4017 63.3798
121.163 3908 62.514
121.279 4169 64.5678
121.396 4079 63.867
121.513 4237 65.0922
121.63 4353 65.9773
121.747 4311 65.6582
121.863 4389 66.2495
121.98 4393 66.2797
122.097 4362 66.0454
122.213 4327 65.7799
122.33 4299 65.5668
122.446 4261 65.2763
122.563 4203 64.8305
122.679 3998 63.2297
122.795 3705 60.8687
122.912 3260 57.0964
123.028 2695 51.9134
123.144 2542 50.4183
123.26 2771 52.6403
123.377 0 1
123.493 0 1
123.609 0 1
123.725 0 1
123.84 0 1
123.956 0 1
124.072 0 1
124.188 0 1
124.303 0 1
124.419 0 1
126.852 0 1
126.968 0 1
127.083 0 1
127.199 0 1
127.315 0 1
127.431 0 1
127.547 0 1
127.663 0 1
127.779 0 1
127.895 0 1
128.011 0 1
128.127 0 1
128.243 0 1
128.359 2563 50.6261
128.476 2774 52.6688
128.592 3286 57.3236
128.708 3958 62.9126
128.825 4279 65.4141
128.941 4219 64.9538
129.058 4271 65.3529
129.174 4280 65.4217
129.291 4279 65.4141
129.408 4064 63.7495
129.524 4058 63.7024
129.641 3962 62.9444
129.758 4009 63.3167
129.875 4036 63.5295
129.992 4011 63.3325
130.108 4026 63.4508
130.225 4284 65.4523
130.342 4166 64.5446
130.459 4108 64.0937
130.576 4409 66.4003
130.693 4316 65.6963
130.81 4180 64.6529
130.928 4213 64.9076
131.045 4369 66.0984
131.162 4335 65.8407
131.279 4321 65.7343
131.396 4169 64.5678
131.513 4145 64.3817
131.631 3972 63.0238
131.748 3460 58.8218
131.865 2598 50.9706
131.983 2508 50.0799
132.1 3042 55.1543
132.217 3534 59.4475
132.335 4001 63.2535
132.452 3968 62.9921
132.57 4046 63.6082
132.687 3939 62.7615
132.804 4059 63.7103
132.922 3845 62.0081
133.039 3851 62.0564
133.157 3931 62.6977
133.274 3764 61.3514
133.392 3862 62.145
133.509 3808 61.709
133.627 3837 61.9435
133.744 4004 63.2772
133.862 4186 64.6993
133.979 4091 63.9609
134.097 4053 63.6632
134.214 4118 64.1716
134.332 4137 64.3195
134.449 4058 63.7024
134.567 4060 63.7181
134.684 4092 63.9687
134.802 4143 64.3661
134.919 4112 64.1249
135.037 4013 63.3482
135.154 3878 62.2736
135.272 3495 59.1185
135.389 2786 52.7826
135.507 2430 49.295
135.624 2567 50.6656
135.742 3136 56
135.859 3752 61.2536
135.977 3837 61.9435
136.094 3940 62.7694
136.211 3883 62.3137
136.329 3924 62.6418
136.446 3793 61.5873
136.564 3799 61.636
136.681 3651 60.4235
136.798 3794 61.5955
136.915 3770 61.4003
137.033 3655 60.4566
137.15 3682 60.6795
137.267 3759 61.3107
137.384 3729 61.0655
137.502 3737 61.131
137.619 3846 62.0161
137.736 3978 63.0714
137.853 3741 61.1637
137.97 4044 63.5925
138.087 3955 62.8888
138.204 3902 62.466
138.321 4031 63.4902
138.438 4016 63.3719
138.555 4055 63.6789
138.672 4056 63.6867
138.788 3887 62.3458
138.905 3519 59.3212
139.022 2997 54.7449
139.139 2315 48.1144
139.255 2503 50.03
139.372 3082 55.5158
139.488 3704 60.8605
139.605 3882 62.3057
139.721 3962 62.9444
139.838 3889 62.3618
139.954 3910 62.53
140.071 3844 62
140.187 3818 61.79
140.303 3730 61.0737
140.419 3519 59.3212
140.535 3578 59.8164
140.652 3601 60.0083
140.768 0 1
140.884 0 1
141 0 1
141.115 0 1
141.231 0 1
141.347 0 1
141.463 0 1
141.578 0 1
141.694 0 1
144.104 0 1
144.219 0 1
144.335 0 1
144.45 0 1
144.566 0 1
144.682 0 1
144.798 0 1
144.914 0 1
145.03 0 1
145.146 2665 51.6236
145.262 2827 53.1695
145.378 2788 52.8015
145.494 2717 52.1249
145.61 2774 52.6688
145.726 2628 51.264
145.842 2736 52.3068
145.959 2765 52.5833
146.075 2775 52.6783
146.192 2804 52.9528
146.308 2848 53.3667
146.425 2795 52.8678
146.541 2993 54.7083
146.658 2940 54.2218
146.774 2971 54.5069
146.891 3007 54.8361
147.008 3094 55.6237
147.125 3007 54.8361
147.241 3107 55.7405
147.358 3030 55.0454
147.475 3034 55.0818
147.592 3026 55.0091
147.709 2983 54.6168
147.826 2742 52.3641
147.943 2270 47.6445
148.06 1930 43.9318
148.177 1877 43.3244
148.294 2321 48.1768
148.411 2763 52.5642
148.528 2834 53.2353
148.645 2966 54.461
148.762 3004 54.8088
148.88 2919 54.0278
148.997 2914 53.9815
149.114 3017 54.9272
149.231 2807 52.9811
149.349 2727 52.2207
149.466 2776 52.6878
149.583 2790 52.8205
149.701 2792 52.8394
149.818 2719 52.144
149.935 2757 52.5071
150.053 2831 53.2071
150.17 2863 53.507
150.287 3033 55.0727
150.405 3018 54.9363
150.522 3053 55.254
150.64 3041 55.1453
150.757 3169 56.2939
150.875 3154 56.1605
150.992 3111 55.7763
151.11 3124 55.8928
151.227 3216 56.7098
151.344 3030 55.0454
151.462 3035 55.0908
151.579 2930 54.1295
151.697 2328 48.2494
151.814 1979 44.486
151.932 2177 46.6583
152.049 2622 51.2055
152.167 3078 55.4797
152.284 3124 55.8928
152.402 3226 56.7979
152.519 3245 56.9649
152.636 3294 57.3934
152.754 3181 56.4004
152.871 2962 54.4243
152.989 3122 55.8749
153.106 3096 55.6417
153.223 3058 55.2992
153.341 3018 54.9363
153.458 3101 55.6866
153.575 3083 55.5248
153.693 3237 56.8946
153.81 3201 56.5774
153.927 3310 57.5326
154.044 3282 57.2887
154.162 3366 58.0172
154.279 3347 57.8533
154.396 3467 58.8812
154.513 3546 59.5483
154.63 3571 59.7578
154.747 3557 59.6406
154.864 3581 59.8415
154.981 3589 59.9083
155.098 3338 57.7754
155.215 2945 54.2679
155.332 2457 49.5681
155.449 2537 50.3686
155.566 2941 54.231
155.683 3446 58.7026
155.8 3537 59.4727
155.917 3569 59.7411
156.033 3468 58.8897
156.15 0 1
156.267 0 1
156.383 0 1
156.5 0 1
156.617 0 1
156.733 0 1
156.85 0 1
156.966 0 1
157.082 0 1
157.199 0 1
157.315 0 1
157.431 0 1
157.547 0 1
157.664 0 1
157.78 0 1
157.896 0 1
158.012 0 1
158.128 0 1
158.244 0 1
158.359 0 1
158.475 0 1
158.591 0 1
158.706 0 1
