
6.15755 0 1
6.2731 0 1
6.3887 0 1
6.50437 0 1
6.62009 0 1
6.73587 0 1
6.8517 0 1
6.96759 0 1
7.08353 0 1
7.19952 0 1
7.31557 0 1
7.43166 0 1
7.54781 0 1
7.664 0 1
7.78024 0 1
7.89653 0 1
8.01286 0 1
8.12924 0 1
8.24567 0 1
8.36213 0 1
8.47864 0 1
8.59519 0 1
8.71178 0 1
8.82841 0 1
8.94508 0 1
9.06179 0 1
9.17853 0 1
9.29531 0 1
9.41212 0 1
9.52897 0 1
9.64584 0 1
9.76276 0 1
9.8797 0 1
9.99667 0 1
10.1137 0 1
10.2307 0 1
10.3478 0 1
10.4648 0 1
10.5819 0 1
10.6991 0 1
10.8162 0 1
10.9334 0 1
11.0506 0 1
11.1678 0 1
11.285 0 1
11.4023 0 1
11.5196 0 1
11.6369 0 1
11.7542 0 1
11.8715 0 1
11.9888 0 1
12.1062 0 1
12.2235 0 1
12.3409 0 1
12.4582 0 1
12.5756 0 1
12.693 0 1
12.8104 0 1
12.9278 0 1
13.0452 0 1
13.1626 0 1
13.28 0 1
13.3974 0 1
13.5149 0 1
13.6323 0 1
13.7497 0 1
13.8671 0 1
13.9845 0 1
14.1019 0 1
14.2193 0 1
14.3367 0 1
14.4541 0 1
14.5714 0 1
14.6888 0 1
14.8062 0 1
14.9235 0 1
15.0408 7730 87.9204
15.1581 7953 89.1796
15.2755 8109 90.05
15.3927 8111 90.0611
15.51 8219 90.6587
15.6273 8086 89.9222
15.7445 7827 88.4703
15.8617 7862 88.6679
15.9789 7325 85.5862
16.0961 7347 85.7146
16.2132 7297 85.4225
16.3304 7444 86.2786
16.4475 7452 86.325
16.5646 7539 86.8274
16.6816 7338 85.6621
16.7986 7229 85.0235
16.9156 7238 85.0764
17.0326 7192 84.8057
17.1496 6853 82.7828
17.2665 6716 81.9512
17.3833 6712 81.9268
17.5002 6575 81.0864
17.617 6722 81.9878
17.7338 6886 82.9819
17.8505 7133 84.4571
17.9672 7303 85.4576
18.0839 7391 85.9709
18.2005 7700 87.7496
18.3171 8005 89.4707
18.4337 7919 88.9888
18.5502 8210 90.6091
18.6666 8300 91.1043
18.7831 8294 91.0714
18.8994 8112 90.0666
19.0158 8058 89.7664
19.1321 7520 86.7179
19.2483 7484 86.5101
19.3645 7102 84.2734
19.4806 6859 82.8191
19.5967 6651 81.5537
19.7128 6815 82.553
19.8288 6896 83.0422
19.9447 6158 78.4729
20.0606 0 1
20.1764 0 1
20.2922 0 1
20.4079 0 1
20.5236 0 1
20.6392 0 1
20.7548 0 1
20.8702 0 1
23.3078 0 1
23.4233 0 1
23.539 0 1
23.6547 0 1
23.7704 0 1
23.8862 0 1
24.0021 0 1
24.118 0 1
24.234 0 1
24.35 0 1
24.4661 6455 80.343
24.5822 6401 80.0062
24.6984 6364 79.7747
24.8146 6514 80.7094
24.9309 6862 82.8372
25.0472 7052 83.9762
25.1636 7372 85.8604
25.28 7266 85.2408
25.3965 7239 85.0823
25.513 7397 86.0058
25.6296 7349 85.7263
25.7462 7333 85.6329
25.8628 7105 84.2912
25.9795 7054 83.9881
26.0962 6828 82.6317
26.213 6573 81.074
26.3298 6565 81.0247
26.4466 6785 82.3711
26.5635 6855 82.7949
26.6804 7065 84.0536
26.7973 6944 83.3307
26.9143 7448 86.3018
27.0313 7120 84.3801
27.1483 7428 86.1858
27.2653 7509 86.6545
27.3824 7608 87.2238
27.4996 7623 87.3098
27.6167 7407 86.0639
27.7339 7294 85.4049
27.8511 6974 83.5105
27.9683 7024 83.8093
28.0855 6692 81.8046
28.2028 6605 81.2712
28.3201 6408 80.05
28.4374 6697 81.8352
28.5547 6789 82.3954
28.6721 6853 82.7828
28.7894 7038 83.8928
28.9068 7033 83.863
29.0242 7017 83.7675
29.1416 6858 82.813
29.259 6686 81.768
29.3764 6528 80.796
29.4939 6460 80.3741
29.6113 6275 79.2149
29.7288 6231 78.9367
29.8463 6094 78.0641
29.9638 6253 79.0759
30.0812 6488 80.5481
30.1987 6583 81.1357
30.3162 6654 81.5721
30.4337 6865 82.8553
30.5512 6904 83.0903
30.6687 7007 83.7078
30.7862 7320 85.557
30.9037 7200 84.8528
31.0212 7350 85.7321
31.1387 7311 85.5044
31.2562 7291 85.3874
31.3737 7218 84.9588
31.4912 7051 83.9702
31.6087 6646 81.523
31.7262 6476 80.4736
31.8436 6404 80.025
31.9611 6564 81.0185
32.0785 6528 80.796
32.1959 6703 81.8719
32.3134 6874 82.9096
32.4308 6841 82.7103
32.5482 6675 81.7007
32.6655 6669 81.6639
32.7829 6699 81.8474
32.9002 6594 81.2034
33.0176 6455 80.343
33.1349 6368 79.7997
33.2522 6134 78.3199
33.3694 6086 78.0128
33.4867 5993 77.4145
33.6039 6069 77.9038
33.7211 6297 79.3536
33.8383 6506 80.6598
33.9554 6491 80.5667
34.0725 6578 81.1049
34.1896 6842 82.7164
34.3067 6942 83.3187
34.4237 6901 83.0723
34.5407 7224 84.9941
34.6577 7050 83.9643
34.7746 7126 84.4156
34.8915 7033 83.863
35.0084 6860 82.8251
35.1252 6865 82.8553
35.242 6679 81.7251
35.3587 6529 80.8022
35.4755 6320 79.4984
35.5921 6178 78.6003
35.7088 6374 79.8373
35.8254 6400 80
35.9419 6613 81.3204
36.0584 6709 81.9085
36.1749 6612 81.3142
36.2913 6513 80.7032
36.4077 6433 80.206
36.524 6507 80.666
36.6403 6279 79.2401
36.7565 6080 77.9744
36.8727 6058 77.8332
36.9889 5811 76.2299
37.1049 5779 76.0197
37.221 0 1
37.3369 0 1
37.4529 0 1
37.5687 0 1
37.6845 0 1
37.8003 0 1
37.916 0 1
38.0316 0 1
38.1472 0 1
40.5851 0 1
40.7008 0 1
40.8164 0 1
40.9322 0 1
41.048 0 1
41.1639 0 1
41.2798 0 1
41.3958 0 1
41.5118 0 1
41.6279 0 1
41.744 5062 71.1477
41.8602 5392 73.4302
41.9765 5291 72.7393
42.0928 5156 71.8053
42.2091 5004 70.739
42.3255 5041 71
42.4419 4951 70.3633
42.5584 4952 70.3704
42.675 5120 71.5542
42.7915 5300 72.8011
42.9081 5392 73.4302
43.0248 5454 73.8512
43.1415 5473 73.9797
43.2582 5476 74
43.375 5518 74.2832
43.4918 5625 75
43.6087 5715 75.5976
43.7256 5539 74.4245
43.8425 5557 74.5453
43.9595 5319 72.9315
44.0765 5343 73.0958
44.1935 5130 71.624
44.3106 4870 69.7854
44.4277 4675 68.374
44.5448 4554 67.4833
44.6619 4619 67.9632
44.7791 4640 68.1175
44.8963 4843 69.5917
45.0136 4807 69.3325
45.1308 4439 66.6258
45.2481 4470 66.8581
45.3654 4398 66.3174
45.4827 4456 66.7533
45.6001 4320 65.7267
45.7174 4098 64.0156
45.8348 4085 63.914
45.9522 3958 62.9126
46.0697 3903 62.474
46.1871 3991 63.1744
46.3046 3919 62.6019
46.422 4184 64.6838
46.5395 4116 64.1561
46.657 4260 65.2687
46.7745 4335 65.8407
46.892 4291 65.5057
47.0096 4222 64.9769
47.1271 4440 66.6333
47.2446 4313 65.6734
47.3622 4395 66.2948
47.4797 4305 65.6125
47.5973 4047 63.616
47.7149 4022 63.4192
47.8324 3976 63.0555
47.95 3808 61.709
48.0675 3639 60.3241
48.1851 3586 59.8832
48.3027 3731 61.0819
48.4202 3923 62.6339
48.5378 3887 62.3458
48.6554 3987 63.1427
48.7729 3881 62.2977
48.8904 3882 62.3057
49.008 3780 61.4817
49.1255 3704 60.8605
49.243 3540 59.4979
49.3605 3652 60.4318
49.478 3630 60.2495
49.5955 3619 60.1581
49.713 3570 59.7495
49.8304 3851 62.0564
49.9479 3946 62.8172
50.0653 4101 64.0391
50.1827 4088 63.9375
50.3001 4268 65.3299
50.4175 4344 65.909
50.5348 4404 66.3626
50.6521 4626 68.0147
50.7694 4670 68.3374
50.8867 4822 69.4406
51.004 4923 70.1641
51.1212 4644 68.1469
51.2384 4625 68.0074
51.3556 4692 68.4982
51.4727 4648 68.1762
51.5899 4415 66.4455
51.707 4448 66.6933
51.824 4841 69.5773
51.9411 5154 71.7914
52.0581 5234 72.3464
52.175 5184 72
52.2919 5363 73.2325
52.4088 5293 72.753
52.5257 5351 73.1505
52.6425 5464 73.9189
52.7593 5345 73.1095
52.876 5362 73.2257
52.9927 5120 71.5542
53.1094 5268 72.581
53.226 5281 72.6705
53.3426 5391 73.4234
53.4591 5457 73.8715
53.5756 5961 77.2075
53.692 5947 77.1168
53.8084 6296 79.3473
53.9248 6213 78.8226
54.0411 6360 79.7496
54.1573 6338 79.6116
54.2735 0 1
54.3896 0 1
54.5057 0 1
54.6217 0 1
54.7377 0 1
54.8537 0 1
54.9695 0 1
55.0853 0 1
55.2011 0 1
55.3168 0 1
55.4324 0 1
57.824 0 1
57.9396 0 1
58.0553 0 1
58.1711 0 1
58.2869 0 1
58.4028 0 1
58.5187 0 1
58.6347 0 1
58.7508 0 1
58.8669 0 1
58.983 7323 85.5745
59.0992 7803 88.3346
59.2155 7945 89.1347
59.3318 8197 90.5373
59.4482 7977 89.3141
59.5646 8074 89.8554
59.681 8136 90.1998
59.7975 8072 89.8443
59.9141 8001 89.4483
60.0306 7884 88.7919
60.1473 7573 87.023
60.2639 7256 85.1822
60.3807 7188 84.7821
60.4974 7038 83.8928
60.6142 7059 84.0179
60.731 7360 85.7904
60.8479 7522 86.7295
60.9648 7407 86.0639
61.0818 7364 85.8138
61.1987 7618 87.2812
61.3158 7379 85.9011
61.4328 7349 85.7263
61.5499 7105 84.2912
61.667 6819 82.5772
61.7841 6815 82.553
61.9013 6620 81.3634
62.0185 6753 82.1766
62.1357 6713 81.9329
62.253 7008 83.7138
62.3702 7040 83.9047
62.4875 7278 85.3112
62.6049 7390 85.9651
62.7222 7383 85.9244
62.8396 7502 86.6141
62.9569 7454 86.3366
63.0743 7410 86.0814
63.1918 7317 85.5395
63.3092 7297 85.4225
63.4267 7157 84.5991
63.5441 7178 84.7231
63.6616 7169 84.6699
63.7791 6806 82.4985
63.8966 6556 80.9691
64.0142 6321 79.5047
64.1317 6458 80.3617
64.2492 6593 81.1973
64.3668 6869 82.8794
64.4843 6925 83.2166
64.6019 6981 83.5524
64.7195 6798 82.45
64.837 6880 82.9458
64.9546 6750 82.1584
65.0722 6766 82.2557
65.1898 6502 80.635
65.3074 6499 80.6164
65.4249 6356 79.7245
65.5425 6317 79.4796
65.6601 6273 79.2023
65.7777 6501 80.6288
65.8952 6589 81.1727
66.0128 6750 82.1584
66.1304 6911 83.1324
66.2479 6992 83.6182
66.3655 6998 83.654
66.483 7077 84.1249
66.6005 7366 85.8254
66.718 7154 84.5813
66.8355 7259 85.1998
66.953 7264 85.2291
67.0705 7038 83.8928
67.1879 7148 84.5458
67.3054 7072 84.0952
67.4228 6870 82.8855
67.5402 6517 80.7279
67.6576 6388 79.925
67.7749 6386 79.9125
67.8923 6784 82.365
68.0096 7052 83.9762
68.1269 7305 85.4693
68.2442 7201 84.8587
68.3614 7233 85.047
68.4787 7189 84.788
68.5958 7136 84.4748
68.713 7108 84.309
68.8302 7040 83.9047
68.9473 6932 83.2586
69.0643 6590 81.1788
69.1814 6500 80.6226
69.2984 6604 81.265
69.4154 6867 82.8674
69.5323 7061 84.0298
69.6492 7241 85.0941
69.7661 7426 86.1742
69.8829 7462 86.3829
69.9997 7639 87.4014
70.1165 7661 87.5271
70.2332 7569 87
70.3499 7795 88.2893
70.4665 7947 89.1459
70.5831 8076 89.8666
70.6996 7892 88.8369
70.8161 8056 89.7552
70.9326 7792 88.2723
71.049 7653 87.4814
71.1653 7324 85.5804
71.2817 6971 83.4925
71.3979 6593 81.1973
71.5141 6729 82.0305
71.6303 6592 81.1911
71.7464 6762 82.2314
71.8624 0 1
71.9784 0 1
72.0944 0 1
72.2102 0 1
72.3261 0 1
72.4418 0 1
72.5575 0 1
72.6732 0 1
75.1054 0 1
75.2209 0 1
75.3365 0 1
75.4521 0 1
75.5678 0 1
75.6835 0 1
75.7993 0 1
75.9151 0 1
76.031 0 1
76.147 7529 86.7698
76.263 8051 89.7274
76.3791 7901 88.8876
76.4952 7478 86.4754
76.6113 7255 85.1763
76.7276 7344 85.6971
76.8438 7660 87.5214
76.9601 7874 88.7356
77.0765 8285 91.022
77.1929 8230 90.7193
77.3093 8257 90.868
77.4258 7980 89.3308
77.5423 7981 89.3364
77.6589 8138 90.2109
77.7755 7851 88.6059
77.8921 7539 86.8274
78.0088 7354 85.7555
78.1256 7230 85.0294
78.2423 7286 85.3581
78.3591 7105 84.2912
78.4759 7429 86.1916
78.5928 7586 87.0976
78.7097 7802 88.3289
78.8266 7671 87.5842
78.9436 8262 90.8955
79.0606 8139 90.2164
79.1776 8151 90.2829
79.2946 8468 92.0217
79.4117 8230 90.7193
79.5288 8159 90.3272
79.6459 8135 90.1942
79.7631 8002 89.4539
79.8802 8124 90.1332
79.9974 8026 89.5879
80.1147 7726 87.8977
80.2319 7177 84.7172
80.3491 7220 84.9706
80.4664 7496 86.5794
80.5837 7639 87.4014
80.701 8042 89.6772
80.8183 7964 89.2412
80.9357 7807 88.3572
81.053 7755 88.0625
81.1704 7759 88.0852
81.2877 7799 88.3119
81.4051 7823 88.4477
81.5225 7469 86.4234
81.6399 7077 84.1249
81.7573 7159 84.6109
81.8747 6738 82.0853
81.9922 6575 81.0864
82.1096 6901 83.0723
82.227 7174 84.6995
82.3444 7422 86.151
82.4619 7693 87.7097
82.5793 7699 87.7439
82.6967 7591 87.1263
82.8142 8019 89.5489
82.9316 8076 89.8666
83.049 8001 89.4483
83.1664 8012 89.5098
83.2838 8036 89.6437
83.4012 8109 90.05
83.5186 7899 88.8763
83.636 7779 88.1986
83.7534 7434 86.2206
83.8708 7115 84.3505
83.9881 7106 84.2971
84.1055 7012 83.7377
84.2228 7391 85.9709
84.3401 7651 87.47
84.4575 7861 88.6623
84.5747 7725 87.892
84.692 7612 87.2468
84.8093 7879 88.7637
84.9265 8001 89.4483
85.0437 7856 88.6341
85.1609 7391 85.9709
85.2781 7051 83.9702
85.3952 7214 84.9353
85.5123 7023 83.8033
85.6294 7160 84.6168
85.7465 7358 85.7788
85.8636 7626 87.327
85.9806 7784 88.227
86.0976 7948 89.1516
86.2145 8289 91.0439
86.3315 8403 91.6679
86.4484 8335 91.2962
86.5652 8652 93.0161
86.682 8721 93.3863
86.7988 8765 93.6216
86.9156 8625 92.8709
87.0323 8532 92.3688
87.149 8546 92.4446
87.2657 8464 92
87.3823 7920 88.9944
87.4988 7686 87.6698
87.6154 7507 86.6429
87.7318 7742 87.9886
87.8483 7826 88.4647
87.9647 8373 91.5041
88.081 8305 91.1318
88.1973 8256 90.8625
88.3136 8325 91.2414
88.4298 8395 91.6242
88.546 8449 91.9184
88.6621 8154 90.2995
88.7781 7771 88.1533
88.8942 0 1
89.0101 0 1
89.126 0 1
89.2419 0 1
89.3577 0 1
89.4734 0 1
89.5891 0 1
89.7047 0 1
89.8203 0 1
89.9358 0 1
92.3269 0 1
92.4424 0 1
92.558 0 1
92.6736 0 1
92.7893 0 1
92.905 0 1
93.0208 0 1
93.1366 0 1
93.2525 0 1
93.3685 0 1
93.4845 0 1
93.6005 7889 88.82
93.7167 7963 89.2356
93.8328 7990 89.3868
93.949 7933 89.0674
94.0653 7660 87.5214
94.1816 7359 85.7846
94.2979 7136 84.4748
94.4143 7075 84.113
94.5307 7027 83.8272
94.6472 7104 84.2852
94.7637 7483 86.5043
94.8803 7646 87.4414
94.9969 7741 87.983
95.1135 8045 89.6939
95.2302 8008 89.4874
95.3469 8207 90.5925
95.4637 8061 89.7831
95.5805 8399 91.6461
95.6973 8300 91.1043
95.8142 8390 91.5969
95.9311 8396 91.6297
96.048 8260 90.8845
96.1649 8227 90.7028
96.2819 8284 91.0165
96.3989 7899 88.8763
96.516 7396 86
96.633 7400 86.0233
96.7501 7342 85.6855
96.8673 7658 87.51
96.9844 7677 87.6185
97.1016 7788 88.2496
97.2188 7914 88.9607
97.336 8063 89.7942
97.4532 8099 89.9944
97.5704 8169 90.3825
97.6877 8076 89.8666
97.805 7723 87.8806
97.9223 7407 86.0639
98.0396 7093 84.22
98.1569 6983 83.5643
98.2743 7062 84.0357
98.3916 7201 84.8587
98.509 7390 85.9651
98.6264 7814 88.3968
98.7438 7720 87.8635
98.8612 7899 88.8763
98.9786 8033 89.627
99.096 7904 88.9044
99.2134 8245 90.802
99.3308 8031 89.6158
99.4482 8118 90.0999
99.5656 8339 91.3181
99.6831 7963 89.2356
99.8005 7796 88.295
99.9179 7775 88.176
100.035 7638 87.3957
100.153 7139 84.4926
100.27 6874 82.9096
100.388 7082 84.1546
100.505 7322 85.5687
100.622 7547 86.8735
100.74 7681 87.6413
100.857 7861 88.6623
100.975 7688 87.6812
101.092 7820 88.4308
101.209 8168 90.377
101.327 8021 89.56
101.444 7487 86.5275
101.561 7572 87.0172
101.679 7155 84.5872
101.796 7061 84.0298
101.913 7116 84.3564
102.03 7274 85.2877
102.148 7728 87.909
102.265 7430 86.1974
102.382 8551 92.4716
102.499 8278 90.9835
102.616 8542 92.4229
102.733 8446 91.9021
102.851 8569 92.5689
102.968 8801 93.8136
103.085 8536 92.3905
103.202 8503 92.2117
103.319 8386 91.5751
103.436 8253 90.846
103.552 8348 91.3674
103.669 7869 88.7074
103.786 7663 87.5386
103.903 7701 87.7553
104.02 7942 89.1179
104.137 8165 90.3604
104.253 8177 90.4268
104.37 8296 91.0824
104.487 8518 92.293
104.603 8574 92.5959
104.72 8675 93.1397
104.836 8625 92.8709
104.953 8111 90.0611
105.069 7809 88.3685
105.186 7569 87
105.302 7434 86.2206
105.418 7407 86.0639
105.535 7793 88.278
105.651 7950 89.1628
105.767 8247 90.813
105.883 8495 92.1683
105.999 8544 92.4338
106.115 0 1
106.231 0 1
106.347 0 1
106.463 0 1
106.579 0 1
106.694 0 1
106.81 0 1
106.926 0 1
107.041 0 1
107.157 0 1
109.576 0 1
109.692 0 1
109.807 0 1
109.923 0 1
110.039 0 1
110.155 0 1
110.27 0 1
110.386 0 1
110.502 0 1
110.618 6813 82.5409
110.735 7410 86.0814
110.851 7547 86.8735
110.967 7893 88.8426
111.083 7716 87.8408
111.199 8048 89.7106
111.316 7913 88.955
111.432 8174 90.4102
111.549 7871 88.7187
111.665 7855 88.6284
111.782 7918 88.9831
111.898 7667 87.5614
112.015 7489 86.539
112.132 7321 85.5628
112.248 6988 83.5943
112.365 6796 82.4379
112.482 6726 82.0122
112.599 6801 82.4682
112.716 6904 83.0903
112.832 7118 84.3682
112.949 7050 83.9643
113.066 7070 84.0833
113.183 7240 85.0882
113.3 7322 85.5687
113.417 7086 84.1784
113.534 6917 83.1685
113.652 6662 81.6211
113.769 6270 79.1833
113.886 5946 77.1103
114.003 5787 76.0723
114.12 6067 77.8909
114.238 6369 79.806
114.355 6666 81.6456
114.472 6866 82.8613
114.589 6659 81.6027
114.707 6725 82.0061
114.824 6781 82.3468
114.942 6701 81.8596
115.059 6631 81.431
115.176 6745 82.1279
115.294 6546 80.9074
115.411 6508 80.6722
115.529 6155 78.4538
115.646 6118 78.2176
115.764 5975 77.2981
115.881 5680 75.3658
115.999 5410 73.5527
116.116 5343 73.0958
116.234 5355 73.1779
116.351 5703 75.5182
116.469 5674 75.326
116.586 5825 76.3217
116.704 5736 75.7364
116.821 5796 76.1315
116.939 5864 76.5768
117.056 6023 77.608
117.174 5666 75.2728
117.291 5275 72.6292
117.409 5092 71.3583
117.526 4889 69.9214
117.644 4947 70.3349
117.761 5173 71.9236
117.879 5443 73.7767
117.996 5490 74.0945
118.114 5741 75.7694
118.231 5970 77.2658
118.349 5720 75.6307
118.466 5712 75.5778
118.584 5989 77.3886
118.701 5995 77.4274
118.819 5863 76.5702
118.936 5882 76.6942
119.053 5995 77.4274
119.171 5576 74.6726
119.288 5706 75.5381
119.405 5480 74.027
119.523 5264 72.5534
119.64 5272 72.6085
119.757 5476 74
119.875 5405 73.5187
119.992 5595 74.7997
120.109 5686 75.4056
120.226 5755 75.8617
120.343 5896 76.7854
120.46 6034 77.6788
120.578 6284 79.2717
120.695 6403 80.0187
120.812 6198 78.7274
120.929 5956 77.1751
121.046 5837 76.4003
121.163 5567 74.6123
121.279 5480 74.027
121.396 5522 74.3102
121.513 5852 76.4984
121.63 6261 79.1265
121.747 6505 80.6536
121.863 6653 81.5659
121.98 6715 81.9451
122.097 7021 83.7914
122.213 7017 83.7675
122.33 7142 84.5104
122.446 7151 84.5636
122.563 7076 84.119
122.679 6850 82.7647
122.795 6868 82.8734
122.912 6791 82.4075
123.028 6696 81.8291
123.144 6442 80.2621
123.26 6220 78.867
123.377 0 1
123.493 0 1
123.609 0 1
123.725 0 1
123.84 0 1
123.956 0 1
124.072 0 1
124.188 0 1
124.303 0 1
124.419 0 1
126.852 0 1
126.968 0 1
127.083 0 1
127.199 0 1
127.315 0 1
127.431 0 1
127.547 0 1
127.663 0 1
127.779 0 1
127.895 0 1
128.011 0 1
128.127 0 1
128.243 0 1
128.359 7908 88.9269
128.476 7858 88.6454
128.592 7576 87.0402
128.708 7455 86.3423
128.825 7082 84.1546
128.941 7335 85.6446
129.058 7616 87.2697
129.174 7634 87.3728
129.291 7989 89.3812
129.408 8052 89.7329
129.524 8053 89.7385
129.641 8124 90.1332
129.758 8176 90.4212
129.875 7970 89.2749
129.992 7450 86.3134
130.108 7362 85.8021
130.225 7142 84.5104
130.342 6853 82.7828
130.459 6871 82.8915
130.576 7246 85.1234
130.693 7541 86.8389
130.81 7785 88.2326
130.928 7707 87.7895
131.045 8025 89.5824
131.162 8109 90.05
131.279 8145 90.2497
131.396 8190 90.4986
131.513 8035 89.6382
131.631 7856 88.6341
131.748 7789 88.2553
131.865 8003 89.4595
131.983 7648 87.4528
132.1 7212 84.9235
132.217 7071 84.0892
132.335 6874 82.9096
132.452 6739 82.0914
132.57 7127 84.4216
132.687 7161 84.6227
132.804 7698 87.7382
132.922 7572 87.0172
133.039 7656 87.4986
133.157 7759 88.0852
133.274 7658 87.51
133.392 7827 88.4703
133.509 7535 86.8044
133.627 7170 84.6759
133.744 6893 83.0241
133.862 6686 81.768
133.979 6503 80.6412
134.097 6803 82.4803
134.214 7071 84.0892
134.332 7249 85.1411
134.449 7568 86.9943
134.567 7513 86.6776
134.684 7525 86.7468
134.802 7675 87.6071
134.919 7442 86.267
135.037 7459 86.3655
135.154 7173 84.6936
135.272 7235 85.0588
135.389 6881 82.9518
135.507 6618 81.3511
135.624 6552 80.9444
135.742 6325 79.5299
135.859 6106 78.1409
135.977 5896 76.7854
136.094 5981 77.3369
136.211 6030 77.6531
136.329 6204 78.7655
136.446 6386 79.9125
136.564 6163 78.5048
136.681 6350 79.6869
136.798 6474 80.4612
136.915 6486 80.5357
137.033 6318 79.4858
137.15 6106 78.1409
137.267 5908 76.8635
137.384 5768 75.9474
137.502 5436 73.7292
137.619 5543 74.4513
137.736 5809 76.2168
137.853 5988 77.3822
137.97 6227 78.9113
138.087 6522 80.7589
138.204 6743 82.1158
138.321 6795 82.4318
138.438 6895 83.0361
138.555 6940 83.3067
138.672 7065 84.0536
138.788 7116 84.3564
138.905 7020 83.7854
139.022 6930 83.2466
139.139 6813 82.5409
139.255 6776 82.3165
139.372 6676 81.7068
139.488 6645 81.5169
139.605 6549 80.9259
139.721 6563 81.0123
139.838 6752 82.1706
139.954 7070 84.0833
140.071 7110 84.3208
140.187 7442 86.267
140.303 7444 86.2786
140.419 7828 88.476
140.535 7708 87.7952
140.652 7704 87.7724
140.768 0 1
140.884 0 1
141 0 1
141.115 0 1
141.231 0 1
141.347 0 1
141.463 0 1
141.578 0 1
141.694 0 1
144.104 0 1
144.219 0 1
144.335 0 1
144.45 0 1
144.566 0 1
144.682 0 1
144.798 0 1
144.914 0 1
145.03 0 1
145.146 11581 107.615
145.262 12486 111.741
145.378 13361 115.59
145.494 13708 117.081
145.61 14374 119.892
145.726 14869 121.939
145.842 15251 123.495
145.959 14807 121.684
146.075 14822 121.746
146.192 14638 120.988
146.308 14588 120.781
146.425 14977 122.381
146.541 16007 126.519
146.658 17332 131.651
146.774 18731 136.861
146.891 19569 139.889
147.008 20142 141.923
147.125 21269 145.839
147.241 21481 146.564
147.358 21989 148.287
147.475 22561 150.203
147.592 22014 148.371
147.709 21767 147.536
147.826 21388 146.246
147.943 21631 147.075
148.06 20790 144.187
148.177 20223 142.208
148.294 19734 140.478
148.411 19827 140.808
148.528 19972 141.322
148.645 20419 142.895
148.762 20773 144.128
148.88 21651 147.143
148.997 22920 151.394
149.114 20747 144.038
149.231 22144 148.809
149.349 21406 146.308
149.466 21586 146.922
149.583 20325 142.566
149.701 19241 138.712
149.818 18245 135.074
149.935 17535 132.42
150.053 17561 132.518
150.17 18141 134.689
150.287 19141 138.351
150.405 19448 139.456
150.522 20227 142.222
150.64 20579 143.454
150.757 21043 145.062
150.875 21160 145.465
150.992 21183 145.544
151.11 21529 146.728
151.227 21004 144.928
151.344 20614 143.576
151.462 20691 143.844
151.579 20380 142.759
151.697 19940 141.209
151.814 19159 138.416
151.932 19118 138.268
152.049 19292 138.896
152.167 19885 141.014
152.284 20929 144.669
152.402 21699 147.306
152.519 22047 148.482
152.636 22854 151.175
152.754 23253 152.489
152.871 23344 152.787
152.989 23350 152.807
153.106 22901 151.331
153.223 21781 147.584
153.341 20803 144.232
153.458 19902 141.074
153.575 19097 138.192
153.693 19500 139.642
153.81 20471 143.077
153.927 21544 146.779
154.044 22319 149.395
154.162 23104 152
154.279 23632 153.727
154.396 24513 156.566
154.513 25164 158.632
154.63 25342 159.192
154.747 25230 158.84
154.864 25656 160.175
154.981 24881 157.737
155.098 24806 157.499
155.215 24796 157.467
155.332 24013 154.961
155.449 23808 154.298
155.566 23642 153.76
155.683 23958 154.784
155.8 24365 156.093
155.917 25478 159.618
156.033 26143 161.688
156.15 0 1
156.267 0 1
156.383 0 1
156.5 0 1
156.617 0 1
156.733 0 1
156.85 0 1
156.966 0 1
157.082 0 1
157.199 0 1
157.315 0 1
157.431 0 1
157.547 0 1
157.664 0 1
157.78 0 1
157.896 0 1
158.012 0 1
158.128 0 1
158.244 0 1
158.359 0 1
158.475 0 1
158.591 0 1
158.706 0 1
