
6.15755 0 1
6.2731 0 1
6.3887 0 1
6.50437 0 1
6.62009 0 1
6.73587 0 1
6.8517 0 1
6.96759 0 1
7.08353 0 1
7.19952 0 1
7.31557 0 1
7.43166 0 1
7.54781 0 1
7.664 0 1
7.78024 0 1
7.89653 0 1
8.01286 0 1
8.12924 0 1
8.24567 0 1
8.36213 0 1
8.47864 0 1
8.59519 0 1
8.71178 0 1
8.82841 0 1
8.94508 0 1
9.06179 0 1
9.17853 0 1
9.29531 0 1
9.41212 0 1
9.52897 0 1
9.64584 0 1
9.76276 0 1
9.8797 0 1
9.99667 0 1
10.1137 0 1
10.2307 0 1
10.3478 0 1
10.4648 0 1
10.5819 0 1
10.6991 0 1
10.8162 0 1
10.9334 0 1
11.0506 0 1
11.1678 0 1
11.285 0 1
11.4023 0 1
11.5196 0 1
11.6369 0 1
11.7542 0 1
11.8715 0 1
11.9888 0 1
12.1062 0 1
12.2235 0 1
12.3409 0 1
12.4582 0 1
12.5756 0 1
12.693 0 1
12.8104 0 1
12.9278 0 1
13.0452 0 1
13.1626 0 1
13.28 0 1
13.3974 0 1
13.5149 0 1
13.6323 0 1
13.7497 0 1
13.8671 0 1
13.9845 0 1
14.1019 0 1
14.2193 0 1
14.3367 0 1
14.4541 0 1
14.5714 0 1
14.6888 0 1
14.8062 0 1
14.9235 0 1
15.0408 0 0
15.1581 0 0
15.2755 0 0
15.3927 0 0
15.51 0 0
15.6273 0 0
15.7445 0 0
15.8617 0 0
15.9789 0 0
16.0961 0 0
16.2132 0 0
16.3304 0 0
16.4475 0 0
16.5646 0 0
16.6816 0 0
16.7986 0 0
16.9156 0 0
17.0326 0 0
17.1496 0 0
17.2665 0 0
17.3833 0 0
17.5002 0 0
17.617 0 0
17.7338 0 0
17.8505 0 0
17.9672 0 0
18.0839 0 0
18.2005 0 0
18.3171 0 0
18.4337 0 0
18.5502 0 0
18.6666 0 0
18.7831 0 0
18.8994 0 0
19.0158 0 0
19.1321 0 0
19.2483 0 0
19.3645 0 0
19.4806 0 0
19.5967 0 0
19.7128 0 0
19.8288 0 0
19.9447 0 0
20.0606 0 1
20.1764 0 1
20.2922 0 1
20.4079 0 1
20.5236 0 1
20.6392 0 1
20.7548 0 1
20.8702 0 1
23.3078 0 1
23.4233 0 1
23.539 0 1
23.6547 0 1
23.7704 0 1
23.8862 0 1
24.0021 0 1
24.118 0 1
24.234 0 1
24.35 0 1
24.4661 4740 68.8477
24.5822 5265 72.5603
24.6984 5668 75.2861
24.8146 6020 77.5887
24.9309 6659 81.6027
25.0472 7043 83.9226
25.1636 7660 87.5214
25.28 8001 89.4483
25.3965 8648 92.9946
25.513 8964 94.6784
25.6296 9383 96.8659
25.7462 9723 98.6053
25.8628 9871 99.3529
25.9795 9829 99.1413
26.0962 9905 99.5239
26.213 9749 98.737
26.3298 9536 97.6524
26.4466 9394 96.9226
26.5635 8775 93.675
26.6804 8768 93.6376
26.7973 8704 93.2952
26.9143 8388 91.586
27.0313 9114 95.4673
27.1483 9196 95.8958
27.2653 9506 97.4987
27.3824 9323 96.5557
27.4996 9314 96.5091
27.6167 9257 96.2133
27.7339 9096 95.373
27.8511 9004 94.8894
27.9683 8768 93.6376
28.0855 8636 92.9301
28.2028 8299 91.0988
28.3201 8123 90.1277
28.4374 8273 90.956
28.5547 8002 89.4539
28.6721 8309 91.1537
28.7894 8357 91.4166
28.9068 8423 91.7769
29.0242 9097 95.3782
29.1416 9225 96.0469
29.259 9675 98.3616
29.3764 9841 99.2018
29.4939 9885 99.4233
29.6113 9973 99.8649
29.7288 9800 98.9949
29.8463 9596 97.9592
29.9638 9438 97.1494
30.0812 8857 94.1116
30.1987 8468 92.0217
30.3162 8193 90.5152
30.4337 8381 91.5478
30.5512 8533 92.3742
30.6687 8750 93.5414
30.7862 9068 95.226
30.9037 9236 96.1041
31.0212 9465 97.2882
31.1387 9241 96.1301
31.2562 9089 95.3362
31.3737 9039 95.0737
31.4912 8703 93.2899
31.6087 8646 92.9839
31.7262 8547 92.45
31.8436 8484 92.1086
31.9611 8261 90.89
32.0785 8067 89.8165
32.1959 8152 90.2884
32.3134 8293 91.0659
32.4308 8396 91.6297
32.5482 8677 93.1504
32.6655 9032 95.0368
32.7829 9348 96.6851
32.9002 9704 98.5089
33.0176 9657 98.27
33.1349 9520 97.5705
33.2522 9645 98.209
33.3694 9548 97.7139
33.4867 9791 98.9495
33.6039 9491 97.4218
33.7211 9002 94.8789
33.8383 8676 93.145
33.9554 8293 91.0659
34.0725 7916 88.9719
34.1896 8016 89.5321
34.3067 8238 90.7634
34.4237 8458 91.9674
34.5407 8666 93.0914
34.6577 9123 95.5144
34.7746 8868 94.1701
34.8915 9033 95.0421
35.0084 8835 93.9947
35.1252 8806 93.8403
35.242 8531 92.3634
35.3587 8462 91.9891
35.4755 8215 90.6366
35.5921 8219 90.6587
35.7088 7833 88.5042
35.8254 7786 88.2383
35.9419 7671 87.5842
36.0584 7687 87.6755
36.1749 7541 86.8389
36.2913 7586 87.0976
36.4077 7530 86.7756
36.524 7429 86.1916
36.6403 7322 85.5687
36.7565 7203 84.8705
36.8727 6882 82.9578
36.9889 6555 80.963
37.1049 6221 78.8733
37.221 0 1
37.3369 0 1
37.4529 0 1
37.5687 0 1
37.6845 0 1
37.8003 0 1
37.916 0 1
38.0316 0 1
38.1472 0 1
40.5851 0 1
40.7008 0 1
40.8164 0 1
40.9322 0 1
41.048 0 1
41.1639 0 1
41.2798 0 1
41.3958 0 1
41.5118 0 1
41.6279 0 1
41.744 5325 72.9726
41.8602 5820 76.2889
41.9765 6117 78.2113
42.0928 6504 80.6474
42.2091 6677 81.7129
42.3255 6697 81.8352
42.4419 6615 81.3327
42.5584 6472 80.4487
42.675 6352 79.6994
42.7915 6402 80.0125
42.9081 6788 82.3893
43.0248 7013 83.7437
43.1415 7225 85
43.2582 7606 87.2124
43.375 7818 88.4195
43.4918 7807 88.3572
43.6087 7669 87.5728
43.7256 7762 88.1022
43.8425 7626 87.327
43.9595 7480 86.487
44.0765 7305 85.4693
44.1935 7244 85.1117
44.3106 7110 84.3208
44.4277 6703 81.8719
44.5448 6408 80.05
44.6619 6774 82.3043
44.7791 6759 82.2131
44.8963 6938 83.2947
45.0136 7227 85.0118
45.1308 7476 86.4639
45.2481 7717 87.8465
45.3654 7829 88.4816
45.4827 7899 88.8763
45.6001 8067 89.8165
45.7174 8050 89.7218
45.8348 7952 89.174
45.9522 7699 87.7439
46.0697 7557 86.931
46.1871 7050 83.9643
46.3046 6773 82.2982
46.422 6508 80.6722
46.5395 6876 82.9216
46.657 7177 84.7172
46.7745 7548 86.8792
46.892 7658 87.51
47.0096 7953 89.1796
47.1271 8024 89.5768
47.2446 8063 89.7942
47.3622 7903 88.8988
47.4797 7821 88.4364
47.5973 7805 88.3459
47.7149 7538 86.8217
47.8324 7386 85.9418
47.95 7208 84.8999
48.0675 6993 83.6242
48.1851 6792 82.4136
48.3027 6754 82.1827
48.4202 6777 82.3225
48.5378 7116 84.3564
48.6554 7423 86.1568
48.7729 7634 87.3728
48.8904 7856 88.6341
49.008 8221 90.6697
49.1255 8000 89.4427
49.243 8157 90.3161
49.3605 7928 89.0393
49.478 7909 88.9326
49.5955 7300 85.44
49.713 6919 83.1805
49.8304 6385 79.9062
49.9479 6111 78.1729
50.0653 6090 78.0385
50.1827 6716 81.9512
50.3001 7045 83.9345
50.4175 7302 85.4517
50.5348 7346 85.7088
50.6521 7540 86.8332
50.7694 7678 87.6242
50.8867 7761 88.0965
51.004 7514 86.6833
51.1212 7733 87.9375
51.2384 7357 85.773
51.3556 7087 84.1843
51.4727 7107 84.303
51.5899 6920 83.1865
51.707 6707 81.8963
51.824 6395 79.9687
51.9411 6632 81.4371
52.0581 6871 82.8915
52.175 7192 84.8057
52.2919 7566 86.9828
52.4088 7626 87.327
52.5257 7866 88.6905
52.6425 8004 89.4651
52.7593 7786 88.2383
52.876 7751 88.0398
52.9927 7779 88.1986
53.1094 7650 87.4643
53.226 7274 85.2877
53.3426 6594 81.2034
53.4591 6151 78.4283
53.5756 5770 75.9605
53.692 5331 73.0137
53.8084 5132 71.638
53.9248 5150 71.7635
54.0411 4910 70.0714
54.1573 4746 68.8912
54.2735 0 1
54.3896 0 1
54.5057 0 1
54.6217 0 1
54.7377 0 1
54.8537 0 1
54.9695 0 1
55.0853 0 1
55.2011 0 1
55.3168 0 1
55.4324 0 1
57.824 0 1
57.9396 0 1
58.0553 0 1
58.1711 0 1
58.2869 0 1
58.4028 0 1
58.5187 0 1
58.6347 0 1
58.7508 0 1
58.8669 0 1
58.983 6180 78.613
59.0992 6867 82.8674
59.2155 7450 86.3134
59.3318 7926 89.0281
59.4482 8371 91.4932
59.5646 8690 93.2202
59.681 8674 93.1343
59.7975 8741 93.4933
59.9141 8877 94.2178
60.0306 8583 92.6445
60.1473 8520 92.3038
60.2639 8247 90.813
60.3807 8155 90.305
60.4974 8326 91.2469
60.6142 8542 92.4229
60.731 8589 92.6769
60.8479 9398 96.9433
60.9648 9471 97.3191
61.0818 9495 97.4423
61.1987 9787 98.9293
61.3158 9521 97.5756
61.4328 9491 97.4218
61.5499 9213 95.9844
61.667 8887 94.2709
61.7841 8484 92.1086
61.9013 7932 89.0618
62.0185 7657 87.5043
62.1357 7574 87.0287
62.253 7884 88.7919
62.3702 8479 92.0815
62.4875 8656 93.0376
62.6049 9192 95.8749
62.7222 9427 97.0927
62.8396 9203 95.9323
62.9569 9419 97.0515
63.0743 9298 96.4261
63.1918 9223 96.0365
63.3092 9070 95.2365
63.4267 8905 94.3663
63.5441 8695 93.247
63.6616 8444 91.8912
63.7791 7873 88.7299
63.8966 7910 88.9382
64.0142 8018 89.5433
64.1317 8207 90.5925
64.2492 8645 92.9785
64.3668 8891 94.2921
64.4843 9235 96.0989
64.6019 9535 97.6473
64.7195 9428 97.0979
64.837 9498 97.4577
64.9546 9384 96.871
65.0722 9444 97.1802
65.1898 9081 95.2943
65.3074 8910 94.3928
65.4249 8171 90.3936
65.5425 7575 87.0345
65.6601 7341 85.6796
65.7777 7140 84.4985
65.8952 7593 87.1378
66.0128 7963 89.2356
66.1304 8314 91.1811
66.2479 8714 93.3488
66.3655 9148 95.6452
66.483 9057 95.1683
66.6005 9118 95.4882
66.718 9258 96.2185
66.8355 8992 94.8262
66.953 8902 94.3504
67.0705 8867 94.1647
67.1879 8516 92.2822
67.3054 8238 90.7634
67.4228 8060 89.7775
67.5402 7785 88.2326
67.6576 7652 87.4757
67.7749 7723 87.8806
67.8923 7961 89.2244
68.0096 8245 90.802
68.1269 8646 92.9839
68.2442 8976 94.7418
68.3614 8939 94.5463
68.4787 9034 95.0474
68.5958 9232 96.0833
68.713 9020 94.9737
68.8302 8907 94.3769
68.9473 8663 93.0752
69.0643 8427 91.7987
69.1814 7716 87.8408
69.2984 7197 84.8351
69.4154 6761 82.2253
69.5323 6953 83.3847
69.6492 7271 85.2702
69.7661 7891 88.8313
69.8829 7846 88.5776
69.9997 7885 88.7975
70.1165 7813 88.3912
70.2332 7646 87.4414
70.3499 7362 85.8021
70.4665 7005 83.6959
70.5831 6616 81.3388
70.6996 6178 78.6003
70.8161 5951 77.1427
70.9326 5579 74.6927
71.049 5086 71.3162
71.1653 4505 67.1193
71.2817 3929 62.6817
71.3979 3505 59.203
71.5141 3266 57.1489
71.6303 3012 54.8817
71.7464 2787 52.792
71.8624 0 1
71.9784 0 1
72.0944 0 1
72.2102 0 1
72.3261 0 1
72.4418 0 1
72.5575 0 1
72.6732 0 1
75.1054 0 1
75.2209 0 1
75.3365 0 1
75.4521 0 1
75.5678 0 1
75.6835 0 1
75.7993 0 1
75.9151 0 1
76.031 0 1
76.147 6232 78.943
76.263 6350 79.6869
76.3791 6543 80.8888
76.4952 6719 81.9695
76.6113 6778 82.3286
76.7276 7085 84.1724
76.8438 7573 87.023
76.9601 7710 87.8066
77.0765 7996 89.4204
77.1929 8441 91.8749
77.3093 8402 91.6624
77.4258 8540 92.4121
77.5423 8504 92.2171
77.6589 8377 91.526
77.7755 8336 91.3017
77.8921 7639 87.4014
78.0088 7108 84.309
78.1256 6644 81.5107
78.2423 6173 78.5684
78.3591 6186 78.6511
78.4759 6573 81.074
78.5928 7027 83.8272
78.7097 7460 86.3713
78.8266 7758 88.0795
78.9436 8265 90.912
79.0606 8099 89.9944
79.1776 8331 91.2743
79.2946 8450 91.9239
79.4117 8480 92.0869
79.5288 8467 92.0163
79.6459 8404 91.6733
79.7631 8218 90.6532
79.8802 7896 88.8594
79.9974 7503 86.6199
80.1147 7381 85.9127
80.2319 7223 84.9882
80.3491 7368 85.8371
80.4664 7562 86.9598
80.5837 7919 88.9888
80.701 8344 91.3455
80.8183 8680 93.1665
80.9357 8611 92.7955
81.053 8826 93.9468
81.1704 8848 94.0638
81.2877 8775 93.675
81.4051 8748 93.5307
81.5225 8832 93.9787
81.6399 7982 89.342
81.7573 7533 86.7929
81.8747 6828 82.6317
81.9922 6492 80.5729
82.1096 6385 79.9062
82.227 6827 82.6257
82.3444 7350 85.7321
82.4619 7816 88.4081
82.5793 8400 91.6515
82.6967 8382 91.5533
82.8142 8637 92.9355
82.9316 8771 93.6536
83.049 8896 94.3186
83.1664 8737 93.4719
83.2838 8605 92.7631
83.4012 8593 92.6984
83.5186 8468 92.0217
83.636 8270 90.9395
83.7534 7971 89.2805
83.8708 7553 86.908
83.9881 7347 85.7146
84.1055 7530 86.7756
84.2228 7747 88.017
84.3401 8085 89.9166
84.4575 8690 93.2202
84.5747 8846 94.0532
84.692 8898 94.3292
84.8093 8997 94.8525
84.9265 8997 94.8525
85.0437 8890 94.2868
85.1609 8687 93.2041
85.2781 8119 90.1055
85.3952 7478 86.4754
85.5123 6862 82.8372
85.6294 6524 80.7713
85.7465 6378 79.8624
85.8636 6882 82.9578
85.9806 7443 86.2728
86.0976 7918 88.9831
86.2145 8180 90.4434
86.3315 8252 90.8405
86.4484 8936 94.5304
86.5652 8878 94.2231
86.682 8896 94.3186
86.7988 8682 93.1773
86.9156 8601 92.7416
87.0323 8706 93.3059
87.149 8162 90.3438
87.2657 7936 89.0842
87.3823 7085 84.1724
87.4988 6707 81.8963
87.6154 6148 78.4092
87.7318 5987 77.3757
87.8483 6027 77.6338
87.9647 6052 77.7946
88.081 6248 79.0443
88.1973 6251 79.0633
88.3136 6165 78.5175
88.4298 5699 75.4917
88.546 5256 72.4983
88.6621 4669 68.3301
88.7781 3999 63.2376
88.8942 0 1
89.0101 0 1
89.126 0 1
89.2419 0 1
89.3577 0 1
89.4734 0 1
89.5891 0 1
89.7047 0 1
89.8203 0 1
89.9358 0 1
92.3269 0 1
92.4424 0 1
92.558 0 1
92.6736 0 1
92.7893 0 1
92.905 0 1
93.0208 0 1
93.1366 0 1
93.2525 0 1
93.3685 0 1
93.4845 0 1
93.6005 8559 92.5149
93.7167 8957 94.6414
93.8328 8891 94.2921
93.949 8449 91.9184
94.0653 8298 91.0934
94.1816 7724 87.8863
94.2979 7396 86
94.4143 7370 85.8487
94.5307 7606 87.2124
94.6472 8029 89.6047
94.7637 8371 91.4932
94.8803 8822 93.9255
94.9969 9229 96.0677
95.1135 9300 96.4365
95.2302 9650 98.2344
95.3469 9663 98.3006
95.4637 9867 99.3328
95.5805 9470 97.3139
95.6973 9523 97.5859
95.8142 9252 96.1873
95.9311 8895 94.3133
96.048 8667 93.0967
96.1649 8262 90.8955
96.2819 8386 91.5751
96.3989 8624 92.8655
96.516 8836 94
96.633 9222 96.0312
96.7501 9508 97.509
96.8673 9782 98.904
96.9844 9597 97.9643
97.1016 9599 97.9745
97.2188 9550 97.7241
97.336 9003 94.8841
97.4532 8492 92.152
97.5704 7995 89.4148
97.6877 7423 86.1568
97.805 7053 83.9821
97.9223 6923 83.2046
98.0396 7332 85.6271
98.1569 8055 89.7497
98.2743 8408 91.6951
98.3916 8551 92.4716
98.509 9023 94.9895
98.6264 9288 96.3743
98.7438 9409 97
98.8612 9487 97.4012
98.9786 9593 97.9439
99.096 9415 97.0309
99.2134 9433 97.1236
99.3308 9276 96.312
99.4482 8971 94.7154
99.5656 8603 92.7524
99.6831 8362 91.444
99.8005 8001 89.4483
99.9179 8384 91.5642
100.035 8436 91.8477
100.153 9022 94.9842
100.27 9158 95.6974
100.388 9399 96.9484
100.505 9545 97.6985
100.622 9292 96.395
100.74 9476 97.3447
100.857 9217 96.0052
100.975 8910 94.3928
101.092 8481 92.0923
101.209 7828 88.476
101.327 7280 85.3229
101.444 6723 81.9939
101.561 6704 81.878
101.679 7132 84.4512
101.796 7565 86.977
101.913 7995 89.4148
102.03 8257 90.868
102.148 8660 93.0591
102.265 8485 92.1141
102.382 9074 95.2575
102.499 9057 95.1683
102.616 9120 95.4987
102.733 8975 94.7365
102.851 8940 94.5516
102.968 8688 93.2094
103.085 8631 92.9032
103.202 8400 91.6515
103.319 7929 89.0449
103.436 7847 88.5833
103.552 7687 87.6755
103.669 7862 88.6679
103.786 8211 90.6146
103.903 8444 91.8912
104.02 8632 92.9086
104.137 9031 95.0316
104.253 9049 95.1262
104.37 8622 92.8547
104.487 8340 91.3236
104.603 7904 88.9044
104.72 7448 86.3018
104.836 6989 83.6002
104.953 6445 80.2808
105.069 5993 77.4145
105.186 5485 74.0608
105.302 5094 71.3723
105.418 4963 70.4486
105.535 4927 70.1926
105.651 4917 70.1213
105.767 4413 66.4304
105.883 4255 65.2304
105.999 3822 61.8223
106.115 0 1
106.231 0 1
106.347 0 1
106.463 0 1
106.579 0 1
106.694 0 1
106.81 0 1
106.926 0 1
107.041 0 1
107.157 0 1
109.576 0 1
109.692 0 1
109.807 0 1
109.923 0 1
110.039 0 1
110.155 0 1
110.27 0 1
110.386 0 1
110.502 0 1
110.618 5890 76.7463
110.735 7078 84.1309
110.851 7744 88
110.967 8245 90.802
111.083 8714 93.3488
111.199 9209 95.9635
111.316 9707 98.5241
111.432 9755 98.7674
111.549 9614 98.051
111.665 9471 97.3191
111.782 9475 97.3396
111.898 9387 96.8865
112.015 9033 95.0421
112.132 8930 94.4987
112.248 8687 93.2041
112.365 8871 94.186
112.482 8831 93.9734
112.599 9610 98.0306
112.716 9637 98.1682
112.832 9823 99.111
112.949 9919 99.5942
113.066 9899 99.4937
113.183 9870 99.3479
113.3 9826 99.1262
113.417 9258 96.2185
113.534 8875 94.2072
113.652 8112 90.0666
113.769 7605 87.2067
113.886 7035 83.8749
114.003 7102 84.2734
114.12 7607 87.2181
114.238 7955 89.1908
114.355 8479 92.0815
114.472 8595 92.7092
114.589 9145 95.6295
114.707 9444 97.1802
114.824 9475 97.3396
114.942 9641 98.1886
115.059 9742 98.7016
115.176 9509 97.5141
115.294 9543 97.6883
115.411 9146 95.6347
115.529 9056 95.163
115.646 8896 94.3186
115.764 8635 92.9247
115.881 8494 92.1629
115.999 8498 92.1846
116.116 8818 93.9042
116.234 9199 95.9114
116.351 9482 97.3756
116.469 9493 97.432
116.586 9376 96.8297
116.704 9312 96.4987
116.821 9459 97.2574
116.939 9170 95.7601
117.056 8814 93.8829
117.174 8436 91.8477
117.291 7855 88.6284
117.409 7293 85.3991
117.526 6809 82.5167
117.644 6666 81.6456
117.761 6949 83.3607
117.879 7531 86.7813
117.996 7870 88.713
118.114 8062 89.7886
118.231 8368 91.4768
118.349 8397 91.6351
118.466 8566 92.5527
118.584 8698 93.2631
118.701 8890 94.2868
118.819 8738 93.4773
118.936 8706 93.3059
119.053 8390 91.5969
119.171 8231 90.7249
119.288 7787 88.244
119.405 7685 87.6641
119.523 7919 88.9888
119.64 7745 88.0057
119.757 8024 89.5768
119.875 8093 89.9611
119.992 8417 91.7442
120.109 8407 91.6897
120.226 8538 92.4013
120.343 8846 94.0532
120.46 8557 92.5041
120.578 8381 91.5478
120.695 8348 91.3674
120.812 7876 88.7468
120.929 7551 86.8965
121.046 7023 83.8033
121.163 6566 81.0309
121.279 6378 79.8624
121.396 6127 78.2752
121.513 6067 77.8909
121.63 6211 78.8099
121.747 6455 80.343
121.863 6431 80.1935
121.98 6646 81.523
122.097 6477 80.4798
122.213 6217 78.848
122.33 6218 78.8543
122.446 5980 77.3305
122.563 5678 75.3525
122.679 5388 73.403
122.795 5010 70.7814
122.912 4660 68.2642
123.028 4248 65.1767
123.144 3913 62.554
123.26 3676 60.63
123.377 0 1
123.493 0 1
123.609 0 1
123.725 0 1
123.84 0 1
123.956 0 1
124.072 0 1
124.188 0 1
124.303 0 1
124.419 0 1
126.852 0 1
126.968 0 1
127.083 0 1
127.199 0 1
127.315 0 1
127.431 0 1
127.547 0 1
127.663 0 1
127.779 0 1
127.895 0 1
128.011 0 1
128.127 0 1
128.243 0 1
128.359 7836 88.5212
128.476 8109 90.05
128.592 8573 92.5905
128.708 8599 92.7308
128.825 9150 95.6556
128.941 9077 95.2733
129.058 9221 96.026
129.174 9258 96.2185
129.291 9204 95.9375
129.408 9002 94.8789
129.524 9007 94.9052
129.641 8414 91.7279
129.758 7982 89.342
129.875 7585 87.0919
129.992 7212 84.9235
130.108 6969 83.4805
130.225 7280 85.3229
130.342 7447 86.296
130.459 7489 86.539
130.576 8285 91.022
130.693 8224 90.6863
130.81 8503 92.2117
130.928 8575 92.6013
131.045 8890 94.2868
131.162 8987 94.7998
131.279 9145 95.6295
131.396 8776 93.6803
131.513 8842 94.0319
131.631 8775 93.675
131.748 8691 93.2255
131.865 8293 91.0659
131.983 8274 90.9615
132.1 8502 92.2063
132.217 8925 94.4722
132.335 9058 95.1735
132.452 9326 96.5712
132.57 9086 95.3205
132.687 8916 94.4246
132.804 9705 98.514
132.922 9327 96.5764
133.039 9135 95.5772
133.157 8747 93.5254
133.274 8602 92.747
133.392 7990 89.3868
133.509 7456 86.3481
133.627 7082 84.1546
133.744 7093 84.22
133.862 7195 84.8233
133.979 7489 86.539
134.097 7643 87.4243
134.214 8038 89.6549
134.332 8283 91.011
134.449 8455 91.9511
134.567 8748 93.5307
134.684 8740 93.488
134.802 8820 93.9149
134.919 8906 94.3716
135.037 8764 93.6162
135.154 8640 92.9516
135.272 8427 91.7987
135.389 8381 91.5478
135.507 8268 90.9285
135.624 8210 90.6091
135.742 8232 90.7304
135.859 8459 91.9728
135.977 8749 93.5361
136.094 8813 93.8776
136.211 9168 95.7497
136.329 9128 95.5406
136.446 9152 95.6661
136.564 9239 96.1197
136.681 8985 94.7892
136.798 8690 93.2202
136.915 8388 91.586
137.033 7991 89.3924
137.15 7532 86.7871
137.267 7292 85.3932
137.384 6922 83.1986
137.502 6860 82.8251
137.619 7056 84
137.736 7248 85.1352
137.853 7444 86.2786
137.97 7912 88.9494
138.087 7783 88.2213
138.204 8202 90.5649
138.321 8497 92.1792
138.438 8486 92.1195
138.555 8779 93.6963
138.672 8316 91.1921
138.788 8295 91.0769
138.905 7900 88.8819
139.022 7629 87.3441
139.139 7106 84.2971
139.255 6830 82.6438
139.372 6674 81.6946
139.488 6452 80.3243
139.605 6522 80.7589
139.721 6244 79.019
139.838 6216 78.8416
139.954 5911 76.883
140.071 5454 73.8512
140.187 5015 70.8167
140.303 4729 68.7677
140.419 4538 67.3647
140.535 4019 63.3956
140.652 3746 61.2046
140.768 0 1
140.884 0 1
141 0 1
141.115 0 1
141.231 0 1
141.347 0 1
141.463 0 1
141.578 0 1
141.694 0 1
144.104 0 1
144.219 0 1
144.335 0 1
144.45 0 1
144.566 0 1
144.682 0 1
144.798 0 1
144.914 0 1
145.03 0 1
145.146 7070 84.0833
145.262 7155 84.5872
145.378 7058 84.0119
145.494 6986 83.5823
145.61 6567 81.037
145.726 6243 79.0127
145.842 6090 78.0385
145.959 5832 76.3675
146.075 5757 75.8749
146.192 5922 76.9545
146.308 6120 78.2304
146.425 6261 79.1265
146.541 6448 80.2994
146.658 6625 81.3941
146.774 6827 82.6257
146.891 6946 83.3427
147.008 7051 83.9702
147.125 7264 85.2291
147.241 7313 85.5161
147.358 7200 84.8528
147.475 7073 84.1011
147.592 7057 84.006
147.709 6811 82.5288
147.826 6743 82.1158
147.943 6662 81.6211
148.06 6859 82.8191
148.177 7015 83.7556
148.294 7263 85.2232
148.411 7435 86.2264
148.528 7542 86.8447
148.645 7456 86.3481
148.762 7431 86.2032
148.88 7247 85.1293
148.997 7072 84.0952
149.114 7394 85.9884
149.231 7027 83.8272
149.349 6829 82.6378
149.466 6286 79.2843
149.583 6171 78.5557
149.701 5934 77.0325
149.818 5952 77.1492
149.935 5957 77.1816
150.053 6175 78.5812
150.17 6256 79.0949
150.287 6396 79.975
150.405 6478 80.486
150.522 6778 82.3286
150.64 6976 83.5225
150.757 7074 84.1071
150.875 7178 84.7231
150.992 7132 84.4512
151.11 6964 83.4506
151.227 6919 83.1805
151.344 6842 82.7164
151.462 6527 80.7899
151.579 6681 81.7374
151.697 6482 80.5109
151.814 6792 82.4136
151.932 6857 82.807
152.049 7029 83.8391
152.167 7131 84.4452
152.284 7314 85.5219
152.402 7335 85.6446
152.519 7335 85.6446
152.636 7231 85.0353
152.754 7171 84.6818
152.871 6810 82.5227
152.989 6530 80.8084
153.106 6422 80.1374
153.223 5901 76.818
153.341 5758 75.8815
153.458 5655 75.1997
153.575 5767 75.9408
153.693 5900 76.8115
153.81 5848 76.4722
153.927 6098 78.0897
154.044 6182 78.6257
154.162 6429 80.181
154.279 6604 81.265
154.396 6557 80.9753
154.513 6763 82.2375
154.63 6899 83.0602
154.747 6818 82.5712
154.864 6704 81.878
154.981 6584 81.1419
155.098 6613 81.3204
155.215 6435 80.2185
155.332 6239 78.9873
155.449 6369 79.806
155.566 6559 80.9877
155.683 6569 81.0494
155.8 6752 82.1706
155.917 6706 81.8902
156.033 6439 80.2434
156.15 0 1
156.267 0 1
156.383 0 1
156.5 0 1
156.617 0 1
156.733 0 1
156.85 0 1
156.966 0 1
157.082 0 1
157.199 0 1
157.315 0 1
157.431 0 1
157.547 0 1
157.664 0 1
157.78 0 1
157.896 0 1
158.012 0 1
158.128 0 1
158.244 0 1
158.359 0 1
158.475 0 1
158.591 0 1
158.706 0 1
