
6.15755 0 1
6.2731 0 1
6.3887 0 1
6.50437 0 1
6.62009 0 1
6.73587 0 1
6.8517 0 1
6.96759 0 1
7.08353 0 1
7.19952 0 1
7.31557 0 1
7.43166 0 1
7.54781 0 1
7.664 0 1
7.78024 0 1
7.89653 0 1
8.01286 0 1
8.12924 0 1
8.24567 0 1
8.36213 0 1
8.47864 0 1
8.59519 0 1
8.71178 0 1
8.82841 0 1
8.94508 0 1
9.06179 0 1
9.17853 0 1
9.29531 0 1
9.41212 0 1
9.52897 0 1
9.64584 0 1
9.76276 0 1
9.8797 0 1
9.99667 0 1
10.1137 0 1
10.2307 0 1
10.3478 0 1
10.4648 0 1
10.5819 0 1
10.6991 0 1
10.8162 0 1
10.9334 0 1
11.0506 0 1
11.1678 0 1
11.285 0 1
11.4023 0 1
11.5196 0 1
11.6369 0 1
11.7542 0 1
11.8715 0 1
11.9888 0 1
12.1062 0 1
12.2235 0 1
12.3409 0 1
12.4582 0 1
12.5756 0 1
12.693 0 1
12.8104 0 1
12.9278 0 1
13.0452 0 1
13.1626 0 1
13.28 0 1
13.3974 0 1
13.5149 0 1
13.6323 0 1
13.7497 0 1
13.8671 0 1
13.9845 0 1
14.1019 0 1
14.2193 0 1
14.3367 0 1
14.4541 0 1
14.5714 0 1
14.6888 0 1
14.8062 0 1
14.9235 0 1
15.0408 26 5.09902
15.1581 37 6.08276
15.2755 29 5.38516
15.3927 28 5.2915
15.51 39 6.245
15.6273 28 5.2915
15.7445 36 6
15.8617 19 4.3589
15.9789 36 6
16.0961 21 4.58258
16.2132 16 4
16.3304 36 6
16.4475 20 4.47214
16.5646 26 5.09902
16.6816 33 5.74456
16.7986 24 4.89898
16.9156 21 4.58258
17.0326 20 4.47214
17.1496 27 5.19615
17.2665 30 5.47723
17.3833 23 4.79583
17.5002 24 4.89898
17.617 27 5.19615
17.7338 21 4.58258
17.8505 14 3.74166
17.9672 23 4.79583
18.0839 24 4.89898
18.2005 20 4.47214
18.3171 29 5.38516
18.4337 15 3.87298
18.5502 26 5.09902
18.6666 23 4.79583
18.7831 24 4.89898
18.8994 17 4.12311
19.0158 19 4.3589
19.1321 16 4
19.2483 24 4.89898
19.3645 22 4.69042
19.4806 28 5.2915
19.5967 14 3.74166
19.7128 15 3.87298
19.8288 17 4.12311
19.9447 24 4.89898
20.0606 0 1
20.1764 0 1
20.2922 0 1
20.4079 0 1
20.5236 0 1
20.6392 0 1
20.7548 0 1
20.8702 0 1
23.3078 0 1
23.4233 0 1
23.539 0 1
23.6547 0 1
23.7704 0 1
23.8862 0 1
24.0021 0 1
24.118 0 1
24.234 0 1
24.35 0 1
24.4661 17 4.12311
24.5822 11 3.31662
24.6984 13 3.60555
24.8146 20 4.47214
24.9309 25 5
25.0472 15 3.87298
25.1636 25 5
25.28 28 5.2915
25.3965 29 5.38516
25.513 26 5.09902
25.6296 30 5.47723
25.7462 31 5.56776
25.8628 31 5.56776
25.9795 32 5.65685
26.0962 30 5.47723
26.213 25 5
26.3298 31 5.56776
26.4466 20 4.47214
26.5635 19 4.3589
26.6804 26 5.09902
26.7973 25 5
26.9143 19 4.3589
27.0313 24 4.89898
27.1483 29 5.38516
27.2653 22 4.69042
27.3824 16 4
27.4996 24 4.89898
27.6167 23 4.79583
27.7339 29 5.38516
27.8511 22 4.69042
27.9683 24 4.89898
28.0855 26 5.09902
28.2028 26 5.09902
28.3201 21 4.58258
28.4374 14 3.74166
28.5547 21 4.58258
28.6721 25 5
28.7894 31 5.56776
28.9068 29 5.38516
29.0242 22 4.69042
29.1416 20 4.47214
29.259 18 4.24264
29.3764 16 4
29.4939 17 4.12311
29.6113 24 4.89898
29.7288 10 3.16228
29.8463 31 5.56776
29.9638 24 4.89898
30.0812 18 4.24264
30.1987 25 5
30.3162 21 4.58258
30.4337 22 4.69042
30.5512 23 4.79583
30.6687 23 4.79583
30.7862 28 5.2915
30.9037 22 4.69042
31.0212 23 4.79583
31.1387 26 5.09902
31.2562 38 6.16441
31.3737 22 4.69042
31.4912 29 5.38516
31.6087 19 4.3589
31.7262 26 5.09902
31.8436 31 5.56776
31.9611 24 4.89898
32.0785 30 5.47723
32.1959 19 4.3589
32.3134 24 4.89898
32.4308 25 5
32.5482 28 5.2915
32.6655 16 4
32.7829 25 5
32.9002 16 4
33.0176 17 4.12311
33.1349 24 4.89898
33.2522 14 3.74166
33.3694 14 3.74166
33.4867 27 5.19615
33.6039 12 3.4641
33.7211 13 3.60555
33.8383 27 5.19615
33.9554 19 4.3589
34.0725 28 5.2915
34.1896 24 4.89898
34.3067 21 4.58258
34.4237 19 4.3589
34.5407 24 4.89898
34.6577 16 4
34.7746 16 4
34.8915 20 4.47214
35.0084 21 4.58258
35.1252 24 4.89898
35.242 20 4.47214
35.3587 18 4.24264
35.4755 8 2.82843
35.5921 18 4.24264
35.7088 24 4.89898
35.8254 22 4.69042
35.9419 22 4.69042
36.0584 23 4.79583
36.1749 25 5
36.2913 22 4.69042
36.4077 21 4.58258
36.524 15 3.87298
36.6403 16 4
36.7565 22 4.69042
36.8727 8 2.82843
36.9889 16 4
37.1049 10 3.16228
37.221 0 1
37.3369 0 1
37.4529 0 1
37.5687 0 1
37.6845 0 1
37.8003 0 1
37.916 0 1
38.0316 0 1
38.1472 0 1
40.5851 0 1
40.7008 0 1
40.8164 0 1
40.9322 0 1
41.048 0 1
41.1639 0 1
41.2798 0 1
41.3958 0 1
41.5118 0 1
41.6279 0 1
41.744 10 3.16228
41.8602 8 2.82843
41.9765 8 2.82843
42.0928 16 4
42.2091 13 3.60555
42.3255 18 4.24264
42.4419 27 5.19615
42.5584 10 3.16228
42.675 18 4.24264
42.7915 18 4.24264
42.9081 13 3.60555
43.0248 14 3.74166
43.1415 15 3.87298
43.2582 19 4.3589
43.375 16 4
43.4918 19 4.3589
43.6087 20 4.47214
43.7256 22 4.69042
43.8425 10 3.16228
43.9595 16 4
44.0765 10 3.16228
44.1935 15 3.87298
44.3106 15 3.87298
44.4277 18 4.24264
44.5448 21 4.58258
44.6619 16 4
44.7791 20 4.47214
44.8963 13 3.60555
45.0136 21 4.58258
45.1308 19 4.3589
45.2481 14 3.74166
45.3654 21 4.58258
45.4827 21 4.58258
45.6001 12 3.4641
45.7174 14 3.74166
45.8348 12 3.4641
45.9522 15 3.87298
46.0697 16 4
46.1871 19 4.3589
46.3046 15 3.87298
46.422 10 3.16228
46.5395 20 4.47214
46.657 17 4.12311
46.7745 22 4.69042
46.892 12 3.4641
47.0096 14 3.74166
47.1271 22 4.69042
47.2446 22 4.69042
47.3622 11 3.31662
47.4797 11 3.31662
47.5973 14 3.74166
47.7149 16 4
47.8324 25 5
47.95 20 4.47214
48.0675 16 4
48.1851 21 4.58258
48.3027 21 4.58258
48.4202 13 3.60555
48.5378 19 4.3589
48.6554 14 3.74166
48.7729 14 3.74166
48.8904 14 3.74166
49.008 24 4.89898
49.1255 9 3
49.243 14 3.74166
49.3605 12 3.4641
49.478 18 4.24264
49.5955 17 4.12311
49.713 17 4.12311
49.8304 15 3.87298
49.9479 21 4.58258
50.0653 14 3.74166
50.1827 10 3.16228
50.3001 19 4.3589
50.4175 24 4.89898
50.5348 17 4.12311
50.6521 14 3.74166
50.7694 16 4
50.8867 16 4
51.004 11 3.31662
51.1212 14 3.74166
51.2384 23 4.79583
51.3556 12 3.4641
51.4727 20 4.47214
51.5899 18 4.24264
51.707 18 4.24264
51.824 14 3.74166
51.9411 16 4
52.0581 15 3.87298
52.175 20 4.47214
52.2919 15 3.87298
52.4088 15 3.87298
52.5257 13 3.60555
52.6425 16 4
52.7593 14 3.74166
52.876 17 4.12311
52.9927 16 4
53.1094 16 4
53.226 18 4.24264
53.3426 15 3.87298
53.4591 14 3.74166
53.5756 16 4
53.692 14 3.74166
53.8084 15 3.87298
53.9248 19 4.3589
54.0411 8 2.82843
54.1573 8 2.82843
54.2735 0 1
54.3896 0 1
54.5057 0 1
54.6217 0 1
54.7377 0 1
54.8537 0 1
54.9695 0 1
55.0853 0 1
55.2011 0 1
55.3168 0 1
55.4324 0 1
57.824 0 1
57.9396 0 1
58.0553 0 1
58.1711 0 1
58.2869 0 1
58.4028 0 1
58.5187 0 1
58.6347 0 1
58.7508 0 1
58.8669 0 1
58.983 6 2.44949
59.0992 15 3.87298
59.2155 15 3.87298
59.3318 29 5.38516
59.4482 33 5.74456
59.5646 31 5.56776
59.681 33 5.74456
59.7975 41 6.40312
59.9141 22 4.69042
60.0306 33 5.74456
60.1473 40 6.32456
60.2639 31 5.56776
60.3807 51 7.14143
60.4974 52 7.2111
60.6142 71 8.42615
60.731 94 9.69536
60.8479 126 11.225
60.9648 124 11.1355
61.0818 117 10.8167
61.1987 91 9.53939
61.3158 67 8.18535
61.4328 53 7.28011
61.5499 48 6.9282
61.667 40 6.32456
61.7841 24 4.89898
61.9013 37 6.08276
62.0185 27 5.19615
62.1357 25 5
62.253 20 4.47214
62.3702 27 5.19615
62.4875 23 4.79583
62.6049 29 5.38516
62.7222 25 5
62.8396 30 5.47723
62.9569 26 5.09902
63.0743 13 3.60555
63.1918 23 4.79583
63.3092 22 4.69042
63.4267 20 4.47214
63.5441 24 4.89898
63.6616 24 4.89898
63.7791 20 4.47214
63.8966 22 4.69042
64.0142 24 4.89898
64.1317 20 4.47214
64.2492 19 4.3589
64.3668 18 4.24264
64.4843 17 4.12311
64.6019 21 4.58258
64.7195 9 3
64.837 16 4
64.9546 14 3.74166
65.0722 18 4.24264
65.1898 15 3.87298
65.3074 20 4.47214
65.4249 23 4.79583
65.5425 14 3.74166
65.6601 14 3.74166
65.7777 18 4.24264
65.8952 23 4.79583
66.0128 23 4.79583
66.1304 18 4.24264
66.2479 16 4
66.3655 15 3.87298
66.483 28 5.2915
66.6005 22 4.69042
66.718 17 4.12311
66.8355 20 4.47214
66.953 12 3.4641
67.0705 20 4.47214
67.1879 22 4.69042
67.3054 23 4.79583
67.4228 20 4.47214
67.5402 27 5.19615
67.6576 17 4.12311
67.7749 23 4.79583
67.8923 20 4.47214
68.0096 28 5.2915
68.1269 18 4.24264
68.2442 29 5.38516
68.3614 24 4.89898
68.4787 25 5
68.5958 25 5
68.713 15 3.87298
68.8302 20 4.47214
68.9473 23 4.79583
69.0643 26 5.09902
69.1814 16 4
69.2984 20 4.47214
69.4154 14 3.74166
69.5323 21 4.58258
69.6492 19 4.3589
69.7661 20 4.47214
69.8829 16 4
69.9997 18 4.24264
70.1165 35 5.91608
70.2332 16 4
70.3499 14 3.74166
70.4665 9 3
70.5831 21 4.58258
70.6996 15 3.87298
70.8161 10 3.16228
70.9326 14 3.74166
71.049 8 2.82843
71.1653 14 3.74166
71.2817 6 2.44949
71.3979 7 2.64575
71.5141 14 3.74166
71.6303 10 3.16228
71.7464 7 2.64575
71.8624 0 1
71.9784 0 1
72.0944 0 1
72.2102 0 1
72.3261 0 1
72.4418 0 1
72.5575 0 1
72.6732 0 1
75.1054 0 1
75.2209 0 1
75.3365 0 1
75.4521 0 1
75.5678 0 1
75.6835 0 1
75.7993 0 1
75.9151 0 1
76.031 0 1
76.147 13 3.60555
76.263 7 2.64575
76.3791 12 3.4641
76.4952 17 4.12311
76.6113 18 4.24264
76.7276 16 4
76.8438 14 3.74166
76.9601 14 3.74166
77.0765 14 3.74166
77.1929 15 3.87298
77.3093 11 3.31662
77.4258 20 4.47214
77.5423 18 4.24264
77.6589 16 4
77.7755 16 4
77.8921 16 4
78.0088 15 3.87298
78.1256 26 5.09902
78.2423 11 3.31662
78.3591 18 4.24264
78.4759 17 4.12311
78.5928 18 4.24264
78.7097 19 4.3589
78.8266 17 4.12311
78.9436 18 4.24264
79.0606 23 4.79583
79.1776 15 3.87298
79.2946 10 3.16228
79.4117 26 5.09902
79.5288 15 3.87298
79.6459 15 3.87298
79.7631 15 3.87298
79.8802 12 3.4641
79.9974 20 4.47214
80.1147 19 4.3589
80.2319 13 3.60555
80.3491 22 4.69042
80.4664 18 4.24264
80.5837 19 4.3589
80.701 16 4
80.8183 19 4.3589
80.9357 21 4.58258
81.053 19 4.3589
81.1704 16 4
81.2877 19 4.3589
81.4051 17 4.12311
81.5225 16 4
81.6399 15 3.87298
81.7573 17 4.12311
81.8747 21 4.58258
81.9922 20 4.47214
82.1096 18 4.24264
82.227 19 4.3589
82.3444 13 3.60555
82.4619 22 4.69042
82.5793 13 3.60555
82.6967 13 3.60555
82.8142 16 4
82.9316 22 4.69042
83.049 22 4.69042
83.1664 15 3.87298
83.2838 20 4.47214
83.4012 19 4.3589
83.5186 27 5.19615
83.636 15 3.87298
83.7534 17 4.12311
83.8708 28 5.2915
83.9881 19 4.3589
84.1055 16 4
84.2228 23 4.79583
84.3401 13 3.60555
84.4575 20 4.47214
84.5747 22 4.69042
84.692 16 4
84.8093 18 4.24264
84.9265 17 4.12311
85.0437 7 2.64575
85.1609 13 3.60555
85.2781 25 5
85.3952 15 3.87298
85.5123 23 4.79583
85.6294 18 4.24264
85.7465 21 4.58258
85.8636 12 3.4641
85.9806 19 4.3589
86.0976 13 3.60555
86.2145 22 4.69042
86.3315 19 4.3589
86.4484 18 4.24264
86.5652 22 4.69042
86.682 19 4.3589
86.7988 17 4.12311
86.9156 16 4
87.0323 16 4
87.149 11 3.31662
87.2657 21 4.58258
87.3823 24 4.89898
87.4988 26 5.09902
87.6154 13 3.60555
87.7318 23 4.79583
87.8483 16 4
87.9647 15 3.87298
88.081 16 4
88.1973 23 4.79583
88.3136 6 2.44949
88.4298 9 3
88.546 13 3.60555
88.6621 9 3
88.7781 10 3.16228
88.8942 0 1
89.0101 0 1
89.126 0 1
89.2419 0 1
89.3577 0 1
89.4734 0 1
89.5891 0 1
89.7047 0 1
89.8203 0 1
89.9358 0 1
92.3269 0 1
92.4424 0 1
92.558 0 1
92.6736 0 1
92.7893 0 1
92.905 0 1
93.0208 0 1
93.1366 0 1
93.2525 0 1
93.3685 0 1
93.4845 0 1
93.6005 11 3.31662
93.7167 18 4.24264
93.8328 11 3.31662
93.949 13 3.60555
94.0653 21 4.58258
94.1816 25 5
94.2979 19 4.3589
94.4143 26 5.09902
94.5307 19 4.3589
94.6472 17 4.12311
94.7637 20 4.47214
94.8803 23 4.79583
94.9969 15 3.87298
95.1135 18 4.24264
95.2302 21 4.58258
95.3469 20 4.47214
95.4637 30 5.47723
95.5805 35 5.91608
95.6973 21 4.58258
95.8142 30 5.47723
95.9311 16 4
96.048 16 4
96.1649 19 4.3589
96.2819 24 4.89898
96.3989 17 4.12311
96.516 20 4.47214
96.633 13 3.60555
96.7501 27 5.19615
96.8673 20 4.47214
96.9844 17 4.12311
97.1016 24 4.89898
97.2188 13 3.60555
97.336 18 4.24264
97.4532 22 4.69042
97.5704 18 4.24264
97.6877 22 4.69042
97.805 18 4.24264
97.9223 19 4.3589
98.0396 20 4.47214
98.1569 15 3.87298
98.2743 17 4.12311
98.3916 14 3.74166
98.509 24 4.89898
98.6264 19 4.3589
98.7438 16 4
98.8612 9 3
98.9786 19 4.3589
99.096 17 4.12311
99.2134 24 4.89898
99.3308 16 4
99.4482 20 4.47214
99.5656 26 5.09902
99.6831 19 4.3589
99.8005 25 5
99.9179 21 4.58258
100.035 24 4.89898
100.153 20 4.47214
100.27 26 5.09902
100.388 23 4.79583
100.505 18 4.24264
100.622 27 5.19615
100.74 23 4.79583
100.857 24 4.89898
100.975 19 4.3589
101.092 22 4.69042
101.209 21 4.58258
101.327 16 4
101.444 25 5
101.561 27 5.19615
101.679 19 4.3589
101.796 22 4.69042
101.913 18 4.24264
102.03 20 4.47214
102.148 18 4.24264
102.265 27 5.19615
102.382 18 4.24264
102.499 29 5.38516
102.616 27 5.19615
102.733 30 5.47723
102.851 24 4.89898
102.968 24 4.89898
103.085 23 4.79583
103.202 21 4.58258
103.319 17 4.12311
103.436 13 3.60555
103.552 20 4.47214
103.669 33 5.74456
103.786 28 5.2915
103.903 25 5
104.02 23 4.79583
104.137 29 5.38516
104.253 16 4
104.37 12 3.4641
104.487 17 4.12311
104.603 21 4.58258
104.72 12 3.4641
104.836 15 3.87298
104.953 15 3.87298
105.069 19 4.3589
105.186 17 4.12311
105.302 9 3
105.418 7 2.64575
105.535 18 4.24264
105.651 10 3.16228
105.767 11 3.31662
105.883 14 3.74166
105.999 8 2.82843
106.115 0 1
106.231 0 1
106.347 0 1
106.463 0 1
106.579 0 1
106.694 0 1
106.81 0 1
106.926 0 1
107.041 0 1
107.157 0 1
109.576 0 1
109.692 0 1
109.807 0 1
109.923 0 1
110.039 0 1
110.155 0 1
110.27 0 1
110.386 0 1
110.502 0 1
110.618 14 3.74166
110.735 13 3.60555
110.851 23 4.79583
110.967 23 4.79583
111.083 10 3.16228
111.199 20 4.47214
111.316 18 4.24264
111.432 22 4.69042
111.549 17 4.12311
111.665 25 5
111.782 23 4.79583
111.898 18 4.24264
112.015 23 4.79583
112.132 29 5.38516
112.248 24 4.89898
112.365 23 4.79583
112.482 20 4.47214
112.599 21 4.58258
112.716 19 4.3589
112.832 25 5
112.949 17 4.12311
113.066 21 4.58258
113.183 19 4.3589
113.3 28 5.2915
113.417 16 4
113.534 21 4.58258
113.652 24 4.89898
113.769 17 4.12311
113.886 22 4.69042
114.003 17 4.12311
114.12 13 3.60555
114.238 16 4
114.355 14 3.74166
114.472 21 4.58258
114.589 21 4.58258
114.707 14 3.74166
114.824 13 3.60555
114.942 26 5.09902
115.059 21 4.58258
115.176 13 3.60555
115.294 19 4.3589
115.411 11 3.31662
115.529 18 4.24264
115.646 20 4.47214
115.764 20 4.47214
115.881 25 5
115.999 20 4.47214
116.116 20 4.47214
116.234 19 4.3589
116.351 27 5.19615
116.469 18 4.24264
116.586 20 4.47214
116.704 22 4.69042
116.821 18 4.24264
116.939 28 5.2915
117.056 15 3.87298
117.174 20 4.47214
117.291 25 5
117.409 18 4.24264
117.526 14 3.74166
117.644 13 3.60555
117.761 24 4.89898
117.879 9 3
117.996 24 4.89898
118.114 15 3.87298
118.231 24 4.89898
118.349 15 3.87298
118.466 13 3.60555
118.584 15 3.87298
118.701 21 4.58258
118.819 16 4
118.936 19 4.3589
119.053 18 4.24264
119.171 18 4.24264
119.288 18 4.24264
119.405 12 3.4641
119.523 25 5
119.64 23 4.79583
119.757 17 4.12311
119.875 22 4.69042
119.992 19 4.3589
120.109 12 3.4641
120.226 7 2.64575
120.343 20 4.47214
120.46 18 4.24264
120.578 19 4.3589
120.695 19 4.3589
120.812 22 4.69042
120.929 16 4
121.046 13 3.60555
121.163 12 3.4641
121.279 21 4.58258
121.396 14 3.74166
121.513 16 4
121.63 16 4
121.747 15 3.87298
121.863 15 3.87298
121.98 8 2.82843
122.097 8 2.82843
122.213 12 3.4641
122.33 14 3.74166
122.446 17 4.12311
122.563 16 4
122.679 16 4
122.795 5 2.23607
122.912 7 2.64575
123.028 7 2.64575
123.144 8 2.82843
123.26 11 3.31662
123.377 0 1
123.493 0 1
123.609 0 1
123.725 0 1
123.84 0 1
123.956 0 1
124.072 0 1
124.188 0 1
124.303 0 1
124.419 0 1
126.852 0 1
126.968 0 1
127.083 0 1
127.199 0 1
127.315 0 1
127.431 0 1
127.547 0 1
127.663 0 1
127.779 0 1
127.895 0 1
128.011 0 1
128.127 0 1
128.243 0 1
128.359 13 3.60555
128.476 20 4.47214
128.592 23 4.79583
128.708 13 3.60555
128.825 17 4.12311
128.941 23 4.79583
129.058 23 4.79583
129.174 20 4.47214
129.291 19 4.3589
129.408 15 3.87298
129.524 21 4.58258
129.641 24 4.89898
129.758 13 3.60555
129.875 18 4.24264
129.992 11 3.31662
130.108 21 4.58258
130.225 19 4.3589
130.342 17 4.12311
130.459 16 4
130.576 10 3.16228
130.693 15 3.87298
130.81 11 3.31662
130.928 22 4.69042
131.045 15 3.87298
131.162 27 5.19615
131.279 18 4.24264
131.396 15 3.87298
131.513 26 5.09902
131.631 18 4.24264
131.748 13 3.60555
131.865 16 4
131.983 13 3.60555
132.1 15 3.87298
132.217 21 4.58258
132.335 19 4.3589
132.452 24 4.89898
132.57 29 5.38516
132.687 11 3.31662
132.804 18 4.24264
132.922 32 5.65685
133.039 27 5.19615
133.157 24 4.89898
133.274 21 4.58258
133.392 27 5.19615
133.509 21 4.58258
133.627 19 4.3589
133.744 31 5.56776
133.862 29 5.38516
133.979 15 3.87298
134.097 16 4
134.214 9 3
134.332 16 4
134.449 13 3.60555
134.567 24 4.89898
134.684 26 5.09902
134.802 20 4.47214
134.919 17 4.12311
135.037 24 4.89898
135.154 19 4.3589
135.272 21 4.58258
135.389 17 4.12311
135.507 20 4.47214
135.624 21 4.58258
135.742 30 5.47723
135.859 34 5.83095
135.977 18 4.24264
136.094 21 4.58258
136.211 20 4.47214
136.329 22 4.69042
136.446 20 4.47214
136.564 20 4.47214
136.681 19 4.3589
136.798 21 4.58258
136.915 22 4.69042
137.033 16 4
137.15 25 5
137.267 17 4.12311
137.384 15 3.87298
137.502 15 3.87298
137.619 22 4.69042
137.736 11 3.31662
137.853 21 4.58258
137.97 20 4.47214
138.087 14 3.74166
138.204 19 4.3589
138.321 16 4
138.438 21 4.58258
138.555 29 5.38516
138.672 24 4.89898
138.788 18 4.24264
138.905 17 4.12311
139.022 25 5
139.139 20 4.47214
139.255 13 3.60555
139.372 16 4
139.488 25 5
139.605 9 3
139.721 11 3.31662
139.838 16 4
139.954 17 4.12311
140.071 10 3.16228
140.187 15 3.87298
140.303 14 3.74166
140.419 11 3.31662
140.535 13 3.60555
140.652 13 3.60555
140.768 0 1
140.884 0 1
141 0 1
141.115 0 1
141.231 0 1
141.347 0 1
141.463 0 1
141.578 0 1
141.694 0 1
144.104 0 1
144.219 0 1
144.335 0 1
144.45 0 1
144.566 0 1
144.682 0 1
144.798 0 1
144.914 0 1
145.03 0 1
145.146 39 6.245
145.262 65 8.06226
145.378 110 10.4881
145.494 135 11.619
145.61 161 12.6886
145.726 232 15.2315
145.842 273 16.5227
145.959 337 18.3576
146.075 443 21.0476
146.192 431 20.7605
146.308 531 23.0434
146.425 606 24.6171
146.541 677 26.0192
146.658 687 26.2107
146.774 684 26.1534
146.891 586 24.2074
147.008 577 24.0208
147.125 568 23.8328
147.241 771 27.7669
147.358 1012 31.8119
147.475 1187 34.4529
147.592 1476 38.4187
147.709 1616 40.1995
147.826 1921 43.8292
147.943 2238 47.3075
148.06 2535 50.3488
148.177 2722 52.1728
148.294 3222 56.7627
148.411 3661 60.5062
148.528 3829 61.8789
148.645 4268 65.3299
148.762 4763 69.0145
148.88 5221 72.2565
148.997 5895 76.7789
149.114 6360 79.7496
149.231 6852 82.7768
149.349 7444 86.2786
149.466 7880 88.7694
149.583 8190 90.4986
149.701 8264 90.9065
149.818 8433 91.8314
149.935 8675 93.1397
150.053 8733 93.4505
150.17 8660 93.0591
150.287 8189 90.4931
150.405 7620 87.2926
150.522 6640 81.4862
150.64 5769 75.9539
150.757 5037 70.9718
150.875 4479 66.9253
150.992 3966 62.9762
151.11 3219 56.7362
151.227 2572 50.7149
151.344 2047 45.2438
151.462 1707 41.3159
151.579 1224 34.9857
151.697 932 30.5287
151.814 695 26.3629
151.932 571 23.8956
152.049 467 21.6102
152.167 340 18.4391
152.284 268 16.3707
152.402 182 13.4907
152.519 120 10.9545
152.636 79 8.88819
152.754 38 6.16441
152.871 23 4.79583
152.989 17 4.12311
153.106 22 4.69042
153.223 22 4.69042
153.341 16 4
153.458 19 4.3589
153.575 27 5.19615
153.693 13 3.60555
153.81 16 4
153.927 11 3.31662
154.044 16 4
154.162 9 3
154.279 15 3.87298
154.396 14 3.74166
154.513 16 4
154.63 16 4
154.747 13 3.60555
154.864 10 3.16228
154.981 16 4
155.098 8 2.82843
155.215 11 3.31662
155.332 14 3.74166
155.449 17 4.12311
155.566 17 4.12311
155.683 16 4
155.8 16 4
155.917 13 3.60555
156.033 16 4
156.15 0 1
156.267 0 1
156.383 0 1
156.5 0 1
156.617 0 1
156.733 0 1
156.85 0 1
156.966 0 1
157.082 0 1
157.199 0 1
157.315 0 1
157.431 0 1
157.547 0 1
157.664 0 1
157.78 0 1
157.896 0 1
158.012 0 1
158.128 0 1
158.244 0 1
158.359 0 1
158.475 0 1
158.591 0 1
158.706 0 1
