
6.15755 0 1
6.2731 0 1
6.3887 0 1
6.50437 0 1
6.62009 0 1
6.73587 0 1
6.8517 0 1
6.96759 0 1
7.08353 0 1
7.19952 0 1
7.31557 0 1
7.43166 0 1
7.54781 0 1
7.664 0 1
7.78024 0 1
7.89653 0 1
8.01286 0 1
8.12924 0 1
8.24567 0 1
8.36213 0 1
8.47864 0 1
8.59519 0 1
8.71178 0 1
8.82841 0 1
8.94508 0 1
9.06179 0 1
9.17853 0 1
9.29531 0 1
9.41212 0 1
9.52897 0 1
9.64584 0 1
9.76276 0 1
9.8797 0 1
9.99667 0 1
10.1137 0 1
10.2307 0 1
10.3478 0 1
10.4648 0 1
10.5819 0 1
10.6991 0 1
10.8162 0 1
10.9334 0 1
11.0506 0 1
11.1678 0 1
11.285 0 1
11.4023 0 1
11.5196 0 1
11.6369 0 1
11.7542 0 1
11.8715 0 1
11.9888 0 1
12.1062 0 1
12.2235 0 1
12.3409 0 1
12.4582 0 1
12.5756 0 1
12.693 0 1
12.8104 0 1
12.9278 0 1
13.0452 0 1
13.1626 0 1
13.28 0 1
13.3974 0 1
13.5149 0 1
13.6323 0 1
13.7497 0 1
13.8671 0 1
13.9845 0 1
14.1019 0 1
14.2193 0 1
14.3367 0 1
14.4541 0 1
14.5714 0 1
14.6888 0 1
14.8062 0 1
14.9235 0 1
15.0408 0 0
15.1581 0 0
15.2755 0 0
15.3927 0 0
15.51 0 0
15.6273 0 0
15.7445 0 0
15.8617 0 0
15.9789 0 0
16.0961 0 0
16.2132 0 0
16.3304 0 0
16.4475 0 0
16.5646 0 0
16.6816 0 0
16.7986 0 0
16.9156 0 0
17.0326 0 0
17.1496 0 0
17.2665 0 0
17.3833 0 0
17.5002 0 0
17.617 0 0
17.7338 0 0
17.8505 0 0
17.9672 0 0
18.0839 0 0
18.2005 0 0
18.3171 0 0
18.4337 0 0
18.5502 0 0
18.6666 0 0
18.7831 0 0
18.8994 0 0
19.0158 0 0
19.1321 0 0
19.2483 0 0
19.3645 0 0
19.4806 0 0
19.5967 0 0
19.7128 0 0
19.8288 0 0
19.9447 0 0
20.0606 0 1
20.1764 0 1
20.2922 0 1
20.4079 0 1
20.5236 0 1
20.6392 0 1
20.7548 0 1
20.8702 0 1
23.3078 0 1
23.4233 0 1
23.539 0 1
23.6547 0 1
23.7704 0 1
23.8862 0 1
24.0021 0 1
24.118 0 1
24.234 0 1
24.35 0 1
24.4661 1757 41.9166
24.5822 1739 41.7013
24.6984 1786 42.2611
24.8146 1682 41.0122
24.9309 1654 40.6694
25.0472 1679 40.9756
25.1636 1611 40.1373
25.28 1562 39.5221
25.3965 1602 40.025
25.513 1614 40.1746
25.6296 1691 41.1218
25.7462 1777 42.1545
25.8628 1846 42.9651
25.9795 1971 44.3959
26.0962 1873 43.2782
26.213 1964 44.317
26.3298 1998 44.699
26.4466 1863 43.1625
26.5635 1882 43.382
26.6804 1766 42.0238
26.7973 1787 42.2729
26.9143 1659 40.7308
27.0313 1790 42.3084
27.1483 1848 42.9884
27.2653 1890 43.4741
27.3824 1910 43.7035
27.4996 1868 43.2204
27.6167 1892 43.4971
27.7339 1875 43.3013
27.8511 1804 42.4735
27.9683 1783 42.2256
28.0855 1833 42.8135
28.2028 1759 41.9404
28.3201 1728 41.5692
28.4374 1743 41.7493
28.5547 1643 40.5339
28.6721 1590 39.8748
28.7894 1569 39.6106
28.9068 1574 39.6737
29.0242 1678 40.9634
29.1416 1606 40.0749
29.259 1723 41.509
29.3764 1794 42.3556
29.4939 1822 42.6849
29.6113 1851 43.0232
29.7288 1901 43.6005
29.8463 1892 43.4971
29.9638 1879 43.3474
30.0812 1918 43.795
30.1987 1777 42.1545
30.3162 1667 40.8289
30.4337 1683 41.0244
30.5512 1726 41.5452
30.6687 1824 42.7083
30.7862 1854 43.0581
30.9037 1920 43.8178
31.0212 1919 43.8064
31.1387 1931 43.9431
31.2562 1917 43.7836
31.3737 1893 43.5086
31.4912 1830 42.7785
31.6087 1785 42.2493
31.7262 1796 42.3792
31.8436 1764 42
31.9611 1723 41.509
32.0785 1775 42.1307
32.1959 1624 40.2989
32.3134 1642 40.5216
32.4308 1605 40.0625
32.5482 1576 39.6989
32.6655 1747 41.7971
32.7829 1723 41.509
32.9002 1862 43.1509
33.0176 1796 42.3792
33.1349 1843 42.9302
33.2522 1836 42.8486
33.3694 1999 44.7102
33.4867 1878 43.3359
33.6039 1928 43.909
33.7211 1845 42.9535
33.8383 1726 41.5452
33.9554 1792 42.332
34.0725 1596 39.95
34.1896 1691 41.1218
34.3067 1821 42.6732
34.4237 1874 43.2897
34.5407 1845 42.9535
34.6577 1931 43.9431
34.7746 1893 43.5086
34.8915 1871 43.2551
35.0084 1820 42.6615
35.1252 1751 41.845
35.242 1738 41.6893
35.3587 1702 41.2553
35.4755 1795 42.3674
35.5921 1714 41.4005
35.7088 1691 41.1218
35.8254 1589 39.8623
35.9419 1558 39.4715
36.0584 1497 38.6911
36.1749 1519 38.9744
36.2913 1592 39.8999
36.4077 1542 39.2683
36.524 1643 40.5339
36.6403 1741 41.7253
36.7565 1734 41.6413
36.8727 1843 42.9302
36.9889 1864 43.1741
37.1049 1828 42.7551
37.221 0 1
37.3369 0 1
37.4529 0 1
37.5687 0 1
37.6845 0 1
37.8003 0 1
37.916 0 1
38.0316 0 1
38.1472 0 1
40.5851 0 1
40.7008 0 1
40.8164 0 1
40.9322 0 1
41.048 0 1
41.1639 0 1
41.2798 0 1
41.3958 0 1
41.5118 0 1
41.6279 0 1
41.744 1415 37.6165
41.8602 1489 38.5876
41.9765 1537 39.2046
42.0928 1631 40.3856
42.2091 1500 38.7298
42.3255 1581 39.7618
42.4419 1618 40.2244
42.5584 1562 39.5221
42.675 1439 37.9342
42.7915 1333 36.5103
42.9081 1401 37.4299
43.0248 1406 37.4967
43.1415 1445 38.0132
43.2582 1506 38.8072
43.375 1573 39.6611
43.4918 1605 40.0625
43.6087 1578 39.724
43.7256 1540 39.2428
43.8425 1561 39.5095
43.9595 1510 38.8587
44.0765 1478 38.4448
44.1935 1462 38.2361
44.3106 1398 37.3898
44.4277 1381 37.1618
44.5448 1310 36.1939
44.6619 1263 35.5387
44.7791 1228 35.0428
44.8963 1184 34.4093
45.0136 1159 34.0441
45.1308 1197 34.5977
45.2481 1247 35.3129
45.3654 1259 35.4824
45.4827 1353 36.7831
45.6001 1373 37.054
45.7174 1458 38.1838
45.8348 1341 36.6197
45.9522 1381 37.1618
46.0697 1334 36.524
46.1871 1219 34.9142
46.3046 1125 33.541
46.422 1043 32.2955
46.5395 1029 32.078
46.657 1125 33.541
46.7745 1184 34.4093
46.892 1166 34.1467
47.0096 1167 34.1614
47.1271 1141 33.7787
47.2446 1240 35.2136
47.3622 1177 34.3074
47.4797 1172 34.2345
47.5973 1127 33.5708
47.7149 1056 32.4962
47.8324 1018 31.9061
47.95 1063 32.6037
48.0675 1016 31.8748
48.1851 938 30.6268
48.3027 935 30.5778
48.4202 887 29.7825
48.5378 879 29.6479
48.6554 892 29.8664
48.7729 953 30.8707
48.8904 1000 31.6228
49.008 1049 32.3883
49.1255 1076 32.8024
49.243 1156 34
49.3605 1154 33.9706
49.478 1080 32.8634
49.5955 1059 32.5423
49.713 974 31.209
49.8304 910 30.1662
49.9479 922 30.3645
50.0653 971 31.1609
50.1827 1050 32.4037
50.3001 1087 32.9697
50.4175 1215 34.8569
50.5348 1266 35.5809
50.6521 1228 35.0428
50.7694 1261 35.5106
50.8867 1270 35.6371
51.004 1255 35.426
51.1212 1287 35.8748
51.2384 1294 35.9722
51.3556 1207 34.7419
51.4727 1235 35.1426
51.5899 1305 36.1248
51.707 1199 34.6266
51.824 1113 33.3617
51.9411 1129 33.6006
52.0581 1164 34.1174
52.175 1221 34.9428
52.2919 1347 36.7015
52.4088 1488 38.5746
52.5257 1486 38.5487
52.6425 1486 38.5487
52.7593 1537 39.2046
52.876 1541 39.2556
52.9927 1589 39.8623
53.1094 1503 38.7685
53.226 1586 39.8246
53.3426 1359 36.8646
53.4591 1279 35.7631
53.5756 1252 35.3836
53.692 1376 37.0945
53.8084 1379 37.1349
53.9248 1531 39.128
54.0411 1465 38.2753
54.1573 1585 39.8121
54.2735 0 1
54.3896 0 1
54.5057 0 1
54.6217 0 1
54.7377 0 1
54.8537 0 1
54.9695 0 1
55.0853 0 1
55.2011 0 1
55.3168 0 1
55.4324 0 1
57.824 0 1
57.9396 0 1
58.0553 0 1
58.1711 0 1
58.2869 0 1
58.4028 0 1
58.5187 0 1
58.6347 0 1
58.7508 0 1
58.8669 0 1
58.983 1660 40.7431
59.0992 1798 42.4028
59.2155 1730 41.5933
59.3318 1821 42.6732
59.4482 1891 43.4856
59.5646 1923 43.852
59.681 1945 44.1022
59.7975 1934 43.9773
59.9141 1805 42.4853
60.0306 1709 41.3401
60.1473 1741 41.7253
60.2639 1622 40.2741
60.3807 1566 39.5727
60.4974 1547 39.3319
60.6142 1460 38.2099
60.731 1492 38.6264
60.8479 1584 39.7995
60.9648 1564 39.5474
61.0818 1723 41.509
61.1987 1709 41.3401
61.3158 1764 42
61.4328 1760 41.9524
61.5499 1711 41.3642
61.667 1759 41.9404
61.7841 1600 40
61.9013 1532 39.1408
62.0185 1526 39.064
62.1357 1419 37.6696
62.253 1516 38.9358
62.3702 1574 39.6737
62.4875 1720 41.4729
62.6049 1750 41.833
62.7222 1839 42.8836
62.8396 1769 42.0595
62.9569 1776 42.1426
63.0743 1810 42.5441
63.1918 1838 42.8719
63.3092 1740 41.7133
63.4267 1605 40.0625
63.5441 1708 41.328
63.6616 1601 40.0125
63.7791 1559 39.4842
63.8966 1446 38.0263
64.0142 1464 38.2623
64.1317 1391 37.2961
64.2492 1383 37.1887
64.3668 1465 38.2753
64.4843 1519 38.9744
64.6019 1540 39.2428
64.7195 1608 40.0999
64.837 1693 41.1461
64.9546 1650 40.6202
65.0722 1697 41.1947
65.1898 1594 39.9249
65.3074 1569 39.6106
65.4249 1439 37.9342
65.5425 1356 36.8239
65.6601 1359 36.8646
65.7777 1348 36.7151
65.8952 1376 37.0945
66.0128 1492 38.6264
66.1304 1618 40.2244
66.2479 1612 40.1497
66.3655 1652 40.6448
66.483 1685 41.0488
66.6005 1736 41.6653
66.718 1686 41.0609
66.8355 1689 41.0974
66.953 1653 40.6571
67.0705 1680 40.9878
67.1879 1524 39.0384
67.3054 1522 39.0128
67.4228 1530 39.1152
67.5402 1424 37.7359
67.6576 1302 36.0832
67.7749 1304 36.1109
67.8923 1310 36.1939
68.0096 1339 36.5923
68.1269 1461 38.223
68.2442 1504 38.7814
68.3614 1522 39.0128
68.4787 1609 40.1123
68.5958 1657 40.7063
68.713 1572 39.6485
68.8302 1587 39.8372
68.9473 1588 39.8497
69.0643 1558 39.4715
69.1814 1360 36.8782
69.2984 1370 37.0135
69.4154 1434 37.8682
69.5323 1483 38.5097
69.6492 1561 39.5095
69.7661 1555 39.4335
69.8829 1681 41
69.9997 1778 42.1663
70.1165 1749 41.821
70.2332 1754 41.8808
70.3499 1864 43.1741
70.4665 1745 41.7732
70.5831 1697 41.1947
70.6996 1721 41.4849
70.8161 1643 40.5339
70.9326 1555 39.4335
71.049 1558 39.4715
71.1653 1499 38.7169
71.2817 1326 36.4143
71.3979 1343 36.647
71.5141 1324 36.3868
71.6303 1288 35.8887
71.7464 1253 35.3977
71.8624 0 1
71.9784 0 1
72.0944 0 1
72.2102 0 1
72.3261 0 1
72.4418 0 1
72.5575 0 1
72.6732 0 1
75.1054 0 1
75.2209 0 1
75.3365 0 1
75.4521 0 1
75.5678 0 1
75.6835 0 1
75.7993 0 1
75.9151 0 1
76.031 0 1
76.147 1431 37.8286
76.263 1573 39.6611
76.3791 1550 39.37
76.4952 1435 37.8814
76.6113 1332 36.4966
76.7276 1336 36.5513
76.8438 1358 36.8511
76.9601 1357 36.8375
77.0765 1356 36.8239
77.1929 1529 39.1024
77.3093 1563 39.5348
77.4258 1681 41
77.5423 1658 40.7185
77.6589 1673 40.9023
77.7755 1670 40.8656
77.8921 1583 39.7869
78.0088 1479 38.4578
78.1256 1357 36.8375
78.2423 1314 36.2491
78.3591 1285 35.8469
78.4759 1312 36.2215
78.5928 1417 37.6431
78.7097 1546 39.3192
78.8266 1630 40.3733
78.9436 1632 40.398
79.0606 1684 41.0366
79.1776 1663 40.7799
79.2946 1704 41.2795
79.4117 1611 40.1373
79.5288 1681 41
79.6459 1722 41.497
79.7631 1630 40.3733
79.8802 1685 41.0488
79.9974 1507 38.8201
80.1147 1445 38.0132
80.2319 1375 37.081
80.3491 1296 36
80.4664 1274 35.6931
80.5837 1239 35.1994
80.701 1380 37.1484
80.8183 1427 37.7757
80.9357 1510 38.8587
81.053 1476 38.4187
81.1704 1587 39.8372
81.2877 1570 39.6232
81.4051 1554 39.4208
81.5225 1546 39.3192
81.6399 1450 38.0789
81.7573 1386 37.229
81.8747 1219 34.9142
81.9922 1122 33.4963
82.1096 1203 34.6843
82.227 1355 36.8103
82.3444 1398 37.3898
82.4619 1549 39.3573
82.5793 1482 38.4968
82.6967 1540 39.2428
82.8142 1498 38.704
82.9316 1588 39.8497
83.049 1637 40.4599
83.1664 1593 39.9124
83.2838 1447 38.0395
83.4012 1441 37.9605
83.5186 1472 38.3667
83.636 1342 36.6333
83.7534 1353 36.7831
83.8708 1216 34.8712
83.9881 1139 33.7491
84.1055 1102 33.1964
84.2228 1206 34.7275
84.3401 1294 35.9722
84.4575 1337 36.565
84.5747 1407 37.51
84.692 1437 37.9078
84.8093 1439 37.9342
84.9265 1429 37.8021
85.0437 1487 38.5616
85.1609 1373 37.054
85.2781 1328 36.4417
85.3952 1175 34.2783
85.5123 1209 34.7707
85.6294 1130 33.6155
85.7465 1241 35.2278
85.8636 1337 36.565
85.9806 1507 38.8201
86.0976 1523 39.0256
86.2145 1638 40.4722
86.3315 1627 40.3361
86.4484 1654 40.6694
86.5652 1770 42.0714
86.682 1729 41.5812
86.7988 1611 40.1373
86.9156 1641 40.5093
87.0323 1640 40.4969
87.149 1625 40.3113
87.2657 1561 39.5095
87.3823 1456 38.1576
87.4988 1285 35.8469
87.6154 1390 37.2827
87.7318 1363 36.9188
87.8483 1443 37.9868
87.9647 1534 39.1663
88.081 1659 40.7308
88.1973 1702 41.2553
88.3136 1715 41.4126
88.4298 1695 41.1704
88.546 1677 40.9512
88.6621 1641 40.5093
88.7781 1535 39.1791
88.8942 0 1
89.0101 0 1
89.126 0 1
89.2419 0 1
89.3577 0 1
89.4734 0 1
89.5891 0 1
89.7047 0 1
89.8203 0 1
89.9358 0 1
92.3269 0 1
92.4424 0 1
92.558 0 1
92.6736 0 1
92.7893 0 1
92.905 0 1
93.0208 0 1
93.1366 0 1
93.2525 0 1
93.3685 0 1
93.4845 0 1
93.6005 1669 40.8534
93.7167 1675 40.9268
93.8328 1709 41.3401
93.949 1686 41.0609
94.0653 1646 40.5709
94.1816 1653 40.6571
94.2979 1525 39.0512
94.4143 1480 38.4708
94.5307 1423 37.7227
94.6472 1343 36.647
94.7637 1295 35.9861
94.8803 1547 39.3319
94.9969 1658 40.7185
95.1135 1696 41.1825
95.2302 1767 42.0357
95.3469 1778 42.1663
95.4637 1857 43.0929
95.5805 1857 43.0929
95.6973 1878 43.3359
95.8142 1925 43.8748
95.9311 1860 43.1277
96.048 1807 42.5088
96.1649 1761 41.9643
96.2819 1742 41.7373
96.3989 1674 40.9145
96.516 1641 40.5093
96.633 1476 38.4187
96.7501 1438 37.921
96.8673 1439 37.9342
96.9844 1528 39.0896
97.1016 1667 40.8289
97.2188 1718 41.4488
97.336 1778 42.1663
97.4532 1888 43.4511
97.5704 1868 43.2204
97.6877 1811 42.5558
97.805 1768 42.0476
97.9223 1635 40.4351
98.0396 1579 39.7366
98.1569 1512 38.8844
98.2743 1404 37.47
98.3916 1488 38.5746
98.509 1488 38.5746
98.6264 1691 41.1218
98.7438 1780 42.19
98.8612 1871 43.2551
98.9786 1927 43.8976
99.096 1922 43.8406
99.2134 2054 45.3211
99.3308 2024 44.9889
99.4482 2005 44.7772
99.5656 1949 44.1475
99.6831 1950 44.1588
99.8005 1916 43.7721
99.9179 1955 44.2154
100.035 1848 42.9884
100.153 1756 41.9047
100.27 1607 40.0874
100.388 1637 40.4599
100.505 1663 40.7799
100.622 1772 42.0951
100.74 1879 43.3474
100.857 2022 44.9667
100.975 2099 45.8148
101.092 2050 45.2769
101.209 1996 44.6766
101.327 1976 44.4522
101.444 1920 43.8178
101.561 1715 41.4126
101.679 1650 40.6202
101.796 1486 38.5487
101.913 1627 40.3361
102.03 1630 40.3733
102.148 1802 42.45
102.265 2079 45.5961
102.382 1863 43.1625
102.499 2142 46.2817
102.616 2074 45.5412
102.733 2214 47.0532
102.851 2237 47.2969
102.968 2210 47.0106
103.085 2235 47.2758
103.202 2130 46.1519
103.319 2149 46.3573
103.436 2093 45.7493
103.552 2066 45.4533
103.669 1918 43.795
103.786 1824 42.7083
103.903 1759 41.9404
104.02 1855 43.0697
104.137 1947 44.1248
104.253 2080 45.607
104.37 2156 46.4327
104.487 2252 47.4552
104.603 2212 47.0319
104.72 2204 46.9468
104.836 2177 46.6583
104.953 2065 45.4423
105.069 1880 43.359
105.186 1806 42.4971
105.302 1669 40.8534
105.418 1724 41.5211
105.535 1916 43.7721
105.651 2015 44.8888
105.767 2163 46.5081
105.883 2242 47.3498
105.999 2358 48.5592
106.115 0 1
106.231 0 1
106.347 0 1
106.463 0 1
106.579 0 1
106.694 0 1
106.81 0 1
106.926 0 1
107.041 0 1
107.157 0 1
109.576 0 1
109.692 0 1
109.807 0 1
109.923 0 1
110.039 0 1
110.155 0 1
110.27 0 1
110.386 0 1
110.502 0 1
110.618 1780 42.19
110.735 1927 43.8976
110.851 2027 45.0222
110.967 2052 45.299
111.083 2208 46.9894
111.199 2251 47.4447
111.316 2262 47.5605
111.432 2292 47.8748
111.549 2186 46.7547
111.665 2250 47.4342
111.782 2080 45.607
111.898 2113 45.9674
112.015 1985 44.5533
112.132 1896 43.5431
112.248 1791 42.3202
112.365 1716 41.4246
112.482 1786 42.2611
112.599 1880 43.359
112.716 1907 43.6692
112.832 2025 45
112.949 2107 45.9021
113.066 2124 46.0869
113.183 2016 44.8999
113.3 2095 45.7712
113.417 2057 45.3542
113.534 1873 43.2782
113.652 1809 42.5323
113.769 1684 41.0366
113.886 1618 40.2244
114.003 1568 39.598
114.12 1680 40.9878
114.238 1869 43.2319
114.355 1966 44.3396
114.472 2104 45.8694
114.589 2022 44.9667
114.707 2047 45.2438
114.824 2235 47.2758
114.942 2219 47.1063
115.059 2156 46.4327
115.176 2137 46.2277
115.294 2116 46
115.411 2147 46.3357
115.529 1982 44.5197
115.646 1896 43.5431
115.764 1916 43.7721
115.881 1779 42.1782
115.999 1699 41.2189
116.116 1745 41.7732
116.234 1850 43.0116
116.351 1938 44.0227
116.469 1976 44.4522
116.586 2074 45.5412
116.704 1999 44.7102
116.821 2067 45.4643
116.939 2033 45.0888
117.056 1868 43.2204
117.174 1748 41.8091
117.291 1641 40.5093
117.409 1616 40.1995
117.526 1616 40.1995
117.644 1635 40.4351
117.761 1849 43
117.879 1832 42.8019
117.996 1957 44.238
118.114 2019 44.9333
118.231 1973 44.4185
118.349 2102 45.8476
118.466 2102 45.8476
118.584 2113 45.9674
118.701 2105 45.8803
118.819 2104 45.8694
118.936 1993 44.643
119.053 1912 43.7264
119.171 2032 45.0777
119.288 1796 42.3792
119.405 1720 41.4729
119.523 1705 41.2916
119.64 1696 41.1825
119.757 1652 40.6448
119.875 1725 41.5331
119.992 1875 43.3013
120.109 1893 43.5086
120.226 1979 44.486
120.343 2012 44.8553
120.46 1930 43.9318
120.578 1870 43.2435
120.695 1818 42.638
120.812 1650 40.6202
120.929 1527 39.0768
121.046 1609 40.1123
121.163 1445 38.0132
121.279 1536 39.1918
121.396 1647 40.5832
121.513 1750 41.833
121.63 1840 42.8952
121.747 1974 44.4297
121.863 1903 43.6234
121.98 1989 44.5982
122.097 1980 44.4972
122.213 1986 44.5646
122.33 1994 44.6542
122.446 1939 44.0341
122.563 2036 45.1221
122.679 1799 42.4146
122.795 1844 42.9418
122.912 1841 42.9069
123.028 1640 40.4969
123.144 1568 39.598
123.26 1574 39.6737
123.377 0 1
123.493 0 1
123.609 0 1
123.725 0 1
123.84 0 1
123.956 0 1
124.072 0 1
124.188 0 1
124.303 0 1
124.419 0 1
126.852 0 1
126.968 0 1
127.083 0 1
127.199 0 1
127.315 0 1
127.431 0 1
127.547 0 1
127.663 0 1
127.779 0 1
127.895 0 1
128.011 0 1
128.127 0 1
128.243 0 1
128.359 1739 41.7013
128.476 1665 40.8044
128.592 1668 40.8412
128.708 1729 41.5812
128.825 1863 43.1625
128.941 1905 43.6463
129.058 1916 43.7721
129.174 2040 45.1664
129.291 2003 44.7549
129.408 2015 44.8888
129.524 1877 43.3244
129.641 1748 41.8091
129.758 1721 41.4849
129.875 1677 40.9512
129.992 1572 39.6485
130.108 1633 40.4104
130.225 1646 40.5709
130.342 1673 40.9023
130.459 1745 41.7732
130.576 1859 43.1161
130.693 1830 42.7785
130.81 1892 43.4971
130.928 1969 44.3734
131.045 1960 44.2719
131.162 2015 44.8888
131.279 2000 44.7214
131.396 2033 45.0888
131.513 1966 44.3396
131.631 1930 43.9318
131.748 1870 43.2435
131.865 1785 42.2493
131.983 1682 41.0122
132.1 1665 40.8044
132.217 1698 41.2068
132.335 1819 42.6497
132.452 1948 44.1362
132.57 1942 44.0681
132.687 1896 43.5431
132.804 2072 45.5192
132.922 1966 44.3396
133.039 1916 43.7721
133.157 1843 42.9302
133.274 1737 41.6773
133.392 1576 39.6989
133.509 1579 39.7366
133.627 1560 39.4968
133.744 1594 39.9249
133.862 1629 40.3609
133.979 1806 42.4971
134.097 1793 42.3438
134.214 1916 43.7721
134.332 1909 43.6921
134.449 1964 44.317
134.567 1942 44.0681
134.684 2012 44.8553
134.802 1984 44.5421
134.919 2080 45.607
135.037 1995 44.6654
135.154 1954 44.2041
135.272 1863 43.1625
135.389 1873 43.2782
135.507 1710 41.3521
135.624 1647 40.5832
135.742 1692 41.1339
135.859 1755 41.8927
135.977 1868 43.2204
136.094 2021 44.9555
136.211 2003 44.7549
136.329 1929 43.9204
136.446 1986 44.5646
136.564 1973 44.4185
136.681 1889 43.4626
136.798 1851 43.0232
136.915 1735 41.6533
137.033 1645 40.5586
137.15 1565 39.5601
137.267 1569 39.6106
137.384 1560 39.4968
137.502 1711 41.3642
137.619 1696 41.1825
137.736 1678 40.9634
137.853 1736 41.6653
137.97 1966 44.3396
138.087 1899 43.5775
138.204 1974 44.4297
138.321 1957 44.238
138.438 2012 44.8553
138.555 1985 44.5533
138.672 2041 45.1774
138.788 1980 44.4972
138.905 1952 44.1814
139.022 1812 42.5676
139.139 1775 42.1307
139.255 1642 40.5216
139.372 1744 41.7612
139.488 1812 42.5676
139.605 1969 44.3734
139.721 2008 44.8107
139.838 2043 45.1996
139.954 2001 44.7325
140.071 2108 45.913
140.187 1959 44.2606
140.303 1895 43.5316
140.419 1792 42.332
140.535 1760 41.9524
140.652 1623 40.2865
140.768 0 1
140.884 0 1
141 0 1
141.115 0 1
141.231 0 1
141.347 0 1
141.463 0 1
141.578 0 1
141.694 0 1
144.104 0 1
144.219 0 1
144.335 0 1
144.45 0 1
144.566 0 1
144.682 0 1
144.798 0 1
144.914 0 1
145.03 0 1
145.146 1668 40.8412
145.262 1714 41.4005
145.378 1633 40.4104
145.494 1617 40.2119
145.61 1501 38.7427
145.726 1438 37.921
145.842 1433 37.855
145.959 1397 37.3765
146.075 1383 37.1887
146.192 1433 37.855
146.308 1581 39.7618
146.425 1500 38.7298
146.541 1639 40.4846
146.658 1639 40.4846
146.774 1708 41.328
146.891 1653 40.6571
147.008 1637 40.4599
147.125 1821 42.6732
147.241 1727 41.5572
147.358 1747 41.7971
147.475 1665 40.8044
147.592 1594 39.9249
147.709 1582 39.7744
147.826 1478 38.4448
147.943 1480 38.4708
148.06 1459 38.1969
148.177 1612 40.1497
148.294 1704 41.2795
148.411 1700 41.2311
148.528 1647 40.5832
148.645 1611 40.1373
148.762 1692 41.1339
148.88 1590 39.8748
148.997 1513 38.8973
149.114 1559 39.4842
149.231 1433 37.855
149.349 1380 37.1484
149.466 1317 36.2905
149.583 1260 35.4965
149.701 1316 36.2767
149.818 1431 37.8286
149.935 1442 37.9737
150.053 1442 37.9737
150.17 1548 39.3446
150.287 1639 40.4846
150.405 1542 39.2683
150.522 1622 40.2741
150.64 1573 39.6611
150.757 1620 40.2492
150.875 1673 40.9023
150.992 1650 40.6202
151.11 1597 39.9625
151.227 1611 40.1373
151.344 1474 38.3927
151.462 1412 37.5766
151.579 1416 37.6298
151.697 1444 38
151.814 1544 39.2938
151.932 1578 39.724
152.049 1652 40.6448
152.167 1653 40.6571
152.284 1709 41.3401
152.402 1668 40.8412
152.519 1562 39.5221
152.636 1515 38.923
152.754 1416 37.6298
152.871 1345 36.6742
152.989 1340 36.606
153.106 1381 37.1618
153.223 1291 35.9305
153.341 1273 35.6791
153.458 1456 38.1576
153.575 1482 38.4968
153.693 1460 38.2099
153.81 1536 39.1918
153.927 1492 38.6264
154.044 1631 40.3856
154.162 1602 40.025
154.279 1729 41.5812
154.396 1638 40.4722
154.513 1663 40.7799
154.63 1700 41.2311
154.747 1639 40.4846
154.864 1684 41.0366
154.981 1529 39.1024
155.098 1490 38.6005
155.215 1502 38.7556
155.332 1565 39.5601
155.449 1666 40.8167
155.566 1715 41.4126
155.683 1679 40.9756
155.8 1724 41.5211
155.917 1633 40.4104
156.033 1679 40.9756
156.15 0 1
156.267 0 1
156.383 0 1
156.5 0 1
156.617 0 1
156.733 0 1
156.85 0 1
156.966 0 1
157.082 0 1
157.199 0 1
157.315 0 1
157.431 0 1
157.547 0 1
157.664 0 1
157.78 0 1
157.896 0 1
158.012 0 1
158.128 0 1
158.244 0 1
158.359 0 1
158.475 0 1
158.591 0 1
158.706 0 1
