
6.15755 0 1
6.2731 0 1
6.3887 0 1
6.50437 0 1
6.62009 0 1
6.73587 0 1
6.8517 0 1
6.96759 0 1
7.08353 0 1
7.19952 0 1
7.31557 0 1
7.43166 0 1
7.54781 0 1
7.664 0 1
7.78024 0 1
7.89653 0 1
8.01286 0 1
8.12924 0 1
8.24567 0 1
8.36213 0 1
8.47864 0 1
8.59519 0 1
8.71178 0 1
8.82841 0 1
8.94508 0 1
9.06179 0 1
9.17853 0 1
9.29531 0 1
9.41212 0 1
9.52897 0 1
9.64584 0 1
9.76276 0 1
9.8797 0 1
9.99667 0 1
10.1137 0 1
10.2307 0 1
10.3478 0 1
10.4648 0 1
10.5819 0 1
10.6991 0 1
10.8162 0 1
10.9334 0 1
11.0506 0 1
11.1678 0 1
11.285 0 1
11.4023 0 1
11.5196 0 1
11.6369 0 1
11.7542 0 1
11.8715 0 1
11.9888 0 1
12.1062 0 1
12.2235 0 1
12.3409 0 1
12.4582 0 1
12.5756 0 1
12.693 0 1
12.8104 0 1
12.9278 0 1
13.0452 0 1
13.1626 0 1
13.28 0 1
13.3974 0 1
13.5149 0 1
13.6323 0 1
13.7497 0 1
13.8671 0 1
13.9845 0 1
14.1019 0 1
14.2193 0 1
14.3367 0 1
14.4541 0 1
14.5714 0 1
14.6888 0 1
14.8062 0 1
14.9235 0 1
15.0408 8725 93.4077
15.1581 9291 96.3898
15.2755 9235 96.0989
15.3927 9208 95.9583
15.51 9256 96.2081
15.6273 9271 96.286
15.7445 9340 96.6437
15.8617 9253 96.1925
15.9789 9339 96.6385
16.0961 9466 97.2934
16.2132 9677 98.3717
16.3304 10020 100.1
16.4475 10158 100.787
16.5646 10458 102.264
16.6816 10932 104.556
16.7986 11083 105.276
16.9156 11501 107.243
17.0326 11534 107.396
17.1496 11926 109.206
17.2665 12085 109.932
17.3833 12655 112.494
17.5002 12727 112.814
17.617 12917 113.653
17.7338 12598 112.241
17.8505 12514 111.866
17.9672 12557 112.058
18.0839 11856 108.885
18.2005 11465 107.075
18.3171 11603 107.717
18.4337 12048 109.763
18.5502 12754 112.934
18.6666 12663 112.53
18.7831 12909 113.618
18.8994 13016 114.088
19.0158 12995 113.996
19.1321 12334 111.059
19.2483 12237 110.621
19.3645 11893 109.055
19.4806 11814 108.692
19.5967 11540 107.424
19.7128 11471 107.103
19.8288 11176 105.717
19.9447 10029 100.145
20.0606 0 1
20.1764 0 1
20.2922 0 1
20.4079 0 1
20.5236 0 1
20.6392 0 1
20.7548 0 1
20.8702 0 1
23.3078 0 1
23.4233 0 1
23.539 0 1
23.6547 0 1
23.7704 0 1
23.8862 0 1
24.0021 0 1
24.118 0 1
24.234 0 1
24.35 0 1
24.4661 11591 107.662
24.5822 11821 108.724
24.6984 11725 108.282
24.8146 11508 107.275
24.9309 11277 106.193
25.0472 11275 106.184
25.1636 11292 106.264
25.28 11666 108.009
25.3965 11979 109.449
25.513 12377 111.252
25.6296 12990 113.974
25.7462 13214 114.952
25.8628 13136 114.612
25.9795 13429 115.884
26.0962 13696 117.03
26.213 13664 116.893
26.3298 13588 116.568
26.4466 13461 116.022
26.5635 13232 115.03
26.6804 12902 113.587
26.7973 12066 109.845
26.9143 11964 109.38
27.0313 12154 110.245
27.1483 12924 113.684
27.2653 13007 114.048
27.3824 13153 114.687
27.4996 13311 115.373
27.6167 12951 113.802
27.7339 12765 112.982
27.8511 12401 111.36
27.9683 12273 110.784
28.0855 12249 110.675
28.2028 11902 109.096
28.3201 11603 107.717
28.4374 11614 107.768
28.5547 11495 107.215
28.6721 11291 106.259
28.7894 11328 106.433
28.9068 11329 106.438
29.0242 11629 107.838
29.1416 12136 110.164
29.259 12466 111.651
29.3764 12662 112.526
29.4939 12857 113.389
29.6113 13143 114.643
29.7288 13288 115.274
29.8463 13049 114.232
29.9638 13019 114.101
30.0812 12944 113.772
30.1987 12408 111.391
30.3162 11587 107.643
30.4337 10969 104.733
30.5512 11322 106.405
30.6687 11711 108.217
30.7862 12484 111.732
30.9037 12663 112.53
31.0212 12934 113.728
31.1387 12630 112.383
31.2562 12627 112.37
31.3737 12352 111.14
31.4912 12066 109.845
31.6087 11696 108.148
31.7262 11871 108.954
31.8436 11523 107.345
31.9611 11251 106.071
32.0785 11102 105.366
32.1959 11072 105.224
32.3134 10931 104.551
32.4308 11015 104.952
32.5482 11506 107.266
32.6655 11734 108.324
32.7829 11637 107.875
32.9002 12148 110.218
33.0176 12575 112.138
33.1349 13032 114.158
33.2522 12991 113.978
33.3694 12761 112.965
33.4867 12935 113.732
33.6039 12633 112.397
33.7211 12573 112.129
33.8383 12029 109.677
33.9554 11524 107.35
34.0725 10819 104.014
34.1896 10515 102.543
34.3067 10902 104.413
34.4237 11488 107.182
34.5407 11898 109.078
34.6577 12177 110.349
34.7746 12127 110.123
34.8915 12025 109.659
35.0084 11975 109.43
35.1252 11625 107.819
35.242 11613 107.764
35.3587 11506 107.266
35.4755 11298 106.292
35.5921 11225 105.948
35.7088 10927 104.532
35.8254 10765 103.755
35.9419 10651 103.204
36.0584 10405 102.005
36.1749 10573 102.825
36.2913 10734 103.605
36.4077 10950 104.642
36.524 11197 105.816
36.6403 11511 107.289
36.7565 12021 109.64
36.8727 12124 110.109
36.9889 12296 110.887
37.1049 11944 109.289
37.221 0 1
37.3369 0 1
37.4529 0 1
37.5687 0 1
37.6845 0 1
37.8003 0 1
37.916 0 1
38.0316 0 1
38.1472 0 1
40.5851 0 1
40.7008 0 1
40.8164 0 1
40.9322 0 1
41.048 0 1
41.1639 0 1
41.2798 0 1
41.3958 0 1
41.5118 0 1
41.6279 0 1
41.744 8390 91.5969
41.8602 9356 96.7264
41.9765 9884 99.4183
42.0928 9938 99.6895
42.2091 10214 101.064
42.3255 10017 100.085
42.4419 10320 101.587
42.5584 10287 101.425
42.675 9685 98.4124
42.7915 9166 95.7392
42.9081 8461 91.9837
43.0248 8290 91.0494
43.1415 8502 92.2063
43.2582 8976 94.7418
43.375 9209 95.9635
43.4918 9311 96.4935
43.6087 9345 96.6695
43.7256 9205 95.9427
43.8425 9311 96.4935
43.9595 9110 95.4463
44.0765 8733 93.4505
44.1935 8557 92.5041
44.3106 8453 91.9402
44.4277 8159 90.3272
44.5448 7854 88.6228
44.6619 7608 87.2238
44.7791 7400 86.0233
44.8963 7209 84.9058
45.0136 7017 83.7675
45.1308 7022 83.7974
45.2481 7317 85.5395
45.3654 7474 86.4523
45.4827 7708 87.7952
45.6001 7775 88.176
45.7174 7889 88.82
45.8348 7811 88.3799
45.9522 7753 88.0511
46.0697 7710 87.8066
46.1871 7446 86.2902
46.3046 7193 84.8116
46.422 6547 80.9135
46.5395 6137 78.339
46.657 6173 78.5684
46.7745 6308 79.4229
46.892 6805 82.4924
47.0096 6787 82.3833
47.1271 6929 83.2406
47.2446 6970 83.4865
47.3622 6921 83.1925
47.4797 6834 82.668
47.5973 6775 82.3104
47.7149 6546 80.9074
47.8324 6455 80.343
47.95 6353 79.7057
48.0675 6134 78.3199
48.1851 6105 78.1345
48.3027 5764 75.921
48.4202 5723 75.6505
48.5378 5539 74.4245
48.6554 5683 75.3857
48.7729 5788 76.0789
48.8904 6016 77.5629
49.008 6054 77.8075
49.1255 6310 79.4355
49.243 6788 82.3893
49.3605 6772 82.2922
49.478 6695 81.823
49.5955 6728 82.0244
49.713 6553 80.9506
49.8304 6109 78.1601
49.9479 5903 76.831
50.0653 5600 74.8331
50.1827 5561 74.5721
50.3001 5780 76.0263
50.4175 6411 80.0687
50.5348 6652 81.5598
50.6521 7036 83.8809
50.7694 7016 83.7616
50.8867 7273 85.2819
51.004 7338 85.6621
51.1212 7553 86.908
51.2384 7610 87.2353
51.3556 7570 87.0057
51.4727 7605 87.2067
51.5899 7368 85.8371
51.707 7406 86.0581
51.824 7208 84.8999
51.9411 7107 84.303
52.0581 7285 85.3522
52.175 7417 86.122
52.2919 7748 88.0227
52.4088 8017 89.5377
52.5257 8390 91.5969
52.6425 8902 94.3504
52.7593 9099 95.3887
52.876 9209 95.9635
52.9927 9334 96.6126
53.1094 9548 97.7139
53.226 9301 96.4417
53.3426 9314 96.5091
53.4591 9094 95.3625
53.5756 8311 91.1647
53.692 7867 88.6961
53.8084 7708 87.7952
53.9248 8213 90.6256
54.0411 8837 94.0053
54.1573 9022 94.9842
54.2735 0 1
54.3896 0 1
54.5057 0 1
54.6217 0 1
54.7377 0 1
54.8537 0 1
54.9695 0 1
55.0853 0 1
55.2011 0 1
55.3168 0 1
55.4324 0 1
57.824 0 1
57.9396 0 1
58.0553 0 1
58.1711 0 1
58.2869 0 1
58.4028 0 1
58.5187 0 1
58.6347 0 1
58.7508 0 1
58.8669 0 1
58.983 9242 96.1353
59.0992 10010 100.05
59.2155 10752 103.692
59.3318 11280 106.207
59.4482 11728 108.296
59.5646 11917 109.165
59.681 12136 110.164
59.7975 12167 110.304
59.9141 11787 108.568
60.0306 11872 108.959
60.1473 11544 107.443
60.2639 11216 105.906
60.3807 11036 105.052
60.4974 10813 103.986
60.6142 10212 101.054
60.731 10054 100.27
60.8479 9870 99.3479
60.9648 9878 99.3881
61.0818 10424 102.098
61.1987 10787 103.86
61.3158 11111 105.409
61.4328 11423 106.878
61.5499 11546 107.452
61.667 11455 107.028
61.7841 11389 106.719
61.9013 11168 105.679
62.0185 10658 103.238
62.1357 10157 100.782
62.253 9422 97.067
62.3702 9361 96.7523
62.4875 9499 97.4628
62.6049 10123 100.613
62.7222 10277 101.376
62.8396 10980 104.785
62.9569 11243 106.033
63.0743 11298 106.292
63.1918 11509 107.28
63.3092 11324 106.414
63.4267 11278 106.198
63.5441 11267 106.146
63.6616 11091 105.314
63.7791 10681 103.349
63.8966 10532 102.626
64.0142 9994 99.97
64.1317 9682 98.3972
64.2492 9108 95.4358
64.3668 8973 94.7259
64.4843 9483 97.3807
64.6019 9490 97.4166
64.7195 9921 99.6042
64.837 10590 102.908
64.9546 10683 103.359
65.0722 11026 105.005
65.1898 10918 104.489
65.3074 11188 105.773
65.4249 10799 103.918
65.5425 10451 102.23
65.6601 9923 99.6143
65.7777 9161 95.7131
65.8952 8712 93.3381
66.0128 8521 92.3093
66.1304 9019 94.9684
66.2479 9699 98.4835
66.3655 10097 100.484
66.483 10524 102.587
66.6005 10636 103.131
66.718 11116 105.432
66.8355 11203 105.844
66.953 10901 104.408
67.0705 10963 104.704
67.1879 10823 104.034
67.3054 10635 103.126
67.4228 10460 102.274
67.5402 10133 100.663
67.6576 9933 99.6644
67.7749 9198 95.9062
67.8923 9030 95.0263
68.0096 8568 92.5635
68.1269 9015 94.9474
68.2442 9223 96.0365
68.3614 9761 98.7978
68.4787 10223 101.109
68.5958 10860 104.211
68.713 11136 105.527
68.8302 11067 105.2
68.9473 11438 106.949
69.0643 11293 106.269
69.1814 10950 104.642
69.2984 10366 101.814
69.4154 9676 98.3667
69.5323 9002 94.8789
69.6492 8741 93.4933
69.7661 9437 97.1442
69.8829 10013 100.065
69.9997 10557 102.747
70.1165 11004 104.9
70.2332 11706 108.194
70.3499 11517 107.317
70.4665 11963 109.375
70.5831 11926 109.206
70.6996 11923 109.192
70.8161 11764 108.462
70.9326 11471 107.103
71.049 11386 106.705
71.1653 10908 104.441
71.2817 10611 103.01
71.3979 9959 99.7948
71.5141 9449 97.206
71.6303 8770 93.6483
71.7464 8307 91.1427
71.8624 0 1
71.9784 0 1
72.0944 0 1
72.2102 0 1
72.3261 0 1
72.4418 0 1
72.5575 0 1
72.6732 0 1
75.1054 0 1
75.2209 0 1
75.3365 0 1
75.4521 0 1
75.5678 0 1
75.6835 0 1
75.7993 0 1
75.9151 0 1
76.031 0 1
76.147 10552 102.723
76.263 10775 103.803
76.3791 10826 104.048
76.4952 10641 103.155
76.6113 9996 99.98
76.7276 9626 98.1122
76.8438 9250 96.1769
76.9601 9289 96.3795
77.0765 9535 97.6473
77.1929 10134 100.668
77.3093 10942 104.604
77.4258 11473 107.112
77.5423 11795 108.605
77.6589 11676 108.056
77.7755 11915 109.156
77.8921 11631 107.847
78.0088 11337 106.475
78.1256 10341 101.691
78.2423 9668 98.326
78.3591 8777 93.6856
78.4759 8590 92.6823
78.5928 8745 93.5147
78.7097 9436 97.1391
78.8266 10147 100.732
78.9436 11114 105.423
79.0606 11157 105.627
79.1776 11128 105.489
79.2946 11637 107.875
79.4117 11785 108.559
79.5288 11572 107.573
79.6459 11676 108.056
79.7631 11193 105.797
79.8802 11324 106.414
79.9974 10739 103.629
80.1147 10596 102.937
80.2319 10010 100.05
80.3491 9417 97.0412
80.4664 9232 96.0833
80.5837 9155 95.6818
80.701 9409 97
80.8183 9958 99.7898
80.9357 10796 103.904
81.053 11289 106.25
81.1704 11511 107.289
81.2877 11635 107.866
81.4051 11448 106.995
81.5225 11608 107.74
81.6399 11049 105.114
81.7573 10714 103.508
81.8747 9620 98.0816
81.9922 8814 93.8829
82.1096 8490 92.1412
82.227 8696 93.2523
82.3444 9653 98.2497
82.4619 10257 101.277
82.5793 10984 104.805
82.6967 10977 104.771
82.8142 11421 106.869
82.9316 11754 108.416
83.049 11675 108.051
83.1664 11649 107.931
83.2838 11565 107.541
83.4012 11686 108.102
83.5186 11356 106.565
83.636 10994 104.852
83.7534 10798 103.913
83.8708 10289 101.435
83.9881 9652 98.2446
84.1055 9053 95.1473
84.2228 9072 95.247
84.3401 9366 96.7781
84.4575 10024 100.12
84.5747 10902 104.413
84.692 11574 107.583
84.8093 12029 109.677
84.9265 11868 108.94
85.0437 12111 110.05
85.1609 11734 108.324
85.2781 11153 105.608
85.3952 10106 100.529
85.5123 9527 97.6064
85.6294 9130 95.551
85.7465 9056 95.163
85.8636 9578 97.8673
85.9806 10449 102.22
86.0976 11076 105.243
86.2145 11794 108.6
86.3315 12036 109.709
86.4484 12167 110.304
86.5652 12441 111.539
86.682 12436 111.517
86.7988 12512 111.857
86.9156 12616 112.321
87.0323 12373 111.234
87.149 12002 109.554
87.2657 11989 109.494
87.3823 11463 107.065
87.4988 10795 103.899
87.6154 10179 100.891
87.7318 9777 98.8787
87.8483 10098 100.489
87.9647 10701 103.446
88.081 11493 107.205
88.1973 12435 111.512
88.3136 12678 112.597
88.4298 12748 112.907
88.546 12706 112.721
88.6621 12493 111.772
88.7781 12015 109.613
88.8942 0 1
89.0101 0 1
89.126 0 1
89.2419 0 1
89.3577 0 1
89.4734 0 1
89.5891 0 1
89.7047 0 1
89.8203 0 1
89.9358 0 1
92.3269 0 1
92.4424 0 1
92.558 0 1
92.6736 0 1
92.7893 0 1
92.905 0 1
93.0208 0 1
93.1366 0 1
93.2525 0 1
93.3685 0 1
93.4845 0 1
93.6005 12173 110.331
93.7167 12002 109.554
93.8328 12237 110.621
93.949 11871 108.954
94.0653 11539 107.42
94.1816 10695 103.417
94.2979 10100 100.499
94.4143 9762 98.8028
94.5307 9532 97.632
94.6472 9805 99.0202
94.7637 10522 102.577
94.8803 11150 105.594
94.9969 11538 107.415
95.1135 11801 108.632
95.2302 12209 110.494
95.3469 12210 110.499
95.4637 12425 111.467
95.5805 12757 112.947
95.6973 12661 112.521
95.8142 12847 113.345
95.9311 12790 113.093
96.048 12405 111.378
96.1649 12142 110.191
96.2819 11661 107.986
96.3989 11011 104.933
96.516 10520 102.567
96.633 9973 99.8649
96.7501 10085 100.424
96.8673 10406 102.01
96.9844 11249 106.061
97.1016 11670 108.028
97.2188 12170 110.318
97.336 12801 113.142
97.4532 12363 111.189
97.5704 12351 111.135
97.6877 11971 109.412
97.805 11281 106.212
97.9223 10381 101.887
98.0396 10226 101.124
98.1569 9664 98.3056
98.2743 9630 98.1326
98.3916 9936 99.6795
98.509 10631 103.107
98.6264 11010 104.929
98.7438 11484 107.163
98.8612 11811 108.678
98.9786 12046 109.754
99.096 12208 110.49
99.2134 12297 110.892
99.3308 12484 111.732
99.4482 12250 110.68
99.5656 12328 111.032
99.6831 12126 110.118
99.8005 11731 108.31
99.9179 11395 106.747
100.035 10730 103.586
100.153 10103 100.514
100.27 9554 97.7446
100.388 10126 100.628
100.505 10484 102.391
100.622 11470 107.098
100.74 12083 109.923
100.857 12278 110.806
100.975 12276 110.797
101.092 12433 111.503
101.209 12179 110.359
101.327 11651 107.94
101.444 11109 105.399
101.561 10401 101.985
101.679 9956 99.7798
101.796 9630 98.1326
101.913 9696 98.4683
102.03 10126 100.628
102.148 11021 104.981
102.265 10743 103.648
102.382 12921 113.671
102.499 12399 111.351
102.616 12678 112.597
102.733 12878 113.481
102.851 12828 113.261
102.968 13138 114.621
103.085 13030 114.149
103.202 12945 113.776
103.319 12737 112.858
103.436 12354 111.149
103.552 11669 108.023
103.669 10706 103.47
103.786 10316 101.568
103.903 10697 103.426
104.02 11451 107.009
104.137 12304 110.923
104.253 12920 113.666
104.37 13136 114.612
104.487 13543 116.374
104.603 13529 116.314
104.72 13069 114.32
104.836 12523 111.906
104.953 11658 107.972
105.069 11030 105.024
105.186 10600 102.956
105.302 10165 100.822
105.418 10739 103.629
105.535 11487 107.177
105.651 11977 109.439
105.767 12448 111.571
105.883 12716 112.765
105.999 13136 114.612
106.115 0 1
106.231 0 1
106.347 0 1
106.463 0 1
106.579 0 1
106.694 0 1
106.81 0 1
106.926 0 1
107.041 0 1
107.157 0 1
109.576 0 1
109.692 0 1
109.807 0 1
109.923 0 1
110.039 0 1
110.155 0 1
110.27 0 1
110.386 0 1
110.502 0 1
110.618 10089 100.444
110.735 10591 102.913
110.851 11144 105.565
110.967 11373 106.644
111.083 11586 107.638
111.199 11505 107.261
111.316 11787 108.568
111.432 11703 108.18
111.549 11692 108.13
111.665 11533 107.392
111.782 11133 105.513
111.898 10823 104.034
112.015 10158 100.787
112.132 9375 96.8246
112.248 8835 93.9947
112.365 8994 94.8367
112.482 9801 99
112.599 10233 101.158
112.716 10784 103.846
112.832 10732 103.595
112.949 10732 103.595
113.066 10695 103.417
113.183 10554 102.733
113.3 9973 99.8649
113.417 9302 96.4469
113.534 8612 92.8009
113.652 8451 91.9293
113.769 8124 90.1332
113.886 7834 88.5099
114.003 8352 91.3893
114.12 8779 93.6963
114.238 8859 94.1223
114.355 9164 95.7288
114.472 9578 97.8673
114.589 9300 96.4365
114.707 9707 98.5241
114.824 9469 97.3088
114.942 9404 96.9742
115.059 9348 96.6851
115.176 9192 95.8749
115.294 8983 94.7787
115.411 8533 92.3742
115.529 8383 91.5587
115.646 7472 86.4407
115.764 6972 83.4985
115.881 7008 83.7138
115.999 7254 85.1704
116.116 7797 88.3006
116.234 8189 90.4931
116.351 8247 90.813
116.469 8092 89.9555
116.586 8017 89.5377
116.704 8083 89.9055
116.821 7654 87.4871
116.939 7202 84.8646
117.056 6952 83.3787
117.174 6573 81.074
117.291 6239 78.9873
117.409 6046 77.756
117.526 6243 79.0127
117.644 6507 80.666
117.761 6904 83.0903
117.879 7119 84.3742
117.996 7200 84.8528
118.114 7707 87.7895
118.231 7757 88.0738
118.349 7684 87.6584
118.466 7797 88.3006
118.584 7888 88.8144
118.701 7762 88.1022
118.819 7752 88.0454
118.936 7735 87.9488
119.053 7490 86.5448
119.171 7211 84.9176
119.288 6769 82.2739
119.405 6467 80.4177
119.523 6519 80.7403
119.64 7097 84.2437
119.757 7500 86.6025
119.875 7697 87.7325
119.992 8113 90.0722
120.109 8254 90.8515
120.226 8100 90
120.343 8136 90.1998
120.46 7959 89.2132
120.578 7759 88.0852
120.695 7556 86.9253
120.812 7056 84
120.929 6837 82.6862
121.046 6679 81.7251
121.163 6691 81.7985
121.279 7268 85.2526
121.396 7702 87.761
121.513 7905 88.9101
121.63 8317 91.1976
121.747 8565 92.5473
121.863 8672 93.1236
121.98 8804 93.8296
122.097 9172 95.7706
122.213 9141 95.6086
122.33 9243 96.1405
122.446 9067 95.2208
122.563 9201 95.9218
122.679 9144 95.6243
122.795 9014 94.9421
122.912 8644 92.9731
123.028 8081 89.8944
123.144 7710 87.8066
123.26 7901 88.8876
123.377 0 1
123.493 0 1
123.609 0 1
123.725 0 1
123.84 0 1
123.956 0 1
124.072 0 1
124.188 0 1
124.303 0 1
124.419 0 1
126.852 0 1
126.968 0 1
127.083 0 1
127.199 0 1
127.315 0 1
127.431 0 1
127.547 0 1
127.663 0 1
127.779 0 1
127.895 0 1
128.011 0 1
128.127 0 1
128.243 0 1
128.359 9465 97.2882
128.476 9127 95.5353
128.592 9478 97.355
128.708 9911 99.554
128.825 10752 103.692
128.941 11089 105.304
129.058 11161 105.646
129.174 11138 105.537
129.291 11005 104.905
129.408 10896 104.384
129.524 10195 100.97
129.641 9859 99.2925
129.758 9073 95.2523
129.875 8896 94.3186
129.992 8513 92.2659
130.108 8503 92.2117
130.225 8744 93.5094
130.342 9314 96.5091
130.459 9289 96.3795
130.576 9417 97.0412
130.693 9500 97.4679
130.81 9553 97.7394
130.928 9855 99.2724
131.045 10025 100.125
131.162 9993 99.965
131.279 10157 100.782
131.396 10099 100.494
131.513 9620 98.0816
131.631 9489 97.4115
131.748 9165 95.734
131.865 8853 94.0904
131.983 8282 91.0055
132.1 8396 91.6297
132.217 8825 93.9415
132.335 9414 97.0258
132.452 9569 97.8213
132.57 9504 97.4885
132.687 9155 95.6818
132.804 9680 98.387
132.922 9229 96.0677
133.039 8813 93.8776
133.157 8404 91.6733
133.274 8034 89.6326
133.392 7552 86.9022
133.509 7211 84.9176
133.627 7263 85.2232
133.744 7276 85.2995
133.862 7415 86.1104
133.979 7689 87.6869
134.097 7931 89.0562
134.214 7951 89.1684
134.332 7872 88.7243
134.449 8003 89.4595
134.567 8000 89.4427
134.684 7934 89.073
134.802 7950 89.1628
134.919 7926 89.0281
135.037 7810 88.3742
135.154 7509 86.6545
135.272 7195 84.8233
135.389 6943 83.3247
135.507 6575 81.0864
135.624 6363 79.7684
135.742 6743 82.1158
135.859 7087 84.1843
135.977 7240 85.0882
136.094 7311 85.5044
136.211 7128 84.4275
136.329 7054 83.9881
136.446 7121 84.386
136.564 6644 81.5107
136.681 6375 79.8436
136.798 6054 77.8075
136.915 5925 76.974
137.033 5693 75.452
137.15 5553 74.5185
137.267 5559 74.5587
137.384 5666 75.2728
137.502 5849 76.4788
137.619 5961 77.2075
137.736 6243 79.0127
137.853 6308 79.4229
137.97 6338 79.6116
138.087 6650 81.5475
138.204 6781 82.3468
138.321 6657 81.5904
138.438 6824 82.6075
138.555 6986 83.5823
138.672 6981 83.5524
138.788 7005 83.6959
138.905 6879 82.9397
139.022 6610 81.3019
139.139 6601 81.2465
139.255 6528 80.796
139.372 6923 83.2046
139.488 7526 86.7525
139.605 7807 88.3572
139.721 7963 89.2356
139.838 8022 89.5656
139.954 8236 90.7524
140.071 8144 90.2441
140.187 8219 90.6587
140.303 7734 87.9432
140.419 7472 86.4407
140.535 7346 85.7088
140.652 7098 84.2496
140.768 0 1
140.884 0 1
141 0 1
141.115 0 1
141.231 0 1
141.347 0 1
141.463 0 1
141.578 0 1
141.694 0 1
144.104 0 1
144.219 0 1
144.335 0 1
144.45 0 1
144.566 0 1
144.682 0 1
144.798 0 1
144.914 0 1
145.03 0 1
145.146 6626 81.4002
145.262 6831 82.6499
145.378 6646 81.523
145.494 6208 78.7909
145.61 6037 77.6981
145.726 5811 76.2299
145.842 5694 75.4586
145.959 5468 73.9459
146.075 5685 75.3989
146.192 5619 74.96
146.308 5629 75.0267
146.425 5920 76.9415
146.541 5902 76.8245
146.658 5756 75.8683
146.774 5731 75.7034
146.891 5932 77.0195
147.008 5663 75.2529
147.125 5781 76.0329
147.241 5918 76.9285
147.358 5583 74.7195
147.475 5545 74.4648
147.592 5371 73.2871
147.709 5181 71.9792
147.826 5014 70.8096
147.943 4917 70.1213
148.06 5056 71.1056
148.177 5204 72.1388
148.294 5522 74.3102
148.411 5561 74.5721
148.528 5457 73.8715
148.645 5316 72.9109
148.762 5097 71.3933
148.88 5188 72.0278
148.997 5129 71.617
149.114 4480 66.9328
149.231 4545 67.4166
149.349 4333 65.8255
149.466 4423 66.5056
149.583 4257 65.2457
149.701 4366 66.0757
149.818 4395 66.2948
149.935 4537 67.3573
150.053 4583 67.6979
150.17 4557 67.5056
150.287 4637 68.0955
150.405 4700 68.5565
150.522 4684 68.4398
150.64 4855 69.6778
150.757 4778 69.1231
150.875 4984 70.5975
150.992 4957 70.406
151.11 4940 70.2851
151.227 4746 68.8912
151.344 4581 67.6831
151.462 4292 65.5134
151.579 4563 67.55
151.697 4939 70.278
151.814 5120 71.5542
151.932 5157 71.8123
152.049 5216 72.2219
152.167 5309 72.8629
152.284 5326 72.9794
152.402 5228 72.3049
152.519 5183 71.9931
152.636 5063 71.1548
152.754 4981 70.5762
152.871 4862 69.728
152.989 4852 69.6563
153.106 4686 68.4544
153.223 4911 70.0785
153.341 4828 69.4838
153.458 4916 70.1142
153.575 5128 71.6101
153.693 5070 71.2039
153.81 5198 72.0972
153.927 5358 73.1984
154.044 5411 73.5595
154.162 5577 74.6793
154.279 5512 74.2428
154.396 5911 76.883
154.513 5907 76.857
154.63 5869 76.6094
154.747 5865 76.5833
154.864 6007 77.5048
154.981 5601 74.8398
155.098 5658 75.2197
155.215 5836 76.3937
155.332 6085 78.0064
155.449 6349 79.6806
155.566 6526 80.7837
155.683 6460 80.3741
155.8 6571 81.0617
155.917 6539 80.8641
156.033 6440 80.2496
156.15 0 1
156.267 0 1
156.383 0 1
156.5 0 1
156.617 0 1
156.733 0 1
156.85 0 1
156.966 0 1
157.082 0 1
157.199 0 1
157.315 0 1
157.431 0 1
157.547 0 1
157.664 0 1
157.78 0 1
157.896 0 1
158.012 0 1
158.128 0 1
158.244 0 1
158.359 0 1
158.475 0 1
158.591 0 1
158.706 0 1
