
6.15755 0 1
6.2731 0 1
6.3887 0 1
6.50437 0 1
6.62009 0 1
6.73587 0 1
6.8517 0 1
6.96759 0 1
7.08353 0 1
7.19952 0 1
7.31557 0 1
7.43166 0 1
7.54781 0 1
7.664 0 1
7.78024 0 1
7.89653 0 1
8.01286 0 1
8.12924 0 1
8.24567 0 1
8.36213 0 1
8.47864 0 1
8.59519 0 1
8.71178 0 1
8.82841 0 1
8.94508 0 1
9.06179 0 1
9.17853 0 1
9.29531 0 1
9.41212 0 1
9.52897 0 1
9.64584 0 1
9.76276 0 1
9.8797 0 1
9.99667 0 1
10.1137 0 1
10.2307 0 1
10.3478 0 1
10.4648 0 1
10.5819 0 1
10.6991 0 1
10.8162 0 1
10.9334 0 1
11.0506 0 1
11.1678 0 1
11.285 0 1
11.4023 0 1
11.5196 0 1
11.6369 0 1
11.7542 0 1
11.8715 0 1
11.9888 0 1
12.1062 0 1
12.2235 0 1
12.3409 0 1
12.4582 0 1
12.5756 0 1
12.693 0 1
12.8104 0 1
12.9278 0 1
13.0452 0 1
13.1626 0 1
13.28 0 1
13.3974 0 1
13.5149 0 1
13.6323 0 1
13.7497 0 1
13.8671 0 1
13.9845 0 1
14.1019 0 1
14.2193 0 1
14.3367 0 1
14.4541 0 1
14.5714 0 1
14.6888 0 1
14.8062 0 1
14.9235 0 1
15.0408 0 0
15.1581 0 0
15.2755 0 0
15.3927 0 0
15.51 0 0
15.6273 0 0
15.7445 0 0
15.8617 0 0
15.9789 0 0
16.0961 0 0
16.2132 0 0
16.3304 0 0
16.4475 0 0
16.5646 0 0
16.6816 0 0
16.7986 0 0
16.9156 0 0
17.0326 0 0
17.1496 0 0
17.2665 0 0
17.3833 0 0
17.5002 0 0
17.617 0 0
17.7338 0 0
17.8505 0 0
17.9672 0 0
18.0839 0 0
18.2005 0 0
18.3171 0 0
18.4337 0 0
18.5502 0 0
18.6666 0 0
18.7831 0 0
18.8994 0 0
19.0158 0 0
19.1321 0 0
19.2483 0 0
19.3645 0 0
19.4806 0 0
19.5967 0 0
19.7128 0 0
19.8288 0 0
19.9447 0 0
20.0606 0 1
20.1764 0 1
20.2922 0 1
20.4079 0 1
20.5236 0 1
20.6392 0 1
20.7548 0 1
20.8702 0 1
23.3078 0 1
23.4233 0 1
23.539 0 1
23.6547 0 1
23.7704 0 1
23.8862 0 1
24.0021 0 1
24.118 0 1
24.234 0 1
24.35 0 1
24.4661 1556 39.4462
24.5822 1473 38.3797
24.6984 1471 38.3536
24.8146 1502 38.7556
24.9309 1477 38.4318
25.0472 1453 38.1182
25.1636 1545 39.3065
25.28 1545 39.3065
25.3965 1553 39.4081
25.513 1581 39.7618
25.6296 1672 40.8901
25.7462 1825 42.72
25.8628 1702 41.2553
25.9795 1728 41.5692
26.0962 1661 40.7554
26.213 1735 41.6533
26.3298 1739 41.7013
26.4466 1686 41.0609
26.5635 1701 41.2432
26.6804 1640 40.4969
26.7973 1575 39.6863
26.9143 1542 39.2683
27.0313 1584 39.7995
27.1483 1634 40.4228
27.2653 1623 40.2865
27.3824 1809 42.5323
27.4996 1725 41.5331
27.6167 1738 41.6893
27.7339 1752 41.8569
27.8511 1661 40.7554
27.9683 1629 40.3609
28.0855 1620 40.2492
28.2028 1499 38.7169
28.3201 1499 38.7169
28.4374 1426 37.7624
28.5547 1364 36.9324
28.6721 1354 36.7967
28.7894 1434 37.8682
28.9068 1479 38.4578
29.0242 1566 39.5727
29.1416 1635 40.4351
29.259 1529 39.1024
29.3764 1661 40.7554
29.4939 1700 41.2311
29.6113 1580 39.7492
29.7288 1676 40.939
29.8463 1688 41.0853
29.9638 1666 40.8167
30.0812 1608 40.0999
30.1987 1561 39.5095
30.3162 1478 38.4448
30.4337 1621 40.2616
30.5512 1623 40.2865
30.6687 1614 40.1746
30.7862 1708 41.328
30.9037 1621 40.2616
31.0212 1722 41.497
31.1387 1684 41.0366
31.2562 1712 41.3763
31.3737 1629 40.3609
31.4912 1652 40.6448
31.6087 1580 39.7492
31.7262 1497 38.6911
31.8436 1475 38.4057
31.9611 1463 38.2492
32.0785 1395 37.3497
32.1959 1431 37.8286
32.3134 1396 37.3631
32.4308 1524 39.0384
32.5482 1573 39.6611
32.6655 1684 41.0366
32.7829 1647 40.5832
32.9002 1650 40.6202
33.0176 1688 41.0853
33.1349 1737 41.6773
33.2522 1722 41.497
33.3694 1761 41.9643
33.4867 1738 41.6893
33.6039 1726 41.5452
33.7211 1644 40.5463
33.8383 1699 41.2189
33.9554 1535 39.1791
34.0725 1568 39.598
34.1896 1626 40.3237
34.3067 1687 41.0731
34.4237 1708 41.328
34.5407 1653 40.6571
34.6577 1837 42.8602
34.7746 1817 42.6263
34.8915 1780 42.19
35.0084 1705 41.2916
35.1252 1741 41.7253
35.242 1638 40.4722
35.3587 1571 39.6358
35.4755 1501 38.7427
35.5921 1439 37.9342
35.7088 1298 36.0278
35.8254 1341 36.6197
35.9419 1402 37.4433
36.0584 1445 38.0132
36.1749 1518 38.9615
36.2913 1521 39
36.4077 1598 39.975
36.524 1602 40.025
36.6403 1662 40.7676
36.7565 1777 42.1545
36.8727 1684 41.0366
36.9889 1628 40.3485
37.1049 1656 40.694
37.221 0 1
37.3369 0 1
37.4529 0 1
37.5687 0 1
37.6845 0 1
37.8003 0 1
37.916 0 1
38.0316 0 1
38.1472 0 1
40.5851 0 1
40.7008 0 1
40.8164 0 1
40.9322 0 1
41.048 0 1
41.1639 0 1
41.2798 0 1
41.3958 0 1
41.5118 0 1
41.6279 0 1
41.744 1461 38.223
41.8602 1547 39.3319
41.9765 1520 38.9872
42.0928 1607 40.0874
42.2091 1592 39.8999
42.3255 1605 40.0625
42.4419 1563 39.5348
42.5584 1482 38.4968
42.675 1492 38.6264
42.7915 1513 38.8973
42.9081 1489 38.5876
43.0248 1433 37.855
43.1415 1541 39.2556
43.2582 1559 39.4842
43.375 1582 39.7744
43.4918 1566 39.5727
43.6087 1585 39.8121
43.7256 1564 39.5474
43.8425 1536 39.1918
43.9595 1533 39.1535
44.0765 1472 38.3667
44.1935 1433 37.855
44.3106 1336 36.5513
44.4277 1227 35.0286
44.5448 1109 33.3017
44.6619 1124 33.5261
44.7791 1182 34.3802
44.8963 1221 34.9428
45.0136 1256 35.4401
45.1308 1361 36.8917
45.2481 1388 37.2559
45.3654 1392 37.3095
45.4827 1324 36.3868
45.6001 1315 36.2629
45.7174 1363 36.9188
45.8348 1391 37.2961
45.9522 1343 36.647
46.0697 1329 36.4555
46.1871 1255 35.426
46.3046 1254 35.4119
46.422 1191 34.5109
46.5395 1279 35.7631
46.657 1264 35.5528
46.7745 1340 36.606
46.892 1245 35.2846
47.0096 1306 36.1386
47.1271 1249 35.3412
47.2446 1337 36.565
47.3622 1223 34.9714
47.4797 1239 35.1994
47.5973 1198 34.6121
47.7149 1144 33.8231
47.8324 1066 32.6497
47.95 1018 31.9061
48.0675 901 30.0167
48.1851 891 29.8496
48.3027 858 29.2916
48.4202 955 30.9031
48.5378 957 30.9354
48.6554 1030 32.0936
48.7729 1052 32.4345
48.8904 1112 33.3467
49.008 1131 33.6303
49.1255 1135 33.6898
49.243 1198 34.6121
49.3605 1187 34.4529
49.478 1105 33.2415
49.5955 1104 33.2265
49.713 1086 32.9545
49.8304 1058 32.5269
49.9479 1150 33.9116
50.0653 1237 35.171
50.1827 1260 35.4965
50.3001 1279 35.7631
50.4175 1332 36.4966
50.5348 1325 36.4005
50.6521 1437 37.9078
50.7694 1445 38.0132
50.8867 1406 37.4967
51.004 1467 38.3014
51.1212 1435 37.8814
51.2384 1439 37.9342
51.3556 1435 37.8814
51.4727 1309 36.1801
51.5899 1281 35.7911
51.707 1187 34.4529
51.824 1201 34.6554
51.9411 1261 35.5106
52.0581 1358 36.8511
52.175 1456 38.1576
52.2919 1563 39.5348
52.4088 1522 39.0128
52.5257 1628 40.3485
52.6425 1725 41.5331
52.7593 1697 41.1947
52.876 1658 40.7185
52.9927 1744 41.7612
53.1094 1642 40.5216
53.226 1683 41.0244
53.3426 1635 40.4351
53.4591 1661 40.7554
53.5756 1660 40.7431
53.692 1721 41.4849
53.8084 1776 42.1426
53.9248 1826 42.7317
54.0411 1832 42.8019
54.1573 1958 44.2493
54.2735 0 1
54.3896 0 1
54.5057 0 1
54.6217 0 1
54.7377 0 1
54.8537 0 1
54.9695 0 1
55.0853 0 1
55.2011 0 1
55.3168 0 1
55.4324 0 1
57.824 0 1
57.9396 0 1
58.0553 0 1
58.1711 0 1
58.2869 0 1
58.4028 0 1
58.5187 0 1
58.6347 0 1
58.7508 0 1
58.8669 0 1
58.983 2296 47.9166
59.0992 2366 48.6415
59.2155 2344 48.4149
59.3318 2390 48.8876
59.4482 2408 49.0714
59.5646 2358 48.5592
59.681 2377 48.7545
59.7975 2334 48.3115
59.9141 2141 46.2709
60.0306 2087 45.6837
60.1473 1964 44.317
60.2639 1832 42.8019
60.3807 1660 40.7431
60.4974 1616 40.1995
60.6142 1728 41.5692
60.731 1856 43.0813
60.8479 2030 45.0555
60.9648 2192 46.8188
61.0818 2198 46.8828
61.1987 2190 46.7974
61.3158 2219 47.1063
61.4328 2290 47.8539
61.5499 2256 47.4974
61.667 2299 47.9479
61.7841 2189 46.7868
61.9013 2111 45.9456
62.0185 2062 45.4093
62.1357 2213 47.0425
62.253 2274 47.6865
62.3702 2383 48.816
62.4875 2360 48.5798
62.6049 2458 49.5782
62.7222 2360 48.5798
62.8396 2402 49.0102
62.9569 2516 50.1597
63.0743 2416 49.1528
63.1918 2338 48.3529
63.3092 2302 47.9792
63.4267 2265 47.592
63.5441 2130 46.1519
63.6616 1995 44.6654
63.7791 1752 41.8569
63.8966 1671 40.8779
64.0142 1628 40.3485
64.1317 1764 42
64.2492 1875 43.3013
64.3668 1961 44.2832
64.4843 2184 46.7333
64.6019 2224 47.1593
64.7195 2232 47.244
64.837 2340 48.3735
64.9546 2241 47.3392
65.0722 2317 48.1352
65.1898 2332 48.2908
65.3074 2258 47.5184
65.4249 2111 45.9456
65.5425 2106 45.8912
65.6601 2195 46.8508
65.7777 2208 46.9894
65.8952 2272 47.6655
66.0128 2379 48.775
66.1304 2365 48.6313
66.2479 2404 49.0306
66.3655 2443 49.4267
66.483 2583 50.8232
66.6005 2490 49.8999
66.718 2316 48.1248
66.8355 2484 49.8397
66.953 2351 48.4871
67.0705 2314 48.1041
67.1879 2155 46.422
67.3054 1930 43.9318
67.4228 1659 40.7308
67.5402 1612 40.1497
67.6576 1715 41.4126
67.7749 1818 42.638
67.8923 1924 43.8634
68.0096 2131 46.1628
68.1269 2309 48.0521
68.2442 2398 48.9694
68.3614 2496 49.96
68.4787 2497 49.97
68.5958 2618 51.1664
68.713 2438 49.3761
68.8302 2482 49.8197
68.9473 2426 49.2544
69.0643 2377 48.7545
69.1814 2408 49.0714
69.2984 2364 48.621
69.4154 2497 49.97
69.5323 2524 50.2394
69.6492 2569 50.6853
69.7661 2679 51.7591
69.8829 2645 51.4296
69.9997 2772 52.6498
70.1165 2767 52.6023
70.2332 2804 52.9528
70.3499 2736 52.3068
70.4665 2703 51.9904
70.5831 2691 51.8748
70.6996 2568 50.6754
70.8161 2425 49.2443
70.9326 2258 47.5184
71.049 2110 45.9347
71.1653 1877 43.3244
71.2817 1685 41.0488
71.3979 1756 41.9047
71.5141 1802 42.45
71.6303 1979 44.486
71.7464 2041 45.1774
71.8624 0 1
71.9784 0 1
72.0944 0 1
72.2102 0 1
72.3261 0 1
72.4418 0 1
72.5575 0 1
72.6732 0 1
75.1054 0 1
75.2209 0 1
75.3365 0 1
75.4521 0 1
75.5678 0 1
75.6835 0 1
75.7993 0 1
75.9151 0 1
76.031 0 1
76.147 2342 48.3942
76.263 2403 49.0204
76.3791 2315 48.1144
76.4952 1995 44.6654
76.6113 1853 43.0465
76.7276 1976 44.4522
76.8438 2168 46.5618
76.9601 2365 48.6313
77.0765 2686 51.8266
77.1929 2909 53.9351
77.3093 2987 54.6535
77.4258 3030 55.0454
77.5423 3001 54.7814
77.6589 2989 54.6717
77.7755 3078 55.4797
77.8921 2993 54.7083
78.0088 2915 53.9907
78.1256 2904 53.8888
78.2423 2862 53.4977
78.3591 2779 52.7162
78.4759 2970 54.4977
78.5928 2957 54.3783
78.7097 3122 55.8749
78.8266 3310 57.5326
78.9436 3125 55.9017
79.0606 3297 57.4195
79.1776 3198 56.5509
79.2946 3276 57.2364
79.4117 3355 57.9224
79.5288 3161 56.2228
79.6459 3221 56.7539
79.7631 2985 54.6352
79.8802 2924 54.074
79.9974 2632 51.303
80.1147 2309 48.0521
80.2319 2084 45.6508
80.3491 1984 44.5421
80.4664 2275 47.697
80.5837 2579 50.7839
80.701 2889 53.7494
80.8183 3064 55.3534
80.9357 3168 56.285
81.053 3291 57.3672
81.1704 3219 56.7362
81.2877 3260 57.0964
81.4051 3378 58.1206
81.5225 3308 57.5152
81.6399 3152 56.1427
81.7573 3132 55.9643
81.8747 3080 55.4977
81.9922 3071 55.4166
82.1096 3051 55.2359
82.227 3210 56.6569
82.3444 3278 57.2538
82.4619 3363 57.9914
82.5793 3250 57.0088
82.6967 3406 58.3609
82.8142 3369 58.0431
82.9316 3520 59.3296
83.049 3456 58.7878
83.1664 3265 57.1402
83.2838 3171 56.3116
83.4012 3119 55.848
83.5186 2942 54.2402
83.636 2786 52.7826
83.7534 2342 48.3942
83.8708 1982 44.5197
83.9881 2095 45.7712
84.1055 2234 47.2652
84.2228 2393 48.9183
84.3401 2873 53.6004
84.4575 3159 56.205
84.5747 3380 58.1378
84.692 3448 58.7197
84.8093 3545 59.5399
84.9265 3495 59.1185
85.0437 3550 59.5819
85.1609 3479 58.983
85.2781 3401 58.3181
85.3952 3242 56.9386
85.5123 3316 57.5847
85.6294 3319 57.6108
85.7465 3415 58.438
85.8636 3415 58.438
85.9806 3706 60.8769
86.0976 3732 61.0901
86.2145 3796 61.6117
86.3315 3697 60.803
86.4484 4048 63.6239
86.5652 3918 62.5939
86.682 3903 62.474
86.7988 3878 62.2736
86.9156 3786 61.5305
87.0323 3605 60.0417
87.149 3451 58.7452
87.2657 3292 57.376
87.3823 2688 51.8459
87.4988 2462 49.6185
87.6154 2684 51.8073
87.7318 2995 54.7266
87.8483 3428 58.5491
87.9647 3843 61.9919
88.081 4107 64.0859
88.1973 4114 64.1405
88.3136 4228 65.0231
88.4298 4102 64.0469
88.546 4128 64.2495
88.6621 4068 63.7809
88.7781 4038 63.5453
88.8942 0 1
89.0101 0 1
89.126 0 1
89.2419 0 1
89.3577 0 1
89.4734 0 1
89.5891 0 1
89.7047 0 1
89.8203 0 1
89.9358 0 1
92.3269 0 1
92.4424 0 1
92.558 0 1
92.6736 0 1
92.7893 0 1
92.905 0 1
93.0208 0 1
93.1366 0 1
93.2525 0 1
93.3685 0 1
93.4845 0 1
93.6005 4325 65.7647
93.7167 4386 66.2269
93.8328 4481 66.9403
93.949 4505 67.1193
94.0653 4393 66.2797
94.1816 4318 65.7115
94.2979 4328 65.7875
94.4143 4306 65.6201
94.5307 4256 65.238
94.6472 4232 65.0538
94.7637 4109 64.1015
94.8803 4273 65.3682
94.9969 4381 66.1891
95.1135 4543 67.4018
95.2302 4503 67.1044
95.3469 4647 68.1689
95.4637 4694 68.5128
95.5805 4741 68.8549
95.6973 4786 69.1809
95.8142 4825 69.4622
95.9311 4776 69.1086
96.048 4590 67.7495
96.1649 4498 67.0671
96.2819 4178 64.6375
96.3989 3916 62.578
96.516 3463 58.8473
96.633 2988 54.6626
96.7501 2903 53.8795
96.8673 3164 56.2494
96.9844 3537 59.4727
97.1016 4077 63.8514
97.2188 4601 67.8307
97.336 4898 69.9857
97.4532 4989 70.6329
97.5704 4954 70.3847
97.6877 4843 69.5917
97.805 4995 70.6753
97.9223 4862 69.728
98.0396 4748 68.9057
98.1569 4817 69.4046
98.2743 4646 68.1616
98.3916 4607 67.8749
98.509 4632 68.0588
98.6264 4706 68.6003
98.7438 4785 69.1737
98.8612 4977 70.5479
98.9786 5121 71.5612
99.096 5210 72.1803
99.2134 5258 72.5121
99.3308 5214 72.208
99.4482 5163 71.854
99.5656 5163 71.854
99.6831 4968 70.484
99.8005 4868 69.7711
99.9179 4610 67.897
100.035 4160 64.4981
100.153 3712 60.9262
100.27 3289 57.3498
100.388 3230 56.8331
100.505 3766 61.3677
100.622 4443 66.6558
100.74 4876 69.8284
100.857 5156 71.8053
100.975 5397 73.4643
101.092 5241 72.3948
101.209 5363 73.2325
101.327 5419 73.6139
101.444 5269 72.5879
101.561 5210 72.1803
101.679 5385 73.3826
101.796 5083 71.2952
101.913 5112 71.4983
102.03 5000 70.7107
102.148 5063 71.1548
102.265 5376 73.3212
102.382 5116 71.5262
102.499 5462 73.9053
102.616 5744 75.7892
102.733 5692 75.4453
102.851 5769 75.9539
102.968 5803 76.1774
103.085 5633 75.0533
103.202 5504 74.1889
103.319 5333 73.0274
103.436 5137 71.6729
103.552 4665 68.3008
103.669 3961 62.9365
103.786 3469 58.8982
103.903 3520 59.3296
104.02 4125 64.2262
104.137 4812 69.3686
104.253 5359 73.2052
104.37 5548 74.4849
104.487 5833 76.3741
104.603 5730 75.6968
104.72 5743 75.7826
104.836 5846 76.4591
104.953 5776 76
105.069 5722 75.6439
105.186 5692 75.4453
105.302 5619 74.96
105.418 5531 74.3707
105.535 5521 74.3034
105.651 5525 74.3303
105.767 5599 74.8265
105.883 5640 75.0999
105.999 5973 77.2852
106.115 0 1
106.231 0 1
106.347 0 1
106.463 0 1
106.579 0 1
106.694 0 1
106.81 0 1
106.926 0 1
107.041 0 1
107.157 0 1
109.576 0 1
109.692 0 1
109.807 0 1
109.923 0 1
110.039 0 1
110.155 0 1
110.27 0 1
110.386 0 1
110.502 0 1
110.618 4993 70.6612
110.735 5241 72.3948
110.851 5433 73.7089
110.967 5500 74.162
111.083 5531 74.3707
111.199 5592 74.7797
111.316 5813 76.243
111.432 5730 75.6968
111.549 5677 75.3459
111.665 5501 74.1687
111.782 5259 72.519
111.898 5131 71.631
112.015 4388 66.242
112.132 3934 62.7216
112.248 3489 59.0678
112.365 3356 57.931
112.482 3722 61.0082
112.599 4082 63.8905
112.716 4720 68.7023
112.832 5115 71.5192
112.949 5234 72.3464
113.066 5134 71.6519
113.183 5077 71.2531
113.3 5060 71.1337
113.417 4922 70.157
113.534 5030 70.9225
113.652 5010 70.7814
113.769 4882 69.8713
113.886 4835 69.5342
114.003 4676 68.3813
114.12 4509 67.1491
114.238 4555 67.4907
114.355 4714 68.6586
114.472 4742 68.8622
114.589 4764 69.0217
114.707 4846 69.6132
114.824 4912 70.0857
114.942 4980 70.5691
115.059 4894 69.9571
115.176 4909 70.0643
115.294 4874 69.814
115.411 4526 67.2756
115.529 4317 65.7039
115.646 3914 62.562
115.764 3416 58.4466
115.881 3152 56.1427
115.999 3278 57.2538
116.116 3681 60.6712
116.234 4219 64.9538
116.351 4527 67.283
116.469 4730 68.775
116.586 4800 69.282
116.704 4883 69.8785
116.821 4839 69.5629
116.939 4882 69.8713
117.056 4804 69.3109
117.174 4712 68.644
117.291 4794 69.2387
117.409 4753 68.942
117.526 4603 67.8454
117.644 4609 67.8896
117.761 4669 68.3301
117.879 4598 67.8086
117.996 4441 66.6408
118.114 4716 68.6731
118.231 4664 68.2935
118.349 4800 69.282
118.466 4930 70.214
118.584 4963 70.4486
118.701 4847 69.6204
118.819 4838 69.5557
118.936 4603 67.8454
119.053 4550 67.4537
119.171 4308 65.6354
119.288 3835 61.9274
119.405 3256 57.0614
119.523 3085 55.5428
119.64 3207 56.6304
119.757 3493 59.1016
119.875 4044 63.5925
119.992 4471 66.8655
120.109 4655 68.2276
120.226 4668 68.3228
120.343 4691 68.4909
120.46 4680 68.4105
120.578 4772 69.0797
120.695 4669 68.3301
120.812 4658 68.2495
120.929 4638 68.1029
121.046 4857 69.6922
121.163 4675 68.374
121.279 4296 65.5439
121.396 4467 66.8356
121.513 4358 66.0151
121.63 4470 66.8581
121.747 4446 66.6783
121.863 4609 67.8896
121.98 4555 67.4907
122.097 4683 68.4324
122.213 4760 68.9928
122.33 4803 69.3037
122.446 4547 67.4314
122.563 4594 67.7791
122.679 4542 67.3944
122.795 4375 66.1438
122.912 4105 64.0703
123.028 3583 59.8582
123.144 3141 56.0446
123.26 2906 53.9073
123.377 0 1
123.493 0 1
123.609 0 1
123.725 0 1
123.84 0 1
123.956 0 1
124.072 0 1
124.188 0 1
124.303 0 1
124.419 0 1
126.852 0 1
126.968 0 1
127.083 0 1
127.199 0 1
127.315 0 1
127.431 0 1
127.547 0 1
127.663 0 1
127.779 0 1
127.895 0 1
128.011 0 1
128.127 0 1
128.243 0 1
128.359 3553 59.607
128.476 3337 57.7668
128.592 3326 57.6715
128.708 3763 61.3433
128.825 4266 65.3146
128.941 4771 69.0724
129.058 4767 69.0435
129.174 4951 70.3633
129.291 4963 70.4486
129.408 4788 69.1954
129.524 4922 70.157
129.641 4870 69.7854
129.758 4945 70.3207
129.875 4818 69.4118
129.992 4806 69.3253
130.108 4828 69.4838
130.225 4618 67.9559
130.342 4560 67.5278
130.459 4781 69.1448
130.576 4674 68.3667
130.693 4559 67.5204
130.81 4615 67.9338
130.928 4615 67.9338
131.045 4713 68.6513
131.162 4934 70.2424
131.279 4859 69.7065
131.396 4792 69.2243
131.513 4713 68.6513
131.631 4529 67.2978
131.748 4245 65.1537
131.865 3825 61.8466
131.983 3403 58.3352
132.1 3298 57.4282
132.217 3690 60.7454
132.335 4158 64.4826
132.452 4388 66.242
132.57 4565 67.5648
132.687 4607 67.8749
132.804 4922 70.157
132.922 4622 67.9853
133.039 4676 68.3813
133.157 4657 68.2422
133.274 4623 67.9926
133.392 4664 68.2935
133.509 4649 68.1836
133.627 4596 67.7938
133.744 4559 67.5204
133.862 4507 67.1342
133.979 4465 66.8207
134.097 4563 67.55
134.214 4535 67.3424
134.332 4344 65.909
134.449 4644 68.1469
134.567 4621 67.9779
134.684 4697 68.5347
134.802 4751 68.9275
134.919 4633 68.0661
135.037 4622 67.9853
135.154 4495 67.0448
135.272 4248 65.1767
135.389 3913 62.554
135.507 3535 59.4559
135.624 3186 56.4447
135.742 3243 56.9473
135.859 3638 60.3158
135.977 4095 63.9922
136.094 4553 67.4759
136.211 4515 67.1937
136.329 4482 66.9477
136.446 4672 68.352
136.564 4613 67.9191
136.681 4547 67.4314
136.798 4585 67.7126
136.915 4603 67.8454
137.033 4519 67.2235
137.15 4391 66.2646
137.267 4367 66.0833
137.384 4450 66.7083
137.502 4429 66.5507
137.619 4340 65.8787
137.736 4314 65.681
137.853 4232 65.0538
137.97 4336 65.8483
138.087 4553 67.4759
138.204 4378 66.1665
138.321 4432 66.5733
138.438 4619 67.9632
138.555 4587 67.7274
138.672 4478 66.9179
138.788 4307 65.6277
138.905 4238 65.0999
139.022 3935 62.7296
139.139 3672 60.597
139.255 3456 58.7878
139.372 3281 57.28
139.488 3494 59.1101
139.605 4020 63.4035
139.721 4255 65.2304
139.838 4282 65.437
139.954 4475 66.8954
140.071 4440 66.6333
140.187 4521 67.2384
140.303 4476 66.9029
140.419 4391 66.2646
140.535 4439 66.6258
140.652 4263 65.2917
140.768 0 1
140.884 0 1
141 0 1
141.115 0 1
141.231 0 1
141.347 0 1
141.463 0 1
141.578 0 1
141.694 0 1
144.104 0 1
144.219 0 1
144.335 0 1
144.45 0 1
144.566 0 1
144.682 0 1
144.798 0 1
144.914 0 1
145.03 0 1
145.146 3779 61.4736
145.262 3837 61.9435
145.378 3803 61.6685
145.494 3835 61.9274
145.61 3698 60.8112
145.726 3800 61.6441
145.842 3706 60.8769
145.959 3730 61.0737
146.075 3701 60.8358
146.192 3536 59.4643
146.308 3715 60.9508
146.425 3810 61.7252
146.541 3634 60.2827
146.658 3665 60.5392
146.774 3657 60.4731
146.891 3663 60.5227
147.008 3753 61.2617
147.125 3737 61.131
147.241 3776 61.4492
147.358 3594 59.95
147.475 3426 58.532
147.592 3279 57.2626
147.709 3146 56.0892
147.826 2827 53.1695
147.943 2737 52.3163
148.06 3002 54.7905
148.177 3126 55.9106
148.294 3501 59.1692
148.411 3609 60.075
148.528 3632 60.2661
148.645 3588 59.8999
148.762 3620 60.1664
148.88 3599 59.9917
148.997 3417 58.4551
149.114 3727 61.0492
149.231 3594 59.95
149.349 3444 58.6856
149.466 3348 57.8619
149.583 3320 57.6194
149.701 3370 58.0517
149.818 3518 59.3127
149.935 3475 58.9491
150.053 3440 58.6515
150.17 3461 58.8303
150.287 3443 58.6771
150.405 3381 58.1464
150.522 3355 57.9224
150.64 3475 58.9491
150.757 3500 59.1608
150.875 3573 59.7746
150.992 3514 59.279
151.11 3279 57.2626
151.227 3286 57.3236
151.344 3043 55.1634
151.462 2749 52.4309
151.579 2628 51.264
151.697 2823 53.1319
151.814 3080 55.4977
151.932 3419 58.4722
152.049 3498 59.1439
152.167 3476 58.9576
152.284 3531 59.4222
152.402 3586 59.8832
152.519 3484 59.0254
152.636 3523 59.3549
152.754 3532 59.4306
152.871 3525 59.3717
152.989 3347 57.8533
153.106 3388 58.2065
153.223 3293 57.3847
153.341 3402 58.3267
153.458 3408 58.3781
153.575 3419 58.4722
153.693 3404 58.3438
153.81 3355 57.9224
153.927 3393 58.2495
154.044 3543 59.5231
154.162 3446 58.7026
154.279 3450 58.7367
154.396 3614 60.1166
154.513 3610 60.0833
154.63 3636 60.2993
154.747 3448 58.7197
154.864 3369 58.0431
154.981 3292 57.376
155.098 2998 54.754
155.215 2951 54.3231
155.332 3015 54.909
155.449 3161 56.2228
155.566 3539 59.4895
155.683 3567 59.7244
155.8 3647 60.3904
155.917 3595 59.9583
156.033 3611 60.0916
156.15 0 1
156.267 0 1
156.383 0 1
156.5 0 1
156.617 0 1
156.733 0 1
156.85 0 1
156.966 0 1
157.082 0 1
157.199 0 1
157.315 0 1
157.431 0 1
157.547 0 1
157.664 0 1
157.78 0 1
157.896 0 1
158.012 0 1
158.128 0 1
158.244 0 1
158.359 0 1
158.475 0 1
158.591 0 1
158.706 0 1
