
6.15755 0 1
6.2731 0 1
6.3887 0 1
6.50437 0 1
6.62009 0 1
6.73587 0 1
6.8517 0 1
6.96759 0 1
7.08353 0 1
7.19952 0 1
7.31557 0 1
7.43166 0 1
7.54781 0 1
7.664 0 1
7.78024 0 1
7.89653 0 1
8.01286 0 1
8.12924 0 1
8.24567 0 1
8.36213 0 1
8.47864 0 1
8.59519 0 1
8.71178 0 1
8.82841 0 1
8.94508 0 1
9.06179 0 1
9.17853 0 1
9.29531 0 1
9.41212 0 1
9.52897 0 1
9.64584 0 1
9.76276 0 1
9.8797 0 1
9.99667 0 1
10.1137 0 1
10.2307 0 1
10.3478 0 1
10.4648 0 1
10.5819 0 1
10.6991 0 1
10.8162 0 1
10.9334 0 1
11.0506 0 1
11.1678 0 1
11.285 0 1
11.4023 0 1
11.5196 0 1
11.6369 0 1
11.7542 0 1
11.8715 0 1
11.9888 0 1
12.1062 0 1
12.2235 0 1
12.3409 0 1
12.4582 0 1
12.5756 0 1
12.693 0 1
12.8104 0 1
12.9278 0 1
13.0452 0 1
13.1626 0 1
13.28 0 1
13.3974 0 1
13.5149 0 1
13.6323 0 1
13.7497 0 1
13.8671 0 1
13.9845 0 1
14.1019 0 1
14.2193 0 1
14.3367 0 1
14.4541 0 1
14.5714 0 1
14.6888 0 1
14.8062 0 1
14.9235 0 1
15.0408 0 0
15.1581 0 0
15.2755 0 0
15.3927 0 0
15.51 0 0
15.6273 0 0
15.7445 0 0
15.8617 0 0
15.9789 0 0
16.0961 0 0
16.2132 0 0
16.3304 0 0
16.4475 0 0
16.5646 0 0
16.6816 0 0
16.7986 0 0
16.9156 0 0
17.0326 0 0
17.1496 0 0
17.2665 0 0
17.3833 0 0
17.5002 0 0
17.617 0 0
17.7338 0 0
17.8505 0 0
17.9672 0 0
18.0839 0 0
18.2005 0 0
18.3171 0 0
18.4337 0 0
18.5502 0 0
18.6666 0 0
18.7831 0 0
18.8994 0 0
19.0158 0 0
19.1321 0 0
19.2483 0 0
19.3645 0 0
19.4806 0 0
19.5967 0 0
19.7128 0 0
19.8288 0 0
19.9447 0 0
20.0606 0 1
20.1764 0 1
20.2922 0 1
20.4079 0 1
20.5236 0 1
20.6392 0 1
20.7548 0 1
20.8702 0 1
23.3078 0 1
23.4233 0 1
23.539 0 1
23.6547 0 1
23.7704 0 1
23.8862 0 1
24.0021 0 1
24.118 0 1
24.234 0 1
24.35 0 1
24.4661 3620 60.1664
24.5822 3749 61.2291
24.6984 3853 62.0725
24.8146 3981 63.0952
24.9309 3961 62.9365
25.0472 3970 63.0079
25.1636 4086 63.9218
25.28 4091 63.9609
25.3965 4147 64.3972
25.513 4044 63.5925
25.6296 4073 63.8201
25.7462 3942 62.7853
25.8628 3978 63.0714
25.9795 3928 62.6738
26.0962 3791 61.5711
26.213 3795 61.6036
26.3298 3645 60.3738
26.4466 3765 61.3596
26.5635 3746 61.2046
26.6804 3606 60.05
26.7973 3660 60.4979
26.9143 3543 59.5231
27.0313 3383 58.1636
27.1483 3149 56.116
27.2653 3215 56.701
27.3824 3212 56.6745
27.4996 3252 57.0263
27.6167 3476 58.9576
27.7339 3706 60.8769
27.8511 3678 60.6465
27.9683 3781 61.4898
28.0855 3936 62.7375
28.2028 3981 63.0952
28.3201 3956 62.8967
28.4374 3950 62.849
28.5547 3888 62.3538
28.6721 3737 61.131
28.7894 3757 61.2944
28.9068 3819 61.7981
29.0242 3720 60.9918
29.1416 3677 60.6383
29.259 3643 60.3573
29.3764 3543 59.5231
29.4939 3620 60.1664
29.6113 3509 59.2368
29.7288 3498 59.1439
29.8463 3532 59.4306
29.9638 3485 59.0339
30.0812 3644 60.3656
30.1987 3641 60.3407
30.3162 3621 60.1747
30.4337 3562 59.6825
30.5512 3364 58
30.6687 3218 56.7274
30.7862 3281 57.28
30.9037 3195 56.5243
31.0212 3537 59.4727
31.1387 3712 60.9262
31.2562 3815 61.7657
31.3737 4084 63.9062
31.4912 3951 62.857
31.6087 3984 63.1189
31.7262 3969 63
31.8436 3796 61.6117
31.9611 3958 62.9126
32.0785 3837 61.9435
32.1959 3803 61.6685
32.3134 3724 61.0246
32.4308 3600 60
32.5482 3569 59.7411
32.6655 3502 59.1777
32.7829 3365 58.0086
32.9002 3351 57.8878
33.0176 3375 58.0948
33.1349 3365 58.0086
33.2522 3398 58.2924
33.3694 3325 57.6628
33.4867 3389 58.2151
33.6039 3528 59.397
33.7211 3458 58.8048
33.8383 3688 60.7289
33.9554 3645 60.3738
34.0725 3634 60.2827
34.1896 3551 59.5903
34.3067 3394 58.258
34.4237 3371 58.0603
34.5407 3188 56.4624
34.6577 3339 57.7841
34.7746 3521 59.338
34.8915 3516 59.2959
35.0084 3571 59.7578
35.1252 3655 60.4566
35.242 3613 60.1082
35.3587 3495 59.1185
35.4755 3561 59.6741
35.5921 3437 58.6259
35.7088 3532 59.4306
35.8254 3470 58.9067
35.9419 3413 58.4209
36.0584 3382 58.155
36.1749 3419 58.4722
36.2913 3409 58.3866
36.4077 3346 57.8446
36.524 3475 58.9491
36.6403 3299 57.4369
36.7565 3206 56.6216
36.8727 3278 57.2538
36.9889 3336 57.7581
37.1049 3390 58.2237
37.221 0 1
37.3369 0 1
37.4529 0 1
37.5687 0 1
37.6845 0 1
37.8003 0 1
37.916 0 1
38.0316 0 1
38.1472 0 1
40.5851 0 1
40.7008 0 1
40.8164 0 1
40.9322 0 1
41.048 0 1
41.1639 0 1
41.2798 0 1
41.3958 0 1
41.5118 0 1
41.6279 0 1
41.744 2818 53.0848
41.8602 2870 53.5724
41.9765 2955 54.3599
42.0928 3052 55.2449
42.2091 2996 54.7357
42.3255 2998 54.754
42.4419 3076 55.4617
42.5584 2965 54.4518
42.675 3051 55.2359
42.7915 2916 54
42.9081 2949 54.3047
43.0248 2768 52.6118
43.1415 2502 50.02
43.2582 2383 48.816
43.375 2390 48.8876
43.4918 2564 50.636
43.6087 2675 51.7204
43.7256 2692 51.8845
43.8425 2830 53.1977
43.9595 2783 52.7541
44.0765 2825 53.1507
44.1935 2727 52.2207
44.3106 2834 53.2353
44.4277 2863 53.507
44.5448 2725 52.2015
44.6619 2648 51.4587
44.7791 2723 52.1824
44.8963 2748 52.4214
45.0136 2678 51.7494
45.1308 2672 51.6914
45.2481 2640 51.3809
45.3654 2678 51.7494
45.4827 2622 51.2055
45.6001 2615 51.1371
45.7174 2587 50.8626
45.8348 2487 49.8698
45.9522 2503 50.03
46.0697 2393 48.9183
46.1871 2305 48.0104
46.3046 2227 47.1911
46.422 2239 47.3181
46.5395 2202 46.9255
46.657 2099 45.8148
46.7745 1970 44.3847
46.892 1839 42.8836
47.0096 1823 42.6966
47.1271 2035 45.111
47.2446 1957 44.238
47.3622 1985 44.5533
47.4797 2012 44.8553
47.5973 1969 44.3734
47.7149 1940 44.0454
47.8324 1964 44.317
47.95 1990 44.6094
48.0675 1974 44.4297
48.1851 1887 43.4396
48.3027 2008 44.8107
48.4202 1859 43.1161
48.5378 2026 45.0111
48.6554 2132 46.1736
48.7729 1976 44.4522
48.8904 2066 45.4533
49.008 2031 45.0666
49.1255 2088 45.6946
49.243 2042 45.1885
49.3605 2028 45.0333
49.478 2144 46.3033
49.5955 2128 46.1303
49.713 2164 46.5188
49.8304 2152 46.3897
49.9479 2175 46.6369
50.0653 2105 45.8803
50.1827 1988 44.587
50.3001 1896 43.5431
50.4175 1745 41.7732
50.5348 1645 40.5586
50.6521 1945 44.1022
50.7694 2153 46.4004
50.8867 2358 48.5592
51.004 2417 49.163
51.1212 2459 49.5883
51.2384 2547 50.4678
51.3556 2590 50.892
51.4727 2625 51.2348
51.5899 2632 51.303
51.707 2677 51.7397
51.824 2679 51.7591
51.9411 2731 52.259
52.0581 2719 52.144
52.175 2797 52.8867
52.2919 2916 54
52.4088 2761 52.5452
52.5257 2912 53.963
52.6425 2847 53.3573
52.7593 2816 53.066
52.876 2818 53.0848
52.9927 3005 54.8179
53.1094 2837 53.2635
53.226 2880 53.6656
53.3426 2949 54.3047
53.4591 2967 54.4702
53.5756 2908 53.9259
53.692 2875 53.619
53.8084 2787 52.792
53.9248 2627 51.2543
54.0411 2377 48.7545
54.1573 2233 47.2546
54.2735 0 1
54.3896 0 1
54.5057 0 1
54.6217 0 1
54.7377 0 1
54.8537 0 1
54.9695 0 1
55.0853 0 1
55.2011 0 1
55.3168 0 1
55.4324 0 1
57.824 0 1
57.9396 0 1
58.0553 0 1
58.1711 0 1
58.2869 0 1
58.4028 0 1
58.5187 0 1
58.6347 0 1
58.7508 0 1
58.8669 0 1
58.983 3158 56.1961
59.0992 2940 54.2218
59.2155 2870 53.5724
59.3318 2817 53.0754
59.4482 3054 55.263
59.5646 3203 56.5951
59.681 3315 57.576
59.7975 3490 59.0762
59.9141 3469 58.8982
60.0306 3589 59.9083
60.1473 3540 59.4979
60.2639 3414 58.4294
60.3807 3518 59.3127
60.4974 3617 60.1415
60.6142 3454 58.7707
60.731 3510 59.2453
60.8479 3555 59.6238
60.9648 3618 60.1498
61.0818 3410 58.3952
61.1987 3472 58.9237
61.3158 3563 59.6909
61.4328 3414 58.4294
61.5499 3443 58.6771
61.667 3556 59.6322
61.7841 3459 58.8133
61.9013 3531 59.4222
62.0185 3502 59.1777
62.1357 3435 58.6089
62.253 3356 57.931
62.3702 3310 57.5326
62.4875 3124 55.8928
62.6049 2935 54.1756
62.7222 2849 53.376
62.8396 3055 55.2721
62.9569 3111 55.7763
63.0743 3255 57.0526
63.1918 3280 57.2713
63.3092 3242 56.9386
63.4267 3290 57.3585
63.5441 3348 57.8619
63.6616 3327 57.6802
63.7791 3377 58.112
63.8966 3316 57.5847
64.0142 3376 58.1034
64.1317 3395 58.2666
64.2492 3328 57.6888
64.3668 3326 57.6715
64.4843 3275 57.2276
64.6019 3387 58.1979
64.7195 3422 58.4979
64.837 3435 58.6089
64.9546 3322 57.6368
65.0722 3391 58.2323
65.1898 3375 58.0948
65.3074 3382 58.155
65.4249 3342 57.81
65.5425 3249 57
65.6601 3436 58.6174
65.7777 3285 57.3149
65.8952 3327 57.6802
66.0128 3158 56.1961
66.1304 2875 53.619
66.2479 2777 52.6972
66.3655 2672 51.6914
66.483 2880 53.6656
66.6005 2971 54.5069
66.718 3150 56.1249
66.8355 3217 56.7186
66.953 3268 57.1664
67.0705 3351 57.8878
67.1879 3334 57.7408
67.3054 3382 58.155
67.4228 3271 57.1927
67.5402 3203 56.5951
67.6576 3272 57.2014
67.7749 3269 57.1752
67.8923 3325 57.6628
68.0096 3332 57.7235
68.1269 3420 58.4808
68.2442 3418 58.4637
68.3614 3436 58.6174
68.4787 3344 57.8273
68.5958 3370 58.0517
68.713 3404 58.3438
68.8302 3365 58.0086
68.9473 3318 57.6021
69.0643 3314 57.5674
69.1814 3294 57.3934
69.2984 3346 57.8446
69.4154 3314 57.5674
69.5323 3304 57.4804
69.6492 3168 56.285
69.7661 3016 54.9181
69.8829 2882 53.6843
69.9997 2743 52.3737
70.1165 2849 53.376
70.2332 3115 55.8122
70.3499 3157 56.1872
70.4665 3169 56.2939
70.5831 3184 56.4269
70.6996 3245 56.9649
70.8161 3173 56.3294
70.9326 3293 57.3847
71.049 3328 57.6888
71.1653 3186 56.4447
71.2817 3219 56.7362
71.3979 3258 57.0789
71.5141 3226 56.7979
71.6303 3189 56.4712
71.7464 2897 53.8238
71.8624 0 1
71.9784 0 1
72.0944 0 1
72.2102 0 1
72.3261 0 1
72.4418 0 1
72.5575 0 1
72.6732 0 1
75.1054 0 1
75.2209 0 1
75.3365 0 1
75.4521 0 1
75.5678 0 1
75.6835 0 1
75.7993 0 1
75.9151 0 1
76.031 0 1
76.147 2851 53.3948
76.263 3141 56.0446
76.3791 3261 57.1052
76.4952 3286 57.3236
76.6113 3183 56.4181
76.7276 3178 56.3738
76.8438 3327 57.6802
76.9601 3179 56.3826
77.0765 3395 58.2666
77.1929 3311 57.5413
77.3093 3321 57.6281
77.4258 3407 58.3695
77.5423 3356 57.931
77.6589 3320 57.6194
77.7755 3313 57.5587
77.8921 3331 57.7148
78.0088 3318 57.6021
78.1256 3254 57.0438
78.2423 3312 57.55
78.3591 3272 57.2014
78.4759 3303 57.4717
78.5928 3151 56.1338
78.7097 3218 56.7274
78.8266 3115 55.8122
78.9436 2532 50.319
79.0606 2440 49.3964
79.1776 2483 49.8297
79.2946 2778 52.7067
79.4117 3032 55.0636
79.5288 3080 55.4977
79.6459 3022 54.9727
79.7631 3295 57.4021
79.8802 3205 56.6127
79.9974 3233 56.8595
80.1147 3148 56.107
80.2319 3333 57.7321
80.3491 3247 56.9825
80.4664 3262 57.1139
80.5837 3281 57.28
80.701 3390 58.2237
80.8183 3306 57.4978
80.9357 3306 57.4978
81.053 3291 57.3672
81.1704 3320 57.6194
81.2877 3382 58.155
81.4051 3325 57.6628
81.5225 3366 58.0172
81.6399 3271 57.1927
81.7573 3255 57.0526
81.8747 3174 56.3383
81.9922 3094 55.6237
82.1096 3162 56.2317
82.227 3224 56.7803
82.3444 3227 56.8067
82.4619 3105 55.7225
82.5793 2756 52.4976
82.6967 2652 51.4976
82.8142 2493 49.93
82.9316 2646 51.4393
83.049 2834 53.2353
83.1664 2890 53.7587
83.2838 2951 54.3231
83.4012 3145 56.0803
83.5186 3051 55.2359
83.636 3195 56.5243
83.7534 3235 56.8771
83.8708 3182 56.4092
83.9881 3129 55.9375
84.1055 3063 55.3444
84.2228 3174 56.3383
84.3401 3201 56.5774
84.4575 3261 57.1052
84.5747 3321 57.6281
84.692 3254 57.0438
84.8093 3192 56.4978
84.9265 3211 56.6657
85.0437 3187 56.4535
85.1609 3346 57.8446
85.2781 3188 56.4624
85.3952 3296 57.4108
85.5123 3242 56.9386
85.6294 3241 56.9298
85.7465 3216 56.7098
85.8636 3212 56.6745
85.9806 3095 55.6327
86.0976 3001 54.7814
86.2145 2785 52.7731
86.3315 2522 50.2195
86.4484 2659 51.5655
86.5652 2946 54.2771
86.682 3151 56.1338
86.7988 3162 56.2317
86.9156 3218 56.7274
87.0323 3286 57.3236
87.149 3295 57.4021
87.2657 3350 57.8792
87.3823 3339 57.7841
87.4988 3360 57.9655
87.6154 3384 58.1722
87.7318 3281 57.28
87.8483 3325 57.6628
87.9647 3458 58.8048
88.081 3484 59.0254
88.1973 3516 59.2959
88.3136 3450 58.7367
88.4298 3398 58.2924
88.546 3482 59.0085
88.6621 3334 57.7408
88.7781 3310 57.5326
88.8942 0 1
89.0101 0 1
89.126 0 1
89.2419 0 1
89.3577 0 1
89.4734 0 1
89.5891 0 1
89.7047 0 1
89.8203 0 1
89.9358 0 1
92.3269 0 1
92.4424 0 1
92.558 0 1
92.6736 0 1
92.7893 0 1
92.905 0 1
93.0208 0 1
93.1366 0 1
93.2525 0 1
93.3685 0 1
93.4845 0 1
93.6005 3309 57.5239
93.7167 3447 58.7112
93.8328 3445 58.6941
93.949 3395 58.2666
94.0653 3557 59.6406
94.1816 3360 57.9655
94.2979 3347 57.8533
94.4143 3316 57.5847
94.5307 3325 57.6628
94.6472 3302 57.463
94.7637 3283 57.2975
94.8803 3308 57.5152
94.9969 3324 57.6541
95.1135 3287 57.3324
95.2302 3225 56.7891
95.3469 2997 54.7449
95.4637 2894 53.7959
95.5805 2801 52.9245
95.6973 2842 53.3104
95.8142 2946 54.2771
95.9311 3134 55.9821
96.048 3188 56.4624
96.1649 3418 58.4637
96.2819 3406 58.3609
96.3989 3421 58.4893
96.516 3626 60.2163
96.633 3591 59.925
96.7501 3689 60.7371
96.8673 3738 61.1392
96.9844 3594 59.95
97.1016 3726 61.041
97.2188 3668 60.564
97.336 3748 61.2209
97.4532 3714 60.9426
97.5704 3754 61.2699
97.6877 3748 61.2209
97.805 3720 60.9918
97.9223 3631 60.2578
98.0396 3724 61.0246
98.1569 3661 60.5062
98.2743 3551 59.5903
98.3916 3533 59.439
98.509 3568 59.7327
98.6264 3518 59.3127
98.7438 3585 59.8749
98.8612 3396 58.2752
98.9786 3384 58.1722
99.096 3108 55.7494
99.2134 2971 54.5069
99.3308 3054 55.263
99.4482 3281 57.28
99.5656 3366 58.0172
99.6831 3510 59.2453
99.8005 3475 58.9491
99.9179 3605 60.0417
100.035 3601 60.0083
100.153 3594 59.95
100.27 3717 60.9672
100.388 3662 60.5145
100.505 3763 61.3433
100.622 3750 61.2372
100.74 3852 62.0645
100.857 3763 61.3433
100.975 3828 61.8708
101.092 3807 61.7009
101.209 3806 61.6928
101.327 3846 62.0161
101.444 3718 60.9754
101.561 3768 61.384
101.679 3733 61.0983
101.796 3737 61.131
101.913 3698 60.8112
102.03 3851 62.0564
102.148 3755 61.2781
102.265 3878 62.2736
102.382 3494 59.1101
102.499 3475 58.9491
102.616 3358 57.9483
102.733 3196 56.5332
102.851 3165 56.2583
102.968 3393 58.2495
103.085 3409 58.3866
103.202 3415 58.438
103.319 3526 59.3801
103.436 3686 60.7124
103.552 3772 61.4166
103.669 3805 61.6847
103.786 3835 61.9274
103.903 3923 62.6339
104.02 3914 62.562
104.137 3965 62.9682
104.253 4069 63.7887
104.37 3808 61.709
104.487 4055 63.6789
104.603 4072 63.8122
104.72 4037 63.5374
104.836 4048 63.6239
104.953 3982 63.1031
105.069 3980 63.0872
105.186 4003 63.2693
105.302 3957 62.9047
105.418 3910 62.53
105.535 3936 62.7375
105.651 3842 61.9839
105.767 3934 62.7216
105.883 3838 61.9516
105.999 3620 60.1664
106.115 0 1
106.231 0 1
106.347 0 1
106.463 0 1
106.579 0 1
106.694 0 1
106.81 0 1
106.926 0 1
107.041 0 1
107.157 0 1
109.576 0 1
109.692 0 1
109.807 0 1
109.923 0 1
110.039 0 1
110.155 0 1
110.27 0 1
110.386 0 1
110.502 0 1
110.618 3534 59.4475
110.735 3749 61.2291
110.851 3662 60.5145
110.967 3562 59.6825
111.083 3513 59.2706
111.199 3330 57.7062
111.316 3145 56.0803
111.432 3366 58.0172
111.549 3477 58.9661
111.665 3419 58.4722
111.782 3403 58.3352
111.898 3388 58.2065
112.015 3607 60.0583
112.132 3556 59.6322
112.248 3631 60.2578
112.365 3829 61.8789
112.482 3748 61.2209
112.599 3619 60.1581
112.716 3736 61.1228
112.832 3777 61.4573
112.949 3841 61.9758
113.066 3715 60.9508
113.183 3802 61.6604
113.3 3707 60.8851
113.417 3764 61.3514
113.534 3609 60.075
113.652 3506 59.2115
113.769 3635 60.291
113.886 3521 59.338
114.003 3570 59.7495
114.12 3373 58.0775
114.238 3477 58.9661
114.355 3382 58.155
114.472 3308 57.5152
114.589 3323 57.6455
114.707 3104 55.7136
114.824 2913 53.9722
114.942 2908 53.9259
115.059 2959 54.3967
115.176 3076 55.4617
115.294 3188 56.4624
115.411 3164 56.2494
115.529 3274 57.2189
115.646 3383 58.1636
115.764 3359 57.9569
115.881 3394 58.258
115.999 3465 58.8643
116.116 3261 57.1052
116.234 3543 59.5231
116.351 3445 58.6941
116.469 3454 58.7707
116.586 3628 60.2329
116.704 3624 60.1997
116.821 3608 60.0666
116.939 3477 58.9661
117.056 3508 59.2284
117.174 3576 59.7997
117.291 3510 59.2453
117.409 3499 59.1523
117.526 3571 59.7578
117.644 3519 59.3212
117.761 3479 58.983
117.879 3499 59.1523
117.996 3443 58.6771
118.114 3435 58.6089
118.231 3298 57.4282
118.349 3173 56.3294
118.466 3040 55.1362
118.584 3011 54.8726
118.701 2968 54.4794
118.819 3193 56.5066
118.936 3174 56.3383
119.053 3273 57.2101
119.171 3378 58.1206
119.288 3411 58.4038
119.405 3391 58.2323
119.523 3433 58.5918
119.64 3515 59.2874
119.757 3450 58.7367
119.875 3456 58.7878
119.992 3461 58.8303
120.109 3575 59.7913
120.226 3615 60.1249
120.343 3572 59.7662
120.46 3606 60.05
120.578 3661 60.5062
120.695 3570 59.7495
120.812 3397 58.2838
120.929 3475 58.9491
121.046 3515 59.2874
121.163 3432 58.5833
121.279 3515 59.2874
121.396 3428 58.5491
121.513 3479 58.983
121.63 3386 58.1893
121.747 3438 58.6345
121.863 3310 57.5326
121.98 3225 56.7891
122.097 3005 54.8179
122.213 3028 55.0273
122.33 2884 53.7029
122.446 2958 54.3875
122.563 2911 53.9537
122.679 2994 54.7175
122.795 3071 55.4166
122.912 3255 57.0526
123.028 3230 56.8331
123.144 3240 56.921
123.26 3363 57.9914
123.377 0 1
123.493 0 1
123.609 0 1
123.725 0 1
123.84 0 1
123.956 0 1
124.072 0 1
124.188 0 1
124.303 0 1
124.419 0 1
126.852 0 1
126.968 0 1
127.083 0 1
127.199 0 1
127.315 0 1
127.431 0 1
127.547 0 1
127.663 0 1
127.779 0 1
127.895 0 1
128.011 0 1
128.127 0 1
128.243 0 1
128.359 3578 59.8164
128.476 3764 61.3514
128.592 3699 60.8194
128.708 3696 60.7947
128.825 3778 61.4654
128.941 3830 61.887
129.058 3929 62.6817
129.174 3977 63.0635
129.291 3942 62.7853
129.408 4007 63.3009
129.524 4019 63.3956
129.641 3991 63.1744
129.758 3994 63.1981
129.875 3947 62.8252
129.992 3894 62.4019
130.108 3936 62.7375
130.225 3758 61.3025
130.342 3996 63.2139
130.459 3627 60.2246
130.576 3792 61.5792
130.693 3739 61.1474
130.81 3687 60.7207
130.928 3454 58.7707
131.045 3354 57.9137
131.162 3252 57.0263
131.279 3273 57.2101
131.396 3388 58.2065
131.513 3448 58.7197
131.631 3475 58.9491
131.748 3581 59.8415
131.865 3703 60.8523
131.983 3776 61.4492
132.1 3808 61.709
132.217 3817 61.7819
132.335 3887 62.3458
132.452 3791 61.5711
132.57 3866 62.1772
132.687 3924 62.6418
132.804 4037 63.5374
132.922 3843 61.9919
133.039 3877 62.2656
133.157 3911 62.538
133.274 3909 62.522
133.392 3915 62.57
133.509 3759 61.3107
133.627 3821 61.8142
133.744 3825 61.8466
133.862 3745 61.1964
133.979 3777 61.4573
134.097 3812 61.7414
134.214 3781 61.4898
134.332 3620 60.1664
134.449 3720 60.9918
134.567 3556 59.6322
134.684 3234 56.8683
134.802 3280 57.2713
134.919 3365 58.0086
135.037 3456 58.7878
135.154 3532 59.4306
135.272 3701 60.8358
135.389 3751 61.2454
135.507 3807 61.7009
135.624 3886 62.3378
135.742 3984 63.1189
135.859 3978 63.0714
135.977 3812 61.7414
136.094 3961 62.9365
136.211 4025 63.4429
136.329 4009 63.3167
136.446 4039 63.5531
136.564 3932 62.7057
136.681 4048 63.6239
136.798 3880 62.2896
136.915 3920 62.6099
137.033 3906 62.498
137.15 3939 62.7615
137.267 3865 62.1691
137.384 3812 61.7414
137.502 3819 61.7981
137.619 3741 61.1637
137.736 3753 61.2617
137.853 3758 61.3025
137.97 3759 61.3107
138.087 3917 62.5859
138.204 3620 60.1664
138.321 3407 58.3695
138.438 3464 58.8558
138.555 3549 59.5735
138.672 3513 59.2706
138.788 3638 60.3158
138.905 3829 61.8789
139.022 3743 61.1801
139.139 3862 62.145
139.255 3878 62.2736
139.372 3869 62.2013
139.488 3912 62.546
139.605 3826 61.8547
139.721 3761 61.327
139.838 3725 61.0328
139.954 3760 61.3188
140.071 3826 61.8547
140.187 3838 61.9516
140.303 3877 62.2656
140.419 4000 63.2456
140.535 3926 62.6578
140.652 4035 63.5216
140.768 0 1
140.884 0 1
141 0 1
141.115 0 1
141.231 0 1
141.347 0 1
141.463 0 1
141.578 0 1
141.694 0 1
144.104 0 1
144.219 0 1
144.335 0 1
144.45 0 1
144.566 0 1
144.682 0 1
144.798 0 1
144.914 0 1
145.03 0 1
145.146 3320 57.6194
145.262 3283 57.2975
145.378 3118 55.8391
145.494 3223 56.7715
145.61 3232 56.8507
145.726 3348 57.8619
145.842 3351 57.8878
145.959 3284 57.3062
146.075 3549 59.5735
146.192 3606 60.05
146.308 3657 60.4731
146.425 3750 61.2372
146.541 3715 60.9508
146.658 3718 60.9754
146.774 3667 60.5558
146.891 3461 58.8303
147.008 3395 58.2666
147.125 3222 56.7627
147.241 3340 57.7927
147.358 3351 57.8878
147.475 3354 57.9137
147.592 3236 56.8859
147.709 3325 57.6628
147.826 3305 57.4891
147.943 3428 58.5491
148.06 3249 57
148.177 3361 57.9741
148.294 3244 56.9561
148.411 3108 55.7494
148.528 3205 56.6127
148.645 3139 56.0268
148.762 3099 55.6687
148.88 3114 55.8032
148.997 3050 55.2268
149.114 3279 57.2626
149.231 3125 55.9017
149.349 3321 57.6281
149.466 3327 57.6802
149.583 3308 57.5152
149.701 3243 56.9473
149.818 3426 58.532
149.935 3404 58.3438
150.053 3348 57.8619
150.17 3455 58.7792
150.287 3343 57.8187
150.405 3204 56.6039
150.522 3150 56.1249
150.64 2958 54.3875
150.757 2877 53.6377
150.875 2944 54.2586
150.992 2862 53.4977
151.11 2842 53.3104
151.227 2976 54.5527
151.344 3028 55.0273
151.462 2926 54.0925
151.579 3093 55.6147
151.697 3068 55.3895
151.814 3082 55.5158
151.932 3170 56.3028
152.049 3172 56.3205
152.167 3122 55.8749
152.284 3123 55.8838
152.402 3241 56.9298
152.519 3186 56.4447
152.636 3209 56.648
152.754 3333 57.7321
152.871 3295 57.4021
152.989 3195 56.5243
153.106 3280 57.2713
153.223 3209 56.648
153.341 3254 57.0438
153.458 3458 58.8048
153.575 3371 58.0603
153.693 3298 57.4282
153.81 3199 56.5597
153.927 3277 57.2451
154.044 3197 56.542
154.162 3133 55.9732
154.279 2948 54.2955
154.396 2918 54.0185
154.513 3040 55.1362
154.63 3070 55.4076
154.747 2957 54.3783
154.864 3088 55.5698
154.981 3238 56.9034
155.098 3251 57.0175
155.215 3272 57.2014
155.332 3293 57.3847
155.449 3427 58.5406
155.566 3391 58.2323
155.683 3271 57.1927
155.8 3313 57.5587
155.917 3289 57.3498
156.033 3369 58.0431
156.15 0 1
156.267 0 1
156.383 0 1
156.5 0 1
156.617 0 1
156.733 0 1
156.85 0 1
156.966 0 1
157.082 0 1
157.199 0 1
157.315 0 1
157.431 0 1
157.547 0 1
157.664 0 1
157.78 0 1
157.896 0 1
158.012 0 1
158.128 0 1
158.244 0 1
158.359 0 1
158.475 0 1
158.591 0 1
158.706 0 1
