
6.15755 0 1
6.2731 0 1
6.3887 0 1
6.50437 0 1
6.62009 0 1
6.73587 0 1
6.8517 0 1
6.96759 0 1
7.08353 0 1
7.19952 0 1
7.31557 0 1
7.43166 0 1
7.54781 0 1
7.664 0 1
7.78024 0 1
7.89653 0 1
8.01286 0 1
8.12924 0 1
8.24567 0 1
8.36213 0 1
8.47864 0 1
8.59519 0 1
8.71178 0 1
8.82841 0 1
8.94508 0 1
9.06179 0 1
9.17853 0 1
9.29531 0 1
9.41212 0 1
9.52897 0 1
9.64584 0 1
9.76276 0 1
9.8797 0 1
9.99667 0 1
10.1137 0 1
10.2307 0 1
10.3478 0 1
10.4648 0 1
10.5819 0 1
10.6991 0 1
10.8162 0 1
10.9334 0 1
11.0506 0 1
11.1678 0 1
11.285 0 1
11.4023 0 1
11.5196 0 1
11.6369 0 1
11.7542 0 1
11.8715 0 1
11.9888 0 1
12.1062 0 1
12.2235 0 1
12.3409 0 1
12.4582 0 1
12.5756 0 1
12.693 0 1
12.8104 0 1
12.9278 0 1
13.0452 0 1
13.1626 0 1
13.28 0 1
13.3974 0 1
13.5149 0 1
13.6323 0 1
13.7497 0 1
13.8671 0 1
13.9845 0 1
14.1019 0 1
14.2193 0 1
14.3367 0 1
14.4541 0 1
14.5714 0 1
14.6888 0 1
14.8062 0 1
14.9235 0 1
15.0408 0 0
15.1581 0 0
15.2755 0 0
15.3927 0 0
15.51 0 0
15.6273 0 0
15.7445 0 0
15.8617 0 0
15.9789 0 0
16.0961 0 0
16.2132 0 0
16.3304 0 0
16.4475 0 0
16.5646 0 0
16.6816 0 0
16.7986 0 0
16.9156 0 0
17.0326 0 0
17.1496 0 0
17.2665 0 0
17.3833 0 0
17.5002 0 0
17.617 0 0
17.7338 0 0
17.8505 0 0
17.9672 0 0
18.0839 0 0
18.2005 0 0
18.3171 0 0
18.4337 0 0
18.5502 0 0
18.6666 0 0
18.7831 0 0
18.8994 0 0
19.0158 0 0
19.1321 0 0
19.2483 0 0
19.3645 0 0
19.4806 0 0
19.5967 0 0
19.7128 0 0
19.8288 0 0
19.9447 0 0
20.0606 0 1
20.1764 0 1
20.2922 0 1
20.4079 0 1
20.5236 0 1
20.6392 0 1
20.7548 0 1
20.8702 0 1
23.3078 0 1
23.4233 0 1
23.539 0 1
23.6547 0 1
23.7704 0 1
23.8862 0 1
24.0021 0 1
24.118 0 1
24.234 0 1
24.35 0 1
24.4661 1544 39.2938
24.5822 1342 36.6333
24.6984 1314 36.2491
24.8146 1310 36.1939
24.9309 1250 35.3553
25.0472 1215 34.8569
25.1636 1270 35.6371
25.28 1324 36.3868
25.3965 1381 37.1618
25.513 1444 38
25.6296 1467 38.3014
25.7462 1613 40.1622
25.8628 1589 39.8623
25.9795 1720 41.4729
26.0962 1615 40.1871
26.213 1581 39.7618
26.3298 1570 39.6232
26.4466 1554 39.4208
26.5635 1510 38.8587
26.6804 1492 38.6264
26.7973 1393 37.3229
26.9143 1406 37.4967
27.0313 1546 39.3192
27.1483 1557 39.4588
27.2653 1558 39.4715
27.3824 1576 39.6989
27.4996 1558 39.4715
27.6167 1614 40.1746
27.7339 1595 39.9375
27.8511 1567 39.5854
27.9683 1553 39.4081
28.0855 1475 38.4057
28.2028 1443 37.9868
28.3201 1380 37.1484
28.4374 1321 36.3456
28.5547 1196 34.5832
28.6721 1265 35.5668
28.7894 1257 35.4542
28.9068 1353 36.7831
29.0242 1354 36.7967
29.1416 1460 38.2099
29.259 1507 38.8201
29.3764 1551 39.3827
29.4939 1568 39.598
29.6113 1530 39.1152
29.7288 1506 38.8072
29.8463 1568 39.598
29.9638 1578 39.724
30.0812 1466 38.2884
30.1987 1508 38.833
30.3162 1516 38.9358
30.4337 1462 38.2361
30.5512 1466 38.2884
30.6687 1538 39.2173
30.7862 1601 40.0125
30.9037 1596 39.95
31.0212 1541 39.2556
31.1387 1536 39.1918
31.2562 1617 40.2119
31.3737 1560 39.4968
31.4912 1497 38.6911
31.6087 1488 38.5746
31.7262 1413 37.5899
31.8436 1336 36.5513
31.9611 1232 35.0999
32.0785 1198 34.6121
32.1959 1243 35.2562
32.3134 1116 33.4066
32.4308 1316 36.2767
32.5482 1427 37.7757
32.6655 1518 38.9615
32.7829 1485 38.5357
32.9002 1598 39.975
33.0176 1546 39.3192
33.1349 1575 39.6863
33.2522 1551 39.3827
33.3694 1624 40.2989
33.4867 1557 39.4588
33.6039 1561 39.5095
33.7211 1512 38.8844
33.8383 1472 38.3667
33.9554 1470 38.3406
34.0725 1459 38.1969
34.1896 1463 38.2492
34.3067 1553 39.4081
34.4237 1624 40.2989
34.5407 1557 39.4588
34.6577 1576 39.6989
34.7746 1553 39.4081
34.8915 1625 40.3113
35.0084 1659 40.7308
35.1252 1627 40.3361
35.242 1504 38.7814
35.3587 1550 39.37
35.4755 1402 37.4433
35.5921 1307 36.1525
35.7088 1168 34.176
35.8254 1139 33.7491
35.9419 1293 35.9583
36.0584 1278 35.7491
36.1749 1327 36.428
36.2913 1416 37.6298
36.4077 1461 38.223
36.524 1509 38.8458
36.6403 1518 38.9615
36.7565 1531 39.128
36.8727 1578 39.724
36.9889 1610 40.1248
37.1049 1577 39.7115
37.221 0 1
37.3369 0 1
37.4529 0 1
37.5687 0 1
37.6845 0 1
37.8003 0 1
37.916 0 1
38.0316 0 1
38.1472 0 1
40.5851 0 1
40.7008 0 1
40.8164 0 1
40.9322 0 1
41.048 0 1
41.1639 0 1
41.2798 0 1
41.3958 0 1
41.5118 0 1
41.6279 0 1
41.744 1295 35.9861
41.8602 1344 36.6606
41.9765 1393 37.3229
42.0928 1392 37.3095
42.2091 1446 38.0263
42.3255 1478 38.4448
42.4419 1401 37.4299
42.5584 1308 36.1663
42.675 1336 36.5513
42.7915 1341 36.6197
42.9081 1345 36.6742
43.0248 1328 36.4417
43.1415 1369 37
43.2582 1416 37.6298
43.375 1388 37.2559
43.4918 1403 37.4566
43.6087 1460 38.2099
43.7256 1388 37.2559
43.8425 1374 37.0675
43.9595 1352 36.7696
44.0765 1350 36.7423
44.1935 1284 35.8329
44.3106 1248 35.327
44.4277 1115 33.3916
44.5448 912 30.1993
44.6619 920 30.3315
44.7791 948 30.7896
44.8963 966 31.0805
45.0136 1113 33.3617
45.1308 1208 34.7563
45.2481 1212 34.8138
45.3654 1261 35.5106
45.4827 1214 34.8425
45.6001 1257 35.4542
45.7174 1248 35.327
45.8348 1230 35.0714
45.9522 1250 35.3553
46.0697 1151 33.9264
46.1871 1101 33.1813
46.3046 1125 33.541
46.422 1122 33.4963
46.5395 1111 33.3317
46.657 1088 32.9848
46.7745 1091 33.0303
46.892 1142 33.7935
47.0096 1180 34.3511
47.1271 1156 34
47.2446 1130 33.6155
47.3622 1115 33.3916
47.4797 1076 32.8024
47.5973 1103 33.2114
47.7149 1061 32.573
47.8324 1032 32.1248
47.95 942 30.692
48.0675 785 28.0179
48.1851 716 26.7582
48.3027 765 27.6586
48.4202 807 28.4077
48.5378 908 30.133
48.6554 993 31.5119
48.7729 1031 32.1092
48.8904 1153 33.9559
49.008 1039 32.2335
49.1255 1133 33.6601
49.243 1101 33.1813
49.3605 1119 33.4515
49.478 1110 33.3167
49.5955 1129 33.6006
49.713 1136 33.7046
49.8304 1097 33.121
49.9479 1080 32.8634
50.0653 1099 33.1512
50.1827 1104 33.2265
50.3001 1223 34.9714
50.4175 1285 35.8469
50.5348 1307 36.1525
50.6521 1382 37.1753
50.7694 1394 37.3363
50.8867 1299 36.0416
51.004 1307 36.1525
51.1212 1395 37.3497
51.2384 1384 37.2022
51.3556 1385 37.2156
51.4727 1208 34.7563
51.5899 1111 33.3317
51.707 1067 32.665
51.824 1144 33.8231
51.9411 1186 34.4384
52.0581 1421 37.6962
52.175 1447 38.0395
52.2919 1620 40.2492
52.4088 1688 41.0853
52.5257 1731 41.6053
52.6425 1756 41.9047
52.7593 1731 41.6053
52.876 1759 41.9404
52.9927 1798 42.4028
53.1094 1854 43.0581
53.226 1724 41.5211
53.3426 1809 42.5323
53.4591 1737 41.6773
53.5756 1808 42.5206
53.692 1795 42.3674
53.8084 1910 43.7035
53.9248 1989 44.5982
54.0411 2004 44.7661
54.1573 2035 45.111
54.2735 0 1
54.3896 0 1
54.5057 0 1
54.6217 0 1
54.7377 0 1
54.8537 0 1
54.9695 0 1
55.0853 0 1
55.2011 0 1
55.3168 0 1
55.4324 0 1
57.824 0 1
57.9396 0 1
58.0553 0 1
58.1711 0 1
58.2869 0 1
58.4028 0 1
58.5187 0 1
58.6347 0 1
58.7508 0 1
58.8669 0 1
58.983 2631 51.2933
59.0992 2788 52.8015
59.2155 2801 52.9245
59.3318 2896 53.8145
59.4482 2873 53.6004
59.5646 2844 53.3292
59.681 2881 53.6749
59.7975 2852 53.4041
59.9141 2654 51.517
60.0306 2469 49.689
60.1473 2376 48.7442
60.2639 2175 46.6369
60.3807 2050 45.2769
60.4974 1964 44.317
60.6142 2114 45.9783
60.731 2399 48.9796
60.8479 2709 52.0481
60.9648 2806 52.9717
61.0818 2882 53.6843
61.1987 2883 53.6936
61.3158 2900 53.8516
61.4328 2952 54.3323
61.5499 2997 54.7449
61.667 2981 54.5985
61.7841 3050 55.2268
61.9013 2962 54.4243
62.0185 2824 53.1413
62.1357 2869 53.563
62.253 2913 53.9722
62.3702 2988 54.6626
62.4875 2920 54.037
62.6049 3102 55.6956
62.7222 3204 56.6039
62.8396 3105 55.7225
62.9569 3140 56.0357
63.0743 3169 56.2939
63.1918 3092 55.6058
63.3092 2944 54.2586
63.4267 2902 53.8702
63.5441 2756 52.4976
63.6616 2593 50.9215
63.7791 2213 47.0425
63.8966 2061 45.3982
64.0142 2145 46.3141
64.1317 2374 48.7237
64.2492 2622 51.2055
64.3668 2902 53.8702
64.4843 3059 55.3082
64.6019 3173 56.3294
64.7195 3216 56.7098
64.837 3270 57.1839
64.9546 3276 57.2364
65.0722 3290 57.3585
65.1898 3190 56.4801
65.3074 3172 56.3205
65.4249 3307 57.5065
65.5425 3176 56.356
65.6601 3176 56.356
65.7777 3200 56.5685
65.8952 3208 56.6392
66.0128 3276 57.2364
66.1304 3319 57.6108
66.2479 3352 57.8965
66.3655 3452 58.7537
66.483 3497 59.1354
66.6005 3491 59.0847
66.718 3387 58.1979
66.8355 3273 57.2101
66.953 3362 57.9828
67.0705 3236 56.8859
67.1879 2959 54.3967
67.3054 2813 53.0377
67.4228 2428 49.2747
67.5402 2351 48.4871
67.6576 2322 48.1871
67.7749 2520 50.1996
67.8923 3047 55.1996
68.0096 3228 56.8155
68.1269 3504 59.1946
68.2442 3670 60.5805
68.3614 3641 60.3407
68.4787 3684 60.696
68.5958 3665 60.5392
68.713 3702 60.8441
68.8302 3784 61.5142
68.9473 3777 61.4573
69.0643 3715 60.9508
69.1814 3742 61.1719
69.2984 3778 61.4654
69.4154 3645 60.3738
69.5323 3696 60.7947
69.6492 3809 61.7171
69.7661 3870 62.2093
69.8829 3880 62.2896
69.9997 3969 63
70.1165 4089 63.9453
70.2332 4082 63.8905
70.3499 4069 63.7887
70.4665 3997 63.2218
70.5831 3934 62.7216
70.6996 3637 60.3075
70.8161 3579 59.8247
70.9326 3254 57.0438
71.049 2817 53.0754
71.1653 2532 50.319
71.2817 2496 49.96
71.3979 2644 51.4198
71.5141 2907 53.9166
71.6303 3174 56.3383
71.7464 3222 56.7627
71.8624 0 1
71.9784 0 1
72.0944 0 1
72.2102 0 1
72.3261 0 1
72.4418 0 1
72.5575 0 1
72.6732 0 1
75.1054 0 1
75.2209 0 1
75.3365 0 1
75.4521 0 1
75.5678 0 1
75.6835 0 1
75.7993 0 1
75.9151 0 1
76.031 0 1
76.147 3309 57.5239
76.263 3384 58.1722
76.3791 3096 55.6417
76.4952 2914 53.9815
76.6113 2733 52.2781
76.7276 2895 53.8052
76.8438 3255 57.0526
76.9601 3696 60.7947
77.0765 4110 64.1093
77.1929 4313 65.6734
77.3093 4345 65.9166
77.4258 4346 65.9242
77.5423 4245 65.1537
77.6589 4329 65.7951
77.7755 4435 66.5958
77.8921 4320 65.7267
78.0088 4283 65.4446
78.1256 4297 65.5515
78.2423 4354 65.9848
78.3591 4360 66.0303
78.4759 4298 65.5591
78.5928 4038 63.5453
78.7097 4220 64.9615
78.8266 4374 66.1362
78.9436 4087 63.9296
79.0606 4254 65.2227
79.1776 4283 65.4446
79.2946 4317 65.7039
79.4117 4406 66.3777
79.5288 4159 64.4903
79.6459 4010 63.3246
79.7631 3840 61.9677
79.8802 3630 60.2495
79.9974 3362 57.9828
80.1147 2913 53.9722
80.2319 2829 53.1883
80.3491 2921 54.0463
80.4664 3212 56.6745
80.5837 3626 60.2163
80.701 4085 63.914
80.8183 4207 64.8614
80.9357 4169 64.5678
81.053 4377 66.1589
81.1704 4285 65.4599
81.2877 4352 65.9697
81.4051 4198 64.792
81.5225 4130 64.2651
81.6399 4219 64.9538
81.7573 4134 64.2962
81.8747 3939 62.7615
81.9922 4241 65.123
82.1096 4066 63.7652
82.227 4006 63.293
82.3444 3942 62.7853
82.4619 4025 63.4429
82.5793 3988 63.1506
82.6967 4158 64.4826
82.8142 4070 63.7966
82.9316 4271 65.3529
83.049 4131 64.2729
83.1664 3924 62.6418
83.2838 3784 61.5142
83.4012 3527 59.3886
83.5186 3203 56.5951
83.636 3059 55.3082
83.7534 2785 52.7731
83.8708 2613 51.1175
83.9881 2612 51.1077
84.1055 2774 52.6688
84.2228 3220 56.745
84.3401 3746 61.2046
84.4575 3927 62.6658
84.5747 4050 63.6396
84.692 3967 62.9841
84.8093 4132 64.2806
84.9265 4101 64.0391
85.0437 4182 64.6684
85.1609 4071 63.8044
85.2781 4214 64.9153
85.3952 4076 63.8436
85.5123 4053 63.6632
85.6294 4084 63.9062
85.7465 4059 63.7103
85.8636 4185 64.6916
85.9806 4104 64.0625
86.0976 4248 65.1767
86.2145 4324 65.7571
86.3315 4234 65.0692
86.4484 4652 68.2056
86.5652 4368 66.0908
86.682 4471 66.8655
86.7988 4260 65.2687
86.9156 4286 65.4675
87.0323 3905 62.49
87.149 3757 61.2944
87.2657 3464 58.8558
87.3823 3222 56.7627
87.4988 3067 55.3805
87.6154 3206 56.6216
87.7318 3785 61.5224
87.8483 4139 64.3351
87.9647 4467 66.8356
88.081 4644 68.1469
88.1973 4708 68.6149
88.3136 4779 69.1303
88.4298 4831 69.5054
88.546 4719 68.695
88.6621 4726 68.7459
88.7781 4708 68.6149
88.8942 0 1
89.0101 0 1
89.126 0 1
89.2419 0 1
89.3577 0 1
89.4734 0 1
89.5891 0 1
89.7047 0 1
89.8203 0 1
89.9358 0 1
92.3269 0 1
92.4424 0 1
92.558 0 1
92.6736 0 1
92.7893 0 1
92.905 0 1
93.0208 0 1
93.1366 0 1
93.2525 0 1
93.3685 0 1
93.4845 0 1
93.6005 4730 68.775
93.7167 4716 68.6731
93.8328 4730 68.775
93.949 4848 69.6276
94.0653 4857 69.6922
94.1816 4689 68.4763
94.2979 4776 69.1086
94.4143 4671 68.3447
94.5307 4835 69.5342
94.6472 4690 68.4836
94.7637 4686 68.4544
94.8803 4835 69.5342
94.9969 4706 68.6003
95.1135 4731 68.7823
95.2302 4689 68.4763
95.3469 4681 68.4178
95.4637 4651 68.1982
95.5805 4783 69.1592
95.6973 4770 69.0652
95.8142 4844 69.5989
95.9311 4799 69.2748
96.048 4566 67.5722
96.1649 4258 65.2534
96.2819 4096 64
96.3989 3628 60.2329
96.516 3335 57.7495
96.633 3151 56.1338
96.7501 3307 57.5065
96.8673 3634 60.2827
96.9844 3930 62.6897
97.1016 4483 66.9552
97.2188 4734 68.8041
97.336 4906 70.0428
97.4532 5019 70.8449
97.5704 4902 70.0143
97.6877 5018 70.8378
97.805 4929 70.2068
97.9223 4982 70.5833
98.0396 4961 70.4344
98.1569 4815 69.3902
98.2743 4922 70.157
98.3916 5014 70.8096
98.509 5015 70.8167
98.6264 4850 69.6419
98.7438 4970 70.4982
98.8612 5052 71.0774
98.9786 4886 69.8999
99.096 5102 71.4283
99.2134 5100 71.4143
99.3308 5164 71.861
99.4482 5162 71.8471
99.5656 5103 71.4353
99.6831 4813 69.3758
99.8005 4764 69.0217
99.9179 4287 65.4752
100.035 3962 62.9444
100.153 3638 60.3158
100.27 3376 58.1034
100.388 3702 60.8441
100.505 4050 63.6396
100.622 4664 68.2935
100.74 5035 70.9577
100.857 5184 72
100.975 5300 72.8011
101.092 5249 72.45
101.209 5167 71.8818
101.327 5180 71.9722
101.444 5325 72.9726
101.561 5283 72.6842
101.679 5309 72.8629
101.796 5206 72.1526
101.913 5333 73.0274
102.03 5179 71.9653
102.148 5323 72.9589
102.265 5519 74.29
102.382 5072 71.218
102.499 5338 73.0616
102.616 5423 73.641
102.733 5353 73.1642
102.851 5487 74.0743
102.968 5418 73.6071
103.085 5510 74.2294
103.202 5193 72.0625
103.319 5159 71.8262
103.436 4720 68.7023
103.552 4325 65.7647
103.669 3886 62.3378
103.786 3818 61.79
103.903 3886 62.3378
104.02 4659 68.2569
104.137 4933 70.2353
104.253 5419 73.6139
104.37 5438 73.7428
104.487 5779 76.0197
104.603 5683 75.3857
104.72 5672 75.3127
104.836 5693 75.452
104.953 5769 75.9539
105.069 5722 75.6439
105.186 5776 76
105.302 5822 76.302
105.418 5763 75.9144
105.535 5527 74.3438
105.651 5801 76.1643
105.767 5815 76.2561
105.883 5813 76.243
105.999 5742 75.776
106.115 0 1
106.231 0 1
106.347 0 1
106.463 0 1
106.579 0 1
106.694 0 1
106.81 0 1
106.926 0 1
107.041 0 1
107.157 0 1
109.576 0 1
109.692 0 1
109.807 0 1
109.923 0 1
110.039 0 1
110.155 0 1
110.27 0 1
110.386 0 1
110.502 0 1
110.618 5480 74.027
110.735 5312 72.8835
110.851 5523 74.3169
110.967 5452 73.8377
111.083 5408 73.5391
111.199 5505 74.1957
111.316 5430 73.6885
111.432 5530 74.364
111.549 5400 73.4847
111.665 5150 71.7635
111.782 5071 71.211
111.898 4708 68.6149
112.015 4316 65.6963
112.132 3803 61.6685
112.248 3630 60.2495
112.365 3754 61.2699
112.482 4127 64.2417
112.599 4500 67.082
112.716 4913 70.0928
112.832 5206 72.1526
112.949 5192 72.0555
113.066 5143 71.7147
113.183 5072 71.218
113.3 5039 70.9859
113.417 5019 70.8449
113.534 4991 70.647
113.652 4929 70.2068
113.769 4813 69.3758
113.886 4889 69.9214
114.003 4874 69.814
114.12 4910 70.0714
114.238 4712 68.644
114.355 4764 69.0217
114.472 4758 68.9783
114.589 4836 69.5414
114.707 4615 67.9338
114.824 4693 68.5055
114.942 4822 69.4406
115.059 4884 69.8856
115.176 4661 68.2715
115.294 4608 67.8823
115.411 4497 67.0597
115.529 4182 64.6684
115.646 3731 61.0819
115.764 3408 58.3781
115.881 3392 58.2409
115.999 3672 60.597
116.116 4006 63.293
116.234 4557 67.5056
116.351 4742 68.8622
116.469 4796 69.2532
116.586 4768 69.0507
116.704 4892 69.9428
116.821 4871 69.7925
116.939 4927 70.1926
117.056 4940 70.2851
117.174 4856 69.685
117.291 4791 69.217
117.409 4974 70.5266
117.526 4907 70.05
117.644 4880 69.857
117.761 4836 69.5414
117.879 4822 69.4406
117.996 4809 69.347
118.114 4895 69.9643
118.231 4977 70.5479
118.349 4792 69.2243
118.466 4991 70.647
118.584 4869 69.7782
118.701 5120 71.5542
118.819 4769 69.0579
118.936 4731 68.7823
119.053 4509 67.1491
119.171 4254 65.2227
119.288 3827 61.8628
119.405 3508 59.2284
119.523 3294 57.3934
119.64 3696 60.7947
119.757 3967 62.9841
119.875 4365 66.0681
119.992 4623 67.9926
120.109 4869 69.7782
120.226 4726 68.7459
120.343 4865 69.7496
120.46 4787 69.1881
120.578 4895 69.9643
120.695 4864 69.7424
120.812 4797 69.2604
120.929 4818 69.4118
121.046 4890 69.9285
121.163 4759 68.9855
121.279 4783 69.1592
121.396 4754 68.9493
121.513 4785 69.1737
121.63 4866 69.7567
121.747 4695 68.5201
121.863 4626 68.0147
121.98 4760 68.9928
122.097 4706 68.6003
122.213 4763 69.0145
122.33 4790 69.2098
122.446 4695 68.5201
122.563 4578 67.6609
122.679 4574 67.6314
122.795 4254 65.2227
122.912 4053 63.6632
123.028 3730 61.0737
123.144 3401 58.3181
123.26 3355 57.9224
123.377 0 1
123.493 0 1
123.609 0 1
123.725 0 1
123.84 0 1
123.956 0 1
124.072 0 1
124.188 0 1
124.303 0 1
124.419 0 1
126.852 0 1
126.968 0 1
127.083 0 1
127.199 0 1
127.315 0 1
127.431 0 1
127.547 0 1
127.663 0 1
127.779 0 1
127.895 0 1
128.011 0 1
128.127 0 1
128.243 0 1
128.359 3854 62.0806
128.476 3716 60.959
128.592 4027 63.4586
128.708 4482 66.9477
128.825 4937 70.2638
128.941 5290 72.7324
129.058 5368 73.2666
129.174 5423 73.641
129.291 5257 72.5052
129.408 5250 72.4569
129.524 5419 73.6139
129.641 5256 72.4983
129.758 5388 73.403
129.875 5331 73.0137
129.992 5354 73.171
130.108 5145 71.7287
130.225 5230 72.3187
130.342 5107 71.4633
130.459 4947 70.3349
130.576 5086 71.3162
130.693 5093 71.3653
130.81 5053 71.0845
130.928 5026 70.8943
131.045 5033 70.9436
131.162 5048 71.0493
131.279 5256 72.4983
131.396 5069 71.1969
131.513 4893 69.95
131.631 4725 68.7386
131.748 4450 66.7083
131.865 4040 63.561
131.983 3727 61.0492
132.1 3741 61.1637
132.217 4227 65.0154
132.335 4782 69.152
132.452 4858 69.6994
132.57 5097 71.3933
132.687 5038 70.9789
132.804 5291 72.7393
132.922 5123 71.5751
133.039 5030 70.9225
133.157 5106 71.4563
133.274 5094 71.3723
133.392 5004 70.739
133.509 4937 70.2638
133.627 5029 70.9154
133.744 5047 71.0422
133.862 4853 69.6635
133.979 4949 70.3491
134.097 4831 69.5054
134.214 5141 71.7008
134.332 4847 69.6204
134.449 5011 70.7884
134.567 5082 71.2881
134.684 4937 70.2638
134.802 5071 71.211
134.919 5127 71.6031
135.037 4843 69.5917
135.154 4681 68.4178
135.272 4479 66.9253
135.389 4196 64.7765
135.507 3820 61.8061
135.624 3715 60.9508
135.742 3838 61.9516
135.859 4237 65.0922
135.977 4697 68.5347
136.094 4980 70.5691
136.211 5055 71.0985
136.329 5056 71.1056
136.446 4861 69.7209
136.564 5057 71.1126
136.681 5115 71.5192
136.798 5087 71.3232
136.915 4966 70.4699
137.033 4982 70.5833
137.15 4943 70.3065
137.267 4978 70.5549
137.384 4948 70.342
137.502 4887 69.9071
137.619 4804 69.3109
137.736 4790 69.2098
137.853 4615 67.9338
137.97 4704 68.5857
138.087 5030 70.9225
138.204 4844 69.5989
138.321 4775 69.1014
138.438 4900 70
138.555 4979 70.562
138.672 4919 70.1356
138.788 4693 68.5055
138.905 4480 66.9328
139.022 4325 65.7647
139.139 3856 62.0967
139.255 3737 61.131
139.372 3860 62.1289
139.488 4344 65.909
139.605 4618 67.9559
139.721 4764 69.0217
139.838 5071 71.211
139.954 5097 71.3933
140.071 4961 70.4344
140.187 5058 71.1196
140.303 4782 69.152
140.419 4963 70.4486
140.535 4955 70.3918
140.652 4931 70.2211
140.768 0 1
140.884 0 1
141 0 1
141.115 0 1
141.231 0 1
141.347 0 1
141.463 0 1
141.578 0 1
141.694 0 1
144.104 0 1
144.219 0 1
144.335 0 1
144.45 0 1
144.566 0 1
144.682 0 1
144.798 0 1
144.914 0 1
145.03 0 1
145.146 4344 65.909
145.262 4339 65.8711
145.378 4262 65.284
145.494 4359 66.0227
145.61 4222 64.9769
145.726 4113 64.1327
145.842 4325 65.7647
145.959 4138 64.3273
146.075 4146 64.3894
146.192 4052 63.6553
146.308 4048 63.6239
146.425 4033 63.5059
146.541 4043 63.5846
146.658 4097 64.0078
146.774 4065 63.7574
146.891 4002 63.2614
147.008 4224 64.9923
147.125 4180 64.6529
147.241 4117 64.1639
147.358 4039 63.5531
147.475 3895 62.4099
147.592 3719 60.9836
147.709 3355 57.9224
147.826 3000 54.7723
147.943 2999 54.7631
148.06 3350 57.8792
148.177 3742 61.1719
148.294 4060 63.7181
148.411 4159 64.4903
148.528 4091 63.9609
148.645 3992 63.1823
148.762 4098 64.0156
148.88 4069 63.7887
148.997 3884 62.3217
149.114 4226 65.0077
149.231 3947 62.8252
149.349 3899 62.442
149.466 3718 60.9754
149.583 3806 61.6928
149.701 3746 61.2046
149.818 3823 61.8304
149.935 3704 60.8605
150.053 3789 61.5549
150.17 3700 60.8276
150.287 3774 61.4329
150.405 3722 61.0082
150.522 3932 62.7057
150.64 3827 61.8628
150.757 3859 62.1208
150.875 3764 61.3514
150.992 3757 61.2944
151.11 3552 59.5987
151.227 3450 58.7367
151.344 3184 56.4269
151.462 2955 54.3599
151.579 2961 54.4151
151.697 3323 57.6455
151.814 3641 60.3407
151.932 3802 61.6604
152.049 3796 61.6117
152.167 3994 63.1981
152.284 4024 63.435
152.402 4045 63.6003
152.519 3972 63.0238
152.636 3986 63.1348
152.754 3896 62.4179
152.871 3820 61.8061
152.989 3796 61.6117
153.106 3751 61.2454
153.223 3710 60.9098
153.341 3769 61.3922
153.458 3769 61.3922
153.575 3672 60.597
153.693 3639 60.3241
153.81 3705 60.8687
153.927 3756 61.2862
154.044 3865 62.1691
154.162 3795 61.6036
154.279 3885 62.3298
154.396 3857 62.1048
154.513 3973 63.0317
154.63 3894 62.4019
154.747 3874 62.2415
154.864 3727 61.0492
154.981 3410 58.3952
155.098 3219 56.7362
155.215 3213 56.6833
155.332 3544 59.5315
155.449 3619 60.1581
155.566 3864 62.1611
155.683 3965 62.9682
155.8 3934 62.7216
155.917 4020 63.4035
156.033 3935 62.7296
156.15 0 1
156.267 0 1
156.383 0 1
156.5 0 1
156.617 0 1
156.733 0 1
156.85 0 1
156.966 0 1
157.082 0 1
157.199 0 1
157.315 0 1
157.431 0 1
157.547 0 1
157.664 0 1
157.78 0 1
157.896 0 1
158.012 0 1
158.128 0 1
158.244 0 1
158.359 0 1
158.475 0 1
158.591 0 1
158.706 0 1
