
6.15755 0 1
6.2731 0 1
6.3887 0 1
6.50437 0 1
6.62009 0 1
6.73587 0 1
6.8517 0 1
6.96759 0 1
7.08353 0 1
7.19952 0 1
7.31557 0 1
7.43166 0 1
7.54781 0 1
7.664 0 1
7.78024 0 1
7.89653 0 1
8.01286 0 1
8.12924 0 1
8.24567 0 1
8.36213 0 1
8.47864 0 1
8.59519 0 1
8.71178 0 1
8.82841 0 1
8.94508 0 1
9.06179 0 1
9.17853 0 1
9.29531 0 1
9.41212 0 1
9.52897 0 1
9.64584 0 1
9.76276 0 1
9.8797 0 1
9.99667 0 1
10.1137 0 1
10.2307 0 1
10.3478 0 1
10.4648 0 1
10.5819 0 1
10.6991 0 1
10.8162 0 1
10.9334 0 1
11.0506 0 1
11.1678 0 1
11.285 0 1
11.4023 0 1
11.5196 0 1
11.6369 0 1
11.7542 0 1
11.8715 0 1
11.9888 0 1
12.1062 0 1
12.2235 0 1
12.3409 0 1
12.4582 0 1
12.5756 0 1
12.693 0 1
12.8104 0 1
12.9278 0 1
13.0452 0 1
13.1626 0 1
13.28 0 1
13.3974 0 1
13.5149 0 1
13.6323 0 1
13.7497 0 1
13.8671 0 1
13.9845 0 1
14.1019 0 1
14.2193 0 1
14.3367 0 1
14.4541 0 1
14.5714 0 1
14.6888 0 1
14.8062 0 1
14.9235 0 1
15.0408 0 0
15.1581 0 0
15.2755 0 0
15.3927 0 0
15.51 0 0
15.6273 0 0
15.7445 0 0
15.8617 0 0
15.9789 0 0
16.0961 0 0
16.2132 0 0
16.3304 0 0
16.4475 0 0
16.5646 0 0
16.6816 0 0
16.7986 0 0
16.9156 0 0
17.0326 0 0
17.1496 0 0
17.2665 0 0
17.3833 0 0
17.5002 0 0
17.617 0 0
17.7338 0 0
17.8505 0 0
17.9672 0 0
18.0839 0 0
18.2005 0 0
18.3171 0 0
18.4337 0 0
18.5502 0 0
18.6666 0 0
18.7831 0 0
18.8994 0 0
19.0158 0 0
19.1321 0 0
19.2483 0 0
19.3645 0 0
19.4806 0 0
19.5967 0 0
19.7128 0 0
19.8288 0 0
19.9447 0 0
20.0606 0 1
20.1764 0 1
20.2922 0 1
20.4079 0 1
20.5236 0 1
20.6392 0 1
20.7548 0 1
20.8702 0 1
23.3078 0 1
23.4233 0 1
23.539 0 1
23.6547 0 1
23.7704 0 1
23.8862 0 1
24.0021 0 1
24.118 0 1
24.234 0 1
24.35 0 1
24.4661 5376 73.3212
24.5822 6128 78.2815
24.6984 6737 82.0792
24.8146 7415 86.1104
24.9309 8569 92.5689
25.0472 9680 98.387
25.1636 10527 102.601
25.28 11431 106.916
25.3965 11911 109.138
25.513 12663 112.53
25.6296 13445 115.953
25.7462 13990 118.279
25.8628 13762 117.312
25.9795 13896 117.881
26.0962 13540 116.362
26.213 13057 114.267
26.3298 12591 112.21
26.4466 12027 109.668
26.5635 11663 107.995
26.6804 11449 107
26.7973 11346 106.518
26.9143 11580 107.61
27.0313 11661 107.986
27.1483 11796 108.609
27.2653 11964 109.38
27.3824 12068 109.854
27.4996 11996 109.526
27.6167 11854 108.876
27.7339 11465 107.075
27.8511 11004 104.9
27.9683 10848 104.154
28.0855 10345 101.71
28.2028 10329 101.632
28.3201 10556 102.742
28.4374 10656 103.228
28.5547 11223 105.939
28.6721 11590 107.657
28.7894 12238 110.625
28.9068 12295 110.883
29.0242 12430 111.49
29.1416 12232 110.598
29.259 12199 110.449
29.3764 12167 110.304
29.4939 11887 109.028
29.6113 11926 109.206
29.7288 11554 107.49
29.8463 11501 107.243
29.9638 11084 105.281
30.0812 11028 105.014
30.1987 10682 103.354
30.3162 10799 103.918
30.4337 11102 105.366
30.5512 11096 105.338
30.6687 11507 107.271
30.7862 11452 107.014
30.9037 11677 108.06
31.0212 11756 108.425
31.1387 11631 107.847
31.2562 11402 106.78
31.3737 10860 104.211
31.4912 10706 103.47
31.6087 10436 102.157
31.7262 10151 100.752
31.8436 10313 101.553
31.9611 10464 102.294
32.0785 10841 104.12
32.1959 11256 106.094
32.3134 11511 107.289
32.4308 11598 107.694
32.5482 11879 108.991
32.6655 11676 108.056
32.7829 11542 107.434
32.9002 11717 108.245
33.0176 11861 108.908
33.1349 11787 108.568
33.2522 11696 108.148
33.3694 11537 107.41
33.4867 10915 104.475
33.6039 10808 103.962
33.7211 10506 102.499
33.8383 10548 102.703
33.9554 10477 102.357
34.0725 10521 102.572
34.1896 10832 104.077
34.3067 11231 105.976
34.4237 11229 105.967
34.5407 11439 106.953
34.6577 11703 108.18
34.7746 11319 106.391
34.8915 11107 105.39
35.0084 10723 103.552
35.1252 10323 101.602
35.242 10289 101.435
35.3587 10043 100.215
35.4755 10023 100.115
35.5921 10011 100.055
35.7088 10612 103.015
35.8254 10982 104.795
35.9419 11241 106.024
36.0584 11708 108.204
36.1749 11514 107.303
36.2913 11337 106.475
36.4077 10948 104.633
36.524 10860 104.211
36.6403 10500 102.47
36.7565 10043 100.215
36.8727 9421 97.0618
36.9889 8794 93.7763
37.1049 7912 88.9494
37.221 0 1
37.3369 0 1
37.4529 0 1
37.5687 0 1
37.6845 0 1
37.8003 0 1
37.916 0 1
38.0316 0 1
38.1472 0 1
40.5851 0 1
40.7008 0 1
40.8164 0 1
40.9322 0 1
41.048 0 1
41.1639 0 1
41.2798 0 1
41.3958 0 1
41.5118 0 1
41.6279 0 1
41.744 6611 81.3081
41.8602 7352 85.7438
41.9765 7913 88.955
42.0928 8201 90.5594
42.2091 8560 92.5203
42.3255 8442 91.8804
42.4419 8286 91.0275
42.5584 8330 91.2688
42.675 8684 93.188
42.7915 8763 93.6109
42.9081 9015 94.9474
43.0248 9460 97.2625
43.1415 9775 98.8686
43.2582 9586 97.9081
43.375 9862 99.3076
43.4918 10079 100.394
43.6087 10044 100.22
43.7256 9935 99.6745
43.8425 9780 98.8939
43.9595 9691 98.4429
44.0765 9657 98.27
44.1935 9549 97.719
44.3106 9343 96.6592
44.4277 9520 97.5705
44.5448 10036 100.18
44.6619 10233 101.158
44.7791 10939 104.59
44.8963 11258 106.104
45.0136 11195 105.806
45.1308 11441 106.963
45.2481 11547 107.457
45.3654 11339 106.485
45.4827 11223 105.939
45.6001 11182 105.745
45.7174 10954 104.661
45.8348 10717 103.523
45.9522 10253 101.257
46.0697 9824 99.1161
46.1871 9524 97.591
46.3046 9495 97.4423
46.422 9869 99.3428
46.5395 10136 100.678
46.657 10602 102.966
46.7745 10750 103.682
46.892 10869 104.254
47.0096 11429 106.907
47.1271 11426 106.892
47.2446 11651 107.94
47.3622 11572 107.573
47.4797 11401 106.775
47.5973 11494 107.21
47.7149 11237 106.005
47.8324 11055 105.143
47.95 10970 104.738
48.0675 11170 105.688
48.1851 11717 108.245
48.3027 12236 110.616
48.4202 12539 111.978
48.5378 13106 114.481
48.6554 13053 114.25
48.7729 13061 114.285
48.8904 13063 114.293
49.008 13219 114.974
49.1255 12974 113.903
49.243 12255 110.702
49.3605 11682 108.083
49.478 11246 106.047
49.5955 10669 103.291
49.713 10183 100.911
49.8304 10585 102.883
49.9479 10817 104.005
50.0653 11244 106.038
50.1827 11830 108.766
50.3001 12285 110.838
50.4175 12484 111.732
50.5348 12940 113.754
50.6521 13002 114.026
50.7694 13352 115.551
50.8867 13293 115.295
51.004 13342 115.508
51.1212 13398 115.75
51.2384 13176 114.787
51.3556 12895 113.556
51.4727 12741 112.876
51.5899 13130 114.586
51.707 13709 117.085
51.824 14520 120.499
51.9411 15293 123.665
52.0581 15274 123.588
52.175 15289 123.649
52.2919 15307 123.721
52.4088 15595 124.88
52.5257 15347 123.883
52.6425 15713 125.352
52.7593 15740 125.459
52.876 15075 122.78
52.9927 14088 118.693
53.1094 13639 116.786
53.226 12998 114.009
53.3426 12448 111.571
53.4591 12529 111.933
53.5756 12307 110.937
53.692 12362 111.185
53.8084 12091 109.959
53.9248 11815 108.697
54.0411 11333 106.457
54.1573 10926 104.528
54.2735 0 1
54.3896 0 1
54.5057 0 1
54.6217 0 1
54.7377 0 1
54.8537 0 1
54.9695 0 1
55.0853 0 1
55.2011 0 1
55.3168 0 1
55.4324 0 1
57.824 0 1
57.9396 0 1
58.0553 0 1
58.1711 0 1
58.2869 0 1
58.4028 0 1
58.5187 0 1
58.6347 0 1
58.7508 0 1
58.8669 0 1
58.983 14345 119.771
59.0992 16429 128.176
59.2155 18918 137.543
59.3318 21048 145.079
59.4482 22769 150.894
59.5646 24192 155.538
59.681 25443 159.509
59.7975 26115 161.601
59.9141 26403 162.49
60.0306 26246 162.006
60.1473 25367 159.27
60.2639 25595 159.984
60.3807 26220 161.926
60.4974 26906 164.03
60.6142 28201 167.932
60.731 29422 171.528
60.8479 29198 170.874
60.9648 29417 171.514
61.0818 29297 171.164
61.1987 29442 171.587
61.3158 29145 170.719
61.4328 28578 169.05
61.5499 27378 165.463
61.667 26079 161.49
61.7841 24716 157.213
61.9013 23647 153.776
62.0185 23355 152.823
62.1357 24088 155.203
62.253 25630 160.094
62.3702 26668 163.303
62.4875 27881 166.976
62.6049 29262 171.061
62.7222 30220 173.839
62.8396 30766 175.402
62.9569 31938 178.712
63.0743 32681 180.779
63.1918 31943 178.726
63.3092 32198 179.438
63.4267 31820 178.382
63.5441 30963 175.963
63.6616 29595 172.032
63.7791 28584 169.068
63.8966 29112 170.622
64.0142 30072 173.413
64.1317 31475 177.412
64.2492 32304 179.733
64.3668 32890 181.356
64.4843 32756 180.986
64.6019 32780 181.052
64.7195 32795 181.094
64.837 32908 181.406
64.9546 32406 180.017
65.0722 31578 177.702
65.1898 30053 173.358
65.3074 27851 166.886
65.4249 26181 161.805
65.5425 25069 158.332
65.6601 25061 158.307
65.7777 26612 163.132
65.8952 27953 167.192
66.0128 29053 170.449
66.1304 30671 175.131
66.2479 31448 177.336
66.3655 33192 182.187
66.483 34310 185.23
66.6005 34866 186.724
66.718 34755 186.427
66.8355 34741 186.389
66.953 34877 186.754
67.0705 33712 183.608
67.1879 32689 180.801
67.3054 31100 176.352
67.4228 29697 172.328
67.5402 29963 173.098
67.6576 30368 174.264
67.7749 31678 177.983
67.8923 33117 181.981
68.0096 33544 183.15
68.1269 33904 184.13
68.2442 33926 184.19
68.3614 33939 184.225
68.4787 33800 183.848
68.5958 33559 183.191
68.713 32688 180.798
68.8302 30885 175.741
68.9473 28667 169.313
69.0643 26467 162.687
69.1814 25049 158.269
69.2984 25059 158.3
69.4154 26581 163.037
69.5323 28358 168.398
69.6492 29527 171.834
69.7661 31149 176.491
69.8829 32389 179.969
69.9997 32751 180.972
70.1165 32506 180.294
70.2332 31592 177.741
70.3499 30646 175.06
70.4665 29116 170.634
70.5831 27552 165.988
70.6996 25482 159.631
70.8161 23694 153.929
70.9326 21454 146.472
71.049 18624 136.47
71.1653 16771 129.503
71.2817 15618 124.972
71.3979 15403 124.109
71.5141 14908 122.098
71.6303 14519 120.495
71.7464 12812 113.19
71.8624 0 1
71.9784 0 1
72.0944 0 1
72.2102 0 1
72.3261 0 1
72.4418 0 1
72.5575 0 1
72.6732 0 1
75.1054 0 1
75.2209 0 1
75.3365 0 1
75.4521 0 1
75.5678 0 1
75.6835 0 1
75.7993 0 1
75.9151 0 1
76.031 0 1
76.147 23263 152.522
76.263 24792 157.455
76.3791 24677 157.089
76.4952 24467 156.419
76.6113 24753 157.331
76.7276 25952 161.096
76.8438 27063 164.508
76.9601 28613 169.154
77.0765 29479 171.694
77.1929 29538 171.866
77.3093 29634 172.145
77.4258 29629 172.131
77.5423 29675 172.264
77.6589 29503 171.764
77.7755 27982 167.278
77.8921 25842 160.754
78.0088 23486 153.251
78.1256 21716 147.363
78.2423 20137 141.905
78.3591 20582 143.464
78.4759 21909 148.017
78.5928 23854 154.447
78.7097 25557 159.866
78.8266 27701 166.436
78.9436 28281 168.17
79.0606 29461 171.642
79.1776 30121 173.554
79.2946 31002 176.074
79.4117 30952 175.932
79.5288 31385 177.158
79.6459 30807 175.519
79.7631 30292 174.046
79.8802 29145 170.719
79.9974 27822 166.799
80.1147 26069 161.459
80.2319 26086 161.512
80.3491 26290 162.142
80.4664 27299 165.224
80.5837 29169 170.789
80.701 30175 173.71
80.8183 30166 173.684
80.9357 30139 173.606
81.053 30653 175.08
81.1704 30000 173.205
81.2877 30451 174.502
81.4051 29563 171.939
81.5225 28588 169.08
81.6399 26102 161.561
81.7573 23313 152.686
81.8747 21756 147.499
81.9922 20600 143.527
82.1096 21887 147.943
82.227 23788 154.234
82.3444 25635 160.109
82.4619 28227 168.009
82.5793 29466 171.657
82.6967 30696 175.203
82.8142 31693 178.025
82.9316 32012 178.919
83.049 32017 178.933
83.1664 32761 181
83.2838 32066 179.07
83.4012 31284 176.873
83.5186 30371 174.273
83.636 28906 170.018
83.7534 27613 166.172
83.8708 26267 162.071
83.9881 26329 162.262
84.1055 27078 164.554
84.2228 28756 169.576
84.3401 29771 172.543
84.4575 30961 175.957
84.5747 31452 177.347
84.692 31732 178.135
84.8093 31118 176.403
84.9265 30925 175.855
85.0437 29838 172.737
85.1609 27918 167.087
85.2781 25167 158.641
85.3952 22813 151.04
85.5123 20976 144.831
85.6294 20874 144.478
85.7465 22965 151.542
85.8636 25188 158.707
85.9806 27861 166.916
86.0976 28960 170.176
86.2145 30727 175.291
86.3315 31311 176.949
86.4484 32745 180.956
86.5652 32710 180.859
86.682 33037 181.761
86.7988 32745 180.956
86.9156 32737 180.934
87.0323 31825 178.396
87.149 30637 175.034
87.2657 29470 171.668
87.3823 26499 162.785
87.4988 24420 156.269
87.6154 23521 153.366
87.7318 23217 152.371
87.8483 23806 154.292
87.9647 24266 155.775
88.081 23830 154.37
88.1973 23466 153.186
88.3136 22712 150.705
88.4298 21379 146.216
88.546 20297 142.468
88.6621 18075 134.443
88.7781 14964 122.327
88.8942 0 1
89.0101 0 1
89.126 0 1
89.2419 0 1
89.3577 0 1
89.4734 0 1
89.5891 0 1
89.7047 0 1
89.8203 0 1
89.9358 0 1
92.3269 0 1
92.4424 0 1
92.558 0 1
92.6736 0 1
92.7893 0 1
92.905 0 1
93.0208 0 1
93.1366 0 1
93.2525 0 1
93.3685 0 1
93.4845 0 1
93.6005 26557 162.963
93.7167 26930 164.104
93.8328 28040 167.451
93.949 29251 171.029
94.0653 29736 172.441
94.1816 30480 174.585
94.2979 29954 173.072
94.4143 28624 169.186
94.5307 25853 160.789
94.6472 22851 151.165
94.7637 21534 146.745
94.8803 21653 147.15
94.9969 24361 156.08
95.1135 26900 164.012
95.2302 29304 171.184
95.3469 30988 176.034
95.4637 32672 180.754
95.5805 32844 181.229
95.6973 34136 184.759
95.8142 33703 183.584
95.9311 33883 184.073
96.048 33244 182.329
96.1649 33148 182.066
96.2819 32353 179.869
96.3989 31653 177.913
96.516 30707 175.234
96.633 29027 170.373
96.7501 27704 166.445
96.8673 27657 166.304
96.9844 28091 167.604
97.1016 29270 171.085
97.2188 30647 175.063
97.336 32208 179.466
97.4532 32973 181.585
97.5704 33228 182.285
97.6877 32944 181.505
97.805 32894 181.367
97.9223 32065 179.067
98.0396 30078 173.43
98.1569 26472 162.702
98.2743 23372 152.879
98.3916 21248 145.767
98.509 21262 145.815
98.6264 23537 153.418
98.7438 26972 164.232
98.8612 29805 172.641
98.9786 32576 180.488
99.096 33717 183.622
99.2134 34817 186.593
99.3308 35722 189.003
99.4482 35761 189.106
99.5656 35619 188.73
99.6831 35915 189.513
99.8005 34799 186.545
99.9179 34460 185.634
100.035 34170 184.851
100.153 32089 179.134
100.27 30174 173.707
100.388 29530 171.843
100.505 29940 173.032
100.622 30704 175.226
100.74 32341 179.836
100.857 33277 182.42
100.975 34482 185.693
101.092 34630 186.091
101.209 34946 186.938
101.327 35006 187.099
101.444 34611 186.04
101.561 33757 183.731
101.679 30574 174.854
101.796 26961 164.198
101.913 23871 154.502
102.03 22088 148.62
102.148 24127 155.329
102.265 27043 164.448
102.382 31404 177.212
102.499 33657 183.458
102.616 35589 188.65
102.733 36960 192.25
102.851 37125 192.678
102.968 37399 193.388
103.085 37685 194.126
103.202 37382 193.344
103.319 36833 191.919
103.436 35904 189.484
103.552 34789 186.518
103.669 33034 181.753
103.786 31476 177.415
103.903 30285 174.026
104.02 30168 173.689
104.137 31910 178.634
104.253 33353 182.628
104.37 34757 186.432
104.487 36165 190.171
104.603 36185 190.224
104.72 36654 191.452
104.836 35265 187.79
104.953 32400 180
105.069 29478 171.692
105.186 26190 161.833
105.302 22731 150.768
105.418 19845 140.872
105.535 18307 135.303
105.651 18796 137.099
105.767 20401 142.832
105.883 21305 145.962
105.999 21286 145.897
106.115 0 1
106.231 0 1
106.347 0 1
106.463 0 1
106.579 0 1
106.694 0 1
106.81 0 1
106.926 0 1
107.041 0 1
107.157 0 1
109.576 0 1
109.692 0 1
109.807 0 1
109.923 0 1
110.039 0 1
110.155 0 1
110.27 0 1
110.386 0 1
110.502 0 1
110.618 10789 103.87
110.735 13449 115.97
110.851 18278 135.196
110.967 22459 149.863
111.083 25908 160.96
111.199 28573 169.035
111.316 30511 174.674
111.432 31173 176.559
111.549 31829 178.407
111.665 32263 179.619
111.782 32599 180.552
111.898 31784 178.281
112.015 31172 176.556
112.132 30426 174.431
112.248 29174 170.804
112.365 27249 165.073
112.482 25981 161.186
112.599 26742 163.53
112.716 27044 164.451
112.832 28190 167.899
112.949 29252 171.032
113.066 29800 172.627
113.183 30356 174.23
113.3 30355 174.227
113.417 30108 173.517
113.534 29995 173.191
113.652 29578 171.983
113.769 28474 168.742
113.886 25584 159.95
114.003 22334 149.446
114.12 19316 138.982
114.238 18884 137.419
114.355 21236 145.726
114.472 25834 160.73
114.589 27056 164.487
114.707 30054 173.361
114.824 30900 175.784
114.942 31454 177.353
115.059 31668 177.955
115.176 31694 178.028
115.294 31194 176.618
115.411 30980 176.011
115.529 30336 174.172
115.646 29242 171.003
115.764 28212 167.964
115.881 26909 164.04
115.999 25395 159.358
116.116 25042 158.247
116.234 25459 159.559
116.351 26652 163.254
116.469 27576 166.06
116.586 28537 168.929
116.704 28677 169.343
116.821 28690 169.381
116.939 28715 169.455
117.056 29004 170.306
117.174 28420 168.582
117.291 28319 168.283
117.409 26245 162.003
117.526 23151 152.155
117.644 19778 140.634
117.761 17928 133.895
117.879 18562 136.242
117.996 22081 148.597
118.114 25432 159.474
118.231 27363 165.418
118.349 28812 169.741
118.466 28904 170.012
118.584 29343 171.298
118.701 29428 171.546
118.819 29160 170.763
118.936 29099 170.584
119.053 28677 169.343
119.171 27761 166.616
119.288 26539 162.908
119.405 25904 160.947
119.523 24534 156.633
119.64 23461 153.17
119.757 23468 153.193
119.875 23985 154.871
119.992 24795 157.464
120.109 25685 160.265
120.226 26195 161.849
120.343 26452 162.641
120.46 26677 163.331
120.578 27180 164.864
120.695 26843 163.838
120.812 26639 163.215
120.929 27040 164.438
121.046 25578 159.931
121.163 23039 151.786
121.279 19953 141.255
121.396 17588 132.62
121.513 17063 130.625
121.63 18390 135.61
121.747 20203 142.137
121.863 21850 147.817
121.98 22653 150.509
122.097 22941 151.463
122.213 22678 150.592
122.33 22306 149.352
122.446 22073 148.57
122.563 21117 145.317
122.679 20353 142.664
122.795 19147 138.373
122.912 17675 132.947
123.028 15999 126.487
123.144 14455 120.229
123.26 13231 115.026
123.377 0 1
123.493 0 1
123.609 0 1
123.725 0 1
123.84 0 1
123.956 0 1
124.072 0 1
124.188 0 1
124.303 0 1
124.419 0 1
126.852 0 1
126.968 0 1
127.083 0 1
127.199 0 1
127.315 0 1
127.431 0 1
127.547 0 1
127.663 0 1
127.779 0 1
127.895 0 1
128.011 0 1
128.127 0 1
128.243 0 1
128.359 27998 167.326
128.476 27901 167.036
128.592 27822 166.799
128.708 26982 164.262
128.825 26421 162.545
128.941 26909 164.04
129.058 27635 166.238
129.174 28727 169.49
129.291 29428 171.546
129.408 30081 173.439
129.524 30273 173.991
129.641 30368 174.264
129.758 30453 174.508
129.875 30313 174.106
129.992 30164 173.678
130.108 29819 172.682
130.225 27000 164.317
130.342 23656 153.805
130.459 21318 146.007
130.576 19675 140.268
130.693 21921 148.057
130.81 25056 158.291
130.928 27367 165.43
131.045 29125 170.66
131.162 29835 172.728
131.279 30189 173.75
131.396 30384 174.31
131.513 31038 176.176
131.631 30447 174.491
131.748 29734 172.435
131.865 29485 171.712
131.983 28998 170.288
132.1 28227 168.009
132.217 27347 165.369
132.335 26846 163.847
132.452 27188 164.888
132.57 27744 166.565
132.687 29176 170.81
132.804 29231 170.971
132.922 30002 173.211
133.039 30404 174.367
133.157 30519 174.697
133.274 31087 176.315
133.392 30657 175.091
133.509 30504 174.654
133.627 30470 174.557
133.744 28591 169.089
133.862 25485 159.64
133.979 22669 150.562
134.097 20748 144.042
134.214 21610 147.003
134.332 24443 156.343
134.449 26803 163.716
134.567 28523 168.888
134.684 29085 170.543
134.802 29858 172.795
134.919 30369 174.267
135.037 30289 174.037
135.154 30124 173.563
135.272 29743 172.462
135.389 29227 170.959
135.507 28695 169.396
135.624 28438 168.636
135.742 27822 166.799
135.859 27259 165.103
135.977 27526 165.91
136.094 27901 167.036
136.211 28307 168.247
136.329 29451 171.613
136.446 29834 172.725
136.564 30251 173.928
136.681 30104 173.505
136.798 30518 174.694
136.915 30473 174.565
137.033 30258 173.948
137.15 30448 174.494
137.267 30277 174.003
137.384 27802 166.739
137.502 24470 156.429
137.619 22305 149.349
137.736 20331 142.587
137.853 20559 143.384
137.97 23250 152.48
138.087 26323 162.244
138.204 27175 164.848
138.321 29011 170.326
138.438 29051 170.444
138.555 29827 172.705
138.672 29333 171.269
138.788 29321 171.234
138.905 27935 167.138
139.022 26350 162.327
139.139 24977 158.041
139.255 23925 154.677
139.372 22475 149.917
139.488 21057 145.11
139.605 20617 143.586
139.721 20542 143.325
139.838 20466 143.059
139.954 20045 141.58
140.071 20337 142.608
140.187 18487 135.967
140.303 18265 135.148
140.419 17473 132.185
140.535 16937 130.142
140.652 16069 126.764
140.768 0 1
140.884 0 1
141 0 1
141.115 0 1
141.231 0 1
141.347 0 1
141.463 0 1
141.578 0 1
141.694 0 1
144.104 0 1
144.219 0 1
144.335 0 1
144.45 0 1
144.566 0 1
144.682 0 1
144.798 0 1
144.914 0 1
145.03 0 1
145.146 20842 144.368
145.262 22111 148.698
145.378 22745 150.814
145.494 23113 152.03
145.61 23194 152.296
145.726 23299 152.64
145.842 23324 152.722
145.959 23439 153.098
146.075 22652 150.506
146.192 21558 146.826
146.308 19191 138.532
146.425 17673 132.94
146.541 16383 127.996
146.658 16363 127.918
146.774 17791 133.383
146.891 19161 138.423
147.008 20571 143.426
147.125 21102 145.265
147.241 21770 147.547
147.358 22281 149.268
147.475 22361 149.536
147.592 22288 149.292
147.709 21696 147.296
147.826 21285 145.894
147.943 21205 145.619
148.06 21123 145.338
148.177 20506 143.199
148.294 20715 143.927
148.411 20961 144.779
148.528 20989 144.876
148.645 21780 147.58
148.762 22241 149.134
148.88 22509 150.03
148.997 23077 151.911
149.114 22249 149.161
149.231 22542 150.14
149.349 22782 150.937
149.466 22386 149.62
149.583 22636 150.453
149.701 22537 150.123
149.818 21319 146.01
149.935 20505 143.196
150.053 18232 135.026
150.17 16871 129.888
150.287 16177 127.189
150.405 17280 131.453
150.522 18746 136.916
150.64 19844 140.869
150.757 20427 142.923
150.875 20967 144.8
150.992 21687 147.265
151.11 21440 146.424
151.227 21489 146.591
151.344 21031 145.021
151.462 20791 144.191
151.579 20455 143.021
151.697 20510 143.213
151.814 20347 142.643
151.932 20429 142.93
152.049 20244 142.281
152.167 20794 144.201
152.284 20980 144.845
152.402 21203 145.612
152.519 21089 145.221
152.636 21384 146.233
152.754 21127 145.351
152.871 21256 145.794
152.989 21413 146.332
153.106 21093 145.234
153.223 21033 145.028
153.341 20597 143.517
153.458 19892 141.039
153.575 17897 133.78
153.693 16344 127.844
153.81 15428 124.21
153.927 15632 125.028
154.044 17016 130.445
154.162 17815 133.473
154.279 18706 136.77
154.396 19524 139.728
154.513 19801 140.716
154.63 20089 141.736
154.747 20307 142.503
154.864 19696 140.342
154.981 19365 139.158
155.098 19310 138.96
155.215 18943 137.634
155.332 18662 136.609
155.449 18507 136.04
155.566 18740 136.894
155.683 18634 136.506
155.8 19230 138.672
155.917 19426 139.377
156.033 18826 137.208
156.15 0 1
156.267 0 1
156.383 0 1
156.5 0 1
156.617 0 1
156.733 0 1
156.85 0 1
156.966 0 1
157.082 0 1
157.199 0 1
157.315 0 1
157.431 0 1
157.547 0 1
157.664 0 1
157.78 0 1
157.896 0 1
158.012 0 1
158.128 0 1
158.244 0 1
158.359 0 1
158.475 0 1
158.591 0 1
158.706 0 1
