
6.15755 0 1
6.2731 0 1
6.3887 0 1
6.50437 0 1
6.62009 0 1
6.73587 0 1
6.8517 0 1
6.96759 0 1
7.08353 0 1
7.19952 0 1
7.31557 0 1
7.43166 0 1
7.54781 0 1
7.664 0 1
7.78024 0 1
7.89653 0 1
8.01286 0 1
8.12924 0 1
8.24567 0 1
8.36213 0 1
8.47864 0 1
8.59519 0 1
8.71178 0 1
8.82841 0 1
8.94508 0 1
9.06179 0 1
9.17853 0 1
9.29531 0 1
9.41212 0 1
9.52897 0 1
9.64584 0 1
9.76276 0 1
9.8797 0 1
9.99667 0 1
10.1137 0 1
10.2307 0 1
10.3478 0 1
10.4648 0 1
10.5819 0 1
10.6991 0 1
10.8162 0 1
10.9334 0 1
11.0506 0 1
11.1678 0 1
11.285 0 1
11.4023 0 1
11.5196 0 1
11.6369 0 1
11.7542 0 1
11.8715 0 1
11.9888 0 1
12.1062 0 1
12.2235 0 1
12.3409 0 1
12.4582 0 1
12.5756 0 1
12.693 0 1
12.8104 0 1
12.9278 0 1
13.0452 0 1
13.1626 0 1
13.28 0 1
13.3974 0 1
13.5149 0 1
13.6323 0 1
13.7497 0 1
13.8671 0 1
13.9845 0 1
14.1019 0 1
14.2193 0 1
14.3367 0 1
14.4541 0 1
14.5714 0 1
14.6888 0 1
14.8062 0 1
14.9235 0 1
15.0408 1216 34.8712
15.1581 1249 35.3412
15.2755 1337 36.565
15.3927 1341 36.6197
15.51 1333 36.5103
15.6273 1345 36.6742
15.7445 1340 36.606
15.8617 1369 37
15.9789 1346 36.6879
16.0961 1334 36.524
16.2132 1335 36.5377
16.3304 1336 36.5513
16.4475 1404 37.47
16.5646 1439 37.9342
16.6816 1454 38.1314
16.7986 1575 39.6863
16.9156 1595 39.9375
17.0326 1650 40.6202
17.1496 1592 39.8999
17.2665 1605 40.0625
17.3833 1611 40.1373
17.5002 1543 39.281
17.617 1510 38.8587
17.7338 1429 37.8021
17.8505 1379 37.1349
17.9672 1430 37.8153
18.0839 1393 37.3229
18.2005 1414 37.6032
18.3171 1400 37.4166
18.4337 1497 38.6911
18.5502 1521 39
18.6666 1559 39.4842
18.7831 1551 39.3827
18.8994 1626 40.3237
19.0158 1608 40.0999
19.1321 1470 38.3406
19.2483 1430 37.8153
19.3645 1338 36.5787
19.4806 1247 35.3129
19.5967 1180 34.3511
19.7128 1131 33.6303
19.8288 1027 32.0468
19.9447 949 30.8058
20.0606 0 1
20.1764 0 1
20.2922 0 1
20.4079 0 1
20.5236 0 1
20.6392 0 1
20.7548 0 1
20.8702 0 1
23.3078 0 1
23.4233 0 1
23.539 0 1
23.6547 0 1
23.7704 0 1
23.8862 0 1
24.0021 0 1
24.118 0 1
24.234 0 1
24.35 0 1
24.4661 636 25.219
24.5822 763 27.6225
24.6984 867 29.4449
24.8146 945 30.7409
24.9309 1009 31.7648
25.0472 1147 33.8674
25.1636 1281 35.7911
25.28 1361 36.8917
25.3965 1501 38.7427
25.513 1611 40.1373
25.6296 1603 40.0375
25.7462 1615 40.1871
25.8628 1658 40.7185
25.9795 1739 41.7013
26.0962 1591 39.8873
26.213 1605 40.0625
26.3298 1575 39.6863
26.4466 1495 38.6652
26.5635 1453 38.1182
26.6804 1477 38.4318
26.7973 1447 38.0395
26.9143 1489 38.5876
27.0313 1542 39.2683
27.1483 1571 39.6358
27.2653 1541 39.2556
27.3824 1664 40.7922
27.4996 1621 40.2616
27.6167 1564 39.5474
27.7339 1598 39.975
27.8511 1539 39.2301
27.9683 1452 38.1051
28.0855 1457 38.1707
28.2028 1368 36.9865
28.3201 1363 36.9188
28.4374 1352 36.7696
28.5547 1393 37.3229
28.6721 1414 37.6032
28.7894 1518 38.9615
28.9068 1541 39.2556
29.0242 1585 39.8121
29.1416 1652 40.6448
29.259 1590 39.8748
29.3764 1577 39.7115
29.4939 1608 40.0999
29.6113 1566 39.5727
29.7288 1534 39.1663
29.8463 1426 37.7624
29.9638 1378 37.1214
30.0812 1373 37.054
30.1987 1318 36.3043
30.3162 1404 37.47
30.4337 1478 38.4448
30.5512 1541 39.2556
30.6687 1504 38.7814
30.7862 1530 39.1152
30.9037 1558 39.4715
31.0212 1596 39.95
31.1387 1552 39.3954
31.2562 1527 39.0768
31.3737 1428 37.7889
31.4912 1426 37.7624
31.6087 1451 38.092
31.7262 1412 37.5766
31.8436 1301 36.0694
31.9611 1335 36.5377
32.0785 1297 36.0139
32.1959 1397 37.3765
32.3134 1429 37.8021
32.4308 1526 39.064
32.5482 1463 38.2492
32.6655 1581 39.7618
32.7829 1651 40.6325
32.9002 1604 40.05
33.0176 1586 39.8246
33.1349 1637 40.4599
33.2522 1561 39.5095
33.3694 1517 38.9487
33.4867 1444 38
33.6039 1331 36.4829
33.7211 1320 36.3318
33.8383 1296 36
33.9554 1322 36.3593
34.0725 1365 36.9459
34.1896 1397 37.3765
34.3067 1366 36.9594
34.4237 1398 37.3898
34.5407 1458 38.1838
34.6577 1502 38.7556
34.7746 1488 38.5746
34.8915 1462 38.2361
35.0084 1429 37.8021
35.1252 1372 37.0405
35.242 1394 37.3363
35.3587 1310 36.1939
35.4755 1336 36.5513
35.5921 1239 35.1994
35.7088 1250 35.3553
35.8254 1313 36.2353
35.9419 1289 35.9026
36.0584 1360 36.8782
36.1749 1396 37.3631
36.2913 1386 37.229
36.4077 1463 38.2492
36.524 1419 37.6696
36.6403 1293 35.9583
36.7565 1234 35.1283
36.8727 1075 32.7872
36.9889 1062 32.5883
37.1049 1051 32.4191
37.221 0 1
37.3369 0 1
37.4529 0 1
37.5687 0 1
37.6845 0 1
37.8003 0 1
37.916 0 1
38.0316 0 1
38.1472 0 1
40.5851 0 1
40.7008 0 1
40.8164 0 1
40.9322 0 1
41.048 0 1
41.1639 0 1
41.2798 0 1
41.3958 0 1
41.5118 0 1
41.6279 0 1
41.744 710 26.6458
41.8602 800 28.2843
41.9765 955 30.9031
42.0928 884 29.7321
42.2091 887 29.7825
42.3255 814 28.5307
42.4419 865 29.4109
42.5584 890 29.8329
42.675 959 30.9677
42.7915 1109 33.3017
42.9081 1140 33.7639
43.0248 1164 34.1174
43.1415 1178 34.322
43.2582 1206 34.7275
43.375 1245 35.2846
43.4918 1257 35.4542
43.6087 1287 35.8748
43.7256 1269 35.623
43.8425 1221 34.9428
43.9595 1184 34.4093
44.0765 1177 34.3074
44.1935 1125 33.541
44.3106 1110 33.3167
44.4277 1059 32.5423
44.5448 1084 32.9242
44.6619 1064 32.619
44.7791 1156 34
44.8963 1214 34.8425
45.0136 1263 35.5387
45.1308 1249 35.3412
45.2481 1261 35.5106
45.3654 1251 35.3695
45.4827 1291 35.9305
45.6001 1228 35.0428
45.7174 1188 34.4674
45.8348 1161 34.0735
45.9522 1095 33.0908
46.0697 1012 31.8119
46.1871 986 31.4006
46.3046 1042 32.28
46.422 1132 33.6452
46.5395 1153 33.9559
46.657 1214 34.8425
46.7745 1188 34.4674
46.892 1259 35.4824
47.0096 1266 35.5809
47.1271 1241 35.2278
47.2446 1279 35.7631
47.3622 1262 35.5246
47.4797 1253 35.3977
47.5973 1220 34.9285
47.7149 1252 35.3836
47.8324 1138 33.7343
47.95 1150 33.9116
48.0675 1068 32.6803
48.1851 1051 32.4191
48.3027 1143 33.8083
48.4202 1218 34.8999
48.5378 1239 35.1994
48.6554 1281 35.7911
48.7729 1334 36.524
48.8904 1256 35.4401
49.008 1325 36.4005
49.1255 1259 35.4824
49.243 1193 34.5398
49.3605 1139 33.7491
49.478 1056 32.4962
49.5955 1015 31.8591
49.713 1019 31.9218
49.8304 1061 32.573
49.9479 1118 33.4365
50.0653 1133 33.6601
50.1827 1148 33.8821
50.3001 1258 35.4683
50.4175 1280 35.7771
50.5348 1321 36.3456
50.6521 1311 36.2077
50.7694 1380 37.1484
50.8867 1417 37.6431
51.004 1384 37.2022
51.1212 1309 36.1801
51.2384 1259 35.4824
51.3556 1305 36.1248
51.4727 1199 34.6266
51.5899 1214 34.8425
51.707 1179 34.3366
51.824 1267 35.5949
51.9411 1398 37.3898
52.0581 1532 39.1408
52.175 1586 39.8246
52.2919 1598 39.975
52.4088 1597 39.9625
52.5257 1661 40.7554
52.6425 1683 41.0244
52.7593 1652 40.6448
52.876 1567 39.5854
52.9927 1568 39.598
53.1094 1483 38.5097
53.226 1385 37.2156
53.3426 1317 36.2905
53.4591 1317 36.2905
53.5756 1415 37.6165
53.692 1331 36.4829
53.8084 1339 36.5923
53.9248 1181 34.3657
54.0411 1191 34.5109
54.1573 1174 34.2637
54.2735 0 1
54.3896 0 1
54.5057 0 1
54.6217 0 1
54.7377 0 1
54.8537 0 1
54.9695 0 1
55.0853 0 1
55.2011 0 1
55.3168 0 1
55.4324 0 1
57.824 0 1
57.9396 0 1
58.0553 0 1
58.1711 0 1
58.2869 0 1
58.4028 0 1
58.5187 0 1
58.6347 0 1
58.7508 0 1
58.8669 0 1
58.983 954 30.8869
59.0992 1076 32.8024
59.2155 1231 35.0856
59.3318 1302 36.0832
59.4482 1296 36
59.5646 1403 37.4566
59.681 1534 39.1663
59.7975 1479 38.4578
59.9141 1431 37.8286
60.0306 1390 37.2827
60.1473 1440 37.9473
60.2639 1354 36.7967
60.3807 1312 36.2215
60.4974 1424 37.7359
60.6142 1435 37.8814
60.731 1552 39.3954
60.8479 1614 40.1746
60.9648 1683 41.0244
61.0818 1651 40.6325
61.1987 1534 39.1663
61.3158 1592 39.8999
61.4328 1566 39.5727
61.5499 1385 37.2156
61.667 1326 36.4143
61.7841 1277 35.7351
61.9013 1220 34.9285
62.0185 1220 34.9285
62.1357 1263 35.5387
62.253 1341 36.6197
62.3702 1490 38.6005
62.4875 1511 38.8716
62.6049 1508 38.833
62.7222 1510 38.8587
62.8396 1630 40.3733
62.9569 1537 39.2046
63.0743 1518 38.9615
63.1918 1553 39.4081
63.3092 1512 38.8844
63.4267 1558 39.4715
63.5441 1458 38.1838
63.6616 1441 37.9605
63.7791 1284 35.8329
63.8966 1317 36.2905
64.0142 1332 36.4966
64.1317 1398 37.3898
64.2492 1490 38.6005
64.3668 1512 38.8844
64.4843 1569 39.6106
64.6019 1516 38.9358
64.7195 1574 39.6737
64.837 1600 40
64.9546 1518 38.9615
65.0722 1473 38.3797
65.1898 1320 36.3318
65.3074 1220 34.9285
65.4249 1217 34.8855
65.5425 1249 35.3412
65.6601 1188 34.4674
65.7777 1315 36.2629
65.8952 1375 37.081
66.0128 1443 37.9868
66.1304 1475 38.4057
66.2479 1487 38.5616
66.3655 1457 38.1707
66.483 1566 39.5727
66.6005 1593 39.9124
66.718 1521 39
66.8355 1564 39.5474
66.953 1489 38.5876
67.0705 1479 38.4578
67.1879 1477 38.4318
67.3054 1368 36.9865
67.4228 1257 35.4542
67.5402 1253 35.3977
67.6576 1276 35.7211
67.7749 1294 35.9722
67.8923 1400 37.4166
68.0096 1541 39.2556
68.1269 1447 38.0395
68.2442 1602 40.025
68.3614 1548 39.3446
68.4787 1502 38.7556
68.5958 1544 39.2938
68.713 1419 37.6696
68.8302 1318 36.3043
68.9473 1222 34.9571
69.0643 1174 34.2637
69.1814 1160 34.0588
69.2984 1206 34.7275
69.4154 1183 34.3948
69.5323 1260 35.4965
69.6492 1320 36.3318
69.7661 1396 37.3631
69.8829 1446 38.0263
69.9997 1385 37.2156
70.1165 1334 36.524
70.2332 1394 37.3363
70.3499 1329 36.4555
70.4665 1241 35.2278
70.5831 1215 34.8569
70.6996 1113 33.3617
70.8161 1061 32.573
70.9326 953 30.8707
71.049 825 28.7228
71.1653 713 26.7021
71.2817 608 24.6577
71.3979 608 24.6577
71.5141 559 23.6432
71.6303 544 23.3238
71.7464 497 22.2935
71.8624 0 1
71.9784 0 1
72.0944 0 1
72.2102 0 1
72.3261 0 1
72.4418 0 1
72.5575 0 1
72.6732 0 1
75.1054 0 1
75.2209 0 1
75.3365 0 1
75.4521 0 1
75.5678 0 1
75.6835 0 1
75.7993 0 1
75.9151 0 1
76.031 0 1
76.147 960 30.9839
76.263 875 29.5804
76.3791 998 31.5911
76.4952 995 31.5436
76.6113 1063 32.6037
76.7276 1043 32.2955
76.8438 1230 35.0714
76.9601 1210 34.7851
77.0765 1293 35.9583
77.1929 1395 37.3497
77.3093 1364 36.9324
77.4258 1299 36.0416
77.5423 1250 35.3553
77.6589 1242 35.242
77.7755 1155 33.9853
77.8921 1013 31.8277
78.0088 1037 32.2025
78.1256 940 30.6594
78.2423 872 29.5296
78.3591 1032 32.1248
78.4759 1118 33.4365
78.5928 1195 34.5688
78.7097 1250 35.3553
78.8266 1267 35.5949
78.9436 1293 35.9583
79.0606 1366 36.9594
79.1776 1260 35.4965
79.2946 1387 37.2424
79.4117 1396 37.3631
79.5288 1331 36.4829
79.6459 1299 36.0416
79.7631 1259 35.4824
79.8802 1208 34.7563
79.9974 1131 33.6303
80.1147 1103 33.2114
80.2319 1089 33
80.3491 1129 33.6006
80.4664 1195 34.5688
80.5837 1361 36.8917
80.701 1379 37.1349
80.8183 1341 36.6197
80.9357 1338 36.5787
81.053 1431 37.8286
81.1704 1383 37.1887
81.2877 1351 36.756
81.4051 1290 35.9166
81.5225 1184 34.4093
81.6399 1115 33.3916
81.7573 951 30.8383
81.8747 998 31.5911
81.9922 982 31.3369
82.1096 1077 32.8177
82.227 1183 34.3948
82.3444 1295 35.9861
82.4619 1284 35.8329
82.5793 1333 36.5103
82.6967 1297 36.0139
82.8142 1415 37.6165
82.9316 1430 37.8153
83.049 1395 37.3497
83.1664 1394 37.3363
83.2838 1416 37.6298
83.4012 1278 35.7491
83.5186 1263 35.5387
83.636 1254 35.4119
83.7534 1135 33.6898
83.8708 1082 32.8938
83.9881 1096 33.1059
84.1055 1138 33.7343
84.2228 1243 35.2562
84.3401 1309 36.1801
84.4575 1310 36.1939
84.5747 1418 37.6563
84.692 1422 37.7094
84.8093 1370 37.0135
84.9265 1371 37.027
85.0437 1237 35.171
85.1609 1185 34.4238
85.2781 1038 32.218
85.3952 1000 31.6228
85.5123 965 31.0644
85.6294 947 30.7734
85.7465 1136 33.7046
85.8636 1225 35
85.9806 1283 35.819
86.0976 1339 36.5923
86.2145 1309 36.1801
86.3315 1440 37.9473
86.4484 1460 38.2099
86.5652 1475 38.4057
86.682 1409 37.5366
86.7988 1431 37.8286
86.9156 1382 37.1753
87.0323 1381 37.1618
87.149 1319 36.318
87.2657 1183 34.3948
87.3823 1064 32.619
87.4988 1029 32.078
87.6154 930 30.4959
87.7318 1002 31.6544
87.8483 979 31.289
87.9647 1059 32.5423
88.081 1121 33.4813
88.1973 1113 33.3617
88.3136 982 31.3369
88.4298 979 31.289
88.546 897 29.95
88.6621 722 26.8701
88.7781 603 24.5561
88.8942 0 1
89.0101 0 1
89.126 0 1
89.2419 0 1
89.3577 0 1
89.4734 0 1
89.5891 0 1
89.7047 0 1
89.8203 0 1
89.9358 0 1
92.3269 0 1
92.4424 0 1
92.558 0 1
92.6736 0 1
92.7893 0 1
92.905 0 1
93.0208 0 1
93.1366 0 1
93.2525 0 1
93.3685 0 1
93.4845 0 1
93.6005 1065 32.6343
93.7167 1143 33.8083
93.8328 1147 33.8674
93.949 1200 34.641
94.0653 1215 34.8569
94.1816 1083 32.909
94.2979 1165 34.1321
94.4143 1049 32.3883
94.5307 1037 32.2025
94.6472 1015 31.8591
94.7637 1105 33.2415
94.8803 1107 33.2716
94.9969 1254 35.4119
95.1135 1238 35.1852
95.2302 1276 35.7211
95.3469 1384 37.2022
95.4637 1424 37.7359
95.5805 1411 37.5633
95.6973 1403 37.4566
95.8142 1497 38.6911
95.9311 1413 37.5899
96.048 1390 37.2827
96.1649 1357 36.8375
96.2819 1405 37.4833
96.3989 1309 36.1801
96.516 1213 34.8281
96.633 1249 35.3412
96.7501 1184 34.4093
96.8673 1179 34.3366
96.9844 1288 35.8887
97.1016 1257 35.4542
97.2188 1370 37.0135
97.336 1414 37.6032
97.4532 1474 38.3927
97.5704 1364 36.9324
97.6877 1459 38.1969
97.805 1378 37.1214
97.9223 1346 36.6879
98.0396 1166 34.1467
98.1569 1075 32.7872
98.2743 1057 32.5115
98.3916 985 31.3847
98.509 1110 33.3167
98.6264 1310 36.1939
98.7438 1290 35.9166
98.8612 1376 37.0945
98.9786 1387 37.2424
99.096 1490 38.6005
99.2134 1432 37.8418
99.3308 1525 39.0512
99.4482 1585 39.8121
99.5656 1588 39.8497
99.6831 1527 39.0768
99.8005 1537 39.2046
99.9179 1395 37.3497
100.035 1399 37.4032
100.153 1410 37.55
100.27 1294 35.9722
100.388 1273 35.6791
100.505 1419 37.6696
100.622 1482 38.4968
100.74 1466 38.2884
100.857 1532 39.1408
100.975 1533 39.1535
101.092 1588 39.8497
101.209 1453 38.1182
101.327 1524 39.0384
101.444 1387 37.2424
101.561 1289 35.9026
101.679 1191 34.5109
101.796 1109 33.3017
101.913 1073 32.7567
102.03 1139 33.7491
102.148 1283 35.819
102.265 1386 37.229
102.382 1411 37.5633
102.499 1464 38.2623
102.616 1512 38.8844
102.733 1563 39.5348
102.851 1613 40.1622
102.968 1637 40.4599
103.085 1567 39.5854
103.202 1548 39.3446
103.319 1597 39.9625
103.436 1487 38.5616
103.552 1482 38.4968
103.669 1426 37.7624
103.786 1389 37.2693
103.903 1259 35.4824
104.02 1310 36.1939
104.137 1427 37.7757
104.253 1462 38.2361
104.37 1585 39.8121
104.487 1655 40.6817
104.603 1585 39.8121
104.72 1574 39.6737
104.836 1498 38.704
104.953 1423 37.7227
105.069 1232 35.0999
105.186 1147 33.8674
105.302 988 31.4325
105.418 983 31.3528
105.535 985 31.3847
105.651 999 31.607
105.767 1001 31.6386
105.883 968 31.1127
105.999 978 31.273
106.115 0 1
106.231 0 1
106.347 0 1
106.463 0 1
106.579 0 1
106.694 0 1
106.81 0 1
106.926 0 1
107.041 0 1
107.157 0 1
109.576 0 1
109.692 0 1
109.807 0 1
109.923 0 1
110.039 0 1
110.155 0 1
110.27 0 1
110.386 0 1
110.502 0 1
110.618 708 26.6083
110.735 875 29.5804
110.851 1008 31.749
110.967 1061 32.573
111.083 1243 35.2562
111.199 1238 35.1852
111.316 1378 37.1214
111.432 1478 38.4448
111.549 1543 39.281
111.665 1487 38.5616
111.782 1566 39.5727
111.898 1447 38.0395
112.015 1439 37.9342
112.132 1352 36.7696
112.248 1313 36.2353
112.365 1231 35.0856
112.482 1175 34.2783
112.599 1348 36.7151
112.716 1463 38.2492
112.832 1467 38.3014
112.949 1502 38.7556
113.066 1485 38.5357
113.183 1522 39.0128
113.3 1538 39.2173
113.417 1462 38.2361
113.534 1351 36.756
113.652 1233 35.1141
113.769 1076 32.8024
113.886 1090 33.0151
114.003 1039 32.2335
114.12 1111 33.3317
114.238 1244 35.2704
114.355 1332 36.4966
114.472 1364 36.9324
114.589 1531 39.128
114.707 1494 38.6523
114.824 1526 39.064
114.942 1574 39.6737
115.059 1519 38.9744
115.176 1513 38.8973
115.294 1434 37.8682
115.411 1530 39.1152
115.529 1550 39.37
115.646 1424 37.7359
115.764 1388 37.2559
115.881 1331 36.4829
115.999 1249 35.3412
116.116 1377 37.108
116.234 1329 36.4555
116.351 1461 38.223
116.469 1456 38.1576
116.586 1551 39.3827
116.704 1527 39.0768
116.821 1525 39.0512
116.939 1559 39.4842
117.056 1442 37.9737
117.174 1309 36.1801
117.291 1183 34.3948
117.409 1145 33.8378
117.526 1100 33.1662
117.644 1041 32.2645
117.761 1127 33.5708
117.879 1295 35.9861
117.996 1310 36.1939
118.114 1363 36.9188
118.231 1447 38.0395
118.349 1461 38.223
118.466 1485 38.5357
118.584 1510 38.8587
118.701 1521 39
118.819 1528 39.0896
118.936 1439 37.9342
119.053 1418 37.6563
119.171 1372 37.0405
119.288 1338 36.5787
119.405 1201 34.6554
119.523 1208 34.7563
119.64 1173 34.2491
119.757 1225 35
119.875 1293 35.9583
119.992 1297 36.0139
120.109 1404 37.47
120.226 1426 37.7624
120.343 1339 36.5923
120.46 1383 37.1887
120.578 1366 36.9594
120.695 1363 36.9188
120.812 1234 35.1283
120.929 1115 33.3916
121.046 1044 32.311
121.163 982 31.3369
121.279 957 30.9354
121.396 952 30.8545
121.513 1061 32.573
121.63 1027 32.0468
121.747 1081 32.8786
121.863 1110 33.3167
121.98 1094 33.0757
122.097 1128 33.5857
122.213 1046 32.3419
122.33 1089 33
122.446 1009 31.7648
122.563 965 31.0644
122.679 931 30.5123
122.795 838 28.9482
122.912 714 26.7208
123.028 742 27.2397
123.144 614 24.779
123.26 519 22.7816
123.377 0 1
123.493 0 1
123.609 0 1
123.725 0 1
123.84 0 1
123.956 0 1
124.072 0 1
124.188 0 1
124.303 0 1
124.419 0 1
126.852 0 1
126.968 0 1
127.083 0 1
127.199 0 1
127.315 0 1
127.431 0 1
127.547 0 1
127.663 0 1
127.779 0 1
127.895 0 1
128.011 0 1
128.127 0 1
128.243 0 1
128.359 1310 36.1939
128.476 1281 35.7911
128.592 1319 36.318
128.708 1317 36.2905
128.825 1293 35.9583
128.941 1313 36.2353
129.058 1505 38.7943
129.174 1583 39.7869
129.291 1564 39.5474
129.408 1559 39.4842
129.524 1531 39.128
129.641 1511 38.8716
129.758 1518 38.9615
129.875 1435 37.8814
129.992 1280 35.7771
130.108 1208 34.7563
130.225 1121 33.4813
130.342 1157 34.0147
130.459 1197 34.5977
130.576 1310 36.1939
130.693 1370 37.0135
130.81 1359 36.8646
130.928 1423 37.7227
131.045 1474 38.3927
131.162 1488 38.5746
131.279 1519 38.9744
131.396 1519 38.9744
131.513 1570 39.6232
131.631 1569 39.6106
131.748 1470 38.3406
131.865 1437 37.9078
131.983 1357 36.8375
132.1 1316 36.2767
132.217 1349 36.7287
132.335 1335 36.5377
132.452 1383 37.1887
132.57 1524 39.0384
132.687 1560 39.4968
132.804 1483 38.5097
132.922 1614 40.1746
133.039 1516 38.9358
133.157 1578 39.724
133.274 1562 39.5221
133.392 1523 39.0256
133.509 1338 36.5787
133.627 1191 34.5109
133.744 1166 34.1467
133.862 1123 33.5112
133.979 1211 34.7994
134.097 1252 35.3836
134.214 1472 38.3667
134.332 1396 37.3631
134.449 1417 37.6431
134.567 1474 38.3927
134.684 1528 39.0896
134.802 1538 39.2173
134.919 1547 39.3319
135.037 1519 38.9744
135.154 1488 38.5746
135.272 1482 38.4968
135.389 1488 38.5746
135.507 1347 36.7015
135.624 1379 37.1349
135.742 1410 37.55
135.859 1301 36.0694
135.977 1371 37.027
136.094 1451 38.092
136.211 1481 38.4838
136.329 1542 39.2683
136.446 1543 39.281
136.564 1622 40.2741
136.681 1642 40.5216
136.798 1537 39.2046
136.915 1483 38.5097
137.033 1444 38
137.15 1298 36.0278
137.267 1323 36.3731
137.384 1208 34.7563
137.502 1158 34.0294
137.619 1137 33.7194
137.736 1293 35.9583
137.853 1271 35.6511
137.97 1356 36.8239
138.087 1412 37.5766
138.204 1414 37.6032
138.321 1443 37.9868
138.438 1550 39.37
138.555 1579 39.7366
138.672 1500 38.7298
138.788 1475 38.4057
138.905 1376 37.0945
139.022 1338 36.5787
139.139 1236 35.1568
139.255 1153 33.9559
139.372 1088 32.9848
139.488 987 31.4166
139.605 978 31.273
139.721 1081 32.8786
139.838 966 31.0805
139.954 1000 31.6228
140.071 954 30.8869
140.187 842 29.0172
140.303 800 28.2843
140.419 748 27.3496
140.535 734 27.0924
140.652 620 24.8998
140.768 0 1
140.884 0 1
141 0 1
141.115 0 1
141.231 0 1
141.347 0 1
141.463 0 1
141.578 0 1
141.694 0 1
144.104 0 1
144.219 0 1
144.335 0 1
144.45 0 1
144.566 0 1
144.682 0 1
144.798 0 1
144.914 0 1
145.03 0 1
145.146 1151 33.9264
145.262 1142 33.7935
145.378 1217 34.8855
145.494 1296 36
145.61 1285 35.8469
145.726 1207 34.7419
145.842 1132 33.6452
145.959 1011 31.7962
146.075 1022 31.9687
146.192 962 31.0161
146.308 913 30.2159
146.425 911 30.1828
146.541 1111 33.3317
146.658 1024 32
146.774 1159 34.0441
146.891 1100 33.1662
147.008 1109 33.3017
147.125 1164 34.1174
147.241 1183 34.3948
147.358 1181 34.3657
147.475 1237 35.171
147.592 1183 34.3948
147.709 1181 34.3657
147.826 1193 34.5398
147.943 1115 33.3916
148.06 1045 32.3265
148.177 1070 32.7109
148.294 1074 32.7719
148.411 1083 32.909
148.528 1169 34.1906
148.645 1232 35.0999
148.762 1253 35.3977
148.88 1179 34.3366
148.997 1261 35.5106
149.114 1172 34.2345
149.231 1206 34.7275
149.349 1195 34.5688
149.466 1120 33.4664
149.583 1096 33.1059
149.701 1023 31.9844
149.818 1009 31.7648
149.935 999 31.607
150.053 956 30.9192
150.17 990 31.4643
150.287 985 31.3847
150.405 1022 31.9687
150.522 1121 33.4813
150.64 1127 33.5708
150.757 1212 34.8138
150.875 1215 34.8569
150.992 1176 34.2929
151.11 1147 33.8674
151.227 1161 34.0735
151.344 1147 33.8674
151.462 1085 32.9393
151.579 1088 32.9848
151.697 1065 32.6343
151.814 1062 32.5883
151.932 1016 31.8748
152.049 1068 32.6803
152.167 1036 32.187
152.284 1128 33.5857
152.402 1091 33.0303
152.519 1197 34.5977
152.636 1179 34.3366
152.754 1127 33.5708
152.871 1151 33.9264
152.989 1169 34.1906
153.106 1099 33.1512
153.223 1018 31.9061
153.341 926 30.4302
153.458 950 30.8221
153.575 884 29.7321
153.693 938 30.6268
153.81 952 30.8545
153.927 984 31.3688
154.044 954 30.8869
154.162 1025 32.0156
154.279 1036 32.187
154.396 1097 33.121
154.513 1109 33.3017
154.63 1110 33.3167
154.747 1023 31.9844
154.864 1062 32.5883
154.981 1061 32.573
155.098 1022 31.9687
155.215 1008 31.749
155.332 1005 31.7017
155.449 940 30.6594
155.566 1030 32.0936
155.683 935 30.5778
155.8 1011 31.7962
155.917 1001 31.6386
156.033 968 31.1127
156.15 0 1
156.267 0 1
156.383 0 1
156.5 0 1
156.617 0 1
156.733 0 1
156.85 0 1
156.966 0 1
157.082 0 1
157.199 0 1
157.315 0 1
157.431 0 1
157.547 0 1
157.664 0 1
157.78 0 1
157.896 0 1
158.012 0 1
158.128 0 1
158.244 0 1
158.359 0 1
158.475 0 1
158.591 0 1
158.706 0 1
