
6.15755 0 1
6.2731 0 1
6.3887 0 1
6.50437 0 1
6.62009 0 1
6.73587 0 1
6.8517 0 1
6.96759 0 1
7.08353 0 1
7.19952 0 1
7.31557 0 1
7.43166 0 1
7.54781 0 1
7.664 0 1
7.78024 0 1
7.89653 0 1
8.01286 0 1
8.12924 0 1
8.24567 0 1
8.36213 0 1
8.47864 0 1
8.59519 0 1
8.71178 0 1
8.82841 0 1
8.94508 0 1
9.06179 0 1
9.17853 0 1
9.29531 0 1
9.41212 0 1
9.52897 0 1
9.64584 0 1
9.76276 0 1
9.8797 0 1
9.99667 0 1
10.1137 0 1
10.2307 0 1
10.3478 0 1
10.4648 0 1
10.5819 0 1
10.6991 0 1
10.8162 0 1
10.9334 0 1
11.0506 0 1
11.1678 0 1
11.285 0 1
11.4023 0 1
11.5196 0 1
11.6369 0 1
11.7542 0 1
11.8715 0 1
11.9888 0 1
12.1062 0 1
12.2235 0 1
12.3409 0 1
12.4582 0 1
12.5756 0 1
12.693 0 1
12.8104 0 1
12.9278 0 1
13.0452 0 1
13.1626 0 1
13.28 0 1
13.3974 0 1
13.5149 0 1
13.6323 0 1
13.7497 0 1
13.8671 0 1
13.9845 0 1
14.1019 0 1
14.2193 0 1
14.3367 0 1
14.4541 0 1
14.5714 0 1
14.6888 0 1
14.8062 0 1
14.9235 0 1
15.0408 0 0
15.1581 0 0
15.2755 0 0
15.3927 0 0
15.51 0 0
15.6273 0 0
15.7445 0 0
15.8617 0 0
15.9789 0 0
16.0961 0 0
16.2132 0 0
16.3304 0 0
16.4475 0 0
16.5646 0 0
16.6816 0 0
16.7986 0 0
16.9156 0 0
17.0326 0 0
17.1496 0 0
17.2665 0 0
17.3833 0 0
17.5002 0 0
17.617 0 0
17.7338 0 0
17.8505 0 0
17.9672 0 0
18.0839 0 0
18.2005 0 0
18.3171 0 0
18.4337 0 0
18.5502 0 0
18.6666 0 0
18.7831 0 0
18.8994 0 0
19.0158 0 0
19.1321 0 0
19.2483 0 0
19.3645 0 0
19.4806 0 0
19.5967 0 0
19.7128 0 0
19.8288 0 0
19.9447 0 0
20.0606 0 1
20.1764 0 1
20.2922 0 1
20.4079 0 1
20.5236 0 1
20.6392 0 1
20.7548 0 1
20.8702 0 1
23.3078 0 1
23.4233 0 1
23.539 0 1
23.6547 0 1
23.7704 0 1
23.8862 0 1
24.0021 0 1
24.118 0 1
24.234 0 1
24.35 0 1
24.4661 53243 230.744
24.5822 60944 246.868
24.6984 64641 254.246
24.8146 66325 257.536
24.9309 67535 259.875
25.0472 67597 259.994
25.1636 68181 261.115
25.28 67546 259.896
25.3965 68112 260.983
25.513 67473 259.756
25.6296 67620 260.038
25.7462 66553 257.979
25.8628 65215 255.372
25.9795 64093 253.166
26.0962 63073 251.143
26.213 61972 248.942
26.3298 59831 244.604
26.4466 59435 243.793
26.5635 57481 239.752
26.6804 55117 234.77
26.7973 53119 230.476
26.9143 53072 230.374
27.0313 53526 231.357
27.1483 54393 233.223
27.2653 54040 232.465
27.3824 54330 233.088
27.4996 53021 230.263
27.6167 50630 225.011
27.7339 43849 209.402
27.8511 40252 200.629
27.9683 42285 205.633
28.0855 46926 216.624
28.2028 52036 228.114
28.3201 54303 233.03
28.4374 57282 239.337
28.5547 58834 242.557
28.6721 59870 244.683
28.7894 60657 246.286
28.9068 60959 246.899
29.0242 60609 246.189
29.1416 61090 247.164
29.259 61302 247.592
29.3764 60977 246.935
29.4939 60675 246.323
29.6113 61244 247.475
29.7288 60468 245.902
29.8463 60298 245.557
29.9638 59727 244.391
30.0812 58183 241.212
30.1987 57160 239.082
30.3162 56846 238.424
30.4337 57395 239.573
30.5512 56961 238.665
30.6687 57086 238.927
30.7862 57008 238.763
30.9037 55379 235.327
31.0212 54935 234.382
31.1387 50922 225.659
31.2562 44873 211.832
31.3737 43901 209.526
31.4912 43984 209.724
31.6087 43820 209.332
31.7262 44303 210.483
31.8436 47016 216.832
31.9611 49065 221.506
32.0785 48825 220.964
32.1959 49640 222.8
32.3134 48977 221.307
32.4308 48771 220.842
32.5482 48772 220.844
32.6655 47976 219.034
32.7829 47166 217.177
32.9002 47453 217.837
33.0176 46342 215.272
33.1349 45977 214.422
33.2522 45916 214.28
33.3694 45757 213.909
33.4867 43955 209.654
33.6039 43161 207.752
33.7211 41839 204.546
33.8383 41331 203.3
33.9554 40959 202.383
34.0725 41521 203.767
34.1896 41225 203.039
34.3067 40093 200.232
34.4237 39558 198.892
34.5407 38982 197.439
34.6577 38889 197.203
34.7746 38473 196.145
34.8915 37242 192.982
35.0084 34151 184.8
35.1252 31396 177.189
35.242 29050 170.441
35.3587 27891 167.006
35.4755 28647 169.254
35.5921 30788 175.465
35.7088 33031 181.744
35.8254 33923 184.182
35.9419 34347 185.329
36.0584 34211 184.962
36.1749 34661 186.175
36.2913 34472 185.666
36.4077 34777 186.486
36.524 34687 186.244
36.6403 35308 187.904
36.7565 35494 188.399
36.8727 35621 188.735
36.9889 35113 187.385
37.1049 34040 184.499
37.221 0 1
37.3369 0 1
37.4529 0 1
37.5687 0 1
37.6845 0 1
37.8003 0 1
37.916 0 1
38.0316 0 1
38.1472 0 1
40.5851 0 1
40.7008 0 1
40.8164 0 1
40.9322 0 1
41.048 0 1
41.1639 0 1
41.2798 0 1
41.3958 0 1
41.5118 0 1
41.6279 0 1
41.744 41814 204.485
41.8602 43335 208.171
41.9765 43695 209.033
42.0928 43639 208.899
42.2091 43577 208.751
42.3255 43709 209.067
42.4419 43986 209.728
42.5584 44825 211.719
42.675 46741 216.197
42.7915 47522 217.995
42.9081 47516 217.982
43.0248 47020 216.841
43.1415 47418 217.757
43.2582 46508 215.657
43.375 45224 212.659
43.4918 45300 212.838
43.6087 47225 217.313
43.7256 48709 220.701
43.8425 48599 220.452
43.9595 48407 220.016
44.0765 47073 216.963
44.1935 43152 207.731
44.3106 41387 203.438
44.4277 42986 207.331
44.5448 44347 210.587
44.6619 46112 214.737
44.7791 46529 215.706
44.8963 46821 216.382
45.0136 46147 214.819
45.1308 46518 215.68
45.2481 45414 213.106
45.3654 45358 212.974
45.4827 45101 212.37
45.6001 44066 209.919
45.7174 43071 207.536
45.8348 42793 206.865
45.9522 42652 206.524
46.0697 42579 206.347
46.1871 42997 207.357
46.3046 43102 207.61
46.422 42843 206.986
46.5395 42066 205.1
46.657 41458 203.612
46.7745 40437 201.09
46.892 38543 196.324
47.0096 38580 196.418
47.1271 39721 199.301
47.2446 41196 202.968
47.3622 41520 203.765
47.4797 40969 202.408
47.5973 40888 202.208
47.7149 39628 199.068
47.8324 37235 192.964
47.95 36173 190.192
48.0675 36443 190.9
48.1851 38507 196.232
48.3027 39365 198.406
48.4202 39639 199.095
48.5378 40105 200.262
48.6554 40299 200.746
48.7729 40481 201.199
48.8904 40495 201.234
49.008 40242 200.604
49.1255 40089 200.222
49.243 40807 202.007
49.3605 40609 201.517
49.478 41680 204.157
49.5955 42585 206.361
49.713 43952 209.647
49.8304 44267 210.397
49.9479 45264 212.753
50.0653 44445 210.82
50.1827 44007 209.778
50.3001 41658 204.103
50.4175 40301 200.751
50.5348 41281 203.177
50.6521 46866 216.486
50.7694 49006 221.373
50.8867 51997 228.029
51.004 54407 233.253
51.1212 55738 236.089
51.2384 56528 237.756
51.3556 55047 234.621
51.4727 53883 232.127
51.5899 54464 233.375
51.707 56930 238.6
51.824 59790 244.52
51.9411 61221 247.429
52.0581 61900 248.797
52.175 63399 251.792
52.2919 63448 251.889
52.4088 64606 254.177
52.5257 63891 252.767
52.6425 62889 250.777
52.7593 63680 252.349
52.876 64320 253.614
52.9927 65019 254.988
53.1094 65892 256.694
53.226 67909 260.594
53.3426 68594 261.905
53.4591 68311 261.364
53.5756 67327 259.474
53.692 66156 257.208
53.8084 63646 252.282
53.9248 60730 246.435
54.0411 59760 244.459
54.1573 63127 251.251
54.2735 0 1
54.3896 0 1
54.5057 0 1
54.6217 0 1
54.7377 0 1
54.8537 0 1
54.9695 0 1
55.0853 0 1
55.2011 0 1
55.3168 0 1
55.4324 0 1
57.824 0 1
57.9396 0 1
58.0553 0 1
58.1711 0 1
58.2869 0 1
58.4028 0 1
58.5187 0 1
58.6347 0 1
58.7508 0 1
58.8669 0 1
58.983 67976 260.722
59.0992 69066 262.804
59.2155 72092 268.5
59.3318 75187 274.202
59.4482 79209 281.441
59.5646 81372 285.258
59.681 83394 288.78
59.7975 83395 288.782
59.9141 82057 286.456
60.0306 80873 284.382
60.1473 79226 281.471
60.2639 78040 279.356
60.3807 76050 275.772
60.4974 76360 276.333
60.6142 76484 276.557
60.731 75765 275.254
60.8479 75960 275.608
60.9648 74678 273.273
61.0818 74731 273.37
61.1987 73839 271.733
61.3158 73886 271.82
61.4328 73293 270.727
61.5499 73230 270.61
61.667 74135 272.277
61.7841 73101 270.372
61.9013 72167 268.639
62.0185 70368 265.27
62.1357 67107 259.05
62.253 64746 254.452
62.3702 61953 248.904
62.4875 61536 248.065
62.6049 64385 253.742
62.7222 68722 262.149
62.8396 71089 266.625
62.9569 73040 270.259
63.0743 73841 271.737
63.1918 74936 273.744
63.3092 74104 272.22
63.4267 73271 270.686
63.5441 72572 269.392
63.6616 71364 267.14
63.7791 70802 266.086
63.8966 70554 265.62
64.0142 68800 262.298
64.1317 68394 261.522
64.2492 67494 259.796
64.3668 66712 258.287
64.4843 66121 257.14
64.6019 66410 257.701
64.7195 66107 257.113
64.837 66389 257.661
64.9546 66644 258.155
65.0722 66647 258.161
65.1898 66391 257.665
65.3074 67446 259.704
65.4249 64887 254.729
65.5425 63517 252.026
65.6601 60957 246.895
65.7777 58029 240.892
65.8952 55286 235.13
66.0128 54329 233.086
66.1304 57133 239.025
66.2479 61589 248.171
66.3655 65002 254.955
66.483 67509 259.825
66.6005 70304 265.149
66.718 71915 268.17
66.8355 71581 267.546
66.953 71199 266.831
67.0705 70714 265.921
67.1879 69600 263.818
67.3054 68775 262.25
67.4228 67239 259.305
67.5402 66734 258.329
67.6576 66805 258.467
67.7749 65032 255.014
67.8923 65873 256.657
68.0096 64201 253.379
68.1269 64668 254.299
68.2442 65282 255.503
68.3614 65630 256.184
68.4787 66613 258.095
68.5958 67455 259.721
68.713 67646 260.088
68.8302 67915 260.605
68.9473 68073 260.908
69.0643 66994 258.832
69.1814 64287 253.549
69.2984 61183 247.352
69.4154 58839 242.568
69.5323 56778 238.281
69.6492 56911 238.56
69.7661 61729 248.453
69.8829 66028 256.959
69.9997 69429 263.494
70.1165 71713 267.793
70.2332 74383 272.732
70.3499 74962 273.792
70.4665 76082 275.83
70.5831 75866 275.438
70.6996 74874 273.631
70.8161 73204 270.562
70.9326 71863 268.073
71.049 69970 264.518
71.1653 69954 264.488
71.2817 67645 260.087
71.3979 65845 256.603
71.5141 64694 254.35
71.6303 62542 250.084
71.7464 56541 237.784
71.8624 0 1
71.9784 0 1
72.0944 0 1
72.2102 0 1
72.3261 0 1
72.4418 0 1
72.5575 0 1
72.6732 0 1
75.1054 0 1
75.2209 0 1
75.3365 0 1
75.4521 0 1
75.5678 0 1
75.6835 0 1
75.7993 0 1
75.9151 0 1
76.031 0 1
76.147 64936 254.825
76.263 69372 263.386
76.3791 69442 263.519
76.4952 68500 261.725
76.6113 68165 261.084
76.7276 67222 259.272
76.8438 65219 255.38
76.9601 64210 253.397
77.0765 64300 253.574
77.1929 64536 254.039
77.3093 66308 257.503
77.4258 66591 258.052
77.5423 67037 258.915
77.6589 67353 259.525
77.7755 66800 258.457
77.8921 66284 257.457
78.0088 64921 254.796
78.1256 60682 246.337
78.2423 56562 237.828
78.3591 52994 230.204
78.4759 49970 223.54
78.5928 50068 223.759
78.7097 54167 232.738
78.8266 61007 246.996
78.9436 59067 243.037
79.0606 64559 254.085
79.1776 67349 259.517
79.2946 70816 266.113
79.4117 72050 268.421
79.5288 72002 268.332
79.6459 71954 268.242
79.7631 70791 266.066
79.8802 69043 262.76
79.9974 68918 262.522
80.1147 66268 257.426
80.2319 65773 256.462
80.3491 64503 253.974
80.4664 62799 250.597
80.5837 61817 248.63
80.701 61336 247.661
80.8183 60795 246.566
80.9357 61526 248.044
81.053 62767 250.533
81.1704 62643 250.286
81.2877 63063 251.123
81.4051 62772 250.543
81.5225 62927 250.853
81.6399 58911 242.716
81.7573 57466 239.721
81.8747 53580 231.474
81.9922 49817 223.197
82.1096 48314 219.804
82.227 47734 218.481
82.3444 50709 225.187
82.4619 56437 237.565
82.5793 57230 239.228
82.6967 61514 248.02
82.8142 63175 251.346
82.9316 65355 255.646
83.049 66228 257.348
83.1664 65807 256.529
83.2838 65199 255.341
83.4012 64067 253.115
83.5186 63591 252.173
83.636 62669 250.338
83.7534 61957 248.912
83.8708 60455 245.876
83.9881 58487 241.841
84.1055 57101 238.958
84.2228 55296 235.151
84.3401 55620 235.839
84.4575 56235 237.139
84.5747 57584 239.967
84.692 58191 241.228
84.8093 58625 242.126
84.9265 58416 241.694
85.0437 58025 240.884
85.1609 57592 239.983
85.2781 54862 234.226
85.3952 51188 226.248
85.5123 48267 219.698
85.6294 46253 215.065
85.7465 46855 216.46
85.8636 50445 224.6
85.9806 55598 235.792
86.0976 59313 243.543
86.2145 62522 250.044
86.3315 63429 251.851
86.4484 71108 266.661
86.5652 70891 266.254
86.682 71447 267.296
86.7988 71787 267.931
86.9156 71569 267.524
87.0323 70498 265.515
87.149 70808 266.098
87.2657 70050 264.67
87.3823 69001 262.68
87.4988 67354 259.526
87.6154 66012 256.928
87.7318 64598 254.161
87.8483 64239 253.454
87.9647 64322 253.618
88.081 65910 256.729
88.1973 67293 259.409
88.3136 67718 260.227
88.4298 67149 259.131
88.546 65869 256.65
88.6621 64813 254.584
88.7781 62259 249.518
88.8942 0 1
89.0101 0 1
89.126 0 1
89.2419 0 1
89.3577 0 1
89.4734 0 1
89.5891 0 1
89.7047 0 1
89.8203 0 1
89.9358 0 1
92.3269 0 1
92.4424 0 1
92.558 0 1
92.6736 0 1
92.7893 0 1
92.905 0 1
93.0208 0 1
93.1366 0 1
93.2525 0 1
93.3685 0 1
93.4845 0 1
93.6005 63650 252.29
93.7167 65603 256.131
93.8328 65607 256.139
93.949 64395 253.762
94.0653 62772 250.543
94.1816 61495 247.982
94.2979 60061 245.073
94.4143 56347 237.375
94.5307 53270 230.803
94.6472 51358 226.623
94.7637 50621 224.991
94.8803 53833 232.019
94.9969 57051 238.854
95.1135 62000 248.998
95.2302 64619 254.203
95.3469 66950 258.747
95.4637 69666 263.943
95.5805 73577 271.251
95.6973 75996 275.674
95.8142 77248 277.935
95.9311 77332 278.086
96.048 76627 276.816
96.1649 76359 276.331
96.2819 75214 274.252
96.3989 74123 272.255
96.516 73742 271.555
96.633 72726 269.678
96.7501 71694 267.757
96.8673 69188 263.036
96.9844 67212 259.253
97.1016 67047 258.934
97.2188 66499 257.874
97.336 67877 260.532
97.4532 68200 261.151
97.5704 68446 261.622
97.6877 67301 259.424
97.805 65626 256.176
97.9223 63829 252.644
98.0396 60821 246.619
98.1569 57160 239.082
98.2743 53484 231.266
98.3916 52550 229.238
98.509 55090 234.713
98.6264 59297 243.51
98.7438 63879 252.743
98.8612 68350 261.438
98.9786 71127 266.696
99.096 74588 273.108
99.2134 79213 281.448
99.3308 81515 285.508
99.4482 82027 286.404
99.5656 82352 286.97
99.6831 82835 287.811
99.8005 81332 285.188
99.9179 79723 282.353
100.035 79279 281.565
100.153 78337 279.887
100.27 78352 279.914
100.388 76704 276.955
100.505 75128 274.095
100.622 72364 269.006
100.74 71636 267.649
100.857 71797 267.95
100.975 73357 270.845
101.092 73827 271.711
101.209 73539 271.181
101.327 71680 267.731
101.444 70408 265.345
101.561 68086 260.933
101.679 63791 252.569
101.796 58882 242.656
101.913 55432 235.44
102.03 57180 239.123
102.148 61680 248.355
102.265 70991 266.441
102.382 68893 262.475
102.499 74936 273.744
102.616 78949 280.979
102.733 84000 289.828
102.851 87018 294.988
102.968 87918 296.51
103.085 87680 296.108
103.202 87296 295.459
103.319 86143 293.501
103.436 85449 292.317
103.552 84028 289.876
103.669 82737 287.64
103.786 82546 287.308
103.903 81680 285.797
104.02 79430 281.833
104.137 75827 275.367
104.253 76427 276.454
104.37 73691 271.461
104.487 76750 277.038
104.603 78240 279.714
104.72 77486 278.363
104.836 76577 276.725
104.953 74378 272.723
105.069 70760 266.008
105.186 65757 256.431
105.302 60351 245.664
105.418 58682 242.244
105.535 62179 249.357
105.651 68264 261.274
105.767 74066 272.151
105.883 76937 277.375
105.999 81104 284.788
106.115 0 1
106.231 0 1
106.347 0 1
106.463 0 1
106.579 0 1
106.694 0 1
106.81 0 1
106.926 0 1
107.041 0 1
107.157 0 1
109.576 0 1
109.692 0 1
109.807 0 1
109.923 0 1
110.039 0 1
110.155 0 1
110.27 0 1
110.386 0 1
110.502 0 1
110.618 55620 235.839
110.735 62468 249.936
110.851 67379 259.575
110.967 69483 263.596
111.083 72968 270.126
111.199 76663 276.881
111.316 79483 281.927
111.432 80341 283.445
111.549 79895 282.657
111.665 79760 282.418
111.782 78263 279.755
111.898 76644 276.847
112.015 74873 273.629
112.132 72878 269.959
112.248 71373 267.157
112.365 71549 267.486
112.482 70217 264.985
112.599 65787 256.49
112.716 64223 253.423
112.832 62765 250.529
112.949 61400 247.79
113.066 61805 248.606
113.183 62548 250.096
113.3 61764 248.524
113.417 61140 247.265
113.534 59305 243.526
113.652 56323 237.325
113.769 52042 228.127
113.886 48168 219.472
114.003 45847 214.119
114.12 47700 218.403
114.238 52552 229.242
114.355 55895 236.421
114.472 57656 240.117
114.589 60374 245.711
114.707 64886 254.727
114.824 68305 261.352
114.942 68748 262.198
115.059 69869 264.327
115.176 69732 264.068
115.294 68817 262.33
115.411 68150 261.056
115.529 66972 258.789
115.646 64997 254.945
115.764 64709 254.38
115.881 63693 252.375
115.999 63868 252.721
116.116 63628 252.246
116.234 61862 248.721
116.351 59395 243.711
116.469 58821 242.53
116.586 58512 241.893
116.704 59678 244.291
116.821 59943 244.833
116.939 61047 247.077
117.056 58891 242.675
117.174 56811 238.351
117.291 54546 233.551
117.409 50202 224.058
117.526 46764 216.25
117.644 47325 217.543
117.761 50205 224.065
117.879 54603 233.673
117.996 56769 238.262
118.114 60120 245.194
118.231 64430 253.831
118.349 67366 259.55
118.466 70468 265.458
118.584 71113 266.67
118.701 71941 268.218
118.819 71552 267.492
118.936 71292 267.006
119.053 70327 265.192
119.171 68436 261.603
119.288 66628 258.124
119.405 64331 253.636
119.523 63894 252.773
119.64 65229 255.4
119.757 65642 256.207
119.875 64789 254.537
119.992 62752 250.503
120.109 61296 247.58
120.226 60940 246.86
120.343 60960 246.901
120.46 61275 247.538
120.578 61706 248.407
120.695 60783 246.542
120.812 59332 243.582
120.929 57033 238.816
121.046 52635 229.423
121.163 49224 221.865
121.279 46946 216.67
121.396 48580 220.409
121.513 51581 227.115
121.63 55808 236.237
121.747 57304 239.383
121.863 60775 246.526
121.98 65429 255.791
122.097 68575 261.868
122.213 70697 265.889
122.33 70613 265.731
122.446 71259 266.944
122.563 70564 265.639
122.679 70390 265.311
122.795 69297 263.243
122.912 67665 260.125
123.028 65149 255.243
123.144 63399 251.792
123.26 63136 251.269
123.377 0 1
123.493 0 1
123.609 0 1
123.725 0 1
123.84 0 1
123.956 0 1
124.072 0 1
124.188 0 1
124.303 0 1
124.419 0 1
126.852 0 1
126.968 0 1
127.083 0 1
127.199 0 1
127.315 0 1
127.431 0 1
127.547 0 1
127.663 0 1
127.779 0 1
127.895 0 1
128.011 0 1
128.127 0 1
128.243 0 1
128.359 68698 262.103
128.476 67676 260.146
128.592 68453 261.635
128.708 71214 266.86
128.825 72445 269.156
128.941 71410 267.226
129.058 69177 263.015
129.174 68024 260.814
129.291 66464 257.806
129.408 66240 257.371
129.524 65830 256.574
129.641 66783 258.424
129.758 66023 256.949
129.875 62860 250.719
129.992 58905 242.704
130.108 55105 234.745
130.225 52097 228.248
130.342 51185 226.241
130.459 51229 226.338
130.576 57603 240.006
130.693 58968 242.833
130.81 63926 252.836
130.928 69684 263.977
131.045 72799 269.813
131.162 73392 270.91
131.279 74181 272.362
131.396 73665 271.413
131.513 72950 270.093
131.631 71544 267.477
131.748 69339 263.323
131.865 65654 256.23
131.983 63930 252.844
132.1 65001 254.953
132.217 66167 257.229
132.335 67995 260.759
132.452 66562 257.996
132.57 65248 255.437
132.687 61642 248.278
132.804 64297 253.569
132.922 61742 248.479
133.039 61129 247.243
133.157 61070 247.123
133.274 61362 247.714
133.392 61397 247.784
133.509 57829 240.477
133.627 54089 232.57
133.744 51357 226.621
133.862 48840 220.998
133.979 47958 218.993
134.097 49915 223.417
134.214 53306 230.881
134.332 55645 235.892
134.449 62089 249.177
134.567 65950 256.807
134.684 67776 260.338
134.802 67897 260.571
134.919 67943 260.659
135.037 67721 260.233
135.154 66818 258.492
135.272 64375 253.722
135.389 61562 248.117
135.507 59359 243.637
135.624 60038 245.027
135.742 61788 248.572
135.859 63469 251.931
135.977 62821 250.641
136.094 61897 248.791
136.211 60052 245.055
136.329 59214 243.339
136.446 58428 241.719
136.564 57861 240.543
136.681 58001 240.834
136.798 56046 236.74
136.915 57419 239.623
137.033 57348 239.474
137.15 55768 236.152
137.267 52361 228.825
137.384 50569 224.876
137.502 47822 218.682
137.619 45250 212.72
137.736 45693 213.759
137.853 46826 216.393
137.97 50614 224.976
138.087 58389 241.638
138.204 61534 248.06
138.321 62687 250.374
138.438 63335 251.664
138.555 63150 251.297
138.672 62484 249.968
138.788 61165 247.316
138.905 59567 244.064
139.022 57023 238.795
139.139 55126 234.789
139.255 56105 236.865
139.372 57744 240.3
139.488 58653 242.184
139.605 58849 242.588
139.721 57248 239.266
139.838 56327 237.333
139.954 54730 233.944
140.071 53751 231.843
140.187 54299 233.021
140.303 52489 229.105
140.419 51799 227.594
140.535 50868 225.539
140.652 51018 225.872
140.768 0 1
140.884 0 1
141 0 1
141.115 0 1
141.231 0 1
141.347 0 1
141.463 0 1
141.578 0 1
141.694 0 1
144.104 0 1
144.219 0 1
144.335 0 1
144.45 0 1
144.566 0 1
144.682 0 1
144.798 0 1
144.914 0 1
145.03 0 1
145.146 43401 208.329
145.262 43680 208.998
145.378 42879 207.072
145.494 42045 205.049
145.61 41426 203.534
145.726 41834 204.534
145.842 41933 204.775
145.959 41707 204.223
146.075 41287 203.192
146.192 39900 199.75
146.308 37043 192.466
146.425 34034 184.483
146.541 34251 185.07
146.658 38184 195.407
146.774 42707 206.657
146.891 45798 214.005
147.008 46486 215.606
147.125 45832 214.084
147.241 46101 214.711
147.358 44703 211.431
147.475 42518 206.199
147.592 40484 201.206
147.709 39540 198.847
147.826 40373 200.93
147.943 42109 205.205
148.06 42571 206.327
148.177 42756 206.775
148.294 41477 203.659
148.411 40736 201.832
148.528 40281 200.701
148.645 39135 197.826
148.762 39248 198.111
148.88 39498 198.741
148.997 37804 194.433
149.114 39742 199.354
149.231 37373 193.321
149.349 37576 193.845
149.466 37326 193.199
149.583 37135 192.704
149.701 37463 193.554
149.818 37074 192.546
149.935 34425 185.54
150.053 31439 177.31
150.17 30779 175.439
150.287 34783 186.502
150.405 39028 197.555
150.522 41528 203.784
150.64 41442 203.573
150.757 41642 204.064
150.875 41421 203.521
150.992 40444 201.107
151.11 37807 194.44
151.227 37522 193.706
151.344 36593 191.293
151.462 37782 194.376
151.579 39828 199.57
151.697 39943 199.857
151.814 39905 199.762
151.932 38671 196.649
152.049 38340 195.806
152.167 37773 194.353
152.284 37554 193.789
152.402 36889 192.065
152.519 36997 192.346
152.636 37039 192.455
152.754 36948 192.219
152.871 36270 190.447
152.989 35442 188.26
153.106 35447 188.274
153.223 35594 188.664
153.341 36145 190.118
153.458 34692 186.258
153.575 32530 180.361
153.693 30200 173.781
153.81 30506 174.66
153.927 34344 185.321
154.044 38318 195.75
154.162 40869 202.161
154.279 41237 203.069
154.396 40896 202.228
154.513 40463 201.154
154.63 39491 198.723
154.747 38058 195.085
154.864 37411 193.419
154.981 37703 194.173
155.098 38511 196.242
155.215 39217 198.033
155.332 39101 197.74
155.449 37925 194.743
155.566 37583 193.863
155.683 37039 192.455
155.8 37166 192.785
155.917 37152 192.749
156.033 37243 192.984
156.15 0 1
156.267 0 1
156.383 0 1
156.5 0 1
156.617 0 1
156.733 0 1
156.85 0 1
156.966 0 1
157.082 0 1
157.199 0 1
157.315 0 1
157.431 0 1
157.547 0 1
157.664 0 1
157.78 0 1
157.896 0 1
158.012 0 1
158.128 0 1
158.244 0 1
158.359 0 1
158.475 0 1
158.591 0 1
158.706 0 1
