
6.15755 0 1
6.2731 0 1
6.3887 0 1
6.50437 0 1
6.62009 0 1
6.73587 0 1
6.8517 0 1
6.96759 0 1
7.08353 0 1
7.19952 0 1
7.31557 0 1
7.43166 0 1
7.54781 0 1
7.664 0 1
7.78024 0 1
7.89653 0 1
8.01286 0 1
8.12924 0 1
8.24567 0 1
8.36213 0 1
8.47864 0 1
8.59519 0 1
8.71178 0 1
8.82841 0 1
8.94508 0 1
9.06179 0 1
9.17853 0 1
9.29531 0 1
9.41212 0 1
9.52897 0 1
9.64584 0 1
9.76276 0 1
9.8797 0 1
9.99667 0 1
10.1137 0 1
10.2307 0 1
10.3478 0 1
10.4648 0 1
10.5819 0 1
10.6991 0 1
10.8162 0 1
10.9334 0 1
11.0506 0 1
11.1678 0 1
11.285 0 1
11.4023 0 1
11.5196 0 1
11.6369 0 1
11.7542 0 1
11.8715 0 1
11.9888 0 1
12.1062 0 1
12.2235 0 1
12.3409 0 1
12.4582 0 1
12.5756 0 1
12.693 0 1
12.8104 0 1
12.9278 0 1
13.0452 0 1
13.1626 0 1
13.28 0 1
13.3974 0 1
13.5149 0 1
13.6323 0 1
13.7497 0 1
13.8671 0 1
13.9845 0 1
14.1019 0 1
14.2193 0 1
14.3367 0 1
14.4541 0 1
14.5714 0 1
14.6888 0 1
14.8062 0 1
14.9235 0 1
15.0408 473 21.7486
15.1581 464 21.5407
15.2755 493 22.2036
15.3927 543 23.3024
15.51 488 22.0907
15.6273 518 22.7596
15.7445 502 22.4054
15.8617 512 22.6274
15.9789 531 23.0434
16.0961 523 22.8692
16.2132 505 22.4722
16.3304 503 22.4277
16.4475 516 22.7156
16.5646 549 23.4307
16.6816 591 24.3105
16.7986 602 24.5357
16.9156 602 24.5357
17.0326 595 24.3926
17.1496 621 24.9199
17.2665 619 24.8797
17.3833 603 24.5561
17.5002 564 23.7487
17.617 549 23.4307
17.7338 548 23.4094
17.8505 490 22.1359
17.9672 504 22.4499
18.0839 497 22.2935
18.2005 555 23.5584
18.3171 587 24.2281
18.4337 554 23.5372
18.5502 535 23.1301
18.6666 555 23.5584
18.7831 622 24.9399
18.8994 624 24.98
19.0158 591 24.3105
19.1321 516 22.7156
19.2483 582 24.1247
19.3645 529 23
19.4806 470 21.6795
19.5967 477 21.8403
19.7128 404 20.0998
19.8288 361 19
19.9447 365 19.105
20.0606 0 1
20.1764 0 1
20.2922 0 1
20.4079 0 1
20.5236 0 1
20.6392 0 1
20.7548 0 1
20.8702 0 1
23.3078 0 1
23.4233 0 1
23.539 0 1
23.6547 0 1
23.7704 0 1
23.8862 0 1
24.0021 0 1
24.118 0 1
24.234 0 1
24.35 0 1
24.4661 216 14.6969
24.5822 263 16.2173
24.6984 329 18.1384
24.8146 367 19.1572
24.9309 374 19.3391
25.0472 392 19.799
25.1636 404 20.0998
25.28 479 21.8861
25.3965 505 22.4722
25.513 533 23.0868
25.6296 559 23.6432
25.7462 615 24.7992
25.8628 648 25.4558
25.9795 625 25
26.0962 618 24.8596
26.213 569 23.8537
26.3298 566 23.7908
26.4466 573 23.9374
26.5635 550 23.4521
26.6804 528 22.9783
26.7973 509 22.561
26.9143 535 23.1301
27.0313 572 23.9165
27.1483 592 24.3311
27.2653 534 23.1084
27.3824 581 24.1039
27.4996 605 24.5967
27.6167 572 23.9165
27.7339 604 24.5764
27.8511 545 23.3452
27.9683 565 23.7697
28.0855 533 23.0868
28.2028 495 22.2486
28.3201 521 22.8254
28.4374 418 20.445
28.5547 488 22.0907
28.6721 498 22.3159
28.7894 530 23.0217
28.9068 554 23.5372
29.0242 615 24.7992
29.1416 586 24.2074
29.259 583 24.1454
29.3764 624 24.98
29.4939 596 24.4131
29.6113 558 23.622
29.7288 551 23.4734
29.8463 516 22.7156
29.9638 491 22.1585
30.0812 518 22.7596
30.1987 504 22.4499
30.3162 513 22.6495
30.4337 499 22.3383
30.5512 535 23.1301
30.6687 577 24.0208
30.7862 548 23.4094
30.9037 552 23.4947
31.0212 549 23.4307
31.1387 553 23.516
31.2562 533 23.0868
31.3737 511 22.6053
31.4912 526 22.9347
31.6087 521 22.8254
31.7262 513 22.6495
31.8436 518 22.7596
31.9611 465 21.5639
32.0785 465 21.5639
32.1959 460 21.4476
32.3134 522 22.8473
32.4308 533 23.0868
32.5482 523 22.8692
32.6655 548 23.4094
32.7829 570 23.8747
32.9002 554 23.5372
33.0176 604 24.5764
33.1349 590 24.2899
33.2522 551 23.4734
33.3694 539 23.2164
33.4867 491 22.1585
33.6039 452 21.2603
33.7211 469 21.6564
33.8383 465 21.5639
33.9554 509 22.561
34.0725 461 21.4709
34.1896 504 22.4499
34.3067 520 22.8035
34.4237 542 23.2809
34.5407 554 23.5372
34.6577 532 23.0651
34.7746 575 23.9792
34.8915 549 23.4307
35.0084 570 23.8747
35.1252 536 23.1517
35.242 530 23.0217
35.3587 520 22.8035
35.4755 498 22.3159
35.5921 437 20.9045
35.7088 434 20.8327
35.8254 455 21.3307
35.9419 483 21.9773
36.0584 463 21.5174
36.1749 476 21.8174
36.2913 485 22.0227
36.4077 508 22.5389
36.524 476 21.8174
36.6403 502 22.4054
36.7565 456 21.3542
36.8727 476 21.8174
36.9889 447 21.1424
37.1049 413 20.3224
37.221 0 1
37.3369 0 1
37.4529 0 1
37.5687 0 1
37.6845 0 1
37.8003 0 1
37.916 0 1
38.0316 0 1
38.1472 0 1
40.5851 0 1
40.7008 0 1
40.8164 0 1
40.9322 0 1
41.048 0 1
41.1639 0 1
41.2798 0 1
41.3958 0 1
41.5118 0 1
41.6279 0 1
41.744 270 16.4317
41.8602 286 16.9115
41.9765 322 17.9444
42.0928 334 18.2757
42.2091 299 17.2916
42.3255 328 18.1108
42.4419 300 17.3205
42.5584 328 18.1108
42.675 375 19.3649
42.7915 384 19.5959
42.9081 431 20.7605
43.0248 428 20.6882
43.1415 454 21.3073
43.2582 433 20.8087
43.375 435 20.8567
43.4918 474 21.7715
43.6087 482 21.9545
43.7256 427 20.664
43.8425 441 21
43.9595 438 20.9284
44.0765 409 20.2237
44.1935 423 20.567
44.3106 393 19.8242
44.4277 384 19.5959
44.5448 370 19.2354
44.6619 366 19.1311
44.7791 371 19.2614
44.8963 414 20.347
45.0136 408 20.199
45.1308 460 21.4476
45.2481 492 22.1811
45.3654 431 20.7605
45.4827 504 22.4499
45.6001 454 21.3073
45.7174 456 21.3542
45.8348 423 20.567
45.9522 390 19.7484
46.0697 370 19.2354
46.1871 395 19.8746
46.3046 384 19.5959
46.422 395 19.8746
46.5395 424 20.5913
46.657 424 20.5913
46.7745 445 21.095
46.892 453 21.2838
47.0096 466 21.587
47.1271 454 21.3073
47.2446 518 22.7596
47.3622 438 20.9284
47.4797 449 21.1896
47.5973 450 21.2132
47.7149 443 21.0476
47.8324 424 20.5913
47.95 434 20.8327
48.0675 411 20.2731
48.1851 334 18.2757
48.3027 405 20.1246
48.4202 398 19.9499
48.5378 442 21.0238
48.6554 421 20.5183
48.7729 426 20.6398
48.8904 475 21.7945
49.008 465 21.5639
49.1255 500 22.3607
49.243 424 20.5913
49.3605 416 20.3961
49.478 412 20.2978
49.5955 390 19.7484
49.713 334 18.2757
49.8304 340 18.4391
49.9479 414 20.347
50.0653 410 20.2485
50.1827 421 20.5183
50.3001 462 21.4942
50.4175 476 21.8174
50.5348 415 20.3715
50.6521 467 21.6102
50.7694 464 21.5407
50.8867 484 22
51.004 447 21.1424
51.1212 447 21.1424
51.2384 443 21.0476
51.3556 438 20.9284
51.4727 382 19.5448
51.5899 378 19.4422
51.707 356 18.868
51.824 369 19.2094
51.9411 380 19.4936
52.0581 423 20.567
52.175 494 22.2261
52.2919 452 21.2603
52.4088 410 20.2485
52.5257 462 21.4942
52.6425 445 21.095
52.7593 439 20.9523
52.876 438 20.9284
52.9927 429 20.7123
53.1094 423 20.567
53.226 391 19.7737
53.3426 372 19.2873
53.4591 363 19.0526
53.5756 349 18.6815
53.692 370 19.2354
53.8084 369 19.2094
53.9248 329 18.1384
54.0411 327 18.0831
54.1573 327 18.0831
54.2735 0 1
54.3896 0 1
54.5057 0 1
54.6217 0 1
54.7377 0 1
54.8537 0 1
54.9695 0 1
55.0853 0 1
55.2011 0 1
55.3168 0 1
55.4324 0 1
57.824 0 1
57.9396 0 1
58.0553 0 1
58.1711 0 1
58.2869 0 1
58.4028 0 1
58.5187 0 1
58.6347 0 1
58.7508 0 1
58.8669 0 1
58.983 273 16.5227
59.0992 378 19.4422
59.2155 381 19.5192
59.3318 435 20.8567
59.4482 487 22.0681
59.5646 470 21.6795
59.681 524 22.891
59.7975 498 22.3159
59.9141 537 23.1733
60.0306 512 22.6274
60.1473 448 21.166
60.2639 440 20.9762
60.3807 472 21.7256
60.4974 459 21.4243
60.6142 496 22.2711
60.731 545 23.3452
60.8479 584 24.1661
60.9648 546 23.3666
61.0818 582 24.1247
61.1987 574 23.9583
61.3158 600 24.4949
61.4328 568 23.8328
61.5499 587 24.2281
61.667 536 23.1517
61.7841 445 21.095
61.9013 483 21.9773
62.0185 466 21.587
62.1357 443 21.0476
62.253 553 23.516
62.3702 507 22.5167
62.4875 555 23.5584
62.6049 584 24.1661
62.7222 581 24.1039
62.8396 594 24.3721
62.9569 626 25.02
63.0743 592 24.3311
63.1918 599 24.4745
63.3092 540 23.2379
63.4267 533 23.0868
63.5441 542 23.2809
63.6616 523 22.8692
63.7791 450 21.2132
63.8966 466 21.587
64.0142 458 21.4009
64.1317 461 21.4709
64.2492 554 23.5372
64.3668 543 23.3024
64.4843 559 23.6432
64.6019 580 24.0832
64.7195 615 24.7992
64.837 544 23.3238
64.9546 578 24.0416
65.0722 579 24.0624
65.1898 504 22.4499
65.3074 492 22.1811
65.4249 495 22.2486
65.5425 485 22.0227
65.6601 454 21.3073
65.7777 474 21.7715
65.8952 498 22.3159
66.0128 547 23.388
66.1304 599 24.4745
66.2479 588 24.2487
66.3655 551 23.4734
66.483 590 24.2899
66.6005 590 24.2899
66.718 610 24.6982
66.8355 544 23.3238
66.953 586 24.2074
67.0705 554 23.5372
67.1879 594 24.3721
67.3054 540 23.2379
67.4228 485 22.0227
67.5402 491 22.1585
67.6576 454 21.3073
67.7749 491 22.1585
67.8923 515 22.6936
68.0096 553 23.516
68.1269 637 25.2389
68.2442 654 25.5734
68.3614 619 24.8797
68.4787 622 24.9399
68.5958 706 26.5707
68.713 619 24.8797
68.8302 590 24.2899
68.9473 555 23.5584
69.0643 555 23.5584
69.1814 551 23.4734
69.2984 534 23.1084
69.4154 606 24.6171
69.5323 616 24.8193
69.6492 660 25.6905
69.7661 670 25.8844
69.8829 716 26.7582
69.9997 711 26.6646
70.1165 686 26.1916
70.2332 681 26.096
70.3499 719 26.8142
70.4665 654 25.5734
70.5831 585 24.1868
70.6996 584 24.1661
70.8161 532 23.0651
70.9326 497 22.2935
71.049 449 21.1896
71.1653 388 19.6977
71.2817 308 17.5499
71.3979 286 16.9115
71.5141 264 16.2481
71.6303 285 16.8819
71.7464 235 15.3297
71.8624 0 1
71.9784 0 1
72.0944 0 1
72.2102 0 1
72.3261 0 1
72.4418 0 1
72.5575 0 1
72.6732 0 1
75.1054 0 1
75.2209 0 1
75.3365 0 1
75.4521 0 1
75.5678 0 1
75.6835 0 1
75.7993 0 1
75.9151 0 1
76.031 0 1
76.147 378 19.4422
76.263 371 19.2614
76.3791 399 19.975
76.4952 394 19.8494
76.6113 397 19.9249
76.7276 382 19.5448
76.8438 427 20.664
76.9601 481 21.9317
77.0765 491 22.1585
77.1929 510 22.5832
77.3093 522 22.8473
77.4258 504 22.4499
77.5423 467 21.6102
77.6589 455 21.3307
77.7755 471 21.7025
77.8921 437 20.9045
78.0088 404 20.0998
78.1256 367 19.1572
78.2423 348 18.6548
78.3591 384 19.5959
78.4759 401 20.025
78.5928 434 20.8327
78.7097 437 20.9045
78.8266 451 21.2368
78.9436 503 22.4277
79.0606 515 22.6936
79.1776 519 22.7816
79.2946 491 22.1585
79.4117 525 22.9129
79.5288 493 22.2036
79.6459 490 22.1359
79.7631 475 21.7945
79.8802 450 21.2132
79.9974 462 21.4942
80.1147 405 20.1246
80.2319 381 19.5192
80.3491 370 19.2354
80.4664 434 20.8327
80.5837 444 21.0713
80.701 473 21.7486
80.8183 466 21.587
80.9357 543 23.3024
81.053 515 22.6936
81.1704 509 22.561
81.2877 489 22.1133
81.4051 465 21.5639
81.5225 472 21.7256
81.6399 406 20.1494
81.7573 384 19.5959
81.8747 394 19.8494
81.9922 418 20.445
82.1096 355 18.8414
82.227 456 21.3542
82.3444 525 22.9129
82.4619 503 22.4277
82.5793 498 22.3159
82.6967 473 21.7486
82.8142 517 22.7376
82.9316 528 22.9783
83.049 597 24.4336
83.1664 520 22.8035
83.2838 529 23
83.4012 510 22.5832
83.5186 506 22.4944
83.636 499 22.3383
83.7534 480 21.9089
83.8708 370 19.2354
83.9881 380 19.4936
84.1055 423 20.567
84.2228 419 20.4695
84.3401 444 21.0713
84.4575 543 23.3024
84.5747 579 24.0624
84.692 505 22.4722
84.8093 538 23.1948
84.9265 556 23.5797
85.0437 528 22.9783
85.1609 480 21.9089
85.2781 451 21.2368
85.3952 373 19.3132
85.5123 430 20.7364
85.6294 405 20.1246
85.7465 452 21.2603
85.8636 463 21.5174
85.9806 519 22.7816
86.0976 524 22.891
86.2145 558 23.622
86.3315 536 23.1517
86.4484 568 23.8328
86.5652 549 23.4307
86.682 542 23.2809
86.7988 517 22.7376
86.9156 541 23.2594
87.0323 537 23.1733
87.149 465 21.5639
87.2657 460 21.4476
87.3823 439 20.9523
87.4988 303 17.4069
87.6154 376 19.3907
87.7318 360 18.9737
87.8483 364 19.0788
87.9647 421 20.5183
88.081 395 19.8746
88.1973 475 21.7945
88.3136 367 19.1572
88.4298 386 19.6469
88.546 311 17.6352
88.6621 307 17.5214
88.7781 201 14.1774
88.8942 0 1
89.0101 0 1
89.126 0 1
89.2419 0 1
89.3577 0 1
89.4734 0 1
89.5891 0 1
89.7047 0 1
89.8203 0 1
89.9358 0 1
92.3269 0 1
92.4424 0 1
92.558 0 1
92.6736 0 1
92.7893 0 1
92.905 0 1
93.0208 0 1
93.1366 0 1
93.2525 0 1
93.3685 0 1
93.4845 0 1
93.6005 359 18.9473
93.7167 366 19.1311
93.8328 433 20.8087
93.949 459 21.4243
94.0653 431 20.7605
94.1816 443 21.0476
94.2979 414 20.347
94.4143 462 21.4942
94.5307 363 19.0526
94.6472 348 18.6548
94.7637 391 19.7737
94.8803 409 20.2237
94.9969 467 21.6102
95.1135 458 21.4009
95.2302 488 22.0907
95.3469 456 21.3542
95.4637 513 22.6495
95.5805 543 23.3024
95.6973 569 23.8537
95.8142 580 24.0832
95.9311 548 23.4094
96.048 512 22.6274
96.1649 534 23.1084
96.2819 491 22.1585
96.3989 481 21.9317
96.516 481 21.9317
96.633 437 20.9045
96.7501 416 20.3961
96.8673 440 20.9762
96.9844 417 20.4206
97.1016 438 20.9284
97.2188 459 21.4243
97.336 519 22.7816
97.4532 551 23.4734
97.5704 529 23
97.6877 533 23.0868
97.805 535 23.1301
97.9223 473 21.7486
98.0396 450 21.2132
98.1569 441 21
98.2743 428 20.6882
98.3916 384 19.5959
98.509 433 20.8087
98.6264 464 21.5407
98.7438 488 22.0907
98.8612 496 22.2711
98.9786 552 23.4947
99.096 508 22.5389
99.2134 562 23.7065
99.3308 560 23.6643
99.4482 522 22.8473
99.5656 557 23.6008
99.6831 575 23.9792
99.8005 576 24
99.9179 553 23.516
100.035 551 23.4734
100.153 472 21.7256
100.27 421 20.5183
100.388 420 20.4939
100.505 433 20.8087
100.622 497 22.2935
100.74 532 23.0651
100.857 603 24.5561
100.975 566 23.7908
101.092 555 23.5584
101.209 573 23.9374
101.327 528 22.9783
101.444 594 24.3721
101.561 510 22.5832
101.679 480 21.9089
101.796 448 21.166
101.913 441 21
102.03 455 21.3307
102.148 499 22.3383
102.265 511 22.6053
102.382 583 24.1454
102.499 547 23.388
102.616 560 23.6643
102.733 548 23.4094
102.851 654 25.5734
102.968 605 24.5967
103.085 615 24.7992
103.202 555 23.5584
103.319 627 25.04
103.436 570 23.8747
103.552 550 23.4521
103.669 550 23.4521
103.786 454 21.3073
103.903 457 21.3776
104.02 503 22.4277
104.137 541 23.2594
104.253 523 22.8692
104.37 593 24.3516
104.487 570 23.8747
104.603 581 24.1039
104.72 577 24.0208
104.836 536 23.1517
104.953 534 23.1084
105.069 466 21.587
105.186 439 20.9523
105.302 422 20.5426
105.418 382 19.5448
105.535 371 19.2614
105.651 406 20.1494
105.767 380 19.4936
105.883 338 18.3848
105.999 355 18.8414
106.115 0 1
106.231 0 1
106.347 0 1
106.463 0 1
106.579 0 1
106.694 0 1
106.81 0 1
106.926 0 1
107.041 0 1
107.157 0 1
109.576 0 1
109.692 0 1
109.807 0 1
109.923 0 1
110.039 0 1
110.155 0 1
110.27 0 1
110.386 0 1
110.502 0 1
110.618 244 15.6205
110.735 290 17.0294
110.851 388 19.6977
110.967 382 19.5448
111.083 452 21.2603
111.199 490 22.1359
111.316 543 23.3024
111.432 485 22.0227
111.549 526 22.9347
111.665 523 22.8692
111.782 561 23.6854
111.898 500 22.3607
112.015 501 22.383
112.132 510 22.5832
112.248 462 21.4942
112.365 407 20.1742
112.482 401 20.025
112.599 442 21.0238
112.716 481 21.9317
112.832 509 22.561
112.949 551 23.4734
113.066 547 23.388
113.183 497 22.2935
113.3 492 22.1811
113.417 561 23.6854
113.534 518 22.7596
113.652 450 21.2132
113.769 462 21.4942
113.886 401 20.025
114.003 377 19.4165
114.12 377 19.4165
114.238 453 21.2838
114.355 477 21.8403
114.472 476 21.8174
114.589 553 23.516
114.707 562 23.7065
114.824 577 24.0208
114.942 564 23.7487
115.059 540 23.2379
115.176 555 23.5584
115.294 558 23.622
115.411 573 23.9374
115.529 508 22.5389
115.646 537 23.1733
115.764 493 22.2036
115.881 458 21.4009
115.999 471 21.7025
116.116 416 20.3961
116.234 484 22
116.351 521 22.8254
116.469 511 22.6053
116.586 548 23.4094
116.704 564 23.7487
116.821 544 23.3238
116.939 550 23.4521
117.056 543 23.3024
117.174 528 22.9783
117.291 475 21.7945
117.409 415 20.3715
117.526 394 19.8494
117.644 409 20.2237
117.761 440 20.9762
117.879 471 21.7025
117.996 526 22.9347
118.114 508 22.5389
118.231 566 23.7908
118.349 530 23.0217
118.466 565 23.7697
118.584 581 24.1039
118.701 591 24.3105
118.819 528 22.9783
118.936 538 23.1948
119.053 495 22.2486
119.171 527 22.9565
119.288 490 22.1359
119.405 481 21.9317
119.523 452 21.2603
119.64 406 20.1494
119.757 411 20.2731
119.875 455 21.3307
119.992 460 21.4476
120.109 515 22.6936
120.226 504 22.4499
120.343 480 21.9089
120.46 556 23.5797
120.578 516 22.7156
120.695 510 22.5832
120.812 495 22.2486
120.929 457 21.3776
121.046 425 20.6155
121.163 386 19.6469
121.279 423 20.567
121.396 403 20.0749
121.513 401 20.025
121.63 452 21.2603
121.747 419 20.4695
121.863 397 19.9249
121.98 452 21.2603
122.097 430 20.7364
122.213 452 21.2603
122.33 472 21.7256
122.446 414 20.347
122.563 392 19.799
122.679 370 19.2354
122.795 349 18.6815
122.912 324 18
123.028 271 16.4621
123.144 216 14.6969
123.26 214 14.6287
123.377 0 1
123.493 0 1
123.609 0 1
123.725 0 1
123.84 0 1
123.956 0 1
124.072 0 1
124.188 0 1
124.303 0 1
124.419 0 1
126.852 0 1
126.968 0 1
127.083 0 1
127.199 0 1
127.315 0 1
127.431 0 1
127.547 0 1
127.663 0 1
127.779 0 1
127.895 0 1
128.011 0 1
128.127 0 1
128.243 0 1
128.359 584 24.1661
128.476 614 24.779
128.592 584 24.1661
128.708 546 23.3666
128.825 567 23.8118
128.941 639 25.2784
129.058 638 25.2587
129.174 722 26.8701
129.291 680 26.0768
129.408 708 26.6083
129.524 674 25.9615
129.641 706 26.5707
129.758 668 25.8457
129.875 662 25.7294
129.992 575 23.9792
130.108 574 23.9583
130.225 522 22.8473
130.342 514 22.6716
130.459 537 23.1733
130.576 558 23.622
130.693 599 24.4745
130.81 624 24.98
130.928 625 25
131.045 668 25.8457
131.162 670 25.8844
131.279 673 25.9422
131.396 674 25.9615
131.513 623 24.96
131.631 669 25.865
131.748 670 25.8844
131.865 612 24.7386
131.983 583 24.1454
132.1 613 24.7588
132.217 560 23.6643
132.335 558 23.622
132.452 542 23.2809
132.57 584 24.1661
132.687 634 25.1794
132.804 664 25.7682
132.922 646 25.4165
133.039 598 24.454
133.157 620 24.8998
133.274 687 26.2107
133.392 611 24.7184
133.509 571 23.8956
133.627 534 23.1084
133.744 519 22.7816
133.862 467 21.6102
133.979 470 21.6795
134.097 541 23.2594
134.214 602 24.5357
134.332 501 22.383
134.449 626 25.02
134.567 569 23.8537
134.684 631 25.1197
134.802 571 23.8956
134.919 627 25.04
135.037 664 25.7682
135.154 547 23.388
135.272 577 24.0208
135.389 563 23.7276
135.507 546 23.3666
135.624 496 22.2711
135.742 507 22.5167
135.859 552 23.4947
135.977 508 22.5389
136.094 517 22.7376
136.211 554 23.5372
136.329 592 24.3311
136.446 584 24.1661
136.564 593 24.3516
136.681 587 24.2281
136.798 509 22.561
136.915 542 23.2809
137.033 484 22
137.15 540 23.2379
137.267 465 21.5639
137.384 481 21.9317
137.502 431 20.7605
137.619 434 20.8327
137.736 446 21.1187
137.853 483 21.9773
137.97 479 21.8861
138.087 547 23.388
138.204 525 22.9129
138.321 550 23.4521
138.438 556 23.5797
138.555 557 23.6008
138.672 605 24.5967
138.788 505 22.4722
138.905 513 22.6495
139.022 510 22.5832
139.139 443 21.0476
139.255 427 20.664
139.372 384 19.5959
139.488 365 19.105
139.605 332 18.2209
139.721 330 18.1659
139.838 371 19.2614
139.954 377 19.4165
140.071 350 18.7083
140.187 329 18.1384
140.303 283 16.8226
140.419 282 16.7929
140.535 270 16.4317
140.652 210 14.4914
140.768 0 1
140.884 0 1
141 0 1
141.115 0 1
141.231 0 1
141.347 0 1
141.463 0 1
141.578 0 1
141.694 0 1
144.104 0 1
144.219 0 1
144.335 0 1
144.45 0 1
144.566 0 1
144.682 0 1
144.798 0 1
144.914 0 1
145.03 0 1
145.146 381 19.5192
145.262 390 19.7484
145.378 421 20.5183
145.494 431 20.7605
145.61 441 21
145.726 400 20
145.842 429 20.7123
145.959 394 19.8494
146.075 391 19.7737
146.192 363 19.0526
146.308 351 18.735
146.425 374 19.3391
146.541 393 19.8242
146.658 392 19.799
146.774 382 19.5448
146.891 379 19.4679
147.008 422 20.5426
147.125 422 20.5426
147.241 467 21.6102
147.358 419 20.4695
147.475 480 21.9089
147.592 407 20.1742
147.709 424 20.5913
147.826 430 20.7364
147.943 415 20.3715
148.06 385 19.6214
148.177 358 18.9209
148.294 397 19.9249
148.411 388 19.6977
148.528 407 20.1742
148.645 417 20.4206
148.762 431 20.7605
148.88 410 20.2485
148.997 473 21.7486
149.114 421 20.5183
149.231 392 19.799
149.349 407 20.1742
149.466 391 19.7737
149.583 383 19.5704
149.701 363 19.0526
149.818 366 19.1311
149.935 336 18.3303
150.053 346 18.6011
150.17 357 18.8944
150.287 365 19.105
150.405 400 20
150.522 395 19.8746
150.64 393 19.8242
150.757 414 20.347
150.875 397 19.9249
150.992 464 21.5407
151.11 417 20.4206
151.227 392 19.799
151.344 406 20.1494
151.462 435 20.8567
151.579 365 19.105
151.697 347 18.6279
151.814 396 19.8997
151.932 393 19.8242
152.049 369 19.2094
152.167 330 18.1659
152.284 376 19.3907
152.402 396 19.8997
152.519 389 19.7231
152.636 407 20.1742
152.754 389 19.7231
152.871 418 20.445
152.989 407 20.1742
153.106 396 19.8997
153.223 383 19.5704
153.341 368 19.1833
153.458 350 18.7083
153.575 372 19.2873
153.693 327 18.0831
153.81 354 18.8149
153.927 364 19.0788
154.044 339 18.412
154.162 365 19.105
154.279 397 19.9249
154.396 380 19.4936
154.513 406 20.1494
154.63 385 19.6214
154.747 379 19.4679
154.864 380 19.4936
154.981 378 19.4422
155.098 389 19.7231
155.215 378 19.4422
155.332 334 18.2757
155.449 351 18.735
155.566 328 18.1108
155.683 376 19.3907
155.8 361 19
155.917 362 19.0263
156.033 342 18.4932
156.15 0 1
156.267 0 1
156.383 0 1
156.5 0 1
156.617 0 1
156.733 0 1
156.85 0 1
156.966 0 1
157.082 0 1
157.199 0 1
157.315 0 1
157.431 0 1
157.547 0 1
157.664 0 1
157.78 0 1
157.896 0 1
158.012 0 1
158.128 0 1
158.244 0 1
158.359 0 1
158.475 0 1
158.591 0 1
158.706 0 1
