
6.15755 0 1
6.2731 0 1
6.3887 0 1
6.50437 0 1
6.62009 0 1
6.73587 0 1
6.8517 0 1
6.96759 0 1
7.08353 0 1
7.19952 0 1
7.31557 0 1
7.43166 0 1
7.54781 0 1
7.664 0 1
7.78024 0 1
7.89653 0 1
8.01286 0 1
8.12924 0 1
8.24567 0 1
8.36213 0 1
8.47864 0 1
8.59519 0 1
8.71178 0 1
8.82841 0 1
8.94508 0 1
9.06179 0 1
9.17853 0 1
9.29531 0 1
9.41212 0 1
9.52897 0 1
9.64584 0 1
9.76276 0 1
9.8797 0 1
9.99667 0 1
10.1137 0 1
10.2307 0 1
10.3478 0 1
10.4648 0 1
10.5819 0 1
10.6991 0 1
10.8162 0 1
10.9334 0 1
11.0506 0 1
11.1678 0 1
11.285 0 1
11.4023 0 1
11.5196 0 1
11.6369 0 1
11.7542 0 1
11.8715 0 1
11.9888 0 1
12.1062 0 1
12.2235 0 1
12.3409 0 1
12.4582 0 1
12.5756 0 1
12.693 0 1
12.8104 0 1
12.9278 0 1
13.0452 0 1
13.1626 0 1
13.28 0 1
13.3974 0 1
13.5149 0 1
13.6323 0 1
13.7497 0 1
13.8671 0 1
13.9845 0 1
14.1019 0 1
14.2193 0 1
14.3367 0 1
14.4541 0 1
14.5714 0 1
14.6888 0 1
14.8062 0 1
14.9235 0 1
15.0408 1001 31.6386
15.1581 1115 33.3916
15.2755 1184 34.4093
15.3927 1166 34.1467
15.51 1234 35.1283
15.6273 1261 35.5106
15.7445 1205 34.7131
15.8617 1164 34.1174
15.9789 1241 35.2278
16.0961 1184 34.4093
16.2132 1168 34.176
16.3304 1223 34.9714
16.4475 1169 34.1906
16.5646 1285 35.8469
16.6816 1370 37.0135
16.7986 1375 37.081
16.9156 1399 37.4032
17.0326 1465 38.2753
17.1496 1422 37.7094
17.2665 1394 37.3363
17.3833 1450 38.0789
17.5002 1331 36.4829
17.617 1269 35.623
17.7338 1255 35.426
17.8505 1217 34.8855
17.9672 1208 34.7563
18.0839 1304 36.1109
18.2005 1289 35.9026
18.3171 1260 35.4965
18.4337 1334 36.524
18.5502 1351 36.756
18.6666 1385 37.2156
18.7831 1416 37.6298
18.8994 1400 37.4166
19.0158 1353 36.7831
19.1321 1338 36.5787
19.2483 1238 35.1852
19.3645 1283 35.819
19.4806 1156 34
19.5967 1101 33.1813
19.7128 1017 31.8904
19.8288 947 30.7734
19.9447 880 29.6648
20.0606 0 1
20.1764 0 1
20.2922 0 1
20.4079 0 1
20.5236 0 1
20.6392 0 1
20.7548 0 1
20.8702 0 1
23.3078 0 1
23.4233 0 1
23.539 0 1
23.6547 0 1
23.7704 0 1
23.8862 0 1
24.0021 0 1
24.118 0 1
24.234 0 1
24.35 0 1
24.4661 569 23.8537
24.5822 703 26.5141
24.6984 783 27.9821
24.8146 829 28.7924
24.9309 910 30.1662
25.0472 982 31.3369
25.1636 1109 33.3017
25.28 1206 34.7275
25.3965 1233 35.1141
25.513 1379 37.1349
25.6296 1454 38.1314
25.7462 1479 38.4578
25.8628 1544 39.2938
25.9795 1537 39.2046
26.0962 1517 38.9487
26.213 1477 38.4318
26.3298 1320 36.3318
26.4466 1277 35.7351
26.5635 1302 36.0832
26.6804 1290 35.9166
26.7973 1279 35.7631
26.9143 1449 38.0657
27.0313 1369 37
27.1483 1394 37.3363
27.2653 1354 36.7967
27.3824 1417 37.6431
27.4996 1461 38.223
27.6167 1413 37.5899
27.7339 1455 38.1445
27.8511 1381 37.1618
27.9683 1319 36.318
28.0855 1284 35.8329
28.2028 1299 36.0416
28.3201 1170 34.2053
28.4374 1171 34.2199
28.5547 1189 34.4819
28.6721 1219 34.9142
28.7894 1294 35.9722
28.9068 1337 36.565
29.0242 1415 37.6165
29.1416 1545 39.3065
29.259 1529 39.1024
29.3764 1426 37.7624
29.4939 1558 39.4715
29.6113 1391 37.2961
29.7288 1444 38
29.8463 1287 35.8748
29.9638 1231 35.0856
30.0812 1185 34.4238
30.1987 1219 34.9142
30.3162 1195 34.5688
30.4337 1318 36.3043
30.5512 1262 35.5246
30.6687 1302 36.0832
30.7862 1358 36.8511
30.9037 1393 37.3229
31.0212 1411 37.5633
31.1387 1386 37.229
31.2562 1331 36.4829
31.3737 1331 36.4829
31.4912 1319 36.318
31.6087 1338 36.5787
31.7262 1230 35.0714
31.8436 1193 34.5398
31.9611 1200 34.641
32.0785 1132 33.6452
32.1959 1138 33.7343
32.3134 1260 35.4965
32.4308 1270 35.6371
32.5482 1345 36.6742
32.6655 1366 36.9594
32.7829 1421 37.6962
32.9002 1467 38.3014
33.0176 1421 37.6962
33.1349 1394 37.3363
33.2522 1354 36.7967
33.3694 1294 35.9722
33.4867 1241 35.2278
33.6039 1178 34.322
33.7211 1172 34.2345
33.8383 1114 33.3766
33.9554 1236 35.1568
34.0725 1193 34.5398
34.1896 1298 36.0278
34.3067 1284 35.8329
34.4237 1331 36.4829
34.5407 1323 36.3731
34.6577 1372 37.0405
34.7746 1365 36.9459
34.8915 1284 35.8329
35.0084 1218 34.8999
35.1252 1357 36.8375
35.242 1269 35.623
35.3587 1218 34.8999
35.4755 1203 34.6843
35.5921 1092 33.0454
35.7088 1125 33.541
35.8254 1088 32.9848
35.9419 1129 33.6006
36.0584 1178 34.322
36.1749 1272 35.6651
36.2913 1196 34.5832
36.4077 1181 34.3657
36.524 1183 34.3948
36.6403 1165 34.1321
36.7565 1157 34.0147
36.8727 1093 33.0606
36.9889 983 31.3528
37.1049 854 29.2233
37.221 0 1
37.3369 0 1
37.4529 0 1
37.5687 0 1
37.6845 0 1
37.8003 0 1
37.916 0 1
38.0316 0 1
38.1472 0 1
40.5851 0 1
40.7008 0 1
40.8164 0 1
40.9322 0 1
41.048 0 1
41.1639 0 1
41.2798 0 1
41.3958 0 1
41.5118 0 1
41.6279 0 1
41.744 632 25.1396
41.8602 714 26.7208
41.9765 782 27.9643
42.0928 764 27.6405
42.2091 806 28.3901
42.3255 731 27.037
42.4419 725 26.9258
42.5584 834 28.8791
42.675 874 29.5635
42.7915 867 29.4449
42.9081 983 31.3528
43.0248 1053 32.45
43.1415 1082 32.8938
43.2582 1028 32.0624
43.375 1053 32.45
43.4918 1083 32.909
43.6087 1121 33.4813
43.7256 1051 32.4191
43.8425 1130 33.6155
43.9595 1018 31.9061
44.0765 1017 31.8904
44.1935 983 31.3528
44.3106 1022 31.9687
44.4277 923 30.3809
44.5448 893 29.8831
44.6619 943 30.7083
44.7791 946 30.7571
44.8963 1061 32.573
45.0136 1055 32.4808
45.1308 1125 33.541
45.2481 1051 32.4191
45.3654 1150 33.9116
45.4827 1083 32.909
45.6001 1080 32.8634
45.7174 1103 33.2114
45.8348 1013 31.8277
45.9522 978 31.273
46.0697 951 30.8383
46.1871 909 30.1496
46.3046 964 31.0483
46.422 984 31.3688
46.5395 1084 32.9242
46.657 1112 33.3467
46.7745 1065 32.6343
46.892 1189 34.4819
47.0096 1135 33.6898
47.1271 1126 33.5559
47.2446 1175 34.2783
47.3622 1133 33.6601
47.4797 1135 33.6898
47.5973 1155 33.9853
47.7149 1032 32.1248
47.8324 1026 32.0312
47.95 1009 31.7648
48.0675 948 30.7896
48.1851 891 29.8496
48.3027 953 30.8707
48.4202 992 31.496
48.5378 1028 32.0624
48.6554 1091 33.0303
48.7729 1173 34.2491
48.8904 1159 34.0441
49.008 1125 33.541
49.1255 1173 34.2491
49.243 1100 33.1662
49.3605 1029 32.078
49.478 944 30.7246
49.5955 907 30.1164
49.713 849 29.1376
49.8304 890 29.8329
49.9479 964 31.0483
50.0653 1043 32.2955
50.1827 1042 32.28
50.3001 1094 33.0757
50.4175 1120 33.4664
50.5348 1212 34.8138
50.6521 1171 34.2199
50.7694 1119 33.4515
50.8867 1223 34.9714
51.004 1104 33.2265
51.1212 1242 35.242
51.2384 1183 34.3948
51.3556 1212 34.8138
51.4727 1096 33.1059
51.5899 1041 32.2645
51.707 1027 32.0468
51.824 1118 33.4365
51.9411 1233 35.1141
52.0581 1351 36.756
52.175 1313 36.2353
52.2919 1486 38.5487
52.4088 1519 38.9744
52.5257 1515 38.923
52.6425 1643 40.5339
52.7593 1559 39.4842
52.876 1616 40.1995
52.9927 1473 38.3797
53.1094 1411 37.5633
53.226 1456 38.1576
53.3426 1335 36.5377
53.4591 1430 37.8153
53.5756 1346 36.6879
53.692 1332 36.4966
53.8084 1372 37.0405
53.9248 1387 37.2424
54.0411 1301 36.0694
54.1573 1304 36.1109
54.2735 0 1
54.3896 0 1
54.5057 0 1
54.6217 0 1
54.7377 0 1
54.8537 0 1
54.9695 0 1
55.0853 0 1
55.2011 0 1
55.3168 0 1
55.4324 0 1
57.824 0 1
57.9396 0 1
58.0553 0 1
58.1711 0 1
58.2869 0 1
58.4028 0 1
58.5187 0 1
58.6347 0 1
58.7508 0 1
58.8669 0 1
58.983 821 28.6531
59.0992 1030 32.0936
59.2155 1093 33.0606
59.3318 1128 33.5857
59.4482 1271 35.6511
59.5646 1185 34.4238
59.681 1297 36.0139
59.7975 1399 37.4032
59.9141 1263 35.5387
60.0306 1255 35.426
60.1473 1320 36.3318
60.2639 1189 34.4819
60.3807 1203 34.6843
60.4974 1197 34.5977
60.6142 1270 35.6371
60.731 1264 35.5528
60.8479 1346 36.6879
60.9648 1381 37.1618
61.0818 1457 38.1707
61.1987 1439 37.9342
61.3158 1428 37.7889
61.4328 1384 37.2022
61.5499 1284 35.8329
61.667 1218 34.8999
61.7841 1161 34.0735
61.9013 1064 32.619
62.0185 1095 33.0908
62.1357 1157 34.0147
62.253 1177 34.3074
62.3702 1265 35.5668
62.4875 1370 37.0135
62.6049 1349 36.7287
62.7222 1405 37.4833
62.8396 1411 37.5633
62.9569 1454 38.1314
63.0743 1359 36.8646
63.1918 1390 37.2827
63.3092 1431 37.8286
63.4267 1325 36.4005
63.5441 1320 36.3318
63.6616 1304 36.1109
63.7791 1163 34.1028
63.8966 1111 33.3317
64.0142 1136 33.7046
64.1317 1200 34.641
64.2492 1230 35.0714
64.3668 1382 37.1753
64.4843 1391 37.2961
64.6019 1424 37.7359
64.7195 1408 37.5233
64.837 1443 37.9868
64.9546 1414 37.6032
65.0722 1348 36.7151
65.1898 1254 35.4119
65.3074 1108 33.2866
65.4249 1116 33.4066
65.5425 1102 33.1964
65.6601 1063 32.6037
65.7777 1124 33.5261
65.8952 1237 35.171
66.0128 1286 35.8608
66.1304 1306 36.1386
66.2479 1338 36.5787
66.3655 1385 37.2156
66.483 1403 37.4566
66.6005 1363 36.9188
66.718 1408 37.5233
66.8355 1413 37.5899
66.953 1253 35.3977
67.0705 1305 36.1248
67.1879 1314 36.2491
67.3054 1154 33.9706
67.4228 1108 33.2866
67.5402 1124 33.5261
67.6576 1084 32.9242
67.7749 1130 33.6155
67.8923 1232 35.0999
68.0096 1293 35.9583
68.1269 1329 36.4555
68.2442 1399 37.4032
68.3614 1328 36.4417
68.4787 1392 37.3095
68.5958 1387 37.2424
68.713 1318 36.3043
68.8302 1214 34.8425
68.9473 1103 33.2114
69.0643 1165 34.1321
69.1814 1006 31.7175
69.2984 983 31.3528
69.4154 1126 33.5559
69.5323 1145 33.8378
69.6492 1239 35.1994
69.7661 1294 35.9722
69.8829 1352 36.7696
69.9997 1243 35.2562
70.1165 1187 34.4529
70.2332 1182 34.3802
70.3499 1132 33.6452
70.4665 1119 33.4515
70.5831 1030 32.0936
70.6996 990 31.4643
70.8161 909 30.1496
70.9326 869 29.4788
71.049 811 28.4781
71.1653 639 25.2784
71.2817 536 23.1517
71.3979 520 22.8035
71.5141 519 22.7816
71.6303 453 21.2838
71.7464 454 21.3073
71.8624 0 1
71.9784 0 1
72.0944 0 1
72.2102 0 1
72.3261 0 1
72.4418 0 1
72.5575 0 1
72.6732 0 1
75.1054 0 1
75.2209 0 1
75.3365 0 1
75.4521 0 1
75.5678 0 1
75.6835 0 1
75.7993 0 1
75.9151 0 1
76.031 0 1
76.147 779 27.9106
76.263 839 28.9655
76.3791 876 29.5973
76.4952 856 29.2575
76.6113 844 29.0517
76.7276 915 30.249
76.8438 1013 31.8277
76.9601 1139 33.7491
77.0765 1134 33.6749
77.1929 1164 34.1174
77.3093 1223 34.9714
77.4258 1194 34.5543
77.5423 1207 34.7419
77.6589 1184 34.4093
77.7755 1069 32.6956
77.8921 946 30.7571
78.0088 906 30.0998
78.1256 908 30.133
78.2423 808 28.4253
78.3591 879 29.6479
78.4759 938 30.6268
78.5928 1010 31.7805
78.7097 1018 31.9061
78.8266 1137 33.7194
78.9436 1148 33.8821
79.0606 1194 34.5543
79.1776 1175 34.2783
79.2946 1182 34.3802
79.4117 1227 35.0286
79.5288 1191 34.5109
79.6459 1164 34.1174
79.7631 1148 33.8821
79.8802 1160 34.0588
79.9974 1006 31.7175
80.1147 931 30.5123
80.2319 907 30.1164
80.3491 935 30.5778
80.4664 979 31.289
80.5837 1032 32.1248
80.701 1182 34.3802
80.8183 1161 34.0735
80.9357 1240 35.2136
81.053 1282 35.805
81.1704 1170 34.2053
81.2877 1200 34.641
81.4051 1201 34.6554
81.5225 1019 31.9218
81.6399 1008 31.749
81.7573 875 29.5804
81.8747 857 29.2746
81.9922 843 29.0345
82.1096 915 30.249
82.227 1057 32.5115
82.3444 1165 34.1321
82.4619 1097 33.121
82.5793 1203 34.6843
82.6967 1197 34.5977
82.8142 1256 35.4401
82.9316 1236 35.1568
83.049 1202 34.6699
83.1664 1301 36.0694
83.2838 1203 34.6843
83.4012 1202 34.6699
83.5186 1115 33.3916
83.636 1130 33.6155
83.7534 1014 31.8434
83.8708 951 30.8383
83.9881 935 30.5778
84.1055 1004 31.686
84.2228 1029 32.078
84.3401 1090 33.0151
84.4575 1199 34.6266
84.5747 1209 34.7707
84.692 1258 35.4683
84.8093 1264 35.5528
84.9265 1215 34.8569
85.0437 1145 33.8378
85.1609 1064 32.619
85.2781 986 31.4006
85.3952 911 30.1828
85.5123 905 30.0832
85.6294 920 30.3315
85.7465 993 31.5119
85.8636 1142 33.7935
85.9806 1117 33.4215
86.0976 1198 34.6121
86.2145 1208 34.7563
86.3315 1161 34.0735
86.4484 1237 35.171
86.5652 1210 34.7851
86.682 1244 35.2704
86.7988 1250 35.3553
86.9156 1248 35.327
87.0323 1205 34.7131
87.149 1244 35.2704
87.2657 1062 32.5883
87.3823 1000 31.6228
87.4988 828 28.775
87.6154 809 28.4429
87.7318 886 29.7658
87.8483 894 29.8998
87.9647 1053 32.45
88.081 1005 31.7017
88.1973 953 30.8707
88.3136 940 30.6594
88.4298 911 30.1828
88.546 841 29
88.6621 703 26.5141
88.7781 560 23.6643
88.8942 0 1
89.0101 0 1
89.126 0 1
89.2419 0 1
89.3577 0 1
89.4734 0 1
89.5891 0 1
89.7047 0 1
89.8203 0 1
89.9358 0 1
92.3269 0 1
92.4424 0 1
92.558 0 1
92.6736 0 1
92.7893 0 1
92.905 0 1
93.0208 0 1
93.1366 0 1
93.2525 0 1
93.3685 0 1
93.4845 0 1
93.6005 909 30.1496
93.7167 922 30.3645
93.8328 1058 32.5269
93.949 1036 32.187
94.0653 1078 32.8329
94.1816 1140 33.7639
94.2979 1031 32.1092
94.4143 961 31
94.5307 954 30.8869
94.6472 891 29.8496
94.7637 957 30.9354
94.8803 995 31.5436
94.9969 1060 32.5576
95.1135 1136 33.7046
95.2302 1163 34.1028
95.3469 1264 35.5528
95.4637 1222 34.9571
95.5805 1354 36.7967
95.6973 1259 35.4824
95.8142 1312 36.2215
95.9311 1337 36.565
96.048 1271 35.6511
96.1649 1207 34.7419
96.2819 1216 34.8712
96.3989 1133 33.6601
96.516 1142 33.7935
96.633 1128 33.5857
96.7501 969 31.1288
96.8673 1014 31.8434
96.9844 1026 32.0312
97.1016 1051 32.4191
97.2188 1190 34.4964
97.336 1234 35.1283
97.4532 1235 35.1426
97.5704 1363 36.9188
97.6877 1290 35.9166
97.805 1290 35.9166
97.9223 1244 35.2704
98.0396 1108 33.2866
98.1569 999 31.607
98.2743 942 30.692
98.3916 897 29.95
98.509 961 31
98.6264 1134 33.6749
98.7438 1133 33.6601
98.8612 1226 35.0143
98.9786 1272 35.6651
99.096 1271 35.6511
99.2134 1339 36.5923
99.3308 1316 36.2767
99.4482 1346 36.6879
99.5656 1314 36.2491
99.6831 1327 36.428
99.8005 1330 36.4692
99.9179 1251 35.3695
100.035 1248 35.327
100.153 1206 34.7275
100.27 1128 33.5857
100.388 1060 32.5576
100.505 1105 33.2415
100.622 1144 33.8231
100.74 1262 35.5246
100.857 1305 36.1248
100.975 1391 37.2961
101.092 1408 37.5233
101.209 1376 37.0945
101.327 1390 37.2827
101.444 1320 36.3318
101.561 1242 35.242
101.679 1130 33.6155
101.796 987 31.4166
101.913 966 31.0805
102.03 1003 31.6702
102.148 1121 33.4813
102.265 1191 34.5109
102.382 1244 35.2704
102.499 1272 35.6651
102.616 1352 36.7696
102.733 1343 36.647
102.851 1402 37.4433
102.968 1371 37.027
103.085 1365 36.9459
103.202 1428 37.7889
103.319 1413 37.5899
103.436 1351 36.756
103.552 1243 35.2562
103.669 1322 36.3593
103.786 1157 34.0147
103.903 1126 33.5559
104.02 1215 34.8569
104.137 1266 35.5809
104.253 1274 35.6931
104.37 1450 38.0789
104.487 1502 38.7556
104.603 1500 38.7298
104.72 1458 38.1838
104.836 1407 37.51
104.953 1275 35.7071
105.069 1124 33.5261
105.186 1024 32
105.302 873 29.5466
105.418 910 30.1662
105.535 875 29.5804
105.651 930 30.4959
105.767 952 30.8545
105.883 923 30.3809
105.999 861 29.3428
106.115 0 1
106.231 0 1
106.347 0 1
106.463 0 1
106.579 0 1
106.694 0 1
106.81 0 1
106.926 0 1
107.041 0 1
107.157 0 1
109.576 0 1
109.692 0 1
109.807 0 1
109.923 0 1
110.039 0 1
110.155 0 1
110.27 0 1
110.386 0 1
110.502 0 1
110.618 576 24
110.735 724 26.9072
110.851 900 30
110.967 1044 32.311
111.083 1088 32.9848
111.199 1202 34.6699
111.316 1227 35.0286
111.432 1317 36.2905
111.549 1334 36.524
111.665 1361 36.8917
111.782 1290 35.9166
111.898 1359 36.8646
112.015 1268 35.609
112.132 1256 35.4401
112.248 1135 33.6898
112.365 1064 32.619
112.482 1050 32.4037
112.599 1159 34.0441
112.716 1171 34.2199
112.832 1246 35.2987
112.949 1343 36.647
113.066 1373 37.054
113.183 1314 36.2491
113.3 1312 36.2215
113.417 1291 35.9305
113.534 1255 35.426
113.652 1175 34.2783
113.769 1092 33.0454
113.886 1000 31.6228
114.003 905 30.0832
114.12 962 31.0161
114.238 1119 33.4515
114.355 1219 34.9142
114.472 1200 34.641
114.589 1345 36.6742
114.707 1337 36.565
114.824 1388 37.2559
114.942 1352 36.7696
115.059 1309 36.1801
115.176 1354 36.7967
115.294 1378 37.1214
115.411 1308 36.1663
115.529 1274 35.6931
115.646 1285 35.8469
115.764 1199 34.6266
115.881 1191 34.5109
115.999 1062 32.5883
116.116 1192 34.5254
116.234 1182 34.3802
116.351 1330 36.4692
116.469 1356 36.8239
116.586 1362 36.9053
116.704 1327 36.428
116.821 1374 37.0675
116.939 1397 37.3765
117.056 1364 36.9324
117.174 1244 35.2704
117.291 1202 34.6699
117.409 1041 32.2645
117.526 1041 32.2645
117.644 979 31.289
117.761 1042 32.28
117.879 1113 33.3617
117.996 1265 35.5668
118.114 1340 36.606
118.231 1332 36.4966
118.349 1238 35.1852
118.466 1327 36.428
118.584 1358 36.8511
118.701 1333 36.5103
118.819 1300 36.0555
118.936 1308 36.1663
119.053 1297 36.0139
119.171 1242 35.242
119.288 1188 34.4674
119.405 1198 34.6121
119.523 1040 32.249
119.64 1009 31.7648
119.757 1107 33.2716
119.875 1119 33.4515
119.992 1207 34.7419
120.109 1198 34.6121
120.226 1207 34.7419
120.343 1229 35.0571
120.46 1241 35.2278
120.578 1262 35.5246
120.695 1234 35.1283
120.812 1250 35.3553
120.929 1080 32.8634
121.046 1008 31.749
121.163 889 29.8161
121.279 867 29.4449
121.396 895 29.9166
121.513 933 30.545
121.63 1041 32.2645
121.747 980 31.305
121.863 1105 33.2415
121.98 1054 32.4654
122.097 995 31.5436
122.213 1010 31.7805
122.33 964 31.0483
122.446 947 30.7734
122.563 886 29.7658
122.679 866 29.4279
122.795 806 28.3901
122.912 763 27.6225
123.028 634 25.1794
123.144 547 23.388
123.26 537 23.1733
123.377 0 1
123.493 0 1
123.609 0 1
123.725 0 1
123.84 0 1
123.956 0 1
124.072 0 1
124.188 0 1
124.303 0 1
124.419 0 1
126.852 0 1
126.968 0 1
127.083 0 1
127.199 0 1
127.315 0 1
127.431 0 1
127.547 0 1
127.663 0 1
127.779 0 1
127.895 0 1
128.011 0 1
128.127 0 1
128.243 0 1
128.359 1137 33.7194
128.476 1148 33.8821
128.592 1031 32.1092
128.708 1125 33.541
128.825 1153 33.9559
128.941 1169 34.1906
129.058 1268 35.609
129.174 1375 37.081
129.291 1358 36.8511
129.408 1434 37.8682
129.524 1413 37.5899
129.641 1325 36.4005
129.758 1378 37.1214
129.875 1231 35.0856
129.992 1139 33.7491
130.108 1062 32.5883
130.225 1018 31.9061
130.342 947 30.7734
130.459 999 31.607
130.576 1131 33.6303
130.693 1202 34.6699
130.81 1256 35.4401
130.928 1312 36.2215
131.045 1280 35.7771
131.162 1376 37.0945
131.279 1328 36.4417
131.396 1426 37.7624
131.513 1345 36.6742
131.631 1306 36.1386
131.748 1280 35.7771
131.865 1235 35.1426
131.983 1257 35.4542
132.1 1195 34.5688
132.217 1114 33.3766
132.335 1142 33.7935
132.452 1230 35.0714
132.57 1268 35.609
132.687 1397 37.3765
132.804 1376 37.0945
132.922 1321 36.3456
133.039 1373 37.054
133.157 1406 37.4967
133.274 1313 36.2353
133.392 1408 37.5233
133.509 1183 34.3948
133.627 1121 33.4813
133.744 1084 32.9242
133.862 1022 31.9687
133.979 991 31.4802
134.097 1151 33.9264
134.214 1198 34.6121
134.332 1232 35.0999
134.449 1257 35.4542
134.567 1274 35.6931
134.684 1296 36
134.802 1413 37.5899
134.919 1313 36.2353
135.037 1382 37.1753
135.154 1279 35.7631
135.272 1292 35.9444
135.389 1324 36.3868
135.507 1308 36.1663
135.624 1177 34.3074
135.742 1200 34.641
135.859 1188 34.4674
135.977 1224 34.9857
136.094 1201 34.6554
136.211 1315 36.2629
136.329 1392 37.3095
136.446 1360 36.8782
136.564 1461 38.223
136.681 1448 38.0526
136.798 1302 36.0832
136.915 1342 36.6333
137.033 1314 36.2491
137.15 1272 35.6651
137.267 1083 32.909
137.384 1095 33.0908
137.502 1047 32.3574
137.619 1049 32.3883
137.736 1130 33.6155
137.853 1145 33.8378
137.97 1244 35.2704
138.087 1251 35.3695
138.204 1367 36.973
138.321 1310 36.1939
138.438 1375 37.081
138.555 1341 36.6197
138.672 1370 37.0135
138.788 1289 35.9026
138.905 1273 35.6791
139.022 1222 34.9571
139.139 1126 33.5559
139.255 1082 32.8938
139.372 989 31.4484
139.488 866 29.4279
139.605 876 29.5973
139.721 908 30.133
139.838 916 30.2655
139.954 915 30.249
140.071 897 29.95
140.187 806 28.3901
140.303 741 27.2213
140.419 707 26.5895
140.535 671 25.9037
140.652 660 25.6905
140.768 0 1
140.884 0 1
141 0 1
141.115 0 1
141.231 0 1
141.347 0 1
141.463 0 1
141.578 0 1
141.694 0 1
144.104 0 1
144.219 0 1
144.335 0 1
144.45 0 1
144.566 0 1
144.682 0 1
144.798 0 1
144.914 0 1
145.03 0 1
145.146 959 30.9677
145.262 1039 32.2335
145.378 1078 32.8329
145.494 1156 34
145.61 1047 32.3574
145.726 1102 33.1964
145.842 979 31.289
145.959 963 31.0322
146.075 870 29.4958
146.192 918 30.2985
146.308 860 29.3258
146.425 842 29.0172
146.541 908 30.133
146.658 946 30.7571
146.774 992 31.496
146.891 1016 31.8748
147.008 1030 32.0936
147.125 1019 31.9218
147.241 1087 32.9697
147.358 1078 32.8329
147.475 1077 32.8177
147.592 1079 32.8481
147.709 983 31.3528
147.826 937 30.6105
147.943 959 30.9677
148.06 989 31.4484
148.177 923 30.3809
148.294 917 30.282
148.411 926 30.4302
148.528 990 31.4643
148.645 1041 32.2645
148.762 1040 32.249
148.88 1135 33.6898
148.997 1128 33.5857
149.114 1062 32.5883
149.231 1058 32.5269
149.349 1083 32.909
149.466 1043 32.2955
149.583 1013 31.8277
149.701 984 31.3688
149.818 884 29.7321
149.935 806 28.3901
150.053 828 28.775
150.17 821 28.6531
150.287 908 30.133
150.405 946 30.7571
150.522 981 31.3209
150.64 961 31
150.757 941 30.6757
150.875 1020 31.9374
150.992 1025 32.0156
151.11 1025 32.0156
151.227 980 31.305
151.344 989 31.4484
151.462 992 31.496
151.579 952 30.8545
151.697 933 30.545
151.814 907 30.1164
151.932 889 29.8161
152.049 902 30.0333
152.167 864 29.3939
152.284 969 31.1288
152.402 997 31.5753
152.519 1023 31.9844
152.636 979 31.289
152.754 1041 32.2645
152.871 980 31.305
152.989 1017 31.8904
153.106 957 30.9354
153.223 914 30.2324
153.341 892 29.8664
153.458 807 28.4077
153.575 811 28.4781
153.693 769 27.7308
153.81 794 28.178
153.927 878 29.6311
154.044 867 29.4449
154.162 902 30.0333
154.279 945 30.7409
154.396 939 30.6431
154.513 969 31.1288
154.63 951 30.8383
154.747 916 30.2655
154.864 914 30.2324
154.981 884 29.7321
155.098 954 30.8869
155.215 912 30.1993
155.332 860 29.3258
155.449 832 28.8444
155.566 810 28.4605
155.683 807 28.4077
155.8 883 29.7153
155.917 828 28.775
156.033 854 29.2233
156.15 0 1
156.267 0 1
156.383 0 1
156.5 0 1
156.617 0 1
156.733 0 1
156.85 0 1
156.966 0 1
157.082 0 1
157.199 0 1
157.315 0 1
157.431 0 1
157.547 0 1
157.664 0 1
157.78 0 1
157.896 0 1
158.012 0 1
158.128 0 1
158.244 0 1
158.359 0 1
158.475 0 1
158.591 0 1
158.706 0 1
