
6.15755 0 1
6.2731 0 1
6.3887 0 1
6.50437 0 1
6.62009 0 1
6.73587 0 1
6.8517 0 1
6.96759 0 1
7.08353 0 1
7.19952 0 1
7.31557 0 1
7.43166 0 1
7.54781 0 1
7.664 0 1
7.78024 0 1
7.89653 0 1
8.01286 0 1
8.12924 0 1
8.24567 0 1
8.36213 0 1
8.47864 0 1
8.59519 0 1
8.71178 0 1
8.82841 0 1
8.94508 0 1
9.06179 0 1
9.17853 0 1
9.29531 0 1
9.41212 0 1
9.52897 0 1
9.64584 0 1
9.76276 0 1
9.8797 0 1
9.99667 0 1
10.1137 0 1
10.2307 0 1
10.3478 0 1
10.4648 0 1
10.5819 0 1
10.6991 0 1
10.8162 0 1
10.9334 0 1
11.0506 0 1
11.1678 0 1
11.285 0 1
11.4023 0 1
11.5196 0 1
11.6369 0 1
11.7542 0 1
11.8715 0 1
11.9888 0 1
12.1062 0 1
12.2235 0 1
12.3409 0 1
12.4582 0 1
12.5756 0 1
12.693 0 1
12.8104 0 1
12.9278 0 1
13.0452 0 1
13.1626 0 1
13.28 0 1
13.3974 0 1
13.5149 0 1
13.6323 0 1
13.7497 0 1
13.8671 0 1
13.9845 0 1
14.1019 0 1
14.2193 0 1
14.3367 0 1
14.4541 0 1
14.5714 0 1
14.6888 0 1
14.8062 0 1
14.9235 0 1
15.0408 1725 41.5331
15.1581 1873 43.2782
15.2755 1954 44.2041
15.3927 1863 43.1625
15.51 1814 42.5911
15.6273 1824 42.7083
15.7445 1843 42.9302
15.8617 1873 43.2782
15.9789 1794 42.3556
16.0961 1884 43.4051
16.2132 1861 43.1393
16.3304 1913 43.7379
16.4475 1786 42.2611
16.5646 1769 42.0595
16.6816 1908 43.6807
16.7986 1942 44.0681
16.9156 1995 44.6654
17.0326 1911 43.715
17.1496 2013 44.8665
17.2665 2018 44.9222
17.3833 1972 44.4072
17.5002 1945 44.1022
17.617 2059 45.3762
17.7338 1971 44.3959
17.8505 2043 45.1996
17.9672 2026 45.0111
18.0839 1932 43.9545
18.2005 2011 44.8442
18.3171 2048 45.2548
18.4337 2092 45.7384
18.5502 2128 46.1303
18.6666 2168 46.5618
18.7831 2174 46.6262
18.8994 2181 46.7012
19.0158 2061 45.3982
19.1321 1953 44.1928
19.2483 1953 44.1928
19.3645 1823 42.6966
19.4806 1809 42.5323
19.5967 1763 41.9881
19.7128 1689 41.0974
19.8288 1516 38.9358
19.9447 1374 37.0675
20.0606 0 1
20.1764 0 1
20.2922 0 1
20.4079 0 1
20.5236 0 1
20.6392 0 1
20.7548 0 1
20.8702 0 1
23.3078 0 1
23.4233 0 1
23.539 0 1
23.6547 0 1
23.7704 0 1
23.8862 0 1
24.0021 0 1
24.118 0 1
24.234 0 1
24.35 0 1
24.4661 933 30.545
24.5822 1115 33.3916
24.6984 1294 35.9722
24.8146 1406 37.4967
24.9309 1585 39.8121
25.0472 1695 41.1704
25.1636 1759 41.9404
25.28 1907 43.6692
25.3965 1932 43.9545
25.513 1997 44.6878
25.6296 2080 45.607
25.7462 2113 45.9674
25.8628 2213 47.0425
25.9795 2279 47.7389
26.0962 2295 47.9062
26.213 2216 47.0744
26.3298 2278 47.7284
26.4466 2367 48.6518
26.5635 2251 47.4447
26.6804 2251 47.4447
26.7973 2254 47.4763
26.9143 2277 47.7179
27.0313 2378 48.7647
27.1483 2265 47.592
27.2653 2463 49.6286
27.3824 2427 49.2646
27.4996 2372 48.7032
27.6167 2419 49.1833
27.7339 2354 48.518
27.8511 2303 47.9896
27.9683 2300 47.9583
28.0855 2266 47.6025
28.2028 2258 47.5184
28.3201 2337 48.3425
28.4374 2343 48.4045
28.5547 2226 47.1805
28.6721 2156 46.4327
28.7894 2071 45.5082
28.9068 2028 45.0333
29.0242 2113 45.9674
29.1416 2125 46.0977
29.259 2070 45.4973
29.3764 2112 45.9565
29.4939 2115 45.9891
29.6113 2237 47.2969
29.7288 2169 46.5725
29.8463 2300 47.9583
29.9638 2332 48.2908
30.0812 2232 47.244
30.1987 2326 48.2286
30.3162 2288 47.833
30.4337 2245 47.3814
30.5512 2345 48.4252
30.6687 2363 48.6107
30.7862 2396 48.949
30.9037 2459 49.5883
31.0212 2436 49.3559
31.1387 2370 48.6826
31.2562 2310 48.0625
31.3737 2283 47.7807
31.4912 2334 48.3115
31.6087 2298 47.9375
31.7262 2427 49.2646
31.8436 2354 48.518
31.9611 2319 48.156
32.0785 2257 47.5079
32.1959 2261 47.55
32.3134 2049 45.2659
32.4308 2108 45.913
32.5482 2035 45.111
32.6655 2045 45.2217
32.7829 2192 46.8188
32.9002 2157 46.4435
33.0176 2192 46.8188
33.1349 2211 47.0213
33.2522 2299 47.9479
33.3694 2298 47.9375
33.4867 2256 47.4974
33.6039 2343 48.4045
33.7211 2278 47.7284
33.8383 2240 47.3286
33.9554 2229 47.2123
34.0725 2259 47.5289
34.1896 2248 47.4131
34.3067 2341 48.3839
34.4237 2336 48.3322
34.5407 2379 48.775
34.6577 2460 49.5984
34.7746 2431 49.3052
34.8915 2401 49
35.0084 2435 49.3457
35.1252 2291 47.8644
35.242 2281 47.7598
35.3587 2219 47.1063
35.4755 2383 48.816
35.5921 2303 47.9896
35.7088 2333 48.3011
35.8254 2190 46.7974
35.9419 2079 45.5961
36.0584 1897 43.5546
36.1749 1902 43.6119
36.2913 1837 42.8602
36.4077 1777 42.1545
36.524 1789 42.2966
36.6403 1778 42.1663
36.7565 1701 41.2432
36.8727 1727 41.5572
36.9889 1641 40.5093
37.1049 1584 39.7995
37.221 0 1
37.3369 0 1
37.4529 0 1
37.5687 0 1
37.6845 0 1
37.8003 0 1
37.916 0 1
38.0316 0 1
38.1472 0 1
40.5851 0 1
40.7008 0 1
40.8164 0 1
40.9322 0 1
41.048 0 1
41.1639 0 1
41.2798 0 1
41.3958 0 1
41.5118 0 1
41.6279 0 1
41.744 932 30.5287
41.8602 1118 33.4365
41.9765 1224 34.9857
42.0928 1338 36.5787
42.2091 1569 39.6106
42.3255 1707 41.3159
42.4419 1804 42.4735
42.5584 1888 43.4511
42.675 1975 44.441
42.7915 2086 45.6727
42.9081 1969 44.3734
43.0248 2120 46.0435
43.1415 2137 46.2277
43.2582 2312 48.0833
43.375 2319 48.156
43.4918 2396 48.949
43.6087 2325 48.2183
43.7256 2415 49.1426
43.8425 2371 48.6929
43.9595 2317 48.1352
44.0765 2313 48.0937
44.1935 2162 46.4973
44.3106 2260 47.5395
44.4277 2266 47.6025
44.5448 2173 46.6154
44.6619 2184 46.7333
44.7791 2138 46.2385
44.8963 1936 44
45.0136 1852 43.0349
45.1308 1793 42.3438
45.2481 1696 41.1825
45.3654 1830 42.7785
45.4827 1898 43.566
45.6001 2032 45.0777
45.7174 2118 46.0217
45.8348 2152 46.3897
45.9522 2116 46
46.0697 2270 47.6445
46.1871 2209 47
46.3046 2349 48.4665
46.422 2289 47.8435
46.5395 2352 48.4974
46.657 2256 47.4974
46.7745 2324 48.2079
46.892 2434 49.3356
47.0096 2514 50.1398
47.1271 2594 50.9313
47.2446 2605 51.0392
47.3622 2529 50.2892
47.4797 2480 49.7996
47.5973 2438 49.3761
47.7149 2387 48.8569
47.8324 2489 49.8899
47.95 2330 48.2701
48.0675 2366 48.6415
48.1851 2423 49.224
48.3027 2222 47.1381
48.4202 2057 45.3542
48.5378 1910 43.7035
48.6554 1814 42.5911
48.7729 1748 41.8091
48.8904 1835 42.8369
49.008 1848 42.9884
49.1255 1924 43.8634
49.243 2125 46.0977
49.3605 2288 47.833
49.478 2350 48.4768
49.5955 2456 49.558
49.713 2395 48.9387
49.8304 2431 49.3052
49.9479 2427 49.2646
50.0653 2382 48.8057
50.1827 2470 49.6991
50.3001 2485 49.8498
50.4175 2557 50.5668
50.5348 2599 50.9804
50.6521 2628 51.264
50.7694 2629 51.2738
50.8867 2607 51.0588
51.004 2502 50.02
51.1212 2607 51.0588
51.2384 2501 50.01
51.3556 2481 49.8096
51.4727 2517 50.1697
51.5899 2470 49.6991
51.707 2399 48.9796
51.824 2312 48.0833
51.9411 2094 45.7602
52.0581 1909 43.6921
52.175 1873 43.2782
52.2919 1862 43.1509
52.4088 1858 43.1045
52.5257 1859 43.1161
52.6425 2057 45.3542
52.7593 2056 45.3431
52.876 2240 47.3286
52.9927 2269 47.634
53.1094 2331 48.2804
53.226 2374 48.7237
53.3426 2223 47.1487
53.4591 2144 46.3033
53.5756 2174 46.6262
53.692 2029 45.0444
53.8084 1900 43.589
53.9248 1884 43.4051
54.0411 1838 42.8719
54.1573 1792 42.332
54.2735 0 1
54.3896 0 1
54.5057 0 1
54.6217 0 1
54.7377 0 1
54.8537 0 1
54.9695 0 1
55.0853 0 1
55.2011 0 1
55.3168 0 1
55.4324 0 1
57.824 0 1
57.9396 0 1
58.0553 0 1
58.1711 0 1
58.2869 0 1
58.4028 0 1
58.5187 0 1
58.6347 0 1
58.7508 0 1
58.8669 0 1
58.983 1998 44.699
59.0992 2173 46.6154
59.2155 2487 49.8698
59.3318 2680 51.7687
59.4482 2755 52.4881
59.5646 2930 54.1295
59.681 3036 55.0999
59.7975 3094 55.6237
59.9141 2994 54.7175
60.0306 3152 56.1427
60.1473 3064 55.3534
60.2639 3205 56.6127
60.3807 3111 55.7763
60.4974 3027 55.0182
60.6142 2874 53.6097
60.731 2620 51.1859
60.8479 2465 49.6488
60.9648 2258 47.5184
61.0818 2287 47.8226
61.1987 2268 47.6235
61.3158 2367 48.6518
61.4328 2692 51.8845
61.5499 2957 54.3783
61.667 3222 56.7627
61.7841 3396 58.2752
61.9013 3462 58.8388
62.0185 3469 58.8982
62.1357 3405 58.3524
62.253 3447 58.7112
62.3702 3490 59.0762
62.4875 3592 59.9333
62.6049 3623 60.1914
62.7222 3743 61.1801
62.8396 3634 60.2827
62.9569 3715 60.9508
63.0743 3781 61.4898
63.1918 3729 61.0655
63.3092 3686 60.7124
63.4267 3585 59.8749
63.5441 3587 59.8916
63.6616 3509 59.2368
63.7791 3484 59.0254
63.8966 3426 58.532
64.0142 3397 58.2838
64.1317 3040 55.1362
64.2492 2690 51.8652
64.3668 2397 48.9592
64.4843 2335 48.3218
64.6019 2294 47.8957
64.7195 2285 47.8017
64.837 2317 48.1352
64.9546 2636 51.342
65.0722 2920 54.037
65.1898 3101 55.6866
65.3074 3383 58.1636
65.4249 3526 59.3801
65.5425 3656 60.4649
65.6601 3486 59.0424
65.7777 3513 59.2706
65.8952 3583 59.8582
66.0128 3658 60.4814
66.1304 3715 60.9508
66.2479 3676 60.63
66.3655 3885 62.3298
66.483 3799 61.636
66.6005 3781 61.4898
66.718 3877 62.2656
66.8355 3893 62.3939
66.953 3751 61.2454
67.0705 3623 60.1914
67.1879 3628 60.2329
67.3054 3694 60.7783
67.4228 3715 60.9508
67.5402 3606 60.05
67.6576 3364 58
67.7749 3073 55.4346
67.8923 2813 53.0377
68.0096 2397 48.9592
68.1269 2230 47.2229
68.2442 2169 46.5725
68.3614 2205 46.9574
68.4787 2316 48.1248
68.5958 2680 51.7687
68.713 2964 54.4426
68.8302 3352 57.8965
68.9473 3479 58.983
69.0643 3685 60.7042
69.1814 3767 61.3759
69.2984 3718 60.9754
69.4154 3709 60.9016
69.5323 3563 59.6909
69.6492 3405 58.3524
69.7661 3482 59.0085
69.8829 3435 58.6089
69.9997 3394 58.258
70.1165 3570 59.7495
70.2332 3355 57.9224
70.3499 3361 57.9741
70.4665 3282 57.2887
70.5831 3023 54.9818
70.6996 2895 53.8052
70.8161 2758 52.5167
70.9326 2698 51.9423
71.049 2454 49.5379
71.1653 2345 48.4252
71.2817 2157 46.4435
71.3979 1859 43.1161
71.5141 1592 39.8999
71.6303 1368 36.9865
71.7464 895 29.9166
71.8624 0 1
71.9784 0 1
72.0944 0 1
72.2102 0 1
72.3261 0 1
72.4418 0 1
72.5575 0 1
72.6732 0 1
75.1054 0 1
75.2209 0 1
75.3365 0 1
75.4521 0 1
75.5678 0 1
75.6835 0 1
75.7993 0 1
75.9151 0 1
76.031 0 1
76.147 2701 51.9711
76.263 2811 53.0189
76.3791 2946 54.2771
76.4952 2872 53.591
76.6113 2776 52.6878
76.7276 2650 51.4782
76.8438 2441 49.4065
76.9601 2263 47.571
77.0765 2085 45.6618
77.1929 1996 44.6766
77.3093 2114 45.9783
77.4258 2066 45.4533
77.5423 2351 48.4871
77.6589 2833 53.2259
77.7755 3161 56.2228
77.8921 3700 60.8276
78.0088 3848 62.0322
78.1256 3954 62.8808
78.2423 3986 63.1348
78.3591 3912 62.546
78.4759 3839 61.9597
78.5928 3898 62.434
78.7097 3926 62.6578
78.8266 3842 61.9839
78.9436 4144 64.3739
79.0606 4005 63.2851
79.1776 4096 64
79.2946 4212 64.8999
79.4117 4250 65.192
79.5288 4038 63.5453
79.6459 4185 64.6916
79.7631 4041 63.5689
79.8802 4068 63.7809
79.9974 4131 64.2729
80.1147 4164 64.5291
80.2319 3958 62.9126
80.3491 3730 61.0737
80.4664 3302 57.463
80.5837 2963 54.4334
80.701 2510 50.0999
80.8183 2223 47.1487
80.9357 2153 46.4004
81.053 2215 47.0638
81.1704 2474 49.7393
81.2877 2778 52.7067
81.4051 3432 58.5833
81.5225 3958 62.9126
81.6399 4303 65.5973
81.7573 4465 66.8207
81.8747 4384 66.2118
81.9922 4475 66.8954
82.1096 4485 66.9701
82.227 4148 64.405
82.3444 4282 65.437
82.4619 4433 66.5808
82.5793 4471 66.8655
82.6967 4642 68.1322
82.8142 4695 68.5201
82.9316 4795 69.2459
83.049 4710 68.6294
83.1664 4683 68.4324
83.2838 4782 69.152
83.4012 4473 66.8805
83.5186 4438 66.6183
83.636 4489 67
83.7534 4480 66.9328
83.8708 4246 65.1613
83.9881 4021 63.4114
84.1055 3531 59.4222
84.2228 3363 57.9914
84.3401 2820 53.1037
84.4575 2518 50.1797
84.5747 2283 47.7807
84.692 2461 49.6085
84.8093 2664 51.614
84.9265 3175 56.3471
85.0437 3677 60.6383
85.1609 4228 65.0231
85.2781 4662 68.2788
85.3952 4994 70.6682
85.5123 5058 71.1196
85.6294 5061 71.1407
85.7465 5039 70.9859
85.8636 4707 68.6076
85.9806 4701 68.5638
86.0976 4832 69.5126
86.2145 5090 71.3442
86.3315 5227 72.298
86.4484 5025 70.8872
86.5652 5247 72.4362
86.682 5239 72.3809
86.7988 4913 70.0928
86.9156 4858 69.6994
87.0323 4784 69.1665
87.149 4466 66.8281
87.2657 4514 67.1863
87.3823 4438 66.6183
87.4988 4215 64.923
87.6154 3868 62.1932
87.7318 3378 58.1206
87.8483 2908 53.9259
87.9647 2365 48.6313
88.081 2084 45.6508
88.1973 1888 43.4511
88.3136 1903 43.6234
88.4298 2024 44.9889
88.546 2290 47.8539
88.6621 2590 50.892
88.7781 2938 54.2033
88.8942 0 1
89.0101 0 1
89.126 0 1
89.2419 0 1
89.3577 0 1
89.4734 0 1
89.5891 0 1
89.7047 0 1
89.8203 0 1
89.9358 0 1
92.3269 0 1
92.4424 0 1
92.558 0 1
92.6736 0 1
92.7893 0 1
92.905 0 1
93.0208 0 1
93.1366 0 1
93.2525 0 1
93.3685 0 1
93.4845 0 1
93.6005 2223 47.1487
93.7167 2392 48.9081
93.8328 2764 52.5738
93.949 3285 57.3149
94.0653 3868 62.1932
94.1816 4463 66.8057
94.2979 5083 71.2952
94.4143 5257 72.5052
94.5307 5504 74.1889
94.6472 5745 75.7958
94.7637 5840 76.4199
94.8803 5734 75.7232
94.9969 5719 75.6241
95.1135 5566 74.6056
95.2302 5651 75.1731
95.3469 5935 77.039
95.4637 6016 77.5629
95.5805 6157 78.4666
95.6973 5934 77.0325
95.8142 5914 76.9025
95.9311 5957 77.1816
96.048 5824 76.3151
96.1649 5978 77.3175
96.2819 5813 76.243
96.3989 5535 74.3976
96.516 5486 74.0675
96.633 5143 71.7147
96.7501 4694 68.5128
96.8673 4207 64.8614
96.9844 3748 61.2209
97.1016 3319 57.6108
97.2188 3109 55.7584
97.336 3059 55.3082
97.4532 3148 56.107
97.5704 3572 59.7662
97.6877 4302 65.5896
97.805 4886 69.8999
97.9223 5399 73.4779
98.0396 5828 76.3413
98.1569 6128 78.2815
98.2743 6183 78.6321
98.3916 5992 77.408
98.509 5956 77.1751
98.6264 5868 76.6029
98.7438 5924 76.9675
98.8612 6152 78.4347
98.9786 6261 79.1265
99.096 6180 78.613
99.2134 6433 80.206
99.3308 6379 79.8686
99.4482 6427 80.1686
99.5656 6403 80.0187
99.6831 6289 79.3032
99.8005 6094 78.0641
99.9179 6055 77.8139
100.035 6032 77.666
100.153 5871 76.6225
100.27 5377 73.328
100.388 4811 69.3614
100.505 4311 65.6582
100.622 3794 61.5955
100.74 3437 58.6259
100.857 3213 56.6833
100.975 3324 57.6541
101.092 3466 58.8727
101.209 4069 63.7887
101.327 4769 69.0579
101.444 5544 74.458
101.561 6081 77.9808
101.679 6135 78.3262
101.796 6335 79.5927
101.913 6331 79.5676
102.03 6149 78.4156
102.148 6180 78.613
102.265 6194 78.702
102.382 6031 77.6595
102.499 6447 80.2932
102.616 6396 79.975
102.733 6371 79.8185
102.851 6637 81.4678
102.968 6492 80.5729
103.085 6581 81.1234
103.202 6351 79.6932
103.319 6221 78.8733
103.436 6219 78.8606
103.552 6084 78
103.669 5870 76.6159
103.786 5706 75.5381
103.903 5226 72.2911
104.02 4577 67.6535
104.137 4172 64.591
104.253 3644 60.3656
104.37 3363 57.9914
104.487 3231 56.8419
104.603 3291 57.3672
104.72 3594 59.95
104.836 4073 63.8201
104.953 4414 66.4379
105.069 4723 68.7241
105.186 4887 69.9071
105.302 5016 70.8237
105.418 4881 69.8642
105.535 4676 68.3813
105.651 4225 65
105.767 4007 63.3009
105.883 3715 60.9508
105.999 3452 58.7537
106.115 0 1
106.231 0 1
106.347 0 1
106.463 0 1
106.579 0 1
106.694 0 1
106.81 0 1
106.926 0 1
107.041 0 1
107.157 0 1
109.576 0 1
109.692 0 1
109.807 0 1
109.923 0 1
110.039 0 1
110.155 0 1
110.27 0 1
110.386 0 1
110.502 0 1
110.618 3645 60.3738
110.735 4020 63.4035
110.851 4192 64.7457
110.967 4262 65.284
111.083 4796 69.2532
111.199 5121 71.5612
111.316 5236 72.3602
111.432 5551 74.505
111.549 5722 75.6439
111.665 5796 76.1315
111.782 5735 75.7298
111.898 5708 75.5513
112.015 5722 75.6439
112.132 5520 74.2967
112.248 5709 75.5579
112.365 5725 75.6637
112.482 5368 73.2666
112.599 4832 69.5126
112.716 4158 64.4826
112.832 3724 61.0246
112.949 3368 58.0345
113.066 3094 55.6237
113.183 3014 54.8999
113.3 3117 55.8301
113.417 3434 58.6003
113.534 4029 63.4744
113.652 4893 69.95
113.769 5116 71.5262
113.886 5519 74.29
114.003 5705 75.5315
114.12 5632 75.0467
114.238 5711 75.5712
114.355 5427 73.6682
114.472 5422 73.6342
114.589 5453 73.8444
114.707 5551 74.505
114.824 5686 75.4056
114.942 5848 76.4722
115.059 5773 75.9803
115.176 5684 75.3923
115.294 5723 75.6505
115.411 5509 74.2226
115.529 5537 74.411
115.646 5436 73.7292
115.764 5395 73.4507
115.881 5247 72.4362
115.999 5313 72.8903
116.116 5014 70.8096
116.234 4503 67.1044
116.351 3982 63.1031
116.469 3577 59.808
116.586 3260 57.0964
116.704 3001 54.7814
116.821 3000 54.7723
116.939 3083 55.5248
117.056 3421 58.4893
117.174 3950 62.849
117.291 4539 67.3721
117.409 5022 70.8661
117.526 5373 73.3008
117.644 5293 72.753
117.761 5447 73.8038
117.879 5326 72.9794
117.996 5079 71.2671
118.114 5063 71.1548
118.231 5172 71.9166
118.349 5250 72.4569
118.466 5385 73.3826
118.584 5377 73.328
118.701 5402 73.4983
118.819 5299 72.7942
118.936 5159 71.8262
119.053 5116 71.5262
119.171 5168 71.8888
119.288 4979 70.562
119.405 4924 70.1712
119.523 4869 69.7782
119.64 4794 69.2387
119.757 4612 67.9117
119.875 4341 65.8863
119.992 3826 61.8547
120.109 3500 59.1608
120.226 3163 56.2406
120.343 2937 54.1941
120.46 2904 53.8888
120.578 2864 53.5164
120.695 3082 55.5158
120.812 3465 58.8643
120.929 3956 62.8967
121.046 4156 64.467
121.163 4326 65.7723
121.279 4480 66.9328
121.396 4434 66.5883
121.513 4227 65.0154
121.63 4243 65.1383
121.747 4116 64.1561
121.863 4011 63.3325
121.98 4061 63.726
122.097 4062 63.7338
122.213 3902 62.466
122.33 3825 61.8466
122.446 3678 60.6465
122.563 3559 59.6574
122.679 3376 58.1034
122.795 3196 56.5332
122.912 3008 54.8452
123.028 2739 52.3355
123.144 2617 51.1566
123.26 2413 49.1223
123.377 0 1
123.493 0 1
123.609 0 1
123.725 0 1
123.84 0 1
123.956 0 1
124.072 0 1
124.188 0 1
124.303 0 1
124.419 0 1
126.852 0 1
126.968 0 1
127.083 0 1
127.199 0 1
127.315 0 1
127.431 0 1
127.547 0 1
127.663 0 1
127.779 0 1
127.895 0 1
128.011 0 1
128.127 0 1
128.243 0 1
128.359 4693 68.5055
128.476 4780 69.1375
128.592 4935 70.2496
128.708 4875 69.8212
128.825 4982 70.5833
128.941 4669 68.3301
129.058 4516 67.2012
129.174 3966 62.9762
129.291 3709 60.9016
129.408 3536 59.4643
129.524 3493 59.1016
129.641 3439 58.643
129.758 3424 58.515
129.875 3777 61.4573
129.992 4198 64.792
130.108 4584 67.7052
130.225 4964 70.4557
130.342 5169 71.8958
130.459 5040 70.993
130.576 5061 71.1407
130.693 4950 70.3562
130.81 4907 70.05
130.928 5086 71.3162
131.045 5123 71.5751
131.162 5339 73.0685
131.279 5479 74.0203
131.396 5338 73.0616
131.513 5326 72.9794
131.631 5374 73.3076
131.748 5151 71.7705
131.865 4991 70.647
131.983 4991 70.647
132.1 5023 70.8731
132.217 5153 71.7844
132.335 5033 70.9436
132.452 4863 69.7352
132.57 4524 67.2607
132.687 4245 65.1537
132.804 4121 64.195
132.922 3703 60.8523
133.039 3631 60.2578
133.157 3633 60.2744
133.274 3623 60.1914
133.392 3545 59.5399
133.509 3961 62.9365
133.627 4243 65.1383
133.744 4622 67.9853
133.862 4848 69.6276
133.979 4998 70.6965
134.097 4984 70.5975
134.214 4966 70.4699
134.332 4704 68.5857
134.449 4864 69.7424
134.567 4963 70.4486
134.684 5077 71.2531
134.802 5256 72.4983
134.919 5294 72.7599
135.037 5284 72.6911
135.154 5256 72.4983
135.272 5056 71.1056
135.389 4933 70.2353
135.507 4775 69.1014
135.624 4917 70.1213
135.742 4889 69.9214
135.859 4891 69.9357
135.977 4881 69.8642
136.094 4673 68.3593
136.211 4491 67.0149
136.329 4215 64.923
136.446 4020 63.4035
136.564 3829 61.8789
136.681 3797 61.6198
136.798 3587 59.8916
136.915 3571 59.7578
137.033 3699 60.8194
137.15 3832 61.9032
137.267 4103 64.0547
137.384 4354 65.9848
137.502 4640 68.1175
137.619 4675 68.374
137.736 4727 68.7532
137.853 4559 67.5204
137.97 4633 68.0661
138.087 4615 67.9338
138.204 4728 68.7605
138.321 4717 68.6804
138.438 4697 68.5347
138.555 4810 69.3542
138.672 4595 67.7864
138.788 4503 67.1044
138.905 4289 65.4905
139.022 4147 64.3972
139.139 3970 63.0079
139.255 3733 61.0983
139.372 3597 59.975
139.488 3570 59.7495
139.605 3466 58.8727
139.721 3244 56.9561
139.838 2973 54.5252
139.954 2738 52.3259
140.071 2442 49.4166
140.187 2158 46.4543
140.303 1971 44.3959
140.419 1772 42.0951
140.535 1637 40.4599
140.652 1572 39.6485
140.768 0 1
140.884 0 1
141 0 1
141.115 0 1
141.231 0 1
141.347 0 1
141.463 0 1
141.578 0 1
141.694 0 1
144.104 0 1
144.219 0 1
144.335 0 1
144.45 0 1
144.566 0 1
144.682 0 1
144.798 0 1
144.914 0 1
145.03 0 1
145.146 3010 54.8635
145.262 3012 54.8817
145.378 2971 54.5069
145.494 2959 54.3967
145.61 2738 52.3259
145.726 2849 53.376
145.842 2881 53.6749
145.959 2948 54.2955
146.075 2952 54.3323
146.192 3075 55.4527
146.308 3282 57.2887
146.425 3262 57.1139
146.541 3357 57.9396
146.658 3248 56.9912
146.774 3380 58.1378
146.891 3232 56.8507
147.008 3500 59.1608
147.125 3605 60.0417
147.241 3673 60.6053
147.358 3617 60.1415
147.475 3721 61
147.592 3548 59.5651
147.709 3666 60.5475
147.826 3497 59.1354
147.943 3405 58.3524
148.06 3455 58.7792
148.177 3367 58.0259
148.294 3454 58.7707
148.411 3450 58.7367
148.528 3429 58.5577
148.645 3598 59.9833
148.762 3395 58.2666
148.88 3284 57.3062
148.997 3288 57.3411
149.114 3104 55.7136
149.231 3080 55.4977
149.349 3047 55.1996
149.466 2861 53.4883
149.583 2917 54.0093
149.701 2986 54.6443
149.818 3049 55.2178
149.935 3138 56.0179
150.053 3207 56.6304
150.17 3301 57.4543
150.287 3287 57.3324
150.405 3241 56.9298
150.522 3314 57.5674
150.64 3248 56.9912
150.757 3322 57.6368
150.875 3433 58.5918
150.992 3588 59.8999
151.11 3583 59.8582
151.227 3472 58.9237
151.344 3469 58.8982
151.462 3305 57.4891
151.579 3218 56.7274
151.697 3279 57.2626
151.814 3157 56.1872
151.932 3303 57.4717
152.049 3335 57.7495
152.167 3292 57.376
152.284 3324 57.6541
152.402 3343 57.8187
152.519 3201 56.5774
152.636 3107 55.7405
152.754 3074 55.4437
152.871 2948 54.2955
152.989 2875 53.619
153.106 2847 53.3573
153.223 2779 52.7162
153.341 2917 54.0093
153.458 2938 54.2033
153.575 2896 53.8145
153.693 2902 53.8702
153.81 3053 55.254
153.927 3060 55.3173
154.044 2934 54.1664
154.162 3040 55.1362
154.279 2976 54.5527
154.396 3160 56.2139
154.513 3160 56.2139
154.63 3323 57.6455
154.747 3191 56.4889
154.864 3315 57.576
154.981 3159 56.205
155.098 3056 55.2811
155.215 3086 55.5518
155.332 3068 55.3895
155.449 2843 53.3198
155.566 2874 53.6097
155.683 2967 54.4702
155.8 2862 53.4977
155.917 2770 52.6308
156.033 2773 52.6593
156.15 0 1
156.267 0 1
156.383 0 1
156.5 0 1
156.617 0 1
156.733 0 1
156.85 0 1
156.966 0 1
157.082 0 1
157.199 0 1
157.315 0 1
157.431 0 1
157.547 0 1
157.664 0 1
157.78 0 1
157.896 0 1
158.012 0 1
158.128 0 1
158.244 0 1
158.359 0 1
158.475 0 1
158.591 0 1
158.706 0 1
