
6.15755 0 1
6.2731 0 1
6.3887 0 1
6.50437 0 1
6.62009 0 1
6.73587 0 1
6.8517 0 1
6.96759 0 1
7.08353 0 1
7.19952 0 1
7.31557 0 1
7.43166 0 1
7.54781 0 1
7.664 0 1
7.78024 0 1
7.89653 0 1
8.01286 0 1
8.12924 0 1
8.24567 0 1
8.36213 0 1
8.47864 0 1
8.59519 0 1
8.71178 0 1
8.82841 0 1
8.94508 0 1
9.06179 0 1
9.17853 0 1
9.29531 0 1
9.41212 0 1
9.52897 0 1
9.64584 0 1
9.76276 0 1
9.8797 0 1
9.99667 0 1
10.1137 0 1
10.2307 0 1
10.3478 0 1
10.4648 0 1
10.5819 0 1
10.6991 0 1
10.8162 0 1
10.9334 0 1
11.0506 0 1
11.1678 0 1
11.285 0 1
11.4023 0 1
11.5196 0 1
11.6369 0 1
11.7542 0 1
11.8715 0 1
11.9888 0 1
12.1062 0 1
12.2235 0 1
12.3409 0 1
12.4582 0 1
12.5756 0 1
12.693 0 1
12.8104 0 1
12.9278 0 1
13.0452 0 1
13.1626 0 1
13.28 0 1
13.3974 0 1
13.5149 0 1
13.6323 0 1
13.7497 0 1
13.8671 0 1
13.9845 0 1
14.1019 0 1
14.2193 0 1
14.3367 0 1
14.4541 0 1
14.5714 0 1
14.6888 0 1
14.8062 0 1
14.9235 0 1
15.0408 1023 31.9844
15.1581 1057 32.5115
15.2755 1115 33.3916
15.3927 1040 32.249
15.51 1026 32.0312
15.6273 1046 32.3419
15.7445 1005 31.7017
15.8617 951 30.8383
15.9789 993 31.5119
16.0961 921 30.348
16.2132 923 30.3809
16.3304 999 31.607
16.4475 887 29.7825
16.5646 918 30.2985
16.6816 892 29.8664
16.7986 862 29.3598
16.9156 909 30.1496
17.0326 922 30.3645
17.1496 902 30.0333
17.2665 889 29.8161
17.3833 925 30.4138
17.5002 907 30.1164
17.617 879 29.6479
17.7338 945 30.7409
17.8505 947 30.7734
17.9672 837 28.931
18.0839 833 28.8617
18.2005 815 28.5482
18.3171 882 29.6985
18.4337 893 29.8831
18.5502 864 29.3939
18.6666 907 30.1164
18.7831 947 30.7734
18.8994 876 29.5973
19.0158 781 27.9464
19.1321 822 28.6705
19.2483 841 29
19.3645 794 28.178
19.4806 744 27.2764
19.5967 653 25.5539
19.7128 695 26.3629
19.8288 670 25.8844
19.9447 582 24.1247
20.0606 0 1
20.1764 0 1
20.2922 0 1
20.4079 0 1
20.5236 0 1
20.6392 0 1
20.7548 0 1
20.8702 0 1
23.3078 0 1
23.4233 0 1
23.539 0 1
23.6547 0 1
23.7704 0 1
23.8862 0 1
24.0021 0 1
24.118 0 1
24.234 0 1
24.35 0 1
24.4661 620 24.8998
24.5822 701 26.4764
24.6984 797 28.2312
24.8146 931 30.5123
24.9309 957 30.9354
25.0472 809 28.4429
25.1636 893 29.8831
25.28 895 29.9166
25.3965 906 30.0998
25.513 902 30.0333
25.6296 929 30.4795
25.7462 949 30.8058
25.8628 905 30.0832
25.9795 962 31.0161
26.0962 947 30.7734
26.213 880 29.6648
26.3298 876 29.5973
26.4466 868 29.4618
26.5635 816 28.5657
26.6804 755 27.4773
26.7973 719 26.8142
26.9143 710 26.6458
27.0313 731 27.037
27.1483 800 28.2843
27.2653 747 27.3313
27.3824 770 27.7489
27.4996 754 27.4591
27.6167 842 29.0172
27.7339 807 28.4077
27.8511 751 27.4044
27.9683 761 27.5862
28.0855 779 27.9106
28.2028 821 28.6531
28.3201 837 28.931
28.4374 805 28.3725
28.5547 807 28.4077
28.6721 835 28.8964
28.7894 852 29.189
28.9068 821 28.6531
29.0242 835 28.8964
29.1416 801 28.3019
29.259 759 27.55
29.3764 781 27.9464
29.4939 768 27.7128
29.6113 771 27.7669
29.7288 811 28.4781
29.8463 699 26.4386
29.9638 742 27.2397
30.0812 718 26.7955
30.1987 676 26
30.3162 650 25.4951
30.4337 737 27.1477
30.5512 676 26
30.6687 781 27.9464
30.7862 795 28.1957
30.9037 788 28.0713
31.0212 758 27.5318
31.1387 843 29.0345
31.2562 739 27.1846
31.3737 714 26.7208
31.4912 746 27.313
31.6087 717 26.7769
31.7262 755 27.4773
31.8436 778 27.8927
31.9611 775 27.8388
32.0785 806 28.3901
32.1959 716 26.7582
32.3134 724 26.9072
32.4308 698 26.4197
32.5482 689 26.2488
32.6655 698 26.4197
32.7829 688 26.2298
32.9002 689 26.2488
33.0176 649 25.4755
33.1349 689 26.2488
33.2522 686 26.1916
33.3694 717 26.7769
33.4867 708 26.6083
33.6039 711 26.6646
33.7211 655 25.593
33.8383 608 24.6577
33.9554 678 26.0384
34.0725 649 25.4755
34.1896 695 26.3629
34.3067 728 26.9815
34.4237 720 26.8328
34.5407 713 26.7021
34.6577 717 26.7769
34.7746 739 27.1846
34.8915 741 27.2213
35.0084 725 26.9258
35.1252 634 25.1794
35.242 643 25.3574
35.3587 668 25.8457
35.4755 688 26.2298
35.5921 698 26.4197
35.7088 684 26.1534
35.8254 680 26.0768
35.9419 701 26.4764
36.0584 717 26.7769
36.1749 663 25.7488
36.2913 683 26.1343
36.4077 642 25.3377
36.524 560 23.6643
36.6403 594 24.3721
36.7565 557 23.6008
36.8727 517 22.7376
36.9889 514 22.6716
37.1049 449 21.1896
37.221 0 1
37.3369 0 1
37.4529 0 1
37.5687 0 1
37.6845 0 1
37.8003 0 1
37.916 0 1
38.0316 0 1
38.1472 0 1
40.5851 0 1
40.7008 0 1
40.8164 0 1
40.9322 0 1
41.048 0 1
41.1639 0 1
41.2798 0 1
41.3958 0 1
41.5118 0 1
41.6279 0 1
41.744 324 18
41.8602 327 18.0831
41.9765 384 19.5959
42.0928 469 21.6564
42.2091 489 22.1133
42.3255 485 22.0227
42.4419 504 22.4499
42.5584 578 24.0416
42.675 536 23.1517
42.7915 519 22.7816
42.9081 529 23
43.0248 600 24.4949
43.1415 579 24.0624
43.2582 590 24.2899
43.375 491 22.1585
43.4918 554 23.5372
43.6087 503 22.4277
43.7256 499 22.3383
43.8425 513 22.6495
43.9595 513 22.6495
44.0765 501 22.383
44.1935 468 21.6333
44.3106 534 23.1084
44.4277 518 22.7596
44.5448 584 24.1661
44.6619 585 24.1868
44.7791 578 24.0416
44.8963 537 23.1733
45.0136 578 24.0416
45.1308 600 24.4949
45.2481 539 23.2164
45.3654 537 23.1733
45.4827 592 24.3311
45.6001 555 23.5584
45.7174 605 24.5967
45.8348 570 23.8747
45.9522 576 24
46.0697 575 23.9792
46.1871 504 22.4499
46.3046 573 23.9374
46.422 521 22.8254
46.5395 527 22.9565
46.657 581 24.1039
46.7745 551 23.4734
46.892 548 23.4094
47.0096 540 23.2379
47.1271 559 23.6432
47.2446 527 22.9565
47.3622 561 23.6854
47.4797 544 23.3238
47.5973 556 23.5797
47.7149 544 23.3238
47.8324 507 22.5167
47.95 526 22.9347
48.0675 529 23
48.1851 561 23.6854
48.3027 543 23.3024
48.4202 588 24.2487
48.5378 593 24.3516
48.6554 618 24.8596
48.7729 605 24.5967
48.8904 608 24.6577
49.008 641 25.318
49.1255 613 24.7588
49.243 615 24.7992
49.3605 617 24.8395
49.478 565 23.7697
49.5955 524 22.891
49.713 513 22.6495
49.8304 547 23.388
49.9479 516 22.7156
50.0653 518 22.7596
50.1827 593 24.3516
50.3001 611 24.7184
50.4175 620 24.8998
50.5348 545 23.3452
50.6521 546 23.3666
50.7694 537 23.1733
50.8867 574 23.9583
51.004 490 22.1359
51.1212 533 23.0868
51.2384 529 23
51.3556 537 23.1733
51.4727 552 23.4947
51.5899 622 24.9399
51.707 605 24.5967
51.824 643 25.3574
51.9411 642 25.3377
52.0581 700 26.4575
52.175 682 26.1151
52.2919 777 27.8747
52.4088 809 28.4429
52.5257 784 28
52.6425 745 27.2947
52.7593 788 28.0713
52.876 795 28.1957
52.9927 710 26.6458
53.1094 710 26.6458
53.226 688 26.2298
53.3426 761 27.5862
53.4591 901 30.0167
53.5756 1301 36.0694
53.692 1896 43.5431
53.8084 2786 52.7826
53.9248 3689 60.7371
54.0411 4526 67.2756
54.1573 5217 72.2288
54.2735 0 1
54.3896 0 1
54.5057 0 1
54.6217 0 1
54.7377 0 1
54.8537 0 1
54.9695 0 1
55.0853 0 1
55.2011 0 1
55.3168 0 1
55.4324 0 1
57.824 0 1
57.9396 0 1
58.0553 0 1
58.1711 0 1
58.2869 0 1
58.4028 0 1
58.5187 0 1
58.6347 0 1
58.7508 0 1
58.8669 0 1
58.983 3490 59.0762
59.0992 4246 65.1613
59.2155 4518 67.2161
59.3318 4818 69.4118
59.4482 4893 69.95
59.5646 5055 71.0985
59.681 5276 72.6361
59.7975 5042 71.007
59.9141 4679 68.4032
60.0306 4064 63.7495
60.1473 3129 55.9375
60.2639 2505 50.05
60.3807 2122 46.0652
60.4974 2089 45.7056
60.6142 2058 45.3652
60.731 1965 44.3283
60.8479 1848 42.9884
60.9648 1711 41.3642
61.0818 1577 39.7115
61.1987 1533 39.1535
61.3158 1417 37.6431
61.4328 1270 35.6371
61.5499 1167 34.1614
61.667 1094 33.0757
61.7841 1003 31.6702
61.9013 969 31.1288
62.0185 990 31.4643
62.1357 907 30.1164
62.253 895 29.9166
62.3702 845 29.0689
62.4875 883 29.7153
62.6049 830 28.8097
62.7222 806 28.3901
62.8396 837 28.931
62.9569 804 28.3549
63.0743 752 27.4226
63.1918 738 27.1662
63.3092 718 26.7955
63.4267 698 26.4197
63.5441 709 26.6271
63.6616 651 25.5147
63.7791 717 26.7769
63.8966 624 24.98
64.0142 634 25.1794
64.1317 647 25.4362
64.2492 640 25.2982
64.3668 664 25.7682
64.4843 618 24.8596
64.6019 623 24.96
64.7195 584 24.1661
64.837 653 25.5539
64.9546 652 25.5343
65.0722 622 24.9399
65.1898 603 24.5561
65.3074 629 25.0799
65.4249 634 25.1794
65.5425 588 24.2487
65.6601 604 24.5764
65.7777 639 25.2784
65.8952 566 23.7908
66.0128 625 25
66.1304 644 25.3772
66.2479 617 24.8395
66.3655 636 25.219
66.483 644 25.3772
66.6005 584 24.1661
66.718 605 24.5967
66.8355 589 24.2693
66.953 587 24.2281
67.0705 646 25.4165
67.1879 584 24.1661
67.3054 639 25.2784
67.4228 574 23.9583
67.5402 583 24.1454
67.6576 578 24.0416
67.7749 579 24.0624
67.8923 629 25.0799
68.0096 649 25.4755
68.1269 626 25.02
68.2442 570 23.8747
68.3614 643 25.3574
68.4787 624 24.98
68.5958 614 24.779
68.713 639 25.2784
68.8302 659 25.671
68.9473 639 25.2784
69.0643 586 24.2074
69.1814 600 24.4949
69.2984 584 24.1661
69.4154 573 23.9374
69.5323 587 24.2281
69.6492 592 24.3311
69.7661 671 25.9037
69.8829 581 24.1039
69.9997 646 25.4165
70.1165 589 24.2693
70.2332 604 24.5764
70.3499 533 23.0868
70.4665 535 23.1301
70.5831 530 23.0217
70.6996 515 22.6936
70.8161 447 21.1424
70.9326 425 20.6155
71.049 370 19.2354
71.1653 302 17.3781
71.2817 324 18
71.3979 288 16.9706
71.5141 295 17.1756
71.6303 213 14.5945
71.7464 186 13.6382
71.8624 0 1
71.9784 0 1
72.0944 0 1
72.2102 0 1
72.3261 0 1
72.4418 0 1
72.5575 0 1
72.6732 0 1
75.1054 0 1
75.2209 0 1
75.3365 0 1
75.4521 0 1
75.5678 0 1
75.6835 0 1
75.7993 0 1
75.9151 0 1
76.031 0 1
76.147 366 19.1311
76.263 399 19.975
76.3791 456 21.3542
76.4952 477 21.8403
76.6113 457 21.3776
76.7276 437 20.9045
76.8438 494 22.2261
76.9601 489 22.1133
77.0765 490 22.1359
77.1929 541 23.2594
77.3093 482 21.9545
77.4258 545 23.3452
77.5423 473 21.7486
77.6589 535 23.1301
77.7755 559 23.6432
77.8921 510 22.5832
78.0088 544 23.3238
78.1256 530 23.0217
78.2423 525 22.9129
78.3591 490 22.1359
78.4759 490 22.1359
78.5928 500 22.3607
78.7097 537 23.1733
78.8266 528 22.9783
78.9436 515 22.6936
79.0606 490 22.1359
79.1776 512 22.6274
79.2946 532 23.0651
79.4117 542 23.2809
79.5288 474 21.7715
79.6459 519 22.7816
79.7631 510 22.5832
79.8802 522 22.8473
79.9974 511 22.6053
80.1147 523 22.8692
80.2319 514 22.6716
80.3491 504 22.4499
80.4664 515 22.6936
80.5837 491 22.1585
80.701 526 22.9347
80.8183 522 22.8473
80.9357 487 22.0681
81.053 490 22.1359
81.1704 499 22.3383
81.2877 589 24.2693
81.4051 564 23.7487
81.5225 547 23.388
81.6399 524 22.891
81.7573 601 24.5153
81.8747 571 23.8956
81.9922 541 23.2594
82.1096 530 23.0217
82.227 496 22.2711
82.3444 480 21.9089
82.4619 514 22.6716
82.5793 478 21.8632
82.6967 529 23
82.8142 519 22.7816
82.9316 523 22.8692
83.049 528 22.9783
83.1664 526 22.9347
83.2838 524 22.891
83.4012 575 23.9792
83.5186 547 23.388
83.636 540 23.2379
83.7534 586 24.2074
83.8708 489 22.1133
83.9881 496 22.2711
84.1055 511 22.6053
84.2228 534 23.1084
84.3401 505 22.4722
84.4575 556 23.5797
84.5747 532 23.0651
84.692 542 23.2809
84.8093 549 23.4307
84.9265 547 23.388
85.0437 577 24.0208
85.1609 544 23.3238
85.2781 587 24.2281
85.3952 570 23.8747
85.5123 577 24.0208
85.6294 534 23.1084
85.7465 527 22.9565
85.8636 539 23.2164
85.9806 499 22.3383
86.0976 516 22.7156
86.2145 578 24.0416
86.3315 559 23.6432
86.4484 524 22.891
86.5652 583 24.1454
86.682 531 23.0434
86.7988 540 23.2379
86.9156 515 22.6936
87.0323 574 23.9583
87.149 562 23.7065
87.2657 581 24.1039
87.3823 533 23.0868
87.4988 507 22.5167
87.6154 515 22.6936
87.7318 485 22.0227
87.8483 460 21.4476
87.9647 432 20.7846
88.081 375 19.3649
88.1973 386 19.6469
88.3136 360 18.9737
88.4298 360 18.9737
88.546 369 19.2094
88.6621 378 19.4422
88.7781 310 17.6068
88.8942 0 1
89.0101 0 1
89.126 0 1
89.2419 0 1
89.3577 0 1
89.4734 0 1
89.5891 0 1
89.7047 0 1
89.8203 0 1
89.9358 0 1
92.3269 0 1
92.4424 0 1
92.558 0 1
92.6736 0 1
92.7893 0 1
92.905 0 1
93.0208 0 1
93.1366 0 1
93.2525 0 1
93.3685 0 1
93.4845 0 1
93.6005 413 20.3224
93.7167 433 20.8087
93.8328 456 21.3542
93.949 476 21.8174
94.0653 504 22.4499
94.1816 552 23.4947
94.2979 559 23.6432
94.4143 565 23.7697
94.5307 585 24.1868
94.6472 550 23.4521
94.7637 588 24.2487
94.8803 558 23.622
94.9969 584 24.1661
95.1135 521 22.8254
95.2302 523 22.8692
95.3469 533 23.0868
95.4637 515 22.6936
95.5805 575 23.9792
95.6973 567 23.8118
95.8142 514 22.6716
95.9311 532 23.0651
96.048 554 23.5372
96.1649 547 23.388
96.2819 614 24.779
96.3989 576 24
96.516 576 24
96.633 562 23.7065
96.7501 553 23.516
96.8673 521 22.8254
96.9844 562 23.7065
97.1016 500 22.3607
97.2188 529 23
97.336 490 22.1359
97.4532 567 23.8118
97.5704 539 23.2164
97.6877 563 23.7276
97.805 555 23.5584
97.9223 587 24.2281
98.0396 607 24.6374
98.1569 576 24
98.2743 607 24.6374
98.3916 553 23.516
98.509 577 24.0208
98.6264 574 23.9583
98.7438 543 23.3024
98.8612 474 21.7715
98.9786 538 23.1948
99.096 623 24.96
99.2134 612 24.7386
99.3308 615 24.7992
99.4482 575 23.9792
99.5656 588 24.2487
99.6831 617 24.8395
99.8005 606 24.6171
99.9179 616 24.8193
100.035 565 23.7697
100.153 587 24.2281
100.27 585 24.1868
100.388 545 23.3452
100.505 547 23.388
100.622 603 24.5561
100.74 618 24.8596
100.857 586 24.2074
100.975 593 24.3516
101.092 619 24.8797
101.209 625 25
101.327 636 25.219
101.444 734 27.0924
101.561 680 26.0768
101.679 651 25.5147
101.796 767 27.6948
101.913 698 26.4197
102.03 695 26.3629
102.148 665 25.7876
102.265 581 24.1039
102.382 589 24.2693
102.499 641 25.318
102.616 672 25.923
102.733 638 25.2587
102.851 699 26.4386
102.968 694 26.3439
103.085 720 26.8328
103.202 727 26.9629
103.319 713 26.7021
103.436 746 27.313
103.552 791 28.1247
103.669 651 25.5147
103.786 707 26.5895
103.903 729 27
104.02 721 26.8514
104.137 786 28.0357
104.253 786 28.0357
104.37 797 28.2312
104.487 869 29.4788
104.603 898 29.9666
104.72 980 31.305
104.836 946 30.7571
104.953 994 31.5278
105.069 944 30.7246
105.186 959 30.9677
105.302 963 31.0322
105.418 892 29.8664
105.535 844 29.0517
105.651 748 27.3496
105.767 741 27.2213
105.883 722 26.8701
105.999 666 25.807
106.115 0 1
106.231 0 1
106.347 0 1
106.463 0 1
106.579 0 1
106.694 0 1
106.81 0 1
106.926 0 1
107.041 0 1
107.157 0 1
109.576 0 1
109.692 0 1
109.807 0 1
109.923 0 1
110.039 0 1
110.155 0 1
110.27 0 1
110.386 0 1
110.502 0 1
110.618 492 22.1811
110.735 591 24.3105
110.851 630 25.0998
110.967 626 25.02
111.083 613 24.7588
111.199 734 27.0924
111.316 796 28.2135
111.432 799 28.2666
111.549 867 29.4449
111.665 932 30.5287
111.782 844 29.0517
111.898 990 31.4643
112.015 1043 32.2955
112.132 1062 32.5883
112.248 1084 32.9242
112.365 1013 31.8277
112.482 890 29.8329
112.599 821 28.6531
112.716 849 29.1376
112.832 948 30.7896
112.949 1152 33.9411
113.066 1344 36.6606
113.183 1520 38.9872
113.3 1521 39
113.417 1736 41.6653
113.534 1866 43.1972
113.652 1869 43.2319
113.769 1832 42.8019
113.886 1944 44.0908
114.003 2018 44.9222
114.12 2012 44.8553
114.238 2083 45.6399
114.355 2021 44.9555
114.472 1859 43.1161
114.589 1563 39.5348
114.707 1523 39.0256
114.824 1815 42.6028
114.942 1851 43.0232
115.059 1824 42.7083
115.176 1954 44.2041
115.294 1891 43.4856
115.411 1848 42.9884
115.529 1536 39.1918
115.646 1348 36.7151
115.764 1189 34.4819
115.881 1095 33.0908
115.999 858 29.2916
116.116 717 26.7769
116.234 604 24.5764
116.351 570 23.8747
116.469 562 23.7065
116.586 547 23.388
116.704 518 22.7596
116.821 522 22.8473
116.939 512 22.6274
117.056 538 23.1948
117.174 506 22.4944
117.291 553 23.516
117.409 510 22.5832
117.526 566 23.7908
117.644 525 22.9129
117.761 518 22.7596
117.879 484 22
117.996 486 22.0454
118.114 439 20.9523
118.231 452 21.2603
118.349 485 22.0227
118.466 514 22.6716
118.584 540 23.2379
118.701 524 22.891
118.819 547 23.388
118.936 523 22.8692
119.053 556 23.5797
119.171 514 22.6716
119.288 501 22.383
119.405 462 21.4942
119.523 490 22.1359
119.64 414 20.347
119.757 467 21.6102
119.875 440 20.9762
119.992 468 21.6333
120.109 473 21.7486
120.226 489 22.1133
120.343 508 22.5389
120.46 503 22.4277
120.578 465 21.5639
120.695 507 22.5167
120.812 473 21.7486
120.929 574 23.9583
121.046 517 22.7376
121.163 485 22.0227
121.279 487 22.0681
121.396 474 21.7715
121.513 464 21.5407
121.63 447 21.1424
121.747 397 19.9249
121.863 388 19.6977
121.98 436 20.8806
122.097 410 20.2485
122.213 414 20.347
122.33 406 20.1494
122.446 397 19.9249
122.563 400 20
122.679 386 19.6469
122.795 368 19.1833
122.912 343 18.5203
123.028 287 16.9411
123.144 262 16.1864
123.26 250 15.8114
123.377 0 1
123.493 0 1
123.609 0 1
123.725 0 1
123.84 0 1
123.956 0 1
124.072 0 1
124.188 0 1
124.303 0 1
124.419 0 1
126.852 0 1
126.968 0 1
127.083 0 1
127.199 0 1
127.315 0 1
127.431 0 1
127.547 0 1
127.663 0 1
127.779 0 1
127.895 0 1
128.011 0 1
128.127 0 1
128.243 0 1
128.359 516 22.7156
128.476 503 22.4277
128.592 483 21.9773
128.708 504 22.4499
128.825 490 22.1359
128.941 532 23.0651
129.058 573 23.9374
129.174 536 23.1517
129.291 554 23.5372
129.408 559 23.6432
129.524 597 24.4336
129.641 553 23.516
129.758 588 24.2487
129.875 578 24.0416
129.992 594 24.3721
130.108 606 24.6171
130.225 646 25.4165
130.342 641 25.318
130.459 561 23.6854
130.576 620 24.8998
130.693 564 23.7487
130.81 571 23.8956
130.928 626 25.02
131.045 651 25.5147
131.162 688 26.2298
131.279 753 27.4408
131.396 736 27.1293
131.513 801 28.3019
131.631 794 28.178
131.748 866 29.4279
131.865 900 30
131.983 908 30.133
132.1 940 30.6594
132.217 870 29.4958
132.335 944 30.7246
132.452 967 31.0966
132.57 1036 32.187
132.687 1041 32.2645
132.804 1238 35.1852
132.922 1274 35.6931
133.039 1312 36.2215
133.157 1321 36.3456
133.274 1288 35.8887
133.392 1295 35.9861
133.509 1342 36.6333
133.627 1323 36.3731
133.744 1374 37.0675
133.862 1332 36.4966
133.979 1295 35.9861
134.097 1278 35.7491
134.214 1216 34.8712
134.332 1039 32.2335
134.449 1076 32.8024
134.567 1168 34.176
134.684 1252 35.3836
134.802 1216 34.8712
134.919 1287 35.8748
135.037 1295 35.9861
135.154 1339 36.5923
135.272 1307 36.1525
135.389 1271 35.6511
135.507 1321 36.3456
135.624 1243 35.2562
135.742 1210 34.7851
135.859 1218 34.8999
135.977 1211 34.7994
136.094 1263 35.5387
136.211 1344 36.6606
136.329 1370 37.0135
136.446 1285 35.8469
136.564 1290 35.9166
136.681 1330 36.4692
136.798 1229 35.0571
136.915 1366 36.9594
137.033 1287 35.8748
137.15 1336 36.5513
137.267 1290 35.9166
137.384 1313 36.2353
137.502 1316 36.2767
137.619 1257 35.4542
137.736 1130 33.6155
137.853 1053 32.45
137.97 1082 32.8938
138.087 1044 32.311
138.204 1079 32.8481
138.321 1163 34.1028
138.438 1208 34.7563
138.555 1224 34.9857
138.672 1268 35.609
138.788 1304 36.1109
138.905 1224 34.9857
139.022 1228 35.0428
139.139 1208 34.7563
139.255 1118 33.4365
139.372 972 31.1769
139.488 982 31.3369
139.605 959 30.9677
139.721 854 29.2233
139.838 886 29.7658
139.954 886 29.7658
140.071 813 28.5132
140.187 786 28.0357
140.303 723 26.8887
140.419 691 26.2869
140.535 725 26.9258
140.652 640 25.2982
140.768 0 1
140.884 0 1
141 0 1
141.115 0 1
141.231 0 1
141.347 0 1
141.463 0 1
141.578 0 1
141.694 0 1
144.104 0 1
144.219 0 1
144.335 0 1
144.45 0 1
144.566 0 1
144.682 0 1
144.798 0 1
144.914 0 1
145.03 0 1
145.146 983 31.3528
145.262 1055 32.4808
145.378 1083 32.909
145.494 1098 33.1361
145.61 1043 32.2955
145.726 1155 33.9853
145.842 1176 34.2929
145.959 1147 33.8674
146.075 1097 33.121
146.192 1129 33.6006
146.308 1136 33.7046
146.425 1087 32.9697
146.541 1052 32.4345
146.658 1042 32.28
146.774 1035 32.1714
146.891 1035 32.1714
147.008 1093 33.0606
147.125 1155 33.9853
147.241 1252 35.3836
147.358 1174 34.2637
147.475 1199 34.6266
147.592 1161 34.0735
147.709 1156 34
147.826 1162 34.0881
147.943 1136 33.7046
148.06 1070 32.7109
148.177 1116 33.4066
148.294 1110 33.3167
148.411 1073 32.7567
148.528 1137 33.7194
148.645 1129 33.6006
148.762 1153 33.9559
148.88 1198 34.6121
148.997 1197 34.5977
149.114 1162 34.0881
149.231 1171 34.2199
149.349 1208 34.7563
149.466 1140 33.7639
149.583 1175 34.2783
149.701 1155 33.9853
149.818 1171 34.2199
149.935 1213 34.8281
150.053 1263 35.5387
150.17 1128 33.5857
150.287 1067 32.665
150.405 1007 31.7333
150.522 1021 31.9531
150.64 1126 33.5559
150.757 1125 33.541
150.875 1186 34.4384
150.992 1121 33.4813
151.11 1093 33.0606
151.227 1113 33.3617
151.344 1147 33.8674
151.462 1230 35.0714
151.579 1111 33.3317
151.697 1197 34.5977
151.814 1207 34.7419
151.932 1108 33.2866
152.049 1127 33.5708
152.167 1190 34.4964
152.284 1161 34.0735
152.402 1217 34.8855
152.519 1216 34.8712
152.636 1194 34.5543
152.754 1210 34.7851
152.871 1235 35.1426
152.989 1240 35.2136
153.106 1186 34.4384
153.223 1211 34.7994
153.341 1232 35.0999
153.458 1259 35.4824
153.575 1276 35.7211
153.693 1076 32.8024
153.81 1131 33.6303
153.927 1168 34.176
154.044 1090 33.0151
154.162 1215 34.8569
154.279 1406 37.4967
154.396 1431 37.8286
154.513 1379 37.1349
154.63 1432 37.8418
154.747 1549 39.3573
154.864 1630 40.3733
154.981 1685 41.0488
155.098 1859 43.1161
155.215 2012 44.8553
155.332 2200 46.9042
155.449 2431 49.3052
155.566 2537 50.3686
155.683 2664 51.614
155.8 2869 53.563
155.917 3033 55.0727
156.033 3243 56.9473
156.15 0 1
156.267 0 1
156.383 0 1
156.5 0 1
156.617 0 1
156.733 0 1
156.85 0 1
156.966 0 1
157.082 0 1
157.199 0 1
157.315 0 1
157.431 0 1
157.547 0 1
157.664 0 1
157.78 0 1
157.896 0 1
158.012 0 1
158.128 0 1
158.244 0 1
158.359 0 1
158.475 0 1
158.591 0 1
158.706 0 1
