
6.15755 0 1
6.2731 0 1
6.3887 0 1
6.50437 0 1
6.62009 0 1
6.73587 0 1
6.8517 0 1
6.96759 0 1
7.08353 0 1
7.19952 0 1
7.31557 0 1
7.43166 0 1
7.54781 0 1
7.664 0 1
7.78024 0 1
7.89653 0 1
8.01286 0 1
8.12924 0 1
8.24567 0 1
8.36213 0 1
8.47864 0 1
8.59519 0 1
8.71178 0 1
8.82841 0 1
8.94508 0 1
9.06179 0 1
9.17853 0 1
9.29531 0 1
9.41212 0 1
9.52897 0 1
9.64584 0 1
9.76276 0 1
9.8797 0 1
9.99667 0 1
10.1137 0 1
10.2307 0 1
10.3478 0 1
10.4648 0 1
10.5819 0 1
10.6991 0 1
10.8162 0 1
10.9334 0 1
11.0506 0 1
11.1678 0 1
11.285 0 1
11.4023 0 1
11.5196 0 1
11.6369 0 1
11.7542 0 1
11.8715 0 1
11.9888 0 1
12.1062 0 1
12.2235 0 1
12.3409 0 1
12.4582 0 1
12.5756 0 1
12.693 0 1
12.8104 0 1
12.9278 0 1
13.0452 0 1
13.1626 0 1
13.28 0 1
13.3974 0 1
13.5149 0 1
13.6323 0 1
13.7497 0 1
13.8671 0 1
13.9845 0 1
14.1019 0 1
14.2193 0 1
14.3367 0 1
14.4541 0 1
14.5714 0 1
14.6888 0 1
14.8062 0 1
14.9235 0 1
15.0408 0 0
15.1581 0 0
15.2755 0 0
15.3927 0 0
15.51 0 0
15.6273 0 0
15.7445 0 0
15.8617 0 0
15.9789 0 0
16.0961 0 0
16.2132 0 0
16.3304 0 0
16.4475 0 0
16.5646 0 0
16.6816 0 0
16.7986 0 0
16.9156 0 0
17.0326 0 0
17.1496 0 0
17.2665 0 0
17.3833 0 0
17.5002 0 0
17.617 0 0
17.7338 0 0
17.8505 0 0
17.9672 0 0
18.0839 0 0
18.2005 0 0
18.3171 0 0
18.4337 0 0
18.5502 0 0
18.6666 0 0
18.7831 0 0
18.8994 0 0
19.0158 0 0
19.1321 0 0
19.2483 0 0
19.3645 0 0
19.4806 0 0
19.5967 0 0
19.7128 0 0
19.8288 0 0
19.9447 0 0
20.0606 0 1
20.1764 0 1
20.2922 0 1
20.4079 0 1
20.5236 0 1
20.6392 0 1
20.7548 0 1
20.8702 0 1
23.3078 0 1
23.4233 0 1
23.539 0 1
23.6547 0 1
23.7704 0 1
23.8862 0 1
24.0021 0 1
24.118 0 1
24.234 0 1
24.35 0 1
24.4661 1162 34.0881
24.5822 1137 33.7194
24.6984 1198 34.6121
24.8146 1219 34.9142
24.9309 1139 33.7491
25.0472 1253 35.3977
25.1636 1213 34.8281
25.28 1242 35.242
25.3965 1278 35.7491
25.513 1302 36.0832
25.6296 1281 35.7911
25.7462 1287 35.8748
25.8628 1293 35.9583
25.9795 1305 36.1248
26.0962 1272 35.6651
26.213 1298 36.0278
26.3298 1284 35.8329
26.4466 1280 35.7771
26.5635 1311 36.2077
26.6804 1249 35.3412
26.7973 1215 34.8569
26.9143 1181 34.3657
27.0313 1098 33.1361
27.1483 1141 33.7787
27.2653 1103 33.2114
27.3824 1155 33.9853
27.4996 1170 34.2053
27.6167 1173 34.2491
27.7339 1187 34.4529
27.8511 1119 33.4515
27.9683 1124 33.5261
28.0855 1128 33.5857
28.2028 1078 32.8329
28.3201 1168 34.176
28.4374 1171 34.2199
28.5547 1206 34.7275
28.6721 1173 34.2491
28.7894 1204 34.6987
28.9068 1192 34.5254
29.0242 1210 34.7851
29.1416 1247 35.3129
29.259 1142 33.7935
29.3764 1187 34.4529
29.4939 1208 34.7563
29.6113 1263 35.5387
29.7288 1171 34.2199
29.8463 1231 35.0856
29.9638 1193 34.5398
30.0812 1193 34.5398
30.1987 1168 34.176
30.3162 1161 34.0735
30.4337 1148 33.8821
30.5512 1000 31.6228
30.6687 1000 31.6228
30.7862 1045 32.3265
30.9037 1146 33.8526
31.0212 1093 33.0606
31.1387 1135 33.6898
31.2562 1072 32.7414
31.3737 1067 32.665
31.4912 1071 32.7261
31.6087 1064 32.619
31.7262 1060 32.5576
31.8436 1086 32.9545
31.9611 1134 33.6749
32.0785 1100 33.1662
32.1959 1193 34.5398
32.3134 1200 34.641
32.4308 1196 34.5832
32.5482 1196 34.5832
32.6655 1180 34.3511
32.7829 1270 35.6371
32.9002 1189 34.4819
33.0176 1198 34.6121
33.1349 1184 34.4093
33.2522 1190 34.4964
33.3694 1188 34.4674
33.4867 1191 34.5109
33.6039 1085 32.9393
33.7211 1157 34.0147
33.8383 1146 33.8526
33.9554 1140 33.7639
34.0725 1051 32.4191
34.1896 1024 32
34.3067 1069 32.6956
34.4237 1037 32.2025
34.5407 976 31.241
34.6577 1083 32.909
34.7746 1037 32.2025
34.8915 1084 32.9242
35.0084 1035 32.1714
35.1252 1086 32.9545
35.242 1045 32.3265
35.3587 976 31.241
35.4755 1051 32.4191
35.5921 1082 32.8938
35.7088 1046 32.3419
35.8254 1221 34.9428
35.9419 1140 33.7639
36.0584 1162 34.0881
36.1749 1182 34.3802
36.2913 1148 33.8821
36.4077 1149 33.8969
36.524 1129 33.6006
36.6403 1090 33.0151
36.7565 1123 33.5112
36.8727 1120 33.4664
36.9889 1215 34.8569
37.1049 1133 33.6601
37.221 0 1
37.3369 0 1
37.4529 0 1
37.5687 0 1
37.6845 0 1
37.8003 0 1
37.916 0 1
38.0316 0 1
38.1472 0 1
40.5851 0 1
40.7008 0 1
40.8164 0 1
40.9322 0 1
41.048 0 1
41.1639 0 1
41.2798 0 1
41.3958 0 1
41.5118 0 1
41.6279 0 1
41.744 987 31.4166
41.8602 944 30.7246
41.9765 902 30.0333
42.0928 913 30.2159
42.2091 978 31.273
42.3255 955 30.9031
42.4419 1024 32
42.5584 957 30.9354
42.675 981 31.3209
42.7915 993 31.5119
42.9081 841 29
43.0248 846 29.0861
43.1415 816 28.5657
43.2582 814 28.5307
43.375 829 28.7924
43.4918 844 29.0517
43.6087 891 29.8496
43.7256 873 29.5466
43.8425 788 28.0713
43.9595 828 28.775
44.0765 795 28.1957
44.1935 814 28.5307
44.3106 843 29.0345
44.4277 853 29.2062
44.5448 807 28.4077
44.6619 847 29.1033
44.7791 842 29.0172
44.8963 898 29.9666
45.0136 882 29.6985
45.1308 811 28.4781
45.2481 834 28.8791
45.3654 849 29.1376
45.4827 821 28.6531
45.6001 756 27.4955
45.7174 845 29.0689
45.8348 790 28.1069
45.9522 813 28.5132
46.0697 804 28.3549
46.1871 767 27.6948
46.3046 797 28.2312
46.422 731 27.037
46.5395 710 26.6458
46.657 718 26.7955
46.7745 671 25.9037
46.892 676 26
47.0096 691 26.2869
47.1271 689 26.2488
47.2446 690 26.2679
47.3622 642 25.3377
47.4797 656 25.6125
47.5973 602 24.5357
47.7149 636 25.219
47.8324 605 24.5967
47.95 671 25.9037
48.0675 627 25.04
48.1851 663 25.7488
48.3027 700 26.4575
48.4202 664 25.7682
48.5378 655 25.593
48.6554 653 25.5539
48.7729 662 25.7294
48.8904 677 26.0192
49.008 676 26
49.1255 669 25.865
49.243 691 26.2869
49.3605 685 26.1725
49.478 694 26.3439
49.5955 627 25.04
49.713 635 25.1992
49.8304 720 26.8328
49.9479 654 25.5734
50.0653 677 26.0192
50.1827 648 25.4558
50.3001 585 24.1868
50.4175 556 23.5797
50.5348 615 24.7992
50.6521 610 24.6982
50.7694 711 26.6646
50.8867 691 26.2869
51.004 704 26.533
51.1212 736 27.1293
51.2384 777 27.8747
51.3556 749 27.3679
51.4727 802 28.3196
51.5899 791 28.1247
51.707 821 28.6531
51.824 763 27.6225
51.9411 803 28.3373
52.0581 872 29.5296
52.175 831 28.8271
52.2919 881 29.6816
52.4088 837 28.931
52.5257 862 29.3598
52.6425 863 29.3769
52.7593 937 30.6105
52.876 837 28.931
52.9927 883 29.7153
53.1094 892 29.8664
53.226 904 30.0666
53.3426 953 30.8707
53.4591 858 29.2916
53.5756 918 30.2985
53.692 892 29.8664
53.8084 894 29.8998
53.9248 789 28.0891
54.0411 780 27.9285
54.1573 812 28.4956
54.2735 0 1
54.3896 0 1
54.5057 0 1
54.6217 0 1
54.7377 0 1
54.8537 0 1
54.9695 0 1
55.0853 0 1
55.2011 0 1
55.3168 0 1
55.4324 0 1
57.824 0 1
57.9396 0 1
58.0553 0 1
58.1711 0 1
58.2869 0 1
58.4028 0 1
58.5187 0 1
58.6347 0 1
58.7508 0 1
58.8669 0 1
58.983 922 30.3645
59.0992 913 30.2159
59.2155 883 29.7153
59.3318 836 28.9137
59.4482 908 30.133
59.5646 888 29.7993
59.681 877 29.6142
59.7975 989 31.4484
59.9141 922 30.3645
60.0306 997 31.5753
60.1473 1006 31.7175
60.2639 1007 31.7333
60.3807 929 30.4795
60.4974 960 30.9839
60.6142 988 31.4325
60.731 961 31
60.8479 951 30.8383
60.9648 947 30.7734
61.0818 910 30.1662
61.1987 979 31.289
61.3158 988 31.4325
61.4328 895 29.9166
61.5499 980 31.305
61.667 916 30.2655
61.7841 928 30.4631
61.9013 910 30.1662
62.0185 995 31.5436
62.1357 939 30.6431
62.253 887 29.7825
62.3702 876 29.5973
62.4875 894 29.8998
62.6049 768 27.7128
62.7222 759 27.55
62.8396 847 29.1033
62.9569 835 28.8964
63.0743 823 28.688
63.1918 838 28.9482
63.3092 863 29.3769
63.4267 795 28.1957
63.5441 855 29.2404
63.6616 889 29.8161
63.7791 859 29.3087
63.8966 791 28.1247
64.0142 800 28.2843
64.1317 876 29.5973
64.2492 887 29.7825
64.3668 846 29.0861
64.4843 796 28.2135
64.6019 789 28.0891
64.7195 820 28.6356
64.837 814 28.5307
64.9546 837 28.931
65.0722 766 27.6767
65.1898 795 28.1957
65.3074 866 29.4279
65.4249 799 28.2666
65.5425 766 27.6767
65.6601 793 28.1603
65.7777 805 28.3725
65.8952 780 27.9285
66.0128 811 28.4781
66.1304 741 27.2213
66.2479 670 25.8844
66.3655 608 24.6577
66.483 655 25.593
66.6005 651 25.5147
66.718 674 25.9615
66.8355 752 27.4226
66.953 725 26.9258
67.0705 737 27.1477
67.1879 743 27.258
67.3054 737 27.1477
67.4228 737 27.1477
67.5402 746 27.313
67.6576 757 27.5136
67.7749 699 26.4386
67.8923 712 26.6833
68.0096 758 27.5318
68.1269 745 27.2947
68.2442 758 27.5318
68.3614 733 27.074
68.4787 720 26.8328
68.5958 731 27.037
68.713 758 27.5318
68.8302 700 26.4575
68.9473 776 27.8568
69.0643 661 25.7099
69.1814 705 26.5518
69.2984 716 26.7582
69.4154 752 27.4226
69.5323 700 26.4575
69.6492 673 25.9422
69.7661 688 26.2298
69.8829 674 25.9615
69.9997 603 24.5561
70.1165 649 25.4755
70.2332 608 24.6577
70.3499 596 24.4131
70.4665 650 25.4951
70.5831 631 25.1197
70.6996 679 26.0576
70.8161 657 25.632
70.9326 714 26.7208
71.049 673 25.9422
71.1653 648 25.4558
71.2817 665 25.7876
71.3979 639 25.2784
71.5141 656 25.6125
71.6303 605 24.5967
71.7464 599 24.4745
71.8624 0 1
71.9784 0 1
72.0944 0 1
72.2102 0 1
72.3261 0 1
72.4418 0 1
72.5575 0 1
72.6732 0 1
75.1054 0 1
75.2209 0 1
75.3365 0 1
75.4521 0 1
75.5678 0 1
75.6835 0 1
75.7993 0 1
75.9151 0 1
76.031 0 1
76.147 491 22.1585
76.263 539 23.2164
76.3791 571 23.8956
76.4952 500 22.3607
76.6113 551 23.4734
76.7276 539 23.2164
76.8438 559 23.6432
76.9601 486 22.0454
77.0765 527 22.9565
77.1929 486 22.0454
77.3093 491 22.1585
77.4258 509 22.561
77.5423 496 22.2711
77.6589 449 21.1896
77.7755 466 21.587
77.8921 471 21.7025
78.0088 456 21.3542
78.1256 465 21.5639
78.2423 441 21
78.3591 455 21.3307
78.4759 433 20.8087
78.5928 451 21.2368
78.7097 437 20.9045
78.8266 462 21.4942
78.9436 400 20
79.0606 389 19.7231
79.1776 322 17.9444
79.2946 322 17.9444
79.4117 371 19.2614
79.5288 388 19.6977
79.6459 377 19.4165
79.7631 362 19.0263
79.8802 395 19.8746
79.9974 368 19.1833
80.1147 352 18.7617
80.2319 351 18.735
80.3491 313 17.6918
80.4664 325 18.0278
80.5837 351 18.735
80.701 345 18.5742
80.8183 326 18.0555
80.9357 287 16.9411
81.053 299 17.2916
81.1704 297 17.2337
81.2877 327 18.0831
81.4051 233 15.2643
81.5225 283 16.8226
81.6399 225 15
81.7573 245 15.6525
81.8747 230 15.1658
81.9922 223 14.9332
82.1096 242 15.5563
82.227 257 16.0312
82.3444 199 14.1067
82.4619 201 14.1774
82.5793 212 14.5602
82.6967 209 14.4568
82.8142 188 13.7113
82.9316 170 13.0384
83.049 166 12.8841
83.1664 182 13.4907
83.2838 176 13.2665
83.4012 161 12.6886
83.5186 164 12.8062
83.636 160 12.6491
83.7534 157 12.53
83.8708 131 11.4455
83.9881 138 11.7473
84.1055 123 11.0905
84.2228 132 11.4891
84.3401 117 10.8167
84.4575 107 10.3441
84.5747 124 11.1355
84.692 117 10.8167
84.8093 104 10.198
84.9265 98 9.89949
85.0437 120 10.9545
85.1609 99 9.94987
85.2781 100 10
85.3952 105 10.247
85.5123 86 9.27362
85.6294 111 10.5357
85.7465 107 10.3441
85.8636 99 9.94987
85.9806 107 10.3441
86.0976 78 8.83176
86.2145 71 8.42615
86.3315 92 9.59166
86.4484 106 10.2956
86.5652 139 11.7898
86.682 125 11.1803
86.7988 126 11.225
86.9156 123 11.0905
87.0323 138 11.7473
87.149 106 10.2956
87.2657 145 12.0416
87.3823 129 11.3578
87.4988 152 12.3288
87.6154 147 12.1244
87.7318 193 13.8924
87.8483 147 12.1244
87.9647 155 12.4499
88.081 181 13.4536
88.1973 189 13.7477
88.3136 234 15.2971
88.4298 197 14.0357
88.546 219 14.7986
88.6621 219 14.7986
88.7781 220 14.8324
88.8942 0 1
89.0101 0 1
89.126 0 1
89.2419 0 1
89.3577 0 1
89.4734 0 1
89.5891 0 1
89.7047 0 1
89.8203 0 1
89.9358 0 1
92.3269 0 1
92.4424 0 1
92.558 0 1
92.6736 0 1
92.7893 0 1
92.905 0 1
93.0208 0 1
93.1366 0 1
93.2525 0 1
93.3685 0 1
93.4845 0 1
93.6005 383 19.5704
93.7167 388 19.6977
93.8328 374 19.3391
93.949 357 18.8944
94.0653 363 19.0526
94.1816 331 18.1934
94.2979 340 18.4391
94.4143 281 16.7631
94.5307 316 17.7764
94.6472 282 16.7929
94.7637 344 18.5472
94.8803 329 18.1384
94.9969 330 18.1659
95.1135 287 16.9411
95.2302 299 17.2916
95.3469 264 16.2481
95.4637 227 15.0665
95.5805 213 14.5945
95.6973 249 15.7797
95.8142 299 17.2916
95.9311 320 17.8885
96.048 332 18.2209
96.1649 323 17.9722
96.2819 360 18.9737
96.3989 359 18.9473
96.516 340 18.4391
96.633 355 18.8414
96.7501 352 18.7617
96.8673 386 19.6469
96.9844 383 19.5704
97.1016 446 21.1187
97.2188 412 20.2978
97.336 449 21.1896
97.4532 425 20.6155
97.5704 442 21.0238
97.6877 463 21.5174
97.805 456 21.3542
97.9223 456 21.3542
98.0396 480 21.9089
98.1569 459 21.4243
98.2743 502 22.4054
98.3916 479 21.8861
98.509 507 22.5167
98.6264 515 22.6936
98.7438 546 23.3666
98.8612 575 23.9792
98.9786 433 20.8087
99.096 363 19.0526
99.2134 364 19.0788
99.3308 489 22.1133
99.4482 539 23.2164
99.5656 605 24.5967
99.6831 593 24.3516
99.8005 614 24.779
99.9179 636 25.219
100.035 616 24.8193
100.153 647 25.4362
100.27 653 25.5539
100.388 667 25.8263
100.505 687 26.2107
100.622 737 27.1477
100.74 649 25.4755
100.857 680 26.0768
100.975 697 26.4008
101.092 673 25.9422
101.209 743 27.258
101.327 650 25.4951
101.444 680 26.0768
101.561 729 27
101.679 712 26.6833
101.796 689 26.2488
101.913 687 26.2107
102.03 669 25.865
102.148 764 27.6405
102.265 769 27.7308
102.382 656 25.6125
102.499 648 25.4558
102.616 537 23.1733
102.733 518 22.7596
102.851 590 24.2899
102.968 731 27.037
103.085 715 26.7395
103.202 787 28.0535
103.319 719 26.8142
103.436 741 27.2213
103.552 763 27.6225
103.669 726 26.9444
103.786 780 27.9285
103.903 771 27.7669
104.02 779 27.9106
104.137 708 26.6083
104.253 817 28.5832
104.37 741 27.2213
104.487 779 27.9106
104.603 801 28.3019
104.72 789 28.0891
104.836 812 28.4956
104.953 824 28.7054
105.069 787 28.0535
105.186 801 28.3019
105.302 791 28.1247
105.418 835 28.8964
105.535 708 26.6083
105.651 841 29
105.767 790 28.1069
105.883 695 26.3629
105.999 649 25.4755
106.115 0 1
106.231 0 1
106.347 0 1
106.463 0 1
106.579 0 1
106.694 0 1
106.81 0 1
106.926 0 1
107.041 0 1
107.157 0 1
109.576 0 1
109.692 0 1
109.807 0 1
109.923 0 1
110.039 0 1
110.155 0 1
110.27 0 1
110.386 0 1
110.502 0 1
110.618 569 23.8537
110.735 649 25.4755
110.851 706 26.5707
110.967 577 24.0208
111.083 549 23.4307
111.199 511 22.6053
111.316 478 21.8632
111.432 546 23.3666
111.549 627 25.04
111.665 571 23.8956
111.782 603 24.5561
111.898 557 23.6008
112.015 591 24.3105
112.132 612 24.7386
112.248 604 24.5764
112.365 560 23.6643
112.482 592 24.3311
112.599 512 22.6274
112.716 530 23.0217
112.832 479 21.8861
112.949 559 23.6432
113.066 507 22.5167
113.183 511 22.6053
113.3 489 22.1133
113.417 500 22.3607
113.534 455 21.3307
113.652 505 22.4722
113.769 503 22.4277
113.886 502 22.4054
114.003 488 22.0907
114.12 464 21.5407
114.238 434 20.8327
114.355 441 21
114.472 424 20.5913
114.589 465 21.5639
114.707 422 20.5426
114.824 379 19.4679
114.942 380 19.4936
115.059 450 21.2132
115.176 479 21.8861
115.294 501 22.383
115.411 472 21.7256
115.529 445 21.095
115.646 452 21.2603
115.764 453 21.2838
115.881 412 20.2978
115.999 426 20.6398
116.116 454 21.3073
116.234 448 21.166
116.351 468 21.6333
116.469 393 19.8242
116.586 448 21.166
116.704 442 21.0238
116.821 430 20.7364
116.939 450 21.2132
117.056 433 20.8087
117.174 430 20.7364
117.291 441 21
117.409 412 20.2978
117.526 427 20.664
117.644 422 20.5426
117.761 425 20.6155
117.879 389 19.7231
117.996 371 19.2614
118.114 368 19.1833
118.231 380 19.4936
118.349 381 19.5192
118.466 419 20.4695
118.584 473 21.7486
118.701 428 20.6882
118.819 441 21
118.936 445 21.095
119.053 478 21.8632
119.171 424 20.5913
119.288 471 21.7025
119.405 437 20.9045
119.523 488 22.0907
119.64 467 21.6102
119.757 405 20.1246
119.875 423 20.567
119.992 464 21.5407
120.109 430 20.7364
120.226 446 21.1187
120.343 484 22
120.46 443 21.0476
120.578 461 21.4709
120.695 456 21.3542
120.812 474 21.7715
120.929 472 21.7256
121.046 483 21.9773
121.163 489 22.1133
121.279 452 21.2603
121.396 435 20.8567
121.513 432 20.7846
121.63 377 19.4165
121.747 333 18.2483
121.863 333 18.2483
121.98 380 19.4936
122.097 447 21.1424
122.213 471 21.7025
122.33 450 21.2132
122.446 457 21.3776
122.563 476 21.8174
122.679 517 22.7376
122.795 511 22.6053
122.912 505 22.4722
123.028 509 22.561
123.144 473 21.7486
123.26 523 22.8692
123.377 0 1
123.493 0 1
123.609 0 1
123.725 0 1
123.84 0 1
123.956 0 1
124.072 0 1
124.188 0 1
124.303 0 1
124.419 0 1
126.852 0 1
126.968 0 1
127.083 0 1
127.199 0 1
127.315 0 1
127.431 0 1
127.547 0 1
127.663 0 1
127.779 0 1
127.895 0 1
128.011 0 1
128.127 0 1
128.243 0 1
128.359 626 25.02
128.476 635 25.1992
128.592 638 25.2587
128.708 660 25.6905
128.825 686 26.1916
128.941 641 25.318
129.058 657 25.632
129.174 672 25.923
129.291 646 25.4165
129.408 624 24.98
129.524 659 25.671
129.641 655 25.593
129.758 627 25.04
129.875 608 24.6577
129.992 723 26.8887
130.108 647 25.4362
130.225 628 25.0599
130.342 623 24.96
130.459 552 23.4947
130.576 485 22.0227
130.693 455 21.3307
130.81 451 21.2368
130.928 467 21.6102
131.045 544 23.3238
131.162 658 25.6515
131.279 624 24.98
131.396 675 25.9808
131.513 705 26.5518
131.631 697 26.4008
131.748 652 25.5343
131.865 677 26.0192
131.983 666 25.807
132.1 683 26.1343
132.217 654 25.5734
132.335 718 26.7955
132.452 729 27
132.57 687 26.2107
132.687 688 26.2298
132.804 675 25.9808
132.922 713 26.7021
133.039 653 25.5539
133.157 704 26.533
133.274 698 26.4197
133.392 733 27.074
133.509 684 26.1534
133.627 698 26.4197
133.744 689 26.2488
133.862 654 25.5734
133.979 620 24.8998
134.097 574 23.9583
134.214 548 23.4094
134.332 474 21.7715
134.449 537 23.1733
134.567 509 22.561
134.684 642 25.3377
134.802 685 26.1725
134.919 717 26.7769
135.037 765 27.6586
135.154 725 26.9258
135.272 766 27.6767
135.389 755 27.4773
135.507 732 27.0555
135.624 771 27.7669
135.742 760 27.5681
135.859 762 27.6043
135.977 794 28.178
136.094 785 28.0179
136.211 765 27.6586
136.329 762 27.6043
136.446 722 26.8701
136.564 829 28.7924
136.681 770 27.7489
136.798 715 26.7395
136.915 795 28.1957
137.033 756 27.4955
137.15 764 27.6405
137.267 738 27.1662
137.384 748 27.3496
137.502 732 27.0555
137.619 676 26
137.736 657 25.632
137.853 570 23.8747
137.97 587 24.2281
138.087 622 24.9399
138.204 600 24.4949
138.321 640 25.2982
138.438 815 28.5482
138.555 775 27.8388
138.672 809 28.4429
138.788 870 29.4958
138.905 843 29.0345
139.022 836 28.9137
139.139 848 29.1204
139.255 841 29
139.372 823 28.688
139.488 821 28.6531
139.605 827 28.7576
139.721 833 28.8617
139.838 860 29.3258
139.954 912 30.1993
140.071 807 28.4077
140.187 846 29.0861
140.303 846 29.0861
140.419 835 28.8964
140.535 806 28.3901
140.652 823 28.688
140.768 0 1
140.884 0 1
141 0 1
141.115 0 1
141.231 0 1
141.347 0 1
141.463 0 1
141.578 0 1
141.694 0 1
144.104 0 1
144.219 0 1
144.335 0 1
144.45 0 1
144.566 0 1
144.682 0 1
144.798 0 1
144.914 0 1
145.03 0 1
145.146 824 28.7054
145.262 807 28.4077
145.378 809 28.4429
145.494 838 28.9482
145.61 804 28.3549
145.726 803 28.3373
145.842 755 27.4773
145.959 788 28.0713
146.075 752 27.4226
146.192 685 26.1725
146.308 672 25.923
146.425 648 25.4558
146.541 623 24.96
146.658 618 24.8596
146.774 632 25.1396
146.891 735 27.1109
147.008 691 26.2869
147.125 726 26.9444
147.241 758 27.5318
147.358 791 28.1247
147.475 799 28.2666
147.592 823 28.688
147.709 809 28.4429
147.826 794 28.178
147.943 821 28.6531
148.06 844 29.0517
148.177 815 28.5482
148.294 767 27.6948
148.411 831 28.8271
148.528 786 28.0357
148.645 818 28.6007
148.762 820 28.6356
148.88 855 29.2404
148.997 813 28.5132
149.114 790 28.1069
149.231 825 28.7228
149.349 834 28.8791
149.466 791 28.1247
149.583 704 26.533
149.701 692 26.3059
149.818 691 26.2869
149.935 653 25.5539
150.053 668 25.8457
150.17 656 25.6125
150.287 724 26.9072
150.405 619 24.8797
150.522 710 26.6458
150.64 765 27.6586
150.757 702 26.4953
150.875 758 27.5318
150.992 783 27.9821
151.11 825 28.7228
151.227 815 28.5482
151.344 814 28.5307
151.462 858 29.2916
151.579 805 28.3725
151.697 788 28.0713
151.814 846 29.0861
151.932 868 29.4618
152.049 791 28.1247
152.167 785 28.0179
152.284 842 29.0172
152.402 803 28.3373
152.519 819 28.6182
152.636 817 28.5832
152.754 784 28
152.871 800 28.2843
152.989 810 28.4605
153.106 788 28.0713
153.223 790 28.1069
153.341 678 26.0384
153.458 696 26.3818
153.575 679 26.0576
153.693 698 26.4197
153.81 678 26.0384
153.927 676 26
154.044 732 27.0555
154.162 769 27.7308
154.279 788 28.0713
154.396 849 29.1376
154.513 840 28.9828
154.63 880 29.6648
154.747 810 28.4605
154.864 820 28.6356
154.981 891 29.8496
155.098 927 30.4467
155.215 867 29.4449
155.332 862 29.3598
155.449 862 29.3598
155.566 857 29.2746
155.683 862 29.3598
155.8 928 30.4631
155.917 836 28.9137
156.033 854 29.2233
156.15 0 1
156.267 0 1
156.383 0 1
156.5 0 1
156.617 0 1
156.733 0 1
156.85 0 1
156.966 0 1
157.082 0 1
157.199 0 1
157.315 0 1
157.431 0 1
157.547 0 1
157.664 0 1
157.78 0 1
157.896 0 1
158.012 0 1
158.128 0 1
158.244 0 1
158.359 0 1
158.475 0 1
158.591 0 1
158.706 0 1
