
6.15755 0 1
6.2731 0 1
6.3887 0 1
6.50437 0 1
6.62009 0 1
6.73587 0 1
6.8517 0 1
6.96759 0 1
7.08353 0 1
7.19952 0 1
7.31557 0 1
7.43166 0 1
7.54781 0 1
7.664 0 1
7.78024 0 1
7.89653 0 1
8.01286 0 1
8.12924 0 1
8.24567 0 1
8.36213 0 1
8.47864 0 1
8.59519 0 1
8.71178 0 1
8.82841 0 1
8.94508 0 1
9.06179 0 1
9.17853 0 1
9.29531 0 1
9.41212 0 1
9.52897 0 1
9.64584 0 1
9.76276 0 1
9.8797 0 1
9.99667 0 1
10.1137 0 1
10.2307 0 1
10.3478 0 1
10.4648 0 1
10.5819 0 1
10.6991 0 1
10.8162 0 1
10.9334 0 1
11.0506 0 1
11.1678 0 1
11.285 0 1
11.4023 0 1
11.5196 0 1
11.6369 0 1
11.7542 0 1
11.8715 0 1
11.9888 0 1
12.1062 0 1
12.2235 0 1
12.3409 0 1
12.4582 0 1
12.5756 0 1
12.693 0 1
12.8104 0 1
12.9278 0 1
13.0452 0 1
13.1626 0 1
13.28 0 1
13.3974 0 1
13.5149 0 1
13.6323 0 1
13.7497 0 1
13.8671 0 1
13.9845 0 1
14.1019 0 1
14.2193 0 1
14.3367 0 1
14.4541 0 1
14.5714 0 1
14.6888 0 1
14.8062 0 1
14.9235 0 1
15.0408 0 0
15.1581 0 0
15.2755 0 0
15.3927 0 0
15.51 0 0
15.6273 0 0
15.7445 0 0
15.8617 0 0
15.9789 0 0
16.0961 0 0
16.2132 0 0
16.3304 0 0
16.4475 0 0
16.5646 0 0
16.6816 0 0
16.7986 0 0
16.9156 0 0
17.0326 0 0
17.1496 0 0
17.2665 0 0
17.3833 0 0
17.5002 0 0
17.617 0 0
17.7338 0 0
17.8505 0 0
17.9672 0 0
18.0839 0 0
18.2005 0 0
18.3171 0 0
18.4337 0 0
18.5502 0 0
18.6666 0 0
18.7831 0 0
18.8994 0 0
19.0158 0 0
19.1321 0 0
19.2483 0 0
19.3645 0 0
19.4806 0 0
19.5967 0 0
19.7128 0 0
19.8288 0 0
19.9447 0 0
20.0606 0 1
20.1764 0 1
20.2922 0 1
20.4079 0 1
20.5236 0 1
20.6392 0 1
20.7548 0 1
20.8702 0 1
23.3078 0 1
23.4233 0 1
23.539 0 1
23.6547 0 1
23.7704 0 1
23.8862 0 1
24.0021 0 1
24.118 0 1
24.234 0 1
24.35 0 1
24.4661 13204 114.909
24.5822 13287 115.269
24.6984 13216 114.961
24.8146 13584 116.55
24.9309 13851 117.69
25.0472 13784 117.405
25.1636 14467 120.279
25.28 14893 122.037
25.3965 15224 123.386
25.513 15673 125.192
25.6296 16108 126.917
25.7462 16102 126.894
25.8628 16480 128.374
25.9795 16362 127.914
26.0962 16345 127.848
26.213 16397 128.051
26.3298 15769 125.575
26.4466 16031 126.614
26.5635 15725 125.399
26.6804 15633 125.032
26.7973 15000 122.474
26.9143 14481 120.337
27.0313 14132 118.878
27.1483 13794 117.448
27.2653 13976 118.22
27.3824 13767 117.333
27.4996 13480 116.103
27.6167 13070 114.324
27.7339 12799 113.133
27.8511 12091 109.959
27.9683 11669 108.023
28.0855 11372 106.64
28.2028 11263 106.127
28.3201 11095 105.333
28.4374 11380 106.677
28.5547 11434 106.93
28.6721 11524 107.35
28.7894 11656 107.963
28.9068 11857 108.89
29.0242 12060 109.818
29.1416 12093 109.968
29.259 12108 110.036
29.3764 11908 109.124
29.4939 12014 109.608
29.6113 12161 110.277
29.7288 11739 108.347
29.8463 12007 109.576
29.9638 12140 110.182
30.0812 11869 108.945
30.1987 11608 107.74
30.3162 11231 105.976
30.4337 11146 105.575
30.5512 10648 103.189
30.6687 10643 103.165
30.7862 10895 104.379
30.9037 10385 101.907
31.0212 10779 103.822
31.1387 10807 103.957
31.2562 10452 102.235
31.3737 10224 101.114
31.4912 9927 99.6343
31.6087 9763 98.8079
31.7262 9664 98.3056
31.8436 9608 98.0204
31.9611 9726 98.6205
32.0785 10002 100.01
32.1959 10151 100.752
32.3134 10603 102.971
32.4308 10693 103.407
32.5482 10885 104.331
32.6655 11155 105.617
32.7829 11055 105.143
32.9002 10984 104.805
33.0176 11121 105.456
33.1349 11310 106.348
33.2522 11215 105.901
33.3694 11390 106.724
33.4867 11187 105.769
33.6039 11131 105.504
33.7211 11122 105.461
33.8383 11095 105.333
33.9554 10927 104.532
34.0725 10853 104.178
34.1896 10361 101.789
34.3067 10281 101.395
34.4237 10108 100.539
34.5407 10436 102.157
34.6577 10572 102.82
34.7746 10097 100.484
34.8915 10246 101.223
35.0084 9929 99.6444
35.1252 9576 97.857
35.242 9283 96.3483
35.3587 9350 96.6954
35.4755 9392 96.9123
35.5921 9328 96.5816
35.7088 9716 98.5698
35.8254 9650 98.2344
35.9419 10144 100.717
36.0584 10373 101.848
36.1749 10507 102.504
36.2913 10684 103.363
36.4077 10605 102.981
36.524 10652 103.209
36.6403 10746 103.663
36.7565 10637 103.136
36.8727 10743 103.648
36.9889 10780 103.827
37.1049 10587 102.893
37.221 0 1
37.3369 0 1
37.4529 0 1
37.5687 0 1
37.6845 0 1
37.8003 0 1
37.916 0 1
38.0316 0 1
38.1472 0 1
40.5851 0 1
40.7008 0 1
40.8164 0 1
40.9322 0 1
41.048 0 1
41.1639 0 1
41.2798 0 1
41.3958 0 1
41.5118 0 1
41.6279 0 1
41.744 8836 94
41.8602 8906 94.3716
41.9765 9215 95.9948
42.0928 8990 94.8156
42.2091 9003 94.8841
42.3255 8960 94.6573
42.4419 9120 95.4987
42.5584 8959 94.652
42.675 9025 95
42.7915 8906 94.3716
42.9081 8468 92.0217
43.0248 8432 91.8259
43.1415 7943 89.1235
43.2582 8198 90.5428
43.375 8422 91.7715
43.4918 8301 91.1098
43.6087 8345 91.351
43.7256 7952 89.174
43.8425 7849 88.5946
43.9595 7498 86.591
44.0765 7417 86.122
44.1935 7371 85.8545
44.3106 7266 85.2408
44.4277 7286 85.3581
44.5448 7635 87.3785
44.6619 7467 86.4118
44.7791 7784 88.227
44.8963 7837 88.5268
45.0136 7955 89.1908
45.1308 7788 88.2496
45.2481 7886 88.8032
45.3654 7844 88.5664
45.4827 7668 87.5671
45.6001 7711 87.8123
45.7174 7635 87.3785
45.8348 7506 86.6372
45.9522 7392 85.9767
46.0697 7426 86.1742
46.1871 7345 85.703
46.3046 7197 84.8351
46.422 6939 83.3007
46.5395 6628 81.4125
46.657 6508 80.6722
46.7745 6281 79.2528
46.892 6222 78.8797
47.0096 6415 80.0937
47.1271 6338 79.6116
47.2446 6339 79.6178
47.3622 6055 77.8139
47.4797 5779 76.0197
47.5973 5687 75.4122
47.7149 5567 74.6123
47.8324 5599 74.8265
47.95 5556 74.5386
48.0675 5700 75.4983
48.1851 5651 75.1731
48.3027 5836 76.3937
48.4202 5856 76.5245
48.5378 6100 78.1025
48.6554 6081 77.9808
48.7729 5951 77.1427
48.8904 5982 77.3434
49.008 5999 77.4532
49.1255 5972 77.2787
49.243 6166 78.5239
49.3605 6216 78.8416
49.478 6167 78.5302
49.5955 6341 79.6304
49.713 6258 79.1075
49.8304 6552 80.9444
49.9479 6248 79.0443
50.0653 6201 78.7464
50.1827 6188 78.6638
50.3001 6079 77.9679
50.4175 6262 79.1328
50.5348 6214 78.8289
50.6521 6572 81.0679
50.7694 6781 82.3468
50.8867 6752 82.1706
51.004 6671 81.6762
51.1212 6703 81.8719
51.2384 6809 82.5167
51.3556 6915 83.1565
51.4727 7214 84.9353
51.5899 7539 86.8274
51.707 8109 90.05
51.824 7993 89.4036
51.9411 8563 92.5365
52.0581 8530 92.358
52.175 8618 92.8332
52.2919 8668 93.1021
52.4088 8641 92.957
52.5257 8821 93.9202
52.6425 9041 95.0842
52.7593 8949 94.5992
52.876 9175 95.7862
52.9927 9151 95.6609
53.1094 9383 96.8659
53.226 9518 97.5602
53.3426 9465 97.2882
53.4591 9595 97.9541
53.5756 9340 96.6437
53.692 9457 97.2471
53.8084 8685 93.1933
53.9248 8616 92.8224
54.0411 8661 93.0645
54.1573 8684 93.188
54.2735 0 1
54.3896 0 1
54.5057 0 1
54.6217 0 1
54.7377 0 1
54.8537 0 1
54.9695 0 1
55.0853 0 1
55.2011 0 1
55.3168 0 1
55.4324 0 1
57.824 0 1
57.9396 0 1
58.0553 0 1
58.1711 0 1
58.2869 0 1
58.4028 0 1
58.5187 0 1
58.6347 0 1
58.7508 0 1
58.8669 0 1
58.983 10264 101.311
59.0992 10106 100.529
59.2155 10014 100.07
59.3318 10327 101.622
59.4482 10545 102.689
59.5646 10192 100.955
59.681 10416 102.059
59.7975 10090 100.449
59.9141 10181 100.901
60.0306 10605 102.981
60.1473 10516 102.548
60.2639 10809 103.966
60.3807 11061 105.171
60.4974 11190 105.783
60.6142 11238 106.009
60.731 10976 104.766
60.8479 11145 105.57
60.9648 11046 105.1
61.0818 11126 105.48
61.1987 10795 103.899
61.3158 10996 104.862
61.4328 10793 103.889
61.5499 10737 103.619
61.667 10966 104.719
61.7841 10859 104.207
61.9013 10592 102.917
62.0185 10736 103.615
62.1357 10432 102.137
62.253 10194 100.965
62.3702 9832 99.1564
62.4875 9615 98.0561
62.6049 9538 97.6627
62.7222 9757 98.7775
62.8396 9754 98.7623
62.9569 9750 98.7421
63.0743 9781 98.8989
63.1918 9582 97.8877
63.3092 9443 97.1751
63.4267 9665 98.3107
63.5441 9854 99.2673
63.6616 9898 99.4887
63.7791 10034 100.17
63.8966 10442 102.186
64.0142 10287 101.425
64.1317 10338 101.676
64.2492 10113 100.563
64.3668 10225 101.119
64.4843 10156 100.777
64.6019 10150 100.747
64.7195 10157 100.782
64.837 10058 100.29
64.9546 10110 100.548
65.0722 10041 100.205
65.1898 9888 99.4384
65.3074 10276 101.371
65.4249 9917 99.5841
65.5425 9979 99.8949
65.6601 9947 99.7346
65.7777 9725 98.6154
65.8952 9399 96.9484
66.0128 9283 96.3483
66.1304 8754 93.5628
66.2479 8724 93.4024
66.3655 8695 93.247
66.483 9013 94.9368
66.6005 9201 95.9218
66.718 9005 94.8947
66.8355 8883 94.2497
66.953 9036 95.0579
67.0705 9332 96.6023
67.1879 9343 96.6592
67.3054 9580 97.8775
67.4228 9881 99.4032
67.5402 9848 99.2371
67.6576 10077 100.384
67.7749 9777 98.8787
67.8923 9718 98.5799
68.0096 9942 99.7096
68.1269 9825 99.1211
68.2442 10007 100.035
68.3614 9870 99.3479
68.4787 10054 100.27
68.5958 10000 100
68.713 9972 99.8599
68.8302 10036 100.18
68.9473 9910 99.549
69.0643 10010 100.05
69.1814 9993 99.965
69.2984 10011 100.055
69.4154 10066 100.329
69.5323 9854 99.2673
69.6492 9568 97.8162
69.7661 9326 96.5712
69.8829 8710 93.3274
69.9997 8994 94.8367
70.1165 9450 97.2111
70.2332 9465 97.2882
70.3499 9429 97.103
70.4665 9348 96.6851
70.5831 9144 95.6243
70.6996 9719 98.585
70.8161 9785 98.9192
70.9326 10069 100.344
71.049 10130 100.648
71.1653 10280 101.39
71.2817 9934 99.6695
71.3979 9917 99.5841
71.5141 9537 97.6576
71.6303 9526 97.6012
71.7464 8726 93.4131
71.8624 0 1
71.9784 0 1
72.0944 0 1
72.2102 0 1
72.3261 0 1
72.4418 0 1
72.5575 0 1
72.6732 0 1
75.1054 0 1
75.2209 0 1
75.3365 0 1
75.4521 0 1
75.5678 0 1
75.6835 0 1
75.7993 0 1
75.9151 0 1
76.031 0 1
76.147 8883 94.2497
76.263 9534 97.6422
76.3791 9786 98.9242
76.4952 9715 98.5647
76.6113 9834 99.1665
76.7276 9888 99.4384
76.8438 9867 99.3328
76.9601 9628 98.1224
77.0765 9823 99.111
77.1929 9825 99.1211
77.3093 9900 99.4987
77.4258 9603 97.9949
77.5423 9717 98.5748
77.6589 9835 99.1716
77.7755 9671 98.3412
77.8921 9670 98.3362
78.0088 9597 97.9643
78.1256 9581 97.8826
78.2423 9493 97.432
78.3591 9394 96.9226
78.4759 9456 97.242
78.5928 9400 96.9536
78.7097 9074 95.2575
78.8266 8485 92.1141
78.9436 7355 85.7613
79.0606 7335 85.6446
79.1776 7639 87.4014
79.2946 8266 90.9175
79.4117 8747 93.5254
79.5288 8943 94.5674
79.6459 9131 95.5563
79.7631 9262 96.2393
79.8802 9299 96.4313
79.9974 9180 95.8123
80.1147 8963 94.6731
80.2319 9240 96.1249
80.3491 9117 95.483
80.4664 9281 96.3379
80.5837 9098 95.3834
80.701 9126 95.5301
80.8183 9018 94.9632
80.9357 8934 94.5198
81.053 8942 94.5621
81.1704 8817 93.8989
81.2877 8961 94.6626
81.4051 8877 94.2178
81.5225 8913 94.4087
81.6399 8612 92.8009
81.7573 8865 94.1541
81.8747 8500 92.1954
81.9922 8737 93.4719
82.1096 8611 92.7955
82.227 8527 92.3418
82.3444 8296 91.0824
82.4619 7896 88.8594
82.5793 7004 83.6899
82.6967 6771 82.2861
82.8142 6623 81.3818
82.9316 7214 84.9353
83.049 7687 87.6755
83.1664 7997 89.4259
83.2838 8230 90.7193
83.4012 8336 91.3017
83.5186 7969 89.2693
83.636 7916 88.9719
83.7534 8114 90.0777
83.8708 8086 89.9222
83.9881 7979 89.3252
84.1055 8063 89.7942
84.2228 8163 90.3493
84.3401 8040 89.666
84.4575 8028 89.5991
84.5747 7789 88.2553
84.692 7873 88.7299
84.8093 7892 88.8369
84.9265 7965 89.2468
85.0437 7751 88.0398
85.1609 7972 89.2861
85.2781 8032 89.6214
85.3952 8025 89.5824
85.5123 7950 89.1628
85.6294 7894 88.8482
85.7465 7967 89.2581
85.8636 7844 88.5664
85.9806 7842 88.5551
86.0976 7279 85.3171
86.2145 6683 81.7496
86.3315 5792 76.1052
86.4484 6722 81.9878
86.5652 7288 85.3698
86.682 7643 87.4243
86.7988 8032 89.6214
86.9156 8155 90.305
87.0323 8046 89.6995
87.149 8299 91.0988
87.2657 8245 90.802
87.3823 8102 90.0111
87.4988 8103 90.0167
87.6154 7917 88.9775
87.7318 8078 89.8777
87.8483 8177 90.4268
87.9647 7875 88.7412
88.081 8038 89.6549
88.1973 8001 89.4483
88.3136 8130 90.1665
88.4298 7963 89.2356
88.546 7777 88.1873
88.6621 7971 89.2805
88.7781 7738 87.9659
88.8942 0 1
89.0101 0 1
89.126 0 1
89.2419 0 1
89.3577 0 1
89.4734 0 1
89.5891 0 1
89.7047 0 1
89.8203 0 1
89.9358 0 1
92.3269 0 1
92.4424 0 1
92.558 0 1
92.6736 0 1
92.7893 0 1
92.905 0 1
93.0208 0 1
93.1366 0 1
93.2525 0 1
93.3685 0 1
93.4845 0 1
93.6005 6101 78.1089
93.7167 6159 78.4793
93.8328 6235 78.962
93.949 6102 78.1153
94.0653 6050 77.7817
94.1816 5997 77.4403
94.2979 5779 76.0197
94.4143 5855 76.518
94.5307 5776 76
94.6472 5733 75.7166
94.7637 5499 74.1552
94.8803 5652 75.1798
94.9969 5485 74.0608
95.1135 5362 73.2257
95.2302 5210 72.1803
95.3469 4721 68.7095
95.4637 3902 62.466
95.5805 3718 60.9754
95.6973 4494 67.0373
95.8142 5042 71.007
95.9311 5168 71.8888
96.048 5025 70.8872
96.1649 5013 70.8025
96.2819 4953 70.3776
96.3989 4934 70.2424
96.516 4793 69.2315
96.633 4706 68.6003
96.7501 4450 66.7083
96.8673 4432 66.5733
96.9844 4324 65.7571
97.1016 4239 65.1076
97.2188 4133 64.2884
97.336 4205 64.846
97.4532 4059 63.7103
97.5704 3824 61.8385
97.6877 3841 61.9758
97.805 3732 61.0901
97.9223 3551 59.5903
98.0396 3439 58.643
98.1569 3445 58.6941
98.2743 3307 57.5065
98.3916 3101 55.6866
98.509 3154 56.1605
98.6264 3026 55.0091
98.7438 2940 54.2218
98.8612 2799 52.9056
98.9786 2533 50.3289
99.096 2019 44.9333
99.2134 1834 42.8252
99.3308 2232 47.244
99.4482 2465 49.6488
99.5656 2497 49.97
99.6831 2469 49.689
99.8005 2292 47.8748
99.9179 2279 47.7389
100.035 2241 47.3392
100.153 2167 46.551
100.27 2194 46.8402
100.388 2150 46.3681
100.505 2179 46.6798
100.622 2143 46.2925
100.74 2172 46.6047
100.857 2233 47.2546
100.975 2338 48.3529
101.092 2301 47.9687
101.209 2427 49.2646
101.327 2532 50.319
101.444 2583 50.8232
101.561 2731 52.259
101.679 2771 52.6403
101.796 2815 53.0566
101.913 2914 53.9815
102.03 3102 55.6956
102.148 3205 56.6127
102.265 3469 58.8982
102.382 3308 57.5152
102.499 3231 56.8419
102.616 2676 51.7301
102.733 2480 49.7996
102.851 3345 57.836
102.968 3979 63.0793
103.085 4147 64.3972
103.202 4338 65.8635
103.319 4360 66.0303
103.436 4385 66.2193
103.552 4385 66.2193
103.669 4518 67.2161
103.786 4606 67.8675
103.903 4664 68.2935
104.02 4671 68.3447
104.137 4836 69.5414
104.253 5139 71.6868
104.37 4970 70.4982
104.487 5191 72.0486
104.603 5493 74.1148
104.72 5427 73.6682
104.836 5470 73.9594
104.953 5567 74.6123
105.069 5529 74.3572
105.186 5645 75.1332
105.302 5770 75.9605
105.418 5905 76.844
105.535 5746 75.8024
105.651 6043 77.7367
105.767 6029 77.6466
105.883 5652 75.1798
105.999 4550 67.4537
106.115 0 1
106.231 0 1
106.347 0 1
106.463 0 1
106.579 0 1
106.694 0 1
106.81 0 1
106.926 0 1
107.041 0 1
107.157 0 1
109.576 0 1
109.692 0 1
109.807 0 1
109.923 0 1
110.039 0 1
110.155 0 1
110.27 0 1
110.386 0 1
110.502 0 1
110.618 5706 75.5381
110.735 6022 77.6015
110.851 5734 75.7232
110.967 5245 72.4224
111.083 4582 67.6905
111.199 4252 65.2074
111.316 4869 69.7782
111.432 5763 75.9144
111.549 6234 78.9557
111.665 6197 78.721
111.782 6108 78.1537
111.898 6088 78.0256
112.015 5934 77.0325
112.132 6019 77.5822
112.248 5831 76.361
112.365 5868 76.6029
112.482 5780 76.0263
112.599 5559 74.5587
112.716 5602 74.8465
112.832 5594 74.793
112.949 5430 73.6885
113.066 5313 72.8903
113.183 5361 73.2189
113.3 5286 72.7049
113.417 5421 73.6274
113.534 5258 72.5121
113.652 5198 72.0972
113.769 5194 72.0694
113.886 5048 71.0493
114.003 5031 70.9295
114.12 4855 69.6778
114.238 4875 69.8212
114.355 4624 68
114.472 4354 65.9848
114.589 3761 61.327
114.707 3228 56.8155
114.824 3229 56.8243
114.942 3836 61.9355
115.059 4215 64.923
115.176 4439 66.6258
115.294 4452 66.7233
115.411 4367 66.0833
115.529 4334 65.8331
115.646 4177 64.6297
115.764 4294 65.5286
115.881 4122 64.2028
115.999 3962 62.9444
116.116 3862 62.145
116.234 3971 63.0159
116.351 3798 61.6279
116.469 3792 61.5792
116.586 3793 61.5873
116.704 3779 61.4736
116.821 3850 62.0484
116.939 3660 60.4979
117.056 3695 60.7865
117.174 3565 59.7076
117.291 3477 58.9661
117.409 3466 58.8727
117.526 3498 59.1439
117.644 3401 58.3181
117.761 3426 58.532
117.879 3416 58.4466
117.996 3223 56.7715
118.114 3236 56.8859
118.231 3113 55.7943
118.349 2662 51.5946
118.466 2670 51.672
118.584 2777 52.6972
118.701 3118 55.8391
118.819 3052 55.2449
118.936 3066 55.3715
119.053 3172 56.3205
119.171 3004 54.8088
119.288 3079 55.4887
119.405 3115 55.8122
119.523 3006 54.827
119.64 2945 54.2679
119.757 2996 54.7357
119.875 2856 53.4416
119.992 2893 53.7866
120.109 2820 53.1037
120.226 2869 53.563
120.343 2920 54.037
120.46 2869 53.563
120.578 2884 53.7029
120.695 2927 54.1018
120.812 2780 52.7257
120.929 2801 52.9245
121.046 2821 53.1131
121.163 2863 53.507
121.279 2797 52.8867
121.396 2616 51.1468
121.513 2421 49.2037
121.63 2184 46.7333
121.747 2166 46.5403
121.863 2575 50.7445
121.98 2814 53.0471
122.097 2739 52.3355
122.213 2672 51.6914
122.33 2625 51.2348
122.446 2777 52.6972
122.563 2965 54.4518
122.679 2977 54.5619
122.795 2906 53.9073
122.912 2960 54.4059
123.028 2961 54.4151
123.144 2979 54.5802
123.26 2859 53.4696
123.377 0 1
123.493 0 1
123.609 0 1
123.725 0 1
123.84 0 1
123.956 0 1
124.072 0 1
124.188 0 1
124.303 0 1
124.419 0 1
126.852 0 1
126.968 0 1
127.083 0 1
127.199 0 1
127.315 0 1
127.431 0 1
127.547 0 1
127.663 0 1
127.779 0 1
127.895 0 1
128.011 0 1
128.127 0 1
128.243 0 1
128.359 4174 64.6065
128.476 4311 65.6582
128.592 4374 66.1362
128.708 4286 65.4675
128.825 4329 65.7951
128.941 4396 66.3023
129.058 4342 65.8939
129.174 4465 66.8207
129.291 4473 66.8805
129.408 4582 67.6905
129.524 4447 66.6858
129.641 4609 67.8896
129.758 4635 68.0808
129.875 4772 69.0797
129.992 4534 67.335
130.108 4508 67.1416
130.225 4186 64.6993
130.342 3669 60.5723
130.459 3042 55.1543
130.576 2634 51.3225
130.693 2643 51.4101
130.81 3385 58.1808
130.928 4326 65.7723
131.045 4859 69.7065
131.162 5141 71.7008
131.279 4964 70.4557
131.396 5174 71.9305
131.513 5161 71.8401
131.631 5301 72.808
131.748 5388 73.403
131.865 5336 73.0479
131.983 5288 72.7186
132.1 5437 73.736
132.217 5399 73.4779
132.335 5286 72.7049
132.452 5131 71.631
132.57 5330 73.0068
132.687 5302 72.8148
132.804 5766 75.9342
132.922 5418 73.6071
133.039 5469 73.9527
133.157 5590 74.7663
133.274 5520 74.2967
133.392 5574 74.6592
133.509 5584 74.7262
133.627 5410 73.5527
133.744 5137 71.6729
133.862 4626 68.0147
133.979 4104 64.0625
134.097 3513 59.2706
134.214 3335 57.7495
134.332 3194 56.5155
134.449 4216 64.9307
134.567 5288 72.7186
134.684 5876 76.6551
134.802 6119 78.224
134.919 5997 77.4403
135.037 6143 78.3773
135.154 6079 77.9679
135.272 6278 79.2338
135.389 6242 79.0063
135.507 6306 79.4103
135.624 6267 79.1644
135.742 6411 80.0687
135.859 6493 80.5792
135.977 6298 79.3599
136.094 6349 79.6806
136.211 6397 79.9812
136.329 6379 79.8686
136.446 6398 79.9875
136.564 6364 79.7747
136.681 6537 80.8517
136.798 6423 80.1436
136.915 6603 81.2588
137.033 6434 80.2122
137.15 6352 79.6994
137.267 6194 78.702
137.384 5805 76.1906
137.502 5398 73.4711
137.619 4707 68.6076
137.736 4521 67.2384
137.853 4121 64.195
137.97 4094 63.9844
138.087 4875 69.8212
138.204 5566 74.6056
138.321 6457 80.3555
138.438 6986 83.5823
138.555 6871 82.8915
138.672 7119 84.3742
138.788 7063 84.0417
138.905 7165 84.6463
139.022 7345 85.703
139.139 7351 85.738
139.255 7200 84.8528
139.372 7301 85.4459
139.488 7463 86.3887
139.605 7329 85.6096
139.721 7272 85.276
139.838 7203 84.8705
139.954 7551 86.8965
140.071 7372 85.8604
140.187 7391 85.9709
140.303 7406 86.0581
140.419 7242 85.0999
140.535 7162 84.6286
140.652 7192 84.8057
140.768 0 1
140.884 0 1
141 0 1
141.115 0 1
141.231 0 1
141.347 0 1
141.463 0 1
141.578 0 1
141.694 0 1
144.104 0 1
144.219 0 1
144.335 0 1
144.45 0 1
144.566 0 1
144.682 0 1
144.798 0 1
144.914 0 1
145.03 0 1
145.146 7293 85.3991
145.262 7161 84.6227
145.378 7236 85.0647
145.494 7274 85.2877
145.61 7177 84.7172
145.726 6992 83.6182
145.842 6702 81.8657
145.959 6285 79.278
146.075 5976 77.3046
146.192 5462 73.9053
146.308 5417 73.6003
146.425 5234 72.3464
146.541 5105 71.4493
146.658 5143 71.7147
146.774 5686 75.4056
146.891 6028 77.6402
147.008 6654 81.5721
147.125 7095 84.2318
147.241 7373 85.8662
147.358 7488 86.5332
147.475 7480 86.487
147.592 7357 85.773
147.709 7372 85.8604
147.826 7339 85.668
147.943 7458 86.3597
148.06 7054 83.9881
148.177 7581 87.0689
148.294 7339 85.668
148.411 7311 85.5044
148.528 7379 85.9011
148.645 7222 84.9824
148.762 7633 87.367
148.88 7271 85.2702
148.997 7004 83.6899
149.114 7370 85.8487
149.231 6996 83.6421
149.349 6933 83.2646
149.466 6568 81.0432
149.583 6378 79.8624
149.701 5962 77.214
149.818 5851 76.4918
149.935 5560 74.5654
150.053 5391 73.4234
150.17 5344 73.1027
150.287 5592 74.7797
150.405 5986 77.3692
150.522 6243 79.0127
150.64 6688 81.7802
150.757 7002 83.678
150.875 7437 86.238
150.992 7417 86.122
151.11 7471 86.4349
151.227 7524 86.741
151.344 7542 86.8447
151.462 7551 86.8965
151.579 7733 87.9375
151.697 7457 86.3539
151.814 7552 86.9022
151.932 7623 87.3098
152.049 7539 86.8274
152.167 7564 86.9713
152.284 7533 86.7929
152.402 7469 86.4234
152.519 7581 87.0689
152.636 7607 87.2181
152.754 7454 86.3366
152.871 7260 85.2056
152.989 7008 83.7138
153.106 6778 82.3286
153.223 6543 80.8888
153.341 6128 78.2815
153.458 6013 77.5435
153.575 5808 76.2102
153.693 5774 75.9868
153.81 5998 77.4468
153.927 5996 77.4338
154.044 6232 78.943
154.162 6715 81.9451
154.279 7285 85.3522
154.396 7436 86.2322
154.513 7887 88.8088
154.63 7779 88.1986
154.747 8006 89.4763
154.864 7940 89.1067
154.981 8069 89.8276
155.098 7935 89.0786
155.215 8001 89.4483
155.332 7890 88.8257
155.449 7940 89.1067
155.566 7904 88.9044
155.683 7825 88.459
155.8 8089 89.9389
155.917 7957 89.202
156.033 8127 90.1499
156.15 0 1
156.267 0 1
156.383 0 1
156.5 0 1
156.617 0 1
156.733 0 1
156.85 0 1
156.966 0 1
157.082 0 1
157.199 0 1
157.315 0 1
157.431 0 1
157.547 0 1
157.664 0 1
157.78 0 1
157.896 0 1
158.012 0 1
158.128 0 1
158.244 0 1
158.359 0 1
158.475 0 1
158.591 0 1
158.706 0 1
