
6.15755 0 1
6.2731 0 1
6.3887 0 1
6.50437 0 1
6.62009 0 1
6.73587 0 1
6.8517 0 1
6.96759 0 1
7.08353 0 1
7.19952 0 1
7.31557 0 1
7.43166 0 1
7.54781 0 1
7.664 0 1
7.78024 0 1
7.89653 0 1
8.01286 0 1
8.12924 0 1
8.24567 0 1
8.36213 0 1
8.47864 0 1
8.59519 0 1
8.71178 0 1
8.82841 0 1
8.94508 0 1
9.06179 0 1
9.17853 0 1
9.29531 0 1
9.41212 0 1
9.52897 0 1
9.64584 0 1
9.76276 0 1
9.8797 0 1
9.99667 0 1
10.1137 0 1
10.2307 0 1
10.3478 0 1
10.4648 0 1
10.5819 0 1
10.6991 0 1
10.8162 0 1
10.9334 0 1
11.0506 0 1
11.1678 0 1
11.285 0 1
11.4023 0 1
11.5196 0 1
11.6369 0 1
11.7542 0 1
11.8715 0 1
11.9888 0 1
12.1062 0 1
12.2235 0 1
12.3409 0 1
12.4582 0 1
12.5756 0 1
12.693 0 1
12.8104 0 1
12.9278 0 1
13.0452 0 1
13.1626 0 1
13.28 0 1
13.3974 0 1
13.5149 0 1
13.6323 0 1
13.7497 0 1
13.8671 0 1
13.9845 0 1
14.1019 0 1
14.2193 0 1
14.3367 0 1
14.4541 0 1
14.5714 0 1
14.6888 0 1
14.8062 0 1
14.9235 0 1
15.0408 0 0
15.1581 0 0
15.2755 0 0
15.3927 0 0
15.51 0 0
15.6273 0 0
15.7445 0 0
15.8617 0 0
15.9789 0 0
16.0961 0 0
16.2132 0 0
16.3304 0 0
16.4475 0 0
16.5646 0 0
16.6816 0 0
16.7986 0 0
16.9156 0 0
17.0326 0 0
17.1496 0 0
17.2665 0 0
17.3833 0 0
17.5002 0 0
17.617 0 0
17.7338 0 0
17.8505 0 0
17.9672 0 0
18.0839 0 0
18.2005 0 0
18.3171 0 0
18.4337 0 0
18.5502 0 0
18.6666 0 0
18.7831 0 0
18.8994 0 0
19.0158 0 0
19.1321 0 0
19.2483 0 0
19.3645 0 0
19.4806 0 0
19.5967 0 0
19.7128 0 0
19.8288 0 0
19.9447 0 0
20.0606 0 1
20.1764 0 1
20.2922 0 1
20.4079 0 1
20.5236 0 1
20.6392 0 1
20.7548 0 1
20.8702 0 1
23.3078 0 1
23.4233 0 1
23.539 0 1
23.6547 0 1
23.7704 0 1
23.8862 0 1
24.0021 0 1
24.118 0 1
24.234 0 1
24.35 0 1
24.4661 1719 41.4608
24.5822 1664 40.7922
24.6984 1785 42.2493
24.8146 1839 42.8836
24.9309 1848 42.9884
25.0472 1869 43.2319
25.1636 1855 43.0697
25.28 1897 43.5546
25.3965 1981 44.5084
25.513 1863 43.1625
25.6296 1901 43.6005
25.7462 1902 43.6119
25.8628 1841 42.9069
25.9795 1871 43.2551
26.0962 1844 42.9418
26.213 1733 41.6293
26.3298 1712 41.3763
26.4466 1678 40.9634
26.5635 1712 41.3763
26.6804 1717 41.4367
26.7973 1643 40.5339
26.9143 1687 41.0731
27.0313 1584 39.7995
27.1483 1604 40.05
27.2653 1514 38.9102
27.3824 1522 39.0128
27.4996 1580 39.7492
27.6167 1596 39.95
27.7339 1718 41.4488
27.8511 1732 41.6173
27.9683 1783 42.2256
28.0855 1868 43.2204
28.2028 1823 42.6966
28.3201 1840 42.8952
28.4374 1787 42.2729
28.5547 1859 43.1161
28.6721 1748 41.8091
28.7894 1752 41.8569
28.9068 1770 42.0714
29.0242 1704 41.2795
29.1416 1708 41.328
29.259 1662 40.7676
29.3764 1656 40.694
29.4939 1626 40.3237
29.6113 1580 39.7492
29.7288 1630 40.3733
29.8463 1654 40.6694
29.9638 1692 41.1339
30.0812 1697 41.1947
30.1987 1724 41.5211
30.3162 1697 41.1947
30.4337 1675 40.9268
30.5512 1605 40.0625
30.6687 1619 40.2368
30.7862 1526 39.064
30.9037 1569 39.6106
31.0212 1621 40.2616
31.1387 1769 42.0595
31.2562 1774 42.1189
31.3737 1896 43.5431
31.4912 1810 42.5441
31.6087 1853 43.0465
31.7262 1877 43.3244
31.8436 1849 43
31.9611 1828 42.7551
32.0785 1834 42.8252
32.1959 1677 40.9512
32.3134 1764 42
32.4308 1598 39.975
32.5482 1624 40.2989
32.6655 1682 41.0122
32.7829 1605 40.0625
32.9002 1648 40.5956
33.0176 1547 39.3319
33.1349 1608 40.0999
33.2522 1635 40.4351
33.3694 1577 39.7115
33.4867 1596 39.95
33.6039 1646 40.5709
33.7211 1647 40.5832
33.8383 1580 39.7492
33.9554 1695 41.1704
34.0725 1677 40.9512
34.1896 1663 40.7799
34.3067 1591 39.8873
34.4237 1505 38.7943
34.5407 1521 39
34.6577 1454 38.1314
34.7746 1586 39.8246
34.8915 1657 40.7063
35.0084 1651 40.6325
35.1252 1754 41.8808
35.242 1684 41.0366
35.3587 1744 41.7612
35.4755 1689 41.0974
35.5921 1614 40.1746
35.7088 1634 40.4228
35.8254 1575 39.6863
35.9419 1645 40.5586
36.0584 1531 39.128
36.1749 1672 40.8901
36.2913 1529 39.1024
36.4077 1601 40.0125
36.524 1568 39.598
36.6403 1532 39.1408
36.7565 1621 40.2616
36.8727 1488 38.5746
36.9889 1517 38.9487
37.1049 1565 39.5601
37.221 0 1
37.3369 0 1
37.4529 0 1
37.5687 0 1
37.6845 0 1
37.8003 0 1
37.916 0 1
38.0316 0 1
38.1472 0 1
40.5851 0 1
40.7008 0 1
40.8164 0 1
40.9322 0 1
41.048 0 1
41.1639 0 1
41.2798 0 1
41.3958 0 1
41.5118 0 1
41.6279 0 1
41.744 1316 36.2767
41.8602 1422 37.7094
41.9765 1432 37.8418
42.0928 1435 37.8814
42.2091 1476 38.4187
42.3255 1418 37.6563
42.4419 1429 37.8021
42.5584 1482 38.4968
42.675 1398 37.3898
42.7915 1372 37.0405
42.9081 1311 36.2077
43.0248 1299 36.0416
43.1415 1238 35.1852
43.2582 1129 33.6006
43.375 1139 33.7491
43.4918 1164 34.1174
43.6087 1301 36.0694
43.7256 1271 35.6511
43.8425 1282 35.805
43.9595 1255 35.426
44.0765 1370 37.0135
44.1935 1338 36.5787
44.3106 1286 35.8608
44.4277 1265 35.5668
44.5448 1315 36.2629
44.6619 1294 35.9722
44.7791 1213 34.8281
44.8963 1233 35.1141
45.0136 1214 34.8425
45.1308 1231 35.0856
45.2481 1298 36.0278
45.3654 1196 34.5832
45.4827 1259 35.4824
45.6001 1186 34.4384
45.7174 1216 34.8712
45.8348 1172 34.2345
45.9522 1161 34.0735
46.0697 1165 34.1321
46.1871 1098 33.1361
46.3046 1033 32.1403
46.422 1130 33.6155
46.5395 1027 32.0468
46.657 1071 32.7261
46.7745 921 30.348
46.892 872 29.5296
47.0096 854 29.2233
47.1271 901 30.0167
47.2446 934 30.5614
47.3622 929 30.4795
47.4797 937 30.6105
47.5973 873 29.5466
47.7149 953 30.8707
47.8324 899 29.9833
47.95 923 30.3809
48.0675 924 30.3974
48.1851 928 30.4631
48.3027 907 30.1164
48.4202 899 29.9833
48.5378 962 31.0161
48.6554 917 30.282
48.7729 935 30.5778
48.8904 961 31
49.008 989 31.4484
49.1255 950 30.8221
49.243 965 31.0644
49.3605 964 31.0483
49.478 975 31.225
49.5955 999 31.607
49.713 986 31.4006
49.8304 972 31.1769
49.9479 1062 32.5883
50.0653 1007 31.7333
50.1827 979 31.289
50.3001 846 29.0861
50.4175 782 27.9643
50.5348 774 27.8209
50.6521 860 29.3258
50.7694 1043 32.2955
50.8867 1092 33.0454
51.004 1091 33.0303
51.1212 1150 33.9116
51.2384 1125 33.541
51.3556 1128 33.5857
51.4727 1240 35.2136
51.5899 1275 35.7071
51.707 1244 35.2704
51.824 1266 35.5809
51.9411 1328 36.4417
52.0581 1274 35.6931
52.175 1329 36.4555
52.2919 1316 36.2767
52.4088 1312 36.2215
52.5257 1381 37.1618
52.6425 1285 35.8469
52.7593 1346 36.6879
52.876 1318 36.3043
52.9927 1357 36.8375
53.1094 1255 35.426
53.226 1364 36.9324
53.3426 1386 37.229
53.4591 1390 37.2827
53.5756 1392 37.3095
53.692 1413 37.5899
53.8084 1269 35.623
53.9248 1203 34.6843
54.0411 1106 33.2566
54.1573 1101 33.1813
54.2735 0 1
54.3896 0 1
54.5057 0 1
54.6217 0 1
54.7377 0 1
54.8537 0 1
54.9695 0 1
55.0853 0 1
55.2011 0 1
55.3168 0 1
55.4324 0 1
57.824 0 1
57.9396 0 1
58.0553 0 1
58.1711 0 1
58.2869 0 1
58.4028 0 1
58.5187 0 1
58.6347 0 1
58.7508 0 1
58.8669 0 1
58.983 1463 38.2492
59.0992 1416 37.6298
59.2155 1402 37.4433
59.3318 1306 36.1386
59.4482 1405 37.4833
59.5646 1465 38.2753
59.681 1475 38.4057
59.7975 1594 39.9249
59.9141 1601 40.0125
60.0306 1643 40.5339
60.1473 1659 40.7308
60.2639 1657 40.7063
60.3807 1651 40.6325
60.4974 1677 40.9512
60.6142 1605 40.0625
60.731 1602 40.025
60.8479 1704 41.2795
60.9648 1688 41.0853
61.0818 1692 41.1339
61.1987 1574 39.6737
61.3158 1631 40.3856
61.4328 1675 40.9268
61.5499 1618 40.2244
61.667 1622 40.2741
61.7841 1638 40.4722
61.9013 1654 40.6694
62.0185 1580 39.7492
62.1357 1588 39.8497
62.253 1601 40.0125
62.3702 1548 39.3446
62.4875 1451 38.092
62.6049 1402 37.4433
62.7222 1350 36.7423
62.8396 1364 36.9324
62.9569 1405 37.4833
63.0743 1510 38.8587
63.1918 1540 39.2428
63.3092 1486 38.5487
63.4267 1604 40.05
63.5441 1547 39.3319
63.6616 1624 40.2989
63.7791 1584 39.7995
63.8966 1662 40.7676
64.0142 1587 39.8372
64.1317 1569 39.6106
64.2492 1529 39.1024
64.3668 1590 39.8748
64.4843 1609 40.1123
64.6019 1626 40.3237
64.7195 1600 40
64.837 1533 39.1535
64.9546 1559 39.4842
65.0722 1569 39.6106
65.1898 1535 39.1791
65.3074 1582 39.7744
65.4249 1548 39.3446
65.5425 1579 39.7366
65.6601 1519 38.9744
65.7777 1591 39.8873
65.8952 1463 38.2492
66.0128 1436 37.8946
66.1304 1348 36.7151
66.2479 1251 35.3695
66.3655 1257 35.4542
66.483 1362 36.9053
66.6005 1386 37.229
66.718 1391 37.2961
66.8355 1502 38.7556
66.953 1580 39.7492
67.0705 1511 38.8716
67.1879 1640 40.4969
67.3054 1474 38.3927
67.4228 1520 38.9872
67.5402 1528 39.0896
67.6576 1589 39.8623
67.7749 1533 39.1535
67.8923 1625 40.3113
68.0096 1527 39.0768
68.1269 1545 39.3065
68.2442 1663 40.7799
68.3614 1607 40.0874
68.4787 1531 39.128
68.5958 1560 39.4968
68.713 1577 39.7115
68.8302 1556 39.4462
68.9473 1536 39.1918
69.0643 1489 38.5876
69.1814 1594 39.9249
69.2984 1499 38.7169
69.4154 1492 38.6264
69.5323 1537 39.2046
69.6492 1539 39.2301
69.7661 1466 38.2884
69.8829 1356 36.8239
69.9997 1424 37.7359
70.1165 1357 36.8375
70.2332 1420 37.6829
70.3499 1377 37.108
70.4665 1491 38.6135
70.5831 1480 38.4708
70.6996 1484 38.5227
70.8161 1591 39.8873
70.9326 1507 38.8201
71.049 1551 39.3827
71.1653 1515 38.923
71.2817 1525 39.0512
71.3979 1576 39.6989
71.5141 1502 38.7556
71.6303 1491 38.6135
71.7464 1453 38.1182
71.8624 0 1
71.9784 0 1
72.0944 0 1
72.2102 0 1
72.3261 0 1
72.4418 0 1
72.5575 0 1
72.6732 0 1
75.1054 0 1
75.2209 0 1
75.3365 0 1
75.4521 0 1
75.5678 0 1
75.6835 0 1
75.7993 0 1
75.9151 0 1
76.031 0 1
76.147 1411 37.5633
76.263 1487 38.5616
76.3791 1552 39.3954
76.4952 1552 39.3954
76.6113 1499 38.7169
76.7276 1516 38.9358
76.8438 1514 38.9102
76.9601 1591 39.8873
77.0765 1574 39.6737
77.1929 1523 39.0256
77.3093 1568 39.598
77.4258 1620 40.2492
77.5423 1594 39.9249
77.6589 1517 38.9487
77.7755 1559 39.4842
77.8921 1542 39.2683
78.0088 1549 39.3573
78.1256 1555 39.4335
78.2423 1517 38.9487
78.3591 1543 39.281
78.4759 1501 38.7427
78.5928 1511 38.8716
78.7097 1432 37.8418
78.8266 1492 38.6264
78.9436 1154 33.9706
79.0606 1213 34.8281
79.1776 1111 33.3317
79.2946 1258 35.4683
79.4117 1383 37.1887
79.5288 1428 37.7889
79.6459 1433 37.855
79.7631 1518 38.9615
79.8802 1548 39.3446
79.9974 1446 38.0263
80.1147 1520 38.9872
80.2319 1556 39.4462
80.3491 1607 40.0874
80.4664 1552 39.3954
80.5837 1467 38.3014
80.701 1498 38.704
80.8183 1552 39.3954
80.9357 1601 40.0125
81.053 1563 39.5348
81.1704 1554 39.4208
81.2877 1607 40.0874
81.4051 1488 38.5746
81.5225 1573 39.6611
81.6399 1505 38.7943
81.7573 1591 39.8873
81.8747 1539 39.2301
81.9922 1492 38.6264
82.1096 1527 39.0768
82.227 1432 37.8418
82.3444 1417 37.6431
82.4619 1438 37.921
82.5793 1361 36.8917
82.6967 1253 35.3977
82.8142 1160 34.0588
82.9316 1264 35.5528
83.049 1318 36.3043
83.1664 1391 37.2961
83.2838 1445 38.0132
83.4012 1420 37.6829
83.5186 1427 37.7757
83.636 1458 38.1838
83.7534 1515 38.923
83.8708 1508 38.833
83.9881 1525 39.0512
84.1055 1449 38.0657
84.2228 1464 38.2623
84.3401 1505 38.7943
84.4575 1552 39.3954
84.5747 1483 38.5097
84.692 1467 38.3014
84.8093 1514 38.9102
84.9265 1494 38.6523
85.0437 1513 38.8973
85.1609 1564 39.5474
85.2781 1449 38.0657
85.3952 1476 38.4187
85.5123 1477 38.4318
85.6294 1508 38.833
85.7465 1490 38.6005
85.8636 1456 38.1576
85.9806 1453 38.1182
86.0976 1424 37.7359
86.2145 1294 35.9722
86.3315 1289 35.9026
86.4484 1244 35.2704
86.5652 1385 37.2156
86.682 1459 38.1969
86.7988 1441 37.9605
86.9156 1569 39.6106
87.0323 1509 38.8458
87.149 1554 39.4208
87.2657 1516 38.9358
87.3823 1520 38.9872
87.4988 1601 40.0125
87.6154 1631 40.3856
87.7318 1541 39.2556
87.8483 1611 40.1373
87.9647 1606 40.0749
88.081 1621 40.2616
88.1973 1598 39.975
88.3136 1646 40.5709
88.4298 1559 39.4842
88.546 1637 40.4599
88.6621 1580 39.7492
88.7781 1579 39.7366
88.8942 0 1
89.0101 0 1
89.126 0 1
89.2419 0 1
89.3577 0 1
89.4734 0 1
89.5891 0 1
89.7047 0 1
89.8203 0 1
89.9358 0 1
92.3269 0 1
92.4424 0 1
92.558 0 1
92.6736 0 1
92.7893 0 1
92.905 0 1
93.0208 0 1
93.1366 0 1
93.2525 0 1
93.3685 0 1
93.4845 0 1
93.6005 1609 40.1123
93.7167 1620 40.2492
93.8328 1572 39.6485
93.949 1557 39.4588
94.0653 1537 39.2046
94.1816 1618 40.2244
94.2979 1626 40.3237
94.4143 1542 39.2683
94.5307 1541 39.2556
94.6472 1528 39.0896
94.7637 1593 39.9124
94.8803 1574 39.6737
94.9969 1568 39.598
95.1135 1580 39.7492
95.2302 1484 38.5227
95.3469 1420 37.6829
95.4637 1330 36.4692
95.5805 1351 36.756
95.6973 1363 36.9188
95.8142 1420 37.6829
95.9311 1526 39.064
96.048 1437 37.9078
96.1649 1495 38.6652
96.2819 1669 40.8534
96.3989 1654 40.6694
96.516 1721 41.4849
96.633 1711 41.3642
96.7501 1653 40.6571
96.8673 1759 41.9404
96.9844 1730 41.5933
97.1016 1772 42.0951
97.2188 1734 41.6413
97.336 1708 41.328
97.4532 1763 41.9881
97.5704 1785 42.2493
97.6877 1712 41.3763
97.805 1728 41.5692
97.9223 1736 41.6653
98.0396 1657 40.7063
98.1569 1751 41.845
98.2743 1735 41.6533
98.3916 1683 41.0244
98.509 1651 40.6325
98.6264 1704 41.2795
98.7438 1659 40.7308
98.8612 1652 40.6448
98.9786 1578 39.724
99.096 1513 38.8973
99.2134 1385 37.2156
99.3308 1487 38.5616
99.4482 1574 39.6737
99.5656 1657 40.7063
99.6831 1685 41.0488
99.8005 1585 39.8121
99.9179 1675 40.9268
100.035 1730 41.5933
100.153 1790 42.3084
100.27 1647 40.5832
100.388 1791 42.3202
100.505 1785 42.2493
100.622 1718 41.4488
100.74 1787 42.2729
100.857 1776 42.1426
100.975 1775 42.1307
101.092 1760 41.9524
101.209 1737 41.6773
101.327 1798 42.4028
101.444 1774 42.1189
101.561 1732 41.6173
101.679 1765 42.0119
101.796 1757 41.9166
101.913 1715 41.4126
102.03 1765 42.0119
102.148 1709 41.3401
102.265 1882 43.382
102.382 1617 40.2119
102.499 1713 41.3884
102.616 1575 39.6863
102.733 1493 38.6394
102.851 1557 39.4588
102.968 1533 39.1535
103.085 1567 39.5854
103.202 1628 40.3485
103.319 1673 40.9023
103.436 1800 42.4264
103.552 1712 41.3763
103.669 1824 42.7083
103.786 1770 42.0714
103.903 1757 41.9166
104.02 1871 43.2551
104.137 1889 43.4626
104.253 1968 44.3621
104.37 1831 42.7902
104.487 1907 43.6692
104.603 1949 44.1475
104.72 1971 44.3959
104.836 1900 43.589
104.953 1926 43.8862
105.069 1878 43.3359
105.186 1957 44.238
105.302 1912 43.7264
105.418 1862 43.1509
105.535 1825 42.72
105.651 1856 43.0813
105.767 1855 43.0697
105.883 1748 41.8091
105.999 1714 41.4005
106.115 0 1
106.231 0 1
106.347 0 1
106.463 0 1
106.579 0 1
106.694 0 1
106.81 0 1
106.926 0 1
107.041 0 1
107.157 0 1
109.576 0 1
109.692 0 1
109.807 0 1
109.923 0 1
110.039 0 1
110.155 0 1
110.27 0 1
110.386 0 1
110.502 0 1
110.618 1643 40.5339
110.735 1781 42.2019
110.851 1720 41.4729
110.967 1737 41.6773
111.083 1613 40.1622
111.199 1569 39.6106
111.316 1501 38.7427
111.432 1547 39.3319
111.549 1561 39.5095
111.665 1652 40.6448
111.782 1572 39.6485
111.898 1671 40.8779
112.015 1601 40.0125
112.132 1655 40.6817
112.248 1636 40.4475
112.365 1689 41.0974
112.482 1823 42.6966
112.599 1740 41.7133
112.716 1713 41.3884
112.832 1824 42.7083
112.949 1696 41.1825
113.066 1765 42.0119
113.183 1711 41.3642
113.3 1700 41.2311
113.417 1703 41.2674
113.534 1656 40.694
113.652 1648 40.5956
113.769 1642 40.5216
113.886 1583 39.7869
114.003 1608 40.0999
114.12 1581 39.7618
114.238 1623 40.2865
114.355 1669 40.8534
114.472 1598 39.975
114.589 1412 37.5766
114.707 1438 37.921
114.824 1353 36.7831
114.942 1382 37.1753
115.059 1400 37.4166
115.176 1461 38.223
115.294 1506 38.8072
115.411 1519 38.9744
115.529 1481 38.4838
115.646 1485 38.5357
115.764 1565 39.5601
115.881 1601 40.0125
115.999 1610 40.1248
116.116 1566 39.5727
116.234 1678 40.9634
116.351 1625 40.3113
116.469 1667 40.8289
116.586 1684 41.0366
116.704 1665 40.8044
116.821 1703 41.2674
116.939 1702 41.2553
117.056 1627 40.3361
117.174 1683 41.0244
117.291 1610 40.1248
117.409 1632 40.398
117.526 1666 40.8167
117.644 1666 40.8167
117.761 1581 39.7618
117.879 1624 40.2989
117.996 1584 39.7995
118.114 1573 39.6611
118.231 1619 40.2368
118.349 1509 38.8458
118.466 1361 36.8917
118.584 1444 38
118.701 1422 37.7094
118.819 1583 39.7869
118.936 1477 38.4318
119.053 1623 40.2865
119.171 1476 38.4187
119.288 1508 38.833
119.405 1676 40.939
119.523 1647 40.5832
119.64 1562 39.5221
119.757 1630 40.3733
119.875 1568 39.598
119.992 1697 41.1947
120.109 1715 41.4126
120.226 1660 40.7431
120.343 1668 40.8412
120.46 1673 40.9023
120.578 1608 40.0999
120.695 1667 40.8289
120.812 1616 40.1995
120.929 1583 39.7869
121.046 1607 40.0874
121.163 1684 41.0366
121.279 1586 39.8246
121.396 1652 40.6448
121.513 1565 39.5601
121.63 1607 40.0874
121.747 1571 39.6358
121.863 1557 39.4588
121.98 1512 38.8844
122.097 1471 38.3536
122.213 1423 37.7227
122.33 1372 37.0405
122.446 1383 37.1887
122.563 1495 38.6652
122.679 1439 37.9342
122.795 1461 38.223
122.912 1508 38.833
123.028 1503 38.7685
123.144 1563 39.5348
123.26 1572 39.6485
123.377 0 1
123.493 0 1
123.609 0 1
123.725 0 1
123.84 0 1
123.956 0 1
124.072 0 1
124.188 0 1
124.303 0 1
124.419 0 1
126.852 0 1
126.968 0 1
127.083 0 1
127.199 0 1
127.315 0 1
127.431 0 1
127.547 0 1
127.663 0 1
127.779 0 1
127.895 0 1
128.011 0 1
128.127 0 1
128.243 0 1
128.359 1667 40.8289
128.476 1735 41.6533
128.592 1676 40.939
128.708 1801 42.4382
128.825 1774 42.1189
128.941 1780 42.19
129.058 1826 42.7317
129.174 1778 42.1663
129.291 1786 42.2611
129.408 1778 42.1663
129.524 1747 41.7971
129.641 1781 42.2019
129.758 1870 43.2435
129.875 1819 42.6497
129.992 1791 42.3202
130.108 1760 41.9524
130.225 1697 41.1947
130.342 1745 41.7732
130.459 1672 40.8901
130.576 1783 42.2256
130.693 1771 42.0833
130.81 1795 42.3674
130.928 1649 40.6079
131.045 1560 39.4968
131.162 1498 38.704
131.279 1464 38.2623
131.396 1563 39.5348
131.513 1547 39.3319
131.631 1598 39.975
131.748 1843 42.9302
131.865 1753 41.8688
131.983 1686 41.0609
132.1 1760 41.9524
132.217 1771 42.0833
132.335 1786 42.2611
132.452 1777 42.1545
132.57 1851 43.0232
132.687 1864 43.1741
132.804 1944 44.0908
132.922 1875 43.3013
133.039 1883 43.3935
133.157 1808 42.5206
133.274 1763 41.9881
133.392 1825 42.72
133.509 1809 42.5323
133.627 1887 43.4396
133.744 1839 42.8836
133.862 1804 42.4735
133.979 1865 43.1856
134.097 1831 42.7902
134.214 1861 43.1393
134.332 1749 41.821
134.449 1712 41.3763
134.567 1648 40.5956
134.684 1569 39.6106
134.802 1599 39.9875
134.919 1696 41.1825
135.037 1689 41.0974
135.154 1651 40.6325
135.272 1753 41.8688
135.389 1722 41.497
135.507 1829 42.7668
135.624 1786 42.2611
135.742 1840 42.8952
135.859 1915 43.7607
135.977 1852 43.0349
136.094 1828 42.7551
136.211 1801 42.4382
136.329 1893 43.5086
136.446 2030 45.0555
136.564 1905 43.6463
136.681 1825 42.72
136.798 1879 43.3474
136.915 1895 43.5316
137.033 1813 42.5793
137.15 1841 42.9069
137.267 1862 43.1509
137.384 1841 42.9069
137.502 1824 42.7083
137.619 1805 42.4853
137.736 1761 41.9643
137.853 1743 41.7493
137.97 1696 41.1825
138.087 1734 41.6413
138.204 1652 40.6448
138.321 1560 39.4968
138.438 1598 39.975
138.555 1566 39.5727
138.672 1651 40.6325
138.788 1677 40.9512
138.905 1761 41.9643
139.022 1745 41.7732
139.139 1741 41.7253
139.255 1916 43.7721
139.372 1847 42.9767
139.488 1836 42.8486
139.605 1807 42.5088
139.721 1757 41.9166
139.838 1813 42.5793
139.954 1839 42.8836
140.071 1763 41.9881
140.187 1792 42.332
140.303 1892 43.4971
140.419 1795 42.3674
140.535 1864 43.1741
140.652 1849 43
140.768 0 1
140.884 0 1
141 0 1
141.115 0 1
141.231 0 1
141.347 0 1
141.463 0 1
141.578 0 1
141.694 0 1
144.104 0 1
144.219 0 1
144.335 0 1
144.45 0 1
144.566 0 1
144.682 0 1
144.798 0 1
144.914 0 1
145.03 0 1
145.146 1539 39.2301
145.262 1500 38.7298
145.378 1459 38.1969
145.494 1479 38.4578
145.61 1581 39.7618
145.726 1545 39.3065
145.842 1545 39.3065
145.959 1616 40.1995
146.075 1607 40.0874
146.192 1736 41.6653
146.308 1735 41.6533
146.425 1743 41.7493
146.541 1749 41.821
146.658 1728 41.5692
146.774 1622 40.2741
146.891 1679 40.9756
147.008 1580 39.7492
147.125 1565 39.5601
147.241 1523 39.0256
147.358 1583 39.7869
147.475 1550 39.37
147.592 1607 40.0874
147.709 1623 40.2865
147.826 1563 39.5348
147.943 1663 40.7799
148.06 1479 38.4578
148.177 1549 39.3573
148.294 1467 38.3014
148.411 1490 38.6005
148.528 1466 38.2884
148.645 1407 37.51
148.762 1442 37.9737
148.88 1442 37.9737
148.997 1412 37.5766
149.114 1453 38.1182
149.231 1482 38.4968
149.349 1526 39.064
149.466 1497 38.6911
149.583 1494 38.6523
149.701 1603 40.0375
149.818 1566 39.5727
149.935 1591 39.8873
150.053 1534 39.1663
150.17 1588 39.8497
150.287 1573 39.6611
150.405 1530 39.1152
150.522 1472 38.3667
150.64 1385 37.2156
150.757 1363 36.9188
150.875 1343 36.647
150.992 1382 37.1753
151.11 1301 36.0694
151.227 1349 36.7287
151.344 1389 37.2693
151.462 1515 38.923
151.579 1493 38.6394
151.697 1477 38.4318
151.814 1515 38.923
151.932 1545 39.3065
152.049 1443 37.9868
152.167 1498 38.704
152.284 1522 39.0128
152.402 1474 38.3927
152.519 1482 38.4968
152.636 1516 38.9358
152.754 1541 39.2556
152.871 1530 39.1152
152.989 1530 39.1152
153.106 1553 39.4081
153.223 1531 39.128
153.341 1604 40.05
153.458 1533 39.1535
153.575 1499 38.7169
153.693 1541 39.2556
153.81 1618 40.2244
153.927 1516 38.9358
154.044 1499 38.7169
154.162 1400 37.4166
154.279 1410 37.55
154.396 1336 36.5513
154.513 1398 37.3898
154.63 1408 37.5233
154.747 1377 37.108
154.864 1437 37.9078
154.981 1448 38.0526
155.098 1518 38.9615
155.215 1561 39.5095
155.332 1473 38.3797
155.449 1463 38.2492
155.566 1534 39.1663
155.683 1561 39.5095
155.8 1556 39.4462
155.917 1626 40.3237
156.033 1678 40.9634
156.15 0 1
156.267 0 1
156.383 0 1
156.5 0 1
156.617 0 1
156.733 0 1
156.85 0 1
156.966 0 1
157.082 0 1
157.199 0 1
157.315 0 1
157.431 0 1
157.547 0 1
157.664 0 1
157.78 0 1
157.896 0 1
158.012 0 1
158.128 0 1
158.244 0 1
158.359 0 1
158.475 0 1
158.591 0 1
158.706 0 1
