
6.15755 0 1
6.2731 0 1
6.3887 0 1
6.50437 0 1
6.62009 0 1
6.73587 0 1
6.8517 0 1
6.96759 0 1
7.08353 0 1
7.19952 0 1
7.31557 0 1
7.43166 0 1
7.54781 0 1
7.664 0 1
7.78024 0 1
7.89653 0 1
8.01286 0 1
8.12924 0 1
8.24567 0 1
8.36213 0 1
8.47864 0 1
8.59519 0 1
8.71178 0 1
8.82841 0 1
8.94508 0 1
9.06179 0 1
9.17853 0 1
9.29531 0 1
9.41212 0 1
9.52897 0 1
9.64584 0 1
9.76276 0 1
9.8797 0 1
9.99667 0 1
10.1137 0 1
10.2307 0 1
10.3478 0 1
10.4648 0 1
10.5819 0 1
10.6991 0 1
10.8162 0 1
10.9334 0 1
11.0506 0 1
11.1678 0 1
11.285 0 1
11.4023 0 1
11.5196 0 1
11.6369 0 1
11.7542 0 1
11.8715 0 1
11.9888 0 1
12.1062 0 1
12.2235 0 1
12.3409 0 1
12.4582 0 1
12.5756 0 1
12.693 0 1
12.8104 0 1
12.9278 0 1
13.0452 0 1
13.1626 0 1
13.28 0 1
13.3974 0 1
13.5149 0 1
13.6323 0 1
13.7497 0 1
13.8671 0 1
13.9845 0 1
14.1019 0 1
14.2193 0 1
14.3367 0 1
14.4541 0 1
14.5714 0 1
14.6888 0 1
14.8062 0 1
14.9235 0 1
15.0408 878 29.6311
15.1581 917 30.282
15.2755 917 30.282
15.3927 978 31.273
15.51 910 30.1662
15.6273 885 29.7489
15.7445 838 28.9482
15.8617 866 29.4279
15.9789 864 29.3939
16.0961 855 29.2404
16.2132 834 28.8791
16.3304 860 29.3258
16.4475 841 29
16.5646 835 28.8964
16.6816 802 28.3196
16.7986 762 27.6043
16.9156 742 27.2397
17.0326 763 27.6225
17.1496 779 27.9106
17.2665 814 28.5307
17.3833 791 28.1247
17.5002 823 28.688
17.617 779 27.9106
17.7338 830 28.8097
17.8505 815 28.5482
17.9672 734 27.0924
18.0839 815 28.5482
18.2005 786 28.0357
18.3171 798 28.2489
18.4337 815 28.5482
18.5502 816 28.5657
18.6666 846 29.0861
18.7831 793 28.1603
18.8994 790 28.1069
19.0158 752 27.4226
19.1321 754 27.4591
19.2483 706 26.5707
19.3645 654 25.5734
19.4806 635 25.1992
19.5967 561 23.6854
19.7128 598 24.454
19.8288 604 24.5764
19.9447 528 22.9783
20.0606 0 1
20.1764 0 1
20.2922 0 1
20.4079 0 1
20.5236 0 1
20.6392 0 1
20.7548 0 1
20.8702 0 1
23.3078 0 1
23.4233 0 1
23.539 0 1
23.6547 0 1
23.7704 0 1
23.8862 0 1
24.0021 0 1
24.118 0 1
24.234 0 1
24.35 0 1
24.4661 337 18.3576
24.5822 361 19
24.6984 400 20
24.8146 489 22.1133
24.9309 522 22.8473
25.0472 530 23.0217
25.1636 660 25.6905
25.28 693 26.3249
25.3965 757 27.5136
25.513 855 29.2404
25.6296 813 28.5132
25.7462 866 29.4279
25.8628 848 29.1204
25.9795 859 29.3087
26.0962 833 28.8617
26.213 788 28.0713
26.3298 786 28.0357
26.4466 823 28.688
26.5635 747 27.3313
26.6804 715 26.7395
26.7973 760 27.5681
26.9143 708 26.6083
27.0313 747 27.3313
27.1483 767 27.6948
27.2653 731 27.037
27.3824 728 26.9815
27.4996 710 26.6458
27.6167 687 26.2107
27.7339 748 27.3496
27.8511 760 27.5681
27.9683 691 26.2869
28.0855 679 26.0576
28.2028 742 27.2397
28.3201 726 26.9444
28.4374 686 26.1916
28.5547 752 27.4226
28.6721 744 27.2764
28.7894 821 28.6531
28.9068 724 26.9072
29.0242 734 27.0924
29.1416 774 27.8209
29.259 788 28.0713
29.3764 716 26.7582
29.4939 713 26.7021
29.6113 749 27.3679
29.7288 711 26.6646
29.8463 711 26.6646
29.9638 690 26.2679
30.0812 685 26.1725
30.1987 712 26.6833
30.3162 711 26.6646
30.4337 730 27.0185
30.5512 748 27.3496
30.6687 748 27.3496
30.7862 747 27.3313
30.9037 769 27.7308
31.0212 721 26.8514
31.1387 730 27.0185
31.2562 690 26.2679
31.3737 749 27.3679
31.4912 737 27.1477
31.6087 737 27.1477
31.7262 715 26.7395
31.8436 730 27.0185
31.9611 672 25.923
32.0785 689 26.2488
32.1959 731 27.037
32.3134 667 25.8263
32.4308 707 26.5895
32.5482 687 26.2107
32.6655 642 25.3377
32.7829 654 25.5734
32.9002 682 26.1151
33.0176 702 26.4953
33.1349 711 26.6646
33.2522 666 25.807
33.3694 637 25.2389
33.4867 672 25.923
33.6039 683 26.1343
33.7211 636 25.219
33.8383 653 25.5539
33.9554 667 25.8263
34.0725 692 26.3059
34.1896 643 25.3574
34.3067 697 26.4008
34.4237 729 27
34.5407 699 26.4386
34.6577 703 26.5141
34.7746 664 25.7682
34.8915 699 26.4386
35.0084 666 25.807
35.1252 654 25.5734
35.242 628 25.0599
35.3587 615 24.7992
35.4755 642 25.3377
35.5921 631 25.1197
35.7088 642 25.3377
35.8254 625 25
35.9419 611 24.7184
36.0584 618 24.8596
36.1749 639 25.2784
36.2913 651 25.5147
36.4077 624 24.98
36.524 613 24.7588
36.6403 542 23.2809
36.7565 541 23.2594
36.8727 477 21.8403
36.9889 500 22.3607
37.1049 432 20.7846
37.221 0 1
37.3369 0 1
37.4529 0 1
37.5687 0 1
37.6845 0 1
37.8003 0 1
37.916 0 1
38.0316 0 1
38.1472 0 1
40.5851 0 1
40.7008 0 1
40.8164 0 1
40.9322 0 1
41.048 0 1
41.1639 0 1
41.2798 0 1
41.3958 0 1
41.5118 0 1
41.6279 0 1
41.744 275 16.5831
41.8602 320 17.8885
41.9765 346 18.6011
42.0928 386 19.6469
42.2091 420 20.4939
42.3255 438 20.9284
42.4419 458 21.4009
42.5584 481 21.9317
42.675 462 21.4942
42.7915 478 21.8632
42.9081 516 22.7156
43.0248 521 22.8254
43.1415 487 22.0681
43.2582 561 23.6854
43.375 527 22.9565
43.4918 493 22.2036
43.6087 481 21.9317
43.7256 483 21.9773
43.8425 458 21.4009
43.9595 467 21.6102
44.0765 501 22.383
44.1935 546 23.3666
44.3106 455 21.3307
44.4277 467 21.6102
44.5448 492 22.1811
44.6619 493 22.2036
44.7791 505 22.4722
44.8963 519 22.7816
45.0136 486 22.0454
45.1308 517 22.7376
45.2481 539 23.2164
45.3654 495 22.2486
45.4827 550 23.4521
45.6001 548 23.4094
45.7174 548 23.4094
45.8348 558 23.622
45.9522 532 23.0651
46.0697 515 22.6936
46.1871 496 22.2711
46.3046 465 21.5639
46.422 490 22.1359
46.5395 493 22.2036
46.657 501 22.383
46.7745 488 22.0907
46.892 489 22.1133
47.0096 481 21.9317
47.1271 502 22.4054
47.2446 500 22.3607
47.3622 499 22.3383
47.4797 511 22.6053
47.5973 467 21.6102
47.7149 484 22
47.8324 469 21.6564
47.95 438 20.9284
48.0675 440 20.9762
48.1851 440 20.9762
48.3027 489 22.1133
48.4202 450 21.2132
48.5378 486 22.0454
48.6554 507 22.5167
48.7729 509 22.561
48.8904 487 22.0681
49.008 488 22.0907
49.1255 486 22.0454
49.243 525 22.9129
49.3605 496 22.2711
49.478 524 22.891
49.5955 485 22.0227
49.713 521 22.8254
49.8304 464 21.5407
49.9479 464 21.5407
50.0653 462 21.4942
50.1827 445 21.095
50.3001 427 20.664
50.4175 417 20.4206
50.5348 475 21.7945
50.6521 436 20.8806
50.7694 425 20.6155
50.8867 403 20.0749
51.004 458 21.4009
51.1212 463 21.5174
51.2384 493 22.2036
51.3556 416 20.3961
51.4727 439 20.9523
51.5899 450 21.2132
51.707 419 20.4695
51.824 407 20.1742
51.9411 420 20.4939
52.0581 436 20.8806
52.175 469 21.6564
52.2919 487 22.0681
52.4088 492 22.1811
52.5257 481 21.9317
52.6425 494 22.2261
52.7593 510 22.5832
52.876 464 21.5407
52.9927 463 21.5174
53.1094 446 21.1187
53.226 497 22.2935
53.3426 472 21.7256
53.4591 421 20.5183
53.5756 435 20.8567
53.692 379 19.4679
53.8084 367 19.1572
53.9248 361 19
54.0411 313 17.6918
54.1573 302 17.3781
54.2735 0 1
54.3896 0 1
54.5057 0 1
54.6217 0 1
54.7377 0 1
54.8537 0 1
54.9695 0 1
55.0853 0 1
55.2011 0 1
55.3168 0 1
55.4324 0 1
57.824 0 1
57.9396 0 1
58.0553 0 1
58.1711 0 1
58.2869 0 1
58.4028 0 1
58.5187 0 1
58.6347 0 1
58.7508 0 1
58.8669 0 1
58.983 307 17.5214
59.0992 424 20.5913
59.2155 427 20.664
59.3318 548 23.4094
59.4482 587 24.2281
59.5646 564 23.7487
59.681 595 24.3926
59.7975 633 25.1595
59.9141 670 25.8844
60.0306 707 26.5895
60.1473 699 26.4386
60.2639 659 25.671
60.3807 602 24.5357
60.4974 635 25.1992
60.6142 648 25.4558
60.731 600 24.4949
60.8479 628 25.0599
60.9648 671 25.9037
61.0818 624 24.98
61.1987 618 24.8596
61.3158 633 25.1595
61.4328 634 25.1794
61.5499 647 25.4362
61.667 647 25.4362
61.7841 644 25.3772
61.9013 645 25.3969
62.0185 614 24.779
62.1357 580 24.0832
62.253 584 24.1661
62.3702 568 23.8328
62.4875 566 23.7908
62.6049 521 22.8254
62.7222 563 23.7276
62.8396 577 24.0208
62.9569 575 23.9792
63.0743 562 23.7065
63.1918 574 23.9583
63.3092 560 23.6643
63.4267 567 23.8118
63.5441 521 22.8254
63.6616 555 23.5584
63.7791 551 23.4734
63.8966 482 21.9545
64.0142 530 23.0217
64.1317 514 22.6716
64.2492 508 22.5389
64.3668 504 22.4499
64.4843 504 22.4499
64.6019 538 23.1948
64.7195 556 23.5797
64.837 539 23.2164
64.9546 500 22.3607
65.0722 497 22.2935
65.1898 567 23.8118
65.3074 536 23.1517
65.4249 546 23.3666
65.5425 522 22.8473
65.6601 506 22.4944
65.7777 523 22.8692
65.8952 505 22.4722
66.0128 488 22.0907
66.1304 538 23.1948
66.2479 455 21.3307
66.3655 527 22.9565
66.483 536 23.1517
66.6005 523 22.8692
66.718 489 22.1133
66.8355 510 22.5832
66.953 527 22.9565
67.0705 495 22.2486
67.1879 523 22.8692
67.3054 549 23.4307
67.4228 489 22.1133
67.5402 466 21.587
67.6576 462 21.4942
67.7749 485 22.0227
67.8923 490 22.1359
68.0096 505 22.4722
68.1269 498 22.3159
68.2442 487 22.0681
68.3614 491 22.1585
68.4787 472 21.7256
68.5958 527 22.9565
68.713 533 23.0868
68.8302 554 23.5372
68.9473 524 22.891
69.0643 539 23.2164
69.1814 549 23.4307
69.2984 548 23.4094
69.4154 528 22.9783
69.5323 456 21.3542
69.6492 455 21.3307
69.7661 476 21.8174
69.8829 505 22.4722
69.9997 489 22.1133
70.1165 509 22.561
70.2332 527 22.9565
70.3499 490 22.1359
70.4665 477 21.8403
70.5831 487 22.0681
70.6996 384 19.5959
70.8161 406 20.1494
70.9326 370 19.2354
71.049 339 18.412
71.1653 280 16.7332
71.2817 247 15.7162
71.3979 244 15.6205
71.5141 230 15.1658
71.6303 210 14.4914
71.7464 165 12.8452
71.8624 0 1
71.9784 0 1
72.0944 0 1
72.2102 0 1
72.3261 0 1
72.4418 0 1
72.5575 0 1
72.6732 0 1
75.1054 0 1
75.2209 0 1
75.3365 0 1
75.4521 0 1
75.5678 0 1
75.6835 0 1
75.7993 0 1
75.9151 0 1
76.031 0 1
76.147 317 17.8045
76.263 354 18.8149
76.3791 336 18.3303
76.4952 397 19.9249
76.6113 383 19.5704
76.7276 381 19.5192
76.8438 365 19.105
76.9601 394 19.8494
77.0765 420 20.4939
77.1929 416 20.3961
77.3093 416 20.3961
77.4258 448 21.166
77.5423 445 21.095
77.6589 470 21.6795
77.7755 441 21
77.8921 473 21.7486
78.0088 431 20.7605
78.1256 493 22.2036
78.2423 444 21.0713
78.3591 429 20.7123
78.4759 460 21.4476
78.5928 382 19.5448
78.7097 378 19.4422
78.8266 421 20.5183
78.9436 441 21
79.0606 410 20.2485
79.1776 438 20.9284
79.2946 433 20.8087
79.4117 458 21.4009
79.5288 455 21.3307
79.6459 485 22.0227
79.7631 449 21.1896
79.8802 411 20.2731
79.9974 458 21.4009
80.1147 469 21.6564
80.2319 413 20.3224
80.3491 446 21.1187
80.4664 414 20.347
80.5837 407 20.1742
80.701 426 20.6398
80.8183 421 20.5183
80.9357 453 21.2838
81.053 419 20.4695
81.1704 475 21.7945
81.2877 441 21
81.4051 474 21.7715
81.5225 484 22
81.6399 461 21.4709
81.7573 489 22.1133
81.8747 449 21.1896
81.9922 447 21.1424
82.1096 438 20.9284
82.227 367 19.1572
82.3444 386 19.6469
82.4619 383 19.5704
82.5793 457 21.3776
82.6967 442 21.0238
82.8142 432 20.7846
82.9316 451 21.2368
83.049 461 21.4709
83.1664 463 21.5174
83.2838 478 21.8632
83.4012 456 21.3542
83.5186 470 21.6795
83.636 470 21.6795
83.7534 437 20.9045
83.8708 447 21.1424
83.9881 409 20.2237
84.1055 408 20.199
84.2228 414 20.347
84.3401 470 21.6795
84.4575 495 22.2486
84.5747 443 21.0476
84.692 471 21.7025
84.8093 475 21.7945
84.9265 471 21.7025
85.0437 457 21.3776
85.1609 529 23
85.2781 494 22.2261
85.3952 488 22.0907
85.5123 508 22.5389
85.6294 479 21.8861
85.7465 475 21.7945
85.8636 431 20.7605
85.9806 413 20.3224
86.0976 434 20.8327
86.2145 451 21.2368
86.3315 464 21.5407
86.4484 434 20.8327
86.5652 492 22.1811
86.682 496 22.2711
86.7988 508 22.5389
86.9156 535 23.1301
87.0323 499 22.3383
87.149 495 22.2486
87.2657 465 21.5639
87.3823 428 20.6882
87.4988 427 20.664
87.6154 425 20.6155
87.7318 364 19.0788
87.8483 358 18.9209
87.9647 369 19.2094
88.081 349 18.6815
88.1973 382 19.5448
88.3136 347 18.6279
88.4298 304 17.4356
88.546 322 17.9444
88.6621 302 17.3781
88.7781 278 16.6733
88.8942 0 1
89.0101 0 1
89.126 0 1
89.2419 0 1
89.3577 0 1
89.4734 0 1
89.5891 0 1
89.7047 0 1
89.8203 0 1
89.9358 0 1
92.3269 0 1
92.4424 0 1
92.558 0 1
92.6736 0 1
92.7893 0 1
92.905 0 1
93.0208 0 1
93.1366 0 1
93.2525 0 1
93.3685 0 1
93.4845 0 1
93.6005 361 19
93.7167 371 19.2614
93.8328 432 20.7846
93.949 467 21.6102
94.0653 473 21.7486
94.1816 484 22
94.2979 492 22.1811
94.4143 518 22.7596
94.5307 503 22.4277
94.6472 499 22.3383
94.7637 510 22.5832
94.8803 448 21.166
94.9969 471 21.7025
95.1135 406 20.1494
95.2302 459 21.4243
95.3469 444 21.0713
95.4637 519 22.7816
95.5805 493 22.2036
95.6973 512 22.6274
95.8142 531 23.0434
95.9311 522 22.8473
96.048 520 22.8035
96.1649 517 22.7376
96.2819 498 22.3159
96.3989 485 22.0227
96.516 512 22.6274
96.633 440 20.9762
96.7501 464 21.5407
96.8673 518 22.7596
96.9844 497 22.2935
97.1016 473 21.7486
97.2188 516 22.7156
97.336 501 22.383
97.4532 514 22.6716
97.5704 455 21.3307
97.6877 521 22.8254
97.805 535 23.1301
97.9223 537 23.1733
98.0396 570 23.8747
98.1569 516 22.7156
98.2743 516 22.7156
98.3916 483 21.9773
98.509 504 22.4499
98.6264 499 22.3383
98.7438 496 22.2711
98.8612 474 21.7715
98.9786 511 22.6053
99.096 553 23.516
99.2134 561 23.6854
99.3308 545 23.3452
99.4482 552 23.4947
99.5656 590 24.2899
99.6831 571 23.8956
99.8005 581 24.1039
99.9179 510 22.5832
100.035 495 22.2486
100.153 505 22.4722
100.27 525 22.9129
100.388 513 22.6495
100.505 509 22.561
100.622 466 21.587
100.74 506 22.4944
100.857 483 21.9773
100.975 510 22.5832
101.092 533 23.0868
101.209 535 23.1301
101.327 577 24.0208
101.444 546 23.3666
101.561 563 23.7276
101.679 541 23.2594
101.796 600 24.4949
101.913 520 22.8035
102.03 506 22.4944
102.148 543 23.3024
102.265 520 22.8035
102.382 504 22.4499
102.499 526 22.9347
102.616 577 24.0208
102.733 622 24.9399
102.851 571 23.8956
102.968 630 25.0998
103.085 533 23.0868
103.202 581 24.1039
103.319 608 24.6577
103.436 572 23.9165
103.552 552 23.4947
103.669 496 22.2711
103.786 518 22.7596
103.903 533 23.0868
104.02 538 23.1948
104.137 510 22.5832
104.253 576 24
104.37 559 23.6432
104.487 539 23.2164
104.603 558 23.622
104.72 609 24.6779
104.836 567 23.8118
104.953 576 24
105.069 539 23.2164
105.186 562 23.7065
105.302 505 22.4722
105.418 489 22.1133
105.535 386 19.6469
105.651 423 20.567
105.767 363 19.0526
105.883 352 18.7617
105.999 324 18
106.115 0 1
106.231 0 1
106.347 0 1
106.463 0 1
106.579 0 1
106.694 0 1
106.81 0 1
106.926 0 1
107.041 0 1
107.157 0 1
109.576 0 1
109.692 0 1
109.807 0 1
109.923 0 1
110.039 0 1
110.155 0 1
110.27 0 1
110.386 0 1
110.502 0 1
110.618 287 16.9411
110.735 332 18.2209
110.851 362 19.0263
110.967 351 18.735
111.083 452 21.2603
111.199 517 22.7376
111.316 545 23.3452
111.432 533 23.0868
111.549 548 23.4094
111.665 579 24.0624
111.782 579 24.0624
111.898 562 23.7065
112.015 586 24.2074
112.132 524 22.891
112.248 520 22.8035
112.365 531 23.0434
112.482 521 22.8254
112.599 571 23.8956
112.716 526 22.9347
112.832 518 22.7596
112.949 554 23.5372
113.066 543 23.3024
113.183 520 22.8035
113.3 537 23.1733
113.417 530 23.0217
113.534 511 22.6053
113.652 563 23.7276
113.769 565 23.7697
113.886 504 22.4499
114.003 507 22.5167
114.12 515 22.6936
114.238 491 22.1585
114.355 489 22.1133
114.472 452 21.2603
114.589 502 22.4054
114.707 480 21.9089
114.824 552 23.4947
114.942 509 22.561
115.059 529 23
115.176 559 23.6432
115.294 520 22.8035
115.411 491 22.1585
115.529 482 21.9545
115.646 490 22.1359
115.764 451 21.2368
115.881 415 20.3715
115.999 438 20.9284
116.116 484 22
116.234 450 21.2132
116.351 477 21.8403
116.469 530 23.0217
116.586 441 21
116.704 444 21.0713
116.821 446 21.1187
116.939 454 21.3073
117.056 448 21.166
117.174 500 22.3607
117.291 497 22.2935
117.409 469 21.6564
117.526 460 21.4476
117.644 461 21.4709
117.761 449 21.1896
117.879 418 20.445
117.996 426 20.6398
118.114 447 21.1424
118.231 440 20.9762
118.349 475 21.7945
118.466 479 21.8861
118.584 469 21.6564
118.701 493 22.2036
118.819 505 22.4722
118.936 478 21.8632
119.053 480 21.9089
119.171 362 19.0263
119.288 405 20.1246
119.405 398 19.9499
119.523 443 21.0476
119.64 417 20.4206
119.757 423 20.567
119.875 502 22.4054
119.992 483 21.9773
120.109 464 21.5407
120.226 456 21.3542
120.343 443 21.0476
120.46 481 21.9317
120.578 438 20.9284
120.695 432 20.7846
120.812 475 21.7945
120.929 475 21.7945
121.046 450 21.2132
121.163 460 21.4476
121.279 432 20.7846
121.396 393 19.8242
121.513 441 21
121.63 383 19.5704
121.747 382 19.5448
121.863 405 20.1246
121.98 396 19.8997
122.097 406 20.1494
122.213 398 19.9499
122.33 367 19.1572
122.446 346 18.6011
122.563 342 18.4932
122.679 323 17.9722
122.795 269 16.4012
122.912 250 15.8114
123.028 241 15.5242
123.144 218 14.7648
123.26 227 15.0665
123.377 0 1
123.493 0 1
123.609 0 1
123.725 0 1
123.84 0 1
123.956 0 1
124.072 0 1
124.188 0 1
124.303 0 1
124.419 0 1
126.852 0 1
126.968 0 1
127.083 0 1
127.199 0 1
127.315 0 1
127.431 0 1
127.547 0 1
127.663 0 1
127.779 0 1
127.895 0 1
128.011 0 1
128.127 0 1
128.243 0 1
128.359 417 20.4206
128.476 403 20.0749
128.592 497 22.2935
128.708 470 21.6795
128.825 451 21.2368
128.941 512 22.6274
129.058 489 22.1133
129.174 513 22.6495
129.291 521 22.8254
129.408 494 22.2261
129.524 454 21.3073
129.641 540 23.2379
129.758 553 23.516
129.875 538 23.1948
129.992 528 22.9783
130.108 526 22.9347
130.225 504 22.4499
130.342 492 22.1811
130.459 497 22.2935
130.576 471 21.7025
130.693 487 22.0681
130.81 501 22.383
130.928 573 23.9374
131.045 588 24.2487
131.162 618 24.8596
131.279 578 24.0416
131.396 648 25.4558
131.513 644 25.3772
131.631 606 24.6171
131.748 643 25.3574
131.865 669 25.865
131.983 588 24.2487
132.1 667 25.8263
132.217 721 26.8514
132.335 730 27.0185
132.452 751 27.4044
132.57 816 28.5657
132.687 852 29.189
132.804 863 29.3769
132.922 846 29.0861
133.039 859 29.3087
133.157 844 29.0517
133.274 945 30.7409
133.392 882 29.6985
133.509 917 30.282
133.627 914 30.2324
133.744 937 30.6105
133.862 959 30.9677
133.979 829 28.7924
134.097 819 28.6182
134.214 778 27.8927
134.332 821 28.6531
134.449 902 30.0333
134.567 909 30.1496
134.684 991 31.4802
134.802 925 30.4138
134.919 916 30.2655
135.037 941 30.6757
135.154 949 30.8058
135.272 848 29.1204
135.389 827 28.7576
135.507 849 29.1376
135.624 884 29.7321
135.742 855 29.2404
135.859 866 29.4279
135.977 900 30
136.094 911 30.1828
136.211 957 30.9354
136.329 968 31.1127
136.446 875 29.5804
136.564 937 30.6105
136.681 869 29.4788
136.798 910 30.1662
136.915 928 30.4631
137.033 952 30.8545
137.15 963 31.0322
137.267 943 30.7083
137.384 887 29.7825
137.502 813 28.5132
137.619 868 29.4618
137.736 802 28.3196
137.853 726 26.9444
137.97 826 28.7402
138.087 810 28.4605
138.204 819 28.6182
138.321 871 29.5127
138.438 909 30.1496
138.555 996 31.5595
138.672 935 30.5778
138.788 845 29.0689
138.905 827 28.7576
139.022 809 28.4429
139.139 752 27.4226
139.255 785 28.0179
139.372 748 27.3496
139.488 838 28.9482
139.605 817 28.5832
139.721 763 27.6225
139.838 724 26.9072
139.954 633 25.1595
140.071 581 24.1039
140.187 538 23.1948
140.303 536 23.1517
140.419 561 23.6854
140.535 520 22.8035
140.652 497 22.2935
140.768 0 1
140.884 0 1
141 0 1
141.115 0 1
141.231 0 1
141.347 0 1
141.463 0 1
141.578 0 1
141.694 0 1
144.104 0 1
144.219 0 1
144.335 0 1
144.45 0 1
144.566 0 1
144.682 0 1
144.798 0 1
144.914 0 1
145.03 0 1
145.146 3290 57.3585
145.262 3458 58.8048
145.378 3326 57.6715
145.494 3112 55.7853
145.61 2975 54.5436
145.726 2799 52.9056
145.842 2585 50.8429
145.959 2323 48.1975
146.075 2063 45.4203
146.192 1880 43.359
146.308 1652 40.6448
146.425 1548 39.3446
146.541 1514 38.9102
146.658 1568 39.598
146.774 1527 39.0768
146.891 1617 40.2119
147.008 1705 41.2916
147.125 1661 40.7554
147.241 1736 41.6653
147.358 1720 41.4729
147.475 1732 41.6173
147.592 1721 41.4849
147.709 1421 37.6962
147.826 1182 34.3802
147.943 1074 32.7719
148.06 1192 34.5254
148.177 1365 36.9459
148.294 1570 39.6232
148.411 1631 40.3856
148.528 1617 40.2119
148.645 1666 40.8167
148.762 1644 40.5463
148.88 1723 41.509
148.997 1790 42.3084
149.114 1636 40.4475
149.231 1756 41.9047
149.349 1668 40.8412
149.466 1563 39.5348
149.583 1674 40.9145
149.701 1603 40.0375
149.818 1620 40.2492
149.935 1592 39.8999
150.053 1579 39.7366
150.17 1564 39.5474
150.287 1517 38.9487
150.405 1493 38.6394
150.522 1545 39.3065
150.64 1574 39.6737
150.757 1599 39.9875
150.875 1556 39.4462
150.992 1589 39.8623
151.11 1619 40.2368
151.227 1589 39.8623
151.344 1480 38.4708
151.462 1274 35.6931
151.579 1109 33.3017
151.697 1194 34.5543
151.814 1446 38.0263
151.932 1590 39.8748
152.049 1627 40.3361
152.167 1635 40.4351
152.284 1599 39.9875
152.402 1576 39.6989
152.519 1575 39.6863
152.636 1625 40.3113
152.754 1537 39.2046
152.871 1503 38.7685
152.989 1552 39.3954
153.106 1498 38.704
153.223 1466 38.2884
153.341 1322 36.3593
153.458 1265 35.5668
153.575 1255 35.426
153.693 1176 34.2929
153.81 1175 34.2783
153.927 1275 35.7071
154.044 1221 34.9428
154.162 1204 34.6987
154.279 1239 35.1994
154.396 1257 35.4542
154.513 1215 34.8569
154.63 1310 36.1939
154.747 1188 34.4674
154.864 1154 33.9706
154.981 1091 33.0303
155.098 921 30.348
155.215 916 30.2655
155.332 906 30.0998
155.449 1066 32.6497
155.566 1146 33.8526
155.683 1169 34.1906
155.8 1140 33.7639
155.917 1130 33.6155
156.033 1058 32.5269
156.15 0 1
156.267 0 1
156.383 0 1
156.5 0 1
156.617 0 1
156.733 0 1
156.85 0 1
156.966 0 1
157.082 0 1
157.199 0 1
157.315 0 1
157.431 0 1
157.547 0 1
157.664 0 1
157.78 0 1
157.896 0 1
158.012 0 1
158.128 0 1
158.244 0 1
158.359 0 1
158.475 0 1
158.591 0 1
158.706 0 1
