
6.15755 0 1
6.2731 0 1
6.3887 0 1
6.50437 0 1
6.62009 0 1
6.73587 0 1
6.8517 0 1
6.96759 0 1
7.08353 0 1
7.19952 0 1
7.31557 0 1
7.43166 0 1
7.54781 0 1
7.664 0 1
7.78024 0 1
7.89653 0 1
8.01286 0 1
8.12924 0 1
8.24567 0 1
8.36213 0 1
8.47864 0 1
8.59519 0 1
8.71178 0 1
8.82841 0 1
8.94508 0 1
9.06179 0 1
9.17853 0 1
9.29531 0 1
9.41212 0 1
9.52897 0 1
9.64584 0 1
9.76276 0 1
9.8797 0 1
9.99667 0 1
10.1137 0 1
10.2307 0 1
10.3478 0 1
10.4648 0 1
10.5819 0 1
10.6991 0 1
10.8162 0 1
10.9334 0 1
11.0506 0 1
11.1678 0 1
11.285 0 1
11.4023 0 1
11.5196 0 1
11.6369 0 1
11.7542 0 1
11.8715 0 1
11.9888 0 1
12.1062 0 1
12.2235 0 1
12.3409 0 1
12.4582 0 1
12.5756 0 1
12.693 0 1
12.8104 0 1
12.9278 0 1
13.0452 0 1
13.1626 0 1
13.28 0 1
13.3974 0 1
13.5149 0 1
13.6323 0 1
13.7497 0 1
13.8671 0 1
13.9845 0 1
14.1019 0 1
14.2193 0 1
14.3367 0 1
14.4541 0 1
14.5714 0 1
14.6888 0 1
14.8062 0 1
14.9235 0 1
15.0408 912 30.1993
15.1581 924 30.3974
15.2755 906 30.0998
15.3927 990 31.4643
15.51 985 31.3847
15.6273 951 30.8383
15.7445 922 30.3645
15.8617 927 30.4467
15.9789 1017 31.8904
16.0961 933 30.545
16.2132 948 30.7896
16.3304 935 30.5778
16.4475 955 30.9031
16.5646 1031 32.1092
16.6816 1048 32.3728
16.7986 1110 33.3167
16.9156 1121 33.4813
17.0326 1179 34.3366
17.1496 1075 32.7872
17.2665 1096 33.1059
17.3833 1107 33.2716
17.5002 1102 33.1964
17.617 1011 31.7962
17.7338 1044 32.311
17.8505 909 30.1496
17.9672 965 31.0644
18.0839 968 31.1127
18.2005 989 31.4484
18.3171 1031 32.1092
18.4337 1068 32.6803
18.5502 1095 33.0908
18.6666 1005 31.7017
18.7831 1112 33.3467
18.8994 1037 32.2025
19.0158 1035 32.1714
19.1321 1019 31.9218
19.2483 1013 31.8277
19.3645 966 31.0805
19.4806 939 30.6431
19.5967 835 28.8964
19.7128 722 26.8701
19.8288 727 26.9629
19.9447 633 25.1595
20.0606 0 1
20.1764 0 1
20.2922 0 1
20.4079 0 1
20.5236 0 1
20.6392 0 1
20.7548 0 1
20.8702 0 1
23.3078 0 1
23.4233 0 1
23.539 0 1
23.6547 0 1
23.7704 0 1
23.8862 0 1
24.0021 0 1
24.118 0 1
24.234 0 1
24.35 0 1
24.4661 406 20.1494
24.5822 542 23.2809
24.6984 552 23.4947
24.8146 599 24.4745
24.9309 702 26.4953
25.0472 711 26.6646
25.1636 795 28.1957
25.28 846 29.0861
25.3965 960 30.9839
25.513 1017 31.8904
25.6296 1077 32.8177
25.7462 1053 32.45
25.8628 1158 34.0294
25.9795 1132 33.6452
26.0962 1180 34.3511
26.213 1146 33.8526
26.3298 1046 32.3419
26.4466 1039 32.2335
26.5635 975 31.225
26.6804 992 31.496
26.7973 1025 32.0156
26.9143 963 31.0322
27.0313 1037 32.2025
27.1483 1062 32.5883
27.2653 1087 32.9697
27.3824 1155 33.9853
27.4996 1113 33.3617
27.6167 1091 33.0303
27.7339 1075 32.7872
27.8511 1070 32.7109
27.9683 1048 32.3728
28.0855 961 31
28.2028 947 30.7734
28.3201 918 30.2985
28.4374 873 29.5466
28.5547 869 29.4788
28.6721 950 30.8221
28.7894 1044 32.311
28.9068 1007 31.7333
29.0242 1084 32.9242
29.1416 1142 33.7935
29.259 1104 33.2265
29.3764 1049 32.3883
29.4939 1073 32.7567
29.6113 1107 33.2716
29.7288 1034 32.1559
29.8463 1010 31.7805
29.9638 1004 31.686
30.0812 907 30.1164
30.1987 930 30.4959
30.3162 964 31.0483
30.4337 987 31.4166
30.5512 1028 32.0624
30.6687 1022 31.9687
30.7862 1081 32.8786
30.9037 1043 32.2955
31.0212 1033 32.1403
31.1387 1084 32.9242
31.2562 1093 33.0606
31.3737 997 31.5753
31.4912 979 31.289
31.6087 996 31.5595
31.7262 928 30.4631
31.8436 954 30.8869
31.9611 950 30.8221
32.0785 839 28.9655
32.1959 845 29.0689
32.3134 986 31.4006
32.4308 966 31.0805
32.5482 1042 32.28
32.6655 1008 31.749
32.7829 1016 31.8748
32.9002 1056 32.4962
33.0176 1062 32.5883
33.1349 1053 32.45
33.2522 1052 32.4345
33.3694 1009 31.7648
33.4867 875 29.5804
33.6039 879 29.6479
33.7211 852 29.189
33.8383 865 29.4109
33.9554 896 29.9333
34.0725 979 31.289
34.1896 1006 31.7175
34.3067 963 31.0322
34.4237 1044 32.311
34.5407 1049 32.3883
34.6577 1049 32.3883
34.7746 1034 32.1559
34.8915 997 31.5753
35.0084 945 30.7409
35.1252 950 30.8221
35.242 950 30.8221
35.3587 932 30.5287
35.4755 897 29.95
35.5921 809 28.4429
35.7088 832 28.8444
35.8254 866 29.4279
35.9419 891 29.8496
36.0584 872 29.5296
36.1749 869 29.4788
36.2913 905 30.0832
36.4077 955 30.9031
36.524 938 30.6268
36.6403 916 30.2655
36.7565 889 29.8161
36.8727 818 28.6007
36.9889 799 28.2666
37.1049 693 26.3249
37.221 0 1
37.3369 0 1
37.4529 0 1
37.5687 0 1
37.6845 0 1
37.8003 0 1
37.916 0 1
38.0316 0 1
38.1472 0 1
40.5851 0 1
40.7008 0 1
40.8164 0 1
40.9322 0 1
41.048 0 1
41.1639 0 1
41.2798 0 1
41.3958 0 1
41.5118 0 1
41.6279 0 1
41.744 479 21.8861
41.8602 523 22.8692
41.9765 528 22.9783
42.0928 590 24.2899
42.2091 608 24.6577
42.3255 575 23.9792
42.4419 584 24.1661
42.5584 592 24.3311
42.675 659 25.671
42.7915 686 26.1916
42.9081 769 27.7308
43.0248 848 29.1204
43.1415 736 27.1293
43.2582 815 28.5482
43.375 879 29.6479
43.4918 890 29.8329
43.6087 872 29.5296
43.7256 824 28.7054
43.8425 844 29.0517
43.9595 843 29.0345
44.0765 741 27.2213
44.1935 732 27.0555
44.3106 804 28.3549
44.4277 710 26.6458
44.5448 712 26.6833
44.6619 698 26.4197
44.7791 750 27.3861
44.8963 740 27.2029
45.0136 833 28.8617
45.1308 822 28.6705
45.2481 895 29.9166
45.3654 895 29.9166
45.4827 890 29.8329
45.6001 890 29.8329
45.7174 825 28.7228
45.8348 813 28.5132
45.9522 726 26.9444
46.0697 763 27.6225
46.1871 696 26.3818
46.3046 704 26.533
46.422 791 28.1247
46.5395 815 28.5482
46.657 817 28.5832
46.7745 743 27.258
46.892 828 28.775
47.0096 879 29.6479
47.1271 847 29.1033
47.2446 892 29.8664
47.3622 853 29.2062
47.4797 867 29.4449
47.5973 812 28.4956
47.7149 821 28.6531
47.8324 787 28.0535
47.95 747 27.3313
48.0675 749 27.3679
48.1851 649 25.4755
48.3027 728 26.9815
48.4202 786 28.0357
48.5378 888 29.7993
48.6554 841 29
48.7729 832 28.8444
48.8904 848 29.1204
49.008 889 29.8161
49.1255 910 30.1662
49.243 835 28.8964
49.3605 780 27.9285
49.478 699 26.4386
49.5955 697 26.4008
49.713 661 25.7099
49.8304 733 27.074
49.9479 717 26.7769
50.0653 774 27.8209
50.1827 806 28.3901
50.3001 837 28.931
50.4175 877 29.6142
50.5348 860 29.3258
50.6521 866 29.4279
50.7694 876 29.5973
50.8867 862 29.3598
51.004 825 28.7228
51.1212 854 29.2233
51.2384 828 28.775
51.3556 826 28.7402
51.4727 800 28.2843
51.5899 724 26.9072
51.707 670 25.8844
51.824 689 26.2488
51.9411 732 27.0555
52.0581 787 28.0535
52.175 845 29.0689
52.2919 801 28.3019
52.4088 854 29.2233
52.5257 843 29.0345
52.6425 904 30.0666
52.7593 861 29.3428
52.876 859 29.3087
52.9927 822 28.6705
53.1094 716 26.7582
53.226 739 27.1846
53.3426 625 25
53.4591 697 26.4008
53.5756 712 26.6833
53.692 678 26.0384
53.8084 683 26.1343
53.9248 633 25.1595
54.0411 620 24.8998
54.1573 614 24.779
54.2735 0 1
54.3896 0 1
54.5057 0 1
54.6217 0 1
54.7377 0 1
54.8537 0 1
54.9695 0 1
55.0853 0 1
55.2011 0 1
55.3168 0 1
55.4324 0 1
57.824 0 1
57.9396 0 1
58.0553 0 1
58.1711 0 1
58.2869 0 1
58.4028 0 1
58.5187 0 1
58.6347 0 1
58.7508 0 1
58.8669 0 1
58.983 553 23.516
59.0992 648 25.4558
59.2155 780 27.9285
59.3318 799 28.2666
59.4482 917 30.282
59.5646 890 29.8329
59.681 952 30.8545
59.7975 949 30.8058
59.9141 946 30.7571
60.0306 954 30.8869
60.1473 953 30.8707
60.2639 853 29.2062
60.3807 839 28.9655
60.4974 910 30.1662
60.6142 927 30.4467
60.731 980 31.305
60.8479 1006 31.7175
60.9648 1077 32.8177
61.0818 1055 32.4808
61.1987 1051 32.4191
61.3158 1127 33.5708
61.4328 1013 31.8277
61.5499 1014 31.8434
61.667 943 30.7083
61.7841 910 30.1662
61.9013 901 30.0167
62.0185 896 29.9333
62.1357 957 30.9354
62.253 977 31.257
62.3702 1045 32.3265
62.4875 1050 32.4037
62.6049 1071 32.7261
62.7222 1094 33.0757
62.8396 1120 33.4664
62.9569 1096 33.1059
63.0743 1111 33.3317
63.1918 1010 31.7805
63.3092 1018 31.9061
63.4267 1084 32.9242
63.5441 1028 32.0624
63.6616 964 31.0483
63.7791 908 30.133
63.8966 918 30.2985
64.0142 835 28.8964
64.1317 911 30.1828
64.2492 931 30.5123
64.3668 948 30.7896
64.4843 1052 32.4345
64.6019 1089 33
64.7195 1079 32.8481
64.837 1079 32.8481
64.9546 1112 33.3467
65.0722 1030 32.0936
65.1898 1010 31.7805
65.3074 861 29.3428
65.4249 875 29.5804
65.5425 818 28.6007
65.6601 866 29.4279
65.7777 827 28.7576
65.8952 985 31.3847
66.0128 1027 32.0468
66.1304 1068 32.6803
66.2479 1044 32.311
66.3655 1075 32.7872
66.483 1099 33.1512
66.6005 1143 33.8083
66.718 1115 33.3916
66.8355 1077 32.8177
66.953 1074 32.7719
67.0705 1082 32.8938
67.1879 1013 31.8277
67.3054 972 31.1769
67.4228 900 30
67.5402 844 29.0517
67.6576 940 30.6594
67.7749 934 30.5614
67.8923 963 31.0322
68.0096 1060 32.5576
68.1269 1080 32.8634
68.2442 1073 32.7567
68.3614 1160 34.0588
68.4787 1119 33.4515
68.5958 1149 33.8969
68.713 1113 33.3617
68.8302 1104 33.2265
68.9473 1010 31.7805
69.0643 1036 32.187
69.1814 913 30.2159
69.2984 916 30.2655
69.4154 1045 32.3265
69.5323 1131 33.6303
69.6492 1213 34.8281
69.7661 1179 34.3366
69.8829 1234 35.1283
69.9997 1212 34.8138
70.1165 1203 34.6843
70.2332 1186 34.4384
70.3499 1103 33.2114
70.4665 1097 33.121
70.5831 1044 32.311
70.6996 1007 31.7333
70.8161 935 30.5778
70.9326 919 30.315
71.049 805 28.3725
71.1653 545 23.3452
71.2817 492 22.1811
71.3979 505 22.4722
71.5141 511 22.6053
71.6303 471 21.7025
71.7464 416 20.3961
71.8624 0 1
71.9784 0 1
72.0944 0 1
72.2102 0 1
72.3261 0 1
72.4418 0 1
72.5575 0 1
72.6732 0 1
75.1054 0 1
75.2209 0 1
75.3365 0 1
75.4521 0 1
75.5678 0 1
75.6835 0 1
75.7993 0 1
75.9151 0 1
76.031 0 1
76.147 706 26.5707
76.263 778 27.8927
76.3791 799 28.2666
76.4952 784 28
76.6113 804 28.3549
76.7276 810 28.4605
76.8438 866 29.4279
76.9601 952 30.8545
77.0765 1000 31.6228
77.1929 1016 31.8748
77.3093 1062 32.5883
77.4258 1021 31.9531
77.5423 998 31.5911
77.6589 962 31.0161
77.7755 895 29.9166
77.8921 828 28.775
78.0088 800 28.2843
78.1256 707 26.5895
78.2423 647 25.4362
78.3591 717 26.7769
78.4759 775 27.8388
78.5928 883 29.7153
78.7097 862 29.3598
78.8266 900 30
78.9436 940 30.6594
79.0606 962 31.0161
79.1776 996 31.5595
79.2946 1003 31.6702
79.4117 949 30.8058
79.5288 992 31.496
79.6459 922 30.3645
79.7631 944 30.7246
79.8802 860 29.3258
79.9974 866 29.4279
80.1147 796 28.2135
80.2319 746 27.313
80.3491 695 26.3629
80.4664 749 27.3679
80.5837 825 28.7228
80.701 919 30.315
80.8183 883 29.7153
80.9357 935 30.5778
81.053 949 30.8058
81.1704 970 31.1448
81.2877 973 31.1929
81.4051 940 30.6594
81.5225 814 28.5307
81.6399 811 28.4781
81.7573 744 27.2764
81.8747 707 26.5895
81.9922 667 25.8263
82.1096 807 28.4077
82.227 793 28.1603
82.3444 911 30.1828
82.4619 909 30.1496
82.5793 959 30.9677
82.6967 1045 32.3265
82.8142 1038 32.218
82.9316 988 31.4325
83.049 1050 32.4037
83.1664 1015 31.8591
83.2838 964 31.0483
83.4012 942 30.692
83.5186 950 30.8221
83.636 866 29.4279
83.7534 844 29.0517
83.8708 756 27.4955
83.9881 756 27.4955
84.1055 794 28.178
84.2228 794 28.178
84.3401 940 30.6594
84.4575 990 31.4643
84.5747 1002 31.6544
84.692 989 31.4484
84.8093 993 31.5119
84.9265 948 30.7896
85.0437 963 31.0322
85.1609 866 29.4279
85.2781 799 28.2666
85.3952 750 27.3861
85.5123 729 27
85.6294 777 27.8747
85.7465 754 27.4591
85.8636 907 30.1164
85.9806 939 30.6431
86.0976 954 30.8869
86.2145 1022 31.9687
86.3315 1032 32.1248
86.4484 949 30.8058
86.5652 1030 32.0936
86.682 1030 32.0936
86.7988 1067 32.665
86.9156 1002 31.6544
87.0323 900 30
87.149 939 30.6431
87.2657 871 29.5127
87.3823 787 28.0535
87.4988 700 26.4575
87.6154 634 25.1794
87.7318 628 25.0599
87.8483 746 27.313
87.9647 733 27.074
88.081 833 28.8617
88.1973 766 27.6767
88.3136 779 27.9106
88.4298 727 26.9629
88.546 640 25.2982
88.6621 553 23.516
88.7781 435 20.8567
88.8942 0 1
89.0101 0 1
89.126 0 1
89.2419 0 1
89.3577 0 1
89.4734 0 1
89.5891 0 1
89.7047 0 1
89.8203 0 1
89.9358 0 1
92.3269 0 1
92.4424 0 1
92.558 0 1
92.6736 0 1
92.7893 0 1
92.905 0 1
93.0208 0 1
93.1366 0 1
93.2525 0 1
93.3685 0 1
93.4845 0 1
93.6005 714 26.7208
93.7167 712 26.6833
93.8328 725 26.9258
93.949 841 29
94.0653 769 27.7308
94.1816 814 28.5307
94.2979 828 28.775
94.4143 799 28.2666
94.5307 760 27.5681
94.6472 750 27.3861
94.7637 679 26.0576
94.8803 819 28.6182
94.9969 858 29.2916
95.1135 903 30.05
95.2302 956 30.9192
95.3469 905 30.0832
95.4637 931 30.5123
95.5805 1012 31.8119
95.6973 1043 32.2955
95.8142 1029 32.078
95.9311 935 30.5778
96.048 959 30.9677
96.1649 992 31.496
96.2819 984 31.3688
96.3989 960 30.9839
96.516 897 29.95
96.633 827 28.7576
96.7501 802 28.3196
96.8673 806 28.3901
96.9844 803 28.3373
97.1016 833 28.8617
97.2188 916 30.2655
97.336 947 30.7734
97.4532 956 30.9192
97.5704 1006 31.7175
97.6877 951 30.8383
97.805 994 31.5278
97.9223 913 30.2159
98.0396 820 28.6356
98.1569 795 28.1957
98.2743 755 27.4773
98.3916 734 27.0924
98.509 738 27.1662
98.6264 876 29.5973
98.7438 914 30.2324
98.8612 957 30.9354
98.9786 970 31.1448
99.096 1031 32.1092
99.2134 1022 31.9687
99.3308 1071 32.7261
99.4482 1102 33.1964
99.5656 1116 33.4066
99.6831 1003 31.6702
99.8005 976 31.241
99.9179 1029 32.078
100.035 961 31
100.153 932 30.5287
100.27 787 28.0535
100.388 861 29.3428
100.505 846 29.0861
100.622 859 29.3087
100.74 992 31.496
100.857 1067 32.665
100.975 1082 32.8938
101.092 1056 32.4962
101.209 1076 32.8024
101.327 1026 32.0312
101.444 1041 32.2645
101.561 912 30.1993
101.679 901 30.0167
101.796 795 28.1957
101.913 760 27.5681
102.03 820 28.6356
102.148 899 29.9833
102.265 963 31.0322
102.382 1001 31.6386
102.499 1078 32.8329
102.616 1127 33.5708
102.733 1097 33.121
102.851 1139 33.7491
102.968 1095 33.0908
103.085 1144 33.8231
103.202 1081 32.8786
103.319 1097 33.121
103.436 1051 32.4191
103.552 1001 31.6386
103.669 996 31.5595
103.786 915 30.249
103.903 867 29.4449
104.02 846 29.0861
104.137 941 30.6757
104.253 970 31.1448
104.37 1088 32.9848
104.487 1105 33.2415
104.603 1099 33.1512
104.72 1083 32.909
104.836 1026 32.0312
104.953 951 30.8383
105.069 864 29.3939
105.186 787 28.0535
105.302 713 26.7021
105.418 721 26.8514
105.535 722 26.8701
105.651 744 27.2764
105.767 722 26.8701
105.883 712 26.6833
105.999 724 26.9072
106.115 0 1
106.231 0 1
106.347 0 1
106.463 0 1
106.579 0 1
106.694 0 1
106.81 0 1
106.926 0 1
107.041 0 1
107.157 0 1
109.576 0 1
109.692 0 1
109.807 0 1
109.923 0 1
110.039 0 1
110.155 0 1
110.27 0 1
110.386 0 1
110.502 0 1
110.618 431 20.7605
110.735 544 23.3238
110.851 656 25.6125
110.967 730 27.0185
111.083 864 29.3939
111.199 886 29.7658
111.316 919 30.315
111.432 1013 31.8277
111.549 1006 31.7175
111.665 1037 32.2025
111.782 987 31.4166
111.898 1029 32.078
112.015 992 31.496
112.132 902 30.0333
112.248 807 28.4077
112.365 800 28.2843
112.482 733 27.074
112.599 833 28.8617
112.716 875 29.5804
112.832 908 30.133
112.949 995 31.5436
113.066 1025 32.0156
113.183 954 30.8869
113.3 996 31.5595
113.417 956 30.9192
113.534 963 31.0322
113.652 830 28.8097
113.769 779 27.9106
113.886 736 27.1293
114.003 727 26.9629
114.12 739 27.1846
114.238 821 28.6531
114.355 900 30
114.472 839 28.9655
114.589 1019 31.9218
114.707 1019 31.9218
114.824 1007 31.7333
114.942 999 31.607
115.059 1012 31.8119
115.176 1045 32.3265
115.294 941 30.6757
115.411 1017 31.8904
115.529 964 31.0483
115.646 960 30.9839
115.764 898 29.9666
115.881 831 28.8271
115.999 799 28.2666
116.116 840 28.9828
116.234 943 30.7083
116.351 898 29.9666
116.469 1022 31.9687
116.586 1050 32.4037
116.704 1039 32.2335
116.821 1037 32.2025
116.939 995 31.5436
117.056 1001 31.6386
117.174 911 30.1828
117.291 803 28.3373
117.409 778 27.8927
117.526 726 26.9444
117.644 763 27.6225
117.761 807 28.4077
117.879 901 30.0167
117.996 893 29.8831
118.114 918 30.2985
118.231 1044 32.311
118.349 1013 31.8277
118.466 972 31.1769
118.584 1036 32.187
118.701 1009 31.7648
118.819 1022 31.9687
118.936 994 31.5278
119.053 1011 31.7962
119.171 925 30.4138
119.288 881 29.6816
119.405 889 29.8161
119.523 798 28.2489
119.64 755 27.4773
119.757 825 28.7228
119.875 842 29.0172
119.992 909 30.1496
120.109 1021 31.9531
120.226 901 30.0167
120.343 956 30.9192
120.46 981 31.3209
120.578 933 30.545
120.695 882 29.6985
120.812 857 29.2746
120.929 821 28.6531
121.046 778 27.8927
121.163 740 27.2029
121.279 660 25.6905
121.396 720 26.8328
121.513 792 28.1425
121.63 790 28.1069
121.747 820 28.6356
121.863 795 28.1957
121.98 784 28
122.097 850 29.1548
122.213 830 28.8097
122.33 813 28.5132
122.446 798 28.2489
122.563 762 27.6043
122.679 670 25.8844
122.795 689 26.2488
122.912 613 24.7588
123.028 525 22.9129
123.144 435 20.8567
123.26 411 20.2731
123.377 0 1
123.493 0 1
123.609 0 1
123.725 0 1
123.84 0 1
123.956 0 1
124.072 0 1
124.188 0 1
124.303 0 1
124.419 0 1
126.852 0 1
126.968 0 1
127.083 0 1
127.199 0 1
127.315 0 1
127.431 0 1
127.547 0 1
127.663 0 1
127.779 0 1
127.895 0 1
128.011 0 1
128.127 0 1
128.243 0 1
128.359 979 31.289
128.476 1004 31.686
128.592 1035 32.1714
128.708 951 30.8383
128.825 993 31.5119
128.941 1017 31.8904
129.058 1111 33.3317
129.174 1132 33.6452
129.291 1163 34.1028
129.408 1241 35.2278
129.524 1225 35
129.641 1185 34.4238
129.758 1219 34.9142
129.875 1186 34.4384
129.992 978 31.273
130.108 938 30.6268
130.225 951 30.8383
130.342 947 30.7734
130.459 917 30.282
130.576 973 31.1929
130.693 1078 32.8329
130.81 1172 34.2345
130.928 1132 33.6452
131.045 1181 34.3657
131.162 1272 35.6651
131.279 1195 34.5688
131.396 1205 34.7131
131.513 1240 35.2136
131.631 1125 33.541
131.748 1161 34.0735
131.865 1152 33.9411
131.983 1105 33.2415
132.1 1058 32.5269
132.217 971 31.1609
132.335 941 30.6757
132.452 1069 32.6956
132.57 1119 33.4515
132.687 1162 34.0881
132.804 1213 34.8281
132.922 1212 34.8138
133.039 1230 35.0714
133.157 1253 35.3977
133.274 1209 34.7707
133.392 1177 34.3074
133.509 1143 33.8083
133.627 1008 31.749
133.744 965 31.0644
133.862 960 30.9839
133.979 924 30.3974
134.097 1071 32.7261
134.214 1051 32.4191
134.332 1072 32.7414
134.449 1137 33.7194
134.567 1184 34.4093
134.684 1178 34.322
134.802 1179 34.3366
134.919 1179 34.3366
135.037 1230 35.0714
135.154 1175 34.2783
135.272 1143 33.8083
135.389 1187 34.4529
135.507 1089 33
135.624 1074 32.7719
135.742 989 31.4484
135.859 1050 32.4037
135.977 997 31.5753
136.094 1065 32.6343
136.211 1115 33.3916
136.329 1066 32.6497
136.446 1210 34.7851
136.564 1246 35.2987
136.681 1193 34.5398
136.798 1221 34.9428
136.915 1215 34.8569
137.033 1129 33.6006
137.15 1032 32.1248
137.267 938 30.6268
137.384 917 30.282
137.502 922 30.3645
137.619 921 30.348
137.736 995 31.5436
137.853 984 31.3688
137.97 1078 32.8329
138.087 1059 32.5423
138.204 1060 32.5576
138.321 1183 34.3948
138.438 1171 34.2199
138.555 1157 34.0147
138.672 1127 33.5708
138.788 1082 32.8938
138.905 1036 32.187
139.022 1036 32.187
139.139 900 30
139.255 884 29.7321
139.372 824 28.7054
139.488 715 26.7395
139.605 720 26.8328
139.721 705 26.5518
139.838 726 26.9444
139.954 733 27.074
140.071 739 27.1846
140.187 618 24.8596
140.303 585 24.1868
140.419 525 22.9129
140.535 538 23.1948
140.652 468 21.6333
140.768 0 1
140.884 0 1
141 0 1
141.115 0 1
141.231 0 1
141.347 0 1
141.463 0 1
141.578 0 1
141.694 0 1
144.104 0 1
144.219 0 1
144.335 0 1
144.45 0 1
144.566 0 1
144.682 0 1
144.798 0 1
144.914 0 1
145.03 0 1
145.146 737 27.1477
145.262 810 28.4605
145.378 834 28.8791
145.494 799 28.2666
145.61 808 28.4253
145.726 771 27.7669
145.842 749 27.3679
145.959 719 26.8142
146.075 714 26.7208
146.192 677 26.0192
146.308 659 25.671
146.425 646 25.4165
146.541 681 26.096
146.658 724 26.9072
146.774 700 26.4575
146.891 774 27.8209
147.008 747 27.3313
147.125 776 27.8568
147.241 799 28.2666
147.358 788 28.0713
147.475 859 29.3087
147.592 742 27.2397
147.709 781 27.9464
147.826 759 27.55
147.943 712 26.6833
148.06 756 27.4955
148.177 709 26.6271
148.294 717 26.7769
148.411 711 26.6646
148.528 730 27.0185
148.645 778 27.8927
148.762 797 28.2312
148.88 807 28.4077
148.997 829 28.7924
149.114 843 29.0345
149.231 807 28.4077
149.349 759 27.55
149.466 811 28.4781
149.583 745 27.2947
149.701 705 26.5518
149.818 665 25.7876
149.935 616 24.8193
150.053 637 25.2389
150.17 689 26.2488
150.287 704 26.533
150.405 704 26.533
150.522 722 26.8701
150.64 737 27.1477
150.757 709 26.6271
150.875 743 27.258
150.992 794 28.178
151.11 817 28.5832
151.227 768 27.7128
151.344 736 27.1293
151.462 734 27.0924
151.579 709 26.6271
151.697 671 25.9037
151.814 661 25.7099
151.932 669 25.865
152.049 732 27.0555
152.167 689 26.2488
152.284 687 26.2107
152.402 783 27.9821
152.519 705 26.5518
152.636 753 27.4408
152.754 728 26.9815
152.871 715 26.7395
152.989 743 27.258
153.106 693 26.3249
153.223 713 26.7021
153.341 591 24.3105
153.458 621 24.9199
153.575 609 24.6779
153.693 671 25.9037
153.81 624 24.98
153.927 672 25.923
154.044 687 26.2107
154.162 710 26.6458
154.279 726 26.9444
154.396 716 26.7582
154.513 699 26.4386
154.63 703 26.5141
154.747 712 26.6833
154.864 715 26.7395
154.981 719 26.8142
155.098 654 25.5734
155.215 658 25.6515
155.332 633 25.1595
155.449 636 25.219
155.566 595 24.3926
155.683 640 25.2982
155.8 617 24.8395
155.917 635 25.1992
156.033 697 26.4008
156.15 0 1
156.267 0 1
156.383 0 1
156.5 0 1
156.617 0 1
156.733 0 1
156.85 0 1
156.966 0 1
157.082 0 1
157.199 0 1
157.315 0 1
157.431 0 1
157.547 0 1
157.664 0 1
157.78 0 1
157.896 0 1
158.012 0 1
158.128 0 1
158.244 0 1
158.359 0 1
158.475 0 1
158.591 0 1
158.706 0 1
