
6.15755 0 1
6.2731 0 1
6.3887 0 1
6.50437 0 1
6.62009 0 1
6.73587 0 1
6.8517 0 1
6.96759 0 1
7.08353 0 1
7.19952 0 1
7.31557 0 1
7.43166 0 1
7.54781 0 1
7.664 0 1
7.78024 0 1
7.89653 0 1
8.01286 0 1
8.12924 0 1
8.24567 0 1
8.36213 0 1
8.47864 0 1
8.59519 0 1
8.71178 0 1
8.82841 0 1
8.94508 0 1
9.06179 0 1
9.17853 0 1
9.29531 0 1
9.41212 0 1
9.52897 0 1
9.64584 0 1
9.76276 0 1
9.8797 0 1
9.99667 0 1
10.1137 0 1
10.2307 0 1
10.3478 0 1
10.4648 0 1
10.5819 0 1
10.6991 0 1
10.8162 0 1
10.9334 0 1
11.0506 0 1
11.1678 0 1
11.285 0 1
11.4023 0 1
11.5196 0 1
11.6369 0 1
11.7542 0 1
11.8715 0 1
11.9888 0 1
12.1062 0 1
12.2235 0 1
12.3409 0 1
12.4582 0 1
12.5756 0 1
12.693 0 1
12.8104 0 1
12.9278 0 1
13.0452 0 1
13.1626 0 1
13.28 0 1
13.3974 0 1
13.5149 0 1
13.6323 0 1
13.7497 0 1
13.8671 0 1
13.9845 0 1
14.1019 0 1
14.2193 0 1
14.3367 0 1
14.4541 0 1
14.5714 0 1
14.6888 0 1
14.8062 0 1
14.9235 0 1
15.0408 0 0
15.1581 0 0
15.2755 0 0
15.3927 0 0
15.51 0 0
15.6273 0 0
15.7445 0 0
15.8617 0 0
15.9789 0 0
16.0961 0 0
16.2132 0 0
16.3304 0 0
16.4475 0 0
16.5646 0 0
16.6816 0 0
16.7986 0 0
16.9156 0 0
17.0326 0 0
17.1496 0 0
17.2665 0 0
17.3833 0 0
17.5002 0 0
17.617 0 0
17.7338 0 0
17.8505 0 0
17.9672 0 0
18.0839 0 0
18.2005 0 0
18.3171 0 0
18.4337 0 0
18.5502 0 0
18.6666 0 0
18.7831 0 0
18.8994 0 0
19.0158 0 0
19.1321 0 0
19.2483 0 0
19.3645 0 0
19.4806 0 0
19.5967 0 0
19.7128 0 0
19.8288 0 0
19.9447 0 0
20.0606 0 1
20.1764 0 1
20.2922 0 1
20.4079 0 1
20.5236 0 1
20.6392 0 1
20.7548 0 1
20.8702 0 1
23.3078 0 1
23.4233 0 1
23.539 0 1
23.6547 0 1
23.7704 0 1
23.8862 0 1
24.0021 0 1
24.118 0 1
24.234 0 1
24.35 0 1
24.4661 2061 45.3982
24.5822 2049 45.2659
24.6984 1905 43.6463
24.8146 1901 43.6005
24.9309 1903 43.6234
25.0472 1713 41.3884
25.1636 1799 42.4146
25.28 1851 43.0232
25.3965 1983 44.5309
25.513 2045 45.2217
25.6296 2375 48.734
25.7462 2391 48.8979
25.8628 2441 49.4065
25.9795 2501 50.01
26.0962 2574 50.7346
26.213 2420 49.1935
26.3298 2373 48.7134
26.4466 2451 49.5076
26.5635 2436 49.3559
26.6804 2403 49.0204
26.7973 2445 49.4469
26.9143 2561 50.6063
27.0313 2468 49.679
27.1483 2466 49.6588
27.2653 2432 49.3153
27.3824 2389 48.8774
27.4996 2407 49.0612
27.6167 2357 48.5489
27.7339 2332 48.2908
27.8511 2228 47.2017
27.9683 2162 46.4973
28.0855 2147 46.3357
28.2028 2069 45.4863
28.3201 1998 44.699
28.4374 1785 42.2493
28.5547 1580 39.7492
28.6721 1647 40.5832
28.7894 1665 40.8044
28.9068 1770 42.0714
29.0242 1865 43.1856
29.1416 1966 44.3396
29.259 2288 47.833
29.3764 2468 49.679
29.4939 2345 48.4252
29.6113 2348 48.4562
29.7288 2336 48.3322
29.8463 2417 49.163
29.9638 2393 48.9183
30.0812 2307 48.0312
30.1987 2252 47.4552
30.3162 2358 48.5592
30.4337 2354 48.518
30.5512 2392 48.9081
30.6687 2334 48.3115
30.7862 2451 49.5076
30.9037 2347 48.4458
31.0212 2449 49.4874
31.1387 2298 47.9375
31.2562 2311 48.0729
31.3737 2247 47.4025
31.4912 2189 46.7868
31.6087 2048 45.2548
31.7262 2012 44.8553
31.8436 1925 43.8748
31.9611 1720 41.4729
32.0785 1594 39.9249
32.1959 1475 38.4057
32.3134 1549 39.3573
32.4308 1805 42.4853
32.5482 1868 43.2204
32.6655 1991 44.6206
32.7829 2177 46.6583
32.9002 2229 47.2123
33.0176 2307 48.0312
33.1349 2272 47.6655
33.2522 2270 47.6445
33.3694 2382 48.8057
33.4867 2385 48.8365
33.6039 2338 48.3529
33.7211 2303 47.9896
33.8383 2323 48.1975
33.9554 2233 47.2546
34.0725 2261 47.55
34.1896 2240 47.3286
34.3067 2348 48.4562
34.4237 2262 47.5605
34.5407 2362 48.6004
34.6577 2261 47.55
34.7746 2241 47.3392
34.8915 2232 47.244
35.0084 2145 46.3141
35.1252 2157 46.4435
35.242 2024 44.9889
35.3587 1994 44.6542
35.4755 1879 43.3474
35.5921 1785 42.2493
35.7088 1564 39.5474
35.8254 1400 37.4166
35.9419 1358 36.8511
36.0584 1505 38.7943
36.1749 1582 39.7744
36.2913 1678 40.9634
36.4077 1889 43.4626
36.524 2117 46.0109
36.6403 2219 47.1063
36.7565 2247 47.4025
36.8727 2181 46.7012
36.9889 2181 46.7012
37.1049 2163 46.5081
37.221 0 1
37.3369 0 1
37.4529 0 1
37.5687 0 1
37.6845 0 1
37.8003 0 1
37.916 0 1
38.0316 0 1
38.1472 0 1
40.5851 0 1
40.7008 0 1
40.8164 0 1
40.9322 0 1
41.048 0 1
41.1639 0 1
41.2798 0 1
41.3958 0 1
41.5118 0 1
41.6279 0 1
41.744 1590 39.8748
41.8602 1639 40.4846
41.9765 1775 42.1307
42.0928 1814 42.5911
42.2091 1848 42.9884
42.3255 1888 43.4511
42.4419 1894 43.5201
42.5584 1770 42.0714
42.675 1831 42.7902
42.7915 1822 42.6849
42.9081 1711 41.3642
43.0248 1744 41.7612
43.1415 1770 42.0714
43.2582 1699 41.2189
43.375 1724 41.5211
43.4918 1688 41.0853
43.6087 1663 40.7799
43.7256 1617 40.2119
43.8425 1605 40.0625
43.9595 1548 39.3446
44.0765 1469 38.3275
44.1935 1358 36.8511
44.3106 1213 34.8281
44.4277 1184 34.4093
44.5448 996 31.5595
44.6619 870 29.4958
44.7791 934 30.5614
44.8963 935 30.5778
45.0136 923 30.3809
45.1308 1156 34
45.2481 1218 34.8999
45.3654 1317 36.2905
45.4827 1287 35.8748
45.6001 1360 36.8782
45.7174 1321 36.3456
45.8348 1279 35.7631
45.9522 1242 35.242
46.0697 1185 34.4238
46.1871 1222 34.9571
46.3046 1202 34.6699
46.422 1162 34.0881
46.5395 1171 34.2199
46.657 1174 34.2637
46.7745 1136 33.7046
46.892 1160 34.0588
47.0096 1095 33.0908
47.1271 1129 33.6006
47.2446 1110 33.3167
47.3622 1009 31.7648
47.4797 1018 31.9061
47.5973 989 31.4484
47.7149 948 30.7896
47.8324 837 28.931
47.95 815 28.5482
48.0675 785 28.0179
48.1851 709 26.6271
48.3027 645 25.3969
48.4202 593 24.3516
48.5378 661 25.7099
48.6554 728 26.9815
48.7729 857 29.2746
48.8904 852 29.189
49.008 968 31.1127
49.1255 931 30.5123
49.243 913 30.2159
49.3605 902 30.0333
49.478 898 29.9666
49.5955 924 30.3974
49.713 907 30.1164
49.8304 937 30.6105
49.9479 971 31.1609
50.0653 980 31.305
50.1827 1044 32.311
50.3001 1035 32.1714
50.4175 967 31.0966
50.5348 1039 32.2335
50.6521 1140 33.7639
50.7694 1085 32.9393
50.8867 1146 33.8526
51.004 1155 33.9853
51.1212 1108 33.2866
51.2384 1125 33.541
51.3556 976 31.241
51.4727 976 31.241
51.5899 930 30.4959
51.707 806 28.3901
51.824 808 28.4253
51.9411 816 28.5657
52.0581 976 31.241
52.175 1087 32.9697
52.2919 1317 36.2905
52.4088 1468 38.3145
52.5257 1593 39.9124
52.6425 1569 39.6106
52.7593 1586 39.8246
52.876 1524 39.0384
52.9927 1633 40.4104
53.1094 1642 40.5216
53.226 1641 40.5093
53.3426 1689 41.0974
53.4591 1714 41.4005
53.5756 1741 41.7253
53.692 1810 42.5441
53.8084 1850 43.0116
53.9248 1786 42.2611
54.0411 1748 41.8091
54.1573 1896 43.5431
54.2735 0 1
54.3896 0 1
54.5057 0 1
54.6217 0 1
54.7377 0 1
54.8537 0 1
54.9695 0 1
55.0853 0 1
55.2011 0 1
55.3168 0 1
55.4324 0 1
57.824 0 1
57.9396 0 1
58.0553 0 1
58.1711 0 1
58.2869 0 1
58.4028 0 1
58.5187 0 1
58.6347 0 1
58.7508 0 1
58.8669 0 1
58.983 2108 45.913
59.0992 2109 45.9239
59.2155 2091 45.7275
59.3318 2246 47.392
59.4482 2180 46.6905
59.5646 2146 46.3249
59.681 2119 46.0326
59.7975 2042 45.1885
59.9141 2007 44.7996
60.0306 1847 42.9767
60.1473 1693 41.1461
60.2639 1508 38.833
60.3807 1312 36.2215
60.4974 1230 35.0714
60.6142 1187 34.4529
60.731 1344 36.6606
60.8479 1438 37.921
60.9648 1629 40.3609
61.0818 1846 42.9651
61.1987 1951 44.1701
61.3158 1930 43.9318
61.4328 1960 44.2719
61.5499 1894 43.5201
61.667 1916 43.7721
61.7841 1837 42.8602
61.9013 1876 43.3128
62.0185 1968 44.3621
62.1357 1912 43.7264
62.253 1905 43.6463
62.3702 1928 43.909
62.4875 1859 43.1161
62.6049 1896 43.5431
62.7222 1911 43.715
62.8396 1932 43.9545
62.9569 1958 44.2493
63.0743 1921 43.8292
63.1918 1906 43.6578
63.3092 1785 42.2493
63.4267 1692 41.1339
63.5441 1607 40.0874
63.6616 1478 38.4448
63.7791 1280 35.7771
63.8966 1058 32.5269
64.0142 1013 31.8277
64.1317 1083 32.909
64.2492 1157 34.0147
64.3668 1289 35.9026
64.4843 1428 37.7889
64.6019 1676 40.939
64.7195 1686 41.0609
64.837 1739 41.7013
64.9546 1717 41.4367
65.0722 1802 42.45
65.1898 1780 42.19
65.3074 1741 41.7253
65.4249 1724 41.5211
65.5425 1806 42.4971
65.6601 1744 41.7612
65.7777 1713 41.3884
65.8952 1755 41.8927
66.0128 1691 41.1218
66.1304 1785 42.2493
66.2479 1806 42.4971
66.3655 1726 41.5452
66.483 1720 41.4729
66.6005 1746 41.7852
66.718 1793 42.3438
66.8355 1682 41.0122
66.953 1813 42.5793
67.0705 1661 40.7554
67.1879 1582 39.7744
67.3054 1418 37.6563
67.4228 1193 34.5398
67.5402 941 30.6757
67.6576 926 30.4302
67.7749 918 30.2985
67.8923 1136 33.7046
68.0096 1204 34.6987
68.1269 1372 37.0405
68.2442 1571 39.6358
68.3614 1630 40.3733
68.4787 1756 41.9047
68.5958 1698 41.2068
68.713 1763 41.9881
68.8302 1752 41.8569
68.9473 1813 42.5793
69.0643 1788 42.2847
69.1814 1726 41.5452
69.2984 1786 42.2611
69.4154 1856 43.0813
69.5323 1843 42.9302
69.6492 1825 42.72
69.7661 1910 43.7035
69.8829 1903 43.6234
69.9997 1972 44.4072
70.1165 2027 45.0222
70.2332 1994 44.6542
70.3499 2049 45.2659
70.4665 2043 45.1996
70.5831 1926 43.8862
70.6996 1925 43.8748
70.8161 1771 42.0833
70.9326 1585 39.8121
71.049 1443 37.9868
71.1653 1132 33.6452
71.2817 987 31.4166
71.3979 919 30.315
71.5141 927 30.4467
71.6303 1114 33.3766
71.7464 1146 33.8526
71.8624 0 1
71.9784 0 1
72.0944 0 1
72.2102 0 1
72.3261 0 1
72.4418 0 1
72.5575 0 1
72.6732 0 1
75.1054 0 1
75.2209 0 1
75.3365 0 1
75.4521 0 1
75.5678 0 1
75.6835 0 1
75.7993 0 1
75.9151 0 1
76.031 0 1
76.147 1597 39.9625
76.263 1711 41.3642
76.3791 1578 39.724
76.4952 1312 36.2215
76.6113 1095 33.0908
76.7276 929 30.4795
76.8438 967 31.0966
76.9601 1088 32.9848
77.0765 1363 36.9188
77.1929 1612 40.1497
77.3093 1832 42.8019
77.4258 1943 44.0795
77.5423 1870 43.2435
77.6589 1875 43.3013
77.7755 1924 43.8634
77.8921 1887 43.4396
78.0088 1865 43.1856
78.1256 1883 43.3935
78.2423 1907 43.6692
78.3591 1790 42.3084
78.4759 1896 43.5431
78.5928 1784 42.2374
78.7097 1840 42.8952
78.8266 1844 42.9418
78.9436 1951 44.1701
79.0606 1948 44.1362
79.1776 1878 43.3359
79.2946 1937 44.0114
79.4117 1803 42.4617
79.5288 1907 43.6692
79.6459 1873 43.2782
79.7631 1739 41.7013
79.8802 1748 41.8091
79.9974 1554 39.4208
80.1147 1337 36.565
80.2319 1026 32.0312
80.3491 862 29.3598
80.4664 857 29.2746
80.5837 979 31.289
80.701 1143 33.8083
80.8183 1468 38.3145
80.9357 1645 40.5586
81.053 1672 40.8901
81.1704 1693 41.1461
81.2877 1668 40.8412
81.4051 1599 39.9875
81.5225 1605 40.0625
81.6399 1669 40.8534
81.7573 1615 40.1871
81.8747 1662 40.7676
81.9922 1534 39.1663
82.1096 1638 40.4722
82.227 1542 39.2683
82.3444 1624 40.2989
82.4619 1585 39.8121
82.5793 1785 42.2493
82.6967 1728 41.5692
82.8142 1723 41.509
82.9316 1651 40.6325
83.049 1627 40.3361
83.1664 1631 40.3856
83.2838 1595 39.9375
83.4012 1519 38.9744
83.5186 1478 38.4448
83.636 1333 36.5103
83.7534 1191 34.5109
83.8708 902 30.0333
83.9881 706 26.5707
84.1055 731 27.037
84.2228 822 28.6705
84.3401 900 30
84.4575 1134 33.6749
84.5747 1355 36.8103
84.692 1481 38.4838
84.8093 1466 38.2884
84.9265 1491 38.6135
85.0437 1489 38.5876
85.1609 1502 38.7556
85.2781 1581 39.7618
85.3952 1595 39.9375
85.5123 1547 39.3319
85.6294 1544 39.2938
85.7465 1717 41.4367
85.8636 1621 40.2616
85.9806 1763 41.9881
86.0976 1739 41.7013
86.2145 1731 41.6053
86.3315 1731 41.6053
86.4484 1722 41.497
86.5652 1871 43.2551
86.682 1877 43.3244
86.7988 1856 43.0813
86.9156 1653 40.6571
87.0323 1591 39.8873
87.149 1697 41.1947
87.2657 1442 37.9737
87.3823 1334 36.524
87.4988 1008 31.749
87.6154 866 29.4279
87.7318 907 30.1164
87.8483 1180 34.3511
87.9647 1427 37.7757
88.081 1729 41.5812
88.1973 1764 42
88.3136 1801 42.4382
88.4298 1853 43.0465
88.546 1903 43.6234
88.6621 1844 42.9418
88.7781 1848 42.9884
88.8942 0 1
89.0101 0 1
89.126 0 1
89.2419 0 1
89.3577 0 1
89.4734 0 1
89.5891 0 1
89.7047 0 1
89.8203 0 1
89.9358 0 1
92.3269 0 1
92.4424 0 1
92.558 0 1
92.6736 0 1
92.7893 0 1
92.905 0 1
93.0208 0 1
93.1366 0 1
93.2525 0 1
93.3685 0 1
93.4845 0 1
93.6005 1737 41.6773
93.7167 1871 43.2551
93.8328 1819 42.6497
93.949 1897 43.5546
94.0653 1887 43.4396
94.1816 1865 43.1856
94.2979 1911 43.715
94.4143 1808 42.5206
94.5307 1792 42.332
94.6472 1883 43.3935
94.7637 1962 44.2945
94.8803 1873 43.2782
94.9969 1935 43.9886
95.1135 1894 43.5201
95.2302 1928 43.909
95.3469 1968 44.3621
95.4637 2035 45.111
95.5805 1933 43.9659
95.6973 1987 44.5758
95.8142 1996 44.6766
95.9311 1984 44.5421
96.048 1948 44.1362
96.1649 1853 43.0465
96.2819 1785 42.2493
96.3989 1650 40.6202
96.516 1562 39.5221
96.633 1281 35.7911
96.7501 1042 32.28
96.8673 948 30.7896
96.9844 1004 31.686
97.1016 1223 34.9714
97.2188 1401 37.4299
97.336 1719 41.4608
97.4532 1841 42.9069
97.5704 1773 42.107
97.6877 1878 43.3359
97.805 1805 42.4853
97.9223 1844 42.9418
98.0396 1861 43.1393
98.1569 1906 43.6578
98.2743 1725 41.5331
98.3916 1799 42.4146
98.509 1761 41.9643
98.6264 1893 43.5086
98.7438 1743 41.7493
98.8612 1879 43.3474
98.9786 1927 43.8976
99.096 1934 43.9773
99.2134 1921 43.8292
99.3308 1889 43.4626
99.4482 2004 44.7661
99.5656 1887 43.4396
99.6831 1915 43.7607
99.8005 1866 43.1972
99.9179 1746 41.7852
100.035 1642 40.5216
100.153 1564 39.5474
100.27 1139 33.7491
100.388 1096 33.1059
100.505 1071 32.7261
100.622 1182 34.3802
100.74 1362 36.9053
100.857 1706 41.3038
100.975 1826 42.7317
101.092 1831 42.7902
101.209 1850 43.0116
101.327 1779 42.1782
101.444 1809 42.5323
101.561 1883 43.3935
101.679 1885 43.4166
101.796 1879 43.3474
101.913 1870 43.2435
102.03 1885 43.4166
102.148 1885 43.4166
102.265 1913 43.7379
102.382 1975 44.441
102.499 1964 44.317
102.616 2044 45.2106
102.733 2040 45.1664
102.851 2082 45.6289
102.968 2063 45.4203
103.085 2030 45.0555
103.202 1929 43.9204
103.319 1911 43.715
103.436 1900 43.589
103.552 1826 42.7317
103.669 1622 40.2741
103.786 1317 36.2905
103.903 1191 34.5109
104.02 1120 33.4664
104.137 1322 36.3593
104.253 1510 38.8587
104.37 1892 43.4971
104.487 1912 43.7264
104.603 2008 44.8107
104.72 2132 46.1736
104.836 1946 44.1135
104.953 2000 44.7214
105.069 2091 45.7275
105.186 1999 44.7102
105.302 2078 45.5851
105.418 2079 45.5961
105.535 2094 45.7602
105.651 2064 45.4313
105.767 2168 46.5618
105.883 2243 47.3603
105.999 2239 47.3181
106.115 0 1
106.231 0 1
106.347 0 1
106.463 0 1
106.579 0 1
106.694 0 1
106.81 0 1
106.926 0 1
107.041 0 1
107.157 0 1
109.576 0 1
109.692 0 1
109.807 0 1
109.923 0 1
110.039 0 1
110.155 0 1
110.27 0 1
110.386 0 1
110.502 0 1
110.618 2046 45.2327
110.735 2128 46.1303
110.851 2209 47
110.967 2223 47.1487
111.083 2176 46.6476
111.199 2303 47.9896
111.316 2210 47.0106
111.432 2213 47.0425
111.549 2207 46.9787
111.665 2166 46.5403
111.782 2169 46.5725
111.898 2018 44.9222
112.015 1994 44.6542
112.132 1899 43.5775
112.248 1672 40.8901
112.365 1330 36.4692
112.482 1223 34.9714
112.599 1310 36.1939
112.716 1405 37.4833
112.832 1667 40.8289
112.949 1848 42.9884
113.066 1967 44.3509
113.183 2012 44.8553
113.3 2063 45.4203
113.417 1962 44.2945
113.534 2044 45.2106
113.652 2043 45.1996
113.769 2014 44.8776
113.886 2067 45.4643
114.003 2079 45.5961
114.12 2020 44.9444
114.238 2223 47.1487
114.355 2150 46.3681
114.472 2111 45.9456
114.589 2156 46.4327
114.707 2259 47.5289
114.824 2252 47.4552
114.942 2359 48.5695
115.059 2367 48.6518
115.176 2300 47.9583
115.294 2307 48.0312
115.411 2201 46.9148
115.529 2124 46.0869
115.646 2006 44.7884
115.764 1981 44.5084
115.881 1798 42.4028
115.999 1520 38.9872
116.116 1470 38.3406
116.234 1577 39.7115
116.351 1783 42.2256
116.469 2077 45.5741
116.586 2271 47.655
116.704 2291 47.8644
116.821 2282 47.7703
116.939 2279 47.7389
117.056 2228 47.2017
117.174 2284 47.7912
117.291 2329 48.2597
117.409 2287 47.8226
117.526 2262 47.5605
117.644 2246 47.392
117.761 2275 47.697
117.879 2415 49.1426
117.996 2331 48.2804
118.114 2334 48.3115
118.231 2416 49.1528
118.349 2435 49.3457
118.466 2479 49.7896
118.584 2453 49.5278
118.701 2484 49.8397
118.819 2463 49.6286
118.936 2409 49.0816
119.053 2255 47.4868
119.171 2301 47.9687
119.288 2130 46.1519
119.405 1907 43.6692
119.523 1723 41.509
119.64 1556 39.4462
119.757 1551 39.3827
119.875 1717 41.4367
119.992 1782 42.2137
120.109 2107 45.9021
120.226 2152 46.3897
120.343 2231 47.2335
120.46 2233 47.2546
120.578 2292 47.8748
120.695 2241 47.3392
120.812 2284 47.7912
120.929 2356 48.5386
121.046 2274 47.6865
121.163 2220 47.1169
121.279 2160 46.4758
121.396 2188 46.7761
121.513 2313 48.0937
121.63 2300 47.9583
121.747 2346 48.4355
121.863 2359 48.5695
121.98 2418 49.1732
122.097 2437 49.366
122.213 2378 48.7647
122.33 2305 48.0104
122.446 2382 48.8057
122.563 2250 47.4342
122.679 2213 47.0425
122.795 2263 47.571
122.912 2116 46
123.028 2059 45.3762
123.144 1914 43.7493
123.26 1707 41.3159
123.377 0 1
123.493 0 1
123.609 0 1
123.725 0 1
123.84 0 1
123.956 0 1
124.072 0 1
124.188 0 1
124.303 0 1
124.419 0 1
126.852 0 1
126.968 0 1
127.083 0 1
127.199 0 1
127.315 0 1
127.431 0 1
127.547 0 1
127.663 0 1
127.779 0 1
127.895 0 1
128.011 0 1
128.127 0 1
128.243 0 1
128.359 2145 46.3141
128.476 1948 44.1362
128.592 1748 41.8091
128.708 1743 41.7493
128.825 1869 43.2319
128.941 2003 44.7549
129.058 2264 47.5815
129.174 2342 48.3942
129.291 2364 48.621
129.408 2440 49.3964
129.524 2448 49.4773
129.641 2521 50.2096
129.758 2388 48.8672
129.875 2434 49.3356
129.992 2464 49.6387
130.108 2478 49.7795
130.225 2304 48
130.342 2408 49.0714
130.459 2365 48.6313
130.576 2416 49.1528
130.693 2445 49.4469
130.81 2395 48.9387
130.928 2450 49.4975
131.045 2531 50.309
131.162 2676 51.7301
131.279 2556 50.5569
131.396 2505 50.05
131.513 2613 51.1175
131.631 2425 49.2443
131.748 2350 48.4768
131.865 2236 47.2864
131.983 2114 45.9783
132.1 1817 42.6263
132.217 1746 41.7852
132.335 1923 43.852
132.452 2114 45.9783
132.57 2280 47.7493
132.687 2441 49.4065
132.804 2524 50.2394
132.922 2516 50.1597
133.039 2514 50.1398
133.157 2439 49.3862
133.274 2488 49.8799
133.392 2432 49.3153
133.509 2457 49.5681
133.627 2392 48.9081
133.744 2405 49.0408
133.862 2347 48.4458
133.979 2351 48.4871
134.097 2360 48.5798
134.214 2346 48.4355
134.332 2509 50.0899
134.449 2567 50.6656
134.567 2433 49.3254
134.684 2394 48.9285
134.802 2529 50.2892
134.919 2556 50.5569
135.037 2503 50.03
135.154 2430 49.295
135.272 2300 47.9583
135.389 2204 46.9468
135.507 2131 46.1628
135.624 1934 43.9773
135.742 1764 42
135.859 1866 43.1972
135.977 1973 44.4185
136.094 2238 47.3075
136.211 2305 48.0104
136.329 2455 49.548
136.446 2503 50.03
136.564 2494 49.94
136.681 2467 49.6689
136.798 2497 49.97
136.915 2470 49.6991
137.033 2489 49.8899
137.15 2378 48.7647
137.267 2364 48.621
137.384 2332 48.2908
137.502 2274 47.6865
137.619 2302 47.9792
137.736 2438 49.3761
137.853 2230 47.2229
137.97 2427 49.2646
138.087 2398 48.9694
138.204 2419 49.1833
138.321 2405 49.0408
138.438 2391 48.8979
138.555 2450 49.4975
138.672 2464 49.6387
138.788 2492 49.9199
138.905 2382 48.8057
139.022 2225 47.1699
139.139 2197 46.8722
139.255 2022 44.9667
139.372 1864 43.1741
139.488 1922 43.8406
139.605 2033 45.0888
139.721 2208 46.9894
139.838 2391 48.8979
139.954 2527 50.2693
140.071 2418 49.1732
140.187 2414 49.1325
140.303 2501 50.01
140.419 2429 49.2849
140.535 2442 49.4166
140.652 2414 49.1325
140.768 0 1
140.884 0 1
141 0 1
141.115 0 1
141.231 0 1
141.347 0 1
141.463 0 1
141.578 0 1
141.694 0 1
144.104 0 1
144.219 0 1
144.335 0 1
144.45 0 1
144.566 0 1
144.682 0 1
144.798 0 1
144.914 0 1
145.03 0 1
145.146 1829 42.7668
145.262 1955 44.2154
145.378 1961 44.2832
145.494 1963 44.3058
145.61 2002 44.7437
145.726 2083 45.6399
145.842 2006 44.7884
145.959 1908 43.6807
146.075 1913 43.7379
146.192 1856 43.0813
146.308 1808 42.5206
146.425 1924 43.8634
146.541 1786 42.2611
146.658 2044 45.2106
146.774 1958 44.2493
146.891 2076 45.5631
147.008 2105 45.8803
147.125 2171 46.594
147.241 2155 46.422
147.358 2177 46.6583
147.475 2122 46.0652
147.592 2111 45.9456
147.709 2046 45.2327
147.826 1916 43.7721
147.943 1899 43.5775
148.06 1858 43.1045
148.177 1756 41.9047
148.294 1676 40.939
148.411 1822 42.6849
148.528 1927 43.8976
148.645 2057 45.3542
148.762 2037 45.1331
148.88 2101 45.8367
148.997 2114 45.9783
149.114 2251 47.4447
149.231 2145 46.3141
149.349 2234 47.2652
149.466 2175 46.6369
149.583 2133 46.1844
149.701 2054 45.3211
149.818 1983 44.5309
149.935 2035 45.111
150.053 1891 43.4856
150.17 2026 45.0111
150.287 2013 44.8665
150.405 1994 44.6542
150.522 2072 45.5192
150.64 2094 45.7602
150.757 2320 48.1664
150.875 2106 45.8912
150.992 2205 46.9574
151.11 2188 46.7761
151.227 2253 47.4658
151.344 2153 46.4004
151.462 2059 45.3762
151.579 2133 46.1844
151.697 1910 43.7035
151.814 1775 42.1307
151.932 1869 43.2319
152.049 1866 43.1972
152.167 2003 44.7549
152.284 2145 46.3141
152.402 2228 47.2017
152.519 2283 47.7807
152.636 2236 47.2864
152.754 2242 47.3498
152.871 2231 47.2335
152.989 2291 47.8644
153.106 2286 47.8121
153.223 2219 47.1063
153.341 2140 46.2601
153.458 2066 45.4533
153.575 2027 45.0222
153.693 1968 44.3621
153.81 2076 45.5631
153.927 2049 45.2659
154.044 2134 46.1952
154.162 2083 45.6399
154.279 2225 47.1699
154.396 2386 48.8467
154.513 2277 47.7179
154.63 2344 48.4149
154.747 2320 48.1664
154.864 2348 48.4562
154.981 2398 48.9694
155.098 2233 47.2546
155.215 2207 46.9787
155.332 2182 46.7119
155.449 2143 46.2925
155.566 2077 45.5741
155.683 2193 46.8295
155.8 2262 47.5605
155.917 2339 48.3632
156.033 2358 48.5592
156.15 0 1
156.267 0 1
156.383 0 1
156.5 0 1
156.617 0 1
156.733 0 1
156.85 0 1
156.966 0 1
157.082 0 1
157.199 0 1
157.315 0 1
157.431 0 1
157.547 0 1
157.664 0 1
157.78 0 1
157.896 0 1
158.012 0 1
158.128 0 1
158.244 0 1
158.359 0 1
158.475 0 1
158.591 0 1
158.706 0 1
