
6.15755 0 1
6.2731 0 1
6.3887 0 1
6.50437 0 1
6.62009 0 1
6.73587 0 1
6.8517 0 1
6.96759 0 1
7.08353 0 1
7.19952 0 1
7.31557 0 1
7.43166 0 1
7.54781 0 1
7.664 0 1
7.78024 0 1
7.89653 0 1
8.01286 0 1
8.12924 0 1
8.24567 0 1
8.36213 0 1
8.47864 0 1
8.59519 0 1
8.71178 0 1
8.82841 0 1
8.94508 0 1
9.06179 0 1
9.17853 0 1
9.29531 0 1
9.41212 0 1
9.52897 0 1
9.64584 0 1
9.76276 0 1
9.8797 0 1
9.99667 0 1
10.1137 0 1
10.2307 0 1
10.3478 0 1
10.4648 0 1
10.5819 0 1
10.6991 0 1
10.8162 0 1
10.9334 0 1
11.0506 0 1
11.1678 0 1
11.285 0 1
11.4023 0 1
11.5196 0 1
11.6369 0 1
11.7542 0 1
11.8715 0 1
11.9888 0 1
12.1062 0 1
12.2235 0 1
12.3409 0 1
12.4582 0 1
12.5756 0 1
12.693 0 1
12.8104 0 1
12.9278 0 1
13.0452 0 1
13.1626 0 1
13.28 0 1
13.3974 0 1
13.5149 0 1
13.6323 0 1
13.7497 0 1
13.8671 0 1
13.9845 0 1
14.1019 0 1
14.2193 0 1
14.3367 0 1
14.4541 0 1
14.5714 0 1
14.6888 0 1
14.8062 0 1
14.9235 0 1
15.0408 4076 63.8436
15.1581 4382 66.1967
15.2755 4435 66.5958
15.3927 4401 66.34
15.51 4401 66.34
15.6273 4331 65.8103
15.7445 4260 65.2687
15.8617 4202 64.8228
15.9789 4077 63.8514
16.0961 3884 62.3217
16.2132 4021 63.4114
16.3304 3996 63.2139
16.4475 3822 61.8223
16.5646 3769 61.3922
16.6816 3705 60.8687
16.7986 3752 61.2536
16.9156 3603 60.025
17.0326 3711 60.918
17.1496 3621 60.1747
17.2665 3495 59.1185
17.3833 3597 59.975
17.5002 3683 60.6877
17.617 3521 59.338
17.7338 3506 59.2115
17.8505 3599 59.9917
17.9672 3620 60.1664
18.0839 3488 59.0593
18.2005 3568 59.7327
18.3171 3643 60.3573
18.4337 3560 59.6657
18.5502 3589 59.9083
18.6666 3587 59.8916
18.7831 3671 60.5888
18.8994 3653 60.4401
19.0158 3615 60.1249
19.1321 3546 59.5483
19.2483 3405 58.3524
19.3645 3166 56.2672
19.4806 2924 54.074
19.5967 2921 54.0463
19.7128 2676 51.7301
19.8288 2525 50.2494
19.9447 2280 47.7493
20.0606 0 1
20.1764 0 1
20.2922 0 1
20.4079 0 1
20.5236 0 1
20.6392 0 1
20.7548 0 1
20.8702 0 1
23.3078 0 1
23.4233 0 1
23.539 0 1
23.6547 0 1
23.7704 0 1
23.8862 0 1
24.0021 0 1
24.118 0 1
24.234 0 1
24.35 0 1
24.4661 1599 39.9875
24.5822 1827 42.7434
24.6984 2111 45.9456
24.8146 2553 50.5272
24.9309 2852 53.4041
25.0472 3234 56.8683
25.1636 3622 60.1831
25.28 3787 61.5386
25.3965 3935 62.7296
25.513 3990 63.1664
25.6296 4128 64.2495
25.7462 4060 63.7181
25.8628 4095 63.9922
25.9795 4070 63.7966
26.0962 3882 62.3057
26.213 3823 61.8304
26.3298 3624 60.1997
26.4466 3412 58.4123
26.5635 3358 57.9483
26.6804 3175 56.3471
26.7973 3103 55.7046
26.9143 3175 56.3471
27.0313 3066 55.3715
27.1483 3368 58.0345
27.2653 3345 57.836
27.3824 3369 58.0431
27.4996 3447 58.7112
27.6167 3615 60.1249
27.7339 3719 60.9836
27.8511 3530 59.4138
27.9683 3657 60.4731
28.0855 3526 59.3801
28.2028 3503 59.1861
28.3201 3568 59.7327
28.4374 3480 58.9915
28.5547 3713 60.9344
28.6721 3769 61.3922
28.7894 3836 61.9355
28.9068 3683 60.6877
29.0242 3743 61.1801
29.1416 3577 59.808
29.259 3576 59.7997
29.3764 3547 59.5567
29.4939 3382 58.155
29.6113 3412 58.4123
29.7288 3316 57.5847
29.8463 3266 57.1489
29.9638 3180 56.3915
30.0812 2980 54.5894
30.1987 2939 54.2125
30.3162 3000 54.7723
30.4337 3104 55.7136
30.5512 3221 56.7539
30.6687 3316 57.5847
30.7862 3341 57.8014
30.9037 3311 57.5413
31.0212 3428 58.5491
31.1387 3533 59.439
31.2562 3712 60.9262
31.3737 3478 58.9746
31.4912 3613 60.1082
31.6087 3436 58.6174
31.7262 3446 58.7026
31.8436 3399 58.3009
31.9611 3508 59.2284
32.0785 3413 58.4209
32.1959 3475 58.9491
32.3134 3454 58.7707
32.4308 3336 57.7581
32.5482 3318 57.6021
32.6655 3206 56.6216
32.7829 3157 56.1872
32.9002 3124 55.8928
33.0176 3113 55.7943
33.1349 3001 54.7814
33.2522 2998 54.754
33.3694 2905 53.8981
33.4867 2961 54.4151
33.6039 2801 52.9245
33.7211 2846 53.3479
33.8383 2859 53.4696
33.9554 2999 54.7631
34.0725 2930 54.1295
34.1896 3002 54.7905
34.3067 3116 55.8211
34.4237 3064 55.3534
34.5407 3088 55.5698
34.6577 3287 57.3324
34.7746 3322 57.6368
34.8915 3282 57.2887
35.0084 3217 56.7186
35.1252 3228 56.8155
35.242 3126 55.9106
35.3587 3049 55.2178
35.4755 3059 55.3082
35.5921 3189 56.4712
35.7088 3075 55.4527
35.8254 3198 56.5509
35.9419 3147 56.0981
36.0584 3023 54.9818
36.1749 2969 54.4885
36.2913 2772 52.6498
36.4077 2754 52.4786
36.524 2622 51.2055
36.6403 2498 49.98
36.7565 2323 48.1975
36.8727 2081 45.618
36.9889 1941 44.0568
37.1049 1796 42.3792
37.221 0 1
37.3369 0 1
37.4529 0 1
37.5687 0 1
37.6845 0 1
37.8003 0 1
37.916 0 1
38.0316 0 1
38.1472 0 1
40.5851 0 1
40.7008 0 1
40.8164 0 1
40.9322 0 1
41.048 0 1
41.1639 0 1
41.2798 0 1
41.3958 0 1
41.5118 0 1
41.6279 0 1
41.744 1402 37.4433
41.8602 1608 40.0999
41.9765 1781 42.2019
42.0928 1959 44.2606
42.2091 2063 45.4203
42.3255 2110 45.9347
42.4419 2058 45.3652
42.5584 2153 46.4004
42.675 2317 48.1352
42.7915 2369 48.6724
42.9081 2401 49
43.0248 2235 47.2758
43.1415 2279 47.7389
43.2582 2105 45.8803
43.375 2352 48.4974
43.4918 2361 48.5901
43.6087 2335 48.3218
43.7256 2284 47.7912
43.8425 2385 48.8365
43.9595 2330 48.2701
44.0765 2268 47.6235
44.1935 2274 47.6865
44.3106 2331 48.2804
44.4277 2313 48.0937
44.5448 2339 48.3632
44.6619 2328 48.2494
44.7791 2298 47.9375
44.8963 2362 48.6004
45.0136 2445 49.4469
45.1308 2422 49.2138
45.2481 2348 48.4562
45.3654 2312 48.0833
45.4827 2390 48.8876
45.6001 2304 48
45.7174 2242 47.3498
45.8348 2189 46.7868
45.9522 2151 46.3789
46.0697 2182 46.7119
46.1871 2211 47.0213
46.3046 2268 47.6235
46.422 2294 47.8957
46.5395 2174 46.6262
46.657 2015 44.8888
46.7745 2157 46.4435
46.892 2267 47.613
47.0096 2343 48.4045
47.1271 2406 49.051
47.2446 2425 49.2443
47.3622 2207 46.9787
47.4797 2298 47.9375
47.5973 2232 47.244
47.7149 2255 47.4868
47.8324 2166 46.5403
47.95 2287 47.8226
48.0675 2216 47.0744
48.1851 2275 47.697
48.3027 2317 48.1352
48.4202 2303 47.9896
48.5378 2279 47.7389
48.6554 2415 49.1426
48.7729 2259 47.5289
48.8904 2319 48.156
49.008 2326 48.2286
49.1255 2122 46.0652
49.243 2112 45.9565
49.3605 1999 44.7102
49.478 1953 44.1928
49.5955 1943 44.0795
49.713 2105 45.8803
49.8304 2122 46.0652
49.9479 2159 46.465
50.0653 2023 44.9778
50.1827 1990 44.6094
50.3001 1873 43.2782
50.4175 2039 45.1553
50.5348 2155 46.422
50.6521 2154 46.4112
50.7694 2124 46.0869
50.8867 2135 46.2061
51.004 2196 46.8615
51.1212 2110 45.9347
51.2384 2242 47.3498
51.3556 2113 45.9674
51.4727 2164 46.5188
51.5899 2163 46.5081
51.707 2238 47.3075
51.824 2257 47.5079
51.9411 2258 47.5184
52.0581 2166 46.5403
52.175 2162 46.4973
52.2919 2255 47.4868
52.4088 2150 46.3681
52.5257 2110 45.9347
52.6425 2170 46.5833
52.7593 2054 45.3211
52.876 1899 43.5775
52.9927 1951 44.1701
53.1094 1845 42.9535
53.226 1994 44.6542
53.3426 1941 44.0568
53.4591 1999 44.7102
53.5756 1832 42.8019
53.692 1712 41.3763
53.8084 1553 39.4081
53.9248 1472 38.3667
54.0411 1304 36.1109
54.1573 1300 36.0555
54.2735 0 1
54.3896 0 1
54.5057 0 1
54.6217 0 1
54.7377 0 1
54.8537 0 1
54.9695 0 1
55.0853 0 1
55.2011 0 1
55.3168 0 1
55.4324 0 1
57.824 0 1
57.9396 0 1
58.0553 0 1
58.1711 0 1
58.2869 0 1
58.4028 0 1
58.5187 0 1
58.6347 0 1
58.7508 0 1
58.8669 0 1
58.983 1866 43.1972
59.0992 2121 46.0543
59.2155 2396 48.949
59.3318 2573 50.7247
59.4482 2792 52.8394
59.5646 2798 52.8961
59.681 2935 54.1756
59.7975 2963 54.4334
59.9141 3181 56.4004
60.0306 3225 56.7891
60.1473 3162 56.2317
60.2639 3223 56.7715
60.3807 3318 57.6021
60.4974 3355 57.9224
60.6142 3296 57.4108
60.731 3281 57.28
60.8479 3217 56.7186
60.9648 3103 55.7046
61.0818 3092 55.6058
61.1987 2892 53.7773
61.3158 2967 54.4702
61.4328 2792 52.8394
61.5499 2688 51.8459
61.667 2633 51.3128
61.7841 2580 50.7937
61.9013 2697 51.9326
62.0185 2746 52.4023
62.1357 2720 52.1536
62.253 2692 51.8845
62.3702 2697 51.9326
62.4875 2673 51.7011
62.6049 2517 50.1697
62.7222 2729 52.2398
62.8396 2684 51.8073
62.9569 2732 52.2685
63.0743 2649 51.4684
63.1918 2499 49.99
63.3092 2533 50.3289
63.4267 2645 51.4296
63.5441 2605 51.0392
63.6616 2632 51.303
63.7791 2687 51.8363
63.8966 2594 50.9313
64.0142 2610 51.0882
64.1317 2611 51.0979
64.2492 2611 51.0979
64.3668 2550 50.4975
64.4843 2527 50.2693
64.6019 2492 49.9199
64.7195 2363 48.6107
64.837 2348 48.4562
64.9546 2258 47.5184
65.0722 2176 46.6476
65.1898 2141 46.2709
65.3074 2222 47.1381
65.4249 2229 47.2123
65.5425 2275 47.697
65.6601 2333 48.3011
65.7777 2364 48.621
65.8952 2404 49.0306
66.0128 2391 48.8979
66.1304 2364 48.621
66.2479 2451 49.5076
66.3655 2494 49.94
66.483 2540 50.3984
66.6005 2542 50.4183
66.718 2364 48.621
66.8355 2436 49.3559
66.953 2329 48.2597
67.0705 2458 49.5782
67.1879 2523 50.2295
67.3054 2524 50.2394
67.4228 2524 50.2394
67.5402 2613 51.1175
67.6576 2560 50.5964
67.7749 2521 50.2096
67.8923 2435 49.3457
68.0096 2545 50.448
68.1269 2387 48.8569
68.2442 2259 47.5289
68.3614 2322 48.1871
68.4787 2290 47.8539
68.5958 2219 47.1063
68.713 2143 46.2925
68.8302 2082 45.6289
68.9473 2124 46.0869
69.0643 2121 46.0543
69.1814 2272 47.6655
69.2984 2326 48.2286
69.4154 2370 48.6826
69.5323 2441 49.4065
69.6492 2389 48.8774
69.7661 2316 48.1248
69.8829 2271 47.655
69.9997 2268 47.6235
70.1165 2258 47.5184
70.2332 2295 47.9062
70.3499 2151 46.3789
70.4665 2038 45.1442
70.5831 1919 43.8064
70.6996 1840 42.8952
70.8161 1688 41.0853
70.9326 1663 40.7799
71.049 1551 39.3827
71.1653 1453 38.1182
71.2817 1446 38.0263
71.3979 1275 35.7071
71.5141 1196 34.5832
71.6303 1069 32.6956
71.7464 948 30.7896
71.8624 0 1
71.9784 0 1
72.0944 0 1
72.2102 0 1
72.3261 0 1
72.4418 0 1
72.5575 0 1
72.6732 0 1
75.1054 0 1
75.2209 0 1
75.3365 0 1
75.4521 0 1
75.5678 0 1
75.6835 0 1
75.7993 0 1
75.9151 0 1
76.031 0 1
76.147 1510 38.8587
76.263 1654 40.6694
76.3791 1992 44.6318
76.4952 1976 44.4522
76.6113 2174 46.6262
76.7276 2136 46.2169
76.8438 2092 45.7384
76.9601 2123 46.076
77.0765 2050 45.2769
77.1929 2018 44.9222
77.3093 2032 45.0777
77.4258 1971 44.3959
77.5423 1921 43.8292
77.6589 1901 43.6005
77.7755 1704 41.2795
77.8921 1741 41.7253
78.0088 1868 43.2204
78.1256 1888 43.4511
78.2423 1936 44
78.3591 1985 44.5533
78.4759 2009 44.8219
78.5928 2053 45.31
78.7097 2025 45
78.8266 2045 45.2217
78.9436 1978 44.4747
79.0606 2010 44.833
79.1776 2051 45.288
79.2946 2071 45.5082
79.4117 2108 45.913
79.5288 2003 44.7549
79.6459 2098 45.8039
79.7631 2055 45.3321
79.8802 2222 47.1381
79.9974 2172 46.6047
80.1147 2151 46.3789
80.2319 2249 47.4236
80.3491 2181 46.7012
80.4664 2247 47.4025
80.5837 2183 46.7226
80.701 2181 46.7012
80.8183 2053 45.31
80.9357 2161 46.4866
81.053 2053 45.31
81.1704 2116 46
81.2877 2021 44.9555
81.4051 1901 43.6005
81.5225 1918 43.795
81.6399 1711 41.3642
81.7573 1856 43.0813
81.8747 1922 43.8406
81.9922 1991 44.6206
82.1096 2107 45.9021
82.227 2070 45.4973
82.3444 2192 46.8188
82.4619 2143 46.2925
82.5793 2202 46.9255
82.6967 2096 45.7821
82.8142 2209 47
82.9316 2211 47.0213
83.049 2170 46.5833
83.1664 2169 46.5725
83.2838 2141 46.2709
83.4012 2089 45.7056
83.5186 2153 46.4004
83.636 2287 47.8226
83.7534 2360 48.5798
83.8708 2330 48.2701
83.9881 2363 48.6107
84.1055 2284 47.7912
84.2228 2298 47.9375
84.3401 2197 46.8722
84.4575 2270 47.6445
84.5747 2194 46.8402
84.692 2217 47.085
84.8093 2085 45.6618
84.9265 2035 45.111
85.0437 1973 44.4185
85.1609 1961 44.2832
85.2781 1962 44.2945
85.3952 1828 42.7551
85.5123 1980 44.4972
85.6294 2033 45.0888
85.7465 2155 46.422
85.8636 2180 46.6905
85.9806 2266 47.6025
86.0976 2289 47.8435
86.2145 2279 47.7389
86.3315 2364 48.621
86.4484 2329 48.2597
86.5652 2256 47.4974
86.682 2361 48.5901
86.7988 2186 46.7547
86.9156 2177 46.6583
87.0323 2258 47.5184
87.149 2203 46.9361
87.2657 2331 48.2804
87.3823 2187 46.7654
87.4988 2135 46.2061
87.6154 2245 47.3814
87.7318 2045 45.2217
87.8483 1979 44.486
87.9647 1874 43.2897
88.081 1683 41.0244
88.1973 1604 40.05
88.3136 1429 37.8021
88.4298 1346 36.6879
88.546 1123 33.5112
88.6621 1079 32.8481
88.7781 965 31.0644
88.8942 0 1
89.0101 0 1
89.126 0 1
89.2419 0 1
89.3577 0 1
89.4734 0 1
89.5891 0 1
89.7047 0 1
89.8203 0 1
89.9358 0 1
92.3269 0 1
92.4424 0 1
92.558 0 1
92.6736 0 1
92.7893 0 1
92.905 0 1
93.0208 0 1
93.1366 0 1
93.2525 0 1
93.3685 0 1
93.4845 0 1
93.6005 1738 41.6893
93.7167 2032 45.0777
93.8328 2068 45.4753
93.949 2204 46.9468
94.0653 2136 46.2169
94.1816 2140 46.2601
94.2979 1980 44.4972
94.4143 1928 43.909
94.5307 2020 44.9444
94.6472 2019 44.9333
94.7637 2160 46.4758
94.8803 2343 48.4045
94.9969 2290 47.8539
95.1135 2329 48.2597
95.2302 2430 49.295
95.3469 2407 49.0612
95.4637 2377 48.7545
95.5805 2411 49.1019
95.6973 2431 49.3052
95.8142 2364 48.621
95.9311 2333 48.3011
96.048 2360 48.5798
96.1649 2381 48.7955
96.2819 2242 47.3498
96.3989 2456 49.558
96.516 2413 49.1223
96.633 2567 50.6656
96.7501 2558 50.5767
96.8673 2536 50.3587
96.9844 2540 50.3984
97.1016 2472 49.7192
97.2188 2508 50.0799
97.336 2380 48.7852
97.4532 2370 48.6826
97.5704 2463 49.6286
97.6877 2372 48.7032
97.805 2221 47.1275
97.9223 2212 47.0319
98.0396 2271 47.655
98.1569 2196 46.8615
98.2743 2316 48.1248
98.3916 2441 49.4065
98.509 2494 49.94
98.6264 2606 51.049
98.7438 2623 51.2152
98.8612 2649 51.4684
98.9786 2574 50.7346
99.096 2554 50.5371
99.2134 2623 51.2152
99.3308 2642 51.4004
99.4482 2723 52.1824
99.5656 2575 50.7445
99.6831 2585 50.8429
99.8005 2549 50.4876
99.9179 2575 50.7445
100.035 2634 51.3225
100.153 2682 51.788
100.27 2693 51.8941
100.388 2626 51.2445
100.505 2663 51.6043
100.622 2543 50.4282
100.74 2465 49.6488
100.857 2468 49.679
100.975 2341 48.3839
101.092 2430 49.295
101.209 2474 49.7393
101.327 2398 48.9694
101.444 2401 49
101.561 2245 47.3814
101.679 2282 47.7703
101.796 2281 47.7598
101.913 2345 48.4252
102.03 2576 50.7543
102.148 2660 51.5752
102.265 2639 51.3712
102.382 2616 51.1468
102.499 2708 52.0384
102.616 2638 51.3615
102.733 2673 51.7011
102.851 2776 52.6878
102.968 2765 52.5833
103.085 2710 52.0577
103.202 2698 51.9423
103.319 2732 52.2685
103.436 2698 51.9423
103.552 2791 52.8299
103.669 2817 53.0754
103.786 2884 53.7029
103.903 3016 54.9181
104.02 2906 53.9073
104.137 2815 53.0566
104.253 2778 52.7067
104.37 2770 52.6308
104.487 2750 52.4404
104.603 2663 51.6043
104.72 2689 51.8556
104.836 2556 50.5569
104.953 2400 48.9898
105.069 2359 48.5695
105.186 2197 46.8722
105.302 2029 45.0444
105.418 2022 44.9667
105.535 1857 43.0929
105.651 1826 42.7317
105.767 1682 41.0122
105.883 1642 40.5216
105.999 1433 37.855
106.115 0 1
106.231 0 1
106.347 0 1
106.463 0 1
106.579 0 1
106.694 0 1
106.81 0 1
106.926 0 1
107.041 0 1
107.157 0 1
109.576 0 1
109.692 0 1
109.807 0 1
109.923 0 1
110.039 0 1
110.155 0 1
110.27 0 1
110.386 0 1
110.502 0 1
110.618 1300 36.0555
110.735 1759 41.9404
110.851 1992 44.6318
110.967 2238 47.3075
111.083 2411 49.1019
111.199 2409 49.0816
111.316 2547 50.4678
111.432 2590 50.892
111.549 2669 51.6624
111.665 2735 52.2972
111.782 2668 51.6527
111.898 2681 51.7784
112.015 2599 50.9804
112.132 2614 51.1273
112.248 2609 51.0784
112.365 2664 51.614
112.482 2873 53.6004
112.599 2699 51.9519
112.716 2748 52.4214
112.832 2669 51.6624
112.949 2667 51.643
113.066 2662 51.5946
113.183 2650 51.4782
113.3 2579 50.7839
113.417 2711 52.0673
113.534 2658 51.5558
113.652 2655 51.5267
113.769 2543 50.4282
113.886 2351 48.4871
114.003 2231 47.2335
114.12 2270 47.6445
114.238 2292 47.8748
114.355 2357 48.5489
114.472 2614 51.1273
114.589 2554 50.5371
114.707 2418 49.1732
114.824 2558 50.5767
114.942 2538 50.3786
115.059 2605 51.0392
115.176 2529 50.2892
115.294 2549 50.4876
115.411 2374 48.7237
115.529 2445 49.4469
115.646 2356 48.5386
115.764 2394 48.9285
115.881 2395 48.9387
115.999 2405 49.0408
116.116 2450 49.4975
116.234 2403 49.0204
116.351 2413 49.1223
116.469 2335 48.3218
116.586 2218 47.0956
116.704 2249 47.4236
116.821 2260 47.5395
116.939 2364 48.621
117.056 2339 48.3632
117.174 2227 47.1911
117.291 2285 47.8017
117.409 2152 46.3897
117.526 2041 45.1774
117.644 1938 44.0227
117.761 1972 44.4072
117.879 1982 44.5197
117.996 2179 46.6798
118.114 2189 46.7868
118.231 2134 46.1952
118.349 2316 48.1248
118.466 2184 46.7333
118.584 2233 47.2546
118.701 2389 48.8774
118.819 2260 47.5395
118.936 2243 47.3603
119.053 2224 47.1593
119.171 2127 46.1194
119.288 2079 45.5961
119.405 2131 46.1628
119.523 2267 47.613
119.64 2302 47.9792
119.757 2260 47.5395
119.875 2314 48.1041
119.992 2254 47.4763
120.109 2065 45.4423
120.226 2246 47.392
120.343 2186 46.7547
120.46 2131 46.1628
120.578 2197 46.8722
120.695 2197 46.8722
120.812 2153 46.4004
120.929 2199 46.8935
121.046 2147 46.3357
121.163 1995 44.6654
121.279 1909 43.6921
121.396 1808 42.5206
121.513 1687 41.0731
121.63 1817 42.6263
121.747 1812 42.5676
121.863 1834 42.8252
121.98 1836 42.8486
122.097 1827 42.7434
122.213 1820 42.6615
122.33 1756 41.9047
122.446 1706 41.3038
122.563 1688 41.0853
122.679 1450 38.0789
122.795 1348 36.7151
122.912 1331 36.4829
123.028 1266 35.5809
123.144 1243 35.2562
123.26 1152 33.9411
123.377 0 1
123.493 0 1
123.609 0 1
123.725 0 1
123.84 0 1
123.956 0 1
124.072 0 1
124.188 0 1
124.303 0 1
124.419 0 1
126.852 0 1
126.968 0 1
127.083 0 1
127.199 0 1
127.315 0 1
127.431 0 1
127.547 0 1
127.663 0 1
127.779 0 1
127.895 0 1
128.011 0 1
128.127 0 1
128.243 0 1
128.359 2188 46.7761
128.476 2258 47.5184
128.592 2376 48.7442
128.708 2465 49.6488
128.825 2402 49.0102
128.941 2363 48.6107
129.058 2553 50.5272
129.174 2409 49.0816
129.291 2401 49
129.408 2407 49.0612
129.524 2396 48.949
129.641 2446 49.4571
129.758 2488 49.8799
129.875 2535 50.3488
129.992 2499 49.99
130.108 2535 50.3488
130.225 2528 50.2792
130.342 2401 49
130.459 2315 48.1144
130.576 2435 49.3457
130.693 2251 47.4447
130.81 2296 47.9166
130.928 2521 50.2096
131.045 2703 51.9904
131.162 2928 54.111
131.279 3141 56.0446
131.396 3142 56.0535
131.513 3194 56.5155
131.631 3299 57.4369
131.748 3279 57.2626
131.865 3051 55.2359
131.983 3233 56.8595
132.1 3264 57.1314
132.217 3333 57.7321
132.335 3496 59.127
132.452 3610 60.0833
132.57 3713 60.9344
132.687 3786 61.5305
132.804 3975 63.0476
132.922 3871 62.2174
133.039 3968 62.9921
133.157 4062 63.7338
133.274 4131 64.2729
133.392 4140 64.3428
133.509 4200 64.8074
133.627 4153 64.4438
133.744 4068 63.7809
133.862 3990 63.1664
133.979 3895 62.4099
134.097 3699 60.8194
134.214 3751 61.2454
134.332 3677 60.6383
134.449 3616 60.1332
134.567 3855 62.0886
134.684 4077 63.8514
134.802 4332 65.8179
134.919 4485 66.9701
135.037 4452 66.7233
135.154 4292 65.5134
135.272 4190 64.7302
135.389 4090 63.9531
135.507 3987 63.1427
135.624 4113 64.1327
135.742 4181 64.6607
135.859 4222 64.9769
135.977 4311 65.6582
136.094 4331 65.8103
136.211 4247 65.169
136.329 4307 65.6277
136.446 4306 65.6201
136.564 4198 64.792
136.681 4292 65.5134
136.798 4344 65.909
136.915 4266 65.3146
137.033 4277 65.3988
137.15 4197 64.7843
137.267 4084 63.9062
137.384 4161 64.5058
137.502 3846 62.0161
137.619 3645 60.3738
137.736 3621 60.1747
137.853 3327 57.6802
137.97 3348 57.8619
138.087 3391 58.2323
138.204 3729 61.0655
138.321 4103 64.0547
138.438 4177 64.6297
138.555 4200 64.8074
138.672 4298 65.5591
138.788 4342 65.8939
138.905 4093 63.9766
139.022 3776 61.4492
139.139 3733 61.0983
139.255 3464 58.8558
139.372 3383 58.1636
139.488 3454 58.7707
139.605 3360 57.9655
139.721 3133 55.9732
139.838 3037 55.109
139.954 2964 54.4426
140.071 2719 52.144
140.187 2629 51.2738
140.303 2518 50.1797
140.419 2420 49.1935
140.535 2335 48.3218
140.652 2217 47.085
140.768 0 1
140.884 0 1
141 0 1
141.115 0 1
141.231 0 1
141.347 0 1
141.463 0 1
141.578 0 1
141.694 0 1
144.104 0 1
144.219 0 1
144.335 0 1
144.45 0 1
144.566 0 1
144.682 0 1
144.798 0 1
144.914 0 1
145.03 0 1
145.146 12716 112.765
145.262 14540 120.582
145.378 15415 124.157
145.494 16400 128.062
145.61 17337 131.67
145.726 18406 135.669
145.842 19739 140.496
145.959 21433 146.4
146.075 22764 150.877
146.192 23665 153.834
146.308 23406 152.99
146.425 22274 149.245
146.541 20994 144.893
146.658 17054 130.591
146.774 11051 105.124
146.891 8805 93.835
147.008 13563 116.46
147.125 18032 134.283
147.241 19268 138.809
147.358 19555 139.839
147.475 18886 137.426
147.592 18550 136.198
147.709 17777 133.33
147.826 16962 130.238
147.943 16300 127.671
148.06 15568 124.772
148.177 14631 120.959
148.294 13686 116.987
148.411 13091 114.416
148.528 12415 111.423
148.645 12248 110.671
148.762 11865 108.927
148.88 11420 106.864
148.997 10903 104.417
149.114 10127 100.633
149.231 10098 100.489
149.349 10037 100.185
149.466 9930 99.6494
149.583 10221 101.099
149.701 10199 100.99
149.818 10041 100.205
149.935 9937 99.6845
150.053 9398 96.9433
150.17 8342 91.3345
150.287 6834 82.668
150.405 6101 78.1089
150.522 6772 82.2922
150.64 8593 92.6984
150.757 9891 99.4535
150.875 10229 101.139
150.992 10118 100.588
151.11 10421 102.083
151.227 10216 101.074
151.344 10191 100.95
151.462 9619 98.0765
151.579 9154 95.6765
151.697 9590 97.9285
151.814 9357 96.7316
151.932 8916 94.4246
152.049 9106 95.4254
152.167 9168 95.7497
152.284 9461 97.2677
152.402 9982 99.91
152.519 9634 98.1529
152.636 9620 98.0816
152.754 9382 96.8607
152.871 9453 97.2265
152.989 9300 96.4365
153.106 9526 97.6012
153.223 8989 94.8103
153.341 9102 95.4044
153.458 8909 94.3875
153.575 8536 92.3905
153.693 7683 87.6527
153.81 6230 78.9303
153.927 5024 70.8802
154.044 4925 70.1783
154.162 6177 78.5939
154.279 7498 86.591
154.396 7458 86.3597
154.513 7534 86.7986
154.63 7495 86.5737
154.747 7390 85.9651
154.864 7305 85.4693
154.981 6922 83.1986
155.098 6993 83.6242
155.215 6584 81.1419
155.332 6527 80.7899
155.449 6467 80.4177
155.566 6358 79.7371
155.683 6550 80.9321
155.8 6519 80.7403
155.917 6723 81.9939
156.033 6775 82.3104
156.15 0 1
156.267 0 1
156.383 0 1
156.5 0 1
156.617 0 1
156.733 0 1
156.85 0 1
156.966 0 1
157.082 0 1
157.199 0 1
157.315 0 1
157.431 0 1
157.547 0 1
157.664 0 1
157.78 0 1
157.896 0 1
158.012 0 1
158.128 0 1
158.244 0 1
158.359 0 1
158.475 0 1
158.591 0 1
158.706 0 1
