
6.15755 0 1
6.2731 0 1
6.3887 0 1
6.50437 0 1
6.62009 0 1
6.73587 0 1
6.8517 0 1
6.96759 0 1
7.08353 0 1
7.19952 0 1
7.31557 0 1
7.43166 0 1
7.54781 0 1
7.664 0 1
7.78024 0 1
7.89653 0 1
8.01286 0 1
8.12924 0 1
8.24567 0 1
8.36213 0 1
8.47864 0 1
8.59519 0 1
8.71178 0 1
8.82841 0 1
8.94508 0 1
9.06179 0 1
9.17853 0 1
9.29531 0 1
9.41212 0 1
9.52897 0 1
9.64584 0 1
9.76276 0 1
9.8797 0 1
9.99667 0 1
10.1137 0 1
10.2307 0 1
10.3478 0 1
10.4648 0 1
10.5819 0 1
10.6991 0 1
10.8162 0 1
10.9334 0 1
11.0506 0 1
11.1678 0 1
11.285 0 1
11.4023 0 1
11.5196 0 1
11.6369 0 1
11.7542 0 1
11.8715 0 1
11.9888 0 1
12.1062 0 1
12.2235 0 1
12.3409 0 1
12.4582 0 1
12.5756 0 1
12.693 0 1
12.8104 0 1
12.9278 0 1
13.0452 0 1
13.1626 0 1
13.28 0 1
13.3974 0 1
13.5149 0 1
13.6323 0 1
13.7497 0 1
13.8671 0 1
13.9845 0 1
14.1019 0 1
14.2193 0 1
14.3367 0 1
14.4541 0 1
14.5714 0 1
14.6888 0 1
14.8062 0 1
14.9235 0 1
15.0408 581 24.1039
15.1581 591 24.3105
15.2755 634 25.1794
15.3927 625 25
15.51 621 24.9199
15.6273 615 24.7992
15.7445 652 25.5343
15.8617 592 24.3311
15.9789 594 24.3721
16.0961 569 23.8537
16.2132 600 24.4949
16.3304 574 23.9583
16.4475 616 24.8193
16.5646 617 24.8395
16.6816 669 25.865
16.7986 662 25.7294
16.9156 692 26.3059
17.0326 646 25.4165
17.1496 632 25.1396
17.2665 659 25.671
17.3833 651 25.5147
17.5002 648 25.4558
17.617 583 24.1454
17.7338 622 24.9399
17.8505 565 23.7697
17.9672 532 23.0651
18.0839 616 24.8193
18.2005 649 25.4755
18.3171 644 25.3772
18.4337 605 24.5967
18.5502 624 24.98
18.6666 674 25.9615
18.7831 638 25.2587
18.8994 664 25.7682
19.0158 597 24.4336
19.1321 654 25.5734
19.2483 621 24.9199
19.3645 566 23.7908
19.4806 497 22.2935
19.5967 466 21.587
19.7128 425 20.6155
19.8288 415 20.3715
19.9447 396 19.8997
20.0606 0 1
20.1764 0 1
20.2922 0 1
20.4079 0 1
20.5236 0 1
20.6392 0 1
20.7548 0 1
20.8702 0 1
23.3078 0 1
23.4233 0 1
23.539 0 1
23.6547 0 1
23.7704 0 1
23.8862 0 1
24.0021 0 1
24.118 0 1
24.234 0 1
24.35 0 1
24.4661 257 16.0312
24.5822 285 16.8819
24.6984 317 17.8045
24.8146 381 19.5192
24.9309 404 20.0998
25.0472 356 18.868
25.1636 475 21.7945
25.28 440 20.9762
25.3965 498 22.3159
25.513 535 23.1301
25.6296 551 23.4734
25.7462 603 24.5561
25.8628 596 24.4131
25.9795 647 25.4362
26.0962 574 23.9583
26.213 629 25.0799
26.3298 575 23.9792
26.4466 562 23.7065
26.5635 515 22.6936
26.6804 503 22.4277
26.7973 527 22.9565
26.9143 552 23.4947
27.0313 541 23.2594
27.1483 582 24.1247
27.2653 569 23.8537
27.3824 535 23.1301
27.4996 559 23.6432
27.6167 595 24.3926
27.7339 531 23.0434
27.8511 546 23.3666
27.9683 496 22.2711
28.0855 504 22.4499
28.2028 511 22.6053
28.3201 473 21.7486
28.4374 466 21.587
28.5547 445 21.095
28.6721 482 21.9545
28.7894 501 22.383
28.9068 521 22.8254
29.0242 545 23.3452
29.1416 587 24.2281
29.259 574 23.9583
29.3764 539 23.2164
29.4939 624 24.98
29.6113 571 23.8956
29.7288 515 22.6936
29.8463 509 22.561
29.9638 447 21.1424
30.0812 488 22.0907
30.1987 460 21.4476
30.3162 467 21.6102
30.4337 508 22.5389
30.5512 509 22.561
30.6687 519 22.7816
30.7862 527 22.9565
30.9037 531 23.0434
31.0212 545 23.3452
31.1387 553 23.516
31.2562 522 22.8473
31.3737 565 23.7697
31.4912 511 22.6053
31.6087 520 22.8035
31.7262 470 21.6795
31.8436 484 22
31.9611 452 21.2603
32.0785 462 21.4942
32.1959 432 20.7846
32.3134 477 21.8403
32.4308 495 22.2486
32.5482 519 22.7816
32.6655 531 23.0434
32.7829 488 22.0907
32.9002 553 23.516
33.0176 528 22.9783
33.1349 518 22.7596
33.2522 531 23.0434
33.3694 498 22.3159
33.4867 467 21.6102
33.6039 500 22.3607
33.7211 455 21.3307
33.8383 450 21.2132
33.9554 466 21.587
34.0725 472 21.7256
34.1896 508 22.5389
34.3067 475 21.7945
34.4237 502 22.4054
34.5407 515 22.6936
34.6577 486 22.0454
34.7746 558 23.622
34.8915 514 22.6716
35.0084 501 22.383
35.1252 470 21.6795
35.242 419 20.4695
35.3587 445 21.095
35.4755 408 20.199
35.5921 417 20.4206
35.7088 402 20.0499
35.8254 426 20.6398
35.9419 418 20.445
36.0584 428 20.6882
36.1749 480 21.9089
36.2913 437 20.9045
36.4077 430 20.7364
36.524 469 21.6564
36.6403 451 21.2368
36.7565 380 19.4936
36.8727 424 20.5913
36.9889 402 20.0499
37.1049 343 18.5203
37.221 0 1
37.3369 0 1
37.4529 0 1
37.5687 0 1
37.6845 0 1
37.8003 0 1
37.916 0 1
38.0316 0 1
38.1472 0 1
40.5851 0 1
40.7008 0 1
40.8164 0 1
40.9322 0 1
41.048 0 1
41.1639 0 1
41.2798 0 1
41.3958 0 1
41.5118 0 1
41.6279 0 1
41.744 235 15.3297
41.8602 251 15.843
41.9765 282 16.7929
42.0928 276 16.6132
42.2091 311 17.6352
42.3255 288 16.9706
42.4419 300 17.3205
42.5584 283 16.8226
42.675 313 17.6918
42.7915 362 19.0263
42.9081 387 19.6723
43.0248 385 19.6214
43.1415 380 19.4936
43.2582 399 19.975
43.375 386 19.6469
43.4918 421 20.5183
43.6087 413 20.3224
43.7256 414 20.347
43.8425 395 19.8746
43.9595 403 20.0749
44.0765 400 20
44.1935 382 19.5448
44.3106 357 18.8944
44.4277 355 18.8414
44.5448 330 18.1659
44.6619 309 17.5784
44.7791 367 19.1572
44.8963 382 19.5448
45.0136 366 19.1311
45.1308 403 20.0749
45.2481 404 20.0998
45.3654 434 20.8327
45.4827 400 20
45.6001 401 20.025
45.7174 406 20.1494
45.8348 400 20
45.9522 381 19.5192
46.0697 340 18.4391
46.1871 355 18.8414
46.3046 347 18.6279
46.422 357 18.8944
46.5395 377 19.4165
46.657 402 20.0499
46.7745 416 20.3961
46.892 433 20.8087
47.0096 436 20.8806
47.1271 461 21.4709
47.2446 441 21
47.3622 430 20.7364
47.4797 387 19.6723
47.5973 418 20.445
47.7149 420 20.4939
47.8324 370 19.2354
47.95 404 20.0998
48.0675 348 18.6548
48.1851 337 18.3576
48.3027 343 18.5203
48.4202 336 18.3303
48.5378 391 19.7737
48.6554 399 19.975
48.7729 458 21.4009
48.8904 452 21.2603
49.008 440 20.9762
49.1255 425 20.6155
49.243 430 20.7364
49.3605 416 20.3961
49.478 360 18.9737
49.5955 368 19.1833
49.713 349 18.6815
49.8304 330 18.1659
49.9479 336 18.3303
50.0653 354 18.8149
50.1827 381 19.5192
50.3001 433 20.8087
50.4175 434 20.8327
50.5348 419 20.4695
50.6521 451 21.2368
50.7694 405 20.1246
50.8867 418 20.445
51.004 444 21.0713
51.1212 404 20.0998
51.2384 403 20.0749
51.3556 389 19.7231
51.4727 377 19.4165
51.5899 327 18.0831
51.707 328 18.1108
51.824 307 17.5214
51.9411 357 18.8944
52.0581 401 20.025
52.175 381 19.5192
52.2919 449 21.1896
52.4088 447 21.1424
52.5257 443 21.0476
52.6425 457 21.3776
52.7593 430 20.7364
52.876 363 19.0526
52.9927 387 19.6723
53.1094 383 19.5704
53.226 378 19.4422
53.3426 349 18.6815
53.4591 362 19.0263
53.5756 331 18.1934
53.692 358 18.9209
53.8084 332 18.2209
53.9248 338 18.3848
54.0411 367 19.1572
54.1573 320 17.8885
54.2735 0 1
54.3896 0 1
54.5057 0 1
54.6217 0 1
54.7377 0 1
54.8537 0 1
54.9695 0 1
55.0853 0 1
55.2011 0 1
55.3168 0 1
55.4324 0 1
57.824 0 1
57.9396 0 1
58.0553 0 1
58.1711 0 1
58.2869 0 1
58.4028 0 1
58.5187 0 1
58.6347 0 1
58.7508 0 1
58.8669 0 1
58.983 283 16.8226
59.0992 313 17.6918
59.2155 333 18.2483
59.3318 399 19.975
59.4482 443 21.0476
59.5646 455 21.3307
59.681 468 21.6333
59.7975 500 22.3607
59.9141 555 23.5584
60.0306 505 22.4722
60.1473 498 22.3159
60.2639 515 22.6936
60.3807 484 22
60.4974 440 20.9762
60.6142 443 21.0476
60.731 462 21.4942
60.8479 484 22
60.9648 538 23.1948
61.0818 581 24.1039
61.1987 516 22.7156
61.3158 593 24.3516
61.4328 574 23.9583
61.5499 502 22.4054
61.667 524 22.891
61.7841 468 21.6333
61.9013 465 21.5639
62.0185 469 21.6564
62.1357 470 21.6795
62.253 553 23.516
62.3702 484 22
62.4875 546 23.3666
62.6049 547 23.388
62.7222 560 23.6643
62.8396 553 23.516
62.9569 595 24.3926
63.0743 586 24.2074
63.1918 519 22.7816
63.3092 575 23.9792
63.4267 585 24.1868
63.5441 521 22.8254
63.6616 475 21.7945
63.7791 475 21.7945
63.8966 468 21.6333
64.0142 467 21.6102
64.1317 444 21.0713
64.2492 482 21.9545
64.3668 496 22.2711
64.4843 517 22.7376
64.6019 576 24
64.7195 549 23.4307
64.837 539 23.2164
64.9546 550 23.4521
65.0722 547 23.388
65.1898 548 23.4094
65.3074 507 22.5167
65.4249 420 20.4939
65.5425 474 21.7715
65.6601 409 20.2237
65.7777 480 21.9089
65.8952 516 22.7156
66.0128 549 23.4307
66.1304 525 22.9129
66.2479 572 23.9165
66.3655 546 23.3666
66.483 556 23.5797
66.6005 572 23.9165
66.718 590 24.2899
66.8355 561 23.6854
66.953 562 23.7065
67.0705 562 23.7065
67.1879 574 23.9583
67.3054 503 22.4277
67.4228 523 22.8692
67.5402 466 21.587
67.6576 435 20.8567
67.7749 463 21.5174
67.8923 453 21.2838
68.0096 467 21.6102
68.1269 486 22.0454
68.2442 554 23.5372
68.3614 556 23.5797
68.4787 550 23.4521
68.5958 564 23.7487
68.713 555 23.5584
68.8302 567 23.8118
68.9473 503 22.4277
69.0643 478 21.8632
69.1814 423 20.567
69.2984 424 20.5913
69.4154 455 21.3307
69.5323 523 22.8692
69.6492 504 22.4499
69.7661 540 23.2379
69.8829 564 23.7487
69.9997 548 23.4094
70.1165 526 22.9347
70.2332 569 23.8537
70.3499 544 23.3238
70.4665 495 22.2486
70.5831 495 22.2486
70.6996 501 22.383
70.8161 423 20.567
70.9326 383 19.5704
71.049 380 19.4936
71.1653 310 17.6068
71.2817 261 16.1555
71.3979 222 14.8997
71.5141 219 14.7986
71.6303 218 14.7648
71.7464 173 13.1529
71.8624 0 1
71.9784 0 1
72.0944 0 1
72.2102 0 1
72.3261 0 1
72.4418 0 1
72.5575 0 1
72.6732 0 1
75.1054 0 1
75.2209 0 1
75.3365 0 1
75.4521 0 1
75.5678 0 1
75.6835 0 1
75.7993 0 1
75.9151 0 1
76.031 0 1
76.147 409 20.2237
76.263 452 21.2603
76.3791 422 20.5426
76.4952 429 20.7123
76.6113 440 20.9762
76.7276 407 20.1742
76.8438 488 22.0907
76.9601 500 22.3607
77.0765 560 23.6643
77.1929 568 23.8328
77.3093 657 25.632
77.4258 613 24.7588
77.5423 654 25.5734
77.6589 719 26.8142
77.7755 711 26.6646
77.8921 714 26.7208
78.0088 737 27.1477
78.1256 763 27.6225
78.2423 725 26.9258
78.3591 687 26.2107
78.4759 822 28.6705
78.5928 974 31.209
78.7097 1127 33.5708
78.8266 1207 34.7419
78.9436 1260 35.4965
79.0606 1206 34.7275
79.1776 1222 34.9571
79.2946 1358 36.8511
79.4117 1465 38.2753
79.5288 1459 38.1969
79.6459 1553 39.4081
79.7631 1466 38.2884
79.8802 1489 38.5876
79.9974 1558 39.4715
80.1147 1588 39.8497
80.2319 1411 37.5633
80.3491 1468 38.3145
80.4664 1536 39.1918
80.5837 1474 38.3927
80.701 1466 38.2884
80.8183 1574 39.6737
80.9357 1640 40.4969
81.053 1587 39.8372
81.1704 1624 40.2989
81.2877 1669 40.8534
81.4051 1662 40.7676
81.5225 1588 39.8497
81.6399 1545 39.3065
81.7573 1452 38.1051
81.8747 1306 36.1386
81.9922 1247 35.3129
82.1096 1319 36.318
82.227 1408 37.5233
82.3444 1447 38.0395
82.4619 1549 39.3573
82.5793 1572 39.6485
82.6967 1331 36.4829
82.8142 1241 35.2278
82.9316 1407 37.51
83.049 1499 38.7169
83.1664 1466 38.2884
83.2838 1476 38.4187
83.4012 1311 36.2077
83.5186 1162 34.0881
83.636 1121 33.4813
83.7534 991 31.4802
83.8708 918 30.2985
83.9881 879 29.6479
84.1055 837 28.931
84.2228 783 27.9821
84.3401 725 26.9258
84.4575 683 26.1343
84.5747 783 27.9821
84.692 732 27.0555
84.8093 724 26.9072
84.9265 700 26.4575
85.0437 633 25.1595
85.1609 638 25.2587
85.2781 584 24.1661
85.3952 524 22.891
85.5123 420 20.4939
85.6294 477 21.8403
85.7465 482 21.9545
85.8636 526 22.9347
85.9806 531 23.0434
86.0976 542 23.2809
86.2145 605 24.5967
86.3315 592 24.3311
86.4484 568 23.8328
86.5652 598 24.454
86.682 635 25.1992
86.7988 590 24.2899
86.9156 617 24.8395
87.0323 555 23.5584
87.149 539 23.2164
87.2657 565 23.7697
87.3823 480 21.9089
87.4988 431 20.7605
87.6154 411 20.2731
87.7318 388 19.6977
87.8483 393 19.8242
87.9647 388 19.6977
88.081 372 19.2873
88.1973 453 21.2838
88.3136 459 21.4243
88.4298 423 20.567
88.546 406 20.1494
88.6621 378 19.4422
88.7781 301 17.3494
88.8942 0 1
89.0101 0 1
89.126 0 1
89.2419 0 1
89.3577 0 1
89.4734 0 1
89.5891 0 1
89.7047 0 1
89.8203 0 1
89.9358 0 1
92.3269 0 1
92.4424 0 1
92.558 0 1
92.6736 0 1
92.7893 0 1
92.905 0 1
93.0208 0 1
93.1366 0 1
93.2525 0 1
93.3685 0 1
93.4845 0 1
93.6005 540 23.2379
93.7167 586 24.2074
93.8328 633 25.1595
93.949 663 25.7488
94.0653 733 27.074
94.1816 698 26.4197
94.2979 818 28.6007
94.4143 820 28.6356
94.5307 822 28.6705
94.6472 771 27.7669
94.7637 766 27.6767
94.8803 673 25.9422
94.9969 782 27.9643
95.1135 853 29.2062
95.2302 946 30.7571
95.3469 1086 32.9545
95.4637 1027 32.0468
95.5805 1084 32.9242
95.6973 1135 33.6898
95.8142 1054 32.4654
95.9311 1068 32.6803
96.048 1119 33.4515
96.1649 1159 34.0441
96.2819 1154 33.9706
96.3989 1070 32.7109
96.516 914 30.2324
96.633 781 27.9464
96.7501 630 25.0998
96.8673 696 26.3818
96.9844 783 27.9821
97.1016 1004 31.686
97.2188 1126 33.5559
97.336 1209 34.7707
97.4532 1270 35.6371
97.5704 1266 35.5809
97.6877 1365 36.9459
97.805 1277 35.7351
97.9223 1317 36.2905
98.0396 1233 35.1141
98.1569 1202 34.6699
98.2743 1088 32.9848
98.3916 1069 32.6956
98.509 985 31.3847
98.6264 993 31.5119
98.7438 1034 32.1559
98.8612 1091 33.0303
98.9786 1091 33.0303
99.096 1052 32.4345
99.2134 1078 32.8329
99.3308 1057 32.5115
99.4482 975 31.225
99.5656 1007 31.7333
99.6831 990 31.4643
99.8005 889 29.8161
99.9179 869 29.4788
100.035 769 27.7308
100.153 793 28.1603
100.27 682 26.1151
100.388 664 25.7682
100.505 645 25.3969
100.622 643 25.3574
100.74 664 25.7682
100.857 677 26.0192
100.975 720 26.8328
101.092 745 27.2947
101.209 740 27.2029
101.327 719 26.8142
101.444 743 27.258
101.561 672 25.923
101.679 691 26.2869
101.796 550 23.4521
101.913 506 22.4944
102.03 486 22.0454
102.148 538 23.1948
102.265 542 23.2809
102.382 594 24.3721
102.499 630 25.0998
102.616 684 26.1534
102.733 636 25.219
102.851 691 26.2869
102.968 710 26.6458
103.085 704 26.533
103.202 654 25.5734
103.319 697 26.4008
103.436 605 24.5967
103.552 629 25.0799
103.669 597 24.4336
103.786 545 23.3452
103.903 509 22.561
104.02 460 21.4476
104.137 533 23.0868
104.253 522 22.8473
104.37 622 24.9399
104.487 598 24.454
104.603 624 24.98
104.72 623 24.96
104.836 656 25.6125
104.953 624 24.98
105.069 548 23.4094
105.186 483 21.9773
105.302 451 21.2368
105.418 404 20.0998
105.535 365 19.105
105.651 402 20.0499
105.767 400 20
105.883 397 19.9249
105.999 347 18.6279
106.115 0 1
106.231 0 1
106.347 0 1
106.463 0 1
106.579 0 1
106.694 0 1
106.81 0 1
106.926 0 1
107.041 0 1
107.157 0 1
109.576 0 1
109.692 0 1
109.807 0 1
109.923 0 1
110.039 0 1
110.155 0 1
110.27 0 1
110.386 0 1
110.502 0 1
110.618 190 13.784
110.735 276 16.6132
110.851 318 17.8326
110.967 348 18.6548
111.083 376 19.3907
111.199 430 20.7364
111.316 469 21.6564
111.432 472 21.7256
111.549 537 23.1733
111.665 496 22.2711
111.782 546 23.3666
111.898 511 22.6053
112.015 466 21.587
112.132 510 22.5832
112.248 464 21.5407
112.365 444 21.0713
112.482 410 20.2485
112.599 386 19.6469
112.716 400 20
112.832 423 20.567
112.949 480 21.9089
113.066 495 22.2486
113.183 494 22.2261
113.3 505 22.4722
113.417 509 22.561
113.534 475 21.7945
113.652 518 22.7596
113.769 431 20.7605
113.886 403 20.0749
114.003 378 19.4422
114.12 380 19.4936
114.238 413 20.3224
114.355 441 21
114.472 458 21.4009
114.589 477 21.8403
114.707 496 22.2711
114.824 533 23.0868
114.942 539 23.2164
115.059 507 22.5167
115.176 516 22.7156
115.294 502 22.4054
115.411 514 22.6716
115.529 519 22.7816
115.646 466 21.587
115.764 429 20.7123
115.881 458 21.4009
115.999 421 20.5183
116.116 386 19.6469
116.234 365 19.105
116.351 437 20.9045
116.469 438 20.9284
116.586 458 21.4009
116.704 493 22.2036
116.821 495 22.2486
116.939 488 22.0907
117.056 516 22.7156
117.174 471 21.7025
117.291 446 21.1187
117.409 427 20.664
117.526 430 20.7364
117.644 385 19.6214
117.761 385 19.6214
117.879 412 20.2978
117.996 447 21.1424
118.114 472 21.7256
118.231 472 21.7256
118.349 507 22.5167
118.466 545 23.3452
118.584 510 22.5832
118.701 535 23.1301
118.819 476 21.8174
118.936 492 22.1811
119.053 492 22.1811
119.171 472 21.7256
119.288 436 20.8806
119.405 461 21.4709
119.523 397 19.9249
119.64 402 20.0499
119.757 344 18.5472
119.875 349 18.6815
119.992 399 19.975
120.109 416 20.3961
120.226 436 20.8806
120.343 451 21.2368
120.46 459 21.4243
120.578 443 21.0476
120.695 468 21.6333
120.812 450 21.2132
120.929 425 20.6155
121.046 419 20.4695
121.163 380 19.4936
121.279 366 19.1311
121.396 354 18.8149
121.513 353 18.7883
121.63 393 19.8242
121.747 409 20.2237
121.863 430 20.7364
121.98 371 19.2614
122.097 437 20.9045
122.213 392 19.799
122.33 410 20.2485
122.446 379 19.4679
122.563 338 18.3848
122.679 341 18.4662
122.795 315 17.7482
122.912 303 17.4069
123.028 274 16.5529
123.144 229 15.1327
123.26 166 12.8841
123.377 0 1
123.493 0 1
123.609 0 1
123.725 0 1
123.84 0 1
123.956 0 1
124.072 0 1
124.188 0 1
124.303 0 1
124.419 0 1
126.852 0 1
126.968 0 1
127.083 0 1
127.199 0 1
127.315 0 1
127.431 0 1
127.547 0 1
127.663 0 1
127.779 0 1
127.895 0 1
128.011 0 1
128.127 0 1
128.243 0 1
128.359 424 20.5913
128.476 393 19.8242
128.592 458 21.4009
128.708 413 20.3224
128.825 367 19.1572
128.941 404 20.0998
129.058 426 20.6398
129.174 384 19.5959
129.291 426 20.6398
129.408 490 22.1359
129.524 500 22.3607
129.641 465 21.5639
129.758 516 22.7156
129.875 503 22.4277
129.992 485 22.0227
130.108 385 19.6214
130.225 392 19.799
130.342 406 20.1494
130.459 371 19.2614
130.576 427 20.664
130.693 478 21.8632
130.81 502 22.4054
130.928 467 21.6102
131.045 470 21.6795
131.162 492 22.1811
131.279 509 22.561
131.396 539 23.2164
131.513 482 21.9545
131.631 490 22.1359
131.748 486 22.0454
131.865 495 22.2486
131.983 453 21.2838
132.1 451 21.2368
132.217 386 19.6469
132.335 411 20.2731
132.452 372 19.2873
132.57 424 20.5913
132.687 455 21.3307
132.804 421 20.5183
132.922 468 21.6333
133.039 488 22.0907
133.157 447 21.1424
133.274 473 21.7486
133.392 478 21.8632
133.509 479 21.8861
133.627 436 20.8806
133.744 431 20.7605
133.862 387 19.6723
133.979 374 19.3391
134.097 403 20.0749
134.214 429 20.7123
134.332 432 20.7846
134.449 450 21.2132
134.567 445 21.095
134.684 485 22.0227
134.802 441 21
134.919 439 20.9523
135.037 514 22.6716
135.154 482 21.9545
135.272 485 22.0227
135.389 415 20.3715
135.507 439 20.9523
135.624 418 20.445
135.742 419 20.4695
135.859 422 20.5426
135.977 390 19.7484
136.094 418 20.445
136.211 418 20.445
136.329 414 20.347
136.446 459 21.4243
136.564 475 21.7945
136.681 536 23.1517
136.798 469 21.6564
136.915 471 21.7025
137.033 497 22.2935
137.15 451 21.2368
137.267 415 20.3715
137.384 412 20.2978
137.502 384 19.5959
137.619 367 19.1572
137.736 354 18.8149
137.853 394 19.8494
137.97 440 20.9762
138.087 410 20.2485
138.204 470 21.6795
138.321 447 21.1424
138.438 468 21.6333
138.555 470 21.6795
138.672 494 22.2261
138.788 430 20.7364
138.905 418 20.445
139.022 403 20.0749
139.139 432 20.7846
139.255 356 18.868
139.372 329 18.1384
139.488 308 17.5499
139.605 290 17.0294
139.721 267 16.3401
139.838 255 15.9687
139.954 266 16.3095
140.071 272 16.4924
140.187 290 17.0294
140.303 276 16.6132
140.419 216 14.6969
140.535 221 14.8661
140.652 191 13.8203
140.768 0 1
140.884 0 1
141 0 1
141.115 0 1
141.231 0 1
141.347 0 1
141.463 0 1
141.578 0 1
141.694 0 1
144.104 0 1
144.219 0 1
144.335 0 1
144.45 0 1
144.566 0 1
144.682 0 1
144.798 0 1
144.914 0 1
145.03 0 1
145.146 314 17.72
145.262 297 17.2337
145.378 315 17.7482
145.494 365 19.105
145.61 357 18.8944
145.726 368 19.1833
145.842 364 19.0788
145.959 347 18.6279
146.075 337 18.3576
146.192 295 17.1756
146.308 260 16.1245
146.425 318 17.8326
146.541 300 17.3205
146.658 320 17.8885
146.774 297 17.2337
146.891 316 17.7764
147.008 324 18
147.125 360 18.9737
147.241 312 17.6635
147.358 386 19.6469
147.475 374 19.3391
147.592 367 19.1572
147.709 348 18.6548
147.826 333 18.2483
147.943 340 18.4391
148.06 333 18.2483
148.177 299 17.2916
148.294 316 17.7764
148.411 294 17.1464
148.528 331 18.1934
148.645 323 17.9722
148.762 330 18.1659
148.88 337 18.3576
148.997 391 19.7737
149.114 355 18.8414
149.231 344 18.5472
149.349 392 19.799
149.466 337 18.3576
149.583 335 18.303
149.701 325 18.0278
149.818 359 18.9473
149.935 330 18.1659
150.053 297 17.2337
150.17 311 17.6352
150.287 310 17.6068
150.405 299 17.2916
150.522 330 18.1659
150.64 336 18.3303
150.757 343 18.5203
150.875 357 18.8944
150.992 355 18.8414
151.11 331 18.1934
151.227 337 18.3576
151.344 349 18.6815
151.462 357 18.8944
151.579 346 18.6011
151.697 306 17.4929
151.814 319 17.8606
151.932 288 16.9706
152.049 294 17.1464
152.167 321 17.9165
152.284 278 16.6733
152.402 280 16.7332
152.519 324 18
152.636 359 18.9473
152.754 349 18.6815
152.871 353 18.7883
152.989 358 18.9209
153.106 341 18.4662
153.223 338 18.3848
153.341 309 17.5784
153.458 303 17.4069
153.575 264 16.2481
153.693 289 17
153.81 290 17.0294
153.927 306 17.4929
154.044 302 17.3781
154.162 333 18.2483
154.279 322 17.9444
154.396 357 18.8944
154.513 343 18.5203
154.63 380 19.4936
154.747 336 18.3303
154.864 323 17.9722
154.981 324 18
155.098 330 18.1659
155.215 340 18.4391
155.332 313 17.6918
155.449 278 16.6733
155.566 320 17.8885
155.683 274 16.5529
155.8 298 17.2627
155.917 301 17.3494
156.033 255 15.9687
156.15 0 1
156.267 0 1
156.383 0 1
156.5 0 1
156.617 0 1
156.733 0 1
156.85 0 1
156.966 0 1
157.082 0 1
157.199 0 1
157.315 0 1
157.431 0 1
157.547 0 1
157.664 0 1
157.78 0 1
157.896 0 1
158.012 0 1
158.128 0 1
158.244 0 1
158.359 0 1
158.475 0 1
158.591 0 1
158.706 0 1
