
6.15755 0 1
6.2731 0 1
6.3887 0 1
6.50437 0 1
6.62009 0 1
6.73587 0 1
6.8517 0 1
6.96759 0 1
7.08353 0 1
7.19952 0 1
7.31557 0 1
7.43166 0 1
7.54781 0 1
7.664 0 1
7.78024 0 1
7.89653 0 1
8.01286 0 1
8.12924 0 1
8.24567 0 1
8.36213 0 1
8.47864 0 1
8.59519 0 1
8.71178 0 1
8.82841 0 1
8.94508 0 1
9.06179 0 1
9.17853 0 1
9.29531 0 1
9.41212 0 1
9.52897 0 1
9.64584 0 1
9.76276 0 1
9.8797 0 1
9.99667 0 1
10.1137 0 1
10.2307 0 1
10.3478 0 1
10.4648 0 1
10.5819 0 1
10.6991 0 1
10.8162 0 1
10.9334 0 1
11.0506 0 1
11.1678 0 1
11.285 0 1
11.4023 0 1
11.5196 0 1
11.6369 0 1
11.7542 0 1
11.8715 0 1
11.9888 0 1
12.1062 0 1
12.2235 0 1
12.3409 0 1
12.4582 0 1
12.5756 0 1
12.693 0 1
12.8104 0 1
12.9278 0 1
13.0452 0 1
13.1626 0 1
13.28 0 1
13.3974 0 1
13.5149 0 1
13.6323 0 1
13.7497 0 1
13.8671 0 1
13.9845 0 1
14.1019 0 1
14.2193 0 1
14.3367 0 1
14.4541 0 1
14.5714 0 1
14.6888 0 1
14.8062 0 1
14.9235 0 1
15.0408 0 0
15.1581 0 0
15.2755 0 0
15.3927 0 0
15.51 0 0
15.6273 0 0
15.7445 0 0
15.8617 0 0
15.9789 0 0
16.0961 0 0
16.2132 0 0
16.3304 0 0
16.4475 0 0
16.5646 0 0
16.6816 0 0
16.7986 0 0
16.9156 0 0
17.0326 0 0
17.1496 0 0
17.2665 0 0
17.3833 0 0
17.5002 0 0
17.617 0 0
17.7338 0 0
17.8505 0 0
17.9672 0 0
18.0839 0 0
18.2005 0 0
18.3171 0 0
18.4337 0 0
18.5502 0 0
18.6666 0 0
18.7831 0 0
18.8994 0 0
19.0158 0 0
19.1321 0 0
19.2483 0 0
19.3645 0 0
19.4806 0 0
19.5967 0 0
19.7128 0 0
19.8288 0 0
19.9447 0 0
20.0606 0 1
20.1764 0 1
20.2922 0 1
20.4079 0 1
20.5236 0 1
20.6392 0 1
20.7548 0 1
20.8702 0 1
23.3078 0 1
23.4233 0 1
23.539 0 1
23.6547 0 1
23.7704 0 1
23.8862 0 1
24.0021 0 1
24.118 0 1
24.234 0 1
24.35 0 1
24.4661 180256 424.566
24.5822 206017 453.891
24.6984 228075 477.572
24.8146 249819 499.819
24.9309 268296 517.973
25.0472 285529 534.349
25.1636 300432 548.117
25.28 316524 562.605
25.3965 328723 573.344
25.513 338055 581.425
25.6296 349801 591.44
25.7462 354693 595.561
25.8628 355705 596.41
25.9795 355576 596.302
26.0962 355254 596.032
26.213 353385 594.462
26.3298 350407 591.952
26.4466 345101 587.453
26.5635 343985 586.502
26.6804 344900 587.282
26.7973 346323 588.492
26.9143 346837 588.929
27.0313 345703 587.965
27.1483 354263 595.2
27.2653 358881 599.067
27.3824 361956 601.628
27.4996 361506 601.254
27.6167 355287 596.06
27.7339 348857 590.641
27.8511 339240 582.443
27.9683 332269 576.428
28.0855 326557 571.452
28.2028 320994 566.563
28.3201 317248 563.248
28.4374 313805 560.183
28.5547 314358 560.676
28.6721 312102 558.661
28.7894 311417 558.047
28.9068 308506 555.433
29.0242 308548 555.471
29.1416 308202 555.159
29.259 307327 554.371
29.3764 306777 553.875
29.4939 303807 551.187
29.6113 303329 550.753
29.7288 300718 548.378
29.8463 301243 548.856
29.9638 299325 547.106
30.0812 301410 549.008
30.1987 302073 549.612
30.3162 302855 550.323
30.4337 304219 551.561
30.5512 306884 553.971
30.6687 310472 557.2
30.7862 316241 562.353
30.9037 318727 564.559
31.0212 323532 568.799
31.1387 322056 567.5
31.2562 315080 561.32
31.3737 309798 556.595
31.4912 303541 550.946
31.6087 298431 546.288
31.7262 294288 542.483
31.8436 290128 538.635
31.9611 287696 536.373
32.0785 284259 533.159
32.1959 284365 533.259
32.3134 284906 533.766
32.4308 283395 532.349
32.5482 281980 531.018
32.6655 282906 531.889
32.7829 283489 532.437
32.9002 283146 532.115
33.0176 281230 530.311
33.1349 280135 529.278
33.2522 278230 527.475
33.3694 276020 525.376
33.4867 275394 524.78
33.6039 274768 524.183
33.7211 275414 524.799
33.8383 276353 525.693
33.9554 276530 525.861
34.0725 279855 529.013
34.1896 284527 533.411
34.3067 288011 536.667
34.4237 292763 541.076
34.5407 296345 544.376
34.6577 300187 547.893
34.7746 298283 546.153
34.8915 295002 543.141
35.0084 288385 537.015
35.1252 284331 533.227
35.242 279838 528.997
35.3587 277147 526.448
35.4755 273426 522.902
35.5921 270453 520.051
35.7088 266685 516.416
35.8254 262529 512.376
35.9419 258461 508.391
36.0584 254385 504.366
36.1749 248128 498.124
36.2913 242594 492.538
36.4077 236110 485.912
36.524 231956 481.618
36.6403 225491 474.859
36.7565 218542 467.485
36.8727 210174 458.447
36.9889 201786 449.206
37.1049 189903 435.779
37.221 0 1
37.3369 0 1
37.4529 0 1
37.5687 0 1
37.6845 0 1
37.8003 0 1
37.916 0 1
38.0316 0 1
38.1472 0 1
40.5851 0 1
40.7008 0 1
40.8164 0 1
40.9322 0 1
41.048 0 1
41.1639 0 1
41.2798 0 1
41.3958 0 1
41.5118 0 1
41.6279 0 1
41.744 116240 340.94
41.8602 130226 360.868
41.9765 141205 375.773
42.0928 150329 387.723
42.2091 160443 400.553
42.3255 169237 411.384
42.4419 178439 422.42
42.5584 187612 433.142
42.675 194900 441.475
42.7915 202247 449.719
42.9081 209337 457.534
43.0248 216182 464.954
43.1415 224788 474.118
43.2582 228081 477.578
43.375 234778 484.539
43.4918 237237 487.07
43.6087 239849 489.744
43.7256 235336 485.114
43.8425 231929 481.59
43.9595 230278 479.873
44.0765 226078 475.477
44.1935 222379 471.571
44.3106 220194 469.248
44.4277 218010 466.915
44.5448 214845 463.514
44.6619 211577 459.975
44.7791 211389 459.771
44.8963 208005 456.076
45.0136 207199 455.191
45.1308 206214 454.108
45.2481 203672 451.3
45.3654 203934 451.591
45.4827 203254 450.837
45.6001 203974 451.635
45.7174 203942 451.599
45.8348 206358 454.266
45.9522 207872 455.93
46.0697 211301 459.675
46.1871 214606 463.256
46.3046 218425 467.36
46.422 220375 469.441
46.5395 223277 472.522
46.657 228841 478.373
46.7745 233221 482.93
46.892 237236 487.069
47.0096 241076 490.995
47.1271 244079 494.044
47.2446 244284 494.251
47.3622 240518 490.426
47.4797 236789 486.61
47.5973 233861 483.592
47.7149 228925 478.461
47.8324 226829 476.266
47.95 221976 471.143
48.0675 222434 471.629
48.1851 217749 466.636
48.3027 214656 463.31
48.4202 211731 460.142
48.5378 208540 456.662
48.6554 204650 452.383
48.7729 202702 450.224
48.8904 200658 447.949
49.008 199113 446.221
49.1255 198509 445.543
49.243 197533 444.447
49.3605 199258 446.383
49.478 202594 450.104
49.5955 205413 453.225
49.713 207973 456.041
49.8304 211977 460.41
49.9479 214951 463.628
50.0653 217394 466.255
50.1827 223471 472.727
50.3001 225152 474.502
50.4175 229773 479.346
50.5348 235684 485.473
50.6521 237682 487.526
50.7694 238293 488.153
50.8867 234614 484.37
51.004 231966 481.628
51.1212 227726 477.206
51.2384 226584 476.008
51.3556 221904 471.067
51.4727 219950 468.988
51.5899 217712 466.596
51.707 216602 465.405
51.824 214840 463.508
51.9411 213273 461.815
52.0581 209914 458.164
52.175 206593 454.525
52.2919 205578 453.407
52.4088 204390 452.095
52.5257 205041 452.815
52.6425 207502 455.524
52.7593 203103 450.67
52.876 203888 451.54
52.9927 203550 451.165
53.1094 203797 451.439
53.226 203800 451.442
53.3426 203879 451.53
53.4591 202530 450.033
53.5756 199728 446.909
53.692 194707 441.256
53.8084 189127 434.887
53.9248 183718 428.623
54.0411 178178 422.111
54.1573 169262 411.415
54.2735 0 1
54.3896 0 1
54.5057 0 1
54.6217 0 1
54.7377 0 1
54.8537 0 1
54.9695 0 1
55.0853 0 1
55.2011 0 1
55.3168 0 1
55.4324 0 1
57.824 0 1
57.9396 0 1
58.0553 0 1
58.1711 0 1
58.2869 0 1
58.4028 0 1
58.5187 0 1
58.6347 0 1
58.7508 0 1
58.8669 0 1
58.983 165458 406.765
59.0992 190383 436.329
59.2155 209290 457.482
59.3318 228848 478.381
59.4482 242511 492.454
59.5646 254672 504.65
59.681 263131 512.963
59.7975 267826 517.519
59.9141 271602 521.154
60.0306 272925 522.422
60.1473 274263 523.701
60.2639 274044 523.492
60.3807 274510 523.937
60.4974 271613 521.165
60.6142 269240 518.883
60.731 265220 514.995
60.8479 258107 508.042
60.9648 252271 502.266
61.0818 247627 497.621
61.1987 244692 494.664
61.3158 241832 491.764
61.4328 241613 491.541
61.5499 244433 494.402
61.667 248359 498.356
61.7841 253464 503.452
61.9013 259996 509.898
62.0185 266018 515.769
62.1357 270615 520.207
62.253 276717 526.039
62.3702 282643 531.642
62.4875 285916 534.711
62.6049 293176 541.457
62.7222 296896 544.882
62.8396 299203 546.995
62.9569 302287 549.806
63.0743 301074 548.702
63.1918 297612 545.538
63.3092 293228 541.505
63.4267 290079 538.59
63.5441 285349 534.181
63.6616 281662 530.718
63.7791 277220 526.517
63.8966 273825 523.283
64.0142 270127 519.737
64.1317 265913 515.668
64.2492 261503 511.374
64.3668 255340 505.312
64.4843 249798 499.798
64.6019 244602 494.573
64.7195 242202 492.14
64.837 238982 488.858
64.9546 238082 487.936
65.0722 237655 487.499
65.1898 240391 490.297
65.3074 243516 493.473
65.4249 251877 501.873
65.5425 256432 506.391
65.6601 262238 512.092
65.7777 267918 517.608
65.8952 271874 521.415
66.0128 276902 526.215
66.1304 282103 531.134
66.2479 285948 534.741
66.3655 290505 538.985
66.483 294709 542.871
66.6005 295075 543.208
66.718 292878 541.182
66.8355 289145 537.722
66.953 284751 533.621
67.0705 281906 530.948
67.1879 277508 526.79
67.3054 273214 522.699
67.4228 270044 519.658
67.5402 267170 516.885
67.6576 263328 513.155
67.7749 257803 507.743
67.8923 251759 501.756
68.0096 246741 496.73
68.1269 239630 489.52
68.2442 234627 484.383
68.3614 230760 480.375
68.4787 228311 477.819
68.5958 225402 474.765
68.713 226515 475.936
68.8302 230189 479.78
68.9473 235917 485.713
69.0643 243486 493.443
69.1814 249549 499.549
69.2984 256625 506.582
69.4154 261228 511.105
69.5323 265362 515.133
69.6492 266332 516.074
69.7661 268074 517.759
69.8829 266600 516.333
69.9997 266461 516.199
70.1165 265781 515.54
70.2332 260944 510.827
70.3499 252825 502.817
70.4665 242669 492.614
70.5831 232414 482.093
70.6996 221689 470.839
70.8161 210355 458.645
70.9326 197629 444.555
71.049 185315 430.482
71.1653 171702 414.369
71.2817 160152 400.19
71.3979 145065 380.874
71.5141 130726 361.561
71.6303 116361 341.117
71.7464 96506 310.654
71.8624 0 1
71.9784 0 1
72.0944 0 1
72.2102 0 1
72.3261 0 1
72.4418 0 1
72.5575 0 1
72.6732 0 1
75.1054 0 1
75.2209 0 1
75.3365 0 1
75.4521 0 1
75.5678 0 1
75.6835 0 1
75.7993 0 1
75.9151 0 1
76.031 0 1
76.147 180865 425.282
76.263 195501 442.155
76.3791 205050 452.824
76.4952 212142 460.589
76.6113 215593 464.32
76.7276 219881 468.915
76.8438 218067 466.976
76.9601 217215 466.063
77.0765 213392 461.944
77.1929 210304 458.589
77.3093 206763 454.712
77.4258 203408 451.008
77.5423 200667 447.959
77.6589 200000 447.214
77.7755 202502 450.002
77.8921 207082 455.063
78.0088 212101 460.544
78.1256 219147 468.131
78.2423 225469 474.836
78.3591 231492 481.136
78.4759 236674 486.492
78.5928 241894 491.827
78.7097 245386 495.365
78.8266 253408 503.396
78.9436 249773 499.773
79.0606 255835 505.801
79.1776 259149 509.067
79.2946 260108 510.008
79.4117 259644 509.553
79.5288 255434 505.405
79.6459 252638 502.631
79.7631 252720 502.713
79.8802 248675 498.673
79.9974 246464 496.451
80.1147 243066 493.017
80.2319 239337 489.221
80.3491 237950 487.801
80.4664 235152 484.925
80.5837 228811 478.342
80.701 223500 472.758
80.8183 218207 467.126
80.9357 212099 460.542
81.053 209272 457.463
81.1704 204755 452.499
81.2877 204322 452.02
81.4051 202734 450.26
81.5225 206049 453.926
81.6399 209006 457.172
81.7573 214081 462.689
81.8747 225829 475.215
81.9922 229249 478.8
82.1096 237259 487.092
82.227 240248 490.151
82.3444 242424 492.366
82.4619 251951 501.947
82.5793 254367 504.348
82.6967 259240 509.156
82.8142 260963 510.845
82.9316 263185 513.016
83.049 262513 512.36
83.1664 258588 508.515
83.2838 257819 507.759
83.4012 255148 505.122
83.5186 252339 502.334
83.636 249558 499.558
83.7534 246388 496.375
83.8708 244071 494.035
83.9881 240543 490.452
84.1055 235566 485.351
84.2228 231519 481.164
84.3401 223040 472.271
84.4575 217663 466.544
84.5747 210617 458.93
84.692 206050 453.927
84.8093 200740 448.04
84.9265 199329 446.463
85.0437 200986 448.315
85.1609 205772 453.621
85.2781 211821 460.24
85.3952 219215 468.204
85.5123 226653 476.081
85.6294 234748 484.508
85.7465 241358 491.282
85.8636 247030 497.021
85.9806 251477 501.475
86.0976 256238 506.2
86.2145 260717 510.605
86.3315 263529 513.351
86.4484 271754 521.3
86.5652 270836 520.419
86.682 269851 519.472
86.7988 265953 515.706
86.9156 263504 513.326
87.0323 255549 505.519
87.149 247893 497.889
87.2657 243324 493.279
87.3823 232992 482.692
87.4988 225686 475.064
87.6154 217035 465.87
87.7318 208001 456.071
87.8483 196144 442.881
87.9647 184699 429.766
88.081 174788 418.077
88.1973 163969 404.931
88.3136 153575 391.886
88.4298 144051 379.541
88.546 137061 370.218
88.6621 130015 360.576
88.7781 123127 350.895
88.8942 0 1
89.0101 0 1
89.126 0 1
89.2419 0 1
89.3577 0 1
89.4734 0 1
89.5891 0 1
89.7047 0 1
89.8203 0 1
89.9358 0 1
92.3269 0 1
92.4424 0 1
92.558 0 1
92.6736 0 1
92.7893 0 1
92.905 0 1
93.0208 0 1
93.1366 0 1
93.2525 0 1
93.3685 0 1
93.4845 0 1
93.6005 175468 418.889
93.7167 179787 424.013
93.8328 183734 428.642
93.949 186982 432.414
94.0653 189868 435.738
94.1816 194062 440.525
94.2979 201096 448.437
94.4143 211599 459.999
94.5307 220333 469.396
94.6472 232488 482.17
94.7637 241349 491.273
94.8803 250913 500.912
94.9969 257386 507.332
95.1135 263395 513.22
95.2302 269322 518.962
95.3469 273777 523.237
95.4637 277609 526.886
95.5805 279163 528.359
95.6973 282670 531.667
95.8142 280283 529.418
95.9311 277068 526.372
96.048 273773 523.233
96.1649 273968 523.42
96.2819 270483 520.08
96.3989 267881 517.572
96.516 265603 515.367
96.633 262899 512.737
96.7501 258368 508.299
96.8673 256113 506.076
96.9844 251240 501.238
97.1016 245433 495.412
97.2188 237948 487.799
97.336 230045 479.63
97.4532 223683 472.951
97.5704 217553 466.426
97.6877 214527 463.171
97.805 213191 461.726
97.9223 213351 461.899
98.0396 217982 466.885
98.1569 225796 475.18
98.2743 234644 484.401
98.3916 243284 493.238
98.509 254001 503.985
98.6264 259455 509.367
98.7438 266627 516.359
98.8612 273191 522.677
98.9786 278913 528.122
99.096 282141 531.169
99.2134 286629 535.377
99.3308 290343 538.835
99.4482 292007 540.377
99.5656 289654 538.195
99.6831 287236 535.944
99.8005 285297 534.132
99.9179 282456 531.466
100.035 279708 528.874
100.153 276812 526.129
100.27 273724 523.186
100.388 271219 520.787
100.505 268146 517.828
100.622 262720 512.562
100.74 256884 506.837
100.857 248541 498.539
100.975 240771 490.684
101.092 237050 486.878
101.209 230646 480.256
101.327 228592 478.113
101.444 229395 478.952
101.561 230857 480.476
101.679 238455 488.319
101.796 246103 496.088
101.913 253160 503.15
102.03 261358 511.232
102.148 270086 519.698
102.265 270041 519.655
102.382 287944 536.604
102.499 288072 536.723
102.616 293057 541.347
102.733 296931 544.914
102.851 302410 549.918
102.968 301328 548.934
103.085 301598 549.179
103.202 298455 546.31
103.319 293936 542.159
103.436 290803 539.262
103.552 287444 536.138
103.669 284334 533.23
103.786 282360 531.376
103.903 281234 530.315
104.02 277922 527.183
104.137 271717 521.265
104.253 265274 515.048
104.37 256280 506.241
104.487 251893 501.889
104.603 242683 492.629
104.72 235789 485.581
104.836 230324 479.921
104.953 225786 475.169
105.069 221643 470.79
105.186 219939 468.977
105.302 220416 469.485
105.418 218548 467.491
105.535 215637 464.367
105.651 210346 458.635
105.767 204143 451.822
105.883 195583 442.248
105.999 184144 429.12
106.115 0 1
106.231 0 1
106.347 0 1
106.463 0 1
106.579 0 1
106.694 0 1
106.81 0 1
106.926 0 1
107.041 0 1
107.157 0 1
109.576 0 1
109.692 0 1
109.807 0 1
109.923 0 1
110.039 0 1
110.155 0 1
110.27 0 1
110.386 0 1
110.502 0 1
110.618 136782 369.841
110.735 160931 401.162
110.851 181805 426.386
110.967 199320 446.453
111.083 215744 464.483
111.199 231525 481.17
111.316 245501 495.481
111.432 254982 504.957
111.549 261120 510.999
111.665 263764 513.58
111.782 264397 514.195
111.898 264056 513.864
112.015 260312 510.208
112.132 258050 507.986
112.248 255689 505.657
112.365 251435 501.433
112.482 249985 499.985
112.599 247449 497.442
112.716 242543 492.487
112.832 237377 487.214
112.949 230329 479.926
113.066 223665 472.932
113.183 218233 467.154
113.3 215129 463.82
113.417 211670 460.076
113.534 208987 457.151
113.652 210818 459.149
113.769 213794 462.379
113.886 218183 467.101
114.003 225856 475.243
114.12 231085 480.713
114.238 238433 488.296
114.355 243673 493.632
114.472 256946 506.898
114.589 245625 495.606
114.707 257392 507.338
114.824 262879 512.717
114.942 267040 516.759
115.059 268612 518.278
115.176 268056 517.741
115.294 265256 515.03
115.411 261114 510.993
115.529 255850 505.816
115.646 253566 503.553
115.764 249039 499.038
115.881 247074 497.065
115.999 243439 493.395
116.116 240976 490.893
116.234 237410 487.247
116.351 234387 484.135
116.469 228346 477.856
116.586 222264 471.449
116.704 218606 467.553
116.821 213021 461.542
116.939 210108 458.375
117.056 209115 457.291
117.174 206337 454.243
117.291 209567 457.785
117.409 212739 461.236
117.526 218026 466.933
117.644 223299 472.545
117.761 228403 477.915
117.879 233313 483.025
117.996 238211 488.069
118.114 244014 493.978
118.231 247999 497.995
118.349 252605 502.598
118.466 256289 506.25
118.584 257930 507.868
118.701 258936 508.858
118.819 256703 506.659
118.936 252252 502.247
119.053 248776 498.774
119.171 244726 494.698
119.288 240663 490.574
119.405 238225 488.083
119.523 235427 485.208
119.64 231099 480.728
119.757 229527 479.09
119.875 227065 476.513
119.992 223972 473.257
120.109 219699 468.721
120.226 215170 463.864
120.343 210861 459.196
120.46 207206 455.199
120.578 205247 453.042
120.695 202280 449.755
120.812 201342 448.711
120.929 201260 448.62
121.046 201910 449.344
121.163 204343 452.043
121.279 206153 454.041
121.396 206611 454.545
121.513 209363 457.562
121.63 208550 456.673
121.747 208589 456.715
121.863 208106 456.186
121.98 209560 457.777
122.097 208079 456.157
122.213 204762 452.506
122.33 201115 448.458
122.446 194932 441.511
122.563 184742 429.816
122.679 175934 419.445
122.795 165642 406.991
122.912 155518 394.358
123.028 144454 380.071
123.144 134442 366.663
123.26 123819 351.879
123.377 0 1
123.493 0 1
123.609 0 1
123.725 0 1
123.84 0 1
123.956 0 1
124.072 0 1
124.188 0 1
124.303 0 1
124.419 0 1
126.852 0 1
126.968 0 1
127.083 0 1
127.199 0 1
127.315 0 1
127.431 0 1
127.547 0 1
127.663 0 1
127.779 0 1
127.895 0 1
128.011 0 1
128.127 0 1
128.243 0 1
128.359 240862 490.777
128.476 246502 496.49
128.592 249159 499.158
128.708 251396 501.394
128.825 252101 502.097
128.941 253849 503.834
129.058 253015 503.006
129.174 252752 502.744
129.291 249189 499.188
129.408 244086 494.051
129.524 241405 491.33
129.641 238022 487.875
129.758 235222 484.997
129.875 231765 481.42
129.992 232095 481.762
130.108 232569 482.254
130.225 234648 484.405
130.342 239955 489.852
130.459 246073 496.057
130.576 244768 494.74
130.693 253283 503.272
130.81 257906 507.844
130.928 262674 512.517
131.045 269203 518.848
131.162 273372 522.85
131.279 280016 529.165
131.396 280381 529.51
131.513 280831 529.935
131.631 276699 526.022
131.748 271884 521.425
131.865 268699 518.362
131.983 266482 516.219
132.1 261945 511.806
132.217 260149 510.048
132.335 257980 507.917
132.452 257439 507.384
132.57 257205 507.154
132.687 256775 506.73
132.804 248752 498.75
132.922 248290 498.287
133.039 244967 494.941
133.157 242798 492.745
133.274 239956 489.853
133.392 236651 486.468
133.509 235661 485.449
133.627 236785 486.606
133.744 238109 487.964
133.862 240863 490.778
133.979 245629 495.61
134.097 249415 499.415
134.214 254596 504.575
134.332 257186 507.135
134.449 263171 513.002
134.567 267882 517.573
134.684 273257 522.74
134.802 278767 527.984
134.919 280805 529.91
135.037 280708 529.819
135.154 275047 524.449
135.272 272573 522.085
135.389 269743 519.368
135.507 265626 515.389
135.624 263313 513.14
135.742 262139 511.995
135.859 260095 509.995
135.977 258619 508.546
136.094 257024 506.975
136.211 256245 506.206
136.329 253046 503.037
136.446 251315 501.313
136.564 248406 498.403
136.681 246662 496.651
136.798 243864 493.826
136.915 241950 491.884
137.033 239909 489.805
137.15 237005 486.832
137.267 237329 487.164
137.384 238144 488
137.502 240164 490.065
137.619 242945 492.895
137.736 243220 493.173
137.853 241569 491.497
137.97 246886 496.876
138.087 262479 512.327
138.204 262112 511.969
138.321 266387 516.127
138.438 268008 517.695
138.555 272073 521.606
138.672 267874 517.565
138.788 258910 508.832
138.905 248975 498.974
139.022 240038 489.937
139.139 231718 481.371
139.255 220680 469.766
139.372 212394 460.862
139.488 201155 448.503
139.605 190361 436.304
139.721 181373 425.879
139.838 172775 415.662
139.954 162425 403.02
140.071 153418 391.686
140.187 139077 372.93
140.303 130788 361.646
140.419 121260 348.224
140.535 113257 336.537
140.652 103839 322.241
140.768 0 1
140.884 0 1
141 0 1
141.115 0 1
141.231 0 1
141.347 0 1
141.463 0 1
141.578 0 1
141.694 0 1
144.104 0 1
144.219 0 1
144.335 0 1
144.45 0 1
144.566 0 1
144.682 0 1
144.798 0 1
144.914 0 1
145.03 0 1
145.146 176943 420.646
145.262 184350 429.36
145.378 187064 432.509
145.494 188966 434.702
145.61 188634 434.32
145.726 188492 434.157
145.842 187417 432.917
145.959 186385 431.723
146.075 185397 430.578
146.192 187091 432.54
146.308 185388 430.567
146.425 187252 432.726
146.541 188999 434.74
146.658 189918 435.796
146.774 192709 438.986
146.891 196406 443.177
147.008 201070 448.408
147.125 202732 450.258
147.241 206331 454.237
147.358 209806 458.046
147.475 208456 456.57
147.592 206905 454.868
147.709 202857 450.396
147.826 199645 446.817
147.943 195664 442.339
148.06 195567 442.23
148.177 191948 438.119
148.294 192777 439.064
148.411 192871 439.171
148.528 193204 439.55
148.645 193058 439.384
148.762 192835 439.13
148.88 193948 440.395
148.997 195605 442.273
149.114 188551 434.225
149.231 190302 436.236
149.349 189471 435.283
149.466 186880 432.296
149.583 186121 431.417
149.701 183667 428.564
149.818 182448 427.139
149.935 185207 430.357
150.053 185080 430.209
150.17 187001 432.436
150.287 188959 434.694
150.405 190791 436.796
150.522 194358 440.861
150.64 198045 445.022
150.757 200661 447.952
150.875 203720 451.354
150.992 206665 454.604
151.11 205717 453.56
151.227 202869 450.41
151.344 199391 446.532
151.462 195610 442.278
151.579 195481 442.132
151.697 191620 437.744
151.814 189918 435.796
151.932 188029 433.623
152.049 188157 433.771
152.167 189172 434.939
152.284 188131 433.741
152.402 188582 434.26
152.519 187247 432.72
152.636 187800 433.359
152.754 186384 431.722
152.871 185618 430.834
152.989 184251 429.245
153.106 181069 425.522
153.223 179113 423.217
153.341 177817 421.684
153.458 177272 421.037
153.575 178456 422.441
153.693 177418 421.21
153.81 179943 424.197
153.927 181841 426.428
154.044 184682 429.746
154.162 186678 432.062
154.279 189610 435.442
154.396 194569 441.1
154.513 196010 442.73
154.63 196945 443.785
154.747 196892 443.725
154.864 193085 439.414
154.981 187900 433.474
155.098 185548 430.753
155.215 182580 427.294
155.332 179951 424.206
155.449 178040 421.948
155.566 176175 419.732
155.683 174692 417.962
155.8 171806 414.495
155.917 169879 412.164
156.033 165640 406.989
156.15 0 1
156.267 0 1
156.383 0 1
156.5 0 1
156.617 0 1
156.733 0 1
156.85 0 1
156.966 0 1
157.082 0 1
157.199 0 1
157.315 0 1
157.431 0 1
157.547 0 1
157.664 0 1
157.78 0 1
157.896 0 1
158.012 0 1
158.128 0 1
158.244 0 1
158.359 0 1
158.475 0 1
158.591 0 1
158.706 0 1
