
6.15755 0 1
6.2731 0 1
6.3887 0 1
6.50437 0 1
6.62009 0 1
6.73587 0 1
6.8517 0 1
6.96759 0 1
7.08353 0 1
7.19952 0 1
7.31557 0 1
7.43166 0 1
7.54781 0 1
7.664 0 1
7.78024 0 1
7.89653 0 1
8.01286 0 1
8.12924 0 1
8.24567 0 1
8.36213 0 1
8.47864 0 1
8.59519 0 1
8.71178 0 1
8.82841 0 1
8.94508 0 1
9.06179 0 1
9.17853 0 1
9.29531 0 1
9.41212 0 1
9.52897 0 1
9.64584 0 1
9.76276 0 1
9.8797 0 1
9.99667 0 1
10.1137 0 1
10.2307 0 1
10.3478 0 1
10.4648 0 1
10.5819 0 1
10.6991 0 1
10.8162 0 1
10.9334 0 1
11.0506 0 1
11.1678 0 1
11.285 0 1
11.4023 0 1
11.5196 0 1
11.6369 0 1
11.7542 0 1
11.8715 0 1
11.9888 0 1
12.1062 0 1
12.2235 0 1
12.3409 0 1
12.4582 0 1
12.5756 0 1
12.693 0 1
12.8104 0 1
12.9278 0 1
13.0452 0 1
13.1626 0 1
13.28 0 1
13.3974 0 1
13.5149 0 1
13.6323 0 1
13.7497 0 1
13.8671 0 1
13.9845 0 1
14.1019 0 1
14.2193 0 1
14.3367 0 1
14.4541 0 1
14.5714 0 1
14.6888 0 1
14.8062 0 1
14.9235 0 1
15.0408 0 0
15.1581 0 0
15.2755 0 0
15.3927 0 0
15.51 0 0
15.6273 0 0
15.7445 0 0
15.8617 0 0
15.9789 0 0
16.0961 0 0
16.2132 0 0
16.3304 0 0
16.4475 0 0
16.5646 0 0
16.6816 0 0
16.7986 0 0
16.9156 0 0
17.0326 0 0
17.1496 0 0
17.2665 0 0
17.3833 0 0
17.5002 0 0
17.617 0 0
17.7338 0 0
17.8505 0 0
17.9672 0 0
18.0839 0 0
18.2005 0 0
18.3171 0 0
18.4337 0 0
18.5502 0 0
18.6666 0 0
18.7831 0 0
18.8994 0 0
19.0158 0 0
19.1321 0 0
19.2483 0 0
19.3645 0 0
19.4806 0 0
19.5967 0 0
19.7128 0 0
19.8288 0 0
19.9447 0 0
20.0606 0 1
20.1764 0 1
20.2922 0 1
20.4079 0 1
20.5236 0 1
20.6392 0 1
20.7548 0 1
20.8702 0 1
23.3078 0 1
23.4233 0 1
23.539 0 1
23.6547 0 1
23.7704 0 1
23.8862 0 1
24.0021 0 1
24.118 0 1
24.234 0 1
24.35 0 1
24.4661 7045 83.9345
24.5822 7369 85.8429
24.6984 7240 85.0882
24.8146 7529 86.7698
24.9309 7452 86.325
25.0472 7770 88.1476
25.1636 7777 88.1873
25.28 8097 89.9833
25.3965 7895 88.8538
25.513 8047 89.7051
25.6296 8054 89.7441
25.7462 7958 89.2076
25.8628 7681 87.6413
25.9795 7345 85.703
26.0962 7379 85.9011
26.213 7169 84.6699
26.3298 7060 84.0238
26.4466 7084 84.1665
26.5635 6943 83.3247
26.6804 6927 83.2286
26.7973 6593 81.1973
26.9143 6739 82.0914
27.0313 6067 77.8909
27.1483 6078 77.9615
27.2653 5982 77.3434
27.3824 6223 78.886
27.4996 6281 79.2528
27.6167 6298 79.3599
27.7339 6413 80.0812
27.8511 6537 80.8517
27.9683 7028 83.8332
28.0855 7161 84.6227
28.2028 7262 85.2174
28.3201 7099 84.2556
28.4374 7212 84.9235
28.5547 7119 84.3742
28.6721 6955 83.3966
28.7894 6864 82.8493
28.9068 6658 81.5966
29.0242 6412 80.075
29.1416 6362 79.7621
29.259 6205 78.7718
29.3764 6202 78.7528
29.4939 6103 78.1217
29.6113 6057 77.8267
29.7288 6013 77.5435
29.8463 6093 78.0577
29.9638 6152 78.4347
30.0812 6177 78.5939
30.1987 6235 78.962
30.3162 6178 78.6003
30.4337 6103 78.1217
30.5512 5897 76.7919
30.6687 5845 76.4526
30.7862 6005 77.4919
30.9037 6158 78.4729
31.0212 6621 81.3695
31.1387 6809 82.5167
31.2562 6897 83.0482
31.3737 7214 84.9353
31.4912 7023 83.8033
31.6087 7080 84.1427
31.7262 6751 82.1645
31.8436 6890 83.006
31.9611 6604 81.265
32.0785 6361 79.7559
32.1959 6200 78.7401
32.3134 6070 77.9102
32.4308 5491 74.1013
32.5482 5526 74.3371
32.6655 5372 73.2939
32.7829 5161 71.8401
32.9002 5114 71.5122
33.0176 4940 70.2851
33.1349 5122 71.5681
33.2522 5023 70.8731
33.3694 5120 71.5542
33.4867 5082 71.2881
33.6039 5117 71.5332
33.7211 5291 72.7393
33.8383 5448 73.8106
33.9554 5578 74.686
34.0725 5665 75.2662
34.1896 5368 73.2666
34.3067 5405 73.5187
34.4237 5360 73.212
34.5407 5374 73.3076
34.6577 5465 73.9256
34.7746 5512 74.2428
34.8915 5407 73.5323
35.0084 5403 73.5051
35.1252 5377 73.328
35.242 5335 73.0411
35.3587 5307 72.8492
35.4755 5105 71.4493
35.5921 5171 71.9097
35.7088 4997 70.6895
35.8254 4884 69.8856
35.9419 4656 68.2349
36.0584 4656 68.2349
36.1749 4572 67.6166
36.2913 4624 68
36.4077 4430 66.5582
36.524 4334 65.8331
36.6403 4378 66.1665
36.7565 4330 65.8027
36.8727 4284 65.4523
36.9889 4320 65.7267
37.1049 4485 66.9701
37.221 0 1
37.3369 0 1
37.4529 0 1
37.5687 0 1
37.6845 0 1
37.8003 0 1
37.916 0 1
38.0316 0 1
38.1472 0 1
40.5851 0 1
40.7008 0 1
40.8164 0 1
40.9322 0 1
41.048 0 1
41.1639 0 1
41.2798 0 1
41.3958 0 1
41.5118 0 1
41.6279 0 1
41.744 3399 58.3009
41.8602 3565 59.7076
41.9765 3639 60.3241
42.0928 3816 61.7738
42.2091 3752 61.2536
42.3255 3667 60.5558
42.4419 3692 60.7618
42.5584 3578 59.8164
42.675 3389 58.2151
42.7915 3429 58.5577
42.9081 3225 56.7891
43.0248 3031 55.0545
43.1415 2792 52.8394
43.2582 2781 52.7352
43.375 2863 53.507
43.4918 2922 54.0555
43.6087 2887 53.7308
43.7256 2844 53.3292
43.8425 2764 52.5738
43.9595 2812 53.0283
44.0765 2937 54.1941
44.1935 2845 53.3385
44.3106 2881 53.6749
44.4277 2803 52.9434
44.5448 2778 52.7067
44.6619 2725 52.2015
44.7791 2672 51.6914
44.8963 2594 50.9313
45.0136 2757 52.5071
45.1308 2818 53.0848
45.2481 2799 52.9056
45.3654 2746 52.4023
45.4827 2824 53.1413
45.6001 2765 52.5833
45.7174 2755 52.4881
45.8348 2643 51.4101
45.9522 2365 48.6313
46.0697 2318 48.1456
46.1871 2263 47.571
46.3046 2261 47.55
46.422 2165 46.5296
46.5395 2079 45.5961
46.657 1945 44.1022
46.7745 1901 43.6005
46.892 1865 43.1856
47.0096 1935 43.9886
47.1271 1931 43.9431
47.2446 1884 43.4051
47.3622 1835 42.8369
47.4797 1917 43.7836
47.5973 1937 44.0114
47.7149 1887 43.4396
47.8324 1919 43.8064
47.95 1864 43.1741
48.0675 1869 43.2319
48.1851 1888 43.4511
48.3027 1906 43.6578
48.4202 1974 44.4297
48.5378 1919 43.8064
48.6554 2048 45.2548
48.7729 2024 44.9889
48.8904 2027 45.0222
49.008 2005 44.7772
49.1255 1927 43.8976
49.243 1984 44.5421
49.3605 1903 43.6234
49.478 1975 44.441
49.5955 1978 44.4747
49.713 1889 43.4626
49.8304 1896 43.5431
49.9479 1811 42.5558
50.0653 1871 43.2551
50.1827 1768 42.0476
50.3001 1654 40.6694
50.4175 1666 40.8167
50.5348 1742 41.7373
50.6521 1934 43.9773
50.7694 2000 44.7214
50.8867 1943 44.0795
51.004 2027 45.0222
51.1212 2191 46.8081
51.2384 2190 46.7974
51.3556 2205 46.9574
51.4727 2269 47.634
51.5899 2176 46.6476
51.707 2309 48.0521
51.824 2361 48.5901
51.9411 2401 49
52.0581 2332 48.2908
52.175 2433 49.3254
52.2919 2365 48.6313
52.4088 2466 49.6588
52.5257 2460 49.5984
52.6425 2487 49.8698
52.7593 2485 49.8498
52.876 2421 49.2037
52.9927 2579 50.7839
53.1094 2482 49.8197
53.226 2434 49.3356
53.3426 2528 50.2792
53.4591 2559 50.5866
53.5756 2578 50.774
53.692 2505 50.05
53.8084 2349 48.4665
53.9248 2212 47.0319
54.0411 2187 46.7654
54.1573 2251 47.4447
54.2735 0 1
54.3896 0 1
54.5057 0 1
54.6217 0 1
54.7377 0 1
54.8537 0 1
54.9695 0 1
55.0853 0 1
55.2011 0 1
55.3168 0 1
55.4324 0 1
57.824 0 1
57.9396 0 1
58.0553 0 1
58.1711 0 1
58.2869 0 1
58.4028 0 1
58.5187 0 1
58.6347 0 1
58.7508 0 1
58.8669 0 1
58.983 2782 52.7447
59.0992 2693 51.8941
59.2155 2661 51.5849
59.3318 2846 53.3479
59.4482 2868 53.5537
59.5646 2908 53.9259
59.681 3120 55.857
59.7975 3245 56.9649
59.9141 3130 55.9464
60.0306 3353 57.9051
60.1473 3420 58.4808
60.2639 3312 57.55
60.3807 3315 57.576
60.4974 3580 59.8331
60.6142 3610 60.0833
60.731 3598 59.9833
60.8479 3788 61.5467
60.9648 3733 61.0983
61.0818 3712 60.9262
61.1987 3694 60.7783
61.3158 3622 60.1831
61.4328 3757 61.2944
61.5499 3748 61.2209
61.667 3686 60.7124
61.7841 3794 61.5955
61.9013 3819 61.7981
62.0185 3711 60.918
62.1357 3617 60.1415
62.253 3490 59.0762
62.3702 3441 58.66
62.4875 3289 57.3498
62.6049 3291 57.3672
62.7222 3348 57.8619
62.8396 3478 58.9746
62.9569 3539 59.4895
63.0743 3647 60.3904
63.1918 3659 60.4897
63.3092 3742 61.1719
63.4267 3749 61.2291
63.5441 3729 61.0655
63.6616 3783 61.5061
63.7791 3818 61.79
63.8966 3838 61.9516
64.0142 3794 61.5955
64.1317 3881 62.2977
64.2492 3899 62.442
64.3668 3904 62.482
64.4843 4003 63.2693
64.6019 3930 62.6897
64.7195 3834 61.9193
64.837 3871 62.2174
64.9546 3749 61.2291
65.0722 3885 62.3298
65.1898 3790 61.563
65.3074 3765 61.3596
65.4249 3616 60.1332
65.5425 3659 60.4897
65.6601 3497 59.1354
65.7777 3472 58.9237
65.8952 3262 57.1139
66.0128 3126 55.9106
66.1304 2994 54.7175
66.2479 2876 53.6284
66.3655 3073 55.4346
66.483 3165 56.2583
66.6005 3126 55.9106
66.718 3025 55
66.8355 3160 56.2139
66.953 3119 55.848
67.0705 3147 56.0981
67.1879 3179 56.3826
67.3054 3131 55.9553
67.4228 3197 56.542
67.5402 3214 56.6922
67.6576 3269 57.1752
67.7749 3184 56.4269
67.8923 3273 57.2101
68.0096 3302 57.463
68.1269 3236 56.8859
68.2442 3300 57.4456
68.3614 3212 56.6745
68.4787 3254 57.0438
68.5958 3120 55.857
68.713 3110 55.7674
68.8302 3087 55.5608
68.9473 3051 55.2359
69.0643 2962 54.4243
69.1814 2959 54.3967
69.2984 2930 54.1295
69.4154 2859 53.4696
69.5323 2876 53.6284
69.6492 2512 50.1199
69.7661 2431 49.3052
69.8829 2381 48.7955
69.9997 2531 50.309
70.1165 2532 50.319
70.2332 2595 50.9411
70.3499 2429 49.2849
70.4665 2466 49.6588
70.5831 2554 50.5371
70.6996 2587 50.8626
70.8161 2508 50.0799
70.9326 2661 51.5849
71.049 2540 50.3984
71.1653 2574 50.7346
71.2817 2619 51.1762
71.3979 2521 50.2096
71.5141 2655 51.5267
71.6303 2481 49.8096
71.7464 2365 48.6313
71.8624 0 1
71.9784 0 1
72.0944 0 1
72.2102 0 1
72.3261 0 1
72.4418 0 1
72.5575 0 1
72.6732 0 1
75.1054 0 1
75.2209 0 1
75.3365 0 1
75.4521 0 1
75.5678 0 1
75.6835 0 1
75.7993 0 1
75.9151 0 1
76.031 0 1
76.147 2292 47.8748
76.263 2389 48.8774
76.3791 2540 50.3984
76.4952 2549 50.4876
76.6113 2579 50.7839
76.7276 2610 51.0882
76.8438 2735 52.2972
76.9601 2818 53.0848
77.0765 2915 53.9907
77.1929 2876 53.6284
77.3093 2894 53.7959
77.4258 2881 53.6749
77.5423 2813 53.0377
77.6589 2849 53.376
77.7755 2845 53.3385
77.8921 2820 53.1037
78.0088 2749 52.4309
78.1256 2809 53
78.2423 2751 52.45
78.3591 2716 52.1153
78.4759 2711 52.0673
78.5928 2650 51.4782
78.7097 2400 48.9898
78.8266 2399 48.9796
78.9436 2106 45.8912
79.0606 2257 47.5079
79.1776 2417 49.163
79.2946 2513 50.1298
79.4117 2506 50.06
79.5288 2595 50.9411
79.6459 2666 51.6333
79.7631 2702 51.9808
79.8802 2691 51.8748
79.9974 2695 51.9134
80.1147 2780 52.7257
80.2319 2869 53.563
80.3491 2817 53.0754
80.4664 2801 52.9245
80.5837 2949 54.3047
80.701 2932 54.1479
80.8183 2985 54.6352
80.9357 2974 54.5344
81.053 2928 54.111
81.1704 2970 54.4977
81.2877 3068 55.3895
81.4051 3052 55.2449
81.5225 2947 54.2863
81.6399 2786 52.7826
81.7573 2822 53.1225
81.8747 2770 52.6308
81.9922 2698 51.9423
82.1096 2732 52.2685
82.227 2567 50.6656
82.3444 2557 50.5668
82.4619 2309 48.0521
82.5793 2327 48.239
82.6967 2360 48.5798
82.8142 2390 48.8876
82.9316 2472 49.7192
83.049 2509 50.0899
83.1664 2498 49.98
83.2838 2613 51.1175
83.4012 2749 52.4309
83.5186 2659 51.5655
83.636 2656 51.5364
83.7534 2756 52.4976
83.8708 2728 52.2303
83.9881 2875 53.619
84.1055 2651 51.4879
84.2228 2837 53.2635
84.3401 2903 53.8795
84.4575 2917 54.0093
84.5747 2922 54.0555
84.692 2914 53.9815
84.8093 3012 54.8817
84.9265 2992 54.6992
85.0437 2994 54.7175
85.1609 2809 53
85.2781 2840 53.2917
85.3952 2795 52.8678
85.5123 2784 52.7636
85.6294 2782 52.7447
85.7465 2653 51.5073
85.8636 2636 51.342
85.9806 2422 49.2138
86.0976 2391 48.8979
86.2145 2411 49.1019
86.3315 2389 48.8774
86.4484 2596 50.951
86.5652 2681 51.7784
86.682 2727 52.2207
86.7988 2681 51.7784
86.9156 2757 52.5071
87.0323 2810 53.0094
87.149 2825 53.1507
87.2657 2961 54.4151
87.3823 2965 54.4518
87.4988 2872 53.591
87.6154 3160 56.2139
87.7318 3135 55.9911
87.8483 3170 56.3028
87.9647 3307 57.5065
88.081 3214 56.6922
88.1973 3154 56.1605
88.3136 3277 57.2451
88.4298 3282 57.2887
88.546 3195 56.5243
88.6621 3126 55.9106
88.7781 2987 54.6535
88.8942 0 1
89.0101 0 1
89.126 0 1
89.2419 0 1
89.3577 0 1
89.4734 0 1
89.5891 0 1
89.7047 0 1
89.8203 0 1
89.9358 0 1
92.3269 0 1
92.4424 0 1
92.558 0 1
92.6736 0 1
92.7893 0 1
92.905 0 1
93.0208 0 1
93.1366 0 1
93.2525 0 1
93.3685 0 1
93.4845 0 1
93.6005 3315 57.576
93.7167 3338 57.7754
93.8328 3308 57.5152
93.949 3269 57.1752
94.0653 3276 57.2364
94.1816 3226 56.7979
94.2979 3147 56.0981
94.4143 3215 56.701
94.5307 3061 55.3263
94.6472 2966 54.461
94.7637 3061 55.3263
94.8803 3077 55.4707
94.9969 2996 54.7357
95.1135 2889 53.7494
95.2302 2705 52.0096
95.3469 2640 51.3809
95.4637 2801 52.9245
95.5805 2782 52.7447
95.6973 2790 52.8205
95.8142 2911 53.9537
95.9311 2843 53.3198
96.048 3059 55.3082
96.1649 3170 56.3028
96.2819 3173 56.3294
96.3989 3231 56.8419
96.516 3420 58.4808
96.633 3451 58.7452
96.7501 3559 59.6574
96.8673 3516 59.2959
96.9844 3630 60.2495
97.1016 3755 61.2781
97.2188 3725 61.0328
97.336 3716 60.959
97.4532 3814 61.7576
97.5704 3732 61.0901
97.6877 3752 61.2536
97.805 3861 62.1369
97.9223 3594 59.95
98.0396 3519 59.3212
98.1569 3542 59.5147
98.2743 3442 58.6686
98.3916 3426 58.532
98.509 3290 57.3585
98.6264 3336 57.7581
98.7438 3154 56.1605
98.8612 3015 54.909
98.9786 2846 53.3479
99.096 2862 53.4977
99.2134 3014 54.8999
99.3308 3086 55.5518
99.4482 3163 56.2406
99.5656 3165 56.2583
99.6831 3146 56.0892
99.8005 3286 57.3236
99.9179 3322 57.6368
100.035 3472 58.9237
100.153 3476 58.9576
100.27 3570 59.7495
100.388 3650 60.4152
100.505 3687 60.7207
100.622 3716 60.959
100.74 3855 62.0886
100.857 3942 62.7853
100.975 3915 62.57
101.092 3982 63.1031
101.209 3906 62.498
101.327 4033 63.5059
101.444 3954 62.8808
101.561 3863 62.153
101.679 3757 61.2944
101.796 3636 60.2993
101.913 3688 60.7289
102.03 3669 60.5723
102.148 3500 59.1608
102.265 3625 60.208
102.382 3178 56.3738
102.499 3271 57.1927
102.616 3146 56.0892
102.733 3297 57.4195
102.851 3373 58.0775
102.968 3376 58.1034
103.085 3564 59.6992
103.202 3377 58.112
103.319 3594 59.95
103.436 3616 60.1332
103.552 3727 61.0492
103.669 3888 62.3538
103.786 3908 62.514
103.903 3948 62.8331
104.02 4106 64.0781
104.137 4218 64.9461
104.253 4335 65.8407
104.37 4437 66.6108
104.487 4329 65.7951
104.603 4512 67.1714
104.72 4520 67.2309
104.836 4509 67.1491
104.953 4378 66.1665
105.069 4333 65.8255
105.186 4326 65.7723
105.302 4382 66.1967
105.418 4463 66.8057
105.535 4323 65.7495
105.651 4288 65.4828
105.767 4208 64.8691
105.883 4163 64.5213
105.999 4031 63.4902
106.115 0 1
106.231 0 1
106.347 0 1
106.463 0 1
106.579 0 1
106.694 0 1
106.81 0 1
106.926 0 1
107.041 0 1
107.157 0 1
109.576 0 1
109.692 0 1
109.807 0 1
109.923 0 1
110.039 0 1
110.155 0 1
110.27 0 1
110.386 0 1
110.502 0 1
110.618 5996 77.4338
110.735 6050 77.7817
110.851 5942 77.0844
110.967 5592 74.7797
111.083 5314 72.8972
111.199 5306 72.8423
111.316 5409 73.5459
111.432 5716 75.6042
111.549 5803 76.1774
111.665 5520 74.2967
111.782 5632 75.0467
111.898 5980 77.3305
112.015 6078 77.9615
112.132 6046 77.756
112.248 6120 78.2304
112.365 6328 79.5487
112.482 6195 78.7083
112.599 6102 78.1153
112.716 6193 78.6956
112.832 6287 79.2906
112.949 6156 78.4602
113.066 6243 79.0127
113.183 6181 78.6193
113.3 6181 78.6193
113.417 5993 77.4145
113.534 5947 77.1168
113.652 5951 77.1427
113.769 5896 76.7854
113.886 5850 76.4853
114.003 5734 75.7232
114.12 5651 75.1731
114.238 5586 74.7395
114.355 5397 73.4643
114.472 5242 72.4017
114.589 4906 70.0428
114.707 4728 68.7605
114.824 4867 69.7639
114.942 4913 70.0928
115.059 5136 71.6659
115.176 5235 72.3533
115.294 5097 71.3933
115.411 5439 73.7496
115.529 5453 73.8444
115.646 5635 75.0666
115.764 5754 75.8551
115.881 5672 75.3127
115.999 5647 75.1465
116.116 5764 75.921
116.234 5962 77.214
116.351 5939 77.0649
116.469 6005 77.4919
116.586 6069 77.9038
116.704 6028 77.6402
116.821 6043 77.7367
116.939 6051 77.7882
117.056 5954 77.1622
117.174 5875 76.6485
117.291 5914 76.9025
117.409 5748 75.8156
117.526 5773 75.9803
117.644 5855 76.518
117.761 5635 75.0666
117.879 5777 76.0066
117.996 5599 74.8265
118.114 5374 73.3076
118.231 5087 71.3232
118.349 4898 69.9857
118.466 5006 70.7531
118.584 5191 72.0486
118.701 5239 72.3809
118.819 5159 71.8262
118.936 5222 72.2634
119.053 5323 72.9589
119.171 5599 74.8265
119.288 5740 75.7628
119.405 5726 75.6703
119.523 5797 76.138
119.64 5839 76.4133
119.757 5910 76.8765
119.875 5684 75.3923
119.992 5728 75.6836
120.109 5896 76.7854
120.226 5902 76.8245
120.343 5834 76.3806
120.46 5923 76.961
120.578 5787 76.0723
120.695 5822 76.302
120.812 5860 76.5506
120.929 5735 75.7298
121.046 5747 75.809
121.163 5780 76.0263
121.279 5748 75.8156
121.396 5569 74.6257
121.513 5493 74.1148
121.63 5510 74.2294
121.747 5251 72.4638
121.863 5102 71.4283
121.98 4907 70.05
122.097 4813 69.3758
122.213 4867 69.7639
122.33 5005 70.746
122.446 4972 70.5124
122.563 4980 70.5691
122.679 4912 70.0857
122.795 5048 71.0493
122.912 5264 72.5534
123.028 5343 73.0958
123.144 5471 73.9662
123.26 5336 73.0479
123.377 0 1
123.493 0 1
123.609 0 1
123.725 0 1
123.84 0 1
123.956 0 1
124.072 0 1
124.188 0 1
124.303 0 1
124.419 0 1
126.852 0 1
126.968 0 1
127.083 0 1
127.199 0 1
127.315 0 1
127.431 0 1
127.547 0 1
127.663 0 1
127.779 0 1
127.895 0 1
128.011 0 1
128.127 0 1
128.243 0 1
128.359 5486 74.0675
128.476 5454 73.8512
128.592 5289 72.7255
128.708 5271 72.6017
128.825 5337 73.0548
128.941 5329 73
129.058 5356 73.1847
129.174 5245 72.4224
129.291 5179 71.9653
129.408 5120 71.5542
129.524 5123 71.5751
129.641 4829 69.491
129.758 4823 69.4478
129.875 4659 68.2569
129.992 4526 67.2756
130.108 4398 66.3174
130.225 4329 65.7951
130.342 4162 64.5136
130.459 3984 63.1189
130.576 4166 64.5446
130.693 4000 63.2456
130.81 3697 60.803
130.928 3677 60.6383
131.045 3608 60.0666
131.162 3557 59.6406
131.279 3707 60.8851
131.396 3800 61.6441
131.513 3719 60.9836
131.631 3839 61.9597
131.748 3904 62.482
131.865 4051 63.6475
131.983 4265 65.307
132.1 4193 64.7534
132.217 4253 65.215
132.335 4361 66.0379
132.452 4540 67.3795
132.57 4584 67.7052
132.687 4329 65.7951
132.804 4621 67.9779
132.922 4460 66.7832
133.039 4479 66.9253
133.157 4411 66.4154
133.274 4594 67.7791
133.392 4396 66.3023
133.509 4478 66.9179
133.627 4438 66.6183
133.744 4456 66.7533
133.862 4355 65.9924
133.979 4389 66.2495
134.097 4307 65.6277
134.214 4263 65.2917
134.332 3880 62.2896
134.449 3902 62.466
134.567 3866 62.1772
134.684 3867 62.1852
134.802 4190 64.7302
134.919 4155 64.4593
135.037 4111 64.1171
135.154 4204 64.8383
135.272 4453 66.7308
135.389 4510 67.1565
135.507 4746 68.8912
135.624 4715 68.6659
135.742 4766 69.0362
135.859 4852 69.6563
135.977 4805 69.3181
136.094 4940 70.2851
136.211 5055 71.0985
136.329 4978 70.5549
136.446 5130 71.624
136.564 4968 70.484
136.681 5004 70.739
136.798 4982 70.5833
136.915 4939 70.278
137.033 4771 69.0724
137.15 4716 68.6731
137.267 4727 68.7532
137.384 4768 69.0507
137.502 4569 67.5944
137.619 4682 68.4251
137.736 4814 69.383
137.853 4433 66.5808
137.97 4333 65.8255
138.087 4508 67.1416
138.204 4471 66.8655
138.321 4538 67.3647
138.438 4660 68.2642
138.555 4812 69.3686
138.672 5100 71.4143
138.788 5122 71.5681
138.905 5378 73.3348
139.022 5817 76.2693
139.139 6084 78
139.255 6163 78.5048
139.372 6387 79.9187
139.488 6419 80.1187
139.605 6646 81.523
139.721 6832 82.6559
139.838 7136 84.4748
139.954 7243 85.1058
140.071 7299 85.4342
140.187 8104 90.0222
140.303 8334 91.2907
140.419 8508 92.2388
140.535 8855 94.101
140.652 9292 96.395
140.768 0 1
140.884 0 1
141 0 1
141.115 0 1
141.231 0 1
141.347 0 1
141.463 0 1
141.578 0 1
141.694 0 1
144.104 0 1
144.219 0 1
144.335 0 1
144.45 0 1
144.566 0 1
144.682 0 1
144.798 0 1
144.914 0 1
145.03 0 1
145.146 9244 96.1457
145.262 9392 96.9123
145.378 9459 97.2574
145.494 9250 96.1769
145.61 9514 97.5397
145.726 9724 98.6103
145.842 9684 98.4073
145.959 10023 100.115
146.075 10276 101.371
146.192 10245 101.218
146.308 10566 102.791
146.425 10869 104.254
146.541 10984 104.805
146.658 10502 102.479
146.774 9963 99.8148
146.891 9594 97.949
147.008 9721 98.5951
147.125 9977 99.8849
147.241 9838 99.1867
147.358 9701 98.4937
147.475 9894 99.4686
147.592 9793 98.9596
147.709 10231 101.148
147.826 10106 100.529
147.943 10052 100.26
148.06 9932 99.6594
148.177 9778 98.8838
148.294 9338 96.6333
148.411 9479 97.3602
148.528 9299 96.4313
148.645 9235 96.0989
148.762 9300 96.4365
148.88 9254 96.1977
148.997 8970 94.7101
149.114 9867 99.3328
149.231 9604 98
149.349 9841 99.2018
149.466 9831 99.1514
149.583 9664 98.3056
149.701 9836 99.1766
149.818 9995 99.975
149.935 10077 100.384
150.053 10214 101.064
150.17 9970 99.8499
150.287 9868 99.3378
150.405 9243 96.1405
150.522 8944 94.5727
150.64 8696 93.2523
150.757 9121 95.5039
150.875 8644 92.9731
150.992 8780 93.7017
151.11 8571 92.5797
151.227 8946 94.5833
151.344 9043 95.0947
151.462 9416 97.0361
151.579 9373 96.8143
151.697 9244 96.1457
151.814 9606 98.0102
151.932 9428 97.0979
152.049 9498 97.4577
152.167 9504 97.4885
152.284 9705 98.514
152.402 9772 98.8534
152.519 9654 98.2548
152.636 9919 99.5942
152.754 10068 100.339
152.871 10034 100.17
152.989 10041 100.205
153.106 10205 101.02
153.223 10535 102.64
153.341 10333 101.651
153.458 10154 100.767
153.575 10355 101.76
153.693 10260 101.292
153.81 10160 100.797
153.927 9667 98.3209
154.044 9255 96.2029
154.162 9003 94.8841
154.279 9136 95.5824
154.396 9512 97.5295
154.513 9391 96.9072
154.63 9336 96.623
154.747 9344 96.6644
154.864 9693 98.453
154.981 10068 100.339
155.098 10293 101.454
155.215 10455 102.25
155.332 10696 103.421
155.449 10727 103.571
155.566 10846 104.144
155.683 11082 105.271
155.8 11200 105.83
155.917 11380 106.677
156.033 11821 108.724
156.15 0 1
156.267 0 1
156.383 0 1
156.5 0 1
156.617 0 1
156.733 0 1
156.85 0 1
156.966 0 1
157.082 0 1
157.199 0 1
157.315 0 1
157.431 0 1
157.547 0 1
157.664 0 1
157.78 0 1
157.896 0 1
158.012 0 1
158.128 0 1
158.244 0 1
158.359 0 1
158.475 0 1
158.591 0 1
158.706 0 1
