
6.15755 0 1
6.2731 0 1
6.3887 0 1
6.50437 0 1
6.62009 0 1
6.73587 0 1
6.8517 0 1
6.96759 0 1
7.08353 0 1
7.19952 0 1
7.31557 0 1
7.43166 0 1
7.54781 0 1
7.664 0 1
7.78024 0 1
7.89653 0 1
8.01286 0 1
8.12924 0 1
8.24567 0 1
8.36213 0 1
8.47864 0 1
8.59519 0 1
8.71178 0 1
8.82841 0 1
8.94508 0 1
9.06179 0 1
9.17853 0 1
9.29531 0 1
9.41212 0 1
9.52897 0 1
9.64584 0 1
9.76276 0 1
9.8797 0 1
9.99667 0 1
10.1137 0 1
10.2307 0 1
10.3478 0 1
10.4648 0 1
10.5819 0 1
10.6991 0 1
10.8162 0 1
10.9334 0 1
11.0506 0 1
11.1678 0 1
11.285 0 1
11.4023 0 1
11.5196 0 1
11.6369 0 1
11.7542 0 1
11.8715 0 1
11.9888 0 1
12.1062 0 1
12.2235 0 1
12.3409 0 1
12.4582 0 1
12.5756 0 1
12.693 0 1
12.8104 0 1
12.9278 0 1
13.0452 0 1
13.1626 0 1
13.28 0 1
13.3974 0 1
13.5149 0 1
13.6323 0 1
13.7497 0 1
13.8671 0 1
13.9845 0 1
14.1019 0 1
14.2193 0 1
14.3367 0 1
14.4541 0 1
14.5714 0 1
14.6888 0 1
14.8062 0 1
14.9235 0 1
15.0408 0 0
15.1581 0 0
15.2755 0 0
15.3927 0 0
15.51 0 0
15.6273 0 0
15.7445 0 0
15.8617 0 0
15.9789 0 0
16.0961 0 0
16.2132 0 0
16.3304 0 0
16.4475 0 0
16.5646 0 0
16.6816 0 0
16.7986 0 0
16.9156 0 0
17.0326 0 0
17.1496 0 0
17.2665 0 0
17.3833 0 0
17.5002 0 0
17.617 0 0
17.7338 0 0
17.8505 0 0
17.9672 0 0
18.0839 0 0
18.2005 0 0
18.3171 0 0
18.4337 0 0
18.5502 0 0
18.6666 0 0
18.7831 0 0
18.8994 0 0
19.0158 0 0
19.1321 0 0
19.2483 0 0
19.3645 0 0
19.4806 0 0
19.5967 0 0
19.7128 0 0
19.8288 0 0
19.9447 0 0
20.0606 0 1
20.1764 0 1
20.2922 0 1
20.4079 0 1
20.5236 0 1
20.6392 0 1
20.7548 0 1
20.8702 0 1
23.3078 0 1
23.4233 0 1
23.539 0 1
23.6547 0 1
23.7704 0 1
23.8862 0 1
24.0021 0 1
24.118 0 1
24.234 0 1
24.35 0 1
24.4661 1447 38.0395
24.5822 1396 37.3631
24.6984 1410 37.55
24.8146 1293 35.9583
24.9309 1286 35.8608
25.0472 1213 34.8281
25.1636 1338 36.5787
25.28 1368 36.9865
25.3965 1409 37.5366
25.513 1505 38.7943
25.6296 1627 40.3361
25.7462 1622 40.2741
25.8628 1697 41.1947
25.9795 1669 40.8534
26.0962 1601 40.0125
26.213 1604 40.05
26.3298 1592 39.8999
26.4466 1618 40.2244
26.5635 1556 39.4462
26.6804 1469 38.3275
26.7973 1490 38.6005
26.9143 1451 38.092
27.0313 1528 39.0896
27.1483 1542 39.2683
27.2653 1573 39.6611
27.3824 1534 39.1663
27.4996 1572 39.6485
27.6167 1627 40.3361
27.7339 1572 39.6485
27.8511 1588 39.8497
27.9683 1512 38.8844
28.0855 1422 37.7094
28.2028 1456 38.1576
28.3201 1322 36.3593
28.4374 1225 35
28.5547 1213 34.8281
28.6721 1179 34.3366
28.7894 1282 35.805
28.9068 1301 36.0694
29.0242 1429 37.8021
29.1416 1516 38.9358
29.259 1573 39.6611
29.3764 1588 39.8497
29.4939 1547 39.3319
29.6113 1579 39.7366
29.7288 1535 39.1791
29.8463 1597 39.9625
29.9638 1581 39.7618
30.0812 1489 38.5876
30.1987 1481 38.4838
30.3162 1423 37.7227
30.4337 1503 38.7685
30.5512 1505 38.7943
30.6687 1500 38.7298
30.7862 1585 39.8121
30.9037 1565 39.5601
31.0212 1537 39.2046
31.1387 1554 39.4208
31.2562 1601 40.0125
31.3737 1571 39.6358
31.4912 1559 39.4842
31.6087 1480 38.4708
31.7262 1445 38.0132
31.8436 1343 36.647
31.9611 1287 35.8748
32.0785 1218 34.8999
32.1959 1215 34.8569
32.3134 1261 35.5106
32.4308 1357 36.8375
32.5482 1455 38.1445
32.6655 1518 38.9615
32.7829 1535 39.1791
32.9002 1554 39.4208
33.0176 1518 38.9615
33.1349 1589 39.8623
33.2522 1587 39.8372
33.3694 1540 39.2428
33.4867 1572 39.6485
33.6039 1559 39.4842
33.7211 1514 38.9102
33.8383 1443 37.9868
33.9554 1457 38.1707
34.0725 1384 37.2022
34.1896 1471 38.3536
34.3067 1518 38.9615
34.4237 1655 40.6817
34.5407 1558 39.4715
34.6577 1599 39.9875
34.7746 1541 39.2556
34.8915 1550 39.37
35.0084 1493 38.6394
35.1252 1589 39.8623
35.242 1527 39.0768
35.3587 1516 38.9358
35.4755 1451 38.092
35.5921 1281 35.7911
35.7088 1198 34.6121
35.8254 1174 34.2637
35.9419 1180 34.3511
36.0584 1272 35.6651
36.1749 1369 37
36.2913 1381 37.1618
36.4077 1536 39.1918
36.524 1606 40.0749
36.6403 1546 39.3192
36.7565 1509 38.8458
36.8727 1635 40.4351
36.9889 1569 39.6106
37.1049 1594 39.9249
37.221 0 1
37.3369 0 1
37.4529 0 1
37.5687 0 1
37.6845 0 1
37.8003 0 1
37.916 0 1
38.0316 0 1
38.1472 0 1
40.5851 0 1
40.7008 0 1
40.8164 0 1
40.9322 0 1
41.048 0 1
41.1639 0 1
41.2798 0 1
41.3958 0 1
41.5118 0 1
41.6279 0 1
41.744 1310 36.1939
41.8602 1326 36.4143
41.9765 1474 38.3927
42.0928 1350 36.7423
42.2091 1374 37.0675
42.3255 1433 37.855
42.4419 1379 37.1349
42.5584 1279 35.7631
42.675 1366 36.9594
42.7915 1353 36.7831
42.9081 1363 36.9188
43.0248 1354 36.7967
43.1415 1345 36.6742
43.2582 1430 37.8153
43.375 1399 37.4032
43.4918 1424 37.7359
43.6087 1444 38
43.7256 1384 37.2022
43.8425 1323 36.3731
43.9595 1365 36.9459
44.0765 1308 36.1663
44.1935 1279 35.7631
44.3106 1226 35.0143
44.4277 1058 32.5269
44.5448 945 30.7409
44.6619 972 31.1769
44.7791 966 31.0805
44.8963 1096 33.1059
45.0136 1111 33.3317
45.1308 1172 34.2345
45.2481 1204 34.6987
45.3654 1227 35.0286
45.4827 1243 35.2562
45.6001 1274 35.6931
45.7174 1210 34.7851
45.8348 1179 34.3366
45.9522 1183 34.3948
46.0697 1199 34.6266
46.1871 1236 35.1568
46.3046 1043 32.2955
46.422 1180 34.3511
46.5395 1119 33.4515
46.657 1235 35.1426
46.7745 1198 34.6121
46.892 1163 34.1028
47.0096 1139 33.7491
47.1271 1158 34.0294
47.2446 1202 34.6699
47.3622 1102 33.1964
47.4797 1108 33.2866
47.5973 1092 33.0454
47.7149 1041 32.2645
47.8324 1010 31.7805
47.95 987 31.4166
48.0675 841 29
48.1851 770 27.7489
48.3027 753 27.4408
48.4202 866 29.4279
48.5378 938 30.6268
48.6554 1026 32.0312
48.7729 1058 32.5269
48.8904 1086 32.9545
49.008 1072 32.7414
49.1255 1148 33.8821
49.243 1162 34.0881
49.3605 1164 34.1174
49.478 1125 33.541
49.5955 1109 33.3017
49.713 1131 33.6303
49.8304 1105 33.2415
49.9479 1082 32.8938
50.0653 1103 33.2114
50.1827 1102 33.1964
50.3001 1157 34.0147
50.4175 1275 35.7071
50.5348 1277 35.7351
50.6521 1272 35.6651
50.7694 1323 36.3731
50.8867 1305 36.1248
51.004 1349 36.7287
51.1212 1369 37
51.2384 1392 37.3095
51.3556 1361 36.8917
51.4727 1238 35.1852
51.5899 1113 33.3617
51.707 1085 32.9393
51.824 1097 33.121
51.9411 1292 35.9444
52.0581 1391 37.2961
52.175 1551 39.3827
52.2919 1708 41.328
52.4088 1623 40.2865
52.5257 1701 41.2432
52.6425 1713 41.3884
52.7593 1680 40.9878
52.876 1810 42.5441
52.9927 1884 43.4051
53.1094 1889 43.4626
53.226 1905 43.6463
53.3426 1895 43.5316
53.4591 1863 43.1625
53.5756 1895 43.5316
53.692 1848 42.9884
53.8084 1872 43.2666
53.9248 1889 43.4626
54.0411 1970 44.3847
54.1573 1990 44.6094
54.2735 0 1
54.3896 0 1
54.5057 0 1
54.6217 0 1
54.7377 0 1
54.8537 0 1
54.9695 0 1
55.0853 0 1
55.2011 0 1
55.3168 0 1
55.4324 0 1
57.824 0 1
57.9396 0 1
58.0553 0 1
58.1711 0 1
58.2869 0 1
58.4028 0 1
58.5187 0 1
58.6347 0 1
58.7508 0 1
58.8669 0 1
58.983 2663 51.6043
59.0992 2733 52.2781
59.2155 2870 53.5724
59.3318 2902 53.8702
59.4482 2945 54.2679
59.5646 2935 54.1756
59.681 2904 53.8888
59.7975 2876 53.6284
59.9141 2668 51.6527
60.0306 2642 51.4004
60.1473 2382 48.8057
60.2639 2150 46.3681
60.3807 2011 44.8442
60.4974 2027 45.0222
60.6142 2226 47.1805
60.731 2440 49.3964
60.8479 2691 51.8748
60.9648 2852 53.4041
61.0818 2881 53.6749
61.1987 2979 54.5802
61.3158 3055 55.2721
61.4328 2945 54.2679
61.5499 3055 55.2721
61.667 3033 55.0727
61.7841 3026 55.0091
61.9013 2974 54.5344
62.0185 2952 54.3323
62.1357 2963 54.4334
62.253 3028 55.0273
62.3702 2880 53.6656
62.4875 3083 55.5248
62.6049 3091 55.5968
62.7222 3128 55.9285
62.8396 3224 56.7803
62.9569 3162 56.2317
63.0743 3207 56.6304
63.1918 3129 55.9375
63.3092 3005 54.8179
63.4267 2942 54.2402
63.5441 2847 53.3573
63.6616 2582 50.8134
63.7791 2211 47.0213
63.8966 2138 46.2385
64.0142 2226 47.1805
64.1317 2417 49.163
64.2492 2750 52.4404
64.3668 3012 54.8817
64.4843 3091 55.5968
64.6019 3269 57.1752
64.7195 3302 57.463
64.837 3405 58.3524
64.9546 3211 56.6657
65.0722 3286 57.3236
65.1898 3425 58.5235
65.3074 3400 58.3095
65.4249 3256 57.0614
65.5425 3273 57.2101
65.6601 3265 57.1402
65.7777 3264 57.1314
65.8952 3114 55.8032
66.0128 3374 58.0861
66.1304 3245 56.9649
66.2479 3319 57.6108
66.3655 3380 58.1378
66.483 3531 59.4222
66.6005 3400 58.3095
66.718 3397 58.2838
66.8355 3333 57.7321
66.953 3311 57.5413
67.0705 3368 58.0345
67.1879 2972 54.5161
67.3054 2713 52.0865
67.4228 2401 49
67.5402 2257 47.5079
67.6576 2341 48.3839
67.7749 2467 49.6689
67.8923 3011 54.8726
68.0096 3485 59.0339
68.1269 3566 59.716
68.2442 3587 59.8916
68.3614 3752 61.2536
68.4787 3810 61.7252
68.5958 3775 61.441
68.713 3685 60.7042
68.8302 3747 61.2127
68.9473 3754 61.2699
69.0643 3773 61.4248
69.1814 3693 60.7701
69.2984 3787 61.5386
69.4154 3894 62.4019
69.5323 3849 62.0403
69.6492 3901 62.458
69.7661 4004 63.2772
69.8829 3982 63.1031
69.9997 4046 63.6082
70.1165 4065 63.7574
70.2332 4040 63.561
70.3499 4123 64.2106
70.4665 3907 62.506
70.5831 3927 62.6658
70.6996 3825 61.8466
70.8161 3738 61.1392
70.9326 3348 57.8619
71.049 3015 54.909
71.1653 2571 50.705
71.2817 2567 50.6656
71.3979 2637 51.3517
71.5141 2984 54.626
71.6303 3177 56.3649
71.7464 3366 58.0172
71.8624 0 1
71.9784 0 1
72.0944 0 1
72.2102 0 1
72.3261 0 1
72.4418 0 1
72.5575 0 1
72.6732 0 1
75.1054 0 1
75.2209 0 1
75.3365 0 1
75.4521 0 1
75.5678 0 1
75.6835 0 1
75.7993 0 1
75.9151 0 1
76.031 0 1
76.147 3479 58.983
76.263 3554 59.6154
76.3791 3305 57.4891
76.4952 2897 53.8238
76.6113 2808 52.9906
76.7276 2992 54.6992
76.8438 3212 56.6745
76.9601 3893 62.3939
77.0765 4083 63.8984
77.1929 4431 66.5658
77.3093 4456 66.7533
77.4258 4463 66.8057
77.5423 4467 66.8356
77.6589 4511 67.164
77.7755 4476 66.9029
77.8921 4334 65.8331
78.0088 4458 66.7683
78.1256 4452 66.7233
78.2423 4375 66.1438
78.3591 4249 65.1844
78.4759 4179 64.6452
78.5928 4214 64.9153
78.7097 4274 65.3758
78.8266 4519 67.2235
78.9436 4135 64.304
79.0606 4354 65.9848
79.1776 4308 65.6354
79.2946 4435 66.5958
79.4117 4348 65.9394
79.5288 4249 65.1844
79.6459 4136 64.3117
79.7631 3925 62.6498
79.8802 3600 60
79.9974 3551 59.5903
80.1147 3100 55.6776
80.2319 2799 52.9056
80.3491 2950 54.3139
80.4664 3199 56.5597
80.5837 3751 61.2454
80.701 4063 63.7417
80.8183 4198 64.792
80.9357 4377 66.1589
81.053 4372 66.1211
81.1704 4274 65.3758
81.2877 4352 65.9697
81.4051 4246 65.1613
81.5225 4315 65.6887
81.6399 4104 64.0625
81.7573 4312 65.6658
81.8747 4244 65.146
81.9922 4038 63.5453
82.1096 4024 63.435
82.227 4137 64.3195
82.3444 4085 63.914
82.4619 4019 63.3956
82.5793 3962 62.9444
82.6967 4174 64.6065
82.8142 4185 64.6916
82.9316 4099 64.0234
83.049 4139 64.3351
83.1664 4091 63.9609
83.2838 4010 63.3246
83.4012 3695 60.7865
83.5186 3428 58.5491
83.636 3151 56.1338
83.7534 2767 52.6023
83.8708 2537 50.3686
83.9881 2618 51.1664
84.1055 2900 53.8516
84.2228 3247 56.9825
84.3401 3721 61
84.4575 3983 63.111
84.5747 4087 63.9296
84.692 4009 63.3167
84.8093 4004 63.2772
84.9265 4187 64.707
85.0437 4156 64.467
85.1609 4075 63.8357
85.2781 4203 64.8305
85.3952 4298 65.5591
85.5123 4108 64.0937
85.6294 4175 64.6142
85.7465 4155 64.4593
85.8636 4277 65.3988
85.9806 4191 64.7379
86.0976 4104 64.0625
86.2145 4286 65.4675
86.3315 4152 64.436
86.4484 4317 65.7039
86.5652 4538 67.3647
86.682 4453 66.7308
86.7988 4370 66.106
86.9156 4191 64.7379
87.0323 3908 62.514
87.149 3831 61.8951
87.2657 3534 59.4475
87.3823 3174 56.3383
87.4988 3198 56.5509
87.6154 3334 57.7408
87.7318 3686 60.7124
87.8483 4184 64.6838
87.9647 4502 67.0969
88.081 4571 67.6092
88.1973 4855 69.6778
88.3136 4887 69.9071
88.4298 4772 69.0797
88.546 4851 69.6491
88.6621 4822 69.4406
88.7781 4661 68.2715
88.8942 0 1
89.0101 0 1
89.126 0 1
89.2419 0 1
89.3577 0 1
89.4734 0 1
89.5891 0 1
89.7047 0 1
89.8203 0 1
89.9358 0 1
92.3269 0 1
92.4424 0 1
92.558 0 1
92.6736 0 1
92.7893 0 1
92.905 0 1
93.0208 0 1
93.1366 0 1
93.2525 0 1
93.3685 0 1
93.4845 0 1
93.6005 4598 67.8086
93.7167 4717 68.6804
93.8328 4841 69.5773
93.949 4747 68.8985
94.0653 4945 70.3207
94.1816 4801 69.2892
94.2979 4848 69.6276
94.4143 4820 69.4262
94.5307 4772 69.0797
94.6472 4922 70.157
94.7637 4794 69.2387
94.8803 4810 69.3542
94.9969 4729 68.7677
95.1135 4840 69.5701
95.2302 4795 69.2459
95.3469 4782 69.152
95.4637 4777 69.1158
95.5805 4821 69.4334
95.6973 4975 70.5337
95.8142 4945 70.3207
95.9311 4824 69.455
96.048 4668 68.3228
96.1649 4431 66.5658
96.2819 4077 63.8514
96.3989 3732 61.0901
96.516 3432 58.5833
96.633 3258 57.0789
96.7501 3376 58.1034
96.8673 3714 60.9426
96.9844 4068 63.7809
97.1016 4620 67.9706
97.2188 4910 70.0714
97.336 5096 71.3863
97.4532 5149 71.7565
97.5704 5175 71.9375
97.6877 5087 71.3232
97.805 5071 71.211
97.9223 4961 70.4344
98.0396 5073 71.225
98.1569 5081 71.2811
98.2743 5075 71.239
98.3916 4983 70.5904
98.509 5100 71.4143
98.6264 4951 70.3633
98.7438 5018 70.8378
98.8612 5150 71.7635
98.9786 5070 71.2039
99.096 4985 70.6045
99.2134 5099 71.4073
99.3308 5142 71.7077
99.4482 5083 71.2952
99.5656 5074 71.232
99.6831 5141 71.7008
99.8005 4719 68.695
99.9179 4496 67.0522
100.035 4067 63.773
100.153 3599 59.9917
100.27 3567 59.7244
100.388 3753 61.2617
100.505 4228 65.0231
100.622 4853 69.6635
100.74 5168 71.8888
100.857 5289 72.7255
100.975 5338 73.0616
101.092 5277 72.643
101.209 5318 72.9246
101.327 5280 72.6636
101.444 5348 73.13
101.561 5296 72.7736
101.679 5426 73.6614
101.796 5396 73.4575
101.913 5536 74.4043
102.03 5377 73.328
102.148 5359 73.2052
102.265 5682 75.379
102.382 5179 71.9653
102.499 5507 74.2092
102.616 5459 73.885
102.733 5533 74.3841
102.851 5525 74.3303
102.968 5578 74.686
103.085 5412 73.5663
103.202 5349 73.1369
103.319 5270 72.5948
103.436 4700 68.5565
103.552 4332 65.8179
103.669 3831 61.8951
103.786 3799 61.636
103.903 4141 64.3506
104.02 4548 67.4389
104.137 5167 71.8818
104.253 5699 75.4917
104.37 5601 74.8398
104.487 5800 76.1577
104.603 5768 75.9474
104.72 5795 76.1249
104.836 5839 76.4133
104.953 5785 76.0592
105.069 5863 76.5702
105.186 5837 76.4003
105.302 5877 76.6616
105.418 5958 77.1881
105.535 5978 77.3175
105.651 5908 76.8635
105.767 5918 76.9285
105.883 5948 77.1233
105.999 5965 77.2334
106.115 0 1
106.231 0 1
106.347 0 1
106.463 0 1
106.579 0 1
106.694 0 1
106.81 0 1
106.926 0 1
107.041 0 1
107.157 0 1
109.576 0 1
109.692 0 1
109.807 0 1
109.923 0 1
110.039 0 1
110.155 0 1
110.27 0 1
110.386 0 1
110.502 0 1
110.618 5444 73.7835
110.735 5613 74.92
110.851 5506 74.2024
110.967 5571 74.6391
111.083 5560 74.5654
111.199 5577 74.6793
111.316 5769 75.9539
111.432 5565 74.5989
111.549 5529 74.3572
111.665 5348 73.13
111.782 5101 71.4213
111.898 5001 70.7177
112.015 4313 65.6734
112.132 3803 61.6685
112.248 3744 61.1882
112.365 3853 62.0725
112.482 4259 65.261
112.599 4491 67.0149
112.716 4996 70.6824
112.832 5178 71.9583
112.949 5408 73.5391
113.066 5115 71.5192
113.183 5184 72
113.3 5196 72.0833
113.417 5169 71.8958
113.534 4949 70.3491
113.652 5071 71.211
113.769 5075 71.239
113.886 5003 70.7319
114.003 4945 70.3207
114.12 4938 70.2709
114.238 4740 68.8477
114.355 4895 69.9643
114.472 4705 68.593
114.589 4852 69.6563
114.707 4900 70
114.824 4874 69.814
114.942 4812 69.3686
115.059 4933 70.2353
115.176 4818 69.4118
115.294 4712 68.644
115.411 4612 67.9117
115.529 4216 64.9307
115.646 3802 61.6604
115.764 3441 58.66
115.881 3451 58.7452
115.999 3785 61.5224
116.116 4142 64.3584
116.234 4456 66.7533
116.351 4956 70.3989
116.469 4950 70.3562
116.586 4824 69.455
116.704 4969 70.4911
116.821 4963 70.4486
116.939 5082 71.2881
117.056 4976 70.5408
117.174 4806 69.3253
117.291 4849 69.6348
117.409 5004 70.739
117.526 4942 70.2994
117.644 5089 71.3372
117.761 4886 69.8999
117.879 5066 71.1758
117.996 5029 70.9154
118.114 4952 70.3704
118.231 5037 70.9718
118.349 5068 71.1899
118.466 5034 70.9507
118.584 4957 70.406
118.701 4959 70.4202
118.819 4944 70.3136
118.936 4769 69.0579
119.053 4553 67.4759
119.171 4201 64.8151
119.288 3680 60.663
119.405 3480 58.9915
119.523 3432 58.5833
119.64 3690 60.7454
119.757 4143 64.3661
119.875 4520 67.2309
119.992 4932 70.2282
120.109 4829 69.491
120.226 4896 69.9714
120.343 4929 70.2068
120.46 4860 69.7137
120.578 5000 70.7107
120.695 4889 69.9214
120.812 4990 70.6399
120.929 4934 70.2424
121.046 4944 70.3136
121.163 4886 69.8999
121.279 4858 69.6994
121.396 4785 69.1737
121.513 4824 69.455
121.63 4741 68.8549
121.747 4819 69.419
121.863 4998 70.6965
121.98 4762 69.0072
122.097 4697 68.5347
122.213 4814 69.383
122.33 4815 69.3902
122.446 4841 69.5773
122.563 4855 69.6778
122.679 4623 67.9926
122.795 4239 65.1076
122.912 4151 64.4283
123.028 3826 61.8547
123.144 3412 58.4123
123.26 3378 58.1206
123.377 0 1
123.493 0 1
123.609 0 1
123.725 0 1
123.84 0 1
123.956 0 1
124.072 0 1
124.188 0 1
124.303 0 1
124.419 0 1
126.852 0 1
126.968 0 1
127.083 0 1
127.199 0 1
127.315 0 1
127.431 0 1
127.547 0 1
127.663 0 1
127.779 0 1
127.895 0 1
128.011 0 1
128.127 0 1
128.243 0 1
128.359 4006 63.293
128.476 3905 62.49
128.592 4027 63.4586
128.708 4475 66.8954
128.825 5009 70.7743
128.941 5323 72.9589
129.058 5337 73.0548
129.174 5483 74.0473
129.291 5501 74.1687
129.408 5416 73.5935
129.524 5451 73.8309
129.641 5360 73.212
129.758 5430 73.6885
129.875 5379 73.3417
129.992 5343 73.0958
130.108 5352 73.1574
130.225 5262 72.5396
130.342 5272 72.6085
130.459 5186 72.0139
130.576 5270 72.5948
130.693 5231 72.3257
130.81 5099 71.4073
130.928 5163 71.854
131.045 5321 72.9452
131.162 5287 72.7118
131.279 5264 72.5534
131.396 5267 72.5741
131.513 5051 71.0704
131.631 4890 69.9285
131.748 4567 67.5796
131.865 4219 64.9538
131.983 3763 61.3433
132.1 3971 63.0159
132.217 4268 65.3299
132.335 4807 69.3325
132.452 4993 70.6612
132.57 5316 72.9109
132.687 5068 71.1899
132.804 5427 73.6682
132.922 5291 72.7393
133.039 5280 72.6636
133.157 5320 72.9383
133.274 5330 73.0068
133.392 5256 72.4983
133.509 5019 70.8449
133.627 5169 71.8958
133.744 5134 71.6519
133.862 5018 70.8378
133.979 5066 71.1758
134.097 5005 70.746
134.214 5042 71.007
134.332 4942 70.2994
134.449 5198 72.0972
134.567 5040 70.993
134.684 4985 70.6045
134.802 5105 71.4493
134.919 5009 70.7743
135.037 4991 70.647
135.154 4757 68.971
135.272 4511 67.164
135.389 4137 64.3195
135.507 3845 62.0081
135.624 3727 61.0492
135.742 3937 62.7455
135.859 4421 66.4906
135.977 4753 68.942
136.094 4981 70.5762
136.211 5147 71.7426
136.329 5112 71.4983
136.446 5203 72.1318
136.564 5176 71.9444
136.681 5268 72.581
136.798 5142 71.7077
136.915 5007 70.7602
137.033 5035 70.9577
137.15 5078 71.2601
137.267 4989 70.6329
137.384 4938 70.2709
137.502 4914 70.0999
137.619 4808 69.3397
137.736 5006 70.7531
137.853 4848 69.6276
137.97 4672 68.352
138.087 5101 71.4213
138.204 5017 70.8308
138.321 4912 70.0857
138.438 5103 71.4353
138.555 5117 71.5332
138.672 4915 70.1071
138.788 4923 70.1641
138.905 4533 67.3276
139.022 4387 66.2344
139.139 3984 63.1189
139.255 3798 61.6279
139.372 3933 62.7136
139.488 4378 66.1665
139.605 4751 68.9275
139.721 4951 70.3633
139.838 5128 71.6101
139.954 5002 70.7248
140.071 5020 70.852
140.187 5099 71.4073
140.303 4988 70.6258
140.419 5003 70.7319
140.535 5058 71.1196
140.652 4939 70.278
140.768 0 1
140.884 0 1
141 0 1
141.115 0 1
141.231 0 1
141.347 0 1
141.463 0 1
141.578 0 1
141.694 0 1
144.104 0 1
144.219 0 1
144.335 0 1
144.45 0 1
144.566 0 1
144.682 0 1
144.798 0 1
144.914 0 1
145.03 0 1
145.146 4451 66.7158
145.262 4428 66.5432
145.378 4385 66.2193
145.494 4424 66.5132
145.61 4343 65.9014
145.726 4334 65.8331
145.842 4299 65.5668
145.959 4158 64.4826
146.075 4176 64.622
146.192 4180 64.6529
146.308 4196 64.7765
146.425 4056 63.6867
146.541 4137 64.3195
146.658 4171 64.5833
146.774 4186 64.6993
146.891 4224 64.9923
147.008 4195 64.7688
147.125 4170 64.5755
147.241 4140 64.3428
147.358 4048 63.6239
147.475 3919 62.6019
147.592 3736 61.1228
147.709 3385 58.1808
147.826 3153 56.1516
147.943 3222 56.7627
148.06 3551 59.5903
148.177 3794 61.5955
148.294 4047 63.616
148.411 4031 63.4902
148.528 4163 64.5213
148.645 4129 64.2573
148.762 4109 64.1015
148.88 4135 64.304
148.997 3967 62.9841
149.114 4134 64.2962
149.231 4002 63.2614
149.349 4030 63.4823
149.466 3882 62.3057
149.583 3720 60.9918
149.701 3879 62.2816
149.818 3706 60.8769
149.935 3760 61.3188
150.053 3710 60.9098
150.17 3755 61.2781
150.287 3919 62.6019
150.405 3918 62.5939
150.522 3797 61.6198
150.64 3922 62.6259
150.757 3863 62.153
150.875 3913 62.554
150.992 3893 62.3939
151.11 3574 59.7829
151.227 3550 59.5819
151.344 3228 56.8155
151.462 3024 54.9909
151.579 3102 55.6956
151.697 3345 57.836
151.814 3720 60.9918
151.932 3920 62.6099
152.049 4034 63.5138
152.167 4045 63.6003
152.284 4051 63.6475
152.402 4066 63.7652
152.519 4025 63.4429
152.636 4080 63.8749
152.754 4029 63.4744
152.871 3978 63.0714
152.989 3849 62.0403
153.106 3818 61.79
153.223 3742 61.1719
153.341 3777 61.4573
153.458 3679 60.6548
153.575 3666 60.5475
153.693 3666 60.5475
153.81 3937 62.7455
153.927 3799 61.636
154.044 3780 61.4817
154.162 3864 62.1611
154.279 3970 63.0079
154.396 3936 62.7375
154.513 4013 63.3482
154.63 4008 63.3088
154.747 3877 62.2656
154.864 3573 59.7746
154.981 3376 58.1034
155.098 3177 56.3649
155.215 3248 56.9912
155.332 3460 58.8218
155.449 3803 61.6685
155.566 3987 63.1427
155.683 4001 63.2535
155.8 3876 62.2575
155.917 3974 63.0397
156.033 4075 63.8357
156.15 0 1
156.267 0 1
156.383 0 1
156.5 0 1
156.617 0 1
156.733 0 1
156.85 0 1
156.966 0 1
157.082 0 1
157.199 0 1
157.315 0 1
157.431 0 1
157.547 0 1
157.664 0 1
157.78 0 1
157.896 0 1
158.012 0 1
158.128 0 1
158.244 0 1
158.359 0 1
158.475 0 1
158.591 0 1
158.706 0 1
