
6.15755 0 1
6.2731 0 1
6.3887 0 1
6.50437 0 1
6.62009 0 1
6.73587 0 1
6.8517 0 1
6.96759 0 1
7.08353 0 1
7.19952 0 1
7.31557 0 1
7.43166 0 1
7.54781 0 1
7.664 0 1
7.78024 0 1
7.89653 0 1
8.01286 0 1
8.12924 0 1
8.24567 0 1
8.36213 0 1
8.47864 0 1
8.59519 0 1
8.71178 0 1
8.82841 0 1
8.94508 0 1
9.06179 0 1
9.17853 0 1
9.29531 0 1
9.41212 0 1
9.52897 0 1
9.64584 0 1
9.76276 0 1
9.8797 0 1
9.99667 0 1
10.1137 0 1
10.2307 0 1
10.3478 0 1
10.4648 0 1
10.5819 0 1
10.6991 0 1
10.8162 0 1
10.9334 0 1
11.0506 0 1
11.1678 0 1
11.285 0 1
11.4023 0 1
11.5196 0 1
11.6369 0 1
11.7542 0 1
11.8715 0 1
11.9888 0 1
12.1062 0 1
12.2235 0 1
12.3409 0 1
12.4582 0 1
12.5756 0 1
12.693 0 1
12.8104 0 1
12.9278 0 1
13.0452 0 1
13.1626 0 1
13.28 0 1
13.3974 0 1
13.5149 0 1
13.6323 0 1
13.7497 0 1
13.8671 0 1
13.9845 0 1
14.1019 0 1
14.2193 0 1
14.3367 0 1
14.4541 0 1
14.5714 0 1
14.6888 0 1
14.8062 0 1
14.9235 0 1
15.0408 737 27.1477
15.1581 816 28.5657
15.2755 890 29.8329
15.3927 905 30.0832
15.51 883 29.7153
15.6273 939 30.6431
15.7445 960 30.9839
15.8617 970 31.1448
15.9789 894 29.8998
16.0961 843 29.0345
16.2132 891 29.8496
16.3304 851 29.1719
16.4475 858 29.2916
16.5646 822 28.6705
16.6816 846 29.0861
16.7986 929 30.4795
16.9156 826 28.7402
17.0326 826 28.7402
17.1496 795 28.1957
17.2665 786 28.0357
17.3833 777 27.8747
17.5002 841 29
17.617 734 27.0924
17.7338 780 27.9285
17.8505 816 28.5657
17.9672 871 29.5127
18.0839 886 29.7658
18.2005 852 29.189
18.3171 916 30.2655
18.4337 919 30.315
18.5502 1018 31.9061
18.6666 944 30.7246
18.7831 980 31.305
18.8994 963 31.0322
19.0158 987 31.4166
19.1321 982 31.3369
19.2483 957 30.9354
19.3645 902 30.0333
19.4806 893 29.8831
19.5967 883 29.7153
19.7128 804 28.3549
19.8288 821 28.6531
19.9447 730 27.0185
20.0606 0 1
20.1764 0 1
20.2922 0 1
20.4079 0 1
20.5236 0 1
20.6392 0 1
20.7548 0 1
20.8702 0 1
23.3078 0 1
23.4233 0 1
23.539 0 1
23.6547 0 1
23.7704 0 1
23.8862 0 1
24.0021 0 1
24.118 0 1
24.234 0 1
24.35 0 1
24.4661 839 28.9655
24.5822 824 28.7054
24.6984 902 30.0333
24.8146 829 28.7924
24.9309 847 29.1033
25.0472 917 30.282
25.1636 927 30.4467
25.28 905 30.0832
25.3965 909 30.1496
25.513 953 30.8707
25.6296 917 30.282
25.7462 946 30.7571
25.8628 956 30.9192
25.9795 917 30.282
26.0962 991 31.4802
26.213 972 31.1769
26.3298 920 30.3315
26.4466 914 30.2324
26.5635 930 30.4959
26.6804 918 30.2985
26.7973 946 30.7571
26.9143 897 29.95
27.0313 898 29.9666
27.1483 863 29.3769
27.2653 819 28.6182
27.3824 928 30.4631
27.4996 878 29.6311
27.6167 870 29.4958
27.7339 886 29.7658
27.8511 876 29.5973
27.9683 867 29.4449
28.0855 912 30.1993
28.2028 973 31.1929
28.3201 846 29.0861
28.4374 887 29.7825
28.5547 825 28.7228
28.6721 906 30.0998
28.7894 875 29.5804
28.9068 880 29.6648
29.0242 916 30.2655
29.1416 918 30.2985
29.259 884 29.7321
29.3764 888 29.7993
29.4939 877 29.6142
29.6113 862 29.3598
29.7288 830 28.8097
29.8463 789 28.0891
29.9638 776 27.8568
30.0812 797 28.2312
30.1987 837 28.931
30.3162 824 28.7054
30.4337 815 28.5482
30.5512 808 28.4253
30.6687 780 27.9285
30.7862 746 27.313
30.9037 811 28.4781
31.0212 856 29.2575
31.1387 872 29.5296
31.2562 934 30.5614
31.3737 923 30.3809
31.4912 938 30.6268
31.6087 941 30.6757
31.7262 917 30.282
31.8436 938 30.6268
31.9611 870 29.4958
32.0785 903 30.05
32.1959 856 29.2575
32.3134 877 29.6142
32.4308 884 29.7321
32.5482 927 30.4467
32.6655 860 29.3258
32.7829 829 28.7924
32.9002 833 28.8617
33.0176 792 28.1425
33.1349 792 28.1425
33.2522 794 28.178
33.3694 777 27.8747
33.4867 809 28.4429
33.6039 772 27.7849
33.7211 744 27.2764
33.8383 812 28.4956
33.9554 787 28.0535
34.0725 837 28.931
34.1896 822 28.6705
34.3067 777 27.8747
34.4237 713 26.7021
34.5407 805 28.3725
34.6577 910 30.1662
34.7746 916 30.2655
34.8915 959 30.9677
35.0084 913 30.2159
35.1252 887 29.7825
35.242 925 30.4138
35.3587 899 29.9833
35.4755 898 29.9666
35.5921 873 29.5466
35.7088 833 28.8617
35.8254 860 29.3258
35.9419 795 28.1957
36.0584 778 27.8927
36.1749 823 28.688
36.2913 751 27.4044
36.4077 767 27.6948
36.524 714 26.7208
36.6403 749 27.3679
36.7565 685 26.1725
36.8727 743 27.258
36.9889 717 26.7769
37.1049 712 26.6833
37.221 0 1
37.3369 0 1
37.4529 0 1
37.5687 0 1
37.6845 0 1
37.8003 0 1
37.916 0 1
38.0316 0 1
38.1472 0 1
40.5851 0 1
40.7008 0 1
40.8164 0 1
40.9322 0 1
41.048 0 1
41.1639 0 1
41.2798 0 1
41.3958 0 1
41.5118 0 1
41.6279 0 1
41.744 575 23.9792
41.8602 617 24.8395
41.9765 644 25.3772
42.0928 636 25.219
42.2091 608 24.6577
42.3255 553 23.516
42.4419 558 23.622
42.5584 622 24.9399
42.675 617 24.8395
42.7915 625 25
42.9081 681 26.096
43.0248 645 25.3969
43.1415 570 23.8747
43.2582 579 24.0624
43.375 657 25.632
43.4918 679 26.0576
43.6087 659 25.671
43.7256 640 25.2982
43.8425 628 25.0599
43.9595 670 25.8844
44.0765 652 25.5343
44.1935 598 24.454
44.3106 565 23.7697
44.4277 566 23.7908
44.5448 570 23.8747
44.6619 541 23.2594
44.7791 551 23.4734
44.8963 525 22.9129
45.0136 577 24.0208
45.1308 531 23.0434
45.2481 527 22.9565
45.3654 522 22.8473
45.4827 480 21.9089
45.6001 470 21.6795
45.7174 459 21.4243
45.8348 424 20.5913
45.9522 407 20.1742
46.0697 409 20.2237
46.1871 414 20.347
46.3046 437 20.9045
46.422 470 21.6795
46.5395 476 21.8174
46.657 455 21.3307
46.7745 432 20.7846
46.892 391 19.7737
47.0096 457 21.3776
47.1271 425 20.6155
47.2446 415 20.3715
47.3622 437 20.9045
47.4797 442 21.0238
47.5973 393 19.8242
47.7149 430 20.7364
47.8324 407 20.1742
47.95 434 20.8327
48.0675 378 19.4422
48.1851 405 20.1246
48.3027 394 19.8494
48.4202 392 19.799
48.5378 435 20.8567
48.6554 403 20.0749
48.7729 394 19.8494
48.8904 404 20.0998
49.008 353 18.7883
49.1255 366 19.1311
49.243 355 18.8414
49.3605 342 18.4932
49.478 373 19.3132
49.5955 334 18.2757
49.713 374 19.3391
49.8304 378 19.4422
49.9479 375 19.3649
50.0653 415 20.3715
50.1827 361 19
50.3001 369 19.2094
50.4175 366 19.1311
50.5348 453 21.2838
50.6521 454 21.3073
50.7694 499 22.3383
50.8867 476 21.8174
51.004 448 21.166
51.1212 490 22.1359
51.2384 469 21.6564
51.3556 500 22.3607
51.4727 472 21.7256
51.5899 481 21.9317
51.707 512 22.6274
51.824 507 22.5167
51.9411 527 22.9565
52.0581 528 22.9783
52.175 508 22.5389
52.2919 568 23.8328
52.4088 507 22.5167
52.5257 555 23.5584
52.6425 557 23.6008
52.7593 513 22.6495
52.876 519 22.7816
52.9927 543 23.3024
53.1094 557 23.6008
53.226 588 24.2487
53.3426 584 24.1661
53.4591 523 22.8692
53.5756 542 23.2809
53.692 566 23.7908
53.8084 499 22.3383
53.9248 514 22.6716
54.0411 495 22.2486
54.1573 571 23.8956
54.2735 0 1
54.3896 0 1
54.5057 0 1
54.6217 0 1
54.7377 0 1
54.8537 0 1
54.9695 0 1
55.0853 0 1
55.2011 0 1
55.3168 0 1
55.4324 0 1
57.824 0 1
57.9396 0 1
58.0553 0 1
58.1711 0 1
58.2869 0 1
58.4028 0 1
58.5187 0 1
58.6347 0 1
58.7508 0 1
58.8669 0 1
58.983 565 23.7697
59.0992 590 24.2899
59.2155 656 25.6125
59.3318 636 25.219
59.4482 687 26.2107
59.5646 704 26.533
59.681 708 26.6083
59.7975 684 26.1534
59.9141 678 26.0384
60.0306 734 27.0924
60.1473 669 25.865
60.2639 671 25.9037
60.3807 636 25.219
60.4974 576 24
60.6142 659 25.671
60.731 666 25.807
60.8479 665 25.7876
60.9648 655 25.593
61.0818 654 25.5734
61.1987 600 24.4949
61.3158 555 23.5584
61.4328 580 24.0832
61.5499 573 23.9374
61.667 580 24.0832
61.7841 524 22.891
61.9013 570 23.8747
62.0185 607 24.6374
62.1357 579 24.0624
62.253 576 24
62.3702 576 24
62.4875 535 23.1301
62.6049 547 23.388
62.7222 577 24.0208
62.8396 579 24.0624
62.9569 647 25.4362
63.0743 657 25.632
63.1918 609 24.6779
63.3092 611 24.7184
63.4267 640 25.2982
63.5441 576 24
63.6616 644 25.3772
63.7791 548 23.4094
63.8966 588 24.2487
64.0142 603 24.5561
64.1317 593 24.3516
64.2492 595 24.3926
64.3668 613 24.7588
64.4843 579 24.0624
64.6019 593 24.3516
64.7195 551 23.4734
64.837 543 23.3024
64.9546 554 23.5372
65.0722 504 22.4499
65.1898 504 22.4499
65.3074 526 22.9347
65.4249 506 22.4944
65.5425 541 23.2594
65.6601 551 23.4734
65.7777 521 22.8254
65.8952 530 23.0217
66.0128 462 21.4942
66.1304 490 22.1359
66.2479 497 22.2935
66.3655 556 23.5797
66.483 619 24.8797
66.6005 593 24.3516
66.718 575 23.9792
66.8355 589 24.2693
66.953 563 23.7276
67.0705 563 23.7276
67.1879 593 24.3516
67.3054 569 23.8537
67.4228 546 23.3666
67.5402 597 24.4336
67.6576 591 24.3105
67.7749 584 24.1661
67.8923 595 24.3926
68.0096 578 24.0416
68.1269 639 25.2784
68.2442 620 24.8998
68.3614 586 24.2074
68.4787 512 22.6274
68.5958 558 23.622
68.713 518 22.7596
68.8302 523 22.8692
68.9473 498 22.3159
69.0643 543 23.3024
69.1814 590 24.2899
69.2984 603 24.5561
69.4154 559 23.6432
69.5323 537 23.1733
69.6492 539 23.2164
69.7661 517 22.7376
69.8829 528 22.9783
69.9997 621 24.9199
70.1165 636 25.219
70.2332 605 24.5967
70.3499 648 25.4558
70.4665 637 25.2389
70.5831 620 24.8998
70.6996 657 25.632
70.8161 615 24.7992
70.9326 651 25.5147
71.049 620 24.8998
71.1653 604 24.5764
71.2817 584 24.1661
71.3979 564 23.7487
71.5141 634 25.1794
71.6303 623 24.96
71.7464 526 22.9347
71.8624 0 1
71.9784 0 1
72.0944 0 1
72.2102 0 1
72.3261 0 1
72.4418 0 1
72.5575 0 1
72.6732 0 1
75.1054 0 1
75.2209 0 1
75.3365 0 1
75.4521 0 1
75.5678 0 1
75.6835 0 1
75.7993 0 1
75.9151 0 1
76.031 0 1
76.147 591 24.3105
76.263 610 24.6982
76.3791 609 24.6779
76.4952 611 24.7184
76.6113 642 25.3377
76.7276 656 25.6125
76.8438 624 24.98
76.9601 660 25.6905
77.0765 648 25.4558
77.1929 675 25.9808
77.3093 631 25.1197
77.4258 632 25.1396
77.5423 600 24.4949
77.6589 574 23.9583
77.7755 554 23.5372
77.8921 530 23.0217
78.0088 524 22.891
78.1256 513 22.6495
78.2423 528 22.9783
78.3591 650 25.4951
78.4759 601 24.5153
78.5928 511 22.6053
78.7097 488 22.0907
78.8266 465 21.5639
78.9436 535 23.1301
79.0606 509 22.561
79.1776 659 25.671
79.2946 637 25.2389
79.4117 623 24.96
79.5288 630 25.0998
79.6459 645 25.3969
79.7631 646 25.4165
79.8802 603 24.5561
79.9974 582 24.1247
80.1147 572 23.9165
80.2319 601 24.5153
80.3491 565 23.7697
80.4664 607 24.6374
80.5837 585 24.1868
80.701 615 24.7992
80.8183 589 24.2693
80.9357 607 24.6374
81.053 622 24.9399
81.1704 603 24.5561
81.2877 543 23.3024
81.4051 481 21.9317
81.5225 509 22.561
81.6399 480 21.9089
81.7573 545 23.3452
81.8747 537 23.1733
81.9922 522 22.8473
82.1096 551 23.4734
82.227 502 22.4054
82.3444 512 22.6274
82.4619 461 21.4709
82.5793 474 21.7715
82.6967 482 21.9545
82.8142 543 23.3024
82.9316 559 23.6432
83.049 562 23.7065
83.1664 588 24.2487
83.2838 542 23.2809
83.4012 622 24.9399
83.5186 532 23.0651
83.636 556 23.5797
83.7534 502 22.4054
83.8708 513 22.6495
83.9881 536 23.1517
84.1055 526 22.9347
84.2228 563 23.7276
84.3401 576 24
84.4575 592 24.3311
84.5747 571 23.8956
84.692 558 23.622
84.8093 494 22.2261
84.9265 482 21.9545
85.0437 496 22.2711
85.1609 457 21.3776
85.2781 490 22.1359
85.3952 508 22.5389
85.5123 600 24.4949
85.6294 577 24.0208
85.7465 563 23.7276
85.8636 552 23.4947
85.9806 451 21.2368
86.0976 505 22.4722
86.2145 570 23.8747
86.3315 603 24.5561
86.4484 652 25.5343
86.5652 662 25.7294
86.682 625 25
86.7988 624 24.98
86.9156 610 24.6982
87.0323 642 25.3377
87.149 687 26.2107
87.2657 632 25.1396
87.3823 642 25.3377
87.4988 637 25.2389
87.6154 649 25.4755
87.7318 681 26.096
87.8483 712 26.6833
87.9647 773 27.8029
88.081 783 27.9821
88.1973 722 26.8701
88.3136 696 26.3818
88.4298 695 26.3629
88.546 622 24.9399
88.6621 693 26.3249
88.7781 606 24.6171
88.8942 0 1
89.0101 0 1
89.126 0 1
89.2419 0 1
89.3577 0 1
89.4734 0 1
89.5891 0 1
89.7047 0 1
89.8203 0 1
89.9358 0 1
92.3269 0 1
92.4424 0 1
92.558 0 1
92.6736 0 1
92.7893 0 1
92.905 0 1
93.0208 0 1
93.1366 0 1
93.2525 0 1
93.3685 0 1
93.4845 0 1
93.6005 763 27.6225
93.7167 755 27.4773
93.8328 713 26.7021
93.949 763 27.6225
94.0653 690 26.2679
94.1816 659 25.671
94.2979 687 26.2107
94.4143 640 25.2982
94.5307 680 26.0768
94.6472 656 25.6125
94.7637 811 28.4781
94.8803 762 27.6043
94.9969 732 27.0555
95.1135 717 26.7769
95.2302 702 26.4953
95.3469 710 26.6458
95.4637 735 27.1109
95.5805 788 28.0713
95.6973 753 27.4408
95.8142 797 28.2312
95.9311 816 28.5657
96.048 795 28.1957
96.1649 779 27.9106
96.2819 788 28.0713
96.3989 805 28.3725
96.516 759 27.55
96.633 753 27.4408
96.7501 768 27.7128
96.8673 772 27.7849
96.9844 819 28.6182
97.1016 875 29.5804
97.2188 833 28.8617
97.336 838 28.9482
97.4532 819 28.6182
97.5704 742 27.2397
97.6877 774 27.8209
97.805 760 27.5681
97.9223 713 26.7021
98.0396 723 26.8887
98.1569 719 26.8142
98.2743 723 26.8887
98.3916 765 27.6586
98.509 798 28.2489
98.6264 790 28.1069
98.7438 762 27.6043
98.8612 809 28.4429
98.9786 738 27.1662
99.096 758 27.5318
99.2134 828 28.775
99.3308 799 28.2666
99.4482 879 29.6479
99.5656 876 29.5973
99.6831 869 29.4788
99.8005 831 28.8271
99.9179 820 28.6356
100.035 826 28.7402
100.153 811 28.4781
100.27 831 28.8271
100.388 798 28.2489
100.505 858 29.2916
100.622 894 29.8998
100.74 849 29.1376
100.857 906 30.0998
100.975 900 30
101.092 860 29.3258
101.209 846 29.0861
101.327 838 28.9482
101.444 806 28.3901
101.561 761 27.5862
101.679 781 27.9464
101.796 804 28.3549
101.913 858 29.2916
102.03 899 29.9833
102.148 854 29.2233
102.265 899 29.9833
102.382 919 30.315
102.499 848 29.1204
102.616 891 29.8496
102.733 887 29.7825
102.851 936 30.5941
102.968 984 31.3688
103.085 929 30.4795
103.202 981 31.3209
103.319 955 30.9031
103.436 907 30.1164
103.552 921 30.348
103.669 980 31.305
103.786 954 30.8869
103.903 928 30.4631
104.02 948 30.7896
104.137 1050 32.4037
104.253 1016 31.8748
104.37 998 31.5911
104.487 1104 33.2265
104.603 1039 32.2335
104.72 1002 31.6544
104.836 1010 31.7805
104.953 930 30.4959
105.069 919 30.315
105.186 930 30.4959
105.302 1019 31.9218
105.418 1037 32.2025
105.535 1090 33.0151
105.651 1029 32.078
105.767 1063 32.6037
105.883 1005 31.7017
105.999 1036 32.187
106.115 0 1
106.231 0 1
106.347 0 1
106.463 0 1
106.579 0 1
106.694 0 1
106.81 0 1
106.926 0 1
107.041 0 1
107.157 0 1
109.576 0 1
109.692 0 1
109.807 0 1
109.923 0 1
110.039 0 1
110.155 0 1
110.27 0 1
110.386 0 1
110.502 0 1
110.618 1077 32.8177
110.735 1076 32.8024
110.851 1052 32.4345
110.967 1003 31.6702
111.083 1060 32.5576
111.199 1024 32
111.316 1087 32.9697
111.432 1082 32.8938
111.549 1129 33.6006
111.665 1067 32.665
111.782 1046 32.3419
111.898 1097 33.121
112.015 1099 33.1512
112.132 993 31.5119
112.248 1003 31.6702
112.365 985 31.3847
112.482 979 31.289
112.599 1057 32.5115
112.716 1068 32.6803
112.832 1119 33.4515
112.949 1089 33
113.066 1123 33.5112
113.183 1073 32.7567
113.3 1146 33.8526
113.417 1028 32.0624
113.534 991 31.4802
113.652 955 30.9031
113.769 988 31.4325
113.886 994 31.5278
114.003 1062 32.5883
114.12 1074 32.7719
114.238 1024 32
114.355 1007 31.7333
114.472 1000 31.6228
114.589 1019 31.9218
114.707 1041 32.2645
114.824 1047 32.3574
114.942 1041 32.2645
115.059 1067 32.665
115.176 1008 31.749
115.294 1100 33.1662
115.411 1081 32.8786
115.529 1089 33
115.646 1043 32.2955
115.764 1052 32.4345
115.881 1056 32.4962
115.999 1048 32.3728
116.116 1053 32.45
116.234 1113 33.3617
116.351 1112 33.3467
116.469 1210 34.7851
116.586 1215 34.8569
116.704 1207 34.7419
116.821 1189 34.4819
116.939 1157 34.0147
117.056 1177 34.3074
117.174 1133 33.6601
117.291 1087 32.9697
117.409 1087 32.9697
117.526 1110 33.3167
117.644 1153 33.9559
117.761 1183 34.3948
117.879 1078 32.8329
117.996 1156 34
118.114 1127 33.5708
118.231 1148 33.8821
118.349 1131 33.6303
118.466 1117 33.4215
118.584 1177 34.3074
118.701 1107 33.2716
118.819 1117 33.4215
118.936 1141 33.7787
119.053 1123 33.5112
119.171 1136 33.7046
119.288 1045 32.3265
119.405 1054 32.4654
119.523 1068 32.6803
119.64 1084 32.9242
119.757 1033 32.1403
119.875 1092 33.0454
119.992 1141 33.7787
120.109 1113 33.3617
120.226 1207 34.7419
120.343 1229 35.0571
120.46 1207 34.7419
120.578 1220 34.9285
120.695 1229 35.0571
120.812 1157 34.0147
120.929 1140 33.7639
121.046 1149 33.8969
121.163 1111 33.3317
121.279 1156 34
121.396 1131 33.6303
121.513 1177 34.3074
121.63 1210 34.7851
121.747 1130 33.6155
121.863 1155 33.9853
121.98 1079 32.8481
122.097 1146 33.8526
122.213 1075 32.7872
122.33 1090 33.0151
122.446 1093 33.0606
122.563 1115 33.3916
122.679 1093 33.0606
122.795 1023 31.9844
122.912 1042 32.28
123.028 1027 32.0468
123.144 1100 33.1662
123.26 1000 31.6228
123.377 0 1
123.493 0 1
123.609 0 1
123.725 0 1
123.84 0 1
123.956 0 1
124.072 0 1
124.188 0 1
124.303 0 1
124.419 0 1
126.852 0 1
126.968 0 1
127.083 0 1
127.199 0 1
127.315 0 1
127.431 0 1
127.547 0 1
127.663 0 1
127.779 0 1
127.895 0 1
128.011 0 1
128.127 0 1
128.243 0 1
128.359 1338 36.5787
128.476 1286 35.8608
128.592 1301 36.0694
128.708 1217 34.8855
128.825 1238 35.1852
128.941 1278 35.7491
129.058 1298 36.0278
129.174 1294 35.9722
129.291 1283 35.819
129.408 1372 37.0405
129.524 1402 37.4433
129.641 1404 37.47
129.758 1415 37.6165
129.875 1453 38.1182
129.992 1440 37.9473
130.108 1354 36.7967
130.225 1431 37.8286
130.342 1444 38
130.459 1451 38.092
130.576 1498 38.704
130.693 1407 37.51
130.81 1418 37.6563
130.928 1423 37.7227
131.045 1408 37.5233
131.162 1466 38.2884
131.279 1470 38.3406
131.396 1453 38.1182
131.513 1413 37.5899
131.631 1370 37.0135
131.748 1441 37.9605
131.865 1441 37.9605
131.983 1360 36.8782
132.1 1446 38.0263
132.217 1378 37.1214
132.335 1380 37.1484
132.452 1460 38.2099
132.57 1376 37.0945
132.687 1376 37.0945
132.804 1421 37.6962
132.922 1501 38.7427
133.039 1410 37.55
133.157 1400 37.4166
133.274 1437 37.9078
133.392 1441 37.9605
133.509 1414 37.6032
133.627 1423 37.7227
133.744 1420 37.6829
133.862 1528 39.0896
133.979 1522 39.0128
134.097 1565 39.5601
134.214 1606 40.0749
134.332 1569 39.6106
134.449 1535 39.1791
134.567 1628 40.3485
134.684 1556 39.4462
134.802 1595 39.9375
134.919 1602 40.025
135.037 1559 39.4842
135.154 1614 40.1746
135.272 1552 39.3954
135.389 1589 39.8623
135.507 1571 39.6358
135.624 1503 38.7685
135.742 1471 38.3536
135.859 1441 37.9605
135.977 1465 38.2753
136.094 1449 38.0657
136.211 1481 38.4838
136.329 1511 38.8716
136.446 1470 38.3406
136.564 1516 38.9358
136.681 1452 38.1051
136.798 1492 38.6264
136.915 1469 38.3275
137.033 1485 38.5357
137.15 1504 38.7814
137.267 1468 38.3145
137.384 1576 39.6989
137.502 1441 37.9605
137.619 1543 39.281
137.736 1657 40.7063
137.853 1639 40.4846
137.97 1732 41.6173
138.087 1588 39.8497
138.204 1640 40.4969
138.321 1664 40.7922
138.438 1715 41.4126
138.555 1715 41.4126
138.672 1732 41.6173
138.788 1741 41.7253
138.905 1692 41.1339
139.022 1789 42.2966
139.139 1653 40.6571
139.255 1631 40.3856
139.372 1663 40.7799
139.488 1557 39.4588
139.605 1584 39.7995
139.721 1628 40.3485
139.838 1586 39.8246
139.954 1489 38.5876
140.071 1600 40
140.187 1574 39.6737
140.303 1627 40.3361
140.419 1580 39.7492
140.535 1515 38.923
140.652 1487 38.5616
140.768 0 1
140.884 0 1
141 0 1
141.115 0 1
141.231 0 1
141.347 0 1
141.463 0 1
141.578 0 1
141.694 0 1
144.104 0 1
144.219 0 1
144.335 0 1
144.45 0 1
144.566 0 1
144.682 0 1
144.798 0 1
144.914 0 1
145.03 0 1
145.146 1312 36.2215
145.262 1309 36.1801
145.378 1409 37.5366
145.494 1381 37.1618
145.61 1434 37.8682
145.726 1356 36.8239
145.842 1362 36.9053
145.959 1371 37.027
146.075 1430 37.8153
146.192 1420 37.6829
146.308 1453 38.1182
146.425 1324 36.3868
146.541 1411 37.5633
146.658 1308 36.1663
146.774 1337 36.565
146.891 1311 36.2077
147.008 1203 34.6843
147.125 1288 35.8887
147.241 1253 35.3977
147.358 1366 36.9594
147.475 1328 36.4417
147.592 1367 36.973
147.709 1351 36.756
147.826 1372 37.0405
147.943 1375 37.081
148.06 1499 38.7169
148.177 1383 37.1887
148.294 1383 37.1887
148.411 1464 38.2623
148.528 1471 38.3536
148.645 1501 38.7427
148.762 1464 38.2623
148.88 1529 39.1024
148.997 1496 38.6782
149.114 1614 40.1746
149.231 1528 39.0896
149.349 1568 39.598
149.466 1572 39.6485
149.583 1518 38.9615
149.701 1535 39.1791
149.818 1535 39.1791
149.935 1532 39.1408
150.053 1634 40.4228
150.17 1512 38.8844
150.287 1513 38.8973
150.405 1522 39.0128
150.522 1495 38.6652
150.64 1476 38.4187
150.757 1355 36.8103
150.875 1403 37.4566
150.992 1392 37.3095
151.11 1303 36.0971
151.227 1315 36.2629
151.344 1317 36.2905
151.462 1292 35.9444
151.579 1245 35.2846
151.697 1240 35.2136
151.814 1227 35.0286
151.932 1249 35.3412
152.049 1285 35.8469
152.167 1305 36.1248
152.284 1357 36.8375
152.402 1302 36.0832
152.519 1349 36.7287
152.636 1457 38.1707
152.754 1382 37.1753
152.871 1443 37.9868
152.989 1422 37.7094
153.106 1448 38.0526
153.223 1482 38.4968
153.341 1550 39.37
153.458 1556 39.4462
153.575 1408 37.5233
153.693 1591 39.8873
153.81 1566 39.5727
153.927 1631 40.3856
154.044 1687 41.0731
154.162 1677 40.9512
154.279 1580 39.7492
154.396 1603 40.0375
154.513 1566 39.5727
154.63 1650 40.6202
154.747 1639 40.4846
154.864 1657 40.7063
154.981 1545 39.3065
155.098 1593 39.9124
155.215 1571 39.6358
155.332 1493 38.6394
155.449 1464 38.2623
155.566 1353 36.7831
155.683 1339 36.5923
155.8 1267 35.5949
155.917 1155 33.9853
156.033 1165 34.1321
156.15 0 1
156.267 0 1
156.383 0 1
156.5 0 1
156.617 0 1
156.733 0 1
156.85 0 1
156.966 0 1
157.082 0 1
157.199 0 1
157.315 0 1
157.431 0 1
157.547 0 1
157.664 0 1
157.78 0 1
157.896 0 1
158.012 0 1
158.128 0 1
158.244 0 1
158.359 0 1
158.475 0 1
158.591 0 1
158.706 0 1
