
6.15755 0 1
6.2731 0 1
6.3887 0 1
6.50437 0 1
6.62009 0 1
6.73587 0 1
6.8517 0 1
6.96759 0 1
7.08353 0 1
7.19952 0 1
7.31557 0 1
7.43166 0 1
7.54781 0 1
7.664 0 1
7.78024 0 1
7.89653 0 1
8.01286 0 1
8.12924 0 1
8.24567 0 1
8.36213 0 1
8.47864 0 1
8.59519 0 1
8.71178 0 1
8.82841 0 1
8.94508 0 1
9.06179 0 1
9.17853 0 1
9.29531 0 1
9.41212 0 1
9.52897 0 1
9.64584 0 1
9.76276 0 1
9.8797 0 1
9.99667 0 1
10.1137 0 1
10.2307 0 1
10.3478 0 1
10.4648 0 1
10.5819 0 1
10.6991 0 1
10.8162 0 1
10.9334 0 1
11.0506 0 1
11.1678 0 1
11.285 0 1
11.4023 0 1
11.5196 0 1
11.6369 0 1
11.7542 0 1
11.8715 0 1
11.9888 0 1
12.1062 0 1
12.2235 0 1
12.3409 0 1
12.4582 0 1
12.5756 0 1
12.693 0 1
12.8104 0 1
12.9278 0 1
13.0452 0 1
13.1626 0 1
13.28 0 1
13.3974 0 1
13.5149 0 1
13.6323 0 1
13.7497 0 1
13.8671 0 1
13.9845 0 1
14.1019 0 1
14.2193 0 1
14.3367 0 1
14.4541 0 1
14.5714 0 1
14.6888 0 1
14.8062 0 1
14.9235 0 1
15.0408 1581 39.7618
15.1581 1683 41.0244
15.2755 1786 42.2611
15.3927 1752 41.8569
15.51 1692 41.1339
15.6273 1698 41.2068
15.7445 1680 40.9878
15.8617 1622 40.2741
15.9789 1633 40.4104
16.0961 1555 39.4335
16.2132 1655 40.6817
16.3304 1727 41.5572
16.4475 1774 42.1189
16.5646 1864 43.1741
16.6816 1890 43.4741
16.7986 1993 44.643
16.9156 2208 46.9894
17.0326 2255 47.4868
17.1496 2277 47.7179
17.2665 2382 48.8057
17.3833 2373 48.7134
17.5002 2342 48.3942
17.617 2258 47.5184
17.7338 2412 49.1121
17.8505 2469 49.689
17.9672 2438 49.3761
18.0839 2539 50.3885
18.2005 2549 50.4876
18.3171 2576 50.7543
18.4337 2557 50.5668
18.5502 2540 50.3984
18.6666 2563 50.6261
18.7831 2484 49.8397
18.8994 2516 50.1597
19.0158 2425 49.2443
19.1321 2321 48.1768
19.2483 2311 48.0729
19.3645 2248 47.4131
19.4806 2281 47.7598
19.5967 2147 46.3357
19.7128 1988 44.587
19.8288 1766 42.0238
19.9447 1530 39.1152
20.0606 0 1
20.1764 0 1
20.2922 0 1
20.4079 0 1
20.5236 0 1
20.6392 0 1
20.7548 0 1
20.8702 0 1
23.3078 0 1
23.4233 0 1
23.539 0 1
23.6547 0 1
23.7704 0 1
23.8862 0 1
24.0021 0 1
24.118 0 1
24.234 0 1
24.35 0 1
24.4661 2266 47.6025
24.5822 2249 47.4236
24.6984 2263 47.571
24.8146 2265 47.592
24.9309 2175 46.6369
25.0472 1978 44.4747
25.1636 1876 43.3128
25.28 1834 42.8252
25.3965 1903 43.6234
25.513 2016 44.8999
25.6296 2221 47.1275
25.7462 2420 49.1935
25.8628 2624 51.225
25.9795 2599 50.9804
26.0962 2645 51.4296
26.213 2681 51.7784
26.3298 2661 51.5849
26.4466 2624 51.225
26.5635 2679 51.7591
26.6804 2632 51.303
26.7973 2633 51.3128
26.9143 2686 51.8266
27.0313 2636 51.342
27.1483 2689 51.8556
27.2653 2555 50.547
27.3824 2686 51.8266
27.4996 2595 50.9411
27.6167 2562 50.6162
27.7339 2432 49.3153
27.8511 2380 48.7852
27.9683 2423 49.224
28.0855 2420 49.1935
28.2028 2378 48.7647
28.3201 2301 47.9687
28.4374 2253 47.4658
28.5547 2102 45.8476
28.6721 1764 42
28.7894 1777 42.1545
28.9068 1859 43.1161
29.0242 1859 43.1161
29.1416 2015 44.8888
29.259 2047 45.2438
29.3764 2231 47.2335
29.4939 2440 49.3964
29.6113 2432 49.3153
29.7288 2509 50.0899
29.8463 2430 49.295
29.9638 2462 49.6185
30.0812 2611 51.0979
30.1987 2538 50.3786
30.3162 2434 49.3356
30.4337 2466 49.6588
30.5512 2465 49.6488
30.6687 2406 49.051
30.7862 2393 48.9183
30.9037 2419 49.1833
31.0212 2520 50.1996
31.1387 2511 50.1099
31.2562 2455 49.548
31.3737 2394 48.9285
31.4912 2404 49.0306
31.6087 2390 48.8876
31.7262 2453 49.5278
31.8436 2372 48.7032
31.9611 2325 48.2183
32.0785 2116 46
32.1959 1878 43.3359
32.3134 1736 41.6653
32.4308 1732 41.6173
32.5482 1779 42.1782
32.6655 1940 44.0454
32.7829 2059 45.3762
32.9002 2238 47.3075
33.0176 2419 49.1833
33.1349 2465 49.6488
33.2522 2330 48.2701
33.3694 2429 49.2849
33.4867 2402 49.0102
33.6039 2417 49.163
33.7211 2437 49.366
33.8383 2427 49.2646
33.9554 2503 50.03
34.0725 2428 49.2747
34.1896 2391 48.8979
34.3067 2369 48.6724
34.4237 2305 48.0104
34.5407 2324 48.2079
34.6577 2381 48.7955
34.7746 2393 48.9183
34.8915 2321 48.1768
35.0084 2359 48.5695
35.1252 2313 48.0937
35.242 2296 47.9166
35.3587 2368 48.6621
35.4755 2282 47.7703
35.5921 2286 47.8121
35.7088 2170 46.5833
35.8254 1961 44.2832
35.9419 1811 42.5558
36.0584 1624 40.2989
36.1749 1696 41.1825
36.2913 1691 41.1218
36.4077 1842 42.9185
36.524 1987 44.5758
36.6403 2096 45.7821
36.7565 2258 47.5184
36.8727 2329 48.2597
36.9889 2352 48.4974
37.1049 2246 47.392
37.221 0 1
37.3369 0 1
37.4529 0 1
37.5687 0 1
37.6845 0 1
37.8003 0 1
37.916 0 1
38.0316 0 1
38.1472 0 1
40.5851 0 1
40.7008 0 1
40.8164 0 1
40.9322 0 1
41.048 0 1
41.1639 0 1
41.2798 0 1
41.3958 0 1
41.5118 0 1
41.6279 0 1
41.744 1514 38.9102
41.8602 1727 41.5572
41.9765 1835 42.8369
42.0928 1811 42.5558
42.2091 1990 44.6094
42.3255 1927 43.8976
42.4419 1919 43.8064
42.5584 1923 43.852
42.675 1958 44.2493
42.7915 1917 43.7836
42.9081 1799 42.4146
43.0248 1849 43
43.1415 1819 42.6497
43.2582 1843 42.9302
43.375 1890 43.4741
43.4918 1806 42.4971
43.6087 1833 42.8135
43.7256 1741 41.7253
43.8425 1784 42.2374
43.9595 1686 41.0609
44.0765 1662 40.7676
44.1935 1707 41.3159
44.3106 1649 40.6079
44.4277 1629 40.3609
44.5448 1473 38.3797
44.6619 1378 37.1214
44.7791 1200 34.641
44.8963 1109 33.3017
45.0136 1097 33.121
45.1308 1127 33.5708
45.2481 1147 33.8674
45.3654 1282 35.805
45.4827 1357 36.8375
45.6001 1426 37.7624
45.7174 1382 37.1753
45.8348 1452 38.1051
45.9522 1423 37.7227
46.0697 1326 36.4143
46.1871 1410 37.55
46.3046 1379 37.1349
46.422 1362 36.9053
46.5395 1329 36.4555
46.657 1343 36.647
46.7745 1225 35
46.892 1287 35.8748
47.0096 1334 36.524
47.1271 1422 37.7094
47.2446 1299 36.0416
47.3622 1292 35.9444
47.4797 1262 35.5246
47.5973 1194 34.5543
47.7149 1212 34.8138
47.8324 1179 34.3366
47.95 1169 34.1906
48.0675 1105 33.2415
48.1851 918 30.2985
48.3027 880 29.6648
48.4202 836 28.9137
48.5378 709 26.6271
48.6554 812 28.4956
48.7729 877 29.6142
48.8904 913 30.2159
49.008 1058 32.5269
49.1255 1033 32.1403
49.243 1052 32.4345
49.3605 1055 32.4808
49.478 1086 32.9545
49.5955 1096 33.1059
49.713 1138 33.7343
49.8304 1116 33.4066
49.9479 1070 32.7109
50.0653 1085 32.9393
50.1827 1102 33.1964
50.3001 1180 34.3511
50.4175 1171 34.2199
50.5348 1225 35
50.6521 1266 35.5809
50.7694 1273 35.6791
50.8867 1319 36.318
51.004 1342 36.6333
51.1212 1370 37.0135
51.2384 1365 36.9459
51.3556 1409 37.5366
51.4727 1375 37.081
51.5899 1367 36.973
51.707 1268 35.609
51.824 1216 34.8712
51.9411 1141 33.7787
52.0581 1195 34.5688
52.175 1191 34.5109
52.2919 1312 36.2215
52.4088 1462 38.2361
52.5257 1603 40.0375
52.6425 1597 39.9625
52.7593 1701 41.2432
52.876 1714 41.4005
52.9927 1704 41.2795
53.1094 1781 42.2019
53.226 1877 43.3244
53.3426 1806 42.4971
53.4591 1816 42.6146
53.5756 1762 41.9762
53.692 1734 41.6413
53.8084 1728 41.5692
53.9248 1797 42.391
54.0411 1914 43.7493
54.1573 1999 44.7102
54.2735 0 1
54.3896 0 1
54.5057 0 1
54.6217 0 1
54.7377 0 1
54.8537 0 1
54.9695 0 1
55.0853 0 1
55.2011 0 1
55.3168 0 1
55.4324 0 1
57.824 0 1
57.9396 0 1
58.0553 0 1
58.1711 0 1
58.2869 0 1
58.4028 0 1
58.5187 0 1
58.6347 0 1
58.7508 0 1
58.8669 0 1
58.983 1908 43.6807
59.0992 2055 45.3321
59.2155 2107 45.9021
59.3318 2286 47.8121
59.4482 2315 48.1144
59.5646 2384 48.8262
59.681 2341 48.3839
59.7975 2335 48.3218
59.9141 2263 47.571
60.0306 2164 46.5188
60.1473 2173 46.6154
60.2639 2069 45.4863
60.3807 1976 44.4522
60.4974 1800 42.4264
60.6142 1775 42.1307
60.731 1746 41.7852
60.8479 1745 41.7732
60.9648 1790 42.3084
61.0818 1903 43.6234
61.1987 2058 45.3652
61.3158 2005 44.7772
61.4328 2046 45.2327
61.5499 1994 44.6542
61.667 1981 44.5084
61.7841 1982 44.5197
61.9013 1978 44.4747
62.0185 1951 44.1701
62.1357 1860 43.1277
62.253 1891 43.4856
62.3702 1974 44.4297
62.4875 1890 43.4741
62.6049 1985 44.5533
62.7222 2101 45.8367
62.8396 2118 46.0217
62.9569 2098 45.8039
63.0743 2132 46.1736
63.1918 2016 44.8999
63.3092 2061 45.3982
63.4267 2034 45.0999
63.5441 1988 44.587
63.6616 1971 44.3959
63.7791 1855 43.0697
63.8966 1748 41.8091
64.0142 1695 41.1704
64.1317 1612 40.1497
64.2492 1565 39.5601
64.3668 1540 39.2428
64.4843 1644 40.5463
64.6019 1695 41.1704
64.7195 1756 41.9047
64.837 1769 42.0595
64.9546 1811 42.5558
65.0722 1885 43.4166
65.1898 1806 42.4971
65.3074 1837 42.8602
65.4249 1813 42.5793
65.5425 1780 42.19
65.6601 1727 41.5572
65.7777 1706 41.3038
65.8952 1689 41.0974
66.0128 1771 42.0833
66.1304 1817 42.6263
66.2479 1880 43.359
66.3655 1883 43.3935
66.483 1998 44.699
66.6005 2046 45.2327
66.718 1941 44.0568
66.8355 2001 44.7325
66.953 2014 44.8776
67.0705 1945 44.1022
67.1879 1851 43.0232
67.3054 1793 42.3438
67.4228 1826 42.7317
67.5402 1543 39.281
67.6576 1575 39.6863
67.7749 1492 38.6264
67.8923 1587 39.8372
68.0096 1527 39.0768
68.1269 1648 40.5956
68.2442 1699 41.2189
68.3614 1777 42.1545
68.4787 1883 43.3935
68.5958 1850 43.0116
68.713 1842 42.9185
68.8302 1915 43.7607
68.9473 1828 42.7551
69.0643 1906 43.6578
69.1814 1823 42.6966
69.2984 1808 42.5206
69.4154 1812 42.5676
69.5323 1813 42.5793
69.6492 1830 42.7785
69.7661 1992 44.6318
69.8829 2080 45.607
69.9997 2058 45.3652
70.1165 2288 47.833
70.2332 2219 47.1063
70.3499 2286 47.8121
70.4665 2128 46.1303
70.5831 2143 46.2925
70.6996 2143 46.2925
70.8161 2116 46
70.9326 2069 45.4863
71.049 1988 44.587
71.1653 1868 43.2204
71.2817 1804 42.4735
71.3979 1669 40.8534
71.5141 1534 39.1663
71.6303 1494 38.6523
71.7464 1356 36.8239
71.8624 0 1
71.9784 0 1
72.0944 0 1
72.2102 0 1
72.3261 0 1
72.4418 0 1
72.5575 0 1
72.6732 0 1
75.1054 0 1
75.2209 0 1
75.3365 0 1
75.4521 0 1
75.5678 0 1
75.6835 0 1
75.7993 0 1
75.9151 0 1
76.031 0 1
76.147 1866 43.1972
76.263 1931 43.9431
76.3791 2001 44.7325
76.4952 1982 44.5197
76.6113 1861 43.1393
76.7276 1711 41.3642
76.8438 1719 41.4608
76.9601 1673 40.9023
77.0765 1739 41.7013
77.1929 1937 44.0114
77.3093 2073 45.5302
77.4258 2121 46.0543
77.5423 2070 45.4973
77.6589 2128 46.1303
77.7755 2066 45.4533
77.8921 2062 45.4093
78.0088 2006 44.7884
78.1256 1857 43.0929
78.2423 1776 42.1426
78.3591 1675 40.9268
78.4759 1541 39.2556
78.5928 1654 40.6694
78.7097 1860 43.1277
78.8266 1843 42.9302
78.9436 2143 46.2925
79.0606 2136 46.2169
79.1776 2163 46.5081
79.2946 2169 46.5725
79.4117 2099 45.8148
79.5288 2114 45.9783
79.6459 2050 45.2769
79.7631 2066 45.4533
79.8802 1977 44.4635
79.9974 1880 43.359
80.1147 1763 41.9881
80.2319 1680 40.9878
80.3491 1668 40.8412
80.4664 1599 39.9875
80.5837 1605 40.0625
80.701 1693 41.1461
80.8183 1700 41.2311
80.9357 1716 41.4246
81.053 1912 43.7264
81.1704 1891 43.4856
81.2877 1841 42.9069
81.4051 1872 43.2666
81.5225 1814 42.5911
81.6399 1794 42.3556
81.7573 1695 41.1704
81.8747 1514 38.9102
81.9922 1424 37.7359
82.1096 1380 37.1484
82.227 1363 36.9188
82.3444 1623 40.2865
82.4619 1753 41.8688
82.5793 1886 43.4281
82.6967 1828 42.7551
82.8142 1980 44.4972
82.9316 1838 42.8719
83.049 1839 42.8836
83.1664 1831 42.7902
83.2838 1789 42.2966
83.4012 1696 41.1825
83.5186 1682 41.0122
83.636 1599 39.9875
83.7534 1490 38.6005
83.8708 1475 38.4057
83.9881 1383 37.1887
84.1055 1345 36.6742
84.2228 1432 37.8418
84.3401 1372 37.0405
84.4575 1523 39.0256
84.5747 1604 40.05
84.692 1701 41.2432
84.8093 1745 41.7732
84.9265 1672 40.8901
85.0437 1683 41.0244
85.1609 1731 41.6053
85.2781 1560 39.4968
85.3952 1421 37.6962
85.5123 1371 37.027
85.6294 1381 37.1618
85.7465 1396 37.3631
85.8636 1494 38.6523
85.9806 1627 40.3361
86.0976 1846 42.9651
86.2145 1939 44.0341
86.3315 2114 45.9783
86.4484 1881 43.3705
86.5652 2026 45.0111
86.682 2102 45.8476
86.7988 2074 45.5412
86.9156 1945 44.1022
87.0323 1912 43.7264
87.149 1920 43.8178
87.2657 1777 42.1545
87.3823 1778 42.1663
87.4988 1641 40.5093
87.6154 1705 41.2916
87.7318 1699 41.2189
87.8483 1761 41.9643
87.9647 1812 42.5676
88.081 1963 44.3058
88.1973 2023 44.9778
88.3136 2075 45.5522
88.4298 2077 45.5741
88.546 2021 44.9555
88.6621 2021 44.9555
88.7781 1933 43.9659
88.8942 0 1
89.0101 0 1
89.126 0 1
89.2419 0 1
89.3577 0 1
89.4734 0 1
89.5891 0 1
89.7047 0 1
89.8203 0 1
89.9358 0 1
92.3269 0 1
92.4424 0 1
92.558 0 1
92.6736 0 1
92.7893 0 1
92.905 0 1
93.0208 0 1
93.1366 0 1
93.2525 0 1
93.3685 0 1
93.4845 0 1
93.6005 1968 44.3621
93.7167 2044 45.2106
93.8328 2175 46.6369
93.949 1978 44.4747
94.0653 1951 44.1701
94.1816 1973 44.4185
94.2979 1941 44.0568
94.4143 1750 41.833
94.5307 1561 39.5095
94.6472 1488 38.5746
94.7637 1556 39.4462
94.8803 1657 40.7063
94.9969 1952 44.1814
95.1135 2105 45.8803
95.2302 2161 46.4866
95.3469 2239 47.3181
95.4637 2290 47.8539
95.5805 2244 47.3709
95.6973 2320 48.1664
95.8142 2298 47.9375
95.9311 2313 48.0937
96.048 2259 47.5289
96.1649 2107 45.9021
96.2819 2025 45
96.3989 1996 44.6766
96.516 1880 43.359
96.633 1905 43.6463
96.7501 1819 42.6497
96.8673 1793 42.3438
96.9844 1804 42.4735
97.1016 1946 44.1135
97.2188 1948 44.1362
97.336 2110 45.9347
97.4532 2112 45.9565
97.5704 2114 45.9783
97.6877 2047 45.2438
97.805 2082 45.6289
97.9223 1895 43.5316
98.0396 1646 40.5709
98.1569 1557 39.4588
98.2743 1452 38.1051
98.3916 1380 37.1484
98.509 1553 39.4081
98.6264 1797 42.391
98.7438 1927 43.8976
98.8612 2087 45.6837
98.9786 2248 47.4131
99.096 2190 46.7974
99.2134 2237 47.2969
99.3308 2286 47.8121
99.4482 2265 47.592
99.5656 2121 46.0543
99.6831 2184 46.7333
99.8005 2129 46.1411
99.9179 1897 43.5546
100.035 1951 44.1701
100.153 1844 42.9418
100.27 1791 42.3202
100.388 1882 43.382
100.505 1839 42.8836
100.622 1923 43.852
100.74 1912 43.7264
100.857 2047 45.2438
100.975 2017 44.911
101.092 2087 45.6837
101.209 2113 45.9674
101.327 2035 45.111
101.444 1960 44.2719
101.561 1824 42.7083
101.679 1648 40.5956
101.796 1493 38.6394
101.913 1438 37.921
102.03 1464 38.2623
102.148 1847 42.9767
102.265 2050 45.2769
102.382 2216 47.0744
102.499 2230 47.2229
102.616 2322 48.1871
102.733 2439 49.3862
102.851 2385 48.8365
102.968 2423 49.224
103.085 2455 49.548
103.202 2332 48.2908
103.319 2103 45.8585
103.436 2188 46.7761
103.552 2225 47.1699
103.669 1978 44.4747
103.786 2000 44.7214
103.903 1988 44.587
104.02 2034 45.0999
104.137 2152 46.3897
104.253 2174 46.6262
104.37 2286 47.8121
104.487 2309 48.0521
104.603 2246 47.392
104.72 2195 46.8508
104.836 2191 46.8081
104.953 2151 46.3789
105.069 1899 43.5775
105.186 1659 40.7308
105.302 1630 40.3733
105.418 1646 40.5709
105.535 1774 42.1189
105.651 2192 46.8188
105.767 2406 49.051
105.883 2464 49.6387
105.999 2590 50.892
106.115 0 1
106.231 0 1
106.347 0 1
106.463 0 1
106.579 0 1
106.694 0 1
106.81 0 1
106.926 0 1
107.041 0 1
107.157 0 1
109.576 0 1
109.692 0 1
109.807 0 1
109.923 0 1
110.039 0 1
110.155 0 1
110.27 0 1
110.386 0 1
110.502 0 1
110.618 1760 41.9524
110.735 2116 46
110.851 2285 47.8017
110.967 2430 49.295
111.083 2471 49.7092
111.199 2487 49.8698
111.316 2508 50.0799
111.432 2590 50.892
111.549 2493 49.93
111.665 2482 49.8197
111.782 2284 47.7912
111.898 2266 47.6025
112.015 2212 47.0319
112.132 2189 46.7868
112.248 2075 45.5522
112.365 2134 46.1952
112.482 2026 45.0111
112.599 2187 46.7654
112.716 2197 46.8722
112.832 2174 46.6262
112.949 2262 47.5605
113.066 2291 47.8644
113.183 2235 47.2758
113.3 2200 46.9042
113.417 2246 47.392
113.534 2094 45.7602
113.652 1971 44.3959
113.769 1638 40.4722
113.886 1488 38.5746
114.003 1488 38.5746
114.12 1632 40.398
114.238 1965 44.3283
114.355 2282 47.7703
114.472 2356 48.5386
114.589 2386 48.8467
114.707 2490 49.8999
114.824 2418 49.1732
114.942 2552 50.5173
115.059 2605 51.0392
115.176 2611 51.0979
115.294 2485 49.8498
115.411 2516 50.1597
115.529 2387 48.8569
115.646 2338 48.3529
115.764 2212 47.0319
115.881 2320 48.1664
115.999 2318 48.1456
116.116 2373 48.7134
116.234 2417 49.163
116.351 2308 48.0416
116.469 2380 48.7852
116.586 2414 49.1325
116.704 2458 49.5782
116.821 2372 48.7032
116.939 2413 49.1223
117.056 2281 47.7598
117.174 2105 45.8803
117.291 1847 42.9767
117.409 1685 41.0488
117.526 1654 40.6694
117.644 1639 40.4846
117.761 1893 43.5086
117.879 2267 47.613
117.996 2418 49.1732
118.114 2531 50.309
118.231 2566 50.6557
118.349 2598 50.9706
118.466 2751 52.45
118.584 2651 51.4879
118.701 2626 51.2445
118.819 2597 50.9608
118.936 2477 49.7695
119.053 2450 49.4975
119.171 2312 48.0833
119.288 2357 48.5489
119.405 2269 47.634
119.523 2324 48.2079
119.64 2302 47.9792
119.757 2395 48.9387
119.875 2371 48.6929
119.992 2300 47.9583
120.109 2433 49.3254
120.226 2357 48.5489
120.343 2298 47.9375
120.46 2368 48.6621
120.578 2308 48.0416
120.695 2293 47.8853
120.812 2144 46.3033
120.929 1946 44.1135
121.046 1803 42.4617
121.163 1646 40.5709
121.279 1680 40.9878
121.396 1782 42.2137
121.513 2022 44.9667
121.63 2248 47.4131
121.747 2417 49.163
121.863 2488 49.8799
121.98 2518 50.1797
122.097 2645 51.4296
122.213 2584 50.8331
122.33 2588 50.8724
122.446 2619 51.1762
122.563 2576 50.7543
122.679 2491 49.9099
122.795 2349 48.4665
122.912 2355 48.5283
123.028 2291 47.8644
123.144 2311 48.0729
123.26 2211 47.0213
123.377 0 1
123.493 0 1
123.609 0 1
123.725 0 1
123.84 0 1
123.956 0 1
124.072 0 1
124.188 0 1
124.303 0 1
124.419 0 1
126.852 0 1
126.968 0 1
127.083 0 1
127.199 0 1
127.315 0 1
127.431 0 1
127.547 0 1
127.663 0 1
127.779 0 1
127.895 0 1
128.011 0 1
128.127 0 1
128.243 0 1
128.359 2526 50.2593
128.476 2567 50.6656
128.592 2537 50.3686
128.708 2524 50.2394
128.825 2585 50.8429
128.941 2627 51.2543
129.058 2609 51.0784
129.174 2490 49.8999
129.291 2579 50.7839
129.408 2462 49.6185
129.524 2468 49.679
129.641 2492 49.9199
129.758 2383 48.816
129.875 2048 45.2548
129.992 1902 43.6119
130.108 1745 41.7732
130.225 1647 40.5832
130.342 1930 43.9318
130.459 2196 46.8615
130.576 2689 51.8556
130.693 2780 52.7257
130.81 2853 53.4135
130.928 2818 53.0848
131.045 2766 52.5928
131.162 2796 52.8772
131.279 2872 53.591
131.396 2935 54.1756
131.513 2780 52.7257
131.631 2762 52.5547
131.748 2743 52.3737
131.865 2760 52.5357
131.983 2733 52.2781
132.1 2700 51.9615
132.217 2701 51.9711
132.335 2754 52.4786
132.452 2768 52.6118
132.57 2727 52.2207
132.687 2730 52.2494
132.804 2726 52.2111
132.922 2669 51.6624
133.039 2679 51.7591
133.157 2747 52.4118
133.274 2561 50.6063
133.392 2206 46.9681
133.509 2063 45.4203
133.627 1820 42.6615
133.744 1781 42.2019
133.862 1731 41.6053
133.979 2052 45.299
134.097 2398 48.9694
134.214 2563 50.6261
134.332 2746 52.4023
134.449 2845 53.3385
134.567 2747 52.4118
134.684 2735 52.2972
134.802 2774 52.6688
134.919 2870 53.5724
135.037 2886 53.7215
135.154 2726 52.2111
135.272 2680 51.7687
135.389 2703 51.9904
135.507 2780 52.7257
135.624 2702 51.9808
135.742 2681 51.7784
135.859 2784 52.7636
135.977 2777 52.6972
136.094 2719 52.144
136.211 2672 51.6914
136.329 2814 53.0471
136.446 2747 52.4118
136.564 2681 51.7784
136.681 2616 51.1468
136.798 2624 51.225
136.915 2384 48.8262
137.033 2131 46.1628
137.15 1958 44.2493
137.267 1874 43.2897
137.384 1665 40.8044
137.502 1820 42.6615
137.619 2072 45.5192
137.736 2407 49.0612
137.853 2503 50.03
137.97 2778 52.7067
138.087 2743 52.3737
138.204 2683 51.7977
138.321 2894 53.7959
138.438 2810 53.0094
138.555 2930 54.1295
138.672 2863 53.507
138.788 2749 52.4309
138.905 2749 52.4309
139.022 2755 52.4881
139.139 2756 52.4976
139.255 2757 52.5071
139.372 2717 52.1249
139.488 2756 52.4976
139.605 2801 52.9245
139.721 2737 52.3163
139.838 2810 53.0094
139.954 2744 52.3832
140.071 2664 51.614
140.187 2729 52.2398
140.303 2661 51.5849
140.419 2698 51.9423
140.535 2525 50.2494
140.652 2185 46.744
140.768 0 1
140.884 0 1
141 0 1
141.115 0 1
141.231 0 1
141.347 0 1
141.463 0 1
141.578 0 1
141.694 0 1
144.104 0 1
144.219 0 1
144.335 0 1
144.45 0 1
144.566 0 1
144.682 0 1
144.798 0 1
144.914 0 1
145.03 0 1
145.146 1834 42.8252
145.262 2057 45.3542
145.378 2130 46.1519
145.494 2058 45.3652
145.61 1946 44.1135
145.726 1910 43.7035
145.842 1742 41.7373
145.959 1635 40.4351
146.075 1569 39.6106
146.192 1387 37.2424
146.308 1525 39.0512
146.425 1586 39.8246
146.541 1735 41.6533
146.658 1880 43.359
146.774 2031 45.0666
146.891 2121 46.0543
147.008 2262 47.5605
147.125 2279 47.7389
147.241 2336 48.3322
147.358 2401 49
147.475 2298 47.9375
147.592 2413 49.1223
147.709 2299 47.9479
147.826 2341 48.3839
147.943 2373 48.7134
148.06 2381 48.7955
148.177 2312 48.0833
148.294 2246 47.392
148.411 2327 48.239
148.528 2367 48.6518
148.645 2320 48.1664
148.762 2311 48.0729
148.88 2288 47.833
148.997 2294 47.8957
149.114 2425 49.2443
149.231 2355 48.5283
149.349 2237 47.2969
149.466 2179 46.6798
149.583 2017 44.911
149.701 1834 42.8252
149.818 1704 41.2795
149.935 1622 40.2741
150.053 1521 39
150.17 1653 40.6571
150.287 1628 40.3485
150.405 1904 43.6348
150.522 1995 44.6654
150.64 2134 46.1952
150.757 2270 47.6445
150.875 2349 48.4665
150.992 2418 49.1732
151.11 2420 49.1935
151.227 2419 49.1833
151.344 2487 49.8698
151.462 2477 49.7695
151.579 2508 50.0799
151.697 2430 49.295
151.814 2447 49.4672
151.932 2377 48.7545
152.049 2570 50.6952
152.167 2463 49.6286
152.284 2434 49.3356
152.402 2448 49.4773
152.519 2567 50.6656
152.636 2384 48.8262
152.754 2376 48.7442
152.871 2393 48.9183
152.989 2385 48.8365
153.106 2290 47.8539
153.223 2099 45.8148
153.341 1893 43.5086
153.458 1835 42.8369
153.575 1698 41.2068
153.693 1651 40.6325
153.81 1736 41.6653
153.927 1873 43.2782
154.044 2029 45.0444
154.162 2164 46.5188
154.279 2245 47.3814
154.396 2430 49.295
154.513 2507 50.07
154.63 2514 50.1398
154.747 2635 51.3323
154.864 2571 50.705
154.981 2701 51.9711
155.098 2747 52.4118
155.215 2630 51.2835
155.332 2714 52.0961
155.449 2647 51.449
155.566 2594 50.9313
155.683 2527 50.2693
155.8 2485 49.8498
155.917 2558 50.5767
156.033 2520 50.1996
156.15 0 1
156.267 0 1
156.383 0 1
156.5 0 1
156.617 0 1
156.733 0 1
156.85 0 1
156.966 0 1
157.082 0 1
157.199 0 1
157.315 0 1
157.431 0 1
157.547 0 1
157.664 0 1
157.78 0 1
157.896 0 1
158.012 0 1
158.128 0 1
158.244 0 1
158.359 0 1
158.475 0 1
158.591 0 1
158.706 0 1
