
6.15755 0 1
6.2731 0 1
6.3887 0 1
6.50437 0 1
6.62009 0 1
6.73587 0 1
6.8517 0 1
6.96759 0 1
7.08353 0 1
7.19952 0 1
7.31557 0 1
7.43166 0 1
7.54781 0 1
7.664 0 1
7.78024 0 1
7.89653 0 1
8.01286 0 1
8.12924 0 1
8.24567 0 1
8.36213 0 1
8.47864 0 1
8.59519 0 1
8.71178 0 1
8.82841 0 1
8.94508 0 1
9.06179 0 1
9.17853 0 1
9.29531 0 1
9.41212 0 1
9.52897 0 1
9.64584 0 1
9.76276 0 1
9.8797 0 1
9.99667 0 1
10.1137 0 1
10.2307 0 1
10.3478 0 1
10.4648 0 1
10.5819 0 1
10.6991 0 1
10.8162 0 1
10.9334 0 1
11.0506 0 1
11.1678 0 1
11.285 0 1
11.4023 0 1
11.5196 0 1
11.6369 0 1
11.7542 0 1
11.8715 0 1
11.9888 0 1
12.1062 0 1
12.2235 0 1
12.3409 0 1
12.4582 0 1
12.5756 0 1
12.693 0 1
12.8104 0 1
12.9278 0 1
13.0452 0 1
13.1626 0 1
13.28 0 1
13.3974 0 1
13.5149 0 1
13.6323 0 1
13.7497 0 1
13.8671 0 1
13.9845 0 1
14.1019 0 1
14.2193 0 1
14.3367 0 1
14.4541 0 1
14.5714 0 1
14.6888 0 1
14.8062 0 1
14.9235 0 1
15.0408 7890 88.8257
15.1581 8155 90.305
15.2755 8160 90.3327
15.3927 8203 90.5704
15.51 8218 90.6532
15.6273 8252 90.8405
15.7445 8131 90.1721
15.8617 8113 90.0722
15.9789 7972 89.2861
16.0961 7781 88.21
16.2132 7554 86.9138
16.3304 7716 87.8408
16.4475 7745 88.0057
16.5646 8064 89.7998
16.6816 8101 90.0056
16.7986 8015 89.5265
16.9156 7881 88.775
17.0326 7859 88.651
17.1496 7649 87.4586
17.2665 7765 88.1192
17.3833 7498 86.591
17.5002 7639 87.4014
17.617 7441 86.2612
17.7338 7308 85.4868
17.8505 7715 87.8351
17.9672 7955 89.1908
18.0839 8103 90.0167
18.2005 8174 90.4102
18.3171 8733 93.4505
18.4337 8760 93.5949
18.5502 8835 93.9947
18.6666 9059 95.1788
18.7831 8830 93.9681
18.8994 8823 93.9308
19.0158 8496 92.1737
19.1321 8398 91.6406
19.2483 8063 89.7942
19.3645 7724 87.8863
19.4806 7468 86.4176
19.5967 7273 85.2819
19.7128 6944 83.3307
19.8288 6965 83.4566
19.9447 6310 79.4355
20.0606 0 1
20.1764 0 1
20.2922 0 1
20.4079 0 1
20.5236 0 1
20.6392 0 1
20.7548 0 1
20.8702 0 1
23.3078 0 1
23.4233 0 1
23.539 0 1
23.6547 0 1
23.7704 0 1
23.8862 0 1
24.0021 0 1
24.118 0 1
24.234 0 1
24.35 0 1
24.4661 7430 86.1974
24.5822 7238 85.0764
24.6984 7099 84.2556
24.8146 6942 83.3187
24.9309 7107 84.303
25.0472 7234 85.0529
25.1636 7450 86.3134
25.28 7818 88.4195
25.3965 7931 89.0562
25.513 8104 90.0222
25.6296 8239 90.7689
25.7462 8335 91.2962
25.8628 8372 91.4986
25.9795 8178 90.4323
26.0962 7947 89.1459
26.213 7721 87.8692
26.3298 7390 85.9651
26.4466 7261 85.2115
26.5635 7299 85.4342
26.6804 7467 86.4118
26.7973 7641 87.4128
26.9143 7948 89.1516
27.0313 7971 89.2805
27.1483 8372 91.4986
27.2653 8184 90.4655
27.3824 8397 91.6351
27.4996 8264 90.9065
27.6167 7923 89.0112
27.7339 7900 88.8819
27.8511 7756 88.0682
27.9683 7579 87.0575
28.0855 7415 86.1104
28.2028 7314 85.5219
28.3201 7045 83.9345
28.4374 6799 82.456
28.5547 6881 82.9518
28.6721 7071 84.0892
28.7894 7368 85.8371
28.9068 7582 87.0747
29.0242 7560 86.9483
29.1416 7474 86.4523
29.259 7685 87.6641
29.3764 7493 86.5621
29.4939 7477 86.4696
29.6113 7393 85.9826
29.7288 7059 84.0179
29.8463 6864 82.8493
29.9638 6620 81.3634
30.0812 6776 82.3165
30.1987 7045 83.9345
30.3162 7069 84.0773
30.4337 7259 85.1998
30.5512 7329 85.6096
30.6687 7593 87.1378
30.7862 7793 88.278
30.9037 7772 88.1589
31.0212 7745 88.0057
31.1387 7685 87.6641
31.2562 7711 87.8123
31.3737 7723 87.8806
31.4912 7652 87.4757
31.6087 7397 86.0058
31.7262 7264 85.2291
31.8436 6928 83.2346
31.9611 6818 82.5712
32.0785 6695 81.823
32.1959 6791 82.4075
32.3134 6859 82.8191
32.4308 7107 84.303
32.5482 7372 85.8604
32.6655 7394 85.9884
32.7829 7364 85.8138
32.9002 7398 86.0116
33.0176 7302 85.4517
33.1349 7360 85.7904
33.2522 7230 85.0294
33.3694 7086 84.1784
33.4867 6819 82.5772
33.6039 6500 80.6226
33.7211 6576 81.0925
33.8383 6630 81.4248
33.9554 6741 82.1036
34.0725 7032 83.857
34.1896 7254 85.1704
34.3067 7331 85.6213
34.4237 7439 86.2496
34.5407 7546 86.8677
34.6577 7587 87.1034
34.7746 7441 86.2612
34.8915 7608 87.2238
35.0084 7520 86.7179
35.1252 7292 85.3932
35.242 7225 85
35.3587 6858 82.813
35.4755 6906 83.1023
35.5921 6610 81.3019
35.7088 6264 79.1454
35.8254 6340 79.6241
35.9419 6353 79.7057
36.0584 6545 80.9012
36.1749 6748 82.1462
36.2913 6894 83.0301
36.4077 7121 84.386
36.524 6874 82.9096
36.6403 7101 84.2674
36.7565 7181 84.7408
36.8727 7040 83.9047
36.9889 6693 81.8108
37.1049 6471 80.4425
37.221 0 1
37.3369 0 1
37.4529 0 1
37.5687 0 1
37.6845 0 1
37.8003 0 1
37.916 0 1
38.0316 0 1
38.1472 0 1
40.5851 0 1
40.7008 0 1
40.8164 0 1
40.9322 0 1
41.048 0 1
41.1639 0 1
41.2798 0 1
41.3958 0 1
41.5118 0 1
41.6279 0 1
41.744 5525 74.3303
41.8602 5809 76.2168
41.9765 5821 76.2955
42.0928 5921 76.948
42.2091 6016 77.5629
42.3255 5687 75.4122
42.4419 5702 75.5116
42.5584 5309 72.8629
42.675 5216 72.2219
42.7915 5249 72.45
42.9081 5571 74.6391
43.0248 5593 74.7864
43.1415 5773 75.9803
43.2582 5979 77.324
43.375 5864 76.5768
43.4918 5824 76.3151
43.6087 5846 76.4591
43.7256 5770 75.9605
43.8425 5853 76.5049
43.9595 5643 75.1199
44.0765 5553 74.5185
44.1935 5460 73.8918
44.3106 5294 72.7599
44.4277 5003 70.7319
44.5448 4696 68.5274
44.6619 4491 67.0149
44.7791 4453 66.7308
44.8963 4418 66.468
45.0136 4540 67.3795
45.1308 4552 67.4685
45.2481 4657 68.2422
45.3654 4701 68.5638
45.4827 4707 68.6076
45.6001 4556 67.4981
45.7174 4659 68.2569
45.8348 4609 67.8896
45.9522 4469 66.8506
46.0697 4226 65.0077
46.1871 4086 63.9218
46.3046 3909 62.522
46.422 4078 63.8592
46.5395 4132 64.2806
46.657 4264 65.2993
46.7745 4328 65.7875
46.892 4472 66.873
47.0096 4409 66.4003
47.1271 4419 66.4756
47.2446 4437 66.6108
47.3622 4361 66.0379
47.4797 4329 65.7951
47.5973 4198 64.792
47.7149 4031 63.4902
47.8324 4028 63.4665
47.95 3821 61.8142
48.0675 3930 62.6897
48.1851 3796 61.6117
48.3027 3559 59.6574
48.4202 3403 58.3352
48.5378 3699 60.8194
48.6554 3583 59.8582
48.7729 3867 62.1852
48.8904 3891 62.3779
49.008 3897 62.426
49.1255 4002 63.2614
49.243 4038 63.5453
49.3605 4153 64.4438
49.478 3961 62.9365
49.5955 3819 61.7981
49.713 3759 61.3107
49.8304 3733 61.0983
49.9479 3668 60.564
50.0653 3903 62.474
50.1827 4134 64.2962
50.3001 4244 65.146
50.4175 4323 65.7495
50.5348 4366 66.0757
50.6521 4656 68.2349
50.7694 4787 69.1881
50.8867 4894 69.9571
51.004 4869 69.7782
51.1212 4951 70.3633
51.2384 4891 69.9357
51.3556 5010 70.7814
51.4727 4922 70.157
51.5899 4742 68.8622
51.707 4841 69.5773
51.824 4716 68.6731
51.9411 4659 68.2569
52.0581 4898 69.9857
52.175 5281 72.6705
52.2919 5360 73.212
52.4088 5685 75.3989
52.5257 5648 75.1532
52.6425 5733 75.7166
52.7593 5938 77.0584
52.876 6312 79.4481
52.9927 6127 78.2752
53.1094 5856 76.5245
53.226 5707 75.5447
53.3426 5719 75.6241
53.4591 5510 74.2294
53.5756 5555 74.5319
53.692 6034 77.6788
53.8084 6234 78.9557
53.9248 6349 79.6806
54.0411 6662 81.6211
54.1573 6823 82.6015
54.2735 0 1
54.3896 0 1
54.5057 0 1
54.6217 0 1
54.7377 0 1
54.8537 0 1
54.9695 0 1
55.0853 0 1
55.2011 0 1
55.3168 0 1
55.4324 0 1
57.824 0 1
57.9396 0 1
58.0553 0 1
58.1711 0 1
58.2869 0 1
58.4028 0 1
58.5187 0 1
58.6347 0 1
58.7508 0 1
58.8669 0 1
58.983 7437 86.238
59.0992 7910 88.9382
59.2155 8363 91.4494
59.3318 8513 92.2659
59.4482 8705 93.3006
59.5646 8611 92.7955
59.681 8651 93.0108
59.7975 8598 92.7254
59.9141 8571 92.5797
60.0306 8415 91.7333
60.1473 8349 91.3729
60.2639 8150 90.2774
60.3807 7857 88.6397
60.4974 7507 86.6429
60.6142 7433 86.2148
60.731 7241 85.0941
60.8479 7261 85.2115
60.9648 7558 86.9368
61.0818 7705 87.7781
61.1987 7997 89.4259
61.3158 8050 89.7218
61.4328 8234 90.7414
61.5499 8038 89.6549
61.667 8184 90.4655
61.7841 7813 88.3912
61.9013 7601 87.1837
62.0185 7139 84.4926
62.1357 6988 83.5943
62.253 6890 83.006
62.3702 7078 84.1309
62.4875 7456 86.3481
62.6049 7635 87.3785
62.7222 7421 86.1452
62.8396 7951 89.1684
62.9569 7856 88.6341
63.0743 7794 88.2836
63.1918 7911 88.9438
63.3092 7868 88.7017
63.4267 7659 87.5157
63.5441 7469 86.4234
63.6616 7611 87.241
63.7791 7500 86.6025
63.8966 7249 85.1411
64.0142 6927 83.2286
64.1317 6593 81.1973
64.2492 6469 80.4301
64.3668 6628 81.4125
64.4843 6774 82.3043
64.6019 6811 82.5288
64.7195 7014 83.7496
64.837 7058 84.0119
64.9546 7302 85.4517
65.0722 7461 86.3771
65.1898 7476 86.4639
65.3074 7657 87.5043
65.4249 7102 84.2734
65.5425 7027 83.8272
65.6601 6653 81.5659
65.7777 6385 79.9062
65.8952 6451 80.3181
66.0128 6740 82.0975
66.1304 6987 83.5883
66.2479 7188 84.7821
66.3655 7546 86.8677
66.483 7442 86.267
66.6005 7564 86.9713
66.718 7700 87.7496
66.8355 7635 87.3785
66.953 7594 87.1436
67.0705 7785 88.2326
67.1879 7527 86.7583
67.3054 7574 87.0287
67.4228 7676 87.6128
67.5402 7385 85.936
67.6576 6924 83.2106
67.7749 6592 81.1911
67.8923 6607 81.2835
68.0096 6663 81.6272
68.1269 6998 83.654
68.2442 7044 83.9285
68.3614 7332 85.6271
68.4787 7458 86.3597
68.5958 7700 87.7496
68.713 7940 89.1067
68.8302 7954 89.1852
68.9473 8081 89.8944
69.0643 7835 88.5155
69.1814 7424 86.1626
69.2984 7154 84.5813
69.4154 6903 83.0843
69.5323 6808 82.5106
69.6492 7176 84.7113
69.7661 7488 86.5332
69.8829 7539 86.8274
69.9997 8035 89.6382
70.1165 7935 89.0786
70.2332 8231 90.7249
70.3499 8404 91.6733
70.4665 8413 91.7224
70.5831 8485 92.1141
70.6996 8377 91.526
70.8161 8290 91.0494
70.9326 8346 91.3564
71.049 8074 89.8554
71.1653 8069 89.8276
71.2817 7740 87.9773
71.3979 7246 85.1234
71.5141 6667 81.6517
71.6303 6390 79.9375
71.7464 6385 79.9062
71.8624 0 1
71.9784 0 1
72.0944 0 1
72.2102 0 1
72.3261 0 1
72.4418 0 1
72.5575 0 1
72.6732 0 1
75.1054 0 1
75.2209 0 1
75.3365 0 1
75.4521 0 1
75.5678 0 1
75.6835 0 1
75.7993 0 1
75.9151 0 1
76.031 0 1
76.147 7287 85.3639
76.263 7821 88.4364
76.3791 8037 89.6493
76.4952 7749 88.0284
76.6113 7673 87.5957
76.7276 7086 84.1784
76.8438 6958 83.4146
76.9601 6914 83.1505
77.0765 7223 84.9882
77.1929 7364 85.8138
77.3093 7668 87.5671
77.4258 8133 90.1831
77.5423 7976 89.3085
77.6589 8234 90.7414
77.7755 8398 91.6406
77.8921 8416 91.7388
78.0088 8124 90.1332
78.1256 7858 88.6454
78.2423 7298 85.4283
78.3591 6884 82.9699
78.4759 6699 81.8474
78.5928 6750 82.1584
78.7097 7249 85.1411
78.8266 7465 86.4002
78.9436 7998 89.4315
79.0606 8068 89.822
79.1776 8082 89.8999
79.2946 8186 90.4765
79.4117 8231 90.7249
79.5288 8232 90.7304
79.6459 8284 91.0165
79.7631 8280 90.9945
79.8802 8131 90.1721
79.9974 7972 89.2861
80.1147 8152 90.2884
80.2319 7749 88.0284
80.3491 7156 84.5931
80.4664 6957 83.4086
80.5837 7075 84.113
80.701 7091 84.2081
80.8183 7421 86.1452
80.9357 7620 87.2926
81.053 7908 88.9269
81.1704 8043 89.6828
81.2877 8229 90.7138
81.4051 8384 91.5642
81.5225 8639 92.9462
81.6399 8164 90.3549
81.7573 8023 89.5712
81.8747 7445 86.2844
81.9922 6990 83.6062
82.1096 6598 81.2281
82.227 6741 82.1036
82.3444 7095 84.2318
82.4619 7580 87.0632
82.5793 7756 88.0682
82.6967 7852 88.6115
82.8142 8119 90.1055
82.9316 8225 90.6918
83.049 8268 90.9285
83.1664 8337 91.3072
83.2838 8370 91.4877
83.4012 8304 91.1263
83.5186 8376 91.5205
83.636 8291 91.0549
83.7534 7925 89.0225
83.8708 7700 87.7496
83.9881 7400 86.0233
84.1055 7077 84.1249
84.2228 7183 84.7526
84.3401 7277 85.3053
84.4575 7449 86.3076
84.5747 7577 87.046
84.692 8024 89.5768
84.8093 8326 91.2469
84.9265 8554 92.4878
85.0437 8795 93.7817
85.1609 8695 93.247
85.2781 8616 92.8224
85.3952 7912 88.9494
85.5123 7641 87.4128
85.6294 7090 84.2021
85.7465 7030 83.8451
85.8636 7091 84.2081
85.9806 7783 88.2213
86.0976 8202 90.5649
86.2145 8449 91.9184
86.3315 8432 91.8259
86.4484 8675 93.1397
86.5652 8935 94.5251
86.682 8705 93.3006
86.7988 9107 95.4306
86.9156 9024 94.9947
87.0323 8826 93.9468
87.149 8617 92.8278
87.2657 8858 94.1169
87.3823 8808 93.8509
87.4988 8184 90.4655
87.6154 7902 88.8932
87.7318 7741 87.983
87.8483 7600 87.178
87.9647 7778 88.193
88.081 8113 90.0722
88.1973 8483 92.1032
88.3136 8638 92.9408
88.4298 8677 93.1504
88.546 9118 95.4882
88.6621 9259 96.2237
88.7781 9058 95.1735
88.8942 0 1
89.0101 0 1
89.126 0 1
89.2419 0 1
89.3577 0 1
89.4734 0 1
89.5891 0 1
89.7047 0 1
89.8203 0 1
89.9358 0 1
92.3269 0 1
92.4424 0 1
92.558 0 1
92.6736 0 1
92.7893 0 1
92.905 0 1
93.0208 0 1
93.1366 0 1
93.2525 0 1
93.3685 0 1
93.4845 0 1
93.6005 8114 90.0777
93.7167 8305 91.1318
93.8328 8529 92.3526
93.949 8539 92.4067
94.0653 8574 92.5959
94.1816 8354 91.4002
94.2979 7943 89.1235
94.4143 7446 86.2902
94.5307 7113 84.3386
94.6472 6884 82.9699
94.7637 6955 83.3966
94.8803 7422 86.151
94.9969 7712 87.818
95.1135 8210 90.6091
95.2302 7948 89.1516
95.3469 8285 91.022
95.4637 8383 91.5587
95.5805 8493 92.1575
95.6973 8660 93.0591
95.8142 8719 93.3756
95.9311 8603 92.7524
96.048 8497 92.1792
96.1649 8628 92.887
96.2819 8641 92.957
96.3989 8256 90.8625
96.516 8010 89.4986
96.633 7692 87.704
96.7501 7198 84.841
96.8673 7194 84.8175
96.9844 7308 85.4868
97.1016 7472 86.4407
97.2188 7638 87.3957
97.336 8139 90.2164
97.4532 8278 90.9835
97.5704 8421 91.766
97.6877 8450 91.9239
97.805 8597 92.72
97.9223 8217 90.6477
98.0396 7916 88.9719
98.1569 7339 85.668
98.2743 6928 83.2346
98.3916 6706 81.8902
98.509 7030 83.8451
98.6264 7239 85.0823
98.7438 7572 87.0172
98.8612 7953 89.1796
98.9786 7992 89.398
99.096 8136 90.1998
99.2134 8156 90.3106
99.3308 8329 91.2634
99.4482 8184 90.4655
99.5656 8299 91.0988
99.6831 8241 90.78
99.8005 8100 90
99.9179 7901 88.8876
100.035 7856 88.6341
100.153 7637 87.3899
100.27 7205 84.8823
100.388 6947 83.3487
100.505 6962 83.4386
100.622 7050 83.9643
100.74 7397 86.0058
100.857 7713 87.8237
100.975 7835 88.5155
101.092 8169 90.3825
101.209 8333 91.2853
101.327 8628 92.887
101.444 8405 91.6788
101.561 8271 90.945
101.679 7936 89.0842
101.796 7325 85.5862
101.913 6959 83.4206
102.03 6904 83.0903
102.148 7241 85.0941
102.265 7229 85.0235
102.382 8528 92.3472
102.499 8267 90.923
102.616 8396 91.6297
102.733 8428 91.8041
102.851 8568 92.5635
102.968 8643 92.9677
103.085 8589 92.6769
103.202 8817 93.8989
103.319 8686 93.1987
103.436 8638 92.9408
103.552 8763 93.6109
103.669 8253 90.846
103.786 8044 89.6883
103.903 7562 86.9598
104.02 7326 85.5921
104.137 7590 87.1206
104.253 7889 88.82
104.37 8158 90.3216
104.487 8356 91.4112
104.603 8831 93.9734
104.72 9013 94.9368
104.836 8861 94.1329
104.953 9140 95.6033
105.069 8569 92.5689
105.186 8027 89.5935
105.302 7605 87.2067
105.418 7256 85.1822
105.535 7309 85.4927
105.651 7836 88.5212
105.767 8072 89.8443
105.883 8293 91.0659
105.999 8396 91.6297
106.115 0 1
106.231 0 1
106.347 0 1
106.463 0 1
106.579 0 1
106.694 0 1
106.81 0 1
106.926 0 1
107.041 0 1
107.157 0 1
109.576 0 1
109.692 0 1
109.807 0 1
109.923 0 1
110.039 0 1
110.155 0 1
110.27 0 1
110.386 0 1
110.502 0 1
110.618 6362 79.7621
110.735 6915 83.1565
110.851 7165 84.6463
110.967 7428 86.1858
111.083 7662 87.5329
111.199 7867 88.6961
111.316 7901 88.8876
111.432 7997 89.4259
111.549 8146 90.2552
111.665 7955 89.1908
111.782 7732 87.9318
111.898 7784 88.227
112.015 7619 87.2869
112.132 7521 86.7237
112.248 7245 85.1176
112.365 6849 82.7587
112.482 6703 81.8719
112.599 6375 79.8436
112.716 6517 80.7279
112.832 6613 81.3204
112.949 6914 83.1505
113.066 7039 83.8987
113.183 7245 85.1176
113.3 7296 85.4166
113.417 7414 86.1046
113.534 7224 84.9941
113.652 7243 85.1058
113.769 6808 82.5106
113.886 6349 79.6806
114.003 6042 77.7303
114.12 5745 75.7958
114.238 5916 76.9155
114.355 6270 79.1833
114.472 6501 80.6288
114.589 6633 81.4432
114.707 6725 82.0061
114.824 6722 81.9878
114.942 6742 82.1097
115.059 6774 82.3043
115.176 6674 81.6946
115.294 6527 80.7899
115.411 6330 79.5613
115.529 6090 78.0385
115.646 6126 78.2688
115.764 5821 76.2955
115.881 5603 74.8532
115.999 5396 73.4575
116.116 5300 72.8011
116.234 5170 71.9027
116.351 5328 72.9932
116.469 5528 74.3505
116.586 5459 73.885
116.704 5814 76.2496
116.821 5803 76.1774
116.939 5782 76.0395
117.056 5955 77.1686
117.174 5817 76.2693
117.291 5624 74.9933
117.409 5247 72.4362
117.526 5048 71.0493
117.644 4810 69.3542
117.761 4795 69.2459
117.879 5098 71.4003
117.996 5237 72.3671
118.114 5495 74.1283
118.231 5549 74.4916
118.349 5758 75.8815
118.466 5677 75.3459
118.584 5973 77.2852
118.701 5819 76.2824
118.819 5900 76.8115
118.936 5687 75.4122
119.053 5637 75.08
119.171 5655 75.1997
119.288 5707 75.5447
119.405 5435 73.7225
119.523 5490 74.0945
119.64 5231 72.3257
119.757 5124 71.5821
119.875 5184 72
119.992 5367 73.2598
120.109 5471 73.9662
120.226 5693 75.452
120.343 5849 76.4788
120.46 5941 77.0779
120.578 6246 79.0316
120.695 6235 78.962
120.812 6352 79.6994
120.929 6180 78.613
121.046 5901 76.818
121.163 5735 75.7298
121.279 5458 73.8783
121.396 5428 73.675
121.513 5643 75.1199
121.63 6016 77.5629
121.747 6143 78.3773
121.863 6468 80.4239
121.98 6652 81.5598
122.097 6763 82.2375
122.213 6779 82.3347
122.33 6849 82.7587
122.446 6954 83.3906
122.563 6726 82.0122
122.679 6769 82.2739
122.795 6983 83.5643
122.912 6658 81.5966
123.028 6660 81.6088
123.144 6460 80.3741
123.26 6236 78.9683
123.377 0 1
123.493 0 1
123.609 0 1
123.725 0 1
123.84 0 1
123.956 0 1
124.072 0 1
124.188 0 1
124.303 0 1
124.419 0 1
126.852 0 1
126.968 0 1
127.083 0 1
127.199 0 1
127.315 0 1
127.431 0 1
127.547 0 1
127.663 0 1
127.779 0 1
127.895 0 1
128.011 0 1
128.127 0 1
128.243 0 1
128.359 7909 88.9326
128.476 7740 87.9773
128.592 7444 86.2786
128.708 7112 84.3327
128.825 7092 84.214
128.941 7154 84.5813
129.058 7121 84.386
129.174 7205 84.8823
129.291 7613 87.2525
129.408 7945 89.1347
129.524 8019 89.5489
129.641 7987 89.37
129.758 7886 88.8032
129.875 7961 89.2244
129.992 7758 88.0795
130.108 7409 86.0755
130.225 7141 84.5044
130.342 6844 82.7285
130.459 6627 81.4064
130.576 6798 82.45
130.693 7349 85.7263
130.81 7491 86.5506
130.928 7552 86.9022
131.045 7817 88.4138
131.162 7712 87.818
131.279 7883 88.7863
131.396 7860 88.6566
131.513 7719 87.8578
131.631 7670 87.5785
131.748 7537 86.8159
131.865 7303 85.4576
131.983 7374 85.872
132.1 6977 83.5284
132.217 6758 82.2071
132.335 6729 82.0305
132.452 6781 82.3468
132.57 6727 82.0183
132.687 6917 83.1685
132.804 7331 85.6213
132.922 7330 85.6154
133.039 7654 87.4871
133.157 7534 86.7986
133.274 7511 86.666
133.392 7682 87.647
133.509 7382 85.9186
133.627 7294 85.4049
133.744 6684 81.7557
133.862 6666 81.6456
133.979 6460 80.3741
134.097 6523 80.7651
134.214 6885 82.9759
134.332 7019 83.7795
134.449 7226 85.0059
134.567 7344 85.6971
134.684 7453 86.3308
134.802 7542 86.8447
134.919 7450 86.3134
135.037 7314 85.5219
135.154 7144 84.5222
135.272 6965 83.4566
135.389 6728 82.0244
135.507 6661 81.6149
135.624 6536 80.8455
135.742 6315 79.467
135.859 5996 77.4338
135.977 5867 76.5963
136.094 5817 76.2693
136.211 5919 76.935
136.329 6111 78.1729
136.446 6263 79.1391
136.564 6258 79.1075
136.681 6307 79.4166
136.798 6536 80.8455
136.915 6439 80.2434
137.033 6430 80.1873
137.15 6281 79.2528
137.267 5809 76.2168
137.384 5686 75.4056
137.502 5464 73.9189
137.619 5383 73.3689
137.736 5637 75.08
137.853 5707 75.5447
137.97 6247 79.038
138.087 6347 79.6681
138.204 6731 82.0427
138.321 6643 81.5046
138.438 6914 83.1505
138.555 6944 83.3307
138.672 6926 83.2226
138.788 7059 84.0179
138.905 6922 83.1986
139.022 6881 82.9518
139.139 6727 82.0183
139.255 6752 82.1706
139.372 6642 81.4985
139.488 6497 80.604
139.605 6406 80.0375
139.721 6512 80.697
139.838 6689 81.7863
139.954 6873 82.9036
140.071 7149 84.5518
140.187 7604 87.2009
140.303 7484 86.5101
140.419 7471 86.4349
140.535 7784 88.227
140.652 7687 87.6755
140.768 0 1
140.884 0 1
141 0 1
141.115 0 1
141.231 0 1
141.347 0 1
141.463 0 1
141.578 0 1
141.694 0 1
144.104 0 1
144.219 0 1
144.335 0 1
144.45 0 1
144.566 0 1
144.682 0 1
144.798 0 1
144.914 0 1
145.03 0 1
145.146 9857 99.2824
145.262 10912 104.461
145.378 11625 107.819
145.494 12310 110.95
145.61 13103 114.468
145.726 13534 116.336
145.842 14192 119.13
145.959 13902 117.907
146.075 13713 117.103
146.192 13588 116.568
146.308 13704 117.064
146.425 14459 120.246
146.541 15451 124.302
146.658 16912 130.046
146.774 18156 134.744
146.891 19522 139.721
147.008 20622 143.604
147.125 21795 147.631
147.241 22276 149.251
147.358 23363 152.85
147.475 23586 153.577
147.592 23569 153.522
147.709 23446 153.121
147.826 23593 153.6
147.943 23441 153.105
148.06 23108 152.013
148.177 22585 150.283
148.294 22520 150.067
148.411 22559 150.197
148.528 23087 151.944
148.645 24048 155.074
148.762 24515 156.573
148.88 25224 158.821
148.997 26356 162.345
149.114 24286 155.84
149.231 25255 158.918
149.349 24942 157.93
149.466 25028 158.202
149.583 23397 152.961
149.701 22632 150.439
149.818 21132 145.368
149.935 20332 142.59
150.053 20371 142.727
150.17 21357 146.14
150.287 21937 148.111
150.405 22843 151.139
150.522 23545 153.444
150.64 24170 155.467
150.757 24661 157.038
150.875 24913 157.839
150.992 24626 156.927
151.11 25225 158.824
151.227 24772 157.391
151.344 24187 155.522
151.462 24132 155.345
151.579 23654 153.799
151.697 23227 152.404
151.814 22756 150.851
151.932 22647 150.489
152.049 22831 151.099
152.167 23954 154.771
152.284 24559 156.713
152.402 25507 159.709
152.519 26420 162.542
152.636 27046 164.457
152.754 26924 164.085
152.871 27374 165.451
152.989 26799 163.704
153.106 26097 161.546
153.223 25063 158.313
153.341 23678 153.877
153.458 22894 151.308
153.575 22207 149.02
153.693 23015 151.707
153.81 24175 155.483
153.927 25178 158.676
154.044 26138 161.673
154.162 26576 163.021
154.279 27210 164.955
154.396 28717 169.461
154.513 29327 171.251
154.63 29411 171.496
154.747 29500 171.756
154.864 29387 171.426
154.981 28829 169.791
155.098 28623 169.183
155.215 28478 168.754
155.332 28216 167.976
155.449 27526 165.91
155.566 27562 166.018
155.683 27998 167.326
155.8 29196 170.868
155.917 30285 174.026
156.033 31207 176.655
156.15 0 1
156.267 0 1
156.383 0 1
156.5 0 1
156.617 0 1
156.733 0 1
156.85 0 1
156.966 0 1
157.082 0 1
157.199 0 1
157.315 0 1
157.431 0 1
157.547 0 1
157.664 0 1
157.78 0 1
157.896 0 1
158.012 0 1
158.128 0 1
158.244 0 1
158.359 0 1
158.475 0 1
158.591 0 1
158.706 0 1
