
6.15755 0 1
6.2731 0 1
6.3887 0 1
6.50437 0 1
6.62009 0 1
6.73587 0 1
6.8517 0 1
6.96759 0 1
7.08353 0 1
7.19952 0 1
7.31557 0 1
7.43166 0 1
7.54781 0 1
7.664 0 1
7.78024 0 1
7.89653 0 1
8.01286 0 1
8.12924 0 1
8.24567 0 1
8.36213 0 1
8.47864 0 1
8.59519 0 1
8.71178 0 1
8.82841 0 1
8.94508 0 1
9.06179 0 1
9.17853 0 1
9.29531 0 1
9.41212 0 1
9.52897 0 1
9.64584 0 1
9.76276 0 1
9.8797 0 1
9.99667 0 1
10.1137 0 1
10.2307 0 1
10.3478 0 1
10.4648 0 1
10.5819 0 1
10.6991 0 1
10.8162 0 1
10.9334 0 1
11.0506 0 1
11.1678 0 1
11.285 0 1
11.4023 0 1
11.5196 0 1
11.6369 0 1
11.7542 0 1
11.8715 0 1
11.9888 0 1
12.1062 0 1
12.2235 0 1
12.3409 0 1
12.4582 0 1
12.5756 0 1
12.693 0 1
12.8104 0 1
12.9278 0 1
13.0452 0 1
13.1626 0 1
13.28 0 1
13.3974 0 1
13.5149 0 1
13.6323 0 1
13.7497 0 1
13.8671 0 1
13.9845 0 1
14.1019 0 1
14.2193 0 1
14.3367 0 1
14.4541 0 1
14.5714 0 1
14.6888 0 1
14.8062 0 1
14.9235 0 1
15.0408 812 28.4956
15.1581 882 29.6985
15.2755 943 30.7083
15.3927 992 31.496
15.51 1015 31.8591
15.6273 999 31.607
15.7445 980 31.305
15.8617 998 31.5911
15.9789 975 31.225
16.0961 952 30.8545
16.2132 969 31.1288
16.3304 957 30.9354
16.4475 952 30.8545
16.5646 920 30.3315
16.6816 922 30.3645
16.7986 875 29.5804
16.9156 901 30.0167
17.0326 885 29.7489
17.1496 884 29.7321
17.2665 904 30.0666
17.3833 890 29.8329
17.5002 847 29.1033
17.617 845 29.0689
17.7338 830 28.8097
17.8505 936 30.5941
17.9672 875 29.5804
18.0839 941 30.6757
18.2005 1026 32.0312
18.3171 972 31.1769
18.4337 910 30.1662
18.5502 993 31.5119
18.6666 1055 32.4808
18.7831 1058 32.5269
18.8994 1120 33.4664
19.0158 1081 32.8786
19.1321 1073 32.7567
19.2483 938 30.6268
19.3645 934 30.5614
19.4806 922 30.3645
19.5967 962 31.0161
19.7128 898 29.9666
19.8288 924 30.3974
19.9447 762 27.6043
20.0606 0 1
20.1764 0 1
20.2922 0 1
20.4079 0 1
20.5236 0 1
20.6392 0 1
20.7548 0 1
20.8702 0 1
23.3078 0 1
23.4233 0 1
23.539 0 1
23.6547 0 1
23.7704 0 1
23.8862 0 1
24.0021 0 1
24.118 0 1
24.234 0 1
24.35 0 1
24.4661 944 30.7246
24.5822 895 29.9166
24.6984 974 31.209
24.8146 916 30.2655
24.9309 911 30.1828
25.0472 951 30.8383
25.1636 954 30.8869
25.28 1019 31.9218
25.3965 964 31.0483
25.513 1014 31.8434
25.6296 994 31.5278
25.7462 1061 32.573
25.8628 1053 32.45
25.9795 1004 31.686
26.0962 993 31.5119
26.213 1032 32.1248
26.3298 1032 32.1248
26.4466 1020 31.9374
26.5635 1010 31.7805
26.6804 939 30.6431
26.7973 898 29.9666
26.9143 938 30.6268
27.0313 969 31.1288
27.1483 863 29.3769
27.2653 854 29.2233
27.3824 903 30.05
27.4996 967 31.0966
27.6167 933 30.545
27.7339 890 29.8329
27.8511 940 30.6594
27.9683 904 30.0666
28.0855 921 30.348
28.2028 905 30.0832
28.3201 841 29
28.4374 918 30.2985
28.5547 860 29.3258
28.6721 866 29.4279
28.7894 900 30
28.9068 918 30.2985
29.0242 891 29.8496
29.1416 894 29.8998
29.259 952 30.8545
29.3764 948 30.7896
29.4939 919 30.315
29.6113 870 29.4958
29.7288 912 30.1993
29.8463 813 28.5132
29.9638 862 29.3598
30.0812 862 29.3598
30.1987 815 28.5482
30.3162 870 29.4958
30.4337 839 28.9655
30.5512 815 28.5482
30.6687 867 29.4449
30.7862 835 28.8964
30.9037 835 28.8964
31.0212 950 30.8221
31.1387 908 30.133
31.2562 953 30.8707
31.3737 911 30.1828
31.4912 985 31.3847
31.6087 929 30.4795
31.7262 882 29.6985
31.8436 871 29.5127
31.9611 919 30.315
32.0785 914 30.2324
32.1959 835 28.8964
32.3134 902 30.0333
32.4308 878 29.6311
32.5482 871 29.5127
32.6655 939 30.6431
32.7829 825 28.7228
32.9002 828 28.775
33.0176 900 30
33.1349 791 28.1247
33.2522 839 28.9655
33.3694 852 29.189
33.4867 811 28.4781
33.6039 808 28.4253
33.7211 748 27.3496
33.8383 798 28.2489
33.9554 857 29.2746
34.0725 852 29.189
34.1896 881 29.6816
34.3067 760 27.5681
34.4237 778 27.8927
34.5407 840 28.9828
34.6577 908 30.133
34.7746 940 30.6594
34.8915 893 29.8831
35.0084 955 30.9031
35.1252 862 29.3598
35.242 893 29.8831
35.3587 900 30
35.4755 886 29.7658
35.5921 872 29.5296
35.7088 830 28.8097
35.8254 832 28.8444
35.9419 856 29.2575
36.0584 791 28.1247
36.1749 837 28.931
36.2913 810 28.4605
36.4077 806 28.3901
36.524 802 28.3196
36.6403 739 27.1846
36.7565 732 27.0555
36.8727 710 26.6458
36.9889 696 26.3818
37.1049 708 26.6083
37.221 0 1
37.3369 0 1
37.4529 0 1
37.5687 0 1
37.6845 0 1
37.8003 0 1
37.916 0 1
38.0316 0 1
38.1472 0 1
40.5851 0 1
40.7008 0 1
40.8164 0 1
40.9322 0 1
41.048 0 1
41.1639 0 1
41.2798 0 1
41.3958 0 1
41.5118 0 1
41.6279 0 1
41.744 566 23.7908
41.8602 635 25.1992
41.9765 639 25.2784
42.0928 584 24.1661
42.2091 593 24.3516
42.3255 596 24.4131
42.4419 575 23.9792
42.5584 577 24.0208
42.675 604 24.5764
42.7915 616 24.8193
42.9081 645 25.3969
43.0248 642 25.3377
43.1415 581 24.1039
43.2582 656 25.6125
43.375 637 25.2389
43.4918 684 26.1534
43.6087 699 26.4386
43.7256 665 25.7876
43.8425 624 24.98
43.9595 629 25.0799
44.0765 601 24.5153
44.1935 618 24.8596
44.3106 606 24.6171
44.4277 574 23.9583
44.5448 536 23.1517
44.6619 540 23.2379
44.7791 530 23.0217
44.8963 513 22.6495
45.0136 568 23.8328
45.1308 564 23.7487
45.2481 510 22.5832
45.3654 488 22.0907
45.4827 489 22.1133
45.6001 496 22.2711
45.7174 474 21.7715
45.8348 417 20.4206
45.9522 420 20.4939
46.0697 439 20.9523
46.1871 463 21.5174
46.3046 418 20.445
46.422 444 21.0713
46.5395 426 20.6398
46.657 450 21.2132
46.7745 394 19.8494
46.892 400 20
47.0096 465 21.5639
47.1271 461 21.4709
47.2446 438 20.9284
47.3622 460 21.4476
47.4797 453 21.2838
47.5973 413 20.3224
47.7149 381 19.5192
47.8324 419 20.4695
47.95 413 20.3224
48.0675 373 19.3132
48.1851 390 19.7484
48.3027 355 18.8414
48.4202 386 19.6469
48.5378 396 19.8997
48.6554 418 20.445
48.7729 393 19.8242
48.8904 415 20.3715
49.008 379 19.4679
49.1255 370 19.2354
49.243 378 19.4422
49.3605 385 19.6214
49.478 344 18.5472
49.5955 387 19.6723
49.713 394 19.8494
49.8304 387 19.6723
49.9479 410 20.2485
50.0653 377 19.4165
50.1827 395 19.8746
50.3001 354 18.8149
50.4175 418 20.445
50.5348 417 20.4206
50.6521 419 20.4695
50.7694 449 21.1896
50.8867 493 22.2036
51.004 502 22.4054
51.1212 445 21.095
51.2384 491 22.1585
51.3556 452 21.2603
51.4727 440 20.9762
51.5899 482 21.9545
51.707 436 20.8806
51.824 477 21.8403
51.9411 479 21.8861
52.0581 562 23.7065
52.175 514 22.6716
52.2919 561 23.6854
52.4088 555 23.5584
52.5257 535 23.1301
52.6425 524 22.891
52.7593 542 23.2809
52.876 540 23.2379
52.9927 557 23.6008
53.1094 503 22.4277
53.226 491 22.1585
53.3426 569 23.8537
53.4591 586 24.2074
53.5756 557 23.6008
53.692 552 23.4947
53.8084 555 23.5584
53.9248 536 23.1517
54.0411 555 23.5584
54.1573 572 23.9165
54.2735 0 1
54.3896 0 1
54.5057 0 1
54.6217 0 1
54.7377 0 1
54.8537 0 1
54.9695 0 1
55.0853 0 1
55.2011 0 1
55.3168 0 1
55.4324 0 1
57.824 0 1
57.9396 0 1
58.0553 0 1
58.1711 0 1
58.2869 0 1
58.4028 0 1
58.5187 0 1
58.6347 0 1
58.7508 0 1
58.8669 0 1
58.983 587 24.2281
59.0992 585 24.1868
59.2155 595 24.3926
59.3318 654 25.5734
59.4482 688 26.2298
59.5646 672 25.923
59.681 739 27.1846
59.7975 704 26.533
59.9141 717 26.7769
60.0306 656 25.6125
60.1473 643 25.3574
60.2639 670 25.8844
60.3807 631 25.1197
60.4974 668 25.8457
60.6142 627 25.04
60.731 630 25.0998
60.8479 684 26.1534
60.9648 663 25.7488
61.0818 675 25.9808
61.1987 621 24.9199
61.3158 659 25.671
61.4328 598 24.454
61.5499 591 24.3105
61.667 560 23.6643
61.7841 598 24.454
61.9013 571 23.8956
62.0185 596 24.4131
62.1357 565 23.7697
62.253 566 23.7908
62.3702 575 23.9792
62.4875 511 22.6053
62.6049 567 23.8118
62.7222 584 24.1661
62.8396 625 25
62.9569 636 25.219
63.0743 631 25.1197
63.1918 683 26.1343
63.3092 636 25.219
63.4267 564 23.7487
63.5441 638 25.2587
63.6616 600 24.4949
63.7791 595 24.3926
63.8966 571 23.8956
64.0142 554 23.5372
64.1317 547 23.388
64.2492 589 24.2693
64.3668 538 23.1948
64.4843 602 24.5357
64.6019 586 24.2074
64.7195 539 23.2164
64.837 562 23.7065
64.9546 508 22.5389
65.0722 456 21.3542
65.1898 510 22.5832
65.3074 492 22.1811
65.4249 535 23.1301
65.5425 533 23.0868
65.6601 510 22.5832
65.7777 585 24.1868
65.8952 525 22.9129
66.0128 524 22.891
66.1304 460 21.4476
66.2479 481 21.9317
66.3655 549 23.4307
66.483 576 24
66.6005 582 24.1247
66.718 609 24.6779
66.8355 578 24.0416
66.953 604 24.5764
67.0705 607 24.6374
67.1879 522 22.8473
67.3054 583 24.1454
67.4228 570 23.8747
67.5402 547 23.388
67.6576 560 23.6643
67.7749 530 23.0217
67.8923 583 24.1454
68.0096 564 23.7487
68.1269 594 24.3721
68.2442 604 24.5764
68.3614 570 23.8747
68.4787 572 23.9165
68.5958 536 23.1517
68.713 522 22.8473
68.8302 514 22.6716
68.9473 525 22.9129
69.0643 496 22.2711
69.1814 562 23.7065
69.2984 541 23.2594
69.4154 542 23.2809
69.5323 564 23.7487
69.6492 554 23.5372
69.7661 523 22.8692
69.8829 566 23.7908
69.9997 537 23.1733
70.1165 595 24.3926
70.2332 636 25.219
70.3499 624 24.98
70.4665 624 24.98
70.5831 698 26.4197
70.6996 612 24.7386
70.8161 646 25.4165
70.9326 638 25.2587
71.049 640 25.2982
71.1653 558 23.622
71.2817 586 24.2074
71.3979 589 24.2693
71.5141 552 23.4947
71.6303 577 24.0208
71.7464 537 23.1733
71.8624 0 1
71.9784 0 1
72.0944 0 1
72.2102 0 1
72.3261 0 1
72.4418 0 1
72.5575 0 1
72.6732 0 1
75.1054 0 1
75.2209 0 1
75.3365 0 1
75.4521 0 1
75.5678 0 1
75.6835 0 1
75.7993 0 1
75.9151 0 1
76.031 0 1
76.147 578 24.0416
76.263 568 23.8328
76.3791 610 24.6982
76.4952 645 25.3969
76.6113 599 24.4745
76.7276 566 23.7908
76.8438 643 25.3574
76.9601 610 24.6982
77.0765 609 24.6779
77.1929 631 25.1197
77.3093 623 24.96
77.4258 632 25.1396
77.5423 609 24.6779
77.6589 556 23.5797
77.7755 558 23.622
77.8921 526 22.9347
78.0088 502 22.4054
78.1256 510 22.5832
78.2423 568 23.8328
78.3591 498 22.3159
78.4759 598 24.454
78.5928 590 24.2899
78.7097 542 23.2809
78.8266 512 22.6274
78.9436 515 22.6936
79.0606 547 23.388
79.1776 558 23.622
79.2946 609 24.6779
79.4117 586 24.2074
79.5288 603 24.5561
79.6459 625 25
79.7631 612 24.7386
79.8802 553 23.516
79.9974 567 23.8118
80.1147 551 23.4734
80.2319 548 23.4094
80.3491 560 23.6643
80.4664 570 23.8747
80.5837 571 23.8956
80.701 602 24.5357
80.8183 583 24.1454
80.9357 594 24.3721
81.053 634 25.1794
81.1704 602 24.5357
81.2877 515 22.6936
81.4051 514 22.6716
81.5225 535 23.1301
81.6399 476 21.8174
81.7573 510 22.5832
81.8747 504 22.4499
81.9922 492 22.1811
82.1096 553 23.516
82.227 489 22.1133
82.3444 513 22.6495
82.4619 511 22.6053
82.5793 499 22.3383
82.6967 482 21.9545
82.8142 525 22.9129
82.9316 583 24.1454
83.049 527 22.9565
83.1664 549 23.4307
83.2838 561 23.6854
83.4012 525 22.9129
83.5186 535 23.1301
83.636 562 23.7065
83.7534 545 23.3452
83.8708 521 22.8254
83.9881 532 23.0651
84.1055 522 22.8473
84.2228 532 23.0651
84.3401 568 23.8328
84.4575 591 24.3105
84.5747 574 23.9583
84.692 597 24.4336
84.8093 562 23.7065
84.9265 531 23.0434
85.0437 510 22.5832
85.1609 485 22.0227
85.2781 498 22.3159
85.3952 448 21.166
85.5123 468 21.6333
85.6294 581 24.1039
85.7465 562 23.7065
85.8636 542 23.2809
85.9806 524 22.891
86.0976 543 23.3024
86.2145 517 22.7376
86.3315 598 24.454
86.4484 587 24.2281
86.5652 671 25.9037
86.682 638 25.2587
86.7988 594 24.3721
86.9156 637 25.2389
87.0323 610 24.6982
87.149 615 24.7992
87.2657 637 25.2389
87.3823 645 25.3969
87.4988 646 25.4165
87.6154 641 25.318
87.7318 665 25.7876
87.8483 632 25.1396
87.9647 693 26.3249
88.081 772 27.7849
88.1973 742 27.2397
88.3136 718 26.7955
88.4298 665 25.7876
88.546 600 24.4949
88.6621 601 24.5153
88.7781 598 24.454
88.8942 0 1
89.0101 0 1
89.126 0 1
89.2419 0 1
89.3577 0 1
89.4734 0 1
89.5891 0 1
89.7047 0 1
89.8203 0 1
89.9358 0 1
92.3269 0 1
92.4424 0 1
92.558 0 1
92.6736 0 1
92.7893 0 1
92.905 0 1
93.0208 0 1
93.1366 0 1
93.2525 0 1
93.3685 0 1
93.4845 0 1
93.6005 777 27.8747
93.7167 729 27
93.8328 779 27.9106
93.949 706 26.5707
94.0653 670 25.8844
94.1816 666 25.807
94.2979 654 25.5734
94.4143 646 25.4165
94.5307 711 26.6646
94.6472 697 26.4008
94.7637 774 27.8209
94.8803 735 27.1109
94.9969 742 27.2397
95.1135 748 27.3496
95.2302 735 27.1109
95.3469 701 26.4764
95.4637 715 26.7395
95.5805 794 28.178
95.6973 795 28.1957
95.8142 800 28.2843
95.9311 754 27.4591
96.048 804 28.3549
96.1649 799 28.2666
96.2819 771 27.7669
96.3989 817 28.5832
96.516 769 27.7308
96.633 738 27.1662
96.7501 757 27.5136
96.8673 763 27.6225
96.9844 825 28.7228
97.1016 806 28.3901
97.2188 905 30.0832
97.336 856 29.2575
97.4532 820 28.6356
97.5704 764 27.6405
97.6877 763 27.6225
97.805 693 26.3249
97.9223 710 26.6458
98.0396 632 25.1396
98.1569 666 25.807
98.2743 721 26.8514
98.3916 750 27.3861
98.509 786 28.0357
98.6264 845 29.0689
98.7438 798 28.2489
98.8612 804 28.3549
98.9786 788 28.0713
99.096 798 28.2489
99.2134 768 27.7128
99.3308 833 28.8617
99.4482 877 29.6142
99.5656 841 29
99.6831 819 28.6182
99.8005 848 29.1204
99.9179 788 28.0713
100.035 797 28.2312
100.153 754 27.4591
100.27 820 28.6356
100.388 828 28.775
100.505 801 28.3019
100.622 859 29.3087
100.74 911 30.1828
100.857 949 30.8058
100.975 919 30.315
101.092 911 30.1828
101.209 845 29.0689
101.327 840 28.9828
101.444 790 28.1069
101.561 770 27.7489
101.679 802 28.3196
101.796 815 28.5482
101.913 832 28.8444
102.03 881 29.6816
102.148 881 29.6816
102.265 874 29.5635
102.382 889 29.8161
102.499 941 30.6757
102.616 805 28.3725
102.733 896 29.9333
102.851 963 31.0322
102.968 896 29.9333
103.085 906 30.0998
103.202 885 29.7489
103.319 882 29.6985
103.436 936 30.5941
103.552 935 30.5778
103.669 836 28.9137
103.786 888 29.7993
103.903 869 29.4788
104.02 857 29.2746
104.137 899 29.9833
104.253 1037 32.2025
104.37 1084 32.9242
104.487 1076 32.8024
104.603 1099 33.1512
104.72 1050 32.4037
104.836 1009 31.7648
104.953 945 30.7409
105.069 963 31.0322
105.186 911 30.1828
105.302 899 29.9833
105.418 970 31.1448
105.535 1030 32.0936
105.651 1092 33.0454
105.767 1117 33.4215
105.883 1017 31.8904
105.999 1053 32.45
106.115 0 1
106.231 0 1
106.347 0 1
106.463 0 1
106.579 0 1
106.694 0 1
106.81 0 1
106.926 0 1
107.041 0 1
107.157 0 1
109.576 0 1
109.692 0 1
109.807 0 1
109.923 0 1
110.039 0 1
110.155 0 1
110.27 0 1
110.386 0 1
110.502 0 1
110.618 1080 32.8634
110.735 1101 33.1813
110.851 1080 32.8634
110.967 1066 32.6497
111.083 1020 31.9374
111.199 1066 32.6497
111.316 1076 32.8024
111.432 1076 32.8024
111.549 1105 33.2415
111.665 1156 34
111.782 1122 33.4963
111.898 1007 31.7333
112.015 1036 32.187
112.132 1004 31.686
112.248 991 31.4802
112.365 974 31.209
112.482 932 30.5287
112.599 1043 32.2955
112.716 1044 32.311
112.832 1072 32.7414
112.949 1093 33.0606
113.066 1135 33.6898
113.183 1150 33.9116
113.3 1049 32.3883
113.417 1073 32.7567
113.534 1051 32.4191
113.652 1039 32.2335
113.769 1005 31.7017
113.886 918 30.2985
114.003 987 31.4166
114.12 1049 32.3883
114.238 1056 32.4962
114.355 1000 31.6228
114.472 1081 32.8786
114.589 1042 32.28
114.707 1009 31.7648
114.824 987 31.4166
114.942 1043 32.2955
115.059 1071 32.7261
115.176 1067 32.665
115.294 1128 33.5857
115.411 1074 32.7719
115.529 1025 32.0156
115.646 1046 32.3419
115.764 1031 32.1092
115.881 1015 31.8591
115.999 1033 32.1403
116.116 1003 31.6702
116.234 1094 33.0757
116.351 1168 34.176
116.469 1123 33.5112
116.586 1175 34.2783
116.704 1214 34.8425
116.821 1221 34.9428
116.939 1197 34.5977
117.056 1172 34.2345
117.174 1195 34.5688
117.291 1149 33.8969
117.409 1163 34.1028
117.526 1058 32.5269
117.644 1055 32.4808
117.761 1166 34.1467
117.879 1156 34
117.996 1109 33.3017
118.114 1093 33.0606
118.231 1081 32.8786
118.349 1098 33.1361
118.466 1095 33.0908
118.584 1043 32.2955
118.701 1125 33.541
118.819 1198 34.6121
118.936 1167 34.1614
119.053 1050 32.4037
119.171 1063 32.6037
119.288 1036 32.187
119.405 1030 32.0936
119.523 1092 33.0454
119.64 1078 32.8329
119.757 1036 32.187
119.875 1060 32.5576
119.992 1133 33.6601
120.109 1125 33.541
120.226 1193 34.5398
120.343 1208 34.7563
120.46 1221 34.9428
120.578 1259 35.4824
120.695 1205 34.7131
120.812 1220 34.9285
120.929 1192 34.5254
121.046 1094 33.0757
121.163 1127 33.5708
121.279 1148 33.8821
121.396 1142 33.7935
121.513 1219 34.9142
121.63 1188 34.4674
121.747 1170 34.2053
121.863 1158 34.0294
121.98 1114 33.3766
122.097 1045 32.3265
122.213 1094 33.0757
122.33 1051 32.4191
122.446 1077 32.8177
122.563 1100 33.1662
122.679 1041 32.2645
122.795 1019 31.9218
122.912 1024 32
123.028 1024 32
123.144 1025 32.0156
123.26 1014 31.8434
123.377 0 1
123.493 0 1
123.609 0 1
123.725 0 1
123.84 0 1
123.956 0 1
124.072 0 1
124.188 0 1
124.303 0 1
124.419 0 1
126.852 0 1
126.968 0 1
127.083 0 1
127.199 0 1
127.315 0 1
127.431 0 1
127.547 0 1
127.663 0 1
127.779 0 1
127.895 0 1
128.011 0 1
128.127 0 1
128.243 0 1
128.359 1256 35.4401
128.476 1262 35.5246
128.592 1220 34.9285
128.708 1256 35.4401
128.825 1288 35.8887
128.941 1312 36.2215
129.058 1283 35.819
129.174 1262 35.5246
129.291 1221 34.9428
129.408 1390 37.2827
129.524 1348 36.7151
129.641 1336 36.5513
129.758 1413 37.5899
129.875 1445 38.0132
129.992 1426 37.7624
130.108 1410 37.55
130.225 1403 37.4566
130.342 1493 38.6394
130.459 1449 38.0657
130.576 1526 39.064
130.693 1444 38
130.81 1427 37.7757
130.928 1456 38.1576
131.045 1422 37.7094
131.162 1402 37.4433
131.279 1384 37.2022
131.396 1451 38.092
131.513 1534 39.1663
131.631 1489 38.5876
131.748 1474 38.3927
131.865 1378 37.1214
131.983 1406 37.4967
132.1 1490 38.6005
132.217 1415 37.6165
132.335 1402 37.4433
132.452 1424 37.7359
132.57 1413 37.5899
132.687 1448 38.0526
132.804 1434 37.8682
132.922 1515 38.923
133.039 1534 39.1663
133.157 1476 38.4187
133.274 1505 38.7943
133.392 1460 38.2099
133.509 1547 39.3319
133.627 1590 39.8748
133.744 1577 39.7115
133.862 1571 39.6358
133.979 1532 39.1408
134.097 1534 39.1663
134.214 1648 40.5956
134.332 1624 40.2989
134.449 1660 40.7431
134.567 1516 38.9358
134.684 1580 39.7492
134.802 1614 40.1746
134.919 1605 40.0625
135.037 1615 40.1871
135.154 1657 40.7063
135.272 1556 39.4462
135.389 1512 38.8844
135.507 1548 39.3446
135.624 1536 39.1918
135.742 1471 38.3536
135.859 1495 38.6652
135.977 1448 38.0526
136.094 1520 38.9872
136.211 1509 38.8458
136.329 1603 40.0375
136.446 1492 38.6264
136.564 1531 39.128
136.681 1509 38.8458
136.798 1618 40.2244
136.915 1511 38.8716
137.033 1698 41.2068
137.15 1664 40.7922
137.267 1768 42.0476
137.384 1835 42.8369
137.502 1963 44.3058
137.619 1916 43.7721
137.736 1947 44.1248
137.853 1984 44.5421
137.97 2128 46.1303
138.087 2125 46.0977
138.204 2068 45.4753
138.321 2024 44.9889
138.438 2119 46.0326
138.555 2210 47.0106
138.672 2118 46.0217
138.788 2152 46.3897
138.905 2221 47.1275
139.022 2194 46.8402
139.139 2097 45.793
139.255 2053 45.31
139.372 2057 45.3542
139.488 2035 45.111
139.605 1934 43.9773
139.721 1816 42.6146
139.838 1739 41.7013
139.954 1658 40.7185
140.071 1584 39.7995
140.187 1618 40.2244
140.303 1584 39.7995
140.419 1624 40.2989
140.535 1549 39.3573
140.652 1548 39.3446
140.768 0 1
140.884 0 1
141 0 1
141.115 0 1
141.231 0 1
141.347 0 1
141.463 0 1
141.578 0 1
141.694 0 1
144.104 0 1
144.219 0 1
144.335 0 1
144.45 0 1
144.566 0 1
144.682 0 1
144.798 0 1
144.914 0 1
145.03 0 1
145.146 1287 35.8748
145.262 1355 36.8103
145.378 1447 38.0395
145.494 1422 37.7094
145.61 1424 37.7359
145.726 1408 37.5233
145.842 1385 37.2156
145.959 1397 37.3765
146.075 1460 38.2099
146.192 1412 37.5766
146.308 1425 37.7492
146.425 1391 37.2961
146.541 1414 37.6032
146.658 1336 36.5513
146.774 1364 36.9324
146.891 1340 36.606
147.008 1382 37.1753
147.125 1314 36.2491
147.241 1347 36.7015
147.358 1359 36.8646
147.475 1334 36.524
147.592 1396 37.3631
147.709 1379 37.1349
147.826 1383 37.1887
147.943 1402 37.4433
148.06 1453 38.1182
148.177 1444 38
148.294 1453 38.1182
148.411 1467 38.3014
148.528 1435 37.8814
148.645 1500 38.7298
148.762 1545 39.3065
148.88 1567 39.5854
148.997 1468 38.3145
149.114 1610 40.1248
149.231 1624 40.2989
149.349 1646 40.5709
149.466 1611 40.1373
149.583 1638 40.4722
149.701 1648 40.5956
149.818 1605 40.0625
149.935 1648 40.5956
150.053 1564 39.5474
150.17 1601 40.0125
150.287 1546 39.3192
150.405 1524 39.0384
150.522 1526 39.064
150.64 1529 39.1024
150.757 1462 38.2361
150.875 1370 37.0135
150.992 1397 37.3765
151.11 1390 37.2827
151.227 1246 35.2987
151.344 1302 36.0832
151.462 1323 36.3731
151.579 1321 36.3456
151.697 1259 35.4824
151.814 1295 35.9861
151.932 1299 36.0416
152.049 1265 35.5668
152.167 1315 36.2629
152.284 1291 35.9305
152.402 1348 36.7151
152.519 1381 37.1618
152.636 1391 37.2961
152.754 1461 38.223
152.871 1435 37.8814
152.989 1409 37.5366
153.106 1475 38.4057
153.223 1470 38.3406
153.341 1604 40.05
153.458 1600 40
153.575 1550 39.37
153.693 1617 40.2119
153.81 1545 39.3065
153.927 1602 40.025
154.044 1677 40.9512
154.162 1625 40.3113
154.279 1507 38.8201
154.396 1643 40.5339
154.513 1608 40.0999
154.63 1668 40.8412
154.747 1662 40.7676
154.864 1600 40
154.981 1607 40.0874
155.098 1625 40.3113
155.215 1637 40.4599
155.332 1533 39.1535
155.449 1446 38.0263
155.566 1437 37.9078
155.683 1305 36.1248
155.8 1274 35.6931
155.917 1294 35.9722
156.033 1222 34.9571
156.15 0 1
156.267 0 1
156.383 0 1
156.5 0 1
156.617 0 1
156.733 0 1
156.85 0 1
156.966 0 1
157.082 0 1
157.199 0 1
157.315 0 1
157.431 0 1
157.547 0 1
157.664 0 1
157.78 0 1
157.896 0 1
158.012 0 1
158.128 0 1
158.244 0 1
158.359 0 1
158.475 0 1
158.591 0 1
158.706 0 1
