
6.15755 0 1
6.2731 0 1
6.3887 0 1
6.50437 0 1
6.62009 0 1
6.73587 0 1
6.8517 0 1
6.96759 0 1
7.08353 0 1
7.19952 0 1
7.31557 0 1
7.43166 0 1
7.54781 0 1
7.664 0 1
7.78024 0 1
7.89653 0 1
8.01286 0 1
8.12924 0 1
8.24567 0 1
8.36213 0 1
8.47864 0 1
8.59519 0 1
8.71178 0 1
8.82841 0 1
8.94508 0 1
9.06179 0 1
9.17853 0 1
9.29531 0 1
9.41212 0 1
9.52897 0 1
9.64584 0 1
9.76276 0 1
9.8797 0 1
9.99667 0 1
10.1137 0 1
10.2307 0 1
10.3478 0 1
10.4648 0 1
10.5819 0 1
10.6991 0 1
10.8162 0 1
10.9334 0 1
11.0506 0 1
11.1678 0 1
11.285 0 1
11.4023 0 1
11.5196 0 1
11.6369 0 1
11.7542 0 1
11.8715 0 1
11.9888 0 1
12.1062 0 1
12.2235 0 1
12.3409 0 1
12.4582 0 1
12.5756 0 1
12.693 0 1
12.8104 0 1
12.9278 0 1
13.0452 0 1
13.1626 0 1
13.28 0 1
13.3974 0 1
13.5149 0 1
13.6323 0 1
13.7497 0 1
13.8671 0 1
13.9845 0 1
14.1019 0 1
14.2193 0 1
14.3367 0 1
14.4541 0 1
14.5714 0 1
14.6888 0 1
14.8062 0 1
14.9235 0 1
15.0408 0 0
15.1581 0 0
15.2755 0 0
15.3927 0 0
15.51 0 0
15.6273 0 0
15.7445 0 0
15.8617 0 0
15.9789 0 0
16.0961 0 0
16.2132 0 0
16.3304 0 0
16.4475 0 0
16.5646 0 0
16.6816 0 0
16.7986 0 0
16.9156 0 0
17.0326 0 0
17.1496 0 0
17.2665 0 0
17.3833 0 0
17.5002 0 0
17.617 0 0
17.7338 0 0
17.8505 0 0
17.9672 0 0
18.0839 0 0
18.2005 0 0
18.3171 0 0
18.4337 0 0
18.5502 0 0
18.6666 0 0
18.7831 0 0
18.8994 0 0
19.0158 0 0
19.1321 0 0
19.2483 0 0
19.3645 0 0
19.4806 0 0
19.5967 0 0
19.7128 0 0
19.8288 0 0
19.9447 0 0
20.0606 0 1
20.1764 0 1
20.2922 0 1
20.4079 0 1
20.5236 0 1
20.6392 0 1
20.7548 0 1
20.8702 0 1
23.3078 0 1
23.4233 0 1
23.539 0 1
23.6547 0 1
23.7704 0 1
23.8862 0 1
24.0021 0 1
24.118 0 1
24.234 0 1
24.35 0 1
24.4661 1296 36
24.5822 1328 36.4417
24.6984 1339 36.5923
24.8146 1302 36.0832
24.9309 1326 36.4143
25.0472 1255 35.426
25.1636 1265 35.5668
25.28 1309 36.1801
25.3965 1404 37.47
25.513 1467 38.3014
25.6296 1509 38.8458
25.7462 1557 39.4588
25.8628 1600 40
25.9795 1558 39.4715
26.0962 1599 39.9875
26.213 1562 39.5221
26.3298 1613 40.1622
26.4466 1560 39.4968
26.5635 1447 38.0395
26.6804 1458 38.1838
26.7973 1420 37.6829
26.9143 1352 36.7696
27.0313 1472 38.3667
27.1483 1506 38.8072
27.2653 1564 39.5474
27.3824 1563 39.5348
27.4996 1521 39
27.6167 1520 38.9872
27.7339 1533 39.1535
27.8511 1453 38.1182
27.9683 1426 37.7624
28.0855 1425 37.7492
28.2028 1375 37.081
28.3201 1321 36.3456
28.4374 1238 35.1852
28.5547 1237 35.171
28.6721 1300 36.0555
28.7894 1254 35.4119
28.9068 1346 36.6879
29.0242 1390 37.2827
29.1416 1434 37.8682
29.259 1461 38.223
29.3764 1409 37.5366
29.4939 1476 38.4187
29.6113 1528 39.0896
29.7288 1428 37.7889
29.8463 1563 39.5348
29.9638 1526 39.064
30.0812 1424 37.7359
30.1987 1389 37.2693
30.3162 1399 37.4032
30.4337 1353 36.7831
30.5512 1430 37.8153
30.6687 1474 38.3927
30.7862 1479 38.4578
30.9037 1545 39.3065
31.0212 1534 39.1663
31.1387 1553 39.4081
31.2562 1502 38.7556
31.3737 1527 39.0768
31.4912 1439 37.9342
31.6087 1430 37.8153
31.7262 1418 37.6563
31.8436 1320 36.3318
31.9611 1259 35.4824
32.0785 1242 35.242
32.1959 1250 35.3553
32.3134 1227 35.0286
32.4308 1404 37.47
32.5482 1387 37.2424
32.6655 1445 38.0132
32.7829 1475 38.4057
32.9002 1495 38.6652
33.0176 1501 38.7427
33.1349 1531 39.128
33.2522 1521 39
33.3694 1477 38.4318
33.4867 1540 39.2428
33.6039 1521 39
33.7211 1528 39.0896
33.8383 1436 37.8946
33.9554 1413 37.5899
34.0725 1469 38.3275
34.1896 1449 38.0657
34.3067 1554 39.4208
34.4237 1569 39.6106
34.5407 1537 39.2046
34.6577 1547 39.3319
34.7746 1549 39.3573
34.8915 1549 39.3573
35.0084 1490 38.6005
35.1252 1531 39.128
35.242 1400 37.4166
35.3587 1434 37.8682
35.4755 1389 37.2693
35.5921 1323 36.3731
35.7088 1270 35.6371
35.8254 1201 34.6554
35.9419 1284 35.8329
36.0584 1280 35.7771
36.1749 1333 36.5103
36.2913 1375 37.081
36.4077 1453 38.1182
36.524 1434 37.8682
36.6403 1447 38.0395
36.7565 1572 39.6485
36.8727 1480 38.4708
36.9889 1574 39.6737
37.1049 1532 39.1408
37.221 0 1
37.3369 0 1
37.4529 0 1
37.5687 0 1
37.6845 0 1
37.8003 0 1
37.916 0 1
38.0316 0 1
38.1472 0 1
40.5851 0 1
40.7008 0 1
40.8164 0 1
40.9322 0 1
41.048 0 1
41.1639 0 1
41.2798 0 1
41.3958 0 1
41.5118 0 1
41.6279 0 1
41.744 1323 36.3731
41.8602 1408 37.5233
41.9765 1340 36.606
42.0928 1387 37.2424
42.2091 1412 37.5766
42.3255 1365 36.9459
42.4419 1414 37.6032
42.5584 1272 35.6651
42.675 1314 36.2491
42.7915 1302 36.0832
42.9081 1313 36.2353
43.0248 1405 37.4833
43.1415 1400 37.4166
43.2582 1356 36.8239
43.375 1421 37.6962
43.4918 1426 37.7624
43.6087 1385 37.2156
43.7256 1359 36.8646
43.8425 1405 37.4833
43.9595 1367 36.973
44.0765 1360 36.8782
44.1935 1169 34.1906
44.3106 1228 35.0428
44.4277 1061 32.573
44.5448 1004 31.686
44.6619 974 31.209
44.7791 1034 32.1559
44.8963 1075 32.7872
45.0136 1156 34
45.1308 1125 33.541
45.2481 1231 35.0856
45.3654 1250 35.3553
45.4827 1210 34.7851
45.6001 1158 34.0294
45.7174 1206 34.7275
45.8348 1213 34.8281
45.9522 1232 35.0999
46.0697 1120 33.4664
46.1871 1133 33.6601
46.3046 1060 32.5576
46.422 1027 32.0468
46.5395 1084 32.9242
46.657 1117 33.4215
46.7745 1141 33.7787
46.892 1094 33.0757
47.0096 1149 33.8969
47.1271 1109 33.3017
47.2446 1092 33.0454
47.3622 1028 32.0624
47.4797 1050 32.4037
47.5973 1052 32.4345
47.7149 974 31.209
47.8324 1034 32.1559
47.95 904 30.0666
48.0675 780 27.9285
48.1851 763 27.6225
48.3027 796 28.2135
48.4202 846 29.0861
48.5378 874 29.5635
48.6554 914 30.2324
48.7729 1013 31.8277
48.8904 973 31.1929
49.008 1017 31.8904
49.1255 951 30.8383
49.243 998 31.5911
49.3605 1045 32.3265
49.478 1045 32.3265
49.5955 945 30.7409
49.713 982 31.3369
49.8304 909 30.1496
49.9479 998 31.5911
50.0653 1056 32.4962
50.1827 1093 33.0606
50.3001 1098 33.1361
50.4175 1153 33.9559
50.5348 1150 33.9116
50.6521 1247 35.3129
50.7694 1226 35.0143
50.8867 1266 35.5809
51.004 1237 35.171
51.1212 1229 35.0571
51.2384 1276 35.7211
51.3556 1172 34.2345
51.4727 1150 33.9116
51.5899 1054 32.4654
51.707 995 31.5436
51.824 1115 33.3916
51.9411 1124 33.5261
52.0581 1168 34.176
52.175 1293 35.9583
52.2919 1378 37.1214
52.4088 1427 37.7757
52.5257 1416 37.6298
52.6425 1520 38.9872
52.7593 1525 39.0512
52.876 1488 38.5746
52.9927 1568 39.598
53.1094 1528 39.0896
53.226 1538 39.2173
53.3426 1478 38.4448
53.4591 1468 38.3145
53.5756 1458 38.1838
53.692 1601 40.0125
53.8084 1628 40.3485
53.9248 1642 40.5216
54.0411 1652 40.6448
54.1573 1620 40.2492
54.2735 0 1
54.3896 0 1
54.5057 0 1
54.6217 0 1
54.7377 0 1
54.8537 0 1
54.9695 0 1
55.0853 0 1
55.2011 0 1
55.3168 0 1
55.4324 0 1
57.824 0 1
57.9396 0 1
58.0553 0 1
58.1711 0 1
58.2869 0 1
58.4028 0 1
58.5187 0 1
58.6347 0 1
58.7508 0 1
58.8669 0 1
58.983 2041 45.1774
59.0992 2134 46.1952
59.2155 2114 45.9783
59.3318 2027 45.0222
59.4482 2082 45.6289
59.5646 2106 45.8912
59.681 2049 45.2659
59.7975 2010 44.833
59.9141 1960 44.2719
60.0306 1898 43.566
60.1473 1769 42.0595
60.2639 1679 40.9756
60.3807 1558 39.4715
60.4974 1459 38.1969
60.6142 1528 39.0896
60.731 1763 41.9881
60.8479 1820 42.6615
60.9648 1911 43.715
61.0818 2059 45.3762
61.1987 1957 44.238
61.3158 2074 45.5412
61.4328 2051 45.288
61.5499 2022 44.9667
61.667 1972 44.4072
61.7841 1963 44.3058
61.9013 1901 43.6005
62.0185 1930 43.9318
62.1357 2039 45.1553
62.253 2070 45.4973
62.3702 2076 45.5631
62.4875 2146 46.3249
62.6049 2090 45.7165
62.7222 2064 45.4313
62.8396 2276 47.7074
62.9569 2205 46.9574
63.0743 2198 46.8828
63.1918 2086 45.6727
63.3092 2030 45.0555
63.4267 1985 44.5533
63.5441 1900 43.589
63.6616 1730 41.5933
63.7791 1500 38.7298
63.8966 1453 38.1182
64.0142 1421 37.6962
64.1317 1536 39.1918
64.2492 1763 41.9881
64.3668 1910 43.7035
64.4843 1947 44.1248
64.6019 1972 44.4072
64.7195 2045 45.2217
64.837 2013 44.8665
64.9546 2067 45.4643
65.0722 2127 46.1194
65.1898 2105 45.8803
65.3074 2033 45.0888
65.4249 1944 44.0908
65.5425 1928 43.909
65.6601 2040 45.1664
65.7777 2044 45.2106
65.8952 2139 46.2493
66.0128 2124 46.0869
66.1304 2105 45.8803
66.2479 2248 47.4131
66.3655 2301 47.9687
66.483 2260 47.5395
66.6005 2219 47.1063
66.718 2288 47.833
66.8355 2206 46.9681
66.953 2204 46.9468
67.0705 1974 44.4297
67.1879 1983 44.5309
67.3054 1797 42.391
67.4228 1606 40.0749
67.5402 1460 38.2099
67.6576 1545 39.3065
67.7749 1623 40.2865
67.8923 1804 42.4735
68.0096 1910 43.7035
68.1269 2052 45.299
68.2442 2168 46.5618
68.3614 2226 47.1805
68.4787 2257 47.5079
68.5958 2352 48.4974
68.713 2325 48.2183
68.8302 2320 48.1664
68.9473 2232 47.244
69.0643 2238 47.3075
69.1814 2176 46.6476
69.2984 2096 45.7821
69.4154 2271 47.655
69.5323 2408 49.0714
69.6492 2417 49.163
69.7661 2497 49.97
69.8829 2487 49.8698
69.9997 2469 49.689
70.1165 2475 49.7494
70.2332 2548 50.4777
70.3499 2516 50.1597
70.4665 2515 50.1498
70.5831 2460 49.5984
70.6996 2342 48.3942
70.8161 2182 46.7119
70.9326 2040 45.1664
71.049 1853 43.0465
71.1653 1706 41.3038
71.2817 1600 40
71.3979 1617 40.2119
71.5141 1655 40.6817
71.6303 1852 43.0349
71.7464 1860 43.1277
71.8624 0 1
71.9784 0 1
72.0944 0 1
72.2102 0 1
72.3261 0 1
72.4418 0 1
72.5575 0 1
72.6732 0 1
75.1054 0 1
75.2209 0 1
75.3365 0 1
75.4521 0 1
75.5678 0 1
75.6835 0 1
75.7993 0 1
75.9151 0 1
76.031 0 1
76.147 2204 46.9468
76.263 2224 47.1593
76.3791 2074 45.5412
76.4952 1825 42.72
76.6113 1778 42.1663
76.7276 1791 42.3202
76.8438 1946 44.1135
76.9601 2192 46.8188
77.0765 2461 49.6085
77.1929 2768 52.6118
77.3093 2794 52.8583
77.4258 2834 53.2353
77.5423 2696 51.923
77.6589 2845 53.3385
77.7755 2801 52.9245
77.8921 2683 51.7977
78.0088 2779 52.7162
78.1256 2661 51.5849
78.2423 2725 52.2015
78.3591 2651 51.4879
78.4759 2804 52.9528
78.5928 2861 53.4883
78.7097 2947 54.2863
78.8266 3131 55.9553
78.9436 2819 53.0943
79.0606 3066 55.3715
79.1776 3103 55.7046
79.2946 3090 55.5878
79.4117 3061 55.3263
79.5288 3023 54.9818
79.6459 2877 53.6377
79.7631 2828 53.1789
79.8802 2611 51.0979
79.9974 2467 49.6689
80.1147 2180 46.6905
80.2319 1818 42.638
80.3491 1920 43.8178
80.4664 2166 46.5403
80.5837 2493 49.93
80.701 2735 52.2972
80.8183 2907 53.9166
80.9357 2939 54.2125
81.053 3167 56.2761
81.1704 3113 55.7943
81.2877 3014 54.8999
81.4051 3055 55.2721
81.5225 3092 55.6058
81.6399 2938 54.2033
81.7573 3047 55.1996
81.8747 2834 53.2353
81.9922 2837 53.2635
82.1096 2837 53.2635
82.227 3019 54.9454
82.3444 3100 55.6776
82.4619 3156 56.1783
82.5793 3149 56.116
82.6967 3225 56.7891
82.8142 3266 57.1489
82.9316 3162 56.2317
83.049 3110 55.7674
83.1664 3179 56.3826
83.2838 2933 54.1572
83.4012 2828 53.1789
83.5186 2768 52.6118
83.636 2494 49.94
83.7534 2213 47.0425
83.8708 1989 44.5982
83.9881 1978 44.4747
84.1055 2112 45.9565
84.2228 2447 49.4672
84.3401 2711 52.0673
84.4575 3040 55.1362
84.5747 3079 55.4887
84.692 3259 57.0877
84.8093 3225 56.7891
84.9265 3302 57.463
85.0437 3252 57.0263
85.1609 3206 56.6216
85.2781 3168 56.285
85.3952 3158 56.1961
85.5123 3088 55.5698
85.6294 3136 56
85.7465 3185 56.4358
85.8636 3314 57.5674
85.9806 3368 58.0345
86.0976 3508 59.2284
86.2145 3603 60.025
86.3315 3524 59.3633
86.4484 3748 61.2209
86.5652 3747 61.2127
86.682 3810 61.7252
86.7988 3661 60.5062
86.9156 3567 59.7244
87.0323 3444 58.6856
87.149 3332 57.7235
87.2657 2938 54.2033
87.3823 2596 50.951
87.4988 2284 47.7912
87.6154 2491 49.9099
87.7318 2833 53.2259
87.8483 3375 58.0948
87.9647 3678 60.6465
88.081 3755 61.2781
88.1973 4025 63.4429
88.3136 3998 63.2297
88.4298 4003 63.2693
88.546 4100 64.0312
88.6621 3996 63.2139
88.7781 3920 62.6099
88.8942 0 1
89.0101 0 1
89.126 0 1
89.2419 0 1
89.3577 0 1
89.4734 0 1
89.5891 0 1
89.7047 0 1
89.8203 0 1
89.9358 0 1
92.3269 0 1
92.4424 0 1
92.558 0 1
92.6736 0 1
92.7893 0 1
92.905 0 1
93.0208 0 1
93.1366 0 1
93.2525 0 1
93.3685 0 1
93.4845 0 1
93.6005 4161 64.5058
93.7167 4200 64.8074
93.8328 4260 65.2687
93.949 4224 64.9923
94.0653 4183 64.6761
94.1816 4229 65.0308
94.2979 4248 65.1767
94.4143 4091 63.9609
94.5307 4132 64.2806
94.6472 4076 63.8436
94.7637 3964 62.9603
94.8803 4156 64.467
94.9969 4164 64.5291
95.1135 4299 65.5668
95.2302 4368 66.0908
95.3469 4513 67.1789
95.4637 4588 67.7348
95.5805 4581 67.6831
95.6973 4575 67.6387
95.8142 4687 68.4617
95.9311 4516 67.2012
96.048 4487 66.9851
96.1649 4323 65.7495
96.2819 4099 64.0234
96.3989 3756 61.2862
96.516 3266 57.1489
96.633 2910 53.9444
96.7501 2831 53.2071
96.8673 3016 54.9181
96.9844 3472 58.9237
97.1016 4138 64.3273
97.2188 4409 66.4003
97.336 4676 68.3813
97.4532 4999 70.7036
97.5704 4720 68.7023
97.6877 4863 69.7352
97.805 4743 68.8694
97.9223 4628 68.0294
98.0396 4674 68.3667
98.1569 4592 67.7643
98.2743 4611 67.9043
98.3916 4473 66.8805
98.509 4468 66.8431
98.6264 4536 67.3498
98.7438 4544 67.4092
98.8612 4753 68.942
98.9786 5012 70.7955
99.096 4977 70.5479
99.2134 5012 70.7955
99.3308 5016 70.8237
99.4482 5037 70.9718
99.5656 4977 70.5479
99.6831 4775 69.1014
99.8005 4712 68.644
99.9179 4467 66.8356
100.035 4039 63.5531
100.153 3452 58.7537
100.27 3226 56.7979
100.388 3293 57.3847
100.505 3735 61.1146
100.622 4223 64.9846
100.74 4752 68.9348
100.857 5008 70.7672
100.975 5131 71.631
101.092 5072 71.218
101.209 5124 71.5821
101.327 5090 71.3442
101.444 5188 72.0278
101.561 5026 70.8943
101.679 4998 70.6965
101.796 4913 70.0928
101.913 4882 69.8713
102.03 4741 68.8549
102.148 4905 70.0357
102.265 5344 73.1027
102.382 4851 69.6491
102.499 5294 72.7599
102.616 5375 73.3144
102.733 5465 73.9256
102.851 5447 73.8038
102.968 5452 73.8377
103.085 5509 74.2226
103.202 5323 72.9589
103.319 5074 71.232
103.436 4990 70.6399
103.552 4462 66.7982
103.669 3812 61.7414
103.786 3432 58.5833
103.903 3495 59.1185
104.02 4095 63.9922
104.137 4684 68.4398
104.253 5306 72.8423
104.37 5486 74.0675
104.487 5788 76.0789
104.603 5641 75.1066
104.72 5622 74.98
104.836 5630 75.0333
104.953 5602 74.8465
105.069 5667 75.2795
105.186 5478 74.0135
105.302 5563 74.5855
105.418 5365 73.2462
105.535 5249 72.45
105.651 5406 73.5255
105.767 5443 73.7767
105.883 5610 74.8999
105.999 5741 75.7694
106.115 0 1
106.231 0 1
106.347 0 1
106.463 0 1
106.579 0 1
106.694 0 1
106.81 0 1
106.926 0 1
107.041 0 1
107.157 0 1
109.576 0 1
109.692 0 1
109.807 0 1
109.923 0 1
110.039 0 1
110.155 0 1
110.27 0 1
110.386 0 1
110.502 0 1
110.618 5104 71.4423
110.735 5023 70.8731
110.851 5002 70.7248
110.967 5216 72.2219
111.083 5331 73.0137
111.199 5501 74.1687
111.316 5468 73.9459
111.432 5511 74.2361
111.549 5439 73.7496
111.665 5328 72.9932
111.782 5056 71.1056
111.898 4738 68.8331
112.015 4284 65.4523
112.132 3882 62.3057
112.248 3404 58.3438
112.365 3355 57.9224
112.482 3562 59.6825
112.599 4102 64.0469
112.716 4629 68.0368
112.832 5053 71.0845
112.949 5104 71.4423
113.066 4962 70.4415
113.183 5099 71.4073
113.3 4977 70.5479
113.417 5127 71.6031
113.534 4882 69.8713
113.652 4772 69.0797
113.769 4849 69.6348
113.886 4742 68.8622
114.003 4620 67.9706
114.12 4478 66.9179
114.238 4378 66.1665
114.355 4460 66.7832
114.472 4567 67.5796
114.589 4601 67.8307
114.707 4741 68.8549
114.824 4563 67.55
114.942 4719 68.695
115.059 4797 69.2604
115.176 4607 67.8749
115.294 4629 68.0368
115.411 4533 67.3276
115.529 4141 64.3506
115.646 3861 62.1369
115.764 3336 57.7581
115.881 3068 55.3895
115.999 3275 57.2276
116.116 3522 59.3464
116.234 4148 64.405
116.351 4554 67.4833
116.469 4708 68.6149
116.586 4658 68.2495
116.704 4688 68.469
116.821 4742 68.8622
116.939 4730 68.775
117.056 4719 68.695
117.174 4569 67.5944
117.291 4639 68.1102
117.409 4551 67.4611
117.526 4476 66.9029
117.644 4522 67.2458
117.761 4433 66.5808
117.879 4426 66.5282
117.996 4548 67.4389
118.114 4501 67.0895
118.231 4554 67.4833
118.349 4647 68.1689
118.466 4612 67.9117
118.584 4819 69.419
118.701 4716 68.6731
118.819 4715 68.6659
118.936 4514 67.1863
119.053 4251 65.1997
119.171 4106 64.0781
119.288 3585 59.8749
119.405 3151 56.1338
119.523 2987 54.6535
119.64 3103 55.7046
119.757 3489 59.0678
119.875 3884 62.3217
119.992 4283 65.4446
120.109 4374 66.1362
120.226 4494 67.0373
120.343 4652 68.2056
120.46 4410 66.4078
120.578 4633 68.0661
120.695 4480 66.9328
120.812 4365 66.0681
120.929 4462 66.7982
121.046 4473 66.8805
121.163 4338 65.8635
121.279 4298 65.5591
121.396 4246 65.1613
121.513 4206 64.8537
121.63 4419 66.4756
121.747 4173 64.5988
121.863 4341 65.8863
121.98 4464 66.8132
122.097 4357 66.0076
122.213 4492 67.0224
122.33 4540 67.3795
122.446 4522 67.2458
122.563 4454 66.7383
122.679 4179 64.6452
122.795 4106 64.0781
122.912 3912 62.546
123.028 3462 58.8388
123.144 3055 55.2721
123.26 2696 51.923
123.377 0 1
123.493 0 1
123.609 0 1
123.725 0 1
123.84 0 1
123.956 0 1
124.072 0 1
124.188 0 1
124.303 0 1
124.419 0 1
126.852 0 1
126.968 0 1
127.083 0 1
127.199 0 1
127.315 0 1
127.431 0 1
127.547 0 1
127.663 0 1
127.779 0 1
127.895 0 1
128.011 0 1
128.127 0 1
128.243 0 1
128.359 3321 57.6281
128.476 3131 55.9553
128.592 3216 56.7098
128.708 3624 60.1997
128.825 4182 64.6684
128.941 4396 66.3023
129.058 4666 68.3081
129.174 4765 69.029
129.291 4751 68.9275
129.408 4760 68.9928
129.524 4704 68.5857
129.641 4715 68.6659
129.758 4718 68.6877
129.875 4811 69.3614
129.992 4680 68.4105
130.108 4595 67.7864
130.225 4617 67.9485
130.342 4522 67.2458
130.459 4402 66.3476
130.576 4503 67.1044
130.693 4352 65.9697
130.81 4569 67.5944
130.928 4562 67.5426
131.045 4505 67.1193
131.162 4682 68.4251
131.279 4721 68.7095
131.396 4650 68.1909
131.513 4628 68.0294
131.631 4259 65.261
131.748 4116 64.1561
131.865 3631 60.2578
131.983 3226 56.7979
132.1 3070 55.4076
132.217 3445 58.6941
132.335 3821 61.8142
132.452 4265 65.307
132.57 4401 66.34
132.687 4417 66.4605
132.804 4672 68.352
132.922 4561 67.5352
133.039 4546 67.424
133.157 4495 67.0448
133.274 4489 67
133.392 4483 66.9552
133.509 4442 66.6483
133.627 4415 66.4455
133.744 4418 66.468
133.862 4353 65.9773
133.979 4290 65.4981
134.097 4408 66.3928
134.214 4351 65.9621
134.332 4187 64.707
134.449 4298 65.5591
134.567 4392 66.2722
134.684 4531 67.3127
134.802 4519 67.2235
134.919 4448 66.6933
135.037 4390 66.2571
135.154 4222 64.9769
135.272 4113 64.1327
135.389 3671 60.5888
135.507 3423 58.5064
135.624 3105 55.7225
135.742 3271 57.1927
135.859 3510 59.2453
135.977 3928 62.6738
136.094 4333 65.8255
136.211 4224 64.9923
136.329 4293 65.521
136.446 4285 65.4599
136.564 4350 65.9545
136.681 4505 67.1193
136.798 4270 65.3452
136.915 4333 65.8255
137.033 4388 66.242
137.15 4247 65.169
137.267 4201 64.8151
137.384 4146 64.3894
137.502 4117 64.1639
137.619 4133 64.2884
137.736 4208 64.8691
137.853 3970 63.0079
137.97 3915 62.57
138.087 4255 65.2304
138.204 4175 64.6142
138.321 4259 65.261
138.438 4280 65.4217
138.555 4341 65.8863
138.672 4165 64.5368
138.788 4142 64.3584
138.905 3921 62.6179
139.022 3808 61.709
139.139 3471 58.9152
139.255 3097 55.6507
139.372 3140 56.0357
139.488 3406 58.3609
139.605 3764 61.3514
139.721 4156 64.467
139.838 4323 65.7495
139.954 4196 64.7765
140.071 4225 65
140.187 4161 64.5058
140.303 4263 65.2917
140.419 4185 64.6916
140.535 4107 64.0859
140.652 4043 63.5846
140.768 0 1
140.884 0 1
141 0 1
141.115 0 1
141.231 0 1
141.347 0 1
141.463 0 1
141.578 0 1
141.694 0 1
144.104 0 1
144.219 0 1
144.335 0 1
144.45 0 1
144.566 0 1
144.682 0 1
144.798 0 1
144.914 0 1
145.03 0 1
145.146 3629 60.2412
145.262 3723 61.0164
145.378 3641 60.3407
145.494 3555 59.6238
145.61 3599 59.9917
145.726 3586 59.8832
145.842 3489 59.0678
145.959 3422 58.4979
146.075 3585 59.8749
146.192 3435 58.6089
146.308 3428 58.5491
146.425 3570 59.7495
146.541 3425 58.5235
146.658 3411 58.4038
146.774 3400 58.3095
146.891 3400 58.3095
147.008 3373 58.0775
147.125 3569 59.7411
147.241 3486 59.0424
147.358 3357 57.9396
147.475 3324 57.6541
147.592 3115 55.8122
147.709 2894 53.7959
147.826 2642 51.4004
147.943 2602 51.0098
148.06 2625 51.2348
148.177 2959 54.3967
148.294 3277 57.2451
148.411 3407 58.3695
148.528 3461 58.8303
148.645 3423 58.5064
148.762 3383 58.1636
148.88 3399 58.3009
148.997 3254 57.0438
149.114 3346 57.8446
149.231 3225 56.7891
149.349 3144 56.0714
149.466 3179 56.3826
149.583 3223 56.7715
149.701 3143 56.0625
149.818 3228 56.8155
149.935 3241 56.9298
150.053 3186 56.4447
150.17 3133 55.9732
150.287 3227 56.8067
150.405 3161 56.2228
150.522 3162 56.2317
150.64 3236 56.8859
150.757 3232 56.8507
150.875 3188 56.4624
150.992 3270 57.1839
151.11 3122 55.8749
151.227 3095 55.6327
151.344 2772 52.6498
151.462 2503 50.03
151.579 2395 48.9387
151.697 2593 50.9215
151.814 2960 54.4059
151.932 3240 56.921
152.049 3356 57.931
152.167 3341 57.8014
152.284 3357 57.9396
152.402 3337 57.7668
152.519 3366 58.0172
152.636 3233 56.8595
152.754 3303 57.4717
152.871 3128 55.9285
152.989 3241 56.9298
153.106 3149 56.116
153.223 3090 55.5878
153.341 3152 56.1427
153.458 3116 55.8211
153.575 3194 56.5155
153.693 3209 56.648
153.81 3223 56.7715
153.927 3201 56.5774
154.044 3261 57.1052
154.162 3244 56.9561
154.279 3236 56.8859
154.396 3397 58.2838
154.513 3326 57.6715
154.63 3312 57.55
154.747 3256 57.0614
154.864 3163 56.2406
154.981 2937 54.1941
155.098 2755 52.4881
155.215 2735 52.2972
155.332 2825 53.1507
155.449 3095 55.6327
155.566 3317 57.5934
155.683 3340 57.7927
155.8 3333 57.7321
155.917 3379 58.1292
156.033 3295 57.4021
156.15 0 1
156.267 0 1
156.383 0 1
156.5 0 1
156.617 0 1
156.733 0 1
156.85 0 1
156.966 0 1
157.082 0 1
157.199 0 1
157.315 0 1
157.431 0 1
157.547 0 1
157.664 0 1
157.78 0 1
157.896 0 1
158.012 0 1
158.128 0 1
158.244 0 1
158.359 0 1
158.475 0 1
158.591 0 1
158.706 0 1
