
6.15755 0 1
6.2731 0 1
6.3887 0 1
6.50437 0 1
6.62009 0 1
6.73587 0 1
6.8517 0 1
6.96759 0 1
7.08353 0 1
7.19952 0 1
7.31557 0 1
7.43166 0 1
7.54781 0 1
7.664 0 1
7.78024 0 1
7.89653 0 1
8.01286 0 1
8.12924 0 1
8.24567 0 1
8.36213 0 1
8.47864 0 1
8.59519 0 1
8.71178 0 1
8.82841 0 1
8.94508 0 1
9.06179 0 1
9.17853 0 1
9.29531 0 1
9.41212 0 1
9.52897 0 1
9.64584 0 1
9.76276 0 1
9.8797 0 1
9.99667 0 1
10.1137 0 1
10.2307 0 1
10.3478 0 1
10.4648 0 1
10.5819 0 1
10.6991 0 1
10.8162 0 1
10.9334 0 1
11.0506 0 1
11.1678 0 1
11.285 0 1
11.4023 0 1
11.5196 0 1
11.6369 0 1
11.7542 0 1
11.8715 0 1
11.9888 0 1
12.1062 0 1
12.2235 0 1
12.3409 0 1
12.4582 0 1
12.5756 0 1
12.693 0 1
12.8104 0 1
12.9278 0 1
13.0452 0 1
13.1626 0 1
13.28 0 1
13.3974 0 1
13.5149 0 1
13.6323 0 1
13.7497 0 1
13.8671 0 1
13.9845 0 1
14.1019 0 1
14.2193 0 1
14.3367 0 1
14.4541 0 1
14.5714 0 1
14.6888 0 1
14.8062 0 1
14.9235 0 1
15.0408 0 0
15.1581 0 0
15.2755 0 0
15.3927 0 0
15.51 0 0
15.6273 0 0
15.7445 0 0
15.8617 0 0
15.9789 0 0
16.0961 0 0
16.2132 0 0
16.3304 0 0
16.4475 0 0
16.5646 0 0
16.6816 0 0
16.7986 0 0
16.9156 0 0
17.0326 0 0
17.1496 0 0
17.2665 0 0
17.3833 0 0
17.5002 0 0
17.617 0 0
17.7338 0 0
17.8505 0 0
17.9672 0 0
18.0839 0 0
18.2005 0 0
18.3171 0 0
18.4337 0 0
18.5502 0 0
18.6666 0 0
18.7831 0 0
18.8994 0 0
19.0158 0 0
19.1321 0 0
19.2483 0 0
19.3645 0 0
19.4806 0 0
19.5967 0 0
19.7128 0 0
19.8288 0 0
19.9447 0 0
20.0606 0 1
20.1764 0 1
20.2922 0 1
20.4079 0 1
20.5236 0 1
20.6392 0 1
20.7548 0 1
20.8702 0 1
23.3078 0 1
23.4233 0 1
23.539 0 1
23.6547 0 1
23.7704 0 1
23.8862 0 1
24.0021 0 1
24.118 0 1
24.234 0 1
24.35 0 1
24.4661 41225 203.039
24.5822 41324 203.283
24.6984 40992 202.465
24.8146 40724 201.802
24.9309 39779 199.447
25.0472 39142 197.843
25.1636 38904 197.241
25.28 38442 196.066
25.3965 38110 195.218
25.513 38701 196.726
25.6296 39330 198.318
25.7462 40243 200.607
25.8628 40171 200.427
25.9795 41450 203.593
26.0962 42157 205.322
26.213 43314 208.12
26.3298 42794 206.867
26.4466 43641 208.904
26.5635 43989 209.736
26.6804 43848 209.399
26.7973 43450 208.447
26.9143 43102 207.61
27.0313 43118 207.649
27.1483 43850 209.404
27.2653 44451 210.834
27.3824 45033 212.21
27.4996 44497 210.943
27.6167 44388 210.685
27.7339 43599 208.804
27.8511 42562 206.306
27.9683 41737 204.296
28.0855 40980 202.435
28.2028 40656 201.633
28.3201 39337 198.336
28.4374 38928 197.302
28.5547 37722 194.222
28.6721 37066 192.525
28.7894 36849 191.961
28.9068 36396 190.777
29.0242 36187 190.229
29.1416 36196 190.252
29.259 36977 192.294
29.3764 37494 193.634
29.4939 38076 195.131
29.6113 39317 198.285
29.7288 40059 200.147
29.8463 40529 201.318
29.9638 41866 204.612
30.0812 41549 203.836
30.1987 41914 204.729
30.3162 40942 202.341
30.4337 40314 200.783
30.5512 40382 200.953
30.6687 41065 202.645
30.7862 41939 204.79
30.9037 42131 205.258
31.0212 42288 205.64
31.1387 42130 205.256
31.2562 41597 203.953
31.3737 41133 202.813
31.4912 40014 200.035
31.6087 39777 199.442
31.7262 38828 197.048
31.8436 38389 195.931
31.9611 38476 196.153
32.0785 37207 192.891
32.1959 37060 192.51
32.3134 36059 189.892
32.4308 35872 189.399
32.5482 35813 189.243
32.6655 36392 190.767
32.7829 36522 191.107
32.9002 37037 192.45
33.0176 37556 193.794
33.1349 38746 196.84
33.2522 39470 198.671
33.3694 40060 200.15
33.4867 40793 201.973
33.6039 41332 203.303
33.7211 41380 203.421
33.8383 41255 203.113
33.9554 40159 200.397
34.0725 39725 199.311
34.1896 39265 198.154
34.3067 39653 199.131
34.4237 40330 200.823
34.5407 40597 201.487
34.6577 41210 203.002
34.7746 40529 201.318
34.8915 40723 201.799
35.0084 40025 200.062
35.1252 39183 197.947
35.242 38755 196.863
35.3587 38629 196.543
35.4755 38290 195.678
35.5921 38078 195.136
35.7088 38005 194.949
35.8254 37071 192.538
35.9419 36836 191.927
36.0584 36687 191.539
36.1749 36020 189.789
36.2913 36160 190.158
36.4077 36120 190.053
36.524 35887 189.439
36.6403 36402 190.793
36.7565 37189 192.844
36.8727 37556 193.794
36.9889 38409 195.982
37.1049 37484 193.608
37.221 0 1
37.3369 0 1
37.4529 0 1
37.5687 0 1
37.6845 0 1
37.8003 0 1
37.916 0 1
38.0316 0 1
38.1472 0 1
40.5851 0 1
40.7008 0 1
40.8164 0 1
40.9322 0 1
41.048 0 1
41.1639 0 1
41.2798 0 1
41.3958 0 1
41.5118 0 1
41.6279 0 1
41.744 28473 168.739
41.8602 29959 173.087
41.9765 30743 175.337
42.0928 31648 177.899
42.2091 32066 179.07
42.3255 32419 180.053
42.4419 32696 180.82
42.5584 32281 179.669
42.675 31567 177.671
42.7915 30321 174.129
42.9081 29847 172.763
43.0248 30090 173.465
43.1415 31216 176.681
43.2582 31819 178.379
43.375 31984 178.841
43.4918 32702 180.837
43.6087 32337 179.825
43.7256 32176 179.377
43.8425 32031 178.972
43.9595 31508 177.505
44.0765 31902 178.611
44.1935 31695 178.031
44.3106 31668 177.955
44.4277 30631 175.017
44.5448 30164 173.678
44.6619 29355 171.333
44.7791 28763 169.597
44.8963 27168 164.827
45.0136 27082 164.566
45.1308 26801 163.71
45.2481 26762 163.591
45.3654 26363 162.367
45.4827 26555 162.957
45.6001 27360 165.409
45.7174 27200 164.924
45.8348 27142 164.748
45.9522 27089 164.587
46.0697 26915 164.058
46.1871 26633 163.196
46.3046 25732 160.412
46.422 24676 157.086
46.5395 24200 155.563
46.657 25145 158.572
46.7745 25589 159.966
46.892 25892 160.91
47.0096 26169 161.768
47.1271 26586 163.052
47.2446 26017 161.298
47.3622 26290 162.142
47.4797 26110 161.586
47.5973 25938 161.053
47.7149 26200 161.864
47.8324 25520 159.75
47.95 24979 158.047
48.0675 24051 155.084
48.1851 23362 152.846
48.3027 22358 149.526
48.4202 21529 146.728
48.5378 21611 147.007
48.6554 21278 145.87
48.7729 21338 146.075
48.8904 21438 146.417
49.008 21825 147.733
49.1255 22322 149.405
49.243 22815 151.046
49.3605 23030 151.756
49.478 23131 152.089
49.5955 23179 152.247
49.713 22832 151.103
49.8304 22274 149.245
49.9479 21726 147.397
50.0653 22273 149.241
50.1827 23239 152.443
50.3001 24419 156.266
50.4175 25949 161.087
50.5348 26462 162.671
50.6521 27781 166.676
50.7694 28731 169.502
50.8867 29385 171.421
51.004 30976 176
51.1212 31897 178.597
51.2384 32673 180.757
51.3556 33098 181.929
51.4727 32534 180.372
51.5899 32243 179.563
51.707 30891 175.758
51.824 29794 172.609
51.9411 29121 170.649
52.0581 28596 169.104
52.175 29162 170.769
52.2919 28626 169.192
52.4088 28737 169.52
52.5257 29130 170.675
52.6425 29815 172.67
52.7593 30271 173.986
52.876 30686 175.174
52.9927 31486 177.443
53.1094 31734 178.14
53.226 32036 178.986
53.3426 31929 178.687
53.4591 31041 176.185
53.5756 30509 174.668
53.692 31271 176.836
53.8084 32844 181.229
53.9248 34635 186.105
54.0411 35878 189.415
54.1573 37219 192.922
54.2735 0 1
54.3896 0 1
54.5057 0 1
54.6217 0 1
54.7377 0 1
54.8537 0 1
54.9695 0 1
55.0853 0 1
55.2011 0 1
55.3168 0 1
55.4324 0 1
57.824 0 1
57.9396 0 1
58.0553 0 1
58.1711 0 1
58.2869 0 1
58.4028 0 1
58.5187 0 1
58.6347 0 1
58.7508 0 1
58.8669 0 1
58.983 39477 198.688
59.0992 41703 204.213
59.2155 44475 210.891
59.3318 46911 216.589
59.4482 49007 221.375
59.5646 49427 222.322
59.681 49953 223.502
59.7975 49418 222.302
59.9141 48573 220.393
60.0306 46526 215.699
60.1473 44860 211.802
60.2639 42493 206.138
60.3807 39949 199.872
60.4974 37505 193.662
60.6142 34992 187.061
60.731 33240 182.318
60.8479 32200 179.444
60.9648 32529 180.358
61.0818 33407 182.776
61.1987 34924 186.88
61.3158 36727 191.643
61.4328 36778 191.776
61.5499 36810 191.859
61.667 37145 192.73
61.7841 36427 190.859
61.9013 35821 189.264
62.0185 34954 186.96
62.1357 34501 185.744
62.253 35584 188.637
62.3702 36942 192.203
62.4875 39161 197.891
62.6049 41085 202.694
62.7222 43989 209.736
62.8396 45968 214.401
62.9569 47045 216.899
63.0743 47774 218.573
63.1918 47063 216.94
63.3092 46514 215.671
63.4267 45419 213.117
63.5441 43759 209.187
63.6616 41346 203.337
63.7791 39143 197.846
63.8966 36493 191.031
64.0142 33155 182.085
64.1317 30299 174.066
64.2492 28684 169.364
64.3668 28235 168.033
64.4843 28790 169.676
64.6019 29877 172.85
64.7195 32149 179.301
64.837 33440 182.866
64.9546 33952 184.261
65.0722 33649 183.437
65.1898 33480 182.975
65.3074 34280 185.149
65.4249 33081 181.882
65.5425 32305 179.736
65.6601 31625 177.834
65.7777 32028 178.964
65.8952 33915 184.16
66.0128 35787 189.175
66.1304 38659 196.619
66.2479 42343 205.774
66.3655 44129 210.069
66.483 45512 213.335
66.6005 45681 213.731
66.718 45627 213.605
66.8355 44923 211.95
66.953 44444 210.817
67.0705 43041 207.463
67.1879 40550 201.37
67.3054 37223 192.933
67.4228 33857 184.003
67.5402 30824 175.568
67.6576 28795 169.691
67.7749 27033 164.417
67.8923 27054 164.481
68.0096 27051 164.472
68.1269 28191 167.902
68.2442 30548 174.78
68.3614 32746 180.959
68.4787 33800 183.848
68.5958 33975 184.323
68.713 34003 184.399
68.8302 33744 183.695
68.9473 34101 184.665
69.0643 33526 183.101
69.1814 32416 180.044
69.2984 32082 179.114
69.4154 32894 181.367
69.5323 35155 187.497
69.6492 38776 196.916
69.7661 42844 206.988
69.8829 45311 212.864
69.9997 47151 217.143
70.1165 47794 218.618
70.2332 48089 219.292
70.3499 47423 217.768
70.4665 47818 218.673
70.5831 46542 215.736
70.6996 43821 209.335
70.8161 40159 200.397
70.9326 36979 192.299
71.049 34552 185.882
71.1653 32086 179.126
71.2817 29443 171.59
71.3979 27437 165.641
71.5141 26371 162.392
71.6303 26413 162.521
71.7464 25374 159.292
71.8624 0 1
71.9784 0 1
72.0944 0 1
72.2102 0 1
72.3261 0 1
72.4418 0 1
72.5575 0 1
72.6732 0 1
75.1054 0 1
75.2209 0 1
75.3365 0 1
75.4521 0 1
75.5678 0 1
75.6835 0 1
75.7993 0 1
75.9151 0 1
76.031 0 1
76.147 37462 193.551
76.263 37515 193.688
76.3791 35320 187.936
76.4952 32782 181.058
76.6113 30597 174.92
76.7276 29425 171.537
76.8438 27942 167.159
76.9601 28319 168.283
77.0765 28899 169.997
77.1929 30719 175.268
77.3093 33882 184.071
77.4258 35704 188.955
77.5423 36414 190.825
77.6589 35967 189.65
77.7755 34694 186.263
77.8921 34481 185.691
78.0088 33623 183.366
78.1256 32178 179.382
78.2423 31275 176.847
78.3591 30905 175.798
78.4759 32778 181.047
78.5928 36738 191.672
78.7097 40395 200.985
78.8266 45909 214.264
78.9436 44467 210.872
79.0606 47286 217.453
79.1776 48329 219.839
79.2946 48783 220.869
79.4117 47913 218.89
79.5288 46534 215.717
79.6459 44934 211.976
79.7631 41583 203.919
79.8802 38293 195.686
79.9974 35590 188.653
80.1147 32821 181.166
80.2319 30536 174.746
80.3491 28513 168.858
80.4664 27520 165.892
80.5837 27579 166.069
80.701 27788 166.697
80.8183 29299 171.17
80.9357 31722 178.107
81.053 34278 185.143
81.1704 34059 184.551
81.2877 33998 184.385
81.4051 32817 181.155
81.5225 32798 181.102
81.6399 31654 177.916
81.7573 30811 175.531
81.8747 29532 171.849
81.9922 29929 173
82.1096 31809 178.351
82.227 35086 187.313
82.3444 38112 195.223
82.4619 41819 204.497
82.5793 43040 207.461
82.6967 45787 213.979
82.8142 45149 212.483
82.9316 44286 210.442
83.049 43600 208.806
83.1664 41931 204.771
83.2838 40310 200.774
83.4012 37092 192.593
83.5186 34218 184.981
83.636 32267 179.63
83.7534 30159 173.663
83.8708 27932 167.129
83.9881 26140 161.679
84.1055 24985 158.066
84.2228 24843 157.617
84.3401 26084 161.505
84.4575 27316 165.276
84.5747 30472 174.562
84.692 32658 180.715
84.8093 33205 182.222
84.9265 32309 179.747
85.0437 31386 177.161
85.1609 30344 174.195
85.2781 29275 171.099
85.3952 28899 169.997
85.5123 28882 169.947
85.6294 30219 173.836
85.7465 33205 182.222
85.8636 36527 191.12
85.9806 39855 199.637
86.0976 43423 208.382
86.2145 45917 214.283
86.3315 46049 214.59
86.4484 48922 221.183
86.5652 47002 216.799
86.682 47035 216.876
86.7988 45249 212.718
86.9156 43014 207.398
87.0323 39939 199.847
87.149 37778 194.366
87.2657 35552 188.552
87.3823 33668 183.488
87.4988 30716 175.26
87.6154 29541 171.875
87.7318 29405 171.479
87.8483 30128 173.574
87.9647 31829 178.407
88.081 34923 186.877
88.1973 38190 195.423
88.3136 38852 197.109
88.4298 37806 194.438
88.546 36235 190.355
88.6621 34560 185.903
88.7781 33168 182.121
88.8942 0 1
89.0101 0 1
89.126 0 1
89.2419 0 1
89.3577 0 1
89.4734 0 1
89.5891 0 1
89.7047 0 1
89.8203 0 1
89.9358 0 1
92.3269 0 1
92.4424 0 1
92.558 0 1
92.6736 0 1
92.7893 0 1
92.905 0 1
93.0208 0 1
93.1366 0 1
93.2525 0 1
93.3685 0 1
93.4845 0 1
93.6005 45960 214.383
93.7167 48923 221.185
93.8328 51124 226.106
93.949 51739 227.462
94.0653 52694 229.552
94.1816 54692 233.863
94.2979 55365 235.298
94.4143 56213 237.093
94.5307 57346 239.47
94.6472 60072 245.096
94.7637 63687 252.363
94.8803 71317 267.052
94.9969 78437 280.066
95.1135 85692 292.732
95.2302 91211 302.012
95.3469 96095 309.992
95.4637 100378 316.825
95.5805 103439 321.619
95.6973 106758 326.738
95.8142 109056 330.236
95.9311 109120 330.333
96.048 108501 329.395
96.1649 107115 327.284
96.2819 105300 324.5
96.3989 102135 319.586
96.516 98183 313.342
96.633 93605 305.949
96.7501 88586 297.634
96.8673 89257 298.759
96.9844 93014 304.982
97.1016 100358 316.793
97.2188 109043 330.217
97.336 117607 342.939
97.4532 122356 349.794
97.5704 123419 351.31
97.6877 121921 349.172
97.805 117507 342.793
97.9223 112511 335.427
98.0396 105254 324.429
98.1569 100571 317.129
98.2743 98121 313.243
98.3916 99275 315.079
98.509 105832 325.318
98.6264 114227 337.975
98.7438 122148 349.497
98.8612 128466 358.422
98.9786 134249 366.4
99.096 135254 367.769
99.2134 137167 370.361
99.3308 137177 370.374
99.4482 137245 370.466
99.5656 135610 368.253
99.6831 132173 363.556
99.8005 127858 357.572
99.9179 123788 351.835
100.035 118368 344.047
100.153 110588 332.548
100.27 102519 320.186
100.388 98582 313.978
100.505 101282 318.248
100.622 106357 326.124
100.74 115601 340.001
100.857 121662 348.801
100.975 124750 353.2
101.092 124316 352.585
101.209 123728 351.75
101.327 120347 346.911
101.444 115255 339.492
101.561 107761 328.27
101.679 101296 318.27
101.796 96042 309.906
101.913 95124 308.422
102.03 98824 314.363
102.148 107847 328.401
102.265 122224 349.605
102.382 115886 340.42
102.499 125432 354.164
102.616 126459 355.611
102.733 126066 355.058
102.851 125408 354.13
102.968 123621 351.598
103.085 118342 344.009
103.202 113318 336.627
103.319 107274 327.527
103.436 99959 316.163
103.552 93308 305.464
103.669 85333 292.118
103.786 77181 277.815
103.903 72390 269.054
104.02 71631 267.64
104.137 73221 270.594
104.253 76684 276.919
104.37 75000 273.861
104.487 76293 276.212
104.603 73473 271.059
104.72 68638 261.989
104.836 64545 254.057
104.953 58840 242.57
105.069 53440 231.171
105.186 51315 226.528
105.302 49657 222.839
105.418 50138 223.915
105.535 53931 232.23
105.651 58034 240.902
105.767 61276 247.54
105.883 62560 250.12
105.999 62502 250.004
106.115 0 1
106.231 0 1
106.347 0 1
106.463 0 1
106.579 0 1
106.694 0 1
106.81 0 1
106.926 0 1
107.041 0 1
107.157 0 1
109.576 0 1
109.692 0 1
109.807 0 1
109.923 0 1
110.039 0 1
110.155 0 1
110.27 0 1
110.386 0 1
110.502 0 1
110.618 41444 203.578
110.735 46350 215.291
110.851 49474 222.428
110.967 51421 226.762
111.083 52518 229.168
111.199 53373 231.026
111.316 53976 232.327
111.432 53285 230.835
111.549 52008 228.053
111.665 49492 222.468
111.782 46701 216.104
111.898 43828 209.351
112.015 41856 204.587
112.132 39878 199.695
112.248 37255 193.016
112.365 36119 190.05
112.482 35581 188.629
112.599 35494 188.399
112.716 36387 190.754
112.832 37532 193.732
112.949 37617 193.951
113.066 37070 192.536
113.183 35930 189.552
113.3 34251 185.07
113.417 33151 182.074
113.534 32244 179.566
113.652 31988 178.852
113.769 32876 181.317
113.886 34273 185.13
114.003 36037 189.834
114.12 38804 196.987
114.238 41827 204.517
114.355 44393 210.696
114.472 45300 212.838
114.589 46782 216.291
114.707 47373 217.653
114.824 47485 217.911
114.942 47453 217.837
115.059 46860 216.472
115.176 44757 211.559
115.294 43151 207.728
115.411 41620 204.01
115.529 40169 200.422
115.646 38729 196.797
115.764 36481 191
115.881 35084 187.307
115.999 34419 185.524
116.116 35033 187.171
116.234 36183 190.218
116.351 36126 190.068
116.469 37295 193.119
116.586 36805 191.846
116.704 36080 189.947
116.821 35335 187.976
116.939 34683 186.234
117.056 33687 183.54
117.174 33910 184.147
117.291 34678 186.22
117.409 35361 188.045
117.526 36216 190.305
117.644 38826 197.043
117.761 41949 204.815
117.879 44199 210.236
117.996 45892 214.224
118.114 47698 218.399
118.231 49085 221.551
118.349 48906 221.147
118.466 49261 221.948
118.584 48623 220.506
118.701 47234 217.334
118.819 46083 214.67
118.936 44733 211.502
119.053 43455 208.459
119.171 42073 205.117
119.288 40237 200.592
119.405 38392 195.939
119.523 36605 191.324
119.64 37005 192.367
119.757 36768 191.75
119.875 37640 194.01
119.992 38107 195.21
120.109 37698 194.16
120.226 38265 195.614
120.343 37498 193.644
120.46 36451 190.921
120.578 35545 188.534
120.695 35615 188.719
120.812 35964 189.642
120.929 35790 189.182
121.046 35730 189.024
121.163 36689 191.544
121.279 38326 195.77
121.396 40776 201.931
121.513 43202 207.851
121.63 45589 213.516
121.747 46046 214.583
121.863 47985 219.055
121.98 48304 219.782
122.097 47500 217.945
122.213 47360 217.624
122.33 46386 215.374
122.446 45677 213.722
122.563 44421 210.763
122.679 43444 208.432
122.795 42756 206.775
122.912 41228 203.047
123.028 39442 198.6
123.144 37384 193.349
123.26 36662 191.473
123.377 0 1
123.493 0 1
123.609 0 1
123.725 0 1
123.84 0 1
123.956 0 1
124.072 0 1
124.188 0 1
124.303 0 1
124.419 0 1
126.852 0 1
126.968 0 1
127.083 0 1
127.199 0 1
127.315 0 1
127.431 0 1
127.547 0 1
127.663 0 1
127.779 0 1
127.895 0 1
128.011 0 1
128.127 0 1
128.243 0 1
128.359 43899 209.521
128.476 42510 206.18
128.592 42594 206.383
128.708 44028 209.829
128.825 45201 212.605
128.941 45621 213.591
129.058 45268 212.763
129.174 45153 212.492
129.291 45178 212.551
129.408 44534 211.031
129.524 43665 208.962
129.641 42604 206.407
129.758 42104 205.193
129.875 42223 205.482
129.992 42106 205.197
130.108 42762 206.79
130.225 44864 211.811
130.342 47130 217.094
130.459 47860 218.769
130.576 51328 226.557
130.693 50524 224.775
130.81 50236 224.134
130.928 49896 223.374
131.045 49333 222.11
131.162 49583 222.672
131.279 49998 223.602
131.396 50051 223.721
131.513 48950 221.246
131.631 47984 219.053
131.748 46382 215.365
131.865 44713 211.454
131.983 42704 206.649
132.1 43326 208.149
132.217 44642 211.287
132.335 45475 213.249
132.452 45780 213.963
132.57 46283 215.135
132.687 44299 210.473
132.804 47053 216.917
132.922 45089 212.342
133.039 43981 209.716
133.157 42750 206.761
133.274 42310 205.694
133.392 41789 204.424
133.509 41807 204.468
133.627 42601 206.4
133.744 44037 209.85
133.862 45632 213.616
133.979 47229 217.322
134.097 48059 219.224
134.214 48748 220.789
134.332 47986 219.057
134.449 48313 219.802
134.567 48176 219.49
134.684 49041 221.452
134.802 49580 222.666
134.919 49386 222.23
135.037 49320 222.081
135.154 48885 221.1
135.272 47938 218.947
135.389 46234 215.021
135.507 44972 212.066
135.624 44196 210.228
135.742 45529 213.375
135.859 46999 216.793
135.977 47556 218.073
136.094 48551 220.343
136.211 47685 218.369
136.329 48245 219.647
136.446 47319 217.529
136.564 46333 215.251
136.681 45474 213.246
136.798 43790 209.261
136.915 43636 208.892
137.033 43676 208.988
137.15 43456 208.461
137.267 43680 208.998
137.384 44761 211.568
137.502 46642 215.968
137.619 47004 216.804
137.736 48224 219.6
137.853 47198 217.251
137.97 46629 215.937
138.087 49180 221.766
138.204 48558 220.359
138.321 49138 221.671
138.438 50038 223.692
138.555 50311 224.301
138.672 50281 224.234
138.788 49866 223.307
138.905 48477 220.175
139.022 47711 218.428
139.139 46197 214.935
139.255 45995 214.464
139.372 47076 216.97
139.488 48363 219.916
139.605 49053 221.479
139.721 49504 222.495
139.838 49399 222.259
139.954 48990 221.337
140.071 47505 217.956
140.187 46581 215.826
140.303 44629 211.256
140.419 43667 208.967
140.535 42840 206.978
140.652 42019 204.985
140.768 0 1
140.884 0 1
141 0 1
141.115 0 1
141.231 0 1
141.347 0 1
141.463 0 1
141.578 0 1
141.694 0 1
144.104 0 1
144.219 0 1
144.335 0 1
144.45 0 1
144.566 0 1
144.682 0 1
144.798 0 1
144.914 0 1
145.03 0 1
145.146 42940 207.22
145.262 42534 206.238
145.378 41583 203.919
145.494 41073 202.665
145.61 40779 201.938
145.726 40819 202.037
145.842 40833 202.072
145.959 41337 203.315
146.075 42128 205.251
146.192 43092 207.586
146.308 44326 210.537
146.425 43820 209.332
146.541 44382 210.67
146.658 44674 211.362
146.774 45333 212.915
146.891 45193 212.586
147.008 46245 215.047
147.125 46774 216.273
147.241 46794 216.319
147.358 46450 215.523
147.475 45206 212.617
147.592 44826 211.722
147.709 43611 208.832
147.826 42861 207.029
147.943 43348 208.202
148.06 44444 210.817
148.177 45561 213.45
148.294 45278 212.786
148.411 44629 211.256
148.528 44437 210.801
148.645 43156 207.74
148.762 42589 206.371
148.88 41753 204.336
148.997 39712 199.279
149.114 41799 204.448
149.231 40276 200.689
149.349 39641 199.1
149.466 38945 197.345
149.583 39237 198.083
149.701 40390 200.973
149.818 41248 203.096
149.935 41333 203.305
150.053 42089 205.156
150.17 42815 206.918
150.287 43213 207.877
150.405 43871 209.454
150.522 45152 212.49
150.64 45207 212.619
150.757 45525 213.366
150.875 45599 213.539
150.992 45233 212.681
151.11 43626 208.868
151.227 42982 207.321
151.344 41680 204.157
151.462 41471 203.644
151.579 42556 206.291
151.697 43916 209.561
151.814 44167 210.159
151.932 43892 209.504
152.049 43750 209.165
152.167 43197 207.839
152.284 42415 205.949
152.402 41772 204.382
152.519 40447 201.114
152.636 40230 200.574
152.754 39515 198.784
152.871 39520 198.796
152.989 39269 198.164
153.106 39759 199.397
153.223 40605 201.507
153.341 41065 202.645
153.458 41731 204.282
153.575 43289 208.06
153.693 43906 209.538
153.81 45087 212.337
153.927 45424 213.129
154.044 46432 215.481
154.162 47140 217.117
154.279 48467 220.152
154.396 48753 220.801
154.513 48856 221.034
154.63 48972 221.296
154.747 47559 218.08
154.864 46707 216.118
154.981 45482 213.265
155.098 44751 211.544
155.215 45204 212.612
155.332 46639 215.961
155.449 46069 214.637
155.566 45488 213.279
155.683 44874 211.835
155.8 44379 210.663
155.917 43780 209.237
156.033 42513 206.187
156.15 0 1
156.267 0 1
156.383 0 1
156.5 0 1
156.617 0 1
156.733 0 1
156.85 0 1
156.966 0 1
157.082 0 1
157.199 0 1
157.315 0 1
157.431 0 1
157.547 0 1
157.664 0 1
157.78 0 1
157.896 0 1
158.012 0 1
158.128 0 1
158.244 0 1
158.359 0 1
158.475 0 1
158.591 0 1
158.706 0 1
