
6.15755 0 1
6.2731 0 1
6.3887 0 1
6.50437 0 1
6.62009 0 1
6.73587 0 1
6.8517 0 1
6.96759 0 1
7.08353 0 1
7.19952 0 1
7.31557 0 1
7.43166 0 1
7.54781 0 1
7.664 0 1
7.78024 0 1
7.89653 0 1
8.01286 0 1
8.12924 0 1
8.24567 0 1
8.36213 0 1
8.47864 0 1
8.59519 0 1
8.71178 0 1
8.82841 0 1
8.94508 0 1
9.06179 0 1
9.17853 0 1
9.29531 0 1
9.41212 0 1
9.52897 0 1
9.64584 0 1
9.76276 0 1
9.8797 0 1
9.99667 0 1
10.1137 0 1
10.2307 0 1
10.3478 0 1
10.4648 0 1
10.5819 0 1
10.6991 0 1
10.8162 0 1
10.9334 0 1
11.0506 0 1
11.1678 0 1
11.285 0 1
11.4023 0 1
11.5196 0 1
11.6369 0 1
11.7542 0 1
11.8715 0 1
11.9888 0 1
12.1062 0 1
12.2235 0 1
12.3409 0 1
12.4582 0 1
12.5756 0 1
12.693 0 1
12.8104 0 1
12.9278 0 1
13.0452 0 1
13.1626 0 1
13.28 0 1
13.3974 0 1
13.5149 0 1
13.6323 0 1
13.7497 0 1
13.8671 0 1
13.9845 0 1
14.1019 0 1
14.2193 0 1
14.3367 0 1
14.4541 0 1
14.5714 0 1
14.6888 0 1
14.8062 0 1
14.9235 0 1
15.0408 763 27.6225
15.1581 845 29.0689
15.2755 852 29.189
15.3927 888 29.7993
15.51 830 28.8097
15.6273 881 29.6816
15.7445 833 28.8617
15.8617 844 29.0517
15.9789 894 29.8998
16.0961 789 28.0891
16.2132 818 28.6007
16.3304 834 28.8791
16.4475 733 27.074
16.5646 725 26.9258
16.6816 791 28.1247
16.7986 751 27.4044
16.9156 758 27.5318
17.0326 780 27.9285
17.1496 711 26.6646
17.2665 773 27.8029
17.3833 793 28.1603
17.5002 792 28.1425
17.617 698 26.4197
17.7338 776 27.8568
17.8505 824 28.7054
17.9672 782 27.9643
18.0839 740 27.2029
18.2005 853 29.2062
18.3171 797 28.2312
18.4337 779 27.9106
18.5502 753 27.4408
18.6666 735 27.1109
18.7831 804 28.3549
18.8994 776 27.8568
19.0158 690 26.2679
19.1321 743 27.258
19.2483 683 26.1343
19.3645 707 26.5895
19.4806 688 26.2298
19.5967 684 26.1534
19.7128 546 23.3666
19.8288 532 23.0651
19.9447 502 22.4054
20.0606 0 1
20.1764 0 1
20.2922 0 1
20.4079 0 1
20.5236 0 1
20.6392 0 1
20.7548 0 1
20.8702 0 1
23.3078 0 1
23.4233 0 1
23.539 0 1
23.6547 0 1
23.7704 0 1
23.8862 0 1
24.0021 0 1
24.118 0 1
24.234 0 1
24.35 0 1
24.4661 357 18.8944
24.5822 381 19.5192
24.6984 421 20.5183
24.8146 456 21.3542
24.9309 556 23.5797
25.0472 604 24.5764
25.1636 676 26
25.28 752 27.4226
25.3965 779 27.9106
25.513 800 28.2843
25.6296 894 29.8998
25.7462 819 28.6182
25.8628 827 28.7576
25.9795 822 28.6705
26.0962 814 28.5307
26.213 830 28.8097
26.3298 815 28.5482
26.4466 729 27
26.5635 741 27.2213
26.6804 735 27.1109
26.7973 694 26.3439
26.9143 690 26.2679
27.0313 620 24.8998
27.1483 605 24.5967
27.2653 690 26.2679
27.3824 777 27.8747
27.4996 766 27.6767
27.6167 677 26.0192
27.7339 716 26.7582
27.8511 740 27.2029
27.9683 733 27.074
28.0855 711 26.6646
28.2028 736 27.1293
28.3201 738 27.1662
28.4374 731 27.037
28.5547 659 25.671
28.6721 697 26.4008
28.7894 677 26.0192
28.9068 707 26.5895
29.0242 710 26.6458
29.1416 747 27.3313
29.259 729 27
29.3764 773 27.8029
29.4939 772 27.7849
29.6113 698 26.4197
29.7288 690 26.2679
29.8463 718 26.7955
29.9638 673 25.9422
30.0812 661 25.7099
30.1987 723 26.8887
30.3162 673 25.9422
30.4337 707 26.5895
30.5512 666 25.807
30.6687 627 25.04
30.7862 753 27.4408
30.9037 726 26.9444
31.0212 739 27.1846
31.1387 739 27.1846
31.2562 742 27.2397
31.3737 740 27.2029
31.4912 780 27.9285
31.6087 715 26.7395
31.7262 772 27.7849
31.8436 700 26.4575
31.9611 634 25.1794
32.0785 636 25.219
32.1959 613 24.7588
32.3134 659 25.671
32.4308 626 25.02
32.5482 658 25.6515
32.6655 607 24.6374
32.7829 654 25.5734
32.9002 647 25.4362
33.0176 627 25.04
33.1349 641 25.318
33.2522 693 26.3249
33.3694 658 25.6515
33.4867 663 25.7488
33.6039 666 25.807
33.7211 706 26.5707
33.8383 661 25.7099
33.9554 619 24.8797
34.0725 655 25.593
34.1896 576 24
34.3067 588 24.2487
34.4237 674 25.9615
34.5407 677 26.0192
34.6577 626 25.02
34.7746 683 26.1343
34.8915 644 25.3772
35.0084 733 27.074
35.1252 689 26.2488
35.242 646 25.4165
35.3587 639 25.2784
35.4755 623 24.96
35.5921 623 24.96
35.7088 586 24.2074
35.8254 615 24.7992
35.9419 571 23.8956
36.0584 561 23.6854
36.1749 598 24.454
36.2913 594 24.3721
36.4077 563 23.7276
36.524 560 23.6643
36.6403 538 23.1948
36.7565 505 22.4722
36.8727 507 22.5167
36.9889 488 22.0907
37.1049 433 20.8087
37.221 0 1
37.3369 0 1
37.4529 0 1
37.5687 0 1
37.6845 0 1
37.8003 0 1
37.916 0 1
38.0316 0 1
38.1472 0 1
40.5851 0 1
40.7008 0 1
40.8164 0 1
40.9322 0 1
41.048 0 1
41.1639 0 1
41.2798 0 1
41.3958 0 1
41.5118 0 1
41.6279 0 1
41.744 306 17.4929
41.8602 325 18.0278
41.9765 393 19.8242
42.0928 398 19.9499
42.2091 454 21.3073
42.3255 490 22.1359
42.4419 486 22.0454
42.5584 501 22.383
42.675 469 21.6564
42.7915 542 23.2809
42.9081 418 20.445
43.0248 468 21.6333
43.1415 445 21.095
43.2582 467 21.6102
43.375 477 21.8403
43.4918 515 22.6936
43.6087 531 23.0434
43.7256 515 22.6936
43.8425 482 21.9545
43.9595 479 21.8861
44.0765 504 22.4499
44.1935 497 22.2935
44.3106 513 22.6495
44.4277 492 22.1811
44.5448 441 21
44.6619 476 21.8174
44.7791 447 21.1424
44.8963 452 21.2603
45.0136 482 21.9545
45.1308 507 22.5167
45.2481 548 23.4094
45.3654 515 22.6936
45.4827 518 22.7596
45.6001 541 23.2594
45.7174 591 24.3105
45.8348 543 23.3024
45.9522 610 24.6982
46.0697 581 24.1039
46.1871 591 24.3105
46.3046 539 23.2164
46.422 466 21.587
46.5395 484 22
46.657 437 20.9045
46.7745 463 21.5174
46.892 558 23.622
47.0096 543 23.3024
47.1271 575 23.9792
47.2446 562 23.7065
47.3622 523 22.8692
47.4797 532 23.0651
47.5973 540 23.2379
47.7149 507 22.5167
47.8324 487 22.0681
47.95 478 21.8632
48.0675 434 20.8327
48.1851 432 20.7846
48.3027 458 21.4009
48.4202 516 22.7156
48.5378 499 22.3383
48.6554 550 23.4521
48.7729 534 23.1084
48.8904 577 24.0208
49.008 537 23.1733
49.1255 543 23.3024
49.243 583 24.1454
49.3605 577 24.0208
49.478 580 24.0832
49.5955 609 24.6779
49.713 535 23.1301
49.8304 524 22.891
49.9479 518 22.7596
50.0653 447 21.1424
50.1827 492 22.1811
50.3001 510 22.5832
50.4175 510 22.5832
50.5348 563 23.7276
50.6521 625 25
50.7694 632 25.1396
50.8867 587 24.2281
51.004 556 23.5797
51.1212 646 25.4165
51.2384 594 24.3721
51.3556 646 25.4165
51.4727 601 24.5153
51.5899 607 24.6374
51.707 575 23.9792
51.824 556 23.5797
51.9411 574 23.9583
52.0581 650 25.4951
52.175 691 26.2869
52.2919 627 25.04
52.4088 647 25.4362
52.5257 636 25.219
52.6425 617 24.8395
52.7593 636 25.219
52.876 687 26.2107
52.9927 662 25.7294
53.1094 596 24.4131
53.226 765 27.6586
53.3426 1050 32.4037
53.4591 1599 39.9875
53.5756 2408 49.0714
53.692 3388 58.2065
53.8084 4217 64.9384
53.9248 4793 69.2315
54.0411 5222 72.2634
54.1573 5339 73.0685
54.2735 0 1
54.3896 0 1
54.5057 0 1
54.6217 0 1
54.7377 0 1
54.8537 0 1
54.9695 0 1
55.0853 0 1
55.2011 0 1
55.3168 0 1
55.4324 0 1
57.824 0 1
57.9396 0 1
58.0553 0 1
58.1711 0 1
58.2869 0 1
58.4028 0 1
58.5187 0 1
58.6347 0 1
58.7508 0 1
58.8669 0 1
58.983 1803 42.4617
59.0992 2297 47.927
59.2155 2370 48.6826
59.3318 2617 51.1566
59.4482 2650 51.4782
59.5646 2797 52.8867
59.681 2746 52.4023
59.7975 2708 52.0384
59.9141 2490 49.8999
60.0306 2147 46.3357
60.1473 1989 44.5982
60.2639 1926 43.8862
60.3807 1844 42.9418
60.4974 1878 43.3359
60.6142 1927 43.8976
60.731 2088 45.6946
60.8479 1908 43.6807
60.9648 1772 42.0951
61.0818 1627 40.3361
61.1987 1416 37.6298
61.3158 1337 36.565
61.4328 1230 35.0714
61.5499 1152 33.9411
61.667 1154 33.9706
61.7841 1074 32.7719
61.9013 1036 32.187
62.0185 972 31.1769
62.1357 888 29.7993
62.253 787 28.0535
62.3702 760 27.5681
62.4875 739 27.1846
62.6049 736 27.1293
62.7222 710 26.6458
62.8396 728 26.9815
62.9569 763 27.6225
63.0743 728 26.9815
63.1918 712 26.6833
63.3092 643 25.3574
63.4267 659 25.671
63.5441 638 25.2587
63.6616 639 25.2784
63.7791 574 23.9583
63.8966 567 23.8118
64.0142 600 24.4949
64.1317 575 23.9792
64.2492 636 25.219
64.3668 628 25.0599
64.4843 597 24.4336
64.6019 644 25.3772
64.7195 636 25.219
64.837 662 25.7294
64.9546 635 25.1992
65.0722 606 24.6171
65.1898 647 25.4362
65.3074 626 25.02
65.4249 582 24.1247
65.5425 611 24.7184
65.6601 557 23.6008
65.7777 497 22.2935
65.8952 493 22.2036
66.0128 526 22.9347
66.1304 528 22.9783
66.2479 531 23.0434
66.3655 538 23.1948
66.483 631 25.1197
66.6005 604 24.5764
66.718 612 24.7386
66.8355 574 23.9583
66.953 573 23.9374
67.0705 594 24.3721
67.1879 544 23.3238
67.3054 543 23.3024
67.4228 516 22.7156
67.5402 485 22.0227
67.6576 530 23.0217
67.7749 536 23.1517
67.8923 610 24.6982
68.0096 568 23.8328
68.1269 576 24
68.2442 524 22.891
68.3614 562 23.7065
68.4787 573 23.9374
68.5958 563 23.7276
68.713 541 23.2594
68.8302 542 23.2809
68.9473 517 22.7376
69.0643 505 22.4722
69.1814 550 23.4521
69.2984 502 22.4054
69.4154 501 22.383
69.5323 476 21.8174
69.6492 519 22.7816
69.7661 484 22
69.8829 511 22.6053
69.9997 543 23.3024
70.1165 561 23.6854
70.2332 562 23.7065
70.3499 503 22.4277
70.4665 471 21.7025
70.5831 489 22.1133
70.6996 431 20.7605
70.8161 437 20.9045
70.9326 360 18.9737
71.049 310 17.6068
71.1653 278 16.6733
71.2817 303 17.4069
71.3979 272 16.4924
71.5141 238 15.4272
71.6303 262 16.1864
71.7464 206 14.3527
71.8624 0 1
71.9784 0 1
72.0944 0 1
72.2102 0 1
72.3261 0 1
72.4418 0 1
72.5575 0 1
72.6732 0 1
75.1054 0 1
75.2209 0 1
75.3365 0 1
75.4521 0 1
75.5678 0 1
75.6835 0 1
75.7993 0 1
75.9151 0 1
76.031 0 1
76.147 341 18.4662
76.263 365 19.105
76.3791 349 18.6815
76.4952 382 19.5448
76.6113 439 20.9523
76.7276 399 19.975
76.8438 446 21.1187
76.9601 454 21.3073
77.0765 420 20.4939
77.1929 470 21.6795
77.3093 435 20.8567
77.4258 446 21.1187
77.5423 453 21.2838
77.6589 482 21.9545
77.7755 464 21.5407
77.8921 532 23.0651
78.0088 430 20.7364
78.1256 452 21.2603
78.2423 458 21.4009
78.3591 433 20.8087
78.4759 403 20.0749
78.5928 419 20.4695
78.7097 440 20.9762
78.8266 410 20.2485
78.9436 451 21.2368
79.0606 454 21.3073
79.1776 427 20.664
79.2946 473 21.7486
79.4117 450 21.2132
79.5288 473 21.7486
79.6459 486 22.0454
79.7631 474 21.7715
79.8802 454 21.3073
79.9974 424 20.5913
80.1147 422 20.5426
80.2319 482 21.9545
80.3491 428 20.6882
80.4664 508 22.5389
80.5837 427 20.664
80.701 463 21.5174
80.8183 478 21.8632
80.9357 426 20.6398
81.053 490 22.1359
81.1704 505 22.4722
81.2877 475 21.7945
81.4051 478 21.8632
81.5225 515 22.6936
81.6399 514 22.6716
81.7573 469 21.6564
81.8747 460 21.4476
81.9922 409 20.2237
82.1096 431 20.7605
82.227 419 20.4695
82.3444 406 20.1494
82.4619 462 21.4942
82.5793 463 21.5174
82.6967 445 21.095
82.8142 477 21.8403
82.9316 490 22.1359
83.049 466 21.587
83.1664 511 22.6053
83.2838 487 22.0681
83.4012 453 21.2838
83.5186 448 21.166
83.636 444 21.0713
83.7534 472 21.7256
83.8708 454 21.3073
83.9881 479 21.8861
84.1055 472 21.7256
84.2228 464 21.5407
84.3401 452 21.2603
84.4575 475 21.7945
84.5747 460 21.4476
84.692 450 21.2132
84.8093 465 21.5639
84.9265 488 22.0907
85.0437 498 22.3159
85.1609 502 22.4054
85.2781 475 21.7945
85.3952 478 21.8632
85.5123 449 21.1896
85.6294 428 20.6882
85.7465 410 20.2485
85.8636 397 19.9249
85.9806 447 21.1424
86.0976 408 20.199
86.2145 478 21.8632
86.3315 475 21.7945
86.4484 445 21.095
86.5652 545 23.3452
86.682 477 21.8403
86.7988 461 21.4709
86.9156 469 21.6564
87.0323 439 20.9523
87.149 476 21.8174
87.2657 447 21.1424
87.3823 455 21.3307
87.4988 434 20.8327
87.6154 432 20.7846
87.7318 409 20.2237
87.8483 414 20.347
87.9647 399 19.975
88.081 355 18.8414
88.1973 375 19.3649
88.3136 334 18.2757
88.4298 287 16.9411
88.546 287 16.9411
88.6621 252 15.8745
88.7781 252 15.8745
88.8942 0 1
89.0101 0 1
89.126 0 1
89.2419 0 1
89.3577 0 1
89.4734 0 1
89.5891 0 1
89.7047 0 1
89.8203 0 1
89.9358 0 1
92.3269 0 1
92.4424 0 1
92.558 0 1
92.6736 0 1
92.7893 0 1
92.905 0 1
93.0208 0 1
93.1366 0 1
93.2525 0 1
93.3685 0 1
93.4845 0 1
93.6005 354 18.8149
93.7167 403 20.0749
93.8328 412 20.2978
93.949 438 20.9284
94.0653 463 21.5174
94.1816 449 21.1896
94.2979 459 21.4243
94.4143 410 20.2485
94.5307 445 21.095
94.6472 464 21.5407
94.7637 453 21.2838
94.8803 484 22
94.9969 451 21.2368
95.1135 431 20.7605
95.2302 455 21.3307
95.3469 520 22.8035
95.4637 455 21.3307
95.5805 436 20.8806
95.6973 515 22.6936
95.8142 442 21.0238
95.9311 453 21.2838
96.048 445 21.095
96.1649 470 21.6795
96.2819 474 21.7715
96.3989 453 21.2838
96.516 458 21.4009
96.633 514 22.6716
96.7501 471 21.7025
96.8673 486 22.0454
96.9844 489 22.1133
97.1016 501 22.383
97.2188 470 21.6795
97.336 460 21.4476
97.4532 480 21.9089
97.5704 472 21.7256
97.6877 489 22.1133
97.805 504 22.4499
97.9223 462 21.4942
98.0396 491 22.1585
98.1569 524 22.891
98.2743 475 21.7945
98.3916 480 21.9089
98.509 481 21.9317
98.6264 457 21.3776
98.7438 517 22.7376
98.8612 516 22.7156
98.9786 527 22.9565
99.096 545 23.3452
99.2134 545 23.3452
99.3308 524 22.891
99.4482 504 22.4499
99.5656 515 22.6936
99.6831 506 22.4944
99.8005 493 22.2036
99.9179 490 22.1359
100.035 525 22.9129
100.153 504 22.4499
100.27 501 22.383
100.388 551 23.4734
100.505 523 22.8692
100.622 458 21.4009
100.74 486 22.0454
100.857 493 22.2036
100.975 473 21.7486
101.092 513 22.6495
101.209 525 22.9129
101.327 539 23.2164
101.444 498 22.3159
101.561 507 22.5167
101.679 497 22.2935
101.796 519 22.7816
101.913 521 22.8254
102.03 492 22.1811
102.148 460 21.4476
102.265 545 23.3452
102.382 540 23.2379
102.499 556 23.5797
102.616 552 23.4947
102.733 574 23.9583
102.851 565 23.7697
102.968 581 24.1039
103.085 531 23.0434
103.202 456 21.3542
103.319 530 23.0217
103.436 535 23.1301
103.552 534 23.1084
103.669 513 22.6495
103.786 541 23.2594
103.903 506 22.4944
104.02 574 23.9583
104.137 519 22.7816
104.253 508 22.5389
104.37 514 22.6716
104.487 540 23.2379
104.603 517 22.7376
104.72 500 22.3607
104.836 522 22.8473
104.953 522 22.8473
105.069 499 22.3383
105.186 455 21.3307
105.302 454 21.3073
105.418 405 20.1246
105.535 408 20.199
105.651 378 19.4422
105.767 339 18.412
105.883 299 17.2916
105.999 266 16.3095
106.115 0 1
106.231 0 1
106.347 0 1
106.463 0 1
106.579 0 1
106.694 0 1
106.81 0 1
106.926 0 1
107.041 0 1
107.157 0 1
109.576 0 1
109.692 0 1
109.807 0 1
109.923 0 1
110.039 0 1
110.155 0 1
110.27 0 1
110.386 0 1
110.502 0 1
110.618 254 15.9374
110.735 295 17.1756
110.851 339 18.412
110.967 391 19.7737
111.083 385 19.6214
111.199 424 20.5913
111.316 494 22.2261
111.432 455 21.3307
111.549 490 22.1359
111.665 507 22.5167
111.782 474 21.7715
111.898 477 21.8403
112.015 429 20.7123
112.132 465 21.5639
112.248 473 21.7486
112.365 509 22.561
112.482 494 22.2261
112.599 477 21.8403
112.716 505 22.4722
112.832 484 22
112.949 472 21.7256
113.066 529 23
113.183 517 22.7376
113.3 461 21.4709
113.417 472 21.7256
113.534 494 22.2261
113.652 442 21.0238
113.769 433 20.8087
113.886 499 22.3383
114.003 449 21.1896
114.12 417 20.4206
114.238 421 20.5183
114.355 469 21.6564
114.472 417 20.4206
114.589 448 21.166
114.707 475 21.7945
114.824 508 22.5389
114.942 458 21.4009
115.059 479 21.8861
115.176 461 21.4709
115.294 447 21.1424
115.411 443 21.0476
115.529 467 21.6102
115.646 447 21.1424
115.764 439 20.9523
115.881 457 21.3776
115.999 475 21.7945
116.116 427 20.664
116.234 449 21.1896
116.351 438 20.9284
116.469 422 20.5426
116.586 446 21.1187
116.704 462 21.4942
116.821 450 21.2132
116.939 453 21.2838
117.056 481 21.9317
117.174 434 20.8327
117.291 445 21.095
117.409 425 20.6155
117.526 397 19.9249
117.644 445 21.095
117.761 454 21.3073
117.879 431 20.7605
117.996 416 20.3961
118.114 446 21.1187
118.231 420 20.4939
118.349 424 20.5913
118.466 422 20.5426
118.584 464 21.5407
118.701 466 21.587
118.819 458 21.4009
118.936 412 20.2978
119.053 432 20.7846
119.171 374 19.3391
119.288 406 20.1494
119.405 444 21.0713
119.523 447 21.1424
119.64 442 21.0238
119.757 459 21.4243
119.875 427 20.664
119.992 464 21.5407
120.109 438 20.9284
120.226 450 21.2132
120.343 441 21
120.46 400 20
120.578 443 21.0476
120.695 440 20.9762
120.812 440 20.9762
120.929 425 20.6155
121.046 401 20.025
121.163 391 19.7737
121.279 409 20.2237
121.396 391 19.7737
121.513 411 20.2731
121.63 368 19.1833
121.747 392 19.799
121.863 373 19.3132
121.98 366 19.1311
122.097 377 19.4165
122.213 376 19.3907
122.33 381 19.5192
122.446 343 18.5203
122.563 292 17.088
122.679 291 17.0587
122.795 250 15.8114
122.912 268 16.3707
123.028 243 15.5885
123.144 254 15.9374
123.26 250 15.8114
123.377 0 1
123.493 0 1
123.609 0 1
123.725 0 1
123.84 0 1
123.956 0 1
124.072 0 1
124.188 0 1
124.303 0 1
124.419 0 1
126.852 0 1
126.968 0 1
127.083 0 1
127.199 0 1
127.315 0 1
127.431 0 1
127.547 0 1
127.663 0 1
127.779 0 1
127.895 0 1
128.011 0 1
128.127 0 1
128.243 0 1
128.359 472 21.7256
128.476 488 22.0907
128.592 487 22.0681
128.708 475 21.7945
128.825 473 21.7486
128.941 486 22.0454
129.058 553 23.516
129.174 499 22.3383
129.291 509 22.561
129.408 504 22.4499
129.524 536 23.1517
129.641 518 22.7596
129.758 493 22.2036
129.875 517 22.7376
129.992 504 22.4499
130.108 525 22.9129
130.225 532 23.0651
130.342 498 22.3159
130.459 494 22.2261
130.576 565 23.7697
130.693 508 22.5389
130.81 550 23.4521
130.928 585 24.1868
131.045 590 24.2899
131.162 651 25.5147
131.279 691 26.2869
131.396 709 26.6271
131.513 705 26.5518
131.631 698 26.4197
131.748 659 25.671
131.865 679 26.0576
131.983 747 27.3313
132.1 751 27.4044
132.217 868 29.4618
132.335 832 28.8444
132.452 934 30.5614
132.57 893 29.8831
132.687 910 30.1662
132.804 938 30.6268
132.922 1004 31.686
133.039 975 31.225
133.157 1028 32.0624
133.274 976 31.241
133.392 955 30.9031
133.509 1005 31.7017
133.627 969 31.1288
133.744 962 31.0161
133.862 882 29.6985
133.979 913 30.2159
134.097 829 28.7924
134.214 941 30.6757
134.332 892 29.8664
134.449 811 28.4781
134.567 908 30.133
134.684 894 29.8998
134.802 911 30.1828
134.919 970 31.1448
135.037 986 31.4006
135.154 925 30.4138
135.272 889 29.8161
135.389 878 29.6311
135.507 904 30.0666
135.624 844 29.0517
135.742 1026 32.0312
135.859 1033 32.1403
135.977 1031 32.1092
136.094 988 31.4325
136.211 967 31.0966
136.329 928 30.4631
136.446 917 30.282
136.564 1047 32.3574
136.681 1045 32.3265
136.798 980 31.305
136.915 1064 32.619
137.033 998 31.5911
137.15 1025 32.0156
137.267 935 30.5778
137.384 977 31.257
137.502 939 30.6431
137.619 826 28.7402
137.736 871 29.5127
137.853 855 29.2404
137.97 823 28.688
138.087 855 29.2404
138.204 877 29.6142
138.321 906 30.0998
138.438 952 30.8545
138.555 1000 31.6228
138.672 1015 31.8591
138.788 1019 31.9218
138.905 921 30.348
139.022 949 30.8058
139.139 849 29.1376
139.255 806 28.3901
139.372 789 28.0891
139.488 810 28.4605
139.605 796 28.2135
139.721 732 27.0555
139.838 723 26.8887
139.954 640 25.2982
140.071 672 25.923
140.187 601 24.5153
140.303 574 23.9583
140.419 568 23.8328
140.535 543 23.3024
140.652 475 21.7945
140.768 0 1
140.884 0 1
141 0 1
141.115 0 1
141.231 0 1
141.347 0 1
141.463 0 1
141.578 0 1
141.694 0 1
144.104 0 1
144.219 0 1
144.335 0 1
144.45 0 1
144.566 0 1
144.682 0 1
144.798 0 1
144.914 0 1
145.03 0 1
145.146 1239 35.1994
145.262 1332 36.4966
145.378 1421 37.6962
145.494 1528 39.0896
145.61 1486 38.5487
145.726 1504 38.7814
145.842 1668 40.8412
145.959 1650 40.6202
146.075 1677 40.9512
146.192 1707 41.3159
146.308 1727 41.5572
146.425 1715 41.4126
146.541 1756 41.9047
146.658 1665 40.8044
146.774 1635 40.4351
146.891 1605 40.0625
147.008 1677 40.9512
147.125 1700 41.2311
147.241 1964 44.317
147.358 2008 44.8107
147.475 2153 46.4004
147.592 2115 45.9891
147.709 2089 45.7056
147.826 2115 45.9891
147.943 2157 46.4435
148.06 2034 45.0999
148.177 2176 46.6476
148.294 2203 46.9361
148.411 2120 46.0435
148.528 2300 47.9583
148.645 2314 48.1041
148.762 2162 46.4973
148.88 2300 47.9583
148.997 2271 47.655
149.114 2295 47.9062
149.231 2250 47.4342
149.349 2410 49.0918
149.466 2357 48.5489
149.583 2332 48.2908
149.701 2372 48.7032
149.818 2377 48.7545
149.935 2387 48.8569
150.053 2270 47.6445
150.17 2370 48.6826
150.287 2304 48
150.405 2108 45.913
150.522 1931 43.9431
150.64 1831 42.7902
150.757 2062 45.4093
150.875 2331 48.2804
150.992 2493 49.93
151.11 2579 50.7839
151.227 2552 50.5173
151.344 2624 51.225
151.462 2745 52.3927
151.579 2671 51.6817
151.697 2709 52.0481
151.814 2734 52.2877
151.932 2722 52.1728
152.049 2707 52.0288
152.167 2837 53.2635
152.284 2877 53.6377
152.402 2953 54.3415
152.519 2850 53.3854
152.636 2966 54.461
152.754 3038 55.1181
152.871 2952 54.3323
152.989 2988 54.6626
153.106 2904 53.8888
153.223 2869 53.563
153.341 2909 53.9351
153.458 3018 54.9363
153.575 2802 52.9339
153.693 2790 52.8205
153.81 2792 52.8394
153.927 2620 51.1859
154.044 2480 49.7996
154.162 2176 46.6476
154.279 1966 44.3396
154.396 2185 46.744
154.513 2564 50.636
154.63 2596 50.951
154.747 2599 50.9804
154.864 2600 50.9902
154.981 2544 50.4381
155.098 2589 50.8822
155.215 2421 49.2037
155.332 2477 49.7695
155.449 2506 50.06
155.566 2597 50.9608
155.683 2686 51.8266
155.8 2856 53.4416
155.917 2750 52.4404
156.033 2868 53.5537
156.15 0 1
156.267 0 1
156.383 0 1
156.5 0 1
156.617 0 1
156.733 0 1
156.85 0 1
156.966 0 1
157.082 0 1
157.199 0 1
157.315 0 1
157.431 0 1
157.547 0 1
157.664 0 1
157.78 0 1
157.896 0 1
158.012 0 1
158.128 0 1
158.244 0 1
158.359 0 1
158.475 0 1
158.591 0 1
158.706 0 1
