
6.15755 0 1
6.2731 0 1
6.3887 0 1
6.50437 0 1
6.62009 0 1
6.73587 0 1
6.8517 0 1
6.96759 0 1
7.08353 0 1
7.19952 0 1
7.31557 0 1
7.43166 0 1
7.54781 0 1
7.664 0 1
7.78024 0 1
7.89653 0 1
8.01286 0 1
8.12924 0 1
8.24567 0 1
8.36213 0 1
8.47864 0 1
8.59519 0 1
8.71178 0 1
8.82841 0 1
8.94508 0 1
9.06179 0 1
9.17853 0 1
9.29531 0 1
9.41212 0 1
9.52897 0 1
9.64584 0 1
9.76276 0 1
9.8797 0 1
9.99667 0 1
10.1137 0 1
10.2307 0 1
10.3478 0 1
10.4648 0 1
10.5819 0 1
10.6991 0 1
10.8162 0 1
10.9334 0 1
11.0506 0 1
11.1678 0 1
11.285 0 1
11.4023 0 1
11.5196 0 1
11.6369 0 1
11.7542 0 1
11.8715 0 1
11.9888 0 1
12.1062 0 1
12.2235 0 1
12.3409 0 1
12.4582 0 1
12.5756 0 1
12.693 0 1
12.8104 0 1
12.9278 0 1
13.0452 0 1
13.1626 0 1
13.28 0 1
13.3974 0 1
13.5149 0 1
13.6323 0 1
13.7497 0 1
13.8671 0 1
13.9845 0 1
14.1019 0 1
14.2193 0 1
14.3367 0 1
14.4541 0 1
14.5714 0 1
14.6888 0 1
14.8062 0 1
14.9235 0 1
15.0408 830 28.8097
15.1581 932 30.5287
15.2755 870 29.4958
15.3927 952 30.8545
15.51 980 31.305
15.6273 894 29.8998
15.7445 970 31.1448
15.8617 893 29.8831
15.9789 915 30.249
16.0961 901 30.0167
16.2132 922 30.3645
16.3304 904 30.0666
16.4475 907 30.1164
16.5646 955 30.9031
16.6816 1021 31.9531
16.7986 1070 32.7109
16.9156 1132 33.6452
17.0326 1125 33.541
17.1496 1105 33.2415
17.2665 1074 32.7719
17.3833 1121 33.4813
17.5002 1039 32.2335
17.617 1016 31.8748
17.7338 943 30.7083
17.8505 920 30.3315
17.9672 870 29.4958
18.0839 927 30.4467
18.2005 922 30.3645
18.3171 972 31.1769
18.4337 991 31.4802
18.5502 1008 31.749
18.6666 981 31.3209
18.7831 997 31.5753
18.8994 1057 32.5115
19.0158 1000 31.6228
19.1321 1013 31.8277
19.2483 958 30.9516
19.3645 862 29.3598
19.4806 817 28.5832
19.5967 777 27.8747
19.7128 763 27.6225
19.8288 672 25.923
19.9447 637 25.2389
20.0606 0 1
20.1764 0 1
20.2922 0 1
20.4079 0 1
20.5236 0 1
20.6392 0 1
20.7548 0 1
20.8702 0 1
23.3078 0 1
23.4233 0 1
23.539 0 1
23.6547 0 1
23.7704 0 1
23.8862 0 1
24.0021 0 1
24.118 0 1
24.234 0 1
24.35 0 1
24.4661 420 20.4939
24.5822 490 22.1359
24.6984 533 23.0868
24.8146 654 25.5734
24.9309 692 26.3059
25.0472 725 26.9258
25.1636 720 26.8328
25.28 831 28.8271
25.3965 967 31.0966
25.513 972 31.1769
25.6296 1004 31.686
25.7462 1035 32.1714
25.8628 1116 33.4066
25.9795 1093 33.0606
26.0962 1069 32.6956
26.213 1064 32.619
26.3298 966 31.0805
26.4466 965 31.0644
26.5635 925 30.4138
26.6804 907 30.1164
26.7973 940 30.6594
26.9143 1006 31.7175
27.0313 950 30.8221
27.1483 989 31.4484
27.2653 1053 32.45
27.3824 1040 32.249
27.4996 1004 31.686
27.6167 992 31.496
27.7339 1078 32.8329
27.8511 1013 31.8277
27.9683 988 31.4325
28.0855 923 30.3809
28.2028 929 30.4795
28.3201 915 30.249
28.4374 864 29.3939
28.5547 865 29.4109
28.6721 907 30.1164
28.7894 898 29.9666
28.9068 978 31.273
29.0242 987 31.4166
29.1416 968 31.1127
29.259 1041 32.2645
29.3764 1061 32.573
29.4939 1053 32.45
29.6113 1036 32.187
29.7288 1021 31.9531
29.8463 954 30.8869
29.9638 933 30.545
30.0812 862 29.3598
30.1987 859 29.3087
30.3162 840 28.9828
30.4337 954 30.8869
30.5512 973 31.1929
30.6687 974 31.209
30.7862 978 31.273
30.9037 999 31.607
31.0212 975 31.225
31.1387 974 31.209
31.2562 982 31.3369
31.3737 974 31.209
31.4912 960 30.9839
31.6087 932 30.5287
31.7262 926 30.4302
31.8436 794 28.178
31.9611 824 28.7054
32.0785 815 28.5482
32.1959 874 29.5635
32.3134 889 29.8161
32.4308 979 31.289
32.5482 1007 31.7333
32.6655 961 31
32.7829 990 31.4643
32.9002 1037 32.2025
33.0176 1031 32.1092
33.1349 1009 31.7648
33.2522 1006 31.7175
33.3694 955 30.9031
33.4867 903 30.05
33.6039 826 28.7402
33.7211 757 27.5136
33.8383 818 28.6007
33.9554 793 28.1603
34.0725 905 30.0832
34.1896 882 29.6985
34.3067 961 31
34.4237 894 29.8998
34.5407 964 31.0483
34.6577 985 31.3847
34.7746 938 30.6268
34.8915 961 31
35.0084 993 31.5119
35.1252 880 29.6648
35.242 875 29.5804
35.3587 883 29.7153
35.4755 829 28.7924
35.5921 795 28.1957
35.7088 761 27.5862
35.8254 738 27.1662
35.9419 834 28.8791
36.0584 857 29.2746
36.1749 848 29.1204
36.2913 846 29.0861
36.4077 901 30.0167
36.524 886 29.7658
36.6403 857 29.2746
36.7565 800 28.2843
36.8727 728 26.9815
36.9889 739 27.1846
37.1049 632 25.1396
37.221 0 1
37.3369 0 1
37.4529 0 1
37.5687 0 1
37.6845 0 1
37.8003 0 1
37.916 0 1
38.0316 0 1
38.1472 0 1
40.5851 0 1
40.7008 0 1
40.8164 0 1
40.9322 0 1
41.048 0 1
41.1639 0 1
41.2798 0 1
41.3958 0 1
41.5118 0 1
41.6279 0 1
41.744 484 22
41.8602 511 22.6053
41.9765 553 23.516
42.0928 562 23.7065
42.2091 563 23.7276
42.3255 556 23.5797
42.4419 533 23.0868
42.5584 554 23.5372
42.675 586 24.2074
42.7915 598 24.454
42.9081 714 26.7208
43.0248 797 28.2312
43.1415 770 27.7489
43.2582 741 27.2213
43.375 761 27.5862
43.4918 815 28.5482
43.6087 853 29.2062
43.7256 779 27.9106
43.8425 764 27.6405
43.9595 774 27.8209
44.0765 758 27.5318
44.1935 696 26.3818
44.3106 710 26.6458
44.4277 665 25.7876
44.5448 639 25.2784
44.6619 598 24.454
44.7791 684 26.1534
44.8963 695 26.3629
45.0136 743 27.258
45.1308 847 29.1033
45.2481 775 27.8388
45.3654 810 28.4605
45.4827 819 28.6182
45.6001 870 29.4958
45.7174 731 27.037
45.8348 734 27.0924
45.9522 680 26.0768
46.0697 661 25.7099
46.1871 619 24.8797
46.3046 666 25.807
46.422 694 26.3439
46.5395 745 27.2947
46.657 723 26.8887
46.7745 795 28.1957
46.892 775 27.8388
47.0096 773 27.8029
47.1271 845 29.0689
47.2446 817 28.5832
47.3622 830 28.8097
47.4797 826 28.7402
47.5973 758 27.5318
47.7149 787 28.0535
47.8324 730 27.0185
47.95 709 26.6271
48.0675 671 25.9037
48.1851 619 24.8797
48.3027 660 25.6905
48.4202 668 25.8457
48.5378 688 26.2298
48.6554 780 27.9285
48.7729 804 28.3549
48.8904 840 28.9828
49.008 808 28.4253
49.1255 798 28.2489
49.243 775 27.8388
49.3605 680 26.0768
49.478 660 25.6905
49.5955 627 25.04
49.713 623 24.96
49.8304 636 25.219
49.9479 663 25.7488
50.0653 700 26.4575
50.1827 722 26.8701
50.3001 718 26.7955
50.4175 784 28
50.5348 750 27.3861
50.6521 786 28.0357
50.7694 819 28.6182
50.8867 754 27.4591
51.004 767 27.6948
51.1212 765 27.6586
51.2384 765 27.6586
51.3556 705 26.5518
51.4727 760 27.5681
51.5899 608 24.6577
51.707 625 25
51.824 675 25.9808
51.9411 723 26.8887
52.0581 717 26.7769
52.175 769 27.7308
52.2919 787 28.0535
52.4088 857 29.2746
52.5257 796 28.2135
52.6425 843 29.0345
52.7593 834 28.8791
52.876 778 27.8927
52.9927 694 26.3439
53.1094 690 26.2679
53.226 658 25.6515
53.3426 635 25.1992
53.4591 595 24.3926
53.5756 644 25.3772
53.692 651 25.5147
53.8084 626 25.02
53.9248 579 24.0624
54.0411 598 24.454
54.1573 548 23.4094
54.2735 0 1
54.3896 0 1
54.5057 0 1
54.6217 0 1
54.7377 0 1
54.8537 0 1
54.9695 0 1
55.0853 0 1
55.2011 0 1
55.3168 0 1
55.4324 0 1
57.824 0 1
57.9396 0 1
58.0553 0 1
58.1711 0 1
58.2869 0 1
58.4028 0 1
58.5187 0 1
58.6347 0 1
58.7508 0 1
58.8669 0 1
58.983 582 24.1247
59.0992 599 24.4745
59.2155 664 25.7682
59.3318 756 27.4955
59.4482 864 29.3939
59.5646 816 28.5657
59.681 886 29.7658
59.7975 895 29.9166
59.9141 861 29.3428
60.0306 890 29.8329
60.1473 902 30.0333
60.2639 879 29.6479
60.3807 829 28.7924
60.4974 809 28.4429
60.6142 841 29
60.731 895 29.9166
60.8479 941 30.6757
60.9648 1017 31.8904
61.0818 970 31.1448
61.1987 1039 32.2335
61.3158 1083 32.909
61.4328 960 30.9839
61.5499 948 30.7896
61.667 888 29.7993
61.7841 829 28.7924
61.9013 777 27.8747
62.0185 830 28.8097
62.1357 853 29.2062
62.253 848 29.1204
62.3702 934 30.5614
62.4875 976 31.241
62.6049 1002 31.6544
62.7222 986 31.4006
62.8396 1044 32.311
62.9569 1028 32.0624
63.0743 997 31.5753
63.1918 1000 31.6228
63.3092 970 31.1448
63.4267 986 31.4006
63.5441 937 30.6105
63.6616 893 29.8831
63.7791 857 29.2746
63.8966 776 27.8568
64.0142 811 28.4781
64.1317 851 29.1719
64.2492 854 29.2233
64.3668 890 29.8329
64.4843 970 31.1448
64.6019 969 31.1288
64.7195 971 31.1609
64.837 989 31.4484
64.9546 973 31.1929
65.0722 953 30.8707
65.1898 911 30.1828
65.3074 840 28.9828
65.4249 788 28.0713
65.5425 805 28.3725
65.6601 748 27.3496
65.7777 813 28.5132
65.8952 858 29.2916
66.0128 902 30.0333
66.1304 946 30.7571
66.2479 970 31.1448
66.3655 975 31.225
66.483 1057 32.5115
66.6005 1001 31.6386
66.718 1007 31.7333
66.8355 1001 31.6386
66.953 956 30.9192
67.0705 941 30.6757
67.1879 948 30.7896
67.3054 859 29.3087
67.4228 854 29.2233
67.5402 803 28.3373
67.6576 785 28.0179
67.7749 828 28.775
67.8923 914 30.2324
68.0096 986 31.4006
68.1269 1010 31.7805
68.2442 1005 31.7017
68.3614 1054 32.4654
68.4787 1111 33.3317
68.5958 1088 32.9848
68.713 1022 31.9687
68.8302 977 31.257
68.9473 877 29.6142
69.0643 837 28.931
69.1814 848 29.1204
69.2984 925 30.4138
69.4154 953 30.8707
69.5323 925 30.4138
69.6492 1009 31.7648
69.7661 1074 32.7719
69.8829 1109 33.3017
69.9997 1126 33.5559
70.1165 1106 33.2566
70.2332 1088 32.9848
70.3499 1005 31.7017
70.4665 974 31.209
70.5831 943 30.7083
70.6996 885 29.7489
70.8161 841 29
70.9326 776 27.8568
71.049 658 25.6515
71.1653 545 23.3452
71.2817 462 21.4942
71.3979 482 21.9545
71.5141 413 20.3224
71.6303 453 21.2838
71.7464 436 20.8806
71.8624 0 1
71.9784 0 1
72.0944 0 1
72.2102 0 1
72.3261 0 1
72.4418 0 1
72.5575 0 1
72.6732 0 1
75.1054 0 1
75.2209 0 1
75.3365 0 1
75.4521 0 1
75.5678 0 1
75.6835 0 1
75.7993 0 1
75.9151 0 1
76.031 0 1
76.147 724 26.9072
76.263 794 28.178
76.3791 814 28.5307
76.4952 706 26.5707
76.6113 711 26.6646
76.7276 816 28.5657
76.8438 858 29.2916
76.9601 946 30.7571
77.0765 950 30.8221
77.1929 1015 31.8591
77.3093 1008 31.749
77.4258 953 30.8707
77.5423 947 30.7734
77.6589 900 30
77.7755 932 30.5287
77.8921 780 27.9285
78.0088 746 27.313
78.1256 722 26.8701
78.2423 699 26.4386
78.3591 673 25.9422
78.4759 734 27.0924
78.5928 798 28.2489
78.7097 830 28.8097
78.8266 853 29.2062
78.9436 869 29.4788
79.0606 893 29.8831
79.1776 897 29.95
79.2946 889 29.8161
79.4117 908 30.133
79.5288 896 29.9333
79.6459 892 29.8664
79.7631 863 29.3769
79.8802 863 29.3769
79.9974 766 27.6767
80.1147 718 26.7955
80.2319 697 26.4008
80.3491 715 26.7395
80.4664 724 26.9072
80.5837 813 28.5132
80.701 835 28.8964
80.8183 949 30.8058
80.9357 881 29.6816
81.053 937 30.6105
81.1704 904 30.0666
81.2877 902 30.0333
81.4051 808 28.4253
81.5225 816 28.5657
81.6399 758 27.5318
81.7573 639 25.2784
81.8747 698 26.4197
81.9922 657 25.632
82.1096 760 27.5681
82.227 811 28.4781
82.3444 823 28.688
82.4619 867 29.4449
82.5793 952 30.8545
82.6967 882 29.6985
82.8142 887 29.7825
82.9316 915 30.249
83.049 860 29.3258
83.1664 915 30.249
83.2838 887 29.7825
83.4012 862 29.3598
83.5186 864 29.3939
83.636 777 27.8747
83.7534 754 27.4591
83.8708 659 25.671
83.9881 636 25.219
84.1055 765 27.6586
84.2228 745 27.2947
84.3401 778 27.8927
84.4575 910 30.1662
84.5747 924 30.3974
84.692 897 29.95
84.8093 905 30.0832
84.9265 926 30.4302
85.0437 878 29.6311
85.1609 751 27.4044
85.2781 776 27.8568
85.3952 653 25.5539
85.5123 683 26.1343
85.6294 671 25.9037
85.7465 815 28.5482
85.8636 836 28.9137
85.9806 857 29.2746
86.0976 862 29.3598
86.2145 897 29.95
86.3315 896 29.9333
86.4484 964 31.0483
86.5652 914 30.2324
86.682 934 30.5614
86.7988 925 30.4138
86.9156 933 30.545
87.0323 864 29.3939
87.149 910 30.1662
87.2657 801 28.3019
87.3823 718 26.7955
87.4988 640 25.2982
87.6154 642 25.3377
87.7318 633 25.1595
87.8483 715 26.7395
87.9647 718 26.7955
88.081 750 27.3861
88.1973 738 27.1662
88.3136 704 26.533
88.4298 724 26.9072
88.546 578 24.0416
88.6621 549 23.4307
88.7781 466 21.587
88.8942 0 1
89.0101 0 1
89.126 0 1
89.2419 0 1
89.3577 0 1
89.4734 0 1
89.5891 0 1
89.7047 0 1
89.8203 0 1
89.9358 0 1
92.3269 0 1
92.4424 0 1
92.558 0 1
92.6736 0 1
92.7893 0 1
92.905 0 1
93.0208 0 1
93.1366 0 1
93.2525 0 1
93.3685 0 1
93.4845 0 1
93.6005 617 24.8395
93.7167 702 26.4953
93.8328 682 26.1151
93.949 741 27.2213
94.0653 761 27.5862
94.1816 729 27
94.2979 739 27.1846
94.4143 754 27.4591
94.5307 713 26.7021
94.6472 694 26.3439
94.7637 667 25.8263
94.8803 695 26.3629
94.9969 741 27.2213
95.1135 806 28.3901
95.2302 753 27.4408
95.3469 857 29.2746
95.4637 942 30.692
95.5805 926 30.4302
95.6973 933 30.545
95.8142 953 30.8707
95.9311 974 31.209
96.048 885 29.7489
96.1649 836 28.9137
96.2819 888 29.7993
96.3989 847 29.1033
96.516 795 28.1957
96.633 749 27.3679
96.7501 721 26.8514
96.8673 701 26.4764
96.9844 707 26.5895
97.1016 762 27.6043
97.2188 835 28.8964
97.336 919 30.315
97.4532 911 30.1828
97.5704 865 29.4109
97.6877 920 30.3315
97.805 914 30.2324
97.9223 848 29.1204
98.0396 757 27.5136
98.1569 744 27.2764
98.2743 683 26.1343
98.3916 688 26.2298
98.509 682 26.1151
98.6264 749 27.3679
98.7438 842 29.0172
98.8612 872 29.5296
98.9786 935 30.5778
99.096 908 30.133
99.2134 905 30.0832
99.3308 946 30.7571
99.4482 938 30.6268
99.5656 971 31.1609
99.6831 984 31.3688
99.8005 906 30.0998
99.9179 899 29.9833
100.035 854 29.2233
100.153 833 28.8617
100.27 754 27.4591
100.388 754 27.4591
100.505 748 27.3496
100.622 850 29.1548
100.74 862 29.3598
100.857 896 29.9333
100.975 1036 32.187
101.092 935 30.5778
101.209 942 30.692
101.327 973 31.1929
101.444 954 30.8869
101.561 810 28.4605
101.679 778 27.8927
101.796 720 26.8328
101.913 636 25.219
102.03 677 26.0192
102.148 822 28.6705
102.265 815 28.5482
102.382 911 30.1828
102.499 979 31.289
102.616 979 31.289
102.733 962 31.0161
102.851 1018 31.9061
102.968 1052 32.4345
103.085 1005 31.7017
103.202 1007 31.7333
103.319 996 31.5595
103.436 980 31.305
103.552 942 30.692
103.669 890 29.8329
103.786 842 29.0172
103.903 764 27.6405
104.02 855 29.2404
104.137 903 30.05
104.253 936 30.5941
104.37 1068 32.6803
104.487 1049 32.3883
104.603 1036 32.187
104.72 1018 31.9061
104.836 966 31.0805
104.953 893 29.8831
105.069 819 28.6182
105.186 794 28.178
105.302 700 26.4575
105.418 650 25.4951
105.535 676 26
105.651 648 25.4558
105.767 676 26
105.883 632 25.1396
105.999 645 25.3969
106.115 0 1
106.231 0 1
106.347 0 1
106.463 0 1
106.579 0 1
106.694 0 1
106.81 0 1
106.926 0 1
107.041 0 1
107.157 0 1
109.576 0 1
109.692 0 1
109.807 0 1
109.923 0 1
110.039 0 1
110.155 0 1
110.27 0 1
110.386 0 1
110.502 0 1
110.618 364 19.0788
110.735 542 23.2809
110.851 634 25.1794
110.967 674 25.9615
111.083 743 27.258
111.199 799 28.2666
111.316 840 28.9828
111.432 895 29.9166
111.549 947 30.7734
111.665 963 31.0322
111.782 988 31.4325
111.898 884 29.7321
112.015 941 30.6757
112.132 861 29.3428
112.248 812 28.4956
112.365 753 27.4408
112.482 754 27.4591
112.599 788 28.0713
112.716 773 27.8029
112.832 862 29.3598
112.949 908 30.133
113.066 886 29.7658
113.183 917 30.282
113.3 930 30.4959
113.417 937 30.6105
113.534 910 30.1662
113.652 810 28.4605
113.769 745 27.2947
113.886 686 26.1916
114.003 609 24.6779
114.12 677 26.0192
114.238 835 28.8964
114.355 846 29.0861
114.472 854 29.2233
114.589 881 29.6816
114.707 894 29.8998
114.824 875 29.5804
114.942 967 31.0966
115.059 935 30.5778
115.176 966 31.0805
115.294 950 30.8221
115.411 918 30.2985
115.529 943 30.7083
115.646 931 30.5123
115.764 828 28.775
115.881 786 28.0357
115.999 681 26.096
116.116 725 26.9258
116.234 746 27.313
116.351 843 29.0345
116.469 868 29.4618
116.586 930 30.4959
116.704 900 30
116.821 916 30.2655
116.939 933 30.545
117.056 895 29.9166
117.174 819 28.6182
117.291 767 27.6948
117.409 731 27.037
117.526 684 26.1534
117.644 674 25.9615
117.761 745 27.2947
117.879 784 28
117.996 859 29.3087
118.114 861 29.3428
118.231 880 29.6648
118.349 941 30.6757
118.466 880 29.6648
118.584 967 31.0966
118.701 862 29.3598
118.819 908 30.133
118.936 878 29.6311
119.053 833 28.8617
119.171 835 28.8964
119.288 844 29.0517
119.405 796 28.2135
119.523 698 26.4197
119.64 765 27.6586
119.757 755 27.4773
119.875 777 27.8747
119.992 740 27.2029
120.109 834 28.8791
120.226 864 29.3939
120.343 868 29.4618
120.46 864 29.3939
120.578 904 30.0666
120.695 855 29.2404
120.812 842 29.0172
120.929 745 27.2947
121.046 683 26.1343
121.163 676 26
121.279 689 26.2488
121.396 649 25.4755
121.513 673 25.9422
121.63 706 26.5707
121.747 743 27.258
121.863 729 27
121.98 754 27.4591
122.097 709 26.6271
122.213 792 28.1425
122.33 739 27.1846
122.446 713 26.7021
122.563 723 26.8887
122.679 662 25.7294
122.795 604 24.5764
122.912 557 23.6008
123.028 452 21.2603
123.144 453 21.2838
123.26 370 19.2354
123.377 0 1
123.493 0 1
123.609 0 1
123.725 0 1
123.84 0 1
123.956 0 1
124.072 0 1
124.188 0 1
124.303 0 1
124.419 0 1
126.852 0 1
126.968 0 1
127.083 0 1
127.199 0 1
127.315 0 1
127.431 0 1
127.547 0 1
127.663 0 1
127.779 0 1
127.895 0 1
128.011 0 1
128.127 0 1
128.243 0 1
128.359 951 30.8383
128.476 963 31.0322
128.592 979 31.289
128.708 876 29.5973
128.825 927 30.4467
128.941 953 30.8707
129.058 1052 32.4345
129.174 1075 32.7872
129.291 1096 33.1059
129.408 1153 33.9559
129.524 1157 34.0147
129.641 1084 32.9242
129.758 1105 33.2415
129.875 1028 32.0624
129.992 949 30.8058
130.108 960 30.9839
130.225 850 29.1548
130.342 765 27.6586
130.459 896 29.9333
130.576 914 30.2324
130.693 1018 31.9061
130.81 1055 32.4808
130.928 1054 32.4654
131.045 1079 32.8481
131.162 1078 32.8329
131.279 1124 33.5261
131.396 1096 33.1059
131.513 1054 32.4654
131.631 1122 33.4963
131.748 1058 32.5269
131.865 997 31.5753
131.983 1002 31.6544
132.1 998 31.5911
132.217 948 30.7896
132.335 957 30.9354
132.452 934 30.5614
132.57 1073 32.7567
132.687 1101 33.1813
132.804 1117 33.4215
132.922 1136 33.7046
133.039 1100 33.1662
133.157 1123 33.5112
133.274 1095 33.0908
133.392 1074 32.7719
133.509 1047 32.3574
133.627 931 30.5123
133.744 929 30.4795
133.862 818 28.6007
133.979 899 29.9833
134.097 952 30.8545
134.214 989 31.4484
134.332 999 31.607
134.449 1024 32
134.567 1076 32.8024
134.684 1071 32.7261
134.802 1082 32.8938
134.919 1070 32.7109
135.037 1066 32.6497
135.154 1095 33.0908
135.272 1015 31.8591
135.389 1085 32.9393
135.507 1047 32.3574
135.624 948 30.7896
135.742 924 30.3974
135.859 896 29.9333
135.977 958 30.9516
136.094 985 31.3847
136.211 1070 32.7109
136.329 1051 32.4191
136.446 1074 32.7719
136.564 1128 33.5857
136.681 1149 33.8969
136.798 1121 33.4813
136.915 1107 33.2716
137.033 1029 32.078
137.15 985 31.3847
137.267 903 30.05
137.384 877 29.6142
137.502 795 28.1957
137.619 903 30.05
137.736 930 30.4959
137.853 978 31.273
137.97 1079 32.8481
138.087 966 31.0805
138.204 1069 32.6956
138.321 1063 32.6037
138.438 1058 32.5269
138.555 1080 32.8634
138.672 1044 32.311
138.788 1033 32.1403
138.905 934 30.5614
139.022 897 29.95
139.139 877 29.6142
139.255 810 28.4605
139.372 740 27.2029
139.488 678 26.0384
139.605 689 26.2488
139.721 685 26.1725
139.838 672 25.923
139.954 745 27.2947
140.071 758 27.5318
140.187 621 24.9199
140.303 577 24.0208
140.419 522 22.8473
140.535 503 22.4277
140.652 450 21.2132
140.768 0 1
140.884 0 1
141 0 1
141.115 0 1
141.231 0 1
141.347 0 1
141.463 0 1
141.578 0 1
141.694 0 1
144.104 0 1
144.219 0 1
144.335 0 1
144.45 0 1
144.566 0 1
144.682 0 1
144.798 0 1
144.914 0 1
145.03 0 1
145.146 692 26.3059
145.262 790 28.1069
145.378 761 27.5862
145.494 772 27.7849
145.61 753 27.4408
145.726 700 26.4575
145.842 707 26.5895
145.959 670 25.8844
146.075 653 25.5539
146.192 635 25.1992
146.308 604 24.5764
146.425 639 25.2784
146.541 662 25.7294
146.658 643 25.3574
146.774 640 25.2982
146.891 717 26.7769
147.008 752 27.4226
147.125 678 26.0384
147.241 734 27.0924
147.358 741 27.2213
147.475 759 27.55
147.592 684 26.1534
147.709 691 26.2869
147.826 711 26.6646
147.943 719 26.8142
148.06 696 26.3818
148.177 627 25.04
148.294 633 25.1595
148.411 648 25.4558
148.528 639 25.2784
148.645 672 25.923
148.762 765 27.6586
148.88 742 27.2397
148.997 723 26.8887
149.114 753 27.4408
149.231 732 27.0555
149.349 751 27.4044
149.466 703 26.5141
149.583 632 25.1396
149.701 620 24.8998
149.818 624 24.98
149.935 596 24.4131
150.053 555 23.5584
150.17 618 24.8596
150.287 637 25.2389
150.405 662 25.7294
150.522 682 26.1151
150.64 652 25.5343
150.757 649 25.4755
150.875 699 26.4386
150.992 662 25.7294
151.11 635 25.1992
151.227 689 26.2488
151.344 702 26.4953
151.462 619 24.8797
151.579 652 25.5343
151.697 629 25.0799
151.814 577 24.0208
151.932 632 25.1396
152.049 631 25.1197
152.167 666 25.807
152.284 689 26.2488
152.402 698 26.4197
152.519 690 26.2679
152.636 643 25.3574
152.754 696 26.3818
152.871 676 26
152.989 664 25.7682
153.106 652 25.5343
153.223 603 24.5561
153.341 543 23.3024
153.458 580 24.0832
153.575 503 22.4277
153.693 561 23.6854
153.81 573 23.9374
153.927 631 25.1197
154.044 635 25.1992
154.162 592 24.3311
154.279 646 25.4165
154.396 638 25.2587
154.513 691 26.2869
154.63 654 25.5734
154.747 622 24.9399
154.864 603 24.5561
154.981 606 24.6171
155.098 616 24.8193
155.215 598 24.454
155.332 563 23.7276
155.449 570 23.8747
155.566 606 24.6171
155.683 565 23.7697
155.8 567 23.8118
155.917 644 25.3772
156.033 586 24.2074
156.15 0 1
156.267 0 1
156.383 0 1
156.5 0 1
156.617 0 1
156.733 0 1
156.85 0 1
156.966 0 1
157.082 0 1
157.199 0 1
157.315 0 1
157.431 0 1
157.547 0 1
157.664 0 1
157.78 0 1
157.896 0 1
158.012 0 1
158.128 0 1
158.244 0 1
158.359 0 1
158.475 0 1
158.591 0 1
158.706 0 1
