
6.15755 0 1
6.2731 0 1
6.3887 0 1
6.50437 0 1
6.62009 0 1
6.73587 0 1
6.8517 0 1
6.96759 0 1
7.08353 0 1
7.19952 0 1
7.31557 0 1
7.43166 0 1
7.54781 0 1
7.664 0 1
7.78024 0 1
7.89653 0 1
8.01286 0 1
8.12924 0 1
8.24567 0 1
8.36213 0 1
8.47864 0 1
8.59519 0 1
8.71178 0 1
8.82841 0 1
8.94508 0 1
9.06179 0 1
9.17853 0 1
9.29531 0 1
9.41212 0 1
9.52897 0 1
9.64584 0 1
9.76276 0 1
9.8797 0 1
9.99667 0 1
10.1137 0 1
10.2307 0 1
10.3478 0 1
10.4648 0 1
10.5819 0 1
10.6991 0 1
10.8162 0 1
10.9334 0 1
11.0506 0 1
11.1678 0 1
11.285 0 1
11.4023 0 1
11.5196 0 1
11.6369 0 1
11.7542 0 1
11.8715 0 1
11.9888 0 1
12.1062 0 1
12.2235 0 1
12.3409 0 1
12.4582 0 1
12.5756 0 1
12.693 0 1
12.8104 0 1
12.9278 0 1
13.0452 0 1
13.1626 0 1
13.28 0 1
13.3974 0 1
13.5149 0 1
13.6323 0 1
13.7497 0 1
13.8671 0 1
13.9845 0 1
14.1019 0 1
14.2193 0 1
14.3367 0 1
14.4541 0 1
14.5714 0 1
14.6888 0 1
14.8062 0 1
14.9235 0 1
15.0408 9077 95.2733
15.1581 9465 97.2882
15.2755 9408 96.9948
15.3927 9405 96.9794
15.51 9391 96.9072
15.6273 8939 94.5463
15.7445 8974 94.7312
15.8617 8878 94.2231
15.9789 9120 95.4987
16.0961 9619 98.0765
16.2132 9883 99.4133
16.3304 10463 102.289
16.4475 10511 102.523
16.5646 10564 102.781
16.6816 10550 102.713
16.7986 10528 102.606
16.9156 10465 102.299
17.0326 10384 101.902
17.1496 10418 102.069
17.2665 10266 101.321
17.3833 10346 101.715
17.5002 10243 101.208
17.617 10363 101.799
17.7338 10799 103.918
17.8505 10988 104.824
17.9672 11229 105.967
18.0839 11368 106.621
18.2005 11562 107.527
18.3171 11745 108.374
18.4337 11853 108.871
18.5502 12330 111.041
18.6666 12332 111.05
18.7831 12362 111.185
18.8994 12191 110.413
19.0158 11771 108.494
19.1321 11500 107.238
19.2483 11201 105.835
19.3645 11045 105.095
19.4806 11246 106.047
19.5967 11625 107.819
19.7128 12014 109.608
19.8288 11934 109.243
19.9447 11002 104.89
20.0606 0 1
20.1764 0 1
20.2922 0 1
20.4079 0 1
20.5236 0 1
20.6392 0 1
20.7548 0 1
20.8702 0 1
23.3078 0 1
23.4233 0 1
23.539 0 1
23.6547 0 1
23.7704 0 1
23.8862 0 1
24.0021 0 1
24.118 0 1
24.234 0 1
24.35 0 1
24.4661 11445 106.981
24.5822 11584 107.629
24.6984 11797 108.614
24.8146 12053 109.786
24.9309 12555 112.049
25.0472 12975 113.908
25.1636 13138 114.621
25.28 13131 114.591
25.3965 13192 114.856
25.513 13048 114.228
25.6296 12843 113.327
25.7462 12700 112.694
25.8628 12801 113.142
25.9795 12691 112.654
26.0962 12864 113.42
26.213 12660 112.517
26.3298 13332 115.464
26.4466 13353 115.555
26.5635 13763 117.316
26.6804 13884 117.83
26.7973 14443 120.179
26.9143 14557 120.652
27.0313 14528 120.532
27.1483 14926 122.172
27.2653 15164 123.142
27.3824 15017 122.544
27.4996 14938 122.221
27.6167 14751 121.454
27.7339 14032 118.457
27.8511 13661 116.88
27.9683 13531 116.323
28.0855 12785 113.071
28.2028 12710 112.739
28.3201 12523 111.906
28.4374 13027 114.136
28.5547 13779 117.384
28.6721 13991 118.284
28.7894 14340 119.75
28.9068 13996 118.305
29.0242 13676 116.944
29.1416 13376 115.655
29.259 13000 114.018
29.3764 12854 113.375
29.4939 12497 111.79
29.6113 12588 112.196
29.7288 12576 112.143
29.8463 13035 114.171
29.9638 13302 115.334
30.0812 13849 117.682
30.1987 14023 118.419
30.3162 14411 120.046
30.4337 14922 122.156
30.5512 15042 122.646
30.6687 14982 122.401
30.7862 15594 124.876
30.9037 15355 123.915
31.0212 15539 124.656
31.1387 14955 122.291
31.2562 14581 120.752
31.3737 14409 120.037
31.4912 13847 117.673
31.6087 13556 116.43
31.7262 13244 115.083
31.8436 13254 115.126
31.9611 13777 117.375
32.0785 14082 118.668
32.1959 14563 120.677
32.3134 14926 122.172
32.4308 14784 121.589
32.5482 14810 121.696
32.6655 14442 120.175
32.7829 13717 117.12
32.9002 13444 115.948
33.0176 13432 115.897
33.1349 13205 114.913
33.2522 13067 114.311
33.3694 13177 114.791
33.4867 13581 116.538
33.6039 14069 118.613
33.7211 14285 119.52
33.8383 14968 122.344
33.9554 15376 124
34.0725 15389 124.052
34.1896 15337 123.843
34.3067 15858 125.929
34.4237 15554 124.716
34.5407 15870 125.976
34.6577 16154 127.098
34.7746 15789 125.654
34.8915 15315 123.754
35.0084 14979 122.389
35.1252 14979 122.389
35.242 14280 119.499
35.3587 13900 117.898
35.4755 13626 116.73
35.5921 13755 117.282
35.7088 14087 118.689
35.8254 14622 120.921
35.9419 14910 122.107
36.0584 15159 123.122
36.1749 15425 124.197
36.2913 15173 123.179
36.4077 14625 120.934
36.524 14163 119.008
36.6403 13685 116.983
36.7565 13592 116.585
36.8727 13215 114.957
36.9889 13254 115.126
37.1049 13392 115.724
37.221 0 1
37.3369 0 1
37.4529 0 1
37.5687 0 1
37.6845 0 1
37.8003 0 1
37.916 0 1
38.0316 0 1
38.1472 0 1
40.5851 0 1
40.7008 0 1
40.8164 0 1
40.9322 0 1
41.048 0 1
41.1639 0 1
41.2798 0 1
41.3958 0 1
41.5118 0 1
41.6279 0 1
41.744 11131 105.504
41.8602 11497 107.224
41.9765 11514 107.303
42.0928 11517 107.317
42.2091 12021 109.64
42.3255 12154 110.245
42.4419 12902 113.587
42.5584 13318 115.404
42.675 13555 116.426
42.7915 13997 118.309
42.9081 14362 119.842
43.0248 14245 119.352
43.1415 14747 121.437
43.2582 14757 121.478
43.375 14870 121.943
43.4918 14751 121.454
43.6087 14620 120.913
43.7256 14029 118.444
43.8425 13588 116.568
43.9595 13471 116.065
44.0765 12918 113.657
44.1935 12437 111.521
44.3106 12480 111.714
44.4277 12373 111.234
44.5448 12386 111.292
44.6619 12619 112.334
44.7791 12854 113.375
44.8963 12765 112.982
45.0136 12503 111.817
45.1308 11892 109.05
45.2481 11234 105.991
45.3654 10740 103.634
45.4827 10456 102.255
45.6001 10239 101.188
45.7174 10349 101.73
45.8348 10501 102.474
45.9522 10816 104
46.0697 11040 105.071
46.1871 11468 107.089
46.3046 11809 108.669
46.422 12227 110.576
46.5395 12386 111.292
46.657 12463 111.638
46.7745 12388 111.301
46.892 12546 112.009
47.0096 12688 112.641
47.1271 12269 110.766
47.2446 12279 110.811
47.3622 11791 108.586
47.4797 11464 107.07
47.5973 11133 105.513
47.7149 10860 104.211
47.8324 10356 101.764
47.95 10367 101.818
48.0675 10286 101.42
48.1851 10574 102.83
48.3027 10716 103.518
48.4202 10787 103.86
48.5378 10786 103.856
48.6554 9997 99.985
48.7729 9599 97.9745
48.8904 8981 94.7681
49.008 8657 93.043
49.1255 8485 92.1141
49.243 8638 92.9408
49.3605 8706 93.3059
49.478 9374 96.8194
49.5955 9628 98.1224
49.713 10040 100.2
49.8304 10468 102.313
49.9479 11076 105.243
50.0653 11308 106.339
50.1827 11428 106.902
50.3001 12017 109.622
50.4175 11891 109.046
50.5348 12061 109.823
50.6521 12066 109.845
50.7694 12131 110.141
50.8867 11874 108.968
51.004 11742 108.361
51.1212 11841 108.816
51.2384 11761 108.448
51.3556 11433 106.925
51.4727 11740 108.351
51.5899 12153 110.241
51.707 12654 112.49
51.824 13122 114.551
51.9411 13503 116.202
52.0581 13503 116.202
52.175 12990 113.974
52.2919 12969 113.882
52.4088 12134 110.154
52.5257 11743 108.365
52.6425 11683 108.088
52.7593 11543 107.438
52.876 11912 109.142
52.9927 12699 112.69
53.1094 13415 115.823
53.226 14332 119.716
53.3426 15394 124.073
53.4591 16039 126.645
53.5756 16889 129.958
53.692 17151 130.962
53.8084 17504 132.303
53.9248 17878 133.709
54.0411 18036 134.298
54.1573 18232 135.026
54.2735 0 1
54.3896 0 1
54.5057 0 1
54.6217 0 1
54.7377 0 1
54.8537 0 1
54.9695 0 1
55.0853 0 1
55.2011 0 1
55.3168 0 1
55.4324 0 1
57.824 0 1
57.9396 0 1
58.0553 0 1
58.1711 0 1
58.2869 0 1
58.4028 0 1
58.5187 0 1
58.6347 0 1
58.7508 0 1
58.8669 0 1
58.983 20453 143.014
59.0992 21551 146.803
59.2155 21855 147.834
59.3318 21870 147.885
59.4482 22013 148.368
59.5646 21569 146.864
59.681 21555 146.816
59.7975 20971 144.814
59.9141 20695 143.858
60.0306 20327 142.573
60.1473 20213 142.172
60.2639 20201 142.13
60.3807 20046 141.584
60.4974 20232 142.239
60.6142 20304 142.492
60.731 19659 140.211
60.8479 18551 136.202
60.9648 17667 132.917
61.0818 16893 129.973
61.1987 16170 127.161
61.3158 15781 125.622
61.4328 16052 126.696
61.5499 16713 129.279
61.667 17281 131.457
61.7841 17911 133.832
61.9013 19054 138.036
62.0185 19749 140.531
62.1357 20540 143.318
62.253 20816 144.278
62.3702 20916 144.624
62.4875 21654 147.153
62.6049 21499 146.625
62.7222 21813 147.692
62.8396 21525 146.714
62.9569 21484 146.574
63.0743 20806 144.243
63.1918 20624 143.611
63.3092 20133 141.891
63.4267 19791 140.68
63.5441 19683 140.296
63.6616 19600 140
63.7791 19402 139.291
63.8966 20047 141.587
64.0142 20019 141.489
64.1317 19529 139.746
64.2492 19181 138.495
64.3668 18142 134.692
64.4843 17295 131.51
64.6019 16090 126.846
64.7195 15331 123.818
64.837 15129 123
64.9546 14865 121.922
65.0722 15494 124.475
65.1898 16370 127.945
65.3074 17323 131.617
65.4249 17924 133.881
65.5425 18991 137.808
65.6601 19916 141.124
65.7777 20472 143.08
65.8952 21136 145.382
66.0128 21327 146.038
66.1304 21473 146.537
66.2479 21870 147.885
66.3655 21811 147.685
66.483 21689 147.272
66.6005 21647 147.129
66.718 21389 146.25
66.8355 20917 144.627
66.953 20938 144.7
67.0705 20442 142.976
67.1879 20465 143.056
67.3054 20341 142.622
67.4228 20371 142.727
67.5402 20764 144.097
67.6576 21130 145.362
67.7749 20739 144.01
67.8923 20531 143.286
68.0096 19711 140.396
68.1269 18484 135.956
68.2442 17141 130.924
68.3614 16666 129.097
68.4787 16104 126.902
68.5958 16092 126.854
68.713 16656 129.058
68.8302 17629 132.774
68.9473 19118 138.268
69.0643 20418 142.892
69.1814 22033 148.435
69.2984 22821 151.066
69.4154 24081 155.181
69.5323 24652 157.01
69.6492 25044 158.253
69.7661 25440 159.499
69.8829 26172 161.778
69.9997 26442 162.61
70.1165 25957 161.112
70.2332 26174 161.784
70.3499 26416 162.53
70.4665 25538 159.806
70.5831 25828 160.711
70.6996 24912 157.835
70.8161 25009 158.142
70.9326 24826 157.563
71.049 24542 156.659
71.1653 24953 157.965
71.2817 25367 159.27
71.3979 25055 158.288
71.5141 24232 155.666
71.6303 21927 148.078
71.7464 19176 138.477
71.8624 0 1
71.9784 0 1
72.0944 0 1
72.2102 0 1
72.3261 0 1
72.4418 0 1
72.5575 0 1
72.6732 0 1
75.1054 0 1
75.2209 0 1
75.3365 0 1
75.4521 0 1
75.5678 0 1
75.6835 0 1
75.7993 0 1
75.9151 0 1
76.031 0 1
76.147 24897 157.788
76.263 26595 163.08
76.3791 27194 164.906
76.4952 28262 168.113
76.6113 28865 169.897
76.7276 29040 170.411
76.8438 28619 169.172
76.9601 27090 164.59
77.0765 24812 157.518
77.1929 23049 151.819
77.3093 21003 144.924
77.4258 19980 141.351
77.5423 19589 139.961
77.6589 19949 141.241
77.7755 21386 146.24
77.8921 23310 152.676
78.0088 25189 158.71
78.1256 27827 166.814
78.2423 29334 171.272
78.3591 30819 175.553
78.4759 31531 177.57
78.5928 31934 178.701
78.7097 31805 178.34
78.8266 31150 176.494
78.9436 33830 183.929
79.0606 32026 178.958
79.1776 31784 178.281
79.2946 31676 177.978
79.4117 31668 177.955
79.5288 30841 175.616
79.6459 30307 174.089
79.7631 29501 171.759
79.8802 29365 171.362
79.9974 29419 171.52
80.1147 29577 171.98
80.2319 30649 175.069
80.3491 30895 175.77
80.4664 30409 174.382
80.5837 29329 171.257
80.701 26899 164.009
80.8183 24674 157.08
80.9357 22309 149.362
81.053 20634 143.645
81.1704 19804 140.727
81.2877 20045 141.58
81.4051 20841 144.364
81.5225 22260 149.198
81.6399 25027 158.199
81.7573 26948 164.158
81.8747 29036 170.4
81.9922 30235 173.882
82.1096 31523 177.547
82.227 31555 177.637
82.3444 31840 178.438
82.4619 31863 178.502
82.5793 32432 180.089
82.6967 31328 176.997
82.8142 31595 177.75
82.9316 31177 176.57
83.049 30404 174.367
83.1664 30172 173.701
83.2838 29443 171.59
83.4012 29051 170.444
83.5186 28437 168.633
83.636 28065 167.526
83.7534 28761 169.591
83.8708 29396 171.453
83.9881 29686 172.296
84.1055 29678 172.273
84.2228 28041 167.454
84.3401 26273 162.089
84.4575 24231 155.663
84.5747 21803 147.658
84.692 20621 143.6
84.8093 19380 139.212
84.9265 19946 141.23
85.0437 20782 144.16
85.1609 23172 152.224
85.2781 25872 160.848
85.3952 27959 167.209
85.5123 30469 174.554
85.6294 32480 180.222
85.7465 34080 184.608
85.8636 34848 186.676
85.9806 35812 189.241
86.0976 36086 189.963
86.2145 36505 191.063
86.3315 37813 194.456
86.4484 35823 189.27
86.5652 37045 192.471
86.682 37104 192.624
86.7988 37129 192.689
86.9156 37153 192.751
87.0323 36902 192.099
87.149 36660 191.468
87.2657 36789 191.805
87.3823 37843 194.533
87.4988 38859 197.127
87.6154 39631 199.075
87.7318 38511 196.242
87.8483 36774 191.765
87.9647 34050 184.526
88.081 31230 176.72
88.1973 28469 168.728
88.3136 26719 163.459
88.4298 26165 161.756
88.546 26728 163.487
88.6621 29345 171.304
88.7781 31894 178.589
88.8942 0 1
89.0101 0 1
89.126 0 1
89.2419 0 1
89.3577 0 1
89.4734 0 1
89.5891 0 1
89.7047 0 1
89.8203 0 1
89.9358 0 1
92.3269 0 1
92.4424 0 1
92.558 0 1
92.6736 0 1
92.7893 0 1
92.905 0 1
93.0208 0 1
93.1366 0 1
93.2525 0 1
93.3685 0 1
93.4845 0 1
93.6005 30175 173.71
93.7167 29398 171.458
93.8328 29255 171.041
93.949 30467 174.548
94.0653 32466 180.183
94.1816 35354 188.027
94.2979 39198 197.985
94.4143 41746 204.318
94.5307 44416 210.751
94.6472 46751 216.22
94.7637 47297 217.479
94.8803 48618 220.495
94.9969 49152 221.703
95.1135 48716 220.717
95.2302 49250 221.923
95.3469 49397 222.254
95.4637 49344 222.135
95.5805 48736 220.762
95.6973 49330 222.104
95.8142 49069 221.515
95.9311 48560 220.363
96.048 47857 218.762
96.1649 47235 217.336
96.2819 46522 215.69
96.3989 46838 216.421
96.516 48208 219.563
96.633 48328 219.836
96.7501 47922 218.911
96.8673 46758 216.236
96.9844 44259 210.378
97.1016 40802 201.995
97.2188 37461 193.548
97.336 34671 186.202
97.4532 31554 177.634
97.5704 30837 175.605
97.6877 31727 178.121
97.805 33076 181.868
97.9223 36554 191.191
98.0396 39717 199.291
98.1569 42884 207.085
98.2743 45565 213.46
98.3916 48534 220.304
98.509 49994 223.593
98.6264 50449 224.609
98.7438 51087 226.024
98.8612 50990 225.81
98.9786 51668 227.306
99.096 51008 225.85
99.2134 50414 224.531
99.3308 50909 225.63
99.4482 50681 225.124
99.5656 50746 225.269
99.6831 50334 224.352
99.8005 49081 221.542
99.9179 48633 220.529
100.035 48710 220.703
100.153 49935 223.461
100.27 50803 225.395
100.388 50105 223.841
100.505 48582 220.413
100.622 45177 212.549
100.74 42008 204.959
100.857 38156 195.336
100.975 34647 186.137
101.092 32848 181.24
101.209 31923 178.67
101.327 33213 182.244
101.444 36106 190.016
101.561 39740 199.349
101.679 43557 208.703
101.796 46903 216.571
101.913 50207 224.069
102.03 51743 227.471
102.148 52169 228.405
102.265 51703 227.383
102.382 54408 233.255
102.499 53845 232.045
102.616 53249 230.757
102.733 52357 228.817
102.851 52628 229.408
102.968 52926 230.057
103.085 53231 230.718
103.202 52067 228.182
103.319 51782 227.557
103.436 50973 225.772
103.552 50923 225.661
103.669 51687 227.348
103.786 52968 230.148
103.903 53625 231.571
104.02 51594 227.143
104.137 48815 220.941
104.253 45473 213.244
104.37 41752 204.333
104.487 37701 194.167
104.603 35600 188.68
104.72 34795 186.534
104.836 35666 188.854
104.953 38323 195.763
105.069 41865 204.609
105.186 46111 214.735
105.302 49790 223.137
105.418 53399 231.082
105.535 55462 235.504
105.651 56219 237.105
105.767 56522 237.744
105.883 56912 238.562
105.999 57078 238.91
106.115 0 1
106.231 0 1
106.347 0 1
106.463 0 1
106.579 0 1
106.694 0 1
106.81 0 1
106.926 0 1
107.041 0 1
107.157 0 1
109.576 0 1
109.692 0 1
109.807 0 1
109.923 0 1
110.039 0 1
110.155 0 1
110.27 0 1
110.386 0 1
110.502 0 1
110.618 50365 224.421
110.735 51352 226.61
110.851 52170 228.408
110.967 52647 229.449
111.083 52743 229.658
111.199 52128 228.316
111.316 52329 228.755
111.432 52666 229.491
111.549 52137 228.335
111.665 51609 227.176
111.782 50345 224.377
111.898 49980 223.562
112.015 49267 221.962
112.132 49984 223.571
112.248 50971 225.768
112.365 51201 226.276
112.482 47743 218.502
112.599 47648 218.284
112.716 43361 208.233
112.832 39997 199.992
112.949 36558 191.201
113.066 34016 184.434
113.183 32830 181.191
113.3 33029 181.739
113.417 34237 185.032
113.534 37061 192.512
113.652 39666 199.163
113.769 43157 207.743
113.886 45712 213.804
114.003 47075 216.968
114.12 47934 218.938
114.238 49193 221.795
114.355 48997 221.353
114.472 48691 220.66
114.589 49700 222.935
114.707 48370 219.932
114.824 48011 219.114
114.942 47987 219.059
115.059 48614 220.486
115.176 48760 220.817
115.294 48151 219.433
115.411 47152 217.145
115.529 46580 215.824
115.646 47277 217.433
115.764 47963 219.005
115.881 48368 219.927
115.999 47842 218.728
116.116 46007 214.492
116.234 43937 209.612
116.351 40494 201.231
116.469 38445 196.074
116.586 35363 188.051
116.704 33410 182.784
116.821 32151 179.307
116.939 32910 181.411
117.056 34464 185.645
117.174 36228 190.337
117.291 39081 197.689
117.409 42166 205.344
117.526 44232 210.314
117.644 45893 214.227
117.761 46913 216.594
117.879 47828 218.696
117.996 47625 218.232
118.114 48059 219.224
118.231 47124 217.081
118.349 46503 215.646
118.466 46299 215.172
118.584 47327 217.548
118.701 47064 216.942
118.819 47075 216.968
118.936 46219 214.986
119.053 45197 212.596
119.171 44489 210.924
119.288 44959 212.035
119.405 45656 213.673
119.523 46174 214.881
119.64 45831 214.082
119.757 44907 211.913
119.875 42573 206.332
119.992 40269 200.671
120.109 37943 194.79
120.226 35199 187.614
120.343 33163 182.107
120.46 32600 180.555
120.578 31642 177.882
120.695 32304 179.733
120.812 34155 184.811
120.929 36403 190.796
121.046 38618 196.515
121.163 40878 202.183
121.279 42733 206.72
121.396 44144 210.105
121.513 44823 211.714
121.63 45567 213.464
121.747 45059 212.271
121.863 45222 212.655
121.98 44838 211.75
122.097 44584 211.149
122.213 44107 210.017
122.33 44446 210.822
122.446 44122 210.052
122.563 43941 209.621
122.679 43137 207.694
122.795 42217 205.468
122.912 42017 204.98
123.028 42362 205.82
123.144 42213 205.458
123.26 42512 206.184
123.377 0 1
123.493 0 1
123.609 0 1
123.725 0 1
123.84 0 1
123.956 0 1
124.072 0 1
124.188 0 1
124.303 0 1
124.419 0 1
126.852 0 1
126.968 0 1
127.083 0 1
127.199 0 1
127.315 0 1
127.431 0 1
127.547 0 1
127.663 0 1
127.779 0 1
127.895 0 1
128.011 0 1
128.127 0 1
128.243 0 1
128.359 45515 213.342
128.476 45874 214.182
128.592 45576 213.485
128.708 43834 209.366
128.825 42308 205.689
128.941 40220 200.549
129.058 38034 195.023
129.174 36050 189.868
129.291 34823 186.609
129.408 34604 186.022
129.524 34408 185.494
129.641 35789 189.18
129.758 37145 192.73
129.875 39649 199.121
129.992 41387 203.438
130.108 42727 206.705
130.225 44216 210.276
130.342 44608 211.206
130.459 43863 209.435
130.576 45633 213.619
130.693 44484 210.912
130.81 43674 208.983
130.928 43248 207.962
131.045 43722 209.098
131.162 44720 211.471
131.279 45629 213.609
131.396 44658 211.324
131.513 44182 210.195
131.631 43973 209.697
131.748 44336 210.561
131.865 44969 212.059
131.983 44748 211.537
132.1 44541 211.047
132.217 43249 207.964
132.335 42431 205.988
132.452 40305 200.761
132.57 37973 194.867
132.687 35879 189.418
132.804 34930 186.896
132.922 34092 184.64
133.039 33665 183.48
133.157 34381 185.421
133.274 35494 188.399
133.392 37322 193.189
133.509 38913 197.264
133.627 40846 202.104
133.744 42063 205.093
133.862 42369 205.837
133.979 42738 206.732
134.097 42378 205.859
134.214 42697 206.633
134.332 42390 205.888
134.449 41444 203.578
134.567 41409 203.492
134.684 42582 206.354
134.802 42857 207.019
134.919 43228 207.913
135.037 42133 205.263
135.154 41167 202.897
135.272 41650 204.083
135.389 42258 205.568
135.507 42867 207.043
135.624 42644 206.504
135.742 42526 206.218
135.859 41043 202.591
135.977 39713 199.281
136.094 38470 196.138
136.211 36568 191.228
136.329 34912 186.848
136.446 33921 184.177
136.564 33055 181.81
136.681 32744 180.953
136.798 33819 183.899
136.915 34866 186.724
137.033 35948 189.6
137.15 37422 193.448
137.267 38614 196.504
137.384 39794 199.484
137.502 40359 200.895
137.619 40233 200.582
137.736 40971 202.413
137.853 39454 198.63
137.97 39753 199.382
138.087 38201 195.451
138.204 38691 196.7
138.321 39808 199.519
138.438 40759 201.889
138.555 41283 203.182
138.672 41008 202.504
138.788 40386 200.963
138.905 40573 201.427
139.022 41128 202.8
139.139 41628 204.029
139.255 41055 202.62
139.372 41102 202.736
139.488 40609 201.517
139.605 39231 198.068
139.721 37677 194.106
139.838 36921 192.148
139.954 35194 187.601
140.071 33488 182.997
140.187 33556 183.183
140.303 32436 180.1
140.419 32521 180.336
140.535 33141 182.047
140.652 33213 182.244
140.768 0 1
140.884 0 1
141 0 1
141.115 0 1
141.231 0 1
141.347 0 1
141.463 0 1
141.578 0 1
141.694 0 1
144.104 0 1
144.219 0 1
144.335 0 1
144.45 0 1
144.566 0 1
144.682 0 1
144.798 0 1
144.914 0 1
145.03 0 1
145.146 23043 151.799
145.262 24694 157.143
145.378 25122 158.499
145.494 25947 161.081
145.61 26442 162.61
145.726 27117 164.672
145.842 27894 167.015
145.959 28867 169.903
146.075 29310 171.202
146.192 29452 171.616
146.308 29797 172.618
146.425 30241 173.899
146.541 30010 173.234
146.658 29588 172.012
146.774 28779 169.644
146.891 28762 169.594
147.008 29194 170.863
147.125 29523 171.823
147.241 30089 173.462
147.358 30818 175.551
147.475 30887 175.747
147.592 30571 174.846
147.709 30406 174.373
147.826 31081 176.298
147.943 31100 176.352
148.06 30929 175.866
148.177 30723 175.28
148.294 30610 174.957
148.411 30134 173.591
148.528 29337 171.28
148.645 28598 169.109
148.762 27863 166.922
148.88 26744 163.536
148.997 26264 162.062
149.114 27452 165.686
149.231 26979 164.253
149.349 26826 163.786
149.466 27930 167.123
149.583 28054 167.493
149.701 28963 170.185
149.818 29380 171.406
149.935 29491 171.729
150.053 30195 173.767
150.17 30596 174.917
150.287 30124 173.563
150.405 29881 172.861
150.522 29230 170.968
150.64 29046 170.429
150.757 29225 170.953
150.875 29870 172.829
150.992 30489 174.611
151.11 31178 176.573
151.227 31182 176.584
151.344 31164 176.533
151.462 30833 175.593
151.579 31763 178.222
151.697 31345 177.045
151.814 31106 176.369
151.932 30821 175.559
152.049 30240 173.897
152.167 29987 173.168
152.284 29112 170.622
152.402 28724 169.482
152.519 27922 167.099
152.636 27662 166.319
152.754 27550 165.982
152.871 27476 165.759
152.989 27729 166.52
153.106 28092 167.607
153.223 28771 169.62
153.341 29292 171.149
153.458 29885 172.873
153.575 30134 173.591
153.693 30856 175.659
153.81 30639 175.04
153.927 30372 174.276
154.044 29854 172.783
154.162 29176 170.81
154.279 29424 171.534
154.396 29542 171.878
154.513 30988 176.034
154.63 31644 177.888
154.747 32079 179.106
154.864 32126 179.237
154.981 32607 180.574
155.098 32387 179.964
155.215 32516 180.322
155.332 32349 179.858
155.449 32042 179.003
155.566 31794 178.309
155.683 31218 176.686
155.8 30775 175.428
155.917 30022 173.269
156.033 29647 172.183
156.15 0 1
156.267 0 1
156.383 0 1
156.5 0 1
156.617 0 1
156.733 0 1
156.85 0 1
156.966 0 1
157.082 0 1
157.199 0 1
157.315 0 1
157.431 0 1
157.547 0 1
157.664 0 1
157.78 0 1
157.896 0 1
158.012 0 1
158.128 0 1
158.244 0 1
158.359 0 1
158.475 0 1
158.591 0 1
158.706 0 1
