
6.15755 0 1
6.2731 0 1
6.3887 0 1
6.50437 0 1
6.62009 0 1
6.73587 0 1
6.8517 0 1
6.96759 0 1
7.08353 0 1
7.19952 0 1
7.31557 0 1
7.43166 0 1
7.54781 0 1
7.664 0 1
7.78024 0 1
7.89653 0 1
8.01286 0 1
8.12924 0 1
8.24567 0 1
8.36213 0 1
8.47864 0 1
8.59519 0 1
8.71178 0 1
8.82841 0 1
8.94508 0 1
9.06179 0 1
9.17853 0 1
9.29531 0 1
9.41212 0 1
9.52897 0 1
9.64584 0 1
9.76276 0 1
9.8797 0 1
9.99667 0 1
10.1137 0 1
10.2307 0 1
10.3478 0 1
10.4648 0 1
10.5819 0 1
10.6991 0 1
10.8162 0 1
10.9334 0 1
11.0506 0 1
11.1678 0 1
11.285 0 1
11.4023 0 1
11.5196 0 1
11.6369 0 1
11.7542 0 1
11.8715 0 1
11.9888 0 1
12.1062 0 1
12.2235 0 1
12.3409 0 1
12.4582 0 1
12.5756 0 1
12.693 0 1
12.8104 0 1
12.9278 0 1
13.0452 0 1
13.1626 0 1
13.28 0 1
13.3974 0 1
13.5149 0 1
13.6323 0 1
13.7497 0 1
13.8671 0 1
13.9845 0 1
14.1019 0 1
14.2193 0 1
14.3367 0 1
14.4541 0 1
14.5714 0 1
14.6888 0 1
14.8062 0 1
14.9235 0 1
15.0408 1636 40.4475
15.1581 1666 40.8167
15.2755 1607 40.0874
15.3927 1711 41.3642
15.51 1644 40.5463
15.6273 1667 40.8289
15.7445 1637 40.4599
15.8617 1591 39.8873
15.9789 1621 40.2616
16.0961 1559 39.4842
16.2132 1616 40.1995
16.3304 1551 39.3827
16.4475 1537 39.2046
16.5646 1559 39.4842
16.6816 1562 39.5221
16.7986 1581 39.7618
16.9156 1632 40.398
17.0326 1648 40.5956
17.1496 1623 40.2865
17.2665 1556 39.4462
17.3833 1554 39.4208
17.5002 1516 38.9358
17.617 1482 38.4968
17.7338 1442 37.9737
17.8505 1402 37.4433
17.9672 1486 38.5487
18.0839 1635 40.4351
18.2005 1698 41.2068
18.3171 1742 41.7373
18.4337 1753 41.8688
18.5502 1803 42.4617
18.6666 1707 41.3159
18.7831 1782 42.2137
18.8994 1621 40.2616
19.0158 1722 41.497
19.1321 1650 40.6202
19.2483 1565 39.5601
19.3645 1650 40.6202
19.4806 1592 39.8999
19.5967 1606 40.0749
19.7128 1418 37.6563
19.8288 1128 33.5857
19.9447 500 22.3607
20.0606 0 1
20.1764 0 1
20.2922 0 1
20.4079 0 1
20.5236 0 1
20.6392 0 1
20.7548 0 1
20.8702 0 1
23.3078 0 1
23.4233 0 1
23.539 0 1
23.6547 0 1
23.7704 0 1
23.8862 0 1
24.0021 0 1
24.118 0 1
24.234 0 1
24.35 0 1
24.4661 1675 40.9268
24.5822 1639 40.4846
24.6984 1618 40.2244
24.8146 1577 39.7115
24.9309 1634 40.4228
25.0472 1640 40.4969
25.1636 1676 40.939
25.28 1576 39.6989
25.3965 1694 41.1582
25.513 1687 41.0731
25.6296 1670 40.8656
25.7462 1668 40.8412
25.8628 1701 41.2432
25.9795 1747 41.7971
26.0962 1763 41.9881
26.213 1760 41.9524
26.3298 1650 40.6202
26.4466 1720 41.4729
26.5635 1512 38.8844
26.6804 1341 36.6197
26.7973 1401 37.4299
26.9143 1464 38.2623
27.0313 1554 39.4208
27.1483 1611 40.1373
27.2653 1782 42.2137
27.3824 1799 42.4146
27.4996 1659 40.7308
27.6167 1691 41.1218
27.7339 1720 41.4729
27.8511 1646 40.5709
27.9683 1586 39.8246
28.0855 1608 40.0999
28.2028 1591 39.8873
28.3201 1584 39.7995
28.4374 1639 40.4846
28.5547 1551 39.3827
28.6721 1595 39.9375
28.7894 1510 38.8587
28.9068 1517 38.9487
29.0242 1614 40.1746
29.1416 1609 40.1123
29.259 1646 40.5709
29.3764 1605 40.0625
29.4939 1630 40.3733
29.6113 1705 41.2916
29.7288 1604 40.05
29.8463 1604 40.05
29.9638 1457 38.1707
30.0812 1368 36.9865
30.1987 1329 36.4555
30.3162 1297 36.0139
30.4337 1331 36.4829
30.5512 1459 38.1969
30.6687 1521 39
30.7862 1615 40.1871
30.9037 1616 40.1995
31.0212 1656 40.694
31.1387 1725 41.5331
31.2562 1628 40.3485
31.3737 1624 40.2989
31.4912 1576 39.6989
31.6087 1657 40.7063
31.7262 1516 38.9358
31.8436 1502 38.7556
31.9611 1580 39.7492
32.0785 1505 38.7943
32.1959 1553 39.4081
32.3134 1507 38.8201
32.4308 1482 38.4968
32.5482 1554 39.4208
32.6655 1476 38.4187
32.7829 1507 38.8201
32.9002 1476 38.4187
33.0176 1606 40.0749
33.1349 1574 39.6737
33.2522 1556 39.4462
33.3694 1608 40.0999
33.4867 1609 40.1123
33.6039 1485 38.5357
33.7211 1443 37.9868
33.8383 1330 36.4692
33.9554 1246 35.2987
34.0725 1273 35.6791
34.1896 1424 37.7359
34.3067 1479 38.4578
34.4237 1565 39.5601
34.5407 1538 39.2173
34.6577 1624 40.2989
34.7746 1577 39.7115
34.8915 1519 38.9744
35.0084 1510 38.8587
35.1252 1527 39.0768
35.242 1520 38.9872
35.3587 1583 39.7869
35.4755 1532 39.1408
35.5921 1482 38.4968
35.7088 1582 39.7744
35.8254 1540 39.2428
35.9419 1476 38.4187
36.0584 1462 38.2361
36.1749 1502 38.7556
36.2913 1470 38.3406
36.4077 1461 38.223
36.524 1490 38.6005
36.6403 1530 39.1152
36.7565 1566 39.5727
36.8727 1519 38.9744
36.9889 1524 39.0384
37.1049 1511 38.8716
37.221 0 1
37.3369 0 1
37.4529 0 1
37.5687 0 1
37.6845 0 1
37.8003 0 1
37.916 0 1
38.0316 0 1
38.1472 0 1
40.5851 0 1
40.7008 0 1
40.8164 0 1
40.9322 0 1
41.048 0 1
41.1639 0 1
41.2798 0 1
41.3958 0 1
41.5118 0 1
41.6279 0 1
41.744 1124 33.5261
41.8602 1187 34.4529
41.9765 1275 35.7071
42.0928 1233 35.1141
42.2091 1284 35.8329
42.3255 1271 35.6511
42.4419 1206 34.7275
42.5584 1091 33.0303
42.675 1009 31.7648
42.7915 931 30.5123
42.9081 998 31.5911
43.0248 1004 31.686
43.1415 1112 33.3467
43.2582 1158 34.0294
43.375 1212 34.8138
43.4918 1242 35.242
43.6087 1200 34.641
43.7256 1110 33.3167
43.8425 1196 34.5832
43.9595 1013 31.8277
44.0765 1045 32.3265
44.1935 1094 33.0757
44.3106 1092 33.0454
44.4277 1122 33.4963
44.5448 1033 32.1403
44.6619 1028 32.0624
44.7791 983 31.3528
44.8963 929 30.4795
45.0136 972 31.1769
45.1308 916 30.2655
45.2481 952 30.8545
45.3654 918 30.2985
45.4827 909 30.1496
45.6001 906 30.0998
45.7174 912 30.1993
45.8348 873 29.5466
45.9522 864 29.3939
46.0697 789 28.0891
46.1871 659 25.671
46.3046 662 25.7294
46.422 642 25.3377
46.5395 766 27.6767
46.657 778 27.8927
46.7745 803 28.3373
46.892 885 29.7489
47.0096 800 28.2843
47.1271 814 28.5307
47.2446 836 28.9137
47.3622 838 28.9482
47.4797 851 29.1719
47.5973 783 27.9821
47.7149 803 28.3373
47.8324 748 27.3496
47.95 733 27.074
48.0675 695 26.3629
48.1851 708 26.6083
48.3027 686 26.1916
48.4202 677 26.0192
48.5378 671 25.9037
48.6554 650 25.4951
48.7729 629 25.0799
48.8904 629 25.0799
49.008 673 25.9422
49.1255 639 25.2784
49.243 675 25.9808
49.3605 673 25.9422
49.478 645 25.3969
49.5955 523 22.8692
49.713 539 23.2164
49.8304 555 23.5584
49.9479 570 23.8747
50.0653 628 25.0599
50.1827 739 27.1846
50.3001 747 27.3313
50.4175 732 27.0555
50.5348 877 29.6142
50.6521 834 28.8791
50.7694 879 29.6479
50.8867 869 29.4788
51.004 853 29.2062
51.1212 863 29.3769
51.2384 835 28.8964
51.3556 927 30.4467
51.4727 902 30.0333
51.5899 868 29.4618
51.707 875 29.5804
51.824 956 30.9192
51.9411 996 31.5595
52.0581 959 30.9677
52.175 976 31.241
52.2919 1034 32.1559
52.4088 1004 31.686
52.5257 1066 32.6497
52.6425 1137 33.7194
52.7593 1123 33.5112
52.876 1158 34.0294
52.9927 1140 33.7639
53.1094 1012 31.8119
53.226 971 31.1609
53.3426 926 30.4302
53.4591 968 31.1127
53.5756 951 30.8383
53.692 1075 32.7872
53.8084 1206 34.7275
53.9248 1212 34.8138
54.0411 1226 35.0143
54.1573 1314 36.2491
54.2735 0 1
54.3896 0 1
54.5057 0 1
54.6217 0 1
54.7377 0 1
54.8537 0 1
54.9695 0 1
55.0853 0 1
55.2011 0 1
55.3168 0 1
55.4324 0 1
57.824 0 1
57.9396 0 1
58.0553 0 1
58.1711 0 1
58.2869 0 1
58.4028 0 1
58.5187 0 1
58.6347 0 1
58.7508 0 1
58.8669 0 1
58.983 1349 36.7287
59.0992 1429 37.8021
59.2155 1412 37.5766
59.3318 1521 39
59.4482 1534 39.1663
59.5646 1511 38.8716
59.681 1631 40.3856
59.7975 1506 38.8072
59.9141 1497 38.6911
60.0306 1419 37.6696
60.1473 1504 38.7814
60.2639 1393 37.3229
60.3807 1363 36.9188
60.4974 1313 36.2353
60.6142 1411 37.5633
60.731 1367 36.973
60.8479 1305 36.1248
60.9648 1374 37.0675
61.0818 1319 36.318
61.1987 1347 36.7015
61.3158 1327 36.428
61.4328 1383 37.1887
61.5499 1318 36.3043
61.667 1229 35.0571
61.7841 1132 33.6452
61.9013 1066 32.6497
62.0185 1078 32.8329
62.1357 1126 33.5559
62.253 1224 34.9857
62.3702 1241 35.2278
62.4875 1336 36.5513
62.6049 1466 38.2884
62.7222 1441 37.9605
62.8396 1503 38.7685
62.9569 1500 38.7298
63.0743 1545 39.3065
63.1918 1550 39.37
63.3092 1469 38.3275
63.4267 1504 38.7814
63.5441 1504 38.7814
63.6616 1415 37.6165
63.7791 1421 37.6962
63.8966 1360 36.8782
64.0142 1399 37.4032
64.1317 1416 37.6298
64.2492 1421 37.6962
64.3668 1422 37.7094
64.4843 1450 38.0789
64.6019 1393 37.3229
64.7195 1454 38.1314
64.837 1564 39.5474
64.9546 1440 37.9473
65.0722 1436 37.8946
65.1898 1345 36.6742
65.3074 1253 35.3977
65.4249 1121 33.4813
65.5425 1065 32.6343
65.6601 1068 32.6803
65.7777 1075 32.7872
65.8952 1256 35.4401
66.0128 1410 37.55
66.1304 1495 38.6652
66.2479 1495 38.6652
66.3655 1479 38.4578
66.483 1599 39.9875
66.6005 1501 38.7427
66.718 1522 39.0128
66.8355 1578 39.724
66.953 1521 39
67.0705 1498 38.704
67.1879 1397 37.3765
67.3054 1306 36.1386
67.4228 1332 36.4966
67.5402 1256 35.4401
67.6576 1275 35.7071
67.7749 1265 35.5668
67.8923 1320 36.3318
68.0096 1290 35.9166
68.1269 1276 35.7211
68.2442 1305 36.1248
68.3614 1321 36.3456
68.4787 1300 36.0555
68.5958 1292 35.9444
68.713 1365 36.9459
68.8302 1260 35.4965
68.9473 1178 34.322
69.0643 1035 32.1714
69.1814 924 30.3974
69.2984 944 30.7246
69.4154 1043 32.2955
69.5323 1249 35.3412
69.6492 1321 36.3456
69.7661 1329 36.4555
69.8829 1393 37.3229
69.9997 1464 38.2623
70.1165 1531 39.128
70.2332 1468 38.3145
70.3499 1524 39.0384
70.4665 1515 38.923
70.5831 1484 38.5227
70.6996 1373 37.054
70.8161 1376 37.0945
70.9326 1383 37.1887
71.049 1347 36.7015
71.1653 1292 35.9444
71.2817 1212 34.8138
71.3979 1185 34.4238
71.5141 1167 34.1614
71.6303 1161 34.0735
71.7464 1111 33.3317
71.8624 0 1
71.9784 0 1
72.0944 0 1
72.2102 0 1
72.3261 0 1
72.4418 0 1
72.5575 0 1
72.6732 0 1
75.1054 0 1
75.2209 0 1
75.3365 0 1
75.4521 0 1
75.5678 0 1
75.6835 0 1
75.7993 0 1
75.9151 0 1
76.031 0 1
76.147 1349 36.7287
76.263 1303 36.0971
76.3791 1336 36.5513
76.4952 1196 34.5832
76.6113 1287 35.8748
76.7276 1294 35.9722
76.8438 1333 36.5103
76.9601 1302 36.0832
77.0765 1272 35.6651
77.1929 1352 36.7696
77.3093 1375 37.081
77.4258 1396 37.3631
77.5423 1385 37.2156
77.6589 1370 37.0135
77.7755 1357 36.8375
77.8921 1185 34.4238
78.0088 1044 32.311
78.1256 918 30.2985
78.2423 948 30.7896
78.3591 937 30.6105
78.4759 1000 31.6228
78.5928 1167 34.1614
78.7097 1233 35.1141
78.8266 1378 37.1214
78.9436 1376 37.0945
79.0606 1388 37.2559
79.1776 1437 37.9078
79.2946 1425 37.7492
79.4117 1404 37.47
79.5288 1410 37.55
79.6459 1416 37.6298
79.7631 1352 36.7696
79.8802 1248 35.327
79.9974 1192 34.5254
80.1147 1173 34.2491
80.2319 1149 33.8969
80.3491 1066 32.6497
80.4664 1133 33.6601
80.5837 1168 34.176
80.701 1111 33.3317
80.8183 1204 34.6987
80.9357 1187 34.4529
81.053 1256 35.4401
81.1704 1319 36.318
81.2877 1263 35.5387
81.4051 1136 33.7046
81.5225 1038 32.218
81.6399 947 30.7734
81.7573 867 29.4449
81.8747 766 27.6767
81.9922 815 28.5482
82.1096 891 29.8496
82.227 1006 31.7175
82.3444 1148 33.8821
82.4619 1183 34.3948
82.5793 1200 34.641
82.6967 1227 35.0286
82.8142 1287 35.8748
82.9316 1232 35.0999
83.049 1257 35.4542
83.1664 1190 34.4964
83.2838 1159 34.0441
83.4012 1112 33.3467
83.5186 1046 32.3419
83.636 1025 32.0156
83.7534 953 30.8707
83.8708 1014 31.8434
83.9881 1044 32.311
84.1055 1030 32.0936
84.2228 976 31.241
84.3401 1072 32.7414
84.4575 1089 33
84.5747 1086 32.9545
84.692 1145 33.8378
84.8093 1118 33.4365
84.9265 1076 32.8024
85.0437 1013 31.8277
85.1609 890 29.8329
85.2781 776 27.8568
85.3952 741 27.2213
85.5123 738 27.1662
85.6294 849 29.1376
85.7465 960 30.9839
85.8636 1044 32.311
85.9806 1109 33.3017
86.0976 1257 35.4542
86.2145 1280 35.7771
86.3315 1394 37.3363
86.4484 1336 36.5513
86.5652 1348 36.7151
86.682 1427 37.7757
86.7988 1329 36.4555
86.9156 1241 35.2278
87.0323 1259 35.4824
87.149 1245 35.2846
87.2657 1216 34.8712
87.3823 1272 35.6651
87.4988 1153 33.9559
87.6154 1135 33.6898
87.7318 1274 35.6931
87.8483 1304 36.1109
87.9647 1295 35.9861
88.081 1361 36.8917
88.1973 1376 37.0945
88.3136 1403 37.4566
88.4298 1413 37.5899
88.546 1325 36.4005
88.6621 1182 34.3802
88.7781 1053 32.45
88.8942 0 1
89.0101 0 1
89.126 0 1
89.2419 0 1
89.3577 0 1
89.4734 0 1
89.5891 0 1
89.7047 0 1
89.8203 0 1
89.9358 0 1
92.3269 0 1
92.4424 0 1
92.558 0 1
92.6736 0 1
92.7893 0 1
92.905 0 1
93.0208 0 1
93.1366 0 1
93.2525 0 1
93.3685 0 1
93.4845 0 1
93.6005 1358 36.8511
93.7167 1296 36
93.8328 1411 37.5633
93.949 1289 35.9026
94.0653 1227 35.0286
94.1816 1176 34.2929
94.2979 1053 32.45
94.4143 987 31.4166
94.5307 987 31.4166
94.6472 978 31.273
94.7637 1006 31.7175
94.8803 1155 33.9853
94.9969 1288 35.8887
95.1135 1362 36.9053
95.2302 1393 37.3229
95.3469 1441 37.9605
95.4637 1554 39.4208
95.5805 1597 39.9625
95.6973 1540 39.2428
95.8142 1589 39.8623
95.9311 1529 39.1024
96.048 1436 37.8946
96.1649 1393 37.3229
96.2819 1391 37.2961
96.3989 1332 36.4966
96.516 1294 35.9722
96.633 1239 35.1994
96.7501 1203 34.6843
96.8673 1281 35.7911
96.9844 1358 36.8511
97.1016 1297 36.0139
97.2188 1380 37.1484
97.336 1483 38.5097
97.4532 1435 37.8814
97.5704 1421 37.6962
97.6877 1336 36.5513
97.805 1215 34.8569
97.9223 1099 33.1512
98.0396 1010 31.7805
98.1569 975 31.225
98.2743 991 31.4802
98.3916 1062 32.5883
98.509 1121 33.4813
98.6264 1243 35.2562
98.7438 1322 36.3593
98.8612 1419 37.6696
98.9786 1477 38.4318
99.096 1488 38.5746
99.2134 1569 39.6106
99.3308 1603 40.0375
99.4482 1592 39.8999
99.5656 1496 38.6782
99.6831 1433 37.855
99.8005 1412 37.5766
99.9179 1350 36.7423
100.035 1386 37.229
100.153 1320 36.3318
100.27 1308 36.1663
100.388 1319 36.318
100.505 1322 36.3593
100.622 1398 37.3898
100.74 1391 37.2961
100.857 1415 37.6165
100.975 1529 39.1024
101.092 1428 37.7889
101.209 1352 36.7696
101.327 1306 36.1386
101.444 1321 36.3456
101.561 1106 33.2566
101.679 1046 32.3419
101.796 999 31.607
101.913 1039 32.2335
102.03 1173 34.2491
102.148 1302 36.0832
102.265 1370 37.0135
102.382 1504 38.7814
102.499 1485 38.5357
102.616 1591 39.8873
102.733 1694 41.1582
102.851 1670 40.8656
102.968 1684 41.0366
103.085 1636 40.4475
103.202 1515 38.923
103.319 1482 38.4968
103.436 1439 37.9342
103.552 1473 38.3797
103.669 1373 37.054
103.786 1330 36.4692
103.903 1445 38.0132
104.02 1375 37.081
104.137 1443 37.9868
104.253 1521 39
104.37 1608 40.0999
104.487 1588 39.8497
104.603 1548 39.3446
104.72 1555 39.4335
104.836 1345 36.6742
104.953 1272 35.6651
105.069 1198 34.6121
105.186 1168 34.176
105.302 1061 32.573
105.418 1149 33.8969
105.535 1342 36.6333
105.651 1469 38.3275
105.767 1585 39.8121
105.883 1724 41.5211
105.999 1779 42.1782
106.115 0 1
106.231 0 1
106.347 0 1
106.463 0 1
106.579 0 1
106.694 0 1
106.81 0 1
106.926 0 1
107.041 0 1
107.157 0 1
109.576 0 1
109.692 0 1
109.807 0 1
109.923 0 1
110.039 0 1
110.155 0 1
110.27 0 1
110.386 0 1
110.502 0 1
110.618 1346 36.6879
110.735 1419 37.6696
110.851 1575 39.6863
110.967 1653 40.6571
111.083 1643 40.5339
111.199 1670 40.8656
111.316 1746 41.7852
111.432 1692 41.1339
111.549 1656 40.694
111.665 1635 40.4351
111.782 1621 40.2616
111.898 1578 39.724
112.015 1473 38.3797
112.132 1426 37.7624
112.248 1370 37.0135
112.365 1354 36.7967
112.482 1254 35.4119
112.599 1358 36.8511
112.716 1322 36.3593
112.832 1420 37.6829
112.949 1426 37.7624
113.066 1512 38.8844
113.183 1435 37.8814
113.3 1351 36.756
113.417 1267 35.5949
113.534 1197 34.5977
113.652 1063 32.6037
113.769 1059 32.5423
113.886 1092 33.0454
114.003 1092 33.0454
114.12 1267 35.5949
114.238 1392 37.3095
114.355 1508 38.833
114.472 1561 39.5095
114.589 1584 39.7995
114.707 1576 39.6989
114.824 1558 39.4715
114.942 1627 40.3361
115.059 1648 40.5956
115.176 1626 40.3237
115.294 1534 39.1663
115.411 1554 39.4208
115.529 1448 38.0526
115.646 1465 38.2753
115.764 1381 37.1618
115.881 1416 37.6298
115.999 1395 37.3497
116.116 1411 37.5633
116.234 1413 37.5899
116.351 1464 38.2623
116.469 1492 38.6264
116.586 1472 38.3667
116.704 1500 38.7298
116.821 1372 37.0405
116.939 1417 37.6431
117.056 1300 36.0555
117.174 1224 34.9857
117.291 1186 34.4384
117.409 1131 33.6303
117.526 1189 34.4819
117.644 1252 35.3836
117.761 1383 37.1887
117.879 1525 39.0512
117.996 1555 39.4335
118.114 1679 40.9756
118.231 1655 40.6817
118.349 1653 40.6571
118.466 1741 41.7253
118.584 1712 41.3763
118.701 1648 40.5956
118.819 1685 41.0488
118.936 1620 40.2492
119.053 1505 38.7943
119.171 1569 39.6106
119.288 1558 39.4715
119.405 1386 37.229
119.523 1432 37.8418
119.64 1324 36.3868
119.757 1442 37.9737
119.875 1454 38.1314
119.992 1477 38.4318
120.109 1524 39.0384
120.226 1464 38.2623
120.343 1566 39.5727
120.46 1421 37.6962
120.578 1411 37.5633
120.695 1353 36.7831
120.812 1228 35.0428
120.929 1136 33.7046
121.046 1162 34.0881
121.163 1198 34.6121
121.279 1243 35.2562
121.396 1343 36.647
121.513 1453 38.1182
121.63 1570 39.6232
121.747 1544 39.2938
121.863 1617 40.2119
121.98 1621 40.2616
122.097 1689 41.0974
122.213 1649 40.6079
122.33 1646 40.5709
122.446 1681 41
122.563 1588 39.8497
122.679 1577 39.7115
122.795 1504 38.7814
122.912 1523 39.0256
123.028 1436 37.8946
123.144 1362 36.9053
123.26 1282 35.805
123.377 0 1
123.493 0 1
123.609 0 1
123.725 0 1
123.84 0 1
123.956 0 1
124.072 0 1
124.188 0 1
124.303 0 1
124.419 0 1
126.852 0 1
126.968 0 1
127.083 0 1
127.199 0 1
127.315 0 1
127.431 0 1
127.547 0 1
127.663 0 1
127.779 0 1
127.895 0 1
128.011 0 1
128.127 0 1
128.243 0 1
128.359 1531 39.128
128.476 1544 39.2938
128.592 1454 38.1314
128.708 1518 38.9615
128.825 1581 39.7618
128.941 1596 39.95
129.058 1575 39.6863
129.174 1700 41.2311
129.291 1625 40.3113
129.408 1528 39.0896
129.524 1562 39.5221
129.641 1435 37.8814
129.758 1316 36.2767
129.875 1328 36.4417
129.992 1230 35.0714
130.108 1299 36.0416
130.225 1345 36.6742
130.342 1585 39.8121
130.459 1598 39.975
130.576 1680 40.9878
130.693 1672 40.8901
130.81 1772 42.0951
130.928 1710 41.3521
131.045 1752 41.8569
131.162 1824 42.7083
131.279 1867 43.2088
131.396 1796 42.3792
131.513 1788 42.2847
131.631 1735 41.6533
131.748 1711 41.3642
131.865 1664 40.7922
131.983 1505 38.7943
132.1 1602 40.025
132.217 1627 40.3361
132.335 1667 40.8289
132.452 1768 42.0476
132.57 1619 40.2368
132.687 1685 41.0488
132.804 1708 41.328
132.922 1670 40.8656
133.039 1596 39.95
133.157 1482 38.4968
133.274 1396 37.3631
133.392 1387 37.2424
133.509 1294 35.9722
133.627 1284 35.8329
133.744 1332 36.4966
133.862 1437 37.9078
133.979 1577 39.7115
134.097 1588 39.8497
134.214 1622 40.2741
134.332 1751 41.845
134.449 1648 40.5956
134.567 1730 41.5933
134.684 1779 42.1782
134.802 1872 43.2666
134.919 1736 41.6653
135.037 1778 42.1663
135.154 1767 42.0357
135.272 1790 42.3084
135.389 1673 40.9023
135.507 1583 39.7869
135.624 1455 38.1445
135.742 1460 38.2099
135.859 1544 39.2938
135.977 1663 40.7799
136.094 1657 40.7063
136.211 1680 40.9878
136.329 1644 40.5463
136.446 1660 40.7431
136.564 1604 40.05
136.681 1471 38.3536
136.798 1557 39.4588
136.915 1510 38.8587
137.033 1347 36.7015
137.15 1380 37.1484
137.267 1353 36.7831
137.384 1400 37.4166
137.502 1490 38.6005
137.619 1566 39.5727
137.736 1586 39.8246
137.853 1645 40.5586
137.97 1703 41.2674
138.087 1617 40.2119
138.204 1778 42.1663
138.321 1773 42.107
138.438 1783 42.2256
138.555 1835 42.8369
138.672 1794 42.3556
138.788 1723 41.509
138.905 1676 40.939
139.022 1647 40.5832
139.139 1610 40.1248
139.255 1603 40.0375
139.372 1626 40.3237
139.488 1578 39.724
139.605 1604 40.05
139.721 1656 40.694
139.838 1659 40.7308
139.954 1688 41.0853
140.071 1652 40.6448
140.187 1593 39.9124
140.303 1523 39.0256
140.419 1494 38.6523
140.535 1431 37.8286
140.652 1318 36.3043
140.768 0 1
140.884 0 1
141 0 1
141.115 0 1
141.231 0 1
141.347 0 1
141.463 0 1
141.578 0 1
141.694 0 1
144.104 0 1
144.219 0 1
144.335 0 1
144.45 0 1
144.566 0 1
144.682 0 1
144.798 0 1
144.914 0 1
145.03 0 1
145.146 1210 34.7851
145.262 1222 34.9571
145.378 1193 34.5398
145.494 1215 34.8569
145.61 1189 34.4819
145.726 1175 34.2783
145.842 1120 33.4664
145.959 1095 33.0908
146.075 1072 32.7414
146.192 1109 33.3017
146.308 1155 33.9853
146.425 1235 35.1426
146.541 1285 35.8469
146.658 1347 36.7015
146.774 1274 35.6931
146.891 1298 36.0278
147.008 1344 36.6606
147.125 1375 37.081
147.241 1359 36.8646
147.358 1403 37.4566
147.475 1389 37.2693
147.592 1317 36.2905
147.709 1374 37.0675
147.826 1343 36.647
147.943 1235 35.1426
148.06 1246 35.2987
148.177 1246 35.2987
148.294 1199 34.6266
148.411 1262 35.5246
148.528 1368 36.9865
148.645 1365 36.9459
148.762 1334 36.524
148.88 1346 36.6879
148.997 1238 35.1852
149.114 1292 35.9444
149.231 1337 36.565
149.349 1233 35.1141
149.466 1199 34.6266
149.583 1186 34.4384
149.701 1168 34.176
149.818 1114 33.3766
149.935 1073 32.7567
150.053 1187 34.4529
150.17 1223 34.9714
150.287 1225 35
150.405 1276 35.7211
150.522 1303 36.0971
150.64 1329 36.4555
150.757 1343 36.647
150.875 1408 37.5233
150.992 1365 36.9459
151.11 1458 38.1838
151.227 1401 37.4299
151.344 1417 37.6431
151.462 1382 37.1753
151.579 1373 37.054
151.697 1289 35.9026
151.814 1237 35.171
151.932 1179 34.3366
152.049 1257 35.4542
152.167 1267 35.5949
152.284 1403 37.4566
152.402 1425 37.7492
152.519 1372 37.0405
152.636 1446 38.0263
152.754 1310 36.1939
152.871 1340 36.606
152.989 1361 36.8917
153.106 1234 35.1283
153.223 1262 35.5246
153.341 1214 34.8425
153.458 1214 34.8425
153.575 1237 35.171
153.693 1149 33.8969
153.81 1264 35.5528
153.927 1355 36.8103
154.044 1371 37.027
154.162 1412 37.5766
154.279 1396 37.3631
154.396 1432 37.8418
154.513 1510 38.8587
154.63 1568 39.598
154.747 1568 39.598
154.864 1587 39.8372
154.981 1557 39.4588
155.098 1501 38.7427
155.215 1445 38.0132
155.332 1365 36.9459
155.449 1356 36.8239
155.566 1307 36.1525
155.683 1474 38.3927
155.8 1487 38.5616
155.917 1491 38.6135
156.033 1447 38.0395
156.15 0 1
156.267 0 1
156.383 0 1
156.5 0 1
156.617 0 1
156.733 0 1
156.85 0 1
156.966 0 1
157.082 0 1
157.199 0 1
157.315 0 1
157.431 0 1
157.547 0 1
157.664 0 1
157.78 0 1
157.896 0 1
158.012 0 1
158.128 0 1
158.244 0 1
158.359 0 1
158.475 0 1
158.591 0 1
158.706 0 1
