
6.15755 0 1
6.2731 0 1
6.3887 0 1
6.50437 0 1
6.62009 0 1
6.73587 0 1
6.8517 0 1
6.96759 0 1
7.08353 0 1
7.19952 0 1
7.31557 0 1
7.43166 0 1
7.54781 0 1
7.664 0 1
7.78024 0 1
7.89653 0 1
8.01286 0 1
8.12924 0 1
8.24567 0 1
8.36213 0 1
8.47864 0 1
8.59519 0 1
8.71178 0 1
8.82841 0 1
8.94508 0 1
9.06179 0 1
9.17853 0 1
9.29531 0 1
9.41212 0 1
9.52897 0 1
9.64584 0 1
9.76276 0 1
9.8797 0 1
9.99667 0 1
10.1137 0 1
10.2307 0 1
10.3478 0 1
10.4648 0 1
10.5819 0 1
10.6991 0 1
10.8162 0 1
10.9334 0 1
11.0506 0 1
11.1678 0 1
11.285 0 1
11.4023 0 1
11.5196 0 1
11.6369 0 1
11.7542 0 1
11.8715 0 1
11.9888 0 1
12.1062 0 1
12.2235 0 1
12.3409 0 1
12.4582 0 1
12.5756 0 1
12.693 0 1
12.8104 0 1
12.9278 0 1
13.0452 0 1
13.1626 0 1
13.28 0 1
13.3974 0 1
13.5149 0 1
13.6323 0 1
13.7497 0 1
13.8671 0 1
13.9845 0 1
14.1019 0 1
14.2193 0 1
14.3367 0 1
14.4541 0 1
14.5714 0 1
14.6888 0 1
14.8062 0 1
14.9235 0 1
15.0408 1158 34.0294
15.1581 1342 36.6333
15.2755 1273 35.6791
15.3927 1361 36.8917
15.51 1210 34.7851
15.6273 1156 34
15.7445 1163 34.1028
15.8617 1228 35.0428
15.9789 1109 33.3017
16.0961 1160 34.0588
16.2132 1125 33.541
16.3304 1152 33.9411
16.4475 1184 34.4093
16.5646 1167 34.1614
16.6816 1174 34.2637
16.7986 1202 34.6699
16.9156 1216 34.8712
17.0326 1169 34.1906
17.1496 1237 35.171
17.2665 1322 36.3593
17.3833 1300 36.0555
17.5002 1270 35.6371
17.617 1292 35.9444
17.7338 1282 35.805
17.8505 1414 37.6032
17.9672 1398 37.3898
18.0839 1448 38.0526
18.2005 1485 38.5357
18.3171 1527 39.0768
18.4337 1514 38.9102
18.5502 1596 39.95
18.6666 1642 40.5216
18.7831 1625 40.3113
18.8994 1527 39.0768
19.0158 1476 38.4187
19.1321 1408 37.5233
19.2483 1357 36.8375
19.3645 1305 36.1248
19.4806 1259 35.4824
19.5967 1222 34.9571
19.7128 1229 35.0571
19.8288 1199 34.6266
19.9447 1060 32.5576
20.0606 0 1
20.1764 0 1
20.2922 0 1
20.4079 0 1
20.5236 0 1
20.6392 0 1
20.7548 0 1
20.8702 0 1
23.3078 0 1
23.4233 0 1
23.539 0 1
23.6547 0 1
23.7704 0 1
23.8862 0 1
24.0021 0 1
24.118 0 1
24.234 0 1
24.35 0 1
24.4661 1208 34.7563
24.5822 1240 35.2136
24.6984 1200 34.641
24.8146 1206 34.7275
24.9309 1178 34.322
25.0472 1189 34.4819
25.1636 1133 33.6601
25.28 1264 35.5528
25.3965 1246 35.2987
25.513 1282 35.805
25.6296 1337 36.565
25.7462 1309 36.1801
25.8628 1286 35.8608
25.9795 1406 37.4967
26.0962 1381 37.1618
26.213 1370 37.0135
26.3298 1409 37.5366
26.4466 1393 37.3229
26.5635 1436 37.8946
26.6804 1514 38.9102
26.7973 1539 39.2301
26.9143 1475 38.4057
27.0313 1521 39
27.1483 1546 39.3192
27.2653 1526 39.064
27.3824 1499 38.7169
27.4996 1506 38.8072
27.6167 1497 38.6911
27.7339 1331 36.4829
27.8511 1249 35.3412
27.9683 1220 34.9285
28.0855 1182 34.3802
28.2028 1160 34.0588
28.3201 1270 35.6371
28.4374 1202 34.6699
28.5547 1213 34.8281
28.6721 1258 35.4683
28.7894 1216 34.8712
28.9068 1204 34.6987
29.0242 1223 34.9714
29.1416 1195 34.5688
29.259 1262 35.5246
29.3764 1312 36.2215
29.4939 1239 35.1994
29.6113 1327 36.428
29.7288 1279 35.7631
29.8463 1386 37.229
29.9638 1387 37.2424
30.0812 1319 36.318
30.1987 1338 36.5787
30.3162 1428 37.7889
30.4337 1392 37.3095
30.5512 1411 37.5633
30.6687 1414 37.6032
30.7862 1444 38
30.9037 1368 36.9865
31.0212 1416 37.6298
31.1387 1311 36.2077
31.2562 1274 35.6931
31.3737 1229 35.0571
31.4912 1191 34.5109
31.6087 1171 34.2199
31.7262 1230 35.0714
31.8436 1075 32.7872
31.9611 1148 33.8821
32.0785 1097 33.121
32.1959 1129 33.6006
32.3134 1207 34.7419
32.4308 1182 34.3802
32.5482 1222 34.9571
32.6655 1179 34.3366
32.7829 1254 35.4119
32.9002 1193 34.5398
33.0176 1226 35.0143
33.1349 1214 34.8425
33.2522 1252 35.3836
33.3694 1182 34.3802
33.4867 1346 36.6879
33.6039 1271 35.6511
33.7211 1333 36.5103
33.8383 1330 36.4692
33.9554 1324 36.3868
34.0725 1373 37.054
34.1896 1382 37.1753
34.3067 1333 36.5103
34.4237 1283 35.819
34.5407 1239 35.1994
34.6577 1305 36.1248
34.7746 1239 35.1994
34.8915 1202 34.6699
35.0084 1176 34.2929
35.1252 1181 34.3657
35.242 1108 33.2866
35.3587 1102 33.1964
35.4755 1079 32.8481
35.5921 1020 31.9374
35.7088 1074 32.7719
35.8254 1092 33.0454
35.9419 1104 33.2265
36.0584 1139 33.7491
36.1749 1150 33.9116
36.2913 1209 34.7707
36.4077 1248 35.327
36.524 1155 33.9853
36.6403 1136 33.7046
36.7565 1116 33.4066
36.8727 1164 34.1174
36.9889 1110 33.3167
37.1049 1139 33.7491
37.221 0 1
37.3369 0 1
37.4529 0 1
37.5687 0 1
37.6845 0 1
37.8003 0 1
37.916 0 1
38.0316 0 1
38.1472 0 1
40.5851 0 1
40.7008 0 1
40.8164 0 1
40.9322 0 1
41.048 0 1
41.1639 0 1
41.2798 0 1
41.3958 0 1
41.5118 0 1
41.6279 0 1
41.744 988 31.4325
41.8602 1026 32.0312
41.9765 988 31.4325
42.0928 1022 31.9687
42.2091 1034 32.1559
42.3255 1066 32.6497
42.4419 1106 33.2566
42.5584 1077 32.8177
42.675 1103 33.2114
42.7915 1126 33.5559
42.9081 1086 32.9545
43.0248 1045 32.3265
43.1415 1142 33.7935
43.2582 1118 33.4365
43.375 1221 34.9428
43.4918 1167 34.1614
43.6087 1153 33.9559
43.7256 1135 33.6898
43.8425 1056 32.4962
43.9595 1089 33
44.0765 1076 32.8024
44.1935 999 31.607
44.3106 1039 32.2335
44.4277 1001 31.6386
44.5448 965 31.0644
44.6619 987 31.4166
44.7791 923 30.3809
44.8963 975 31.225
45.0136 960 30.9839
45.1308 918 30.2985
45.2481 875 29.5804
45.3654 884 29.7321
45.4827 883 29.7153
45.6001 894 29.8998
45.7174 873 29.5466
45.8348 809 28.4429
45.9522 804 28.3549
46.0697 782 27.9643
46.1871 769 27.7308
46.3046 805 28.3725
46.422 792 28.1425
46.5395 798 28.2489
46.657 778 27.8927
46.7745 726 26.9444
46.892 788 28.0713
47.0096 777 27.8747
47.1271 727 26.9629
47.2446 733 27.074
47.3622 734 27.0924
47.4797 720 26.8328
47.5973 695 26.3629
47.7149 712 26.6833
47.8324 671 25.9037
47.95 677 26.0192
48.0675 675 25.9808
48.1851 649 25.4755
48.3027 621 24.9199
48.4202 599 24.4745
48.5378 633 25.1595
48.6554 612 24.7386
48.7729 587 24.2281
48.8904 639 25.2784
49.008 659 25.671
49.1255 624 24.98
49.243 666 25.807
49.3605 626 25.02
49.478 589 24.2693
49.5955 600 24.4949
49.713 625 25
49.8304 637 25.2389
49.9479 605 24.5967
50.0653 720 26.8328
50.1827 668 25.8457
50.3001 652 25.5343
50.4175 717 26.7769
50.5348 679 26.0576
50.6521 725 26.9258
50.7694 704 26.533
50.8867 769 27.7308
51.004 757 27.5136
51.1212 747 27.3313
51.2384 855 29.2404
51.3556 841 29
51.4727 851 29.1719
51.5899 849 29.1376
51.707 824 28.7054
51.824 825 28.7228
51.9411 791 28.1247
52.0581 805 28.3725
52.175 815 28.5482
52.2919 840 28.9828
52.4088 829 28.7924
52.5257 810 28.4605
52.6425 790 28.1069
52.7593 862 29.3598
52.876 838 28.9482
52.9927 816 28.5657
53.1094 910 30.1662
53.226 878 29.6311
53.3426 891 29.8496
53.4591 896 29.9333
53.5756 903 30.05
53.692 892 29.8664
53.8084 1014 31.8434
53.9248 1032 32.1248
54.0411 1018 31.9061
54.1573 1035 32.1714
54.2735 0 1
54.3896 0 1
54.5057 0 1
54.6217 0 1
54.7377 0 1
54.8537 0 1
54.9695 0 1
55.0853 0 1
55.2011 0 1
55.3168 0 1
55.4324 0 1
57.824 0 1
57.9396 0 1
58.0553 0 1
58.1711 0 1
58.2869 0 1
58.4028 0 1
58.5187 0 1
58.6347 0 1
58.7508 0 1
58.8669 0 1
58.983 1097 33.121
59.0992 1193 34.5398
59.2155 1266 35.5809
59.3318 1199 34.6266
59.4482 1252 35.3836
59.5646 1287 35.8748
59.681 1302 36.0832
59.7975 1291 35.9305
59.9141 1318 36.3043
60.0306 1274 35.6931
60.1473 1259 35.4824
60.2639 1112 33.3467
60.3807 1155 33.9853
60.4974 1136 33.7046
60.6142 1089 33
60.731 1023 31.9844
60.8479 1025 32.0156
60.9648 1032 32.1248
61.0818 932 30.5287
61.1987 957 30.9354
61.3158 998 31.5911
61.4328 993 31.5119
61.5499 987 31.4166
61.667 996 31.5595
61.7841 1022 31.9687
61.9013 1072 32.7414
62.0185 1042 32.28
62.1357 1077 32.8177
62.253 1054 32.4654
62.3702 1103 33.2114
62.4875 1066 32.6497
62.6049 1152 33.9411
62.7222 1253 35.3977
62.8396 1173 34.2491
62.9569 1252 35.3836
63.0743 1171 34.2199
63.1918 1249 35.3412
63.3092 1243 35.2562
63.4267 1234 35.1283
63.5441 1131 33.6303
63.6616 1235 35.1426
63.7791 1125 33.541
63.8966 1077 32.8177
64.0142 1011 31.7962
64.1317 1008 31.749
64.2492 1003 31.6702
64.3668 925 30.4138
64.4843 902 30.0333
64.6019 888 29.7993
64.7195 886 29.7658
64.837 923 30.3809
64.9546 966 31.0805
65.0722 922 30.3645
65.1898 918 30.2985
65.3074 953 30.8707
65.4249 950 30.8221
65.5425 1000 31.6228
65.6601 1023 31.9844
65.7777 1038 32.218
65.8952 1007 31.7333
66.0128 1113 33.3617
66.1304 1063 32.6037
66.2479 1088 32.9848
66.3655 1125 33.541
66.483 1200 34.641
66.6005 1203 34.6843
66.718 1218 34.8999
66.8355 1176 34.2929
66.953 1233 35.1141
67.0705 1221 34.9428
67.1879 1156 34
67.3054 1129 33.6006
67.4228 1133 33.6601
67.5402 1035 32.1714
67.6576 944 30.7246
67.7749 877 29.6142
67.8923 864 29.3939
68.0096 855 29.2404
68.1269 855 29.2404
68.2442 844 29.0517
68.3614 885 29.7489
68.4787 874 29.5635
68.5958 962 31.0161
68.713 945 30.7409
68.8302 924 30.3974
68.9473 941 30.6757
69.0643 1027 32.0468
69.1814 974 31.209
69.2984 1027 32.0468
69.4154 1037 32.2025
69.5323 1054 32.4654
69.6492 1097 33.121
69.7661 1171 34.2199
69.8829 1178 34.322
69.9997 1303 36.0971
70.1165 1255 35.426
70.2332 1249 35.3412
70.3499 1273 35.6791
70.4665 1300 36.0555
70.5831 1316 36.2767
70.6996 1222 34.9571
70.8161 1269 35.623
70.9326 1160 34.0588
71.049 1026 32.0312
71.1653 938 30.6268
71.2817 944 30.7246
71.3979 913 30.2159
71.5141 900 30
71.6303 797 28.2312
71.7464 835 28.8964
71.8624 0 1
71.9784 0 1
72.0944 0 1
72.2102 0 1
72.3261 0 1
72.4418 0 1
72.5575 0 1
72.6732 0 1
75.1054 0 1
75.2209 0 1
75.3365 0 1
75.4521 0 1
75.5678 0 1
75.6835 0 1
75.7993 0 1
75.9151 0 1
76.031 0 1
76.147 1107 33.2716
76.263 1100 33.1662
76.3791 997 31.5753
76.4952 954 30.8869
76.6113 958 30.9516
76.7276 922 30.3645
76.8438 928 30.4631
76.9601 879 29.6479
77.0765 978 31.273
77.1929 996 31.5595
77.3093 946 30.7571
77.4258 923 30.3809
77.5423 981 31.3209
77.6589 1031 32.1092
77.7755 1005 31.7017
77.8921 941 30.6757
78.0088 951 30.8383
78.1256 1010 31.7805
78.2423 975 31.225
78.3591 1064 32.619
78.4759 1117 33.4215
78.5928 1075 32.7872
78.7097 1137 33.7194
78.8266 1159 34.0441
78.9436 1340 36.606
79.0606 1306 36.1386
79.1776 1328 36.4417
79.2946 1224 34.9857
79.4117 1312 36.2215
79.5288 1244 35.2704
79.6459 1275 35.7071
79.7631 1191 34.5109
79.8802 1083 32.909
79.9974 1030 32.0936
80.1147 1012 31.8119
80.2319 922 30.3645
80.3491 939 30.6431
80.4664 969 31.1288
80.5837 939 30.6431
80.701 919 30.315
80.8183 911 30.1828
80.9357 915 30.249
81.053 972 31.1769
81.1704 991 31.4802
81.2877 952 30.8545
81.4051 979 31.289
81.5225 999 31.607
81.6399 958 30.9516
81.7573 964 31.0483
81.8747 1042 32.28
81.9922 1040 32.249
82.1096 1055 32.4808
82.227 1131 33.6303
82.3444 1159 34.0441
82.4619 1239 35.1994
82.5793 1302 36.0832
82.6967 1239 35.1994
82.8142 1251 35.3695
82.9316 1296 36
83.049 1211 34.7994
83.1664 1259 35.4824
83.2838 1217 34.8855
83.4012 1166 34.1467
83.5186 1067 32.665
83.636 994 31.5278
83.7534 947 30.7734
83.8708 928 30.4631
83.9881 981 31.3209
84.1055 975 31.225
84.2228 1018 31.9061
84.3401 1013 31.8277
84.4575 953 30.8707
84.5747 964 31.0483
84.692 992 31.496
84.8093 1017 31.8904
84.9265 1047 32.3574
85.0437 1048 32.3728
85.1609 1014 31.8434
85.2781 1006 31.7175
85.3952 1035 32.1714
85.5123 1064 32.619
85.6294 1114 33.3766
85.7465 1128 33.5857
85.8636 1289 35.9026
85.9806 1277 35.7351
86.0976 1365 36.9459
86.2145 1395 37.3497
86.3315 1419 37.6696
86.4484 1315 36.2629
86.5652 1400 37.4166
86.682 1428 37.7889
86.7988 1334 36.524
86.9156 1334 36.524
87.0323 1214 34.8425
87.149 1188 34.4674
87.2657 1063 32.6037
87.3823 1050 32.4037
87.4988 1050 32.4037
87.6154 1062 32.5883
87.7318 1067 32.665
87.8483 1031 32.1092
87.9647 1105 33.2415
88.081 1069 32.6956
88.1973 1112 33.3467
88.3136 1123 33.5112
88.4298 1104 33.2265
88.546 1088 32.9848
88.6621 1080 32.8634
88.7781 1044 32.311
88.8942 0 1
89.0101 0 1
89.126 0 1
89.2419 0 1
89.3577 0 1
89.4734 0 1
89.5891 0 1
89.7047 0 1
89.8203 0 1
89.9358 0 1
92.3269 0 1
92.4424 0 1
92.558 0 1
92.6736 0 1
92.7893 0 1
92.905 0 1
93.0208 0 1
93.1366 0 1
93.2525 0 1
93.3685 0 1
93.4845 0 1
93.6005 1014 31.8434
93.7167 1013 31.8277
93.8328 1068 32.6803
93.949 1021 31.9531
94.0653 1028 32.0624
94.1816 1064 32.619
94.2979 1032 32.1248
94.4143 1138 33.7343
94.5307 1126 33.5559
94.6472 1129 33.6006
94.7637 1213 34.8281
94.8803 1278 35.7491
94.9969 1319 36.318
95.1135 1325 36.4005
95.2302 1357 36.8375
95.3469 1298 36.0278
95.4637 1312 36.2215
95.5805 1346 36.6879
95.6973 1334 36.524
95.8142 1347 36.7015
95.9311 1254 35.4119
96.048 1189 34.4819
96.1649 1152 33.9411
96.2819 1147 33.8674
96.3989 1083 32.909
96.516 1094 33.0757
96.633 1120 33.4664
96.7501 1092 33.0454
96.8673 1071 32.7261
96.9844 1009 31.7648
97.1016 1021 31.9531
97.2188 1013 31.8277
97.336 1089 33
97.4532 1074 32.7719
97.5704 1066 32.6497
97.6877 1016 31.8748
97.805 975 31.225
97.9223 996 31.5595
98.0396 1023 31.9844
98.1569 1048 32.3728
98.2743 1133 33.6601
98.3916 1123 33.5112
98.509 1219 34.9142
98.6264 1256 35.4401
98.7438 1289 35.9026
98.8612 1343 36.647
98.9786 1328 36.4417
99.096 1235 35.1426
99.2134 1271 35.6511
99.3308 1309 36.1801
99.4482 1293 35.9583
99.5656 1221 34.9428
99.6831 1131 33.6303
99.8005 1105 33.2415
99.9179 1073 32.7567
100.035 1013 31.8277
100.153 988 31.4325
100.27 1051 32.4191
100.388 1006 31.7175
100.505 1038 32.218
100.622 997 31.5753
100.74 995 31.5436
100.857 1010 31.7805
100.975 1055 32.4808
101.092 991 31.4802
101.209 1004 31.686
101.327 1007 31.7333
101.444 977 31.257
101.561 1067 32.665
101.679 1044 32.311
101.796 1118 33.4365
101.913 1097 33.121
102.03 1201 34.6554
102.148 1273 35.6791
102.265 1242 35.242
102.382 1474 38.3927
102.499 1325 36.4005
102.616 1288 35.8887
102.733 1327 36.428
102.851 1403 37.4566
102.968 1368 36.9865
103.085 1361 36.8917
103.202 1255 35.426
103.319 1189 34.4819
103.436 1173 34.2491
103.552 1122 33.4963
103.669 1186 34.4384
103.786 1100 33.1662
103.903 1075 32.7872
104.02 1140 33.7639
104.137 1053 32.45
104.253 1084 32.9242
104.37 1163 34.1028
104.487 1125 33.541
104.603 1143 33.8083
104.72 1096 33.1059
104.836 1084 32.9242
104.953 1042 32.28
105.069 1120 33.4664
105.186 1125 33.541
105.302 1157 34.0147
105.418 1290 35.9166
105.535 1270 35.6371
105.651 1388 37.2559
105.767 1438 37.921
105.883 1370 37.0135
105.999 1323 36.3731
106.115 0 1
106.231 0 1
106.347 0 1
106.463 0 1
106.579 0 1
106.694 0 1
106.81 0 1
106.926 0 1
107.041 0 1
107.157 0 1
109.576 0 1
109.692 0 1
109.807 0 1
109.923 0 1
110.039 0 1
110.155 0 1
110.27 0 1
110.386 0 1
110.502 0 1
110.618 1058 32.5269
110.735 1195 34.5688
110.851 1294 35.9722
110.967 1212 34.8138
111.083 1179 34.3366
111.199 1208 34.7563
111.316 1235 35.1426
111.432 1238 35.1852
111.549 1258 35.4683
111.665 1213 34.8281
111.782 1163 34.1028
111.898 1148 33.8821
112.015 1063 32.6037
112.132 1032 32.1248
112.248 1006 31.7175
112.365 966 31.0805
112.482 1010 31.7805
112.599 974 31.209
112.716 900 30
112.832 923 30.3809
112.949 899 29.9833
113.066 873 29.5466
113.183 912 30.1993
113.3 822 28.6705
113.417 879 29.6479
113.534 798 28.2489
113.652 882 29.6985
113.769 871 29.5127
113.886 850 29.1548
114.003 929 30.4795
114.12 949 30.8058
114.238 1019 31.9218
114.355 1044 32.311
114.472 966 31.0805
114.589 928 30.4631
114.707 971 31.1609
114.824 969 31.1288
114.942 1052 32.4345
115.059 999 31.607
115.176 992 31.496
115.294 941 30.6757
115.411 840 28.9828
115.529 932 30.5287
115.646 867 29.4449
115.764 903 30.05
115.881 861 29.3428
115.999 736 27.1293
116.116 788 28.0713
116.234 737 27.1477
116.351 750 27.3861
116.469 706 26.5707
116.586 756 27.4955
116.704 710 26.6458
116.821 716 26.7582
116.939 705 26.5518
117.056 715 26.7395
117.174 646 25.4165
117.291 704 26.533
117.409 767 27.6948
117.526 755 27.4773
117.644 785 28.0179
117.761 766 27.6767
117.879 811 28.4781
117.996 820 28.6356
118.114 759 27.55
118.231 763 27.6225
118.349 807 28.4077
118.466 837 28.931
118.584 885 29.7489
118.701 894 29.8998
118.819 836 28.9137
118.936 910 30.1662
119.053 845 29.0689
119.171 794 28.178
119.288 819 28.6182
119.405 830 28.8097
119.523 760 27.5681
119.64 782 27.9643
119.757 738 27.1662
119.875 709 26.6271
119.992 725 26.9258
120.109 704 26.533
120.226 688 26.2298
120.343 734 27.0924
120.46 704 26.533
120.578 733 27.074
120.695 762 27.6043
120.812 791 28.1247
120.929 830 28.8097
121.046 821 28.6531
121.163 787 28.0535
121.279 854 29.2233
121.396 899 29.9833
121.513 888 29.7993
121.63 899 29.9833
121.747 816 28.5657
121.863 813 28.5132
121.98 796 28.2135
122.097 905 30.0832
122.213 938 30.6268
122.33 983 31.3528
122.446 968 31.1127
122.563 979 31.289
122.679 1004 31.686
122.795 1006 31.7175
122.912 988 31.4325
123.028 899 29.9833
123.144 952 30.8545
123.26 866 29.4279
123.377 0 1
123.493 0 1
123.609 0 1
123.725 0 1
123.84 0 1
123.956 0 1
124.072 0 1
124.188 0 1
124.303 0 1
124.419 0 1
126.852 0 1
126.968 0 1
127.083 0 1
127.199 0 1
127.315 0 1
127.431 0 1
127.547 0 1
127.663 0 1
127.779 0 1
127.895 0 1
128.011 0 1
128.127 0 1
128.243 0 1
128.359 1108 33.2866
128.476 1125 33.541
128.592 1076 32.8024
128.708 1112 33.3467
128.825 1065 32.6343
128.941 1083 32.909
129.058 963 31.0322
129.174 1026 32.0312
129.291 1073 32.7567
129.408 943 30.7083
129.524 1000 31.6228
129.641 960 30.9839
129.758 998 31.5911
129.875 1000 31.6228
129.992 1021 31.9531
130.108 961 31
130.225 997 31.5753
130.342 1041 32.2645
130.459 1030 32.0936
130.576 1005 31.7017
130.693 928 30.4631
130.81 806 28.3901
130.928 791 28.1247
131.045 847 29.1033
131.162 972 31.1769
131.279 1071 32.7261
131.396 1033 32.1403
131.513 991 31.4802
131.631 1052 32.4345
131.748 1008 31.749
131.865 1031 32.1092
131.983 1005 31.7017
132.1 961 31
132.217 964 31.0483
132.335 957 30.9354
132.452 902 30.0333
132.57 923 30.3809
132.687 863 29.3769
132.804 948 30.7896
132.922 851 29.1719
133.039 886 29.7658
133.157 841 29
133.274 813 28.5132
133.392 811 28.4781
133.509 857 29.2746
133.627 828 28.775
133.744 831 28.8271
133.862 811 28.4781
133.979 863 29.3769
134.097 871 29.5127
134.214 727 26.9629
134.332 556 23.5797
134.449 574 23.9583
134.567 675 25.9808
134.684 765 27.6586
134.802 796 28.2135
134.919 774 27.8209
135.037 782 27.9643
135.154 815 28.5482
135.272 791 28.1247
135.389 781 27.9464
135.507 749 27.3679
135.624 788 28.0713
135.742 706 26.5707
135.859 732 27.0555
135.977 711 26.6646
136.094 708 26.6083
136.211 661 25.7099
136.329 664 25.7682
136.446 643 25.3574
136.564 609 24.6779
136.681 678 26.0384
136.798 650 25.4951
136.915 604 24.5764
137.033 615 24.7992
137.15 598 24.454
137.267 642 25.3377
137.384 678 26.0384
137.502 692 26.3059
137.619 650 25.4951
137.736 603 24.5561
137.853 498 22.3159
137.97 439 20.9523
138.087 486 22.0454
138.204 614 24.779
138.321 647 25.4362
138.438 680 26.0768
138.555 703 26.5141
138.672 728 26.9815
138.788 723 26.8887
138.905 745 27.2947
139.022 736 27.1293
139.139 722 26.8701
139.255 810 28.4605
139.372 759 27.55
139.488 768 27.7128
139.605 755 27.4773
139.721 752 27.4226
139.838 785 28.0179
139.954 775 27.8388
140.071 785 28.0179
140.187 788 28.0713
140.303 757 27.5136
140.419 826 28.7402
140.535 785 28.0179
140.652 762 27.6043
140.768 0 1
140.884 0 1
141 0 1
141.115 0 1
141.231 0 1
141.347 0 1
141.463 0 1
141.578 0 1
141.694 0 1
144.104 0 1
144.219 0 1
144.335 0 1
144.45 0 1
144.566 0 1
144.682 0 1
144.798 0 1
144.914 0 1
145.03 0 1
145.146 691 26.2869
145.262 644 25.3772
145.378 631 25.1197
145.494 660 25.6905
145.61 656 25.6125
145.726 601 24.5153
145.842 636 25.219
145.959 577 24.0208
146.075 579 24.0624
146.192 564 23.7487
146.308 555 23.5584
146.425 580 24.0832
146.541 523 22.8692
146.658 455 21.3307
146.774 428 20.6882
146.891 475 21.7945
147.008 531 23.0434
147.125 553 23.516
147.241 537 23.1733
147.358 551 23.4734
147.475 582 24.1247
147.592 591 24.3105
147.709 490 22.1359
147.826 496 22.2711
147.943 459 21.4243
148.06 530 23.0217
148.177 495 22.2486
148.294 511 22.6053
148.411 492 22.1811
148.528 464 21.5407
148.645 459 21.4243
148.762 470 21.6795
148.88 506 22.4944
148.997 428 20.6882
149.114 388 19.6977
149.231 418 20.445
149.349 435 20.8567
149.466 406 20.1494
149.583 403 20.0749
149.701 447 21.1424
149.818 441 21
149.935 433 20.8087
150.053 383 19.5704
150.17 408 20.199
150.287 327 18.0831
150.405 360 18.9737
150.522 418 20.445
150.64 407 20.1742
150.757 439 20.9523
150.875 452 21.2603
150.992 474 21.7715
151.11 467 21.6102
151.227 436 20.8806
151.344 455 21.3307
151.462 438 20.9284
151.579 407 20.1742
151.697 443 21.0476
151.814 430 20.7364
151.932 441 21
152.049 424 20.5913
152.167 432 20.7846
152.284 428 20.6882
152.402 413 20.3224
152.519 428 20.6882
152.636 389 19.7231
152.754 394 19.8494
152.871 417 20.4206
152.989 432 20.7846
153.106 401 20.025
153.223 400 20
153.341 437 20.9045
153.458 427 20.664
153.575 431 20.7605
153.693 401 20.025
153.81 389 19.7231
153.927 430 20.7364
154.044 448 21.166
154.162 446 21.1187
154.279 466 21.587
154.396 477 21.8403
154.513 505 22.4722
154.63 506 22.4944
154.747 492 22.1811
154.864 509 22.561
154.981 497 22.2935
155.098 489 22.1133
155.215 536 23.1517
155.332 559 23.6432
155.449 493 22.2036
155.566 489 22.1133
155.683 492 22.1811
155.8 463 21.5174
155.917 444 21.0713
156.033 471 21.7025
156.15 0 1
156.267 0 1
156.383 0 1
156.5 0 1
156.617 0 1
156.733 0 1
156.85 0 1
156.966 0 1
157.082 0 1
157.199 0 1
157.315 0 1
157.431 0 1
157.547 0 1
157.664 0 1
157.78 0 1
157.896 0 1
158.012 0 1
158.128 0 1
158.244 0 1
158.359 0 1
158.475 0 1
158.591 0 1
158.706 0 1
