
6.15755 0 1
6.2731 0 1
6.3887 0 1
6.50437 0 1
6.62009 0 1
6.73587 0 1
6.8517 0 1
6.96759 0 1
7.08353 0 1
7.19952 0 1
7.31557 0 1
7.43166 0 1
7.54781 0 1
7.664 0 1
7.78024 0 1
7.89653 0 1
8.01286 0 1
8.12924 0 1
8.24567 0 1
8.36213 0 1
8.47864 0 1
8.59519 0 1
8.71178 0 1
8.82841 0 1
8.94508 0 1
9.06179 0 1
9.17853 0 1
9.29531 0 1
9.41212 0 1
9.52897 0 1
9.64584 0 1
9.76276 0 1
9.8797 0 1
9.99667 0 1
10.1137 0 1
10.2307 0 1
10.3478 0 1
10.4648 0 1
10.5819 0 1
10.6991 0 1
10.8162 0 1
10.9334 0 1
11.0506 0 1
11.1678 0 1
11.285 0 1
11.4023 0 1
11.5196 0 1
11.6369 0 1
11.7542 0 1
11.8715 0 1
11.9888 0 1
12.1062 0 1
12.2235 0 1
12.3409 0 1
12.4582 0 1
12.5756 0 1
12.693 0 1
12.8104 0 1
12.9278 0 1
13.0452 0 1
13.1626 0 1
13.28 0 1
13.3974 0 1
13.5149 0 1
13.6323 0 1
13.7497 0 1
13.8671 0 1
13.9845 0 1
14.1019 0 1
14.2193 0 1
14.3367 0 1
14.4541 0 1
14.5714 0 1
14.6888 0 1
14.8062 0 1
14.9235 0 1
15.0408 0 0
15.1581 0 0
15.2755 0 0
15.3927 0 0
15.51 0 0
15.6273 0 0
15.7445 0 0
15.8617 0 0
15.9789 0 0
16.0961 0 0
16.2132 0 0
16.3304 0 0
16.4475 0 0
16.5646 0 0
16.6816 0 0
16.7986 0 0
16.9156 0 0
17.0326 0 0
17.1496 0 0
17.2665 0 0
17.3833 0 0
17.5002 0 0
17.617 0 0
17.7338 0 0
17.8505 0 0
17.9672 0 0
18.0839 0 0
18.2005 0 0
18.3171 0 0
18.4337 0 0
18.5502 0 0
18.6666 0 0
18.7831 0 0
18.8994 0 0
19.0158 0 0
19.1321 0 0
19.2483 0 0
19.3645 0 0
19.4806 0 0
19.5967 0 0
19.7128 0 0
19.8288 0 0
19.9447 0 0
20.0606 0 1
20.1764 0 1
20.2922 0 1
20.4079 0 1
20.5236 0 1
20.6392 0 1
20.7548 0 1
20.8702 0 1
23.3078 0 1
23.4233 0 1
23.539 0 1
23.6547 0 1
23.7704 0 1
23.8862 0 1
24.0021 0 1
24.118 0 1
24.234 0 1
24.35 0 1
24.4661 548 23.4094
24.5822 578 24.0416
24.6984 690 26.2679
24.8146 747 27.3313
24.9309 826 28.7402
25.0472 757 27.5136
25.1636 822 28.6705
25.28 904 30.0666
25.3965 951 30.8383
25.513 986 31.4006
25.6296 1045 32.3265
25.7462 1045 32.3265
25.8628 1115 33.3916
25.9795 1121 33.4813
26.0962 1121 33.4813
26.213 1075 32.7872
26.3298 1134 33.6749
26.4466 1125 33.541
26.5635 1088 32.9848
26.6804 990 31.4643
26.7973 932 30.5287
26.9143 968 31.1127
27.0313 961 31
27.1483 1046 32.3419
27.2653 1054 32.4654
27.3824 1063 32.6037
27.4996 1052 32.4345
27.6167 1067 32.665
27.7339 990 31.4643
27.8511 989 31.4484
27.9683 1007 31.7333
28.0855 988 31.4325
28.2028 987 31.4166
28.3201 929 30.4795
28.4374 955 30.9031
28.5547 868 29.4618
28.6721 901 30.0167
28.7894 892 29.8664
28.9068 953 30.8707
29.0242 887 29.7825
29.1416 955 30.9031
29.259 986 31.4006
29.3764 1041 32.2645
29.4939 1098 33.1361
29.6113 995 31.5436
29.7288 1020 31.9374
29.8463 1024 32
29.9638 963 31.0322
30.0812 937 30.6105
30.1987 915 30.249
30.3162 859 29.3087
30.4337 870 29.4958
30.5512 884 29.7321
30.6687 969 31.1288
30.7862 968 31.1127
30.9037 957 30.9354
31.0212 1029 32.078
31.1387 982 31.3369
31.2562 1033 32.1403
31.3737 1001 31.6386
31.4912 960 30.9839
31.6087 965 31.0644
31.7262 954 30.8869
31.8436 923 30.3809
31.9611 842 29.0172
32.0785 907 30.1164
32.1959 835 28.8964
32.3134 802 28.3196
32.4308 853 29.2062
32.5482 846 29.0861
32.6655 866 29.4279
32.7829 934 30.5614
32.9002 965 31.0644
33.0176 978 31.273
33.1349 947 30.7734
33.2522 994 31.5278
33.3694 941 30.6757
33.4867 960 30.9839
33.6039 940 30.6594
33.7211 942 30.692
33.8383 906 30.0998
33.9554 786 28.0357
34.0725 885 29.7489
34.1896 811 28.4781
34.3067 824 28.7054
34.4237 884 29.7321
34.5407 943 30.7083
34.6577 940 30.6594
34.7746 988 31.4325
34.8915 915 30.249
35.0084 955 30.9031
35.1252 877 29.6142
35.242 879 29.6479
35.3587 854 29.2233
35.4755 895 29.9166
35.5921 831 28.8271
35.7088 815 28.5482
35.8254 754 27.4591
35.9419 771 27.7669
36.0584 727 26.9629
36.1749 801 28.3019
36.2913 749 27.3679
36.4077 717 26.7769
36.524 707 26.5895
36.6403 752 27.4226
36.7565 713 26.7021
36.8727 741 27.2213
36.9889 648 25.4558
37.1049 622 24.9399
37.221 0 1
37.3369 0 1
37.4529 0 1
37.5687 0 1
37.6845 0 1
37.8003 0 1
37.916 0 1
38.0316 0 1
38.1472 0 1
40.5851 0 1
40.7008 0 1
40.8164 0 1
40.9322 0 1
41.048 0 1
41.1639 0 1
41.2798 0 1
41.3958 0 1
41.5118 0 1
41.6279 0 1
41.744 493 22.2036
41.8602 586 24.2074
41.9765 587 24.2281
42.0928 651 25.5147
42.2091 691 26.2869
42.3255 665 25.7876
42.4419 725 26.9258
42.5584 761 27.5862
42.675 666 25.807
42.7915 658 25.6515
42.9081 642 25.3377
43.0248 693 26.3249
43.1415 747 27.3313
43.2582 738 27.1662
43.375 795 28.1957
43.4918 806 28.3901
43.6087 806 28.3901
43.7256 797 28.2312
43.8425 782 27.9643
43.9595 749 27.3679
44.0765 808 28.4253
44.1935 786 28.0357
44.3106 762 27.6043
44.4277 726 26.9444
44.5448 694 26.3439
44.6619 662 25.7294
44.7791 667 25.8263
44.8963 642 25.3377
45.0136 692 26.3059
45.1308 750 27.3861
45.2481 767 27.6948
45.3654 770 27.7489
45.4827 792 28.1425
45.6001 836 28.9137
45.7174 829 28.7924
45.8348 824 28.7054
45.9522 782 27.9643
46.0697 781 27.9464
46.1871 698 26.4197
46.3046 695 26.3629
46.422 671 25.9037
46.5395 691 26.2869
46.657 740 27.2029
46.7745 746 27.313
46.892 795 28.1957
47.0096 808 28.4253
47.1271 808 28.4253
47.2446 796 28.2135
47.3622 872 29.5296
47.4797 781 27.9464
47.5973 838 28.9482
47.7149 727 26.9629
47.8324 786 28.0357
47.95 727 26.9629
48.0675 720 26.8328
48.1851 643 25.3574
48.3027 599 24.4745
48.4202 663 25.7488
48.5378 706 26.5707
48.6554 706 26.5707
48.7729 700 26.4575
48.8904 791 28.1247
49.008 771 27.7669
49.1255 800 28.2843
49.243 773 27.8029
49.3605 831 28.8271
49.478 764 27.6405
49.5955 766 27.6767
49.713 732 27.0555
49.8304 675 25.9808
49.9479 617 24.8395
50.0653 660 25.6905
50.1827 702 26.4953
50.3001 743 27.258
50.4175 710 26.6458
50.5348 824 28.7054
50.6521 817 28.5832
50.7694 812 28.4956
50.8867 801 28.3019
51.004 768 27.7128
51.1212 808 28.4253
51.2384 765 27.6586
51.3556 760 27.5681
51.4727 713 26.7021
51.5899 688 26.2298
51.707 659 25.671
51.824 664 25.7682
51.9411 683 26.1343
52.0581 628 25.0599
52.175 725 26.9258
52.2919 694 26.3439
52.4088 729 27
52.5257 792 28.1425
52.6425 779 27.9106
52.7593 779 27.9106
52.876 795 28.1957
52.9927 755 27.4773
53.1094 726 26.9444
53.226 682 26.1151
53.3426 644 25.3772
53.4591 591 24.3105
53.5756 591 24.3105
53.692 536 23.1517
53.8084 552 23.4947
53.9248 535 23.1301
54.0411 530 23.0217
54.1573 549 23.4307
54.2735 0 1
54.3896 0 1
54.5057 0 1
54.6217 0 1
54.7377 0 1
54.8537 0 1
54.9695 0 1
55.0853 0 1
55.2011 0 1
55.3168 0 1
55.4324 0 1
57.824 0 1
57.9396 0 1
58.0553 0 1
58.1711 0 1
58.2869 0 1
58.4028 0 1
58.5187 0 1
58.6347 0 1
58.7508 0 1
58.8669 0 1
58.983 542 23.2809
59.0992 574 23.9583
59.2155 708 26.6083
59.3318 750 27.3861
59.4482 823 28.688
59.5646 772 27.7849
59.681 887 29.7825
59.7975 875 29.5804
59.9141 869 29.4788
60.0306 911 30.1828
60.1473 866 29.4279
60.2639 811 28.4781
60.3807 812 28.4956
60.4974 745 27.2947
60.6142 829 28.7924
60.731 867 29.4449
60.8479 845 29.0689
60.9648 912 30.1993
61.0818 915 30.249
61.1987 976 31.241
61.3158 898 29.9666
61.4328 936 30.5941
61.5499 909 30.1496
61.667 935 30.5778
61.7841 912 30.1993
61.9013 826 28.7402
62.0185 830 28.8097
62.1357 775 27.8388
62.253 817 28.5832
62.3702 791 28.1247
62.4875 867 29.4449
62.6049 935 30.5778
62.7222 951 30.8383
62.8396 905 30.0832
62.9569 945 30.7409
63.0743 972 31.1769
63.1918 960 30.9839
63.3092 956 30.9192
63.4267 884 29.7321
63.5441 911 30.1828
63.6616 782 27.9643
63.7791 793 28.1603
63.8966 769 27.7308
64.0142 748 27.3496
64.1317 720 26.8328
64.2492 763 27.6225
64.3668 800 28.2843
64.4843 846 29.0861
64.6019 875 29.5804
64.7195 945 30.7409
64.837 880 29.6648
64.9546 921 30.348
65.0722 931 30.5123
65.1898 900 30
65.3074 897 29.95
65.4249 822 28.6705
65.5425 822 28.6705
65.6601 726 26.9444
65.7777 744 27.2764
65.8952 788 28.0713
66.0128 805 28.3725
66.1304 879 29.6479
66.2479 945 30.7409
66.3655 889 29.8161
66.483 938 30.6268
66.6005 887 29.7825
66.718 959 30.9677
66.8355 937 30.6105
66.953 861 29.3428
67.0705 895 29.9166
67.1879 898 29.9666
67.3054 815 28.5482
67.4228 771 27.7669
67.5402 723 26.8887
67.6576 716 26.7582
67.7749 688 26.2298
67.8923 733 27.074
68.0096 783 27.9821
68.1269 858 29.2916
68.2442 889 29.8161
68.3614 888 29.7993
68.4787 854 29.2233
68.5958 920 30.3315
68.713 922 30.3645
68.8302 873 29.5466
68.9473 808 28.4253
69.0643 792 28.1425
69.1814 744 27.2764
69.2984 714 26.7208
69.4154 678 26.0384
69.5323 749 27.3679
69.6492 762 27.6043
69.7661 827 28.7576
69.8829 827 28.7576
69.9997 829 28.7924
70.1165 807 28.4077
70.2332 738 27.1662
70.3499 730 27.0185
70.4665 691 26.2869
70.5831 673 25.9422
70.6996 610 24.6982
70.8161 637 25.2389
70.9326 582 24.1247
71.049 463 21.5174
71.1653 423 20.567
71.2817 312 17.6635
71.3979 328 18.1108
71.5141 276 16.6132
71.6303 304 17.4356
71.7464 277 16.6433
71.8624 0 1
71.9784 0 1
72.0944 0 1
72.2102 0 1
72.3261 0 1
72.4418 0 1
72.5575 0 1
72.6732 0 1
75.1054 0 1
75.2209 0 1
75.3365 0 1
75.4521 0 1
75.5678 0 1
75.6835 0 1
75.7993 0 1
75.9151 0 1
76.031 0 1
76.147 552 23.4947
76.263 623 24.96
76.3791 623 24.96
76.4952 599 24.4745
76.6113 610 24.6982
76.7276 651 25.5147
76.8438 635 25.1992
76.9601 662 25.7294
77.0765 693 26.3249
77.1929 775 27.8388
77.3093 789 28.0891
77.4258 789 28.0891
77.5423 850 29.1548
77.6589 864 29.3939
77.7755 879 29.6479
77.8921 814 28.5307
78.0088 784 28
78.1256 733 27.074
78.2423 609 24.6779
78.3591 623 24.96
78.4759 634 25.1794
78.5928 718 26.7955
78.7097 817 28.5832
78.8266 853 29.2062
78.9436 888 29.7993
79.0606 861 29.3428
79.1776 831 28.8271
79.2946 858 29.2916
79.4117 921 30.348
79.5288 886 29.7658
79.6459 839 28.9655
79.7631 897 29.95
79.8802 788 28.0713
79.9974 800 28.2843
80.1147 718 26.7955
80.2319 698 26.4197
80.3491 642 25.3377
80.4664 691 26.2869
80.5837 709 26.6271
80.701 782 27.9643
80.8183 835 28.8964
80.9357 804 28.3549
81.053 868 29.4618
81.1704 851 29.1719
81.2877 903 30.05
81.4051 839 28.9655
81.5225 883 29.7153
81.6399 848 29.1204
81.7573 728 26.9815
81.8747 719 26.8142
81.9922 669 25.865
82.1096 658 25.6515
82.227 709 26.6271
82.3444 775 27.8388
82.4619 830 28.8097
82.5793 822 28.6705
82.6967 925 30.4138
82.8142 915 30.249
82.9316 923 30.3809
83.049 897 29.95
83.1664 872 29.5296
83.2838 907 30.1164
83.4012 860 29.3258
83.5186 845 29.0689
83.636 780 27.9285
83.7534 724 26.9072
83.8708 667 25.8263
83.9881 660 25.6905
84.1055 707 26.5895
84.2228 710 26.6458
84.3401 759 27.55
84.4575 877 29.6142
84.5747 830 28.8097
84.692 891 29.8496
84.8093 934 30.5614
84.9265 910 30.1662
85.0437 887 29.7825
85.1609 846 29.0861
85.2781 830 28.8097
85.3952 779 27.9106
85.5123 712 26.6833
85.6294 679 26.0576
85.7465 695 26.3629
85.8636 781 27.9464
85.9806 865 29.4109
86.0976 804 28.3549
86.2145 839 28.9655
86.3315 901 30.0167
86.4484 943 30.7083
86.5652 935 30.5778
86.682 946 30.7571
86.7988 922 30.3645
86.9156 870 29.4958
87.0323 823 28.688
87.149 749 27.3679
87.2657 739 27.1846
87.3823 635 25.1992
87.4988 640 25.2982
87.6154 576 24
87.7318 618 24.8596
87.8483 609 24.6779
87.9647 694 26.3439
88.081 730 27.0185
88.1973 667 25.8263
88.3136 613 24.7588
88.4298 597 24.4336
88.546 447 21.1424
88.6621 452 21.2603
88.7781 362 19.0263
88.8942 0 1
89.0101 0 1
89.126 0 1
89.2419 0 1
89.3577 0 1
89.4734 0 1
89.5891 0 1
89.7047 0 1
89.8203 0 1
89.9358 0 1
92.3269 0 1
92.4424 0 1
92.558 0 1
92.6736 0 1
92.7893 0 1
92.905 0 1
93.0208 0 1
93.1366 0 1
93.2525 0 1
93.3685 0 1
93.4845 0 1
93.6005 849 29.1376
93.7167 946 30.7571
93.8328 929 30.4795
93.949 874 29.5635
94.0653 860 29.3258
94.1816 854 29.2233
94.2979 791 28.1247
94.4143 776 27.8568
94.5307 801 28.3019
94.6472 840 28.9828
94.7637 912 30.1993
94.8803 939 30.6431
94.9969 955 30.9031
95.1135 1002 31.6544
95.2302 1015 31.8591
95.3469 1038 32.218
95.4637 1009 31.7648
95.5805 1034 32.1559
95.6973 937 30.6105
95.8142 924 30.3974
95.9311 866 29.4279
96.048 816 28.5657
96.1649 803 28.3373
96.2819 711 26.6646
96.3989 833 28.8617
96.516 853 29.2062
96.633 860 29.3258
96.7501 950 30.8221
96.8673 981 31.3209
96.9844 946 30.7571
97.1016 981 31.3209
97.2188 965 31.0644
97.336 888 29.7993
97.4532 815 28.5482
97.5704 790 28.1069
97.6877 791 28.1247
97.805 767 27.6948
97.9223 762 27.6043
98.0396 861 29.3428
98.1569 910 30.1662
98.2743 942 30.692
98.3916 958 30.9516
98.509 963 31.0322
98.6264 1018 31.9061
98.7438 989 31.4484
98.8612 1015 31.8591
98.9786 998 31.5911
99.096 946 30.7571
99.2134 895 29.9166
99.3308 907 30.1164
99.4482 831 28.8271
99.5656 845 29.0689
99.6831 763 27.6225
99.8005 755 27.4773
99.9179 809 28.4429
100.035 889 29.8161
100.153 912 30.1993
100.27 988 31.4325
100.388 982 31.3369
100.505 915 30.249
100.622 953 30.8707
100.74 915 30.249
100.857 897 29.95
100.975 834 28.8791
101.092 753 27.4408
101.209 773 27.8029
101.327 712 26.6833
101.444 772 27.7849
101.561 798 28.2489
101.679 841 29
101.796 973 31.1929
101.913 935 30.5778
102.03 913 30.2159
102.148 979 31.289
102.265 984 31.3688
102.382 1042 32.28
102.499 997 31.5753
102.616 1033 32.1403
102.733 977 31.257
102.851 970 31.1448
102.968 888 29.7993
103.085 901 30.0167
103.202 860 29.3258
103.319 846 29.0861
103.436 799 28.2666
103.552 881 29.6816
103.669 881 29.6816
103.786 1072 32.7414
103.903 1162 34.0881
104.02 1124 33.5261
104.137 1143 33.8083
104.253 1241 35.2278
104.37 1168 34.176
104.487 1217 34.8855
104.603 1190 34.4964
104.72 1129 33.6006
104.836 1098 33.1361
104.953 1012 31.8119
105.069 990 31.4643
105.186 1023 31.9844
105.302 1022 31.9687
105.418 1052 32.4345
105.535 1044 32.311
105.651 986 31.4006
105.767 890 29.8329
105.883 843 29.0345
105.999 749 27.3679
106.115 0 1
106.231 0 1
106.347 0 1
106.463 0 1
106.579 0 1
106.694 0 1
106.81 0 1
106.926 0 1
107.041 0 1
107.157 0 1
109.576 0 1
109.692 0 1
109.807 0 1
109.923 0 1
110.039 0 1
110.155 0 1
110.27 0 1
110.386 0 1
110.502 0 1
110.618 1274 35.6931
110.735 1613 40.1622
110.851 1850 43.0116
110.967 2004 44.7661
111.083 2169 46.5725
111.199 2306 48.0208
111.316 2444 49.4368
111.432 2484 49.8397
111.549 2616 51.1468
111.665 2642 51.4004
111.782 2497 49.97
111.898 2405 49.0408
112.015 2377 48.7545
112.132 2238 47.3075
112.248 2071 45.5082
112.365 2010 44.833
112.482 2059 45.3762
112.599 2265 47.592
112.716 2456 49.558
112.832 2602 51.0098
112.949 2597 50.9608
113.066 2624 51.225
113.183 2604 51.0294
113.3 2605 51.0392
113.417 2447 49.4672
113.534 2415 49.1426
113.652 2269 47.634
113.769 2086 45.6727
113.886 2078 45.5851
114.003 1920 43.8178
114.12 2057 45.3542
114.238 2152 46.3897
114.355 2295 47.9062
114.472 2315 48.1144
114.589 2478 49.7795
114.707 2395 48.9387
114.824 2335 48.3218
114.942 2361 48.5901
115.059 2487 49.8698
115.176 2394 48.9285
115.294 2367 48.6518
115.411 2245 47.3814
115.529 2237 47.2969
115.646 2074 45.5412
115.764 1875 43.3013
115.881 1816 42.6146
115.999 1868 43.2204
116.116 1948 44.1362
116.234 2152 46.3897
116.351 2116 46
116.469 2221 47.1275
116.586 2030 45.0555
116.704 2141 46.2709
116.821 2074 45.5412
116.939 1952 44.1814
117.056 1965 44.3283
117.174 1780 42.19
117.291 1705 41.2916
117.409 1442 37.9737
117.526 1451 38.092
117.644 1411 37.5633
117.761 1456 38.1576
117.879 1531 39.128
117.996 1483 38.5097
118.114 1560 39.4968
118.231 1523 39.0256
118.349 1528 39.0896
118.466 1408 37.5233
118.584 1469 38.3275
118.701 1436 37.8946
118.819 1310 36.1939
118.936 1293 35.9583
119.053 1201 34.6554
119.171 1212 34.8138
119.288 1045 32.3265
119.405 1009 31.7648
119.523 983 31.3528
119.64 950 30.8221
119.757 954 30.8869
119.875 1046 32.3419
119.992 1022 31.9687
120.109 1021 31.9531
120.226 1057 32.5115
120.343 1046 32.3419
120.46 976 31.241
120.578 908 30.133
120.695 936 30.5941
120.812 891 29.8496
120.929 915 30.249
121.046 806 28.3901
121.163 768 27.7128
121.279 733 27.074
121.396 748 27.3496
121.513 732 27.0555
121.63 773 27.8029
121.747 801 28.3019
121.863 737 27.1477
121.98 791 28.1247
122.097 789 28.0891
122.213 697 26.4008
122.33 735 27.1109
122.446 665 25.7876
122.563 690 26.2679
122.679 598 24.454
122.795 596 24.4131
122.912 471 21.7025
123.028 474 21.7715
123.144 374 19.3391
123.26 362 19.0263
123.377 0 1
123.493 0 1
123.609 0 1
123.725 0 1
123.84 0 1
123.956 0 1
124.072 0 1
124.188 0 1
124.303 0 1
124.419 0 1
126.852 0 1
126.968 0 1
127.083 0 1
127.199 0 1
127.315 0 1
127.431 0 1
127.547 0 1
127.663 0 1
127.779 0 1
127.895 0 1
128.011 0 1
128.127 0 1
128.243 0 1
128.359 736 27.1293
128.476 753 27.4408
128.592 743 27.258
128.708 771 27.7669
128.825 854 29.2233
128.941 863 29.3769
129.058 905 30.0832
129.174 935 30.5778
129.291 910 30.1662
129.408 902 30.0333
129.524 862 29.3598
129.641 843 29.0345
129.758 758 27.5318
129.875 806 28.3901
129.992 719 26.8142
130.108 721 26.8514
130.225 753 27.4408
130.342 770 27.7489
130.459 765 27.6586
130.576 885 29.7489
130.693 823 28.688
130.81 858 29.2916
130.928 876 29.5973
131.045 901 30.0167
131.162 916 30.2655
131.279 896 29.9333
131.396 906 30.0998
131.513 883 29.7153
131.631 812 28.4956
131.748 868 29.4618
131.865 763 27.6225
131.983 739 27.1846
132.1 723 26.8887
132.217 720 26.8328
132.335 803 28.3373
132.452 870 29.4958
132.57 832 28.8444
132.687 851 29.1719
132.804 921 30.348
132.922 818 28.6007
133.039 825 28.7228
133.157 823 28.688
133.274 837 28.931
133.392 756 27.4955
133.509 758 27.5318
133.627 732 27.0555
133.744 687 26.2107
133.862 758 27.5318
133.979 783 27.9821
134.097 839 28.9655
134.214 830 28.8097
134.332 857 29.2746
134.449 898 29.9666
134.567 847 29.1033
134.684 878 29.6311
134.802 845 29.0689
134.919 877 29.6142
135.037 900 30
135.154 848 29.1204
135.272 806 28.3901
135.389 780 27.9285
135.507 720 26.8328
135.624 771 27.7669
135.742 694 26.3439
135.859 790 28.1069
135.977 783 27.9821
136.094 879 29.6479
136.211 955 30.9031
136.329 890 29.8329
136.446 949 30.8058
136.564 846 29.0861
136.681 866 29.4279
136.798 877 29.6142
136.915 825 28.7228
137.033 819 28.6182
137.15 777 27.8747
137.267 724 26.9072
137.384 651 25.5147
137.502 750 27.3861
137.619 767 27.6948
137.736 807 28.4077
137.853 752 27.4226
137.97 815 28.5482
138.087 795 28.1957
138.204 866 29.4279
138.321 866 29.4279
138.438 838 28.9482
138.555 848 29.1204
138.672 826 28.7402
138.788 746 27.313
138.905 741 27.2213
139.022 728 26.9815
139.139 624 24.98
139.255 584 24.1661
139.372 610 24.6982
139.488 543 23.3024
139.605 625 25
139.721 613 24.7588
139.838 608 24.6577
139.954 570 23.8747
140.071 519 22.7816
140.187 475 21.7945
140.303 429 20.7123
140.419 351 18.735
140.535 381 19.5192
140.652 343 18.5203
140.768 0 1
140.884 0 1
141 0 1
141.115 0 1
141.231 0 1
141.347 0 1
141.463 0 1
141.578 0 1
141.694 0 1
144.104 0 1
144.219 0 1
144.335 0 1
144.45 0 1
144.566 0 1
144.682 0 1
144.798 0 1
144.914 0 1
145.03 0 1
145.146 654 25.5734
145.262 713 26.7021
145.378 753 27.4408
145.494 694 26.3439
145.61 657 25.632
145.726 635 25.1992
145.842 581 24.1039
145.959 570 23.8747
146.075 577 24.0208
146.192 650 25.4951
146.308 582 24.1247
146.425 603 24.5561
146.541 660 25.6905
146.658 608 24.6577
146.774 667 25.8263
146.891 710 26.6458
147.008 712 26.6833
147.125 724 26.9072
147.241 652 25.5343
147.358 733 27.074
147.475 675 25.9808
147.592 677 26.0192
147.709 717 26.7769
147.826 607 24.6374
147.943 657 25.632
148.06 613 24.7588
148.177 652 25.5343
148.294 659 25.671
148.411 674 25.9615
148.528 737 27.1477
148.645 763 27.6225
148.762 672 25.923
148.88 731 27.037
148.997 686 26.1916
149.114 736 27.1293
149.231 643 25.3574
149.349 679 26.0576
149.466 596 24.4131
149.583 659 25.671
149.701 569 23.8537
149.818 621 24.9199
149.935 555 23.5584
150.053 621 24.9199
150.17 607 24.6374
150.287 629 25.0799
150.405 664 25.7682
150.522 681 26.096
150.64 678 26.0384
150.757 689 26.2488
150.875 720 26.8328
150.992 672 25.923
151.11 666 25.807
151.227 666 25.807
151.344 692 26.3059
151.462 648 25.4558
151.579 576 24
151.697 582 24.1247
151.814 588 24.2487
151.932 638 25.2587
152.049 639 25.2784
152.167 684 26.1534
152.284 643 25.3574
152.402 651 25.5147
152.519 704 26.533
152.636 710 26.6458
152.754 689 26.2488
152.871 618 24.8596
152.989 667 25.8263
153.106 594 24.3721
153.223 574 23.9583
153.341 576 24
153.458 573 23.9374
153.575 597 24.4336
153.693 590 24.2899
153.81 628 25.0599
153.927 706 26.5707
154.044 604 24.5764
154.162 678 26.0384
154.279 642 25.3377
154.396 681 26.096
154.513 643 25.3574
154.63 695 26.3629
154.747 732 27.0555
154.864 654 25.5734
154.981 682 26.1151
155.098 606 24.6171
155.215 610 24.6982
155.332 631 25.1197
155.449 605 24.5967
155.566 701 26.4764
155.683 634 25.1794
155.8 638 25.2587
155.917 665 25.7876
156.033 617 24.8395
156.15 0 1
156.267 0 1
156.383 0 1
156.5 0 1
156.617 0 1
156.733 0 1
156.85 0 1
156.966 0 1
157.082 0 1
157.199 0 1
157.315 0 1
157.431 0 1
157.547 0 1
157.664 0 1
157.78 0 1
157.896 0 1
158.012 0 1
158.128 0 1
158.244 0 1
158.359 0 1
158.475 0 1
158.591 0 1
158.706 0 1
