
6.15755 0 1
6.2731 0 1
6.3887 0 1
6.50437 0 1
6.62009 0 1
6.73587 0 1
6.8517 0 1
6.96759 0 1
7.08353 0 1
7.19952 0 1
7.31557 0 1
7.43166 0 1
7.54781 0 1
7.664 0 1
7.78024 0 1
7.89653 0 1
8.01286 0 1
8.12924 0 1
8.24567 0 1
8.36213 0 1
8.47864 0 1
8.59519 0 1
8.71178 0 1
8.82841 0 1
8.94508 0 1
9.06179 0 1
9.17853 0 1
9.29531 0 1
9.41212 0 1
9.52897 0 1
9.64584 0 1
9.76276 0 1
9.8797 0 1
9.99667 0 1
10.1137 0 1
10.2307 0 1
10.3478 0 1
10.4648 0 1
10.5819 0 1
10.6991 0 1
10.8162 0 1
10.9334 0 1
11.0506 0 1
11.1678 0 1
11.285 0 1
11.4023 0 1
11.5196 0 1
11.6369 0 1
11.7542 0 1
11.8715 0 1
11.9888 0 1
12.1062 0 1
12.2235 0 1
12.3409 0 1
12.4582 0 1
12.5756 0 1
12.693 0 1
12.8104 0 1
12.9278 0 1
13.0452 0 1
13.1626 0 1
13.28 0 1
13.3974 0 1
13.5149 0 1
13.6323 0 1
13.7497 0 1
13.8671 0 1
13.9845 0 1
14.1019 0 1
14.2193 0 1
14.3367 0 1
14.4541 0 1
14.5714 0 1
14.6888 0 1
14.8062 0 1
14.9235 0 1
15.0408 23119 152.049
15.1581 24030 155.016
15.2755 24811 157.515
15.3927 24829 157.572
15.51 24354 156.058
15.6273 24088 155.203
15.7445 23783 154.217
15.8617 23480 153.232
15.9789 22936 151.446
16.0961 22789 150.96
16.2132 22645 150.483
16.3304 22561 150.203
16.4475 22679 150.595
16.5646 23076 151.908
16.6816 23236 152.434
16.7986 23280 152.578
16.9156 23449 153.131
17.0326 23458 153.16
17.1496 23740 154.078
17.2665 24042 155.055
17.3833 24465 156.413
17.5002 24721 157.229
17.617 25008 158.139
17.7338 25690 160.281
17.8505 26416 162.53
17.9672 27279 165.164
18.0839 28516 168.867
18.2005 29656 172.209
18.3171 30406 174.373
18.4337 30302 174.075
18.5502 30352 174.218
18.6666 30500 174.642
18.7831 30102 173.499
18.8994 29168 170.786
19.0158 28329 168.312
19.1321 27197 164.915
19.2483 26659 163.276
19.3645 25904 160.947
19.4806 25284 159.009
19.5967 24945 157.94
19.7128 24239 155.689
19.8288 23489 153.261
19.9447 20917 144.627
20.0606 0 1
20.1764 0 1
20.2922 0 1
20.4079 0 1
20.5236 0 1
20.6392 0 1
20.7548 0 1
20.8702 0 1
23.3078 0 1
23.4233 0 1
23.539 0 1
23.6547 0 1
23.7704 0 1
23.8862 0 1
24.0021 0 1
24.118 0 1
24.234 0 1
24.35 0 1
24.4661 24687 157.121
24.5822 24476 156.448
24.6984 24307 155.907
24.8146 24282 155.827
24.9309 24133 155.348
25.0472 23818 154.331
25.1636 23811 154.308
25.28 23671 153.854
25.3965 24307 155.907
25.513 24766 157.372
25.6296 25764 160.512
25.7462 26062 161.437
25.8628 26396 162.468
25.9795 26586 163.052
26.0962 26728 163.487
26.213 26945 164.149
26.3298 27223 164.994
26.4466 27253 165.085
26.5635 28038 167.446
26.6804 28819 169.762
26.7973 29011 170.326
26.9143 28950 170.147
27.0313 28535 168.923
27.1483 28988 170.259
27.2653 28919 170.056
27.3824 28774 169.629
27.4996 27987 167.293
27.6167 26934 164.116
27.7339 25948 161.084
27.8511 25201 158.748
27.9683 24594 156.825
28.0855 24188 155.525
28.2028 23936 154.713
28.3201 23497 153.287
28.4374 23680 153.883
28.5547 23693 153.925
28.6721 23361 152.843
28.7894 23022 151.73
28.9068 23279 152.575
29.0242 23588 153.584
29.1416 23484 153.245
29.259 23471 153.202
29.3764 24108 155.268
29.4939 24215 155.612
29.6113 24351 156.048
29.7288 25072 158.341
29.8463 25248 158.896
29.9638 25760 160.499
30.0812 26631 163.19
30.1987 27066 164.517
30.3162 27450 165.68
30.4337 27644 166.265
30.5512 27693 166.412
30.6687 26938 164.128
30.7862 27335 165.333
30.9037 26490 162.757
31.0212 26170 161.771
31.1387 25475 159.609
31.2562 24855 157.655
31.3737 24022 154.99
31.4912 23588 153.584
31.6087 23052 151.829
31.7262 22347 149.489
31.8436 22736 150.785
31.9611 22634 150.446
32.0785 22514 150.047
32.1959 22966 151.545
32.3134 22992 151.631
32.4308 23445 153.118
32.5482 23060 151.855
32.6655 23410 153.003
32.7829 23199 152.312
32.9002 23186 152.269
33.0176 23037 151.779
33.1349 23438 153.095
33.2522 23760 154.143
33.3694 23718 154.006
33.4867 24318 155.942
33.6039 24866 157.69
33.7211 25490 159.656
33.8383 26075 161.478
33.9554 26375 162.404
34.0725 26216 161.914
34.1896 25652 160.162
34.3067 25566 159.894
34.4237 25584 159.95
34.5407 25147 158.578
34.6577 24163 155.445
34.7746 23606 153.642
34.8915 23032 151.763
35.0084 22451 149.837
35.1252 21960 148.189
35.242 21915 148.037
35.3587 21440 146.424
35.4755 21182 145.54
35.5921 21583 146.912
35.7088 21948 148.149
35.8254 22401 149.67
35.9419 23053 151.832
36.0584 22809 151.026
36.1749 23115 152.036
36.2913 22976 151.578
36.4077 22231 149.101
36.524 22438 149.793
36.6403 21740 147.445
36.7565 22096 148.647
36.8727 21969 148.219
36.9889 22219 149.06
37.1049 22247 149.154
37.221 0 1
37.3369 0 1
37.4529 0 1
37.5687 0 1
37.6845 0 1
37.8003 0 1
37.916 0 1
38.0316 0 1
38.1472 0 1
40.5851 0 1
40.7008 0 1
40.8164 0 1
40.9322 0 1
41.048 0 1
41.1639 0 1
41.2798 0 1
41.3958 0 1
41.5118 0 1
41.6279 0 1
41.744 17639 132.812
41.8602 18236 135.041
41.9765 18892 137.448
42.0928 18955 137.677
42.2091 19224 138.651
42.3255 19265 138.798
42.4419 19556 139.843
42.5584 20176 142.042
42.675 20615 143.579
42.7915 20975 144.827
42.9081 20940 144.707
43.0248 20897 144.558
43.1415 21172 145.506
43.2582 21271 145.846
43.375 21129 145.358
43.4918 21228 145.698
43.6087 21103 145.269
43.7256 20954 144.755
43.8425 20509 143.21
43.9595 20005 141.439
44.0765 19968 141.308
44.1935 19464 139.513
44.3106 19688 140.314
44.4277 19350 139.104
44.5448 19162 138.427
44.6619 18847 137.284
44.7791 18858 137.324
44.8963 18512 136.059
45.0136 18293 135.252
45.1308 17838 133.559
45.2481 17849 133.6
45.3654 17143 130.931
45.4827 17143 130.931
45.6001 16780 129.538
45.7174 16615 128.899
45.8348 16316 127.734
45.9522 15745 125.479
46.0697 15916 126.159
46.1871 15447 124.286
46.3046 15613 124.952
46.422 15611 124.944
46.5395 15480 124.419
46.657 15172 123.175
46.7745 15649 125.096
46.892 15364 123.952
47.0096 14842 121.828
47.1271 14767 121.52
47.2446 14629 120.95
47.3622 14239 119.327
47.4797 14066 118.6
47.5973 13892 117.864
47.7149 13704 117.064
47.8324 13817 117.546
47.95 13368 115.62
48.0675 13319 115.408
48.1851 12846 113.34
48.3027 12899 113.574
48.4202 12438 111.526
48.5378 12221 110.549
48.6554 12144 110.2
48.7729 12227 110.576
48.8904 12005 109.567
49.008 12060 109.818
49.1255 11792 108.591
49.243 11731 108.31
49.3605 11768 108.48
49.478 11670 108.028
49.5955 11983 109.467
49.713 11910 109.133
49.8304 12029 109.677
49.9479 12319 110.991
50.0653 12479 111.709
50.1827 12829 113.265
50.3001 13069 114.32
50.4175 13427 115.875
50.5348 13214 114.952
50.6521 13637 116.778
50.7694 13871 117.775
50.8867 14254 119.39
51.004 14778 121.565
51.1212 14919 122.143
51.2384 15738 125.451
51.3556 16034 126.625
51.4727 16157 127.11
51.5899 15966 126.357
51.707 16099 126.882
51.824 15903 126.107
51.9411 15745 125.479
52.0581 15484 124.435
52.175 15754 125.515
52.2919 15904 126.111
52.4088 15813 125.75
52.5257 15582 124.828
52.6425 15191 123.252
52.7593 15331 123.818
52.876 15457 124.326
52.9927 15544 124.676
53.1094 16243 127.448
53.226 16257 127.503
53.3426 16937 130.142
53.4591 17216 131.21
53.5756 17665 132.91
53.692 17975 134.071
53.8084 18672 136.646
53.9248 19012 137.884
54.0411 19177 138.481
54.1573 19378 139.205
54.2735 0 1
54.3896 0 1
54.5057 0 1
54.6217 0 1
54.7377 0 1
54.8537 0 1
54.9695 0 1
55.0853 0 1
55.2011 0 1
55.3168 0 1
55.4324 0 1
57.824 0 1
57.9396 0 1
58.0553 0 1
58.1711 0 1
58.2869 0 1
58.4028 0 1
58.5187 0 1
58.6347 0 1
58.7508 0 1
58.8669 0 1
58.983 21186 145.554
59.0992 22326 149.419
59.2155 22820 151.063
59.3318 23106 152.007
59.4482 23449 153.131
59.5646 24891 157.769
59.681 25409 159.402
59.7975 25723 160.384
59.9141 25799 160.621
60.0306 25406 159.393
60.1473 24692 157.137
60.2639 24078 155.171
60.3807 22994 151.638
60.4974 22432 149.773
60.6142 21876 147.905
60.731 20911 144.606
60.8479 19621 140.075
60.9648 19232 138.679
61.0818 18675 136.657
61.1987 18381 135.577
61.3158 19009 137.873
61.4328 19259 138.777
61.5499 19656 140.2
61.667 19682 140.293
61.7841 19827 140.808
61.9013 19779 140.638
62.0185 20515 143.231
62.1357 20644 143.68
62.253 20625 143.614
62.3702 20644 143.68
62.4875 20924 144.651
62.6049 21384 146.233
62.7222 21546 146.786
62.8396 22216 149.05
62.9569 23173 152.227
63.0743 23718 154.006
63.1918 24085 155.193
63.3092 24213 155.605
63.4267 24269 155.785
63.5441 24141 155.374
63.6616 23211 152.352
63.7791 22915 151.377
63.8966 21643 147.116
64.0142 20689 143.837
64.1317 19817 140.773
64.2492 18423 135.731
64.3668 17746 133.214
64.4843 17178 131.065
64.6019 16840 129.769
64.7195 16929 130.111
64.837 17063 130.625
64.9546 17784 133.357
65.0722 18341 135.429
65.1898 18380 135.573
65.3074 18544 136.176
65.4249 18321 135.355
65.5425 18843 137.27
65.6601 19045 138.004
65.7777 19655 140.196
65.8952 19513 139.689
66.0128 19942 141.216
66.1304 20077 141.693
66.2479 20189 142.088
66.3655 21155 145.448
66.483 22208 149.023
66.6005 22845 151.146
66.718 23083 151.931
66.8355 23520 153.362
66.953 23424 153.049
67.0705 23390 152.938
67.1879 23324 152.722
67.3054 22331 149.436
67.4228 21511 146.666
67.5402 19584 139.943
67.6576 18188 134.863
67.7749 17335 131.662
67.8923 16998 130.376
68.0096 16894 129.977
68.1269 16571 128.728
68.2442 16642 129.004
68.3614 16647 129.023
68.4787 16896 129.985
68.5958 18118 134.603
68.713 18281 135.207
68.8302 18858 137.324
68.9473 18455 135.849
69.0643 18673 136.649
69.1814 18882 137.412
69.2984 19628 140.1
69.4154 20090 141.739
69.5323 19896 141.053
69.6492 20544 143.332
69.7661 21344 146.096
69.8829 22511 150.037
69.9997 23276 152.565
70.1165 23902 154.603
70.2332 24061 155.116
70.3499 24690 157.131
70.4665 25105 158.446
70.5831 24920 157.861
70.6996 24664 157.048
70.8161 24129 155.335
70.9326 22834 151.109
71.049 20960 144.776
71.1653 19693 140.332
71.2817 18526 136.11
71.3979 17592 132.635
71.5141 17032 130.507
71.6303 16451 128.261
71.7464 15595 124.88
71.8624 0 1
71.9784 0 1
72.0944 0 1
72.2102 0 1
72.3261 0 1
72.4418 0 1
72.5575 0 1
72.6732 0 1
75.1054 0 1
75.2209 0 1
75.3365 0 1
75.4521 0 1
75.5678 0 1
75.6835 0 1
75.7993 0 1
75.9151 0 1
76.031 0 1
76.147 21280 145.877
76.263 21169 145.496
76.3791 20197 142.116
76.4952 19048 138.014
76.6113 18531 136.129
76.7276 17890 133.754
76.8438 18104 134.551
76.9601 17977 134.078
77.0765 17796 133.402
77.1929 17686 132.989
77.3093 17396 131.894
77.4258 17583 132.601
77.5423 19054 138.036
77.6589 19503 139.653
77.7755 19409 139.316
77.8921 18780 137.04
78.0088 18976 137.753
78.1256 19369 139.173
78.2423 19597 139.989
78.3591 20000 141.421
78.4759 20652 143.708
78.5928 21144 145.41
78.7097 22041 148.462
78.8266 22361 149.536
78.9436 23937 154.716
79.0606 23547 153.45
79.1776 23953 154.768
79.2946 24336 156
79.4117 25024 158.19
79.5288 24809 157.509
79.6459 24301 155.888
79.7631 23188 152.276
79.8802 22128 148.755
79.9974 20311 142.517
80.1147 19520 139.714
80.2319 18594 136.36
80.3491 18353 135.473
80.4664 18065 134.406
80.5837 17899 133.787
80.701 17613 132.714
80.8183 17561 132.518
80.9357 17621 132.744
81.053 17692 133.011
81.1704 18743 136.905
81.2877 18925 137.568
81.4051 19483 139.582
81.5225 18996 137.826
81.6399 18587 136.334
81.7573 19328 139.025
81.8747 19328 139.025
81.9922 19904 141.082
82.1096 20786 144.174
82.227 21725 147.394
82.3444 22427 149.756
82.4619 23854 154.447
82.5793 24456 156.384
82.6967 24069 155.142
82.8142 24661 157.038
82.9316 25069 158.332
83.049 25407 159.396
83.1664 24575 156.764
83.2838 24072 155.152
83.4012 22975 151.575
83.5186 20926 144.658
83.636 20025 141.51
83.7534 19401 139.287
83.8708 19039 137.982
83.9881 18820 137.186
84.1055 18288 135.233
84.2228 18592 136.352
84.3401 18435 135.776
84.4575 18462 135.875
84.5747 18602 136.389
84.692 19457 139.488
84.8093 20507 143.203
84.9265 20466 143.059
85.0437 20412 142.871
85.1609 19713 140.403
85.2781 19878 140.989
85.3952 19995 141.404
85.5123 20887 144.523
85.6294 21289 145.908
85.7465 22751 150.834
85.8636 23702 153.955
85.9806 24875 157.718
86.0976 25127 158.515
86.2145 25462 159.568
86.3315 25713 160.353
86.4484 26679 163.337
86.5652 26893 163.991
86.682 27422 165.596
86.7988 26327 162.256
86.9156 25635 160.109
87.0323 24316 155.936
87.149 22390 149.633
87.2657 21776 147.567
87.3823 21292 145.918
87.4988 20864 144.444
87.6154 20265 142.355
87.7318 20138 141.908
87.8483 19896 141.053
87.9647 19982 141.358
88.081 19706 140.378
88.1973 20639 143.663
88.3136 21806 147.669
88.4298 21923 148.064
88.546 21125 145.344
88.6621 20116 141.831
88.7781 20091 141.743
88.8942 0 1
89.0101 0 1
89.126 0 1
89.2419 0 1
89.3577 0 1
89.4734 0 1
89.5891 0 1
89.7047 0 1
89.8203 0 1
89.9358 0 1
92.3269 0 1
92.4424 0 1
92.558 0 1
92.6736 0 1
92.7893 0 1
92.905 0 1
93.0208 0 1
93.1366 0 1
93.2525 0 1
93.3685 0 1
93.4845 0 1
93.6005 19774 140.62
93.7167 20151 141.954
93.8328 19772 140.613
93.949 19564 139.871
94.0653 19605 140.018
94.1816 20159 141.982
94.2979 20237 142.257
94.4143 21476 146.547
94.5307 21767 147.536
94.6472 22879 151.258
94.7637 23715 153.997
94.8803 24425 156.285
94.9969 25141 158.559
95.1135 25346 159.204
95.2302 25087 158.389
95.3469 25354 159.229
95.4637 25567 159.897
95.5805 25981 161.186
95.6973 25731 160.409
95.8142 25230 158.84
95.9311 23951 154.761
96.048 23135 152.102
96.1649 22194 148.977
96.2819 21560 146.833
96.3989 21049 145.083
96.516 20727 143.969
96.633 20016 141.478
96.7501 19629 140.104
96.8673 19883 141.007
96.9844 19522 139.721
97.1016 19393 139.259
97.2188 19822 140.791
97.336 20140 141.915
97.4532 20149 141.947
97.5704 19897 141.057
97.6877 19238 138.701
97.805 19023 137.924
97.9223 19161 138.423
98.0396 19512 139.685
98.1569 20060 141.633
98.2743 20895 144.551
98.3916 21869 147.882
98.509 23037 151.779
98.6264 23228 152.407
98.7438 24202 155.57
98.8612 24105 155.258
98.9786 24093 155.219
99.096 24707 157.185
99.2134 25157 158.61
99.3308 25069 158.332
99.4482 24883 157.743
99.5656 24090 155.21
99.6831 23013 151.7
99.8005 21692 147.282
99.9179 20999 144.91
100.035 19932 141.181
100.153 19648 140.171
100.27 19059 138.054
100.388 18940 137.623
100.505 18699 136.744
100.622 18301 135.281
100.74 18484 135.956
100.857 18888 137.434
100.975 19426 139.377
101.092 19227 138.661
101.209 18868 137.361
101.327 18713 136.795
101.444 18533 136.136
101.561 19065 138.076
101.679 19617 140.061
101.796 20497 143.168
101.913 21469 146.523
102.03 22698 150.659
102.148 24001 154.923
102.265 23108 152.013
102.382 26909 164.04
102.499 24928 157.886
102.616 25295 159.044
102.733 25979 161.18
102.851 26693 163.38
102.968 26897 164.003
103.085 25870 160.842
103.202 24591 156.815
103.319 23621 153.691
103.436 22683 150.609
103.552 22122 148.735
103.669 21189 145.564
103.786 21116 145.313
103.903 20866 144.451
104.02 20522 143.255
104.137 20489 143.14
104.253 20232 142.239
104.37 20703 143.885
104.487 21060 145.121
104.603 20852 144.402
104.72 20153 141.961
104.836 20222 142.204
104.953 20436 142.955
105.069 20655 143.718
105.186 21496 146.615
105.302 22340 149.466
105.418 23785 154.224
105.535 25172 158.657
105.651 26075 161.478
105.767 25971 161.155
105.883 25006 158.133
105.999 25135 158.54
106.115 0 1
106.231 0 1
106.347 0 1
106.463 0 1
106.579 0 1
106.694 0 1
106.81 0 1
106.926 0 1
107.041 0 1
107.157 0 1
109.576 0 1
109.692 0 1
109.807 0 1
109.923 0 1
110.039 0 1
110.155 0 1
110.27 0 1
110.386 0 1
110.502 0 1
110.618 21192 145.575
110.735 22455 149.85
110.851 22918 151.387
110.967 21824 147.729
111.083 21597 146.959
111.199 22599 150.33
111.316 23442 153.108
111.432 24222 155.634
111.549 23778 154.201
111.665 22730 150.765
111.782 21870 147.885
111.898 20972 144.817
112.015 20290 142.443
112.132 19774 140.62
112.248 19043 137.996
112.365 18483 135.952
112.482 18310 135.314
112.599 17087 130.717
112.716 16864 129.861
112.832 16867 129.873
112.949 16611 128.884
113.066 16426 128.164
113.183 15884 126.032
113.3 15701 125.304
113.417 15832 125.825
113.534 15964 126.349
113.652 16759 129.457
113.769 16913 130.05
113.886 17444 132.076
114.003 18021 134.242
114.12 18451 135.834
114.238 19199 138.56
114.355 18930 137.586
114.472 18450 135.831
114.589 17090 130.729
114.707 17855 133.623
114.824 18613 136.429
114.942 19366 139.162
115.059 19269 138.813
115.176 18592 136.352
115.294 17895 133.772
115.411 17261 131.381
115.529 16783 129.549
115.646 16326 127.773
115.764 15687 125.248
115.881 15017 122.544
115.999 14582 120.756
116.116 13693 117.017
116.234 13482 116.112
116.351 13139 114.625
116.469 13044 114.21
116.586 12642 112.437
116.704 12117 110.077
116.821 12483 111.727
116.939 12512 111.857
117.056 12875 113.468
117.174 13073 114.337
117.291 13602 116.628
117.409 14195 119.143
117.526 14136 118.895
117.644 14435 120.146
117.761 14868 121.934
117.879 15412 124.145
117.996 14764 121.507
118.114 14413 120.054
118.231 14106 118.769
118.349 14739 121.404
118.466 15885 126.036
118.584 16585 128.783
118.701 16188 127.232
118.819 16381 127.988
118.936 16262 127.523
119.053 16018 126.562
119.171 15339 123.851
119.288 15447 124.286
119.405 15056 122.703
119.523 14704 121.26
119.64 14139 118.908
119.757 13930 118.025
119.875 13600 116.619
119.992 13235 115.043
120.109 12914 113.64
120.226 12941 113.759
120.343 13229 115.017
120.46 13121 114.547
120.578 13340 115.499
120.695 14231 119.294
120.812 14615 120.893
120.929 14755 121.47
121.046 15491 124.463
121.163 15895 126.075
121.279 16084 126.823
121.396 16749 129.418
121.513 17165 131.015
121.63 16803 129.626
121.747 15731 125.423
121.863 14860 121.902
121.98 15467 124.366
122.097 16995 130.365
122.213 18269 135.163
122.33 18579 136.305
122.446 18811 137.153
122.563 18855 137.314
122.679 18786 137.062
122.795 18357 135.488
122.912 18174 134.811
123.028 18027 134.265
123.144 17584 132.605
123.26 16886 129.946
123.377 0 1
123.493 0 1
123.609 0 1
123.725 0 1
123.84 0 1
123.956 0 1
124.072 0 1
124.188 0 1
124.303 0 1
124.419 0 1
126.852 0 1
126.968 0 1
127.083 0 1
127.199 0 1
127.315 0 1
127.431 0 1
127.547 0 1
127.663 0 1
127.779 0 1
127.895 0 1
128.011 0 1
128.127 0 1
128.243 0 1
128.359 20842 144.368
128.476 20398 142.822
128.592 19863 140.936
128.708 19256 138.766
128.825 18943 137.634
128.941 18670 136.638
129.058 17967 134.041
129.174 17435 132.042
129.291 17444 132.076
129.408 17749 133.225
129.524 17418 131.977
129.641 17592 132.635
129.758 17523 132.374
129.875 17738 133.184
129.992 17999 134.16
130.108 18023 134.25
130.225 18069 134.421
130.342 18577 136.297
130.459 18598 136.374
130.576 17750 133.229
130.693 15796 125.682
130.81 13769 117.341
130.928 14217 119.235
131.045 16722 129.314
131.162 18286 135.226
131.279 18622 136.462
131.396 18642 136.536
131.513 18543 136.173
131.631 18481 135.945
131.748 18101 134.54
131.865 18230 135.019
131.983 17892 133.761
132.1 17544 132.454
132.217 17427 132.011
132.335 17042 130.545
132.452 16523 128.542
132.57 16021 126.574
132.687 15096 122.866
132.804 15909 126.131
132.922 15445 124.278
133.039 15230 123.41
133.157 15315 123.754
133.274 15386 124.04
133.392 15416 124.161
133.509 15328 123.806
133.627 15660 125.14
133.744 15296 123.677
133.862 15682 125.228
133.979 15429 124.214
134.097 15134 123.02
134.214 13329 115.451
134.332 10913 104.465
134.449 11293 106.269
134.567 13297 115.313
134.684 14605 120.851
134.802 14791 121.618
134.919 14832 121.787
135.037 14968 122.344
135.154 14832 121.787
135.272 14618 120.905
135.389 14464 120.266
135.507 14658 121.07
135.624 14401 120.004
135.742 14295 119.562
135.859 13588 116.568
135.977 13398 115.75
136.094 12977 113.917
136.211 12745 112.894
136.329 12685 112.628
136.446 12511 111.853
136.564 12591 112.21
136.681 11842 108.821
136.798 12565 112.094
136.915 12008 109.581
137.033 11989 109.494
137.15 12054 109.791
137.267 12076 109.891
137.384 12212 110.508
137.502 12274 110.788
137.619 11775 108.513
137.736 11574 107.583
137.853 9874 99.368
137.97 8917 94.4299
138.087 9907 99.5339
138.204 11412 106.827
138.321 12395 111.333
138.438 12846 113.34
138.555 13019 114.101
138.672 13345 115.521
138.788 13320 115.412
138.905 13497 116.177
139.022 13512 116.241
139.139 13609 116.658
139.255 13591 116.58
139.372 13482 116.112
139.488 13813 117.529
139.605 13557 116.435
139.721 13535 116.34
139.838 13510 116.233
139.954 13897 117.886
140.071 13419 115.84
140.187 13641 116.795
140.303 13300 115.326
140.419 13368 115.62
140.535 13470 116.06
140.652 13037 114.18
140.768 0 1
140.884 0 1
141 0 1
141.115 0 1
141.231 0 1
141.347 0 1
141.463 0 1
141.578 0 1
141.694 0 1
144.104 0 1
144.219 0 1
144.335 0 1
144.45 0 1
144.566 0 1
144.682 0 1
144.798 0 1
144.914 0 1
145.03 0 1
145.146 10980 104.785
145.262 11134 105.518
145.378 10953 104.657
145.494 10724 103.557
145.61 10675 103.32
145.726 10557 102.747
145.842 10229 101.139
145.959 10336 101.666
146.075 10423 102.093
146.192 10317 101.573
146.308 9996 99.98
146.425 9808 99.0353
146.541 9097 95.3782
146.658 8690 93.2202
146.774 8494 92.1629
146.891 9045 95.1052
147.008 9320 96.5401
147.125 9339 96.6385
147.241 9611 98.0357
147.358 9449 97.206
147.475 9300 96.4365
147.592 9176 95.7914
147.709 8970 94.7101
147.826 8895 94.3133
147.943 8940 94.5516
148.06 8675 93.1397
148.177 8657 93.043
148.294 8613 92.8062
148.411 8454 91.9456
148.528 8295 91.0769
148.645 8180 90.4434
148.762 8071 89.8387
148.88 7757 88.0738
148.997 7990 89.3868
149.114 7264 85.2291
149.231 7377 85.8895
149.349 7324 85.5804
149.466 7581 87.0689
149.583 7423 86.1568
149.701 7463 86.3887
149.818 7454 86.3366
149.935 7501 86.6083
150.053 7341 85.6796
150.17 7322 85.5687
150.287 7267 85.2467
150.405 7296 85.4166
150.522 7621 87.2983
150.64 7763 88.1079
150.757 7824 88.4534
150.875 8105 90.0278
150.992 7823 88.4477
151.11 8239 90.7689
151.227 8103 90.0167
151.344 7986 89.3644
151.462 7940 89.1067
151.579 7816 88.4081
151.697 7943 89.1235
151.814 7926 89.0281
151.932 8061 89.7831
152.049 8199 90.5483
152.167 7962 89.23
152.284 7785 88.2326
152.402 7811 88.3799
152.519 7861 88.6623
152.636 7612 87.2468
152.754 7904 88.9044
152.871 7886 88.8032
152.989 8017 89.5377
153.106 8208 90.598
153.223 7965 89.2468
153.341 7855 88.6284
153.458 7963 89.2356
153.575 7666 87.5557
153.693 7902 88.8932
153.81 8279 90.989
153.927 8847 94.0585
154.044 9115 95.4725
154.162 9302 96.4469
154.279 9553 97.7394
154.396 9811 99.0505
154.513 10043 100.215
154.63 10402 101.99
154.747 10445 102.201
154.864 10453 102.24
154.981 10324 101.607
155.098 10363 101.799
155.215 10317 101.573
155.332 10419 102.074
155.449 10480 102.372
155.566 10337 101.671
155.683 10333 101.651
155.8 9967 99.8349
155.917 9683 98.4022
156.033 9419 97.0515
156.15 0 1
156.267 0 1
156.383 0 1
156.5 0 1
156.617 0 1
156.733 0 1
156.85 0 1
156.966 0 1
157.082 0 1
157.199 0 1
157.315 0 1
157.431 0 1
157.547 0 1
157.664 0 1
157.78 0 1
157.896 0 1
158.012 0 1
158.128 0 1
158.244 0 1
158.359 0 1
158.475 0 1
158.591 0 1
158.706 0 1
