
6.15755 0 1
6.2731 0 1
6.3887 0 1
6.50437 0 1
6.62009 0 1
6.73587 0 1
6.8517 0 1
6.96759 0 1
7.08353 0 1
7.19952 0 1
7.31557 0 1
7.43166 0 1
7.54781 0 1
7.664 0 1
7.78024 0 1
7.89653 0 1
8.01286 0 1
8.12924 0 1
8.24567 0 1
8.36213 0 1
8.47864 0 1
8.59519 0 1
8.71178 0 1
8.82841 0 1
8.94508 0 1
9.06179 0 1
9.17853 0 1
9.29531 0 1
9.41212 0 1
9.52897 0 1
9.64584 0 1
9.76276 0 1
9.8797 0 1
9.99667 0 1
10.1137 0 1
10.2307 0 1
10.3478 0 1
10.4648 0 1
10.5819 0 1
10.6991 0 1
10.8162 0 1
10.9334 0 1
11.0506 0 1
11.1678 0 1
11.285 0 1
11.4023 0 1
11.5196 0 1
11.6369 0 1
11.7542 0 1
11.8715 0 1
11.9888 0 1
12.1062 0 1
12.2235 0 1
12.3409 0 1
12.4582 0 1
12.5756 0 1
12.693 0 1
12.8104 0 1
12.9278 0 1
13.0452 0 1
13.1626 0 1
13.28 0 1
13.3974 0 1
13.5149 0 1
13.6323 0 1
13.7497 0 1
13.8671 0 1
13.9845 0 1
14.1019 0 1
14.2193 0 1
14.3367 0 1
14.4541 0 1
14.5714 0 1
14.6888 0 1
14.8062 0 1
14.9235 0 1
15.0408 0 0
15.1581 0 0
15.2755 0 0
15.3927 0 0
15.51 0 0
15.6273 0 0
15.7445 0 0
15.8617 0 0
15.9789 0 0
16.0961 0 0
16.2132 0 0
16.3304 0 0
16.4475 0 0
16.5646 0 0
16.6816 0 0
16.7986 0 0
16.9156 0 0
17.0326 0 0
17.1496 0 0
17.2665 0 0
17.3833 0 0
17.5002 0 0
17.617 0 0
17.7338 0 0
17.8505 0 0
17.9672 0 0
18.0839 0 0
18.2005 0 0
18.3171 0 0
18.4337 0 0
18.5502 0 0
18.6666 0 0
18.7831 0 0
18.8994 0 0
19.0158 0 0
19.1321 0 0
19.2483 0 0
19.3645 0 0
19.4806 0 0
19.5967 0 0
19.7128 0 0
19.8288 0 0
19.9447 0 0
20.0606 0 1
20.1764 0 1
20.2922 0 1
20.4079 0 1
20.5236 0 1
20.6392 0 1
20.7548 0 1
20.8702 0 1
23.3078 0 1
23.4233 0 1
23.539 0 1
23.6547 0 1
23.7704 0 1
23.8862 0 1
24.0021 0 1
24.118 0 1
24.234 0 1
24.35 0 1
24.4661 60958 246.897
24.5822 68941 262.566
24.6984 75951 275.592
24.8146 82792 287.736
24.9309 89643 299.404
25.0472 95312 308.726
25.1636 99478 315.401
25.28 100869 317.599
25.3965 99614 315.617
25.513 98558 313.939
25.6296 97219 311.8
25.7462 95827 309.559
25.8628 92841 304.698
25.9795 90503 300.837
26.0962 88965 298.27
26.213 87319 295.498
26.3298 88100 296.816
26.4466 88890 298.144
26.5635 89566 299.276
26.6804 92058 303.411
26.7973 94026 306.637
26.9143 95013 308.242
27.0313 97459 312.184
27.1483 100541 317.082
27.2653 101377 318.398
27.3824 103757 322.113
27.4996 104433 323.161
27.6167 99872 316.025
27.7339 97544 312.32
27.8511 97717 312.597
27.9683 102110 319.547
28.0855 106814 326.824
28.2028 108117 328.811
28.3201 108414 329.263
28.4374 108588 329.527
28.5547 108015 328.656
28.6721 108278 329.056
28.7894 105801 325.271
28.9068 104276 322.918
29.0242 101388 318.415
29.1416 97949 312.968
29.259 94522 307.444
29.3764 92060 303.414
29.4939 89677 299.461
29.6113 88266 297.096
29.7288 87638 296.037
29.8463 88229 297.034
29.9638 89506 299.176
30.0812 91469 302.438
30.1987 93468 305.725
30.3162 95069 308.333
30.4337 97043 311.517
30.5512 99144 314.871
30.6687 100058 316.319
30.7862 103325 321.442
30.9037 104781 323.699
31.0212 106167 325.833
31.1387 105361 324.594
31.2562 102424 320.037
31.3737 101078 317.928
31.4912 105543 324.874
31.6087 111165 333.414
31.7262 111711 334.232
31.8436 112027 334.704
31.9611 112935 336.058
32.0785 112817 335.882
32.1959 112560 335.5
32.3134 111805 334.373
32.4308 110588 332.548
32.5482 107521 327.904
32.6655 104425 323.149
32.7829 101724 318.942
32.9002 98628 314.051
33.0176 94251 307.003
33.1349 91260 302.093
33.2522 89644 299.406
33.3694 88502 297.493
33.4867 90445 300.741
33.6039 92559 304.235
33.7211 94694 307.724
33.8383 97386 312.067
33.9554 99175 314.921
34.0725 100368 316.809
34.1896 102253 319.77
34.3067 104180 322.769
34.4237 106413 326.21
34.5407 107784 328.305
34.6577 109238 330.512
34.7746 109915 331.534
34.8915 106637 326.553
35.0084 103438 321.618
35.1252 105111 324.208
35.242 110446 332.334
35.3587 115233 339.46
35.4755 114589 338.51
35.5921 112529 335.453
35.7088 109927 331.552
35.8254 107204 327.42
35.9419 103626 321.91
36.0584 98636 314.064
36.1749 93588 305.922
36.2913 88371 297.273
36.4077 80992 284.591
36.524 74398 272.76
36.6403 66546 257.965
36.7565 58129 241.1
36.8727 50750 225.278
36.9889 45956 214.374
37.1049 43148 207.721
37.221 0 1
37.3369 0 1
37.4529 0 1
37.5687 0 1
37.6845 0 1
37.8003 0 1
37.916 0 1
38.0316 0 1
38.1472 0 1
40.5851 0 1
40.7008 0 1
40.8164 0 1
40.9322 0 1
41.048 0 1
41.1639 0 1
41.2798 0 1
41.3958 0 1
41.5118 0 1
41.6279 0 1
41.744 65687 256.295
41.8602 71227 266.884
41.9765 77819 278.961
42.0928 85046 291.626
42.2091 91559 302.587
42.3255 96322 310.358
42.4419 100177 316.508
42.5584 104162 322.741
42.675 107093 327.251
42.7915 109449 330.831
42.9081 111599 334.064
43.0248 113718 337.221
43.1415 115744 340.212
43.2582 117978 343.479
43.375 120243 346.761
43.4918 122849 350.498
43.6087 122009 349.298
43.7256 118583 344.359
43.8425 115549 339.925
43.9595 119863 346.212
44.0765 125984 354.942
44.1935 130190 360.819
44.3106 130756 361.602
44.4277 132457 363.946
44.5448 132417 363.891
44.6619 131695 362.898
44.7791 129903 360.421
44.8963 126630 355.851
45.0136 122231 349.616
45.1308 117646 342.996
45.2481 113201 336.454
45.3654 109932 331.56
45.4827 106293 326.026
45.6001 103532 321.764
45.7174 104943 323.949
45.8348 108829 329.892
45.9522 113558 336.984
46.0697 118089 343.641
46.1871 122613 350.161
46.3046 126374 355.491
46.422 129311 359.598
46.5395 132132 363.5
46.657 135391 367.955
46.7745 137851 371.283
46.892 140424 374.732
47.0096 142656 377.698
47.1271 145391 381.302
47.2446 145472 381.408
47.3622 141571 376.259
47.4797 136441 369.379
47.5973 142460 377.439
47.7149 151425 389.134
47.8324 154735 393.364
47.95 156074 395.062
48.0675 154325 392.842
48.1851 156351 395.412
48.3027 153361 391.613
48.4202 149001 386.006
48.5378 143963 379.425
48.6554 136757 369.807
48.7729 131946 363.244
48.8904 126746 356.014
49.008 121732 348.901
49.1255 117908 343.377
49.243 119574 345.795
49.3605 124259 352.504
49.478 130931 361.844
49.5955 136710 369.743
49.713 141141 375.687
49.8304 146207 382.37
49.9479 150388 387.799
50.0653 154238 392.731
50.1827 156809 395.991
50.3001 159174 398.966
50.4175 162611 403.251
50.5348 164225 405.247
50.6521 165585 406.921
50.7694 166810 408.424
50.8867 161289 401.608
51.004 155114 393.845
51.1212 161155 401.441
51.2384 174323 417.52
51.3556 179817 424.048
51.4727 183138 427.946
51.5899 184022 428.978
51.707 184846 429.937
51.824 185454 430.644
51.9411 182885 427.651
52.0581 176685 420.339
52.175 169382 411.56
52.2919 162581 403.213
52.4088 154667 393.277
52.5257 148407 385.236
52.6425 141377 376.001
52.7593 135215 367.716
52.876 133925 365.958
52.9927 134885 367.267
53.1094 135154 367.633
53.226 136101 368.919
53.3426 135154 367.633
53.4591 132179 363.564
53.5756 127142 356.57
53.692 120334 346.892
53.8084 109001 330.153
53.9248 93981 306.563
54.0411 82891 287.908
54.1573 73538 271.179
54.2735 0 1
54.3896 0 1
54.5057 0 1
54.6217 0 1
54.7377 0 1
54.8537 0 1
54.9695 0 1
55.0853 0 1
55.2011 0 1
55.3168 0 1
55.4324 0 1
57.824 0 1
57.9396 0 1
58.0553 0 1
58.1711 0 1
58.2869 0 1
58.4028 0 1
58.5187 0 1
58.6347 0 1
58.7508 0 1
58.8669 0 1
58.983 202313 449.792
59.0992 216037 464.798
59.2155 227108 476.558
59.3318 236053 485.853
59.4482 242337 492.277
59.5646 241234 491.156
59.681 240417 490.323
59.7975 241971 491.905
59.9141 252154 502.149
60.0306 260177 510.075
60.1473 266247 515.991
60.2639 266497 516.233
60.3807 266121 515.869
60.4974 262263 512.116
60.6142 254262 504.244
60.731 239752 489.645
60.8479 228646 478.169
60.9648 215251 463.952
61.0818 205407 453.218
61.1987 197785 444.73
61.3158 192500 438.748
61.4328 195287 441.913
61.5499 204217 451.904
61.667 215662 464.394
61.7841 226661 476.089
61.9013 235532 485.316
62.0185 243647 493.606
62.1357 247618 497.612
62.253 252857 502.849
62.3702 257075 507.026
62.4875 260774 510.66
62.6049 263385 513.21
62.7222 267221 516.934
62.8396 263634 513.453
62.9569 262633 512.477
63.0743 256910 506.863
63.1918 245744 495.726
63.3092 241207 491.128
63.4267 250291 500.291
63.5441 262546 512.392
63.6616 269420 519.057
63.7791 271944 521.483
63.8966 272660 522.169
64.0142 271452 521.011
64.1317 265280 515.053
64.2492 254749 504.727
64.3668 238843 488.716
64.4843 222985 472.213
64.6019 210734 459.058
64.7195 199324 446.457
64.837 190539 436.508
64.9546 185767 431.007
65.0722 188011 433.602
65.1898 198343 445.357
65.3074 215282 463.985
65.4249 222871 472.092
65.5425 232399 482.078
65.6601 238683 488.552
65.7777 243560 493.518
65.8952 247647 497.641
66.0128 250852 500.851
66.1304 253379 503.368
66.2479 255696 505.664
66.3655 256347 506.307
66.483 257620 507.563
66.6005 255742 505.709
66.718 248495 498.493
66.8355 236965 486.791
66.953 226644 476.071
67.0705 232363 482.04
67.1879 247053 497.044
67.3054 254636 504.615
67.4228 258597 508.524
67.5402 259099 509.018
67.6576 257691 507.633
67.7749 253276 503.265
67.8923 245004 494.979
68.0096 230490 480.094
68.1269 215079 463.766
68.2442 198940 446.027
68.3614 187855 433.422
68.4787 178199 422.136
68.5958 170932 413.439
68.713 169646 411.881
68.8302 179027 423.116
68.9473 193810 440.239
69.0643 205567 453.395
69.1814 211207 459.573
69.2984 213476 462.035
69.4154 210208 458.484
69.5323 207064 455.043
69.6492 202726 450.251
69.7661 198346 445.361
69.8829 192544 438.798
69.9997 190615 436.595
70.1165 185475 430.668
70.2332 179476 423.646
70.3499 171250 413.824
70.4665 156728 395.889
70.5831 138192 371.742
70.6996 117418 342.663
70.8161 107635 328.078
70.9326 105403 324.658
71.049 102809 320.638
71.1653 99300 315.119
71.2817 93928 306.477
71.3979 87010 294.975
71.5141 80470 283.672
71.6303 73235 270.62
71.7464 69627 263.869
71.8624 0 1
71.9784 0 1
72.0944 0 1
72.2102 0 1
72.3261 0 1
72.4418 0 1
72.5575 0 1
72.6732 0 1
75.1054 0 1
75.2209 0 1
75.3365 0 1
75.4521 0 1
75.5678 0 1
75.6835 0 1
75.7993 0 1
75.9151 0 1
76.031 0 1
76.147 152542 390.566
76.263 177739 421.591
76.3791 197573 444.492
76.4952 210102 458.369
76.6113 213017 461.538
76.7276 210895 459.233
76.8438 212285 460.744
76.9601 202782 450.313
77.0765 186037 431.32
77.1929 170616 413.057
77.3093 158035 397.536
77.4258 148416 385.248
77.5423 139609 373.643
77.6589 132962 364.64
77.7755 132196 363.588
77.8921 141685 376.411
78.0088 158323 397.898
78.1256 170639 413.085
78.2423 179994 424.257
78.3591 185294 430.458
78.4759 188789 434.499
78.5928 192625 438.891
78.7097 194087 440.553
78.8266 196284 443.04
78.9436 200901 448.22
79.0606 201377 448.75
79.1776 202238 449.709
79.2946 201896 449.328
79.4117 198823 445.896
79.5288 195063 441.659
79.6459 182642 427.366
79.7631 172901 415.814
79.8802 176186 419.745
79.9974 189891 435.765
80.1147 202070 449.522
80.2319 207179 455.169
80.3491 208106 456.186
80.4664 208344 456.447
80.5837 207261 455.259
80.701 203209 450.787
80.8183 191102 437.152
80.9357 172332 415.129
81.053 155994 394.961
81.1704 145913 381.986
81.2877 136293 369.179
81.4051 129474 359.825
81.5225 130188 360.816
81.6399 137460 370.756
81.7573 157461 396.814
81.8747 169116 411.237
81.9922 177262 421.025
82.1096 184113 429.084
82.227 185546 430.751
82.3444 187778 433.334
82.4619 192149 438.348
82.5793 195665 442.34
82.6967 192229 438.439
82.8142 194372 440.876
82.9316 195565 442.227
83.049 193357 439.724
83.1664 188956 434.691
83.2838 181700 426.263
83.4012 171203 413.767
83.5186 161865 402.324
83.636 166649 408.227
83.7534 180077 424.355
83.8708 191299 437.377
83.9881 196527 443.314
84.1055 198321 445.332
84.2228 196407 443.178
84.3401 192076 438.265
84.4575 177795 421.657
84.5747 159682 399.602
84.692 142394 377.351
84.8093 134016 366.082
84.9265 125933 354.87
85.0437 120051 346.484
85.1609 121472 348.528
85.2781 133851 365.857
85.3952 151798 389.613
85.5123 163883 404.825
85.6294 170947 413.457
85.7465 174062 417.207
85.8636 176789 420.463
85.9806 180478 424.827
86.0976 182243 426.899
86.2145 184379 429.394
86.3315 180716 425.107
86.4484 193051 439.376
86.5652 187030 432.47
86.682 182806 427.558
86.7988 174089 417.24
86.9156 158619 398.27
87.0323 141836 376.611
87.149 128550 358.539
87.2657 128995 359.159
87.3823 136355 369.263
87.4988 141342 375.955
87.6154 140070 374.259
87.7318 138128 371.656
87.8483 133659 365.594
87.9647 126660 355.893
88.081 115588 339.982
88.1973 97011 311.466
88.3136 76708 276.962
88.4298 61535 248.062
88.546 53059 230.345
88.6621 46750 216.217
88.7781 44977 212.078
88.8942 0 1
89.0101 0 1
89.126 0 1
89.2419 0 1
89.3577 0 1
89.4734 0 1
89.5891 0 1
89.7047 0 1
89.8203 0 1
89.9358 0 1
92.3269 0 1
92.4424 0 1
92.558 0 1
92.6736 0 1
92.7893 0 1
92.905 0 1
93.0208 0 1
93.1366 0 1
93.2525 0 1
93.3685 0 1
93.4845 0 1
93.6005 138205 371.759
93.7167 129910 360.43
93.8328 124239 352.476
93.949 120303 346.847
94.0653 117970 343.468
94.1816 122435 349.907
94.2979 135588 368.223
94.4143 154249 392.745
94.5307 168202 410.124
94.6472 176613 420.253
94.7637 183493 428.361
94.8803 185946 431.215
94.9969 191342 437.427
95.1135 192873 439.173
95.2302 199689 446.866
95.3469 200868 448.183
95.4637 201824 449.248
95.5805 203681 451.31
95.6973 202647 450.163
95.8142 199167 446.281
95.9311 193950 440.398
96.048 185859 431.114
96.1649 180017 424.284
96.2819 180741 425.136
96.3989 189240 435.017
96.516 199151 446.263
96.633 206604 454.537
96.7501 209157 457.337
96.8673 206503 454.426
96.9844 203394 450.992
97.1016 192719 438.998
97.2188 174770 418.055
97.336 155595 394.455
97.4532 141388 376.016
97.5704 130884 361.779
97.6877 125737 354.594
97.805 126926 356.267
97.9223 142215 377.114
98.0396 161928 402.403
98.1569 177347 421.126
98.2743 186064 431.351
98.3916 192449 438.69
98.509 196087 442.817
98.6264 200786 448.092
98.7438 202259 449.732
98.8612 203788 451.429
98.9786 205928 453.793
99.096 206239 454.135
99.2134 203134 450.704
99.3308 201410 448.787
99.4482 200339 447.592
99.5656 194498 441.019
99.6831 186457 431.807
99.8005 180744 425.14
99.9179 185900 431.161
100.035 193581 439.978
100.153 203346 450.939
100.27 209463 457.671
100.388 212424 460.895
100.505 213252 461.792
100.622 211804 460.222
100.74 205615 453.448
100.857 190267 436.196
100.975 168086 409.983
101.092 151466 389.186
101.209 139236 373.143
101.327 131060 362.022
101.444 132731 364.323
101.561 146544 382.811
101.679 168632 410.648
101.796 186764 432.162
101.913 198225 445.225
102.03 206802 454.755
102.148 212009 460.444
102.265 208943 457.103
102.382 224660 473.983
102.499 220453 469.524
102.616 222182 471.362
102.733 222173 471.352
102.851 219731 468.755
102.968 216986 465.818
103.085 209997 458.254
103.202 205656 453.493
103.319 198473 445.503
103.436 191191 437.254
103.552 189177 434.945
103.669 196221 442.968
103.786 204282 451.976
103.903 211771 460.186
104.02 213664 462.238
104.137 211459 459.847
104.253 206536 454.462
104.37 184029 428.986
104.487 166962 408.61
104.603 145222 381.08
104.72 127392 356.92
104.836 113359 336.688
104.953 103152 321.173
105.069 97151 311.691
105.186 94954 308.146
105.302 99443 315.346
105.418 103299 321.402
105.535 102741 320.532
105.651 97123 311.646
105.767 87062 295.063
105.883 75319 274.443
105.999 63871 252.727
106.115 0 1
106.231 0 1
106.347 0 1
106.463 0 1
106.579 0 1
106.694 0 1
106.81 0 1
106.926 0 1
107.041 0 1
107.157 0 1
109.576 0 1
109.692 0 1
109.807 0 1
109.923 0 1
110.039 0 1
110.155 0 1
110.27 0 1
110.386 0 1
110.502 0 1
110.618 117104 342.205
110.735 140374 374.665
110.851 156750 395.917
110.967 169013 411.112
111.083 177184 420.932
111.199 182917 427.688
111.316 189597 435.427
111.432 193609 440.01
111.549 196922 443.759
111.665 197727 444.665
111.782 195510 442.165
111.898 191911 438.076
112.015 185695 430.923
112.132 179425 423.586
112.248 173399 416.412
112.365 171000 413.521
112.482 171978 414.702
112.599 187468 432.976
112.716 192870 439.17
112.832 197259 444.138
112.949 200377 447.635
113.066 199299 446.429
113.183 197578 444.497
113.3 192234 438.445
113.417 178249 422.195
113.534 157814 397.258
113.652 140863 375.317
113.769 127514 357.091
113.886 117457 342.72
114.003 119809 346.134
114.12 141324 375.931
114.238 161422 401.774
114.355 177925 421.812
114.472 184203 429.189
114.589 195544 442.204
114.707 195819 442.514
114.824 196621 443.42
114.942 196695 443.503
115.059 197045 443.898
115.176 194716 441.266
115.294 190580 436.555
115.411 187468 432.976
115.529 182366 427.043
115.646 178936 423.008
115.764 170569 413
115.881 165272 406.537
115.999 163740 404.648
116.116 167965 409.835
116.234 172330 415.126
116.351 179371 423.522
116.469 182305 426.972
116.586 185298 430.463
116.704 186688 432.074
116.821 187757 433.309
116.939 184312 429.316
117.056 176155 419.708
117.174 159983 399.979
117.291 143073 378.25
117.409 127831 357.535
117.526 116312 341.045
117.644 117120 342.228
117.761 134750 367.083
117.879 155799 394.714
117.996 172739 415.619
118.114 185679 430.905
118.231 193456 439.836
118.349 198859 445.936
118.466 202972 450.524
118.584 205998 453.87
118.701 208230 456.322
118.819 207839 455.894
118.936 206497 454.419
119.053 204452 452.164
119.171 200675 447.968
119.288 195930 442.64
119.405 191701 437.837
119.523 187824 433.387
119.64 186024 431.305
119.757 191060 437.104
119.875 195494 442.147
119.992 202670 450.189
120.109 207302 455.304
120.226 210796 459.125
120.343 211537 459.932
120.46 211914 460.341
120.578 211388 459.77
120.695 206827 454.782
120.812 195073 441.671
120.929 175060 418.402
121.046 157696 397.11
121.163 144079 379.577
121.279 133061 364.775
121.396 129389 359.707
121.513 132012 363.335
121.63 137083 370.247
121.747 144323 379.899
121.863 148211 384.982
121.98 150931 388.498
122.097 147707 384.327
122.213 143486 378.795
122.33 138433 372.066
122.446 134190 366.32
122.563 127574 357.175
122.679 119936 346.318
122.795 111406 333.775
122.912 101466 318.537
123.028 91469 302.438
123.144 81879 286.145
123.26 74509 272.963
123.377 0 1
123.493 0 1
123.609 0 1
123.725 0 1
123.84 0 1
123.956 0 1
124.072 0 1
124.188 0 1
124.303 0 1
124.419 0 1
126.852 0 1
126.968 0 1
127.083 0 1
127.199 0 1
127.315 0 1
127.431 0 1
127.547 0 1
127.663 0 1
127.779 0 1
127.895 0 1
128.011 0 1
128.127 0 1
128.243 0 1
128.359 183654 428.549
128.476 186403 431.744
128.592 186450 431.799
128.708 187561 433.083
128.825 189805 435.666
128.941 193845 440.278
129.058 197418 444.317
129.174 201636 449.039
129.291 204114 451.79
129.408 203772 451.411
129.524 204647 452.379
129.641 202180 449.644
129.758 198208 445.206
129.875 190649 436.634
129.992 181458 425.979
130.108 167057 408.726
130.225 155964 394.923
130.342 150639 388.122
130.459 149407 386.532
130.576 163313 404.12
130.693 170411 412.809
130.81 178148 422.076
130.928 184488 429.521
131.045 187877 433.448
131.162 192878 439.179
131.279 192970 439.284
131.396 191258 437.331
131.513 190185 436.102
131.631 187288 432.768
131.748 185509 430.708
131.865 179506 423.681
131.983 177351 421.131
132.1 174436 417.655
132.217 171590 414.234
132.335 172906 415.82
132.452 172722 415.598
132.57 175905 419.41
132.687 173441 416.462
132.804 189170 434.937
132.922 184710 429.779
133.039 186918 432.34
133.157 187060 432.504
133.274 187508 433.022
133.392 184807 429.892
133.509 180135 424.423
133.627 170198 412.551
133.744 160316 400.395
133.862 148628 385.523
133.979 144073 379.569
134.097 144790 380.513
134.214 153274 391.502
134.332 161106 401.38
134.449 169819 412.091
134.567 176683 420.337
134.684 182145 426.784
134.802 186623 431.999
134.919 187408 432.906
135.037 187987 433.575
135.154 188616 434.299
135.272 186587 431.957
135.389 187283 432.762
135.507 183478 428.343
135.624 182632 427.355
135.742 179975 424.235
135.859 181469 425.992
135.977 182000 426.615
136.094 185832 431.082
136.211 189478 435.291
136.329 194347 440.848
136.446 198464 445.493
136.564 201855 449.283
136.681 203483 451.091
136.798 205156 452.941
136.915 204648 452.38
137.033 201625 449.027
137.15 196131 442.867
137.267 186706 432.095
137.384 175500 418.927
137.502 162733 403.402
137.619 153693 392.037
137.736 151514 389.248
137.853 153737 392.093
137.97 164929 406.115
138.087 166425 407.952
138.204 175064 418.407
138.321 179160 423.273
138.438 181447 425.966
138.555 183452 428.313
138.672 181698 426.26
138.788 178401 422.375
138.905 172257 415.039
139.022 162619 403.26
139.139 150987 388.57
139.255 140198 374.43
139.372 129205 359.451
139.488 119876 346.231
139.605 111622 334.099
139.721 104731 323.622
139.838 100866 317.594
139.954 96185 310.137
140.071 91292 302.146
140.187 89522 299.202
140.303 83356 288.714
140.419 78604 280.364
140.535 73829 271.715
140.652 70335 265.207
140.768 0 1
140.884 0 1
141 0 1
141.115 0 1
141.231 0 1
141.347 0 1
141.463 0 1
141.578 0 1
141.694 0 1
144.104 0 1
144.219 0 1
144.335 0 1
144.45 0 1
144.566 0 1
144.682 0 1
144.798 0 1
144.914 0 1
145.03 0 1
145.146 140373 374.664
145.262 149478 386.624
145.378 152565 390.596
145.494 155495 394.329
145.61 155599 394.46
145.726 154730 393.357
145.842 152886 391.006
145.959 150518 387.966
146.075 143845 379.269
146.192 133297 365.099
146.308 118173 343.763
146.425 106723 326.685
146.541 100262 316.642
146.658 103352 321.484
146.774 111693 334.205
146.891 118132 343.703
147.008 121013 347.869
147.125 125348 354.045
147.241 125994 354.956
147.358 126750 356.02
147.475 124808 353.282
147.592 123641 351.626
147.709 121902 349.145
147.826 120900 347.707
147.943 117929 343.408
148.06 117689 343.058
148.177 116200 340.881
148.294 114851 338.897
148.411 115013 339.136
148.528 116730 341.658
148.645 117216 342.368
148.762 120255 346.778
148.88 122413 349.876
148.997 120080 346.526
149.114 130533 361.294
149.231 126739 356.004
149.349 129450 359.792
149.466 126415 355.549
149.583 128032 357.816
149.701 127131 356.554
149.818 126375 355.493
149.935 118933 344.867
150.053 107905 328.489
150.17 98454 313.774
150.287 95052 308.305
150.405 100346 316.774
150.522 108194 328.929
150.64 113775 337.305
150.757 116779 341.729
150.875 121175 348.102
150.992 123360 351.226
151.11 119449 345.614
151.227 120340 346.901
151.344 118424 344.128
151.462 116656 341.549
151.579 117059 342.139
151.697 114914 338.99
151.814 114090 337.772
151.932 113749 337.267
152.049 113207 336.462
152.167 113411 336.765
152.284 115345 339.625
152.402 117133 342.247
152.519 118991 344.951
152.636 121885 349.12
152.754 122821 350.458
152.871 124564 352.936
152.989 124255 352.498
153.106 125916 354.846
153.223 124637 353.04
153.341 124675 353.093
153.458 124209 352.433
153.575 120417 347.012
153.693 111161 333.408
153.81 101363 318.376
153.927 95285 308.683
154.044 98513 313.868
154.162 105631 325.009
154.279 111064 333.263
154.396 115102 339.267
154.513 117777 343.187
154.63 120378 346.955
154.747 119596 345.827
154.864 117020 342.082
154.981 115634 340.05
155.098 114570 338.482
155.215 113621 337.077
155.332 111948 334.586
155.449 111396 333.76
155.566 110407 332.275
155.683 110629 332.609
155.8 110681 332.688
155.917 111668 334.168
156.033 112479 335.379
156.15 0 1
156.267 0 1
156.383 0 1
156.5 0 1
156.617 0 1
156.733 0 1
156.85 0 1
156.966 0 1
157.082 0 1
157.199 0 1
157.315 0 1
157.431 0 1
157.547 0 1
157.664 0 1
157.78 0 1
157.896 0 1
158.012 0 1
158.128 0 1
158.244 0 1
158.359 0 1
158.475 0 1
158.591 0 1
158.706 0 1
