
6.15755 0 1
6.2731 0 1
6.3887 0 1
6.50437 0 1
6.62009 0 1
6.73587 0 1
6.8517 0 1
6.96759 0 1
7.08353 0 1
7.19952 0 1
7.31557 0 1
7.43166 0 1
7.54781 0 1
7.664 0 1
7.78024 0 1
7.89653 0 1
8.01286 0 1
8.12924 0 1
8.24567 0 1
8.36213 0 1
8.47864 0 1
8.59519 0 1
8.71178 0 1
8.82841 0 1
8.94508 0 1
9.06179 0 1
9.17853 0 1
9.29531 0 1
9.41212 0 1
9.52897 0 1
9.64584 0 1
9.76276 0 1
9.8797 0 1
9.99667 0 1
10.1137 0 1
10.2307 0 1
10.3478 0 1
10.4648 0 1
10.5819 0 1
10.6991 0 1
10.8162 0 1
10.9334 0 1
11.0506 0 1
11.1678 0 1
11.285 0 1
11.4023 0 1
11.5196 0 1
11.6369 0 1
11.7542 0 1
11.8715 0 1
11.9888 0 1
12.1062 0 1
12.2235 0 1
12.3409 0 1
12.4582 0 1
12.5756 0 1
12.693 0 1
12.8104 0 1
12.9278 0 1
13.0452 0 1
13.1626 0 1
13.28 0 1
13.3974 0 1
13.5149 0 1
13.6323 0 1
13.7497 0 1
13.8671 0 1
13.9845 0 1
14.1019 0 1
14.2193 0 1
14.3367 0 1
14.4541 0 1
14.5714 0 1
14.6888 0 1
14.8062 0 1
14.9235 0 1
15.0408 0 0
15.1581 0 0
15.2755 0 0
15.3927 0 0
15.51 0 0
15.6273 0 0
15.7445 0 0
15.8617 0 0
15.9789 0 0
16.0961 0 0
16.2132 0 0
16.3304 0 0
16.4475 0 0
16.5646 0 0
16.6816 0 0
16.7986 0 0
16.9156 0 0
17.0326 0 0
17.1496 0 0
17.2665 0 0
17.3833 0 0
17.5002 0 0
17.617 0 0
17.7338 0 0
17.8505 0 0
17.9672 0 0
18.0839 0 0
18.2005 0 0
18.3171 0 0
18.4337 0 0
18.5502 0 0
18.6666 0 0
18.7831 0 0
18.8994 0 0
19.0158 0 0
19.1321 0 0
19.2483 0 0
19.3645 0 0
19.4806 0 0
19.5967 0 0
19.7128 0 0
19.8288 0 0
19.9447 0 0
20.0606 0 1
20.1764 0 1
20.2922 0 1
20.4079 0 1
20.5236 0 1
20.6392 0 1
20.7548 0 1
20.8702 0 1
23.3078 0 1
23.4233 0 1
23.539 0 1
23.6547 0 1
23.7704 0 1
23.8862 0 1
24.0021 0 1
24.118 0 1
24.234 0 1
24.35 0 1
24.4661 412 20.2978
24.5822 551 23.4734
24.6984 592 24.3311
24.8146 680 26.0768
24.9309 790 28.1069
25.0472 821 28.6531
25.1636 904 30.0666
25.28 972 31.1769
25.3965 1066 32.6497
25.513 1107 33.2716
25.6296 1134 33.6749
25.7462 1126 33.5559
25.8628 1188 34.4674
25.9795 1141 33.7787
26.0962 1115 33.3916
26.213 1134 33.6749
26.3298 1000 31.6228
26.4466 1037 32.2025
26.5635 959 30.9677
26.6804 979 31.289
26.7973 937 30.6105
26.9143 1010 31.7805
27.0313 983 31.3528
27.1483 1027 32.0468
27.2653 1042 32.28
27.3824 1131 33.6303
27.4996 1070 32.7109
27.6167 1092 33.0454
27.7339 1038 32.218
27.8511 1070 32.7109
27.9683 997 31.5753
28.0855 987 31.4166
28.2028 937 30.6105
28.3201 952 30.8545
28.4374 917 30.282
28.5547 966 31.0805
28.6721 1033 32.1403
28.7894 1027 32.0468
28.9068 1083 32.909
29.0242 1101 33.1813
29.1416 1108 33.2866
29.259 1093 33.0606
29.3764 1121 33.4813
29.4939 1123 33.5112
29.6113 1074 32.7719
29.7288 986 31.4006
29.8463 977 31.257
29.9638 889 29.8161
30.0812 925 30.4138
30.1987 876 29.5973
30.3162 969 31.1288
30.4337 960 30.9839
30.5512 966 31.0805
30.6687 1024 32
30.7862 952 30.8545
30.9037 982 31.3369
31.0212 1048 32.3728
31.1387 1022 31.9687
31.2562 1023 31.9844
31.3737 983 31.3528
31.4912 1051 32.4191
31.6087 965 31.0644
31.7262 915 30.249
31.8436 870 29.4958
31.9611 853 29.2062
32.0785 896 29.9333
32.1959 907 30.1164
32.3134 1007 31.7333
32.4308 1039 32.2335
32.5482 1057 32.5115
32.6655 1067 32.665
32.7829 1085 32.9393
32.9002 1106 33.2566
33.0176 1022 31.9687
33.1349 1023 31.9844
33.2522 1023 31.9844
33.3694 1005 31.7017
33.4867 960 30.9839
33.6039 889 29.8161
33.7211 863 29.3769
33.8383 882 29.6985
33.9554 964 31.0483
34.0725 959 30.9677
34.1896 929 30.4795
34.3067 965 31.0644
34.4237 1024 32
34.5407 1005 31.7017
34.6577 1051 32.4191
34.7746 1044 32.311
34.8915 924 30.3974
35.0084 972 31.1769
35.1252 948 30.7896
35.242 899 29.9833
35.3587 879 29.6479
35.4755 837 28.931
35.5921 820 28.6356
35.7088 835 28.8964
35.8254 894 29.8998
35.9419 888 29.7993
36.0584 951 30.8383
36.1749 958 30.9516
36.2913 1011 31.7962
36.4077 1004 31.686
36.524 959 30.9677
36.6403 872 29.5296
36.7565 879 29.6479
36.8727 838 28.9482
36.9889 802 28.3196
37.1049 730 27.0185
37.221 0 1
37.3369 0 1
37.4529 0 1
37.5687 0 1
37.6845 0 1
37.8003 0 1
37.916 0 1
38.0316 0 1
38.1472 0 1
40.5851 0 1
40.7008 0 1
40.8164 0 1
40.9322 0 1
41.048 0 1
41.1639 0 1
41.2798 0 1
41.3958 0 1
41.5118 0 1
41.6279 0 1
41.744 468 21.6333
41.8602 583 24.1454
41.9765 634 25.1794
42.0928 653 25.5539
42.2091 617 24.8395
42.3255 621 24.9199
42.4419 626 25.02
42.5584 606 24.6171
42.675 668 25.8457
42.7915 735 27.1109
42.9081 769 27.7308
43.0248 764 27.6405
43.1415 852 29.189
43.2582 840 28.9828
43.375 832 28.8444
43.4918 944 30.7246
43.6087 861 29.3428
43.7256 816 28.5657
43.8425 787 28.0535
43.9595 826 28.7402
44.0765 799 28.2666
44.1935 760 27.5681
44.3106 715 26.7395
44.4277 718 26.7955
44.5448 662 25.7294
44.6619 656 25.6125
44.7791 752 27.4226
44.8963 770 27.7489
45.0136 852 29.189
45.1308 797 28.2312
45.2481 859 29.3087
45.3654 874 29.5635
45.4827 907 30.1164
45.6001 868 29.4618
45.7174 843 29.0345
45.8348 779 27.9106
45.9522 744 27.2764
46.0697 763 27.6225
46.1871 755 27.4773
46.3046 704 26.533
46.422 791 28.1247
46.5395 779 27.9106
46.657 826 28.7402
46.7745 847 29.1033
46.892 831 28.8271
47.0096 857 29.2746
47.1271 945 30.7409
47.2446 903 30.05
47.3622 890 29.8329
47.4797 849 29.1376
47.5973 898 29.9666
47.7149 885 29.7489
47.8324 776 27.8568
47.95 741 27.2213
48.0675 753 27.4408
48.1851 718 26.7955
48.3027 724 26.9072
48.4202 842 29.0172
48.5378 846 29.0861
48.6554 953 30.8707
48.7729 899 29.9833
48.8904 958 30.9516
49.008 867 29.4449
49.1255 880 29.6648
49.243 845 29.0689
49.3605 790 28.1069
49.478 751 27.4044
49.5955 773 27.8029
49.713 715 26.7395
49.8304 800 28.2843
49.9479 728 26.9815
50.0653 844 29.0517
50.1827 840 28.9828
50.3001 832 28.8444
50.4175 794 28.178
50.5348 880 29.6648
50.6521 890 29.8329
50.7694 840 28.9828
50.8867 854 29.2233
51.004 837 28.931
51.1212 823 28.688
51.2384 756 27.4955
51.3556 773 27.8029
51.4727 697 26.4008
51.5899 682 26.1151
51.707 735 27.1109
51.824 785 28.0179
51.9411 809 28.4429
52.0581 859 29.3087
52.175 899 29.9833
52.2919 908 30.133
52.4088 897 29.95
52.5257 959 30.9677
52.6425 887 29.7825
52.7593 922 30.3645
52.876 868 29.4618
52.9927 848 29.1204
53.1094 839 28.9655
53.226 791 28.1247
53.3426 755 27.4773
53.4591 769 27.7308
53.5756 730 27.0185
53.692 778 27.8927
53.8084 698 26.4197
53.9248 717 26.7769
54.0411 716 26.7582
54.1573 702 26.4953
54.2735 0 1
54.3896 0 1
54.5057 0 1
54.6217 0 1
54.7377 0 1
54.8537 0 1
54.9695 0 1
55.0853 0 1
55.2011 0 1
55.3168 0 1
55.4324 0 1
57.824 0 1
57.9396 0 1
58.0553 0 1
58.1711 0 1
58.2869 0 1
58.4028 0 1
58.5187 0 1
58.6347 0 1
58.7508 0 1
58.8669 0 1
58.983 525 22.9129
59.0992 580 24.0832
59.2155 675 25.9808
59.3318 742 27.2397
59.4482 776 27.8568
59.5646 911 30.1828
59.681 966 31.0805
59.7975 957 30.9354
59.9141 967 31.0966
60.0306 905 30.0832
60.1473 954 30.8869
60.2639 854 29.2233
60.3807 816 28.5657
60.4974 793 28.1603
60.6142 868 29.4618
60.731 975 31.225
60.8479 1072 32.7414
60.9648 1072 32.7414
61.0818 1149 33.8969
61.1987 1127 33.5708
61.3158 1066 32.6497
61.4328 1040 32.249
61.5499 1021 31.9531
61.667 970 31.1448
61.7841 991 31.4802
61.9013 913 30.2159
62.0185 901 30.0167
62.1357 951 30.8383
62.253 990 31.4643
62.3702 1015 31.8591
62.4875 1070 32.7109
62.6049 1015 31.8591
62.7222 1007 31.7333
62.8396 1145 33.8378
62.9569 1077 32.8177
63.0743 1134 33.6749
63.1918 1049 32.3883
63.3092 1028 32.0624
63.4267 999 31.607
63.5441 929 30.4795
63.6616 868 29.4618
63.7791 818 28.6007
63.8966 809 28.4429
64.0142 804 28.3549
64.1317 809 28.4429
64.2492 931 30.5123
64.3668 1020 31.9374
64.4843 1034 32.1559
64.6019 1045 32.3265
64.7195 1087 32.9697
64.837 1092 33.0454
64.9546 1034 32.1559
65.0722 1040 32.249
65.1898 960 30.9839
65.3074 939 30.6431
65.4249 930 30.4959
65.5425 879 29.6479
65.6601 885 29.7489
65.7777 891 29.8496
65.8952 957 30.9354
66.0128 1017 31.8904
66.1304 1016 31.8748
66.2479 1024 32
66.3655 1049 32.3883
66.483 1092 33.0454
66.6005 1067 32.665
66.718 1055 32.4808
66.8355 1044 32.311
66.953 1021 31.9531
67.0705 985 31.3847
67.1879 910 30.1662
67.3054 836 28.9137
67.4228 797 28.2312
67.5402 737 27.1477
67.6576 714 26.7208
67.7749 769 27.7308
67.8923 859 29.3087
68.0096 953 30.8707
68.1269 952 30.8545
68.2442 969 31.1288
68.3614 1063 32.6037
68.4787 1023 31.9844
68.5958 1011 31.7962
68.713 968 31.1127
68.8302 969 31.1288
68.9473 930 30.4959
69.0643 839 28.9655
69.1814 871 29.5127
69.2984 902 30.0333
69.4154 882 29.6985
69.5323 953 30.8707
69.6492 987 31.4166
69.7661 976 31.241
69.8829 959 30.9677
69.9997 1017 31.8904
70.1165 991 31.4802
70.2332 975 31.225
70.3499 928 30.4631
70.4665 870 29.4958
70.5831 870 29.4958
70.6996 841 29
70.8161 815 28.5482
70.9326 706 26.5707
71.049 588 24.2487
71.1653 459 21.4243
71.2817 360 18.9737
71.3979 355 18.8414
71.5141 354 18.8149
71.6303 334 18.2757
71.7464 310 17.6068
71.8624 0 1
71.9784 0 1
72.0944 0 1
72.2102 0 1
72.3261 0 1
72.4418 0 1
72.5575 0 1
72.6732 0 1
75.1054 0 1
75.2209 0 1
75.3365 0 1
75.4521 0 1
75.5678 0 1
75.6835 0 1
75.7993 0 1
75.9151 0 1
76.031 0 1
76.147 494 22.2261
76.263 530 23.0217
76.3791 511 22.6053
76.4952 478 21.8632
76.6113 489 22.1133
76.7276 552 23.4947
76.8438 620 24.8998
76.9601 750 27.3861
77.0765 827 28.7576
77.1929 863 29.3769
77.3093 856 29.2575
77.4258 854 29.2233
77.5423 891 29.8496
77.6589 898 29.9666
77.7755 835 28.8964
77.8921 824 28.7054
78.0088 834 28.8791
78.1256 822 28.6705
78.2423 749 27.3679
78.3591 705 26.5518
78.4759 761 27.5862
78.5928 819 28.6182
78.7097 836 28.9137
78.8266 849 29.1376
78.9436 822 28.6705
79.0606 905 30.0832
79.1776 935 30.5778
79.2946 912 30.1993
79.4117 850 29.1548
79.5288 854 29.2233
79.6459 836 28.9137
79.7631 871 29.5127
79.8802 748 27.3496
79.9974 675 25.9808
80.1147 595 24.3926
80.2319 515 22.6936
80.3491 559 23.6432
80.4664 617 24.8395
80.5837 698 26.4197
80.701 786 28.0357
80.8183 856 29.2575
80.9357 819 28.6182
81.053 892 29.8664
81.1704 894 29.8998
81.2877 864 29.3939
81.4051 828 28.775
81.5225 842 29.0172
81.6399 819 28.6182
81.7573 767 27.6948
81.8747 793 28.1603
81.9922 755 27.4773
82.1096 749 27.3679
82.227 815 28.5482
82.3444 796 28.2135
82.4619 867 29.4449
82.5793 909 30.1496
82.6967 876 29.5973
82.8142 904 30.0666
82.9316 896 29.9333
83.049 885 29.7489
83.1664 918 30.2985
83.2838 863 29.3769
83.4012 842 29.0172
83.5186 845 29.0689
83.636 741 27.2213
83.7534 644 25.3772
83.8708 520 22.8035
83.9881 525 22.9129
84.1055 539 23.2164
84.2228 654 25.5734
84.3401 756 27.4955
84.4575 825 28.7228
84.5747 905 30.0832
84.692 859 29.3087
84.8093 871 29.5127
84.9265 884 29.7321
85.0437 803 28.3373
85.1609 823 28.688
85.2781 794 28.178
85.3952 769 27.7308
85.5123 769 27.7308
85.6294 741 27.2213
85.7465 854 29.2233
85.8636 811 28.4781
85.9806 826 28.7402
86.0976 885 29.7489
86.2145 854 29.2233
86.3315 870 29.4958
86.4484 940 30.6594
86.5652 922 30.3645
86.682 913 30.2159
86.7988 930 30.4959
86.9156 946 30.7571
87.0323 890 29.8329
87.149 810 28.4605
87.2657 690 26.2679
87.3823 573 23.9374
87.4988 463 21.5174
87.6154 518 22.7596
87.7318 579 24.0624
87.8483 658 25.6515
87.9647 759 27.55
88.081 761 27.5862
88.1973 807 28.4077
88.3136 733 27.074
88.4298 727 26.9629
88.546 660 25.6905
88.6621 528 22.9783
88.7781 405 20.1246
88.8942 0 1
89.0101 0 1
89.126 0 1
89.2419 0 1
89.3577 0 1
89.4734 0 1
89.5891 0 1
89.7047 0 1
89.8203 0 1
89.9358 0 1
92.3269 0 1
92.4424 0 1
92.558 0 1
92.6736 0 1
92.7893 0 1
92.905 0 1
93.0208 0 1
93.1366 0 1
93.2525 0 1
93.3685 0 1
93.4845 0 1
93.6005 475 21.7945
93.7167 567 23.8118
93.8328 600 24.4949
93.949 652 25.5343
94.0653 682 26.1151
94.1816 724 26.9072
94.2979 750 27.3861
94.4143 838 28.9482
94.5307 804 28.3549
94.6472 794 28.178
94.7637 784 28
94.8803 876 29.5973
94.9969 847 29.1033
95.1135 912 30.1993
95.2302 896 29.9333
95.3469 907 30.1164
95.4637 922 30.3645
95.5805 943 30.7083
95.6973 943 30.7083
95.8142 920 30.3315
95.9311 928 30.4631
96.048 894 29.8998
96.1649 837 28.931
96.2819 869 29.4788
96.3989 799 28.2666
96.516 679 26.0576
96.633 581 24.1039
96.7501 532 23.0651
96.8673 533 23.0868
96.9844 583 24.1454
97.1016 698 26.4197
97.2188 742 27.2397
97.336 839 28.9655
97.4532 904 30.0666
97.5704 876 29.5973
97.6877 867 29.4449
97.805 839 28.9655
97.9223 872 29.5296
98.0396 853 29.2062
98.1569 805 28.3725
98.2743 796 28.2135
98.3916 798 28.2489
98.509 803 28.3373
98.6264 835 28.8964
98.7438 937 30.6105
98.8612 877 29.6142
98.9786 881 29.6816
99.096 891 29.8496
99.2134 956 30.9192
99.3308 950 30.8221
99.4482 922 30.3645
99.5656 879 29.6479
99.6831 905 30.0832
99.8005 915 30.249
99.9179 868 29.4618
100.035 737 27.1477
100.153 657 25.632
100.27 562 23.7065
100.388 542 23.2809
100.505 584 24.1661
100.622 699 26.4386
100.74 831 28.8271
100.857 921 30.348
100.975 853 29.2062
101.092 942 30.692
101.209 958 30.9516
101.327 900 30
101.444 899 29.9833
101.561 910 30.1662
101.679 841 29
101.796 828 28.775
101.913 795 28.1957
102.03 889 29.8161
102.148 897 29.95
102.265 874 29.5635
102.382 928 30.4631
102.499 907 30.1164
102.616 942 30.692
102.733 894 29.8998
102.851 908 30.133
102.968 963 31.0322
103.085 962 31.0161
103.202 944 30.7246
103.319 933 30.545
103.436 897 29.95
103.552 763 27.6225
103.669 725 26.9258
103.786 610 24.6982
103.903 590 24.2899
104.02 646 25.4165
104.137 718 26.7955
104.253 896 29.9333
104.37 881 29.6816
104.487 1036 32.187
104.603 988 31.4325
104.72 907 30.1164
104.836 909 30.1496
104.953 886 29.7658
105.069 893 29.8831
105.186 875 29.5804
105.302 856 29.2575
105.418 865 29.4109
105.535 825 28.7228
105.651 832 28.8444
105.767 789 28.0891
105.883 747 27.3313
105.999 637 25.2389
106.115 0 1
106.231 0 1
106.347 0 1
106.463 0 1
106.579 0 1
106.694 0 1
106.81 0 1
106.926 0 1
107.041 0 1
107.157 0 1
109.576 0 1
109.692 0 1
109.807 0 1
109.923 0 1
110.039 0 1
110.155 0 1
110.27 0 1
110.386 0 1
110.502 0 1
110.618 336 18.3303
110.735 440 20.9762
110.851 473 21.7486
110.967 591 24.3105
111.083 618 24.8596
111.199 665 25.7876
111.316 721 26.8514
111.432 844 29.0517
111.549 790 28.1069
111.665 837 28.931
111.782 853 29.2062
111.898 812 28.4956
112.015 777 27.8747
112.132 657 25.632
112.248 601 24.5153
112.365 502 22.4054
112.482 477 21.8403
112.599 517 22.7376
112.716 614 24.779
112.832 722 26.8701
112.949 828 28.775
113.066 815 28.5482
113.183 783 27.9821
113.3 861 29.3428
113.417 858 29.2916
113.534 836 28.9137
113.652 847 29.1033
113.769 800 28.2843
113.886 762 27.6043
114.003 794 28.178
114.12 816 28.5657
114.238 827 28.7576
114.355 778 27.8927
114.472 873 29.5466
114.589 746 27.313
114.707 865 29.4109
114.824 838 28.9482
114.942 884 29.7321
115.059 880 29.6648
115.176 853 29.2062
115.294 813 28.5132
115.411 784 28
115.529 780 27.9285
115.646 733 27.074
115.764 612 24.7386
115.881 559 23.6432
115.999 473 21.7486
116.116 547 23.388
116.234 527 22.9565
116.351 670 25.8844
116.469 795 28.1957
116.586 798 28.2489
116.704 794 28.178
116.821 818 28.6007
116.939 853 29.2062
117.056 841 29
117.174 791 28.1247
117.291 765 27.6586
117.409 799 28.2666
117.526 779 27.9106
117.644 771 27.7669
117.761 763 27.6225
117.879 819 28.6182
117.996 813 28.5132
118.114 794 28.178
118.231 812 28.4956
118.349 840 28.9828
118.466 872 29.5296
118.584 892 29.8664
118.701 868 29.4618
118.819 832 28.8444
118.936 846 29.0861
119.053 748 27.3496
119.171 750 27.3861
119.288 715 26.7395
119.405 604 24.5764
119.523 529 23
119.64 439 20.9523
119.757 481 21.9317
119.875 562 23.7065
119.992 697 26.4008
120.109 771 27.7669
120.226 776 27.8568
120.343 787 28.0535
120.46 759 27.55
120.578 772 27.7849
120.695 796 28.2135
120.812 749 27.3679
120.929 757 27.5136
121.046 789 28.0891
121.163 734 27.0924
121.279 783 27.9821
121.396 721 26.8514
121.513 702 26.4953
121.63 768 27.7128
121.747 770 27.7489
121.863 771 27.7669
121.98 786 28.0357
122.097 782 27.9643
122.213 799 28.2666
122.33 738 27.1662
122.446 724 26.9072
122.563 690 26.2679
122.679 685 26.1725
122.795 576 24
122.912 541 23.2594
123.028 407 20.1742
123.144 305 17.4642
123.26 229 15.1327
123.377 0 1
123.493 0 1
123.609 0 1
123.725 0 1
123.84 0 1
123.956 0 1
124.072 0 1
124.188 0 1
124.303 0 1
124.419 0 1
126.852 0 1
126.968 0 1
127.083 0 1
127.199 0 1
127.315 0 1
127.431 0 1
127.547 0 1
127.663 0 1
127.779 0 1
127.895 0 1
128.011 0 1
128.127 0 1
128.243 0 1
128.359 660 25.6905
128.476 610 24.6982
128.592 642 25.3377
128.708 492 22.1811
128.825 501 22.383
128.941 575 23.9792
129.058 692 26.3059
129.174 773 27.8029
129.291 784 28
129.408 791 28.1247
129.524 810 28.4605
129.641 882 29.6985
129.758 851 29.1719
129.875 837 28.931
129.992 831 28.8271
130.108 823 28.688
130.225 806 28.3901
130.342 779 27.9106
130.459 811 28.4781
130.576 812 28.4956
130.693 869 29.4788
130.81 884 29.7321
130.928 878 29.6311
131.045 869 29.4788
131.162 832 28.8444
131.279 861 29.3428
131.396 852 29.189
131.513 821 28.6531
131.631 762 27.6043
131.748 762 27.6043
131.865 768 27.7128
131.983 663 25.7488
132.1 579 24.0624
132.217 557 23.6008
132.335 516 22.7156
132.452 544 23.3238
132.57 662 25.7294
132.687 775 27.8388
132.804 732 27.0555
132.922 831 28.8271
133.039 826 28.7402
133.157 883 29.7153
133.274 835 28.8964
133.392 864 29.3939
133.509 829 28.7924
133.627 838 28.9482
133.744 808 28.4253
133.862 800 28.2843
133.979 778 27.8927
134.097 857 29.2746
134.214 790 28.1069
134.332 796 28.2135
134.449 871 29.5127
134.567 839 28.9655
134.684 823 28.688
134.802 783 27.9821
134.919 859 29.3087
135.037 815 28.5482
135.154 778 27.8927
135.272 768 27.7128
135.389 759 27.55
135.507 687 26.2107
135.624 647 25.4362
135.742 523 22.8692
135.859 522 22.8473
135.977 527 22.9565
136.094 627 25.04
136.211 729 27
136.329 793 28.1603
136.446 810 28.4605
136.564 828 28.775
136.681 776 27.8568
136.798 858 29.2916
136.915 817 28.5832
137.033 808 28.4253
137.15 852 29.189
137.267 796 28.2135
137.384 834 28.8791
137.502 828 28.775
137.619 790 28.1069
137.736 837 28.931
137.853 751 27.4044
137.97 771 27.7669
138.087 820 28.6356
138.204 740 27.2029
138.321 801 28.3019
138.438 814 28.5307
138.555 842 29.0172
138.672 777 27.8747
138.788 759 27.55
138.905 719 26.8142
139.022 695 26.3629
139.139 636 25.219
139.255 661 25.7099
139.372 486 22.0454
139.488 472 21.7256
139.605 493 22.2036
139.721 474 21.7715
139.838 511 22.6053
139.954 594 24.3721
140.071 602 24.5357
140.187 508 22.5389
140.303 430 20.7364
140.419 398 19.9499
140.535 330 18.1659
140.652 338 18.3848
140.768 0 1
140.884 0 1
141 0 1
141.115 0 1
141.231 0 1
141.347 0 1
141.463 0 1
141.578 0 1
141.694 0 1
144.104 0 1
144.219 0 1
144.335 0 1
144.45 0 1
144.566 0 1
144.682 0 1
144.798 0 1
144.914 0 1
145.03 0 1
145.146 470 21.6795
145.262 547 23.388
145.378 612 24.7386
145.494 613 24.7588
145.61 639 25.2784
145.726 599 24.4745
145.842 660 25.6905
145.959 626 25.02
146.075 602 24.5357
146.192 607 24.6374
146.308 569 23.8537
146.425 608 24.6577
146.541 559 23.6432
146.658 591 24.3105
146.774 606 24.6171
146.891 611 24.7184
147.008 579 24.0624
147.125 594 24.3721
147.241 609 24.6779
147.358 629 25.0799
147.475 605 24.5967
147.592 587 24.2281
147.709 582 24.1247
147.826 565 23.7697
147.943 514 22.6716
148.06 488 22.0907
148.177 411 20.2731
148.294 405 20.1246
148.411 408 20.199
148.528 417 20.4206
148.645 510 22.5832
148.762 560 23.6643
148.88 618 24.8596
148.997 650 25.4951
149.114 662 25.7294
149.231 639 25.2784
149.349 616 24.8193
149.466 621 24.9199
149.583 575 23.9792
149.701 618 24.8596
149.818 581 24.1039
149.935 611 24.7184
150.053 615 24.7992
150.17 573 23.9374
150.287 587 24.2281
150.405 566 23.7908
150.522 613 24.7588
150.64 581 24.1039
150.757 568 23.8328
150.875 560 23.6643
150.992 591 24.3105
151.11 607 24.6374
151.227 559 23.6432
151.344 556 23.5797
151.462 502 22.4054
151.579 511 22.6053
151.697 474 21.7715
151.814 426 20.6398
151.932 411 20.2731
152.049 372 19.2873
152.167 474 21.7715
152.284 491 22.1585
152.402 558 23.622
152.519 569 23.8537
152.636 568 23.8328
152.754 576 24
152.871 584 24.1661
152.989 621 24.9199
153.106 625 25
153.223 559 23.6432
153.341 630 25.0998
153.458 595 24.3926
153.575 556 23.5797
153.693 595 24.3926
153.81 611 24.7184
153.927 606 24.6171
154.044 593 24.3516
154.162 546 23.3666
154.279 572 23.9165
154.396 627 25.04
154.513 636 25.219
154.63 571 23.8956
154.747 612 24.7386
154.864 561 23.6854
154.981 530 23.0217
155.098 541 23.2594
155.215 515 22.6936
155.332 439 20.9523
155.449 465 21.5639
155.566 402 20.0499
155.683 451 21.2368
155.8 476 21.8174
155.917 502 22.4054
156.033 574 23.9583
156.15 0 1
156.267 0 1
156.383 0 1
156.5 0 1
156.617 0 1
156.733 0 1
156.85 0 1
156.966 0 1
157.082 0 1
157.199 0 1
157.315 0 1
157.431 0 1
157.547 0 1
157.664 0 1
157.78 0 1
157.896 0 1
158.012 0 1
158.128 0 1
158.244 0 1
158.359 0 1
158.475 0 1
158.591 0 1
158.706 0 1
