
6.15755 0 1
6.2731 0 1
6.3887 0 1
6.50437 0 1
6.62009 0 1
6.73587 0 1
6.8517 0 1
6.96759 0 1
7.08353 0 1
7.19952 0 1
7.31557 0 1
7.43166 0 1
7.54781 0 1
7.664 0 1
7.78024 0 1
7.89653 0 1
8.01286 0 1
8.12924 0 1
8.24567 0 1
8.36213 0 1
8.47864 0 1
8.59519 0 1
8.71178 0 1
8.82841 0 1
8.94508 0 1
9.06179 0 1
9.17853 0 1
9.29531 0 1
9.41212 0 1
9.52897 0 1
9.64584 0 1
9.76276 0 1
9.8797 0 1
9.99667 0 1
10.1137 0 1
10.2307 0 1
10.3478 0 1
10.4648 0 1
10.5819 0 1
10.6991 0 1
10.8162 0 1
10.9334 0 1
11.0506 0 1
11.1678 0 1
11.285 0 1
11.4023 0 1
11.5196 0 1
11.6369 0 1
11.7542 0 1
11.8715 0 1
11.9888 0 1
12.1062 0 1
12.2235 0 1
12.3409 0 1
12.4582 0 1
12.5756 0 1
12.693 0 1
12.8104 0 1
12.9278 0 1
13.0452 0 1
13.1626 0 1
13.28 0 1
13.3974 0 1
13.5149 0 1
13.6323 0 1
13.7497 0 1
13.8671 0 1
13.9845 0 1
14.1019 0 1
14.2193 0 1
14.3367 0 1
14.4541 0 1
14.5714 0 1
14.6888 0 1
14.8062 0 1
14.9235 0 1
15.0408 45179 212.554
15.1581 47625 218.232
15.2755 49647 222.816
15.3927 51364 226.636
15.51 51706 227.39
15.6273 51877 227.765
15.7445 50488 224.695
15.8617 48711 220.706
15.9789 45453 213.197
16.0961 45886 214.21
16.2132 47668 218.33
16.3304 50506 224.735
16.4475 53380 231.041
16.5646 54078 232.547
16.6816 54737 233.959
16.7986 53691 231.713
16.9156 53660 231.646
17.0326 53634 231.59
17.1496 53781 231.907
17.2665 53876 232.112
17.3833 53418 231.123
17.5002 53461 231.216
17.617 53797 231.942
17.7338 52957 230.124
17.8505 52911 230.024
17.9672 51860 227.728
18.0839 51393 226.7
18.2005 51596 227.148
18.3171 52618 229.386
18.4337 54523 233.502
18.5502 56959 238.661
18.6666 57363 239.506
18.7831 57504 239.8
18.8994 57244 239.257
19.0158 55413 235.4
19.1321 54394 233.225
19.2483 52086 228.224
19.3645 49128 221.648
19.4806 46174 214.881
19.5967 45079 212.318
19.7128 46428 215.472
19.8288 48411 220.025
19.9447 46522 215.69
20.0606 0 1
20.1764 0 1
20.2922 0 1
20.4079 0 1
20.5236 0 1
20.6392 0 1
20.7548 0 1
20.8702 0 1
23.3078 0 1
23.4233 0 1
23.539 0 1
23.6547 0 1
23.7704 0 1
23.8862 0 1
24.0021 0 1
24.118 0 1
24.234 0 1
24.35 0 1
24.4661 48010 219.112
24.5822 45844 214.112
24.6984 46005 214.488
24.8146 47543 218.044
24.9309 50705 225.178
25.0472 54133 232.665
25.1636 56340 237.36
25.28 57503 239.798
25.3965 56974 238.692
25.513 57371 239.522
25.6296 58262 241.375
25.7462 58936 242.767
25.8628 58939 242.774
25.9795 58665 242.209
26.0962 58290 241.433
26.213 57311 239.397
26.3298 56364 237.411
26.4466 54304 233.032
26.5635 53296 230.859
26.6804 53494 231.288
26.7973 53942 232.254
26.9143 53895 232.153
27.0313 55099 234.732
27.1483 56609 237.926
27.2653 56797 238.321
27.3824 58342 241.541
27.4996 58428 241.719
27.6167 56974 238.692
27.7339 55607 235.811
27.8511 53714 231.763
27.9683 51611 227.181
28.0855 48622 220.504
28.2028 45534 213.387
28.3201 45470 213.237
28.4374 48181 219.502
28.5547 51197 226.268
28.6721 54469 233.386
28.7894 55876 236.381
28.9068 56320 237.318
29.0242 56128 236.913
29.1416 55592 235.78
29.259 54958 234.431
29.3764 54987 234.493
29.4939 54696 233.872
29.6113 54195 232.798
29.7288 52960 230.13
29.8463 51843 227.691
29.9638 50828 225.451
30.0812 49922 223.432
30.1987 49274 221.977
30.3162 49999 223.605
30.4337 50436 224.58
30.5512 51034 225.907
30.6687 51776 227.543
30.7862 53652 231.629
30.9037 53992 232.362
31.0212 54595 233.656
31.1387 54244 232.903
31.2562 53593 231.502
31.3737 52641 229.436
31.4912 50167 223.98
31.6087 47522 217.995
31.7262 44448 210.827
31.8436 43658 208.945
31.9611 45764 213.925
32.0785 48812 220.934
32.1959 52460 229.041
32.3134 53861 232.08
32.4308 54214 232.839
32.5482 53883 232.127
32.6655 53377 231.035
32.7829 53445 231.182
32.9002 53148 230.539
33.0176 52957 230.124
33.1349 53532 231.37
33.2522 52779 229.737
33.3694 51583 227.119
33.4867 50464 224.642
33.6039 49091 221.565
33.7211 47985 219.055
33.8383 47782 218.591
33.9554 48121 219.365
34.0725 49039 221.448
34.1896 48769 220.837
34.3067 49436 222.342
34.4237 50416 224.535
34.5407 50866 225.535
34.6577 51392 226.698
34.7746 51650 227.266
34.8915 51627 227.216
35.0084 50699 225.164
35.1252 48693 220.665
35.242 47424 217.771
35.3587 43729 209.115
35.4755 41634 204.044
35.5921 42120 205.232
35.7088 43405 208.339
35.8254 46720 216.148
35.9419 50108 223.848
36.0584 50865 225.533
36.1749 51745 227.475
36.2913 51357 226.621
36.4077 50936 225.69
36.524 51016 225.867
36.6403 50900 225.61
36.7565 51226 226.332
36.8727 51091 226.033
36.9889 49522 222.535
37.1049 47913 218.89
37.221 0 1
37.3369 0 1
37.4529 0 1
37.5687 0 1
37.6845 0 1
37.8003 0 1
37.916 0 1
38.0316 0 1
38.1472 0 1
40.5851 0 1
40.7008 0 1
40.8164 0 1
40.9322 0 1
41.048 0 1
41.1639 0 1
41.2798 0 1
41.3958 0 1
41.5118 0 1
41.6279 0 1
41.744 38716 196.764
41.8602 41314 203.258
41.9765 41794 204.436
42.0928 41713 204.238
42.2091 40722 201.797
42.3255 39227 198.058
42.4419 38151 195.323
42.5584 37167 192.787
42.675 36736 191.666
42.7915 36806 191.849
42.9081 37123 192.673
43.0248 37670 194.088
43.1415 37803 194.43
43.2582 38201 195.451
43.375 38073 195.123
43.4918 37867 194.594
43.6087 38063 195.097
43.7256 37676 194.103
43.8425 37101 192.616
43.9595 35540 188.521
44.0765 34640 186.118
44.1935 32224 179.51
44.3106 29978 173.142
44.4277 28290 168.196
44.5448 28217 167.979
44.6619 29477 171.689
44.7791 31547 177.615
44.8963 32116 179.209
45.0136 32147 179.296
45.1308 32008 178.908
45.2481 31664 177.944
45.3654 30684 175.168
45.4827 30290 174.04
45.6001 30361 174.244
45.7174 29496 171.744
45.8348 28951 170.15
45.9522 28037 167.443
46.0697 26847 163.851
46.1871 26351 162.33
46.3046 26208 161.889
46.422 26320 162.234
46.5395 26443 162.613
46.657 26759 163.582
46.7745 26679 163.337
46.892 26795 163.692
47.0096 26461 162.668
47.1271 26555 162.957
47.2446 26350 162.327
47.3622 26169 161.768
47.4797 25197 158.736
47.5973 24715 157.21
47.7149 23647 153.776
47.8324 22127 148.751
47.95 20711 143.913
48.0675 20189 142.088
48.1851 21194 145.582
48.3027 22041 148.462
48.4202 23372 152.879
48.5378 24092 155.216
48.6554 23952 154.764
48.7729 24129 155.335
48.8904 24432 156.307
49.008 24363 156.087
49.1255 23927 154.684
49.243 24284 155.833
49.3605 23678 153.877
49.478 23355 152.823
49.5955 22780 150.93
49.713 22980 151.592
49.8304 23407 152.993
49.9479 24197 155.554
50.0653 25142 158.562
50.1827 25941 161.062
50.3001 27083 164.569
50.4175 27997 167.323
50.5348 28408 168.547
50.6521 29784 172.58
50.7694 30228 173.862
50.8867 30891 175.758
51.004 31587 177.727
51.1212 31333 177.011
51.2384 31428 177.279
51.3556 31002 176.074
51.4727 29983 173.156
51.5899 29821 172.688
51.707 32690 180.804
51.824 36130 190.079
51.9411 39208 198.01
52.0581 40610 201.519
52.175 41881 204.648
52.2919 43165 207.762
52.4088 43928 209.59
52.5257 45013 212.163
52.6425 45918 214.285
52.7593 46076 214.653
52.876 45790 213.986
52.9927 45062 212.278
53.1094 44755 211.554
53.226 44126 210.062
53.3426 44307 210.492
53.4591 44619 211.232
53.5756 46935 216.645
53.692 48225 219.602
53.8084 49941 223.475
53.9248 50952 225.725
54.0411 52888 229.974
54.1573 53147 230.536
54.2735 0 1
54.3896 0 1
54.5057 0 1
54.6217 0 1
54.7377 0 1
54.8537 0 1
54.9695 0 1
55.0853 0 1
55.2011 0 1
55.3168 0 1
55.4324 0 1
57.824 0 1
57.9396 0 1
58.0553 0 1
58.1711 0 1
58.2869 0 1
58.4028 0 1
58.5187 0 1
58.6347 0 1
58.7508 0 1
58.8669 0 1
58.983 53112 230.46
59.0992 56712 238.143
59.2155 57848 240.516
59.3318 58363 241.584
59.4482 58965 242.827
59.5646 58382 241.624
59.681 58592 242.058
59.7975 57420 239.625
59.9141 56982 238.709
60.0306 55034 234.593
60.1473 52607 229.362
60.2639 50079 223.783
60.3807 49604 222.72
60.4974 50452 224.615
60.6142 53604 231.525
60.731 56487 237.67
60.8479 57982 240.795
60.9648 59028 242.957
61.0818 58962 242.821
61.1987 58316 241.487
61.3158 58254 241.359
61.4328 57553 239.902
61.5499 55511 235.608
61.667 53880 232.121
61.7841 52346 228.792
61.9013 50616 224.98
62.0185 50147 223.935
62.1357 51036 225.911
62.253 51802 227.601
62.3702 53222 230.699
62.4875 53756 231.853
62.6049 54229 232.871
62.7222 54374 233.182
62.8396 55265 235.085
62.9569 55047 234.621
63.0743 55045 234.617
63.1918 54723 233.929
63.3092 54017 232.416
63.4267 52546 229.229
63.5441 50639 225.031
63.6616 48074 219.258
63.7791 45793 213.993
63.8966 44490 210.927
64.0142 45409 213.094
64.1317 48066 219.24
64.2492 50634 225.02
64.3668 52532 229.199
64.4843 53119 230.476
64.6019 52633 229.419
64.7195 52147 228.357
64.837 52009 228.055
64.9546 51476 226.883
65.0722 50392 224.482
65.1898 48224 219.6
65.3074 47766 218.554
65.4249 44860 211.802
65.5425 44545 211.057
65.6601 44424 210.77
65.7777 45998 214.471
65.8952 47727 218.465
66.0128 48829 220.973
66.1304 50065 223.752
66.2479 51406 226.729
66.3655 52236 228.552
66.483 53038 230.3
66.6005 54190 232.787
66.718 54729 233.942
66.8355 55214 234.977
66.953 55112 234.759
67.0705 54191 232.79
67.1879 53077 230.384
67.3054 50745 225.267
67.4228 49358 222.167
67.5402 48222 219.595
67.6576 50484 224.686
67.7749 54001 232.381
67.8923 59635 244.203
68.0096 62761 250.521
68.1269 64114 253.207
68.2442 65645 256.213
68.3614 65698 256.316
68.4787 66492 257.86
68.5958 67552 259.908
68.713 66602 258.074
68.8302 64408 253.787
68.9473 63229 251.454
69.0643 60956 246.893
69.1814 59885 244.714
69.2984 60446 245.858
69.4154 62026 249.05
69.5323 64111 253.202
69.6492 66650 258.167
69.7661 69346 263.336
69.8829 69794 264.186
69.9997 70962 266.387
70.1165 71371 267.154
70.2332 72687 269.605
70.3499 72182 268.667
70.4665 73564 271.227
70.5831 72955 270.102
70.6996 71065 266.58
70.8161 69395 263.429
70.9326 66073 257.047
71.049 62907 250.813
71.1653 59142 243.191
71.2817 57271 239.314
71.3979 58061 240.959
71.5141 60392 245.748
71.6303 63812 252.61
71.7464 63400 251.794
71.8624 0 1
71.9784 0 1
72.0944 0 1
72.2102 0 1
72.3261 0 1
72.4418 0 1
72.5575 0 1
72.6732 0 1
75.1054 0 1
75.2209 0 1
75.3365 0 1
75.4521 0 1
75.5678 0 1
75.6835 0 1
75.7993 0 1
75.9151 0 1
76.031 0 1
76.147 45292 212.819
76.263 47180 217.21
76.3791 45739 213.867
76.4952 42929 207.193
76.6113 44438 210.803
76.7276 47530 218.014
76.8438 51107 226.069
76.9601 53319 230.909
77.0765 53398 231.08
77.1929 53289 230.844
77.3093 53264 230.79
77.4258 52305 228.703
77.5423 52107 228.27
77.6589 49643 222.807
77.7755 47385 217.681
77.8921 45172 212.537
78.0088 44007 209.778
78.1256 43158 207.745
78.2423 42991 207.343
78.3591 43410 208.351
78.4759 46072 214.644
78.5928 47347 217.594
78.7097 47839 218.721
78.8266 47199 217.253
78.9436 49903 223.39
79.0606 48504 220.236
79.1776 49032 221.432
79.2946 49831 223.229
79.4117 49873 223.323
79.5288 49792 223.141
79.6459 48933 221.208
79.7631 46556 215.768
79.8802 45364 212.988
79.9974 43350 208.207
80.1147 41011 202.512
80.2319 41096 202.721
80.3491 43778 209.232
80.4664 48095 219.306
80.5837 50059 223.739
80.701 50149 223.94
80.8183 49988 223.58
80.9357 50469 224.653
81.053 49559 222.619
81.1704 49814 223.191
81.2877 49803 223.166
81.4051 47611 218.199
81.5225 45110 212.391
81.6399 42328 205.738
81.7573 41981 204.893
81.8747 40837 202.082
81.9922 41691 204.184
82.1096 44073 209.936
82.227 45955 214.371
82.3444 46450 215.523
82.4619 47440 217.807
82.5793 48694 220.667
82.6967 47466 217.867
82.8142 48899 221.131
82.9316 48661 220.592
83.049 49167 221.736
83.1664 49609 222.731
83.2838 48698 220.676
83.4012 47565 218.094
83.5186 45707 213.792
83.636 43263 207.998
83.7534 40888 202.208
83.8708 40535 201.333
83.9881 43287 208.055
84.1055 46774 216.273
84.2228 51639 227.242
84.3401 52792 229.765
84.4575 53190 230.63
84.5747 53077 230.384
84.692 52638 229.43
84.8093 52898 229.996
84.9265 51611 227.181
85.0437 48632 220.527
85.1609 46059 214.614
85.2781 44755 211.554
85.3952 43914 209.557
85.5123 44526 211.012
85.6294 46347 215.284
85.7465 49496 222.477
85.8636 51474 226.879
85.9806 51726 227.434
86.0976 53152 230.547
86.2145 53982 232.34
86.3315 55188 234.921
86.4484 56201 237.068
86.5652 57085 238.925
86.682 57797 240.41
86.7988 58854 242.598
86.9156 58265 241.381
87.0323 57764 240.341
87.149 55435 235.446
87.2657 53435 231.16
87.3823 51046 225.934
87.4988 53304 230.877
87.6154 57344 239.466
87.7318 64608 254.181
87.8483 68221 261.192
87.9647 70092 264.749
88.081 70566 265.643
88.1973 71651 267.677
88.3136 72077 268.472
88.4298 72661 269.557
88.546 71056 266.563
88.6621 67297 259.417
88.7781 63993 252.968
88.8942 0 1
89.0101 0 1
89.126 0 1
89.2419 0 1
89.3577 0 1
89.4734 0 1
89.5891 0 1
89.7047 0 1
89.8203 0 1
89.9358 0 1
92.3269 0 1
92.4424 0 1
92.558 0 1
92.6736 0 1
92.7893 0 1
92.905 0 1
93.0208 0 1
93.1366 0 1
93.2525 0 1
93.3685 0 1
93.4845 0 1
93.6005 85614 292.599
93.7167 85913 293.109
93.8328 83697 289.304
93.949 78648 280.443
94.0653 75309 274.425
94.1816 72488 269.236
94.2979 71318 267.054
94.4143 72028 268.38
94.5307 73836 271.728
94.6472 78784 280.685
94.7637 83015 288.123
94.8803 84875 291.333
94.9969 86333 293.825
95.1135 87515 295.829
95.2302 88163 296.923
95.3469 89547 299.244
95.4637 90849 301.412
95.5805 91557 302.584
95.6973 92242 303.714
95.8142 91681 302.789
95.9311 90925 301.538
96.048 89316 298.858
96.1649 85732 292.8
96.2819 81324 285.174
96.3989 74984 273.832
96.516 73803 271.667
96.633 77561 278.498
96.7501 83044 288.174
96.8673 89377 298.96
96.9844 92111 303.498
97.1016 92743 304.537
97.2188 90945 301.571
97.336 91217 302.022
97.4532 88863 298.099
97.5704 85111 291.738
97.6877 79831 282.544
97.805 72775 269.768
97.9223 68773 262.246
98.0396 66073 257.047
98.1569 65861 256.634
98.2743 66730 258.322
98.3916 71645 267.666
98.509 74361 272.692
98.6264 75247 274.312
98.7438 75331 274.465
98.8612 75497 274.767
98.9786 75340 274.481
99.096 74428 272.815
99.2134 74574 273.082
99.3308 73565 271.229
99.4482 72813 269.839
99.5656 71534 267.458
99.6831 68799 262.296
99.8005 66263 257.416
99.9179 63057 251.112
100.035 57094 238.944
100.153 55722 236.055
100.27 58101 241.041
100.388 63145 251.287
100.505 66818 258.492
100.622 67882 260.542
100.74 67673 260.14
100.857 67693 260.179
100.975 66647 258.161
101.092 65652 256.226
101.209 65039 255.027
101.327 60716 246.406
101.444 56041 236.73
101.561 52593 229.332
101.679 51586 227.126
101.796 51168 226.203
101.913 52965 230.141
102.03 57205 239.176
102.148 59932 244.81
102.265 56004 236.652
102.382 65981 256.868
102.499 62212 249.423
102.616 62192 249.383
102.733 62184 249.367
102.851 62264 249.528
102.968 63157 251.311
103.085 61951 248.9
103.202 61069 247.121
103.319 58888 242.668
103.436 56392 237.47
103.552 52263 228.611
103.669 49513 222.515
103.786 51896 227.807
103.903 55127 234.791
104.02 58547 241.965
104.137 60063 245.078
104.253 59744 244.426
104.37 59186 243.282
104.487 59004 242.907
104.603 58458 241.781
104.72 57232 239.232
104.836 54001 232.381
104.953 48881 221.09
105.069 45927 214.306
105.186 44700 211.424
105.302 44229 210.307
105.418 46798 216.328
105.535 49867 223.309
105.651 51002 225.836
105.767 52054 228.153
105.883 52028 228.096
105.999 52179 228.427
106.115 0 1
106.231 0 1
106.347 0 1
106.463 0 1
106.579 0 1
106.694 0 1
106.81 0 1
106.926 0 1
107.041 0 1
107.157 0 1
109.576 0 1
109.692 0 1
109.807 0 1
109.923 0 1
110.039 0 1
110.155 0 1
110.27 0 1
110.386 0 1
110.502 0 1
110.618 41025 202.546
110.735 44708 211.443
110.851 46457 215.539
110.967 47199 217.253
111.083 47165 217.175
111.199 48384 219.964
111.316 49282 221.995
111.432 49288 222.009
111.549 49583 222.672
111.665 49058 221.49
111.782 48689 220.656
111.898 46866 216.486
112.015 44732 211.499
112.132 41974 204.876
112.248 39887 199.717
112.365 40816 202.03
112.482 44349 210.592
112.599 46035 214.558
112.716 48196 219.536
112.832 48653 220.574
112.949 48551 220.343
113.066 47962 219.002
113.183 47866 218.783
113.3 47790 218.609
113.417 46224 214.998
113.534 42443 206.017
113.652 39074 197.671
113.769 36921 192.148
113.886 35604 188.69
114.003 35697 188.936
114.12 38944 197.342
114.238 41819 204.497
114.355 43312 208.115
114.472 44759 211.563
114.589 43354 208.216
114.707 44271 210.407
114.824 44310 210.499
114.942 44272 210.409
115.059 44455 210.844
115.176 44251 210.359
115.294 43332 208.163
115.411 41950 204.817
115.529 40567 201.413
115.646 38311 195.732
115.764 35537 188.513
115.881 34815 186.588
115.999 35702 188.95
116.116 37558 193.799
116.234 40198 200.494
116.351 41276 203.165
116.469 40737 201.834
116.586 40539 201.343
116.704 40315 200.786
116.821 40664 201.653
116.939 40082 200.205
117.056 38294 195.689
117.174 35667 188.857
117.291 33033 181.75
117.409 30868 175.693
117.526 30020 173.263
117.644 31163 176.53
117.761 34385 185.432
117.879 37324 193.194
117.996 38079 195.138
118.114 39566 198.912
118.231 40505 201.259
118.349 39703 199.256
118.466 40006 200.015
118.584 41352 203.352
118.701 41269 203.148
118.819 41077 202.675
118.936 41011 202.512
119.053 40201 200.502
119.171 39496 198.736
119.288 38062 195.095
119.405 36010 189.763
119.523 35518 188.462
119.64 36847 191.956
119.757 38952 197.363
119.875 41531 203.792
119.992 43505 208.579
120.109 44333 210.554
120.226 45064 212.283
120.343 45541 213.403
120.46 45903 214.25
120.578 46703 216.109
120.695 45925 214.301
120.812 42864 207.036
120.929 40089 200.222
121.046 37664 194.072
121.163 35709 188.968
121.279 36119 190.05
121.396 38379 195.906
121.513 42762 206.79
121.63 45651 213.661
121.747 47987 219.059
121.863 48968 221.287
121.98 50380 224.455
122.097 50528 224.784
122.213 51255 226.396
122.33 51259 226.405
122.446 51439 226.802
122.563 50714 225.198
122.679 50490 224.7
122.795 49428 222.324
122.912 48911 221.158
123.028 46579 215.822
123.144 43826 209.347
123.26 42538 206.247
123.377 0 1
123.493 0 1
123.609 0 1
123.725 0 1
123.84 0 1
123.956 0 1
124.072 0 1
124.188 0 1
124.303 0 1
124.419 0 1
126.852 0 1
126.968 0 1
127.083 0 1
127.199 0 1
127.315 0 1
127.431 0 1
127.547 0 1
127.663 0 1
127.779 0 1
127.895 0 1
128.011 0 1
128.127 0 1
128.243 0 1
128.359 52664 229.486
128.476 51274 226.438
128.592 48081 219.274
128.708 47409 217.736
128.825 48886 221.102
128.941 51779 227.55
129.058 55421 235.417
129.174 56587 237.88
129.291 56960 238.663
129.408 57046 238.843
129.524 57106 238.969
129.641 56572 237.849
129.758 55370 235.308
129.875 52578 229.299
129.992 48721 220.728
130.108 45697 213.769
130.225 42361 205.818
130.342 40710 201.767
130.459 42265 205.585
130.576 44244 210.343
130.693 47452 217.835
130.81 50072 223.768
130.928 51866 227.741
131.045 52275 228.637
131.162 52549 229.236
131.279 52963 230.137
131.396 52617 229.384
131.513 52257 228.598
131.631 50658 225.073
131.748 50015 223.64
131.865 48583 220.416
131.983 46548 215.75
132.1 44008 209.781
132.217 42253 205.555
132.335 42523 206.211
132.452 43940 209.619
132.57 46416 215.444
132.687 47149 217.138
132.804 49996 223.598
132.922 48196 219.536
133.039 47757 218.534
133.157 47518 217.986
133.274 47071 216.959
133.392 45642 213.64
133.509 41428 203.539
133.627 39098 197.732
133.744 36127 190.071
133.862 34250 185.068
133.979 34155 184.811
134.097 35887 189.439
134.214 38172 195.377
134.332 39010 197.509
134.449 41008 202.504
134.567 41761 204.355
134.684 41956 204.832
134.802 42361 205.818
134.919 41617 204.002
135.037 41419 203.517
135.154 40286 200.714
135.272 39279 198.189
135.389 38930 197.307
135.507 37433 193.476
135.624 35318 187.931
135.742 33415 182.798
135.859 32921 181.441
135.977 33447 182.885
136.094 34747 186.405
136.211 36055 189.882
136.329 37215 192.912
136.446 37701 194.167
136.564 36783 191.789
136.681 36720 191.625
136.798 37201 192.876
136.915 36521 191.105
137.033 35176 187.553
137.15 32633 180.646
137.267 30514 174.683
137.384 29234 170.98
137.502 27848 166.877
137.619 27973 167.251
137.736 29956 173.078
137.853 31490 177.454
137.97 33395 182.743
138.087 35380 188.096
138.204 36500 191.05
138.321 37824 194.484
138.438 38383 195.916
138.555 38550 196.342
138.672 38979 197.431
138.788 38733 196.807
138.905 38529 196.288
139.022 38152 195.325
139.139 37539 193.75
139.255 36459 190.942
139.372 34931 186.898
139.488 35014 187.12
139.605 36012 189.768
139.721 37579 193.853
139.838 40115 200.287
139.954 41259 203.123
140.071 41184 202.938
140.187 42499 206.153
140.303 42697 206.633
140.419 42255 205.56
140.535 42795 206.87
140.652 41853 204.58
140.768 0 1
140.884 0 1
141 0 1
141.115 0 1
141.231 0 1
141.347 0 1
141.463 0 1
141.578 0 1
141.694 0 1
144.104 0 1
144.219 0 1
144.335 0 1
144.45 0 1
144.566 0 1
144.682 0 1
144.798 0 1
144.914 0 1
145.03 0 1
145.146 36286 190.489
145.262 36817 191.878
145.378 36639 191.413
145.494 36982 192.307
145.61 36266 190.436
145.726 35949 189.602
145.842 34257 185.086
145.959 31934 178.701
146.075 29980 173.147
146.192 28256 168.095
146.308 27034 164.42
146.425 26815 163.753
146.541 27857 166.904
146.658 28988 170.259
146.774 29717 172.386
146.891 31164 176.533
147.008 31331 177.006
147.125 32355 179.875
147.241 32366 179.906
147.358 32362 179.894
147.475 31797 178.317
147.592 31278 176.856
147.709 30381 174.301
147.826 30130 173.58
147.943 28898 169.994
148.06 27115 164.666
148.177 26409 162.508
148.294 26447 162.625
148.411 26583 163.043
148.528 27749 166.58
148.645 28362 168.41
148.762 28568 169.021
148.88 28589 169.083
148.997 29458 171.633
149.114 27005 164.332
149.231 28162 167.815
149.349 27637 166.244
149.466 27138 164.736
149.583 25527 159.772
149.701 23802 154.279
149.818 22921 151.397
149.935 21768 147.54
150.053 22215 149.047
150.17 23230 152.414
150.287 24189 155.528
150.405 25171 158.654
150.522 26137 161.669
150.64 27049 164.466
150.757 27301 165.23
150.875 27848 166.877
150.992 27797 166.724
151.11 28238 168.042
151.227 27726 166.511
151.344 27319 165.285
151.462 27612 166.169
151.579 26648 163.242
151.697 25975 161.168
151.814 24896 157.785
151.932 24991 158.085
152.049 26279 162.108
152.167 26805 163.722
152.284 28272 168.143
152.402 29173 170.801
152.519 29069 170.496
152.636 29573 171.968
152.754 29529 171.84
152.871 29880 172.858
152.989 29402 171.47
153.106 28466 168.719
153.223 26782 163.652
153.341 25713 160.353
153.458 24466 156.416
153.575 24135 155.354
153.693 24812 157.518
153.81 26179 161.799
153.927 27386 165.487
154.044 28461 168.704
154.162 29437 171.572
154.279 30441 174.473
154.396 31854 178.477
154.513 32973 181.585
154.63 33563 183.202
154.747 34457 185.626
154.864 34363 185.373
154.981 33794 183.831
155.098 34135 184.757
155.215 33455 182.907
155.332 32529 180.358
155.449 32093 179.145
155.566 32798 181.102
155.683 33860 184.011
155.8 35381 188.098
155.917 36800 191.833
156.033 37782 194.376
156.15 0 1
156.267 0 1
156.383 0 1
156.5 0 1
156.617 0 1
156.733 0 1
156.85 0 1
156.966 0 1
157.082 0 1
157.199 0 1
157.315 0 1
157.431 0 1
157.547 0 1
157.664 0 1
157.78 0 1
157.896 0 1
158.012 0 1
158.128 0 1
158.244 0 1
158.359 0 1
158.475 0 1
158.591 0 1
158.706 0 1
