
6.15755 0 1
6.2731 0 1
6.3887 0 1
6.50437 0 1
6.62009 0 1
6.73587 0 1
6.8517 0 1
6.96759 0 1
7.08353 0 1
7.19952 0 1
7.31557 0 1
7.43166 0 1
7.54781 0 1
7.664 0 1
7.78024 0 1
7.89653 0 1
8.01286 0 1
8.12924 0 1
8.24567 0 1
8.36213 0 1
8.47864 0 1
8.59519 0 1
8.71178 0 1
8.82841 0 1
8.94508 0 1
9.06179 0 1
9.17853 0 1
9.29531 0 1
9.41212 0 1
9.52897 0 1
9.64584 0 1
9.76276 0 1
9.8797 0 1
9.99667 0 1
10.1137 0 1
10.2307 0 1
10.3478 0 1
10.4648 0 1
10.5819 0 1
10.6991 0 1
10.8162 0 1
10.9334 0 1
11.0506 0 1
11.1678 0 1
11.285 0 1
11.4023 0 1
11.5196 0 1
11.6369 0 1
11.7542 0 1
11.8715 0 1
11.9888 0 1
12.1062 0 1
12.2235 0 1
12.3409 0 1
12.4582 0 1
12.5756 0 1
12.693 0 1
12.8104 0 1
12.9278 0 1
13.0452 0 1
13.1626 0 1
13.28 0 1
13.3974 0 1
13.5149 0 1
13.6323 0 1
13.7497 0 1
13.8671 0 1
13.9845 0 1
14.1019 0 1
14.2193 0 1
14.3367 0 1
14.4541 0 1
14.5714 0 1
14.6888 0 1
14.8062 0 1
14.9235 0 1
15.0408 0 0
15.1581 0 0
15.2755 0 0
15.3927 0 0
15.51 0 0
15.6273 0 0
15.7445 0 0
15.8617 0 0
15.9789 0 0
16.0961 0 0
16.2132 0 0
16.3304 0 0
16.4475 0 0
16.5646 0 0
16.6816 0 0
16.7986 0 0
16.9156 0 0
17.0326 0 0
17.1496 0 0
17.2665 0 0
17.3833 0 0
17.5002 0 0
17.617 0 0
17.7338 0 0
17.8505 0 0
17.9672 0 0
18.0839 0 0
18.2005 0 0
18.3171 0 0
18.4337 0 0
18.5502 0 0
18.6666 0 0
18.7831 0 0
18.8994 0 0
19.0158 0 0
19.1321 0 0
19.2483 0 0
19.3645 0 0
19.4806 0 0
19.5967 0 0
19.7128 0 0
19.8288 0 0
19.9447 0 0
20.0606 0 1
20.1764 0 1
20.2922 0 1
20.4079 0 1
20.5236 0 1
20.6392 0 1
20.7548 0 1
20.8702 0 1
23.3078 0 1
23.4233 0 1
23.539 0 1
23.6547 0 1
23.7704 0 1
23.8862 0 1
24.0021 0 1
24.118 0 1
24.234 0 1
24.35 0 1
24.4661 415 20.3715
24.5822 508 22.5389
24.6984 581 24.1039
24.8146 644 25.3772
24.9309 652 25.5343
25.0472 697 26.4008
25.1636 676 26
25.28 724 26.9072
25.3965 765 27.6586
25.513 830 28.8097
25.6296 816 28.5657
25.7462 845 29.0689
25.8628 881 29.6816
25.9795 1004 31.686
26.0962 910 30.1662
26.213 982 31.3369
26.3298 924 30.3974
26.4466 866 29.4279
26.5635 823 28.688
26.6804 849 29.1376
26.7973 757 27.5136
26.9143 818 28.6007
27.0313 855 29.2404
27.1483 843 29.0345
27.2653 846 29.0861
27.3824 850 29.1548
27.4996 841 29
27.6167 919 30.315
27.7339 830 28.8097
27.8511 841 29
27.9683 806 28.3901
28.0855 802 28.3196
28.2028 799 28.2666
28.3201 793 28.1603
28.4374 762 27.6043
28.5547 720 26.8328
28.6721 703 26.5141
28.7894 729 27
28.9068 778 27.8927
29.0242 819 28.6182
29.1416 809 28.4429
29.259 757 27.5136
29.3764 793 28.1603
29.4939 849 29.1376
29.6113 860 29.3258
29.7288 860 29.3258
29.8463 838 28.9482
29.9638 849 29.1376
30.0812 828 28.775
30.1987 745 27.2947
30.3162 682 26.1151
30.4337 672 25.923
30.5512 780 27.9285
30.6687 723 26.8887
30.7862 786 28.0357
30.9037 793 28.1603
31.0212 798 28.2489
31.1387 804 28.3549
31.2562 810 28.4605
31.3737 819 28.6182
31.4912 743 27.258
31.6087 777 27.8747
31.7262 747 27.3313
31.8436 764 27.6405
31.9611 745 27.2947
32.0785 685 26.1725
32.1959 718 26.7955
32.3134 697 26.4008
32.4308 695 26.3629
32.5482 735 27.1109
32.6655 734 27.0924
32.7829 791 28.1247
32.9002 783 27.9821
33.0176 760 27.5681
33.1349 779 27.9106
33.2522 794 28.178
33.3694 846 29.0861
33.4867 825 28.7228
33.6039 812 28.4956
33.7211 782 27.9643
33.8383 714 26.7208
33.9554 654 25.5734
34.0725 698 26.4197
34.1896 699 26.4386
34.3067 746 27.313
34.4237 729 27
34.5407 741 27.2213
34.6577 781 27.9464
34.7746 750 27.3861
34.8915 731 27.037
35.0084 730 27.0185
35.1252 750 27.3861
35.242 715 26.7395
35.3587 739 27.1846
35.4755 727 26.9629
35.5921 707 26.5895
35.7088 685 26.1725
35.8254 663 25.7488
35.9419 605 24.5967
36.0584 608 24.6577
36.1749 626 25.02
36.2913 628 25.0599
36.4077 568 23.8328
36.524 572 23.9165
36.6403 616 24.8193
36.7565 601 24.5153
36.8727 574 23.9583
36.9889 591 24.3105
37.1049 491 22.1585
37.221 0 1
37.3369 0 1
37.4529 0 1
37.5687 0 1
37.6845 0 1
37.8003 0 1
37.916 0 1
38.0316 0 1
38.1472 0 1
40.5851 0 1
40.7008 0 1
40.8164 0 1
40.9322 0 1
41.048 0 1
41.1639 0 1
41.2798 0 1
41.3958 0 1
41.5118 0 1
41.6279 0 1
41.744 427 20.664
41.8602 456 21.3542
41.9765 514 22.6716
42.0928 543 23.3024
42.2091 515 22.6936
42.3255 561 23.6854
42.4419 558 23.622
42.5584 556 23.5797
42.675 539 23.2164
42.7915 514 22.6716
42.9081 535 23.1301
43.0248 577 24.0208
43.1415 589 24.2693
43.2582 613 24.7588
43.375 641 25.318
43.4918 671 25.9037
43.6087 644 25.3772
43.7256 651 25.5147
43.8425 620 24.8998
43.9595 638 25.2587
44.0765 628 25.0599
44.1935 627 25.04
44.3106 611 24.7184
44.4277 575 23.9792
44.5448 546 23.3666
44.6619 527 22.9565
44.7791 520 22.8035
44.8963 555 23.5584
45.0136 551 23.4734
45.1308 587 24.2281
45.2481 607 24.6374
45.3654 601 24.5153
45.4827 612 24.7386
45.6001 654 25.5734
45.7174 632 25.1396
45.8348 666 25.807
45.9522 651 25.5147
46.0697 636 25.219
46.1871 563 23.7276
46.3046 556 23.5797
46.422 566 23.7908
46.5395 510 22.5832
46.657 591 24.3105
46.7745 624 24.98
46.892 622 24.9399
47.0096 632 25.1396
47.1271 598 24.454
47.2446 664 25.7682
47.3622 643 25.3574
47.4797 653 25.5539
47.5973 614 24.779
47.7149 636 25.219
47.8324 610 24.6982
47.95 574 23.9583
48.0675 580 24.0832
48.1851 556 23.5797
48.3027 517 22.7376
48.4202 531 23.0434
48.5378 530 23.0217
48.6554 602 24.5357
48.7729 593 24.3516
48.8904 642 25.3377
49.008 659 25.671
49.1255 635 25.1992
49.243 641 25.318
49.3605 692 26.3059
49.478 649 25.4755
49.5955 621 24.9199
49.713 566 23.7908
49.8304 503 22.4277
49.9479 487 22.0681
50.0653 502 22.4054
50.1827 531 23.0434
50.3001 599 24.4745
50.4175 612 24.7386
50.5348 655 25.593
50.6521 634 25.1794
50.7694 645 25.3969
50.8867 617 24.8395
51.004 591 24.3105
51.1212 589 24.2693
51.2384 581 24.1039
51.3556 592 24.3311
51.4727 582 24.1247
51.5899 522 22.8473
51.707 528 22.9783
51.824 535 23.1301
51.9411 512 22.6274
52.0581 534 23.1084
52.175 560 23.6643
52.2919 597 24.4336
52.4088 595 24.3926
52.5257 632 25.1396
52.6425 651 25.5147
52.7593 571 23.8956
52.876 648 25.4558
52.9927 615 24.7992
53.1094 621 24.9199
53.226 575 23.9792
53.3426 517 22.7376
53.4591 485 22.0227
53.5756 447 21.1424
53.692 439 20.9523
53.8084 443 21.0476
53.9248 435 20.8567
54.0411 393 19.8242
54.1573 414 20.347
54.2735 0 1
54.3896 0 1
54.5057 0 1
54.6217 0 1
54.7377 0 1
54.8537 0 1
54.9695 0 1
55.0853 0 1
55.2011 0 1
55.3168 0 1
55.4324 0 1
57.824 0 1
57.9396 0 1
58.0553 0 1
58.1711 0 1
58.2869 0 1
58.4028 0 1
58.5187 0 1
58.6347 0 1
58.7508 0 1
58.8669 0 1
58.983 457 21.3776
59.0992 503 22.4277
59.2155 601 24.5153
59.3318 597 24.4336
59.4482 680 26.0768
59.5646 704 26.533
59.681 746 27.313
59.7975 676 26
59.9141 740 27.2029
60.0306 708 26.6083
60.1473 700 26.4575
60.2639 657 25.632
60.3807 664 25.7682
60.4974 650 25.4951
60.6142 643 25.3574
60.731 633 25.1595
60.8479 739 27.1846
60.9648 691 26.2869
61.0818 776 27.8568
61.1987 781 27.9464
61.3158 750 27.3861
61.4328 744 27.2764
61.5499 758 27.5318
61.667 677 26.0192
61.7841 737 27.1477
61.9013 676 26
62.0185 652 25.5343
62.1357 605 24.5967
62.253 638 25.2587
62.3702 637 25.2389
62.4875 717 26.7769
62.6049 786 28.0357
62.7222 802 28.3196
62.8396 744 27.2764
62.9569 775 27.8388
63.0743 756 27.4955
63.1918 781 27.9464
63.3092 746 27.313
63.4267 744 27.2764
63.5441 692 26.3059
63.6616 651 25.5147
63.7791 645 25.3969
63.8966 618 24.8596
64.0142 610 24.6982
64.1317 645 25.3969
64.2492 593 24.3516
64.3668 635 25.1992
64.4843 668 25.8457
64.6019 695 26.3629
64.7195 728 26.9815
64.837 720 26.8328
64.9546 713 26.7021
65.0722 746 27.313
65.1898 750 27.3861
65.3074 738 27.1662
65.4249 646 25.4165
65.5425 629 25.0799
65.6601 627 25.04
65.7777 600 24.4949
65.8952 653 25.5539
66.0128 676 26
66.1304 676 26
66.2479 718 26.7955
66.3655 747 27.3313
66.483 725 26.9258
66.6005 679 26.0576
66.718 747 27.3313
66.8355 761 27.5862
66.953 720 26.8328
67.0705 700 26.4575
67.1879 671 25.9037
67.3054 615 24.7992
67.4228 591 24.3105
67.5402 585 24.1868
67.6576 544 23.3238
67.7749 571 23.8956
67.8923 571 23.8956
68.0096 567 23.8118
68.1269 656 25.6125
68.2442 717 26.7769
68.3614 635 25.1992
68.4787 684 26.1534
68.5958 664 25.7682
68.713 689 26.2488
68.8302 720 26.8328
68.9473 727 26.9629
69.0643 645 25.3969
69.1814 571 23.8956
69.2984 566 23.7908
69.4154 534 23.1084
69.5323 541 23.2594
69.6492 621 24.9199
69.7661 644 25.3772
69.8829 634 25.1794
69.9997 658 25.6515
70.1165 637 25.2389
70.2332 602 24.5357
70.3499 602 24.5357
70.4665 573 23.9374
70.5831 553 23.516
70.6996 485 22.0227
70.8161 456 21.3542
70.9326 443 21.0476
71.049 401 20.025
71.1653 343 18.5203
71.2817 297 17.2337
71.3979 293 17.1172
71.5141 239 15.4596
71.6303 272 16.4924
71.7464 226 15.0333
71.8624 0 1
71.9784 0 1
72.0944 0 1
72.2102 0 1
72.3261 0 1
72.4418 0 1
72.5575 0 1
72.6732 0 1
75.1054 0 1
75.2209 0 1
75.3365 0 1
75.4521 0 1
75.5678 0 1
75.6835 0 1
75.7993 0 1
75.9151 0 1
76.031 0 1
76.147 459 21.4243
76.263 509 22.561
76.3791 492 22.1811
76.4952 467 21.6102
76.6113 500 22.3607
76.7276 509 22.561
76.8438 539 23.2164
76.9601 568 23.8328
77.0765 624 24.98
77.1929 600 24.4949
77.3093 623 24.96
77.4258 673 25.9422
77.5423 637 25.2389
77.6589 644 25.3772
77.7755 675 25.9808
77.8921 666 25.807
78.0088 602 24.5357
78.1256 529 23
78.2423 578 24.0416
78.3591 546 23.3666
78.4759 532 23.0651
78.5928 569 23.8537
78.7097 629 25.0799
78.8266 631 25.1197
78.9436 637 25.2389
79.0606 667 25.8263
79.1776 667 25.8263
79.2946 668 25.8457
79.4117 717 26.7769
79.5288 672 25.923
79.6459 694 26.3439
79.7631 654 25.5734
79.8802 637 25.2389
79.9974 611 24.7184
80.1147 588 24.2487
80.2319 500 22.3607
80.3491 521 22.8254
80.4664 527 22.9565
80.5837 608 24.6577
80.701 626 25.02
80.8183 664 25.7682
80.9357 714 26.7208
81.053 686 26.1916
81.1704 665 25.7876
81.2877 648 25.4558
81.4051 725 26.9258
81.5225 652 25.5343
81.6399 626 25.02
81.7573 594 24.3721
81.8747 559 23.6432
81.9922 540 23.2379
82.1096 572 23.9165
82.227 541 23.2594
82.3444 642 25.3377
82.4619 632 25.1396
82.5793 717 26.7769
82.6967 674 25.9615
82.8142 719 26.8142
82.9316 731 27.037
83.049 684 26.1534
83.1664 711 26.6646
83.2838 744 27.2764
83.4012 647 25.4362
83.5186 688 26.2298
83.636 597 24.4336
83.7534 616 24.8193
83.8708 585 24.1868
83.9881 506 22.4944
84.1055 545 23.3452
84.2228 592 24.3311
84.3401 632 25.1396
84.4575 660 25.6905
84.5747 725 26.9258
84.692 733 27.074
84.8093 682 26.1151
84.9265 717 26.7769
85.0437 702 26.4953
85.1609 693 26.3249
85.2781 687 26.2107
85.3952 563 23.7276
85.5123 566 23.7908
85.6294 552 23.4947
85.7465 566 23.7908
85.8636 635 25.1992
85.9806 715 26.7395
86.0976 732 27.0555
86.2145 716 26.7582
86.3315 677 26.0192
86.4484 737 27.1477
86.5652 731 27.037
86.682 703 26.5141
86.7988 686 26.1916
86.9156 690 26.2679
87.0323 695 26.3629
87.149 632 25.1396
87.2657 539 23.2164
87.3823 489 22.1133
87.4988 460 21.4476
87.6154 472 21.7256
87.7318 459 21.4243
87.8483 526 22.9347
87.9647 548 23.4094
88.081 570 23.8747
88.1973 526 22.9347
88.3136 523 22.8692
88.4298 439 20.9523
88.546 426 20.6398
88.6621 361 19
88.7781 315 17.7482
88.8942 0 1
89.0101 0 1
89.126 0 1
89.2419 0 1
89.3577 0 1
89.4734 0 1
89.5891 0 1
89.7047 0 1
89.8203 0 1
89.9358 0 1
92.3269 0 1
92.4424 0 1
92.558 0 1
92.6736 0 1
92.7893 0 1
92.905 0 1
93.0208 0 1
93.1366 0 1
93.2525 0 1
93.3685 0 1
93.4845 0 1
93.6005 670 25.8844
93.7167 722 26.8701
93.8328 734 27.0924
93.949 762 27.6043
94.0653 652 25.5343
94.1816 674 25.9615
94.2979 653 25.5539
94.4143 645 25.3969
94.5307 655 25.593
94.6472 655 25.593
94.7637 725 26.9258
94.8803 775 27.8388
94.9969 733 27.074
95.1135 797 28.2312
95.2302 806 28.3901
95.3469 839 28.9655
95.4637 797 28.2312
95.5805 768 27.7128
95.6973 789 28.0891
95.8142 704 26.533
95.9311 745 27.2947
96.048 614 24.779
96.1649 581 24.1039
96.2819 592 24.3311
96.3989 600 24.4949
96.516 674 25.9615
96.633 685 26.1725
96.7501 801 28.3019
96.8673 786 28.0357
96.9844 786 28.0357
97.1016 722 26.8701
97.2188 760 27.5681
97.336 756 27.4955
97.4532 689 26.2488
97.5704 630 25.0998
97.6877 615 24.7992
97.805 579 24.0624
97.9223 620 24.8998
98.0396 632 25.1396
98.1569 740 27.2029
98.2743 735 27.1109
98.3916 770 27.7489
98.509 803 28.3373
98.6264 782 27.9643
98.7438 796 28.2135
98.8612 771 27.7669
98.9786 714 26.7208
99.096 773 27.8029
99.2134 752 27.4226
99.3308 700 26.4575
99.4482 697 26.4008
99.5656 617 24.8395
99.6831 603 24.5561
99.8005 618 24.8596
99.9179 637 25.2389
100.035 700 26.4575
100.153 756 27.4955
100.27 756 27.4955
100.388 794 28.178
100.505 779 27.9106
100.622 747 27.3313
100.74 723 26.8887
100.857 735 27.1109
100.975 738 27.1662
101.092 652 25.5343
101.209 667 25.8263
101.327 575 23.9792
101.444 609 24.6779
101.561 645 25.3969
101.679 662 25.7294
101.796 683 26.1343
101.913 785 28.0179
102.03 816 28.5657
102.148 767 27.6948
102.265 777 27.8747
102.382 842 29.0172
102.499 837 28.931
102.616 792 28.1425
102.733 822 28.6705
102.851 826 28.7402
102.968 808 28.4253
103.085 779 27.9106
103.202 696 26.3818
103.319 705 26.5518
103.436 669 25.865
103.552 726 26.9444
103.669 837 28.931
103.786 898 29.9666
103.903 907 30.1164
104.02 1064 32.619
104.137 1044 32.311
104.253 1063 32.6037
104.37 1050 32.4037
104.487 1029 32.078
104.603 991 31.4802
104.72 1029 32.078
104.836 935 30.5778
104.953 970 31.1448
105.069 915 30.249
105.186 971 31.1609
105.302 907 30.1164
105.418 986 31.4006
105.535 973 31.1929
105.651 965 31.0644
105.767 871 29.5127
105.883 743 27.258
105.999 704 26.533
106.115 0 1
106.231 0 1
106.347 0 1
106.463 0 1
106.579 0 1
106.694 0 1
106.81 0 1
106.926 0 1
107.041 0 1
107.157 0 1
109.576 0 1
109.692 0 1
109.807 0 1
109.923 0 1
110.039 0 1
110.155 0 1
110.27 0 1
110.386 0 1
110.502 0 1
110.618 1201 34.6554
110.735 1511 38.8716
110.851 1684 41.0366
110.967 1890 43.4741
111.083 2047 45.2438
111.199 2171 46.594
111.316 2185 46.744
111.432 2336 48.3322
111.549 2459 49.5883
111.665 2383 48.816
111.782 2428 49.2747
111.898 2308 48.0416
112.015 2186 46.7547
112.132 2084 45.6508
112.248 1982 44.5197
112.365 1855 43.0697
112.482 1966 44.3396
112.599 2192 46.8188
112.716 2297 47.927
112.832 2405 49.0408
112.949 2385 48.8365
113.066 2442 49.4166
113.183 2360 48.5798
113.3 2256 47.4974
113.417 2231 47.2335
113.534 2152 46.3897
113.652 2011 44.8442
113.769 1911 43.715
113.886 1792 42.332
114.003 1789 42.2966
114.12 1685 41.0488
114.238 1853 43.0465
114.355 1898 43.566
114.472 1948 44.1362
114.589 2119 46.0326
114.707 2017 44.911
114.824 1927 43.8976
114.942 1948 44.1362
115.059 2002 44.7437
115.176 1926 43.8862
115.294 1845 42.9535
115.411 1775 42.1307
115.529 1746 41.7852
115.646 1650 40.6202
115.764 1418 37.6563
115.881 1351 36.756
115.999 1346 36.6879
116.116 1376 37.0945
116.234 1373 37.054
116.351 1388 37.2559
116.469 1354 36.7967
116.586 1375 37.081
116.704 1292 35.9444
116.821 1251 35.3695
116.939 1200 34.641
117.056 1213 34.8281
117.174 1122 33.4963
117.291 946 30.7571
117.409 937 30.6105
117.526 906 30.0998
117.644 820 28.6356
117.761 847 29.1033
117.879 906 30.0998
117.996 867 29.4449
118.114 896 29.9333
118.231 973 31.1929
118.349 888 29.7993
118.466 895 29.9166
118.584 894 29.8998
118.701 875 29.5804
118.819 904 30.0666
118.936 826 28.7402
119.053 801 28.3019
119.171 763 27.6225
119.288 754 27.4591
119.405 633 25.1595
119.523 604 24.5764
119.64 645 25.3969
119.757 635 25.1992
119.875 729 27
119.992 692 26.3059
120.109 738 27.1662
120.226 700 26.4575
120.343 755 27.4773
120.46 755 27.4773
120.578 724 26.9072
120.695 712 26.6833
120.812 667 25.8263
120.929 637 25.2389
121.046 567 23.8118
121.163 559 23.6432
121.279 585 24.1868
121.396 556 23.5797
121.513 591 24.3105
121.63 613 24.7588
121.747 652 25.5343
121.863 583 24.1454
121.98 624 24.98
122.097 578 24.0416
122.213 590 24.2899
122.33 577 24.0208
122.446 592 24.3311
122.563 532 23.0651
122.679 492 22.1811
122.795 383 19.5704
122.912 367 19.1572
123.028 339 18.412
123.144 298 17.2627
123.26 285 16.8819
123.377 0 1
123.493 0 1
123.609 0 1
123.725 0 1
123.84 0 1
123.956 0 1
124.072 0 1
124.188 0 1
124.303 0 1
124.419 0 1
126.852 0 1
126.968 0 1
127.083 0 1
127.199 0 1
127.315 0 1
127.431 0 1
127.547 0 1
127.663 0 1
127.779 0 1
127.895 0 1
128.011 0 1
128.127 0 1
128.243 0 1
128.359 599 24.4745
128.476 611 24.7184
128.592 583 24.1454
128.708 600 24.4949
128.825 654 25.5734
128.941 664 25.7682
129.058 705 26.5518
129.174 723 26.8887
129.291 715 26.7395
129.408 734 27.0924
129.524 653 25.5539
129.641 665 25.7876
129.758 651 25.5147
129.875 623 24.96
129.992 583 24.1454
130.108 561 23.6854
130.225 550 23.4521
130.342 633 25.1595
130.459 596 24.4131
130.576 660 25.6905
130.693 667 25.8263
130.81 702 26.4953
130.928 732 27.0555
131.045 712 26.6833
131.162 686 26.1916
131.279 773 27.8029
131.396 675 25.9808
131.513 679 26.0576
131.631 729 27
131.748 635 25.1992
131.865 652 25.5343
131.983 634 25.1794
132.1 588 24.2487
132.217 639 25.2784
132.335 663 25.7488
132.452 683 26.1343
132.57 677 26.0192
132.687 664 25.7682
132.804 754 27.4591
132.922 672 25.923
133.039 706 26.5707
133.157 702 26.4953
133.274 684 26.1534
133.392 622 24.9399
133.509 569 23.8537
133.627 596 24.4131
133.744 555 23.5584
133.862 581 24.1039
133.979 599 24.4745
134.097 639 25.2784
134.214 651 25.5147
134.332 672 25.923
134.449 687 26.2107
134.567 720 26.8328
134.684 686 26.1916
134.802 663 25.7488
134.919 706 26.5707
135.037 734 27.0924
135.154 736 27.1293
135.272 631 25.1197
135.389 638 25.2587
135.507 620 24.8998
135.624 563 23.7276
135.742 578 24.0416
135.859 656 25.6125
135.977 674 25.9615
136.094 649 25.4755
136.211 689 26.2488
136.329 664 25.7682
136.446 723 26.8887
136.564 732 27.0555
136.681 670 25.8844
136.798 658 25.6515
136.915 652 25.5343
137.033 639 25.2784
137.15 589 24.2693
137.267 589 24.2693
137.384 583 24.1454
137.502 581 24.1039
137.619 573 23.9374
137.736 595 24.3926
137.853 564 23.7487
137.97 631 25.1197
138.087 647 25.4362
138.204 671 25.9037
138.321 665 25.7876
138.438 691 26.2869
138.555 664 25.7682
138.672 661 25.7099
138.788 637 25.2389
138.905 616 24.8193
139.022 583 24.1454
139.139 539 23.2164
139.255 484 22
139.372 441 21
139.488 537 23.1733
139.605 505 22.4722
139.721 532 23.0651
139.838 482 21.9545
139.954 436 20.8806
140.071 416 20.3961
140.187 385 19.6214
140.303 345 18.5742
140.419 335 18.303
140.535 312 17.6635
140.652 305 17.4642
140.768 0 1
140.884 0 1
141 0 1
141.115 0 1
141.231 0 1
141.347 0 1
141.463 0 1
141.578 0 1
141.694 0 1
144.104 0 1
144.219 0 1
144.335 0 1
144.45 0 1
144.566 0 1
144.682 0 1
144.798 0 1
144.914 0 1
145.03 0 1
145.146 503 22.4277
145.262 553 23.516
145.378 563 23.7276
145.494 554 23.5372
145.61 531 23.0434
145.726 484 22
145.842 496 22.2711
145.959 512 22.6274
146.075 468 21.6333
146.192 482 21.9545
146.308 502 22.4054
146.425 532 23.0651
146.541 502 22.4054
146.658 524 22.891
146.774 541 23.2594
146.891 532 23.0651
147.008 561 23.6854
147.125 569 23.8537
147.241 546 23.3666
147.358 554 23.5372
147.475 512 22.6274
147.592 563 23.7276
147.709 529 23
147.826 494 22.2261
147.943 474 21.7715
148.06 463 21.5174
148.177 503 22.4277
148.294 505 22.4722
148.411 574 23.9583
148.528 572 23.9165
148.645 545 23.3452
148.762 546 23.3666
148.88 545 23.3452
148.997 526 22.9347
149.114 593 24.3516
149.231 546 23.3666
149.349 538 23.1948
149.466 489 22.1133
149.583 451 21.2368
149.701 444 21.0713
149.818 477 21.8403
149.935 460 21.4476
150.053 530 23.0217
150.17 485 22.0227
150.287 514 22.6716
150.405 560 23.6643
150.522 519 22.7816
150.64 546 23.3666
150.757 507 22.5167
150.875 588 24.2487
150.992 543 23.3024
151.11 543 23.3024
151.227 518 22.7596
151.344 510 22.5832
151.462 483 21.9773
151.579 490 22.1359
151.697 457 21.3776
151.814 491 22.1585
151.932 463 21.5174
152.049 508 22.5389
152.167 546 23.3666
152.284 574 23.9583
152.402 560 23.6643
152.519 569 23.8537
152.636 528 22.9783
152.754 538 23.1948
152.871 491 22.1585
152.989 510 22.5832
153.106 498 22.3159
153.223 443 21.0476
153.341 429 20.7123
153.458 476 21.8174
153.575 441 21
153.693 486 22.0454
153.81 463 21.5174
153.927 471 21.7025
154.044 542 23.2809
154.162 507 22.5167
154.279 559 23.6432
154.396 514 22.6716
154.513 572 23.9165
154.63 534 23.1084
154.747 571 23.8956
154.864 571 23.8956
154.981 525 22.9129
155.098 524 22.891
155.215 516 22.7156
155.332 511 22.6053
155.449 506 22.4944
155.566 536 23.1517
155.683 510 22.5832
155.8 492 22.1811
155.917 533 23.0868
156.033 470 21.6795
156.15 0 1
156.267 0 1
156.383 0 1
156.5 0 1
156.617 0 1
156.733 0 1
156.85 0 1
156.966 0 1
157.082 0 1
157.199 0 1
157.315 0 1
157.431 0 1
157.547 0 1
157.664 0 1
157.78 0 1
157.896 0 1
158.012 0 1
158.128 0 1
158.244 0 1
158.359 0 1
158.475 0 1
158.591 0 1
158.706 0 1
