
6.15755 0 1
6.2731 0 1
6.3887 0 1
6.50437 0 1
6.62009 0 1
6.73587 0 1
6.8517 0 1
6.96759 0 1
7.08353 0 1
7.19952 0 1
7.31557 0 1
7.43166 0 1
7.54781 0 1
7.664 0 1
7.78024 0 1
7.89653 0 1
8.01286 0 1
8.12924 0 1
8.24567 0 1
8.36213 0 1
8.47864 0 1
8.59519 0 1
8.71178 0 1
8.82841 0 1
8.94508 0 1
9.06179 0 1
9.17853 0 1
9.29531 0 1
9.41212 0 1
9.52897 0 1
9.64584 0 1
9.76276 0 1
9.8797 0 1
9.99667 0 1
10.1137 0 1
10.2307 0 1
10.3478 0 1
10.4648 0 1
10.5819 0 1
10.6991 0 1
10.8162 0 1
10.9334 0 1
11.0506 0 1
11.1678 0 1
11.285 0 1
11.4023 0 1
11.5196 0 1
11.6369 0 1
11.7542 0 1
11.8715 0 1
11.9888 0 1
12.1062 0 1
12.2235 0 1
12.3409 0 1
12.4582 0 1
12.5756 0 1
12.693 0 1
12.8104 0 1
12.9278 0 1
13.0452 0 1
13.1626 0 1
13.28 0 1
13.3974 0 1
13.5149 0 1
13.6323 0 1
13.7497 0 1
13.8671 0 1
13.9845 0 1
14.1019 0 1
14.2193 0 1
14.3367 0 1
14.4541 0 1
14.5714 0 1
14.6888 0 1
14.8062 0 1
14.9235 0 1
15.0408 0 0
15.1581 0 0
15.2755 0 0
15.3927 0 0
15.51 0 0
15.6273 0 0
15.7445 0 0
15.8617 0 0
15.9789 0 0
16.0961 0 0
16.2132 0 0
16.3304 0 0
16.4475 0 0
16.5646 0 0
16.6816 0 0
16.7986 0 0
16.9156 0 0
17.0326 0 0
17.1496 0 0
17.2665 0 0
17.3833 0 0
17.5002 0 0
17.617 0 0
17.7338 0 0
17.8505 0 0
17.9672 0 0
18.0839 0 0
18.2005 0 0
18.3171 0 0
18.4337 0 0
18.5502 0 0
18.6666 0 0
18.7831 0 0
18.8994 0 0
19.0158 0 0
19.1321 0 0
19.2483 0 0
19.3645 0 0
19.4806 0 0
19.5967 0 0
19.7128 0 0
19.8288 0 0
19.9447 0 0
20.0606 0 1
20.1764 0 1
20.2922 0 1
20.4079 0 1
20.5236 0 1
20.6392 0 1
20.7548 0 1
20.8702 0 1
23.3078 0 1
23.4233 0 1
23.539 0 1
23.6547 0 1
23.7704 0 1
23.8862 0 1
24.0021 0 1
24.118 0 1
24.234 0 1
24.35 0 1
24.4661 1758 41.9285
24.5822 1788 42.2847
24.6984 1794 42.3556
24.8146 1849 43
24.9309 1887 43.4396
25.0472 1884 43.4051
25.1636 1974 44.4297
25.28 1885 43.4166
25.3965 2026 45.0111
25.513 1913 43.7379
25.6296 1950 44.1588
25.7462 1980 44.4972
25.8628 1946 44.1135
25.9795 1911 43.715
26.0962 1772 42.0951
26.213 1883 43.3935
26.3298 1737 41.6773
26.4466 1793 42.3438
26.5635 1749 41.821
26.6804 1803 42.4617
26.7973 1719 41.4608
26.9143 1673 40.9023
27.0313 1643 40.5339
27.1483 1501 38.7427
27.2653 1465 38.2753
27.3824 1537 39.2046
27.4996 1552 39.3954
27.6167 1618 40.2244
27.7339 1702 41.2553
27.8511 1741 41.7253
27.9683 1828 42.7551
28.0855 1855 43.0697
28.2028 1832 42.8019
28.3201 1832 42.8019
28.4374 1834 42.8252
28.5547 1780 42.19
28.6721 1881 43.3705
28.7894 1825 42.72
28.9068 1847 42.9767
29.0242 1826 42.7317
29.1416 1705 41.2916
29.259 1702 41.2553
29.3764 1683 41.0244
29.4939 1696 41.1825
29.6113 1696 41.1825
29.7288 1615 40.1871
29.8463 1749 41.821
29.9638 1667 40.8289
30.0812 1736 41.6653
30.1987 1692 41.1339
30.3162 1668 40.8412
30.4337 1745 41.7732
30.5512 1601 40.0125
30.6687 1509 38.8458
30.7862 1578 39.724
30.9037 1555 39.4335
31.0212 1749 41.821
31.1387 1775 42.1307
31.2562 1825 42.72
31.3737 1929 43.9204
31.4912 1879 43.3474
31.6087 1884 43.4051
31.7262 1957 44.238
31.8436 1799 42.4146
31.9611 1816 42.6146
32.0785 1736 41.6653
32.1959 1791 42.3202
32.3134 1727 41.5572
32.4308 1675 40.9268
32.5482 1705 41.2916
32.6655 1637 40.4599
32.7829 1627 40.3361
32.9002 1501 38.7427
33.0176 1601 40.0125
33.1349 1689 41.0974
33.2522 1594 39.9249
33.3694 1683 41.0244
33.4867 1615 40.1871
33.6039 1657 40.7063
33.7211 1689 41.0974
33.8383 1668 40.8412
33.9554 1737 41.6773
34.0725 1661 40.7554
34.1896 1739 41.7013
34.3067 1667 40.8289
34.4237 1573 39.6611
34.5407 1511 38.8716
34.6577 1527 39.0768
34.7746 1629 40.3609
34.8915 1734 41.6413
35.0084 1673 40.9023
35.1252 1732 41.6173
35.242 1750 41.833
35.3587 1703 41.2674
35.4755 1741 41.7253
35.5921 1688 41.0853
35.7088 1630 40.3733
35.8254 1666 40.8167
35.9419 1650 40.6202
36.0584 1593 39.9124
36.1749 1638 40.4722
36.2913 1715 41.4126
36.4077 1633 40.4104
36.524 1576 39.6989
36.6403 1672 40.8901
36.7565 1524 39.0384
36.8727 1549 39.3573
36.9889 1566 39.5727
37.1049 1561 39.5095
37.221 0 1
37.3369 0 1
37.4529 0 1
37.5687 0 1
37.6845 0 1
37.8003 0 1
37.916 0 1
38.0316 0 1
38.1472 0 1
40.5851 0 1
40.7008 0 1
40.8164 0 1
40.9322 0 1
41.048 0 1
41.1639 0 1
41.2798 0 1
41.3958 0 1
41.5118 0 1
41.6279 0 1
41.744 1396 37.3631
41.8602 1435 37.8814
41.9765 1401 37.4299
42.0928 1453 38.1182
42.2091 1447 38.0395
42.3255 1417 37.6431
42.4419 1389 37.2693
42.5584 1460 38.2099
42.675 1438 37.921
42.7915 1367 36.973
42.9081 1337 36.565
43.0248 1275 35.7071
43.1415 1227 35.0286
43.2582 1162 34.0881
43.375 1107 33.2716
43.4918 1244 35.2704
43.6087 1335 36.5377
43.7256 1252 35.3836
43.8425 1257 35.4542
43.9595 1307 36.1525
44.0765 1312 36.2215
44.1935 1243 35.2562
44.3106 1304 36.1109
44.4277 1316 36.2767
44.5448 1253 35.3977
44.6619 1358 36.8511
44.7791 1245 35.2846
44.8963 1275 35.7071
45.0136 1259 35.4824
45.1308 1245 35.2846
45.2481 1257 35.4542
45.3654 1291 35.9305
45.4827 1247 35.3129
45.6001 1219 34.9142
45.7174 1189 34.4819
45.8348 1255 35.426
45.9522 1137 33.7194
46.0697 1193 34.5398
46.1871 1174 34.2637
46.3046 1125 33.541
46.422 1090 33.0151
46.5395 1081 32.8786
46.657 1045 32.3265
46.7745 921 30.348
46.892 862 29.3598
47.0096 857 29.2746
47.1271 948 30.7896
47.2446 989 31.4484
47.3622 928 30.4631
47.4797 988 31.4325
47.5973 956 30.9192
47.7149 980 31.305
47.8324 910 30.1662
47.95 972 31.1769
48.0675 972 31.1769
48.1851 950 30.8221
48.3027 952 30.8545
48.4202 858 29.2916
48.5378 987 31.4166
48.6554 972 31.1769
48.7729 975 31.225
48.8904 976 31.241
49.008 962 31.0161
49.1255 978 31.273
49.243 972 31.1769
49.3605 1006 31.7175
49.478 1063 32.6037
49.5955 1000 31.6228
49.713 980 31.305
49.8304 1020 31.9374
49.9479 1000 31.6228
50.0653 1029 32.078
50.1827 1043 32.2955
50.3001 937 30.6105
50.4175 849 29.1376
50.5348 838 28.9482
50.6521 918 30.2985
50.7694 1080 32.8634
50.8867 1112 33.3467
51.004 1140 33.7639
51.1212 1161 34.0735
51.2384 1176 34.2929
51.3556 1211 34.7994
51.4727 1230 35.0714
51.5899 1246 35.2987
51.707 1267 35.5949
51.824 1325 36.4005
51.9411 1247 35.3129
52.0581 1335 36.5377
52.175 1316 36.2767
52.2919 1312 36.2215
52.4088 1367 36.973
52.5257 1391 37.2961
52.6425 1371 37.027
52.7593 1405 37.4833
52.876 1437 37.9078
52.9927 1316 36.2767
53.1094 1351 36.756
53.226 1366 36.9594
53.3426 1389 37.2693
53.4591 1373 37.054
53.5756 1414 37.6032
53.692 1403 37.4566
53.8084 1333 36.5103
53.9248 1218 34.8999
54.0411 1136 33.7046
54.1573 1155 33.9853
54.2735 0 1
54.3896 0 1
54.5057 0 1
54.6217 0 1
54.7377 0 1
54.8537 0 1
54.9695 0 1
55.0853 0 1
55.2011 0 1
55.3168 0 1
55.4324 0 1
57.824 0 1
57.9396 0 1
58.0553 0 1
58.1711 0 1
58.2869 0 1
58.4028 0 1
58.5187 0 1
58.6347 0 1
58.7508 0 1
58.8669 0 1
58.983 1565 39.5601
59.0992 1343 36.647
59.2155 1390 37.2827
59.3318 1380 37.1484
59.4482 1475 38.4057
59.5646 1594 39.9249
59.681 1619 40.2368
59.7975 1639 40.4846
59.9141 1638 40.4722
60.0306 1693 41.1461
60.1473 1665 40.8044
60.2639 1613 40.1622
60.3807 1650 40.6202
60.4974 1696 41.1825
60.6142 1757 41.9166
60.731 1723 41.509
60.8479 1627 40.3361
60.9648 1738 41.6893
61.0818 1694 41.1582
61.1987 1730 41.5933
61.3158 1696 41.1825
61.4328 1688 41.0853
61.5499 1599 39.9875
61.667 1656 40.694
61.7841 1665 40.8044
61.9013 1701 41.2432
62.0185 1681 41
62.1357 1654 40.6694
62.253 1583 39.7869
62.3702 1577 39.7115
62.4875 1497 38.6911
62.6049 1417 37.6431
62.7222 1381 37.1618
62.8396 1409 37.5366
62.9569 1471 38.3536
63.0743 1519 38.9744
63.1918 1603 40.0375
63.3092 1700 41.2311
63.4267 1572 39.6485
63.5441 1652 40.6448
63.6616 1570 39.6232
63.7791 1513 38.8973
63.8966 1704 41.2795
64.0142 1590 39.8748
64.1317 1605 40.0625
64.2492 1603 40.0375
64.3668 1702 41.2553
64.4843 1630 40.3733
64.6019 1657 40.7063
64.7195 1614 40.1746
64.837 1629 40.3609
64.9546 1627 40.3361
65.0722 1536 39.1918
65.1898 1526 39.064
65.3074 1645 40.5586
65.4249 1582 39.7744
65.5425 1611 40.1373
65.6601 1639 40.4846
65.7777 1602 40.025
65.8952 1522 39.0128
66.0128 1484 38.5227
66.1304 1381 37.1618
66.2479 1281 35.7911
66.3655 1234 35.1283
66.483 1383 37.1887
66.6005 1479 38.4578
66.718 1510 38.8587
66.8355 1406 37.4967
66.953 1515 38.923
67.0705 1580 39.7492
67.1879 1539 39.2301
67.3054 1516 38.9358
67.4228 1578 39.724
67.5402 1546 39.3192
67.6576 1570 39.6232
67.7749 1544 39.2938
67.8923 1651 40.6325
68.0096 1546 39.3192
68.1269 1609 40.1123
68.2442 1625 40.3113
68.3614 1666 40.8167
68.4787 1598 39.975
68.5958 1601 40.0125
68.713 1636 40.4475
68.8302 1601 40.0125
68.9473 1642 40.5216
69.0643 1569 39.6106
69.1814 1654 40.6694
69.2984 1573 39.6611
69.4154 1629 40.3609
69.5323 1564 39.5474
69.6492 1494 38.6523
69.7661 1471 38.3536
69.8829 1350 36.7423
69.9997 1387 37.2424
70.1165 1423 37.7227
70.2332 1421 37.6962
70.3499 1499 38.7169
70.4665 1552 39.3954
70.5831 1597 39.9625
70.6996 1546 39.3192
70.8161 1609 40.1123
70.9326 1616 40.1995
71.049 1623 40.2865
71.1653 1580 39.7492
71.2817 1522 39.0128
71.3979 1596 39.95
71.5141 1502 38.7556
71.6303 1523 39.0256
71.7464 1391 37.2961
71.8624 0 1
71.9784 0 1
72.0944 0 1
72.2102 0 1
72.3261 0 1
72.4418 0 1
72.5575 0 1
72.6732 0 1
75.1054 0 1
75.2209 0 1
75.3365 0 1
75.4521 0 1
75.5678 0 1
75.6835 0 1
75.7993 0 1
75.9151 0 1
76.031 0 1
76.147 1396 37.3631
76.263 1494 38.6523
76.3791 1616 40.1995
76.4952 1540 39.2428
76.6113 1545 39.3065
76.7276 1638 40.4722
76.8438 1568 39.598
76.9601 1514 38.9102
77.0765 1632 40.398
77.1929 1620 40.2492
77.3093 1703 41.2674
77.4258 1561 39.5095
77.5423 1567 39.5854
77.6589 1532 39.1408
77.7755 1597 39.9625
77.8921 1609 40.1123
78.0088 1554 39.4208
78.1256 1546 39.3192
78.2423 1617 40.2119
78.3591 1551 39.3827
78.4759 1530 39.1152
78.5928 1542 39.2683
78.7097 1507 38.8201
78.8266 1503 38.7685
78.9436 1228 35.0428
79.0606 1153 33.9559
79.1776 1206 34.7275
79.2946 1369 37
79.4117 1432 37.8418
79.5288 1470 38.3406
79.6459 1513 38.8973
79.7631 1525 39.0512
79.8802 1541 39.2556
79.9974 1586 39.8246
80.1147 1531 39.128
80.2319 1620 40.2492
80.3491 1534 39.1663
80.4664 1562 39.5221
80.5837 1599 39.9875
80.701 1638 40.4722
80.8183 1567 39.5854
80.9357 1653 40.6571
81.053 1634 40.4228
81.1704 1624 40.2989
81.2877 1537 39.2046
81.4051 1496 38.6782
81.5225 1589 39.8623
81.6399 1509 38.8458
81.7573 1590 39.8748
81.8747 1515 38.923
81.9922 1516 38.9358
82.1096 1563 39.5348
82.227 1467 38.3014
82.3444 1550 39.37
82.4619 1542 39.2683
82.5793 1318 36.3043
82.6967 1300 36.0555
82.8142 1184 34.4093
82.9316 1287 35.8748
83.049 1394 37.3363
83.1664 1438 37.921
83.2838 1420 37.6829
83.4012 1478 38.4448
83.5186 1443 37.9868
83.636 1470 38.3406
83.7534 1507 38.8201
83.8708 1555 39.4335
83.9881 1476 38.4187
84.1055 1522 39.0128
84.2228 1523 39.0256
84.3401 1529 39.1024
84.4575 1600 40
84.5747 1584 39.7995
84.692 1573 39.6611
84.8093 1568 39.598
84.9265 1512 38.8844
85.0437 1502 38.7556
85.1609 1489 38.5876
85.2781 1624 40.2989
85.3952 1541 39.2556
85.5123 1489 38.5876
85.6294 1601 40.0125
85.7465 1627 40.3361
85.8636 1572 39.6485
85.9806 1541 39.2556
86.0976 1470 38.3406
86.2145 1313 36.2353
86.3315 1205 34.7131
86.4484 1353 36.7831
86.5652 1375 37.081
86.682 1464 38.2623
86.7988 1512 38.8844
86.9156 1563 39.5348
87.0323 1571 39.6358
87.149 1630 40.3733
87.2657 1572 39.6485
87.3823 1673 40.9023
87.4988 1634 40.4228
87.6154 1578 39.724
87.7318 1643 40.5339
87.8483 1595 39.9375
87.9647 1641 40.5093
88.081 1614 40.1746
88.1973 1676 40.939
88.3136 1661 40.7554
88.4298 1640 40.4969
88.546 1607 40.0874
88.6621 1572 39.6485
88.7781 1611 40.1373
88.8942 0 1
89.0101 0 1
89.126 0 1
89.2419 0 1
89.3577 0 1
89.4734 0 1
89.5891 0 1
89.7047 0 1
89.8203 0 1
89.9358 0 1
92.3269 0 1
92.4424 0 1
92.558 0 1
92.6736 0 1
92.7893 0 1
92.905 0 1
93.0208 0 1
93.1366 0 1
93.2525 0 1
93.3685 0 1
93.4845 0 1
93.6005 1634 40.4228
93.7167 1607 40.0874
93.8328 1666 40.8167
93.949 1617 40.2119
94.0653 1670 40.8656
94.1816 1653 40.6571
94.2979 1638 40.4722
94.4143 1601 40.0125
94.5307 1605 40.0625
94.6472 1571 39.6358
94.7637 1548 39.3446
94.8803 1613 40.1622
94.9969 1621 40.2616
95.1135 1571 39.6358
95.2302 1494 38.6523
95.3469 1506 38.8072
95.4637 1367 36.973
95.5805 1371 37.027
95.6973 1383 37.1887
95.8142 1449 38.0657
95.9311 1498 38.704
96.048 1549 39.3573
96.1649 1586 39.8246
96.2819 1663 40.7799
96.3989 1661 40.7554
96.516 1710 41.3521
96.633 1688 41.0853
96.7501 1722 41.497
96.8673 1773 42.107
96.9844 1732 41.6173
97.1016 1790 42.3084
97.2188 1769 42.0595
97.336 1733 41.6293
97.4532 1751 41.845
97.5704 1697 41.1947
97.6877 1711 41.3642
97.805 1748 41.8091
97.9223 1819 42.6497
98.0396 1773 42.107
98.1569 1712 41.3763
98.2743 1671 40.8779
98.3916 1794 42.3556
98.509 1758 41.9285
98.6264 1704 41.2795
98.7438 1669 40.8534
98.8612 1627 40.3361
98.9786 1621 40.2616
99.096 1431 37.8286
99.2134 1441 37.9605
99.3308 1512 38.8844
99.4482 1664 40.7922
99.5656 1620 40.2492
99.6831 1676 40.939
99.8005 1624 40.2989
99.9179 1680 40.9878
100.035 1783 42.2256
100.153 1782 42.2137
100.27 1860 43.1277
100.388 1702 41.2553
100.505 1757 41.9166
100.622 1767 42.0357
100.74 1823 42.6966
100.857 1746 41.7852
100.975 1836 42.8486
101.092 1748 41.8091
101.209 1826 42.7317
101.327 1863 43.1625
101.444 1784 42.2374
101.561 1730 41.5933
101.679 1808 42.5206
101.796 1743 41.7493
101.913 1815 42.6028
102.03 1842 42.9185
102.148 1842 42.9185
102.265 1868 43.2204
102.382 1614 40.1746
102.499 1749 41.821
102.616 1622 40.2741
102.733 1549 39.3573
102.851 1519 38.9744
102.968 1568 39.598
103.085 1709 41.3401
103.202 1736 41.6653
103.319 1737 41.6773
103.436 1700 41.2311
103.552 1793 42.3438
103.669 1811 42.5558
103.786 1866 43.1972
103.903 1808 42.5206
104.02 1953 44.1928
104.137 1847 42.9767
104.253 1956 44.2267
104.37 1927 43.8976
104.487 1922 43.8406
104.603 1872 43.2666
104.72 1888 43.4511
104.836 1891 43.4856
104.953 1855 43.0697
105.069 1926 43.8862
105.186 1852 43.0349
105.302 1909 43.6921
105.418 1946 44.1135
105.535 1929 43.9204
105.651 1776 42.1426
105.767 1849 43
105.883 1808 42.5206
105.999 1807 42.5088
106.115 0 1
106.231 0 1
106.347 0 1
106.463 0 1
106.579 0 1
106.694 0 1
106.81 0 1
106.926 0 1
107.041 0 1
107.157 0 1
109.576 0 1
109.692 0 1
109.807 0 1
109.923 0 1
110.039 0 1
110.155 0 1
110.27 0 1
110.386 0 1
110.502 0 1
110.618 1730 41.5933
110.735 1739 41.7013
110.851 1871 43.2551
110.967 1699 41.2189
111.083 1647 40.5832
111.199 1558 39.4715
111.316 1565 39.5601
111.432 1583 39.7869
111.549 1556 39.4462
111.665 1602 40.025
111.782 1608 40.0999
111.898 1628 40.3485
112.015 1818 42.638
112.132 1724 41.5211
112.248 1796 42.3792
112.365 1731 41.6053
112.482 1766 42.0238
112.599 1664 40.7922
112.716 1741 41.7253
112.832 1831 42.7902
112.949 1743 41.7493
113.066 1881 43.3705
113.183 1778 42.1663
113.3 1751 41.845
113.417 1734 41.6413
113.534 1664 40.7922
113.652 1712 41.3763
113.769 1719 41.4608
113.886 1677 40.9512
114.003 1629 40.3609
114.12 1698 41.2068
114.238 1661 40.7554
114.355 1660 40.7431
114.472 1655 40.6817
114.589 1622 40.2741
114.707 1511 38.8716
114.824 1431 37.8286
114.942 1393 37.3229
115.059 1386 37.229
115.176 1481 38.4838
115.294 1573 39.6611
115.411 1503 38.7685
115.529 1547 39.3319
115.646 1605 40.0625
115.764 1748 41.8091
115.881 1623 40.2865
115.999 1670 40.8656
116.116 1684 41.0366
116.234 1667 40.8289
116.351 1597 39.9625
116.469 1704 41.2795
116.586 1737 41.6773
116.704 1732 41.6173
116.821 1687 41.0731
116.939 1684 41.0366
117.056 1667 40.8289
117.174 1707 41.3159
117.291 1651 40.6325
117.409 1637 40.4599
117.526 1622 40.2741
117.644 1678 40.9634
117.761 1661 40.7554
117.879 1715 41.4126
117.996 1646 40.5709
118.114 1588 39.8497
118.231 1581 39.7618
118.349 1475 38.4057
118.466 1454 38.1314
118.584 1414 37.6032
118.701 1478 38.4448
118.819 1529 39.1024
118.936 1498 38.704
119.053 1601 40.0125
119.171 1616 40.1995
119.288 1544 39.2938
119.405 1676 40.939
119.523 1684 41.0366
119.64 1647 40.5832
119.757 1627 40.3361
119.875 1675 40.9268
119.992 1655 40.6817
120.109 1699 41.2189
120.226 1659 40.7308
120.343 1744 41.7612
120.46 1652 40.6448
120.578 1738 41.6893
120.695 1665 40.8044
120.812 1678 40.9634
120.929 1696 41.1825
121.046 1671 40.8779
121.163 1636 40.4475
121.279 1651 40.6325
121.396 1679 40.9756
121.513 1598 39.975
121.63 1659 40.7308
121.747 1587 39.8372
121.863 1556 39.4462
121.98 1533 39.1535
122.097 1399 37.4032
122.213 1418 37.6563
122.33 1418 37.6563
122.446 1404 37.47
122.563 1404 37.47
122.679 1436 37.8946
122.795 1454 38.1314
122.912 1498 38.704
123.028 1588 39.8497
123.144 1631 40.3856
123.26 1597 39.9625
123.377 0 1
123.493 0 1
123.609 0 1
123.725 0 1
123.84 0 1
123.956 0 1
124.072 0 1
124.188 0 1
124.303 0 1
124.419 0 1
126.852 0 1
126.968 0 1
127.083 0 1
127.199 0 1
127.315 0 1
127.431 0 1
127.547 0 1
127.663 0 1
127.779 0 1
127.895 0 1
128.011 0 1
128.127 0 1
128.243 0 1
128.359 1678 40.9634
128.476 1753 41.8688
128.592 1759 41.9404
128.708 1791 42.3202
128.825 1757 41.9166
128.941 1754 41.8808
129.058 1856 43.0813
129.174 1863 43.1625
129.291 1918 43.795
129.408 1834 42.8252
129.524 1891 43.4856
129.641 1953 44.1928
129.758 1846 42.9651
129.875 1746 41.7852
129.992 1881 43.3705
130.108 1807 42.5088
130.225 1810 42.5441
130.342 1812 42.5676
130.459 1774 42.1189
130.576 1888 43.4511
130.693 1782 42.2137
130.81 1745 41.7732
130.928 1700 41.2311
131.045 1542 39.2683
131.162 1489 38.5876
131.279 1561 39.5095
131.396 1620 40.2492
131.513 1614 40.1746
131.631 1646 40.5709
131.748 1711 41.3642
131.865 1709 41.3401
131.983 1719 41.4608
132.1 1816 42.6146
132.217 1876 43.3128
132.335 1803 42.4617
132.452 1844 42.9418
132.57 1830 42.7785
132.687 1821 42.6732
132.804 1853 43.0465
132.922 1819 42.6497
133.039 1872 43.2666
133.157 1883 43.3935
133.274 1808 42.5206
133.392 1860 43.1277
133.509 1829 42.7668
133.627 1880 43.359
133.744 1803 42.4617
133.862 1836 42.8486
133.979 1884 43.4051
134.097 1885 43.4166
134.214 1890 43.4741
134.332 1775 42.1307
134.449 1793 42.3438
134.567 1615 40.1871
134.684 1670 40.8656
134.802 1609 40.1123
134.919 1593 39.9124
135.037 1680 40.9878
135.154 1673 40.9023
135.272 1720 41.4729
135.389 1768 42.0476
135.507 1917 43.7836
135.624 1818 42.638
135.742 1926 43.8862
135.859 1919 43.8064
135.977 1810 42.5441
136.094 1890 43.4741
136.211 1964 44.317
136.329 1959 44.2606
136.446 1900 43.589
136.564 1907 43.6692
136.681 1905 43.6463
136.798 1916 43.7721
136.915 1989 44.5982
137.033 1904 43.6348
137.15 1879 43.3474
137.267 1902 43.6119
137.384 1785 42.2493
137.502 1818 42.638
137.619 1772 42.0951
137.736 1874 43.2897
137.853 1827 42.7434
137.97 1808 42.5206
138.087 1823 42.6966
138.204 1683 41.0244
138.321 1518 38.9615
138.438 1691 41.1218
138.555 1640 40.4969
138.672 1677 40.9512
138.788 1704 41.2795
138.905 1804 42.4735
139.022 1812 42.5676
139.139 1934 43.9773
139.255 1894 43.5201
139.372 1896 43.5431
139.488 1864 43.1741
139.605 1793 42.3438
139.721 1847 42.9767
139.838 1813 42.5793
139.954 1815 42.6028
140.071 1827 42.7434
140.187 1881 43.3705
140.303 1863 43.1625
140.419 1878 43.3359
140.535 1851 43.0232
140.652 1854 43.0581
140.768 0 1
140.884 0 1
141 0 1
141.115 0 1
141.231 0 1
141.347 0 1
141.463 0 1
141.578 0 1
141.694 0 1
144.104 0 1
144.219 0 1
144.335 0 1
144.45 0 1
144.566 0 1
144.682 0 1
144.798 0 1
144.914 0 1
145.03 0 1
145.146 1523 39.0256
145.262 1463 38.2492
145.378 1584 39.7995
145.494 1579 39.7366
145.61 1646 40.5709
145.726 1598 39.975
145.842 1586 39.8246
145.959 1595 39.9375
146.075 1630 40.3733
146.192 1667 40.8289
146.308 1784 42.2374
146.425 1769 42.0595
146.541 1785 42.2493
146.658 1798 42.4028
146.774 1765 42.0119
146.891 1691 41.1218
147.008 1596 39.95
147.125 1539 39.2301
147.241 1577 39.7115
147.358 1540 39.2428
147.475 1540 39.2428
147.592 1635 40.4351
147.709 1615 40.1871
147.826 1574 39.6737
147.943 1525 39.0512
148.06 1561 39.5095
148.177 1505 38.7943
148.294 1542 39.2683
148.411 1498 38.704
148.528 1542 39.2683
148.645 1538 39.2173
148.762 1532 39.1408
148.88 1470 38.3406
148.997 1451 38.092
149.114 1532 39.1408
149.231 1561 39.5095
149.349 1545 39.3065
149.466 1549 39.3573
149.583 1572 39.6485
149.701 1651 40.6325
149.818 1642 40.5216
149.935 1675 40.9268
150.053 1604 40.05
150.17 1594 39.9249
150.287 1634 40.4228
150.405 1496 38.6782
150.522 1493 38.6394
150.64 1402 37.4433
150.757 1361 36.8917
150.875 1419 37.6696
150.992 1442 37.9737
151.11 1289 35.9026
151.227 1500 38.7298
151.344 1509 38.8458
151.462 1494 38.6523
151.579 1454 38.1314
151.697 1469 38.3275
151.814 1481 38.4838
151.932 1473 38.3797
152.049 1567 39.5854
152.167 1460 38.2099
152.284 1483 38.5097
152.402 1541 39.2556
152.519 1546 39.3192
152.636 1560 39.4968
152.754 1533 39.1535
152.871 1619 40.2368
152.989 1606 40.0749
153.106 1631 40.3856
153.223 1571 39.6358
153.341 1610 40.1248
153.458 1621 40.2616
153.575 1611 40.1373
153.693 1569 39.6106
153.81 1621 40.2616
153.927 1573 39.6611
154.044 1428 37.7889
154.162 1503 38.7685
154.279 1490 38.6005
154.396 1360 36.8782
154.513 1409 37.5366
154.63 1400 37.4166
154.747 1448 38.0526
154.864 1518 38.9615
154.981 1505 38.7943
155.098 1544 39.2938
155.215 1578 39.724
155.332 1576 39.6989
155.449 1625 40.3113
155.566 1556 39.4462
155.683 1591 39.8873
155.8 1566 39.5727
155.917 1496 38.6782
156.033 1650 40.6202
156.15 0 1
156.267 0 1
156.383 0 1
156.5 0 1
156.617 0 1
156.733 0 1
156.85 0 1
156.966 0 1
157.082 0 1
157.199 0 1
157.315 0 1
157.431 0 1
157.547 0 1
157.664 0 1
157.78 0 1
157.896 0 1
158.012 0 1
158.128 0 1
158.244 0 1
158.359 0 1
158.475 0 1
158.591 0 1
158.706 0 1
