
6.15755 0 1
6.2731 0 1
6.3887 0 1
6.50437 0 1
6.62009 0 1
6.73587 0 1
6.8517 0 1
6.96759 0 1
7.08353 0 1
7.19952 0 1
7.31557 0 1
7.43166 0 1
7.54781 0 1
7.664 0 1
7.78024 0 1
7.89653 0 1
8.01286 0 1
8.12924 0 1
8.24567 0 1
8.36213 0 1
8.47864 0 1
8.59519 0 1
8.71178 0 1
8.82841 0 1
8.94508 0 1
9.06179 0 1
9.17853 0 1
9.29531 0 1
9.41212 0 1
9.52897 0 1
9.64584 0 1
9.76276 0 1
9.8797 0 1
9.99667 0 1
10.1137 0 1
10.2307 0 1
10.3478 0 1
10.4648 0 1
10.5819 0 1
10.6991 0 1
10.8162 0 1
10.9334 0 1
11.0506 0 1
11.1678 0 1
11.285 0 1
11.4023 0 1
11.5196 0 1
11.6369 0 1
11.7542 0 1
11.8715 0 1
11.9888 0 1
12.1062 0 1
12.2235 0 1
12.3409 0 1
12.4582 0 1
12.5756 0 1
12.693 0 1
12.8104 0 1
12.9278 0 1
13.0452 0 1
13.1626 0 1
13.28 0 1
13.3974 0 1
13.5149 0 1
13.6323 0 1
13.7497 0 1
13.8671 0 1
13.9845 0 1
14.1019 0 1
14.2193 0 1
14.3367 0 1
14.4541 0 1
14.5714 0 1
14.6888 0 1
14.8062 0 1
14.9235 0 1
15.0408 2761 52.5452
15.1581 2958 54.3875
15.2755 3031 55.0545
15.3927 3078 55.4797
15.51 2995 54.7266
15.6273 2870 53.5724
15.7445 2788 52.8015
15.8617 2773 52.6593
15.9789 2620 51.1859
16.0961 2664 51.614
16.2132 2671 51.6817
16.3304 2601 51
16.4475 2607 51.0588
16.5646 2564 50.636
16.6816 2491 49.9099
16.7986 2533 50.3289
16.9156 2472 49.7192
17.0326 2379 48.775
17.1496 2410 49.0918
17.2665 2429 49.2849
17.3833 2475 49.7494
17.5002 2399 48.9796
17.617 2433 49.3254
17.7338 2563 50.6261
17.8505 2471 49.7092
17.9672 2597 50.9608
18.0839 2324 48.2079
18.2005 2285 47.8017
18.3171 2268 47.6235
18.4337 2376 48.7442
18.5502 2473 49.7293
18.6666 2476 49.7594
18.7831 2423 49.224
18.8994 2502 50.02
19.0158 2345 48.4252
19.1321 2175 46.6369
19.2483 2129 46.1411
19.3645 2107 45.9021
19.4806 1968 44.3621
19.5967 1820 42.6615
19.7128 1904 43.6348
19.8288 1716 41.4246
19.9447 1534 39.1663
20.0606 0 1
20.1764 0 1
20.2922 0 1
20.4079 0 1
20.5236 0 1
20.6392 0 1
20.7548 0 1
20.8702 0 1
23.3078 0 1
23.4233 0 1
23.539 0 1
23.6547 0 1
23.7704 0 1
23.8862 0 1
24.0021 0 1
24.118 0 1
24.234 0 1
24.35 0 1
24.4661 1024 32
24.5822 1141 33.7787
24.6984 1380 37.1484
24.8146 1596 39.95
24.9309 1905 43.6463
25.0472 2154 46.4112
25.1636 2329 48.2597
25.28 2490 49.8999
25.3965 2789 52.811
25.513 2910 53.9444
25.6296 3273 57.2101
25.7462 3357 57.9396
25.8628 3169 56.2939
25.9795 3206 56.6216
26.0962 3307 57.5065
26.213 3493 59.1016
26.3298 3744 61.1882
26.4466 4222 64.9769
26.5635 4555 67.4907
26.6804 4167 64.5523
26.7973 3090 55.5878
26.9143 2572 50.7149
27.0313 3503 59.1861
27.1483 4692 68.4982
27.2653 5234 72.3464
27.3824 5295 72.7668
27.4996 5158 71.8192
27.6167 5335 73.0411
27.7339 5558 74.552
27.8511 5895 76.7789
27.9683 6105 78.1345
28.0855 6079 77.9679
28.2028 5936 77.0454
28.3201 6019 77.5822
28.4374 5766 75.9342
28.5547 5452 73.8377
28.6721 5390 73.4166
28.7894 5288 72.7186
28.9068 5361 73.2189
29.0242 5029 70.9154
29.1416 4530 67.3053
29.259 3810 61.7252
29.3764 3413 58.4209
29.4939 3049 55.2178
29.6113 2900 53.8516
29.7288 2690 51.8652
29.8463 2706 52.0192
29.9638 2804 52.9528
30.0812 2846 53.3479
30.1987 2641 51.3907
30.3162 2318 48.1456
30.4337 2109 45.9239
30.5512 2605 51.0392
30.6687 3791 61.5711
30.7862 3902 62.466
30.9037 3599 59.9917
31.0212 3162 56.2317
31.1387 2859 53.4696
31.2562 2711 52.0673
31.3737 2446 49.4571
31.4912 2397 48.9592
31.6087 2266 47.6025
31.7262 2314 48.1041
31.8436 2310 48.0625
31.9611 2367 48.6518
32.0785 2346 48.4355
32.1959 2297 47.927
32.3134 2235 47.2758
32.4308 2302 47.9792
32.5482 2156 46.4327
32.6655 2169 46.5725
32.7829 2120 46.0435
32.9002 2124 46.0869
33.0176 2043 45.1996
33.1349 2086 45.6727
33.2522 2082 45.6289
33.3694 2134 46.1952
33.4867 2212 47.0319
33.6039 2100 45.8258
33.7211 2097 45.793
33.8383 2032 45.0777
33.9554 1960 44.2719
34.0725 1975 44.441
34.1896 1936 44
34.3067 2191 46.8081
34.4237 2233 47.2546
34.5407 2201 46.9148
34.6577 2278 47.7284
34.7746 2239 47.3181
34.8915 2028 45.0333
35.0084 2120 46.0435
35.1252 2098 45.8039
35.242 2068 45.4753
35.3587 2064 45.4313
35.4755 2102 45.8476
35.5921 2105 45.8803
35.7088 1986 44.5646
35.8254 2066 45.4533
35.9419 2039 45.1553
36.0584 2004 44.7661
36.1749 2046 45.2327
36.2913 1906 43.6578
36.4077 1800 42.4264
36.524 1818 42.638
36.6403 1715 41.4126
36.7565 1661 40.7554
36.8727 1643 40.5339
36.9889 1471 38.3536
37.1049 1393 37.3229
37.221 0 1
37.3369 0 1
37.4529 0 1
37.5687 0 1
37.6845 0 1
37.8003 0 1
37.916 0 1
38.0316 0 1
38.1472 0 1
40.5851 0 1
40.7008 0 1
40.8164 0 1
40.9322 0 1
41.048 0 1
41.1639 0 1
41.2798 0 1
41.3958 0 1
41.5118 0 1
41.6279 0 1
41.744 928 30.4631
41.8602 1112 33.3467
41.9765 1266 35.5809
42.0928 1289 35.9026
42.2091 1512 38.8844
42.3255 1550 39.37
42.4419 1612 40.1497
42.5584 1672 40.8901
42.675 1601 40.0125
42.7915 1563 39.5348
42.9081 1471 38.3536
43.0248 1558 39.4715
43.1415 1600 40
43.2582 1660 40.7431
43.375 1671 40.8779
43.4918 1686 41.0609
43.6087 1647 40.5832
43.7256 1567 39.5854
43.8425 1580 39.7492
43.9595 1459 38.1969
44.0765 1450 38.0789
44.1935 1517 38.9487
44.3106 1514 38.9102
44.4277 1566 39.5727
44.5448 1613 40.1622
44.6619 1561 39.5095
44.7791 1601 40.0125
44.8963 1678 40.9634
45.0136 1622 40.2741
45.1308 1686 41.0609
45.2481 1676 40.939
45.3654 1741 41.7253
45.4827 1671 40.8779
45.6001 1745 41.7732
45.7174 1695 41.1704
45.8348 1726 41.5452
45.9522 1676 40.939
46.0697 1637 40.4599
46.1871 1577 39.7115
46.3046 1502 38.7556
46.422 1420 37.6829
46.5395 1527 39.0768
46.657 1607 40.0874
46.7745 1572 39.6485
46.892 1627 40.3361
47.0096 1677 40.9512
47.1271 1646 40.5709
47.2446 1603 40.0375
47.3622 1653 40.6571
47.4797 1511 38.8716
47.5973 1535 39.1791
47.7149 1467 38.3014
47.8324 1493 38.6394
47.95 1510 38.8587
48.0675 1577 39.7115
48.1851 1639 40.4846
48.3027 1631 40.3856
48.4202 1604 40.05
48.5378 1569 39.6106
48.6554 1592 39.8999
48.7729 1641 40.5093
48.8904 1591 39.8873
49.008 1733 41.6293
49.1255 1600 40
49.243 1623 40.2865
49.3605 1681 41
49.478 1634 40.4228
49.5955 1543 39.281
49.713 1431 37.8286
49.8304 1464 38.2623
49.9479 1380 37.1484
50.0653 1420 37.6829
50.1827 1495 38.6652
50.3001 1541 39.2556
50.4175 1556 39.4462
50.5348 1542 39.2683
50.6521 1569 39.6106
50.7694 1609 40.1123
50.8867 1528 39.0896
51.004 1507 38.8201
51.1212 1373 37.054
51.2384 1404 37.47
51.3556 1489 38.5876
51.4727 1505 38.7943
51.5899 1579 39.7366
51.707 1579 39.7366
51.824 1528 39.0896
51.9411 1581 39.7618
52.0581 1574 39.6737
52.175 1656 40.694
52.2919 1460 38.2099
52.4088 1543 39.281
52.5257 1543 39.281
52.6425 1662 40.7676
52.7593 1613 40.1622
52.876 1576 39.6989
52.9927 1626 40.3237
53.1094 1578 39.724
53.226 1558 39.4715
53.3426 1439 37.9342
53.4591 1385 37.2156
53.5756 1381 37.1618
53.692 1337 36.565
53.8084 1341 36.6197
53.9248 1343 36.647
54.0411 1226 35.0143
54.1573 1103 33.2114
54.2735 0 1
54.3896 0 1
54.5057 0 1
54.6217 0 1
54.7377 0 1
54.8537 0 1
54.9695 0 1
55.0853 0 1
55.2011 0 1
55.3168 0 1
55.4324 0 1
57.824 0 1
57.9396 0 1
58.0553 0 1
58.1711 0 1
58.2869 0 1
58.4028 0 1
58.5187 0 1
58.6347 0 1
58.7508 0 1
58.8669 0 1
58.983 2211 47.0213
59.0992 2887 53.7308
59.2155 3528 59.397
59.3318 3756 61.2862
59.4482 4011 63.3325
59.5646 4035 63.5216
59.681 4064 63.7495
59.7975 4069 63.7887
59.9141 3903 62.474
60.0306 3987 63.1427
60.1473 3905 62.49
60.2639 4004 63.2772
60.3807 3953 62.8729
60.4974 4144 64.3739
60.6142 4006 63.293
60.731 4068 63.7809
60.8479 3946 62.8172
60.9648 3891 62.3779
61.0818 3892 62.3859
61.1987 3801 61.6523
61.3158 3770 61.4003
61.4328 3809 61.7171
61.5499 3714 60.9426
61.667 3550 59.5819
61.7841 3482 59.0085
61.9013 3361 57.9741
62.0185 3303 57.4717
62.1357 3232 56.8507
62.253 3183 56.4181
62.3702 3130 55.9464
62.4875 3141 56.0446
62.6049 3050 55.2268
62.7222 3029 55.0364
62.8396 2843 53.3198
62.9569 2732 52.2685
63.0743 2658 51.5558
63.1918 2361 48.5901
63.3092 2269 47.634
63.4267 2051 45.288
63.5441 2095 45.7712
63.6616 2101 45.8367
63.7791 2022 44.9667
63.8966 2114 45.9783
64.0142 2023 44.9778
64.1317 2046 45.2327
64.2492 2027 45.0222
64.3668 1993 44.643
64.4843 1910 43.7035
64.6019 2000 44.7214
64.7195 1888 43.4511
64.837 2002 44.7437
64.9546 1999 44.7102
65.0722 1963 44.3058
65.1898 1982 44.5197
65.3074 1950 44.1588
65.4249 1927 43.8976
65.5425 1824 42.7083
65.6601 1876 43.3128
65.7777 1851 43.0232
65.8952 1848 42.9884
66.0128 1914 43.7493
66.1304 1974 44.4297
66.2479 1985 44.5533
66.3655 1920 43.8178
66.483 1895 43.5316
66.6005 1951 44.1701
66.718 1943 44.0795
66.8355 1901 43.6005
66.953 1789 42.2966
67.0705 1863 43.1625
67.1879 1805 42.4853
67.3054 1875 43.3013
67.4228 1882 43.382
67.5402 1956 44.2267
67.6576 1992 44.6318
67.7749 2064 45.4313
67.8923 1916 43.7721
68.0096 1898 43.566
68.1269 1998 44.699
68.2442 1868 43.2204
68.3614 1923 43.852
68.4787 1921 43.8292
68.5958 1888 43.4511
68.713 1920 43.8178
68.8302 1907 43.6692
68.9473 1936 44
69.0643 1816 42.6146
69.1814 1857 43.0929
69.2984 1831 42.7902
69.4154 1837 42.8602
69.5323 1868 43.2204
69.6492 1883 43.3935
69.7661 1949 44.1475
69.8829 1958 44.2493
69.9997 1933 43.9659
70.1165 1882 43.382
70.2332 1798 42.4028
70.3499 1847 42.9767
70.4665 1726 41.5452
70.5831 1640 40.4969
70.6996 1420 37.6829
70.8161 1330 36.4692
70.9326 1252 35.3836
71.049 1106 33.2566
71.1653 1117 33.4215
71.2817 1061 32.573
71.3979 1001 31.6386
71.5141 904 30.0666
71.6303 858 29.2916
71.7464 706 26.5707
71.8624 0 1
71.9784 0 1
72.0944 0 1
72.2102 0 1
72.3261 0 1
72.4418 0 1
72.5575 0 1
72.6732 0 1
75.1054 0 1
75.2209 0 1
75.3365 0 1
75.4521 0 1
75.5678 0 1
75.6835 0 1
75.7993 0 1
75.9151 0 1
76.031 0 1
76.147 1042 32.28
76.263 1273 35.6791
76.3791 1400 37.4166
76.4952 1420 37.6829
76.6113 1488 38.5746
76.7276 1525 39.0512
76.8438 1572 39.6485
76.9601 1581 39.7618
77.0765 1619 40.2368
77.1929 1600 40
77.3093 1556 39.4462
77.4258 1611 40.1373
77.5423 1615 40.1871
77.6589 1603 40.0375
77.7755 1678 40.9634
77.8921 1638 40.4722
78.0088 1582 39.7744
78.1256 1613 40.1622
78.2423 1599 39.9875
78.3591 1647 40.5832
78.4759 1522 39.0128
78.5928 1546 39.3192
78.7097 1659 40.7308
78.8266 1527 39.0768
78.9436 1671 40.8779
79.0606 1591 39.8873
79.1776 1630 40.3733
79.2946 1581 39.7618
79.4117 1546 39.3192
79.5288 1697 41.1947
79.6459 1616 40.1995
79.7631 1640 40.4969
79.8802 1727 41.5572
79.9974 1689 41.0974
80.1147 1647 40.5832
80.2319 1588 39.8497
80.3491 1605 40.0625
80.4664 1663 40.7799
80.5837 1682 41.0122
80.701 1631 40.3856
80.8183 1627 40.3361
80.9357 1614 40.1746
81.053 1679 40.9756
81.1704 1643 40.5339
81.2877 1731 41.6053
81.4051 1734 41.6413
81.5225 1767 42.0357
81.6399 1647 40.5832
81.7573 1740 41.7133
81.8747 1632 40.398
81.9922 1658 40.7185
82.1096 1641 40.5093
82.227 1623 40.2865
82.3444 1574 39.6737
82.4619 1746 41.7852
82.5793 1706 41.3038
82.6967 1704 41.2795
82.8142 1666 40.8167
82.9316 1663 40.7799
83.049 1655 40.6817
83.1664 1677 40.9512
83.2838 1633 40.4104
83.4012 1728 41.5692
83.5186 1655 40.6817
83.636 1662 40.7676
83.7534 1743 41.7493
83.8708 1642 40.5216
83.9881 1607 40.0874
84.1055 1656 40.694
84.2228 1692 41.1339
84.3401 1636 40.4475
84.4575 1741 41.7253
84.5747 1717 41.4367
84.692 1713 41.3884
84.8093 1703 41.2674
84.9265 1788 42.2847
85.0437 1759 41.9404
85.1609 1744 41.7612
85.2781 1725 41.5331
85.3952 1693 41.1461
85.5123 1650 40.6202
85.6294 1738 41.6893
85.7465 1661 40.7554
85.8636 1704 41.2795
85.9806 1666 40.8167
86.0976 1792 42.332
86.2145 1734 41.6413
86.3315 1683 41.0244
86.4484 1675 40.9268
86.5652 1719 41.4608
86.682 1717 41.4367
86.7988 1688 41.0853
86.9156 1739 41.7013
87.0323 1736 41.6653
87.149 1697 41.1947
87.2657 1720 41.4729
87.3823 1669 40.8534
87.4988 1634 40.4228
87.6154 1558 39.4715
87.7318 1593 39.9124
87.8483 1545 39.3065
87.9647 1482 38.4968
88.081 1384 37.2022
88.1973 1258 35.4683
88.3136 1190 34.4964
88.4298 1046 32.3419
88.546 1050 32.4037
88.6621 990 31.4643
88.7781 945 30.7409
88.8942 0 1
89.0101 0 1
89.126 0 1
89.2419 0 1
89.3577 0 1
89.4734 0 1
89.5891 0 1
89.7047 0 1
89.8203 0 1
89.9358 0 1
92.3269 0 1
92.4424 0 1
92.558 0 1
92.6736 0 1
92.7893 0 1
92.905 0 1
93.0208 0 1
93.1366 0 1
93.2525 0 1
93.3685 0 1
93.4845 0 1
93.6005 1298 36.0278
93.7167 1377 37.108
93.8328 1493 38.6394
93.949 1615 40.1871
94.0653 1651 40.6325
94.1816 1721 41.4849
94.2979 1798 42.4028
94.4143 1691 41.1218
94.5307 1743 41.7493
94.6472 1749 41.821
94.7637 1732 41.6173
94.8803 1716 41.4246
94.9969 1718 41.4488
95.1135 1731 41.6053
95.2302 1775 42.1307
95.3469 1669 40.8534
95.4637 1707 41.3159
95.5805 1701 41.2432
95.6973 1781 42.2019
95.8142 1755 41.8927
95.9311 1696 41.1825
96.048 1680 40.9878
96.1649 1801 42.4382
96.2819 1793 42.3438
96.3989 1797 42.391
96.516 1834 42.8252
96.633 1763 41.9881
96.7501 1786 42.2611
96.8673 1724 41.5211
96.9844 1702 41.2553
97.1016 1740 41.7133
97.2188 1752 41.8569
97.336 1682 41.0122
97.4532 1798 42.4028
97.5704 1784 42.2374
97.6877 1813 42.5793
97.805 1802 42.45
97.9223 1848 42.9884
98.0396 1778 42.1663
98.1569 1812 42.5676
98.2743 1885 43.4166
98.3916 1800 42.4264
98.509 1904 43.6348
98.6264 1750 41.833
98.7438 1808 42.5206
98.8612 1746 41.7852
98.9786 1773 42.107
99.096 1806 42.4971
99.2134 1916 43.7721
99.3308 1920 43.8178
99.4482 1890 43.4741
99.5656 1975 44.441
99.6831 1853 43.0465
99.8005 2049 45.2659
99.9179 1966 44.3396
100.035 1854 43.0581
100.153 1799 42.4146
100.27 1848 42.9884
100.388 1794 42.3556
100.505 1831 42.7902
100.622 1784 42.2374
100.74 1792 42.332
100.857 1868 43.2204
100.975 1863 43.1625
101.092 1862 43.1509
101.209 1877 43.3244
101.327 1967 44.3509
101.444 1976 44.4522
101.561 1982 44.5197
101.679 1926 43.8862
101.796 1935 43.9886
101.913 1987 44.5758
102.03 1962 44.2945
102.148 1928 43.909
102.265 1911 43.715
102.382 1918 43.795
102.499 1896 43.5431
102.616 1875 43.3013
102.733 1957 44.238
102.851 2022 44.9667
102.968 2006 44.7884
103.085 2019 44.9333
103.202 1979 44.486
103.319 1879 43.3474
103.436 2045 45.2217
103.552 1939 44.0341
103.669 1941 44.0568
103.786 1952 44.1814
103.903 1898 43.566
104.02 1867 43.2088
104.137 1941 44.0568
104.253 1912 43.7264
104.37 1890 43.4741
104.487 1963 44.3058
104.603 1959 44.2606
104.72 2064 45.4313
104.836 1981 44.5084
104.953 1983 44.5309
105.069 1985 44.5533
105.186 1806 42.4971
105.302 1780 42.19
105.418 1587 39.8372
105.535 1469 38.3275
105.651 1307 36.1525
105.767 1276 35.7211
105.883 1194 34.5543
105.999 1027 32.0468
106.115 0 1
106.231 0 1
106.347 0 1
106.463 0 1
106.579 0 1
106.694 0 1
106.81 0 1
106.926 0 1
107.041 0 1
107.157 0 1
109.576 0 1
109.692 0 1
109.807 0 1
109.923 0 1
110.039 0 1
110.155 0 1
110.27 0 1
110.386 0 1
110.502 0 1
110.618 1061 32.573
110.735 1227 35.0286
110.851 1317 36.2905
110.967 1346 36.6879
111.083 1476 38.4187
111.199 1533 39.1535
111.316 1732 41.6173
111.432 1825 42.72
111.549 1944 44.0908
111.665 1804 42.4735
111.782 1848 42.9884
111.898 1825 42.72
112.015 1868 43.2204
112.132 1904 43.6348
112.248 1831 42.7902
112.365 1825 42.72
112.482 1820 42.6615
112.599 1769 42.0595
112.716 1676 40.939
112.832 1736 41.6653
112.949 1693 41.1461
113.066 1711 41.3642
113.183 1752 41.8569
113.3 1756 41.9047
113.417 1773 42.107
113.534 1800 42.4264
113.652 1831 42.7902
113.769 1857 43.0929
113.886 1789 42.2966
114.003 1792 42.332
114.12 1847 42.9767
114.238 1725 41.5331
114.355 1781 42.2019
114.472 1670 40.8656
114.589 1560 39.4968
114.707 1669 40.8534
114.824 1611 40.1373
114.942 1785 42.2493
115.059 1810 42.5441
115.176 1746 41.7852
115.294 1735 41.6533
115.411 1784 42.2374
115.529 1766 42.0238
115.646 1741 41.7253
115.764 1685 41.0488
115.881 1628 40.3485
115.999 1584 39.7995
116.116 1526 39.064
116.234 1540 39.2428
116.351 1526 39.064
116.469 1563 39.5348
116.586 1563 39.5348
116.704 1526 39.064
116.821 1599 39.9875
116.939 1541 39.2556
117.056 1627 40.3361
117.174 1605 40.0625
117.291 1704 41.2795
117.409 1700 41.2311
117.526 1671 40.8779
117.644 1651 40.6325
117.761 1618 40.2244
117.879 1614 40.1746
117.996 1556 39.4462
118.114 1480 38.4708
118.231 1410 37.55
118.349 1557 39.4588
118.466 1715 41.4126
118.584 1651 40.6325
118.701 1703 41.2674
118.819 1652 40.6448
118.936 1548 39.3446
119.053 1654 40.6694
119.171 1536 39.1918
119.288 1599 39.9875
119.405 1551 39.3827
119.523 1542 39.2683
119.64 1429 37.8021
119.757 1411 37.5633
119.875 1433 37.855
119.992 1407 37.51
120.109 1445 38.0132
120.226 1489 38.5876
120.343 1470 38.3406
120.46 1521 39
120.578 1489 38.5876
120.695 1503 38.7685
120.812 1609 40.1123
120.929 1517 38.9487
121.046 1569 39.6106
121.163 1582 39.7744
121.279 1535 39.1791
121.396 1473 38.3797
121.513 1499 38.7169
121.63 1455 38.1445
121.747 1248 35.327
121.863 1236 35.1568
121.98 1346 36.6879
122.097 1381 37.1618
122.213 1297 36.0139
122.33 1281 35.7911
122.446 1143 33.8083
122.563 1139 33.7491
122.679 1078 32.8329
122.795 1145 33.8378
122.912 1040 32.249
123.028 982 31.3369
123.144 859 29.3087
123.26 761 27.5862
123.377 0 1
123.493 0 1
123.609 0 1
123.725 0 1
123.84 0 1
123.956 0 1
124.072 0 1
124.188 0 1
124.303 0 1
124.419 0 1
126.852 0 1
126.968 0 1
127.083 0 1
127.199 0 1
127.315 0 1
127.431 0 1
127.547 0 1
127.663 0 1
127.779 0 1
127.895 0 1
128.011 0 1
128.127 0 1
128.243 0 1
128.359 1583 39.7869
128.476 1666 40.8167
128.592 1710 41.3521
128.708 1603 40.0375
128.825 1547 39.3319
128.941 1606 40.0749
129.058 1607 40.0874
129.174 1585 39.8121
129.291 1662 40.7676
129.408 1691 41.1218
129.524 1707 41.3159
129.641 1764 42
129.758 1834 42.8252
129.875 1818 42.638
129.992 1862 43.1509
130.108 1893 43.5086
130.225 1939 44.0341
130.342 1913 43.7379
130.459 1872 43.2666
130.576 1842 42.9185
130.693 1759 41.9404
130.81 1686 41.0609
130.928 1647 40.5832
131.045 1877 43.3244
131.162 2003 44.7549
131.279 2138 46.2385
131.396 2193 46.8295
131.513 2241 47.3392
131.631 2290 47.8539
131.748 2324 48.2079
131.865 2298 47.9375
131.983 2471 49.7092
132.1 2418 49.1732
132.217 2515 50.1498
132.335 2482 49.8197
132.452 2500 50
132.57 2653 51.5073
132.687 2614 51.1273
132.804 2912 53.963
132.922 2964 54.4426
133.039 3051 55.2359
133.157 3175 56.3471
133.274 3156 56.1783
133.392 3156 56.1783
133.509 3282 57.2887
133.627 3381 58.1464
133.744 3308 57.5152
133.862 3411 58.4038
133.979 3336 57.7581
134.097 3190 56.4801
134.214 3116 55.8211
134.332 2860 53.479
134.449 2787 52.792
134.567 2910 53.9444
134.684 3057 55.2901
134.802 3192 56.4978
134.919 3365 58.0086
135.037 3480 58.9915
135.154 3463 58.8473
135.272 3542 59.5147
135.389 3474 58.9406
135.507 3530 59.4138
135.624 3414 58.4294
135.742 3413 58.4209
135.859 3417 58.4551
135.977 3450 58.7367
136.094 3476 58.9576
136.211 3507 59.2199
136.329 3637 60.3075
136.446 3655 60.4566
136.564 3659 60.4897
136.681 3747 61.2127
136.798 3772 61.4166
136.915 3801 61.6523
137.033 3768 61.384
137.15 3822 61.8223
137.267 3923 62.6339
137.384 4004 63.2772
137.502 4003 63.2693
137.619 4003 63.2693
137.736 3809 61.7171
137.853 3497 59.1354
137.97 3416 58.4466
138.087 3376 58.1034
138.204 3336 57.7581
138.321 3434 58.6003
138.438 3572 59.7662
138.555 3816 61.7738
138.672 3929 62.6817
138.788 4027 63.4586
138.905 3988 63.1506
139.022 4052 63.6553
139.139 3993 63.1902
139.255 3748 61.2209
139.372 3512 59.2621
139.488 3096 55.6417
139.605 2975 54.5436
139.721 2770 52.6308
139.838 2822 53.1225
139.954 2668 51.6527
140.071 2627 51.2543
140.187 2378 48.7647
140.303 2389 48.8774
140.419 2247 47.4025
140.535 2141 46.2709
140.652 2119 46.0326
140.768 0 1
140.884 0 1
141 0 1
141.115 0 1
141.231 0 1
141.347 0 1
141.463 0 1
141.578 0 1
141.694 0 1
144.104 0 1
144.219 0 1
144.335 0 1
144.45 0 1
144.566 0 1
144.682 0 1
144.798 0 1
144.914 0 1
145.03 0 1
145.146 3538 59.4811
145.262 3640 60.3324
145.378 3803 61.6685
145.494 3758 61.3025
145.61 3834 61.9193
145.726 3780 61.4817
145.842 4041 63.5689
145.959 3928 62.6738
146.075 3940 62.7694
146.192 4070 63.7966
146.308 3991 63.1744
146.425 3775 61.441
146.541 3776 61.4492
146.658 3648 60.3987
146.774 3392 58.2409
146.891 3289 57.3498
147.008 3395 58.2666
147.125 3538 59.4811
147.241 3716 60.959
147.358 3892 62.3859
147.475 3912 62.546
147.592 3914 62.562
147.709 3964 62.9603
147.826 3913 62.554
147.943 3973 63.0317
148.06 3829 61.8789
148.177 3810 61.7252
148.294 3682 60.6795
148.411 3770 61.4003
148.528 3649 60.407
148.645 3770 61.4003
148.762 3906 62.498
148.88 3870 62.2093
148.997 3997 63.2218
149.114 3882 62.3057
149.231 3948 62.8331
149.349 3860 62.1289
149.466 3917 62.5859
149.583 3927 62.6658
149.701 3763 61.3433
149.818 3850 62.0484
149.935 3976 63.0555
150.053 3841 61.9758
150.17 3653 60.4401
150.287 3370 58.0517
150.405 3373 58.0775
150.522 3233 56.8595
150.64 3219 56.7362
150.757 3191 56.4889
150.875 3303 57.4717
150.992 3264 57.1314
151.11 3397 58.2838
151.227 3397 58.2838
151.344 3334 57.7408
151.462 3508 59.2284
151.579 3253 57.0351
151.697 3383 58.1636
151.814 3228 56.8155
151.932 3111 55.7763
152.049 3279 57.2626
152.167 3185 56.4358
152.284 3256 57.0614
152.402 3278 57.2538
152.519 3394 58.258
152.636 3383 58.1636
152.754 3352 57.8965
152.871 3484 59.0254
152.989 3451 58.7452
153.106 3446 58.7026
153.223 3417 58.4551
153.341 3375 58.0948
153.458 3429 58.5577
153.575 3460 58.8218
153.693 3214 56.6922
153.81 3165 56.2583
153.927 3085 55.5428
154.044 2956 54.3691
154.162 2882 53.6843
154.279 2885 53.7122
154.396 3005 54.8179
154.513 3126 55.9106
154.63 3191 56.4889
154.747 3233 56.8595
154.864 3126 55.9106
154.981 3168 56.285
155.098 3276 57.2364
155.215 3167 56.2761
155.332 3101 55.6866
155.449 3173 56.3294
155.566 3077 55.4707
155.683 3091 55.5968
155.8 3188 56.4624
155.917 3160 56.2139
156.033 3194 56.5155
156.15 0 1
156.267 0 1
156.383 0 1
156.5 0 1
156.617 0 1
156.733 0 1
156.85 0 1
156.966 0 1
157.082 0 1
157.199 0 1
157.315 0 1
157.431 0 1
157.547 0 1
157.664 0 1
157.78 0 1
157.896 0 1
158.012 0 1
158.128 0 1
158.244 0 1
158.359 0 1
158.475 0 1
158.591 0 1
158.706 0 1
