
6.15755 0 1
6.2731 0 1
6.3887 0 1
6.50437 0 1
6.62009 0 1
6.73587 0 1
6.8517 0 1
6.96759 0 1
7.08353 0 1
7.19952 0 1
7.31557 0 1
7.43166 0 1
7.54781 0 1
7.664 0 1
7.78024 0 1
7.89653 0 1
8.01286 0 1
8.12924 0 1
8.24567 0 1
8.36213 0 1
8.47864 0 1
8.59519 0 1
8.71178 0 1
8.82841 0 1
8.94508 0 1
9.06179 0 1
9.17853 0 1
9.29531 0 1
9.41212 0 1
9.52897 0 1
9.64584 0 1
9.76276 0 1
9.8797 0 1
9.99667 0 1
10.1137 0 1
10.2307 0 1
10.3478 0 1
10.4648 0 1
10.5819 0 1
10.6991 0 1
10.8162 0 1
10.9334 0 1
11.0506 0 1
11.1678 0 1
11.285 0 1
11.4023 0 1
11.5196 0 1
11.6369 0 1
11.7542 0 1
11.8715 0 1
11.9888 0 1
12.1062 0 1
12.2235 0 1
12.3409 0 1
12.4582 0 1
12.5756 0 1
12.693 0 1
12.8104 0 1
12.9278 0 1
13.0452 0 1
13.1626 0 1
13.28 0 1
13.3974 0 1
13.5149 0 1
13.6323 0 1
13.7497 0 1
13.8671 0 1
13.9845 0 1
14.1019 0 1
14.2193 0 1
14.3367 0 1
14.4541 0 1
14.5714 0 1
14.6888 0 1
14.8062 0 1
14.9235 0 1
15.0408 76893 277.296
15.1581 80656 284
15.2755 83393 288.778
15.3927 84749 291.117
15.51 86079 293.392
15.6273 85467 292.347
15.7445 84461 290.622
15.8617 82374 287.009
15.9789 79283 281.572
16.0961 80058 282.945
16.2132 82468 287.172
16.3304 87019 294.99
16.4475 90570 300.949
16.5646 92937 304.856
16.6816 93813 306.289
16.7986 93285 305.426
16.9156 93366 305.559
17.0326 92748 304.546
17.1496 92940 304.861
17.2665 91149 301.909
17.3833 87775 296.268
17.5002 84746 291.112
17.617 81068 284.724
17.7338 79941 282.738
17.8505 80104 283.027
17.9672 84879 291.34
18.0839 87047 295.037
18.2005 89747 299.578
18.3171 90560 300.932
18.4337 92738 304.529
18.5502 95585 309.168
18.6666 96307 310.334
18.7831 96508 310.657
18.8994 95376 308.83
19.0158 93796 306.261
19.1321 90689 301.146
19.2483 87121 295.163
19.3645 83661 289.242
19.4806 81219 284.989
19.5967 79439 281.849
19.7128 82617 287.432
19.8288 85061 291.652
19.9447 81139 284.849
20.0606 0 1
20.1764 0 1
20.2922 0 1
20.4079 0 1
20.5236 0 1
20.6392 0 1
20.7548 0 1
20.8702 0 1
23.3078 0 1
23.4233 0 1
23.539 0 1
23.6547 0 1
23.7704 0 1
23.8862 0 1
24.0021 0 1
24.118 0 1
24.234 0 1
24.35 0 1
24.4661 81418 285.338
24.5822 79946 282.747
24.6984 82654 287.496
24.8146 86540 294.177
24.9309 91238 302.056
25.0472 95514 309.053
25.1636 96798 311.124
25.28 96995 311.44
25.3965 97753 312.655
25.513 97948 312.966
25.6296 99564 315.538
25.7462 99573 315.552
25.8628 98364 313.63
25.9795 94746 307.808
26.0962 90787 301.309
26.213 85470 292.353
26.3298 83614 289.161
26.4466 82480 287.193
26.5635 85564 292.513
26.6804 88711 297.844
26.7973 90568 300.945
26.9143 92992 304.946
27.0313 95234 308.6
27.1483 97509 312.264
27.2653 98776 314.286
27.3824 99022 314.678
27.4996 98689 314.148
27.6167 95862 309.616
27.7339 93987 306.573
27.8511 90347 300.578
27.9683 84717 291.062
28.0855 80618 283.933
28.2028 80469 283.671
28.3201 81642 285.731
28.4374 87780 296.277
28.5547 91702 302.823
28.6721 95596 309.186
28.7894 96936 311.345
28.9068 96343 310.392
29.0242 95727 309.398
29.1416 94548 307.487
29.259 94294 307.073
29.3764 92292 303.796
29.4939 88117 296.845
29.6113 82990 288.08
29.7288 78676 280.492
29.8463 76299 276.223
29.9638 75130 274.099
30.0812 76717 276.978
30.1987 80596 283.894
30.3162 83389 288.772
30.4337 85470 292.353
30.5512 88667 297.77
30.6687 89618 299.363
30.7862 93041 305.026
30.9037 92273 303.765
31.0212 92797 304.626
31.1387 92582 304.273
31.2562 90293 300.488
31.3737 87001 294.959
31.4912 81838 286.073
31.6087 78312 279.843
31.7262 76547 276.671
31.8436 78579 280.319
31.9611 83226 288.489
32.0785 88186 296.961
32.1959 90668 301.111
32.3134 91607 302.666
32.4308 91967 303.261
32.5482 91420 302.357
32.6655 90846 301.407
32.7829 91265 302.101
32.9002 89518 299.196
33.0176 89268 298.778
33.1349 86428 293.986
33.2522 80997 284.6
33.3694 75357 274.512
33.4867 73209 270.572
33.6039 70976 266.413
33.7211 70673 265.844
33.8383 74090 272.195
33.9554 77211 277.869
34.0725 79768 282.432
34.1896 82049 286.442
34.3067 84174 290.128
34.4237 85149 291.803
34.5407 87133 295.183
34.6577 87834 296.368
34.7746 86878 294.751
34.8915 85884 293.06
35.0084 83801 289.484
35.1252 79574 282.089
35.242 76410 276.424
35.3587 71670 267.713
35.4755 72168 268.641
35.5921 75163 274.159
35.7088 79516 281.986
35.8254 83726 289.354
35.9419 86210 293.615
36.0584 86490 294.092
36.1749 86613 294.301
36.2913 86830 294.669
36.4077 86231 293.651
36.524 85968 293.203
36.6403 85016 291.575
36.7565 83526 289.009
36.8727 78046 279.367
36.9889 72993 270.172
37.1049 68739 262.181
37.221 0 1
37.3369 0 1
37.4529 0 1
37.5687 0 1
37.6845 0 1
37.8003 0 1
37.916 0 1
38.0316 0 1
38.1472 0 1
40.5851 0 1
40.7008 0 1
40.8164 0 1
40.9322 0 1
41.048 0 1
41.1639 0 1
41.2798 0 1
41.3958 0 1
41.5118 0 1
41.6279 0 1
41.744 65936 256.78
41.8602 70512 265.541
41.9765 69964 264.507
42.0928 66538 257.95
42.2091 61219 247.425
42.3255 57542 239.879
42.4419 54432 233.307
42.5584 52753 229.68
42.675 54614 233.696
42.7915 57116 238.99
42.9081 60172 245.3
43.0248 61839 248.674
43.1415 63589 252.169
43.2582 63335 251.664
43.375 64372 253.716
43.4918 64098 253.176
43.6087 64412 253.795
43.7256 63063 251.123
43.8425 60950 246.881
43.9595 59275 243.465
44.0765 56627 237.964
44.1935 53426 231.141
44.3106 49809 223.179
44.4277 50216 224.089
44.5448 51087 226.024
44.6619 52495 229.118
44.7791 54476 233.401
44.8963 55142 234.823
45.0136 53942 232.254
45.1308 53252 230.764
45.2481 52731 229.632
45.3654 51391 226.696
45.4827 50755 225.289
45.6001 49366 222.185
45.7174 46208 214.96
45.8348 42766 206.799
45.9522 40156 200.39
46.0697 37805 194.435
46.1871 37123 192.673
46.3046 38748 196.845
46.422 40997 202.477
46.5395 42429 205.983
46.657 43586 208.773
46.7745 43869 209.449
46.892 44347 210.587
47.0096 44364 210.628
47.1271 44077 209.945
47.2446 43839 209.378
47.3622 43184 207.808
47.4797 41953 204.824
47.5973 40289 200.721
47.7149 39165 197.901
47.8324 37177 192.813
47.95 35407 188.167
48.0675 35844 189.325
48.1851 37771 194.348
48.3027 39816 199.539
48.4202 40805 202.002
48.5378 40883 202.195
48.6554 41261 203.128
48.7729 41359 203.369
48.8904 41616 204
49.008 41683 204.164
49.1255 40295 200.736
49.243 38093 195.174
49.3605 35811 189.238
49.478 34121 184.719
49.5955 33172 182.132
49.713 32835 181.204
49.8304 35353 188.024
49.9479 38856 197.119
50.0653 41147 202.847
50.1827 43203 207.853
50.3001 45132 212.443
50.4175 46702 216.106
50.5348 47305 217.497
50.6521 49439 222.349
50.7694 50007 223.622
50.8867 50986 225.801
51.004 51163 226.192
51.1212 51155 226.175
51.2384 51255 226.396
51.3556 49825 223.215
51.4727 49092 221.567
51.5899 50668 225.096
51.707 54460 233.367
51.824 58744 242.372
51.9411 61529 248.05
52.0581 63667 252.323
52.175 64815 254.588
52.2919 65984 256.874
52.4088 66857 258.567
52.5257 68385 261.505
52.6425 68312 261.366
52.7593 66832 258.519
52.876 63370 251.734
52.9927 58670 242.219
53.1094 55180 234.904
53.226 52917 230.037
53.3426 53297 230.861
53.4591 57298 239.37
53.5756 63860 252.705
53.692 69249 263.152
53.8084 72933 270.061
53.9248 76836 277.193
54.0411 78480 280.143
54.1573 79942 282.74
54.2735 0 1
54.3896 0 1
54.5057 0 1
54.6217 0 1
54.7377 0 1
54.8537 0 1
54.9695 0 1
55.0853 0 1
55.2011 0 1
55.3168 0 1
55.4324 0 1
57.824 0 1
57.9396 0 1
58.0553 0 1
58.1711 0 1
58.2869 0 1
58.4028 0 1
58.5187 0 1
58.6347 0 1
58.7508 0 1
58.8669 0 1
58.983 87762 296.247
59.0992 94618 307.6
59.2155 97900 312.89
59.3318 98914 314.506
59.4482 101044 317.874
59.5646 100819 317.52
59.681 101513 318.611
59.7975 100415 316.883
59.9141 100225 316.583
60.0306 98457 313.779
60.1473 94925 308.099
60.2639 91462 302.427
60.3807 91383 302.296
60.4974 93183 305.259
60.6142 98078 313.174
60.731 101662 318.845
60.8479 103485 321.691
60.9648 103874 322.295
61.0818 104130 322.692
61.1987 102137 319.589
61.3158 101016 317.83
61.4328 98049 313.128
61.5499 91023 301.7
61.667 83110 288.288
61.7841 77141 277.743
61.9013 72917 270.031
62.0185 71757 267.875
62.1357 75527 274.822
62.253 82710 287.593
62.3702 89010 298.345
62.4875 92206 303.654
62.6049 94301 307.085
62.7222 94608 307.584
62.8396 96714 310.989
62.9569 96074 309.958
63.0743 95550 309.112
63.1918 95694 309.344
63.3092 95198 308.542
63.4267 93862 306.369
63.5441 91363 302.263
63.6616 88109 296.832
63.7791 83472 288.915
63.8966 82018 286.388
64.0142 83229 288.494
64.1317 86084 293.401
64.2492 88901 298.163
64.3668 90408 300.679
64.4843 89977 299.962
64.6019 89859 299.765
64.7195 88358 297.251
64.837 87634 296.03
64.9546 85865 293.027
65.0722 81258 285.058
65.1898 73616 271.323
65.3074 68437 261.605
65.4249 61093 247.17
65.5425 58445 241.754
65.6601 58061 240.959
65.7777 62846 250.691
65.8952 70014 264.602
66.0128 74362 272.694
66.1304 77337 278.095
66.2479 79260 281.532
66.3655 79819 282.523
66.483 80138 283.087
66.6005 80396 283.542
66.718 81840 286.077
66.8355 81270 285.079
66.953 81573 285.61
67.0705 80649 283.988
67.1879 79724 282.354
67.3054 77072 277.618
67.4228 74533 273.007
67.5402 71969 268.27
67.6576 72860 269.926
67.7749 75234 274.288
67.8923 80885 284.403
68.0096 82080 286.496
68.1269 82665 287.515
68.2442 82644 287.479
68.3614 82735 287.637
68.4787 82483 287.199
68.5958 82231 286.759
68.713 79726 282.358
68.8302 73795 271.652
68.9473 66671 258.207
69.0643 62108 249.215
69.1814 58648 242.173
69.2984 57515 239.823
69.4154 61836 248.668
69.5323 69196 263.051
69.6492 75778 275.278
69.7661 80020 282.878
69.8829 81464 285.419
69.9997 82998 288.094
70.1165 83574 289.092
70.2332 85361 292.166
70.3499 85717 292.775
70.4665 87131 295.18
70.5831 87429 295.684
70.6996 86973 294.912
70.8161 86246 293.677
70.9326 86375 293.896
71.049 82868 287.868
71.1653 77975 279.24
71.2817 75966 275.619
71.3979 75448 274.678
71.5141 77169 277.793
71.6303 81538 285.549
71.7464 79115 281.274
71.8624 0 1
71.9784 0 1
72.0944 0 1
72.2102 0 1
72.3261 0 1
72.4418 0 1
72.5575 0 1
72.6732 0 1
75.1054 0 1
75.2209 0 1
75.3365 0 1
75.4521 0 1
75.5678 0 1
75.6835 0 1
75.7993 0 1
75.9151 0 1
76.031 0 1
76.147 79431 281.835
76.263 82927 287.97
76.3791 80775 284.209
76.4952 76208 276.058
76.6113 77206 277.86
76.7276 81532 285.538
76.8438 87256 295.391
76.9601 88873 298.116
77.0765 89070 298.446
77.1929 88378 297.284
77.3093 87950 296.564
77.4258 88441 297.39
77.5423 86182 293.568
77.6589 80744 284.155
77.7755 72229 268.755
77.8921 65684 256.289
78.0088 60406 245.776
78.1256 56994 238.734
78.2423 55637 235.875
78.3591 59568 244.066
78.4759 67879 260.536
78.5928 74354 272.679
78.7097 77893 279.093
78.8266 77969 279.229
78.9436 83070 288.219
79.0606 81944 286.259
79.1776 82907 287.936
79.2946 84555 290.783
79.4117 84865 291.316
79.5288 84695 291.024
79.6459 84934 291.434
79.7631 84635 290.921
79.8802 84366 290.458
79.9974 80816 284.282
80.1147 75426 274.638
80.2319 75517 274.804
80.3491 78236 279.707
80.4664 83646 289.216
80.5837 86101 293.43
80.701 85926 293.131
80.8183 86513 294.131
80.9357 85886 293.063
81.053 85295 292.053
81.1704 85224 291.931
81.2877 84000 289.828
81.4051 77755 278.846
81.5225 70433 265.392
81.6399 62320 249.64
81.7573 59604 244.139
81.8747 55803 236.227
81.9922 58350 241.557
82.1096 66307 257.501
82.227 73328 270.791
82.3444 76667 276.888
82.4619 79930 282.719
82.5793 82038 286.423
82.6967 81257 285.056
82.8142 83937 289.719
82.9316 85750 292.831
83.049 87338 295.53
83.1664 86844 294.693
83.2838 87110 295.144
83.4012 88016 296.675
83.5186 87145 295.203
83.636 84602 290.864
83.7534 79783 282.459
83.8708 78077 279.423
83.9881 79992 282.829
84.1055 84470 290.637
84.2228 91412 302.344
84.3401 91299 302.157
84.4575 92032 303.368
84.5747 92243 303.715
84.692 91567 302.6
84.8093 91736 302.88
84.9265 86293 293.757
85.0437 78945 280.972
85.1609 71152 266.743
85.2781 65367 255.67
85.3952 61825 248.646
85.5123 61497 247.986
85.6294 67415 259.644
85.7465 76073 275.813
85.8636 83036 288.16
85.9806 87622 296.01
86.0976 90369 300.614
86.2145 94183 306.892
86.3315 97433 312.143
86.4484 101484 318.566
86.5652 105017 324.063
86.682 106239 325.943
86.7988 109161 330.395
86.9156 110514 332.436
87.0323 111293 333.606
87.149 111301 333.618
87.2657 108586 329.524
87.3823 104923 323.918
87.4988 107253 327.495
87.6154 112991 336.141
87.7318 124235 352.47
87.8483 129554 359.936
87.9647 134247 366.397
88.081 134771 367.112
88.1973 138214 371.771
88.3136 139078 372.932
88.4298 138578 372.261
88.546 131884 363.158
88.6621 119725 346.013
88.7781 109713 331.23
88.8942 0 1
89.0101 0 1
89.126 0 1
89.2419 0 1
89.3577 0 1
89.4734 0 1
89.5891 0 1
89.7047 0 1
89.8203 0 1
89.9358 0 1
92.3269 0 1
92.4424 0 1
92.558 0 1
92.6736 0 1
92.7893 0 1
92.905 0 1
93.0208 0 1
93.1366 0 1
93.2525 0 1
93.3685 0 1
93.4845 0 1
93.6005 154629 393.229
93.7167 153360 391.612
93.8328 144822 380.555
93.949 133205 364.973
94.0653 120719 347.446
94.1816 112463 335.355
94.2979 107640 328.085
94.4143 105747 325.188
94.5307 110595 332.558
94.6472 121257 348.22
94.7637 129304 359.589
94.8803 134674 366.98
94.9969 140247 374.496
95.1135 145529 381.483
95.2302 149097 386.131
95.3469 153213 391.424
95.4637 155326 394.114
95.5805 157072 396.323
95.6973 159063 398.827
95.8142 159240 399.049
95.9311 157671 397.078
96.048 154943 393.628
96.1649 151098 388.713
96.2819 144897 380.653
96.3989 139298 373.226
96.516 136805 369.872
96.633 138155 371.692
96.7501 143106 378.294
96.8673 145544 381.502
96.9844 145807 381.847
97.1016 144284 379.847
97.2188 141448 376.096
97.336 139272 373.192
97.4532 133944 365.984
97.5704 124958 353.494
97.6877 112350 335.187
97.805 100443 316.927
97.9223 91030 301.712
98.0396 83878 289.617
98.1569 80248 283.281
98.2743 82409 287.07
98.3916 87894 296.469
98.509 93784 306.242
98.6264 96215 310.185
98.7438 100186 316.522
98.8612 102435 320.055
98.9786 104427 323.152
99.096 104608 323.432
99.2134 104014 322.512
99.3308 103223 321.283
99.4482 102662 320.409
99.5656 101740 318.967
99.6831 99247 315.035
99.8005 96446 310.558
99.9179 93168 305.234
100.035 88316 297.18
100.153 87428 295.682
100.27 89557 299.261
100.388 93180 305.254
100.505 94707 307.745
100.622 95772 309.471
100.74 95733 309.407
100.857 94665 307.677
100.975 94470 307.36
101.092 93007 304.97
101.209 89647 299.411
101.327 82267 286.822
101.444 75444 274.671
101.561 71063 266.576
101.679 67171 259.174
101.796 65495 255.92
101.913 68406 261.545
102.03 73758 271.584
102.148 77917 279.136
102.265 75784 275.289
102.382 92255 303.735
102.499 89601 299.334
102.616 92181 303.613
102.733 93784 306.242
102.851 94914 308.081
102.968 96686 310.944
103.085 95087 308.362
103.202 95550 309.112
103.319 92674 304.424
103.436 90992 301.649
103.552 87506 295.814
103.669 86829 294.668
103.786 88877 298.122
103.903 93141 305.19
104.02 95369 308.819
104.137 96642 310.873
104.253 95778 309.48
104.37 95277 308.67
104.487 96323 310.359
104.603 94774 307.854
104.72 90814 301.354
104.836 84565 290.801
104.953 76918 277.341
105.069 72660 269.555
105.186 68187 261.126
105.302 66212 257.317
105.418 69644 263.901
105.535 73886 271.82
105.651 78072 279.414
105.767 82103 286.536
105.883 86268 293.714
105.999 89333 298.886
106.115 0 1
106.231 0 1
106.347 0 1
106.463 0 1
106.579 0 1
106.694 0 1
106.81 0 1
106.926 0 1
107.041 0 1
107.157 0 1
109.576 0 1
109.692 0 1
109.807 0 1
109.923 0 1
110.039 0 1
110.155 0 1
110.27 0 1
110.386 0 1
110.502 0 1
110.618 66021 256.946
110.735 71909 268.159
110.851 76165 275.98
110.967 79641 282.207
111.083 82296 286.873
111.199 84616 290.888
111.316 86400 293.939
111.432 88101 296.818
111.549 87528 295.851
111.665 87154 295.219
111.782 86506 294.119
111.898 83330 288.669
112.015 80474 283.679
112.132 78334 279.882
112.248 78839 280.783
112.365 80977 284.565
112.482 86025 293.3
112.599 84840 291.273
112.716 85633 292.631
112.832 85775 292.874
112.949 84203 290.178
113.066 85286 292.038
113.183 84209 290.188
113.3 81897 286.177
113.417 76003 275.686
113.534 68984 262.648
113.652 64038 253.057
113.769 59375 243.67
113.886 56489 237.674
114.003 57600 240
114.12 62492 249.984
114.238 65857 256.626
114.355 69795 264.187
114.472 73203 270.561
114.589 73792 271.647
114.707 75966 275.619
114.824 77080 277.633
114.942 78335 279.884
115.059 77770 278.873
115.176 77497 278.383
115.294 76407 276.418
115.411 73939 271.917
115.529 71451 267.303
115.646 68991 262.661
115.764 68068 260.898
115.881 69415 263.467
115.999 71372 267.155
116.116 72921 270.039
116.234 73511 271.129
116.351 74359 272.688
116.469 73682 271.444
116.586 73802 271.665
116.704 73502 271.113
116.821 74319 272.615
116.939 71180 266.796
117.056 66768 258.395
117.174 60929 246.838
117.291 56526 237.752
117.409 53056 230.339
117.526 51802 227.601
117.644 54950 234.414
117.761 60363 245.689
117.879 65578 256.082
117.996 67690 260.173
118.114 72154 268.615
118.231 75026 273.909
118.349 76793 277.115
118.466 78418 280.032
118.584 81007 284.617
118.701 81367 285.249
118.819 81055 284.702
118.936 80225 283.24
119.053 79271 281.551
119.171 77488 278.367
119.288 76623 276.809
119.405 76995 277.48
119.523 80064 282.956
119.64 82134 286.59
119.757 84199 290.171
119.875 85651 292.662
119.992 86087 293.406
120.109 87115 295.153
120.226 86892 294.774
120.343 87507 295.816
120.46 88545 297.565
120.578 87773 296.265
120.695 83482 288.933
120.812 76756 277.049
120.929 70723 265.938
121.046 65403 255.74
121.163 61219 247.425
121.279 62248 249.495
121.396 67852 260.484
121.513 74708 273.328
121.63 80236 283.26
121.747 84245 290.25
121.863 86755 294.542
121.98 90904 301.503
122.097 92888 304.775
122.213 93931 306.482
122.33 95879 309.643
122.446 95431 308.919
122.563 95879 309.643
122.679 94141 306.824
122.795 91840 303.051
122.912 91581 302.624
123.028 89473 299.12
123.144 89516 299.192
123.26 90741 301.232
123.377 0 1
123.493 0 1
123.609 0 1
123.725 0 1
123.84 0 1
123.956 0 1
124.072 0 1
124.188 0 1
124.303 0 1
124.419 0 1
126.852 0 1
126.968 0 1
127.083 0 1
127.199 0 1
127.315 0 1
127.431 0 1
127.547 0 1
127.663 0 1
127.779 0 1
127.895 0 1
128.011 0 1
128.127 0 1
128.243 0 1
128.359 100429 316.905
128.476 99606 315.604
128.592 101732 318.955
128.708 103198 321.244
128.825 106291 326.023
128.941 108231 328.985
129.058 108304 329.096
129.174 108462 329.336
129.291 108198 328.935
129.408 107459 327.809
129.524 107010 327.124
129.641 106594 326.487
129.758 100787 317.47
129.875 93073 305.079
129.992 84411 290.536
130.108 77177 277.807
130.225 71177 266.79
130.342 70942 266.349
130.459 77176 277.806
130.576 82947 288.005
130.693 88808 298.007
130.81 92699 304.465
130.928 94600 307.571
131.045 96879 311.254
131.162 98269 313.479
131.279 98906 314.493
131.396 98851 314.406
131.513 98109 313.224
131.631 95816 309.542
131.748 93800 306.268
131.865 91345 302.233
131.983 91107 301.839
132.1 90571 300.95
132.217 92318 303.839
132.335 92827 304.675
132.452 93488 305.758
132.57 92503 304.143
132.687 89511 299.184
132.804 93761 306.204
132.922 89503 299.171
133.039 89113 298.518
133.157 88202 296.988
133.274 84750 291.119
133.392 78365 279.937
133.509 71122 266.687
133.627 64886 254.727
133.744 59180 243.269
133.862 56327 237.333
133.979 58294 241.442
134.097 63005 251.008
134.214 68105 260.969
134.332 68405 261.543
134.449 70764 266.015
134.567 70804 266.09
134.684 71470 267.339
134.802 71631 267.64
134.919 71033 266.52
135.037 69988 264.552
135.154 67010 258.863
135.272 65365 255.666
135.389 64407 253.785
135.507 62897 250.793
135.624 62830 250.659
135.742 62803 250.605
135.859 63410 251.813
135.977 63553 252.097
136.094 63126 251.249
136.211 62377 249.754
136.329 62243 249.485
136.446 61450 247.891
136.564 61129 247.243
136.681 60653 246.278
136.798 61423 247.837
136.915 59021 242.942
137.033 55134 234.806
137.15 50775 225.333
137.267 46535 215.72
137.384 43626 208.868
137.502 42327 205.735
137.619 44385 210.677
137.736 49604 222.72
137.853 52483 229.092
137.97 56343 237.367
138.087 58808 242.504
138.204 59942 244.831
138.321 61090 247.164
138.438 62590 250.18
138.555 63548 252.087
138.672 63464 251.921
138.788 62653 250.306
138.905 62299 249.598
139.022 62431 249.862
139.139 62806 250.611
139.255 64191 253.359
139.372 65878 256.667
139.488 66249 257.389
139.605 68423 261.578
139.721 68358 261.454
139.838 69310 263.268
139.954 69911 264.407
140.071 68871 262.433
140.187 71166 266.77
140.303 70482 265.484
140.419 70467 265.456
140.535 70172 264.9
140.652 66122 257.142
140.768 0 1
140.884 0 1
141 0 1
141.115 0 1
141.231 0 1
141.347 0 1
141.463 0 1
141.578 0 1
141.694 0 1
144.104 0 1
144.219 0 1
144.335 0 1
144.45 0 1
144.566 0 1
144.682 0 1
144.798 0 1
144.914 0 1
145.03 0 1
145.146 60195 245.347
145.262 61368 247.726
145.378 61040 247.063
145.494 61469 247.929
145.61 59397 243.715
145.726 57683 240.173
145.842 53595 231.506
145.959 49765 223.081
146.075 46177 214.888
146.192 43484 208.528
146.308 42458 206.053
146.425 44117 210.04
146.541 46589 215.845
146.658 48291 219.752
146.774 51002 225.836
146.891 52561 229.262
147.008 52817 229.819
147.125 52898 229.996
147.241 53354 230.985
147.358 52811 229.806
147.475 51266 226.42
147.592 49865 223.305
147.709 48878 221.084
147.826 48578 220.404
147.943 49335 222.115
148.06 48984 221.323
148.177 49655 222.834
148.294 49603 222.717
148.411 50087 223.801
148.528 49495 222.475
148.645 49136 221.666
148.762 48796 220.898
148.88 48425 220.057
148.997 50335 224.355
149.114 46024 214.532
149.231 47666 218.325
149.349 45677 213.722
149.466 43955 209.654
149.583 40716 201.782
149.701 38120 195.243
149.818 36456 190.935
149.935 35869 189.391
150.053 37590 193.881
150.17 39640 199.098
150.287 41793 204.433
150.405 43306 208.101
150.522 44821 211.71
150.64 46052 214.597
150.757 46664 216.019
150.875 46556 215.768
150.992 46181 214.898
151.11 46378 215.356
151.227 45819 214.054
151.344 44901 211.899
151.462 45587 213.511
151.579 45860 214.149
151.697 47675 218.346
151.814 48129 219.383
151.932 49474 222.428
152.049 49793 223.143
152.167 50007 223.622
152.284 50708 225.184
152.402 51095 226.042
152.519 50934 225.686
152.636 52102 228.259
152.754 52596 229.338
152.871 52597 229.34
152.989 50689 225.142
153.106 48311 219.798
153.223 44916 211.934
153.341 43369 208.252
153.458 41913 204.727
153.575 42530 206.228
153.693 44839 211.752
153.81 47933 218.936
153.927 50644 225.042
154.044 51980 227.991
154.162 54004 232.388
154.279 55919 236.472
154.396 57934 240.695
154.513 59131 243.169
154.63 59761 244.461
154.747 59463 243.85
154.864 59364 243.647
154.981 58716 242.314
155.098 59069 243.041
155.215 59808 244.557
155.332 61164 247.314
155.449 62929 250.857
155.566 63336 251.666
155.683 64346 253.665
155.8 65422 255.777
155.917 65515 255.959
156.033 65901 256.712
156.15 0 1
156.267 0 1
156.383 0 1
156.5 0 1
156.617 0 1
156.733 0 1
156.85 0 1
156.966 0 1
157.082 0 1
157.199 0 1
157.315 0 1
157.431 0 1
157.547 0 1
157.664 0 1
157.78 0 1
157.896 0 1
158.012 0 1
158.128 0 1
158.244 0 1
158.359 0 1
158.475 0 1
158.591 0 1
158.706 0 1
