
6.15755 0 1
6.2731 0 1
6.3887 0 1
6.50437 0 1
6.62009 0 1
6.73587 0 1
6.8517 0 1
6.96759 0 1
7.08353 0 1
7.19952 0 1
7.31557 0 1
7.43166 0 1
7.54781 0 1
7.664 0 1
7.78024 0 1
7.89653 0 1
8.01286 0 1
8.12924 0 1
8.24567 0 1
8.36213 0 1
8.47864 0 1
8.59519 0 1
8.71178 0 1
8.82841 0 1
8.94508 0 1
9.06179 0 1
9.17853 0 1
9.29531 0 1
9.41212 0 1
9.52897 0 1
9.64584 0 1
9.76276 0 1
9.8797 0 1
9.99667 0 1
10.1137 0 1
10.2307 0 1
10.3478 0 1
10.4648 0 1
10.5819 0 1
10.6991 0 1
10.8162 0 1
10.9334 0 1
11.0506 0 1
11.1678 0 1
11.285 0 1
11.4023 0 1
11.5196 0 1
11.6369 0 1
11.7542 0 1
11.8715 0 1
11.9888 0 1
12.1062 0 1
12.2235 0 1
12.3409 0 1
12.4582 0 1
12.5756 0 1
12.693 0 1
12.8104 0 1
12.9278 0 1
13.0452 0 1
13.1626 0 1
13.28 0 1
13.3974 0 1
13.5149 0 1
13.6323 0 1
13.7497 0 1
13.8671 0 1
13.9845 0 1
14.1019 0 1
14.2193 0 1
14.3367 0 1
14.4541 0 1
14.5714 0 1
14.6888 0 1
14.8062 0 1
14.9235 0 1
15.0408 953 30.8707
15.1581 1102 33.1964
15.2755 1104 33.2265
15.3927 1101 33.1813
15.51 1143 33.8083
15.6273 1082 32.8938
15.7445 1120 33.4664
15.8617 1107 33.2716
15.9789 1134 33.6749
16.0961 1143 33.8083
16.2132 1105 33.2415
16.3304 1153 33.9559
16.4475 1184 34.4093
16.5646 1258 35.4683
16.6816 1279 35.7631
16.7986 1343 36.647
16.9156 1338 36.5787
17.0326 1350 36.7423
17.1496 1403 37.4566
17.2665 1289 35.9026
17.3833 1306 36.1386
17.5002 1314 36.2491
17.617 1318 36.3043
17.7338 1183 34.3948
17.8505 1135 33.6898
17.9672 1117 33.4215
18.0839 1148 33.8821
18.2005 1207 34.7419
18.3171 1242 35.242
18.4337 1231 35.0856
18.5502 1295 35.9861
18.6666 1348 36.7151
18.7831 1325 36.4005
18.8994 1349 36.7287
19.0158 1286 35.8608
19.1321 1190 34.4964
19.2483 1195 34.5688
19.3645 1142 33.7935
19.4806 1035 32.1714
19.5967 957 30.9354
19.7128 926 30.4302
19.8288 830 28.8097
19.9447 783 27.9821
20.0606 0 1
20.1764 0 1
20.2922 0 1
20.4079 0 1
20.5236 0 1
20.6392 0 1
20.7548 0 1
20.8702 0 1
23.3078 0 1
23.4233 0 1
23.539 0 1
23.6547 0 1
23.7704 0 1
23.8862 0 1
24.0021 0 1
24.118 0 1
24.234 0 1
24.35 0 1
24.4661 554 23.5372
24.5822 625 25
24.6984 735 27.1109
24.8146 755 27.4773
24.9309 863 29.3769
25.0472 949 30.8058
25.1636 989 31.4484
25.28 1145 33.8378
25.3965 1162 34.0881
25.513 1315 36.2629
25.6296 1396 37.3631
25.7462 1446 38.0263
25.8628 1419 37.6696
25.9795 1480 38.4708
26.0962 1506 38.8072
26.213 1418 37.6563
26.3298 1343 36.647
26.4466 1321 36.3456
26.5635 1146 33.8526
26.6804 1193 34.5398
26.7973 1302 36.0832
26.9143 1235 35.1426
27.0313 1308 36.1663
27.1483 1337 36.565
27.2653 1361 36.8917
27.3824 1335 36.5377
27.4996 1366 36.9594
27.6167 1380 37.1484
27.7339 1319 36.318
27.8511 1308 36.1663
27.9683 1326 36.4143
28.0855 1248 35.327
28.2028 1214 34.8425
28.3201 1135 33.6898
28.4374 1139 33.7491
28.5547 1131 33.6303
28.6721 1129 33.6006
28.7894 1171 34.2199
28.9068 1287 35.8748
29.0242 1480 38.4708
29.1416 1358 36.8511
29.259 1324 36.3868
29.3764 1376 37.0945
29.4939 1380 37.1484
29.6113 1374 37.0675
29.7288 1227 35.0286
29.8463 1230 35.0714
29.9638 1166 34.1467
30.0812 1147 33.8674
30.1987 1124 33.5261
30.3162 1172 34.2345
30.4337 1223 34.9714
30.5512 1288 35.8887
30.6687 1231 35.0856
30.7862 1316 36.2767
30.9037 1289 35.9026
31.0212 1251 35.3695
31.1387 1372 37.0405
31.2562 1291 35.9305
31.3737 1172 34.2345
31.4912 1244 35.2704
31.6087 1232 35.0999
31.7262 1175 34.2783
31.8436 1198 34.6121
31.9611 1128 33.5857
32.0785 1121 33.4813
32.1959 1128 33.5857
32.3134 1178 34.322
32.4308 1217 34.8855
32.5482 1313 36.2353
32.6655 1301 36.0694
32.7829 1409 37.5366
32.9002 1324 36.3868
33.0176 1337 36.565
33.1349 1321 36.3456
33.2522 1373 37.054
33.3694 1270 35.6371
33.4867 1163 34.1028
33.6039 1154 33.9706
33.7211 1159 34.0441
33.8383 1101 33.1813
33.9554 1148 33.8821
34.0725 1084 32.9242
34.1896 1199 34.6266
34.3067 1192 34.5254
34.4237 1190 34.4964
34.5407 1246 35.2987
34.6577 1287 35.8748
34.7746 1270 35.6371
34.8915 1263 35.5387
35.0084 1229 35.0571
35.1252 1150 33.9116
35.242 1161 34.0735
35.3587 1185 34.4238
35.4755 1092 33.0454
35.5921 1056 32.4962
35.7088 1082 32.8938
35.8254 1094 33.0757
35.9419 1096 33.1059
36.0584 1149 33.8969
36.1749 1169 34.1906
36.2913 1191 34.5109
36.4077 1152 33.9411
36.524 1197 34.5977
36.6403 1102 33.1964
36.7565 1084 32.9242
36.8727 989 31.4484
36.9889 911 30.1828
37.1049 884 29.7321
37.221 0 1
37.3369 0 1
37.4529 0 1
37.5687 0 1
37.6845 0 1
37.8003 0 1
37.916 0 1
38.0316 0 1
38.1472 0 1
40.5851 0 1
40.7008 0 1
40.8164 0 1
40.9322 0 1
41.048 0 1
41.1639 0 1
41.2798 0 1
41.3958 0 1
41.5118 0 1
41.6279 0 1
41.744 598 24.454
41.8602 683 26.1343
41.9765 743 27.258
42.0928 788 28.0713
42.2091 702 26.4953
42.3255 803 28.3373
42.4419 756 27.4955
42.5584 711 26.6646
42.675 812 28.4956
42.7915 847 29.1033
42.9081 945 30.7409
43.0248 962 31.0161
43.1415 1012 31.8119
43.2582 979 31.289
43.375 1054 32.4654
43.4918 1086 32.9545
43.6087 1063 32.6037
43.7256 1027 32.0468
43.8425 1042 32.28
43.9595 1009 31.7648
44.0765 977 31.257
44.1935 945 30.7409
44.3106 927 30.4467
44.4277 876 29.5973
44.5448 806 28.3901
44.6619 808 28.4253
44.7791 894 29.8998
44.8963 955 30.9031
45.0136 1028 32.0624
45.1308 1028 32.0624
45.2481 1065 32.6343
45.3654 1041 32.2645
45.4827 1098 33.1361
45.6001 1036 32.187
45.7174 1036 32.187
45.8348 980 31.305
45.9522 865 29.4109
46.0697 861 29.3428
46.1871 798 28.2489
46.3046 895 29.9166
46.422 929 30.4795
46.5395 1007 31.7333
46.657 1033 32.1403
46.7745 1004 31.686
46.892 1048 32.3728
47.0096 1042 32.28
47.1271 1067 32.665
47.2446 1102 33.1964
47.3622 1100 33.1662
47.4797 1022 31.9687
47.5973 1041 32.2645
47.7149 1019 31.9218
47.8324 948 30.7896
47.95 955 30.9031
48.0675 893 29.8831
48.1851 859 29.3087
48.3027 863 29.3769
48.4202 938 30.6268
48.5378 1008 31.749
48.6554 1091 33.0303
48.7729 1043 32.2955
48.8904 1075 32.7872
49.008 1104 33.2265
49.1255 1055 32.4808
49.243 1035 32.1714
49.3605 949 30.8058
49.478 921 30.348
49.5955 870 29.4958
49.713 831 28.8271
49.8304 843 29.0345
49.9479 933 30.545
50.0653 957 30.9354
50.1827 1036 32.187
50.3001 1038 32.218
50.4175 1074 32.7719
50.5348 1068 32.6803
50.6521 1122 33.4963
50.7694 1146 33.8526
50.8867 1103 33.2114
51.004 1156 34
51.1212 1071 32.7261
51.2384 1136 33.7046
51.3556 1075 32.7872
51.4727 1075 32.7872
51.5899 975 31.225
51.707 1057 32.5115
51.824 1057 32.5115
51.9411 1146 33.8526
52.0581 1303 36.0971
52.175 1411 37.5633
52.2919 1430 37.8153
52.4088 1449 38.0657
52.5257 1427 37.7757
52.6425 1530 39.1152
52.7593 1491 38.6135
52.876 1532 39.1408
52.9927 1428 37.7889
53.1094 1462 38.2361
53.226 1330 36.4692
53.3426 1280 35.7771
53.4591 1214 34.8425
53.5756 1292 35.9444
53.692 1358 36.8511
53.8084 1323 36.3731
53.9248 1243 35.2562
54.0411 1136 33.7046
54.1573 1124 33.5261
54.2735 0 1
54.3896 0 1
54.5057 0 1
54.6217 0 1
54.7377 0 1
54.8537 0 1
54.9695 0 1
55.0853 0 1
55.2011 0 1
55.3168 0 1
55.4324 0 1
57.824 0 1
57.9396 0 1
58.0553 0 1
58.1711 0 1
58.2869 0 1
58.4028 0 1
58.5187 0 1
58.6347 0 1
58.7508 0 1
58.8669 0 1
58.983 798 28.2489
59.0992 988 31.4325
59.2155 1018 31.9061
59.3318 1090 33.0151
59.4482 1146 33.8526
59.5646 1108 33.2866
59.681 1201 34.6554
59.7975 1237 35.171
59.9141 1299 36.0416
60.0306 1209 34.7707
60.1473 1184 34.4093
60.2639 1137 33.7194
60.3807 1085 32.9393
60.4974 1127 33.5708
60.6142 1185 34.4238
60.731 1303 36.0971
60.8479 1342 36.6333
60.9648 1355 36.8103
61.0818 1315 36.2629
61.1987 1298 36.0278
61.3158 1315 36.2629
61.4328 1252 35.3836
61.5499 1228 35.0428
61.667 1161 34.0735
61.7841 1068 32.6803
61.9013 1027 32.0468
62.0185 1134 33.6749
62.1357 1122 33.4963
62.253 1193 34.5398
62.3702 1174 34.2637
62.4875 1276 35.7211
62.6049 1301 36.0694
62.7222 1264 35.5528
62.8396 1290 35.9166
62.9569 1325 36.4005
63.0743 1347 36.7015
63.1918 1313 36.2353
63.3092 1357 36.8375
63.4267 1277 35.7351
63.5441 1165 34.1321
63.6616 1152 33.9411
63.7791 1134 33.6749
63.8966 1086 32.9545
64.0142 1102 33.1964
64.1317 1146 33.8526
64.2492 1177 34.3074
64.3668 1304 36.1109
64.4843 1319 36.318
64.6019 1299 36.0416
64.7195 1367 36.973
64.837 1386 37.229
64.9546 1266 35.5809
65.0722 1229 35.0571
65.1898 1163 34.1028
65.3074 1059 32.5423
65.4249 1002 31.6544
65.5425 1036 32.187
65.6601 995 31.5436
65.7777 1090 33.0151
65.8952 1123 33.5112
66.0128 1175 34.2783
66.1304 1299 36.0416
66.2479 1301 36.0694
66.3655 1273 35.6791
66.483 1347 36.7015
66.6005 1316 36.2767
66.718 1280 35.7771
66.8355 1344 36.6606
66.953 1317 36.2905
67.0705 1249 35.3412
67.1879 1216 34.8712
67.3054 1132 33.6452
67.4228 1055 32.4808
67.5402 966 31.0805
67.6576 1042 32.28
67.7749 1078 32.8329
67.8923 1177 34.3074
68.0096 1181 34.3657
68.1269 1269 35.623
68.2442 1237 35.171
68.3614 1341 36.6197
68.4787 1276 35.7211
68.5958 1250 35.3553
68.713 1206 34.7275
68.8302 1160 34.0588
68.9473 1043 32.2955
69.0643 991 31.4802
69.1814 937 30.6105
69.2984 955 30.9031
69.4154 1055 32.4808
69.5323 1094 33.0757
69.6492 1093 33.0606
69.7661 1210 34.7851
69.8829 1221 34.9428
69.9997 1276 35.7211
70.1165 1174 34.2637
70.2332 1131 33.6303
70.3499 1148 33.8821
70.4665 1025 32.0156
70.5831 1058 32.5269
70.6996 989 31.4484
70.8161 872 29.5296
70.9326 802 28.3196
71.049 706 26.5707
71.1653 600 24.4949
71.2817 521 22.8254
71.3979 490 22.1359
71.5141 474 21.7715
71.6303 442 21.0238
71.7464 433 20.8087
71.8624 0 1
71.9784 0 1
72.0944 0 1
72.2102 0 1
72.3261 0 1
72.4418 0 1
72.5575 0 1
72.6732 0 1
75.1054 0 1
75.2209 0 1
75.3365 0 1
75.4521 0 1
75.5678 0 1
75.6835 0 1
75.7993 0 1
75.9151 0 1
76.031 0 1
76.147 734 27.0924
76.263 749 27.3679
76.3791 804 28.3549
76.4952 792 28.1425
76.6113 822 28.6705
76.7276 878 29.6311
76.8438 909 30.1496
76.9601 1023 31.9844
77.0765 1070 32.7109
77.1929 1144 33.8231
77.3093 1108 33.2866
77.4258 1121 33.4813
77.5423 1136 33.7046
77.6589 1099 33.1512
77.7755 993 31.5119
77.8921 913 30.2159
78.0088 855 29.2404
78.1256 840 28.9828
78.2423 798 28.2489
78.3591 822 28.6705
78.4759 960 30.9839
78.5928 959 30.9677
78.7097 996 31.5595
78.8266 1074 32.7719
78.9436 1119 33.4515
79.0606 1093 33.0606
79.1776 1178 34.322
79.2946 1149 33.8969
79.4117 1156 34
79.5288 1096 33.1059
79.6459 1110 33.3167
79.7631 1082 32.8938
79.8802 1024 32
79.9974 992 31.496
80.1147 972 31.1769
80.2319 880 29.6648
80.3491 890 29.8329
80.4664 956 30.9192
80.5837 1029 32.078
80.701 1085 32.9393
80.8183 1083 32.909
80.9357 1178 34.322
81.053 1152 33.9411
81.1704 1080 32.8634
81.2877 1128 33.5857
81.4051 1127 33.5708
81.5225 1080 32.8634
81.6399 981 31.3209
81.7573 881 29.6816
81.8747 836 28.9137
81.9922 807 28.4077
82.1096 915 30.249
82.227 982 31.3369
82.3444 1019 31.9218
82.4619 1052 32.4345
82.5793 1157 34.0147
82.6967 1095 33.0908
82.8142 1149 33.8969
82.9316 1196 34.5832
83.049 1186 34.4384
83.1664 1131 33.6303
83.2838 1105 33.2415
83.4012 1112 33.3467
83.5186 1069 32.6956
83.636 1066 32.6497
83.7534 944 30.7246
83.8708 924 30.3974
83.9881 918 30.2985
84.1055 919 30.315
84.2228 1003 31.6702
84.3401 1039 32.2335
84.4575 1075 32.7872
84.5747 1112 33.3467
84.692 1186 34.4384
84.8093 1213 34.8281
84.9265 1185 34.4238
85.0437 1137 33.7194
85.1609 1021 31.9531
85.2781 901 30.0167
85.3952 857 29.2746
85.5123 861 29.3428
85.6294 866 29.4279
85.7465 954 30.8869
85.8636 997 31.5753
85.9806 1066 32.6497
86.0976 1135 33.6898
86.2145 1132 33.6452
86.3315 1180 34.3511
86.4484 1139 33.7491
86.5652 1236 35.1568
86.682 1259 35.4824
86.7988 1175 34.2783
86.9156 1146 33.8526
87.0323 1174 34.2637
87.149 1116 33.4066
87.2657 966 31.0805
87.3823 903 30.05
87.4988 827 28.7576
87.6154 793 28.1603
87.7318 795 28.1957
87.8483 872 29.5296
87.9647 867 29.4449
88.081 901 30.0167
88.1973 898 29.9666
88.3136 834 28.8791
88.4298 829 28.7924
88.546 772 27.7849
88.6621 675 25.9808
88.7781 549 23.4307
88.8942 0 1
89.0101 0 1
89.126 0 1
89.2419 0 1
89.3577 0 1
89.4734 0 1
89.5891 0 1
89.7047 0 1
89.8203 0 1
89.9358 0 1
92.3269 0 1
92.4424 0 1
92.558 0 1
92.6736 0 1
92.7893 0 1
92.905 0 1
93.0208 0 1
93.1366 0 1
93.2525 0 1
93.3685 0 1
93.4845 0 1
93.6005 860 29.3258
93.7167 911 30.1828
93.8328 971 31.1609
93.949 986 31.4006
94.0653 1051 32.4191
94.1816 1080 32.8634
94.2979 1016 31.8748
94.4143 943 30.7083
94.5307 906 30.0998
94.6472 872 29.5296
94.7637 856 29.2575
94.8803 926 30.4302
94.9969 1047 32.3574
95.1135 1067 32.665
95.2302 1080 32.8634
95.3469 1120 33.4664
95.4637 1186 34.4384
95.5805 1210 34.7851
95.6973 1215 34.8569
95.8142 1221 34.9428
95.9311 1215 34.8569
96.048 1126 33.5559
96.1649 1206 34.7275
96.2819 1198 34.6121
96.3989 1117 33.4215
96.516 1059 32.5423
96.633 985 31.3847
96.7501 930 30.4959
96.8673 996 31.5595
96.9844 981 31.3209
97.1016 1105 33.2415
97.2188 1174 34.2637
97.336 1159 34.0441
97.4532 1178 34.322
97.5704 1226 35.0143
97.6877 1221 34.9428
97.805 1165 34.1321
97.9223 1128 33.5857
98.0396 1024 32
98.1569 967 31.0966
98.2743 882 29.6985
98.3916 845 29.0689
98.509 942 30.692
98.6264 1022 31.9687
98.7438 1123 33.5112
98.8612 1146 33.8526
98.9786 1144 33.8231
99.096 1196 34.5832
99.2134 1219 34.9142
99.3308 1259 35.4824
99.4482 1310 36.1939
99.5656 1289 35.9026
99.6831 1254 35.4119
99.8005 1217 34.8855
99.9179 1260 35.4965
100.035 1158 34.0294
100.153 1110 33.3167
100.27 986 31.4006
100.388 1041 32.2645
100.505 1020 31.9374
100.622 1097 33.121
100.74 1207 34.7419
100.857 1310 36.1939
100.975 1293 35.9583
101.092 1332 36.4966
101.209 1274 35.6931
101.327 1282 35.805
101.444 1275 35.7071
101.561 1116 33.4066
101.679 1024 32
101.796 977 31.257
101.913 965 31.0644
102.03 937 30.6105
102.148 993 31.5119
102.265 1137 33.7194
102.382 1179 34.3366
102.499 1228 35.0428
102.616 1279 35.7631
102.733 1313 36.2353
102.851 1340 36.606
102.968 1297 36.0139
103.085 1314 36.2491
103.202 1349 36.7287
103.319 1337 36.565
103.436 1343 36.647
103.552 1242 35.242
103.669 1180 34.3511
103.786 1068 32.6803
103.903 1063 32.6037
104.02 1099 33.1512
104.137 1173 34.2491
104.253 1242 35.242
104.37 1377 37.108
104.487 1362 36.9053
104.603 1351 36.756
104.72 1379 37.1349
104.836 1267 35.5949
104.953 1277 35.7351
105.069 1127 33.5708
105.186 949 30.8058
105.302 913 30.2159
105.418 881 29.6816
105.535 852 29.189
105.651 882 29.6985
105.767 874 29.5635
105.883 854 29.2233
105.999 842 29.0172
106.115 0 1
106.231 0 1
106.347 0 1
106.463 0 1
106.579 0 1
106.694 0 1
106.81 0 1
106.926 0 1
107.041 0 1
107.157 0 1
109.576 0 1
109.692 0 1
109.807 0 1
109.923 0 1
110.039 0 1
110.155 0 1
110.27 0 1
110.386 0 1
110.502 0 1
110.618 552 23.4947
110.735 673 25.9422
110.851 821 28.6531
110.967 955 30.9031
111.083 1058 32.5269
111.199 1095 33.0908
111.316 1142 33.7935
111.432 1227 35.0286
111.549 1256 35.4401
111.665 1258 35.4683
111.782 1227 35.0286
111.898 1201 34.6554
112.015 1190 34.4964
112.132 1198 34.6121
112.248 1051 32.4191
112.365 1054 32.4654
112.482 1026 32.0312
112.599 1104 33.2265
112.716 1180 34.3511
112.832 1218 34.8999
112.949 1175 34.2783
113.066 1304 36.1109
113.183 1378 37.1214
113.3 1276 35.7211
113.417 1252 35.3836
113.534 1248 35.327
113.652 1108 33.2866
113.769 1050 32.4037
113.886 967 31.0966
114.003 902 30.0333
114.12 924 30.3974
114.238 1065 32.6343
114.355 1092 33.0454
114.472 1156 34
114.589 1378 37.1214
114.707 1282 35.805
114.824 1235 35.1426
114.942 1315 36.2629
115.059 1274 35.6931
115.176 1315 36.2629
115.294 1322 36.3593
115.411 1310 36.1939
115.529 1274 35.6931
115.646 1217 34.8855
115.764 1174 34.2637
115.881 1152 33.9411
115.999 1120 33.4664
116.116 1131 33.6303
116.234 1097 33.121
116.351 1191 34.5109
116.469 1361 36.8917
116.586 1286 35.8608
116.704 1303 36.0971
116.821 1324 36.3868
116.939 1370 37.0135
117.056 1311 36.2077
117.174 1202 34.6699
117.291 1092 33.0454
117.409 986 31.4006
117.526 971 31.1609
117.644 953 30.8707
117.761 1037 32.2025
117.879 1100 33.1662
117.996 1139 33.7491
118.114 1235 35.1426
118.231 1247 35.3129
118.349 1194 34.5543
118.466 1265 35.5668
118.584 1270 35.6371
118.701 1218 34.8999
118.819 1234 35.1283
118.936 1285 35.8469
119.053 1203 34.6843
119.171 1146 33.8526
119.288 1182 34.3802
119.405 1086 32.9545
119.523 1034 32.1559
119.64 1032 32.1248
119.757 1040 32.249
119.875 1080 32.8634
119.992 1073 32.7567
120.109 1212 34.8138
120.226 1176 34.2929
120.343 1180 34.3511
120.46 1174 34.2637
120.578 1202 34.6699
120.695 1176 34.2929
120.812 1059 32.5423
120.929 1054 32.4654
121.046 904 30.0666
121.163 863 29.3769
121.279 860 29.3258
121.396 887 29.7825
121.513 937 30.6105
121.63 970 31.1448
121.747 963 31.0322
121.863 914 30.2324
121.98 988 31.4325
122.097 987 31.4166
122.213 949 30.8058
122.33 951 30.8383
122.446 911 30.1828
122.563 818 28.6007
122.679 807 28.4077
122.795 777 27.8747
122.912 712 26.6833
123.028 625 25
123.144 517 22.7376
123.26 458 21.4009
123.377 0 1
123.493 0 1
123.609 0 1
123.725 0 1
123.84 0 1
123.956 0 1
124.072 0 1
124.188 0 1
124.303 0 1
124.419 0 1
126.852 0 1
126.968 0 1
127.083 0 1
127.199 0 1
127.315 0 1
127.431 0 1
127.547 0 1
127.663 0 1
127.779 0 1
127.895 0 1
128.011 0 1
128.127 0 1
128.243 0 1
128.359 1040 32.249
128.476 1130 33.6155
128.592 1087 32.9697
128.708 1068 32.6803
128.825 1080 32.8634
128.941 1204 34.6987
129.058 1145 33.8378
129.174 1244 35.2704
129.291 1349 36.7287
129.408 1277 35.7351
129.524 1355 36.8103
129.641 1320 36.3318
129.758 1254 35.4119
129.875 1196 34.5832
129.992 1078 32.8329
130.108 1004 31.686
130.225 998 31.5911
130.342 962 31.0161
130.459 989 31.4484
130.576 1119 33.4515
130.693 1126 33.5559
130.81 1178 34.322
130.928 1237 35.171
131.045 1262 35.5246
131.162 1306 36.1386
131.279 1344 36.6606
131.396 1300 36.0555
131.513 1287 35.8748
131.631 1294 35.9722
131.748 1241 35.2278
131.865 1219 34.9142
131.983 1213 34.8281
132.1 1178 34.322
132.217 1090 33.0151
132.335 1095 33.0908
132.452 1192 34.5254
132.57 1151 33.9264
132.687 1247 35.3129
132.804 1287 35.8748
132.922 1308 36.1663
133.039 1337 36.565
133.157 1307 36.1525
133.274 1248 35.327
133.392 1289 35.9026
133.509 1145 33.8378
133.627 1169 34.1906
133.744 1017 31.8904
133.862 970 31.1448
133.979 963 31.0322
134.097 1106 33.2566
134.214 1188 34.4674
134.332 1132 33.6452
134.449 1273 35.6791
134.567 1295 35.9861
134.684 1295 35.9861
134.802 1338 36.5787
134.919 1292 35.9444
135.037 1368 36.9865
135.154 1291 35.9305
135.272 1196 34.5832
135.389 1284 35.8329
135.507 1188 34.4674
135.624 1195 34.5688
135.742 1088 32.9848
135.859 1118 33.4365
135.977 1133 33.6601
136.094 1216 34.8712
136.211 1274 35.6931
136.329 1291 35.9305
136.446 1325 36.4005
136.564 1330 36.4692
136.681 1261 35.5106
136.798 1334 36.524
136.915 1334 36.524
137.033 1236 35.1568
137.15 1228 35.0428
137.267 1086 32.9545
137.384 1029 32.078
137.502 963 31.0322
137.619 980 31.305
137.736 1076 32.8024
137.853 1148 33.8821
137.97 1147 33.8674
138.087 1222 34.9571
138.204 1252 35.3836
138.321 1245 35.2846
138.438 1303 36.0971
138.555 1251 35.3695
138.672 1316 36.2767
138.788 1202 34.6699
138.905 1144 33.8231
139.022 1137 33.7194
139.139 1110 33.3167
139.255 1028 32.0624
139.372 940 30.6594
139.488 905 30.0832
139.605 916 30.2655
139.721 809 28.4429
139.838 867 29.4449
139.954 880 29.6648
140.071 890 29.8329
140.187 756 27.4955
140.303 705 26.5518
140.419 685 26.1725
140.535 636 25.219
140.652 573 23.9374
140.768 0 1
140.884 0 1
141 0 1
141.115 0 1
141.231 0 1
141.347 0 1
141.463 0 1
141.578 0 1
141.694 0 1
144.104 0 1
144.219 0 1
144.335 0 1
144.45 0 1
144.566 0 1
144.682 0 1
144.798 0 1
144.914 0 1
145.03 0 1
145.146 909 30.1496
145.262 976 31.241
145.378 986 31.4006
145.494 1020 31.9374
145.61 1097 33.121
145.726 1100 33.1662
145.842 945 30.7409
145.959 919 30.315
146.075 808 28.4253
146.192 878 29.6311
146.308 800 28.2843
146.425 830 28.8097
146.541 883 29.7153
146.658 925 30.4138
146.774 891 29.8496
146.891 895 29.9166
147.008 1042 32.28
147.125 985 31.3847
147.241 1026 32.0312
147.358 1005 31.7017
147.475 1004 31.686
147.592 1006 31.7175
147.709 950 30.8221
147.826 940 30.6594
147.943 937 30.6105
148.06 921 30.348
148.177 843 29.0345
148.294 912 30.1993
148.411 941 30.6757
148.528 924 30.3974
148.645 945 30.7409
148.762 985 31.3847
148.88 978 31.273
148.997 1067 32.665
149.114 968 31.1127
149.231 995 31.5436
149.349 1023 31.9844
149.466 1038 32.218
149.583 937 30.6105
149.701 843 29.0345
149.818 811 28.4781
149.935 804 28.3549
150.053 846 29.0861
150.17 844 29.0517
150.287 870 29.4958
150.405 903 30.05
150.522 959 30.9677
150.64 922 30.3645
150.757 964 31.0483
150.875 944 30.7246
150.992 963 31.0322
151.11 953 30.8707
151.227 998 31.5911
151.344 942 30.692
151.462 930 30.4959
151.579 899 29.9833
151.697 882 29.6985
151.814 842 29.0172
151.932 889 29.8161
152.049 888 29.7993
152.167 871 29.5127
152.284 877 29.6142
152.402 923 30.3809
152.519 960 30.9839
152.636 997 31.5753
152.754 927 30.4467
152.871 979 31.289
152.989 979 31.289
153.106 910 30.1662
153.223 908 30.133
153.341 847 29.1033
153.458 778 27.8927
153.575 751 27.4044
153.693 811 28.4781
153.81 804 28.3549
153.927 820 28.6356
154.044 884 29.7321
154.162 842 29.0172
154.279 856 29.2575
154.396 939 30.6431
154.513 865 29.4109
154.63 897 29.95
154.747 887 29.7825
154.864 911 30.1828
154.981 865 29.4109
155.098 838 28.9482
155.215 829 28.7924
155.332 795 28.1957
155.449 763 27.6225
155.566 799 28.2666
155.683 837 28.931
155.8 820 28.6356
155.917 853 29.2062
156.033 803 28.3373
156.15 0 1
156.267 0 1
156.383 0 1
156.5 0 1
156.617 0 1
156.733 0 1
156.85 0 1
156.966 0 1
157.082 0 1
157.199 0 1
157.315 0 1
157.431 0 1
157.547 0 1
157.664 0 1
157.78 0 1
157.896 0 1
158.012 0 1
158.128 0 1
158.244 0 1
158.359 0 1
158.475 0 1
158.591 0 1
158.706 0 1
