
6.15755 0 1
6.2731 0 1
6.3887 0 1
6.50437 0 1
6.62009 0 1
6.73587 0 1
6.8517 0 1
6.96759 0 1
7.08353 0 1
7.19952 0 1
7.31557 0 1
7.43166 0 1
7.54781 0 1
7.664 0 1
7.78024 0 1
7.89653 0 1
8.01286 0 1
8.12924 0 1
8.24567 0 1
8.36213 0 1
8.47864 0 1
8.59519 0 1
8.71178 0 1
8.82841 0 1
8.94508 0 1
9.06179 0 1
9.17853 0 1
9.29531 0 1
9.41212 0 1
9.52897 0 1
9.64584 0 1
9.76276 0 1
9.8797 0 1
9.99667 0 1
10.1137 0 1
10.2307 0 1
10.3478 0 1
10.4648 0 1
10.5819 0 1
10.6991 0 1
10.8162 0 1
10.9334 0 1
11.0506 0 1
11.1678 0 1
11.285 0 1
11.4023 0 1
11.5196 0 1
11.6369 0 1
11.7542 0 1
11.8715 0 1
11.9888 0 1
12.1062 0 1
12.2235 0 1
12.3409 0 1
12.4582 0 1
12.5756 0 1
12.693 0 1
12.8104 0 1
12.9278 0 1
13.0452 0 1
13.1626 0 1
13.28 0 1
13.3974 0 1
13.5149 0 1
13.6323 0 1
13.7497 0 1
13.8671 0 1
13.9845 0 1
14.1019 0 1
14.2193 0 1
14.3367 0 1
14.4541 0 1
14.5714 0 1
14.6888 0 1
14.8062 0 1
14.9235 0 1
15.0408 4478 66.9179
15.1581 4747 68.8985
15.2755 4745 68.884
15.3927 4851 69.6491
15.51 4898 69.9857
15.6273 4643 68.1396
15.7445 4852 69.6563
15.8617 4902 70.0143
15.9789 4963 70.4486
16.0961 4831 69.5054
16.2132 4946 70.3278
16.3304 5171 71.9097
16.4475 5413 73.5731
16.5646 5476 74
16.6816 5590 74.7663
16.7986 5701 75.505
16.9156 5963 77.2205
17.0326 6192 78.6893
17.1496 6359 79.7433
17.2665 6319 79.4921
17.3833 6315 79.467
17.5002 6502 80.635
17.617 6405 80.0312
17.7338 6295 79.341
17.8505 6186 78.6511
17.9672 5928 76.9935
18.0839 5906 76.8505
18.2005 6012 77.5371
18.3171 6254 79.0822
18.4337 6459 80.3679
18.5502 6655 81.5782
18.6666 6822 82.5954
18.7831 6857 82.807
18.8994 6783 82.359
19.0158 6789 82.3954
19.1321 6688 81.7802
19.2483 6203 78.7591
19.3645 6388 79.925
19.4806 6351 79.6932
19.5967 6161 78.492
19.7128 6037 77.6981
19.8288 5881 76.6877
19.9447 5303 72.8217
20.0606 0 1
20.1764 0 1
20.2922 0 1
20.4079 0 1
20.5236 0 1
20.6392 0 1
20.7548 0 1
20.8702 0 1
23.3078 0 1
23.4233 0 1
23.539 0 1
23.6547 0 1
23.7704 0 1
23.8862 0 1
24.0021 0 1
24.118 0 1
24.234 0 1
24.35 0 1
24.4661 6393 79.9562
24.5822 6415 80.0937
24.6984 6305 79.404
24.8146 6301 79.3788
24.9309 6116 78.2049
25.0472 6230 78.9303
25.1636 6386 79.9125
25.28 6351 79.6932
25.3965 6658 81.5966
25.513 6826 82.6196
25.6296 7163 84.6345
25.7462 7299 85.4342
25.8628 7198 84.841
25.9795 7364 85.8138
26.0962 7232 85.0412
26.213 7269 85.2584
26.3298 6941 83.3127
26.4466 6664 81.6333
26.5635 6431 80.1935
26.6804 6286 79.2843
26.7973 6389 79.9312
26.9143 6619 81.3572
27.0313 6865 82.8553
27.1483 7188 84.7821
27.2653 7113 84.3386
27.3824 7237 85.0706
27.4996 7176 84.7113
27.6167 6954 83.3906
27.7339 6842 82.7164
27.8511 6623 81.3818
27.9683 6567 81.037
28.0855 6529 80.8022
28.2028 6520 80.7465
28.3201 6306 79.4103
28.4374 6217 78.848
28.5547 6323 79.5173
28.6721 6209 78.7972
28.7894 6343 79.643
28.9068 6554 80.9568
29.0242 6592 81.1911
29.1416 6801 82.4682
29.259 6898 83.0542
29.3764 7083 84.1606
29.4939 7088 84.1903
29.6113 7090 84.2021
29.7288 7089 84.1962
29.8463 6836 82.6801
29.9638 6353 79.7057
30.0812 6190 78.6766
30.1987 5954 77.1622
30.3162 6194 78.702
30.4337 6223 78.886
30.5512 6651 81.5537
30.6687 6613 81.3204
30.7862 6840 82.7043
30.9037 6870 82.8855
31.0212 6844 82.7285
31.1387 6781 82.3468
31.2562 6790 82.4015
31.3737 6603 81.2588
31.4912 6573 81.074
31.6087 6463 80.3928
31.7262 6465 80.4052
31.8436 6302 79.3851
31.9611 6150 78.4219
32.0785 6151 78.4283
32.1959 6087 78.0192
32.3134 6302 79.3851
32.4308 6393 79.9562
32.5482 6607 81.2835
32.6655 6726 82.0122
32.7829 6798 82.45
32.9002 6862 82.8372
33.0176 6875 82.9156
33.1349 6946 83.3427
33.2522 7044 83.9285
33.3694 6691 81.7985
33.4867 6516 80.7217
33.6039 6125 78.2624
33.7211 5922 76.9545
33.8383 5597 74.8131
33.9554 5619 74.96
34.0725 5857 76.531
34.1896 6173 78.5684
34.3067 6288 79.2969
34.4237 6374 79.8373
34.5407 6544 80.895
34.6577 6672 81.6823
34.7746 6471 80.4425
34.8915 6477 80.4798
35.0084 6383 79.8937
35.1252 6267 79.1644
35.242 6139 78.3518
35.3587 6198 78.7274
35.4755 5988 77.3822
35.5921 5839 76.4133
35.7088 5859 76.5441
35.8254 5777 76.0066
35.9419 5819 76.2824
36.0584 5988 77.3822
36.1749 6099 78.0961
36.2913 6276 79.2212
36.4077 6260 79.1202
36.524 6685 81.7618
36.6403 6617 81.3449
36.7565 6737 82.0792
36.8727 6610 81.3019
36.9889 6468 80.4239
37.1049 6246 79.0316
37.221 0 1
37.3369 0 1
37.4529 0 1
37.5687 0 1
37.6845 0 1
37.8003 0 1
37.916 0 1
38.0316 0 1
38.1472 0 1
40.5851 0 1
40.7008 0 1
40.8164 0 1
40.9322 0 1
41.048 0 1
41.1639 0 1
41.2798 0 1
41.3958 0 1
41.5118 0 1
41.6279 0 1
41.744 5062 71.1477
41.8602 5525 74.3303
41.9765 5512 74.2428
42.0928 5544 74.458
42.2091 5419 73.6139
42.3255 5337 73.0548
42.4419 4868 69.7711
42.5584 4532 67.3201
42.675 4350 65.9545
42.7915 4317 65.7039
42.9081 4599 67.8159
43.0248 4793 69.2315
43.1415 4868 69.7711
43.2582 5028 70.9084
43.375 5171 71.9097
43.4918 5164 71.861
43.6087 5159 71.8262
43.7256 5068 71.1899
43.8425 4918 70.1285
43.9595 4960 70.4273
44.0765 4835 69.5342
44.1935 4772 69.0797
44.3106 4595 67.7864
44.4277 4462 66.7982
44.5448 4426 66.5282
44.6619 4146 64.3894
44.7791 4175 64.6142
44.8963 4242 65.1306
45.0136 4309 65.643
45.1308 4342 65.8939
45.2481 4450 66.7083
45.3654 4548 67.4389
45.4827 4406 66.3777
45.6001 4440 66.6333
45.7174 4294 65.5286
45.8348 4185 64.6916
45.9522 4014 63.3561
46.0697 3651 60.4235
46.1871 3339 57.7841
46.3046 3315 57.576
46.422 3390 58.2237
46.5395 3650 60.4152
46.657 3661 60.5062
46.7745 3932 62.7057
46.892 3884 62.3217
47.0096 3969 63
47.1271 3991 63.1744
47.2446 3990 63.1664
47.3622 3930 62.6897
47.4797 3944 62.8013
47.5973 3892 62.3859
47.7149 3687 60.7207
47.8324 3634 60.2827
47.95 3562 59.6825
48.0675 3452 58.7537
48.1851 3281 57.28
48.3027 3256 57.0614
48.4202 3428 58.5491
48.5378 3398 58.2924
48.6554 3490 59.0762
48.7729 3611 60.0916
48.8904 3771 61.4085
49.008 3713 60.9344
49.1255 3707 60.8851
49.243 3819 61.7981
49.3605 3421 58.4893
49.478 3289 57.3498
49.5955 2930 54.1295
49.713 2898 53.8331
49.8304 2791 52.8299
49.9479 2869 53.563
50.0653 3298 57.4282
50.1827 3419 58.4722
50.3001 3568 59.7327
50.4175 3695 60.7865
50.5348 3707 60.8851
50.6521 3916 62.578
50.7694 3882 62.3057
50.8867 4009 63.3167
51.004 4054 63.671
51.1212 4104 64.0625
51.2384 4142 64.3584
51.3556 4130 64.2651
51.4727 4124 64.2184
51.5899 4058 63.7024
51.707 4062 63.7338
51.824 3914 62.562
51.9411 4049 63.6318
52.0581 4218 64.9461
52.175 4588 67.7348
52.2919 4729 68.7677
52.4088 4709 68.6222
52.5257 4894 69.9571
52.6425 4845 69.606
52.7593 5023 70.8731
52.876 4679 68.4032
52.9927 4620 67.9706
53.1094 4235 65.0769
53.226 4069 63.7887
53.3426 3841 61.9758
53.4591 3775 61.441
53.5756 4044 63.5925
53.692 4354 65.9848
53.8084 4637 68.0955
53.9248 4788 69.1954
54.0411 5086 71.3162
54.1573 5075 71.239
54.2735 0 1
54.3896 0 1
54.5057 0 1
54.6217 0 1
54.7377 0 1
54.8537 0 1
54.9695 0 1
55.0853 0 1
55.2011 0 1
55.3168 0 1
55.4324 0 1
57.824 0 1
57.9396 0 1
58.0553 0 1
58.1711 0 1
58.2869 0 1
58.4028 0 1
58.5187 0 1
58.6347 0 1
58.7508 0 1
58.8669 0 1
58.983 5326 72.9794
59.0992 5847 76.4657
59.2155 6046 77.756
59.3318 6151 78.4283
59.4482 6268 79.1707
59.5646 6479 80.4922
59.681 6455 80.343
59.7975 6581 81.1234
59.9141 6397 79.9812
60.0306 6218 78.8543
60.1473 6019 77.5822
60.2639 5967 77.2464
60.3807 5807 76.2037
60.4974 5537 74.411
60.6142 5617 74.9466
60.731 5582 74.7128
60.8479 5682 75.379
60.9648 6006 77.4984
61.0818 6147 78.4028
61.1987 6117 78.2113
61.3158 6023 77.608
61.4328 5999 77.4532
61.5499 5680 75.3658
61.667 5528 74.3505
61.7841 4994 70.6682
61.9013 4776 69.1086
62.0185 4499 67.0746
62.1357 4731 68.7823
62.253 4981 70.5762
62.3702 5203 72.1318
62.4875 5692 75.4453
62.6049 5860 76.5506
62.7222 5952 77.1492
62.8396 6123 78.2496
62.9569 6041 77.7239
63.0743 6271 79.1896
63.1918 6343 79.643
63.3092 6114 78.1921
63.4267 6125 78.2624
63.5441 5906 76.8505
63.6616 5908 76.8635
63.7791 5552 74.5117
63.8966 5331 73.0137
64.0142 5143 71.7147
64.1317 5160 71.8331
64.2492 5327 72.9863
64.3668 5512 74.2428
64.4843 5664 75.2596
64.6019 5853 76.5049
64.7195 5785 76.0592
64.837 5886 76.7203
64.9546 5742 75.776
65.0722 5586 74.7395
65.1898 5208 72.1665
65.3074 4837 69.5485
65.4249 4487 66.9851
65.5425 4328 65.7875
65.6601 4298 65.5591
65.7777 4352 65.9697
65.8952 4826 69.4694
66.0128 5052 71.0774
66.1304 5372 73.2939
66.2479 5607 74.8799
66.3655 5725 75.6637
66.483 5956 77.1751
66.6005 5752 75.8419
66.718 5965 77.2334
66.8355 5924 76.9675
66.953 6062 77.8588
67.0705 5894 76.7724
67.1879 5821 76.2955
67.3054 5705 75.5315
67.4228 5344 73.1027
67.5402 5155 71.7983
67.6576 5099 71.4073
67.7749 4982 70.5833
67.8923 5141 71.7008
68.0096 5474 73.9865
68.1269 5697 75.4785
68.2442 5931 77.013
68.3614 5881 76.6877
68.4787 5845 76.4526
68.5958 6007 77.5048
68.713 5746 75.8024
68.8302 5337 73.0548
68.9473 5087 71.3232
69.0643 4665 68.3008
69.1814 4454 66.7383
69.2984 4421 66.4906
69.4154 4530 67.3053
69.5323 4886 69.8999
69.6492 5239 72.3809
69.7661 5757 75.8749
69.8829 5760 75.8947
69.9997 6053 77.801
70.1165 6175 78.5812
70.2332 6367 79.7935
70.3499 6422 80.1374
70.4665 6524 80.7713
70.5831 6452 80.3243
70.6996 6245 79.0253
70.8161 6405 80.0312
70.9326 5972 77.2787
71.049 5742 75.776
71.1653 5458 73.8783
71.2817 5174 71.9305
71.3979 5012 70.7955
71.5141 4838 69.5557
71.6303 5039 70.9859
71.7464 5098 71.4003
71.8624 0 1
71.9784 0 1
72.0944 0 1
72.2102 0 1
72.3261 0 1
72.4418 0 1
72.5575 0 1
72.6732 0 1
75.1054 0 1
75.2209 0 1
75.3365 0 1
75.4521 0 1
75.5678 0 1
75.6835 0 1
75.7993 0 1
75.9151 0 1
76.031 0 1
76.147 5422 73.6342
76.263 5717 75.6108
76.3791 5447 73.8038
76.4952 4946 70.3278
76.6113 5092 71.3583
76.7276 5413 73.5731
76.8438 5755 75.8617
76.9601 6083 77.9936
77.0765 6202 78.7528
77.1929 6257 79.1012
77.3093 6392 79.95
77.4258 6153 78.4411
77.5423 6051 77.7882
77.6589 5387 73.3962
77.7755 4972 70.5124
77.8921 4624 68
78.0088 4466 66.8281
78.1256 4427 66.5357
78.2423 4376 66.1513
78.3591 4766 69.0362
78.4759 5149 71.7565
78.5928 5446 73.797
78.7097 5774 75.9868
78.8266 5823 76.3086
78.9436 6365 79.781
79.0606 6316 79.4733
79.1776 6355 79.7183
79.2946 6343 79.643
79.4117 6505 80.6536
79.5288 6445 80.2808
79.6459 6312 79.4481
79.7631 6061 77.8524
79.8802 5982 77.3434
79.9974 5527 74.3438
80.1147 5017 70.8308
80.2319 5128 71.6101
80.3491 5277 72.643
80.4664 5688 75.4188
80.5837 5889 76.7398
80.701 6090 78.0385
80.8183 6079 77.9679
80.9357 6080 77.9744
81.053 6106 78.1409
81.1704 6043 77.7367
81.2877 5570 74.6324
81.4051 4972 70.5124
81.5225 4613 67.9191
81.6399 4212 64.8999
81.7573 4220 64.9615
81.8747 4175 64.6142
81.9922 4674 68.3667
82.1096 5232 72.3326
82.227 5506 74.2024
82.3444 5644 75.1266
82.4619 5976 77.3046
82.5793 6215 78.8353
82.6967 6276 79.2212
82.8142 6346 79.6618
82.9316 6479 80.4922
83.049 6337 79.6053
83.1664 6269 79.177
83.2838 6176 78.5875
83.4012 6190 78.6766
83.5186 5747 75.809
83.636 5529 74.3572
83.7534 5039 70.9859
83.8708 5149 71.7565
83.9881 5288 72.7186
84.1055 5694 75.4586
84.2228 6001 77.4661
84.3401 6262 79.1328
84.4575 6166 78.5239
84.5747 6211 78.8099
84.692 6152 78.4347
84.8093 5797 76.138
84.9265 5263 72.5465
85.0437 4739 68.8404
85.1609 4604 67.8528
85.2781 4382 66.1967
85.3952 4320 65.7267
85.5123 4629 68.0368
85.6294 5066 71.1758
85.7465 5455 73.858
85.8636 5723 75.6505
85.9806 5940 77.0714
86.0976 6179 78.6066
86.2145 6659 81.6027
86.3315 6487 80.5419
86.4484 6913 83.1445
86.5652 6805 82.4924
86.682 6914 83.1505
86.7988 6741 82.1036
86.9156 6560 80.9938
87.0323 6313 79.4544
87.149 6065 77.8781
87.2657 5691 75.4387
87.3823 5499 74.1552
87.4988 5585 74.7329
87.6154 5900 76.8115
87.7318 6344 79.6492
87.8483 6526 80.7837
87.9647 6580 81.1172
88.081 6553 80.9506
88.1973 6532 80.8208
88.3136 6239 78.9873
88.4298 5868 76.6029
88.546 5320 72.9383
88.6621 4767 69.0435
88.7781 4635 68.0808
88.8942 0 1
89.0101 0 1
89.126 0 1
89.2419 0 1
89.3577 0 1
89.4734 0 1
89.5891 0 1
89.7047 0 1
89.8203 0 1
89.9358 0 1
92.3269 0 1
92.4424 0 1
92.558 0 1
92.6736 0 1
92.7893 0 1
92.905 0 1
93.0208 0 1
93.1366 0 1
93.2525 0 1
93.3685 0 1
93.4845 0 1
93.6005 5559 74.5587
93.7167 5312 72.8835
93.8328 4944 70.3136
93.949 4720 68.7023
94.0653 4656 68.2349
94.1816 4654 68.2202
94.2979 4844 69.5989
94.4143 5130 71.624
94.5307 5525 74.3303
94.6472 5776 76
94.7637 6026 77.6273
94.8803 6164 78.5111
94.9969 6376 79.8499
95.1135 6421 80.1311
95.2302 6578 81.1049
95.3469 6513 80.7032
95.4637 6710 81.9146
95.5805 6594 81.2034
95.6973 6759 82.2131
95.8142 6795 82.4318
95.9311 6438 80.2371
96.048 6230 78.9303
96.1649 5944 77.0973
96.2819 5549 74.4916
96.3989 5412 73.5663
96.516 5825 76.3217
96.633 6187 78.6575
96.7501 6343 79.643
96.8673 6458 80.3617
96.9844 6580 81.1172
97.1016 6437 80.2309
97.2188 6214 78.8289
97.336 5976 77.3046
97.4532 5610 74.8999
97.5704 5094 71.3723
97.6877 4743 68.8694
97.805 4632 68.0588
97.9223 4463 66.8057
98.0396 4554 67.4833
98.1569 5182 71.9861
98.2743 5522 74.3102
98.3916 5727 75.6769
98.509 5924 76.9675
98.6264 6222 78.8797
98.7438 6239 78.9873
98.8612 6450 80.3119
98.9786 6584 81.1419
99.096 6764 82.2435
99.2134 6650 81.5475
99.3308 6601 81.2465
99.4482 6561 81
99.5656 6278 79.2338
99.6831 6011 77.5306
99.8005 5802 76.1709
99.9179 5541 74.4379
100.035 5483 74.0473
100.153 5748 75.8156
100.27 6291 79.3158
100.388 6262 79.1328
100.505 6384 79.8999
100.622 6412 80.075
100.74 6351 79.6932
100.857 6094 78.0641
100.975 5848 76.4722
101.092 5301 72.808
101.209 5119 71.5472
101.327 4852 69.6563
101.444 4562 67.5426
101.561 4591 67.7569
101.679 4838 69.5557
101.796 5217 72.2288
101.913 5745 75.7958
102.03 5958 77.1881
102.148 6270 79.1833
102.265 6026 77.6273
102.382 7188 84.7821
102.499 6755 82.1888
102.616 6896 83.0422
102.733 6804 82.4864
102.851 6962 83.4386
102.968 7044 83.9285
103.085 6962 83.4386
103.202 6723 81.9939
103.319 6414 80.0875
103.436 6002 77.4726
103.552 6011 77.5306
103.669 6237 78.9747
103.786 6703 81.8719
103.903 6946 83.3427
104.02 6858 82.813
104.137 7094 84.2259
104.253 6840 82.7043
104.37 6676 81.7068
104.487 6439 80.2434
104.603 5673 75.3193
104.72 5434 73.7157
104.836 5278 72.6498
104.953 5047 71.0422
105.069 5149 71.7565
105.186 5287 72.7118
105.302 5828 76.3413
105.418 6305 79.404
105.535 6436 80.2247
105.651 6755 82.1888
105.767 6994 83.6301
105.883 7240 85.0882
105.999 7254 85.1704
106.115 0 1
106.231 0 1
106.347 0 1
106.463 0 1
106.579 0 1
106.694 0 1
106.81 0 1
106.926 0 1
107.041 0 1
107.157 0 1
109.576 0 1
109.692 0 1
109.807 0 1
109.923 0 1
110.039 0 1
110.155 0 1
110.27 0 1
110.386 0 1
110.502 0 1
110.618 5753 75.8485
110.735 6096 78.0769
110.851 6316 79.4733
110.967 6208 78.7909
111.083 6195 78.7083
111.199 6271 79.1896
111.316 6425 80.1561
111.432 6239 78.9873
111.549 6411 80.0687
111.665 6213 78.8226
111.782 5854 76.5114
111.898 5545 74.4648
112.015 5192 72.0555
112.132 5382 73.3621
112.248 5694 75.4586
112.365 5923 76.961
112.482 6199 78.7337
112.599 5846 76.4591
112.716 5812 76.2365
112.832 5692 75.4453
112.949 5204 72.1388
113.066 4943 70.3065
113.183 4594 67.7791
113.3 4420 66.4831
113.417 4243 65.1383
113.534 4016 63.3719
113.652 3991 63.1744
113.769 4321 65.7343
113.886 4429 66.5507
114.003 4699 68.5493
114.12 4908 70.0571
114.238 4928 70.1997
114.355 5005 70.746
114.472 5175 71.9375
114.589 4978 70.5549
114.707 5243 72.4086
114.824 5192 72.0555
114.942 5075 71.239
115.059 5188 72.0278
115.176 4913 70.0928
115.294 4708 68.6149
115.411 4406 66.3777
115.529 4169 64.5678
115.646 4170 64.5755
115.764 4415 66.4455
115.881 4438 66.6183
115.999 4496 67.0522
116.116 4429 66.5507
116.234 4519 67.2235
116.351 4304 65.6049
116.469 4052 63.6553
116.586 3900 62.45
116.704 3674 60.6135
116.821 3366 58.0172
116.939 3310 57.5326
117.056 3141 56.0446
117.174 3112 55.7853
117.291 3226 56.7979
117.409 3455 58.7792
117.526 3728 61.0574
117.644 3678 60.6465
117.761 3869 62.2013
117.879 4043 63.5846
117.996 4236 65.0846
118.114 4068 63.7809
118.231 4221 64.9692
118.349 4245 65.1537
118.466 4082 63.8905
118.584 4258 65.2534
118.701 4200 64.8074
118.819 4196 64.7765
118.936 4051 63.6475
119.053 3808 61.709
119.171 3706 60.8769
119.288 3838 61.9516
119.405 3981 63.0952
119.523 4154 64.4515
119.64 4253 65.215
119.757 4194 64.7611
119.875 4144 64.3739
119.992 4228 65.0231
120.109 4212 64.8999
120.226 3942 62.7853
120.343 3646 60.3821
120.46 3661 60.5062
120.578 3487 59.0508
120.695 3428 58.5491
120.812 3385 58.1808
120.929 3449 58.7282
121.046 3581 59.8415
121.163 3962 62.9444
121.279 4017 63.3798
121.396 4103 64.0547
121.513 4404 66.3626
121.63 4560 67.5278
121.747 4685 68.4471
121.863 4554 67.4833
121.98 4865 69.7496
122.097 4904 70.0286
122.213 4876 69.8284
122.33 4999 70.7036
122.446 4914 70.0999
122.563 4847 69.6204
122.679 4841 69.5773
122.795 4628 68.0294
122.912 4464 66.8132
123.028 4645 68.1542
123.144 4704 68.5857
123.26 4949 70.3491
123.377 0 1
123.493 0 1
123.609 0 1
123.725 0 1
123.84 0 1
123.956 0 1
124.072 0 1
124.188 0 1
124.303 0 1
124.419 0 1
126.852 0 1
126.968 0 1
127.083 0 1
127.199 0 1
127.315 0 1
127.431 0 1
127.547 0 1
127.663 0 1
127.779 0 1
127.895 0 1
128.011 0 1
128.127 0 1
128.243 0 1
128.359 5337 73.0548
128.476 5623 74.9867
128.592 5865 76.5833
128.708 5933 77.026
128.825 5881 76.6877
128.941 6111 78.1729
129.058 5889 76.7398
129.174 5618 74.9533
129.291 5328 72.9932
129.408 5111 71.4913
129.524 4952 70.3704
129.641 4752 68.9348
129.758 4616 67.9412
129.875 4550 67.4537
129.992 4575 67.6387
130.108 4614 67.9264
130.225 5026 70.8943
130.342 5062 71.1477
130.459 5178 71.9583
130.576 5121 71.5612
130.693 5196 72.0833
130.81 5323 72.9589
130.928 5394 73.4439
131.045 5347 73.1232
131.162 5306 72.8423
131.279 5400 73.4847
131.396 5392 73.4302
131.513 5367 73.2598
131.631 5124 71.5821
131.748 4861 69.7209
131.865 4854 69.6707
131.983 5048 71.0493
132.1 5284 72.6911
132.217 5304 72.8286
132.335 5334 73.0342
132.452 5323 72.9589
132.57 5167 71.8818
132.687 4894 69.9571
132.804 4794 69.2387
132.922 4463 66.8057
133.039 4260 65.2687
133.157 4043 63.5846
133.274 4014 63.3561
133.392 3850 62.0484
133.509 3864 62.1611
133.627 4091 63.9609
133.744 4120 64.1872
133.862 4194 64.7611
133.979 4099 64.0234
134.097 4173 64.5988
134.214 4318 65.7115
134.332 4252 65.2074
134.449 4328 65.7875
134.567 4306 65.6201
134.684 4372 66.1211
134.802 4471 66.8655
134.919 4223 64.9846
135.037 4306 65.6201
135.154 4186 64.6993
135.272 4030 63.4823
135.389 3845 62.0081
135.507 3811 61.7333
135.624 4059 63.7103
135.742 3969 63
135.859 4047 63.616
135.977 4020 63.4035
136.094 3926 62.6578
136.211 3796 61.6117
136.329 3609 60.075
136.446 3525 59.3717
136.564 3402 58.3267
136.681 3279 57.2626
136.798 3128 55.9285
136.915 3085 55.5428
137.033 3079 55.4887
137.15 3069 55.3986
137.267 3042 55.1543
137.384 3205 56.6127
137.502 3368 58.0345
137.619 3221 56.7539
137.736 3308 57.5152
137.853 3305 57.4891
137.97 3466 58.8727
138.087 3597 59.975
138.204 3714 60.9426
138.321 3700 60.8276
138.438 3747 61.2127
138.555 3789 61.5549
138.672 3819 61.7981
138.788 3840 61.9677
138.905 3689 60.7371
139.022 3650 60.4152
139.139 3771 61.4085
139.255 3911 62.538
139.372 4182 64.6684
139.488 4281 65.4294
139.605 4257 65.2457
139.721 4285 65.4599
139.838 4285 65.4599
139.954 4224 64.9923
140.071 3989 63.1585
140.187 3974 63.0397
140.303 3797 61.6198
140.419 3824 61.8385
140.535 3673 60.6053
140.652 3620 60.1664
140.768 0 1
140.884 0 1
141 0 1
141.115 0 1
141.231 0 1
141.347 0 1
141.463 0 1
141.578 0 1
141.694 0 1
144.104 0 1
144.219 0 1
144.335 0 1
144.45 0 1
144.566 0 1
144.682 0 1
144.798 0 1
144.914 0 1
145.03 0 1
145.146 3526 59.3801
145.262 3407 58.3695
145.378 3330 57.7062
145.494 3254 57.0438
145.61 3147 56.0981
145.726 3093 55.6147
145.842 3004 54.8088
145.959 3001 54.7814
146.075 3058 55.2992
146.192 3084 55.5338
146.308 3085 55.5428
146.425 3034 55.0818
146.541 3086 55.5518
146.658 3072 55.4256
146.774 3208 56.6392
146.891 3044 55.1725
147.008 3061 55.3263
147.125 3156 56.1783
147.241 3190 56.4801
147.358 3158 56.1961
147.475 3065 55.3624
147.592 2961 54.4151
147.709 2922 54.0555
147.826 2879 53.6563
147.943 2942 54.2402
148.06 2988 54.6626
148.177 3068 55.3895
148.294 3016 54.9181
148.411 3022 54.9727
148.528 2971 54.5069
148.645 2780 52.7257
148.762 2809 53
148.88 2777 52.6972
148.997 2653 51.5073
149.114 2419 49.1833
149.231 2424 49.2341
149.349 2283 47.7807
149.466 2452 49.5177
149.583 2328 48.2494
149.701 2380 48.7852
149.818 2404 49.0306
149.935 2386 48.8467
150.053 2520 50.1996
150.17 2449 49.4874
150.287 2518 50.1797
150.405 2561 50.6063
150.522 2590 50.892
150.64 2548 50.4777
150.757 2674 51.7107
150.875 2701 51.9711
150.992 2738 52.3259
151.11 2709 52.0481
151.227 2631 51.2933
151.344 2629 51.2738
151.462 2649 51.4684
151.579 2797 52.8867
151.697 2836 53.2541
151.814 2842 53.3104
151.932 3005 54.8179
152.049 2843 53.3198
152.167 2971 54.5069
152.284 2905 53.8981
152.402 2883 53.6936
152.519 2774 52.6688
152.636 2670 51.672
152.754 2735 52.2972
152.871 2614 51.1273
152.989 2605 51.0392
153.106 2547 50.4678
153.223 2570 50.6952
153.341 2713 52.0865
153.458 2707 52.0288
153.575 2746 52.4023
153.693 2821 53.1131
153.81 2903 53.8795
153.927 2797 52.8867
154.044 2981 54.5985
154.162 2996 54.7357
154.279 3149 56.116
154.396 3212 56.6745
154.513 3252 57.0263
154.63 3253 57.0351
154.747 3171 56.3116
154.864 3294 57.3934
154.981 3173 56.3294
155.098 3330 57.7062
155.215 3417 58.4551
155.332 3569 59.7411
155.449 3496 59.127
155.566 3602 60.0167
155.683 3692 60.7618
155.8 3397 58.2838
155.917 3605 60.0417
156.033 3393 58.2495
156.15 0 1
156.267 0 1
156.383 0 1
156.5 0 1
156.617 0 1
156.733 0 1
156.85 0 1
156.966 0 1
157.082 0 1
157.199 0 1
157.315 0 1
157.431 0 1
157.547 0 1
157.664 0 1
157.78 0 1
157.896 0 1
158.012 0 1
158.128 0 1
158.244 0 1
158.359 0 1
158.475 0 1
158.591 0 1
158.706 0 1
