
6.15755 0 1
6.2731 0 1
6.3887 0 1
6.50437 0 1
6.62009 0 1
6.73587 0 1
6.8517 0 1
6.96759 0 1
7.08353 0 1
7.19952 0 1
7.31557 0 1
7.43166 0 1
7.54781 0 1
7.664 0 1
7.78024 0 1
7.89653 0 1
8.01286 0 1
8.12924 0 1
8.24567 0 1
8.36213 0 1
8.47864 0 1
8.59519 0 1
8.71178 0 1
8.82841 0 1
8.94508 0 1
9.06179 0 1
9.17853 0 1
9.29531 0 1
9.41212 0 1
9.52897 0 1
9.64584 0 1
9.76276 0 1
9.8797 0 1
9.99667 0 1
10.1137 0 1
10.2307 0 1
10.3478 0 1
10.4648 0 1
10.5819 0 1
10.6991 0 1
10.8162 0 1
10.9334 0 1
11.0506 0 1
11.1678 0 1
11.285 0 1
11.4023 0 1
11.5196 0 1
11.6369 0 1
11.7542 0 1
11.8715 0 1
11.9888 0 1
12.1062 0 1
12.2235 0 1
12.3409 0 1
12.4582 0 1
12.5756 0 1
12.693 0 1
12.8104 0 1
12.9278 0 1
13.0452 0 1
13.1626 0 1
13.28 0 1
13.3974 0 1
13.5149 0 1
13.6323 0 1
13.7497 0 1
13.8671 0 1
13.9845 0 1
14.1019 0 1
14.2193 0 1
14.3367 0 1
14.4541 0 1
14.5714 0 1
14.6888 0 1
14.8062 0 1
14.9235 0 1
15.0408 5894 76.7724
15.1581 5998 77.4468
15.2755 6273 79.2023
15.3927 6335 79.5927
15.51 6193 78.6956
15.6273 5982 77.3434
15.7445 6062 77.8588
15.8617 6233 78.9494
15.9789 6119 78.224
16.0961 6107 78.1473
16.2132 6210 78.8036
16.3304 6140 78.3582
16.4475 6142 78.3709
16.5646 6258 79.1075
16.6816 6416 80.0999
16.7986 6300 79.3725
16.9156 6614 81.3265
17.0326 6654 81.5721
17.1496 6727 82.0183
17.2665 6726 82.0122
17.3833 6566 81.0309
17.5002 6716 81.9512
17.617 6659 81.6027
17.7338 6625 81.3941
17.8505 6471 80.4425
17.9672 6637 81.4678
18.0839 6624 81.388
18.2005 6472 80.4487
18.3171 6763 82.2375
18.4337 6716 81.9512
18.5502 7016 83.7616
18.6666 7065 84.0536
18.7831 7225 85
18.8994 7121 84.386
19.0158 6809 82.5167
19.1321 6681 81.7374
19.2483 6286 79.2843
19.3645 6121 78.2368
19.4806 6048 77.7689
19.5967 5838 76.4068
19.7128 5552 74.5117
19.8288 5135 71.6589
19.9447 4368 66.0908
20.0606 0 1
20.1764 0 1
20.2922 0 1
20.4079 0 1
20.5236 0 1
20.6392 0 1
20.7548 0 1
20.8702 0 1
23.3078 0 1
23.4233 0 1
23.539 0 1
23.6547 0 1
23.7704 0 1
23.8862 0 1
24.0021 0 1
24.118 0 1
24.234 0 1
24.35 0 1
24.4661 3246 56.9737
24.5822 3837 61.9435
24.6984 4328 65.7875
24.8146 4785 69.1737
24.9309 5299 72.7942
25.0472 5683 75.3857
25.1636 5922 76.9545
25.28 6016 77.5629
25.3965 6386 79.9125
25.513 6627 81.4064
25.6296 6982 83.5584
25.7462 7127 84.4216
25.8628 7353 85.7496
25.9795 7376 85.8836
26.0962 7543 86.8504
26.213 7443 86.2728
26.3298 7583 87.0804
26.4466 7648 87.4528
26.5635 7567 86.9885
26.6804 7511 86.666
26.7973 7534 86.7986
26.9143 7540 86.8332
27.0313 7853 88.6172
27.1483 7894 88.8482
27.2653 7972 89.2861
27.3824 8129 90.161
27.4996 8108 90.0444
27.6167 8014 89.5209
27.7339 7895 88.8538
27.8511 7739 87.9716
27.9683 7659 87.5157
28.0855 7529 86.7698
28.2028 7629 87.3441
28.3201 7532 86.7871
28.4374 7514 86.6833
28.5547 7485 86.5159
28.6721 7200 84.8528
28.7894 7060 84.0238
28.9068 7009 83.7198
29.0242 7069 84.0773
29.1416 6930 83.2466
29.259 7174 84.6995
29.3764 7050 83.9643
29.4939 7311 85.5044
29.6113 7344 85.6971
29.7288 7502 86.6141
29.8463 7537 86.8159
29.9638 7709 87.8009
30.0812 7680 87.6356
30.1987 7489 86.539
30.3162 7322 85.5687
30.4337 7539 86.8274
30.5512 7641 87.4128
30.6687 7823 88.4477
30.7862 8048 89.7106
30.9037 8137 90.2053
31.0212 8345 91.351
31.1387 8222 90.6752
31.2562 7920 88.9944
31.3737 7756 88.0682
31.4912 7833 88.5042
31.6087 7787 88.244
31.7262 7749 88.0284
31.8436 7811 88.3799
31.9611 7660 87.5214
32.0785 7554 86.9138
32.1959 7348 85.7205
32.3134 7000 83.666
32.4308 6922 83.1986
32.5482 6946 83.3427
32.6655 6928 83.2346
32.7829 7012 83.7377
32.9002 7315 85.5278
33.0176 7393 85.9826
33.1349 7216 84.947
33.2522 7620 87.2926
33.3694 7446 86.2902
33.4867 7573 87.023
33.6039 7579 87.0575
33.7211 7611 87.241
33.8383 7517 86.7006
33.9554 7543 86.8504
34.0725 7675 87.6071
34.1896 7824 88.4534
34.3067 7899 88.8763
34.4237 7996 89.4204
34.5407 8263 90.901
34.6577 8108 90.0444
34.7746 8052 89.7329
34.8915 8018 89.5433
35.0084 7902 88.8932
35.1252 7832 88.4986
35.242 7595 87.1493
35.3587 7795 88.2893
35.4755 7727 87.9034
35.5921 7822 88.4421
35.7088 7544 86.8562
35.8254 7512 86.6718
35.9419 7050 83.9643
36.0584 6546 80.9074
36.1749 6516 80.7217
36.2913 6110 78.1665
36.4077 6062 77.8588
36.524 5932 77.0195
36.6403 5709 75.5579
36.7565 5658 75.2197
36.8727 5665 75.2662
36.9889 5552 74.5117
37.1049 5050 71.0634
37.221 0 1
37.3369 0 1
37.4529 0 1
37.5687 0 1
37.6845 0 1
37.8003 0 1
37.916 0 1
38.0316 0 1
38.1472 0 1
40.5851 0 1
40.7008 0 1
40.8164 0 1
40.9322 0 1
41.048 0 1
41.1639 0 1
41.2798 0 1
41.3958 0 1
41.5118 0 1
41.6279 0 1
41.744 3321 57.6281
41.8602 3844 62
41.9765 4234 65.0692
42.0928 4696 68.5274
42.2091 5171 71.9097
42.3255 5607 74.8799
42.4419 6047 77.7625
42.5584 6290 79.3095
42.675 6417 80.1062
42.7915 6535 80.8393
42.9081 6704 81.878
43.0248 7064 84.0476
43.1415 7278 85.3112
43.2582 7578 87.0517
43.375 7703 87.7667
43.4918 7880 88.7694
43.6087 8022 89.5656
43.7256 7895 88.8538
43.8425 7678 87.6242
43.9595 7624 87.3155
44.0765 7532 86.7871
44.1935 7656 87.4986
44.3106 7769 88.1419
44.4277 7694 87.7154
44.5448 7640 87.4071
44.6619 7321 85.5628
44.7791 6947 83.3487
44.8963 6548 80.9197
45.0136 6313 79.4544
45.1308 6068 77.8974
45.2481 6074 77.9359
45.3654 6189 78.6702
45.4827 6250 79.0569
45.6001 6535 80.8393
45.7174 7059 84.0179
45.8348 7458 86.3597
45.9522 7502 86.6141
46.0697 7639 87.4014
46.1871 7699 87.7439
46.3046 7626 87.327
46.422 7768 88.1363
46.5395 7665 87.55
46.657 8030 89.6103
46.7745 8203 90.5704
46.892 8299 91.0988
47.0096 8442 91.8804
47.1271 8610 92.7901
47.2446 8508 92.2388
47.3622 8352 91.3893
47.4797 8404 91.6733
47.5973 8363 91.4494
47.7149 8265 90.912
47.8324 8332 91.2798
47.95 8332 91.2798
48.0675 8023 89.5712
48.1851 8017 89.5377
48.3027 7485 86.5159
48.4202 6975 83.5165
48.5378 6323 79.5173
48.6554 6099 78.0961
48.7729 6209 78.7972
48.8904 6149 78.4156
49.008 6257 79.1012
49.1255 6714 81.939
49.243 7192 84.8057
49.3605 7579 87.0575
49.478 7911 88.9438
49.5955 7983 89.3476
49.713 8158 90.3216
49.8304 7865 88.6848
49.9479 7932 89.0618
50.0653 8033 89.627
50.1827 8183 90.4599
50.3001 8304 91.1263
50.4175 8614 92.8116
50.5348 8852 94.0851
50.6521 8742 93.4987
50.7694 8855 94.101
50.8867 8762 93.6056
51.004 8731 93.4398
51.1212 8459 91.9728
51.2384 8555 92.4932
51.3556 8522 92.3147
51.4727 8521 92.3093
51.5899 8525 92.3309
51.707 8335 91.2962
51.824 7730 87.9204
51.9411 7156 84.5931
52.0581 6629 81.4187
52.175 6314 79.4607
52.2919 6149 78.4156
52.4088 6263 79.1391
52.5257 6317 79.4796
52.6425 6786 82.3772
52.7593 7094 84.2259
52.876 7516 86.6949
52.9927 7674 87.6014
53.1094 7644 87.43
53.226 7605 87.2067
53.3426 7618 87.2812
53.4591 7328 85.6037
53.5756 6998 83.654
53.692 6745 82.1279
53.8084 6754 82.1827
53.9248 6404 80.025
54.0411 6274 79.2086
54.1573 5945 77.1038
54.2735 0 1
54.3896 0 1
54.5057 0 1
54.6217 0 1
54.7377 0 1
54.8537 0 1
54.9695 0 1
55.0853 0 1
55.2011 0 1
55.3168 0 1
55.4324 0 1
57.824 0 1
57.9396 0 1
58.0553 0 1
58.1711 0 1
58.2869 0 1
58.4028 0 1
58.5187 0 1
58.6347 0 1
58.7508 0 1
58.8669 0 1
58.983 6672 81.6823
59.0992 7604 87.2009
59.2155 8488 92.1303
59.3318 8995 94.842
59.4482 9310 96.4883
59.5646 9930 99.6494
59.681 10147 100.732
59.7975 10460 102.274
59.9141 10506 102.499
60.0306 10610 103.005
60.1473 10957 104.676
60.2639 10859 104.207
60.3807 10822 104.029
60.4974 10526 102.596
60.6142 9817 99.0808
60.731 9081 95.2943
60.8479 8184 90.4655
60.9648 7816 88.4081
61.0818 7553 86.908
61.1987 7702 87.761
61.3158 8179 90.4378
61.4328 9122 95.5092
61.5499 10234 101.163
61.667 10779 103.822
61.7841 11454 107.023
61.9013 11724 108.277
62.0185 11880 108.995
62.1357 11782 108.545
62.253 11576 107.592
62.3702 11509 107.28
62.4875 11701 108.171
62.6049 12155 110.25
62.7222 12491 111.763
62.8396 12546 112.009
62.9569 12620 112.339
63.0743 12636 112.41
63.1918 12446 111.562
63.3092 12257 110.711
63.4267 12273 110.784
63.5441 12041 109.731
63.6616 12034 109.7
63.7791 12106 110.027
63.8966 11651 107.94
64.0142 11112 105.413
64.1317 10448 102.215
64.2492 9180 95.8123
64.3668 8474 92.0543
64.4843 7741 87.983
64.6019 7326 85.5921
64.7195 7523 86.7352
64.837 8006 89.4763
64.9546 8880 94.2338
65.0722 10118 100.588
65.1898 11023 104.99
65.3074 11639 107.884
65.4249 11943 109.284
65.5425 12194 110.426
65.6601 12298 110.896
65.7777 12203 110.467
65.8952 12086 109.936
66.0128 12182 110.372
66.1304 12495 111.781
66.2479 12842 113.323
66.3655 12826 113.252
66.483 13045 114.215
66.6005 13158 114.708
66.718 12924 113.684
66.8355 12892 113.543
66.953 12619 112.334
67.0705 12388 111.301
67.1879 12533 111.951
67.3054 12509 111.844
67.4228 12446 111.562
67.5402 11938 109.261
67.6576 11428 106.902
67.7749 10362 101.794
67.8923 9271 96.286
68.0096 8012 89.5098
68.1269 7568 86.9943
68.2442 7403 86.0407
68.3614 7510 86.6603
68.4787 7883 88.7863
68.5958 8872 94.1913
68.713 10005 100.025
68.8302 11418 106.855
68.9473 12214 110.517
69.0643 12711 112.743
69.1814 12882 113.499
69.2984 12926 113.693
69.4154 12212 110.508
69.5323 11987 109.485
69.6492 11754 108.416
69.7661 11762 108.453
69.8829 11929 109.22
69.9997 12032 109.69
70.1165 11929 109.22
70.2332 11762 108.453
70.3499 11384 106.696
70.4665 11141 105.551
70.5831 10651 103.204
70.6996 10096 100.479
70.8161 9646 98.2141
70.9326 9066 95.2155
71.049 8661 93.0645
71.1653 8164 90.3549
71.2817 7434 86.2206
71.3979 6570 81.0555
71.5141 5674 75.326
71.6303 4309 65.643
71.7464 3129 55.9375
71.8624 0 1
71.9784 0 1
72.0944 0 1
72.2102 0 1
72.3261 0 1
72.4418 0 1
72.5575 0 1
72.6732 0 1
75.1054 0 1
75.2209 0 1
75.3365 0 1
75.4521 0 1
75.5678 0 1
75.6835 0 1
75.7993 0 1
75.9151 0 1
76.031 0 1
76.147 9055 95.1578
76.263 9964 99.8198
76.3791 10143 100.712
76.4952 10131 100.653
76.6113 9510 97.5192
76.7276 9076 95.268
76.8438 8645 92.9785
76.9601 7643 87.4243
77.0765 6955 83.3966
77.1929 6814 82.547
77.3093 6820 82.5833
77.4258 7278 85.3112
77.5423 8163 90.3493
77.6589 9457 97.2471
77.7755 11111 105.409
77.8921 12541 111.987
78.0088 13102 114.464
78.1256 13457 116.004
78.2423 13812 117.524
78.3591 13321 115.417
78.4759 13309 115.365
78.5928 13155 114.695
78.7097 13122 114.551
78.8266 13199 114.887
78.9436 13917 117.97
79.0606 14305 119.604
79.1776 14241 119.336
79.2946 14417 120.071
79.4117 14510 120.457
79.5288 14302 119.591
79.6459 14286 119.524
79.7631 13995 118.3
79.8802 14050 118.533
79.9974 14213 119.218
80.1147 14518 120.491
80.2319 13700 117.047
80.3491 12612 112.303
80.4664 11426 106.892
80.5837 9842 99.2069
80.701 8617 92.8278
80.8183 7718 87.8521
80.9357 7839 88.5381
81.053 7438 86.2438
81.1704 8152 90.2884
81.2877 9812 99.0555
81.4051 12061 109.823
81.5225 13779 117.384
81.6399 14600 120.83
81.7573 15550 124.7
81.8747 15377 124.004
81.9922 15633 125.032
82.1096 15272 123.58
82.227 14841 121.824
82.3444 14707 121.272
82.4619 15344 123.871
82.5793 15588 124.852
82.6967 16183 127.212
82.8142 16558 128.678
82.9316 16324 127.765
83.049 16400 128.062
83.1664 16169 127.157
83.2838 15796 125.682
83.4012 16069 126.764
83.5186 15897 126.083
83.636 15947 126.281
83.7534 15535 124.639
83.8708 14880 121.984
83.9881 13661 116.88
84.1055 12331 111.045
84.2228 11190 105.783
84.3401 9937 99.6845
84.4575 8595 92.7092
84.5747 8015 89.5265
84.692 7881 88.775
84.8093 9142 95.6138
84.9265 11068 105.205
85.0437 12884 113.508
85.1609 14948 122.262
85.2781 16288 127.624
85.3952 17270 131.415
85.5123 17731 133.158
85.6294 17466 132.159
85.7465 16973 130.28
85.8636 16694 129.205
85.9806 16559 128.682
86.0976 17243 131.313
86.2145 17279 131.45
86.3315 18278 135.196
86.4484 17466 132.159
86.5652 18151 134.726
86.682 17732 133.162
86.7988 17396 131.894
86.9156 16484 128.39
87.0323 16321 127.754
87.149 15649 125.096
87.2657 15552 124.708
87.3823 15645 125.08
87.4988 14769 121.528
87.6154 13228 115.013
87.7318 11662 107.991
87.8483 10173 100.861
87.9647 8150 90.2774
88.081 6998 83.654
88.1973 6550 80.9321
88.3136 6466 80.4114
88.4298 6909 83.1204
88.546 8092 89.9555
88.6621 9327 96.5764
88.7781 10111 100.553
88.8942 0 1
89.0101 0 1
89.126 0 1
89.2419 0 1
89.3577 0 1
89.4734 0 1
89.5891 0 1
89.7047 0 1
89.8203 0 1
89.9358 0 1
92.3269 0 1
92.4424 0 1
92.558 0 1
92.6736 0 1
92.7893 0 1
92.905 0 1
93.0208 0 1
93.1366 0 1
93.2525 0 1
93.3685 0 1
93.4845 0 1
93.6005 7595 87.1493
93.7167 8332 91.2798
93.8328 9438 97.1494
93.949 11498 107.229
94.0653 13782 117.397
94.1816 15909 126.131
94.2979 17667 132.917
94.4143 18667 136.627
94.5307 19346 139.09
94.6472 19817 140.773
94.7637 19881 141
94.8803 19858 140.918
94.9969 19770 140.606
95.1135 19774 140.62
95.2302 20234 142.246
95.3469 20575 143.44
95.4637 21428 146.383
95.5805 21272 145.849
95.6973 21386 146.24
95.8142 20824 144.305
95.9311 20599 143.524
96.048 20562 143.395
96.1649 20289 142.439
96.2819 20208 142.155
96.3989 20068 141.662
96.516 19147 138.373
96.633 18062 134.395
96.7501 16457 128.285
96.8673 14585 120.768
96.9844 13018 114.096
97.1016 11621 107.801
97.2188 10658 103.238
97.336 10476 102.352
97.4532 11032 105.033
97.5704 12410 111.4
97.6877 14544 120.599
97.805 16998 130.376
97.9223 19066 138.08
98.0396 20410 142.864
98.1569 21315 145.997
98.2743 21575 146.884
98.3916 21333 146.058
98.509 20838 144.354
98.6264 20712 143.917
98.7438 20940 144.707
98.8612 21331 146.051
98.9786 21846 147.804
99.096 22141 148.799
99.2134 22272 149.238
99.3308 22316 149.385
99.4482 22545 150.15
99.5656 21888 147.946
99.6831 21726 147.397
99.8005 21470 146.526
99.9179 21306 145.966
100.035 20989 144.876
100.153 20311 142.517
100.27 18662 136.609
100.388 16850 129.808
100.505 15000 122.474
100.622 13056 114.263
100.74 11897 109.073
100.857 11260 106.113
100.975 11302 106.311
101.092 12286 110.842
101.209 14233 119.302
101.327 17021 130.465
101.444 18977 137.757
101.561 21017 144.972
101.679 22279 149.262
101.796 22504 150.013
101.913 22311 149.369
102.03 21579 146.898
102.148 21509 146.659
102.265 21993 148.3
102.382 21271 145.846
102.499 22318 149.392
102.616 22508 150.027
102.733 22987 151.615
102.851 22758 150.858
102.968 22777 150.921
103.085 22785 150.947
103.202 22484 149.947
103.319 21689 147.272
103.436 21541 146.769
103.552 21388 146.246
103.669 21267 145.832
103.786 20477 143.098
103.903 18493 135.989
104.02 16285 127.613
104.137 14211 119.21
104.253 12763 112.973
104.37 11827 108.752
104.487 11445 106.981
104.603 11711 108.217
104.72 12470 111.669
104.836 14095 118.722
104.953 15330 123.814
105.069 16722 129.314
105.186 17489 132.246
105.302 17451 132.102
105.418 17070 130.652
105.535 16498 128.445
105.651 15357 123.923
105.767 14242 119.34
105.883 13129 114.582
105.999 11903 109.101
106.115 0 1
106.231 0 1
106.347 0 1
106.463 0 1
106.579 0 1
106.694 0 1
106.81 0 1
106.926 0 1
107.041 0 1
107.157 0 1
109.576 0 1
109.692 0 1
109.807 0 1
109.923 0 1
110.039 0 1
110.155 0 1
110.27 0 1
110.386 0 1
110.502 0 1
110.618 12952 113.807
110.735 13989 118.275
110.851 14309 119.62
110.967 15199 123.284
111.083 16582 128.771
111.199 17506 132.31
111.316 18632 136.499
111.432 19370 139.176
111.549 19749 140.531
111.665 20339 142.615
111.782 20199 142.123
111.898 20343 142.629
112.015 19884 141.011
112.132 19548 139.814
112.248 19635 140.125
112.365 19684 140.3
112.482 18978 137.761
112.599 17180 131.072
112.716 14888 122.016
112.832 13177 114.791
112.949 11660 107.981
113.066 10872 104.269
113.183 10624 103.073
113.3 10734 103.605
113.417 11617 107.782
113.534 14091 118.706
113.652 16539 128.604
113.769 18143 134.696
113.886 19599 139.996
114.003 20046 141.584
114.12 19991 141.39
114.238 19883 141.007
114.355 19478 139.564
114.472 19283 138.863
114.589 18808 137.142
114.707 19576 139.914
114.824 19965 141.298
114.942 19964 141.294
115.059 20137 141.905
115.176 20256 142.324
115.294 19862 140.933
115.411 19397 139.273
115.529 19299 138.921
115.646 18911 137.517
115.764 18722 136.828
115.881 18508 136.044
115.999 18242 135.063
116.116 17615 132.722
116.234 15602 124.908
116.351 13987 118.267
116.469 12459 111.62
116.586 11175 105.712
116.704 10654 103.218
116.821 10525 102.591
116.939 10641 103.155
117.056 11818 108.711
117.174 13804 117.49
117.291 15973 126.384
117.409 17497 132.276
117.526 18283 135.215
117.644 18486 135.963
117.761 18658 136.594
117.879 18357 135.488
117.996 17832 133.537
118.114 17698 133.034
118.231 18103 134.547
118.349 18541 136.165
118.466 18642 136.536
118.584 18706 136.77
118.701 18712 136.792
118.819 18422 135.728
118.936 18510 136.051
119.053 17735 133.173
119.171 17393 131.883
119.288 17433 132.034
119.405 17012 130.43
119.523 16898 129.992
119.64 16744 129.399
119.757 16503 128.464
119.875 15147 123.073
119.992 13588 116.568
120.109 11900 109.087
120.226 11052 105.128
120.343 10201 101
120.46 9852 99.2572
120.578 10059 100.295
120.695 10594 102.927
120.812 11901 109.092
120.929 13657 116.863
121.046 14743 121.421
121.163 15110 122.923
121.279 15468 124.37
121.396 15193 123.26
121.513 15250 123.491
121.63 14412 120.05
121.747 14012 118.372
121.863 14005 118.343
121.98 13787 117.418
122.097 13865 117.75
122.213 13675 116.94
122.33 13522 116.284
122.446 12999 114.013
122.563 12433 111.503
122.679 11696 108.148
122.795 10944 104.614
122.912 10504 102.489
123.028 9727 98.6256
123.144 9076 95.268
123.26 8326 91.2469
123.377 0 1
123.493 0 1
123.609 0 1
123.725 0 1
123.84 0 1
123.956 0 1
124.072 0 1
124.188 0 1
124.303 0 1
124.419 0 1
126.852 0 1
126.968 0 1
127.083 0 1
127.199 0 1
127.315 0 1
127.431 0 1
127.547 0 1
127.663 0 1
127.779 0 1
127.895 0 1
128.011 0 1
128.127 0 1
128.243 0 1
128.359 16218 127.35
128.476 16409 128.098
128.592 16817 129.68
128.708 17005 130.403
128.825 17204 131.164
128.941 16113 126.937
129.058 15007 122.503
129.174 13844 117.661
129.291 12645 112.45
129.408 12219 110.54
129.524 12134 110.154
129.641 11946 109.298
129.758 11865 108.927
129.875 12991 113.978
129.992 14431 120.129
130.108 15832 125.825
130.225 16917 130.065
130.342 17465 132.155
130.459 17490 132.25
130.576 17683 132.977
130.693 17038 130.53
130.81 17322 131.613
130.928 17584 132.605
131.045 17970 134.052
131.162 18115 134.592
131.279 18660 136.602
131.396 18335 135.407
131.513 18396 135.632
131.631 18301 135.281
131.748 17980 134.09
131.865 17661 132.895
131.983 17612 132.71
132.1 17080 130.69
132.217 17273 131.427
132.335 17247 131.328
132.452 16937 130.142
132.57 15844 125.873
132.687 14542 120.59
132.804 13853 117.699
132.922 13090 114.412
133.039 12603 112.263
133.157 12327 111.027
133.274 12092 109.964
133.392 12362 111.185
133.509 13747 117.248
133.627 14619 120.909
133.744 15724 125.395
133.862 16882 129.931
133.979 17119 130.84
134.097 16917 130.065
134.214 16999 130.38
134.332 16523 128.542
134.449 16867 129.873
134.567 17022 130.468
134.684 17719 133.113
134.802 17745 133.21
134.919 18282 135.211
135.037 18021 134.242
135.154 17772 133.312
135.272 17408 131.939
135.389 17221 131.229
135.507 17038 130.53
135.624 16686 129.174
135.742 16771 129.503
135.859 17095 130.748
135.977 16813 129.665
136.094 16527 128.557
136.211 15598 124.892
136.329 14682 121.169
136.446 13695 117.026
136.564 13122 114.551
136.681 12794 113.111
136.798 12323 111.009
136.915 12546 112.009
137.033 12510 111.848
137.15 13346 115.525
137.267 14199 119.16
137.384 14922 122.156
137.502 15749 125.495
137.619 16193 127.252
137.736 16295 127.652
137.853 15412 124.145
137.97 15809 125.734
138.087 15522 124.587
138.204 16335 127.808
138.321 16361 127.91
138.438 16074 126.783
138.555 16280 127.593
138.672 15862 125.944
138.788 15425 124.197
138.905 15114 122.939
139.022 14549 120.619
139.139 13619 116.7
139.255 13073 114.337
139.372 12584 112.178
139.488 12242 110.644
139.605 11947 109.302
139.721 11112 105.413
139.838 10370 101.833
139.954 9259 96.2237
140.071 8452 91.9348
140.187 7587 87.1034
140.303 6836 82.6801
140.419 6273 79.2023
140.535 5812 76.2365
140.652 5345 73.1095
140.768 0 1
140.884 0 1
141 0 1
141.115 0 1
141.231 0 1
141.347 0 1
141.463 0 1
141.578 0 1
141.694 0 1
144.104 0 1
144.219 0 1
144.335 0 1
144.45 0 1
144.566 0 1
144.682 0 1
144.798 0 1
144.914 0 1
145.03 0 1
145.146 10096 100.479
145.262 10285 101.415
145.378 9959 99.7948
145.494 10131 100.653
145.61 10067 100.334
145.726 9714 98.5596
145.842 9517 97.5551
145.959 10134 100.668
146.075 10248 101.232
146.192 10866 104.24
146.308 11335 106.466
146.425 11312 106.358
146.541 11422 106.874
146.658 11346 106.518
146.774 11283 106.221
146.891 11548 107.462
147.008 11964 109.38
147.125 12013 109.604
147.241 12304 110.923
147.358 12501 111.808
147.475 12476 111.696
147.592 12172 110.327
147.709 12175 110.34
147.826 12166 110.3
147.943 11814 108.692
148.06 11576 107.592
148.177 11555 107.494
148.294 11640 107.889
148.411 11708 108.204
148.528 11720 108.259
148.645 11385 106.701
148.762 11623 107.81
148.88 11187 105.769
148.997 11002 104.89
149.114 10506 102.499
149.231 10336 101.666
149.349 10445 102.201
149.466 10018 100.09
149.583 9871 99.3529
149.701 10204 101.015
149.818 10453 102.24
149.935 10747 103.668
150.053 11026 105.005
150.17 11256 106.094
150.287 11240 106.019
150.405 11078 105.252
150.522 11013 104.943
150.64 11145 105.57
150.757 11680 108.074
150.875 11937 109.257
150.992 12010 109.59
151.11 11919 109.174
151.227 11889 109.037
151.344 11751 108.402
151.462 11722 108.268
151.579 11080 105.262
151.697 11196 105.811
151.814 11096 105.338
151.932 11123 105.466
152.049 11374 106.649
152.167 11411 106.822
152.284 11170 105.688
152.402 10790 103.875
152.519 10758 103.721
152.636 10727 103.571
152.754 10428 102.118
152.871 10176 100.876
152.989 9970 99.8499
153.106 9822 99.106
153.223 9566 97.8059
153.341 9778 98.8838
153.458 9897 99.4837
153.575 10096 100.479
153.693 10329 101.632
153.81 10318 101.578
153.927 10362 101.794
154.044 10222 101.104
154.162 10220 101.094
154.279 10383 101.897
154.396 10859 104.207
154.513 11002 104.89
154.63 10894 104.374
154.747 11187 105.769
154.864 11105 105.38
154.981 10488 102.411
155.098 10716 103.518
155.215 10259 101.287
155.332 10274 101.361
155.449 10118 100.588
155.566 10227 101.129
155.683 10176 100.876
155.8 10026 100.13
155.917 9694 98.4581
156.033 9387 96.8865
156.15 0 1
156.267 0 1
156.383 0 1
156.5 0 1
156.617 0 1
156.733 0 1
156.85 0 1
156.966 0 1
157.082 0 1
157.199 0 1
157.315 0 1
157.431 0 1
157.547 0 1
157.664 0 1
157.78 0 1
157.896 0 1
158.012 0 1
158.128 0 1
158.244 0 1
158.359 0 1
158.475 0 1
158.591 0 1
158.706 0 1
