
6.15755 0 1
6.2731 0 1
6.3887 0 1
6.50437 0 1
6.62009 0 1
6.73587 0 1
6.8517 0 1
6.96759 0 1
7.08353 0 1
7.19952 0 1
7.31557 0 1
7.43166 0 1
7.54781 0 1
7.664 0 1
7.78024 0 1
7.89653 0 1
8.01286 0 1
8.12924 0 1
8.24567 0 1
8.36213 0 1
8.47864 0 1
8.59519 0 1
8.71178 0 1
8.82841 0 1
8.94508 0 1
9.06179 0 1
9.17853 0 1
9.29531 0 1
9.41212 0 1
9.52897 0 1
9.64584 0 1
9.76276 0 1
9.8797 0 1
9.99667 0 1
10.1137 0 1
10.2307 0 1
10.3478 0 1
10.4648 0 1
10.5819 0 1
10.6991 0 1
10.8162 0 1
10.9334 0 1
11.0506 0 1
11.1678 0 1
11.285 0 1
11.4023 0 1
11.5196 0 1
11.6369 0 1
11.7542 0 1
11.8715 0 1
11.9888 0 1
12.1062 0 1
12.2235 0 1
12.3409 0 1
12.4582 0 1
12.5756 0 1
12.693 0 1
12.8104 0 1
12.9278 0 1
13.0452 0 1
13.1626 0 1
13.28 0 1
13.3974 0 1
13.5149 0 1
13.6323 0 1
13.7497 0 1
13.8671 0 1
13.9845 0 1
14.1019 0 1
14.2193 0 1
14.3367 0 1
14.4541 0 1
14.5714 0 1
14.6888 0 1
14.8062 0 1
14.9235 0 1
15.0408 0 0
15.1581 0 0
15.2755 0 0
15.3927 0 0
15.51 0 0
15.6273 0 0
15.7445 0 0
15.8617 0 0
15.9789 0 0
16.0961 0 0
16.2132 0 0
16.3304 0 0
16.4475 0 0
16.5646 0 0
16.6816 0 0
16.7986 0 0
16.9156 0 0
17.0326 0 0
17.1496 0 0
17.2665 0 0
17.3833 0 0
17.5002 0 0
17.617 0 0
17.7338 0 0
17.8505 0 0
17.9672 0 0
18.0839 0 0
18.2005 0 0
18.3171 0 0
18.4337 0 0
18.5502 0 0
18.6666 0 0
18.7831 0 0
18.8994 0 0
19.0158 0 0
19.1321 0 0
19.2483 0 0
19.3645 0 0
19.4806 0 0
19.5967 0 0
19.7128 0 0
19.8288 0 0
19.9447 0 0
20.0606 0 1
20.1764 0 1
20.2922 0 1
20.4079 0 1
20.5236 0 1
20.6392 0 1
20.7548 0 1
20.8702 0 1
23.3078 0 1
23.4233 0 1
23.539 0 1
23.6547 0 1
23.7704 0 1
23.8862 0 1
24.0021 0 1
24.118 0 1
24.234 0 1
24.35 0 1
24.4661 1626 40.3237
24.5822 1643 40.5339
24.6984 1679 40.9756
24.8146 1738 41.6893
24.9309 1648 40.5956
25.0472 1596 39.95
25.1636 1439 37.9342
25.28 1440 37.9473
25.3965 1514 38.9102
25.513 1491 38.6135
25.6296 1665 40.8044
25.7462 1741 41.7253
25.8628 1855 43.0697
25.9795 1856 43.0813
26.0962 1836 42.8486
26.213 1888 43.4511
26.3298 1865 43.1856
26.4466 1806 42.4971
26.5635 1769 42.0595
26.6804 1723 41.509
26.7973 1703 41.2674
26.9143 1693 41.1461
27.0313 1690 41.1096
27.1483 1786 42.2611
27.2653 1840 42.8952
27.3824 1855 43.0697
27.4996 1880 43.359
27.6167 1843 42.9302
27.7339 1812 42.5676
27.8511 1739 41.7013
27.9683 1760 41.9524
28.0855 1728 41.5692
28.2028 1704 41.2795
28.3201 1715 41.4126
28.4374 1689 41.0974
28.5547 1642 40.5216
28.6721 1457 38.1707
28.7894 1437 37.9078
28.9068 1429 37.8021
29.0242 1403 37.4566
29.1416 1520 38.9872
29.259 1664 40.7922
29.3764 1649 40.6079
29.4939 1762 41.9762
29.6113 1753 41.8688
29.7288 1808 42.5206
29.8463 1739 41.7013
29.9638 1748 41.8091
30.0812 1574 39.6737
30.1987 1596 39.95
30.3162 1620 40.2492
30.4337 1680 40.9878
30.5512 1710 41.3521
30.6687 1646 40.5709
30.7862 1753 41.8688
30.9037 1818 42.638
31.0212 1747 41.7971
31.1387 1827 42.7434
31.2562 1853 43.0465
31.3737 1764 42
31.4912 1778 42.1663
31.6087 1695 41.1704
31.7262 1774 42.1189
31.8436 1688 41.0853
31.9611 1701 41.2432
32.0785 1566 39.5727
32.1959 1494 38.6523
32.3134 1440 37.9473
32.4308 1481 38.4838
32.5482 1474 38.3927
32.6655 1490 38.6005
32.7829 1625 40.3113
32.9002 1728 41.5692
33.0176 1713 41.3884
33.1349 1753 41.8688
33.2522 1789 42.2966
33.3694 1724 41.5211
33.4867 1707 41.3159
33.6039 1692 41.1339
33.7211 1587 39.8372
33.8383 1629 40.3609
33.9554 1584 39.7995
34.0725 1562 39.5221
34.1896 1645 40.5586
34.3067 1679 40.9756
34.4237 1667 40.8289
34.5407 1695 41.1704
34.6577 1728 41.5692
34.7746 1625 40.3113
34.8915 1740 41.7133
35.0084 1757 41.9166
35.1252 1730 41.5933
35.242 1726 41.5452
35.3587 1736 41.6653
35.4755 1746 41.7852
35.5921 1732 41.6173
35.7088 1652 40.6448
35.8254 1478 38.4448
35.9419 1407 37.51
36.0584 1384 37.2022
36.1749 1387 37.2424
36.2913 1498 38.704
36.4077 1464 38.2623
36.524 1587 39.8372
36.6403 1715 41.4126
36.7565 1660 40.7431
36.8727 1693 41.1461
36.9889 1669 40.8534
37.1049 1626 40.3237
37.221 0 1
37.3369 0 1
37.4529 0 1
37.5687 0 1
37.6845 0 1
37.8003 0 1
37.916 0 1
38.0316 0 1
38.1472 0 1
40.5851 0 1
40.7008 0 1
40.8164 0 1
40.9322 0 1
41.048 0 1
41.1639 0 1
41.2798 0 1
41.3958 0 1
41.5118 0 1
41.6279 0 1
41.744 1216 34.8712
41.8602 1331 36.4829
41.9765 1356 36.8239
42.0928 1348 36.7151
42.2091 1457 38.1707
42.3255 1448 38.0526
42.4419 1354 36.7967
42.5584 1301 36.0694
42.675 1195 34.5688
42.7915 1183 34.3948
42.9081 1220 34.9285
43.0248 1226 35.0143
43.1415 1351 36.756
43.2582 1340 36.606
43.375 1350 36.7423
43.4918 1412 37.5766
43.6087 1349 36.7287
43.7256 1351 36.756
43.8425 1371 37.027
43.9595 1369 37
44.0765 1332 36.4966
44.1935 1368 36.9865
44.3106 1283 35.819
44.4277 1234 35.1283
44.5448 1186 34.4384
44.6619 1038 32.218
44.7791 1062 32.5883
44.8963 1071 32.7261
45.0136 1016 31.8748
45.1308 1025 32.0156
45.2481 1080 32.8634
45.3654 1073 32.7567
45.4827 1086 32.9545
45.6001 1096 33.1059
45.7174 1102 33.1964
45.8348 1104 33.2265
45.9522 1046 32.3419
46.0697 993 31.5119
46.1871 936 30.5941
46.3046 845 29.0689
46.422 903 30.05
46.5395 936 30.5941
46.657 966 31.0805
46.7745 1046 32.3419
46.892 989 31.4484
47.0096 1005 31.7017
47.1271 1042 32.28
47.2446 1024 32
47.3622 992 31.496
47.4797 1029 32.078
47.5973 1042 32.28
47.7149 1022 31.9687
47.8324 1001 31.6386
47.95 984 31.3688
48.0675 907 30.1164
48.1851 859 29.3087
48.3027 789 28.0891
48.4202 771 27.7669
48.5378 819 28.6182
48.6554 840 28.9828
48.7729 934 30.5614
48.8904 921 30.348
49.008 950 30.8221
49.1255 969 31.1288
49.243 963 31.0322
49.3605 952 30.8545
49.478 853 29.2062
49.5955 826 28.7402
49.713 737 27.1477
49.8304 764 27.6405
49.9479 760 27.5681
50.0653 822 28.6705
50.1827 886 29.7658
50.3001 852 29.189
50.4175 945 30.7409
50.5348 1018 31.9061
50.6521 1064 32.619
50.7694 1004 31.686
50.8867 1033 32.1403
51.004 1110 33.3167
51.1212 1118 33.4365
51.2384 1156 34
51.3556 1113 33.3617
51.4727 1109 33.3017
51.5899 1020 31.9374
51.707 1024 32
51.824 1014 31.8434
51.9411 1043 32.2955
52.0581 1044 32.311
52.175 1115 33.3916
52.2919 1193 34.5398
52.4088 1278 35.7491
52.5257 1251 35.3695
52.6425 1203 34.6843
52.7593 1317 36.2905
52.876 1245 35.2846
52.9927 1257 35.4542
53.1094 1136 33.7046
53.226 1111 33.3317
53.3426 1020 31.9374
53.4591 1051 32.4191
53.5756 1123 33.5112
53.692 1142 33.7935
53.8084 1245 35.2846
53.9248 1337 36.565
54.0411 1373 37.054
54.1573 1434 37.8682
54.2735 0 1
54.3896 0 1
54.5057 0 1
54.6217 0 1
54.7377 0 1
54.8537 0 1
54.9695 0 1
55.0853 0 1
55.2011 0 1
55.3168 0 1
55.4324 0 1
57.824 0 1
57.9396 0 1
58.0553 0 1
58.1711 0 1
58.2869 0 1
58.4028 0 1
58.5187 0 1
58.6347 0 1
58.7508 0 1
58.8669 0 1
58.983 1451 38.092
59.0992 1527 39.0768
59.2155 1676 40.939
59.3318 1604 40.05
59.4482 1683 41.0244
59.5646 1711 41.3642
59.681 1696 41.1825
59.7975 1653 40.6571
59.9141 1719 41.4608
60.0306 1535 39.1791
60.1473 1509 38.8458
60.2639 1411 37.5633
60.3807 1332 36.4966
60.4974 1335 36.5377
60.6142 1294 35.9722
60.731 1379 37.1349
60.8479 1379 37.1349
60.9648 1414 37.6032
61.0818 1440 37.9473
61.1987 1445 38.0132
61.3158 1540 39.2428
61.4328 1505 38.7943
61.5499 1384 37.2022
61.667 1248 35.327
61.7841 1206 34.7275
61.9013 1185 34.4238
62.0185 1170 34.2053
62.1357 1347 36.7015
62.253 1367 36.973
62.3702 1408 37.5233
62.4875 1539 39.2301
62.6049 1602 40.025
62.7222 1763 41.9881
62.8396 1730 41.5933
62.9569 1797 42.391
63.0743 1765 42.0119
63.1918 1809 42.5323
63.3092 1707 41.3159
63.4267 1746 41.7852
63.5441 1623 40.2865
63.6616 1532 39.1408
63.7791 1582 39.7744
63.8966 1438 37.921
64.0142 1559 39.4842
64.1317 1513 38.8973
64.2492 1585 39.8121
64.3668 1676 40.939
64.4843 1658 40.7185
64.6019 1621 40.2616
64.7195 1674 40.9145
64.837 1604 40.05
64.9546 1597 39.9625
65.0722 1607 40.0874
65.1898 1440 37.9473
65.3074 1309 36.1801
65.4249 1164 34.1174
65.5425 1208 34.7563
65.6601 1230 35.0714
65.7777 1322 36.3593
65.8952 1432 37.8418
66.0128 1554 39.4208
66.1304 1685 41.0488
66.2479 1814 42.5911
66.3655 1774 42.1189
66.483 1747 41.7971
66.6005 1699 41.2189
66.718 1778 42.1663
66.8355 1700 41.2311
66.953 1686 41.0609
67.0705 1639 40.4846
67.1879 1483 38.5097
67.3054 1465 38.2753
67.4228 1324 36.3868
67.5402 1385 37.2156
67.6576 1407 37.51
67.7749 1437 37.9078
67.8923 1434 37.8682
68.0096 1436 37.8946
68.1269 1407 37.51
68.2442 1467 38.3014
68.3614 1490 38.6005
68.4787 1475 38.4057
68.5958 1380 37.1484
68.713 1322 36.3593
68.8302 1210 34.7851
68.9473 1137 33.7194
69.0643 1027 32.0468
69.1814 943 30.7083
69.2984 1032 32.1248
69.4154 1195 34.5688
69.5323 1333 36.5103
69.6492 1355 36.8103
69.7661 1472 38.3667
69.8829 1525 39.0512
69.9997 1506 38.8072
70.1165 1590 39.8748
70.2332 1455 38.1445
70.3499 1589 39.8623
70.4665 1574 39.6737
70.5831 1536 39.1918
70.6996 1468 38.3145
70.8161 1423 37.7227
70.9326 1344 36.6606
71.049 1247 35.3129
71.1653 1285 35.8469
71.2817 1213 34.8281
71.3979 1201 34.6554
71.5141 1259 35.4824
71.6303 1288 35.8887
71.7464 1160 34.0588
71.8624 0 1
71.9784 0 1
72.0944 0 1
72.2102 0 1
72.3261 0 1
72.4418 0 1
72.5575 0 1
72.6732 0 1
75.1054 0 1
75.2209 0 1
75.3365 0 1
75.4521 0 1
75.5678 0 1
75.6835 0 1
75.7993 0 1
75.9151 0 1
76.031 0 1
76.147 1245 35.2846
76.263 1241 35.2278
76.3791 1240 35.2136
76.4952 1227 35.0286
76.6113 1270 35.6371
76.7276 1302 36.0832
76.8438 1322 36.3593
76.9601 1350 36.7423
77.0765 1374 37.0675
77.1929 1306 36.1386
77.3093 1338 36.5787
77.4258 1317 36.2905
77.5423 1477 38.4318
77.6589 1273 35.6791
77.7755 1157 34.0147
77.8921 1067 32.665
78.0088 949 30.8058
78.1256 860 29.3258
78.2423 846 29.0861
78.3591 954 30.8869
78.4759 1129 33.6006
78.5928 1277 35.7351
78.7097 1331 36.4829
78.8266 1321 36.3456
78.9436 1545 39.3065
79.0606 1531 39.128
79.1776 1527 39.0768
79.2946 1531 39.128
79.4117 1479 38.4578
79.5288 1494 38.6523
79.6459 1445 38.0132
79.7631 1377 37.108
79.8802 1244 35.2704
79.9974 1227 35.0286
80.1147 1187 34.4529
80.2319 1229 35.0571
80.3491 1217 34.8855
80.4664 1233 35.1141
80.5837 1316 36.2767
80.701 1159 34.0441
80.8183 1271 35.6511
80.9357 1284 35.8329
81.053 1287 35.8748
81.1704 1262 35.5246
81.2877 1191 34.5109
81.4051 1150 33.9116
81.5225 925 30.4138
81.6399 866 29.4279
81.7573 792 28.1425
81.8747 739 27.1846
81.9922 837 28.931
82.1096 1020 31.9374
82.227 1144 33.8231
82.3444 1186 34.4384
82.4619 1282 35.805
82.5793 1300 36.0555
82.6967 1329 36.4555
82.8142 1352 36.7696
82.9316 1305 36.1248
83.049 1293 35.9583
83.1664 1319 36.318
83.2838 1281 35.7911
83.4012 1152 33.9411
83.5186 1078 32.8329
83.636 1114 33.3766
83.7534 1058 32.5269
83.8708 1084 32.9242
83.9881 1093 33.0606
84.1055 1088 32.9848
84.2228 1092 33.0454
84.3401 1078 32.8329
84.4575 1232 35.0999
84.5747 1200 34.641
84.692 1211 34.7994
84.8093 1236 35.1568
84.9265 1078 32.8329
85.0437 928 30.4631
85.1609 878 29.6311
85.2781 721 26.8514
85.3952 712 26.6833
85.5123 746 27.313
85.6294 923 30.3809
85.7465 1121 33.4813
85.8636 1217 34.8855
85.9806 1245 35.2846
86.0976 1305 36.1248
86.2145 1370 37.0135
86.3315 1527 39.0768
86.4484 1430 37.8153
86.5652 1472 38.3667
86.682 1440 37.9473
86.7988 1416 37.6298
86.9156 1350 36.7423
87.0323 1264 35.5528
87.149 1219 34.9142
87.2657 1289 35.9026
87.3823 1301 36.0694
87.4988 1236 35.1568
87.6154 1295 35.9861
87.7318 1326 36.4143
87.8483 1293 35.9583
87.9647 1271 35.6511
88.081 1347 36.7015
88.1973 1359 36.8646
88.3136 1266 35.5809
88.4298 1252 35.3836
88.546 1115 33.3916
88.6621 981 31.3209
88.7781 836 28.9137
88.8942 0 1
89.0101 0 1
89.126 0 1
89.2419 0 1
89.3577 0 1
89.4734 0 1
89.5891 0 1
89.7047 0 1
89.8203 0 1
89.9358 0 1
92.3269 0 1
92.4424 0 1
92.558 0 1
92.6736 0 1
92.7893 0 1
92.905 0 1
93.0208 0 1
93.1366 0 1
93.2525 0 1
93.3685 0 1
93.4845 0 1
93.6005 1328 36.4417
93.7167 1360 36.8782
93.8328 1369 37
93.949 1319 36.318
94.0653 1123 33.5112
94.1816 1034 32.1559
94.2979 893 29.8831
94.4143 844 29.0517
94.5307 885 29.7489
94.6472 960 30.9839
94.7637 1153 33.9559
94.8803 1291 35.9305
94.9969 1436 37.8946
95.1135 1478 38.4448
95.2302 1532 39.1408
95.3469 1561 39.5095
95.4637 1582 39.7744
95.5805 1536 39.1918
95.6973 1578 39.724
95.8142 1718 41.4488
95.9311 1600 40
96.048 1545 39.3065
96.1649 1534 39.1663
96.2819 1411 37.5633
96.3989 1486 38.5487
96.516 1475 38.4057
96.633 1467 38.3014
96.7501 1411 37.5633
96.8673 1454 38.1314
96.9844 1419 37.6696
97.1016 1460 38.2099
97.2188 1452 38.1051
97.336 1535 39.1791
97.4532 1486 38.5487
97.5704 1404 37.47
97.6877 1257 35.4542
97.805 1058 32.5269
97.9223 954 30.8869
98.0396 845 29.0689
98.1569 888 29.7993
98.2743 908 30.133
98.3916 1124 33.5261
98.509 1337 36.565
98.6264 1411 37.5633
98.7438 1516 38.9358
98.8612 1532 39.1408
98.9786 1657 40.7063
99.096 1659 40.7308
99.2134 1655 40.6817
99.3308 1689 41.0974
99.4482 1693 41.1461
99.5656 1556 39.4462
99.6831 1595 39.9375
99.8005 1466 38.2884
99.9179 1466 38.2884
100.035 1498 38.704
100.153 1508 38.833
100.27 1469 38.3275
100.388 1524 39.0384
100.505 1512 38.8844
100.622 1458 38.1838
100.74 1494 38.6523
100.857 1532 39.1408
100.975 1548 39.3446
101.092 1499 38.7169
101.209 1336 36.5513
101.327 1222 34.9571
101.444 985 31.3847
101.561 946 30.7571
101.679 924 30.3974
101.796 877 29.6142
101.913 1131 33.6303
102.03 1345 36.6742
102.148 1492 38.6264
102.265 1557 39.4588
102.382 1775 42.1307
102.499 1680 40.9878
102.616 1698 41.2068
102.733 1694 41.1582
102.851 1785 42.2493
102.968 1785 42.2493
103.085 1693 41.1461
103.202 1666 40.8167
103.319 1669 40.8534
103.436 1588 39.8497
103.552 1666 40.8167
103.669 1525 39.0512
103.786 1527 39.0768
103.903 1553 39.4081
104.02 1627 40.3361
104.137 1629 40.3609
104.253 1573 39.6611
104.37 1685 41.0488
104.487 1710 41.3521
104.603 1547 39.3319
104.72 1446 38.0263
104.836 1282 35.805
104.953 1037 32.2025
105.069 986 31.4006
105.186 955 30.9031
105.302 1030 32.0936
105.418 1275 35.7071
105.535 1547 39.3319
105.651 1616 40.1995
105.767 1725 41.5331
105.883 1842 42.9185
105.999 1824 42.7083
106.115 0 1
106.231 0 1
106.347 0 1
106.463 0 1
106.579 0 1
106.694 0 1
106.81 0 1
106.926 0 1
107.041 0 1
107.157 0 1
109.576 0 1
109.692 0 1
109.807 0 1
109.923 0 1
110.039 0 1
110.155 0 1
110.27 0 1
110.386 0 1
110.502 0 1
110.618 1334 36.524
110.735 1479 38.4578
110.851 1671 40.8779
110.967 1751 41.845
111.083 1725 41.5331
111.199 1774 42.1189
111.316 1777 42.1545
111.432 1807 42.5088
111.549 1819 42.6497
111.665 1752 41.8569
111.782 1800 42.4264
111.898 1702 41.2553
112.015 1630 40.3733
112.132 1655 40.6817
112.248 1615 40.1871
112.365 1628 40.3485
112.482 1476 38.4187
112.599 1567 39.5854
112.716 1573 39.6611
112.832 1558 39.4715
112.949 1553 39.4081
113.066 1556 39.4462
113.183 1465 38.2753
113.3 1395 37.3497
113.417 1194 34.5543
113.534 990 31.4643
113.652 959 30.9677
113.769 937 30.6105
113.886 934 30.5614
114.003 1120 33.4664
114.12 1354 36.7967
114.238 1418 37.6563
114.355 1585 39.8121
114.472 1591 39.8873
114.589 1673 40.9023
114.707 1644 40.5463
114.824 1648 40.5956
114.942 1699 41.2189
115.059 1651 40.6325
115.176 1620 40.2492
115.294 1685 41.0488
115.411 1627 40.3361
115.529 1648 40.5956
115.646 1598 39.975
115.764 1616 40.1995
115.881 1612 40.1497
115.999 1503 38.7685
116.116 1534 39.1663
116.234 1522 39.0128
116.351 1449 38.0657
116.469 1475 38.4057
116.586 1471 38.3536
116.704 1556 39.4462
116.821 1407 37.51
116.939 1268 35.609
117.056 1115 33.3916
117.174 968 31.1127
117.291 918 30.2985
117.409 969 31.1288
117.526 1053 32.45
117.644 1223 34.9714
117.761 1378 37.1214
117.879 1590 39.8748
117.996 1560 39.4968
118.114 1588 39.8497
118.231 1651 40.6325
118.349 1645 40.5586
118.466 1583 39.7869
118.584 1690 41.1096
118.701 1694 41.1582
118.819 1614 40.1746
118.936 1689 41.0974
119.053 1606 40.0749
119.171 1538 39.2173
119.288 1547 39.3319
119.405 1577 39.7115
119.523 1550 39.37
119.64 1508 38.833
119.757 1570 39.6232
119.875 1426 37.7624
119.992 1420 37.6829
120.109 1511 38.8716
120.226 1481 38.4838
120.343 1389 37.2693
120.46 1412 37.5766
120.578 1204 34.6987
120.695 1091 33.0303
120.812 1056 32.4962
120.929 962 31.0161
121.046 945 30.7409
121.163 926 30.4302
121.279 1143 33.8083
121.396 1335 36.5377
121.513 1362 36.9053
121.63 1500 38.7298
121.747 1550 39.37
121.863 1572 39.6485
121.98 1487 38.5616
122.097 1545 39.3065
122.213 1644 40.5463
122.33 1677 40.9512
122.446 1595 39.9375
122.563 1578 39.724
122.679 1643 40.5339
122.795 1526 39.064
122.912 1482 38.4968
123.028 1485 38.5357
123.144 1491 38.6135
123.26 1356 36.8239
123.377 0 1
123.493 0 1
123.609 0 1
123.725 0 1
123.84 0 1
123.956 0 1
124.072 0 1
124.188 0 1
124.303 0 1
124.419 0 1
126.852 0 1
126.968 0 1
127.083 0 1
127.199 0 1
127.315 0 1
127.431 0 1
127.547 0 1
127.663 0 1
127.779 0 1
127.895 0 1
128.011 0 1
128.127 0 1
128.243 0 1
128.359 1687 41.0731
128.476 1679 40.9756
128.592 1564 39.5474
128.708 1654 40.6694
128.825 1585 39.8121
128.941 1639 40.4846
129.058 1669 40.8534
129.174 1637 40.4599
129.291 1641 40.5093
129.408 1460 38.2099
129.524 1342 36.6333
129.641 1180 34.3511
129.758 1198 34.6121
129.875 1054 32.4654
129.992 1102 33.1964
130.108 1093 33.0606
130.225 1206 34.7275
130.342 1440 37.9473
130.459 1505 38.7943
130.576 1603 40.0375
130.693 1615 40.1871
130.81 1651 40.6325
130.928 1683 41.0244
131.045 1776 42.1426
131.162 1796 42.3792
131.279 1818 42.638
131.396 1758 41.9285
131.513 1746 41.7852
131.631 1685 41.0488
131.748 1740 41.7133
131.865 1676 40.939
131.983 1717 41.4367
132.1 1717 41.4367
132.217 1646 40.5709
132.335 1608 40.0999
132.452 1699 41.2189
132.57 1636 40.4475
132.687 1589 39.8623
132.804 1575 39.6863
132.922 1509 38.8458
133.039 1452 38.1051
133.157 1342 36.6333
133.274 1199 34.6266
133.392 1129 33.6006
133.509 1080 32.8634
133.627 1092 33.0454
133.744 1103 33.2114
133.862 1288 35.8887
133.979 1353 36.7831
134.097 1500 38.7298
134.214 1436 37.8946
134.332 1556 39.4462
134.449 1561 39.5095
134.567 1710 41.3521
134.684 1793 42.3438
134.802 1702 41.2553
134.919 1751 41.845
135.037 1639 40.4846
135.154 1637 40.4599
135.272 1782 42.2137
135.389 1636 40.4475
135.507 1657 40.7063
135.624 1736 41.6653
135.742 1643 40.5339
135.859 1598 39.975
135.977 1630 40.3733
136.094 1642 40.5216
136.211 1678 40.9634
136.329 1612 40.1497
136.446 1634 40.4228
136.564 1549 39.3573
136.681 1422 37.7094
136.798 1283 35.819
136.915 1181 34.3657
137.033 1148 33.8821
137.15 1078 32.8329
137.267 1066 32.6497
137.384 1163 34.1028
137.502 1225 35
137.619 1362 36.9053
137.736 1432 37.8418
137.853 1497 38.6911
137.97 1520 38.9872
138.087 1607 40.0874
138.204 1692 41.1339
138.321 1741 41.7253
138.438 1827 42.7434
138.555 1821 42.6732
138.672 1820 42.6615
138.788 1768 42.0476
138.905 1728 41.5692
139.022 1823 42.6966
139.139 1817 42.6263
139.255 1773 42.107
139.372 1719 41.4608
139.488 1688 41.0853
139.605 1734 41.6413
139.721 1768 42.0476
139.838 1729 41.5812
139.954 1624 40.2989
140.071 1707 41.3159
140.187 1629 40.3609
140.303 1592 39.8999
140.419 1445 38.0132
140.535 1327 36.428
140.652 1200 34.641
140.768 0 1
140.884 0 1
141 0 1
141.115 0 1
141.231 0 1
141.347 0 1
141.463 0 1
141.578 0 1
141.694 0 1
144.104 0 1
144.219 0 1
144.335 0 1
144.45 0 1
144.566 0 1
144.682 0 1
144.798 0 1
144.914 0 1
145.03 0 1
145.146 1120 33.4664
145.262 1206 34.7275
145.378 1156 34
145.494 1117 33.4215
145.61 1020 31.9374
145.726 996 31.5595
145.842 939 30.6431
145.959 880 29.6648
146.075 889 29.8161
146.192 907 30.1164
146.308 919 30.315
146.425 993 31.5119
146.541 1034 32.1559
146.658 1161 34.0735
146.774 1226 35.0143
146.891 1317 36.2905
147.008 1303 36.0971
147.125 1240 35.2136
147.241 1358 36.8511
147.358 1376 37.0945
147.475 1363 36.9188
147.592 1350 36.7423
147.709 1297 36.0139
147.826 1363 36.9188
147.943 1372 37.0405
148.06 1283 35.819
148.177 1360 36.8782
148.294 1300 36.0555
148.411 1290 35.9166
148.528 1304 36.1109
148.645 1305 36.1248
148.762 1334 36.524
148.88 1310 36.1939
148.997 1287 35.8748
149.114 1273 35.6791
149.231 1186 34.4384
149.349 1037 32.2025
149.466 1060 32.5576
149.583 967 31.0966
149.701 898 29.9666
149.818 912 30.1993
149.935 898 29.9666
150.053 817 28.5832
150.17 956 30.9192
150.287 1051 32.4191
150.405 1073 32.7567
150.522 1112 33.3467
150.64 1220 34.9285
150.757 1286 35.8608
150.875 1289 35.9026
150.992 1337 36.565
151.11 1316 36.2767
151.227 1350 36.7423
151.344 1320 36.3318
151.462 1342 36.6333
151.579 1364 36.9324
151.697 1257 35.4542
151.814 1250 35.3553
151.932 1286 35.8608
152.049 1288 35.8887
152.167 1394 37.3363
152.284 1350 36.7423
152.402 1343 36.647
152.519 1263 35.5387
152.636 1343 36.647
152.754 1223 34.9714
152.871 1190 34.4964
152.989 1147 33.8674
153.106 1033 32.1403
153.223 1017 31.8904
153.341 938 30.6268
153.458 886 29.7658
153.575 917 30.282
153.693 980 31.305
153.81 987 31.4166
153.927 1101 33.1813
154.044 1225 35
154.162 1272 35.6651
154.279 1359 36.8646
154.396 1372 37.0405
154.513 1460 38.2099
154.63 1418 37.6563
154.747 1434 37.8682
154.864 1431 37.8286
154.981 1523 39.0256
155.098 1541 39.2556
155.215 1462 38.2361
155.332 1412 37.5766
155.449 1483 38.5097
155.566 1454 38.1314
155.683 1394 37.3363
155.8 1420 37.6829
155.917 1504 38.7814
156.033 1439 37.9342
156.15 0 1
156.267 0 1
156.383 0 1
156.5 0 1
156.617 0 1
156.733 0 1
156.85 0 1
156.966 0 1
157.082 0 1
157.199 0 1
157.315 0 1
157.431 0 1
157.547 0 1
157.664 0 1
157.78 0 1
157.896 0 1
158.012 0 1
158.128 0 1
158.244 0 1
158.359 0 1
158.475 0 1
158.591 0 1
158.706 0 1
