
6.15755 0 1
6.2731 0 1
6.3887 0 1
6.50437 0 1
6.62009 0 1
6.73587 0 1
6.8517 0 1
6.96759 0 1
7.08353 0 1
7.19952 0 1
7.31557 0 1
7.43166 0 1
7.54781 0 1
7.664 0 1
7.78024 0 1
7.89653 0 1
8.01286 0 1
8.12924 0 1
8.24567 0 1
8.36213 0 1
8.47864 0 1
8.59519 0 1
8.71178 0 1
8.82841 0 1
8.94508 0 1
9.06179 0 1
9.17853 0 1
9.29531 0 1
9.41212 0 1
9.52897 0 1
9.64584 0 1
9.76276 0 1
9.8797 0 1
9.99667 0 1
10.1137 0 1
10.2307 0 1
10.3478 0 1
10.4648 0 1
10.5819 0 1
10.6991 0 1
10.8162 0 1
10.9334 0 1
11.0506 0 1
11.1678 0 1
11.285 0 1
11.4023 0 1
11.5196 0 1
11.6369 0 1
11.7542 0 1
11.8715 0 1
11.9888 0 1
12.1062 0 1
12.2235 0 1
12.3409 0 1
12.4582 0 1
12.5756 0 1
12.693 0 1
12.8104 0 1
12.9278 0 1
13.0452 0 1
13.1626 0 1
13.28 0 1
13.3974 0 1
13.5149 0 1
13.6323 0 1
13.7497 0 1
13.8671 0 1
13.9845 0 1
14.1019 0 1
14.2193 0 1
14.3367 0 1
14.4541 0 1
14.5714 0 1
14.6888 0 1
14.8062 0 1
14.9235 0 1
15.0408 8401 91.657
15.1581 8957 94.6414
15.2755 9028 95.0158
15.3927 8794 93.7763
15.51 8842 94.0319
15.6273 9306 96.4676
15.7445 9499 97.4628
15.8617 9286 96.3639
15.9789 8960 94.6573
16.0961 8612 92.8009
16.2132 8462 91.9891
16.3304 8453 91.9402
16.4475 8171 90.3936
16.5646 8065 89.8053
16.6816 8029 89.6047
16.7986 8169 90.3825
16.9156 8144 90.2441
17.0326 8088 89.9333
17.1496 7958 89.2076
17.2665 8257 90.868
17.3833 8203 90.5704
17.5002 8401 91.657
17.617 8321 91.2195
17.7338 8570 92.5743
17.8505 8635 92.9247
17.9672 9028 95.0158
18.0839 9080 95.289
18.2005 9244 96.1457
18.3171 8948 94.5939
18.4337 8719 93.3756
18.5502 8640 92.9516
18.6666 8895 94.3133
18.7831 8428 91.8041
18.8994 7858 88.6454
19.0158 7573 87.023
19.1321 7928 89.0393
19.2483 8257 90.868
19.3645 8143 90.2386
19.4806 8434 91.8368
19.5967 8413 91.7224
19.7128 8518 92.293
19.8288 8684 93.188
19.9447 7700 87.7496
20.0606 0 1
20.1764 0 1
20.2922 0 1
20.4079 0 1
20.5236 0 1
20.6392 0 1
20.7548 0 1
20.8702 0 1
23.3078 0 1
23.4233 0 1
23.539 0 1
23.6547 0 1
23.7704 0 1
23.8862 0 1
24.0021 0 1
24.118 0 1
24.234 0 1
24.35 0 1
24.4661 8662 93.0699
24.5822 9058 95.1735
24.6984 9397 96.9381
24.8146 9617 98.0663
24.9309 9674 98.3565
25.0472 9880 99.3982
25.1636 9866 99.3277
25.28 9969 99.8449
25.3965 10165 100.822
25.513 10165 100.822
25.6296 10221 101.099
25.7462 9966 99.8299
25.8628 9978 99.8899
25.9795 9686 98.4175
26.0962 9408 96.9948
26.213 9596 97.9592
26.3298 9366 96.7781
26.4466 9366 96.7781
26.5635 9242 96.1353
26.6804 9205 95.9427
26.7973 9111 95.4516
26.9143 9176 95.7914
27.0313 8724 93.4024
27.1483 8411 91.7115
27.2653 8213 90.6256
27.3824 8348 91.3674
27.4996 8499 92.19
27.6167 8189 90.4931
27.7339 7693 87.7097
27.8511 7849 88.5946
27.9683 8618 92.8332
28.0855 9391 96.9072
28.2028 9559 97.7701
28.3201 9468 97.3036
28.4374 9550 97.7241
28.5547 9336 96.623
28.6721 9292 96.395
28.7894 9402 96.9639
28.9068 9138 95.5929
29.0242 8925 94.4722
29.1416 9010 94.921
29.259 8907 94.3769
29.3764 8698 93.2631
29.4939 8939 94.5463
29.6113 8845 94.0479
29.7288 8725 93.4077
29.8463 8953 94.6203
29.9638 9034 95.0474
30.0812 8888 94.2762
30.1987 8882 94.2444
30.3162 8945 94.578
30.4337 8926 94.4775
30.5512 8694 93.2416
30.6687 8362 91.444
30.7862 8253 90.846
30.9037 8298 91.0934
31.0212 8671 93.1182
31.1387 8732 93.4452
31.2562 8541 92.4175
31.3737 8319 91.2086
31.4912 8964 94.6784
31.6087 9580 97.8775
31.7262 9431 97.1133
31.8436 9396 96.933
31.9611 9211 95.974
32.0785 9100 95.3939
32.1959 8970 94.7101
32.3134 8922 94.4563
32.4308 8570 92.5743
32.5482 8756 93.5735
32.6655 8450 91.9239
32.7829 8623 92.8601
32.9002 8275 90.967
33.0176 8234 90.7414
33.1349 8409 91.7006
33.2522 8537 92.3959
33.3694 8262 90.8955
33.4867 8349 91.3729
33.6039 8595 92.7092
33.7211 8636 92.9301
33.8383 8743 93.504
33.9554 8820 93.9149
34.0725 9109 95.4411
34.1896 9090 95.3415
34.3067 8726 93.4131
34.4237 8033 89.627
34.5407 8143 90.2386
34.6577 8547 92.45
34.7746 8114 90.0777
34.8915 7778 88.193
35.0084 7465 86.4002
35.1252 7659 87.5157
35.242 8266 90.9175
35.3587 8713 93.3435
35.4755 8856 94.1063
35.5921 8678 93.1558
35.7088 8914 94.414
35.8254 8675 93.1397
35.9419 8767 93.6323
36.0584 8737 93.4719
36.1749 8477 92.0706
36.2913 8502 92.2063
36.4077 8376 91.5205
36.524 8385 91.5696
36.6403 8376 91.5205
36.7565 8322 91.225
36.8727 8230 90.7193
36.9889 8322 91.225
37.1049 8401 91.657
37.221 0 1
37.3369 0 1
37.4529 0 1
37.5687 0 1
37.6845 0 1
37.8003 0 1
37.916 0 1
38.0316 0 1
38.1472 0 1
40.5851 0 1
40.7008 0 1
40.8164 0 1
40.9322 0 1
41.048 0 1
41.1639 0 1
41.2798 0 1
41.3958 0 1
41.5118 0 1
41.6279 0 1
41.744 6743 82.1158
41.8602 6931 83.2526
41.9765 7207 84.8941
42.0928 7026 83.8212
42.2091 7251 85.1528
42.3255 7106 84.2971
42.4419 6919 83.1805
42.5584 6861 82.8312
42.675 6897 83.0482
42.7915 6877 82.9277
42.9081 6847 82.7466
43.0248 6581 81.1234
43.1415 6207 78.7845
43.2582 5845 76.4526
43.375 5784 76.0526
43.4918 5865 76.5833
43.6087 5926 76.9805
43.7256 5613 74.92
43.8425 5213 72.2011
43.9595 5307 72.8492
44.0765 5636 75.0733
44.1935 6037 77.6981
44.3106 5921 76.948
44.4277 6119 78.224
44.5448 5952 77.1492
44.6619 6013 77.5435
44.7791 5931 77.013
44.8963 5725 75.6637
45.0136 5658 75.2197
45.1308 5881 76.6877
45.2481 5681 75.3724
45.3654 5654 75.1931
45.4827 5628 75.02
45.6001 5725 75.6637
45.7174 5628 75.02
45.8348 5449 73.8173
45.9522 5437 73.736
46.0697 5358 73.1984
46.1871 5252 72.4707
46.3046 5312 72.8835
46.422 5147 71.7426
46.5395 5121 71.5612
46.657 5109 71.4773
46.7745 4684 68.4398
46.892 4495 67.0448
47.0096 4558 67.513
47.1271 4748 68.9057
47.2446 4639 68.1102
47.3622 4396 66.3023
47.4797 4141 64.3506
47.5973 4217 64.9384
47.7149 4635 68.0808
47.8324 4505 67.1193
47.95 4638 68.1029
48.0675 4493 67.0298
48.1851 4623 67.9926
48.3027 4430 66.5582
48.4202 4562 67.5426
48.5378 4586 67.72
48.6554 4395 66.2948
48.7729 4511 67.164
48.8904 4539 67.3721
49.008 4393 66.2797
49.1255 4452 66.7233
49.243 4379 66.174
49.3605 4439 66.6258
49.478 4462 66.7982
49.5955 4388 66.242
49.713 4364 66.0606
49.8304 4419 66.4756
49.9479 4341 65.8863
50.0653 4406 66.3777
50.1827 4229 65.0308
50.3001 3956 62.8967
50.4175 3860 62.1289
50.5348 3958 62.9126
50.6521 3990 63.1664
50.7694 4205 64.846
50.8867 3963 62.9524
51.004 3893 62.3939
51.1212 4174 64.6065
51.2384 4769 69.0579
51.3556 4897 69.9786
51.4727 5031 70.9295
51.5899 5174 71.9305
51.707 5362 73.2257
51.824 5233 72.3395
51.9411 5357 73.1915
52.0581 5566 74.6056
52.175 5591 74.773
52.2919 5591 74.773
52.4088 5731 75.7034
52.5257 5889 76.7398
52.6425 6068 77.8974
52.7593 6111 78.1729
52.876 6061 77.8524
52.9927 6450 80.3119
53.1094 6216 78.8416
53.226 6372 79.8248
53.3426 6505 80.6536
53.4591 6479 80.4922
53.5756 6617 81.3449
53.692 6649 81.5414
53.8084 6664 81.6333
53.9248 6383 79.8937
54.0411 6096 78.0769
54.1573 6187 78.6575
54.2735 0 1
54.3896 0 1
54.5057 0 1
54.6217 0 1
54.7377 0 1
54.8537 0 1
54.9695 0 1
55.0853 0 1
55.2011 0 1
55.3168 0 1
55.4324 0 1
57.824 0 1
57.9396 0 1
58.0553 0 1
58.1711 0 1
58.2869 0 1
58.4028 0 1
58.5187 0 1
58.6347 0 1
58.7508 0 1
58.8669 0 1
58.983 7573 87.023
59.0992 7558 86.9368
59.2155 7269 85.2584
59.3318 7241 85.0941
59.4482 7218 84.9588
59.5646 7080 84.1427
59.681 7062 84.0357
59.7975 7153 84.5754
59.9141 7381 85.9127
60.0306 7767 88.1306
60.1473 7848 88.5889
60.2639 7929 89.0449
60.3807 7916 88.9719
60.4974 8033 89.627
60.6142 7886 88.8032
60.731 7898 88.8707
60.8479 7698 87.7382
60.9648 7784 88.227
61.0818 7820 88.4308
61.1987 7751 88.0398
61.3158 7641 87.4128
61.4328 7661 87.5271
61.5499 7527 86.7583
61.667 7514 86.6833
61.7841 7665 87.55
61.9013 7590 87.1206
62.0185 7438 86.2438
62.1357 7338 85.6621
62.253 7422 86.151
62.3702 7295 85.4108
62.4875 6895 83.0361
62.6049 6695 81.823
62.7222 6570 81.0555
62.8396 6573 81.074
62.9569 6522 80.7589
63.0743 6409 80.0562
63.1918 6495 80.5916
63.3092 6364 79.7747
63.4267 6563 81.0123
63.5441 6647 81.5291
63.6616 6946 83.3427
63.7791 7188 84.7821
63.8966 6970 83.4865
64.0142 7004 83.6899
64.1317 6940 83.3067
64.2492 6946 83.3427
64.3668 7005 83.6959
64.4843 6930 83.2466
64.6019 6940 83.3067
64.7195 6770 82.28
64.837 6891 83.012
64.9546 6921 83.1925
65.0722 6974 83.5105
65.1898 6690 81.7924
65.3074 6955 83.3966
65.4249 6738 82.0853
65.5425 6848 82.7526
65.6601 6746 82.134
65.7777 6763 82.2375
65.8952 6624 81.388
66.0128 6485 80.5295
66.1304 6441 80.2558
66.2479 6159 78.4793
66.3655 5922 76.9545
66.483 6131 78.3007
66.6005 6131 78.3007
66.718 5804 76.184
66.8355 5770 75.9605
66.953 5969 77.2593
67.0705 6291 79.3158
67.1879 6713 81.9329
67.3054 6836 82.6801
67.4228 6851 82.7708
67.5402 6853 82.7828
67.6576 6818 82.5712
67.7749 6969 83.4805
67.8923 6921 83.1925
68.0096 6970 83.4865
68.1269 6872 82.8975
68.2442 6838 82.6922
68.3614 6863 82.8432
68.4787 7191 84.7998
68.5958 7030 83.8451
68.713 7175 84.7054
68.8302 7168 84.664
68.9473 7104 84.2852
69.0643 7366 85.8254
69.1814 7363 85.8079
69.2984 7207 84.8941
69.4154 7351 85.738
69.5323 7335 85.6446
69.6492 7346 85.7088
69.7661 7105 84.2912
69.8829 6897 83.0482
69.9997 6878 82.9337
70.1165 6837 82.6862
70.2332 6831 82.6499
70.3499 6700 81.8535
70.4665 6563 81.0123
70.5831 6671 81.6762
70.6996 6823 82.6015
70.8161 7236 85.0647
70.9326 7507 86.6429
71.049 7497 86.5852
71.1653 7581 87.0689
71.2817 7664 87.5443
71.3979 7612 87.2468
71.5141 7482 86.4986
71.6303 7234 85.0529
71.7464 6484 80.5233
71.8624 0 1
71.9784 0 1
72.0944 0 1
72.2102 0 1
72.3261 0 1
72.4418 0 1
72.5575 0 1
72.6732 0 1
75.1054 0 1
75.2209 0 1
75.3365 0 1
75.4521 0 1
75.5678 0 1
75.6835 0 1
75.7993 0 1
75.9151 0 1
76.031 0 1
76.147 6694 81.8169
76.263 7690 87.6926
76.3791 7960 89.2188
76.4952 8057 89.7608
76.6113 7875 88.7412
76.7276 8097 89.9833
76.8438 7768 88.1363
76.9601 7780 88.2043
77.0765 7968 89.2637
77.1929 7991 89.3924
77.3093 7795 88.2893
77.4258 7822 88.4421
77.5423 7821 88.4364
77.6589 7696 87.7268
77.7755 7812 88.3855
77.8921 7893 88.8426
78.0088 7618 87.2812
78.1256 7738 87.9659
78.2423 7593 87.1378
78.3591 7657 87.5043
78.4759 7876 88.7468
78.5928 7614 87.2582
78.7097 7545 86.862
78.8266 6882 82.9578
78.9436 6831 82.6499
79.0606 6130 78.2943
79.1776 6324 79.5236
79.2946 6464 80.399
79.4117 6467 80.4177
79.5288 6211 78.8099
79.6459 6245 79.0253
79.7631 6529 80.8022
79.8802 6924 83.2106
79.9974 7136 84.4748
80.1147 7106 84.2971
80.2319 7052 83.9762
80.3491 6926 83.2226
80.4664 6977 83.5284
80.5837 7008 83.7138
80.701 6864 82.8493
80.8183 6887 82.988
80.9357 6931 83.2526
81.053 6753 82.1766
81.1704 6963 83.4446
81.2877 6839 82.6982
81.4051 6895 83.0361
81.5225 6781 82.3468
81.6399 6869 82.8794
81.7573 6813 82.5409
81.8747 6773 82.2982
81.9922 6775 82.3104
82.1096 6604 81.265
82.227 6613 81.3204
82.3444 6194 78.702
82.4619 6505 80.6536
82.5793 6136 78.3326
82.6967 5498 74.1485
82.8142 5456 73.8647
82.9316 5488 74.081
83.049 5395 73.4507
83.1664 5177 71.9514
83.2838 5100 71.4143
83.4012 5235 72.3533
83.5186 5724 75.6571
83.636 6131 78.3007
83.7534 6203 78.7591
83.8708 6110 78.1665
83.9881 6075 77.9423
84.1055 6169 78.543
84.2228 6103 78.1217
84.3401 6259 79.1138
84.4575 6106 78.1409
84.5747 6107 78.1473
84.692 6262 79.1328
84.8093 6090 78.0385
84.9265 6160 78.4857
85.0437 6245 79.0253
85.1609 6507 80.666
85.2781 6496 80.5978
85.3952 6257 79.1012
85.5123 6497 80.604
85.6294 6598 81.2281
85.7465 6566 81.0309
85.8636 6524 80.7713
85.9806 6527 80.7899
86.0976 6247 79.038
86.2145 5998 77.4468
86.3315 5946 77.1103
86.4484 5924 76.9675
86.5652 6367 79.7935
86.682 6330 79.5613
86.7988 6156 78.4602
86.9156 5910 76.8765
87.0323 6394 79.9625
87.149 6922 83.1986
87.2657 7216 84.947
87.3823 7121 84.386
87.4988 7226 85.0059
87.6154 7374 85.872
87.7318 7349 85.7263
87.8483 7551 86.8965
87.9647 7446 86.2902
88.081 7507 86.6429
88.1973 7592 87.1321
88.3136 7648 87.4528
88.4298 7719 87.8578
88.546 7775 88.176
88.6621 7893 88.8426
88.7781 7815 88.4025
88.8942 0 1
89.0101 0 1
89.126 0 1
89.2419 0 1
89.3577 0 1
89.4734 0 1
89.5891 0 1
89.7047 0 1
89.8203 0 1
89.9358 0 1
92.3269 0 1
92.4424 0 1
92.558 0 1
92.6736 0 1
92.7893 0 1
92.905 0 1
93.0208 0 1
93.1366 0 1
93.2525 0 1
93.3685 0 1
93.4845 0 1
93.6005 7816 88.4081
93.7167 8017 89.5377
93.8328 7745 88.0057
93.949 7785 88.2326
94.0653 7984 89.3532
94.1816 7995 89.4148
94.2979 7923 89.0112
94.4143 7978 89.3197
94.5307 7840 88.5438
94.6472 7817 88.4138
94.7637 7840 88.5438
94.8803 7876 88.7468
94.9969 7704 87.7724
95.1135 7760 88.0909
95.2302 7451 86.3192
95.3469 7309 85.4927
95.4637 6994 83.6301
95.5805 6906 83.1023
95.6973 6948 83.3547
95.8142 7000 83.666
95.9311 6753 82.1766
96.048 6676 81.7068
96.1649 6863 82.8432
96.2819 7181 84.7408
96.3989 7666 87.5557
96.516 7939 89.1011
96.633 7864 88.6792
96.7501 7926 89.0281
96.8673 8053 89.7385
96.9844 7981 89.3364
97.1016 7897 88.8651
97.2188 7958 89.2076
97.336 7981 89.3364
97.4532 7823 88.4477
97.5704 7792 88.2723
97.6877 7809 88.3685
97.805 7972 89.2861
97.9223 7780 88.2043
98.0396 7781 88.21
98.1569 7804 88.3403
98.2743 7815 88.4025
98.3916 7708 87.7952
98.509 7766 88.1249
98.6264 7791 88.2666
98.7438 7692 87.704
98.8612 7455 86.3423
98.9786 7430 86.1974
99.096 6920 83.1865
99.2134 6965 83.4566
99.3308 7203 84.8705
99.4482 7443 86.2728
99.5656 7201 84.8587
99.6831 7010 83.7257
99.8005 7086 84.1784
99.9179 7450 86.3134
100.035 7661 87.5271
100.153 7747 88.017
100.27 7832 88.4986
100.388 7725 87.892
100.505 7877 88.7525
100.622 7736 87.9545
100.74 7886 88.8032
100.857 8006 89.4763
100.975 7909 88.9326
101.092 7804 88.3403
101.209 7914 88.9607
101.327 8042 89.6772
101.444 7919 88.9888
101.561 8152 90.2884
101.679 7938 89.0955
101.796 7868 88.7017
101.913 8037 89.6493
102.03 8261 90.89
102.148 8223 90.6808
102.265 7901 88.8876
102.382 8191 90.5041
102.499 7747 88.017
102.616 7338 85.6621
102.733 7078 84.1309
102.851 7589 87.1149
102.968 7587 87.1034
103.085 7515 86.6891
103.202 7243 85.1058
103.319 7210 84.9117
103.436 7451 86.3192
103.552 8119 90.1055
103.669 8157 90.3161
103.786 8212 90.6201
103.903 8296 91.0824
104.02 8417 91.7442
104.137 8437 91.8531
104.253 8408 91.6951
104.37 8653 93.0215
104.487 8507 92.2334
104.603 8464 92
104.72 8661 93.0645
104.836 8789 93.7497
104.953 8685 93.1933
105.069 8626 92.8763
105.186 8673 93.1289
105.302 8788 93.7443
105.418 8916 94.4246
105.535 8910 94.3928
105.651 9120 95.4987
105.767 8972 94.7206
105.883 8838 94.0106
105.999 8335 91.2962
106.115 0 1
106.231 0 1
106.347 0 1
106.463 0 1
106.579 0 1
106.694 0 1
106.81 0 1
106.926 0 1
107.041 0 1
107.157 0 1
109.576 0 1
109.692 0 1
109.807 0 1
109.923 0 1
110.039 0 1
110.155 0 1
110.27 0 1
110.386 0 1
110.502 0 1
110.618 8534 92.3797
110.735 8636 92.9301
110.851 8678 93.1558
110.967 8632 92.9086
111.083 8503 92.2117
111.199 8019 89.5489
111.316 7951 89.1684
111.432 8134 90.1887
111.549 7877 88.7525
111.665 7737 87.9602
111.782 7432 86.209
111.898 7427 86.18
112.015 7901 88.8876
112.132 8255 90.857
112.248 8436 91.8477
112.365 8496 92.1737
112.482 8153 90.294
112.599 8769 93.6429
112.716 8311 91.1647
112.832 8621 92.8493
112.949 8545 92.4392
113.066 8234 90.7414
113.183 8414 91.7279
113.3 8417 91.7442
113.417 8304 91.1263
113.534 8389 91.5915
113.652 8341 91.3291
113.769 8350 91.3783
113.886 8385 91.5696
114.003 8294 91.0714
114.12 8384 91.5642
114.238 8543 92.4284
114.355 8496 92.1737
114.472 8122 90.1221
114.589 8364 91.4549
114.707 7547 86.8735
114.824 7340 85.6738
114.942 7515 86.6891
115.059 7672 87.59
115.176 7635 87.3785
115.294 7381 85.9127
115.411 7187 84.7762
115.529 7524 86.741
115.646 8020 89.5545
115.764 8220 90.6642
115.881 8343 91.34
115.999 8288 91.0385
116.116 8319 91.2086
116.234 8267 90.923
116.351 8257 90.868
116.469 8240 90.7744
116.586 8333 91.2853
116.704 8569 92.5689
116.821 8466 92.0109
116.939 8553 92.4824
117.056 8542 92.4229
117.174 8405 91.6788
117.291 8384 91.5642
117.409 8512 92.2605
117.526 8431 91.8205
117.644 8547 92.45
117.761 8450 91.9239
117.879 8660 93.0591
117.996 8270 90.9395
118.114 8529 92.3526
118.231 8434 91.8368
118.349 7823 88.4477
118.466 7580 87.0632
118.584 7946 89.1403
118.701 7897 88.8651
118.819 7541 86.8389
118.936 7320 85.557
119.053 7322 85.5687
119.171 7468 86.4176
119.288 8130 90.1665
119.405 8299 91.0988
119.523 8376 91.5205
119.64 8638 92.9408
119.757 8570 92.5743
119.875 8473 92.0489
119.992 8217 90.6477
120.109 8491 92.1466
120.226 8507 92.2334
120.343 8345 91.351
120.46 8483 92.1032
120.578 8398 91.6406
120.695 8497 92.1792
120.812 8379 91.5369
120.929 8360 91.433
121.046 8482 92.0978
121.163 8575 92.6013
121.279 8531 92.3634
121.396 8614 92.8116
121.513 8643 92.9677
121.63 8885 94.2603
121.747 8698 93.2631
121.863 8466 92.0109
121.98 8104 90.0222
122.097 7852 88.6115
122.213 7731 87.9261
122.33 7762 88.1022
122.446 7712 87.818
122.563 7474 86.4523
122.679 7145 84.5281
122.795 7208 84.8999
122.912 7516 86.6949
123.028 8014 89.5209
123.144 8219 90.6587
123.26 8415 91.7333
123.377 0 1
123.493 0 1
123.609 0 1
123.725 0 1
123.84 0 1
123.956 0 1
124.072 0 1
124.188 0 1
124.303 0 1
124.419 0 1
126.852 0 1
126.968 0 1
127.083 0 1
127.199 0 1
127.315 0 1
127.431 0 1
127.547 0 1
127.663 0 1
127.779 0 1
127.895 0 1
128.011 0 1
128.127 0 1
128.243 0 1
128.359 9051 95.1367
128.476 9180 95.8123
128.592 9285 96.3587
128.708 9441 97.1648
128.825 9373 96.8143
128.941 9376 96.8297
129.058 9503 97.4833
129.174 9345 96.6695
129.291 9673 98.3514
129.408 9880 99.3982
129.524 9447 97.1957
129.641 9398 96.9433
129.758 9469 97.3088
129.875 9703 98.5038
129.992 9583 97.8928
130.108 9483 97.3807
130.225 9760 98.7927
130.342 9472 97.3242
130.459 9190 95.8645
130.576 9746 98.7218
130.693 9602 97.9898
130.81 9427 97.0927
130.928 8756 93.5735
131.045 8204 90.5759
131.162 8239 90.7689
131.279 8613 92.8062
131.396 8564 92.5419
131.513 8193 90.5152
131.631 8129 90.161
131.748 8513 92.2659
131.865 9016 94.9526
131.983 9336 96.623
132.1 9491 97.4218
132.217 9471 97.3191
132.335 9411 97.0103
132.452 9628 98.1224
132.57 9596 97.9592
132.687 9293 96.4002
132.804 9669 98.3311
132.922 9626 98.1122
133.039 9521 97.5756
133.157 9421 97.0618
133.274 9511 97.5244
133.392 9480 97.3653
133.509 9473 97.3293
133.627 9341 96.6488
133.744 9369 96.7936
133.862 9453 97.2265
133.979 9449 97.206
134.097 9209 95.9635
134.214 9208 95.9583
134.332 9454 97.2317
134.449 9069 95.2313
134.567 8348 91.3674
134.684 8178 90.4323
134.802 8613 92.8062
134.919 8514 92.2713
135.037 8339 91.3181
135.154 7901 88.8876
135.272 8229 90.7138
135.389 8718 93.3702
135.507 9342 96.654
135.624 9535 97.6473
135.742 9428 97.0979
135.859 9570 97.8264
135.977 9665 98.3107
136.094 9713 98.5546
136.211 9729 98.6357
136.329 9558 97.765
136.446 9614 98.051
136.564 9713 98.5546
136.681 9465 97.2882
136.798 9627 98.1173
136.915 9518 97.5602
137.033 9425 97.0824
137.15 9428 97.0979
137.267 9314 96.5091
137.384 9370 96.7988
137.502 9416 97.0361
137.619 9194 95.8853
137.736 9308 96.478
137.853 9093 95.3572
137.97 9452 97.2214
138.087 8919 94.4405
138.204 8523 92.3201
138.321 8281 91
138.438 8617 92.8278
138.555 8898 94.3292
138.672 8644 92.9731
138.788 8374 91.5096
138.905 8571 92.5797
139.022 8913 94.4087
139.139 9567 97.811
139.255 9656 98.2649
139.372 9724 98.6103
139.488 9739 98.6864
139.605 9720 98.5901
139.721 9506 97.4987
139.838 9547 97.7088
139.954 9712 98.5495
140.071 9413 97.0206
140.187 9625 98.1071
140.303 9610 98.0306
140.419 9517 97.5551
140.535 9577 97.8621
140.652 9227 96.0573
140.768 0 1
140.884 0 1
141 0 1
141.115 0 1
141.231 0 1
141.347 0 1
141.463 0 1
141.578 0 1
141.694 0 1
144.104 0 1
144.219 0 1
144.335 0 1
144.45 0 1
144.566 0 1
144.682 0 1
144.798 0 1
144.914 0 1
145.03 0 1
145.146 6114 78.1921
145.262 6724 82
145.378 6795 82.4318
145.494 7002 83.678
145.61 6897 83.0482
145.726 7065 84.0536
145.842 7260 85.2056
145.959 7208 84.8999
146.075 7374 85.872
146.192 7446 86.2902
146.308 7617 87.2754
146.425 7770 88.1476
146.541 7915 88.9663
146.658 7945 89.1347
146.774 7942 89.1179
146.891 8055 89.7497
147.008 7689 87.6869
147.125 7115 84.3505
147.241 7390 85.9651
147.358 7217 84.9529
147.475 7539 86.8274
147.592 7097 84.2437
147.709 6823 82.6015
147.826 6911 83.1324
147.943 7114 84.3445
148.06 7542 86.8447
148.177 7587 87.1034
148.294 7431 86.2032
148.411 7453 86.3308
148.528 7339 85.668
148.645 7305 85.4693
148.762 7274 85.2877
148.88 7058 84.0119
148.997 7247 85.1293
149.114 7493 86.5621
149.231 7301 85.4459
149.349 7264 85.2291
149.466 7500 86.6025
149.583 7389 85.9593
149.701 7446 86.2902
149.818 7743 87.9943
149.935 7770 88.1476
150.053 8048 89.7106
150.17 7989 89.3812
150.287 8056 89.7552
150.405 8329 91.2634
150.522 8054 89.7441
150.64 7896 88.8594
150.757 7613 87.2525
150.875 7389 85.9593
150.992 6979 83.5404
151.11 7146 84.534
151.227 7001 83.672
151.344 6640 81.4862
151.462 6566 81.0309
151.579 7005 83.6959
151.697 7170 84.6759
151.814 7316 85.5336
151.932 7641 87.4128
152.049 7508 86.6487
152.167 7711 87.8123
152.284 7760 88.0909
152.402 7692 87.704
152.519 7666 87.5557
152.636 7712 87.818
152.754 7711 87.8123
152.871 7916 88.9719
152.989 7990 89.3868
153.106 8216 90.6422
153.223 8135 90.1942
153.341 8119 90.1055
153.458 8339 91.3181
153.575 8191 90.5041
153.693 8247 90.813
153.81 8282 91.0055
153.927 8400 91.6515
154.044 8440 91.8695
154.162 8353 91.3947
154.279 7961 89.2244
154.396 7549 86.885
154.513 7228 85.0176
154.63 7267 85.2467
154.747 7581 87.0689
154.864 7259 85.1998
154.981 7336 85.6505
155.098 7201 84.8587
155.215 7605 87.2067
155.332 8068 89.822
155.449 8186 90.4765
155.566 8222 90.6752
155.683 8218 90.6532
155.8 8464 92
155.917 8372 91.4986
156.033 8526 92.3363
156.15 0 1
156.267 0 1
156.383 0 1
156.5 0 1
156.617 0 1
156.733 0 1
156.85 0 1
156.966 0 1
157.082 0 1
157.199 0 1
157.315 0 1
157.431 0 1
157.547 0 1
157.664 0 1
157.78 0 1
157.896 0 1
158.012 0 1
158.128 0 1
158.244 0 1
158.359 0 1
158.475 0 1
158.591 0 1
158.706 0 1
