
6.15755 0 1
6.2731 0 1
6.3887 0 1
6.50437 0 1
6.62009 0 1
6.73587 0 1
6.8517 0 1
6.96759 0 1
7.08353 0 1
7.19952 0 1
7.31557 0 1
7.43166 0 1
7.54781 0 1
7.664 0 1
7.78024 0 1
7.89653 0 1
8.01286 0 1
8.12924 0 1
8.24567 0 1
8.36213 0 1
8.47864 0 1
8.59519 0 1
8.71178 0 1
8.82841 0 1
8.94508 0 1
9.06179 0 1
9.17853 0 1
9.29531 0 1
9.41212 0 1
9.52897 0 1
9.64584 0 1
9.76276 0 1
9.8797 0 1
9.99667 0 1
10.1137 0 1
10.2307 0 1
10.3478 0 1
10.4648 0 1
10.5819 0 1
10.6991 0 1
10.8162 0 1
10.9334 0 1
11.0506 0 1
11.1678 0 1
11.285 0 1
11.4023 0 1
11.5196 0 1
11.6369 0 1
11.7542 0 1
11.8715 0 1
11.9888 0 1
12.1062 0 1
12.2235 0 1
12.3409 0 1
12.4582 0 1
12.5756 0 1
12.693 0 1
12.8104 0 1
12.9278 0 1
13.0452 0 1
13.1626 0 1
13.28 0 1
13.3974 0 1
13.5149 0 1
13.6323 0 1
13.7497 0 1
13.8671 0 1
13.9845 0 1
14.1019 0 1
14.2193 0 1
14.3367 0 1
14.4541 0 1
14.5714 0 1
14.6888 0 1
14.8062 0 1
14.9235 0 1
15.0408 0 0
15.1581 0 0
15.2755 0 0
15.3927 0 0
15.51 0 0
15.6273 0 0
15.7445 0 0
15.8617 0 0
15.9789 0 0
16.0961 0 0
16.2132 0 0
16.3304 0 0
16.4475 0 0
16.5646 0 0
16.6816 0 0
16.7986 0 0
16.9156 0 0
17.0326 0 0
17.1496 0 0
17.2665 0 0
17.3833 0 0
17.5002 0 0
17.617 0 0
17.7338 0 0
17.8505 0 0
17.9672 0 0
18.0839 0 0
18.2005 0 0
18.3171 0 0
18.4337 0 0
18.5502 0 0
18.6666 0 0
18.7831 0 0
18.8994 0 0
19.0158 0 0
19.1321 0 0
19.2483 0 0
19.3645 0 0
19.4806 0 0
19.5967 0 0
19.7128 0 0
19.8288 0 0
19.9447 0 0
20.0606 0 1
20.1764 0 1
20.2922 0 1
20.4079 0 1
20.5236 0 1
20.6392 0 1
20.7548 0 1
20.8702 0 1
23.3078 0 1
23.4233 0 1
23.539 0 1
23.6547 0 1
23.7704 0 1
23.8862 0 1
24.0021 0 1
24.118 0 1
24.234 0 1
24.35 0 1
24.4661 1252 35.3836
24.5822 1248 35.327
24.6984 1218 34.8999
24.8146 1255 35.426
24.9309 1279 35.7631
25.0472 1329 36.4555
25.1636 1316 36.2767
25.28 1346 36.6879
25.3965 1422 37.7094
25.513 1357 36.8375
25.6296 1399 37.4032
25.7462 1430 37.8153
25.8628 1411 37.5633
25.9795 1433 37.855
26.0962 1413 37.5899
26.213 1400 37.4166
26.3298 1403 37.4566
26.4466 1428 37.7889
26.5635 1360 36.8782
26.6804 1332 36.4966
26.7973 1312 36.2215
26.9143 1281 35.7911
27.0313 1158 34.0294
27.1483 1194 34.5543
27.2653 1285 35.8469
27.3824 1291 35.9305
27.4996 1292 35.9444
27.6167 1270 35.6371
27.7339 1206 34.7275
27.8511 1223 34.9714
27.9683 1183 34.3948
28.0855 1153 33.9559
28.2028 1315 36.2629
28.3201 1174 34.2637
28.4374 1237 35.171
28.5547 1208 34.7563
28.6721 1262 35.5246
28.7894 1239 35.1994
28.9068 1226 35.0143
29.0242 1275 35.7071
29.1416 1279 35.7631
29.259 1282 35.805
29.3764 1326 36.4143
29.4939 1330 36.4692
29.6113 1247 35.3129
29.7288 1281 35.7911
29.8463 1313 36.2353
29.9638 1337 36.565
30.0812 1264 35.5528
30.1987 1302 36.0832
30.3162 1200 34.641
30.4337 1183 34.3948
30.5512 1160 34.0588
30.6687 1092 33.0454
30.7862 1134 33.6749
30.9037 1130 33.6155
31.0212 1212 34.8138
31.1387 1278 35.7491
31.2562 1146 33.8526
31.3737 1165 34.1321
31.4912 1092 33.0454
31.6087 1151 33.9264
31.7262 1137 33.7194
31.8436 1141 33.7787
31.9611 1170 34.2053
32.0785 1185 34.4238
32.1959 1240 35.2136
32.3134 1216 34.8712
32.4308 1232 35.0999
32.5482 1279 35.7631
32.6655 1252 35.3836
32.7829 1249 35.3412
32.9002 1265 35.5668
33.0176 1246 35.2987
33.1349 1256 35.4401
33.2522 1292 35.9444
33.3694 1206 34.7275
33.4867 1180 34.3511
33.6039 1280 35.7771
33.7211 1222 34.9571
33.8383 1251 35.3695
33.9554 1264 35.5528
34.0725 1178 34.322
34.1896 1142 33.7935
34.3067 1111 33.3317
34.4237 1085 32.9393
34.5407 1121 33.4813
34.6577 1124 33.5261
34.7746 1083 32.909
34.8915 1100 33.1662
35.0084 1069 32.6956
35.1252 1112 33.3467
35.242 1115 33.3916
35.3587 1081 32.8786
35.4755 1066 32.6497
35.5921 1113 33.3617
35.7088 1141 33.7787
35.8254 1167 34.1614
35.9419 1234 35.1283
36.0584 1220 34.9285
36.1749 1191 34.5109
36.2913 1194 34.5543
36.4077 1255 35.426
36.524 1178 34.322
36.6403 1180 34.3511
36.7565 1189 34.4819
36.8727 1211 34.7994
36.9889 1235 35.1426
37.1049 1209 34.7707
37.221 0 1
37.3369 0 1
37.4529 0 1
37.5687 0 1
37.6845 0 1
37.8003 0 1
37.916 0 1
38.0316 0 1
38.1472 0 1
40.5851 0 1
40.7008 0 1
40.8164 0 1
40.9322 0 1
41.048 0 1
41.1639 0 1
41.2798 0 1
41.3958 0 1
41.5118 0 1
41.6279 0 1
41.744 982 31.3369
41.8602 1029 32.078
41.9765 1043 32.2955
42.0928 958 30.9516
42.2091 1052 32.4345
42.3255 992 31.496
42.4419 1029 32.078
42.5584 995 31.5436
42.675 981 31.3209
42.7915 1033 32.1403
42.9081 929 30.4795
43.0248 872 29.5296
43.1415 861 29.3428
43.2582 910 30.1662
43.375 912 30.1993
43.4918 966 31.0805
43.6087 939 30.6431
43.7256 911 30.1828
43.8425 914 30.2324
43.9595 905 30.0832
44.0765 838 28.9482
44.1935 864 29.3939
44.3106 902 30.0333
44.4277 915 30.249
44.5448 934 30.5614
44.6619 904 30.0666
44.7791 885 29.7489
44.8963 915 30.249
45.0136 922 30.3645
45.1308 898 29.9666
45.2481 936 30.5941
45.3654 864 29.3939
45.4827 851 29.1719
45.6001 842 29.0172
45.7174 817 28.5832
45.8348 835 28.8964
45.9522 855 29.2404
46.0697 849 29.1376
46.1871 840 28.9828
46.3046 794 28.178
46.422 776 27.8568
46.5395 730 27.0185
46.657 685 26.1725
46.7745 647 25.4362
46.892 665 25.7876
47.0096 685 26.1725
47.1271 724 26.9072
47.2446 715 26.7395
47.3622 669 25.865
47.4797 642 25.3377
47.5973 652 25.5343
47.7149 624 24.98
47.8324 674 25.9615
47.95 647 25.4362
48.0675 700 26.4575
48.1851 640 25.2982
48.3027 722 26.8701
48.4202 691 26.2869
48.5378 640 25.2982
48.6554 682 26.1151
48.7729 678 26.0384
48.8904 698 26.4197
49.008 674 25.9615
49.1255 676 26
49.243 688 26.2298
49.3605 719 26.8142
49.478 727 26.9629
49.5955 695 26.3629
49.713 723 26.8887
49.8304 686 26.1916
49.9479 671 25.9037
50.0653 698 26.4197
50.1827 640 25.2982
50.3001 569 23.8537
50.4175 564 23.7487
50.5348 592 24.3311
50.6521 688 26.2298
50.7694 697 26.4008
50.8867 693 26.3249
51.004 671 25.9037
51.1212 726 26.9444
51.2384 730 27.0185
51.3556 758 27.5318
51.4727 777 27.8747
51.5899 816 28.5657
51.707 836 28.9137
51.824 806 28.3901
51.9411 843 29.0345
52.0581 876 29.5973
52.175 861 29.3428
52.2919 871 29.5127
52.4088 920 30.3315
52.5257 873 29.5466
52.6425 850 29.1548
52.7593 894 29.8998
52.876 948 30.7896
52.9927 906 30.0998
53.1094 956 30.9192
53.226 873 29.5466
53.3426 941 30.6757
53.4591 924 30.3974
53.5756 970 31.1448
53.692 988 31.4325
53.8084 836 28.9137
53.9248 762 27.6043
54.0411 744 27.2764
54.1573 792 28.1425
54.2735 0 1
54.3896 0 1
54.5057 0 1
54.6217 0 1
54.7377 0 1
54.8537 0 1
54.9695 0 1
55.0853 0 1
55.2011 0 1
55.3168 0 1
55.4324 0 1
57.824 0 1
57.9396 0 1
58.0553 0 1
58.1711 0 1
58.2869 0 1
58.4028 0 1
58.5187 0 1
58.6347 0 1
58.7508 0 1
58.8669 0 1
58.983 1004 31.686
59.0992 937 30.6105
59.2155 891 29.8496
59.3318 890 29.8329
59.4482 929 30.4795
59.5646 916 30.2655
59.681 965 31.0644
59.7975 1022 31.9687
59.9141 985 31.3847
60.0306 1009 31.7648
60.1473 1071 32.7261
60.2639 1010 31.7805
60.3807 936 30.5941
60.4974 990 31.4643
60.6142 979 31.289
60.731 1004 31.686
60.8479 943 30.7083
60.9648 1011 31.7962
61.0818 975 31.225
61.1987 1015 31.8591
61.3158 981 31.3209
61.4328 914 30.2324
61.5499 918 30.2985
61.667 967 31.0966
61.7841 938 30.6268
61.9013 993 31.5119
62.0185 869 29.4788
62.1357 953 30.8707
62.253 961 31
62.3702 898 29.9666
62.4875 857 29.2746
62.6049 794 28.178
62.7222 817 28.5832
62.8396 780 27.9285
62.9569 807 28.4077
63.0743 852 29.189
63.1918 803 28.3373
63.3092 811 28.4781
63.4267 828 28.775
63.5441 846 29.0861
63.6616 880 29.6648
63.7791 917 30.282
63.8966 902 30.0333
64.0142 894 29.8998
64.1317 897 29.95
64.2492 836 28.9137
64.3668 868 29.4618
64.4843 833 28.8617
64.6019 791 28.1247
64.7195 824 28.7054
64.837 812 28.4956
64.9546 846 29.0861
65.0722 784 28
65.1898 803 28.3373
65.3074 785 28.0179
65.4249 820 28.6356
65.5425 818 28.6007
65.6601 808 28.4253
65.7777 810 28.4605
65.8952 833 28.8617
66.0128 731 27.037
66.1304 781 27.9464
66.2479 702 26.4953
66.3655 687 26.2107
66.483 629 25.0799
66.6005 718 26.7955
66.718 706 26.5707
66.8355 694 26.3439
66.953 808 28.4253
67.0705 762 27.6043
67.1879 737 27.1477
67.3054 765 27.6586
67.4228 754 27.4591
67.5402 771 27.7669
67.6576 737 27.1477
67.7749 739 27.1846
67.8923 798 28.2489
68.0096 749 27.3679
68.1269 672 25.923
68.2442 689 26.2488
68.3614 731 27.037
68.4787 730 27.0185
68.5958 734 27.0924
68.713 773 27.8029
68.8302 758 27.5318
68.9473 800 28.2843
69.0643 705 26.5518
69.1814 713 26.7021
69.2984 696 26.3818
69.4154 721 26.8514
69.5323 729 27
69.6492 770 27.7489
69.7661 774 27.8209
69.8829 689 26.2488
69.9997 652 25.5343
70.1165 628 25.0599
70.2332 615 24.7992
70.3499 642 25.3377
70.4665 670 25.8844
70.5831 666 25.807
70.6996 676 26
70.8161 655 25.593
70.9326 739 27.1846
71.049 633 25.1595
71.1653 685 26.1725
71.2817 692 26.3059
71.3979 674 25.9615
71.5141 644 25.3772
71.6303 638 25.2587
71.7464 569 23.8537
71.8624 0 1
71.9784 0 1
72.0944 0 1
72.2102 0 1
72.3261 0 1
72.4418 0 1
72.5575 0 1
72.6732 0 1
75.1054 0 1
75.2209 0 1
75.3365 0 1
75.4521 0 1
75.5678 0 1
75.6835 0 1
75.7993 0 1
75.9151 0 1
76.031 0 1
76.147 437 20.9045
76.263 480 21.9089
76.3791 530 23.0217
76.4952 483 21.9773
76.6113 500 22.3607
76.7276 537 23.1733
76.8438 478 21.8632
76.9601 448 21.166
77.0765 465 21.5639
77.1929 531 23.0434
77.3093 493 22.2036
77.4258 498 22.3159
77.5423 509 22.561
77.6589 454 21.3073
77.7755 529 23
77.8921 470 21.6795
78.0088 453 21.2838
78.1256 427 20.664
78.2423 471 21.7025
78.3591 399 19.975
78.4759 441 21
78.5928 428 20.6882
78.7097 457 21.3776
78.8266 439 20.9523
78.9436 412 20.2978
79.0606 364 19.0788
79.1776 282 16.7929
79.2946 300 17.3205
79.4117 313 17.6918
79.5288 389 19.7231
79.6459 391 19.7737
79.7631 378 19.4422
79.8802 347 18.6279
79.9974 369 19.2094
80.1147 350 18.7083
80.2319 307 17.5214
80.3491 342 18.4932
80.4664 350 18.7083
80.5837 306 17.4929
80.701 304 17.4356
80.8183 259 16.0935
80.9357 322 17.9444
81.053 282 16.7929
81.1704 285 16.8819
81.2877 260 16.1245
81.4051 248 15.748
81.5225 245 15.6525
81.6399 255 15.9687
81.7573 240 15.4919
81.8747 210 14.4914
81.9922 195 13.9642
82.1096 213 14.5945
82.227 196 14
82.3444 198 14.0712
82.4619 202 14.2127
82.5793 187 13.6748
82.6967 175 13.2288
82.8142 158 12.5698
82.9316 125 11.1803
83.049 165 12.8452
83.1664 150 12.2474
83.2838 134 11.5758
83.4012 154 12.4097
83.5186 148 12.1655
83.636 147 12.1244
83.7534 137 11.7047
83.8708 116 10.7703
83.9881 120 10.9545
84.1055 103 10.1489
84.2228 97 9.84886
84.3401 100 10
84.4575 98 9.89949
84.5747 101 10.0499
84.692 93 9.64365
84.8093 119 10.9087
84.9265 82 9.05539
85.0437 94 9.69536
85.1609 94 9.69536
85.2781 85 9.21954
85.3952 87 9.32738
85.5123 82 9.05539
85.6294 67 8.18535
85.7465 93 9.64365
85.8636 102 10.0995
85.9806 95 9.74679
86.0976 73 8.544
86.2145 70 8.3666
86.3315 67 8.18535
86.4484 94 9.69536
86.5652 104 10.198
86.682 114 10.6771
86.7988 125 11.1803
86.9156 135 11.619
87.0323 116 10.7703
87.149 142 11.9164
87.2657 117 10.8167
87.3823 146 12.083
87.4988 141 11.8743
87.6154 151 12.2882
87.7318 141 11.8743
87.8483 143 11.9583
87.9647 172 13.1149
88.081 192 13.8564
88.1973 191 13.8203
88.3136 220 14.8324
88.4298 212 14.5602
88.546 225 15
88.6621 211 14.5258
88.7781 239 15.4596
88.8942 0 1
89.0101 0 1
89.126 0 1
89.2419 0 1
89.3577 0 1
89.4734 0 1
89.5891 0 1
89.7047 0 1
89.8203 0 1
89.9358 0 1
92.3269 0 1
92.4424 0 1
92.558 0 1
92.6736 0 1
92.7893 0 1
92.905 0 1
93.0208 0 1
93.1366 0 1
93.2525 0 1
93.3685 0 1
93.4845 0 1
93.6005 405 20.1246
93.7167 384 19.5959
93.8328 344 18.5472
93.949 405 20.1246
94.0653 365 19.105
94.1816 378 19.4422
94.2979 348 18.6548
94.4143 340 18.4391
94.5307 324 18
94.6472 309 17.5784
94.7637 322 17.9444
94.8803 320 17.8885
94.9969 286 16.9115
95.1135 278 16.6733
95.2302 294 17.1464
95.3469 246 15.6844
95.4637 240 15.4919
95.5805 231 15.1987
95.6973 298 17.2627
95.8142 294 17.1464
95.9311 315 17.7482
96.048 339 18.412
96.1649 357 18.8944
96.2819 320 17.8885
96.3989 327 18.0831
96.516 392 19.799
96.633 379 19.4679
96.7501 356 18.868
96.8673 422 20.5426
96.9844 412 20.2978
97.1016 433 20.8087
97.2188 393 19.8242
97.336 489 22.1133
97.4532 479 21.8861
97.5704 481 21.9317
97.6877 491 22.1585
97.805 466 21.587
97.9223 525 22.9129
98.0396 517 22.7376
98.1569 541 23.2594
98.2743 523 22.8692
98.3916 508 22.5389
98.509 563 23.7276
98.6264 512 22.6274
98.7438 561 23.6854
98.8612 488 22.0907
98.9786 508 22.5389
99.096 449 21.1896
99.2134 388 19.6977
99.3308 550 23.4521
99.4482 588 24.2487
99.5656 663 25.7488
99.6831 657 25.632
99.8005 689 26.2488
99.9179 657 25.632
100.035 644 25.3772
100.153 700 26.4575
100.27 669 25.865
100.388 691 26.2869
100.505 768 27.7128
100.622 741 27.2213
100.74 743 27.258
100.857 740 27.2029
100.975 713 26.7021
101.092 749 27.3679
101.209 698 26.4197
101.327 690 26.2679
101.444 762 27.6043
101.561 792 28.1425
101.679 793 28.1603
101.796 792 28.1425
101.913 745 27.2947
102.03 718 26.7955
102.148 755 27.4773
102.265 798 28.2489
102.382 795 28.1957
102.499 757 27.5136
102.616 582 24.1247
102.733 544 23.3238
102.851 586 24.2074
102.968 730 27.0185
103.085 794 28.178
103.202 823 28.688
103.319 823 28.688
103.436 801 28.3019
103.552 766 27.6767
103.669 781 27.9464
103.786 774 27.8209
103.903 784 28
104.02 825 28.7228
104.137 841 29
104.253 857 29.2746
104.37 844 29.0517
104.487 850 29.1548
104.603 854 29.2233
104.72 790 28.1069
104.836 850 29.1548
104.953 786 28.0357
105.069 872 29.5296
105.186 783 27.9821
105.302 826 28.7402
105.418 816 28.5657
105.535 828 28.775
105.651 849 29.1376
105.767 813 28.5132
105.883 736 27.1293
105.999 730 27.0185
106.115 0 1
106.231 0 1
106.347 0 1
106.463 0 1
106.579 0 1
106.694 0 1
106.81 0 1
106.926 0 1
107.041 0 1
107.157 0 1
109.576 0 1
109.692 0 1
109.807 0 1
109.923 0 1
110.039 0 1
110.155 0 1
110.27 0 1
110.386 0 1
110.502 0 1
110.618 635 25.1992
110.735 736 27.1293
110.851 619 24.8797
110.967 580 24.0832
111.083 539 23.2164
111.199 517 22.7376
111.316 491 22.1585
111.432 504 22.4499
111.549 608 24.6577
111.665 635 25.1992
111.782 583 24.1454
111.898 585 24.1868
112.015 585 24.1868
112.132 572 23.9165
112.248 576 24
112.365 589 24.2693
112.482 561 23.6854
112.599 548 23.4094
112.716 539 23.2164
112.832 539 23.2164
112.949 506 22.4944
113.066 497 22.2935
113.183 568 23.8328
113.3 477 21.8403
113.417 488 22.0907
113.534 495 22.2486
113.652 454 21.3073
113.769 456 21.3542
113.886 507 22.5167
114.003 492 22.1811
114.12 477 21.8403
114.238 477 21.8403
114.355 455 21.3307
114.472 423 20.567
114.589 407 20.1742
114.707 382 19.5448
114.824 401 20.025
114.942 376 19.3907
115.059 369 19.2094
115.176 404 20.0998
115.294 397 19.9249
115.411 446 21.1187
115.529 448 21.166
115.646 464 21.5407
115.764 499 22.3383
115.881 449 21.1896
115.999 448 21.166
116.116 417 20.4206
116.234 474 21.7715
116.351 441 21
116.469 404 20.0998
116.586 433 20.8087
116.704 433 20.8087
116.821 428 20.6882
116.939 380 19.4936
117.056 456 21.3542
117.174 430 20.7364
117.291 418 20.445
117.409 445 21.095
117.526 444 21.0713
117.644 448 21.166
117.761 427 20.664
117.879 391 19.7737
117.996 353 18.7883
118.114 348 18.6548
118.231 408 20.199
118.349 412 20.2978
118.466 412 20.2978
118.584 412 20.2978
118.701 428 20.6882
118.819 431 20.7605
118.936 449 21.1896
119.053 423 20.567
119.171 456 21.3542
119.288 482 21.9545
119.405 421 20.5183
119.523 448 21.166
119.64 478 21.8632
119.757 435 20.8567
119.875 448 21.166
119.992 430 20.7364
120.109 456 21.3542
120.226 445 21.095
120.343 470 21.6795
120.46 455 21.3307
120.578 449 21.1896
120.695 452 21.2603
120.812 482 21.9545
120.929 443 21.0476
121.046 434 20.8327
121.163 474 21.7715
121.279 459 21.4243
121.396 455 21.3307
121.513 405 20.1246
121.63 382 19.5448
121.747 358 18.9209
121.863 300 17.3205
121.98 411 20.2731
122.097 465 21.5639
122.213 462 21.4942
122.33 473 21.7486
122.446 491 22.1585
122.563 459 21.4243
122.679 488 22.0907
122.795 505 22.4722
122.912 535 23.1301
123.028 511 22.6053
123.144 513 22.6495
123.26 511 22.6053
123.377 0 1
123.493 0 1
123.609 0 1
123.725 0 1
123.84 0 1
123.956 0 1
124.072 0 1
124.188 0 1
124.303 0 1
124.419 0 1
126.852 0 1
126.968 0 1
127.083 0 1
127.199 0 1
127.315 0 1
127.431 0 1
127.547 0 1
127.663 0 1
127.779 0 1
127.895 0 1
128.011 0 1
128.127 0 1
128.243 0 1
128.359 648 25.4558
128.476 638 25.2587
128.592 661 25.7099
128.708 600 24.4949
128.825 647 25.4362
128.941 598 24.454
129.058 675 25.9808
129.174 696 26.3818
129.291 639 25.2784
129.408 639 25.2784
129.524 663 25.7488
129.641 651 25.5147
129.758 677 26.0192
129.875 616 24.8193
129.992 635 25.1992
130.108 652 25.5343
130.225 629 25.0799
130.342 635 25.1992
130.459 551 23.4734
130.576 535 23.1301
130.693 437 20.9045
130.81 445 21.095
130.928 469 21.6564
131.045 552 23.4947
131.162 667 25.8263
131.279 704 26.533
131.396 670 25.8844
131.513 659 25.671
131.631 693 26.3249
131.748 690 26.2679
131.865 739 27.1846
131.983 621 24.9199
132.1 686 26.1916
132.217 665 25.7876
132.335 675 25.9808
132.452 687 26.2107
132.57 703 26.5141
132.687 659 25.671
132.804 704 26.533
132.922 715 26.7395
133.039 668 25.8457
133.157 676 26
133.274 670 25.8844
133.392 738 27.1662
133.509 705 26.5518
133.627 654 25.5734
133.744 693 26.3249
133.862 603 24.5561
133.979 632 25.1396
134.097 540 23.2379
134.214 538 23.1948
134.332 516 22.7156
134.449 511 22.6053
134.567 541 23.2594
134.684 679 26.0576
134.802 662 25.7294
134.919 706 26.5707
135.037 703 26.5141
135.154 771 27.7669
135.272 728 26.9815
135.389 740 27.2029
135.507 777 27.8747
135.624 786 28.0357
135.742 729 27
135.859 791 28.1247
135.977 781 27.9464
136.094 807 28.4077
136.211 776 27.8568
136.329 792 28.1425
136.446 779 27.9106
136.564 781 27.9464
136.681 785 28.0179
136.798 784 28
136.915 755 27.4773
137.033 791 28.1247
137.15 802 28.3196
137.267 757 27.5136
137.384 717 26.7769
137.502 675 25.9808
137.619 669 25.865
137.736 622 24.9399
137.853 582 24.1247
137.97 595 24.3926
138.087 583 24.1454
138.204 622 24.9399
138.321 629 25.0799
138.438 748 27.3496
138.555 779 27.9106
138.672 786 28.0357
138.788 811 28.4781
138.905 832 28.8444
139.022 837 28.931
139.139 842 29.0172
139.255 874 29.5635
139.372 879 29.6479
139.488 865 29.4109
139.605 895 29.9166
139.721 846 29.0861
139.838 874 29.5635
139.954 820 28.6356
140.071 795 28.1957
140.187 851 29.1719
140.303 806 28.3901
140.419 833 28.8617
140.535 798 28.2489
140.652 880 29.6648
140.768 0 1
140.884 0 1
141 0 1
141.115 0 1
141.231 0 1
141.347 0 1
141.463 0 1
141.578 0 1
141.694 0 1
144.104 0 1
144.219 0 1
144.335 0 1
144.45 0 1
144.566 0 1
144.682 0 1
144.798 0 1
144.914 0 1
145.03 0 1
145.146 797 28.2312
145.262 819 28.6182
145.378 789 28.0891
145.494 779 27.9106
145.61 836 28.9137
145.726 837 28.931
145.842 744 27.2764
145.959 751 27.4044
146.075 721 26.8514
146.192 758 27.5318
146.308 649 25.4755
146.425 699 26.4386
146.541 669 25.865
146.658 632 25.1396
146.774 669 25.865
146.891 700 26.4575
147.008 697 26.4008
147.125 710 26.6458
147.241 798 28.2489
147.358 764 27.6405
147.475 762 27.6043
147.592 822 28.6705
147.709 823 28.688
147.826 781 27.9464
147.943 774 27.8209
148.06 769 27.7308
148.177 816 28.5657
148.294 794 28.178
148.411 773 27.8029
148.528 826 28.7402
148.645 818 28.6007
148.762 761 27.5862
148.88 807 28.4077
148.997 792 28.1425
149.114 780 27.9285
149.231 770 27.7489
149.349 810 28.4605
149.466 757 27.5136
149.583 750 27.3861
149.701 715 26.7395
149.818 718 26.7955
149.935 651 25.5147
150.053 645 25.3969
150.17 641 25.318
150.287 656 25.6125
150.405 623 24.96
150.522 712 26.6833
150.64 706 26.5707
150.757 743 27.258
150.875 722 26.8701
150.992 778 27.8927
151.11 752 27.4226
151.227 846 29.0861
151.344 812 28.4956
151.462 833 28.8617
151.579 783 27.9821
151.697 758 27.5318
151.814 818 28.6007
151.932 782 27.9643
152.049 853 29.2062
152.167 812 28.4956
152.284 751 27.4044
152.402 823 28.688
152.519 805 28.3725
152.636 778 27.8927
152.754 815 28.5482
152.871 821 28.6531
152.989 732 27.0555
153.106 789 28.0891
153.223 744 27.2764
153.341 741 27.2213
153.458 666 25.807
153.575 722 26.8701
153.693 711 26.6646
153.81 681 26.096
153.927 670 25.8844
154.044 697 26.4008
154.162 719 26.8142
154.279 726 26.9444
154.396 819 28.6182
154.513 822 28.6705
154.63 800 28.2843
154.747 847 29.1033
154.864 840 28.9828
154.981 832 28.8444
155.098 881 29.6816
155.215 898 29.9666
155.332 846 29.0861
155.449 868 29.4618
155.566 888 29.7993
155.683 838 28.9482
155.8 865 29.4109
155.917 839 28.9655
156.033 910 30.1662
156.15 0 1
156.267 0 1
156.383 0 1
156.5 0 1
156.617 0 1
156.733 0 1
156.85 0 1
156.966 0 1
157.082 0 1
157.199 0 1
157.315 0 1
157.431 0 1
157.547 0 1
157.664 0 1
157.78 0 1
157.896 0 1
158.012 0 1
158.128 0 1
158.244 0 1
158.359 0 1
158.475 0 1
158.591 0 1
158.706 0 1
