
6.15755 0 1
6.2731 0 1
6.3887 0 1
6.50437 0 1
6.62009 0 1
6.73587 0 1
6.8517 0 1
6.96759 0 1
7.08353 0 1
7.19952 0 1
7.31557 0 1
7.43166 0 1
7.54781 0 1
7.664 0 1
7.78024 0 1
7.89653 0 1
8.01286 0 1
8.12924 0 1
8.24567 0 1
8.36213 0 1
8.47864 0 1
8.59519 0 1
8.71178 0 1
8.82841 0 1
8.94508 0 1
9.06179 0 1
9.17853 0 1
9.29531 0 1
9.41212 0 1
9.52897 0 1
9.64584 0 1
9.76276 0 1
9.8797 0 1
9.99667 0 1
10.1137 0 1
10.2307 0 1
10.3478 0 1
10.4648 0 1
10.5819 0 1
10.6991 0 1
10.8162 0 1
10.9334 0 1
11.0506 0 1
11.1678 0 1
11.285 0 1
11.4023 0 1
11.5196 0 1
11.6369 0 1
11.7542 0 1
11.8715 0 1
11.9888 0 1
12.1062 0 1
12.2235 0 1
12.3409 0 1
12.4582 0 1
12.5756 0 1
12.693 0 1
12.8104 0 1
12.9278 0 1
13.0452 0 1
13.1626 0 1
13.28 0 1
13.3974 0 1
13.5149 0 1
13.6323 0 1
13.7497 0 1
13.8671 0 1
13.9845 0 1
14.1019 0 1
14.2193 0 1
14.3367 0 1
14.4541 0 1
14.5714 0 1
14.6888 0 1
14.8062 0 1
14.9235 0 1
15.0408 836 28.9137
15.1581 907 30.1164
15.2755 923 30.3809
15.3927 851 29.1719
15.51 927 30.4467
15.6273 890 29.8329
15.7445 931 30.5123
15.8617 924 30.3974
15.9789 954 30.8869
16.0961 835 28.8964
16.2132 792 28.1425
16.3304 821 28.6531
16.4475 825 28.7228
16.5646 780 27.9285
16.6816 810 28.4605
16.7986 812 28.4956
16.9156 801 28.3019
17.0326 818 28.6007
17.1496 810 28.4605
17.2665 828 28.775
17.3833 851 29.1719
17.5002 812 28.4956
17.617 832 28.8444
17.7338 858 29.2916
17.8505 859 29.3087
17.9672 845 29.0689
18.0839 778 27.8927
18.2005 835 28.8964
18.3171 709 26.6271
18.4337 776 27.8568
18.5502 767 27.6948
18.6666 851 29.1719
18.7831 858 29.2916
18.8994 815 28.5482
19.0158 807 28.4077
19.1321 808 28.4253
19.2483 723 26.8887
19.3645 726 26.9444
19.4806 732 27.0555
19.5967 627 25.04
19.7128 506 22.4944
19.8288 508 22.5389
19.9447 462 21.4942
20.0606 0 1
20.1764 0 1
20.2922 0 1
20.4079 0 1
20.5236 0 1
20.6392 0 1
20.7548 0 1
20.8702 0 1
23.3078 0 1
23.4233 0 1
23.539 0 1
23.6547 0 1
23.7704 0 1
23.8862 0 1
24.0021 0 1
24.118 0 1
24.234 0 1
24.35 0 1
24.4661 310 17.6068
24.5822 374 19.3391
24.6984 421 20.5183
24.8146 525 22.9129
24.9309 559 23.6432
25.0472 618 24.8596
25.1636 716 26.7582
25.28 764 27.6405
25.3965 752 27.4226
25.513 858 29.2916
25.6296 901 30.0167
25.7462 893 29.8831
25.8628 807 28.4077
25.9795 863 29.3769
26.0962 803 28.3373
26.213 849 29.1376
26.3298 776 27.8568
26.4466 788 28.0713
26.5635 745 27.2947
26.6804 756 27.4955
26.7973 682 26.1151
26.9143 620 24.8998
27.0313 640 25.2982
27.1483 691 26.2869
27.2653 718 26.7955
27.3824 727 26.9629
27.4996 771 27.7669
27.6167 767 27.6948
27.7339 743 27.258
27.8511 737 27.1477
27.9683 744 27.2764
28.0855 735 27.1109
28.2028 734 27.0924
28.3201 692 26.3059
28.4374 693 26.3249
28.5547 702 26.4953
28.6721 720 26.8328
28.7894 772 27.7849
28.9068 779 27.9106
29.0242 756 27.4955
29.1416 749 27.3679
29.259 729 27
29.3764 716 26.7582
29.4939 680 26.0768
29.6113 704 26.533
29.7288 699 26.4386
29.8463 735 27.1109
29.9638 712 26.6833
30.0812 683 26.1343
30.1987 624 24.98
30.3162 628 25.0599
30.4337 603 24.5561
30.5512 615 24.7992
30.6687 670 25.8844
30.7862 678 26.0384
30.9037 697 26.4008
31.0212 767 27.6948
31.1387 710 26.6458
31.2562 702 26.4953
31.3737 770 27.7489
31.4912 723 26.8887
31.6087 749 27.3679
31.7262 658 25.6515
31.8436 679 26.0576
31.9611 628 25.0599
32.0785 647 25.4362
32.1959 664 25.7682
32.3134 701 26.4764
32.4308 703 26.5141
32.5482 614 24.779
32.6655 687 26.2107
32.7829 617 24.8395
32.9002 611 24.7184
33.0176 625 25
33.1349 631 25.1197
33.2522 636 25.219
33.3694 685 26.1725
33.4867 680 26.0768
33.6039 683 26.1343
33.7211 617 24.8395
33.8383 613 24.7588
33.9554 564 23.7487
34.0725 614 24.779
34.1896 606 24.6171
34.3067 691 26.2869
34.4237 677 26.0192
34.5407 676 26
34.6577 690 26.2679
34.7746 696 26.3818
34.8915 673 25.9422
35.0084 663 25.7488
35.1252 623 24.96
35.242 647 25.4362
35.3587 646 25.4165
35.4755 632 25.1396
35.5921 548 23.4094
35.7088 561 23.6854
35.8254 618 24.8596
35.9419 630 25.0998
36.0584 616 24.8193
36.1749 619 24.8797
36.2913 588 24.2487
36.4077 610 24.6982
36.524 570 23.8747
36.6403 513 22.6495
36.7565 495 22.2486
36.8727 476 21.8174
36.9889 425 20.6155
37.1049 414 20.347
37.221 0 1
37.3369 0 1
37.4529 0 1
37.5687 0 1
37.6845 0 1
37.8003 0 1
37.916 0 1
38.0316 0 1
38.1472 0 1
40.5851 0 1
40.7008 0 1
40.8164 0 1
40.9322 0 1
41.048 0 1
41.1639 0 1
41.2798 0 1
41.3958 0 1
41.5118 0 1
41.6279 0 1
41.744 282 16.7929
41.8602 324 18
41.9765 380 19.4936
42.0928 452 21.2603
42.2091 446 21.1187
42.3255 502 22.4054
42.4419 449 21.1896
42.5584 463 21.5174
42.675 479 21.8861
42.7915 481 21.9317
42.9081 437 20.9045
43.0248 474 21.7715
43.1415 482 21.9545
43.2582 546 23.3666
43.375 475 21.7945
43.4918 534 23.1084
43.6087 468 21.6333
43.7256 451 21.2368
43.8425 507 22.5167
43.9595 475 21.7945
44.0765 456 21.3542
44.1935 425 20.6155
44.3106 445 21.095
44.4277 477 21.8403
44.5448 488 22.0907
44.6619 453 21.2838
44.7791 446 21.1187
44.8963 498 22.3159
45.0136 511 22.6053
45.1308 490 22.1359
45.2481 519 22.7816
45.3654 495 22.2486
45.4827 512 22.6274
45.6001 546 23.3666
45.7174 534 23.1084
45.8348 543 23.3024
45.9522 499 22.3383
46.0697 478 21.8632
46.1871 458 21.4009
46.3046 402 20.0499
46.422 455 21.3307
46.5395 369 19.2094
46.657 440 20.9762
46.7745 456 21.3542
46.892 479 21.8861
47.0096 437 20.9045
47.1271 487 22.0681
47.2446 499 22.3383
47.3622 457 21.3776
47.4797 470 21.6795
47.5973 514 22.6716
47.7149 464 21.5407
47.8324 433 20.8087
47.95 439 20.9523
48.0675 480 21.9089
48.1851 445 21.095
48.3027 480 21.9089
48.4202 487 22.0681
48.5378 447 21.1424
48.6554 463 21.5174
48.7729 477 21.8403
48.8904 498 22.3159
49.008 463 21.5174
49.1255 523 22.8692
49.243 507 22.5167
49.3605 464 21.5407
49.478 462 21.4942
49.5955 440 20.9762
49.713 430 20.7364
49.8304 391 19.7737
49.9479 377 19.4165
50.0653 386 19.6469
50.1827 405 20.1246
50.3001 437 20.9045
50.4175 465 21.5639
50.5348 433 20.8087
50.6521 471 21.7025
50.7694 431 20.7605
50.8867 449 21.1896
51.004 452 21.2603
51.1212 464 21.5407
51.2384 393 19.8242
51.3556 419 20.4695
51.4727 445 21.095
51.5899 437 20.9045
51.707 461 21.4709
51.824 475 21.7945
51.9411 484 22
52.0581 447 21.1424
52.175 472 21.7256
52.2919 453 21.2838
52.4088 474 21.7715
52.5257 436 20.8806
52.6425 488 22.0907
52.7593 487 22.0681
52.876 501 22.383
52.9927 429 20.7123
53.1094 423 20.567
53.226 390 19.7484
53.3426 436 20.8806
53.4591 353 18.7883
53.5756 395 19.8746
53.692 354 18.8149
53.8084 363 19.0526
53.9248 339 18.412
54.0411 339 18.412
54.1573 308 17.5499
54.2735 0 1
54.3896 0 1
54.5057 0 1
54.6217 0 1
54.7377 0 1
54.8537 0 1
54.9695 0 1
55.0853 0 1
55.2011 0 1
55.3168 0 1
55.4324 0 1
57.824 0 1
57.9396 0 1
58.0553 0 1
58.1711 0 1
58.2869 0 1
58.4028 0 1
58.5187 0 1
58.6347 0 1
58.7508 0 1
58.8669 0 1
58.983 470 21.6795
59.0992 573 23.9374
59.2155 652 25.5343
59.3318 787 28.0535
59.4482 822 28.6705
59.5646 782 27.9643
59.681 857 29.2746
59.7975 855 29.2404
59.9141 843 29.0345
60.0306 893 29.8831
60.1473 950 30.8221
60.2639 984 31.3688
60.3807 932 30.5287
60.4974 960 30.9839
60.6142 928 30.4631
60.731 951 30.8383
60.8479 911 30.1828
60.9648 904 30.0666
61.0818 884 29.7321
61.1987 943 30.7083
61.3158 858 29.2916
61.4328 883 29.7153
61.5499 821 28.6531
61.667 798 28.2489
61.7841 767 27.6948
61.9013 715 26.7395
62.0185 714 26.7208
62.1357 658 25.6515
62.253 646 25.4165
62.3702 615 24.7992
62.4875 643 25.3574
62.6049 692 26.3059
62.7222 686 26.1916
62.8396 660 25.6905
62.9569 626 25.02
63.0743 623 24.96
63.1918 551 23.4734
63.3092 539 23.2164
63.4267 542 23.2809
63.5441 554 23.5372
63.6616 584 24.1661
63.7791 577 24.0208
63.8966 533 23.0868
64.0142 559 23.6432
64.1317 546 23.3666
64.2492 545 23.3452
64.3668 559 23.6432
64.4843 534 23.1084
64.6019 559 23.6432
64.7195 501 22.383
64.837 486 22.0454
64.9546 547 23.388
65.0722 530 23.0217
65.1898 518 22.7596
65.3074 521 22.8254
65.4249 498 22.3159
65.5425 463 21.5174
65.6601 460 21.4476
65.7777 510 22.5832
65.8952 478 21.8632
66.0128 472 21.7256
66.1304 476 21.8174
66.2479 492 22.1811
66.3655 522 22.8473
66.483 502 22.4054
66.6005 522 22.8473
66.718 484 22
66.8355 492 22.1811
66.953 486 22.0454
67.0705 493 22.2036
67.1879 466 21.587
67.3054 498 22.3159
67.4228 487 22.0681
67.5402 510 22.5832
67.6576 530 23.0217
67.7749 531 23.0434
67.8923 503 22.4277
68.0096 525 22.9129
68.1269 527 22.9565
68.2442 517 22.7376
68.3614 504 22.4499
68.4787 488 22.0907
68.5958 524 22.891
68.713 534 23.1084
68.8302 506 22.4944
68.9473 513 22.6495
69.0643 467 21.6102
69.1814 525 22.9129
69.2984 510 22.5832
69.4154 490 22.1359
69.5323 506 22.4944
69.6492 494 22.2261
69.7661 458 21.4009
69.8829 507 22.5167
69.9997 501 22.383
70.1165 533 23.0868
70.2332 528 22.9783
70.3499 498 22.3159
70.4665 437 20.9045
70.5831 402 20.0499
70.6996 404 20.0998
70.8161 357 18.8944
70.9326 369 19.2094
71.049 321 17.9165
71.1653 345 18.5742
71.2817 289 17
71.3979 299 17.2916
71.5141 247 15.7162
71.6303 227 15.0665
71.7464 188 13.7113
71.8624 0 1
71.9784 0 1
72.0944 0 1
72.2102 0 1
72.3261 0 1
72.4418 0 1
72.5575 0 1
72.6732 0 1
75.1054 0 1
75.2209 0 1
75.3365 0 1
75.4521 0 1
75.5678 0 1
75.6835 0 1
75.7993 0 1
75.9151 0 1
76.031 0 1
76.147 296 17.2047
76.263 359 18.9473
76.3791 378 19.4422
76.4952 440 20.9762
76.6113 447 21.1424
76.7276 474 21.7715
76.8438 502 22.4054
76.9601 500 22.3607
77.0765 456 21.3542
77.1929 494 22.2261
77.3093 437 20.9045
77.4258 445 21.095
77.5423 449 21.1896
77.6589 477 21.8403
77.7755 482 21.9545
77.8921 462 21.4942
78.0088 467 21.6102
78.1256 461 21.4709
78.2423 438 20.9284
78.3591 437 20.9045
78.4759 405 20.1246
78.5928 383 19.5704
78.7097 454 21.3073
78.8266 388 19.6977
78.9436 449 21.1896
79.0606 443 21.0476
79.1776 428 20.6882
79.2946 481 21.9317
79.4117 447 21.1424
79.5288 495 22.2486
79.6459 422 20.5426
79.7631 438 20.9284
79.8802 452 21.2603
79.9974 477 21.8403
80.1147 464 21.5407
80.2319 518 22.7596
80.3491 465 21.5639
80.4664 466 21.587
80.5837 494 22.2261
80.701 470 21.6795
80.8183 536 23.1517
80.9357 462 21.4942
81.053 447 21.1424
81.1704 454 21.3073
81.2877 456 21.3542
81.4051 489 22.1133
81.5225 513 22.6495
81.6399 428 20.6882
81.7573 473 21.7486
81.8747 421 20.5183
81.9922 435 20.8567
82.1096 451 21.2368
82.227 443 21.0476
82.3444 392 19.799
82.4619 473 21.7486
82.5793 450 21.2132
82.6967 470 21.6795
82.8142 501 22.383
82.9316 516 22.7156
83.049 477 21.8403
83.1664 483 21.9773
83.2838 458 21.4009
83.4012 441 21
83.5186 456 21.3542
83.636 496 22.2711
83.7534 518 22.7596
83.8708 500 22.3607
83.9881 527 22.9565
84.1055 498 22.3159
84.2228 496 22.2711
84.3401 495 22.2486
84.4575 501 22.383
84.5747 511 22.6053
84.692 518 22.7596
84.8093 504 22.4499
84.9265 468 21.6333
85.0437 467 21.6102
85.1609 504 22.4499
85.2781 483 21.9773
85.3952 505 22.4722
85.5123 518 22.7596
85.6294 456 21.3542
85.7465 482 21.9545
85.8636 458 21.4009
85.9806 454 21.3073
86.0976 468 21.6333
86.2145 486 22.0454
86.3315 486 22.0454
86.4484 487 22.0681
86.5652 535 23.1301
86.682 522 22.8473
86.7988 475 21.7945
86.9156 490 22.1359
87.0323 471 21.7025
87.149 500 22.3607
87.2657 532 23.0651
87.3823 514 22.6716
87.4988 531 23.0434
87.6154 501 22.383
87.7318 461 21.4709
87.8483 446 21.1187
87.9647 422 20.5426
88.081 394 19.8494
88.1973 365 19.105
88.3136 323 17.9722
88.4298 304 17.4356
88.546 297 17.2337
88.6621 282 16.7929
88.7781 271 16.4621
88.8942 0 1
89.0101 0 1
89.126 0 1
89.2419 0 1
89.3577 0 1
89.4734 0 1
89.5891 0 1
89.7047 0 1
89.8203 0 1
89.9358 0 1
92.3269 0 1
92.4424 0 1
92.558 0 1
92.6736 0 1
92.7893 0 1
92.905 0 1
93.0208 0 1
93.1366 0 1
93.2525 0 1
93.3685 0 1
93.4845 0 1
93.6005 417 20.4206
93.7167 436 20.8806
93.8328 512 22.6274
93.949 479 21.8861
94.0653 497 22.2935
94.1816 497 22.2935
94.2979 545 23.3452
94.4143 490 22.1359
94.5307 514 22.6716
94.6472 470 21.6795
94.7637 468 21.6333
94.8803 489 22.1133
94.9969 488 22.0907
95.1135 449 21.1896
95.2302 481 21.9317
95.3469 491 22.1585
95.4637 490 22.1359
95.5805 511 22.6053
95.6973 561 23.6854
95.8142 535 23.1301
95.9311 518 22.7596
96.048 544 23.3238
96.1649 502 22.4054
96.2819 471 21.7025
96.3989 542 23.2809
96.516 508 22.5389
96.633 508 22.5389
96.7501 546 23.3666
96.8673 544 23.3238
96.9844 517 22.7376
97.1016 483 21.9773
97.2188 502 22.4054
97.336 507 22.5167
97.4532 460 21.4476
97.5704 477 21.8403
97.6877 480 21.9089
97.805 497 22.2935
97.9223 525 22.9129
98.0396 505 22.4722
98.1569 459 21.4243
98.2743 482 21.9545
98.3916 497 22.2935
98.509 472 21.7256
98.6264 471 21.7025
98.7438 459 21.4243
98.8612 500 22.3607
98.9786 473 21.7486
99.096 477 21.8403
99.2134 517 22.7376
99.3308 516 22.7156
99.4482 596 24.4131
99.5656 517 22.7376
99.6831 515 22.6936
99.8005 558 23.622
99.9179 522 22.8473
100.035 528 22.9783
100.153 547 23.388
100.27 555 23.5584
100.388 518 22.7596
100.505 495 22.2486
100.622 538 23.1948
100.74 520 22.8035
100.857 515 22.6936
100.975 485 22.0227
101.092 525 22.9129
101.209 521 22.8254
101.327 538 23.1948
101.444 503 22.4277
101.561 522 22.8473
101.679 536 23.1517
101.796 507 22.5167
101.913 494 22.2261
102.03 534 23.1084
102.148 497 22.2935
102.265 528 22.9783
102.382 478 21.8632
102.499 501 22.383
102.616 558 23.622
102.733 554 23.5372
102.851 585 24.1868
102.968 542 23.2809
103.085 539 23.2164
103.202 577 24.0208
103.319 526 22.9347
103.436 526 22.9347
103.552 547 23.388
103.669 532 23.0651
103.786 561 23.6854
103.903 555 23.5584
104.02 510 22.5832
104.137 505 22.4722
104.253 582 24.1247
104.37 526 22.9347
104.487 522 22.8473
104.603 549 23.4307
104.72 546 23.3666
104.836 531 23.0434
104.953 517 22.7376
105.069 514 22.6716
105.186 462 21.4942
105.302 423 20.567
105.418 451 21.2368
105.535 343 18.5203
105.651 359 18.9473
105.767 330 18.1659
105.883 282 16.7929
105.999 297 17.2337
106.115 0 1
106.231 0 1
106.347 0 1
106.463 0 1
106.579 0 1
106.694 0 1
106.81 0 1
106.926 0 1
107.041 0 1
107.157 0 1
109.576 0 1
109.692 0 1
109.807 0 1
109.923 0 1
110.039 0 1
110.155 0 1
110.27 0 1
110.386 0 1
110.502 0 1
110.618 276 16.6132
110.735 281 16.7631
110.851 339 18.412
110.967 444 21.0713
111.083 412 20.2978
111.199 440 20.9762
111.316 483 21.9773
111.432 466 21.587
111.549 534 23.1084
111.665 529 23
111.782 528 22.9783
111.898 532 23.0651
112.015 529 23
112.132 481 21.9317
112.248 480 21.9089
112.365 481 21.9317
112.482 513 22.6495
112.599 570 23.8747
112.716 479 21.8861
112.832 477 21.8403
112.949 491 22.1585
113.066 472 21.7256
113.183 478 21.8632
113.3 500 22.3607
113.417 515 22.6936
113.534 491 22.1585
113.652 494 22.2261
113.769 496 22.2711
113.886 474 21.7715
114.003 443 21.0476
114.12 456 21.3542
114.238 432 20.7846
114.355 407 20.1742
114.472 423 20.567
114.589 402 20.0499
114.707 438 20.9284
114.824 435 20.8567
114.942 438 20.9284
115.059 472 21.7256
115.176 479 21.8861
115.294 489 22.1133
115.411 514 22.6716
115.529 465 21.5639
115.646 458 21.4009
115.764 460 21.4476
115.881 423 20.567
115.999 458 21.4009
116.116 452 21.2603
116.234 474 21.7715
116.351 459 21.4243
116.469 435 20.8567
116.586 445 21.095
116.704 433 20.8087
116.821 436 20.8806
116.939 428 20.6882
117.056 427 20.664
117.174 471 21.7025
117.291 432 20.7846
117.409 448 21.166
117.526 454 21.3073
117.644 419 20.4695
117.761 438 20.9284
117.879 397 19.9249
117.996 380 19.4936
118.114 400 20
118.231 411 20.2731
118.349 451 21.2368
118.466 429 20.7123
118.584 483 21.9773
118.701 426 20.6398
118.819 436 20.8806
118.936 480 21.9089
119.053 442 21.0238
119.171 413 20.3224
119.288 420 20.4939
119.405 444 21.0713
119.523 416 20.3961
119.64 423 20.567
119.757 423 20.567
119.875 453 21.2838
119.992 415 20.3715
120.109 439 20.9523
120.226 432 20.7846
120.343 368 19.1833
120.46 413 20.3224
120.578 439 20.9523
120.695 392 19.799
120.812 431 20.7605
120.929 404 20.0998
121.046 437 20.9045
121.163 416 20.3961
121.279 379 19.4679
121.396 356 18.868
121.513 356 18.868
121.63 356 18.868
121.747 336 18.3303
121.863 357 18.8944
121.98 336 18.3303
122.097 325 18.0278
122.213 320 17.8885
122.33 295 17.1756
122.446 323 17.9722
122.563 322 17.9444
122.679 301 17.3494
122.795 260 16.1245
122.912 263 16.2173
123.028 231 15.1987
123.144 208 14.4222
123.26 229 15.1327
123.377 0 1
123.493 0 1
123.609 0 1
123.725 0 1
123.84 0 1
123.956 0 1
124.072 0 1
124.188 0 1
124.303 0 1
124.419 0 1
126.852 0 1
126.968 0 1
127.083 0 1
127.199 0 1
127.315 0 1
127.431 0 1
127.547 0 1
127.663 0 1
127.779 0 1
127.895 0 1
128.011 0 1
128.127 0 1
128.243 0 1
128.359 437 20.9045
128.476 446 21.1187
128.592 438 20.9284
128.708 443 21.0476
128.825 449 21.1896
128.941 456 21.3542
129.058 504 22.4499
129.174 488 22.0907
129.291 535 23.1301
129.408 522 22.8473
129.524 580 24.0832
129.641 603 24.5561
129.758 725 26.9258
129.875 920 30.3315
129.992 1070 32.7109
130.108 1223 34.9714
130.225 1347 36.7015
130.342 1414 37.6032
130.459 1618 40.2244
130.576 1992 44.6318
130.693 2705 52.0096
130.81 3690 60.7454
130.928 5011 70.7884
131.045 6442 80.2621
131.162 7871 88.7187
131.279 9878 99.3881
131.396 11994 109.517
131.513 14818 121.729
131.631 17873 133.69
131.748 21601 146.973
131.865 25952 161.096
131.983 31164 176.533
132.1 35157 187.502
132.217 39933 199.832
132.335 43695 209.033
132.452 46818 216.375
132.57 48655 220.579
132.687 49807 223.175
132.804 52439 228.996
132.922 52197 228.467
133.039 52617 229.384
133.157 52274 228.635
133.274 51490 226.914
133.392 49378 222.212
133.509 45840 214.103
133.627 41006 202.499
133.744 36281 190.476
133.862 32567 180.463
133.979 31980 178.83
134.097 34577 185.949
134.214 38125 195.256
134.332 41504 203.725
134.449 42577 206.342
134.567 41611 203.988
134.684 39705 199.261
134.802 38113 195.226
134.919 38611 196.497
135.037 38228 195.52
135.154 36727 191.643
135.272 35143 187.465
135.389 33344 182.603
135.507 31547 177.615
135.624 29574 171.971
135.742 27664 166.325
135.859 26019 161.304
135.977 24517 156.579
136.094 23122 152.059
136.211 21678 147.235
136.329 19964 141.294
136.446 18473 135.915
136.564 16867 129.873
136.681 15956 126.317
136.798 14315 119.645
136.915 12127 110.123
137.033 10129 100.643
137.15 7993 89.4036
137.267 6186 78.6511
137.384 4747 68.8985
137.502 4236 65.0846
137.619 4851 69.6491
137.736 6312 79.4481
137.853 7546 86.8677
137.97 8236 90.7524
138.087 8244 90.7965
138.204 7989 89.3812
138.321 7604 87.2009
138.438 7497 86.5852
138.555 7282 85.3346
138.672 6811 82.5288
138.788 6023 77.608
138.905 5258 72.5121
139.022 4769 69.0579
139.139 4623 67.9926
139.255 4245 65.1537
139.372 3919 62.6019
139.488 3642 60.349
139.605 3355 57.9224
139.721 3114 55.8032
139.838 2921 54.0463
139.954 2607 51.0588
140.071 2481 49.8096
140.187 2414 49.1325
140.303 2080 45.607
140.419 1993 44.643
140.535 1934 43.9773
140.652 1634 40.4228
140.768 0 1
140.884 0 1
141 0 1
141.115 0 1
141.231 0 1
141.347 0 1
141.463 0 1
141.578 0 1
141.694 0 1
144.104 0 1
144.219 0 1
144.335 0 1
144.45 0 1
144.566 0 1
144.682 0 1
144.798 0 1
144.914 0 1
145.03 0 1
145.146 3664 60.531
145.262 4145 64.3817
145.378 4608 67.8823
145.494 4812 69.3686
145.61 5147 71.7426
145.726 5349 73.1369
145.842 5548 74.4849
145.959 5748 75.8156
146.075 5811 76.2299
146.192 5915 76.909
146.308 6085 78.0064
146.425 6143 78.3773
146.541 6076 77.9487
146.658 5520 74.2967
146.774 3789 61.5549
146.891 2697 51.9326
147.008 3291 57.3672
147.125 4864 69.7424
147.241 5813 76.243
147.358 6088 78.0256
147.475 6124 78.256
147.592 5908 76.8635
147.709 5809 76.2168
147.826 5601 74.8398
147.943 5255 72.4914
148.06 5194 72.0694
148.177 4839 69.5629
148.294 4798 69.2676
148.411 4628 68.0294
148.528 4447 66.6858
148.645 4183 64.6761
148.762 3949 62.8411
148.88 3776 61.4492
148.997 3581 59.8415
149.114 3277 57.2451
149.231 3179 56.3826
149.349 3076 55.4617
149.466 3036 55.0999
149.583 2922 54.0555
149.701 2789 52.811
149.818 2685 51.817
149.935 2614 51.1273
150.053 2608 51.0686
150.17 2471 49.7092
150.287 2360 48.5798
150.405 1898 43.566
150.522 1507 38.8201
150.64 1590 39.8748
150.757 2053 45.31
150.875 2263 47.571
150.992 2257 47.5079
151.11 2254 47.4763
151.227 2260 47.5395
151.344 2219 47.1063
151.462 2310 48.0625
151.579 2118 46.0217
151.697 2126 46.1086
151.814 2163 46.5081
151.932 2157 46.4435
152.049 2119 46.0326
152.167 2138 46.2385
152.284 2176 46.6476
152.402 2144 46.3033
152.519 2211 47.0213
152.636 2196 46.8615
152.754 2183 46.7226
152.871 2167 46.551
152.989 2029 45.0444
153.106 2120 46.0435
153.223 2080 45.607
153.341 2134 46.1952
153.458 2058 45.3652
153.575 2069 45.4863
153.693 2068 45.4753
153.81 2022 44.9667
153.927 1863 43.1625
154.044 1562 39.5221
154.162 1253 35.3977
154.279 1458 38.1838
154.396 1747 41.7971
154.513 1803 42.4617
154.63 1800 42.4264
154.747 1814 42.5911
154.864 1744 41.7612
154.981 1707 41.3159
155.098 1836 42.8486
155.215 1745 41.7732
155.332 1749 41.821
155.449 1713 41.3884
155.566 1754 41.8808
155.683 1678 40.9634
155.8 1764 42
155.917 1681 41
156.033 1680 40.9878
156.15 0 1
156.267 0 1
156.383 0 1
156.5 0 1
156.617 0 1
156.733 0 1
156.85 0 1
156.966 0 1
157.082 0 1
157.199 0 1
157.315 0 1
157.431 0 1
157.547 0 1
157.664 0 1
157.78 0 1
157.896 0 1
158.012 0 1
158.128 0 1
158.244 0 1
158.359 0 1
158.475 0 1
158.591 0 1
158.706 0 1
