
6.15755 0 1
6.2731 0 1
6.3887 0 1
6.50437 0 1
6.62009 0 1
6.73587 0 1
6.8517 0 1
6.96759 0 1
7.08353 0 1
7.19952 0 1
7.31557 0 1
7.43166 0 1
7.54781 0 1
7.664 0 1
7.78024 0 1
7.89653 0 1
8.01286 0 1
8.12924 0 1
8.24567 0 1
8.36213 0 1
8.47864 0 1
8.59519 0 1
8.71178 0 1
8.82841 0 1
8.94508 0 1
9.06179 0 1
9.17853 0 1
9.29531 0 1
9.41212 0 1
9.52897 0 1
9.64584 0 1
9.76276 0 1
9.8797 0 1
9.99667 0 1
10.1137 0 1
10.2307 0 1
10.3478 0 1
10.4648 0 1
10.5819 0 1
10.6991 0 1
10.8162 0 1
10.9334 0 1
11.0506 0 1
11.1678 0 1
11.285 0 1
11.4023 0 1
11.5196 0 1
11.6369 0 1
11.7542 0 1
11.8715 0 1
11.9888 0 1
12.1062 0 1
12.2235 0 1
12.3409 0 1
12.4582 0 1
12.5756 0 1
12.693 0 1
12.8104 0 1
12.9278 0 1
13.0452 0 1
13.1626 0 1
13.28 0 1
13.3974 0 1
13.5149 0 1
13.6323 0 1
13.7497 0 1
13.8671 0 1
13.9845 0 1
14.1019 0 1
14.2193 0 1
14.3367 0 1
14.4541 0 1
14.5714 0 1
14.6888 0 1
14.8062 0 1
14.9235 0 1
15.0408 0 0
15.1581 0 0
15.2755 0 0
15.3927 0 0
15.51 0 0
15.6273 0 0
15.7445 0 0
15.8617 0 0
15.9789 0 0
16.0961 0 0
16.2132 0 0
16.3304 0 0
16.4475 0 0
16.5646 0 0
16.6816 0 0
16.7986 0 0
16.9156 0 0
17.0326 0 0
17.1496 0 0
17.2665 0 0
17.3833 0 0
17.5002 0 0
17.617 0 0
17.7338 0 0
17.8505 0 0
17.9672 0 0
18.0839 0 0
18.2005 0 0
18.3171 0 0
18.4337 0 0
18.5502 0 0
18.6666 0 0
18.7831 0 0
18.8994 0 0
19.0158 0 0
19.1321 0 0
19.2483 0 0
19.3645 0 0
19.4806 0 0
19.5967 0 0
19.7128 0 0
19.8288 0 0
19.9447 0 0
20.0606 0 1
20.1764 0 1
20.2922 0 1
20.4079 0 1
20.5236 0 1
20.6392 0 1
20.7548 0 1
20.8702 0 1
23.3078 0 1
23.4233 0 1
23.539 0 1
23.6547 0 1
23.7704 0 1
23.8862 0 1
24.0021 0 1
24.118 0 1
24.234 0 1
24.35 0 1
24.4661 2718 52.1344
24.5822 2788 52.8015
24.6984 2622 51.2055
24.8146 2578 50.774
24.9309 2410 49.0918
25.0472 2371 48.6929
25.1636 2389 48.8774
25.28 2413 49.1223
25.3965 2617 51.1566
25.513 2784 52.7636
25.6296 2966 54.461
25.7462 3278 57.2538
25.8628 3353 57.9051
25.9795 3215 56.701
26.0962 3312 57.55
26.213 3319 57.6108
26.3298 3281 57.28
26.4466 3239 56.9122
26.5635 3299 57.4369
26.6804 3182 56.4092
26.7973 3209 56.648
26.9143 3193 56.5066
27.0313 3199 56.5597
27.1483 3162 56.2317
27.2653 3321 57.6281
27.3824 3288 57.3411
27.4996 3129 55.9375
27.6167 3219 56.7362
27.7339 3032 55.0636
27.8511 2917 54.0093
27.9683 2917 54.0093
28.0855 2820 53.1037
28.2028 2733 52.2781
28.3201 2659 51.5655
28.4374 2464 49.6387
28.5547 2208 46.9894
28.6721 2214 47.0532
28.7894 2367 48.6518
28.9068 2361 48.5901
29.0242 2549 50.4876
29.1416 2818 53.0848
29.259 3043 55.1634
29.3764 3139 56.0268
29.4939 3020 54.9545
29.6113 3190 56.4801
29.7288 3095 55.6327
29.8463 3118 55.8391
29.9638 3217 56.7186
30.0812 3115 55.8122
30.1987 3186 56.4447
30.3162 3158 56.1961
30.4337 3133 55.9732
30.5512 3188 56.4624
30.6687 3127 55.9196
30.7862 3264 57.1314
30.9037 3137 56.0089
31.0212 3292 57.376
31.1387 3161 56.2228
31.2562 3195 56.5243
31.3737 3087 55.5608
31.4912 3016 54.9181
31.6087 2889 53.7494
31.7262 2697 51.9326
31.8436 2603 51.0196
31.9611 2482 49.8197
32.0785 2279 47.7389
32.1959 2161 46.4866
32.3134 2198 46.8828
32.4308 2332 48.2908
32.5482 2511 50.1099
32.6655 2700 51.9615
32.7829 2969 54.4885
32.9002 2984 54.626
33.0176 3024 54.9909
33.1349 3079 55.4887
33.2522 3138 56.0179
33.3694 3074 55.4437
33.4867 3097 55.6507
33.6039 3231 56.8419
33.7211 3145 56.0803
33.8383 3083 55.5248
33.9554 3021 54.9636
34.0725 2973 54.5252
34.1896 3081 55.5068
34.3067 3059 55.3082
34.4237 3200 56.5685
34.5407 3140 56.0357
34.6577 3072 55.4256
34.7746 3126 55.9106
34.8915 3040 55.1362
35.0084 2888 53.7401
35.1252 2876 53.6284
35.242 2747 52.4118
35.3587 2743 52.3737
35.4755 2620 51.1859
35.5921 2418 49.1732
35.7088 2250 47.4342
35.8254 2208 46.9894
35.9419 2064 45.4313
36.0584 2036 45.1221
36.1749 2239 47.3181
36.2913 2276 47.7074
36.4077 2601 51
36.524 2701 51.9711
36.6403 2941 54.231
36.7565 2878 53.647
36.8727 2974 54.5344
36.9889 3131 55.9553
37.1049 2934 54.1664
37.221 0 1
37.3369 0 1
37.4529 0 1
37.5687 0 1
37.6845 0 1
37.8003 0 1
37.916 0 1
38.0316 0 1
38.1472 0 1
40.5851 0 1
40.7008 0 1
40.8164 0 1
40.9322 0 1
41.048 0 1
41.1639 0 1
41.2798 0 1
41.3958 0 1
41.5118 0 1
41.6279 0 1
41.744 2218 47.0956
41.8602 2336 48.3322
41.9765 2456 49.558
42.0928 2503 50.03
42.2091 2566 50.6557
42.3255 2526 50.2593
42.4419 2561 50.6063
42.5584 2571 50.705
42.675 2474 49.7393
42.7915 2416 49.1528
42.9081 2480 49.7996
43.0248 2540 50.3984
43.1415 2435 49.3457
43.2582 2542 50.4183
43.375 2519 50.1896
43.4918 2552 50.5173
43.6087 2459 49.5883
43.7256 2416 49.1528
43.8425 2424 49.2341
43.9595 2314 48.1041
44.0765 2239 47.3181
44.1935 2059 45.3762
44.3106 1912 43.7264
44.4277 1881 43.3705
44.5448 1559 39.4842
44.6619 1489 38.5876
44.7791 1412 37.5766
44.8963 1457 38.1707
45.0136 1533 39.1535
45.1308 1662 40.7676
45.2481 1798 42.4028
45.3654 1895 43.5316
45.4827 1989 44.5982
45.6001 1984 44.5421
45.7174 1930 43.9318
45.8348 1940 44.0454
45.9522 1927 43.8976
46.0697 1882 43.382
46.1871 1821 42.6732
46.3046 1800 42.4264
46.422 1796 42.3792
46.5395 1858 43.1045
46.657 1758 41.9285
46.7745 1774 42.1189
46.892 1798 42.4028
47.0096 1735 41.6533
47.1271 1834 42.8252
47.2446 1743 41.7493
47.3622 1707 41.3159
47.4797 1543 39.281
47.5973 1540 39.2428
47.7149 1460 38.2099
47.8324 1418 37.6563
47.95 1279 35.7631
48.0675 1249 35.3412
48.1851 1195 34.5688
48.3027 1068 32.6803
48.4202 976 31.241
48.5378 1108 33.2866
48.6554 1152 33.9411
48.7729 1337 36.565
48.8904 1372 37.0405
49.008 1471 38.3536
49.1255 1485 38.5357
49.243 1511 38.8716
49.3605 1441 37.9605
49.478 1548 39.3446
49.5955 1521 39
49.713 1440 37.9473
49.8304 1480 38.4708
49.9479 1529 39.1024
50.0653 1537 39.2046
50.1827 1651 40.6325
50.3001 1666 40.8167
50.4175 1674 40.9145
50.5348 1706 41.3038
50.6521 1680 40.9878
50.7694 1811 42.5558
50.8867 1743 41.7493
51.004 1784 42.2374
51.1212 1774 42.1189
51.2384 1743 41.7493
51.3556 1580 39.7492
51.4727 1589 39.8623
51.5899 1355 36.8103
51.707 1274 35.6931
51.824 1234 35.1283
51.9411 1390 37.2827
52.0581 1463 38.2492
52.175 1616 40.1995
52.2919 1893 43.5086
52.4088 2128 46.1303
52.5257 2198 46.8828
52.6425 2246 47.392
52.7593 2348 48.4562
52.876 2322 48.1871
52.9927 2521 50.2096
53.1094 2421 49.2037
53.226 2339 48.3632
53.3426 2488 49.8799
53.4591 2499 49.99
53.5756 2549 50.4876
53.692 2484 49.8397
53.8084 2668 51.6527
53.9248 2721 52.1632
54.0411 2685 51.817
54.1573 2779 52.7162
54.2735 0 1
54.3896 0 1
54.5057 0 1
54.6217 0 1
54.7377 0 1
54.8537 0 1
54.9695 0 1
55.0853 0 1
55.2011 0 1
55.3168 0 1
55.4324 0 1
57.824 0 1
57.9396 0 1
58.0553 0 1
58.1711 0 1
58.2869 0 1
58.4028 0 1
58.5187 0 1
58.6347 0 1
58.7508 0 1
58.8669 0 1
58.983 2936 54.1849
59.0992 3064 55.3534
59.2155 3098 55.6597
59.3318 3284 57.3062
59.4482 3298 57.4282
59.5646 3156 56.1783
59.681 3144 56.0714
59.7975 3042 55.1543
59.9141 2906 53.9073
60.0306 2690 51.8652
60.1473 2542 50.4183
60.2639 2346 48.4355
60.3807 2035 45.111
60.4974 1823 42.6966
60.6142 1829 42.7668
60.731 1921 43.8292
60.8479 2131 46.1628
60.9648 2402 49.0102
61.0818 2548 50.4777
61.1987 2740 52.345
61.3158 2785 52.7731
61.4328 2738 52.3259
61.5499 2857 53.4509
61.667 2736 52.3068
61.7841 2754 52.4786
61.9013 2747 52.4118
62.0185 2759 52.5262
62.1357 2779 52.7162
62.253 2798 52.8961
62.3702 2718 52.1344
62.4875 2732 52.2685
62.6049 2798 52.8961
62.7222 2724 52.192
62.8396 2993 54.7083
62.9569 2918 54.0185
63.0743 2938 54.2033
63.1918 2771 52.6403
63.3092 2738 52.3259
63.4267 2515 50.1498
63.5441 2491 49.9099
63.6616 2260 47.5395
63.7791 1961 44.2832
63.8966 1741 41.7253
64.0142 1640 40.4969
64.1317 1585 39.8121
64.2492 1678 40.9634
64.3668 1809 42.5323
64.4843 2153 46.4004
64.6019 2266 47.6025
64.7195 2477 49.7695
64.837 2435 49.3457
64.9546 2590 50.892
65.0722 2480 49.7996
65.1898 2492 49.9199
65.3074 2405 49.0408
65.4249 2448 49.4773
65.5425 2428 49.2747
65.6601 2428 49.2747
65.7777 2513 50.1298
65.8952 2489 49.8899
66.0128 2599 50.9804
66.1304 2604 51.0294
66.2479 2594 50.9313
66.3655 2637 51.3517
66.483 2663 51.6043
66.6005 2661 51.5849
66.718 2708 52.0384
66.8355 2635 51.3323
66.953 2571 50.705
67.0705 2484 49.8397
67.1879 2280 47.7493
67.3054 2052 45.299
67.4228 1930 43.9318
67.5402 1629 40.3609
67.6576 1447 38.0395
67.7749 1417 37.6431
67.8923 1621 40.2616
68.0096 1714 41.4005
68.1269 2013 44.8665
68.2442 2266 47.6025
68.3614 2412 49.1121
68.4787 2465 49.6488
68.5958 2480 49.7996
68.713 2534 50.3389
68.8302 2595 50.9411
68.9473 2534 50.3389
69.0643 2597 50.9608
69.1814 2577 50.7642
69.2984 2588 50.8724
69.4154 2570 50.6952
69.5323 2678 51.7494
69.6492 2762 52.5547
69.7661 2764 52.5738
69.8829 2778 52.7067
69.9997 2910 53.9444
70.1165 2862 53.4977
70.2332 2929 54.1202
70.3499 2925 54.0833
70.4665 2801 52.9245
70.5831 2741 52.3546
70.6996 2831 53.2071
70.8161 2694 51.9038
70.9326 2354 48.518
71.049 2186 46.7547
71.1653 1875 43.3013
71.2817 1612 40.1497
71.3979 1462 38.2361
71.5141 1466 38.2884
71.6303 1478 38.4448
71.7464 1647 40.5832
71.8624 0 1
71.9784 0 1
72.0944 0 1
72.2102 0 1
72.3261 0 1
72.4418 0 1
72.5575 0 1
72.6732 0 1
75.1054 0 1
75.2209 0 1
75.3365 0 1
75.4521 0 1
75.5678 0 1
75.6835 0 1
75.7993 0 1
75.9151 0 1
76.031 0 1
76.147 2242 47.3498
76.263 2393 48.9183
76.3791 2401 49
76.4952 2020 44.9444
76.6113 1627 40.3361
76.7276 1565 39.5601
76.8438 1558 39.4715
76.9601 1631 40.3856
77.0765 1993 44.643
77.1929 2331 48.2804
77.3093 2604 51.0294
77.4258 2706 52.0192
77.5423 2758 52.5167
77.6589 2735 52.2972
77.7755 2686 51.8266
77.8921 2622 51.2055
78.0088 2638 51.3615
78.1256 2609 51.0784
78.2423 2579 50.7839
78.3591 2585 50.8429
78.4759 2687 51.8363
78.5928 2640 51.3809
78.7097 2665 51.6236
78.8266 2736 52.3068
78.9436 3021 54.9636
79.0606 2914 53.9815
79.1776 2881 53.6749
79.2946 2793 52.8488
79.4117 2925 54.0833
79.5288 2854 53.4228
79.6459 2743 52.3737
79.7631 2553 50.5272
79.8802 2496 49.96
79.9974 2304 48
80.1147 1931 43.9431
80.2319 1699 41.2189
80.3491 1415 37.6165
80.4664 1423 37.7227
80.5837 1460 38.2099
80.701 1802 42.45
80.8183 2012 44.8553
80.9357 2350 48.4768
81.053 2490 49.8999
81.1704 2562 50.6162
81.2877 2488 49.8799
81.4051 2490 49.8999
81.5225 2483 49.8297
81.6399 2401 49
81.7573 2357 48.5489
81.8747 2286 47.8121
81.9922 2399 48.9796
82.1096 2403 49.0204
82.227 2378 48.7647
82.3444 2382 48.8057
82.4619 2461 49.6085
82.5793 2631 51.2933
82.6967 2499 49.99
82.8142 2525 50.2494
82.9316 2477 49.7695
83.049 2588 50.8724
83.1664 2480 49.7996
83.2838 2362 48.6004
83.4012 2255 47.4868
83.5186 2116 46
83.636 2005 44.7772
83.7534 1729 41.5812
83.8708 1447 38.0395
83.9881 1169 34.1906
84.1055 1106 33.2566
84.2228 1271 35.6511
84.3401 1405 37.4833
84.4575 1646 40.5709
84.5747 2067 45.4643
84.692 2267 47.613
84.8093 2269 47.634
84.9265 2207 46.9787
85.0437 2213 47.0425
85.1609 2238 47.3075
85.2781 2144 46.3033
85.3952 2217 47.085
85.5123 2230 47.2229
85.6294 2277 47.7179
85.7465 2324 48.2079
85.8636 2335 48.3218
85.9806 2445 49.4469
86.0976 2628 51.264
86.2145 2596 50.951
86.3315 2642 51.4004
86.4484 2611 51.0979
86.5652 2728 52.2303
86.682 2667 51.643
86.7988 2688 51.8459
86.9156 2590 50.892
87.0323 2437 49.366
87.149 2441 49.4065
87.2657 2237 47.2969
87.3823 1978 44.4747
87.4988 1695 41.1704
87.6154 1470 38.3406
87.7318 1538 39.2173
87.8483 1728 41.5692
87.9647 1932 43.9545
88.081 2397 48.9592
88.1973 2540 50.3984
88.3136 2718 52.1344
88.4298 2721 52.1632
88.546 2599 50.9804
88.6621 2652 51.4976
88.7781 2630 51.2835
88.8942 0 1
89.0101 0 1
89.126 0 1
89.2419 0 1
89.3577 0 1
89.4734 0 1
89.5891 0 1
89.7047 0 1
89.8203 0 1
89.9358 0 1
92.3269 0 1
92.4424 0 1
92.558 0 1
92.6736 0 1
92.7893 0 1
92.905 0 1
93.0208 0 1
93.1366 0 1
93.2525 0 1
93.3685 0 1
93.4845 0 1
93.6005 2464 49.6387
93.7167 2676 51.7301
93.8328 2616 51.1468
93.949 2767 52.6023
94.0653 2678 51.7494
94.1816 2756 52.4976
94.2979 2656 51.5364
94.4143 2619 51.1762
94.5307 2558 50.5767
94.6472 2647 51.449
94.7637 2671 51.6817
94.8803 2640 51.3809
94.9969 2747 52.4118
95.1135 2737 52.3163
95.2302 2886 53.7215
95.3469 2967 54.4702
95.4637 2950 54.3139
95.5805 2987 54.6535
95.6973 2945 54.2679
95.8142 2912 53.963
95.9311 2943 54.2494
96.048 2843 53.3198
96.1649 2765 52.5833
96.2819 2649 51.4684
96.3989 2556 50.5569
96.516 2395 48.9387
96.633 2069 45.4863
96.7501 1690 41.1096
96.8673 1550 39.37
96.9844 1681 41
97.1016 1766 42.0238
97.2188 2064 45.4313
97.336 2459 49.5883
97.4532 2740 52.345
97.5704 2721 52.1632
97.6877 2726 52.2111
97.805 2621 51.1957
97.9223 2635 51.3323
98.0396 2595 50.9411
98.1569 2703 51.9904
98.2743 2629 51.2738
98.3916 2622 51.2055
98.509 2653 51.5073
98.6264 2689 51.8556
98.7438 2776 52.6878
98.8612 2749 52.4309
98.9786 2904 53.8888
99.096 2982 54.6077
99.2134 2962 54.4243
99.3308 2953 54.3415
99.4482 2969 54.4885
99.5656 2854 53.4228
99.6831 2788 52.8015
99.8005 2706 52.0192
99.9179 2720 52.1536
100.035 2467 49.6689
100.153 2221 47.1275
100.27 2023 44.9778
100.388 1637 40.4599
100.505 1573 39.6611
100.622 1830 42.7785
100.74 2138 46.2385
100.857 2539 50.3885
100.975 2773 52.6593
101.092 2701 51.9711
101.209 2701 51.9711
101.327 2764 52.5738
101.444 2675 51.7204
101.561 2729 52.2398
101.679 2685 51.817
101.796 2719 52.144
101.913 2714 52.0961
102.03 2645 51.4296
102.148 2730 52.2494
102.265 2717 52.1249
102.382 2983 54.6168
102.499 2900 53.8516
102.616 3076 55.4617
102.733 3189 56.4712
102.851 2992 54.6992
102.968 3123 55.8838
103.085 3092 55.6058
103.202 3036 55.0999
103.319 2974 54.5344
103.436 2830 53.1977
103.552 2751 52.45
103.669 2465 49.6488
103.786 2114 45.9783
103.903 1864 43.1741
104.02 1705 41.2916
104.137 1999 44.7102
104.253 2240 47.3286
104.37 2651 51.4879
104.487 2813 53.0377
104.603 2933 54.1572
104.72 2920 54.037
104.836 2962 54.4243
104.953 2967 54.4702
105.069 2906 53.9073
105.186 2909 53.9351
105.302 2984 54.626
105.418 2936 54.1849
105.535 3039 55.1271
105.651 3009 54.8544
105.767 3187 56.4535
105.883 3327 57.6802
105.999 3285 57.3149
106.115 0 1
106.231 0 1
106.347 0 1
106.463 0 1
106.579 0 1
106.694 0 1
106.81 0 1
106.926 0 1
107.041 0 1
107.157 0 1
109.576 0 1
109.692 0 1
109.807 0 1
109.923 0 1
110.039 0 1
110.155 0 1
110.27 0 1
110.386 0 1
110.502 0 1
110.618 2801 52.9245
110.735 2974 54.5344
110.851 3076 55.4617
110.967 3120 55.857
111.083 3156 56.1783
111.199 3126 55.9106
111.316 3304 57.4804
111.432 3271 57.1927
111.549 3197 56.542
111.665 3248 56.9912
111.782 3140 56.0357
111.898 3114 55.8032
112.015 3004 54.8088
112.132 2757 52.5071
112.248 2588 50.8724
112.365 2071 45.5082
112.482 1965 44.3283
112.599 1990 44.6094
112.716 2129 46.1411
112.832 2420 49.1935
112.949 2780 52.7257
113.066 2949 54.3047
113.183 2987 54.6535
113.3 2953 54.3415
113.417 3002 54.7905
113.534 2883 53.6936
113.652 2952 54.3323
113.769 2926 54.0925
113.886 2973 54.5252
114.003 2903 53.8795
114.12 3114 55.8032
114.238 3020 54.9545
114.355 3095 55.6327
114.472 3235 56.8771
114.589 3294 57.3934
114.707 3233 56.8595
114.824 3285 57.3149
114.942 3370 58.0517
115.059 3360 57.9655
115.176 3300 57.4456
115.294 3290 57.3585
115.411 3303 57.4717
115.529 3178 56.3738
115.646 2995 54.7266
115.764 2894 53.7959
115.881 2576 50.7543
115.999 2190 46.7974
116.116 2163 46.5081
116.234 2175 46.6369
116.351 2431 49.3052
116.469 2904 53.8888
116.586 3052 55.2449
116.704 3071 55.4166
116.821 3132 55.9643
116.939 3105 55.7225
117.056 3144 56.0714
117.174 3083 55.5248
117.291 3021 54.9636
117.409 3205 56.6127
117.526 3175 56.3471
117.644 3163 56.2406
117.761 3181 56.4004
117.879 3204 56.6039
117.996 3245 56.9649
118.114 3462 58.8388
118.231 3403 58.3352
118.349 3400 58.3095
118.466 3431 58.5747
118.584 3389 58.2151
118.701 3505 59.203
118.819 3384 58.1722
118.936 3265 57.1402
119.053 3263 57.1227
119.171 3080 55.4977
119.288 3065 55.3624
119.405 2805 52.9623
119.523 2423 49.224
119.64 2205 46.9574
119.757 2157 46.4435
119.875 2272 47.6655
119.992 2471 49.7092
120.109 2758 52.5167
120.226 3115 55.8122
120.343 3071 55.4166
120.46 3014 54.8999
120.578 3099 55.6687
120.695 3067 55.3805
120.812 3053 55.254
120.929 3196 56.5332
121.046 3068 55.3895
121.163 3033 55.0727
121.279 3047 55.1996
121.396 3109 55.7584
121.513 3132 55.9643
121.63 3192 56.4978
121.747 3263 57.1227
121.863 3339 57.7841
121.98 3336 57.7581
122.097 3333 57.7321
122.213 3345 57.836
122.33 3311 57.5413
122.446 3346 57.8446
122.563 3246 56.9737
122.679 3167 56.2761
122.795 3106 55.7315
122.912 3019 54.9454
123.028 2844 53.3292
123.144 2688 51.8459
123.26 2439 49.3862
123.377 0 1
123.493 0 1
123.609 0 1
123.725 0 1
123.84 0 1
123.956 0 1
124.072 0 1
124.188 0 1
124.303 0 1
124.419 0 1
126.852 0 1
126.968 0 1
127.083 0 1
127.199 0 1
127.315 0 1
127.431 0 1
127.547 0 1
127.663 0 1
127.779 0 1
127.895 0 1
128.011 0 1
128.127 0 1
128.243 0 1
128.359 2882 53.6843
128.476 2685 51.817
128.592 2527 50.2693
128.708 2341 48.3839
128.825 2548 50.4777
128.941 2812 53.0283
129.058 2926 54.0925
129.174 3260 57.0964
129.291 3261 57.1052
129.408 3301 57.4543
129.524 3233 56.8595
129.641 3340 57.7927
129.758 3242 56.9386
129.875 3223 56.7715
129.992 3336 57.7581
130.108 3244 56.9561
130.225 3294 57.3934
130.342 3343 57.8187
130.459 3299 57.4369
130.576 3446 58.7026
130.693 3513 59.2706
130.81 3541 59.5063
130.928 3469 58.8982
131.045 3529 59.4054
131.162 3643 60.3573
131.279 3562 59.6825
131.396 3659 60.4897
131.513 3499 59.1523
131.631 3422 58.4979
131.748 3076 55.4617
131.865 3233 56.8595
131.983 3013 54.8908
132.1 2693 51.8941
132.217 2536 50.3587
132.335 2623 51.2152
132.452 2821 53.1131
132.57 3069 55.3986
132.687 3253 57.0351
132.804 3407 58.3695
132.922 3420 58.4808
133.039 3392 58.2409
133.157 3420 58.4808
133.274 3419 58.4722
133.392 3361 57.9741
133.509 3424 58.515
133.627 3359 57.9569
133.744 3265 57.1402
133.862 3209 56.648
133.979 3324 57.6541
134.097 3420 58.4808
134.214 3264 57.1314
134.332 3620 60.1664
134.449 3404 58.3438
134.567 3419 58.4722
134.684 3550 59.5819
134.802 3623 60.1914
134.919 3640 60.3324
135.037 3625 60.208
135.154 3405 58.3524
135.272 3283 57.2975
135.389 3180 56.3915
135.507 3060 55.3173
135.624 2843 53.3198
135.742 2700 51.9615
135.859 2625 51.2348
135.977 2801 52.9245
136.094 3093 55.6147
136.211 3240 56.921
136.329 3453 58.7622
136.446 3429 58.5577
136.564 3351 57.8878
136.681 3409 58.3866
136.798 3350 57.8792
136.915 3334 57.7408
137.033 3317 57.5934
137.15 3345 57.836
137.267 3300 57.4456
137.384 3313 57.5587
137.502 3185 56.4358
137.619 3258 57.0789
137.736 3365 58.0086
137.853 3292 57.376
137.97 3333 57.7321
138.087 3409 58.3866
138.204 3529 59.4054
138.321 3523 59.3549
138.438 3504 59.1946
138.555 3609 60.075
138.672 3626 60.2163
138.788 3467 58.8812
138.905 3301 57.4543
139.022 3159 56.205
139.139 3083 55.5248
139.255 2885 53.7122
139.372 2734 52.2877
139.488 2769 52.6213
139.605 3043 55.1634
139.721 3115 55.8122
139.838 3325 57.6628
139.954 3424 58.515
140.071 3393 58.2495
140.187 3547 59.5567
140.303 3481 59
140.419 3350 57.8792
140.535 3345 57.836
140.652 3420 58.4808
140.768 0 1
140.884 0 1
141 0 1
141.115 0 1
141.231 0 1
141.347 0 1
141.463 0 1
141.578 0 1
141.694 0 1
144.104 0 1
144.219 0 1
144.335 0 1
144.45 0 1
144.566 0 1
144.682 0 1
144.798 0 1
144.914 0 1
145.03 0 1
145.146 2687 51.8363
145.262 2839 53.2823
145.378 2934 54.1664
145.494 2840 53.2917
145.61 2865 53.5257
145.726 2961 54.4151
145.842 2890 53.7587
145.959 2836 53.2541
146.075 2877 53.6377
146.192 2760 52.5357
146.308 2808 52.9906
146.425 2735 52.2972
146.541 2906 53.9073
146.658 2847 53.3573
146.774 2868 53.5537
146.891 2996 54.7357
147.008 3104 55.7136
147.125 2959 54.3967
147.241 3067 55.3805
147.358 3038 55.1181
147.475 3169 56.2939
147.592 3139 56.0268
147.709 2919 54.0278
147.826 2881 53.6749
147.943 2858 53.4603
148.06 2749 52.4309
148.177 2508 50.0799
148.294 2560 50.5964
148.411 2551 50.5074
148.528 2771 52.6403
148.645 2958 54.3875
148.762 2967 54.4702
148.88 3073 55.4346
148.997 2976 54.5527
149.114 3094 55.6237
149.231 3076 55.4617
149.349 3121 55.8659
149.466 3092 55.6058
149.583 3078 55.4797
149.701 2945 54.2679
149.818 3014 54.8999
149.935 2820 53.1037
150.053 2795 52.8678
150.17 2835 53.2447
150.287 2894 53.7959
150.405 3020 54.9545
150.522 3043 55.1634
150.64 3051 55.2359
150.757 3155 56.1694
150.875 3319 57.6108
150.992 3117 55.8301
151.11 3298 57.4282
151.227 3223 56.7715
151.344 3139 56.0268
151.462 3046 55.1906
151.579 3080 55.4977
151.697 2841 53.301
151.814 2800 52.915
151.932 2659 51.5655
152.049 2594 50.9313
152.167 2957 54.3783
152.284 2987 54.6535
152.402 3169 56.2939
152.519 3213 56.6833
152.636 3179 56.3826
152.754 3177 56.3649
152.871 3234 56.8683
152.989 3138 56.0179
153.106 3130 55.9464
153.223 3063 55.3444
153.341 2988 54.6626
153.458 2986 54.6443
153.575 2979 54.5802
153.693 2929 54.1202
153.81 2860 53.479
153.927 3055 55.2721
154.044 3123 55.8838
154.162 3155 56.1694
154.279 3233 56.8595
154.396 3311 57.5413
154.513 3410 58.3952
154.63 3360 57.9655
154.747 3450 58.7367
154.864 3360 57.9655
154.981 3357 57.9396
155.098 3289 57.3498
155.215 3220 56.745
155.332 3056 55.2811
155.449 2957 54.3783
155.566 3057 55.2901
155.683 3157 56.1872
155.8 3254 57.0438
155.917 3375 58.0948
156.033 3251 57.0175
156.15 0 1
156.267 0 1
156.383 0 1
156.5 0 1
156.617 0 1
156.733 0 1
156.85 0 1
156.966 0 1
157.082 0 1
157.199 0 1
157.315 0 1
157.431 0 1
157.547 0 1
157.664 0 1
157.78 0 1
157.896 0 1
158.012 0 1
158.128 0 1
158.244 0 1
158.359 0 1
158.475 0 1
158.591 0 1
158.706 0 1
