
6.15755 0 1
6.2731 0 1
6.3887 0 1
6.50437 0 1
6.62009 0 1
6.73587 0 1
6.8517 0 1
6.96759 0 1
7.08353 0 1
7.19952 0 1
7.31557 0 1
7.43166 0 1
7.54781 0 1
7.664 0 1
7.78024 0 1
7.89653 0 1
8.01286 0 1
8.12924 0 1
8.24567 0 1
8.36213 0 1
8.47864 0 1
8.59519 0 1
8.71178 0 1
8.82841 0 1
8.94508 0 1
9.06179 0 1
9.17853 0 1
9.29531 0 1
9.41212 0 1
9.52897 0 1
9.64584 0 1
9.76276 0 1
9.8797 0 1
9.99667 0 1
10.1137 0 1
10.2307 0 1
10.3478 0 1
10.4648 0 1
10.5819 0 1
10.6991 0 1
10.8162 0 1
10.9334 0 1
11.0506 0 1
11.1678 0 1
11.285 0 1
11.4023 0 1
11.5196 0 1
11.6369 0 1
11.7542 0 1
11.8715 0 1
11.9888 0 1
12.1062 0 1
12.2235 0 1
12.3409 0 1
12.4582 0 1
12.5756 0 1
12.693 0 1
12.8104 0 1
12.9278 0 1
13.0452 0 1
13.1626 0 1
13.28 0 1
13.3974 0 1
13.5149 0 1
13.6323 0 1
13.7497 0 1
13.8671 0 1
13.9845 0 1
14.1019 0 1
14.2193 0 1
14.3367 0 1
14.4541 0 1
14.5714 0 1
14.6888 0 1
14.8062 0 1
14.9235 0 1
15.0408 3120 55.857
15.1581 3223 56.7715
15.2755 3246 56.9737
15.3927 3263 57.1227
15.51 3235 56.8771
15.6273 3207 56.6304
15.7445 3071 55.4166
15.8617 3049 55.2178
15.9789 3041 55.1453
16.0961 3028 55.0273
16.2132 3032 55.0636
16.3304 3216 56.7098
16.4475 3350 57.8792
16.5646 3331 57.7148
16.6816 3612 60.0999
16.7986 3680 60.663
16.9156 4133 64.2884
17.0326 4277 65.3988
17.1496 4264 65.2993
17.2665 4334 65.8331
17.3833 4287 65.4752
17.5002 4433 66.5808
17.617 4400 66.3325
17.7338 4463 66.8057
17.8505 4375 66.1438
17.9672 4511 67.164
18.0839 4574 67.6314
18.2005 4646 68.1616
18.3171 4794 69.2387
18.4337 4565 67.5648
18.5502 4786 69.1809
18.6666 4686 68.4544
18.7831 4758 68.9783
18.8994 4785 69.1737
19.0158 4499 67.0746
19.1321 4371 66.1135
19.2483 4407 66.3852
19.3645 4234 65.0692
19.4806 4002 63.2614
19.5967 4004 63.2772
19.7128 3726 61.041
19.8288 3236 56.8859
19.9447 2773 52.6593
20.0606 0 1
20.1764 0 1
20.2922 0 1
20.4079 0 1
20.5236 0 1
20.6392 0 1
20.7548 0 1
20.8702 0 1
23.3078 0 1
23.4233 0 1
23.539 0 1
23.6547 0 1
23.7704 0 1
23.8862 0 1
24.0021 0 1
24.118 0 1
24.234 0 1
24.35 0 1
24.4661 4093 63.9766
24.5822 4114 64.1405
24.6984 4160 64.4981
24.8146 4077 63.8514
24.9309 4032 63.498
25.0472 3678 60.6465
25.1636 3376 58.1034
25.28 3335 57.7495
25.3965 3486 59.0424
25.513 3710 60.9098
25.6296 4039 63.5531
25.7462 4453 66.7308
25.8628 4942 70.2994
25.9795 4953 70.3776
26.0962 4912 70.0857
26.213 4918 70.1285
26.3298 4931 70.2211
26.4466 4845 69.606
26.5635 4947 70.3349
26.6804 4760 68.9928
26.7973 4912 70.0857
26.9143 4886 69.8999
27.0313 4924 70.1712
27.1483 4900 70
27.2653 4806 69.3253
27.3824 4903 70.0214
27.4996 4768 69.0507
27.6167 4747 68.8985
27.7339 4695 68.5201
27.8511 4517 67.2086
27.9683 4487 66.9851
28.0855 4358 66.0151
28.2028 4555 67.4907
28.3201 4345 65.9166
28.4374 4105 64.0703
28.5547 3935 62.7296
28.6721 3388 58.2065
28.7894 3092 55.6058
28.9068 3181 56.4004
29.0242 3363 57.9914
29.1416 3453 58.7622
29.259 3868 62.1932
29.3764 4267 65.3223
29.4939 4521 67.2384
29.6113 4591 67.7569
29.7288 4711 68.6367
29.8463 4547 67.4314
29.9638 4602 67.838
30.0812 4604 67.8528
30.1987 4597 67.8012
30.3162 4638 68.1029
30.4337 4646 68.1616
30.5512 4675 68.374
30.6687 4515 67.1937
30.7862 4604 67.8528
30.9037 4519 67.2235
31.0212 4651 68.1982
31.1387 4551 67.4611
31.2562 4564 67.5574
31.3737 4417 66.4605
31.4912 4290 65.4981
31.6087 4403 66.3551
31.7262 4399 66.325
31.8436 4395 66.2948
31.9611 4160 64.4981
32.0785 3746 61.2046
32.1959 3301 57.4543
32.3134 3061 55.3263
32.4308 3086 55.5518
32.5482 3150 56.1249
32.6655 3478 58.9746
32.7829 3810 61.7252
32.9002 4249 65.1844
33.0176 4496 67.0522
33.1349 4533 67.3276
33.2522 4529 67.2978
33.3694 4450 66.7083
33.4867 4496 67.0522
33.6039 4606 67.8675
33.7211 4548 67.4389
33.8383 4594 67.7791
33.9554 4432 66.5733
34.0725 4529 67.2978
34.1896 4437 66.6108
34.3067 4263 65.2917
34.4237 4283 65.4446
34.5407 4359 66.0227
34.6577 4437 66.6108
34.7746 4382 66.1967
34.8915 4310 65.6506
35.0084 4357 66.0076
35.1252 4191 64.7379
35.242 4295 65.5362
35.3587 4298 65.5591
35.4755 4267 65.3223
35.5921 4211 64.8922
35.7088 4006 63.293
35.8254 3614 60.1166
35.9419 3161 56.2228
36.0584 2886 53.7215
36.1749 2971 54.5069
36.2913 3112 55.7853
36.4077 3312 57.55
36.524 3543 59.5231
36.6403 3853 62.0725
36.7565 4277 65.3988
36.8727 4277 65.3988
36.9889 4380 66.1816
37.1049 4193 64.7534
37.221 0 1
37.3369 0 1
37.4529 0 1
37.5687 0 1
37.6845 0 1
37.8003 0 1
37.916 0 1
38.0316 0 1
38.1472 0 1
40.5851 0 1
40.7008 0 1
40.8164 0 1
40.9322 0 1
41.048 0 1
41.1639 0 1
41.2798 0 1
41.3958 0 1
41.5118 0 1
41.6279 0 1
41.744 2832 53.2165
41.8602 3245 56.9649
41.9765 3334 57.7408
42.0928 3385 58.1808
42.2091 3668 60.564
42.3255 3536 59.4643
42.4419 3595 59.9583
42.5584 3605 60.0417
42.675 3579 59.8247
42.7915 3496 59.127
42.9081 3499 59.1523
43.0248 3394 58.258
43.1415 3113 55.7943
43.2582 3272 57.2014
43.375 3302 57.463
43.4918 3209 56.648
43.6087 3296 57.4108
43.7256 3237 56.8946
43.8425 3194 56.5155
43.9595 3195 56.5243
44.0765 3167 56.2761
44.1935 2965 54.4518
44.3106 2928 54.111
44.4277 2870 53.5724
44.5448 2695 51.9134
44.6619 2455 49.548
44.7791 2071 45.5082
44.8963 2021 44.9555
45.0136 1975 44.441
45.1308 2048 45.2548
45.2481 2069 45.4863
45.3654 2329 48.2597
45.4827 2472 49.7192
45.6001 2566 50.6557
45.7174 2601 51
45.8348 2541 50.4083
45.9522 2543 50.4282
46.0697 2560 50.5964
46.1871 2552 50.5173
46.3046 2523 50.2295
46.422 2466 49.6588
46.5395 2349 48.4665
46.657 2221 47.1275
46.7745 2217 47.085
46.892 2325 48.2183
47.0096 2269 47.634
47.1271 2358 48.5592
47.2446 2341 48.3839
47.3622 2241 47.3392
47.4797 2197 46.8722
47.5973 2182 46.7119
47.7149 2204 46.9468
47.8324 2081 45.618
47.95 2059 45.3762
48.0675 1919 43.8064
48.1851 1776 42.1426
48.3027 1607 40.0874
48.4202 1471 38.3536
48.5378 1392 37.3095
48.6554 1326 36.4143
48.7729 1573 39.6611
48.8904 1669 40.8534
49.008 1828 42.7551
49.1255 1986 44.5646
49.243 1991 44.6206
49.3605 1983 44.5309
49.478 1980 44.4972
49.5955 2096 45.7821
49.713 2046 45.2327
49.8304 1994 44.6542
49.9479 1951 44.1701
50.0653 1960 44.2719
50.1827 1986 44.5646
50.3001 1924 43.8634
50.4175 2100 45.8258
50.5348 2067 45.4643
50.6521 2152 46.3897
50.7694 2305 48.0104
50.8867 2415 49.1426
51.004 2350 48.4768
51.1212 2476 49.7594
51.2384 2452 49.5177
51.3556 2439 49.3862
51.4727 2420 49.1935
51.5899 2384 48.8262
51.707 2179 46.6798
51.824 2029 45.0444
51.9411 1965 44.3283
52.0581 2069 45.4863
52.175 2180 46.6905
52.2919 2260 47.5395
52.4088 2571 50.705
52.5257 2884 53.7029
52.6425 3042 55.1543
52.7593 2994 54.7175
52.876 3166 56.2672
52.9927 3105 55.7225
53.1094 3342 57.81
53.226 3118 55.8391
53.3426 3298 57.4282
53.4591 3390 58.2237
53.5756 3106 55.7315
53.692 3051 55.2359
53.8084 3064 55.3534
53.9248 3225 56.7891
54.0411 3361 57.9741
54.1573 3610 60.0833
54.2735 0 1
54.3896 0 1
54.5057 0 1
54.6217 0 1
54.7377 0 1
54.8537 0 1
54.9695 0 1
55.0853 0 1
55.2011 0 1
55.3168 0 1
55.4324 0 1
57.824 0 1
57.9396 0 1
58.0553 0 1
58.1711 0 1
58.2869 0 1
58.4028 0 1
58.5187 0 1
58.6347 0 1
58.7508 0 1
58.8669 0 1
58.983 3399 58.3009
59.0992 3720 60.9918
59.2155 3948 62.8331
59.3318 4080 63.8749
59.4482 4156 64.467
59.5646 4284 65.4523
59.681 4298 65.5591
59.7975 4165 64.5368
59.9141 4049 63.6318
60.0306 4019 63.3956
60.1473 3922 62.6259
60.2639 3706 60.8769
60.3807 3456 58.7878
60.4974 3356 57.931
60.6142 3282 57.2887
60.731 3119 55.848
60.8479 3077 55.4707
60.9648 3230 56.8331
61.0818 3405 58.3524
61.1987 3430 58.5662
61.3158 3668 60.564
61.4328 3618 60.1498
61.5499 3692 60.7618
61.667 3592 59.9333
61.7841 3703 60.8523
61.9013 3565 59.7076
62.0185 3456 58.7878
62.1357 3324 57.6541
62.253 3397 58.2838
62.3702 3358 57.9483
62.4875 3440 58.6515
62.6049 3491 59.0847
62.7222 3651 60.4235
62.8396 3733 61.0983
62.9569 3760 61.3188
63.0743 3861 62.1369
63.1918 3813 61.7495
63.3092 3841 61.9758
63.4267 3698 60.8112
63.5441 3614 60.1166
63.6616 3516 59.2959
63.7791 3388 58.2065
63.8966 3101 55.6866
64.0142 3055 55.2721
64.1317 2863 53.507
64.2492 2747 52.4118
64.3668 2792 52.8394
64.4843 2888 53.7401
64.6019 3073 55.4346
64.7195 3138 56.0179
64.837 3424 58.515
64.9546 3320 57.6194
65.0722 3361 57.9741
65.1898 3413 58.4209
65.3074 3364 58
65.4249 3205 56.6127
65.5425 3208 56.6392
65.6601 3112 55.7853
65.7777 3111 55.7763
65.8952 3057 55.2901
66.0128 3140 56.0357
66.1304 3229 56.8243
66.2479 3323 57.6455
66.3655 3451 58.7452
66.483 3453 58.7622
66.6005 3557 59.6406
66.718 3582 59.8498
66.8355 3626 60.2163
66.953 3475 58.9491
67.0705 3431 58.5747
67.1879 3379 58.1292
67.3054 3252 57.0263
67.4228 3123 55.8838
67.5402 2855 53.4322
67.6576 2825 53.1507
67.7749 2723 52.1824
67.8923 2829 53.1883
68.0096 2855 53.4322
68.1269 2863 53.507
68.2442 3084 55.5338
68.3614 3311 57.5413
68.4787 3399 58.3009
68.5958 3361 57.9741
68.713 3516 59.2959
68.8302 3500 59.1608
68.9473 3384 58.1722
69.0643 3377 58.112
69.1814 3305 57.4891
69.2984 3163 56.2406
69.4154 3158 56.1961
69.5323 3299 57.4369
69.6492 3364 58
69.7661 3425 58.5235
69.8829 3670 60.5805
69.9997 3842 61.9839
70.1165 3883 62.3137
70.2332 3986 63.1348
70.3499 4112 64.1249
70.4665 3910 62.53
70.5831 4052 63.6553
70.6996 3752 61.2536
70.8161 3824 61.8385
70.9326 3738 61.1392
71.049 3441 58.66
71.1653 3348 57.8619
71.2817 3171 56.3116
71.3979 2919 54.0278
71.5141 2860 53.479
71.6303 2641 51.3907
71.7464 2428 49.2747
71.8624 0 1
71.9784 0 1
72.0944 0 1
72.2102 0 1
72.3261 0 1
72.4418 0 1
72.5575 0 1
72.6732 0 1
75.1054 0 1
75.2209 0 1
75.3365 0 1
75.4521 0 1
75.5678 0 1
75.6835 0 1
75.7993 0 1
75.9151 0 1
76.031 0 1
76.147 3184 56.4269
76.263 3599 59.9917
76.3791 3618 60.1498
76.4952 3470 58.9067
76.6113 3139 56.0268
76.7276 3113 55.7943
76.8438 2998 54.754
76.9601 3114 55.8032
77.0765 3133 55.9732
77.1929 3337 57.7668
77.3093 3572 59.7662
77.4258 3711 60.918
77.5423 3742 61.1719
77.6589 3858 62.1128
77.7755 3703 60.8523
77.8921 3811 61.7333
78.0088 3683 60.6877
78.1256 3400 58.3095
78.2423 3174 56.3383
78.3591 2904 53.8888
78.4759 2785 52.7731
78.5928 2962 54.4243
78.7097 3250 57.0088
78.8266 3333 57.7321
78.9436 3856 62.0967
79.0606 3864 62.1611
79.1776 3838 61.9516
79.2946 3988 63.1506
79.4117 3937 62.7455
79.5288 4012 63.3404
79.6459 3918 62.5939
79.7631 3781 61.4898
79.8802 3517 59.3043
79.9974 3300 57.4456
80.1147 3139 56.0268
80.2319 3054 55.263
80.3491 2835 53.2447
80.4664 2696 51.923
80.5837 2779 52.7162
80.701 2896 53.8145
80.8183 3026 55.0091
80.9357 3242 56.9386
81.053 3326 57.6715
81.1704 3361 57.9741
81.2877 3203 56.5951
81.4051 3379 58.1292
81.5225 3311 57.5413
81.6399 3332 57.7235
81.7573 3082 55.5158
81.8747 2727 52.2207
81.9922 2630 51.2835
82.1096 2512 50.1199
82.227 2535 50.3488
82.3444 2804 52.9528
82.4619 3153 56.1516
82.5793 3354 57.9137
82.6967 3368 58.0345
82.8142 3373 58.0775
82.9316 3384 58.1722
83.049 3345 57.836
83.1664 3378 58.1206
83.2838 3240 56.921
83.4012 3143 56.0625
83.5186 2935 54.1756
83.636 2901 53.8609
83.7534 2613 51.1175
83.8708 2503 50.03
83.9881 2536 50.3587
84.1055 2386 48.8467
84.2228 2480 49.7996
84.3401 2628 51.264
84.4575 2761 52.5452
84.5747 2876 53.6284
84.692 3089 55.5788
84.8093 3039 55.1271
84.9265 2986 54.6443
85.0437 3070 55.4076
85.1609 3100 55.6776
85.2781 2794 52.8583
85.3952 2610 51.0882
85.5123 2453 49.5278
85.6294 2260 47.5395
85.7465 2437 49.366
85.8636 2617 51.1566
85.9806 3110 55.7674
86.0976 3389 58.2151
86.2145 3517 59.3043
86.3315 3794 61.5955
86.4484 3614 60.1166
86.5652 3775 61.441
86.682 3758 61.3025
86.7988 3738 61.1392
86.9156 3684 60.696
87.0323 3527 59.3886
87.149 3458 58.8048
87.2657 3254 57.0438
87.3823 3186 56.4447
87.4988 3063 55.3444
87.6154 2977 54.5619
87.7318 3077 55.4707
87.8483 3133 55.9732
87.9647 3374 58.0861
88.081 3465 58.8643
88.1973 3704 60.8605
88.3136 3730 61.0737
88.4298 3748 61.2209
88.546 3705 60.8687
88.6621 3712 60.9262
88.7781 3421 58.4893
88.8942 0 1
89.0101 0 1
89.126 0 1
89.2419 0 1
89.3577 0 1
89.4734 0 1
89.5891 0 1
89.7047 0 1
89.8203 0 1
89.9358 0 1
92.3269 0 1
92.4424 0 1
92.558 0 1
92.6736 0 1
92.7893 0 1
92.905 0 1
93.0208 0 1
93.1366 0 1
93.2525 0 1
93.3685 0 1
93.4845 0 1
93.6005 3616 60.1332
93.7167 3631 60.2578
93.8328 3788 61.5467
93.949 3667 60.5558
94.0653 3639 60.3241
94.1816 3667 60.5558
94.2979 3500 59.1608
94.4143 3244 56.9561
94.5307 2781 52.7352
94.6472 2710 52.0577
94.7637 2678 51.7494
94.8803 2885 53.7122
94.9969 3278 57.2538
95.1135 3770 61.4003
95.2302 3872 62.2254
95.3469 4002 63.2614
95.4637 3975 63.0476
95.5805 4010 63.3246
95.6973 4161 64.5058
95.8142 4129 64.2573
95.9311 3935 62.7296
96.048 3919 62.6019
96.1649 3839 61.9597
96.2819 3761 61.327
96.3989 3582 59.8498
96.516 3441 58.66
96.633 3317 57.5934
96.7501 3212 56.6745
96.8673 3219 56.7362
96.9844 3253 57.0351
97.1016 3317 57.5934
97.2188 3562 59.6825
97.336 3704 60.8605
97.4532 3723 61.0164
97.5704 3765 61.3596
97.6877 3787 61.5386
97.805 3728 61.0574
97.9223 3407 58.3695
98.0396 3121 55.8659
98.1569 2714 52.0961
98.2743 2471 49.7092
98.3916 2473 49.7293
98.509 2714 52.0961
98.6264 3289 57.3498
98.7438 3445 58.6941
98.8612 3682 60.6795
98.9786 3945 62.8092
99.096 3980 63.0872
99.2134 3977 63.0635
99.3308 4003 63.2693
99.4482 4055 63.6789
99.5656 3906 62.498
99.6831 3916 62.578
99.8005 3669 60.5723
99.9179 3618 60.1498
100.035 3583 59.8582
100.153 3422 58.4979
100.27 3296 57.4108
100.388 3281 57.28
100.505 3365 58.0086
100.622 3429 58.5577
100.74 3632 60.2661
100.857 3572 59.7662
100.975 3760 61.3188
101.092 3645 60.3738
101.209 3730 61.0737
101.327 3655 60.4566
101.444 3645 60.3738
101.561 3329 57.6975
101.679 2933 54.1572
101.796 2585 50.8429
101.913 2560 50.5964
102.03 2722 52.1728
102.148 3121 55.8659
102.265 3553 59.607
102.382 4139 64.3351
102.499 4071 63.8044
102.616 4059 63.7103
102.733 4108 64.0937
102.851 4240 65.1153
102.968 4315 65.6887
103.085 4392 66.2722
103.202 4053 63.6632
103.319 3958 62.9126
103.436 3884 62.3217
103.552 3805 61.6847
103.669 3581 59.8415
103.786 3648 60.3987
103.903 3539 59.4895
104.02 3603 60.025
104.137 3775 61.441
104.253 3931 62.6977
104.37 3989 63.1585
104.487 4049 63.6318
104.603 4222 64.9769
104.72 4040 63.561
104.836 4011 63.3325
104.953 3985 63.1269
105.069 3591 59.925
105.186 3086 55.5518
105.302 2864 53.5164
105.418 2937 54.1941
105.535 3113 55.7943
105.651 3796 61.6117
105.767 4190 64.7302
105.883 4425 66.5207
105.999 4632 68.0588
106.115 0 1
106.231 0 1
106.347 0 1
106.463 0 1
106.579 0 1
106.694 0 1
106.81 0 1
106.926 0 1
107.041 0 1
107.157 0 1
109.576 0 1
109.692 0 1
109.807 0 1
109.923 0 1
110.039 0 1
110.155 0 1
110.27 0 1
110.386 0 1
110.502 0 1
110.618 3129 55.9375
110.735 3670 60.5805
110.851 4224 64.9923
110.967 4298 65.5591
111.083 4351 65.9621
111.199 4444 66.6633
111.316 4617 67.9485
111.432 4522 67.2458
111.549 4475 66.8954
111.665 4462 66.7982
111.782 4334 65.8331
111.898 4158 64.4826
112.015 3995 63.206
112.132 3874 62.2415
112.248 3805 61.6847
112.365 3796 61.6117
112.482 3710 60.9098
112.599 3956 62.8967
112.716 3934 62.7216
112.832 4025 63.4429
112.949 3996 63.2139
113.066 4024 63.435
113.183 4133 64.2884
113.3 4010 63.3246
113.417 3939 62.7615
113.534 3864 62.1611
113.652 3340 57.7927
113.769 2955 54.3599
113.886 2680 51.7687
114.003 2695 51.9134
114.12 2985 54.6352
114.238 3483 59.0169
114.355 3911 62.538
114.472 4162 64.5136
114.589 4233 65.0615
114.707 4588 67.7348
114.824 4435 66.5958
114.942 4402 66.3476
115.059 4540 67.3795
115.176 4592 67.7643
115.294 4556 67.4981
115.411 4411 66.4154
115.529 4190 64.7302
115.646 4210 64.8845
115.764 4111 64.1171
115.881 4178 64.6375
115.999 4136 64.3117
116.116 4189 64.7225
116.234 4250 65.192
116.351 4274 65.3758
116.469 4407 66.3852
116.586 4366 66.0757
116.704 4229 65.0308
116.821 4340 65.8787
116.939 4462 66.7982
117.056 4299 65.5668
117.174 4035 63.5216
117.291 3448 58.7197
117.409 3063 55.3444
117.526 2825 53.1507
117.644 2967 54.4702
117.761 3282 57.2887
117.879 3991 63.1744
117.996 4337 65.8559
118.114 4506 67.1267
118.231 4700 68.5565
118.349 4752 68.9348
118.466 4802 69.2965
118.584 4758 68.9783
118.701 4781 69.1448
118.819 4656 68.2349
118.936 4501 67.0895
119.053 4486 66.9776
119.171 4251 65.1997
119.288 4346 65.9242
119.405 4326 65.7723
119.523 4279 65.4141
119.64 4169 64.5678
119.757 4284 65.4523
119.875 4236 65.0846
119.992 4249 65.1844
120.109 4430 66.5582
120.226 4327 65.7799
120.343 4225 65
120.46 4189 64.7225
120.578 4188 64.7148
120.695 4240 65.1153
120.812 3881 62.2977
120.929 3530 59.4138
121.046 3199 56.5597
121.163 2899 53.8424
121.279 2803 52.9434
121.396 3008 54.8452
121.513 3585 59.8749
121.63 4120 64.1872
121.747 4414 66.4379
121.863 4479 66.9253
121.98 4507 67.1342
122.097 4608 67.8823
122.213 4630 68.0441
122.33 4515 67.1937
122.446 4579 67.6683
122.563 4500 67.082
122.679 4465 66.8207
122.795 4231 65.0461
122.912 4351 65.9621
123.028 4268 65.3299
123.144 4133 64.2884
123.26 4116 64.1561
123.377 0 1
123.493 0 1
123.609 0 1
123.725 0 1
123.84 0 1
123.956 0 1
124.072 0 1
124.188 0 1
124.303 0 1
124.419 0 1
126.852 0 1
126.968 0 1
127.083 0 1
127.199 0 1
127.315 0 1
127.431 0 1
127.547 0 1
127.663 0 1
127.779 0 1
127.895 0 1
128.011 0 1
128.127 0 1
128.243 0 1
128.359 4627 68.0221
128.476 4619 67.9632
128.592 4656 68.2349
128.708 4698 68.542
128.825 4734 68.8041
128.941 4625 68.0074
129.058 4622 67.9853
129.174 4709 68.6222
129.291 4673 68.3593
129.408 4627 68.0221
129.524 4623 67.9926
129.641 4552 67.4685
129.758 4374 66.1362
129.875 3797 61.6198
129.992 3415 58.438
130.108 3154 56.1605
130.225 2990 54.6809
130.342 3388 58.2065
130.459 3900 62.45
130.576 4592 67.7643
130.693 4777 69.1158
130.81 5087 71.3232
130.928 5022 70.8661
131.045 5086 71.3162
131.162 5087 71.3232
131.279 5089 71.3372
131.396 5299 72.7942
131.513 5082 71.2881
131.631 4943 70.3065
131.748 4826 69.4694
131.865 5000 70.7107
131.983 5042 71.007
132.1 5065 71.1688
132.217 5001 70.7177
132.335 4990 70.6399
132.452 5106 71.4563
132.57 4915 70.1071
132.687 4840 69.5701
132.804 5165 71.8679
132.922 4891 69.9357
133.039 4902 70.0143
133.157 4845 69.606
133.274 4539 67.3721
133.392 3891 62.3779
133.509 3572 59.7662
133.627 3155 56.1694
133.744 2997 54.7449
133.862 3110 55.7674
133.979 3738 61.1392
134.097 4348 65.9394
134.214 4640 68.1175
134.332 4959 70.4202
134.449 4934 70.2424
134.567 4978 70.5549
134.684 5053 71.0845
134.802 4893 69.95
134.919 5182 71.9861
135.037 4944 70.3136
135.154 4992 70.6541
135.272 4989 70.6329
135.389 4861 69.7209
135.507 5019 70.8449
135.624 5037 70.9718
135.742 5012 70.7955
135.859 5019 70.8449
135.977 5072 71.218
136.094 4984 70.5975
136.211 5008 70.7672
136.329 4998 70.6965
136.446 5021 70.859
136.564 4851 69.6491
136.681 4807 69.3325
136.798 4795 69.2459
136.915 4391 66.2646
137.033 3758 61.3025
137.15 3374 58.0861
137.267 3141 56.0446
137.384 3065 55.3624
137.502 3113 55.7943
137.619 3691 60.7536
137.736 4150 64.4205
137.853 4434 66.5883
137.97 4726 68.7459
138.087 4954 70.3847
138.204 4895 69.9643
138.321 4880 69.857
138.438 5068 71.1899
138.555 5117 71.5332
138.672 5045 71.0282
138.788 4946 70.3278
138.905 5151 71.7705
139.022 5026 70.8943
139.139 4975 70.5337
139.255 5036 70.9648
139.372 5107 71.4633
139.488 5048 71.0493
139.605 5012 70.7955
139.721 5073 71.225
139.838 5134 71.6519
139.954 4913 70.0928
140.071 4954 70.3847
140.187 5020 70.852
140.303 4863 69.7352
140.419 4843 69.5917
140.535 4536 67.3498
140.652 4105 64.0703
140.768 0 1
140.884 0 1
141 0 1
141.115 0 1
141.231 0 1
141.347 0 1
141.463 0 1
141.578 0 1
141.694 0 1
144.104 0 1
144.219 0 1
144.335 0 1
144.45 0 1
144.566 0 1
144.682 0 1
144.798 0 1
144.914 0 1
145.03 0 1
145.146 3396 58.2752
145.262 3751 61.2454
145.378 3851 62.0564
145.494 3929 62.6817
145.61 3663 60.5227
145.726 3467 58.8812
145.842 3130 55.9464
145.959 2843 53.3198
146.075 2624 51.225
146.192 2584 50.8331
146.308 2638 51.3615
146.425 2829 53.1883
146.541 3159 56.205
146.658 3459 58.8133
146.774 3764 61.3514
146.891 3906 62.498
147.008 4074 63.8279
147.125 4070 63.7966
147.241 4216 64.9307
147.358 4299 65.5668
147.475 4310 65.6506
147.592 4412 66.4229
147.709 4212 64.8999
147.826 4384 66.2118
147.943 4360 66.0303
148.06 4190 64.7302
148.177 4381 66.1891
148.294 4326 65.7723
148.411 4227 65.0154
148.528 4373 66.1287
148.645 4207 64.8614
148.762 4343 65.9014
148.88 4320 65.7267
148.997 4352 65.9697
149.114 4455 66.7458
149.231 4262 65.284
149.349 4199 64.7997
149.466 4116 64.1561
149.583 3598 59.9833
149.701 3264 57.1314
149.818 2918 54.0185
149.935 2795 52.8678
150.053 2707 52.0288
150.17 2943 54.2494
150.287 3248 56.9912
150.405 3451 58.7452
150.522 3743 61.1801
150.64 3985 63.1269
150.757 4181 64.6607
150.875 4257 65.2457
150.992 4281 65.4294
151.11 4434 66.5883
151.227 4567 67.5796
151.344 4394 66.2873
151.462 4407 66.3852
151.579 4558 67.513
151.697 4495 67.0448
151.814 4346 65.9242
151.932 4415 66.4455
152.049 4395 66.2948
152.167 4399 66.325
152.284 4445 66.6708
152.402 4360 66.0303
152.519 4472 66.873
152.636 4453 66.7308
152.754 4404 66.3626
152.871 4404 66.3626
152.989 4278 65.4064
153.106 3929 62.6817
153.223 3614 60.1166
153.341 3228 56.8155
153.458 3027 55.0182
153.575 2978 54.5711
153.693 2921 54.0463
153.81 3139 56.0268
153.927 3369 58.0431
154.044 3576 59.7997
154.162 3789 61.5549
154.279 4093 63.9766
154.396 4356 66
154.513 4526 67.2756
154.63 4656 68.2349
154.747 4485 66.9701
154.864 4674 68.3667
154.981 4749 68.913
155.098 4611 67.9043
155.215 4728 68.7605
155.332 4829 69.491
155.449 4689 68.4763
155.566 4505 67.1193
155.683 4637 68.0955
155.8 4520 67.2309
155.917 4570 67.6018
156.033 4475 66.8954
156.15 0 1
156.267 0 1
156.383 0 1
156.5 0 1
156.617 0 1
156.733 0 1
156.85 0 1
156.966 0 1
157.082 0 1
157.199 0 1
157.315 0 1
157.431 0 1
157.547 0 1
157.664 0 1
157.78 0 1
157.896 0 1
158.012 0 1
158.128 0 1
158.244 0 1
158.359 0 1
158.475 0 1
158.591 0 1
158.706 0 1
