
6.15755 0 1
6.2731 0 1
6.3887 0 1
6.50437 0 1
6.62009 0 1
6.73587 0 1
6.8517 0 1
6.96759 0 1
7.08353 0 1
7.19952 0 1
7.31557 0 1
7.43166 0 1
7.54781 0 1
7.664 0 1
7.78024 0 1
7.89653 0 1
8.01286 0 1
8.12924 0 1
8.24567 0 1
8.36213 0 1
8.47864 0 1
8.59519 0 1
8.71178 0 1
8.82841 0 1
8.94508 0 1
9.06179 0 1
9.17853 0 1
9.29531 0 1
9.41212 0 1
9.52897 0 1
9.64584 0 1
9.76276 0 1
9.8797 0 1
9.99667 0 1
10.1137 0 1
10.2307 0 1
10.3478 0 1
10.4648 0 1
10.5819 0 1
10.6991 0 1
10.8162 0 1
10.9334 0 1
11.0506 0 1
11.1678 0 1
11.285 0 1
11.4023 0 1
11.5196 0 1
11.6369 0 1
11.7542 0 1
11.8715 0 1
11.9888 0 1
12.1062 0 1
12.2235 0 1
12.3409 0 1
12.4582 0 1
12.5756 0 1
12.693 0 1
12.8104 0 1
12.9278 0 1
13.0452 0 1
13.1626 0 1
13.28 0 1
13.3974 0 1
13.5149 0 1
13.6323 0 1
13.7497 0 1
13.8671 0 1
13.9845 0 1
14.1019 0 1
14.2193 0 1
14.3367 0 1
14.4541 0 1
14.5714 0 1
14.6888 0 1
14.8062 0 1
14.9235 0 1
15.0408 0 0
15.1581 0 0
15.2755 0 0
15.3927 0 0
15.51 0 0
15.6273 0 0
15.7445 0 0
15.8617 0 0
15.9789 0 0
16.0961 0 0
16.2132 0 0
16.3304 0 0
16.4475 0 0
16.5646 0 0
16.6816 0 0
16.7986 0 0
16.9156 0 0
17.0326 0 0
17.1496 0 0
17.2665 0 0
17.3833 0 0
17.5002 0 0
17.617 0 0
17.7338 0 0
17.8505 0 0
17.9672 0 0
18.0839 0 0
18.2005 0 0
18.3171 0 0
18.4337 0 0
18.5502 0 0
18.6666 0 0
18.7831 0 0
18.8994 0 0
19.0158 0 0
19.1321 0 0
19.2483 0 0
19.3645 0 0
19.4806 0 0
19.5967 0 0
19.7128 0 0
19.8288 0 0
19.9447 0 0
20.0606 0 1
20.1764 0 1
20.2922 0 1
20.4079 0 1
20.5236 0 1
20.6392 0 1
20.7548 0 1
20.8702 0 1
23.3078 0 1
23.4233 0 1
23.539 0 1
23.6547 0 1
23.7704 0 1
23.8862 0 1
24.0021 0 1
24.118 0 1
24.234 0 1
24.35 0 1
24.4661 987 31.4166
24.5822 939 30.6431
24.6984 983 31.3528
24.8146 945 30.7409
24.9309 931 30.5123
25.0472 1023 31.9844
25.1636 1011 31.7962
25.28 1054 32.4654
25.3965 1027 32.0468
25.513 1079 32.8481
25.6296 1070 32.7109
25.7462 1081 32.8786
25.8628 1076 32.8024
25.9795 1082 32.8938
26.0962 1037 32.2025
26.213 1098 33.1361
26.3298 1017 31.8904
26.4466 1084 32.9242
26.5635 1012 31.8119
26.6804 1023 31.9844
26.7973 1014 31.8434
26.9143 999 31.607
27.0313 967 31.0966
27.1483 913 30.2159
27.2653 959 30.9677
27.3824 960 30.9839
27.4996 1007 31.7333
27.6167 943 30.7083
27.7339 911 30.1828
27.8511 907 30.1164
27.9683 904 30.0666
28.0855 905 30.0832
28.2028 897 29.95
28.3201 914 30.2324
28.4374 893 29.8831
28.5547 952 30.8545
28.6721 994 31.5278
28.7894 985 31.3847
28.9068 1046 32.3419
29.0242 959 30.9677
29.1416 1060 32.5576
29.259 1012 31.8119
29.3764 1007 31.7333
29.4939 1017 31.8904
29.6113 1003 31.6702
29.7288 1031 32.1092
29.8463 967 31.0966
29.9638 1002 31.6544
30.0812 933 30.545
30.1987 996 31.5595
30.3162 945 30.7409
30.4337 937 30.6105
30.5512 833 28.8617
30.6687 902 30.0333
30.7862 903 30.05
30.9037 864 29.3939
31.0212 912 30.1993
31.1387 903 30.05
31.2562 923 30.3809
31.3737 863 29.3769
31.4912 879 29.6479
31.6087 859 29.3087
31.7262 870 29.4958
31.8436 878 29.6311
31.9611 916 30.2655
32.0785 919 30.315
32.1959 960 30.9839
32.3134 971 31.1609
32.4308 997 31.5753
32.5482 989 31.4484
32.6655 977 31.257
32.7829 988 31.4325
32.9002 979 31.289
33.0176 1004 31.686
33.1349 943 30.7083
33.2522 937 30.6105
33.3694 968 31.1127
33.4867 993 31.5119
33.6039 989 31.4484
33.7211 968 31.1127
33.8383 946 30.7571
33.9554 962 31.0161
34.0725 875 29.5804
34.1896 846 29.0861
34.3067 813 28.5132
34.4237 831 28.8271
34.5407 819 28.6182
34.6577 886 29.7658
34.7746 869 29.4788
34.8915 836 28.9137
35.0084 862 29.3598
35.1252 796 28.2135
35.242 888 29.7993
35.3587 844 29.0517
35.4755 803 28.3373
35.5921 849 29.1376
35.7088 837 28.931
35.8254 895 29.9166
35.9419 969 31.1288
36.0584 917 30.282
36.1749 912 30.1993
36.2913 972 31.1769
36.4077 889 29.8161
36.524 916 30.2655
36.6403 989 31.4484
36.7565 942 30.692
36.8727 859 29.3087
36.9889 929 30.4795
37.1049 952 30.8545
37.221 0 1
37.3369 0 1
37.4529 0 1
37.5687 0 1
37.6845 0 1
37.8003 0 1
37.916 0 1
38.0316 0 1
38.1472 0 1
40.5851 0 1
40.7008 0 1
40.8164 0 1
40.9322 0 1
41.048 0 1
41.1639 0 1
41.2798 0 1
41.3958 0 1
41.5118 0 1
41.6279 0 1
41.744 727 26.9629
41.8602 801 28.3019
41.9765 803 28.3373
42.0928 824 28.7054
42.2091 713 26.7021
42.3255 822 28.6705
42.4419 779 27.9106
42.5584 838 28.9482
42.675 812 28.4956
42.7915 771 27.7669
42.9081 759 27.55
43.0248 731 27.037
43.1415 659 25.671
43.2582 665 25.7876
43.375 761 27.5862
43.4918 738 27.1662
43.6087 761 27.5862
43.7256 731 27.037
43.8425 717 26.7769
43.9595 684 26.1534
44.0765 720 26.8328
44.1935 719 26.8142
44.3106 694 26.3439
44.4277 704 26.533
44.5448 753 27.4408
44.6619 697 26.4008
44.7791 728 26.9815
44.8963 715 26.7395
45.0136 698 26.4197
45.1308 677 26.0192
45.2481 703 26.5141
45.3654 722 26.8701
45.4827 644 25.3772
45.6001 666 25.807
45.7174 699 26.4386
45.8348 689 26.2488
45.9522 637 25.2389
46.0697 669 25.865
46.1871 625 25
46.3046 650 25.4951
46.422 615 24.7992
46.5395 623 24.96
46.657 546 23.3666
46.7745 510 22.5832
46.892 521 22.8254
47.0096 510 22.5832
47.1271 583 24.1454
47.2446 548 23.4094
47.3622 553 23.516
47.4797 538 23.1948
47.5973 499 22.3383
47.7149 514 22.6716
47.8324 549 23.4307
47.95 521 22.8254
48.0675 520 22.8035
48.1851 551 23.4734
48.3027 545 23.3452
48.4202 531 23.0434
48.5378 502 22.4054
48.6554 510 22.5832
48.7729 545 23.3452
48.8904 505 22.4722
49.008 550 23.4521
49.1255 590 24.2899
49.243 540 23.2379
49.3605 543 23.3024
49.478 556 23.5797
49.5955 528 22.9783
49.713 581 24.1039
49.8304 566 23.7908
49.9479 559 23.6432
50.0653 516 22.7156
50.1827 508 22.5389
50.3001 489 22.1133
50.4175 497 22.2935
50.5348 518 22.7596
50.6521 521 22.8254
50.7694 598 24.454
50.8867 534 23.1084
51.004 568 23.8328
51.1212 567 23.8118
51.2384 599 24.4745
51.3556 576 24
51.4727 611 24.7184
51.5899 683 26.1343
51.707 644 25.3772
51.824 649 25.4755
51.9411 640 25.2982
52.0581 678 26.0384
52.175 664 25.7682
52.2919 708 26.6083
52.4088 730 27.0185
52.5257 711 26.6646
52.6425 719 26.8142
52.7593 668 25.8457
52.876 677 26.0192
52.9927 704 26.533
53.1094 721 26.8514
53.226 710 26.6458
53.3426 775 27.8388
53.4591 753 27.4408
53.5756 721 26.8514
53.692 731 27.037
53.8084 734 27.0924
53.9248 643 25.3574
54.0411 640 25.2982
54.1573 625 25
54.2735 0 1
54.3896 0 1
54.5057 0 1
54.6217 0 1
54.7377 0 1
54.8537 0 1
54.9695 0 1
55.0853 0 1
55.2011 0 1
55.3168 0 1
55.4324 0 1
57.824 0 1
57.9396 0 1
58.0553 0 1
58.1711 0 1
58.2869 0 1
58.4028 0 1
58.5187 0 1
58.6347 0 1
58.7508 0 1
58.8669 0 1
58.983 707 26.5895
59.0992 744 27.2764
59.2155 655 25.593
59.3318 688 26.2298
59.4482 715 26.7395
59.5646 734 27.0924
59.681 784 28
59.7975 804 28.3549
59.9141 762 27.6043
60.0306 806 28.3901
60.1473 776 27.8568
60.2639 752 27.4226
60.3807 787 28.0535
60.4974 765 27.6586
60.6142 756 27.4955
60.731 796 28.2135
60.8479 834 28.8791
60.9648 789 28.0891
61.0818 781 27.9464
61.1987 745 27.2947
61.3158 778 27.8927
61.4328 737 27.1477
61.5499 763 27.6225
61.667 709 26.6271
61.7841 758 27.5318
61.9013 718 26.7955
62.0185 733 27.074
62.1357 674 25.9615
62.253 691 26.2869
62.3702 690 26.2679
62.4875 643 25.3574
62.6049 614 24.779
62.7222 610 24.6982
62.8396 602 24.5357
62.9569 599 24.4745
63.0743 673 25.9422
63.1918 663 25.7488
63.3092 703 26.5141
63.4267 648 25.4558
63.5441 638 25.2587
63.6616 657 25.632
63.7791 679 26.0576
63.8966 605 24.5967
64.0142 693 26.3249
64.1317 659 25.671
64.2492 658 25.6515
64.3668 666 25.807
64.4843 665 25.7876
64.6019 668 25.8457
64.7195 611 24.7184
64.837 637 25.2389
64.9546 635 25.1992
65.0722 647 25.4362
65.1898 664 25.7682
65.3074 686 26.1916
65.4249 656 25.6125
65.5425 629 25.0799
65.6601 649 25.4755
65.7777 640 25.2982
65.8952 650 25.4951
66.0128 568 23.8328
66.1304 575 23.9792
66.2479 526 22.9347
66.3655 496 22.2711
66.483 522 22.8473
66.6005 521 22.8254
66.718 575 23.9792
66.8355 595 24.3926
66.953 603 24.5561
67.0705 617 24.8395
67.1879 603 24.5561
67.3054 671 25.9037
67.4228 589 24.2693
67.5402 577 24.0208
67.6576 543 23.3024
67.7749 672 25.923
67.8923 673 25.9422
68.0096 661 25.7099
68.1269 592 24.3311
68.2442 630 25.0998
68.3614 591 24.3105
68.4787 572 23.9165
68.5958 640 25.2982
68.713 616 24.8193
68.8302 552 23.4947
68.9473 586 24.2074
69.0643 603 24.5561
69.1814 558 23.622
69.2984 556 23.5797
69.4154 592 24.3311
69.5323 565 23.7697
69.6492 571 23.8956
69.7661 566 23.7908
69.8829 497 22.2935
69.9997 530 23.0217
70.1165 470 21.6795
70.2332 498 22.3159
70.3499 503 22.4277
70.4665 534 23.1084
70.5831 563 23.7276
70.6996 560 23.6643
70.8161 549 23.4307
70.9326 543 23.3024
71.049 562 23.7065
71.1653 564 23.7487
71.2817 549 23.4307
71.3979 535 23.1301
71.5141 515 22.6936
71.6303 524 22.891
71.7464 436 20.8806
71.8624 0 1
71.9784 0 1
72.0944 0 1
72.2102 0 1
72.3261 0 1
72.4418 0 1
72.5575 0 1
72.6732 0 1
75.1054 0 1
75.2209 0 1
75.3365 0 1
75.4521 0 1
75.5678 0 1
75.6835 0 1
75.7993 0 1
75.9151 0 1
76.031 0 1
76.147 385 19.6214
76.263 397 19.9249
76.3791 430 20.7364
76.4952 423 20.567
76.6113 440 20.9762
76.7276 398 19.9499
76.8438 404 20.0998
76.9601 389 19.7231
77.0765 396 19.8997
77.1929 390 19.7484
77.3093 377 19.4165
77.4258 387 19.6723
77.5423 419 20.4695
77.6589 399 19.975
77.7755 345 18.5742
77.8921 332 18.2209
78.0088 426 20.6398
78.1256 367 19.1572
78.2423 344 18.5472
78.3591 387 19.6723
78.4759 349 18.6815
78.5928 350 18.7083
78.7097 371 19.2614
78.8266 345 18.5742
78.9436 286 16.9115
79.0606 282 16.7929
79.1776 232 15.2315
79.2946 231 15.1987
79.4117 278 16.6733
79.5288 314 17.72
79.6459 327 18.0831
79.7631 299 17.2916
79.8802 261 16.1555
79.9974 299 17.2916
80.1147 288 16.9706
80.2319 241 15.5242
80.3491 268 16.3707
80.4664 259 16.0935
80.5837 235 15.3297
80.701 260 16.1245
80.8183 255 15.9687
80.9357 240 15.4919
81.053 267 16.3401
81.1704 215 14.6629
81.2877 237 15.3948
81.4051 220 14.8324
81.5225 213 14.5945
81.6399 224 14.9666
81.7573 194 13.9284
81.8747 203 14.2478
81.9922 177 13.3041
82.1096 211 14.5258
82.227 173 13.1529
82.3444 164 12.8062
82.4619 183 13.5277
82.5793 178 13.3417
82.6967 178 13.3417
82.8142 139 11.7898
82.9316 121 11
83.049 139 11.7898
83.1664 144 12
83.2838 137 11.7047
83.4012 126 11.225
83.5186 122 11.0454
83.636 141 11.8743
83.7534 98 9.89949
83.8708 89 9.43398
83.9881 76 8.7178
84.1055 111 10.5357
84.2228 110 10.4881
84.3401 91 9.53939
84.4575 82 9.05539
84.5747 92 9.59166
84.692 85 9.21954
84.8093 92 9.59166
84.9265 73 8.544
85.0437 77 8.77496
85.1609 73 8.544
85.2781 72 8.48528
85.3952 84 9.16515
85.5123 79 8.88819
85.6294 70 8.3666
85.7465 73 8.544
85.8636 60 7.74597
85.9806 87 9.32738
86.0976 85 9.21954
86.2145 45 6.7082
86.3315 60 7.74597
86.4484 77 8.77496
86.5652 96 9.79796
86.682 100 10
86.7988 117 10.8167
86.9156 92 9.59166
87.0323 89 9.43398
87.149 103 10.1489
87.2657 127 11.2694
87.3823 124 11.1355
87.4988 109 10.4403
87.6154 120 10.9545
87.7318 134 11.5758
87.8483 135 11.619
87.9647 130 11.4018
88.081 141 11.8743
88.1973 174 13.1909
88.3136 172 13.1149
88.4298 149 12.2066
88.546 184 13.5647
88.6621 180 13.4164
88.7781 215 14.6629
88.8942 0 1
89.0101 0 1
89.126 0 1
89.2419 0 1
89.3577 0 1
89.4734 0 1
89.5891 0 1
89.7047 0 1
89.8203 0 1
89.9358 0 1
92.3269 0 1
92.4424 0 1
92.558 0 1
92.6736 0 1
92.7893 0 1
92.905 0 1
93.0208 0 1
93.1366 0 1
93.2525 0 1
93.3685 0 1
93.4845 0 1
93.6005 284 16.8523
93.7167 303 17.4069
93.8328 330 18.1659
93.949 285 16.8819
94.0653 292 17.088
94.1816 270 16.4317
94.2979 264 16.2481
94.4143 253 15.906
94.5307 243 15.5885
94.6472 237 15.3948
94.7637 244 15.6205
94.8803 220 14.8324
94.9969 223 14.9332
95.1135 236 15.3623
95.2302 218 14.7648
95.3469 202 14.2127
95.4637 179 13.3791
95.5805 172 13.1149
95.6973 218 14.7648
95.8142 254 15.9374
95.9311 259 16.0935
96.048 281 16.7631
96.1649 256 16
96.2819 252 15.8745
96.3989 269 16.4012
96.516 270 16.4317
96.633 298 17.2627
96.7501 298 17.2627
96.8673 298 17.2627
96.9844 318 17.8326
97.1016 312 17.6635
97.2188 394 19.8494
97.336 383 19.5704
97.4532 357 18.8944
97.5704 362 19.0263
97.6877 365 19.105
97.805 342 18.4932
97.9223 371 19.2614
98.0396 394 19.8494
98.1569 401 20.025
98.2743 409 20.2237
98.3916 391 19.7737
98.509 425 20.6155
98.6264 411 20.2731
98.7438 433 20.8087
98.8612 441 21
98.9786 398 19.9499
99.096 333 18.2483
99.2134 290 17.0294
99.3308 406 20.1494
99.4482 494 22.2261
99.5656 514 22.6716
99.6831 523 22.8692
99.8005 514 22.6716
99.9179 486 22.0454
100.035 564 23.7487
100.153 497 22.2935
100.27 535 23.1301
100.388 552 23.4947
100.505 519 22.7816
100.622 574 23.9583
100.74 547 23.388
100.857 543 23.3024
100.975 597 24.4336
101.092 579 24.0624
101.209 563 23.7276
101.327 575 23.9792
101.444 593 24.3516
101.561 588 24.2487
101.679 584 24.1661
101.796 602 24.5357
101.913 599 24.4745
102.03 567 23.8118
102.148 609 24.6779
102.265 661 25.7099
102.382 573 23.9374
102.499 572 23.9165
102.616 466 21.587
102.733 397 19.9249
102.851 496 22.2711
102.968 588 24.2487
103.085 637 25.2389
103.202 613 24.7588
103.319 639 25.2784
103.436 628 25.0599
103.552 646 25.4165
103.669 597 24.4336
103.786 639 25.2784
103.903 612 24.7386
104.02 612 24.7386
104.137 618 24.8596
104.253 642 25.3377
104.37 644 25.3772
104.487 641 25.318
104.603 704 26.533
104.72 626 25.02
104.836 663 25.7488
104.953 651 25.5147
105.069 677 26.0192
105.186 722 26.8701
105.302 680 26.0768
105.418 614 24.779
105.535 643 25.3574
105.651 679 26.0576
105.767 633 25.1595
105.883 600 24.4949
105.999 522 22.8473
106.115 0 1
106.231 0 1
106.347 0 1
106.463 0 1
106.579 0 1
106.694 0 1
106.81 0 1
106.926 0 1
107.041 0 1
107.157 0 1
109.576 0 1
109.692 0 1
109.807 0 1
109.923 0 1
110.039 0 1
110.155 0 1
110.27 0 1
110.386 0 1
110.502 0 1
110.618 544 23.3238
110.735 527 22.9565
110.851 508 22.5389
110.967 502 22.4054
111.083 480 21.9089
111.199 448 21.166
111.316 386 19.6469
111.432 439 20.9523
111.549 420 20.4939
111.665 508 22.5389
111.782 495 22.2486
111.898 449 21.1896
112.015 463 21.5174
112.132 449 21.1896
112.248 443 21.0476
112.365 441 21
112.482 435 20.8567
112.599 428 20.6882
112.716 452 21.2603
112.832 426 20.6398
112.949 450 21.2132
113.066 426 20.6398
113.183 410 20.2485
113.3 410 20.2485
113.417 423 20.567
113.534 396 19.8997
113.652 400 20
113.769 423 20.567
113.886 416 20.3961
114.003 382 19.5448
114.12 350 18.7083
114.238 405 20.1246
114.355 371 19.2614
114.472 342 18.4932
114.589 351 18.735
114.707 292 17.088
114.824 287 16.9411
114.942 287 16.9411
115.059 334 18.2757
115.176 391 19.7737
115.294 356 18.868
115.411 338 18.3848
115.529 323 17.9722
115.646 361 19
115.764 371 19.2614
115.881 383 19.5704
115.999 361 19
116.116 369 19.2094
116.234 356 18.868
116.351 354 18.8149
116.469 345 18.5742
116.586 377 19.4165
116.704 388 19.6977
116.821 341 18.4662
116.939 361 19
117.056 325 18.0278
117.174 360 18.9737
117.291 371 19.2614
117.409 353 18.7883
117.526 400 20
117.644 375 19.3649
117.761 352 18.7617
117.879 299 17.2916
117.996 289 17
118.114 288 16.9706
118.231 288 16.9706
118.349 342 18.4932
118.466 324 18
118.584 356 18.868
118.701 357 18.8944
118.819 341 18.4662
118.936 346 18.6011
119.053 356 18.868
119.171 369 19.2094
119.288 347 18.6279
119.405 401 20.025
119.523 357 18.8944
119.64 372 19.2873
119.757 366 19.1311
119.875 390 19.7484
119.992 335 18.303
120.109 353 18.7883
120.226 361 19
120.343 353 18.7883
120.46 382 19.5448
120.578 336 18.3303
120.695 386 19.6469
120.812 391 19.7737
120.929 354 18.8149
121.046 371 19.2614
121.163 372 19.2873
121.279 402 20.0499
121.396 404 20.0998
121.513 336 18.3303
121.63 314 17.72
121.747 269 16.4012
121.863 273 16.5227
121.98 328 18.1108
122.097 401 20.025
122.213 362 19.0263
122.33 342 18.4932
122.446 371 19.2614
122.563 389 19.7231
122.679 380 19.4936
122.795 424 20.5913
122.912 404 20.0998
123.028 415 20.3715
123.144 405 20.1246
123.26 392 19.799
123.377 0 1
123.493 0 1
123.609 0 1
123.725 0 1
123.84 0 1
123.956 0 1
124.072 0 1
124.188 0 1
124.303 0 1
124.419 0 1
126.852 0 1
126.968 0 1
127.083 0 1
127.199 0 1
127.315 0 1
127.431 0 1
127.547 0 1
127.663 0 1
127.779 0 1
127.895 0 1
128.011 0 1
128.127 0 1
128.243 0 1
128.359 525 22.9129
128.476 521 22.8254
128.592 516 22.7156
128.708 552 23.4947
128.825 553 23.516
128.941 512 22.6274
129.058 515 22.6936
129.174 494 22.2261
129.291 518 22.7596
129.408 531 23.0434
129.524 521 22.8254
129.641 501 22.383
129.758 523 22.8692
129.875 553 23.516
129.992 543 23.3024
130.108 542 23.2809
130.225 477 21.8403
130.342 492 22.1811
130.459 450 21.2132
130.576 406 20.1494
130.693 349 18.6815
130.81 363 19.0526
130.928 373 19.3132
131.045 483 21.9773
131.162 497 22.2935
131.279 538 23.1948
131.396 582 24.1247
131.513 549 23.4307
131.631 534 23.1084
131.748 567 23.8118
131.865 579 24.0624
131.983 563 23.7276
132.1 560 23.6643
132.217 543 23.3024
132.335 528 22.9783
132.452 588 24.2487
132.57 555 23.5584
132.687 575 23.9792
132.804 590 24.2899
132.922 563 23.7276
133.039 573 23.9374
133.157 558 23.622
133.274 572 23.9165
133.392 569 23.8537
133.509 515 22.6936
133.627 606 24.6171
133.744 543 23.3024
133.862 512 22.6274
133.979 525 22.9129
134.097 483 21.9773
134.214 470 21.6795
134.332 483 21.9773
134.449 405 20.1246
134.567 420 20.4939
134.684 498 22.3159
134.802 542 23.2809
134.919 553 23.516
135.037 611 24.7184
135.154 607 24.6374
135.272 557 23.6008
135.389 625 25
135.507 594 24.3721
135.624 626 25.02
135.742 615 24.7992
135.859 610 24.6982
135.977 644 25.3772
136.094 584 24.1661
136.211 643 25.3574
136.329 618 24.8596
136.446 587 24.2281
136.564 604 24.5764
136.681 662 25.7294
136.798 647 25.4362
136.915 641 25.318
137.033 636 25.219
137.15 637 25.2389
137.267 586 24.2074
137.384 595 24.3926
137.502 590 24.2899
137.619 531 23.0434
137.736 522 22.8473
137.853 486 22.0454
137.97 509 22.561
138.087 525 22.9129
138.204 505 22.4722
138.321 496 22.2711
138.438 589 24.2693
138.555 612 24.7386
138.672 633 25.1595
138.788 613 24.7588
138.905 691 26.2869
139.022 665 25.7876
139.139 726 26.9444
139.255 702 26.4953
139.372 705 26.5518
139.488 685 26.1725
139.605 686 26.1916
139.721 723 26.8887
139.838 748 27.3496
139.954 650 25.4951
140.071 667 25.8263
140.187 712 26.6833
140.303 666 25.807
140.419 646 25.4165
140.535 667 25.8263
140.652 705 26.5518
140.768 0 1
140.884 0 1
141 0 1
141.115 0 1
141.231 0 1
141.347 0 1
141.463 0 1
141.578 0 1
141.694 0 1
144.104 0 1
144.219 0 1
144.335 0 1
144.45 0 1
144.566 0 1
144.682 0 1
144.798 0 1
144.914 0 1
145.03 0 1
145.146 661 25.7099
145.262 672 25.923
145.378 684 26.1534
145.494 706 26.5707
145.61 707 26.5895
145.726 634 25.1794
145.842 649 25.4755
145.959 644 25.3772
146.075 631 25.1197
146.192 565 23.7697
146.308 595 24.3926
146.425 556 23.5797
146.541 466 21.587
146.658 538 23.1948
146.774 555 23.5584
146.891 539 23.2164
147.008 573 23.9374
147.125 604 24.5764
147.241 647 25.4362
147.358 687 26.2107
147.475 637 25.2389
147.592 689 26.2488
147.709 668 25.8457
147.826 632 25.1396
147.943 692 26.3059
148.06 668 25.8457
148.177 649 25.4755
148.294 672 25.923
148.411 636 25.219
148.528 657 25.632
148.645 594 24.3721
148.762 692 26.3059
148.88 701 26.4764
148.997 635 25.1992
149.114 676 26
149.231 637 25.2389
149.349 621 24.9199
149.466 643 25.3574
149.583 591 24.3105
149.701 613 24.7588
149.818 563 23.7276
149.935 558 23.622
150.053 548 23.4094
150.17 566 23.7908
150.287 496 22.2711
150.405 536 23.1517
150.522 537 23.1733
150.64 593 24.3516
150.757 589 24.2693
150.875 608 24.6577
150.992 627 25.04
151.11 703 26.5141
151.227 700 26.4575
151.344 625 25
151.462 625 25
151.579 664 25.7682
151.697 674 25.9615
151.814 704 26.533
151.932 653 25.5539
152.049 712 26.6833
152.167 699 26.4386
152.284 690 26.2679
152.402 704 26.533
152.519 657 25.632
152.636 659 25.671
152.754 704 26.533
152.871 681 26.096
152.989 649 25.4755
153.106 681 26.096
153.223 619 24.8797
153.341 560 23.6643
153.458 582 24.1247
153.575 584 24.1661
153.693 560 23.6643
153.81 536 23.1517
153.927 576 24
154.044 584 24.1661
154.162 596 24.4131
154.279 614 24.779
154.396 667 25.8263
154.513 650 25.4951
154.63 655 25.593
154.747 628 25.0599
154.864 714 26.7208
154.981 730 27.0185
155.098 677 26.0192
155.215 710 26.6458
155.332 739 27.1846
155.449 727 26.9629
155.566 671 25.9037
155.683 704 26.533
155.8 739 27.1846
155.917 721 26.8514
156.033 702 26.4953
156.15 0 1
156.267 0 1
156.383 0 1
156.5 0 1
156.617 0 1
156.733 0 1
156.85 0 1
156.966 0 1
157.082 0 1
157.199 0 1
157.315 0 1
157.431 0 1
157.547 0 1
157.664 0 1
157.78 0 1
157.896 0 1
158.012 0 1
158.128 0 1
158.244 0 1
158.359 0 1
158.475 0 1
158.591 0 1
158.706 0 1
