
6.15755 0 1
6.2731 0 1
6.3887 0 1
6.50437 0 1
6.62009 0 1
6.73587 0 1
6.8517 0 1
6.96759 0 1
7.08353 0 1
7.19952 0 1
7.31557 0 1
7.43166 0 1
7.54781 0 1
7.664 0 1
7.78024 0 1
7.89653 0 1
8.01286 0 1
8.12924 0 1
8.24567 0 1
8.36213 0 1
8.47864 0 1
8.59519 0 1
8.71178 0 1
8.82841 0 1
8.94508 0 1
9.06179 0 1
9.17853 0 1
9.29531 0 1
9.41212 0 1
9.52897 0 1
9.64584 0 1
9.76276 0 1
9.8797 0 1
9.99667 0 1
10.1137 0 1
10.2307 0 1
10.3478 0 1
10.4648 0 1
10.5819 0 1
10.6991 0 1
10.8162 0 1
10.9334 0 1
11.0506 0 1
11.1678 0 1
11.285 0 1
11.4023 0 1
11.5196 0 1
11.6369 0 1
11.7542 0 1
11.8715 0 1
11.9888 0 1
12.1062 0 1
12.2235 0 1
12.3409 0 1
12.4582 0 1
12.5756 0 1
12.693 0 1
12.8104 0 1
12.9278 0 1
13.0452 0 1
13.1626 0 1
13.28 0 1
13.3974 0 1
13.5149 0 1
13.6323 0 1
13.7497 0 1
13.8671 0 1
13.9845 0 1
14.1019 0 1
14.2193 0 1
14.3367 0 1
14.4541 0 1
14.5714 0 1
14.6888 0 1
14.8062 0 1
14.9235 0 1
15.0408 0 0
15.1581 0 0
15.2755 0 0
15.3927 0 0
15.51 0 0
15.6273 0 0
15.7445 0 0
15.8617 0 0
15.9789 0 0
16.0961 0 0
16.2132 0 0
16.3304 0 0
16.4475 0 0
16.5646 0 0
16.6816 0 0
16.7986 0 0
16.9156 0 0
17.0326 0 0
17.1496 0 0
17.2665 0 0
17.3833 0 0
17.5002 0 0
17.617 0 0
17.7338 0 0
17.8505 0 0
17.9672 0 0
18.0839 0 0
18.2005 0 0
18.3171 0 0
18.4337 0 0
18.5502 0 0
18.6666 0 0
18.7831 0 0
18.8994 0 0
19.0158 0 0
19.1321 0 0
19.2483 0 0
19.3645 0 0
19.4806 0 0
19.5967 0 0
19.7128 0 0
19.8288 0 0
19.9447 0 0
20.0606 0 1
20.1764 0 1
20.2922 0 1
20.4079 0 1
20.5236 0 1
20.6392 0 1
20.7548 0 1
20.8702 0 1
23.3078 0 1
23.4233 0 1
23.539 0 1
23.6547 0 1
23.7704 0 1
23.8862 0 1
24.0021 0 1
24.118 0 1
24.234 0 1
24.35 0 1
24.4661 1437 37.9078
24.5822 1442 37.9737
24.6984 1444 38
24.8146 1461 38.223
24.9309 1404 37.47
25.0472 1406 37.4967
25.1636 1442 37.9737
25.28 1461 38.223
25.3965 1419 37.6696
25.513 1527 39.0768
25.6296 1478 38.4448
25.7462 1543 39.281
25.8628 1519 38.9744
25.9795 1539 39.2301
26.0962 1594 39.9249
26.213 1561 39.5095
26.3298 1455 38.1445
26.4466 1437 37.9078
26.5635 1383 37.1887
26.6804 1259 35.4824
26.7973 1280 35.7771
26.9143 1288 35.8887
27.0313 1324 36.3868
27.1483 1458 38.1838
27.2653 1468 38.3145
27.3824 1506 38.8072
27.4996 1527 39.0768
27.6167 1594 39.9249
27.7339 1475 38.4057
27.8511 1398 37.3898
27.9683 1442 37.9737
28.0855 1483 38.5097
28.2028 1495 38.6652
28.3201 1319 36.318
28.4374 1338 36.5787
28.5547 1380 37.1484
28.6721 1442 37.9737
28.7894 1316 36.2767
28.9068 1365 36.9459
29.0242 1379 37.1349
29.1416 1422 37.7094
29.259 1400 37.4166
29.3764 1361 36.8917
29.4939 1419 37.6696
29.6113 1384 37.2022
29.7288 1460 38.2099
29.8463 1461 38.223
29.9638 1372 37.0405
30.0812 1138 33.7343
30.1987 1184 34.4093
30.3162 1125 33.541
30.4337 1210 34.7851
30.5512 1300 36.0555
30.6687 1375 37.081
30.7862 1438 37.921
30.9037 1420 37.6829
31.0212 1431 37.8286
31.1387 1483 38.5097
31.2562 1396 37.3631
31.3737 1516 38.9358
31.4912 1463 38.2492
31.6087 1355 36.8103
31.7262 1424 37.7359
31.8436 1403 37.4566
31.9611 1414 37.6032
32.0785 1438 37.921
32.1959 1319 36.318
32.3134 1364 36.9324
32.4308 1350 36.7423
32.5482 1349 36.7287
32.6655 1376 37.0945
32.7829 1318 36.3043
32.9002 1305 36.1248
33.0176 1305 36.1248
33.1349 1368 36.9865
33.2522 1422 37.7094
33.3694 1389 37.2693
33.4867 1325 36.4005
33.6039 1301 36.0694
33.7211 1238 35.1852
33.8383 1144 33.8231
33.9554 1126 33.5559
34.0725 1088 32.9848
34.1896 1267 35.5949
34.3067 1242 35.242
34.4237 1302 36.0832
34.5407 1370 37.0135
34.6577 1391 37.2961
34.7746 1389 37.2693
34.8915 1381 37.1618
35.0084 1344 36.6606
35.1252 1368 36.9865
35.242 1351 36.756
35.3587 1399 37.4032
35.4755 1378 37.1214
35.5921 1371 37.027
35.7088 1260 35.4965
35.8254 1286 35.8608
35.9419 1250 35.3553
36.0584 1284 35.8329
36.1749 1271 35.6511
36.2913 1273 35.6791
36.4077 1349 36.7287
36.524 1209 34.7707
36.6403 1286 35.8608
36.7565 1323 36.3731
36.8727 1348 36.7151
36.9889 1324 36.3868
37.1049 1340 36.606
37.221 0 1
37.3369 0 1
37.4529 0 1
37.5687 0 1
37.6845 0 1
37.8003 0 1
37.916 0 1
38.0316 0 1
38.1472 0 1
40.5851 0 1
40.7008 0 1
40.8164 0 1
40.9322 0 1
41.048 0 1
41.1639 0 1
41.2798 0 1
41.3958 0 1
41.5118 0 1
41.6279 0 1
41.744 942 30.692
41.8602 1029 32.078
41.9765 1004 31.686
42.0928 1063 32.6037
42.2091 1058 32.5269
42.3255 1056 32.4962
42.4419 1013 31.8277
42.5584 885 29.7489
42.675 799 28.2666
42.7915 819 28.6182
42.9081 834 28.8791
43.0248 907 30.1164
43.1415 923 30.3809
43.2582 1041 32.2645
43.375 1018 31.9061
43.4918 994 31.5278
43.6087 1024 32
43.7256 984 31.3688
43.8425 934 30.5614
43.9595 891 29.8496
44.0765 899 29.9833
44.1935 947 30.7734
44.3106 880 29.6648
44.4277 807 28.4077
44.5448 861 29.3428
44.6619 840 28.9828
44.7791 854 29.2233
44.8963 796 28.2135
45.0136 794 28.178
45.1308 830 28.8097
45.2481 816 28.5657
45.3654 798 28.2489
45.4827 767 27.6948
45.6001 730 27.0185
45.7174 778 27.8927
45.8348 740 27.2029
45.9522 779 27.9106
46.0697 729 27
46.1871 601 24.5153
46.3046 594 24.3721
46.422 561 23.6854
46.5395 637 25.2389
46.657 656 25.6125
46.7745 716 26.7582
46.892 673 25.9422
47.0096 698 26.4197
47.1271 627 25.04
47.2446 730 27.0185
47.3622 736 27.1293
47.4797 649 25.4755
47.5973 702 26.4953
47.7149 648 25.4558
47.8324 622 24.9399
47.95 695 26.3629
48.0675 609 24.6779
48.1851 572 23.9165
48.3027 591 24.3105
48.4202 550 23.4521
48.5378 571 23.8956
48.6554 543 23.3024
48.7729 548 23.4094
48.8904 555 23.5584
49.008 583 24.1454
49.1255 537 23.1733
49.243 542 23.2809
49.3605 556 23.5797
49.478 544 23.3238
49.5955 478 21.8632
49.713 448 21.166
49.8304 471 21.7025
49.9479 473 21.7486
50.0653 526 22.9347
50.1827 583 24.1454
50.3001 588 24.2487
50.4175 627 25.04
50.5348 632 25.1396
50.6521 708 26.6083
50.7694 724 26.9072
50.8867 733 27.074
51.004 729 27
51.1212 743 27.258
51.2384 735 27.1109
51.3556 765 27.6586
51.4727 744 27.2764
51.5899 766 27.6767
51.707 801 28.3019
51.824 779 27.9106
51.9411 742 27.2397
52.0581 824 28.7054
52.175 808 28.4253
52.2919 835 28.8964
52.4088 874 29.5635
52.5257 834 28.8791
52.6425 875 29.5804
52.7593 983 31.3528
52.876 961 31
52.9927 927 30.4467
53.1094 893 29.8831
53.226 815 28.5482
53.3426 747 27.3313
53.4591 742 27.2397
53.5756 795 28.1957
53.692 855 29.2404
53.8084 1002 31.6544
53.9248 1009 31.7648
54.0411 1011 31.7962
54.1573 1094 33.0757
54.2735 0 1
54.3896 0 1
54.5057 0 1
54.6217 0 1
54.7377 0 1
54.8537 0 1
54.9695 0 1
55.0853 0 1
55.2011 0 1
55.3168 0 1
55.4324 0 1
57.824 0 1
57.9396 0 1
58.0553 0 1
58.1711 0 1
58.2869 0 1
58.4028 0 1
58.5187 0 1
58.6347 0 1
58.7508 0 1
58.8669 0 1
58.983 1172 34.2345
59.0992 1212 34.8138
59.2155 1342 36.6333
59.3318 1269 35.623
59.4482 1393 37.3229
59.5646 1352 36.7696
59.681 1343 36.647
59.7975 1227 35.0286
59.9141 1266 35.5809
60.0306 1189 34.4819
60.1473 1214 34.8425
60.2639 1192 34.5254
60.3807 1209 34.7707
60.4974 1152 33.9411
60.6142 1136 33.7046
60.731 1146 33.8526
60.8479 1145 33.8378
60.9648 1166 34.1467
61.0818 1116 33.4066
61.1987 1135 33.6898
61.3158 1196 34.5832
61.4328 1124 33.5261
61.5499 1072 32.7414
61.667 1096 33.1059
61.7841 946 30.7571
61.9013 908 30.133
62.0185 884 29.7321
62.1357 868 29.4618
62.253 952 30.8545
62.3702 1079 32.8481
62.4875 1150 33.9116
62.6049 1198 34.6121
62.7222 1188 34.4674
62.8396 1199 34.6266
62.9569 1305 36.1248
63.0743 1264 35.5528
63.1918 1284 35.8329
63.3092 1271 35.6511
63.4267 1247 35.3129
63.5441 1192 34.5254
63.6616 1211 34.7994
63.7791 1211 34.7994
63.8966 1226 35.0143
64.0142 1201 34.6554
64.1317 1172 34.2345
64.2492 1263 35.5387
64.3668 1189 34.4819
64.4843 1251 35.3695
64.6019 1170 34.2053
64.7195 1223 34.9714
64.837 1276 35.7211
64.9546 1256 35.4401
65.0722 1232 35.0999
65.1898 1128 33.5857
65.3074 1069 32.6956
65.4249 975 31.225
65.5425 907 30.1164
65.6601 935 30.5778
65.7777 1028 32.0624
65.8952 1091 33.0303
66.0128 1161 34.0735
66.1304 1244 35.2704
66.2479 1268 35.609
66.3655 1322 36.3593
66.483 1307 36.1525
66.6005 1329 36.4555
66.718 1353 36.7831
66.8355 1386 37.229
66.953 1335 36.5377
67.0705 1293 35.9583
67.1879 1256 35.4401
67.3054 1180 34.3511
67.4228 1193 34.5398
67.5402 1142 33.7935
67.6576 1149 33.8969
67.7749 1102 33.1964
67.8923 1175 34.2783
68.0096 1079 32.8481
68.1269 1126 33.5559
68.2442 1176 34.2929
68.3614 1158 34.0294
68.4787 1131 33.6303
68.5958 1108 33.2866
68.713 1109 33.3017
68.8302 1068 32.6803
68.9473 929 30.4795
69.0643 891 29.8496
69.1814 767 27.6948
69.2984 823 28.688
69.4154 878 29.6311
69.5323 1009 31.7648
69.6492 1111 33.3317
69.7661 1156 34
69.8829 1174 34.2637
69.9997 1216 34.8712
70.1165 1241 35.2278
70.2332 1271 35.6511
70.3499 1277 35.7351
70.4665 1218 34.8999
70.5831 1218 34.8999
70.6996 1203 34.6843
70.8161 1186 34.4384
70.9326 1077 32.8177
71.049 1048 32.3728
71.1653 1031 32.1092
71.2817 1061 32.573
71.3979 985 31.3847
71.5141 1037 32.2025
71.6303 1102 33.1964
71.7464 969 31.1288
71.8624 0 1
71.9784 0 1
72.0944 0 1
72.2102 0 1
72.3261 0 1
72.4418 0 1
72.5575 0 1
72.6732 0 1
75.1054 0 1
75.2209 0 1
75.3365 0 1
75.4521 0 1
75.5678 0 1
75.6835 0 1
75.7993 0 1
75.9151 0 1
76.031 0 1
76.147 1105 33.2415
76.263 1170 34.2053
76.3791 1166 34.1467
76.4952 1119 33.4515
76.6113 1071 32.7261
76.7276 1076 32.8024
76.8438 1065 32.6343
76.9601 1091 33.0303
77.0765 1143 33.8083
77.1929 1148 33.8821
77.3093 1147 33.8674
77.4258 1139 33.7491
77.5423 1226 35.0143
77.6589 1119 33.4515
77.7755 1146 33.8526
77.8921 971 31.1609
78.0088 858 29.2916
78.1256 802 28.3196
78.2423 744 27.2764
78.3591 778 27.8927
78.4759 899 29.9833
78.5928 989 31.4484
78.7097 1036 32.187
78.8266 1126 33.5559
78.9436 1230 35.0714
79.0606 1186 34.4384
79.1776 1196 34.5832
79.2946 1154 33.9706
79.4117 1229 35.0571
79.5288 1211 34.7994
79.6459 1165 34.1321
79.7631 1182 34.3802
79.8802 1099 33.1512
79.9974 1066 32.6497
80.1147 974 31.209
80.2319 975 31.225
80.3491 912 30.1993
80.4664 988 31.4325
80.5837 947 30.7734
80.701 968 31.1127
80.8183 986 31.4006
80.9357 960 30.9839
81.053 1004 31.686
81.1704 1050 32.4037
81.2877 983 31.3528
81.4051 1021 31.9531
81.5225 840 28.9828
81.6399 785 28.0179
81.7573 724 26.9072
81.8747 674 25.9615
81.9922 649 25.4755
82.1096 748 27.3496
82.227 819 28.6182
82.3444 899 29.9833
82.4619 988 31.4325
82.5793 1020 31.9374
82.6967 970 31.1448
82.8142 1016 31.8748
82.9316 1018 31.9061
83.049 1022 31.9687
83.1664 993 31.5119
83.2838 973 31.1929
83.4012 870 29.4958
83.5186 858 29.2916
83.636 824 28.7054
83.7534 830 28.8097
83.8708 818 28.6007
83.9881 790 28.1069
84.1055 829 28.7924
84.2228 821 28.6531
84.3401 817 28.5832
84.4575 899 29.9833
84.5747 916 30.2655
84.692 907 30.1164
84.8093 870 29.4958
84.9265 878 29.6311
85.0437 784 28
85.1609 766 27.6767
85.2781 629 25.0799
85.3952 656 25.6125
85.5123 616 24.8193
85.6294 702 26.4953
85.7465 800 28.2843
85.8636 893 29.8831
85.9806 916 30.2655
86.0976 1028 32.0624
86.2145 1086 32.9545
86.3315 1165 34.1321
86.4484 1110 33.3167
86.5652 1116 33.4066
86.682 1137 33.7194
86.7988 1068 32.6803
86.9156 1123 33.5112
87.0323 1066 32.6497
87.149 987 31.4166
87.2657 975 31.225
87.3823 938 30.6268
87.4988 946 30.7571
87.6154 994 31.5278
87.7318 1014 31.8434
87.8483 1039 32.2335
87.9647 1029 32.078
88.081 1079 32.8481
88.1973 1098 33.1361
88.3136 1048 32.3728
88.4298 1075 32.7872
88.546 1080 32.8634
88.6621 927 30.4467
88.7781 852 29.189
88.8942 0 1
89.0101 0 1
89.126 0 1
89.2419 0 1
89.3577 0 1
89.4734 0 1
89.5891 0 1
89.7047 0 1
89.8203 0 1
89.9358 0 1
92.3269 0 1
92.4424 0 1
92.558 0 1
92.6736 0 1
92.7893 0 1
92.905 0 1
93.0208 0 1
93.1366 0 1
93.2525 0 1
93.3685 0 1
93.4845 0 1
93.6005 1039 32.2335
93.7167 1135 33.6898
93.8328 1086 32.9545
93.949 1107 33.2716
94.0653 1011 31.7962
94.1816 936 30.5941
94.2979 846 29.0861
94.4143 817 28.5832
94.5307 812 28.4956
94.6472 806 28.3901
94.7637 885 29.7489
94.8803 987 31.4166
94.9969 1055 32.4808
95.1135 1184 34.4093
95.2302 1200 34.641
95.3469 1255 35.426
95.4637 1267 35.5949
95.5805 1218 34.8999
95.6973 1276 35.7211
95.8142 1232 35.0999
95.9311 1233 35.1141
96.048 1255 35.426
96.1649 1192 34.5254
96.2819 1096 33.1059
96.3989 1098 33.1361
96.516 1111 33.3317
96.633 1075 32.7872
96.7501 999 31.607
96.8673 1056 32.4962
96.9844 1057 32.5115
97.1016 1085 32.9393
97.2188 1128 33.5857
97.336 1191 34.5109
97.4532 1187 34.4529
97.5704 1094 33.0757
97.6877 1060 32.5576
97.805 1036 32.187
97.9223 925 30.4138
98.0396 806 28.3901
98.1569 825 28.7228
98.2743 821 28.6531
98.3916 846 29.0861
98.509 988 31.4325
98.6264 1034 32.1559
98.7438 1116 33.4066
98.8612 1126 33.5559
98.9786 1296 36
99.096 1344 36.6606
99.2134 1278 35.7491
99.3308 1279 35.7631
99.4482 1316 36.2767
99.5656 1307 36.1525
99.6831 1186 34.4384
99.8005 1201 34.6554
99.9179 1149 33.8969
100.035 1138 33.7343
100.153 1100 33.1662
100.27 1124 33.5261
100.388 1074 32.7719
100.505 1129 33.6006
100.622 1075 32.7872
100.74 1208 34.7563
100.857 1188 34.4674
100.975 1186 34.4384
101.092 1218 34.8999
101.209 1177 34.3074
101.327 1100 33.1662
101.444 1006 31.7175
101.561 908 30.133
101.679 834 28.8791
101.796 810 28.4605
101.913 860 29.3258
102.03 994 31.5278
102.148 1120 33.4664
102.265 1146 33.8526
102.382 1227 35.0286
102.499 1284 35.8329
102.616 1353 36.7831
102.733 1355 36.8103
102.851 1407 37.51
102.968 1402 37.4433
103.085 1333 36.5103
103.202 1397 37.3765
103.319 1274 35.6931
103.436 1213 34.8281
103.552 1217 34.8855
103.669 1167 34.1614
103.786 1215 34.8569
103.903 1149 33.8969
104.02 1113 33.3617
104.137 1197 34.5977
104.253 1227 35.0286
104.37 1277 35.7351
104.487 1283 35.819
104.603 1240 35.2136
104.72 1236 35.1568
104.836 1084 32.9242
104.953 1031 32.1092
105.069 947 30.7734
105.186 934 30.5614
105.302 981 31.3209
105.418 996 31.5595
105.535 1126 33.5559
105.651 1225 35
105.767 1435 37.8814
105.883 1448 38.0526
105.999 1430 37.8153
106.115 0 1
106.231 0 1
106.347 0 1
106.463 0 1
106.579 0 1
106.694 0 1
106.81 0 1
106.926 0 1
107.041 0 1
107.157 0 1
109.576 0 1
109.692 0 1
109.807 0 1
109.923 0 1
110.039 0 1
110.155 0 1
110.27 0 1
110.386 0 1
110.502 0 1
110.618 1045 32.3265
110.735 1183 34.3948
110.851 1310 36.1939
110.967 1281 35.7911
111.083 1346 36.6879
111.199 1437 37.9078
111.316 1432 37.8418
111.432 1374 37.0675
111.549 1414 37.6032
111.665 1401 37.4299
111.782 1365 36.9459
111.898 1258 35.4683
112.015 1188 34.4674
112.132 1187 34.4529
112.248 1191 34.5109
112.365 1113 33.3617
112.482 1080 32.8634
112.599 1139 33.7491
112.716 1196 34.5832
112.832 1148 33.8821
112.949 1240 35.2136
113.066 1213 34.8281
113.183 1203 34.6843
113.3 1129 33.6006
113.417 1029 32.078
113.534 995 31.5436
113.652 943 30.7083
113.769 917 30.282
113.886 811 28.4781
114.003 894 29.8998
114.12 1019 31.9218
114.238 1097 33.121
114.355 1231 35.0856
114.472 1274 35.6931
114.589 1268 35.609
114.707 1273 35.6791
114.824 1340 36.606
114.942 1393 37.3229
115.059 1370 37.0135
115.176 1292 35.9444
115.294 1312 36.2215
115.411 1312 36.2215
115.529 1253 35.3977
115.646 1236 35.1568
115.764 1155 33.9853
115.881 1138 33.7343
115.999 1081 32.8786
116.116 1108 33.2866
116.234 1124 33.5261
116.351 1242 35.242
116.469 1298 36.0278
116.586 1208 34.7563
116.704 1251 35.3695
116.821 1165 34.1321
116.939 1169 34.1906
117.056 1110 33.3167
117.174 1011 31.7962
117.291 939 30.6431
117.409 904 30.0666
117.526 934 30.5614
117.644 1035 32.1714
117.761 1167 34.1614
117.879 1212 34.8138
117.996 1336 36.5513
118.114 1322 36.3593
118.231 1371 37.027
118.349 1484 38.5227
118.466 1348 36.7151
118.584 1395 37.3497
118.701 1367 36.973
118.819 1376 37.0945
118.936 1277 35.7351
119.053 1309 36.1801
119.171 1281 35.7911
119.288 1288 35.8887
119.405 1171 34.2199
119.523 1239 35.1994
119.64 1108 33.2866
119.757 1108 33.2866
119.875 1210 34.7851
119.992 1215 34.8569
120.109 1233 35.1141
120.226 1199 34.6266
120.343 1218 34.8999
120.46 1248 35.327
120.578 1160 34.0588
120.695 1058 32.5269
120.812 1066 32.6497
120.929 963 31.0322
121.046 917 30.282
121.163 940 30.6594
121.279 984 31.3688
121.396 1064 32.619
121.513 1284 35.8329
121.63 1263 35.5387
121.747 1347 36.7015
121.863 1393 37.3229
121.98 1449 38.0657
122.097 1431 37.8286
122.213 1358 36.8511
122.33 1345 36.6742
122.446 1307 36.1525
122.563 1334 36.524
122.679 1241 35.2278
122.795 1297 36.0139
122.912 1291 35.9305
123.028 1215 34.8569
123.144 1144 33.8231
123.26 1112 33.3467
123.377 0 1
123.493 0 1
123.609 0 1
123.725 0 1
123.84 0 1
123.956 0 1
124.072 0 1
124.188 0 1
124.303 0 1
124.419 0 1
126.852 0 1
126.968 0 1
127.083 0 1
127.199 0 1
127.315 0 1
127.431 0 1
127.547 0 1
127.663 0 1
127.779 0 1
127.895 0 1
128.011 0 1
128.127 0 1
128.243 0 1
128.359 1342 36.6333
128.476 1268 35.609
128.592 1314 36.2491
128.708 1314 36.2491
128.825 1362 36.9053
128.941 1357 36.8375
129.058 1383 37.1887
129.174 1332 36.4966
129.291 1372 37.0405
129.408 1327 36.428
129.524 1271 35.6511
129.641 1250 35.3553
129.758 1169 34.1906
129.875 1105 33.2415
129.992 1095 33.0908
130.108 1070 32.7109
130.225 1174 34.2637
130.342 1327 36.428
130.459 1272 35.6651
130.576 1426 37.7624
130.693 1411 37.5633
130.81 1415 37.6165
130.928 1401 37.4299
131.045 1414 37.6032
131.162 1540 39.2428
131.279 1522 39.0128
131.396 1537 39.2046
131.513 1460 38.2099
131.631 1413 37.5899
131.748 1332 36.4966
131.865 1437 37.9078
131.983 1382 37.1753
132.1 1264 35.5528
132.217 1285 35.8469
132.335 1341 36.6197
132.452 1446 38.0263
132.57 1396 37.3631
132.687 1355 36.8103
132.804 1381 37.1618
132.922 1391 37.2961
133.039 1386 37.229
133.157 1273 35.6791
133.274 1169 34.1906
133.392 1111 33.3317
133.509 1181 34.3657
133.627 1070 32.7109
133.744 1112 33.3467
133.862 1236 35.1568
133.979 1285 35.8469
134.097 1383 37.1887
134.214 1413 37.5899
134.332 1472 38.3667
134.449 1479 38.4578
134.567 1497 38.6911
134.684 1419 37.6696
134.802 1500 38.7298
134.919 1520 38.9872
135.037 1513 38.8973
135.154 1443 37.9868
135.272 1530 39.1152
135.389 1507 38.8201
135.507 1311 36.2077
135.624 1334 36.524
135.742 1310 36.1939
135.859 1339 36.5923
135.977 1393 37.3229
136.094 1402 37.4433
136.211 1399 37.4032
136.329 1339 36.5923
136.446 1426 37.7624
136.564 1314 36.2491
136.681 1329 36.4555
136.798 1254 35.4119
136.915 1208 34.7563
137.033 1137 33.7194
137.15 1070 32.7109
137.267 1135 33.6898
137.384 1166 34.1467
137.502 1243 35.2562
137.619 1360 36.8782
137.736 1363 36.9188
137.853 1347 36.7015
137.97 1433 37.855
138.087 1461 38.223
138.204 1441 37.9605
138.321 1474 38.3927
138.438 1488 38.5746
138.555 1488 38.5746
138.672 1518 38.9615
138.788 1409 37.5366
138.905 1458 38.1838
139.022 1446 38.0263
139.139 1314 36.2491
139.255 1268 35.609
139.372 1250 35.3553
139.488 1299 36.0416
139.605 1366 36.9594
139.721 1411 37.5633
139.838 1319 36.318
139.954 1348 36.7151
140.071 1384 37.2022
140.187 1347 36.7015
140.303 1270 35.6371
140.419 1172 34.2345
140.535 1177 34.3074
140.652 1151 33.9264
140.768 0 1
140.884 0 1
141 0 1
141.115 0 1
141.231 0 1
141.347 0 1
141.463 0 1
141.578 0 1
141.694 0 1
144.104 0 1
144.219 0 1
144.335 0 1
144.45 0 1
144.566 0 1
144.682 0 1
144.798 0 1
144.914 0 1
145.03 0 1
145.146 907 30.1164
145.262 1048 32.3728
145.378 996 31.5595
145.494 966 31.0805
145.61 845 29.0689
145.726 925 30.4138
145.842 859 29.3087
145.959 915 30.249
146.075 870 29.4958
146.192 920 30.3315
146.308 962 31.0161
146.425 971 31.1609
146.541 1009 31.7648
146.658 995 31.5436
146.774 1071 32.7261
146.891 1010 31.7805
147.008 1131 33.6303
147.125 1066 32.6497
147.241 1129 33.6006
147.358 1094 33.0757
147.475 1160 34.0588
147.592 1110 33.3167
147.709 1121 33.4813
147.826 1145 33.8378
147.943 1035 32.1714
148.06 1034 32.1559
148.177 942 30.692
148.294 934 30.5614
148.411 1043 32.2955
148.528 1074 32.7719
148.645 1050 32.4037
148.762 1061 32.573
148.88 1042 32.28
148.997 1040 32.249
149.114 1119 33.4515
149.231 1057 32.5115
149.349 1040 32.249
149.466 996 31.5595
149.583 1008 31.749
149.701 898 29.9666
149.818 832 28.8444
149.935 894 29.8998
150.053 906 30.0998
150.17 998 31.5911
150.287 1034 32.1559
150.405 1080 32.8634
150.522 1045 32.3265
150.64 1090 33.0151
150.757 1081 32.8786
150.875 1132 33.6452
150.992 1130 33.6155
151.11 1154 33.9706
151.227 1153 33.9559
151.344 1162 34.0881
151.462 1190 34.4964
151.579 1129 33.6006
151.697 1078 32.8329
151.814 1018 31.9061
151.932 1014 31.8434
152.049 1027 32.0468
152.167 1124 33.5261
152.284 1146 33.8526
152.402 1119 33.4515
152.519 1155 33.9853
152.636 1184 34.4093
152.754 1106 33.2566
152.871 1021 31.9531
152.989 1031 32.1092
153.106 1042 32.28
153.223 1025 32.0156
153.341 986 31.4006
153.458 972 31.1769
153.575 984 31.3688
153.693 975 31.225
153.81 1054 32.4654
153.927 1062 32.5883
154.044 1110 33.3167
154.162 1165 34.1321
154.279 1223 34.9714
154.396 1178 34.322
154.513 1189 34.4819
154.63 1317 36.2905
154.747 1239 35.1994
154.864 1238 35.1852
154.981 1297 36.0139
155.098 1257 35.4542
155.215 1171 34.2199
155.332 1216 34.8712
155.449 1086 32.9545
155.566 1095 33.0908
155.683 1185 34.4238
155.8 1277 35.7351
155.917 1252 35.3836
156.033 1209 34.7707
156.15 0 1
156.267 0 1
156.383 0 1
156.5 0 1
156.617 0 1
156.733 0 1
156.85 0 1
156.966 0 1
157.082 0 1
157.199 0 1
157.315 0 1
157.431 0 1
157.547 0 1
157.664 0 1
157.78 0 1
157.896 0 1
158.012 0 1
158.128 0 1
158.244 0 1
158.359 0 1
158.475 0 1
158.591 0 1
158.706 0 1
