
6.15755 0 1
6.2731 0 1
6.3887 0 1
6.50437 0 1
6.62009 0 1
6.73587 0 1
6.8517 0 1
6.96759 0 1
7.08353 0 1
7.19952 0 1
7.31557 0 1
7.43166 0 1
7.54781 0 1
7.664 0 1
7.78024 0 1
7.89653 0 1
8.01286 0 1
8.12924 0 1
8.24567 0 1
8.36213 0 1
8.47864 0 1
8.59519 0 1
8.71178 0 1
8.82841 0 1
8.94508 0 1
9.06179 0 1
9.17853 0 1
9.29531 0 1
9.41212 0 1
9.52897 0 1
9.64584 0 1
9.76276 0 1
9.8797 0 1
9.99667 0 1
10.1137 0 1
10.2307 0 1
10.3478 0 1
10.4648 0 1
10.5819 0 1
10.6991 0 1
10.8162 0 1
10.9334 0 1
11.0506 0 1
11.1678 0 1
11.285 0 1
11.4023 0 1
11.5196 0 1
11.6369 0 1
11.7542 0 1
11.8715 0 1
11.9888 0 1
12.1062 0 1
12.2235 0 1
12.3409 0 1
12.4582 0 1
12.5756 0 1
12.693 0 1
12.8104 0 1
12.9278 0 1
13.0452 0 1
13.1626 0 1
13.28 0 1
13.3974 0 1
13.5149 0 1
13.6323 0 1
13.7497 0 1
13.8671 0 1
13.9845 0 1
14.1019 0 1
14.2193 0 1
14.3367 0 1
14.4541 0 1
14.5714 0 1
14.6888 0 1
14.8062 0 1
14.9235 0 1
15.0408 822 28.6705
15.1581 854 29.2233
15.2755 884 29.7321
15.3927 881 29.6816
15.51 873 29.5466
15.6273 909 30.1496
15.7445 944 30.7246
15.8617 892 29.8664
15.9789 904 30.0666
16.0961 864 29.3939
16.2132 881 29.6816
16.3304 784 28
16.4475 765 27.6586
16.5646 852 29.189
16.6816 791 28.1247
16.7986 811 28.4781
16.9156 788 28.0713
17.0326 748 27.3496
17.1496 766 27.6767
17.2665 773 27.8029
17.3833 810 28.4605
17.5002 795 28.1957
17.617 785 28.0179
17.7338 841 29
17.8505 860 29.3258
17.9672 841 29
18.0839 760 27.5681
18.2005 780 27.9285
18.3171 745 27.2947
18.4337 722 26.8701
18.5502 739 27.1846
18.6666 768 27.7128
18.7831 739 27.1846
18.8994 780 27.9285
19.0158 713 26.7021
19.1321 755 27.4773
19.2483 685 26.1725
19.3645 711 26.6646
19.4806 696 26.3818
19.5967 624 24.98
19.7128 611 24.7184
19.8288 534 23.1084
19.9447 471 21.7025
20.0606 0 1
20.1764 0 1
20.2922 0 1
20.4079 0 1
20.5236 0 1
20.6392 0 1
20.7548 0 1
20.8702 0 1
23.3078 0 1
23.4233 0 1
23.539 0 1
23.6547 0 1
23.7704 0 1
23.8862 0 1
24.0021 0 1
24.118 0 1
24.234 0 1
24.35 0 1
24.4661 375 19.3649
24.5822 388 19.6977
24.6984 432 20.7846
24.8146 522 22.8473
24.9309 645 25.3969
25.0472 619 24.8797
25.1636 724 26.9072
25.28 715 26.7395
25.3965 798 28.2489
25.513 812 28.4956
25.6296 874 29.5635
25.7462 871 29.5127
25.8628 895 29.9166
25.9795 863 29.3769
26.0962 892 29.8664
26.213 916 30.2655
26.3298 831 28.8271
26.4466 849 29.1376
26.5635 778 27.8927
26.6804 765 27.6586
26.7973 714 26.7208
26.9143 700 26.4575
27.0313 685 26.1725
27.1483 716 26.7582
27.2653 704 26.533
27.3824 762 27.6043
27.4996 780 27.9285
27.6167 755 27.4773
27.7339 788 28.0713
27.8511 764 27.6405
27.9683 807 28.4077
28.0855 806 28.3901
28.2028 802 28.3196
28.3201 778 27.8927
28.4374 709 26.6271
28.5547 705 26.5518
28.6721 703 26.5141
28.7894 756 27.4955
28.9068 724 26.9072
29.0242 819 28.6182
29.1416 755 27.4773
29.259 746 27.313
29.3764 771 27.7669
29.4939 753 27.4408
29.6113 807 28.4077
29.7288 738 27.1662
29.8463 791 28.1247
29.9638 759 27.55
30.0812 747 27.3313
30.1987 760 27.5681
30.3162 683 26.1343
30.4337 677 26.0192
30.5512 648 25.4558
30.6687 661 25.7099
30.7862 762 27.6043
30.9037 787 28.0535
31.0212 773 27.8029
31.1387 777 27.8747
31.2562 752 27.4226
31.3737 818 28.6007
31.4912 768 27.7128
31.6087 834 28.8791
31.7262 769 27.7308
31.8436 760 27.5681
31.9611 707 26.5895
32.0785 690 26.2679
32.1959 675 25.9808
32.3134 665 25.7876
32.4308 662 25.7294
32.5482 726 26.9444
32.6655 687 26.2107
32.7829 639 25.2784
32.9002 688 26.2298
33.0176 662 25.7294
33.1349 693 26.3249
33.2522 737 27.1477
33.3694 659 25.671
33.4867 751 27.4044
33.6039 731 27.037
33.7211 709 26.6271
33.8383 701 26.4764
33.9554 674 25.9615
34.0725 635 25.1992
34.1896 637 25.2389
34.3067 642 25.3377
34.4237 660 25.6905
34.5407 663 25.7488
34.6577 697 26.4008
34.7746 622 24.9399
34.8915 712 26.6833
35.0084 703 26.5141
35.1252 733 27.074
35.242 731 27.037
35.3587 662 25.7294
35.4755 725 26.9258
35.5921 617 24.8395
35.7088 592 24.3311
35.8254 587 24.2281
35.9419 574 23.9583
36.0584 609 24.6779
36.1749 638 25.2587
36.2913 631 25.1197
36.4077 614 24.779
36.524 610 24.6982
36.6403 619 24.8797
36.7565 548 23.4094
36.8727 508 22.5389
36.9889 483 21.9773
37.1049 426 20.6398
37.221 0 1
37.3369 0 1
37.4529 0 1
37.5687 0 1
37.6845 0 1
37.8003 0 1
37.916 0 1
38.0316 0 1
38.1472 0 1
40.5851 0 1
40.7008 0 1
40.8164 0 1
40.9322 0 1
41.048 0 1
41.1639 0 1
41.2798 0 1
41.3958 0 1
41.5118 0 1
41.6279 0 1
41.744 241 15.5242
41.8602 355 18.8414
41.9765 402 20.0499
42.0928 427 20.664
42.2091 496 22.2711
42.3255 518 22.7596
42.4419 533 23.0868
42.5584 526 22.9347
42.675 530 23.0217
42.7915 477 21.8403
42.9081 522 22.8473
43.0248 465 21.5639
43.1415 512 22.6274
43.2582 465 21.5639
43.375 511 22.6053
43.4918 531 23.0434
43.6087 522 22.8473
43.7256 585 24.1868
43.8425 486 22.0454
43.9595 524 22.891
44.0765 503 22.4277
44.1935 554 23.5372
44.3106 540 23.2379
44.4277 474 21.7715
44.5448 465 21.5639
44.6619 457 21.3776
44.7791 472 21.7256
44.8963 454 21.3073
45.0136 509 22.561
45.1308 550 23.4521
45.2481 529 23
45.3654 552 23.4947
45.4827 525 22.9129
45.6001 597 24.4336
45.7174 599 24.4745
45.8348 566 23.7908
45.9522 618 24.8596
46.0697 604 24.5764
46.1871 649 25.4755
46.3046 620 24.8998
46.422 533 23.0868
46.5395 525 22.9129
46.657 521 22.8254
46.7745 567 23.8118
46.892 563 23.7276
47.0096 562 23.7065
47.1271 607 24.6374
47.2446 641 25.318
47.3622 616 24.8193
47.4797 582 24.1247
47.5973 602 24.5357
47.7149 593 24.3516
47.8324 565 23.7697
47.95 570 23.8747
48.0675 498 22.3159
48.1851 536 23.1517
48.3027 494 22.2261
48.4202 579 24.0624
48.5378 589 24.2693
48.6554 591 24.3105
48.7729 614 24.779
48.8904 592 24.3311
49.008 581 24.1039
49.1255 654 25.5734
49.243 600 24.4949
49.3605 551 23.4734
49.478 586 24.2074
49.5955 572 23.9165
49.713 527 22.9565
49.8304 490 22.1359
49.9479 468 21.6333
50.0653 453 21.2838
50.1827 442 21.0238
50.3001 459 21.4243
50.4175 474 21.7715
50.5348 534 23.1084
50.6521 509 22.561
50.7694 510 22.5832
50.8867 571 23.8956
51.004 508 22.5389
51.1212 508 22.5389
51.2384 493 22.2036
51.3556 468 21.6333
51.4727 465 21.5639
51.5899 450 21.2132
51.707 449 21.1896
51.824 448 21.166
51.9411 505 22.4722
52.0581 499 22.3383
52.175 496 22.2711
52.2919 559 23.6432
52.4088 502 22.4054
52.5257 555 23.5584
52.6425 479 21.8861
52.7593 490 22.1359
52.876 521 22.8254
52.9927 528 22.9783
53.1094 533 23.0868
53.226 499 22.3383
53.3426 498 22.3159
53.4591 464 21.5407
53.5756 390 19.7484
53.692 388 19.6977
53.8084 366 19.1311
53.9248 387 19.6723
54.0411 333 18.2483
54.1573 366 19.1311
54.2735 0 1
54.3896 0 1
54.5057 0 1
54.6217 0 1
54.7377 0 1
54.8537 0 1
54.9695 0 1
55.0853 0 1
55.2011 0 1
55.3168 0 1
55.4324 0 1
57.824 0 1
57.9396 0 1
58.0553 0 1
58.1711 0 1
58.2869 0 1
58.4028 0 1
58.5187 0 1
58.6347 0 1
58.7508 0 1
58.8669 0 1
58.983 1477 38.4318
59.0992 1772 42.0951
59.2155 1981 44.5084
59.3318 1912 43.7264
59.4482 1999 44.7102
59.5646 1773 42.107
59.681 1764 42
59.7975 1612 40.1497
59.9141 1525 39.0512
60.0306 1367 36.973
60.1473 1226 35.0143
60.2639 1091 33.0303
60.3807 1102 33.1964
60.4974 1031 32.1092
60.6142 1107 33.2716
60.731 1108 33.2866
60.8479 1143 33.8083
60.9648 1057 32.5115
61.0818 1047 32.3574
61.1987 1049 32.3883
61.3158 1004 31.686
61.4328 1001 31.6386
61.5499 984 31.3688
61.667 1017 31.8904
61.7841 911 30.1828
61.9013 858 29.2916
62.0185 811 28.4781
62.1357 756 27.4955
62.253 718 26.7955
62.3702 692 26.3059
62.4875 742 27.2397
62.6049 717 26.7769
62.7222 663 25.7488
62.8396 718 26.7955
62.9569 658 25.6515
63.0743 698 26.4197
63.1918 636 25.219
63.3092 616 24.8193
63.4267 610 24.6982
63.5441 619 24.8797
63.6616 547 23.388
63.7791 547 23.388
63.8966 538 23.1948
64.0142 575 23.9792
64.1317 578 24.0416
64.2492 603 24.5561
64.3668 564 23.7487
64.4843 547 23.388
64.6019 586 24.2074
64.7195 530 23.0217
64.837 572 23.9165
64.9546 584 24.1661
65.0722 573 23.9374
65.1898 563 23.7276
65.3074 594 24.3721
65.4249 550 23.4521
65.5425 516 22.7156
65.6601 514 22.6716
65.7777 475 21.7945
65.8952 504 22.4499
66.0128 485 22.0227
66.1304 496 22.2711
66.2479 498 22.3159
66.3655 549 23.4307
66.483 510 22.5832
66.6005 559 23.6432
66.718 571 23.8956
66.8355 567 23.8118
66.953 536 23.1517
67.0705 561 23.6854
67.1879 504 22.4499
67.3054 541 23.2594
67.4228 502 22.4054
67.5402 458 21.4009
67.6576 528 22.9783
67.7749 508 22.5389
67.8923 539 23.2164
68.0096 494 22.2261
68.1269 535 23.1301
68.2442 514 22.6716
68.3614 519 22.7816
68.4787 558 23.622
68.5958 536 23.1517
68.713 520 22.8035
68.8302 549 23.4307
68.9473 540 23.2379
69.0643 545 23.3452
69.1814 518 22.7596
69.2984 477 21.8403
69.4154 488 22.0907
69.5323 468 21.6333
69.6492 487 22.0681
69.7661 472 21.7256
69.8829 493 22.2036
69.9997 531 23.0434
70.1165 493 22.2036
70.2332 525 22.9129
70.3499 524 22.891
70.4665 511 22.6053
70.5831 468 21.6333
70.6996 398 19.9499
70.8161 375 19.3649
70.9326 328 18.1108
71.049 325 18.0278
71.1653 281 16.7631
71.2817 279 16.7033
71.3979 259 16.0935
71.5141 245 15.6525
71.6303 251 15.843
71.7464 177 13.3041
71.8624 0 1
71.9784 0 1
72.0944 0 1
72.2102 0 1
72.3261 0 1
72.4418 0 1
72.5575 0 1
72.6732 0 1
75.1054 0 1
75.2209 0 1
75.3365 0 1
75.4521 0 1
75.5678 0 1
75.6835 0 1
75.7993 0 1
75.9151 0 1
76.031 0 1
76.147 319 17.8606
76.263 362 19.0263
76.3791 352 18.7617
76.4952 372 19.2873
76.6113 423 20.567
76.7276 462 21.4942
76.8438 444 21.0713
76.9601 426 20.6398
77.0765 460 21.4476
77.1929 452 21.2603
77.3093 457 21.3776
77.4258 447 21.1424
77.5423 443 21.0476
77.6589 458 21.4009
77.7755 447 21.1424
77.8921 440 20.9762
78.0088 443 21.0476
78.1256 439 20.9523
78.2423 430 20.7364
78.3591 411 20.2731
78.4759 401 20.025
78.5928 421 20.5183
78.7097 377 19.4165
78.8266 352 18.7617
78.9436 449 21.1896
79.0606 445 21.095
79.1776 488 22.0907
79.2946 403 20.0749
79.4117 449 21.1896
79.5288 444 21.0713
79.6459 425 20.6155
79.7631 459 21.4243
79.8802 453 21.2838
79.9974 429 20.7123
80.1147 448 21.166
80.2319 456 21.3542
80.3491 462 21.4942
80.4664 459 21.4243
80.5837 464 21.5407
80.701 490 22.1359
80.8183 456 21.3542
80.9357 436 20.8806
81.053 428 20.6882
81.1704 459 21.4243
81.2877 439 20.9523
81.4051 427 20.664
81.5225 485 22.0227
81.6399 480 21.9089
81.7573 454 21.3073
81.8747 450 21.2132
81.9922 425 20.6155
82.1096 431 20.7605
82.227 424 20.5913
82.3444 429 20.7123
82.4619 449 21.1896
82.5793 414 20.347
82.6967 518 22.7596
82.8142 440 20.9762
82.9316 518 22.7596
83.049 468 21.6333
83.1664 480 21.9089
83.2838 478 21.8632
83.4012 440 20.9762
83.5186 402 20.0499
83.636 430 20.7364
83.7534 464 21.5407
83.8708 455 21.3307
83.9881 475 21.7945
84.1055 470 21.6795
84.2228 486 22.0454
84.3401 483 21.9773
84.4575 492 22.1811
84.5747 480 21.9089
84.692 486 22.0454
84.8093 496 22.2711
84.9265 496 22.2711
85.0437 491 22.1585
85.1609 497 22.2935
85.2781 478 21.8632
85.3952 466 21.587
85.5123 425 20.6155
85.6294 427 20.664
85.7465 419 20.4695
85.8636 431 20.7605
85.9806 455 21.3307
86.0976 449 21.1896
86.2145 474 21.7715
86.3315 505 22.4722
86.4484 486 22.0454
86.5652 509 22.561
86.682 473 21.7486
86.7988 461 21.4709
86.9156 406 20.1494
87.0323 443 21.0476
87.149 453 21.2838
87.2657 423 20.567
87.3823 477 21.8403
87.4988 439 20.9523
87.6154 442 21.0238
87.7318 473 21.7486
87.8483 433 20.8087
87.9647 373 19.3132
88.081 355 18.8414
88.1973 368 19.1833
88.3136 333 18.2483
88.4298 282 16.7929
88.546 290 17.0294
88.6621 265 16.2788
88.7781 252 15.8745
88.8942 0 1
89.0101 0 1
89.126 0 1
89.2419 0 1
89.3577 0 1
89.4734 0 1
89.5891 0 1
89.7047 0 1
89.8203 0 1
89.9358 0 1
92.3269 0 1
92.4424 0 1
92.558 0 1
92.6736 0 1
92.7893 0 1
92.905 0 1
93.0208 0 1
93.1366 0 1
93.2525 0 1
93.3685 0 1
93.4845 0 1
93.6005 383 19.5704
93.7167 384 19.5959
93.8328 444 21.0713
93.949 473 21.7486
94.0653 507 22.5167
94.1816 446 21.1187
94.2979 453 21.2838
94.4143 505 22.4722
94.5307 451 21.2368
94.6472 455 21.3307
94.7637 443 21.0476
94.8803 401 20.025
94.9969 477 21.8403
95.1135 435 20.8567
95.2302 501 22.383
95.3469 473 21.7486
95.4637 511 22.6053
95.5805 539 23.2164
95.6973 469 21.6564
95.8142 510 22.5832
95.9311 475 21.7945
96.048 466 21.587
96.1649 457 21.3776
96.2819 456 21.3542
96.3989 441 21
96.516 466 21.587
96.633 535 23.1301
96.7501 512 22.6274
96.8673 534 23.1084
96.9844 480 21.9089
97.1016 479 21.8861
97.2188 484 22
97.336 456 21.3542
97.4532 440 20.9762
97.5704 446 21.1187
97.6877 484 22
97.805 548 23.4094
97.9223 499 22.3383
98.0396 461 21.4709
98.1569 481 21.9317
98.2743 472 21.7256
98.3916 444 21.0713
98.509 472 21.7256
98.6264 443 21.0476
98.7438 503 22.4277
98.8612 498 22.3159
98.9786 529 23
99.096 555 23.5584
99.2134 481 21.9317
99.3308 535 23.1301
99.4482 545 23.3452
99.5656 500 22.3607
99.6831 512 22.6274
99.8005 505 22.4722
99.9179 496 22.2711
100.035 498 22.3159
100.153 523 22.8692
100.27 482 21.9545
100.388 525 22.9129
100.505 502 22.4054
100.622 493 22.2036
100.74 474 21.7715
100.857 499 22.3383
100.975 511 22.6053
101.092 518 22.7596
101.209 484 22
101.327 520 22.8035
101.444 541 23.2594
101.561 526 22.9347
101.679 502 22.4054
101.796 490 22.1359
101.913 494 22.2261
102.03 515 22.6936
102.148 498 22.3159
102.265 500 22.3607
102.382 536 23.1517
102.499 533 23.0868
102.616 563 23.7276
102.733 570 23.8747
102.851 570 23.8747
102.968 566 23.7908
103.085 552 23.4947
103.202 526 22.9347
103.319 497 22.2935
103.436 551 23.4734
103.552 532 23.0651
103.669 552 23.4947
103.786 574 23.9583
103.903 616 24.8193
104.02 554 23.5372
104.137 575 23.9792
104.253 556 23.5797
104.37 568 23.8328
104.487 553 23.516
104.603 544 23.3238
104.72 537 23.1733
104.836 543 23.3024
104.953 503 22.4277
105.069 519 22.7816
105.186 460 21.4476
105.302 446 21.1187
105.418 423 20.567
105.535 386 19.6469
105.651 353 18.7883
105.767 325 18.0278
105.883 320 17.8885
105.999 291 17.0587
106.115 0 1
106.231 0 1
106.347 0 1
106.463 0 1
106.579 0 1
106.694 0 1
106.81 0 1
106.926 0 1
107.041 0 1
107.157 0 1
109.576 0 1
109.692 0 1
109.807 0 1
109.923 0 1
110.039 0 1
110.155 0 1
110.27 0 1
110.386 0 1
110.502 0 1
110.618 264 16.2481
110.735 286 16.9115
110.851 353 18.7883
110.967 404 20.0998
111.083 432 20.7846
111.199 463 21.5174
111.316 528 22.9783
111.432 540 23.2379
111.549 534 23.1084
111.665 536 23.1517
111.782 502 22.4054
111.898 487 22.0681
112.015 453 21.2838
112.132 486 22.0454
112.248 545 23.3452
112.365 481 21.9317
112.482 547 23.388
112.599 528 22.9783
112.716 506 22.4944
112.832 522 22.8473
112.949 530 23.0217
113.066 486 22.0454
113.183 520 22.8035
113.3 492 22.1811
113.417 464 21.5407
113.534 437 20.9045
113.652 506 22.4944
113.769 456 21.3542
113.886 502 22.4054
114.003 447 21.1424
114.12 468 21.6333
114.238 431 20.7605
114.355 476 21.8174
114.472 449 21.1896
114.589 497 22.2935
114.707 439 20.9523
114.824 496 22.2711
114.942 540 23.2379
115.059 537 23.1733
115.176 482 21.9545
115.294 446 21.1187
115.411 489 22.1133
115.529 487 22.0681
115.646 458 21.4009
115.764 517 22.7376
115.881 478 21.8632
115.999 488 22.0907
116.116 505 22.4722
116.234 552 23.4947
116.351 521 22.8254
116.469 485 22.0227
116.586 437 20.9045
116.704 461 21.4709
116.821 440 20.9762
116.939 480 21.9089
117.056 504 22.4499
117.174 486 22.0454
117.291 489 22.1133
117.409 450 21.2132
117.526 456 21.3542
117.644 443 21.0476
117.761 489 22.1133
117.879 447 21.1424
117.996 391 19.7737
118.114 454 21.3073
118.231 419 20.4695
118.349 471 21.7025
118.466 441 21
118.584 475 21.7945
118.701 482 21.9545
118.819 477 21.8403
118.936 476 21.8174
119.053 418 20.445
119.171 451 21.2368
119.288 488 22.0907
119.405 441 21
119.523 470 21.6795
119.64 481 21.9317
119.757 458 21.4009
119.875 476 21.8174
119.992 509 22.561
120.109 433 20.8087
120.226 449 21.1896
120.343 430 20.7364
120.46 421 20.5183
120.578 436 20.8806
120.695 487 22.0681
120.812 452 21.2603
120.929 453 21.2838
121.046 426 20.6398
121.163 445 21.095
121.279 406 20.1494
121.396 426 20.6398
121.513 372 19.2873
121.63 400 20
121.747 404 20.0998
121.863 390 19.7484
121.98 401 20.025
122.097 420 20.4939
122.213 386 19.6469
122.33 358 18.9209
122.446 321 17.9165
122.563 314 17.72
122.679 273 16.5227
122.795 273 16.5227
122.912 255 15.9687
123.028 246 15.6844
123.144 256 16
123.26 243 15.5885
123.377 0 1
123.493 0 1
123.609 0 1
123.725 0 1
123.84 0 1
123.956 0 1
124.072 0 1
124.188 0 1
124.303 0 1
124.419 0 1
126.852 0 1
126.968 0 1
127.083 0 1
127.199 0 1
127.315 0 1
127.431 0 1
127.547 0 1
127.663 0 1
127.779 0 1
127.895 0 1
128.011 0 1
128.127 0 1
128.243 0 1
128.359 442 21.0238
128.476 496 22.2711
128.592 496 22.2711
128.708 495 22.2486
128.825 527 22.9565
128.941 546 23.3666
129.058 502 22.4054
129.174 521 22.8254
129.291 505 22.4722
129.408 553 23.516
129.524 521 22.8254
129.641 507 22.5167
129.758 519 22.7816
129.875 518 22.7596
129.992 505 22.4722
130.108 528 22.9783
130.225 515 22.6936
130.342 527 22.9565
130.459 493 22.2036
130.576 506 22.4944
130.693 532 23.0651
130.81 550 23.4521
130.928 546 23.3666
131.045 567 23.8118
131.162 647 25.4362
131.279 662 25.7294
131.396 682 26.1151
131.513 713 26.7021
131.631 694 26.3439
131.748 693 26.3249
131.865 732 27.0555
131.983 757 27.5136
132.1 733 27.074
132.217 808 28.4253
132.335 840 28.9828
132.452 855 29.2404
132.57 929 30.4795
132.687 909 30.1496
132.804 954 30.8869
132.922 936 30.5941
133.039 1014 31.8434
133.157 973 31.1929
133.274 944 30.7246
133.392 972 31.1769
133.509 968 31.1127
133.627 951 30.8383
133.744 970 31.1448
133.862 935 30.5778
133.979 920 30.3315
134.097 850 29.1548
134.214 849 29.1376
134.332 836 28.9137
134.449 866 29.4279
134.567 938 30.6268
134.684 968 31.1127
134.802 939 30.6431
134.919 984 31.3688
135.037 1040 32.249
135.154 1020 31.9374
135.272 1003 31.6702
135.389 914 30.2324
135.507 933 30.545
135.624 979 31.289
135.742 898 29.9666
135.859 1011 31.7962
135.977 1028 32.0624
136.094 1028 32.0624
136.211 1019 31.9218
136.329 1026 32.0312
136.446 980 31.305
136.564 977 31.257
136.681 985 31.3847
136.798 1032 32.1248
136.915 945 30.7409
137.033 1015 31.8591
137.15 961 31
137.267 948 30.7896
137.384 920 30.3315
137.502 900 30
137.619 833 28.8617
137.736 854 29.2233
137.853 817 28.5832
137.97 811 28.4781
138.087 826 28.7402
138.204 876 29.5973
138.321 893 29.8831
138.438 922 30.3645
138.555 974 31.209
138.672 901 30.0167
138.788 980 31.305
138.905 956 30.9192
139.022 889 29.8161
139.139 804 28.3549
139.255 789 28.0891
139.372 736 27.1293
139.488 707 26.5895
139.605 716 26.7582
139.721 741 27.2213
139.838 627 25.04
139.954 637 25.2389
140.071 567 23.8118
140.187 582 24.1247
140.303 545 23.3452
140.419 552 23.4947
140.535 508 22.5389
140.652 465 21.5639
140.768 0 1
140.884 0 1
141 0 1
141.115 0 1
141.231 0 1
141.347 0 1
141.463 0 1
141.578 0 1
141.694 0 1
144.104 0 1
144.219 0 1
144.335 0 1
144.45 0 1
144.566 0 1
144.682 0 1
144.798 0 1
144.914 0 1
145.03 0 1
145.146 2857 53.4509
145.262 3000 54.7723
145.378 2938 54.2033
145.494 2772 52.6498
145.61 2701 51.9711
145.726 2633 51.3128
145.842 2700 51.9615
145.959 2611 51.0979
146.075 2609 51.0784
146.192 2473 49.7293
146.308 2405 49.0408
146.425 2252 47.4552
146.541 2155 46.422
146.658 1982 44.5197
146.774 1835 42.8369
146.891 1695 41.1704
147.008 1853 43.0465
147.125 2007 44.7996
147.241 2164 46.5188
147.358 2238 47.3075
147.475 2213 47.0425
147.592 2258 47.5184
147.709 2329 48.2597
147.826 2227 47.1911
147.943 2108 45.913
148.06 2119 46.0326
148.177 2088 45.6946
148.294 2153 46.4004
148.411 2198 46.8828
148.528 2198 46.8828
148.645 2170 46.5833
148.762 2106 45.8912
148.88 2038 45.1442
148.997 2168 46.5618
149.114 2021 44.9555
149.231 1982 44.5197
149.349 2075 45.5522
149.466 2033 45.0888
149.583 2116 46
149.701 2127 46.1194
149.818 1978 44.4747
149.935 2023 44.9778
150.053 1923 43.852
150.17 1816 42.6146
150.287 1743 41.7493
150.405 1721 41.4849
150.522 1551 39.3827
150.64 1552 39.3954
150.757 1651 40.6325
150.875 1734 41.6413
150.992 1746 41.7852
151.11 1723 41.509
151.227 1875 43.3013
151.344 1864 43.1741
151.462 1841 42.9069
151.579 1595 39.9375
151.697 1697 41.1947
151.814 1586 39.8246
151.932 1637 40.4599
152.049 1655 40.6817
152.167 1662 40.7676
152.284 1722 41.497
152.402 1787 42.2729
152.519 1726 41.5452
152.636 1692 41.1339
152.754 1750 41.833
152.871 1614 40.1746
152.989 1674 40.9145
153.106 1688 41.0853
153.223 1610 40.1248
153.341 1600 40
153.458 1579 39.7366
153.575 1473 38.3797
153.693 1437 37.9078
153.81 1416 37.6298
153.927 1413 37.5899
154.044 1331 36.4829
154.162 1269 35.623
154.279 1262 35.5246
154.396 1314 36.2491
154.513 1296 36
154.63 1310 36.1939
154.747 1429 37.8021
154.864 1387 37.2424
154.981 1294 35.9722
155.098 1322 36.3593
155.215 1152 33.9411
155.332 1230 35.0714
155.449 1226 35.0143
155.566 1304 36.1109
155.683 1327 36.428
155.8 1290 35.9166
155.917 1280 35.7771
156.033 1261 35.5106
156.15 0 1
156.267 0 1
156.383 0 1
156.5 0 1
156.617 0 1
156.733 0 1
156.85 0 1
156.966 0 1
157.082 0 1
157.199 0 1
157.315 0 1
157.431 0 1
157.547 0 1
157.664 0 1
157.78 0 1
157.896 0 1
158.012 0 1
158.128 0 1
158.244 0 1
158.359 0 1
158.475 0 1
158.591 0 1
158.706 0 1
