
6.15755 0 1
6.2731 0 1
6.3887 0 1
6.50437 0 1
6.62009 0 1
6.73587 0 1
6.8517 0 1
6.96759 0 1
7.08353 0 1
7.19952 0 1
7.31557 0 1
7.43166 0 1
7.54781 0 1
7.664 0 1
7.78024 0 1
7.89653 0 1
8.01286 0 1
8.12924 0 1
8.24567 0 1
8.36213 0 1
8.47864 0 1
8.59519 0 1
8.71178 0 1
8.82841 0 1
8.94508 0 1
9.06179 0 1
9.17853 0 1
9.29531 0 1
9.41212 0 1
9.52897 0 1
9.64584 0 1
9.76276 0 1
9.8797 0 1
9.99667 0 1
10.1137 0 1
10.2307 0 1
10.3478 0 1
10.4648 0 1
10.5819 0 1
10.6991 0 1
10.8162 0 1
10.9334 0 1
11.0506 0 1
11.1678 0 1
11.285 0 1
11.4023 0 1
11.5196 0 1
11.6369 0 1
11.7542 0 1
11.8715 0 1
11.9888 0 1
12.1062 0 1
12.2235 0 1
12.3409 0 1
12.4582 0 1
12.5756 0 1
12.693 0 1
12.8104 0 1
12.9278 0 1
13.0452 0 1
13.1626 0 1
13.28 0 1
13.3974 0 1
13.5149 0 1
13.6323 0 1
13.7497 0 1
13.8671 0 1
13.9845 0 1
14.1019 0 1
14.2193 0 1
14.3367 0 1
14.4541 0 1
14.5714 0 1
14.6888 0 1
14.8062 0 1
14.9235 0 1
15.0408 0 0
15.1581 0 0
15.2755 0 0
15.3927 0 0
15.51 0 0
15.6273 0 0
15.7445 0 0
15.8617 0 0
15.9789 0 0
16.0961 0 0
16.2132 0 0
16.3304 0 0
16.4475 0 0
16.5646 0 0
16.6816 0 0
16.7986 0 0
16.9156 0 0
17.0326 0 0
17.1496 0 0
17.2665 0 0
17.3833 0 0
17.5002 0 0
17.617 0 0
17.7338 0 0
17.8505 0 0
17.9672 0 0
18.0839 0 0
18.2005 0 0
18.3171 0 0
18.4337 0 0
18.5502 0 0
18.6666 0 0
18.7831 0 0
18.8994 0 0
19.0158 0 0
19.1321 0 0
19.2483 0 0
19.3645 0 0
19.4806 0 0
19.5967 0 0
19.7128 0 0
19.8288 0 0
19.9447 0 0
20.0606 0 1
20.1764 0 1
20.2922 0 1
20.4079 0 1
20.5236 0 1
20.6392 0 1
20.7548 0 1
20.8702 0 1
23.3078 0 1
23.4233 0 1
23.539 0 1
23.6547 0 1
23.7704 0 1
23.8862 0 1
24.0021 0 1
24.118 0 1
24.234 0 1
24.35 0 1
24.4661 1630 40.3733
24.5822 1638 40.4722
24.6984 1584 39.7995
24.8146 1445 38.0132
24.9309 1491 38.6135
25.0472 1497 38.6911
25.1636 1539 39.2301
25.28 1663 40.7799
25.3965 1624 40.2989
25.513 1737 41.6773
25.6296 1751 41.845
25.7462 1741 41.7253
25.8628 1787 42.2729
25.9795 1854 43.0581
26.0962 1821 42.6732
26.213 1714 41.4005
26.3298 1750 41.833
26.4466 1724 41.5211
26.5635 1807 42.5088
26.6804 1570 39.6232
26.7973 1565 39.5601
26.9143 1659 40.7308
27.0313 1631 40.3856
27.1483 1761 41.9643
27.2653 1807 42.5088
27.3824 1797 42.391
27.4996 1641 40.5093
27.6167 1712 41.3763
27.7339 1803 42.4617
27.8511 1676 40.939
27.9683 1599 39.9875
28.0855 1579 39.7366
28.2028 1567 39.5854
28.3201 1506 38.8072
28.4374 1495 38.6652
28.5547 1402 37.4433
28.6721 1464 38.2623
28.7894 1480 38.4708
28.9068 1624 40.2989
29.0242 1564 39.5474
29.1416 1781 42.2019
29.259 1776 42.1426
29.3764 1748 41.8091
29.4939 1700 41.2311
29.6113 1725 41.5331
29.7288 1689 41.0974
29.8463 1708 41.328
29.9638 1565 39.5601
30.0812 1556 39.4462
30.1987 1551 39.3827
30.3162 1486 38.5487
30.4337 1538 39.2173
30.5512 1560 39.4968
30.6687 1644 40.5463
30.7862 1748 41.8091
30.9037 1733 41.6293
31.0212 1728 41.5692
31.1387 1799 42.4146
31.2562 1682 41.0122
31.3737 1638 40.4722
31.4912 1623 40.2865
31.6087 1679 40.9756
31.7262 1651 40.6325
31.8436 1582 39.7744
31.9611 1450 38.0789
32.0785 1402 37.4433
32.1959 1497 38.6911
32.3134 1479 38.4578
32.4308 1468 38.3145
32.5482 1683 41.0244
32.6655 1735 41.6533
32.7829 1703 41.2674
32.9002 1785 42.2493
33.0176 1757 41.9166
33.1349 1715 41.4126
33.2522 1749 41.821
33.3694 1770 42.0714
33.4867 1677 40.9512
33.6039 1641 40.5093
33.7211 1576 39.6989
33.8383 1524 39.0384
33.9554 1640 40.4969
34.0725 1548 39.3446
34.1896 1658 40.7185
34.3067 1560 39.4968
34.4237 1831 42.7902
34.5407 1750 41.833
34.6577 1720 41.4729
34.7746 1739 41.7013
34.8915 1779 42.1782
35.0084 1664 40.7922
35.1252 1693 41.1461
35.242 1666 40.8167
35.3587 1703 41.2674
35.4755 1610 40.1248
35.5921 1445 38.0132
35.7088 1409 37.5366
35.8254 1404 37.47
35.9419 1490 38.6005
36.0584 1467 38.3014
36.1749 1583 39.7869
36.2913 1571 39.6358
36.4077 1642 40.5216
36.524 1599 39.9875
36.6403 1751 41.845
36.7565 1692 41.1339
36.8727 1705 41.2916
36.9889 1762 41.9762
37.1049 1660 40.7431
37.221 0 1
37.3369 0 1
37.4529 0 1
37.5687 0 1
37.6845 0 1
37.8003 0 1
37.916 0 1
38.0316 0 1
38.1472 0 1
40.5851 0 1
40.7008 0 1
40.8164 0 1
40.9322 0 1
41.048 0 1
41.1639 0 1
41.2798 0 1
41.3958 0 1
41.5118 0 1
41.6279 0 1
41.744 1409 37.5366
41.8602 1481 38.4838
41.9765 1510 38.8587
42.0928 1464 38.2623
42.2091 1484 38.5227
42.3255 1479 38.4578
42.4419 1362 36.9053
42.5584 1383 37.1887
42.675 1293 35.9583
42.7915 1347 36.7015
42.9081 1397 37.3765
43.0248 1403 37.4566
43.1415 1377 37.108
43.2582 1430 37.8153
43.375 1497 38.6911
43.4918 1455 38.1445
43.6087 1472 38.3667
43.7256 1412 37.5766
43.8425 1471 38.3536
43.9595 1453 38.1182
44.0765 1358 36.8511
44.1935 1296 36
44.3106 1302 36.0832
44.4277 1175 34.2783
44.5448 1110 33.3167
44.6619 1109 33.3017
44.7791 1152 33.9411
44.8963 1181 34.3657
45.0136 1171 34.2199
45.1308 1258 35.4683
45.2481 1242 35.242
45.3654 1232 35.0999
45.4827 1299 36.0416
45.6001 1254 35.4119
45.7174 1232 35.0999
45.8348 1162 34.0881
45.9522 1179 34.3366
46.0697 1129 33.6006
46.1871 1063 32.6037
46.3046 1028 32.0624
46.422 1112 33.3467
46.5395 1187 34.4529
46.657 1154 33.9706
46.7745 1165 34.1321
46.892 1193 34.5398
47.0096 1176 34.2929
47.1271 1195 34.5688
47.2446 1217 34.8855
47.3622 1178 34.322
47.4797 1078 32.8329
47.5973 1109 33.3017
47.7149 1054 32.4654
47.8324 1062 32.5883
47.95 952 30.8545
48.0675 896 29.9333
48.1851 848 29.1204
48.3027 867 29.4449
48.4202 920 30.3315
48.5378 949 30.8058
48.6554 982 31.3369
48.7729 992 31.496
48.8904 1055 32.4808
49.008 1055 32.4808
49.1255 1020 31.9374
49.243 1052 32.4345
49.3605 1014 31.8434
49.478 995 31.5436
49.5955 953 30.8707
49.713 935 30.5778
49.8304 906 30.0998
49.9479 979 31.289
50.0653 1016 31.8748
50.1827 1099 33.1512
50.3001 1132 33.6452
50.4175 1203 34.6843
50.5348 1172 34.2345
50.6521 1312 36.2215
50.7694 1319 36.318
50.8867 1372 37.0405
51.004 1369 37
51.1212 1250 35.3553
51.2384 1349 36.7287
51.3556 1333 36.5103
51.4727 1242 35.242
51.5899 1181 34.3657
51.707 1195 34.5688
51.824 1126 33.5559
51.9411 1251 35.3695
52.0581 1282 35.805
52.175 1399 37.4032
52.2919 1455 38.1445
52.4088 1586 39.8246
52.5257 1593 39.9124
52.6425 1595 39.9375
52.7593 1573 39.6611
52.876 1603 40.0375
52.9927 1614 40.1746
53.1094 1593 39.9124
53.226 1524 39.0384
53.3426 1376 37.0945
53.4591 1502 38.7556
53.5756 1550 39.37
53.692 1603 40.0375
53.8084 1700 41.2311
53.9248 1696 41.1825
54.0411 1683 41.0244
54.1573 1825 42.72
54.2735 0 1
54.3896 0 1
54.5057 0 1
54.6217 0 1
54.7377 0 1
54.8537 0 1
54.9695 0 1
55.0853 0 1
55.2011 0 1
55.3168 0 1
55.4324 0 1
57.824 0 1
57.9396 0 1
58.0553 0 1
58.1711 0 1
58.2869 0 1
58.4028 0 1
58.5187 0 1
58.6347 0 1
58.7508 0 1
58.8669 0 1
58.983 2101 45.8367
59.0992 2273 47.676
59.2155 2167 46.551
59.3318 2222 47.1381
59.4482 2346 48.4355
59.5646 2378 48.7647
59.681 2272 47.6655
59.7975 2196 46.8615
59.9141 2070 45.4973
60.0306 2056 45.3431
60.1473 1982 44.5197
60.2639 1858 43.1045
60.3807 1718 41.4488
60.4974 1694 41.1582
60.6142 1743 41.7493
60.731 1811 42.5558
60.8479 2014 44.8776
60.9648 2003 44.7549
61.0818 2078 45.5851
61.1987 2117 46.0109
61.3158 2144 46.3033
61.4328 2067 45.4643
61.5499 2072 45.5192
61.667 2100 45.8258
61.7841 1921 43.8292
61.9013 1989 44.5982
62.0185 1865 43.1856
62.1357 1886 43.4281
62.253 1993 44.643
62.3702 2185 46.744
62.4875 2120 46.0435
62.6049 2243 47.3603
62.7222 2271 47.655
62.8396 2258 47.5184
62.9569 2211 47.0213
63.0743 2186 46.7547
63.1918 2172 46.6047
63.3092 2191 46.8081
63.4267 2035 45.111
63.5441 1979 44.486
63.6616 1905 43.6463
63.7791 1702 41.2553
63.8966 1619 40.2368
64.0142 1506 38.8072
64.1317 1709 41.3401
64.2492 1808 42.5206
64.3668 1929 43.9204
64.4843 2004 44.7661
64.6019 2100 45.8258
64.7195 2019 44.9333
64.837 2119 46.0326
64.9546 2088 45.6946
65.0722 2051 45.288
65.1898 2063 45.4203
65.3074 1971 44.3959
65.4249 1926 43.8862
65.5425 1833 42.8135
65.6601 1799 42.4146
65.7777 2040 45.1664
65.8952 1963 44.3058
66.0128 2243 47.3603
66.1304 2130 46.1519
66.2479 2197 46.8722
66.3655 2327 48.239
66.483 2249 47.4236
66.6005 2314 48.1041
66.718 2273 47.676
66.8355 2185 46.744
66.953 2251 47.4447
67.0705 2218 47.0956
67.1879 1999 44.7102
67.3054 1850 43.0116
67.4228 1699 41.2189
67.5402 1558 39.4715
67.6576 1662 40.7676
67.7749 1711 41.3642
67.8923 1900 43.589
68.0096 2024 44.9889
68.1269 2155 46.422
68.2442 2253 47.4658
68.3614 2207 46.9787
68.4787 2318 48.1456
68.5958 2298 47.9375
68.713 2299 47.9479
68.8302 2191 46.8081
68.9473 2236 47.2864
69.0643 2268 47.6235
69.1814 2118 46.0217
69.2984 2137 46.2277
69.4154 2098 45.8039
69.5323 2259 47.5289
69.6492 2431 49.3052
69.7661 2497 49.97
69.8829 2480 49.7996
69.9997 2551 50.5074
70.1165 2780 52.7257
70.2332 2621 51.1957
70.3499 2557 50.5668
70.4665 2560 50.5964
70.5831 2532 50.319
70.6996 2395 48.9387
70.8161 2374 48.7237
70.9326 2185 46.744
71.049 1900 43.589
71.1653 1741 41.7253
71.2817 1761 41.9643
71.3979 1732 41.6173
71.5141 1886 43.4281
71.6303 2013 44.8665
71.7464 2073 45.5302
71.8624 0 1
71.9784 0 1
72.0944 0 1
72.2102 0 1
72.3261 0 1
72.4418 0 1
72.5575 0 1
72.6732 0 1
75.1054 0 1
75.2209 0 1
75.3365 0 1
75.4521 0 1
75.5678 0 1
75.6835 0 1
75.7993 0 1
75.9151 0 1
76.031 0 1
76.147 2376 48.7442
76.263 2482 49.8197
76.3791 2130 46.1519
76.4952 1943 44.0795
76.6113 1922 43.8406
76.7276 2052 45.299
76.8438 2166 46.5403
76.9601 2428 49.2747
77.0765 2650 51.4782
77.1929 2836 53.2541
77.3093 2953 54.3415
77.4258 2866 53.535
77.5423 2949 54.3047
77.6589 2864 53.5164
77.7755 2934 54.1664
77.8921 2732 52.2685
78.0088 2775 52.6783
78.1256 2656 51.5364
78.2423 2577 50.7642
78.3591 2539 50.3885
78.4759 2652 51.4976
78.5928 2704 52
78.7097 2866 53.535
78.8266 3105 55.7225
78.9436 2901 53.8609
79.0606 3097 55.6507
79.1776 3145 56.0803
79.2946 3145 56.0803
79.4117 3110 55.7674
79.5288 3105 55.7225
79.6459 3089 55.5788
79.7631 2969 54.4885
79.8802 2715 52.1057
79.9974 2554 50.5371
80.1147 2307 48.0312
80.2319 2136 46.2169
80.3491 2179 46.6798
80.4664 2280 47.7493
80.5837 2605 51.0392
80.701 2898 53.8331
80.8183 3049 55.2178
80.9357 3036 55.0999
81.053 3101 55.6866
81.1704 3058 55.2992
81.2877 3109 55.7584
81.4051 3107 55.7405
81.5225 3081 55.5068
81.6399 2996 54.7357
81.7573 2951 54.3231
81.8747 2729 52.2398
81.9922 2693 51.8941
82.1096 2768 52.6118
82.227 2965 54.4518
82.3444 3022 54.9727
82.4619 3054 55.263
82.5793 3114 55.8032
82.6967 3396 58.2752
82.8142 3290 57.3585
82.9316 3369 58.0431
83.049 3246 56.9737
83.1664 3238 56.9034
83.2838 3228 56.8155
83.4012 3108 55.7494
83.5186 2910 53.9444
83.636 2664 51.614
83.7534 2343 48.4045
83.8708 2112 45.9565
83.9881 2220 47.1169
84.1055 2406 49.051
84.2228 2531 50.309
84.3401 2859 53.4696
84.4575 3179 56.3826
84.5747 3250 57.0088
84.692 3379 58.1292
84.8093 3449 58.7282
84.9265 3381 58.1464
85.0437 3367 58.0259
85.1609 3307 57.5065
85.2781 3176 56.356
85.3952 3040 55.1362
85.5123 3026 55.0091
85.6294 3203 56.5951
85.7465 3182 56.4092
85.8636 3403 58.3352
85.9806 3550 59.5819
86.0976 3695 60.7865
86.2145 3916 62.578
86.3315 3745 61.1964
86.4484 4086 63.9218
86.5652 3971 63.0159
86.682 3898 62.434
86.7988 3948 62.8331
86.9156 3839 61.9597
87.0323 3876 62.2575
87.149 3647 60.3904
87.2657 3316 57.5847
87.3823 2943 54.2494
87.4988 2848 53.3667
87.6154 3012 54.8817
87.7318 3303 57.4717
87.8483 3588 59.8999
87.9647 4051 63.6475
88.081 4301 65.582
88.1973 4570 67.6018
88.3136 4439 66.6258
88.4298 4475 66.8954
88.546 4447 66.6858
88.6621 4489 67
88.7781 4353 65.9773
88.8942 0 1
89.0101 0 1
89.126 0 1
89.2419 0 1
89.3577 0 1
89.4734 0 1
89.5891 0 1
89.7047 0 1
89.8203 0 1
89.9358 0 1
92.3269 0 1
92.4424 0 1
92.558 0 1
92.6736 0 1
92.7893 0 1
92.905 0 1
93.0208 0 1
93.1366 0 1
93.2525 0 1
93.3685 0 1
93.4845 0 1
93.6005 4962 70.4415
93.7167 5105 71.4493
93.8328 5030 70.9225
93.949 4991 70.647
94.0653 4957 70.406
94.1816 4924 70.1712
94.2979 4813 69.3758
94.4143 4661 68.2715
94.5307 4758 68.9783
94.6472 4501 67.0895
94.7637 4433 66.5808
94.8803 4605 67.8602
94.9969 4671 68.3447
95.1135 5043 71.0141
95.2302 5125 71.5891
95.3469 5226 72.2911
95.4637 5280 72.6636
95.5805 5339 73.0685
95.6973 5561 74.5721
95.8142 5571 74.6391
95.9311 5386 73.3894
96.048 5375 73.3144
96.1649 5256 72.4983
96.2819 5063 71.1548
96.3989 4585 67.7126
96.516 4334 65.8331
96.633 3887 62.3458
96.7501 3659 60.4897
96.8673 4033 63.5059
96.9844 4419 66.4756
97.1016 4934 70.2424
97.2188 5296 72.7736
97.336 5708 75.5513
97.4532 5707 75.5447
97.5704 5867 76.5963
97.6877 5708 75.5513
97.805 5686 75.4056
97.9223 5563 74.5855
98.0396 5481 74.0338
98.1569 5245 72.4224
98.2743 5207 72.1595
98.3916 5184 72
98.509 5131 71.631
98.6264 5193 72.0625
98.7438 5596 74.8064
98.8612 5785 76.0592
98.9786 6096 78.0769
99.096 6052 77.7946
99.2134 6069 77.9038
99.3308 5960 77.201
99.4482 6106 78.1409
99.5656 6160 78.4857
99.6831 5852 76.4984
99.8005 5767 75.9408
99.9179 5628 75.02
100.035 5197 72.0902
100.153 4721 68.7095
100.27 4460 66.7832
100.388 4418 66.468
100.505 4853 69.6635
100.622 5463 73.9121
100.74 5920 76.9415
100.857 6230 78.9303
100.975 6425 80.1561
101.092 6398 79.9875
101.209 6369 79.806
101.327 6349 79.6806
101.444 6275 79.2149
101.561 6243 79.0127
101.679 6080 77.9744
101.796 5831 76.361
101.913 5722 75.6439
102.03 5694 75.4586
102.148 5879 76.6746
102.265 6327 79.5424
102.382 5907 76.857
102.499 6464 80.399
102.616 6566 81.0309
102.733 6880 82.9458
102.851 6902 83.0783
102.968 6880 82.9458
103.085 6704 81.878
103.202 6833 82.662
103.319 6416 80.0999
103.436 6286 79.2843
103.552 5842 76.433
103.669 5357 73.1915
103.786 4953 70.3776
103.903 4912 70.0857
104.02 5257 72.5052
104.137 5994 77.4209
104.253 6952 83.3787
104.37 6870 82.8855
104.487 7000 83.666
104.603 7216 84.947
104.72 7230 85.0294
104.836 7272 85.276
104.953 7036 83.8809
105.069 6884 82.9699
105.186 6832 82.6559
105.302 6670 81.6701
105.418 6435 80.2185
105.535 6427 80.1686
105.651 6623 81.3818
105.767 6875 82.9156
105.883 7162 84.6286
105.999 7127 84.4216
106.115 0 1
106.231 0 1
106.347 0 1
106.463 0 1
106.579 0 1
106.694 0 1
106.81 0 1
106.926 0 1
107.041 0 1
107.157 0 1
109.576 0 1
109.692 0 1
109.807 0 1
109.923 0 1
110.039 0 1
110.155 0 1
110.27 0 1
110.386 0 1
110.502 0 1
110.618 6071 77.9166
110.735 6327 79.5424
110.851 6556 80.9691
110.967 6539 80.8641
111.083 6636 81.4616
111.199 6749 82.1523
111.316 7020 83.7854
111.432 6999 83.66
111.549 6745 82.1279
111.665 6722 81.9878
111.782 6388 79.925
111.898 5961 77.2075
112.015 5682 75.379
112.132 5110 71.4843
112.248 4691 68.4909
112.365 4585 67.7126
112.482 4865 69.7496
112.599 5137 71.6729
112.716 5883 76.7007
112.832 6293 79.3284
112.949 6333 79.5801
113.066 6250 79.0569
113.183 6246 79.0316
113.3 5943 77.0909
113.417 6141 78.3645
113.534 5938 77.0584
113.652 5812 76.2365
113.769 5598 74.8198
113.886 5243 72.4086
114.003 5277 72.643
114.12 5310 72.8697
114.238 5221 72.2565
114.355 5631 75.04
114.472 5637 75.08
114.589 5617 74.9466
114.707 5774 75.9868
114.824 5675 75.3326
114.942 5914 76.9025
115.059 5926 76.9805
115.176 5671 75.306
115.294 5694 75.4586
115.411 5418 73.6071
115.529 5308 72.856
115.646 4830 69.4982
115.764 4407 66.3852
115.881 4181 64.6607
115.999 4075 63.8357
116.116 4514 67.1863
116.234 5003 70.7319
116.351 5495 74.1283
116.469 5687 75.4122
116.586 5783 76.046
116.704 5759 75.8881
116.821 5637 75.08
116.939 5727 75.6769
117.056 5700 75.4983
117.174 5421 73.6274
117.291 5356 73.1847
117.409 5159 71.8262
117.526 5122 71.5681
117.644 5102 71.4283
117.761 5133 71.645
117.879 5282 72.6774
117.996 5324 72.9657
118.114 5430 73.6885
118.231 5692 75.4453
118.349 5535 74.3976
118.466 5688 75.4188
118.584 5681 75.3724
118.701 5647 75.1465
118.819 5678 75.3525
118.936 5570 74.6324
119.053 5361 73.2189
119.171 5057 71.1126
119.288 4897 69.9786
119.405 4393 66.2797
119.523 3919 62.6019
119.64 4079 63.867
119.757 4284 65.4523
119.875 4751 68.9275
119.992 5113 71.5052
120.109 5382 73.3621
120.226 5558 74.552
120.343 5417 73.6003
120.46 5289 72.7255
120.578 5377 73.328
120.695 5232 72.3326
120.812 5173 71.9236
120.929 5146 71.7356
121.046 5102 71.4283
121.163 4912 70.0857
121.279 4852 69.6563
121.396 4795 69.2459
121.513 4956 70.3989
121.63 4970 70.4982
121.747 5082 71.2881
121.863 5171 71.9097
121.98 5126 71.5961
122.097 5192 72.0555
122.213 5235 72.3533
122.33 5330 73.0068
122.446 5246 72.4293
122.563 5145 71.7287
122.679 5099 71.4073
122.795 4783 69.1592
122.912 4838 69.5557
123.028 4596 67.7938
123.144 4093 63.9766
123.26 3834 61.9193
123.377 0 1
123.493 0 1
123.609 0 1
123.725 0 1
123.84 0 1
123.956 0 1
124.072 0 1
124.188 0 1
124.303 0 1
124.419 0 1
126.852 0 1
126.968 0 1
127.083 0 1
127.199 0 1
127.315 0 1
127.431 0 1
127.547 0 1
127.663 0 1
127.779 0 1
127.895 0 1
128.011 0 1
128.127 0 1
128.243 0 1
128.359 4444 66.6633
128.476 3977 63.0635
128.592 4072 63.8122
128.708 4506 67.1267
128.825 4838 69.5557
128.941 5194 72.0694
129.058 5488 74.081
129.174 5766 75.9342
129.291 5543 74.4513
129.408 5676 75.3392
129.524 5472 73.973
129.641 5549 74.4916
129.758 5553 74.5185
129.875 5285 72.698
129.992 5276 72.6361
130.108 5126 71.5961
130.225 5162 71.8471
130.342 5021 70.859
130.459 5055 71.0985
130.576 5287 72.7118
130.693 5300 72.8011
130.81 5259 72.519
130.928 5225 72.2842
131.045 5303 72.8217
131.162 5411 73.5595
131.279 5630 75.0333
131.396 5450 73.8241
131.513 5321 72.9452
131.631 5228 72.3049
131.748 4984 70.5975
131.865 4573 67.624
131.983 4085 63.914
132.1 3898 62.434
132.217 4109 64.1015
132.335 4641 68.1249
132.452 4975 70.5337
132.57 5212 72.1942
132.687 5081 71.2811
132.804 5383 73.3689
132.922 5304 72.8286
133.039 5156 71.8053
133.157 5253 72.4776
133.274 5248 72.4431
133.392 5122 71.5681
133.509 4908 70.0571
133.627 4754 68.9493
133.744 4860 69.7137
133.862 4817 69.4046
133.979 4796 69.2532
134.097 5000 70.7107
134.214 5137 71.6729
134.332 4935 70.2496
134.449 4917 70.1213
134.567 4954 70.3847
134.684 5041 71
134.802 5317 72.9178
134.919 5085 71.3092
135.037 5178 71.9583
135.154 5065 71.1688
135.272 4850 69.6419
135.389 4413 66.4304
135.507 4124 64.2184
135.624 3937 62.7455
135.742 3877 62.2656
135.859 4094 63.9844
135.977 4499 67.0746
136.094 4886 69.8999
136.211 5034 70.9507
136.329 5249 72.45
136.446 5173 71.9236
136.564 5153 71.7844
136.681 5115 71.5192
136.798 5104 71.4423
136.915 5076 71.2461
137.033 4997 70.6895
137.15 4790 69.2098
137.267 4672 68.352
137.384 4575 67.6387
137.502 4578 67.6609
137.619 4734 68.8041
137.736 4825 69.4622
137.853 4765 69.029
137.97 4744 68.8767
138.087 4893 69.95
138.204 4997 70.6895
138.321 4887 69.9071
138.438 5009 70.7743
138.555 4944 70.3136
138.672 4958 70.4131
138.788 4808 69.3397
138.905 4819 69.419
139.022 4610 67.897
139.139 4166 64.5446
139.255 3949 62.8411
139.372 3841 61.9758
139.488 3990 63.1664
139.605 4383 66.2042
139.721 4710 68.6294
139.838 4864 69.7424
139.954 4868 69.7711
140.071 4899 69.9929
140.187 5055 71.0985
140.303 5018 70.8378
140.419 4793 69.2315
140.535 4710 68.6294
140.652 4776 69.1086
140.768 0 1
140.884 0 1
141 0 1
141.115 0 1
141.231 0 1
141.347 0 1
141.463 0 1
141.578 0 1
141.694 0 1
144.104 0 1
144.219 0 1
144.335 0 1
144.45 0 1
144.566 0 1
144.682 0 1
144.798 0 1
144.914 0 1
145.03 0 1
145.146 4208 64.8691
145.262 4178 64.6375
145.378 4186 64.6993
145.494 4189 64.7225
145.61 4196 64.7765
145.726 4049 63.6318
145.842 4078 63.8592
145.959 3989 63.1585
146.075 3851 62.0564
146.192 3920 62.6099
146.308 3894 62.4019
146.425 3898 62.434
146.541 4009 63.3167
146.658 3949 62.8411
146.774 3855 62.0886
146.891 3994 63.1981
147.008 3989 63.1585
147.125 4125 64.2262
147.241 3950 62.849
147.358 3994 63.1981
147.475 3881 62.2977
147.592 3752 61.2536
147.709 3507 59.2199
147.826 3256 57.0614
147.943 3205 56.6127
148.06 3216 56.7098
148.177 3567 59.7244
148.294 3737 61.131
148.411 4035 63.5216
148.528 4059 63.7103
148.645 4018 63.3877
148.762 3954 62.8808
148.88 3951 62.857
148.997 3832 61.9032
149.114 4071 63.8044
149.231 3968 62.9921
149.349 3754 61.2699
149.466 3648 60.3987
149.583 3566 59.716
149.701 3616 60.1332
149.818 3510 59.2453
149.935 3564 59.6992
150.053 3669 60.5723
150.17 3524 59.3633
150.287 3769 61.3922
150.405 3723 61.0164
150.522 3672 60.597
150.64 3731 61.0819
150.757 3708 60.8933
150.875 3740 61.1555
150.992 3749 61.2291
151.11 3648 60.3987
151.227 3513 59.2706
151.344 3237 56.8946
151.462 3117 55.8301
151.579 2927 54.1018
151.697 3170 56.3028
151.814 3430 58.5662
151.932 3650 60.4152
152.049 3733 61.0983
152.167 3849 62.0403
152.284 3935 62.7296
152.402 3750 61.2372
152.519 3851 62.0564
152.636 3837 61.9435
152.754 3818 61.79
152.871 3889 62.3618
152.989 3735 61.1146
153.106 3732 61.0901
153.223 3544 59.5315
153.341 3529 59.4054
153.458 3495 59.1185
153.575 3544 59.5315
153.693 3560 59.6657
153.81 3660 60.4979
153.927 3644 60.3656
154.044 3655 60.4566
154.162 3755 61.2781
154.279 3796 61.6117
154.396 3822 61.8223
154.513 3868 62.1932
154.63 3827 61.8628
154.747 3750 61.2372
154.864 3532 59.4306
154.981 3451 58.7452
155.098 3173 56.3294
155.215 3172 56.3205
155.332 3263 57.1227
155.449 3455 58.7792
155.566 3689 60.7371
155.683 3858 62.1128
155.8 3850 62.0484
155.917 3965 62.9682
156.033 3929 62.6817
156.15 0 1
156.267 0 1
156.383 0 1
156.5 0 1
156.617 0 1
156.733 0 1
156.85 0 1
156.966 0 1
157.082 0 1
157.199 0 1
157.315 0 1
157.431 0 1
157.547 0 1
157.664 0 1
157.78 0 1
157.896 0 1
158.012 0 1
158.128 0 1
158.244 0 1
158.359 0 1
158.475 0 1
158.591 0 1
158.706 0 1
