
6.15755 0 1
6.2731 0 1
6.3887 0 1
6.50437 0 1
6.62009 0 1
6.73587 0 1
6.8517 0 1
6.96759 0 1
7.08353 0 1
7.19952 0 1
7.31557 0 1
7.43166 0 1
7.54781 0 1
7.664 0 1
7.78024 0 1
7.89653 0 1
8.01286 0 1
8.12924 0 1
8.24567 0 1
8.36213 0 1
8.47864 0 1
8.59519 0 1
8.71178 0 1
8.82841 0 1
8.94508 0 1
9.06179 0 1
9.17853 0 1
9.29531 0 1
9.41212 0 1
9.52897 0 1
9.64584 0 1
9.76276 0 1
9.8797 0 1
9.99667 0 1
10.1137 0 1
10.2307 0 1
10.3478 0 1
10.4648 0 1
10.5819 0 1
10.6991 0 1
10.8162 0 1
10.9334 0 1
11.0506 0 1
11.1678 0 1
11.285 0 1
11.4023 0 1
11.5196 0 1
11.6369 0 1
11.7542 0 1
11.8715 0 1
11.9888 0 1
12.1062 0 1
12.2235 0 1
12.3409 0 1
12.4582 0 1
12.5756 0 1
12.693 0 1
12.8104 0 1
12.9278 0 1
13.0452 0 1
13.1626 0 1
13.28 0 1
13.3974 0 1
13.5149 0 1
13.6323 0 1
13.7497 0 1
13.8671 0 1
13.9845 0 1
14.1019 0 1
14.2193 0 1
14.3367 0 1
14.4541 0 1
14.5714 0 1
14.6888 0 1
14.8062 0 1
14.9235 0 1
15.0408 0 0
15.1581 0 0
15.2755 0 0
15.3927 0 0
15.51 0 0
15.6273 0 0
15.7445 0 0
15.8617 0 0
15.9789 0 0
16.0961 0 0
16.2132 0 0
16.3304 0 0
16.4475 0 0
16.5646 0 0
16.6816 0 0
16.7986 0 0
16.9156 0 0
17.0326 0 0
17.1496 0 0
17.2665 0 0
17.3833 0 0
17.5002 0 0
17.617 0 0
17.7338 0 0
17.8505 0 0
17.9672 0 0
18.0839 0 0
18.2005 0 0
18.3171 0 0
18.4337 0 0
18.5502 0 0
18.6666 0 0
18.7831 0 0
18.8994 0 0
19.0158 0 0
19.1321 0 0
19.2483 0 0
19.3645 0 0
19.4806 0 0
19.5967 0 0
19.7128 0 0
19.8288 0 0
19.9447 0 0
20.0606 0 1
20.1764 0 1
20.2922 0 1
20.4079 0 1
20.5236 0 1
20.6392 0 1
20.7548 0 1
20.8702 0 1
23.3078 0 1
23.4233 0 1
23.539 0 1
23.6547 0 1
23.7704 0 1
23.8862 0 1
24.0021 0 1
24.118 0 1
24.234 0 1
24.35 0 1
24.4661 1607 40.0874
24.5822 1581 39.7618
24.6984 1703 41.2674
24.8146 1692 41.1339
24.9309 1688 41.0853
25.0472 1593 39.9124
25.1636 1517 38.9487
25.28 1565 39.5601
25.3965 1492 38.6264
25.513 1573 39.6611
25.6296 1656 40.694
25.7462 1855 43.0697
25.8628 1869 43.2319
25.9795 1977 44.4635
26.0962 1843 42.9302
26.213 1869 43.2319
26.3298 1814 42.5911
26.4466 1803 42.4617
26.5635 1758 41.9285
26.6804 1820 42.6615
26.7973 1691 41.1218
26.9143 1733 41.6293
27.0313 1718 41.4488
27.1483 1709 41.3401
27.2653 1864 43.1741
27.3824 1877 43.3244
27.4996 1855 43.0697
27.6167 1916 43.7721
27.7339 1818 42.638
27.8511 1765 42.0119
27.9683 1751 41.845
28.0855 1709 41.3401
28.2028 1798 42.4028
28.3201 1786 42.2611
28.4374 1751 41.845
28.5547 1630 40.3733
28.6721 1465 38.2753
28.7894 1445 38.0132
28.9068 1428 37.7889
29.0242 1562 39.5221
29.1416 1530 39.1152
29.259 1572 39.6485
29.3764 1698 41.2068
29.4939 1697 41.1947
29.6113 1832 42.8019
29.7288 1796 42.3792
29.8463 1779 42.1782
29.9638 1777 42.1545
30.0812 1656 40.694
30.1987 1687 41.0731
30.3162 1661 40.7554
30.4337 1727 41.5572
30.5512 1669 40.8534
30.6687 1724 41.5211
30.7862 1803 42.4617
30.9037 1786 42.2611
31.0212 1776 42.1426
31.1387 1930 43.9318
31.2562 1847 42.9767
31.3737 1696 41.1825
31.4912 1774 42.1189
31.6087 1783 42.2256
31.7262 1877 43.3244
31.8436 1798 42.4028
31.9611 1680 40.9878
32.0785 1608 40.0999
32.1959 1455 38.1445
32.3134 1571 39.6358
32.4308 1563 39.5348
32.5482 1466 38.2884
32.6655 1583 39.7869
32.7829 1737 41.6773
32.9002 1731 41.6053
33.0176 1756 41.9047
33.1349 1819 42.6497
33.2522 1789 42.2966
33.3694 1764 42
33.4867 1765 42.0119
33.6039 1650 40.6202
33.7211 1757 41.9166
33.8383 1599 39.9875
33.9554 1591 39.8873
34.0725 1601 40.0125
34.1896 1657 40.7063
34.3067 1638 40.4722
34.4237 1757 41.9166
34.5407 1788 42.2847
34.6577 1769 42.0595
34.7746 1817 42.6263
34.8915 1758 41.9285
35.0084 1809 42.5323
35.1252 1795 42.3674
35.242 1751 41.845
35.3587 1772 42.0951
35.4755 1805 42.4853
35.5921 1735 41.6533
35.7088 1655 40.6817
35.8254 1431 37.8286
35.9419 1513 38.8973
36.0584 1415 37.6165
36.1749 1442 37.9737
36.2913 1432 37.8418
36.4077 1590 39.8748
36.524 1632 40.398
36.6403 1706 41.3038
36.7565 1703 41.2674
36.8727 1802 42.45
36.9889 1754 41.8808
37.1049 1732 41.6173
37.221 0 1
37.3369 0 1
37.4529 0 1
37.5687 0 1
37.6845 0 1
37.8003 0 1
37.916 0 1
38.0316 0 1
38.1472 0 1
40.5851 0 1
40.7008 0 1
40.8164 0 1
40.9322 0 1
41.048 0 1
41.1639 0 1
41.2798 0 1
41.3958 0 1
41.5118 0 1
41.6279 0 1
41.744 1325 36.4005
41.8602 1358 36.8511
41.9765 1363 36.9188
42.0928 1469 38.3275
42.2091 1489 38.5876
42.3255 1493 38.6394
42.4419 1383 37.1887
42.5584 1369 37
42.675 1260 35.4965
42.7915 1286 35.8608
42.9081 1233 35.1141
43.0248 1377 37.108
43.1415 1344 36.6606
43.2582 1337 36.565
43.375 1410 37.55
43.4918 1437 37.9078
43.6087 1474 38.3927
43.7256 1429 37.8021
43.8425 1420 37.6829
43.9595 1408 37.5233
44.0765 1418 37.6563
44.1935 1413 37.5899
44.3106 1383 37.1887
44.4277 1225 35
44.5448 1211 34.7994
44.6619 1077 32.8177
44.7791 1025 32.0156
44.8963 1026 32.0312
45.0136 1073 32.7567
45.1308 1126 33.5559
45.2481 1218 34.8999
45.3654 1130 33.6155
45.4827 1141 33.7787
45.6001 1159 34.0441
45.7174 1181 34.3657
45.8348 1158 34.0294
45.9522 1108 33.2866
46.0697 1037 32.2025
46.1871 956 30.9192
46.3046 912 30.1993
46.422 875 29.5804
46.5395 956 30.9192
46.657 983 31.3528
46.7745 1023 31.9844
46.892 1122 33.4963
47.0096 1109 33.3017
47.1271 1074 32.7719
47.2446 1128 33.5857
47.3622 1050 32.4037
47.4797 1119 33.4515
47.5973 1054 32.4654
47.7149 1032 32.1248
47.8324 1019 31.9218
47.95 1005 31.7017
48.0675 934 30.5614
48.1851 862 29.3598
48.3027 853 29.2062
48.4202 855 29.2404
48.5378 822 28.6705
48.6554 863 29.3769
48.7729 936 30.5941
48.8904 996 31.5595
49.008 935 30.5778
49.1255 1006 31.7175
49.243 985 31.3847
49.3605 941 30.6757
49.478 907 30.1164
49.5955 816 28.5657
49.713 759 27.55
49.8304 758 27.5318
49.9479 797 28.2312
50.0653 895 29.9166
50.1827 921 30.348
50.3001 928 30.4631
50.4175 1011 31.7962
50.5348 1055 32.4808
50.6521 1063 32.6037
50.7694 1047 32.3574
50.8867 1175 34.2783
51.004 1128 33.5857
51.1212 1118 33.4365
51.2384 1147 33.8674
51.3556 1157 34.0147
51.4727 1187 34.4529
51.5899 1159 34.0441
51.707 1000 31.6228
51.824 1023 31.9844
51.9411 1070 32.7109
52.0581 1099 33.1512
52.175 1218 34.8999
52.2919 1213 34.8281
52.4088 1243 35.2562
52.5257 1216 34.8712
52.6425 1273 35.6791
52.7593 1327 36.428
52.876 1331 36.4829
52.9927 1247 35.3129
53.1094 1227 35.0286
53.226 1124 33.5261
53.3426 1036 32.187
53.4591 1112 33.3467
53.5756 1208 34.7563
53.692 1260 35.4965
53.8084 1418 37.6563
53.9248 1345 36.6742
54.0411 1453 38.1182
54.1573 1470 38.3406
54.2735 0 1
54.3896 0 1
54.5057 0 1
54.6217 0 1
54.7377 0 1
54.8537 0 1
54.9695 0 1
55.0853 0 1
55.2011 0 1
55.3168 0 1
55.4324 0 1
57.824 0 1
57.9396 0 1
58.0553 0 1
58.1711 0 1
58.2869 0 1
58.4028 0 1
58.5187 0 1
58.6347 0 1
58.7508 0 1
58.8669 0 1
58.983 1541 39.2556
59.0992 1593 39.9124
59.2155 1669 40.8534
59.3318 1726 41.5452
59.4482 1712 41.3763
59.5646 1777 42.1545
59.681 1735 41.6533
59.7975 1745 41.7732
59.9141 1765 42.0119
60.0306 1612 40.1497
60.1473 1586 39.8246
60.2639 1428 37.7889
60.3807 1417 37.6431
60.4974 1372 37.0405
60.6142 1443 37.9868
60.731 1485 38.5357
60.8479 1527 39.0768
60.9648 1517 38.9487
61.0818 1517 38.9487
61.1987 1583 39.7869
61.3158 1546 39.3192
61.4328 1520 38.9872
61.5499 1508 38.833
61.667 1395 37.3497
61.7841 1298 36.0278
61.9013 1228 35.0428
62.0185 1238 35.1852
62.1357 1394 37.3363
62.253 1502 38.7556
62.3702 1532 39.1408
62.4875 1698 41.2068
62.6049 1765 42.0119
62.7222 1734 41.6413
62.8396 1803 42.4617
62.9569 1851 43.0232
63.0743 1831 42.7902
63.1918 1833 42.8135
63.3092 1852 43.0349
63.4267 1825 42.72
63.5441 1719 41.4608
63.6616 1648 40.5956
63.7791 1591 39.8873
63.8966 1575 39.6863
64.0142 1537 39.2046
64.1317 1566 39.5727
64.2492 1618 40.2244
64.3668 1663 40.7799
64.4843 1749 41.821
64.6019 1762 41.9762
64.7195 1774 42.1189
64.837 1746 41.7852
64.9546 1765 42.0119
65.0722 1567 39.5854
65.1898 1463 38.2492
65.3074 1416 37.6298
65.4249 1264 35.5528
65.5425 1236 35.1568
65.6601 1278 35.7491
65.7777 1402 37.4433
65.8952 1523 39.0256
66.0128 1638 40.4722
66.1304 1645 40.5586
66.2479 1732 41.6173
66.3655 1682 41.0122
66.483 1749 41.821
66.6005 1882 43.382
66.718 1824 42.7083
66.8355 1777 42.1545
66.953 1702 41.2553
67.0705 1686 41.0609
67.1879 1523 39.0256
67.3054 1539 39.2301
67.4228 1388 37.2559
67.5402 1355 36.8103
67.6576 1441 37.9605
67.7749 1356 36.8239
67.8923 1431 37.8286
68.0096 1447 38.0395
68.1269 1448 38.0526
68.2442 1382 37.1753
68.3614 1451 38.092
68.4787 1428 37.7889
68.5958 1416 37.6298
68.713 1376 37.0945
68.8302 1242 35.242
68.9473 1161 34.0735
69.0643 1121 33.4813
69.1814 1020 31.9374
69.2984 1088 32.9848
69.4154 1226 35.0143
69.5323 1384 37.2022
69.6492 1406 37.4967
69.7661 1462 38.2361
69.8829 1527 39.0768
69.9997 1532 39.1408
70.1165 1672 40.8901
70.2332 1677 40.9512
70.3499 1588 39.8497
70.4665 1665 40.8044
70.5831 1598 39.975
70.6996 1524 39.0384
70.8161 1408 37.5233
70.9326 1423 37.7227
71.049 1310 36.1939
71.1653 1251 35.3695
71.2817 1220 34.9285
71.3979 1322 36.3593
71.5141 1282 35.805
71.6303 1328 36.4417
71.7464 1217 34.8855
71.8624 0 1
71.9784 0 1
72.0944 0 1
72.2102 0 1
72.3261 0 1
72.4418 0 1
72.5575 0 1
72.6732 0 1
75.1054 0 1
75.2209 0 1
75.3365 0 1
75.4521 0 1
75.5678 0 1
75.6835 0 1
75.7993 0 1
75.9151 0 1
76.031 0 1
76.147 1324 36.3868
76.263 1314 36.2491
76.3791 1244 35.2704
76.4952 1294 35.9722
76.6113 1303 36.0971
76.7276 1340 36.606
76.8438 1421 37.6962
76.9601 1408 37.5233
77.0765 1426 37.7624
77.1929 1415 37.6165
77.3093 1437 37.9078
77.4258 1398 37.3898
77.5423 1494 38.6523
77.6589 1396 37.3631
77.7755 1194 34.5543
77.8921 1091 33.0303
78.0088 1032 32.1248
78.1256 994 31.5278
78.2423 904 30.0666
78.3591 1049 32.3883
78.4759 1180 34.3511
78.5928 1282 35.805
78.7097 1360 36.8782
78.8266 1420 37.6829
78.9436 1603 40.0375
79.0606 1594 39.9249
79.1776 1570 39.6232
79.2946 1595 39.9375
79.4117 1618 40.2244
79.5288 1534 39.1663
79.6459 1572 39.6485
79.7631 1398 37.3898
79.8802 1384 37.2022
79.9974 1173 34.2491
80.1147 1167 34.1614
80.2319 1225 35
80.3491 1343 36.647
80.4664 1320 36.3318
80.5837 1177 34.3074
80.701 1315 36.2629
80.8183 1288 35.8887
80.9357 1317 36.2905
81.053 1384 37.2022
81.1704 1370 37.0135
81.2877 1285 35.8469
81.4051 1122 33.4963
81.5225 1022 31.9687
81.6399 939 30.6431
81.7573 856 29.2575
81.8747 793 28.1603
81.9922 931 30.5123
82.1096 1081 32.8786
82.227 1170 34.2053
82.3444 1291 35.9305
82.4619 1384 37.2022
82.5793 1424 37.7359
82.6967 1404 37.47
82.8142 1378 37.1214
82.9316 1310 36.1939
83.049 1375 37.081
83.1664 1280 35.7771
83.2838 1316 36.2767
83.4012 1245 35.2846
83.5186 1163 34.1028
83.636 1157 34.0147
83.7534 1123 33.5112
83.8708 1114 33.3766
83.9881 1215 34.8569
84.1055 1245 35.2846
84.2228 1173 34.2491
84.3401 1183 34.3948
84.4575 1209 34.7707
84.5747 1259 35.4824
84.692 1244 35.2704
84.8093 1217 34.8855
84.9265 1084 32.9242
85.0437 922 30.3645
85.1609 897 29.95
85.2781 807 28.4077
85.3952 746 27.313
85.5123 804 28.3549
85.6294 927 30.4467
85.7465 1203 34.6843
85.8636 1276 35.7211
85.9806 1237 35.171
86.0976 1429 37.8021
86.2145 1396 37.3631
86.3315 1549 39.3573
86.4484 1419 37.6696
86.5652 1462 38.2361
86.682 1550 39.37
86.7988 1466 38.2884
86.9156 1425 37.7492
87.0323 1330 36.4692
87.149 1332 36.4966
87.2657 1302 36.0832
87.3823 1325 36.4005
87.4988 1326 36.4143
87.6154 1365 36.9459
87.7318 1376 37.0945
87.8483 1376 37.0945
87.9647 1402 37.4433
88.081 1363 36.9188
88.1973 1483 38.5097
88.3136 1449 38.0657
88.4298 1368 36.9865
88.546 1188 34.4674
88.6621 1046 32.3419
88.7781 942 30.692
88.8942 0 1
89.0101 0 1
89.126 0 1
89.2419 0 1
89.3577 0 1
89.4734 0 1
89.5891 0 1
89.7047 0 1
89.8203 0 1
89.9358 0 1
92.3269 0 1
92.4424 0 1
92.558 0 1
92.6736 0 1
92.7893 0 1
92.905 0 1
93.0208 0 1
93.1366 0 1
93.2525 0 1
93.3685 0 1
93.4845 0 1
93.6005 1480 38.4708
93.7167 1411 37.5633
93.8328 1374 37.0675
93.949 1274 35.6931
94.0653 1130 33.6155
94.1816 1067 32.665
94.2979 980 31.305
94.4143 856 29.2575
94.5307 956 30.9192
94.6472 1071 32.7261
94.7637 1227 35.0286
94.8803 1388 37.2559
94.9969 1481 38.4838
95.1135 1553 39.4081
95.2302 1667 40.8289
95.3469 1602 40.025
95.4637 1608 40.0999
95.5805 1601 40.0125
95.6973 1677 40.9512
95.8142 1614 40.1746
95.9311 1534 39.1663
96.048 1559 39.4842
96.1649 1493 38.6394
96.2819 1526 39.064
96.3989 1500 38.7298
96.516 1544 39.2938
96.633 1502 38.7556
96.7501 1500 38.7298
96.8673 1534 39.1663
96.9844 1455 38.1445
97.1016 1580 39.7492
97.2188 1598 39.975
97.336 1597 39.9625
97.4532 1546 39.3192
97.5704 1410 37.55
97.6877 1265 35.5668
97.805 1134 33.6749
97.9223 1001 31.6386
98.0396 969 31.1288
98.1569 912 30.1993
98.2743 969 31.1288
98.3916 1175 34.2783
98.509 1398 37.3898
98.6264 1466 38.2884
98.7438 1621 40.2616
98.8612 1586 39.8246
98.9786 1750 41.833
99.096 1627 40.3361
99.2134 1667 40.8289
99.3308 1737 41.6773
99.4482 1790 42.3084
99.5656 1739 41.7013
99.6831 1661 40.7554
99.8005 1627 40.3361
99.9179 1523 39.0256
100.035 1564 39.5474
100.153 1553 39.4081
100.27 1512 38.8844
100.388 1609 40.1123
100.505 1472 38.3667
100.622 1649 40.6079
100.74 1611 40.1373
100.857 1595 39.9375
100.975 1653 40.6571
101.092 1544 39.2938
101.209 1464 38.2623
101.327 1219 34.9142
101.444 1026 32.0312
101.561 912 30.1993
101.679 885 29.7489
101.796 932 30.5287
101.913 1179 34.3366
102.03 1374 37.0675
102.148 1555 39.4335
102.265 1653 40.6571
102.382 1832 42.8019
102.499 1799 42.4146
102.616 1858 43.1045
102.733 1882 43.382
102.851 1799 42.4146
102.968 1865 43.1856
103.085 1720 41.4729
103.202 1748 41.8091
103.319 1710 41.3521
103.436 1680 40.9878
103.552 1680 40.9878
103.669 1621 40.2616
103.786 1652 40.6448
103.903 1685 41.0488
104.02 1645 40.5586
104.137 1676 40.939
104.253 1688 41.0853
104.37 1729 41.5812
104.487 1672 40.8901
104.603 1752 41.8569
104.72 1480 38.4708
104.836 1255 35.426
104.953 1144 33.8231
105.069 1010 31.7805
105.186 1022 31.9687
105.302 1087 32.9697
105.418 1296 36
105.535 1491 38.6135
105.651 1691 41.1218
105.767 1870 43.2435
105.883 1856 43.0813
105.999 1921 43.8292
106.115 0 1
106.231 0 1
106.347 0 1
106.463 0 1
106.579 0 1
106.694 0 1
106.81 0 1
106.926 0 1
107.041 0 1
107.157 0 1
109.576 0 1
109.692 0 1
109.807 0 1
109.923 0 1
110.039 0 1
110.155 0 1
110.27 0 1
110.386 0 1
110.502 0 1
110.618 1479 38.4578
110.735 1603 40.0375
110.851 1744 41.7612
110.967 1813 42.5793
111.083 1801 42.4382
111.199 1834 42.8252
111.316 1812 42.5676
111.432 1815 42.6028
111.549 1824 42.7083
111.665 1763 41.9881
111.782 1797 42.391
111.898 1729 41.5812
112.015 1685 41.0488
112.132 1626 40.3237
112.248 1673 40.9023
112.365 1640 40.4969
112.482 1590 39.8748
112.599 1721 41.4849
112.716 1570 39.6232
112.832 1587 39.8372
112.949 1624 40.2989
113.066 1601 40.0125
113.183 1548 39.3446
113.3 1417 37.6431
113.417 1176 34.2929
113.534 1040 32.249
113.652 929 30.4795
113.769 911 30.1828
113.886 1007 31.7333
114.003 1115 33.3916
114.12 1407 37.51
114.238 1592 39.8999
114.355 1645 40.5586
114.472 1610 40.1248
114.589 1712 41.3763
114.707 1700 41.2311
114.824 1761 41.9643
114.942 1743 41.7493
115.059 1805 42.4853
115.176 1730 41.5933
115.294 1726 41.5452
115.411 1696 41.1825
115.529 1669 40.8534
115.646 1575 39.6863
115.764 1592 39.8999
115.881 1630 40.3733
115.999 1636 40.4475
116.116 1572 39.6485
116.234 1530 39.1152
116.351 1525 39.0512
116.469 1487 38.5616
116.586 1623 40.2865
116.704 1495 38.6652
116.821 1469 38.3275
116.939 1272 35.6651
117.056 1112 33.3467
117.174 993 31.5119
117.291 964 31.0483
117.409 1007 31.7333
117.526 1078 32.8329
117.644 1286 35.8608
117.761 1425 37.7492
117.879 1556 39.4462
117.996 1614 40.1746
118.114 1605 40.0625
118.231 1650 40.6202
118.349 1648 40.5956
118.466 1724 41.5211
118.584 1761 41.9643
118.701 1664 40.7922
118.819 1679 40.9756
118.936 1676 40.939
119.053 1742 41.7373
119.171 1526 39.064
119.288 1602 40.025
119.405 1533 39.1535
119.523 1536 39.1918
119.64 1517 38.9487
119.757 1485 38.5357
119.875 1437 37.9078
119.992 1522 39.0128
120.109 1430 37.8153
120.226 1500 38.7298
120.343 1523 39.0256
120.46 1401 37.4299
120.578 1298 36.0278
120.695 1151 33.9264
120.812 1041 32.2645
120.929 1090 33.0151
121.046 1004 31.686
121.163 1042 32.28
121.279 1187 34.4529
121.396 1339 36.5923
121.513 1399 37.4032
121.63 1529 39.1024
121.747 1619 40.2368
121.863 1658 40.7185
121.98 1626 40.3237
122.097 1668 40.8412
122.213 1684 41.0366
122.33 1715 41.4126
122.446 1716 41.4246
122.563 1638 40.4722
122.679 1611 40.1373
122.795 1601 40.0125
122.912 1590 39.8748
123.028 1519 38.9744
123.144 1480 38.4708
123.26 1464 38.2623
123.377 0 1
123.493 0 1
123.609 0 1
123.725 0 1
123.84 0 1
123.956 0 1
124.072 0 1
124.188 0 1
124.303 0 1
124.419 0 1
126.852 0 1
126.968 0 1
127.083 0 1
127.199 0 1
127.315 0 1
127.431 0 1
127.547 0 1
127.663 0 1
127.779 0 1
127.895 0 1
128.011 0 1
128.127 0 1
128.243 0 1
128.359 1721 41.4849
128.476 1796 42.3792
128.592 1726 41.5452
128.708 1744 41.7612
128.825 1722 41.497
128.941 1725 41.5331
129.058 1688 41.0853
129.174 1735 41.6533
129.291 1695 41.1704
129.408 1573 39.6611
129.524 1471 38.3536
129.641 1370 37.0135
129.758 1247 35.3129
129.875 1168 34.176
129.992 1118 33.4365
130.108 1139 33.7491
130.225 1270 35.6371
130.342 1459 38.1969
130.459 1549 39.3573
130.576 1708 41.328
130.693 1686 41.0609
130.81 1710 41.3521
130.928 1836 42.8486
131.045 1799 42.4146
131.162 1838 42.8719
131.279 1842 42.9185
131.396 1900 43.589
131.513 1805 42.4853
131.631 1871 43.2551
131.748 1796 42.3792
131.865 1800 42.4264
131.983 1864 43.1741
132.1 1797 42.391
132.217 1793 42.3438
132.335 1791 42.3202
132.452 1752 41.8569
132.57 1731 41.6053
132.687 1746 41.7852
132.804 1810 42.5441
132.922 1757 41.9166
133.039 1490 38.6005
133.157 1425 37.7492
133.274 1312 36.2215
133.392 1145 33.8378
133.509 1191 34.5109
133.627 1142 33.7935
133.744 1303 36.0971
133.862 1390 37.2827
133.979 1547 39.3319
134.097 1582 39.7744
134.214 1615 40.1871
134.332 1746 41.7852
134.449 1785 42.2493
134.567 1847 42.9767
134.684 1922 43.8406
134.802 1899 43.5775
134.919 1957 44.238
135.037 1881 43.3705
135.154 1833 42.8135
135.272 1872 43.2666
135.389 1853 43.0465
135.507 1829 42.7668
135.624 1855 43.0697
135.742 1819 42.6497
135.859 1809 42.5323
135.977 1789 42.2966
136.094 1885 43.4166
136.211 1767 42.0357
136.329 1657 40.7063
136.446 1668 40.8412
136.564 1636 40.4475
136.681 1439 37.9342
136.798 1428 37.7889
136.915 1277 35.7351
137.033 1249 35.3412
137.15 1168 34.176
137.267 1162 34.0881
137.384 1238 35.1852
137.502 1416 37.6298
137.619 1443 37.9868
137.736 1585 39.8121
137.853 1547 39.3319
137.97 1633 40.4104
138.087 1773 42.107
138.204 1859 43.1161
138.321 1819 42.6497
138.438 1811 42.5558
138.555 1868 43.2204
138.672 1869 43.2319
138.788 1852 43.0349
138.905 1840 42.8952
139.022 1923 43.852
139.139 1873 43.2782
139.255 1834 42.8252
139.372 1872 43.2666
139.488 1846 42.9651
139.605 1823 42.6966
139.721 1810 42.5441
139.838 1861 43.1393
139.954 1793 42.3438
140.071 1752 41.8569
140.187 1725 41.5331
140.303 1566 39.5727
140.419 1513 38.8973
140.535 1400 37.4166
140.652 1242 35.242
140.768 0 1
140.884 0 1
141 0 1
141.115 0 1
141.231 0 1
141.347 0 1
141.463 0 1
141.578 0 1
141.694 0 1
144.104 0 1
144.219 0 1
144.335 0 1
144.45 0 1
144.566 0 1
144.682 0 1
144.798 0 1
144.914 0 1
145.03 0 1
145.146 1240 35.2136
145.262 1314 36.2491
145.378 1269 35.623
145.494 1168 34.176
145.61 1134 33.6749
145.726 1042 32.28
145.842 991 31.4802
145.959 900 30
146.075 983 31.3528
146.192 952 30.8545
146.308 1039 32.2335
146.425 1098 33.1361
146.541 1158 34.0294
146.658 1244 35.2704
146.774 1370 37.0135
146.891 1376 37.0945
147.008 1438 37.921
147.125 1427 37.7757
147.241 1476 38.4187
147.358 1513 38.8973
147.475 1506 38.8072
147.592 1452 38.1051
147.709 1491 38.6135
147.826 1479 38.4578
147.943 1359 36.8646
148.06 1393 37.3229
148.177 1468 38.3145
148.294 1372 37.0405
148.411 1459 38.1969
148.528 1398 37.3898
148.645 1307 36.1525
148.762 1383 37.1887
148.88 1391 37.2961
148.997 1363 36.9188
149.114 1389 37.2693
149.231 1280 35.7771
149.349 1143 33.8083
149.466 1171 34.2199
149.583 1051 32.4191
149.701 1032 32.1248
149.818 913 30.2159
149.935 965 31.0644
150.053 1009 31.7648
150.17 964 31.0483
150.287 1083 32.909
150.405 1229 35.0571
150.522 1290 35.9166
150.64 1334 36.524
150.757 1429 37.8021
150.875 1406 37.4967
150.992 1460 38.2099
151.11 1457 38.1707
151.227 1408 37.5233
151.344 1431 37.8286
151.462 1450 38.0789
151.579 1354 36.7967
151.697 1325 36.4005
151.814 1350 36.7423
151.932 1398 37.3898
152.049 1418 37.6563
152.167 1449 38.0657
152.284 1397 37.3765
152.402 1357 36.8375
152.519 1433 37.855
152.636 1336 36.5513
152.754 1387 37.2424
152.871 1374 37.0675
152.989 1238 35.1852
153.106 1108 33.2866
153.223 1036 32.187
153.341 1051 32.4191
153.458 944 30.7246
153.575 943 30.7083
153.693 1032 32.1248
153.81 1054 32.4654
153.927 1158 34.0294
154.044 1259 35.4824
154.162 1391 37.2961
154.279 1411 37.5633
154.396 1463 38.2492
154.513 1496 38.6782
154.63 1492 38.6264
154.747 1560 39.4968
154.864 1556 39.4462
154.981 1563 39.5348
155.098 1518 38.9615
155.215 1521 39
155.332 1459 38.1969
155.449 1579 39.7366
155.566 1479 38.4578
155.683 1574 39.6737
155.8 1563 39.5348
155.917 1514 38.9102
156.033 1519 38.9744
156.15 0 1
156.267 0 1
156.383 0 1
156.5 0 1
156.617 0 1
156.733 0 1
156.85 0 1
156.966 0 1
157.082 0 1
157.199 0 1
157.315 0 1
157.431 0 1
157.547 0 1
157.664 0 1
157.78 0 1
157.896 0 1
158.012 0 1
158.128 0 1
158.244 0 1
158.359 0 1
158.475 0 1
158.591 0 1
158.706 0 1
