
6.15755 0 1
6.2731 0 1
6.3887 0 1
6.50437 0 1
6.62009 0 1
6.73587 0 1
6.8517 0 1
6.96759 0 1
7.08353 0 1
7.19952 0 1
7.31557 0 1
7.43166 0 1
7.54781 0 1
7.664 0 1
7.78024 0 1
7.89653 0 1
8.01286 0 1
8.12924 0 1
8.24567 0 1
8.36213 0 1
8.47864 0 1
8.59519 0 1
8.71178 0 1
8.82841 0 1
8.94508 0 1
9.06179 0 1
9.17853 0 1
9.29531 0 1
9.41212 0 1
9.52897 0 1
9.64584 0 1
9.76276 0 1
9.8797 0 1
9.99667 0 1
10.1137 0 1
10.2307 0 1
10.3478 0 1
10.4648 0 1
10.5819 0 1
10.6991 0 1
10.8162 0 1
10.9334 0 1
11.0506 0 1
11.1678 0 1
11.285 0 1
11.4023 0 1
11.5196 0 1
11.6369 0 1
11.7542 0 1
11.8715 0 1
11.9888 0 1
12.1062 0 1
12.2235 0 1
12.3409 0 1
12.4582 0 1
12.5756 0 1
12.693 0 1
12.8104 0 1
12.9278 0 1
13.0452 0 1
13.1626 0 1
13.28 0 1
13.3974 0 1
13.5149 0 1
13.6323 0 1
13.7497 0 1
13.8671 0 1
13.9845 0 1
14.1019 0 1
14.2193 0 1
14.3367 0 1
14.4541 0 1
14.5714 0 1
14.6888 0 1
14.8062 0 1
14.9235 0 1
15.0408 455 21.3307
15.1581 491 22.1585
15.2755 484 22
15.3927 507 22.5167
15.51 502 22.4054
15.6273 477 21.8403
15.7445 503 22.4277
15.8617 465 21.5639
15.9789 490 22.1359
16.0961 456 21.3542
16.2132 468 21.6333
16.3304 479 21.8861
16.4475 478 21.8632
16.5646 467 21.6102
16.6816 518 22.7596
16.7986 525 22.9129
16.9156 552 23.4947
17.0326 568 23.8328
17.1496 619 24.8797
17.2665 540 23.2379
17.3833 510 22.5832
17.5002 516 22.7156
17.617 519 22.7816
17.7338 477 21.8403
17.8505 466 21.587
17.9672 466 21.587
18.0839 502 22.4054
18.2005 484 22
18.3171 492 22.1811
18.4337 494 22.2261
18.5502 492 22.1811
18.6666 522 22.8473
18.7831 494 22.2261
18.8994 533 23.0868
19.0158 523 22.8692
19.1321 492 22.1811
19.2483 507 22.5167
19.3645 454 21.3073
19.4806 421 20.5183
19.5967 384 19.5959
19.7128 344 18.5472
19.8288 331 18.1934
19.9447 304 17.4356
20.0606 0 1
20.1764 0 1
20.2922 0 1
20.4079 0 1
20.5236 0 1
20.6392 0 1
20.7548 0 1
20.8702 0 1
23.3078 0 1
23.4233 0 1
23.539 0 1
23.6547 0 1
23.7704 0 1
23.8862 0 1
24.0021 0 1
24.118 0 1
24.234 0 1
24.35 0 1
24.4661 165 12.8452
24.5822 258 16.0624
24.6984 282 16.7929
24.8146 255 15.9687
24.9309 303 17.4069
25.0472 325 18.0278
25.1636 352 18.7617
25.28 377 19.4165
25.3965 382 19.5448
25.513 439 20.9523
25.6296 472 21.7256
25.7462 480 21.9089
25.8628 503 22.4277
25.9795 515 22.6936
26.0962 525 22.9129
26.213 461 21.4709
26.3298 445 21.095
26.4466 424 20.5913
26.5635 436 20.8806
26.6804 401 20.025
26.7973 465 21.5639
26.9143 458 21.4009
27.0313 428 20.6882
27.1483 482 21.9545
27.2653 481 21.9317
27.3824 491 22.1585
27.4996 471 21.7025
27.6167 450 21.2132
27.7339 478 21.8632
27.8511 460 21.4476
27.9683 487 22.0681
28.0855 422 20.5426
28.2028 414 20.347
28.3201 387 19.6723
28.4374 390 19.7484
28.5547 412 20.2978
28.6721 361 19
28.7894 386 19.6469
28.9068 434 20.8327
29.0242 461 21.4709
29.1416 437 20.9045
29.259 450 21.2132
29.3764 412 20.2978
29.4939 451 21.2368
29.6113 479 21.8861
29.7288 437 20.9045
29.8463 408 20.199
29.9638 398 19.9499
30.0812 378 19.4422
30.1987 405 20.1246
30.3162 417 20.4206
30.4337 406 20.1494
30.5512 400 20
30.6687 452 21.2603
30.7862 455 21.3307
30.9037 435 20.8567
31.0212 451 21.2368
31.1387 410 20.2485
31.2562 399 19.975
31.3737 424 20.5913
31.4912 431 20.7605
31.6087 386 19.6469
31.7262 383 19.5704
31.8436 393 19.8242
31.9611 351 18.735
32.0785 359 18.9473
32.1959 356 18.868
32.3134 373 19.3132
32.4308 387 19.6723
32.5482 440 20.9762
32.6655 448 21.166
32.7829 445 21.095
32.9002 450 21.2132
33.0176 427 20.664
33.1349 421 20.5183
33.2522 440 20.9762
33.3694 394 19.8494
33.4867 404 20.0998
33.6039 387 19.6723
33.7211 361 19
33.8383 384 19.5959
33.9554 351 18.735
34.0725 402 20.0499
34.1896 392 19.799
34.3067 396 19.8997
34.4237 419 20.4695
34.5407 413 20.3224
34.6577 422 20.5426
34.7746 439 20.9523
34.8915 385 19.6214
35.0084 384 19.5959
35.1252 416 20.3961
35.242 381 19.5192
35.3587 378 19.4422
35.4755 355 18.8414
35.5921 342 18.4932
35.7088 325 18.0278
35.8254 327 18.0831
35.9419 310 17.6068
36.0584 347 18.6279
36.1749 373 19.3132
36.2913 395 19.8746
36.4077 397 19.9249
36.524 359 18.9473
36.6403 366 19.1311
36.7565 343 18.5203
36.8727 313 17.6918
36.9889 304 17.4356
37.1049 270 16.4317
37.221 0 1
37.3369 0 1
37.4529 0 1
37.5687 0 1
37.6845 0 1
37.8003 0 1
37.916 0 1
38.0316 0 1
38.1472 0 1
40.5851 0 1
40.7008 0 1
40.8164 0 1
40.9322 0 1
41.048 0 1
41.1639 0 1
41.2798 0 1
41.3958 0 1
41.5118 0 1
41.6279 0 1
41.744 199 14.1067
41.8602 208 14.4222
41.9765 219 14.7986
42.0928 268 16.3707
42.2091 246 15.6844
42.3255 237 15.3948
42.4419 249 15.7797
42.5584 248 15.748
42.675 264 16.2481
42.7915 283 16.8226
42.9081 311 17.6352
43.0248 337 18.3576
43.1415 343 18.5203
43.2582 324 18
43.375 333 18.2483
43.4918 328 18.1108
43.6087 345 18.5742
43.7256 394 19.8494
43.8425 344 18.5472
43.9595 311 17.6352
44.0765 330 18.1659
44.1935 321 17.9165
44.3106 311 17.6352
44.4277 264 16.2481
44.5448 301 17.3494
44.6619 267 16.3401
44.7791 293 17.1172
44.8963 287 16.9411
45.0136 286 16.9115
45.1308 326 18.0555
45.2481 391 19.7737
45.3654 329 18.1384
45.4827 355 18.8414
45.6001 350 18.7083
45.7174 393 19.8242
45.8348 342 18.4932
45.9522 308 17.5499
46.0697 324 18
46.1871 336 18.3303
46.3046 326 18.0555
46.422 330 18.1659
46.5395 305 17.4642
46.657 338 18.3848
46.7745 356 18.868
46.892 329 18.1384
47.0096 374 19.3391
47.1271 390 19.7484
47.2446 355 18.8414
47.3622 342 18.4932
47.4797 362 19.0263
47.5973 345 18.5742
47.7149 333 18.2483
47.8324 319 17.8606
47.95 322 17.9444
48.0675 317 17.8045
48.1851 300 17.3205
48.3027 316 17.7764
48.4202 295 17.1756
48.5378 328 18.1108
48.6554 317 17.8045
48.7729 349 18.6815
48.8904 382 19.5448
49.008 352 18.7617
49.1255 363 19.0526
49.243 353 18.7883
49.3605 340 18.4391
49.478 324 18
49.5955 296 17.2047
49.713 299 17.2916
49.8304 292 17.088
49.9479 316 17.7764
50.0653 321 17.9165
50.1827 336 18.3303
50.3001 362 19.0263
50.4175 327 18.0831
50.5348 352 18.7617
50.6521 347 18.6279
50.7694 366 19.1311
50.8867 336 18.3303
51.004 383 19.5704
51.1212 352 18.7617
51.2384 351 18.735
51.3556 318 17.8326
51.4727 316 17.7764
51.5899 331 18.1934
51.707 305 17.4642
51.824 320 17.8885
51.9411 324 18
52.0581 328 18.1108
52.175 313 17.6918
52.2919 364 19.0788
52.4088 343 18.5203
52.5257 353 18.7883
52.6425 366 19.1311
52.7593 346 18.6011
52.876 364 19.0788
52.9927 354 18.8149
53.1094 307 17.5214
53.226 304 17.4356
53.3426 261 16.1555
53.4591 301 17.3494
53.5756 300 17.3205
53.692 280 16.7332
53.8084 283 16.8226
53.9248 261 16.1555
54.0411 253 15.906
54.1573 263 16.2173
54.2735 0 1
54.3896 0 1
54.5057 0 1
54.6217 0 1
54.7377 0 1
54.8537 0 1
54.9695 0 1
55.0853 0 1
55.2011 0 1
55.3168 0 1
55.4324 0 1
57.824 0 1
57.9396 0 1
58.0553 0 1
58.1711 0 1
58.2869 0 1
58.4028 0 1
58.5187 0 1
58.6347 0 1
58.7508 0 1
58.8669 0 1
58.983 223 14.9332
59.0992 262 16.1864
59.2155 288 16.9706
59.3318 338 18.3848
59.4482 355 18.8414
59.5646 388 19.6977
59.681 384 19.5959
59.7975 432 20.7846
59.9141 442 21.0238
60.0306 405 20.1246
60.1473 390 19.7484
60.2639 404 20.0998
60.3807 365 19.105
60.4974 390 19.7484
60.6142 359 18.9473
60.731 449 21.1896
60.8479 427 20.664
60.9648 445 21.095
61.0818 495 22.2486
61.1987 436 20.8806
61.3158 449 21.1896
61.4328 456 21.3542
61.5499 463 21.5174
61.667 435 20.8567
61.7841 380 19.4936
61.9013 394 19.8494
62.0185 379 19.4679
62.1357 385 19.6214
62.253 391 19.7737
62.3702 439 20.9523
62.4875 445 21.095
62.6049 427 20.664
62.7222 497 22.2935
62.8396 483 21.9773
62.9569 497 22.2935
63.0743 488 22.0907
63.1918 525 22.9129
63.3092 500 22.3607
63.4267 458 21.4009
63.5441 431 20.7605
63.6616 461 21.4709
63.7791 401 20.025
63.8966 370 19.2354
64.0142 384 19.5959
64.1317 395 19.8746
64.2492 383 19.5704
64.3668 420 20.4939
64.4843 465 21.5639
64.6019 445 21.095
64.7195 462 21.4942
64.837 468 21.6333
64.9546 452 21.2603
65.0722 515 22.6936
65.1898 463 21.5174
65.3074 400 20
65.4249 416 20.3961
65.5425 365 19.105
65.6601 384 19.5959
65.7777 419 20.4695
65.8952 407 20.1742
66.0128 446 21.1187
66.1304 467 21.6102
66.2479 439 20.9523
66.3655 444 21.0713
66.483 478 21.8632
66.6005 491 22.1585
66.718 527 22.9565
66.8355 478 21.8632
66.953 466 21.587
67.0705 467 21.6102
67.1879 450 21.2132
67.3054 469 21.6564
67.4228 393 19.8242
67.5402 384 19.5959
67.6576 349 18.6815
67.7749 396 19.8997
67.8923 368 19.1833
68.0096 407 20.1742
68.1269 475 21.7945
68.2442 456 21.3542
68.3614 444 21.0713
68.4787 434 20.8327
68.5958 467 21.6102
68.713 475 21.7945
68.8302 412 20.2978
68.9473 425 20.6155
69.0643 413 20.3224
69.1814 373 19.3132
69.2984 390 19.7484
69.4154 388 19.6977
69.5323 434 20.8327
69.6492 457 21.3776
69.7661 494 22.2261
69.8829 507 22.5167
69.9997 450 21.2132
70.1165 472 21.7256
70.2332 450 21.2132
70.3499 447 21.1424
70.4665 388 19.6977
70.5831 418 20.445
70.6996 371 19.2614
70.8161 379 19.4679
70.9326 346 18.6011
71.049 331 18.1934
71.1653 269 16.4012
71.2817 213 14.5945
71.3979 188 13.7113
71.5141 182 13.4907
71.6303 160 12.6491
71.7464 157 12.53
71.8624 0 1
71.9784 0 1
72.0944 0 1
72.2102 0 1
72.3261 0 1
72.4418 0 1
72.5575 0 1
72.6732 0 1
75.1054 0 1
75.2209 0 1
75.3365 0 1
75.4521 0 1
75.5678 0 1
75.6835 0 1
75.7993 0 1
75.9151 0 1
76.031 0 1
76.147 313 17.6918
76.263 426 20.6398
76.3791 375 19.3649
76.4952 434 20.8327
76.6113 423 20.567
76.7276 395 19.8746
76.8438 479 21.8861
76.9601 534 23.1084
77.0765 598 24.454
77.1929 662 25.7294
77.3093 754 27.4591
77.4258 766 27.6767
77.5423 866 29.4279
77.6589 915 30.249
77.7755 960 30.9839
77.8921 998 31.5911
78.0088 974 31.209
78.1256 833 28.8617
78.2423 748 27.3496
78.3591 785 28.0179
78.4759 832 28.8444
78.5928 1026 32.0312
78.7097 1076 32.8024
78.8266 1109 33.3017
78.9436 1179 34.3366
79.0606 1069 32.6956
79.1776 1061 32.573
79.2946 1222 34.9571
79.4117 1259 35.4824
79.5288 1276 35.7211
79.6459 1277 35.7351
79.7631 1236 35.1568
79.8802 1236 35.1568
79.9974 1236 35.1568
80.1147 1194 34.5543
80.2319 1144 33.8231
80.3491 1145 33.8378
80.4664 1102 33.1964
80.5837 1246 35.2987
80.701 1179 34.3366
80.8183 1196 34.5832
80.9357 1200 34.641
81.053 1261 35.5106
81.1704 1267 35.5949
81.2877 1146 33.8526
81.4051 1150 33.9116
81.5225 983 31.3528
81.6399 935 30.5778
81.7573 855 29.2404
81.8747 829 28.7924
81.9922 706 26.5707
82.1096 658 25.6515
82.227 654 25.5734
82.3444 656 25.6125
82.4619 671 25.9037
82.5793 612 24.7386
82.6967 565 23.7697
82.8142 551 23.4734
82.9316 624 24.98
83.049 562 23.7065
83.1664 518 22.7596
83.2838 498 22.3159
83.4012 507 22.5167
83.5186 497 22.2935
83.636 467 21.6102
83.7534 448 21.166
83.8708 443 21.0476
83.9881 386 19.6469
84.1055 347 18.6279
84.2228 375 19.3649
84.3401 456 21.3542
84.4575 432 20.7846
84.5747 455 21.3307
84.692 482 21.9545
84.8093 526 22.9347
84.9265 492 22.1811
85.0437 460 21.4476
85.1609 479 21.8861
85.2781 432 20.7846
85.3952 375 19.3649
85.5123 384 19.5959
85.6294 377 19.4165
85.7465 427 20.664
85.8636 426 20.6398
85.9806 468 21.6333
86.0976 467 21.6102
86.2145 490 22.1359
86.3315 526 22.9347
86.4484 486 22.0454
86.5652 493 22.2036
86.682 533 23.0868
86.7988 482 21.9545
86.9156 509 22.561
87.0323 458 21.4009
87.149 487 22.0681
87.2657 456 21.3542
87.3823 416 20.3961
87.4988 401 20.025
87.6154 307 17.5214
87.7318 308 17.5499
87.8483 289 17
87.9647 316 17.7764
88.081 337 18.3576
88.1973 348 18.6548
88.3136 377 19.4165
88.4298 368 19.1833
88.546 328 18.1108
88.6621 262 16.1864
88.7781 231 15.1987
88.8942 0 1
89.0101 0 1
89.126 0 1
89.2419 0 1
89.3577 0 1
89.4734 0 1
89.5891 0 1
89.7047 0 1
89.8203 0 1
89.9358 0 1
92.3269 0 1
92.4424 0 1
92.558 0 1
92.6736 0 1
92.7893 0 1
92.905 0 1
93.0208 0 1
93.1366 0 1
93.2525 0 1
93.3685 0 1
93.4845 0 1
93.6005 532 23.0651
93.7167 551 23.4734
93.8328 569 23.8537
93.949 615 24.7992
94.0653 638 25.2587
94.1816 680 26.0768
94.2979 751 27.4044
94.4143 733 27.074
94.5307 743 27.258
94.6472 665 25.7876
94.7637 614 24.779
94.8803 601 24.5153
94.9969 680 26.0768
95.1135 829 28.7924
95.2302 933 30.545
95.3469 916 30.2655
95.4637 910 30.1662
95.5805 969 31.1288
95.6973 961 31
95.8142 965 31.0644
95.9311 892 29.8664
96.048 966 31.0805
96.1649 995 31.5436
96.2819 889 29.8161
96.3989 899 29.9833
96.516 748 27.3496
96.633 637 25.2389
96.7501 554 23.5372
96.8673 564 23.7487
96.9844 652 25.5343
97.1016 731 27.037
97.2188 653 25.5539
97.336 778 27.8927
97.4532 800 28.2843
97.5704 788 28.0713
97.6877 789 28.0891
97.805 723 26.8887
97.9223 692 26.3059
98.0396 657 25.632
98.1569 559 23.6432
98.2743 473 21.7486
98.3916 471 21.7025
98.509 418 20.445
98.6264 501 22.383
98.7438 477 21.8403
98.8612 515 22.6936
98.9786 555 23.5584
99.096 577 24.0208
99.2134 581 24.1039
99.3308 529 23
99.4482 581 24.1039
99.5656 574 23.9583
99.6831 534 23.1084
99.8005 499 22.3383
99.9179 496 22.2711
100.035 497 22.2935
100.153 499 22.3383
100.27 428 20.6882
100.388 411 20.2731
100.505 402 20.0499
100.622 358 18.9209
100.74 467 21.6102
100.857 472 21.7256
100.975 508 22.5389
101.092 518 22.7596
101.209 521 22.8254
101.327 516 22.7156
101.444 507 22.5167
101.561 503 22.4277
101.679 498 22.3159
101.796 415 20.3715
101.913 391 19.7737
102.03 388 19.6977
102.148 416 20.3961
102.265 453 21.2838
102.382 433 20.8087
102.499 484 22
102.616 497 22.2935
102.733 536 23.1517
102.851 547 23.388
102.968 502 22.4054
103.085 529 23
103.202 498 22.3159
103.319 501 22.383
103.436 487 22.0681
103.552 482 21.9545
103.669 505 22.4722
103.786 435 20.8567
103.903 424 20.5913
104.02 356 18.868
104.137 406 20.1494
104.253 401 20.025
104.37 448 21.166
104.487 537 23.1733
104.603 511 22.6053
104.72 496 22.2711
104.836 513 22.6495
104.953 475 21.7945
105.069 408 20.199
105.186 411 20.2731
105.302 360 18.9737
105.418 321 17.9165
105.535 321 17.9165
105.651 325 18.0278
105.767 336 18.3303
105.883 294 17.1464
105.999 319 17.8606
106.115 0 1
106.231 0 1
106.347 0 1
106.463 0 1
106.579 0 1
106.694 0 1
106.81 0 1
106.926 0 1
107.041 0 1
107.157 0 1
109.576 0 1
109.692 0 1
109.807 0 1
109.923 0 1
110.039 0 1
110.155 0 1
110.27 0 1
110.386 0 1
110.502 0 1
110.618 160 12.6491
110.735 178 13.3417
110.851 253 15.906
110.967 304 17.4356
111.083 328 18.1108
111.199 374 19.3391
111.316 410 20.2485
111.432 399 19.975
111.549 395 19.8746
111.665 401 20.025
111.782 427 20.664
111.898 394 19.8494
112.015 406 20.1494
112.132 407 20.1742
112.248 402 20.0499
112.365 333 18.2483
112.482 319 17.8606
112.599 307 17.5214
112.716 339 18.412
112.832 326 18.0555
112.949 398 19.9499
113.066 409 20.2237
113.183 418 20.445
113.3 421 20.5183
113.417 433 20.8087
113.534 424 20.5913
113.652 366 19.1311
113.769 317 17.8045
113.886 348 18.6548
114.003 312 17.6635
114.12 292 17.088
114.238 303 17.4069
114.355 350 18.7083
114.472 375 19.3649
114.589 448 21.166
114.707 421 20.5183
114.824 435 20.8567
114.942 451 21.2368
115.059 463 21.5174
115.176 445 21.095
115.294 483 21.9773
115.411 396 19.8997
115.529 380 19.4936
115.646 407 20.1742
115.764 396 19.8997
115.881 357 18.8944
115.999 335 18.303
116.116 312 17.6635
116.234 343 18.5203
116.351 318 17.8326
116.469 359 18.9473
116.586 331 18.1934
116.704 428 20.6882
116.821 409 20.2237
116.939 396 19.8997
117.056 383 19.5704
117.174 402 20.0499
117.291 372 19.2873
117.409 342 18.4932
117.526 328 18.1108
117.644 330 18.1659
117.761 338 18.3848
117.879 371 19.2614
117.996 380 19.4936
118.114 415 20.3715
118.231 389 19.7231
118.349 399 19.975
118.466 414 20.347
118.584 426 20.6398
118.701 440 20.9762
118.819 381 19.5192
118.936 393 19.8242
119.053 373 19.3132
119.171 395 19.8746
119.288 368 19.1833
119.405 342 18.4932
119.523 330 18.1659
119.64 313 17.6918
119.757 292 17.088
119.875 354 18.8149
119.992 302 17.3781
120.109 357 18.8944
120.226 344 18.5472
120.343 397 19.9249
120.46 374 19.3391
120.578 413 20.3224
120.695 388 19.6977
120.812 373 19.3132
120.929 366 19.1311
121.046 369 19.2094
121.163 342 18.4932
121.279 293 17.1172
121.396 284 16.8523
121.513 316 17.7764
121.63 343 18.5203
121.747 330 18.1659
121.863 339 18.412
121.98 352 18.7617
122.097 351 18.735
122.213 305 17.4642
122.33 323 17.9722
122.446 308 17.5499
122.563 293 17.1172
122.679 266 16.3095
122.795 258 16.0624
122.912 254 15.9374
123.028 204 14.2829
123.144 182 13.4907
123.26 139 11.7898
123.377 0 1
123.493 0 1
123.609 0 1
123.725 0 1
123.84 0 1
123.956 0 1
124.072 0 1
124.188 0 1
124.303 0 1
124.419 0 1
126.852 0 1
126.968 0 1
127.083 0 1
127.199 0 1
127.315 0 1
127.431 0 1
127.547 0 1
127.663 0 1
127.779 0 1
127.895 0 1
128.011 0 1
128.127 0 1
128.243 0 1
128.359 340 18.4391
128.476 375 19.3649
128.592 326 18.0555
128.708 357 18.8944
128.825 333 18.2483
128.941 296 17.2047
129.058 357 18.8944
129.174 357 18.8944
129.291 372 19.2873
129.408 378 19.4422
129.524 421 20.5183
129.641 406 20.1494
129.758 403 20.0749
129.875 404 20.0998
129.992 399 19.975
130.108 401 20.025
130.225 322 17.9444
130.342 357 18.8944
130.459 340 18.4391
130.576 343 18.5203
130.693 343 18.5203
130.81 337 18.3576
130.928 411 20.2731
131.045 394 19.8494
131.162 423 20.567
131.279 454 21.3073
131.396 442 21.0238
131.513 419 20.4695
131.631 440 20.9762
131.748 387 19.6723
131.865 365 19.105
131.983 397 19.9249
132.1 362 19.0263
132.217 354 18.8149
132.335 345 18.5742
132.452 336 18.3303
132.57 353 18.7883
132.687 391 19.7737
132.804 387 19.6723
132.922 384 19.5959
133.039 411 20.2731
133.157 387 19.6723
133.274 378 19.4422
133.392 419 20.4695
133.509 378 19.4422
133.627 362 19.0263
133.744 331 18.1934
133.862 332 18.2209
133.979 333 18.2483
134.097 366 19.1311
134.214 392 19.799
134.332 387 19.6723
134.449 417 20.4206
134.567 344 18.5472
134.684 388 19.6977
134.802 399 19.975
134.919 411 20.2731
135.037 365 19.105
135.154 418 20.445
135.272 375 19.3649
135.389 364 19.0788
135.507 397 19.9249
135.624 385 19.6214
135.742 347 18.6279
135.859 344 18.5472
135.977 339 18.412
136.094 368 19.1833
136.211 344 18.5472
136.329 352 18.7617
136.446 397 19.9249
136.564 377 19.4165
136.681 375 19.3649
136.798 380 19.4936
136.915 398 19.9499
137.033 370 19.2354
137.15 369 19.2094
137.267 348 18.6548
137.384 340 18.4391
137.502 329 18.1384
137.619 289 17
137.736 337 18.3576
137.853 354 18.8149
137.97 354 18.8149
138.087 370 19.2354
138.204 364 19.0788
138.321 378 19.4422
138.438 356 18.868
138.555 399 19.975
138.672 391 19.7737
138.788 360 18.9737
138.905 349 18.6815
139.022 358 18.9209
139.139 309 17.5784
139.255 297 17.2337
139.372 282 16.7929
139.488 267 16.3401
139.605 256 16
139.721 266 16.3095
139.838 233 15.2643
139.954 215 14.6629
140.071 235 15.3297
140.187 234 15.2971
140.303 226 15.0333
140.419 177 13.3041
140.535 180 13.4164
140.652 171 13.0767
140.768 0 1
140.884 0 1
141 0 1
141.115 0 1
141.231 0 1
141.347 0 1
141.463 0 1
141.578 0 1
141.694 0 1
144.104 0 1
144.219 0 1
144.335 0 1
144.45 0 1
144.566 0 1
144.682 0 1
144.798 0 1
144.914 0 1
145.03 0 1
145.146 223 14.9332
145.262 285 16.8819
145.378 287 16.9411
145.494 285 16.8819
145.61 316 17.7764
145.726 319 17.8606
145.842 358 18.9209
145.959 291 17.0587
146.075 254 15.9374
146.192 270 16.4317
146.308 256 16
146.425 226 15.0333
146.541 275 16.5831
146.658 268 16.3707
146.774 282 16.7929
146.891 325 18.0278
147.008 306 17.4929
147.125 302 17.3781
147.241 285 16.8819
147.358 309 17.5784
147.475 306 17.4929
147.592 300 17.3205
147.709 299 17.2916
147.826 302 17.3781
147.943 284 16.8523
148.06 258 16.0624
148.177 246 15.6844
148.294 264 16.2481
148.411 265 16.2788
148.528 268 16.3707
148.645 285 16.8819
148.762 276 16.6132
148.88 292 17.088
148.997 290 17.0294
149.114 312 17.6635
149.231 282 16.7929
149.349 324 18
149.466 281 16.7631
149.583 283 16.8226
149.701 247 15.7162
149.818 271 16.4621
149.935 240 15.4919
150.053 229 15.1327
150.17 271 16.4621
150.287 248 15.748
150.405 291 17.0587
150.522 276 16.6132
150.64 294 17.1464
150.757 322 17.9444
150.875 265 16.2788
150.992 289 17
151.11 294 17.1464
151.227 316 17.7764
151.344 290 17.0294
151.462 276 16.6132
151.579 288 16.9706
151.697 269 16.4012
151.814 242 15.5563
151.932 256 16
152.049 263 16.2173
152.167 277 16.6433
152.284 272 16.4924
152.402 279 16.7033
152.519 254 15.9374
152.636 284 16.8523
152.754 321 17.9165
152.871 286 16.9115
152.989 294 17.1464
153.106 281 16.7631
153.223 277 16.6433
153.341 256 16
153.458 242 15.5563
153.575 246 15.6844
153.693 258 16.0624
153.81 253 15.906
153.927 259 16.0935
154.044 252 15.8745
154.162 269 16.4012
154.279 246 15.6844
154.396 291 17.0587
154.513 292 17.088
154.63 303 17.4069
154.747 287 16.9411
154.864 281 16.7631
154.981 284 16.8523
155.098 266 16.3095
155.215 284 16.8523
155.332 269 16.4012
155.449 241 15.5242
155.566 231 15.1987
155.683 229 15.1327
155.8 215 14.6629
155.917 243 15.5885
156.033 255 15.9687
156.15 0 1
156.267 0 1
156.383 0 1
156.5 0 1
156.617 0 1
156.733 0 1
156.85 0 1
156.966 0 1
157.082 0 1
157.199 0 1
157.315 0 1
157.431 0 1
157.547 0 1
157.664 0 1
157.78 0 1
157.896 0 1
158.012 0 1
158.128 0 1
158.244 0 1
158.359 0 1
158.475 0 1
158.591 0 1
158.706 0 1
