
6.15755 0 1
6.2731 0 1
6.3887 0 1
6.50437 0 1
6.62009 0 1
6.73587 0 1
6.8517 0 1
6.96759 0 1
7.08353 0 1
7.19952 0 1
7.31557 0 1
7.43166 0 1
7.54781 0 1
7.664 0 1
7.78024 0 1
7.89653 0 1
8.01286 0 1
8.12924 0 1
8.24567 0 1
8.36213 0 1
8.47864 0 1
8.59519 0 1
8.71178 0 1
8.82841 0 1
8.94508 0 1
9.06179 0 1
9.17853 0 1
9.29531 0 1
9.41212 0 1
9.52897 0 1
9.64584 0 1
9.76276 0 1
9.8797 0 1
9.99667 0 1
10.1137 0 1
10.2307 0 1
10.3478 0 1
10.4648 0 1
10.5819 0 1
10.6991 0 1
10.8162 0 1
10.9334 0 1
11.0506 0 1
11.1678 0 1
11.285 0 1
11.4023 0 1
11.5196 0 1
11.6369 0 1
11.7542 0 1
11.8715 0 1
11.9888 0 1
12.1062 0 1
12.2235 0 1
12.3409 0 1
12.4582 0 1
12.5756 0 1
12.693 0 1
12.8104 0 1
12.9278 0 1
13.0452 0 1
13.1626 0 1
13.28 0 1
13.3974 0 1
13.5149 0 1
13.6323 0 1
13.7497 0 1
13.8671 0 1
13.9845 0 1
14.1019 0 1
14.2193 0 1
14.3367 0 1
14.4541 0 1
14.5714 0 1
14.6888 0 1
14.8062 0 1
14.9235 0 1
15.0408 4888 69.9142
15.1581 5103 71.4353
15.2755 5302 72.8148
15.3927 5440 73.7564
15.51 5315 72.904
15.6273 5298 72.7874
15.7445 5123 71.5751
15.8617 5204 72.1388
15.9789 5149 71.7565
16.0961 5252 72.4707
16.2132 5295 72.7668
16.3304 5354 73.171
16.4475 5257 72.5052
16.5646 5302 72.8148
16.6816 5427 73.6682
16.7986 5475 73.9932
16.9156 5537 74.411
17.0326 5319 72.9315
17.1496 5609 74.8933
17.2665 5514 74.2563
17.3833 5468 73.9459
17.5002 5547 74.4782
17.617 5391 73.4234
17.7338 5623 74.9867
17.8505 5602 74.8465
17.9672 5670 75.2994
18.0839 5556 74.5386
18.2005 5522 74.3102
18.3171 5698 75.4851
18.4337 5844 76.4461
18.5502 5974 77.2917
18.6666 6081 77.9808
18.7831 5985 77.3628
18.8994 5913 76.896
19.0158 5862 76.5637
19.1321 5580 74.6994
19.2483 5388 73.403
19.3645 5199 72.1041
19.4806 4926 70.1855
19.5967 4742 68.8622
19.7128 4690 68.4836
19.8288 4338 65.8635
19.9447 3848 62.0322
20.0606 0 1
20.1764 0 1
20.2922 0 1
20.4079 0 1
20.5236 0 1
20.6392 0 1
20.7548 0 1
20.8702 0 1
23.3078 0 1
23.4233 0 1
23.539 0 1
23.6547 0 1
23.7704 0 1
23.8862 0 1
24.0021 0 1
24.118 0 1
24.234 0 1
24.35 0 1
24.4661 2936 54.1849
24.5822 3376 58.1034
24.6984 3789 61.5549
24.8146 4289 65.4905
24.9309 4679 68.4032
25.0472 4911 70.0785
25.1636 5199 72.1041
25.28 5252 72.4707
25.3965 5639 75.0933
25.513 5722 75.6439
25.6296 5900 76.8115
25.7462 5914 76.9025
25.8628 6102 78.1153
25.9795 6092 78.0513
26.0962 6266 79.1581
26.213 6290 79.3095
26.3298 6508 80.6722
26.4466 6483 80.5171
26.5635 6224 78.8923
26.6804 6370 79.8123
26.7973 6295 79.341
26.9143 6396 79.975
27.0313 6515 80.7155
27.1483 6830 82.6438
27.2653 6984 83.5703
27.3824 6991 83.6122
27.4996 6941 83.3127
27.6167 6906 83.1023
27.7339 6679 81.7251
27.8511 6717 81.9573
27.9683 6538 80.8579
28.0855 6416 80.0999
28.2028 6324 79.5236
28.3201 6507 80.666
28.4374 6413 80.0812
28.5547 6357 79.7308
28.6721 6230 78.9303
28.7894 6133 78.3135
28.9068 6020 77.5887
29.0242 5925 76.974
29.1416 5993 77.4145
29.259 5959 77.1946
29.3764 5921 76.948
29.4939 6006 77.4984
29.6113 6181 78.6193
29.7288 6179 78.6066
29.8463 6228 78.9177
29.9638 6244 79.019
30.0812 6461 80.3803
30.1987 6354 79.712
30.3162 6381 79.8812
30.4337 6408 80.05
30.5512 6660 81.6088
30.6687 6749 82.1523
30.7862 6918 83.1745
30.9037 7050 83.9643
31.0212 6936 83.2827
31.1387 6874 82.9096
31.2562 6806 82.4985
31.3737 6755 82.1888
31.4912 6643 81.5046
31.6087 6626 81.4002
31.7262 6643 81.5046
31.8436 6556 80.9691
31.9611 6647 81.5291
32.0785 6439 80.2434
32.1959 6322 79.511
32.3134 6174 78.5748
32.4308 6058 77.8332
32.5482 5975 77.2981
32.6655 5953 77.1557
32.7829 5795 76.1249
32.9002 6072 77.923
33.0176 6024 77.6144
33.1349 5966 77.2399
33.2522 6389 79.9312
33.3694 6325 79.5299
33.4867 6265 79.1518
33.6039 6416 80.0999
33.7211 6304 79.3977
33.8383 6381 79.8812
33.9554 6441 80.2558
34.0725 6643 81.5046
34.1896 6571 81.0617
34.3067 6814 82.547
34.4237 6861 82.8312
34.5407 7014 83.7496
34.6577 7067 84.0655
34.7746 7056 84
34.8915 6861 82.8312
35.0084 6723 81.9939
35.1252 6543 80.8888
35.242 6663 81.6272
35.3587 6567 81.037
35.4755 6725 82.0061
35.5921 6692 81.8046
35.7088 6424 80.1499
35.8254 6241 79
35.9419 5974 77.2917
36.0584 5730 75.6968
36.1749 5458 73.8783
36.2913 5158 71.8192
36.4077 5096 71.3863
36.524 4891 69.9357
36.6403 4774 69.0941
36.7565 4585 67.7126
36.8727 4524 67.2607
36.9889 4458 66.7683
37.1049 4329 65.7951
37.221 0 1
37.3369 0 1
37.4529 0 1
37.5687 0 1
37.6845 0 1
37.8003 0 1
37.916 0 1
38.0316 0 1
38.1472 0 1
40.5851 0 1
40.7008 0 1
40.8164 0 1
40.9322 0 1
41.048 0 1
41.1639 0 1
41.2798 0 1
41.3958 0 1
41.5118 0 1
41.6279 0 1
41.744 2910 53.9444
41.8602 3222 56.7627
41.9765 3616 60.1332
42.0928 3833 61.9112
42.2091 4375 66.1438
42.3255 4853 69.6635
42.4419 5074 71.232
42.5584 5443 73.7767
42.675 5634 75.06
42.7915 5751 75.8353
42.9081 5716 75.6042
43.0248 6099 78.0961
43.1415 6294 79.3347
43.2582 6596 81.2158
43.375 6765 82.2496
43.4918 6960 83.4266
43.6087 6833 82.662
43.7256 6792 82.4136
43.8425 6759 82.2131
43.9595 6569 81.0494
44.0765 6602 81.2527
44.1935 6667 81.6517
44.3106 6661 81.6149
44.4277 6701 81.8596
44.5448 6505 80.6536
44.6619 6352 79.6994
44.7791 5995 77.4274
44.8963 5695 75.4652
45.0136 5420 73.6206
45.1308 5150 71.7635
45.2481 5123 71.5751
45.3654 5270 72.5948
45.4827 5218 72.2357
45.6001 5526 74.3371
45.7174 5826 76.3282
45.8348 6233 78.9494
45.9522 6396 79.975
46.0697 6629 81.4187
46.1871 6674 81.6946
46.3046 6755 82.1888
46.422 6659 81.6027
46.5395 6750 82.1584
46.657 6911 83.1324
46.7745 7207 84.8941
46.892 7334 85.6388
47.0096 7268 85.2526
47.1271 7400 86.0233
47.2446 7462 86.3829
47.3622 7571 87.0115
47.4797 7394 85.9884
47.5973 7062 84.0357
47.7149 7057 84.006
47.8324 7222 84.9824
47.95 7266 85.2408
48.0675 6973 83.5045
48.1851 6914 83.1505
48.3027 6361 79.7559
48.4202 5988 77.3822
48.5378 5583 74.7195
48.6554 5137 71.6729
48.7729 5226 72.2911
48.8904 5052 71.0774
49.008 5372 73.2939
49.1255 5406 73.5255
49.243 6019 77.5822
49.3605 6462 80.3866
49.478 6826 82.6196
49.5955 6915 83.1565
49.713 6923 83.2046
49.8304 6922 83.1986
49.9479 6945 83.3367
50.0653 7126 84.4156
50.1827 7189 84.788
50.3001 7372 85.8604
50.4175 7500 86.6025
50.5348 7688 87.6812
50.6521 7922 89.0056
50.7694 7790 88.261
50.8867 7675 87.6071
51.004 7674 87.6014
51.1212 7468 86.4176
51.2384 7477 86.4696
51.3556 7558 86.9368
51.4727 7444 86.2786
51.5899 7363 85.8079
51.707 7186 84.7703
51.824 6712 81.9268
51.9411 6151 78.4283
52.0581 5574 74.6592
52.175 5312 72.8835
52.2919 5173 71.9236
52.4088 5238 72.374
52.5257 5259 72.519
52.6425 5615 74.9333
52.7593 5910 76.8765
52.876 6339 79.6178
52.9927 6704 81.878
53.1094 6589 81.1727
53.226 6705 81.8841
53.3426 6514 80.7094
53.4591 6273 79.2023
53.5756 5957 77.1816
53.692 6075 77.9423
53.8084 5871 76.6225
53.9248 5658 75.2197
54.0411 5448 73.8106
54.1573 5259 72.519
54.2735 0 1
54.3896 0 1
54.5057 0 1
54.6217 0 1
54.7377 0 1
54.8537 0 1
54.9695 0 1
55.0853 0 1
55.2011 0 1
55.3168 0 1
55.4324 0 1
57.824 0 1
57.9396 0 1
58.0553 0 1
58.1711 0 1
58.2869 0 1
58.4028 0 1
58.5187 0 1
58.6347 0 1
58.7508 0 1
58.8669 0 1
58.983 6297 79.3536
59.0992 7092 84.214
59.2155 7616 87.2697
59.3318 8167 90.3715
59.4482 8430 91.815
59.5646 8729 93.4291
59.681 9019 94.9684
59.7975 9156 95.687
59.9141 9253 96.1925
60.0306 9590 97.9285
60.1473 9612 98.0408
60.2639 9747 98.7269
60.3807 9410 97.0052
60.4974 8737 93.4719
60.6142 8345 91.351
60.731 7297 85.4225
60.8479 6695 81.823
60.9648 6381 79.8812
61.0818 6331 79.5676
61.1987 6463 80.3928
61.3158 7166 84.6522
61.4328 7953 89.1796
61.5499 8959 94.652
61.667 9710 98.5393
61.7841 10248 101.232
61.9013 9960 99.7998
62.0185 10040 100.2
62.1357 10362 101.794
62.253 10132 100.658
62.3702 10513 102.533
62.4875 10746 103.663
62.6049 10889 104.35
62.7222 11130 105.499
62.8396 11232 105.981
62.9569 11178 105.726
63.0743 11249 106.061
63.1918 11079 105.257
63.3092 10901 104.408
63.4267 11068 105.205
63.5441 10863 104.226
63.6616 10936 104.575
63.7791 10451 102.23
63.8966 10155 100.772
64.0142 9342 96.654
64.1317 8537 92.3959
64.2492 7552 86.9022
64.3668 6785 82.3711
64.4843 6289 79.3032
64.6019 6245 79.0253
64.7195 6409 80.0562
64.837 7011 83.7317
64.9546 8101 90.0056
65.0722 9273 96.2964
65.1898 10124 100.618
65.3074 10684 103.363
65.4249 10796 103.904
65.5425 10876 104.288
65.6601 10636 103.131
65.7777 10671 103.301
65.8952 10899 104.398
66.0128 11020 104.976
66.1304 11389 106.719
66.2479 11748 108.388
66.3655 11512 107.294
66.483 11781 108.54
66.6005 11815 108.697
66.718 11700 108.167
66.8355 11520 107.331
66.953 11350 106.536
67.0705 11402 106.78
67.1879 11435 106.935
67.3054 11490 107.191
67.4228 11036 105.052
67.5402 10449 102.22
67.6576 9461 97.2677
67.7749 8690 93.2202
67.8923 7362 85.8021
68.0096 6621 81.3695
68.1269 6275 79.2149
68.2442 6271 79.1896
68.3614 6351 79.6932
68.4787 7102 84.2734
68.5958 8410 91.7061
68.713 9630 98.1326
68.8302 10646 103.179
68.9473 11438 106.949
69.0643 11358 106.574
69.1814 11254 106.085
69.2984 10824 104.038
69.4154 10660 103.247
69.5323 10832 104.077
69.6492 10880 104.307
69.7661 10673 103.31
69.8829 10932 104.556
69.9997 10857 104.197
70.1165 10940 104.594
70.2332 10460 102.274
70.3499 10334 101.656
70.4665 9781 98.8989
70.5831 9306 96.4676
70.6996 9157 95.6922
70.8161 8857 94.1116
70.9326 8651 93.0108
71.049 8013 89.5154
71.1653 7229 85.0235
71.2817 6553 80.9506
71.3979 5745 75.7958
71.5141 4793 69.2315
71.6303 3668 60.564
71.7464 2507 50.07
71.8624 0 1
71.9784 0 1
72.0944 0 1
72.2102 0 1
72.3261 0 1
72.4418 0 1
72.5575 0 1
72.6732 0 1
75.1054 0 1
75.2209 0 1
75.3365 0 1
75.4521 0 1
75.5678 0 1
75.6835 0 1
75.7993 0 1
75.9151 0 1
76.031 0 1
76.147 8483 92.1032
76.263 9175 95.7862
76.3791 9068 95.226
76.4952 8630 92.8978
76.6113 7954 89.1852
76.7276 7323 85.5745
76.8438 6741 82.1036
76.9601 6177 78.5939
77.0765 5684 75.3923
77.1929 5747 75.809
77.3093 5937 77.0519
77.4258 6609 81.2958
77.5423 8221 90.6697
77.6589 9758 98.7826
77.7755 11164 105.66
77.8921 11965 109.385
78.0088 12078 109.9
78.1256 12041 109.731
78.2423 12034 109.7
78.3591 11724 108.277
78.4759 11991 109.503
78.5928 12285 110.838
78.7097 12491 111.763
78.8266 12728 112.818
78.9436 13352 115.551
79.0606 13200 114.891
79.1776 13283 115.252
79.2946 13386 115.698
79.4117 13274 115.213
79.5288 13365 115.607
79.6459 13304 115.343
79.7631 13305 115.347
79.8802 13658 116.867
79.9974 13784 117.405
80.1147 12786 113.075
80.2319 11840 108.812
80.3491 10584 102.879
80.4664 9323 96.5557
80.5837 7975 89.3029
80.701 6790 82.4015
80.8183 6457 80.3555
80.9357 6519 80.7403
81.053 6757 82.201
81.1704 8405 91.6788
81.2877 10179 100.891
81.4051 12385 111.288
81.5225 13940 118.068
81.6399 14254 119.39
81.7573 14553 120.636
81.8747 13736 117.201
81.9922 13717 117.12
82.1096 13653 116.846
82.227 14062 118.583
82.3444 14203 119.176
82.4619 14994 122.45
82.5793 15139 123.041
82.6967 15360 123.935
82.8142 15398 124.089
82.9316 15412 124.145
83.049 15238 123.442
83.1664 15391 124.06
83.2838 15088 122.833
83.4012 14998 122.466
83.5186 15042 122.646
83.636 15166 123.15
83.7534 14167 119.025
83.8708 12951 113.802
83.9881 11817 108.706
84.1055 10291 101.445
84.2228 9389 96.8969
84.3401 7764 88.1136
84.4575 6960 83.4266
84.5747 6848 82.7526
84.692 7794 88.2836
84.8093 9764 98.813
84.9265 11886 109.023
85.0437 13804 117.49
85.1609 15354 123.911
85.2781 16065 126.748
85.3952 15786 125.642
85.5123 15497 124.487
85.6294 15414 124.153
85.7465 15515 124.559
85.8636 15918 126.167
85.9806 16530 128.569
86.0976 16911 130.042
86.2145 16691 129.194
86.3315 17439 132.057
86.4484 17108 130.798
86.5652 16979 130.303
86.682 16504 128.468
86.7988 15817 125.766
86.9156 15494 124.475
87.0323 15626 125.004
87.149 15517 124.567
87.2657 15102 122.89
87.3823 14042 118.499
87.4988 12735 112.849
87.6154 11210 105.877
87.7318 9624 98.102
87.8483 7920 88.9944
87.9647 6469 80.4301
88.081 5589 74.7596
88.1973 5688 75.4188
88.3136 6021 77.5951
88.4298 7506 86.6372
88.546 8983 94.7787
88.6621 10393 101.946
88.7781 10969 104.733
88.8942 0 1
89.0101 0 1
89.126 0 1
89.2419 0 1
89.3577 0 1
89.4734 0 1
89.5891 0 1
89.7047 0 1
89.8203 0 1
89.9358 0 1
92.3269 0 1
92.4424 0 1
92.558 0 1
92.6736 0 1
92.7893 0 1
92.905 0 1
93.0208 0 1
93.1366 0 1
93.2525 0 1
93.3685 0 1
93.4845 0 1
93.6005 7321 85.5628
93.7167 8277 90.978
93.8328 10573 102.825
93.949 12976 113.912
94.0653 15217 123.357
94.1816 16306 127.695
94.2979 17355 131.738
94.4143 17488 132.242
94.5307 17774 133.319
94.6472 18148 134.715
94.7637 18650 136.565
94.8803 19003 137.851
94.9969 19530 139.75
95.1135 19820 140.784
95.2302 20274 142.387
95.3469 20378 142.752
95.4637 20463 143.049
95.5805 20766 144.104
95.6973 20387 142.783
95.8142 20213 142.172
95.9311 19797 140.702
96.048 20017 141.481
96.1649 19853 140.901
96.2819 19806 140.734
96.3989 18801 137.117
96.516 17019 130.457
96.633 15635 125.04
96.7501 13833 117.614
96.8673 12421 111.45
96.9844 10950 104.642
97.1016 9637 98.1682
97.2188 9121 95.5039
97.336 9825 99.1211
97.4532 11276 106.189
97.5704 13830 117.601
97.6877 15903 126.107
97.805 18529 136.121
97.9223 19347 139.093
98.0396 20027 141.517
98.1569 20044 141.577
98.2743 19492 139.614
98.3916 19787 140.666
98.509 20224 142.211
98.6264 20425 142.916
98.7438 21005 144.931
98.8612 21532 146.738
98.9786 21347 146.106
99.096 21632 147.078
99.2134 21908 148.014
99.3308 21523 146.707
99.4482 21511 146.666
99.5656 21357 146.14
99.6831 21102 145.265
99.8005 21700 147.309
99.9179 21081 145.193
100.035 19877 140.986
100.153 17877 133.705
100.27 15537 124.648
100.388 14253 119.386
100.505 12434 111.508
100.622 10949 104.637
100.74 10090 100.449
100.857 10080 100.399
100.975 11330 106.442
101.092 13504 116.207
101.209 16161 127.126
101.327 19053 138.033
101.444 20735 143.997
101.561 20967 144.8
101.679 21055 145.103
101.796 20232 142.239
101.913 20161 141.989
102.03 20448 142.997
102.148 21043 145.062
102.265 21758 147.506
102.382 21424 146.369
102.499 21739 147.442
102.616 22000 148.324
102.733 22160 148.862
102.851 22099 148.657
102.968 22422 149.74
103.085 21790 147.614
103.202 21870 147.885
103.319 21992 148.297
103.436 21651 147.143
103.552 20846 144.381
103.669 18869 137.364
103.786 17196 131.134
103.903 15403 124.109
104.02 13513 116.245
104.137 11842 108.821
104.253 11054 105.138
104.37 10249 101.237
104.487 10528 102.606
104.603 11686 108.102
104.72 13400 115.758
104.836 14874 121.959
104.953 16388 128.016
105.069 16802 129.623
105.186 16861 129.85
105.302 16260 127.515
105.418 15492 124.467
105.535 14887 122.012
105.651 13969 118.191
105.767 13317 115.399
105.883 12397 111.342
105.999 11688 108.111
106.115 0 1
106.231 0 1
106.347 0 1
106.463 0 1
106.579 0 1
106.694 0 1
106.81 0 1
106.926 0 1
107.041 0 1
107.157 0 1
109.576 0 1
109.692 0 1
109.807 0 1
109.923 0 1
110.039 0 1
110.155 0 1
110.27 0 1
110.386 0 1
110.502 0 1
110.618 11660 107.981
110.735 13170 114.761
110.851 14489 120.37
110.967 15649 125.096
111.083 16451 128.261
111.199 17306 131.552
111.316 18243 135.067
111.432 18455 135.849
111.549 19065 138.076
111.665 19282 138.86
111.782 19019 137.909
111.898 19274 138.831
112.015 19527 139.739
112.132 19727 140.453
112.248 18794 137.091
112.365 17090 130.729
112.482 15441 124.262
112.599 13580 116.533
112.716 11832 108.775
112.832 10563 102.776
112.949 9842 99.2069
113.066 9718 98.5799
113.183 10109 100.544
113.3 11475 107.121
113.417 13779 117.384
113.534 16153 127.094
113.652 17770 133.304
113.769 18593 136.356
113.886 18234 135.033
114.003 18036 134.298
114.12 17693 133.015
114.238 17732 133.162
114.355 18231 135.022
114.472 18756 136.953
114.589 18626 136.477
114.707 18913 137.525
114.824 19331 139.036
114.942 19300 138.924
115.059 19247 138.734
115.176 19063 138.069
115.294 18933 137.597
115.411 18564 136.25
115.529 18510 136.051
115.646 18695 136.73
115.764 18607 136.407
115.881 17282 131.461
115.999 15642 125.068
116.116 13985 118.258
116.234 12428 111.481
116.351 11134 105.518
116.469 9918 99.5892
116.586 9551 97.7292
116.704 9736 98.6712
116.821 10343 101.701
116.939 11572 107.573
117.056 14042 118.499
117.174 15664 125.156
117.291 16566 128.709
117.409 16747 129.41
117.526 16719 129.302
117.644 16186 127.224
117.761 16328 127.781
117.879 16590 128.802
117.996 16762 129.468
118.114 17537 132.427
118.231 17373 131.807
118.349 17718 133.109
118.466 17980 134.09
118.584 17778 133.334
118.701 17698 133.034
118.819 17405 131.928
118.936 17044 130.553
119.053 17067 130.641
119.171 16889 129.958
119.288 17103 130.778
119.405 17030 130.499
119.523 15867 125.964
119.64 14317 119.654
119.757 13158 114.708
119.875 11820 108.72
119.992 10568 102.801
120.109 9734 98.661
120.226 9335 96.6178
120.343 9261 96.2341
120.46 9509 97.5141
120.578 10521 102.572
120.695 11809 108.669
120.812 13397 115.745
120.929 14074 118.634
121.046 14296 119.566
121.163 13831 117.605
121.279 13793 117.444
121.396 13232 115.03
121.513 13215 114.957
121.63 13357 115.572
121.747 13410 115.802
121.863 13436 115.914
121.98 13332 115.464
122.097 13313 115.382
122.213 12969 113.882
122.33 12814 113.199
122.446 12292 110.869
122.563 11544 107.443
122.679 11038 105.062
122.795 10515 102.543
122.912 10336 101.666
123.028 9793 98.9596
123.144 8961 94.6626
123.26 8200 90.5539
123.377 0 1
123.493 0 1
123.609 0 1
123.725 0 1
123.84 0 1
123.956 0 1
124.072 0 1
124.188 0 1
124.303 0 1
124.419 0 1
126.852 0 1
126.968 0 1
127.083 0 1
127.199 0 1
127.315 0 1
127.431 0 1
127.547 0 1
127.663 0 1
127.779 0 1
127.895 0 1
128.011 0 1
128.127 0 1
128.243 0 1
128.359 15736 125.443
128.476 16025 126.59
128.592 16036 126.633
128.708 15289 123.649
128.825 14359 119.829
128.941 13509 116.228
129.058 12507 111.835
129.174 11714 108.231
129.291 11247 106.052
129.408 11143 105.56
129.524 11116 105.432
129.641 11644 107.907
129.758 12714 112.756
129.875 13986 118.262
129.992 14968 122.344
130.108 15474 124.395
130.225 15164 123.142
130.342 15282 123.62
130.459 15101 122.886
130.576 15827 125.805
130.693 16366 127.93
130.81 16651 129.039
130.928 16834 129.746
131.045 16761 129.464
131.162 17206 131.172
131.279 17415 131.966
131.396 17253 131.351
131.513 17308 131.56
131.631 16913 130.05
131.748 16670 129.112
131.865 16994 130.361
131.983 16909 130.035
132.1 16515 128.511
132.217 16155 127.102
132.335 15049 122.674
132.452 14091 118.706
132.57 13206 114.917
132.687 12138 110.173
132.804 11958 109.353
132.922 11643 107.903
133.039 11601 107.708
133.157 11609 107.745
133.274 12133 110.15
133.392 13080 114.368
133.509 14207 119.193
133.627 14815 121.717
133.744 14995 122.454
133.862 15109 122.919
133.979 15089 122.837
134.097 14930 122.188
134.214 15765 125.559
134.332 16180 127.201
134.449 16411 128.105
134.567 16717 129.294
134.684 16771 129.503
134.802 16704 129.244
134.919 16861 129.85
135.037 16387 128.012
135.154 16335 127.808
135.272 16078 126.799
135.389 16250 127.475
135.507 16256 127.499
135.624 16286 127.617
135.742 15955 126.313
135.859 15426 124.201
135.977 14516 120.482
136.094 13914 117.958
136.211 13161 114.721
136.329 12385 111.288
136.446 12138 110.173
136.564 11857 108.89
136.681 11995 109.522
136.798 11953 109.33
136.915 12350 111.131
137.033 12939 113.75
137.15 13560 116.447
137.267 14043 118.503
137.384 14023 118.419
137.502 14186 119.105
137.619 14175 119.059
137.736 14285 119.52
137.853 14148 118.945
137.97 15249 123.487
138.087 15054 122.695
138.204 15579 124.816
138.321 15228 123.402
138.438 15141 123.049
138.555 15056 122.703
138.672 14549 120.619
138.788 14502 120.424
138.905 13465 116.039
139.022 13045 114.215
139.139 12915 113.644
139.255 12636 112.41
139.372 12061 109.823
139.488 11378 106.668
139.605 10623 103.068
139.721 9630 98.1326
139.838 8612 92.8009
139.954 8019 89.5489
140.071 7406 86.0581
140.187 6938 83.2947
140.303 6287 79.2906
140.419 5883 76.7007
140.535 5724 75.6571
140.652 5536 74.4043
140.768 0 1
140.884 0 1
141 0 1
141.115 0 1
141.231 0 1
141.347 0 1
141.463 0 1
141.578 0 1
141.694 0 1
144.104 0 1
144.219 0 1
144.335 0 1
144.45 0 1
144.566 0 1
144.682 0 1
144.798 0 1
144.914 0 1
145.03 0 1
145.146 8644 92.9731
145.262 9056 95.163
145.378 8956 94.6361
145.494 9068 95.226
145.61 9263 96.2445
145.726 9268 96.2705
145.842 9628 98.1224
145.959 9837 99.1817
146.075 9953 99.7647
146.192 10161 100.802
146.308 9865 99.3227
146.425 9936 99.6795
146.541 9961 99.8048
146.658 10382 101.892
146.774 10737 103.619
146.891 10937 104.58
147.008 11357 106.569
147.125 11092 105.319
147.241 11291 106.259
147.358 11528 107.369
147.475 11345 106.513
147.592 11242 106.028
147.709 11036 105.052
147.826 10878 104.298
147.943 11079 105.257
148.06 11113 105.418
148.177 10929 104.542
148.294 10642 103.16
148.411 10748 103.673
148.528 10316 101.568
148.645 10106 100.529
148.762 10098 100.489
148.88 9739 98.6864
148.997 10092 100.459
149.114 9655 98.2599
149.231 9406 96.9845
149.349 9618 98.0714
149.466 9470 97.3139
149.583 9570 97.8264
149.701 9832 99.1564
149.818 9833 99.1615
149.935 9827 99.1312
150.053 9639 98.1784
150.17 9646 98.2141
150.287 9669 98.3311
150.405 10262 101.302
150.522 10376 101.863
150.64 10650 103.199
150.757 10844 104.135
150.875 11074 105.233
150.992 11189 105.778
151.11 11160 105.641
151.227 10885 104.331
151.344 10806 103.952
151.462 10758 103.721
151.579 10392 101.941
151.697 10482 102.382
151.814 10606 102.985
151.932 10368 101.823
152.049 10126 100.628
152.167 10077 100.384
152.284 9864 99.3177
152.402 9687 98.4226
152.519 9649 98.2293
152.636 9483 97.3807
152.754 9394 96.9226
152.871 9145 95.6295
152.989 9116 95.4777
153.106 9121 95.5039
153.223 9143 95.619
153.341 9199 95.9114
153.458 9229 96.0677
153.575 9132 95.5615
153.693 8954 94.6256
153.81 8936 94.5304
153.927 9201 95.9218
154.044 9398 96.9433
154.162 9583 97.8928
154.279 9902 99.5088
154.396 10187 100.931
154.513 10363 101.799
154.63 10357 101.769
154.747 10063 100.315
154.864 9969 99.8449
154.981 9534 97.6422
155.098 9569 97.8213
155.215 9415 97.0309
155.332 9732 98.6509
155.449 9404 96.9742
155.566 9262 96.2393
155.683 9022 94.9842
155.8 8903 94.3557
155.917 8470 92.0326
156.033 8490 92.1412
156.15 0 1
156.267 0 1
156.383 0 1
156.5 0 1
156.617 0 1
156.733 0 1
156.85 0 1
156.966 0 1
157.082 0 1
157.199 0 1
157.315 0 1
157.431 0 1
157.547 0 1
157.664 0 1
157.78 0 1
157.896 0 1
158.012 0 1
158.128 0 1
158.244 0 1
158.359 0 1
158.475 0 1
158.591 0 1
158.706 0 1
