
6.15755 0 1
6.2731 0 1
6.3887 0 1
6.50437 0 1
6.62009 0 1
6.73587 0 1
6.8517 0 1
6.96759 0 1
7.08353 0 1
7.19952 0 1
7.31557 0 1
7.43166 0 1
7.54781 0 1
7.664 0 1
7.78024 0 1
7.89653 0 1
8.01286 0 1
8.12924 0 1
8.24567 0 1
8.36213 0 1
8.47864 0 1
8.59519 0 1
8.71178 0 1
8.82841 0 1
8.94508 0 1
9.06179 0 1
9.17853 0 1
9.29531 0 1
9.41212 0 1
9.52897 0 1
9.64584 0 1
9.76276 0 1
9.8797 0 1
9.99667 0 1
10.1137 0 1
10.2307 0 1
10.3478 0 1
10.4648 0 1
10.5819 0 1
10.6991 0 1
10.8162 0 1
10.9334 0 1
11.0506 0 1
11.1678 0 1
11.285 0 1
11.4023 0 1
11.5196 0 1
11.6369 0 1
11.7542 0 1
11.8715 0 1
11.9888 0 1
12.1062 0 1
12.2235 0 1
12.3409 0 1
12.4582 0 1
12.5756 0 1
12.693 0 1
12.8104 0 1
12.9278 0 1
13.0452 0 1
13.1626 0 1
13.28 0 1
13.3974 0 1
13.5149 0 1
13.6323 0 1
13.7497 0 1
13.8671 0 1
13.9845 0 1
14.1019 0 1
14.2193 0 1
14.3367 0 1
14.4541 0 1
14.5714 0 1
14.6888 0 1
14.8062 0 1
14.9235 0 1
15.0408 914 30.2324
15.1581 948 30.7896
15.2755 944 30.7246
15.3927 950 30.8221
15.51 918 30.2985
15.6273 846 29.0861
15.7445 791 28.1247
15.8617 788 28.0713
15.9789 812 28.4956
16.0961 809 28.4429
16.2132 840 28.9828
16.3304 854 29.2233
16.4475 806 28.3901
16.5646 830 28.8097
16.6816 732 27.0555
16.7986 740 27.2029
16.9156 770 27.7489
17.0326 749 27.3679
17.1496 775 27.8388
17.2665 692 26.3059
17.3833 757 27.5136
17.5002 696 26.3818
17.617 753 27.4408
17.7338 735 27.1109
17.8505 746 27.313
17.9672 789 28.0891
18.0839 739 27.1846
18.2005 718 26.7955
18.3171 771 27.7669
18.4337 721 26.8514
18.5502 705 26.5518
18.6666 730 27.0185
18.7831 745 27.2947
18.8994 746 27.313
19.0158 660 25.6905
19.1321 676 26
19.2483 608 24.6577
19.3645 566 23.7908
19.4806 590 24.2899
19.5967 592 24.3311
19.7128 581 24.1039
19.8288 609 24.6779
19.9447 563 23.7276
20.0606 0 1
20.1764 0 1
20.2922 0 1
20.4079 0 1
20.5236 0 1
20.6392 0 1
20.7548 0 1
20.8702 0 1
23.3078 0 1
23.4233 0 1
23.539 0 1
23.6547 0 1
23.7704 0 1
23.8862 0 1
24.0021 0 1
24.118 0 1
24.234 0 1
24.35 0 1
24.4661 287 16.9411
24.5822 322 17.9444
24.6984 466 21.587
24.8146 499 22.3383
24.9309 547 23.388
25.0472 567 23.8118
25.1636 657 25.632
25.28 688 26.2298
25.3965 755 27.4773
25.513 812 28.4956
25.6296 848 29.1204
25.7462 787 28.0535
25.8628 841 29
25.9795 829 28.7924
26.0962 842 29.0172
26.213 770 27.7489
26.3298 768 27.7128
26.4466 778 27.8927
26.5635 653 25.5539
26.6804 643 25.3574
26.7973 682 26.1151
26.9143 622 24.9399
27.0313 633 25.1595
27.1483 707 26.5895
27.2653 691 26.2869
27.3824 759 27.55
27.4996 759 27.55
27.6167 726 26.9444
27.7339 701 26.4764
27.8511 653 25.5539
27.9683 581 24.1039
28.0855 662 25.7294
28.2028 670 25.8844
28.3201 696 26.3818
28.4374 753 27.4408
28.5547 752 27.4226
28.6721 732 27.0555
28.7894 695 26.3629
28.9068 701 26.4764
29.0242 716 26.7582
29.1416 680 26.0768
29.259 747 27.3313
29.3764 768 27.7128
29.4939 703 26.5141
29.6113 703 26.5141
29.7288 664 25.7682
29.8463 676 26
29.9638 663 25.7488
30.0812 624 24.98
30.1987 623 24.96
30.3162 621 24.9199
30.4337 653 25.5539
30.5512 718 26.7955
30.6687 675 25.9808
30.7862 696 26.3818
30.9037 742 27.2397
31.0212 758 27.5318
31.1387 769 27.7308
31.2562 689 26.2488
31.3737 680 26.0768
31.4912 624 24.98
31.6087 668 25.8457
31.7262 703 26.5141
31.8436 693 26.3249
31.9611 751 27.4044
32.0785 687 26.2107
32.1959 715 26.7395
32.3134 690 26.2679
32.4308 650 25.4951
32.5482 696 26.3818
32.6655 679 26.0576
32.7829 606 24.6171
32.9002 645 25.3969
33.0176 687 26.2107
33.1349 629 25.0799
33.2522 598 24.454
33.3694 617 24.8395
33.4867 596 24.4131
33.6039 635 25.1992
33.7211 596 24.4131
33.8383 618 24.8596
33.9554 627 25.04
34.0725 595 24.3926
34.1896 634 25.1794
34.3067 670 25.8844
34.4237 651 25.5147
34.5407 676 26
34.6577 691 26.2869
34.7746 670 25.8844
34.8915 640 25.2982
35.0084 591 24.3105
35.1252 525 22.9129
35.242 563 23.7276
35.3587 591 24.3105
35.4755 720 26.8328
35.5921 626 25.02
35.7088 609 24.6779
35.8254 636 25.219
35.9419 601 24.5153
36.0584 648 25.4558
36.1749 597 24.4336
36.2913 559 23.6432
36.4077 596 24.4131
36.524 517 22.7376
36.6403 546 23.3666
36.7565 535 23.1301
36.8727 494 22.2261
36.9889 441 21
37.1049 412 20.2978
37.221 0 1
37.3369 0 1
37.4529 0 1
37.5687 0 1
37.6845 0 1
37.8003 0 1
37.916 0 1
38.0316 0 1
38.1472 0 1
40.5851 0 1
40.7008 0 1
40.8164 0 1
40.9322 0 1
41.048 0 1
41.1639 0 1
41.2798 0 1
41.3958 0 1
41.5118 0 1
41.6279 0 1
41.744 288 16.9706
41.8602 318 17.8326
41.9765 410 20.2485
42.0928 424 20.5913
42.2091 446 21.1187
42.3255 475 21.7945
42.4419 511 22.6053
42.5584 477 21.8403
42.675 513 22.6495
42.7915 516 22.7156
42.9081 506 22.4944
43.0248 495 22.2486
43.1415 530 23.0217
43.2582 499 22.3383
43.375 519 22.7816
43.4918 473 21.7486
43.6087 527 22.9565
43.7256 513 22.6495
43.8425 522 22.8473
43.9595 487 22.0681
44.0765 415 20.3715
44.1935 482 21.9545
44.3106 502 22.4054
44.4277 513 22.6495
44.5448 511 22.6053
44.6619 525 22.9129
44.7791 526 22.9347
44.8963 510 22.5832
45.0136 521 22.8254
45.1308 536 23.1517
45.2481 514 22.6716
45.3654 532 23.0651
45.4827 532 23.0651
45.6001 512 22.6274
45.7174 532 23.0651
45.8348 520 22.8035
45.9522 549 23.4307
46.0697 509 22.561
46.1871 476 21.8174
46.3046 478 21.8632
46.422 479 21.8861
46.5395 483 21.9773
46.657 456 21.3542
46.7745 448 21.166
46.892 472 21.7256
47.0096 489 22.1133
47.1271 486 22.0454
47.2446 489 22.1133
47.3622 493 22.2036
47.4797 510 22.5832
47.5973 432 20.7846
47.7149 462 21.4942
47.8324 474 21.7715
47.95 468 21.6333
48.0675 506 22.4944
48.1851 499 22.3383
48.3027 498 22.3159
48.4202 489 22.1133
48.5378 502 22.4054
48.6554 519 22.7816
48.7729 500 22.3607
48.8904 536 23.1517
49.008 488 22.0907
49.1255 523 22.8692
49.243 503 22.4277
49.3605 504 22.4499
49.478 453 21.2838
49.5955 465 21.5639
49.713 421 20.5183
49.8304 424 20.5913
49.9479 421 20.5183
50.0653 420 20.4939
50.1827 403 20.0749
50.3001 402 20.0499
50.4175 448 21.166
50.5348 419 20.4695
50.6521 455 21.3307
50.7694 440 20.9762
50.8867 496 22.2711
51.004 459 21.4243
51.1212 439 20.9523
51.2384 416 20.3961
51.3556 435 20.8567
51.4727 457 21.3776
51.5899 436 20.8806
51.707 473 21.7486
51.824 472 21.7256
51.9411 511 22.6053
52.0581 493 22.2036
52.175 463 21.5174
52.2919 478 21.8632
52.4088 450 21.2132
52.5257 480 21.9089
52.6425 493 22.2036
52.7593 481 21.9317
52.876 452 21.2603
52.9927 453 21.2838
53.1094 444 21.0713
53.226 448 21.166
53.3426 442 21.0238
53.4591 401 20.025
53.5756 372 19.2873
53.692 382 19.5448
53.8084 367 19.1572
53.9248 356 18.868
54.0411 343 18.5203
54.1573 314 17.72
54.2735 0 1
54.3896 0 1
54.5057 0 1
54.6217 0 1
54.7377 0 1
54.8537 0 1
54.9695 0 1
55.0853 0 1
55.2011 0 1
55.3168 0 1
55.4324 0 1
57.824 0 1
57.9396 0 1
58.0553 0 1
58.1711 0 1
58.2869 0 1
58.4028 0 1
58.5187 0 1
58.6347 0 1
58.7508 0 1
58.8669 0 1
58.983 591 24.3105
59.0992 889 29.8161
59.2155 1056 32.4962
59.3318 1307 36.1525
59.4482 1372 37.0405
59.5646 1367 36.973
59.681 1384 37.2022
59.7975 1540 39.2428
59.9141 1400 37.4166
60.0306 1525 39.0512
60.1473 1458 38.1838
60.2639 1471 38.3536
60.3807 1460 38.2099
60.4974 1411 37.5633
60.6142 1418 37.6563
60.731 1407 37.51
60.8479 1307 36.1525
60.9648 1293 35.9583
61.0818 1330 36.4692
61.1987 1234 35.1283
61.3158 1217 34.8855
61.4328 1165 34.1321
61.5499 1112 33.3467
61.667 1007 31.7333
61.7841 952 30.8545
61.9013 860 29.3258
62.0185 802 28.3196
62.1357 777 27.8747
62.253 756 27.4955
62.3702 691 26.2869
62.4875 742 27.2397
62.6049 739 27.1846
62.7222 750 27.3861
62.8396 734 27.0924
62.9569 734 27.0924
63.0743 732 27.0555
63.1918 649 25.4755
63.3092 652 25.5343
63.4267 613 24.7588
63.5441 568 23.8328
63.6616 568 23.8328
63.7791 567 23.8118
63.8966 597 24.4336
64.0142 535 23.1301
64.1317 571 23.8956
64.2492 574 23.9583
64.3668 551 23.4734
64.4843 549 23.4307
64.6019 531 23.0434
64.7195 515 22.6936
64.837 502 22.4054
64.9546 524 22.891
65.0722 540 23.2379
65.1898 551 23.4734
65.3074 541 23.2594
65.4249 506 22.4944
65.5425 531 23.0434
65.6601 505 22.4722
65.7777 517 22.7376
65.8952 484 22
66.0128 434 20.8327
66.1304 507 22.5167
66.2479 543 23.3024
66.3655 519 22.7816
66.483 559 23.6432
66.6005 532 23.0651
66.718 537 23.1733
66.8355 537 23.1733
66.953 497 22.2935
67.0705 512 22.6274
67.1879 504 22.4499
67.3054 475 21.7945
67.4228 506 22.4944
67.5402 543 23.3024
67.6576 522 22.8473
67.7749 542 23.2809
67.8923 571 23.8956
68.0096 487 22.0681
68.1269 491 22.1585
68.2442 523 22.8692
68.3614 516 22.7156
68.4787 526 22.9347
68.5958 494 22.2261
68.713 483 21.9773
68.8302 556 23.5797
68.9473 540 23.2379
69.0643 523 22.8692
69.1814 476 21.8174
69.2984 505 22.4722
69.4154 453 21.2838
69.5323 490 22.1359
69.6492 478 21.8632
69.7661 520 22.8035
69.8829 512 22.6274
69.9997 525 22.9129
70.1165 505 22.4722
70.2332 531 23.0434
70.3499 495 22.2486
70.4665 426 20.6398
70.5831 455 21.3307
70.6996 415 20.3715
70.8161 315 17.7482
70.9326 316 17.7764
71.049 283 16.8226
71.1653 297 17.2337
71.2817 280 16.7332
71.3979 288 16.9706
71.5141 238 15.4272
71.6303 217 14.7309
71.7464 188 13.7113
71.8624 0 1
71.9784 0 1
72.0944 0 1
72.2102 0 1
72.3261 0 1
72.4418 0 1
72.5575 0 1
72.6732 0 1
75.1054 0 1
75.2209 0 1
75.3365 0 1
75.4521 0 1
75.5678 0 1
75.6835 0 1
75.7993 0 1
75.9151 0 1
76.031 0 1
76.147 314 17.72
76.263 385 19.6214
76.3791 363 19.0526
76.4952 377 19.4165
76.6113 406 20.1494
76.7276 450 21.2132
76.8438 471 21.7025
76.9601 459 21.4243
77.0765 472 21.7256
77.1929 471 21.7025
77.3093 427 20.664
77.4258 476 21.8174
77.5423 458 21.4009
77.6589 484 22
77.7755 473 21.7486
77.8921 417 20.4206
78.0088 488 22.0907
78.1256 430 20.7364
78.2423 448 21.166
78.3591 397 19.9249
78.4759 390 19.7484
78.5928 377 19.4165
78.7097 417 20.4206
78.8266 406 20.1494
78.9436 440 20.9762
79.0606 421 20.5183
79.1776 476 21.8174
79.2946 484 22
79.4117 473 21.7486
79.5288 546 23.3666
79.6459 492 22.1811
79.7631 503 22.4277
79.8802 481 21.9317
79.9974 520 22.8035
80.1147 463 21.5174
80.2319 471 21.7025
80.3491 496 22.2711
80.4664 469 21.6564
80.5837 519 22.7816
80.701 503 22.4277
80.8183 505 22.4722
80.9357 531 23.0434
81.053 445 21.095
81.1704 497 22.2935
81.2877 489 22.1133
81.4051 505 22.4722
81.5225 515 22.6936
81.6399 467 21.6102
81.7573 489 22.1133
81.8747 426 20.6398
81.9922 432 20.7846
82.1096 450 21.2132
82.227 428 20.6882
82.3444 449 21.1896
82.4619 455 21.3307
82.5793 471 21.7025
82.6967 447 21.1424
82.8142 482 21.9545
82.9316 503 22.4277
83.049 493 22.2036
83.1664 476 21.8174
83.2838 515 22.6936
83.4012 466 21.587
83.5186 496 22.2711
83.636 488 22.0907
83.7534 548 23.4094
83.8708 534 23.1084
83.9881 533 23.0868
84.1055 575 23.9792
84.2228 538 23.1948
84.3401 518 22.7596
84.4575 508 22.5389
84.5747 489 22.1133
84.692 503 22.4277
84.8093 498 22.3159
84.9265 514 22.6716
85.0437 463 21.5174
85.1609 496 22.2711
85.2781 497 22.2935
85.3952 479 21.8861
85.5123 433 20.8087
85.6294 421 20.5183
85.7465 448 21.166
85.8636 458 21.4009
85.9806 466 21.587
86.0976 487 22.0681
86.2145 504 22.4499
86.3315 499 22.3383
86.4484 451 21.2368
86.5652 543 23.3024
86.682 540 23.2379
86.7988 533 23.0868
86.9156 510 22.5832
87.0323 486 22.0454
87.149 480 21.9089
87.2657 524 22.891
87.3823 482 21.9545
87.4988 482 21.9545
87.6154 461 21.4709
87.7318 411 20.2731
87.8483 426 20.6398
87.9647 421 20.5183
88.081 351 18.735
88.1973 336 18.3303
88.3136 349 18.6815
88.4298 294 17.1464
88.546 313 17.6918
88.6621 291 17.0587
88.7781 255 15.9687
88.8942 0 1
89.0101 0 1
89.126 0 1
89.2419 0 1
89.3577 0 1
89.4734 0 1
89.5891 0 1
89.7047 0 1
89.8203 0 1
89.9358 0 1
92.3269 0 1
92.4424 0 1
92.558 0 1
92.6736 0 1
92.7893 0 1
92.905 0 1
93.0208 0 1
93.1366 0 1
93.2525 0 1
93.3685 0 1
93.4845 0 1
93.6005 398 19.9499
93.7167 412 20.2978
93.8328 436 20.8806
93.949 482 21.9545
94.0653 473 21.7486
94.1816 496 22.2711
94.2979 518 22.7596
94.4143 490 22.1359
94.5307 496 22.2711
94.6472 455 21.3307
94.7637 436 20.8806
94.8803 445 21.095
94.9969 475 21.7945
95.1135 455 21.3307
95.2302 454 21.3073
95.3469 505 22.4722
95.4637 471 21.7025
95.5805 498 22.3159
95.6973 487 22.0681
95.8142 544 23.3238
95.9311 535 23.1301
96.048 518 22.7596
96.1649 518 22.7596
96.2819 511 22.6053
96.3989 526 22.9347
96.516 479 21.8861
96.633 515 22.6936
96.7501 531 23.0434
96.8673 548 23.4094
96.9844 534 23.1084
97.1016 554 23.5372
97.2188 586 24.2074
97.336 513 22.6495
97.4532 511 22.6053
97.5704 502 22.4054
97.6877 548 23.4094
97.805 537 23.1733
97.9223 506 22.4944
98.0396 515 22.6936
98.1569 548 23.4094
98.2743 516 22.7156
98.3916 527 22.9565
98.509 533 23.0868
98.6264 616 24.8193
98.7438 525 22.9129
98.8612 564 23.7487
98.9786 551 23.4734
99.096 598 24.454
99.2134 635 25.1992
99.3308 650 25.4951
99.4482 675 25.9808
99.5656 630 25.0998
99.6831 623 24.96
99.8005 654 25.5734
99.9179 645 25.3969
100.035 682 26.1151
100.153 646 25.4165
100.27 661 25.7099
100.388 647 25.4362
100.505 640 25.2982
100.622 623 24.96
100.74 595 24.3926
100.857 596 24.4131
100.975 582 24.1247
101.092 574 23.9583
101.209 546 23.3666
101.327 545 23.3452
101.444 504 22.4499
101.561 550 23.4521
101.679 544 23.3238
101.796 542 23.2809
101.913 568 23.8328
102.03 524 22.891
102.148 542 23.2809
102.265 523 22.8692
102.382 542 23.2809
102.499 518 22.7596
102.616 544 23.3238
102.733 593 24.3516
102.851 587 24.2281
102.968 554 23.5372
103.085 569 23.8537
103.202 583 24.1454
103.319 611 24.7184
103.436 552 23.4947
103.552 571 23.8956
103.669 537 23.1733
103.786 584 24.1661
103.903 590 24.2899
104.02 539 23.2164
104.137 577 24.0208
104.253 567 23.8118
104.37 501 22.383
104.487 529 23
104.603 516 22.7156
104.72 531 23.0434
104.836 496 22.2711
104.953 493 22.2036
105.069 470 21.6795
105.186 447 21.1424
105.302 455 21.3307
105.418 394 19.8494
105.535 369 19.2094
105.651 378 19.4422
105.767 344 18.5472
105.883 311 17.6352
105.999 292 17.088
106.115 0 1
106.231 0 1
106.347 0 1
106.463 0 1
106.579 0 1
106.694 0 1
106.81 0 1
106.926 0 1
107.041 0 1
107.157 0 1
109.576 0 1
109.692 0 1
109.807 0 1
109.923 0 1
110.039 0 1
110.155 0 1
110.27 0 1
110.386 0 1
110.502 0 1
110.618 258 16.0624
110.735 356 18.868
110.851 354 18.8149
110.967 365 19.105
111.083 432 20.7846
111.199 443 21.0476
111.316 514 22.6716
111.432 532 23.0651
111.549 554 23.5372
111.665 511 22.6053
111.782 501 22.383
111.898 559 23.6432
112.015 485 22.0227
112.132 481 21.9317
112.248 502 22.4054
112.365 507 22.5167
112.482 518 22.7596
112.599 521 22.8254
112.716 488 22.0907
112.832 491 22.1585
112.949 507 22.5167
113.066 464 21.5407
113.183 465 21.5639
113.3 449 21.1896
113.417 458 21.4009
113.534 439 20.9523
113.652 415 20.3715
113.769 405 20.1246
113.886 430 20.7364
114.003 449 21.1896
114.12 452 21.2603
114.238 482 21.9545
114.355 449 21.1896
114.472 472 21.7256
114.589 440 20.9762
114.707 428 20.6882
114.824 450 21.2132
114.942 485 22.0227
115.059 505 22.4722
115.176 470 21.6795
115.294 472 21.7256
115.411 472 21.7256
115.529 441 21
115.646 492 22.1811
115.764 498 22.3159
115.881 443 21.0476
115.999 451 21.2368
116.116 435 20.8567
116.234 444 21.0713
116.351 461 21.4709
116.469 473 21.7486
116.586 442 21.0238
116.704 415 20.3715
116.821 459 21.4243
116.939 454 21.3073
117.056 395 19.8746
117.174 403 20.0749
117.291 389 19.7231
117.409 388 19.6977
117.526 398 19.9499
117.644 399 19.975
117.761 405 20.1246
117.879 432 20.7846
117.996 478 21.8632
118.114 429 20.7123
118.231 449 21.1896
118.349 422 20.5426
118.466 439 20.9523
118.584 455 21.3307
118.701 431 20.7605
118.819 462 21.4942
118.936 398 19.9499
119.053 429 20.7123
119.171 359 18.9473
119.288 392 19.799
119.405 421 20.5183
119.523 430 20.7364
119.64 437 20.9045
119.757 400 20
119.875 421 20.5183
119.992 422 20.5426
120.109 378 19.4422
120.226 388 19.6977
120.343 398 19.9499
120.46 404 20.0998
120.578 394 19.8494
120.695 376 19.3907
120.812 349 18.6815
120.929 338 18.3848
121.046 340 18.4391
121.163 329 18.1384
121.279 393 19.8242
121.396 374 19.3391
121.513 380 19.4936
121.63 341 18.4662
121.747 367 19.1572
121.863 378 19.4422
121.98 360 18.9737
122.097 306 17.4929
122.213 323 17.9722
122.33 343 18.5203
122.446 313 17.6918
122.563 287 16.9411
122.679 275 16.5831
122.795 260 16.1245
122.912 252 15.8745
123.028 212 14.5602
123.144 246 15.6844
123.26 201 14.1774
123.377 0 1
123.493 0 1
123.609 0 1
123.725 0 1
123.84 0 1
123.956 0 1
124.072 0 1
124.188 0 1
124.303 0 1
124.419 0 1
126.852 0 1
126.968 0 1
127.083 0 1
127.199 0 1
127.315 0 1
127.431 0 1
127.547 0 1
127.663 0 1
127.779 0 1
127.895 0 1
128.011 0 1
128.127 0 1
128.243 0 1
128.359 435 20.8567
128.476 464 21.5407
128.592 490 22.1359
128.708 489 22.1133
128.825 471 21.7025
128.941 470 21.6795
129.058 458 21.4009
129.174 470 21.6795
129.291 470 21.6795
129.408 446 21.1187
129.524 430 20.7364
129.641 438 20.9284
129.758 448 21.166
129.875 423 20.567
129.992 455 21.3307
130.108 441 21
130.225 478 21.8632
130.342 474 21.7715
130.459 456 21.3542
130.576 516 22.7156
130.693 496 22.2711
130.81 490 22.1359
130.928 522 22.8473
131.045 565 23.7697
131.162 587 24.2281
131.279 600 24.4949
131.396 611 24.7184
131.513 657 25.632
131.631 547 23.388
131.748 598 24.454
131.865 705 26.5518
131.983 726 26.9444
132.1 705 26.5518
132.217 794 28.178
132.335 746 27.313
132.452 913 30.2159
132.57 866 29.4279
132.687 872 29.5296
132.804 928 30.4631
132.922 921 30.348
133.039 887 29.7825
133.157 941 30.6757
133.274 955 30.9031
133.392 948 30.7896
133.509 845 29.0689
133.627 822 28.6705
133.744 814 28.5307
133.862 930 30.4959
133.979 837 28.931
134.097 783 27.9821
134.214 859 29.3087
134.332 887 29.7825
134.449 911 30.1828
134.567 864 29.3939
134.684 836 28.9137
134.802 864 29.3939
134.919 837 28.931
135.037 832 28.8444
135.154 868 29.4618
135.272 825 28.7228
135.389 779 27.9106
135.507 875 29.5804
135.624 864 29.3939
135.742 868 29.4618
135.859 838 28.9482
135.977 984 31.3688
136.094 897 29.95
136.211 963 31.0322
136.329 912 30.1993
136.446 919 30.315
136.564 943 30.7083
136.681 928 30.4631
136.798 904 30.0666
136.915 827 28.7576
137.033 857 29.2746
137.15 846 29.0861
137.267 845 29.0689
137.384 817 28.5832
137.502 821 28.6531
137.619 805 28.3725
137.736 842 29.0172
137.853 818 28.6007
137.97 870 29.4958
138.087 868 29.4618
138.204 854 29.2233
138.321 814 28.5307
138.438 802 28.3196
138.555 856 29.2575
138.672 878 29.6311
138.788 844 29.0517
138.905 748 27.3496
139.022 748 27.3496
139.139 802 28.3196
139.255 834 28.8791
139.372 769 27.7308
139.488 730 27.0185
139.605 693 26.3249
139.721 661 25.7099
139.838 580 24.0832
139.954 555 23.5584
140.071 584 24.1661
140.187 528 22.9783
140.303 497 22.2935
140.419 513 22.6495
140.535 455 21.3307
140.652 422 20.5426
140.768 0 1
140.884 0 1
141 0 1
141.115 0 1
141.231 0 1
141.347 0 1
141.463 0 1
141.578 0 1
141.694 0 1
144.104 0 1
144.219 0 1
144.335 0 1
144.45 0 1
144.566 0 1
144.682 0 1
144.798 0 1
144.914 0 1
145.03 0 1
145.146 828 28.775
145.262 901 30.0167
145.378 805 28.3725
145.494 825 28.7228
145.61 887 29.7825
145.726 886 29.7658
145.842 863 29.3769
145.959 899 29.9833
146.075 885 29.7489
146.192 919 30.315
146.308 897 29.95
146.425 883 29.7153
146.541 981 31.3209
146.658 973 31.1929
146.774 1076 32.8024
146.891 1062 32.5883
147.008 1030 32.0936
147.125 993 31.5119
147.241 1018 31.9061
147.358 1052 32.4345
147.475 1108 33.2866
147.592 995 31.5436
147.709 891 29.8496
147.826 898 29.9666
147.943 951 30.8383
148.06 1021 31.9531
148.177 1056 32.4962
148.294 1074 32.7719
148.411 1064 32.619
148.528 1038 32.218
148.645 1117 33.4215
148.762 1020 31.9374
148.88 1004 31.686
148.997 1010 31.7805
149.114 1034 32.1559
149.231 1081 32.8786
149.349 985 31.3847
149.466 1063 32.6037
149.583 1019 31.9218
149.701 953 30.8707
149.818 909 30.1496
149.935 900 30
150.053 887 29.7825
150.17 917 30.282
150.287 943 30.7083
150.405 958 30.9516
150.522 942 30.692
150.64 883 29.7153
150.757 909 30.1496
150.875 847 29.1033
150.992 899 29.9833
151.11 832 28.8444
151.227 853 29.2062
151.344 761 27.5862
151.462 792 28.1425
151.579 781 27.9464
151.697 857 29.2746
151.814 885 29.7489
151.932 920 30.3315
152.049 863 29.3769
152.167 949 30.8058
152.284 866 29.4279
152.402 842 29.0172
152.519 864 29.3939
152.636 883 29.7153
152.754 854 29.2233
152.871 889 29.8161
152.989 819 28.6182
153.106 837 28.931
153.223 808 28.4253
153.341 798 28.2489
153.458 822 28.6705
153.575 810 28.4605
153.693 787 28.0535
153.81 771 27.7669
153.927 753 27.4408
154.044 799 28.2666
154.162 818 28.6007
154.279 798 28.2489
154.396 778 27.8927
154.513 749 27.3679
154.63 729 27
154.747 761 27.5862
154.864 700 26.4575
154.981 698 26.4197
155.098 679 26.0576
155.215 720 26.8328
155.332 720 26.8328
155.449 776 27.8568
155.566 745 27.2947
155.683 777 27.8747
155.8 762 27.6043
155.917 767 27.6948
156.033 747 27.3313
156.15 0 1
156.267 0 1
156.383 0 1
156.5 0 1
156.617 0 1
156.733 0 1
156.85 0 1
156.966 0 1
157.082 0 1
157.199 0 1
157.315 0 1
157.431 0 1
157.547 0 1
157.664 0 1
157.78 0 1
157.896 0 1
158.012 0 1
158.128 0 1
158.244 0 1
158.359 0 1
158.475 0 1
158.591 0 1
158.706 0 1
