
6.15755 0 1
6.2731 0 1
6.3887 0 1
6.50437 0 1
6.62009 0 1
6.73587 0 1
6.8517 0 1
6.96759 0 1
7.08353 0 1
7.19952 0 1
7.31557 0 1
7.43166 0 1
7.54781 0 1
7.664 0 1
7.78024 0 1
7.89653 0 1
8.01286 0 1
8.12924 0 1
8.24567 0 1
8.36213 0 1
8.47864 0 1
8.59519 0 1
8.71178 0 1
8.82841 0 1
8.94508 0 1
9.06179 0 1
9.17853 0 1
9.29531 0 1
9.41212 0 1
9.52897 0 1
9.64584 0 1
9.76276 0 1
9.8797 0 1
9.99667 0 1
10.1137 0 1
10.2307 0 1
10.3478 0 1
10.4648 0 1
10.5819 0 1
10.6991 0 1
10.8162 0 1
10.9334 0 1
11.0506 0 1
11.1678 0 1
11.285 0 1
11.4023 0 1
11.5196 0 1
11.6369 0 1
11.7542 0 1
11.8715 0 1
11.9888 0 1
12.1062 0 1
12.2235 0 1
12.3409 0 1
12.4582 0 1
12.5756 0 1
12.693 0 1
12.8104 0 1
12.9278 0 1
13.0452 0 1
13.1626 0 1
13.28 0 1
13.3974 0 1
13.5149 0 1
13.6323 0 1
13.7497 0 1
13.8671 0 1
13.9845 0 1
14.1019 0 1
14.2193 0 1
14.3367 0 1
14.4541 0 1
14.5714 0 1
14.6888 0 1
14.8062 0 1
14.9235 0 1
15.0408 0 0
15.1581 0 0
15.2755 0 0
15.3927 0 0
15.51 0 0
15.6273 0 0
15.7445 0 0
15.8617 0 0
15.9789 0 0
16.0961 0 0
16.2132 0 0
16.3304 0 0
16.4475 0 0
16.5646 0 0
16.6816 0 0
16.7986 0 0
16.9156 0 0
17.0326 0 0
17.1496 0 0
17.2665 0 0
17.3833 0 0
17.5002 0 0
17.617 0 0
17.7338 0 0
17.8505 0 0
17.9672 0 0
18.0839 0 0
18.2005 0 0
18.3171 0 0
18.4337 0 0
18.5502 0 0
18.6666 0 0
18.7831 0 0
18.8994 0 0
19.0158 0 0
19.1321 0 0
19.2483 0 0
19.3645 0 0
19.4806 0 0
19.5967 0 0
19.7128 0 0
19.8288 0 0
19.9447 0 0
20.0606 0 1
20.1764 0 1
20.2922 0 1
20.4079 0 1
20.5236 0 1
20.6392 0 1
20.7548 0 1
20.8702 0 1
23.3078 0 1
23.4233 0 1
23.539 0 1
23.6547 0 1
23.7704 0 1
23.8862 0 1
24.0021 0 1
24.118 0 1
24.234 0 1
24.35 0 1
24.4661 22411 149.703
24.5822 22763 150.874
24.6984 22291 149.302
24.8146 21464 146.506
24.9309 20743 144.024
25.0472 20823 144.302
25.1636 21473 146.537
25.28 22234 149.111
25.3965 23355 152.823
25.513 24265 155.772
25.6296 24560 156.716
25.7462 25242 158.877
25.8628 25223 158.818
25.9795 25552 159.85
26.0962 25394 159.355
26.213 25268 158.959
26.3298 24790 157.448
26.4466 24165 155.451
26.5635 23169 152.214
26.6804 22323 149.409
26.7973 22097 148.651
26.9143 22650 150.499
27.0313 23090 151.954
27.1483 23996 154.906
27.2653 24712 157.201
27.3824 24752 157.328
27.4996 24626 156.927
27.6167 24673 157.076
27.7339 23866 154.486
27.8511 23618 153.681
27.9683 23187 152.273
28.0855 22894 151.308
28.2028 22581 150.27
28.3201 21433 146.4
28.4374 20714 143.924
28.5547 20192 142.099
28.6721 20325 142.566
28.7894 21086 145.21
28.9068 21989 148.287
29.0242 22409 149.696
29.1416 23592 153.597
29.259 23793 154.25
29.3764 23654 153.799
29.4939 24057 155.103
29.6113 24192 155.538
29.7288 23916 154.648
29.8463 23409 153
29.9638 22709 150.695
30.0812 21784 147.594
30.1987 21480 146.561
30.3162 21330 146.048
30.4337 22018 148.385
30.5512 22335 149.449
30.6687 23208 152.342
30.7862 24214 155.608
30.9037 24016 154.971
31.0212 24576 156.767
31.1387 24361 156.08
31.2562 23773 154.185
31.3737 23540 153.428
31.4912 23133 152.095
31.6087 22913 151.37
31.7262 22329 149.429
31.8436 22017 148.381
31.9611 20763 144.094
32.0785 20268 142.366
32.1959 20188 142.084
32.3134 20948 144.734
32.4308 21707 147.333
32.5482 22572 150.24
32.6655 23589 153.587
32.7829 23746 154.097
32.9002 24018 154.977
33.0176 23682 153.89
33.1349 23974 154.835
33.2522 24031 155.019
33.3694 23945 154.742
33.4867 23605 153.639
33.6039 22960 151.526
33.7211 22062 148.533
33.8383 21526 146.717
33.9554 21699 147.306
34.0725 22046 148.479
34.1896 22434 149.78
34.3067 23233 152.424
34.4237 23791 154.243
34.5407 24269 155.785
34.6577 24351 156.048
34.7746 24102 155.248
34.8915 24399 156.202
35.0084 23592 153.597
35.1252 23184 152.263
35.242 23193 152.292
35.3587 22930 151.427
35.4755 22297 149.322
35.5921 21167 145.489
35.7088 20218 142.19
35.8254 19668 140.243
35.9419 20198 142.12
36.0584 20460 143.038
36.1749 21653 147.15
36.2913 22355 149.516
36.4077 23302 152.65
36.524 23421 153.039
36.6403 23799 154.269
36.7565 23937 154.716
36.8727 23940 154.726
36.9889 24125 155.322
37.1049 23067 151.878
37.221 0 1
37.3369 0 1
37.4529 0 1
37.5687 0 1
37.6845 0 1
37.8003 0 1
37.916 0 1
38.0316 0 1
38.1472 0 1
40.5851 0 1
40.7008 0 1
40.8164 0 1
40.9322 0 1
41.048 0 1
41.1639 0 1
41.2798 0 1
41.3958 0 1
41.5118 0 1
41.6279 0 1
41.744 19541 139.789
41.8602 20089 141.736
41.9765 20281 142.411
42.0928 20492 143.15
42.2091 20569 143.419
42.3255 20215 142.179
42.4419 19494 139.621
42.5584 18547 136.187
42.675 17928 133.895
42.7915 18056 134.373
42.9081 18997 137.83
43.0248 19369 139.173
43.1415 19897 141.057
43.2582 20333 142.594
43.375 20467 143.063
43.4918 20803 144.232
43.6087 20558 143.381
43.7256 20135 141.898
43.8425 20066 141.655
43.9595 19152 138.391
44.0765 18908 137.506
44.1935 18262 135.137
44.3106 17555 132.495
44.4277 16574 128.74
44.5448 15478 124.411
44.6619 15013 122.528
44.7791 15247 123.479
44.8963 15758 125.531
45.0136 16337 127.816
45.1308 17083 130.702
45.2481 17632 132.786
45.3654 17743 133.203
45.4827 17889 133.75
45.6001 17608 132.695
45.7174 17413 131.958
45.8348 17134 130.897
45.9522 16740 129.383
46.0697 16084 126.823
46.1871 14935 122.209
46.3046 14553 120.636
46.422 14907 122.094
46.5395 15739 125.455
46.657 16011 126.535
46.7745 16249 127.472
46.892 16338 127.82
47.0096 16299 127.668
47.1271 16382 127.992
47.2446 16246 127.46
47.3622 15916 126.159
47.4797 15789 125.654
47.5973 15127 122.992
47.7149 14838 121.811
47.8324 14129 118.865
47.95 13458 116.009
48.0675 12562 112.08
48.1851 12004 109.563
48.3027 11986 109.481
48.4202 12254 110.698
48.5378 12953 113.811
48.6554 13755 117.282
48.7729 14117 118.815
48.8904 14552 120.632
49.008 14661 121.083
49.1255 14759 121.487
49.243 14646 121.021
49.3605 14720 121.326
49.478 14424 120.1
49.5955 13667 116.906
49.713 13263 115.165
49.8304 13131 114.591
49.9479 13477 116.09
50.0653 14603 120.843
50.1827 15670 125.18
50.3001 15687 125.248
50.4175 16453 128.269
50.5348 16716 129.29
50.6521 17679 132.962
50.7694 17674 132.944
50.8867 18251 135.096
51.004 18175 134.815
51.1212 18338 135.418
51.2384 18238 135.048
51.3556 17771 133.308
51.4727 17260 131.377
51.5899 16348 127.859
51.707 16015 126.55
51.824 16185 127.22
51.9411 17180 131.072
52.0581 18407 135.672
52.175 19875 140.979
52.2919 20410 142.864
52.4088 21172 145.506
52.5257 21344 146.096
52.6425 21627 147.061
52.7593 21898 147.98
52.876 22001 148.327
52.9927 22129 148.758
53.1094 21388 146.246
53.226 21055 145.103
53.3426 20197 142.116
53.4591 20404 142.843
53.5756 21331 146.051
53.692 22586 150.286
53.8084 23095 151.97
53.9248 24097 155.232
54.0411 24315 155.933
54.1573 24801 157.483
54.2735 0 1
54.3896 0 1
54.5057 0 1
54.6217 0 1
54.7377 0 1
54.8537 0 1
54.9695 0 1
55.0853 0 1
55.2011 0 1
55.3168 0 1
55.4324 0 1
57.824 0 1
57.9396 0 1
58.0553 0 1
58.1711 0 1
58.2869 0 1
58.4028 0 1
58.5187 0 1
58.6347 0 1
58.7508 0 1
58.8669 0 1
58.983 29164 170.775
59.0992 30259 173.951
59.2155 30863 175.679
59.3318 31188 176.601
59.4482 31519 177.536
59.5646 31644 177.888
59.681 31242 176.754
59.7975 30485 174.6
59.9141 29535 171.857
60.0306 27934 167.135
60.1473 26876 163.939
60.2639 24631 156.943
60.3807 23383 152.915
60.4974 23594 153.603
60.6142 24202 155.57
60.731 25628 160.087
60.8479 27729 166.52
60.9648 28823 169.773
61.0818 29912 172.951
61.1987 29480 171.697
61.3158 29950 173.061
61.4328 29621 172.108
61.5499 29107 170.608
61.667 28300 168.226
61.7841 27157 164.794
61.9013 26686 163.359
62.0185 26546 162.929
62.1357 26959 164.192
62.253 27796 166.721
62.3702 28832 169.8
62.4875 29873 172.838
62.6049 30383 174.307
62.7222 30659 175.097
62.8396 31163 176.53
62.9569 31075 176.281
63.0743 31128 176.431
63.1918 30541 174.76
63.3092 30297 174.06
63.4267 28905 170.015
63.5441 27786 166.691
63.6616 25618 160.056
63.7791 23582 153.564
63.8966 22623 150.409
64.0142 22777 150.921
64.1317 23618 153.681
64.2492 25503 159.697
64.3668 26577 163.025
64.4843 28033 167.431
64.6019 29246 171.015
64.7195 29591 172.02
64.837 29633 172.142
64.9546 29870 172.829
65.0722 29372 171.383
65.1898 28703 169.42
65.3074 28107 167.651
65.4249 26176 161.79
65.5425 26013 161.285
65.6601 26302 162.179
65.7777 27496 165.819
65.8952 28438 168.636
66.0128 29316 171.219
66.1304 29958 173.084
66.2479 30815 175.542
66.3655 31142 176.471
66.483 31427 177.277
66.6005 31721 178.104
66.718 31499 177.48
66.8355 31371 177.119
66.953 30695 175.2
67.0705 29595 172.032
67.1879 28317 168.277
67.3054 25939 161.056
67.4228 23534 153.408
67.5402 22278 149.258
67.6576 22831 151.099
67.7749 23841 154.405
67.8923 26730 163.493
68.0096 28837 169.815
68.1269 30275 173.997
68.2442 31506 177.499
68.3614 32359 179.886
68.4787 32253 179.591
68.5958 32246 179.572
68.713 32240 179.555
68.8302 31862 178.499
68.9473 31085 176.309
69.0643 29654 172.203
69.1814 29240 170.997
69.2984 29233 170.977
69.4154 30315 174.112
69.5323 32047 179.017
69.6492 33557 183.186
69.7661 34300 185.203
69.8829 34972 187.008
69.9997 35745 189.063
70.1165 36585 191.272
70.2332 36772 191.76
70.3499 36926 192.161
70.4665 36518 191.097
70.5831 35595 188.666
70.6996 34543 185.857
70.8161 32911 181.414
70.9326 30800 175.499
71.049 27848 166.877
71.1653 25142 158.562
71.2817 23807 154.295
71.3979 25130 158.524
71.5141 26352 162.333
71.6303 28464 168.713
71.7464 28946 170.135
71.8624 0 1
71.9784 0 1
72.0944 0 1
72.2102 0 1
72.3261 0 1
72.4418 0 1
72.5575 0 1
72.6732 0 1
75.1054 0 1
75.2209 0 1
75.3365 0 1
75.4521 0 1
75.5678 0 1
75.6835 0 1
75.7993 0 1
75.9151 0 1
76.031 0 1
76.147 33021 181.717
76.263 33960 184.282
76.3791 31540 177.595
76.4952 28082 167.577
76.6113 27133 164.721
76.7276 28601 169.118
76.8438 31506 177.499
76.9601 34598 186.005
77.0765 38053 195.072
77.1929 40052 200.13
77.3093 41224 203.037
77.4258 41428 203.539
77.5423 41527 203.782
77.6589 41792 204.431
77.7755 41063 202.64
77.8921 40199 200.497
78.0088 38727 196.792
78.1256 36930 192.172
78.2423 36017 189.781
78.3591 36030 189.816
78.4759 37059 192.507
78.5928 38363 195.865
78.7097 40276 200.689
78.8266 43958 209.662
78.9436 41759 204.35
79.0606 43618 208.849
79.1776 43967 209.683
79.2946 44086 209.967
79.4117 43823 209.339
79.5288 43954 209.652
79.6459 42965 207.28
79.7631 41621 204.012
79.8802 39478 198.691
79.9974 35801 189.212
80.1147 32261 179.613
80.2319 29916 172.962
80.3491 30212 173.816
80.4664 33144 182.055
80.5837 36691 191.549
80.701 40212 200.529
80.8183 42493 206.138
80.9357 43542 208.667
81.053 44656 211.32
81.1704 44713 211.454
81.2877 44624 211.244
81.4051 44067 209.921
81.5225 44185 210.202
81.6399 41381 203.423
81.7573 40890 202.213
81.8747 39028 197.555
81.9922 38335 195.793
82.1096 39268 198.162
82.227 40745 201.854
82.3444 42512 206.184
82.4619 44760 211.566
82.5793 44534 211.031
82.6967 47225 217.313
82.8142 46328 215.239
82.9316 46238 215.03
83.049 46309 215.195
83.1664 45583 213.502
83.2838 45038 212.222
83.4012 43154 207.735
83.5186 40970 202.41
83.636 37684 194.124
83.7534 33714 183.614
83.8708 30270 173.983
83.9881 30588 174.894
84.1055 33582 183.254
84.2228 37108 192.634
84.3401 41559 203.86
84.4575 45131 212.441
84.5747 46814 216.365
84.692 47801 218.634
84.8093 48141 219.411
84.9265 48311 219.798
85.0437 48466 220.15
85.1609 47374 217.656
85.2781 45376 213.016
85.3952 44337 210.564
85.5123 43628 208.873
85.6294 43155 207.738
85.7465 44642 211.287
85.8636 47353 217.607
85.9806 50003 223.614
86.0976 52419 228.952
86.2145 54099 232.592
86.3315 53705 231.743
86.4484 58148 241.139
86.5652 57588 239.975
86.682 57318 239.412
86.7988 56640 237.992
86.9156 55603 235.803
87.0323 53400 231.084
87.149 51694 227.363
87.2657 46971 216.728
87.3823 42750 206.761
87.4988 40701 201.745
87.6154 42754 206.77
87.7318 47666 218.325
87.8483 53436 231.162
87.9647 59109 243.123
88.081 61657 248.308
88.1973 63725 252.438
88.3136 64087 253.154
88.4298 64863 254.682
88.546 63969 252.921
88.6621 63541 252.073
88.7781 61233 247.453
88.8942 0 1
89.0101 0 1
89.126 0 1
89.2419 0 1
89.3577 0 1
89.4734 0 1
89.5891 0 1
89.7047 0 1
89.8203 0 1
89.9358 0 1
92.3269 0 1
92.4424 0 1
92.558 0 1
92.6736 0 1
92.7893 0 1
92.905 0 1
93.0208 0 1
93.1366 0 1
93.2525 0 1
93.3685 0 1
93.4845 0 1
93.6005 70245 265.038
93.7167 72158 268.622
93.8328 72694 269.618
93.949 71929 268.196
94.0653 71414 267.234
94.1816 70975 266.411
94.2979 69431 263.498
94.4143 67672 260.138
94.5307 66137 257.171
94.6472 65161 255.267
94.7637 64492 253.953
94.8803 67110 259.056
94.9969 69550 263.723
95.1135 72477 269.216
95.2302 74140 272.287
95.3469 75944 275.579
95.4637 77391 278.192
95.5805 77984 279.256
95.6973 79850 282.577
95.8142 79604 282.142
95.9311 78954 280.988
96.048 76995 277.48
96.1649 74444 272.844
96.2819 71187 266.809
96.3989 66652 258.17
96.516 61170 247.326
96.633 55833 236.29
96.7501 55013 234.549
96.8673 59072 243.047
96.9844 65032 255.014
97.1016 72969 270.128
97.2188 78099 279.462
97.336 82618 287.433
97.4532 83246 288.524
97.5704 84170 290.121
97.6877 83856 289.579
97.805 82640 287.472
97.9223 81357 285.231
98.0396 78713 280.558
98.1569 77190 277.831
98.2743 75397 274.585
98.3916 73512 271.131
98.509 74442 272.841
98.6264 76523 276.628
98.7438 79502 281.961
98.8612 82504 287.235
98.9786 85439 292.3
99.096 87101 295.129
99.2134 88410 297.338
99.3308 89325 298.873
99.4482 90299 300.498
99.5656 89183 298.635
99.6831 87601 295.975
99.8005 84461 290.622
99.9179 80799 284.252
100.035 75769 275.262
100.153 69192 263.044
100.27 64303 253.58
100.388 64788 254.535
100.505 71245 266.918
100.622 79115 281.274
100.74 86934 294.846
100.857 91692 302.807
100.975 93333 305.505
101.092 93347 305.527
101.209 93720 306.137
101.327 93593 305.93
101.444 92864 304.736
101.561 91236 302.053
101.679 88266 297.096
101.796 85513 292.426
101.913 83758 289.41
102.03 83673 289.263
102.148 85204 291.897
102.265 93192 305.274
102.382 87558 295.902
102.499 94943 308.128
102.616 96586 310.783
102.733 99032 314.694
102.851 100091 316.372
102.968 100522 317.052
103.085 99948 316.146
103.202 98224 313.407
103.319 95282 308.678
103.436 91465 302.432
103.552 86607 294.291
103.669 78464 280.114
103.786 72092 268.5
103.903 71990 268.31
104.02 78192 279.628
104.137 88117 296.845
104.253 99139 314.863
104.37 100540 317.08
104.487 105192 324.333
104.603 105351 324.578
104.72 104588 323.401
104.836 106006 325.586
104.953 104562 323.36
105.069 101089 317.945
105.186 98929 314.53
105.302 96180 310.129
105.418 94541 307.475
105.535 94535 307.465
105.651 96944 311.358
105.767 100410 316.875
105.883 103551 321.793
105.999 106506 326.353
106.115 0 1
106.231 0 1
106.347 0 1
106.463 0 1
106.579 0 1
106.694 0 1
106.81 0 1
106.926 0 1
107.041 0 1
107.157 0 1
109.576 0 1
109.692 0 1
109.807 0 1
109.923 0 1
110.039 0 1
110.155 0 1
110.27 0 1
110.386 0 1
110.502 0 1
110.618 87500 295.804
110.735 92041 303.383
110.851 95269 308.657
110.967 96860 311.223
111.083 98865 314.428
111.199 99911 316.087
111.316 101047 317.879
111.432 100954 317.733
111.549 99711 315.77
111.665 97271 311.883
111.782 94834 307.951
111.898 89701 299.501
112.015 84845 291.282
112.132 77331 278.085
112.248 70033 264.637
112.365 67681 260.156
112.482 70793 266.07
112.599 76764 277.063
112.716 85534 292.462
112.832 90611 301.017
112.949 91604 302.662
113.066 92121 303.514
113.183 91728 302.866
113.3 90554 300.922
113.417 89865 299.775
113.534 87567 295.917
113.652 84472 290.641
113.769 81786 285.983
113.886 78846 280.795
114.003 76934 277.37
114.12 77217 277.879
114.238 78520 280.214
114.355 79973 282.795
114.472 81171 284.905
114.589 82494 287.218
114.707 83534 289.022
114.824 84824 291.246
114.942 84630 290.912
115.059 85521 292.44
115.176 84624 290.902
115.294 83358 288.718
115.411 80476 283.683
115.529 76616 276.796
115.646 71895 268.132
115.764 66070 257.041
115.881 60616 246.203
115.999 60655 246.282
116.116 65441 255.814
116.234 73157 270.476
116.351 79705 282.321
116.469 82602 287.406
116.586 83302 288.621
116.704 84328 290.393
116.821 83604 289.144
116.939 83722 289.348
117.056 82489 287.209
117.174 80445 283.628
117.291 78760 280.642
117.409 77271 277.977
117.526 74774 273.448
117.644 74320 272.617
117.761 75416 274.62
117.879 77489 278.368
117.996 77707 278.76
118.114 79020 281.105
118.231 81148 284.865
118.349 81113 284.803
118.466 82799 287.748
118.584 83559 289.066
118.701 83468 288.908
118.819 82241 286.777
118.936 80353 283.466
119.053 77948 279.192
119.171 75038 273.931
119.288 69685 263.979
119.405 63769 252.525
119.523 58119 241.079
119.64 59307 243.53
119.757 63026 251.05
119.875 70180 264.915
119.992 74704 273.32
120.109 77372 278.158
120.226 79939 282.735
120.343 80090 283.002
120.46 80010 282.86
120.578 79561 282.066
120.695 78760 280.642
120.812 78359 279.927
120.929 75723 275.178
121.046 73822 271.702
121.163 72396 269.065
121.279 71264 266.953
121.396 71338 267.092
121.513 71920 268.179
121.63 73749 271.568
121.747 74049 272.119
121.863 74856 273.598
121.98 76296 276.217
122.097 76009 275.697
122.213 77125 277.714
122.33 78057 279.387
122.446 77497 278.383
122.563 76606 276.778
122.679 74494 272.936
122.795 72722 269.67
122.912 69591 263.801
123.028 65884 256.679
123.144 59803 244.547
123.26 55806 236.233
123.377 0 1
123.493 0 1
123.609 0 1
123.725 0 1
123.84 0 1
123.956 0 1
124.072 0 1
124.188 0 1
124.303 0 1
124.419 0 1
126.852 0 1
126.968 0 1
127.083 0 1
127.199 0 1
127.315 0 1
127.431 0 1
127.547 0 1
127.663 0 1
127.779 0 1
127.895 0 1
128.011 0 1
128.127 0 1
128.243 0 1
128.359 65527 255.982
128.476 59851 244.645
128.592 59883 244.71
128.708 64881 254.717
128.825 71566 267.518
128.941 78837 280.779
129.058 82041 286.428
129.174 82534 287.287
129.291 83053 288.189
129.408 82369 287
129.524 82077 286.491
129.641 81519 285.515
129.758 80166 283.136
129.875 78352 279.914
129.992 76478 276.547
130.108 74569 273.073
130.225 74138 272.283
130.342 74787 273.472
130.459 74032 272.088
130.576 77843 279.004
130.693 77052 277.582
130.81 77622 278.607
130.928 77578 278.528
131.045 77380 278.173
131.162 78377 279.959
131.279 79336 281.666
131.396 78957 280.993
131.513 76764 277.063
131.631 75275 274.363
131.748 72378 269.032
131.865 66438 257.756
131.983 60158 245.271
132.1 57720 240.25
132.217 60440 245.845
132.335 65915 256.739
132.452 72140 268.589
132.57 75687 275.113
132.687 75135 274.108
132.804 79821 282.526
132.922 76936 277.373
133.039 77055 277.588
133.157 76840 277.2
133.274 75747 275.222
133.392 74811 273.516
133.509 72143 268.594
133.627 71032 266.518
133.744 70321 265.181
133.862 69402 263.443
133.979 71181 266.798
134.097 71319 267.056
134.214 72593 269.431
134.332 71228 266.886
134.449 72655 269.546
134.567 72763 269.746
134.684 73808 271.676
134.802 74440 272.837
134.919 74214 272.422
135.037 74290 272.562
135.154 72407 269.085
135.272 70176 264.908
135.389 66216 257.325
135.507 60752 246.479
135.624 56110 236.875
135.742 55722 236.055
135.859 59693 244.322
135.977 65239 255.419
136.094 70809 266.1
136.211 72758 269.737
136.329 74471 272.894
136.446 74174 272.349
136.564 74437 272.831
136.681 75382 274.558
136.798 73390 270.906
136.915 73002 270.189
137.033 71098 266.642
137.15 70240 265.028
137.267 68837 262.368
137.384 67803 260.39
137.502 67375 259.567
137.619 67718 260.227
137.736 69454 263.541
137.853 68858 262.408
137.97 68027 260.82
138.087 71403 267.213
138.204 69754 264.11
138.321 70604 265.714
138.438 72317 268.918
138.555 72268 268.827
138.672 71922 268.183
138.788 70700 265.895
138.905 69260 263.173
139.022 66453 257.785
139.139 61042 247.067
139.255 56339 237.358
139.372 55325 235.213
139.488 58399 241.659
139.605 63576 252.143
139.721 68513 261.75
139.838 71454 267.309
139.954 72372 269.02
140.071 71666 267.705
140.187 72746 269.715
140.303 71454 267.309
140.419 71148 266.736
140.535 70436 265.398
140.652 68165 261.084
140.768 0 1
140.884 0 1
141 0 1
141.115 0 1
141.231 0 1
141.347 0 1
141.463 0 1
141.578 0 1
141.694 0 1
144.104 0 1
144.219 0 1
144.335 0 1
144.45 0 1
144.566 0 1
144.682 0 1
144.798 0 1
144.914 0 1
145.03 0 1
145.146 60583 246.136
145.262 61656 248.306
145.378 61745 248.485
145.494 60907 246.793
145.61 59802 244.544
145.726 58899 242.691
145.842 57834 240.487
145.959 56584 237.874
146.075 56012 236.669
146.192 55867 236.362
146.308 56649 238.011
146.425 57126 239.01
146.541 57565 239.927
146.658 56671 238.057
146.774 57099 238.954
146.891 57409 239.602
147.008 57833 240.485
147.125 58725 242.332
147.241 58341 241.539
147.358 57232 239.232
147.475 55617 235.833
147.592 53389 231.061
147.709 49788 223.132
147.826 45907 214.259
147.943 44749 211.54
148.06 46016 214.513
148.177 50447 224.604
148.294 54022 232.426
148.411 56537 237.775
148.528 57721 240.252
148.645 57368 239.516
148.762 57080 238.914
148.88 56971 238.686
148.997 54805 234.105
149.114 58210 241.267
149.231 55520 235.627
149.349 54338 233.105
149.466 52776 229.73
149.583 51994 228.022
149.701 51195 226.263
149.818 51279 226.449
149.935 51653 227.273
150.053 52301 228.694
150.17 52732 229.634
150.287 52721 229.611
150.405 52907 230.015
150.522 53209 230.671
150.64 54383 233.202
150.757 54696 233.872
150.875 54305 233.034
150.992 53698 231.728
151.11 51425 226.771
151.227 49934 223.459
151.344 46356 215.304
151.462 43020 207.413
151.579 42473 206.09
151.697 44584 211.149
151.814 47939 218.95
151.932 52011 228.059
152.049 54353 233.137
152.167 55000 234.521
152.284 55429 235.434
152.402 55472 235.525
152.519 54781 234.053
152.636 55346 235.257
152.754 54546 233.551
152.871 53360 230.998
152.989 52119 228.296
153.106 52163 228.392
153.223 51151 226.166
153.341 50110 223.853
153.458 50125 223.886
153.575 51504 226.945
153.693 51648 227.262
153.81 51473 226.877
153.927 52328 228.753
154.044 52196 228.464
154.162 53486 231.27
154.279 54824 234.145
154.396 55010 234.542
154.513 55521 235.629
154.63 54732 233.949
154.747 53973 232.321
154.864 51727 227.436
154.981 49353 222.155
155.098 46221 214.991
155.215 44806 211.674
155.332 46769 216.261
155.449 49697 222.928
155.566 53202 230.656
155.683 55113 234.762
155.8 55449 235.476
155.917 55303 235.166
156.033 55451 235.48
156.15 0 1
156.267 0 1
156.383 0 1
156.5 0 1
156.617 0 1
156.733 0 1
156.85 0 1
156.966 0 1
157.082 0 1
157.199 0 1
157.315 0 1
157.431 0 1
157.547 0 1
157.664 0 1
157.78 0 1
157.896 0 1
158.012 0 1
158.128 0 1
158.244 0 1
158.359 0 1
158.475 0 1
158.591 0 1
158.706 0 1
