
6.15755 0 1
6.2731 0 1
6.3887 0 1
6.50437 0 1
6.62009 0 1
6.73587 0 1
6.8517 0 1
6.96759 0 1
7.08353 0 1
7.19952 0 1
7.31557 0 1
7.43166 0 1
7.54781 0 1
7.664 0 1
7.78024 0 1
7.89653 0 1
8.01286 0 1
8.12924 0 1
8.24567 0 1
8.36213 0 1
8.47864 0 1
8.59519 0 1
8.71178 0 1
8.82841 0 1
8.94508 0 1
9.06179 0 1
9.17853 0 1
9.29531 0 1
9.41212 0 1
9.52897 0 1
9.64584 0 1
9.76276 0 1
9.8797 0 1
9.99667 0 1
10.1137 0 1
10.2307 0 1
10.3478 0 1
10.4648 0 1
10.5819 0 1
10.6991 0 1
10.8162 0 1
10.9334 0 1
11.0506 0 1
11.1678 0 1
11.285 0 1
11.4023 0 1
11.5196 0 1
11.6369 0 1
11.7542 0 1
11.8715 0 1
11.9888 0 1
12.1062 0 1
12.2235 0 1
12.3409 0 1
12.4582 0 1
12.5756 0 1
12.693 0 1
12.8104 0 1
12.9278 0 1
13.0452 0 1
13.1626 0 1
13.28 0 1
13.3974 0 1
13.5149 0 1
13.6323 0 1
13.7497 0 1
13.8671 0 1
13.9845 0 1
14.1019 0 1
14.2193 0 1
14.3367 0 1
14.4541 0 1
14.5714 0 1
14.6888 0 1
14.8062 0 1
14.9235 0 1
15.0408 0 0
15.1581 0 0
15.2755 0 0
15.3927 0 0
15.51 0 0
15.6273 0 0
15.7445 0 0
15.8617 0 0
15.9789 0 0
16.0961 0 0
16.2132 0 0
16.3304 0 0
16.4475 0 0
16.5646 0 0
16.6816 0 0
16.7986 0 0
16.9156 0 0
17.0326 0 0
17.1496 0 0
17.2665 0 0
17.3833 0 0
17.5002 0 0
17.617 0 0
17.7338 0 0
17.8505 0 0
17.9672 0 0
18.0839 0 0
18.2005 0 0
18.3171 0 0
18.4337 0 0
18.5502 0 0
18.6666 0 0
18.7831 0 0
18.8994 0 0
19.0158 0 0
19.1321 0 0
19.2483 0 0
19.3645 0 0
19.4806 0 0
19.5967 0 0
19.7128 0 0
19.8288 0 0
19.9447 0 0
20.0606 0 1
20.1764 0 1
20.2922 0 1
20.4079 0 1
20.5236 0 1
20.6392 0 1
20.7548 0 1
20.8702 0 1
23.3078 0 1
23.4233 0 1
23.539 0 1
23.6547 0 1
23.7704 0 1
23.8862 0 1
24.0021 0 1
24.118 0 1
24.234 0 1
24.35 0 1
24.4661 2754 52.4786
24.5822 2683 51.7977
24.6984 2655 51.5267
24.8146 2612 51.1077
24.9309 2576 50.7543
25.0472 2672 51.6914
25.1636 2614 51.1273
25.28 2670 51.672
25.3965 2619 51.1762
25.513 2760 52.5357
25.6296 2829 53.1883
25.7462 2999 54.7631
25.8628 3084 55.5338
25.9795 3051 55.2359
26.0962 3097 55.6507
26.213 3097 55.6507
26.3298 3136 56
26.4466 2988 54.6626
26.5635 3090 55.5878
26.6804 2966 54.461
26.7973 2862 53.4977
26.9143 2828 53.1789
27.0313 2806 52.9717
27.1483 2955 54.3599
27.2653 2926 54.0925
27.3824 3062 55.3353
27.4996 2937 54.1941
27.6167 2939 54.2125
27.7339 3003 54.7996
27.8511 2949 54.3047
27.9683 2902 53.8702
28.0855 2775 52.6783
28.2028 2687 51.8363
28.3201 2668 51.6527
28.4374 2503 50.03
28.5547 2548 50.4777
28.6721 2481 49.8096
28.7894 2499 49.99
28.9068 2514 50.1398
29.0242 2565 50.6458
29.1416 2630 51.2835
29.259 2666 51.6333
29.3764 2751 52.45
29.4939 2835 53.2447
29.6113 2861 53.4883
29.7288 2832 53.2165
29.8463 2923 54.0648
29.9638 2978 54.5711
30.0812 2935 54.1756
30.1987 2737 52.3163
30.3162 2678 51.7494
30.4337 2675 51.7204
30.5512 2707 52.0288
30.6687 2740 52.345
30.7862 2753 52.469
30.9037 2956 54.3691
31.0212 2876 53.6284
31.1387 2904 53.8888
31.2562 2933 54.1572
31.3737 2790 52.8205
31.4912 2797 52.8867
31.6087 2748 52.4214
31.7262 2583 50.8232
31.8436 2653 51.5073
31.9611 2567 50.6656
32.0785 2520 50.1996
32.1959 2437 49.366
32.3134 2367 48.6518
32.4308 2445 49.4469
32.5482 2531 50.309
32.6655 2509 50.0899
32.7829 2683 51.7977
32.9002 2594 50.9313
33.0176 2718 52.1344
33.1349 2850 53.3854
33.2522 2839 53.2823
33.3694 2906 53.9073
33.4867 2862 53.4977
33.6039 2860 53.479
33.7211 2951 54.3231
33.8383 2776 52.6878
33.9554 2684 51.8073
34.0725 2616 51.1468
34.1896 2515 50.1498
34.3067 2719 52.144
34.4237 2781 52.7352
34.5407 2903 53.8795
34.6577 2902 53.8702
34.7746 2808 52.9906
34.8915 2855 53.4322
35.0084 2861 53.4883
35.1252 2685 51.817
35.242 2659 51.5655
35.3587 2647 51.449
35.4755 2600 50.9902
35.5921 2606 51.049
35.7088 2430 49.295
35.8254 2486 49.8598
35.9419 2413 49.1223
36.0584 2397 48.9592
36.1749 2395 48.9387
36.2913 2441 49.4065
36.4077 2484 49.8397
36.524 2530 50.2991
36.6403 2542 50.4183
36.7565 2603 51.0196
36.8727 2744 52.3832
36.9889 2876 53.6284
37.1049 2749 52.4309
37.221 0 1
37.3369 0 1
37.4529 0 1
37.5687 0 1
37.6845 0 1
37.8003 0 1
37.916 0 1
38.0316 0 1
38.1472 0 1
40.5851 0 1
40.7008 0 1
40.8164 0 1
40.9322 0 1
41.048 0 1
41.1639 0 1
41.2798 0 1
41.3958 0 1
41.5118 0 1
41.6279 0 1
41.744 1952 44.1814
41.8602 2114 45.9783
41.9765 2225 47.1699
42.0928 2333 48.3011
42.2091 2281 47.7598
42.3255 2398 48.9694
42.4419 2305 48.0104
42.5584 2299 47.9479
42.675 2186 46.7547
42.7915 2055 45.3321
42.9081 2046 45.2327
43.0248 2106 45.8912
43.1415 2146 46.3249
43.2582 2228 47.2017
43.375 2210 47.0106
43.4918 2303 47.9896
43.6087 2274 47.6865
43.7256 2183 46.7226
43.8425 2285 47.8017
43.9595 2172 46.6047
44.0765 2093 45.7493
44.1935 2031 45.0666
44.3106 1924 43.8634
44.4277 1889 43.4626
44.5448 1852 43.0349
44.6619 1843 42.9302
44.7791 1751 41.845
44.8963 1690 41.1096
45.0136 1729 41.5812
45.1308 1747 41.7971
45.2481 1726 41.5452
45.3654 1823 42.6966
45.4827 1764 42
45.6001 1809 42.5323
45.7174 1995 44.6654
45.8348 1860 43.1277
45.9522 1901 43.6005
46.0697 1818 42.638
46.1871 1848 42.9884
46.3046 1639 40.4846
46.422 1558 39.4715
46.5395 1535 39.1791
46.657 1569 39.6106
46.7745 1805 42.4853
46.892 1758 41.9285
47.0096 1759 41.9404
47.1271 1820 42.6615
47.2446 1738 41.6893
47.3622 1710 41.3521
47.4797 1633 40.4104
47.5973 1561 39.5095
47.7149 1504 38.7814
47.8324 1467 38.3014
47.95 1500 38.7298
48.0675 1416 37.6298
48.1851 1323 36.3731
48.3027 1309 36.1801
48.4202 1239 35.1994
48.5378 1186 34.4384
48.6554 1294 35.9722
48.7729 1318 36.3043
48.8904 1378 37.1214
49.008 1357 36.8375
49.1255 1489 38.5876
49.243 1514 38.9102
49.3605 1532 39.1408
49.478 1505 38.7943
49.5955 1479 38.4578
49.713 1450 38.0789
49.8304 1323 36.3731
49.9479 1203 34.6843
50.0653 1341 36.6197
50.1827 1470 38.3406
50.3001 1472 38.3667
50.4175 1564 39.5474
50.5348 1624 40.2989
50.6521 1717 41.4367
50.7694 1737 41.6773
50.8867 1749 41.821
51.004 1696 41.1825
51.1212 1769 42.0595
51.2384 1774 42.1189
51.3556 1751 41.845
51.4727 1713 41.3884
51.5899 1633 40.4104
51.707 1723 41.509
51.824 1669 40.8534
51.9411 1570 39.6232
52.0581 1655 40.6817
52.175 1791 42.3202
52.2919 1901 43.6005
52.4088 1968 44.3621
52.5257 2069 45.4863
52.6425 2097 45.793
52.7593 2184 46.7333
52.876 2167 46.551
52.9927 2286 47.8121
53.1094 2297 47.927
53.226 2318 48.1456
53.3426 2247 47.4025
53.4591 2090 45.7165
53.5756 2054 45.3211
53.692 2132 46.1736
53.8084 2328 48.2494
53.9248 2366 48.6415
54.0411 2434 49.3356
54.1573 2672 51.6914
54.2735 0 1
54.3896 0 1
54.5057 0 1
54.6217 0 1
54.7377 0 1
54.8537 0 1
54.9695 0 1
55.0853 0 1
55.2011 0 1
55.3168 0 1
55.4324 0 1
57.824 0 1
57.9396 0 1
58.0553 0 1
58.1711 0 1
58.2869 0 1
58.4028 0 1
58.5187 0 1
58.6347 0 1
58.7508 0 1
58.8669 0 1
58.983 2644 51.4198
59.0992 2815 53.0566
59.2155 2959 54.3967
59.3318 3007 54.8361
59.4482 3157 56.1872
59.5646 3099 55.6687
59.681 3078 55.4797
59.7975 3099 55.6687
59.9141 3001 54.7814
60.0306 2815 53.0566
60.1473 2779 52.7162
60.2639 2684 51.8073
60.3807 2486 49.8598
60.4974 2363 48.6107
60.6142 2322 48.1871
60.731 2437 49.366
60.8479 2441 49.4065
60.9648 2508 50.0799
61.0818 2691 51.8748
61.1987 2665 51.6236
61.3158 2757 52.5071
61.4328 2824 53.1413
61.5499 2729 52.2398
61.667 2711 52.0673
61.7841 2533 50.3289
61.9013 2603 51.0196
62.0185 2380 48.7852
62.1357 2387 48.8569
62.253 2335 48.3218
62.3702 2448 49.4773
62.4875 2579 50.7839
62.6049 2509 50.0899
62.7222 2796 52.8772
62.8396 2800 52.915
62.9569 2799 52.9056
63.0743 2750 52.4404
63.1918 2887 53.7308
63.3092 2750 52.4404
63.4267 2658 51.5558
63.5441 2621 51.1957
63.6616 2471 49.7092
63.7791 2420 49.1935
63.8966 2344 48.4149
64.0142 2151 46.3789
64.1317 2125 46.0977
64.2492 2116 46
64.3668 2084 45.6508
64.4843 2227 47.1911
64.6019 2313 48.0937
64.7195 2416 49.1528
64.837 2462 49.6185
64.9546 2619 51.1762
65.0722 2542 50.4183
65.1898 2451 49.5076
65.3074 2567 50.6656
65.4249 2349 48.4665
65.5425 2210 47.0106
65.6601 2138 46.2385
65.7777 2051 45.288
65.8952 2081 45.618
66.0128 2322 48.1871
66.1304 2459 49.5883
66.2479 2585 50.8429
66.3655 2601 51
66.483 2627 51.2543
66.6005 2664 51.614
66.718 2603 51.0196
66.8355 2652 51.4976
66.953 2689 51.8556
67.0705 2526 50.2593
67.1879 2580 50.7937
67.3054 2399 48.9796
67.4228 2285 47.8017
67.5402 2118 46.0217
67.6576 2000 44.7214
67.7749 2052 45.299
67.8923 1991 44.6206
68.0096 2067 45.4643
68.1269 2320 48.1664
68.2442 2587 50.8626
68.3614 2673 51.7011
68.4787 2740 52.345
68.5958 2915 53.9907
68.713 3050 55.2268
68.8302 3046 55.1906
68.9473 3216 56.7098
69.0643 3085 55.5428
69.1814 2935 54.1756
69.2984 2950 54.3139
69.4154 3053 55.254
69.5323 3397 58.2838
69.6492 3728 61.0574
69.7661 4067 63.773
69.8829 4338 65.8635
69.9997 4583 67.6979
70.1165 4688 68.469
70.2332 4953 70.3776
70.3499 5205 72.1457
70.4665 5257 72.5052
70.5831 5368 73.2666
70.6996 5339 73.0685
70.8161 5371 73.2871
70.9326 5191 72.0486
71.049 5183 71.9931
71.1653 4979 70.562
71.2817 4511 67.164
71.3979 4558 67.513
71.5141 4618 67.9559
71.6303 4779 69.1303
71.7464 4629 68.0368
71.8624 0 1
71.9784 0 1
72.0944 0 1
72.2102 0 1
72.3261 0 1
72.4418 0 1
72.5575 0 1
72.6732 0 1
75.1054 0 1
75.2209 0 1
75.3365 0 1
75.4521 0 1
75.5678 0 1
75.6835 0 1
75.7993 0 1
75.9151 0 1
76.031 0 1
76.147 5588 74.7529
76.263 6271 79.1896
76.3791 6025 77.6209
76.4952 5707 75.5447
76.6113 5376 73.3212
76.7276 5068 71.1899
76.8438 4913 70.0928
76.9601 5000 70.7107
77.0765 5148 71.7496
77.1929 5346 73.1163
77.3093 5486 74.0675
77.4258 5583 74.7195
77.5423 5391 73.4234
77.6589 5539 74.4245
77.7755 5270 72.5948
77.8921 4882 69.8713
78.0088 4474 66.888
78.1256 3823 61.8304
78.2423 3553 59.607
78.3591 3163 56.2406
78.4759 3231 56.8419
78.5928 3254 57.0438
78.7097 3540 59.4979
78.8266 3512 59.2621
78.9436 3855 62.0886
79.0606 3790 61.563
79.1776 3642 60.349
79.2946 3609 60.075
79.4117 3625 60.208
79.5288 3410 58.3952
79.6459 3407 58.3695
79.7631 3081 55.5068
79.8802 2913 53.9722
79.9974 2718 52.1344
80.1147 2571 50.705
80.2319 2399 48.9796
80.3491 2109 45.9239
80.4664 2133 46.1844
80.5837 2160 46.4758
80.701 2196 46.8615
80.8183 2203 46.9361
80.9357 2461 49.6085
81.053 2601 51
81.1704 2516 50.1597
81.2877 2566 50.6557
81.4051 2490 49.8999
81.5225 2475 49.7494
81.6399 2248 47.4131
81.7573 2124 46.0869
81.8747 2043 45.1996
81.9922 1959 44.2606
82.1096 1958 44.2493
82.227 2095 45.7712
82.3444 2194 46.8402
82.4619 2445 49.4469
82.5793 2494 49.94
82.6967 2527 50.2693
82.8142 2668 51.6527
82.9316 2660 51.5752
83.049 2738 52.3259
83.1664 2700 51.9615
83.2838 2757 52.5071
83.4012 2572 50.7149
83.5186 2629 51.2738
83.636 2467 49.6689
83.7534 2446 49.4571
83.8708 2212 47.0319
83.9881 2305 48.0104
84.1055 2240 47.3286
84.2228 2352 48.4974
84.3401 2483 49.8297
84.4575 2786 52.7826
84.5747 3014 54.8999
84.692 3220 56.745
84.8093 3421 58.4893
84.9265 3369 58.0431
85.0437 3440 58.6515
85.1609 3339 57.7841
85.2781 3213 56.6833
85.3952 2967 54.4702
85.5123 2672 51.6914
85.6294 2823 53.1319
85.7465 3014 54.8999
85.8636 3303 57.4717
85.9806 3644 60.3656
86.0976 3871 62.2174
86.2145 3976 63.0555
86.3315 4174 64.6065
86.4484 4349 65.9469
86.5652 4443 66.6558
86.682 4456 66.7533
86.7988 4416 66.453
86.9156 4606 67.8675
87.0323 4377 66.1589
87.149 4135 64.304
87.2657 4124 64.2184
87.3823 3861 62.1369
87.4988 3627 60.2246
87.6154 3622 60.1831
87.7318 3647 60.3904
87.8483 4028 63.4665
87.9647 4199 64.7997
88.081 4460 66.7832
88.1973 4733 68.7968
88.3136 4824 69.455
88.4298 4833 69.5198
88.546 4813 69.3758
88.6621 4604 67.8528
88.7781 4327 65.7799
88.8942 0 1
89.0101 0 1
89.126 0 1
89.2419 0 1
89.3577 0 1
89.4734 0 1
89.5891 0 1
89.7047 0 1
89.8203 0 1
89.9358 0 1
92.3269 0 1
92.4424 0 1
92.558 0 1
92.6736 0 1
92.7893 0 1
92.905 0 1
93.0208 0 1
93.1366 0 1
93.2525 0 1
93.3685 0 1
93.4845 0 1
93.6005 3786 61.5305
93.7167 3651 60.4235
93.8328 3714 60.9426
93.949 3579 59.8247
94.0653 3466 58.8727
94.1816 3362 57.9828
94.2979 3162 56.2317
94.4143 2847 53.3573
94.5307 2649 51.4684
94.6472 2531 50.309
94.7637 2489 49.8899
94.8803 2968 54.4794
94.9969 2986 54.6443
95.1135 2963 54.4334
95.2302 3151 56.1338
95.3469 3158 56.1961
95.4637 3238 56.9034
95.5805 3210 56.6569
95.6973 3148 56.107
95.8142 3304 57.4804
95.9311 3181 56.4004
96.048 2989 54.6717
96.1649 2895 53.8052
96.2819 2880 53.6656
96.3989 2684 51.8073
96.516 2588 50.8724
96.633 2310 48.0625
96.7501 2249 47.4236
96.8673 2291 47.8644
96.9844 2402 49.0102
97.1016 2462 49.6185
97.2188 2699 51.9519
97.336 2874 53.6097
97.4532 2895 53.8052
97.5704 2798 52.8961
97.6877 2787 52.792
97.805 2747 52.4118
97.9223 2532 50.319
98.0396 2299 47.9479
98.1569 2204 46.9468
98.2743 2195 46.8508
98.3916 2252 47.4552
98.509 2387 48.8569
98.6264 2518 50.1797
98.7438 2799 52.9056
98.8612 2823 53.1319
98.9786 2922 54.0555
99.096 3008 54.8452
99.2134 3008 54.8452
99.3308 3051 55.2359
99.4482 3118 55.8391
99.5656 3031 55.0545
99.6831 2888 53.7401
99.8005 2821 53.1131
99.9179 2797 52.8867
100.035 2645 51.4296
100.153 2472 49.7192
100.27 2333 48.3011
100.388 2372 48.7032
100.505 2460 49.5984
100.622 2517 50.1697
100.74 2743 52.3737
100.857 2804 52.9528
100.975 2855 53.4322
101.092 2960 54.4059
101.209 2913 53.9722
101.327 2724 52.192
101.444 2793 52.8488
101.561 2462 49.6185
101.679 2425 49.2443
101.796 2359 48.5695
101.913 2261 47.55
102.03 2433 49.3254
102.148 2642 51.4004
102.265 3037 55.109
102.382 2785 52.7731
102.499 2985 54.6352
102.616 3147 56.0981
102.733 3221 56.7539
102.851 3307 57.5065
102.968 3352 57.8965
103.085 3251 57.0175
103.202 3234 56.8683
103.319 3122 55.8749
103.436 2961 54.4151
103.552 2815 53.0566
103.669 2727 52.2207
103.786 2552 50.5173
103.903 2579 50.7839
104.02 2709 52.0481
104.137 2760 52.5357
104.253 2961 54.4151
104.37 2974 54.5344
104.487 3232 56.8507
104.603 3232 56.8507
104.72 3207 56.6304
104.836 3052 55.2449
104.953 2888 53.7401
105.069 2713 52.0865
105.186 2648 51.4587
105.302 2597 50.9608
105.418 2519 50.1896
105.535 2704 52
105.651 2962 54.4243
105.767 3211 56.6657
105.883 3175 56.3471
105.999 3339 57.7841
106.115 0 1
106.231 0 1
106.347 0 1
106.463 0 1
106.579 0 1
106.694 0 1
106.81 0 1
106.926 0 1
107.041 0 1
107.157 0 1
109.576 0 1
109.692 0 1
109.807 0 1
109.923 0 1
110.039 0 1
110.155 0 1
110.27 0 1
110.386 0 1
110.502 0 1
110.618 2538 50.3786
110.735 2825 53.1507
110.851 3033 55.0727
110.967 3139 56.0268
111.083 3207 56.6304
111.199 3243 56.9473
111.316 3390 58.2237
111.432 3488 59.0593
111.549 3254 57.0438
111.665 3378 58.1206
111.782 3165 56.2583
111.898 3120 55.857
112.015 3060 55.3173
112.132 2917 54.0093
112.248 2682 51.788
112.365 2559 50.5866
112.482 2702 51.9808
112.599 2690 51.8652
112.716 2850 53.3854
112.832 2944 54.2586
112.949 2971 54.5069
113.066 3133 55.9732
113.183 2893 53.7866
113.3 2963 54.4334
113.417 2915 53.9907
113.534 2642 51.4004
113.652 2437 49.366
113.769 2443 49.4267
113.886 2365 48.6313
114.003 2382 48.8057
114.12 2556 50.5569
114.238 2695 51.9134
114.355 2874 53.6097
114.472 3114 55.8032
114.589 2998 54.754
114.707 3192 56.4978
114.824 3364 58
114.942 3363 57.9914
115.059 3258 57.0789
115.176 3335 57.7495
115.294 3260 57.0964
115.411 3118 55.8391
115.529 3107 55.7405
115.646 3018 54.9363
115.764 2781 52.7352
115.881 2761 52.5452
115.999 2685 51.817
116.116 2800 52.915
116.234 2898 53.8331
116.351 3052 55.2449
116.469 3048 55.2087
116.586 3050 55.2268
116.704 3040 55.1362
116.821 3240 56.921
116.939 3018 54.9363
117.056 2865 53.5257
117.174 2754 52.4786
117.291 2629 51.2738
117.409 2545 50.448
117.526 2451 49.5076
117.644 2573 50.7247
117.761 2796 52.8772
117.879 3048 55.2087
117.996 3182 56.4092
118.114 3120 55.857
118.231 3236 56.8859
118.349 3403 58.3352
118.466 3410 58.3952
118.584 3419 58.4722
118.701 3362 57.9828
118.819 3423 58.5064
118.936 3351 57.8878
119.053 3250 57.0088
119.171 3175 56.3471
119.288 3049 55.2178
119.405 2960 54.4059
119.523 2753 52.469
119.64 2845 53.3385
119.757 3030 55.0454
119.875 2963 54.4334
119.992 3137 56.0089
120.109 3038 55.1181
120.226 3161 56.2228
120.343 3112 55.7853
120.46 3060 55.3173
120.578 3120 55.857
120.695 2911 53.9537
120.812 2867 53.5444
120.929 2720 52.1536
121.046 2591 50.9019
121.163 2522 50.2195
121.279 2682 51.788
121.396 2849 53.376
121.513 3021 54.9636
121.63 3050 55.2268
121.747 3215 56.701
121.863 3294 57.3934
121.98 3329 57.6975
122.097 3461 58.8303
122.213 3432 58.5833
122.33 3521 59.338
122.446 3441 58.66
122.563 3506 59.2115
122.679 3207 56.6304
122.795 3171 56.3116
122.912 3054 55.263
123.028 3068 55.3895
123.144 2926 54.0925
123.26 2890 53.7587
123.377 0 1
123.493 0 1
123.609 0 1
123.725 0 1
123.84 0 1
123.956 0 1
124.072 0 1
124.188 0 1
124.303 0 1
124.419 0 1
126.852 0 1
126.968 0 1
127.083 0 1
127.199 0 1
127.315 0 1
127.431 0 1
127.547 0 1
127.663 0 1
127.779 0 1
127.895 0 1
128.011 0 1
128.127 0 1
128.243 0 1
128.359 4069 63.7887
128.476 4014 63.3561
128.592 4114 64.1405
128.708 4360 66.0303
128.825 4448 66.6933
128.941 4626 68.0147
129.058 4706 68.6003
129.174 4730 68.775
129.291 4697 68.5347
129.408 4656 68.2349
129.524 4497 67.0597
129.641 4245 65.1537
129.758 3966 62.9762
129.875 3852 62.0645
129.992 3890 62.3699
130.108 3739 61.1474
130.225 3833 61.9112
130.342 3866 62.1772
130.459 4244 65.146
130.576 4425 66.5207
130.693 4469 66.8506
130.81 4580 67.6757
130.928 4573 67.624
131.045 4586 67.72
131.162 4783 69.1592
131.279 4696 68.5274
131.396 4705 68.593
131.513 4565 67.5648
131.631 4432 66.5733
131.748 4519 67.2235
131.865 4311 65.6582
131.983 4239 65.1076
132.1 4253 65.215
132.217 4249 65.1844
132.335 4420 66.4831
132.452 4552 67.4685
132.57 4513 67.1789
132.687 4485 66.9701
132.804 4769 69.0579
132.922 4550 67.4537
133.039 4338 65.8635
133.157 4239 65.1076
133.274 3982 63.1031
133.392 3741 61.1637
133.509 3733 61.0983
133.627 3688 60.7289
133.744 3722 61.0082
133.862 3917 62.5859
133.979 4033 63.5059
134.097 4145 64.3817
134.214 4291 65.5057
134.332 4313 65.6734
134.449 4422 66.4981
134.567 4520 67.2309
134.684 4606 67.8675
134.802 4561 67.5352
134.919 4610 67.897
135.037 4467 66.8356
135.154 4458 66.7683
135.272 4287 65.4752
135.389 4375 66.1438
135.507 4066 63.7652
135.624 4105 64.0703
135.742 4210 64.8845
135.859 4367 66.0833
135.977 4398 66.3174
136.094 4558 67.513
136.211 4525 67.2681
136.329 4561 67.5352
136.446 4396 66.3023
136.564 4544 67.4092
136.681 4304 65.6049
136.798 4213 64.9076
136.915 4046 63.6082
137.033 3750 61.2372
137.15 3677 60.6383
137.267 3657 60.4731
137.384 3675 60.6218
137.502 3943 62.7933
137.619 3902 62.466
137.736 4171 64.5833
137.853 4026 63.4508
137.97 4173 64.5988
138.087 4265 65.307
138.204 4425 66.5207
138.321 4438 66.6183
138.438 4546 67.424
138.555 4559 67.5204
138.672 4510 67.1565
138.788 4594 67.7791
138.905 4243 65.1383
139.022 4427 66.5357
139.139 4094 63.9844
139.255 4240 65.1153
139.372 4340 65.8787
139.488 4483 66.9552
139.605 4690 68.4836
139.721 4567 67.5796
139.838 4501 67.0895
139.954 4516 67.2012
140.071 4652 68.2056
140.187 4515 67.1937
140.303 4431 66.5658
140.419 4223 64.9846
140.535 4076 63.8436
140.652 3888 62.3538
140.768 0 1
140.884 0 1
141 0 1
141.115 0 1
141.231 0 1
141.347 0 1
141.463 0 1
141.578 0 1
141.694 0 1
144.104 0 1
144.219 0 1
144.335 0 1
144.45 0 1
144.566 0 1
144.682 0 1
144.798 0 1
144.914 0 1
145.03 0 1
145.146 4852 69.6563
145.262 4840 69.5701
145.378 4482 66.9477
145.494 4528 67.2904
145.61 4212 64.8999
145.726 4198 64.792
145.842 4135 64.304
145.959 4256 65.238
146.075 4308 65.6354
146.192 4435 66.5958
146.308 4710 68.6294
146.425 4661 68.2715
146.541 4864 69.7424
146.658 4867 69.7639
146.774 5052 71.0774
146.891 5059 71.1266
147.008 5084 71.3022
147.125 5208 72.1665
147.241 5284 72.6911
147.358 5198 72.0972
147.475 4949 70.3491
147.592 4733 68.7968
147.709 4733 68.7968
147.826 4770 69.0652
147.943 4797 69.2604
148.06 4938 70.2709
148.177 5188 72.0278
148.294 5074 71.232
148.411 5023 70.8731
148.528 5124 71.5821
148.645 4935 70.2496
148.762 5053 71.0845
148.88 4839 69.5629
148.997 4552 67.4685
149.114 4643 68.1396
149.231 4273 65.3682
149.349 4174 64.6065
149.466 3937 62.7455
149.583 4022 63.4192
149.701 4045 63.6003
149.818 4093 63.9766
149.935 4166 64.5446
150.053 4305 65.6125
150.17 4290 65.4981
150.287 4408 66.3928
150.405 4406 66.3777
150.522 4487 66.9851
150.64 4704 68.5857
150.757 4717 68.6804
150.875 4868 69.7711
150.992 4582 67.6905
151.11 4595 67.7864
151.227 4456 66.7533
151.344 4396 66.3023
151.462 4348 65.9394
151.579 4541 67.3869
151.697 4533 67.3276
151.814 4754 68.9493
151.932 4865 69.7496
152.049 4788 69.1954
152.167 4767 69.0435
152.284 4766 69.0362
152.402 4643 68.1396
152.519 4612 67.9117
152.636 4504 67.1118
152.754 4319 65.7191
152.871 4228 65.0231
152.989 3968 62.9921
153.106 3887 62.3458
153.223 3928 62.6738
153.341 4034 63.5138
153.458 4051 63.6475
153.575 4192 64.7457
153.693 4274 65.3758
153.81 4402 66.3476
153.927 4409 66.4003
154.044 4568 67.587
154.162 4528 67.2904
154.279 4817 69.4046
154.396 4707 68.6076
154.513 4903 70.0214
154.63 4836 69.5414
154.747 4818 69.4118
154.864 4623 67.9926
154.981 4584 67.7052
155.098 4543 67.4018
155.215 4652 68.2056
155.332 4915 70.1071
155.449 4827 69.4766
155.566 5200 72.111
155.683 4988 70.6258
155.8 4961 70.4344
155.917 4873 69.8069
156.033 4837 69.5485
156.15 0 1
156.267 0 1
156.383 0 1
156.5 0 1
156.617 0 1
156.733 0 1
156.85 0 1
156.966 0 1
157.082 0 1
157.199 0 1
157.315 0 1
157.431 0 1
157.547 0 1
157.664 0 1
157.78 0 1
157.896 0 1
158.012 0 1
158.128 0 1
158.244 0 1
158.359 0 1
158.475 0 1
158.591 0 1
158.706 0 1
