
6.15755 0 1
6.2731 0 1
6.3887 0 1
6.50437 0 1
6.62009 0 1
6.73587 0 1
6.8517 0 1
6.96759 0 1
7.08353 0 1
7.19952 0 1
7.31557 0 1
7.43166 0 1
7.54781 0 1
7.664 0 1
7.78024 0 1
7.89653 0 1
8.01286 0 1
8.12924 0 1
8.24567 0 1
8.36213 0 1
8.47864 0 1
8.59519 0 1
8.71178 0 1
8.82841 0 1
8.94508 0 1
9.06179 0 1
9.17853 0 1
9.29531 0 1
9.41212 0 1
9.52897 0 1
9.64584 0 1
9.76276 0 1
9.8797 0 1
9.99667 0 1
10.1137 0 1
10.2307 0 1
10.3478 0 1
10.4648 0 1
10.5819 0 1
10.6991 0 1
10.8162 0 1
10.9334 0 1
11.0506 0 1
11.1678 0 1
11.285 0 1
11.4023 0 1
11.5196 0 1
11.6369 0 1
11.7542 0 1
11.8715 0 1
11.9888 0 1
12.1062 0 1
12.2235 0 1
12.3409 0 1
12.4582 0 1
12.5756 0 1
12.693 0 1
12.8104 0 1
12.9278 0 1
13.0452 0 1
13.1626 0 1
13.28 0 1
13.3974 0 1
13.5149 0 1
13.6323 0 1
13.7497 0 1
13.8671 0 1
13.9845 0 1
14.1019 0 1
14.2193 0 1
14.3367 0 1
14.4541 0 1
14.5714 0 1
14.6888 0 1
14.8062 0 1
14.9235 0 1
15.0408 772 27.7849
15.1581 764 27.6405
15.2755 803 28.3373
15.3927 857 29.2746
15.51 874 29.5635
15.6273 794 28.178
15.7445 738 27.1662
15.8617 813 28.5132
15.9789 780 27.9285
16.0961 806 28.3901
16.2132 788 28.0713
16.3304 809 28.4429
16.4475 799 28.2666
16.5646 845 29.0689
16.6816 905 30.0832
16.7986 823 28.688
16.9156 834 28.8791
17.0326 913 30.2159
17.1496 928 30.4631
17.2665 947 30.7734
17.3833 875 29.5804
17.5002 862 29.3598
17.617 824 28.7054
17.7338 800 28.2843
17.8505 780 27.9285
17.9672 791 28.1247
18.0839 834 28.8791
18.2005 830 28.8097
18.3171 817 28.5832
18.4337 826 28.7402
18.5502 809 28.4429
18.6666 819 28.6182
18.7831 856 29.2575
18.8994 838 28.9482
19.0158 801 28.3019
19.1321 822 28.6705
19.2483 713 26.7021
19.3645 718 26.7955
19.4806 695 26.3629
19.5967 652 25.5343
19.7128 588 24.2487
19.8288 569 23.8537
19.9447 509 22.561
20.0606 0 1
20.1764 0 1
20.2922 0 1
20.4079 0 1
20.5236 0 1
20.6392 0 1
20.7548 0 1
20.8702 0 1
23.3078 0 1
23.4233 0 1
23.539 0 1
23.6547 0 1
23.7704 0 1
23.8862 0 1
24.0021 0 1
24.118 0 1
24.234 0 1
24.35 0 1
24.4661 277 16.6433
24.5822 358 18.9209
24.6984 368 19.1833
24.8146 409 20.2237
24.9309 472 21.7256
25.0472 536 23.1517
25.1636 588 24.2487
25.28 622 24.9399
25.3965 686 26.1916
25.513 735 27.1109
25.6296 745 27.2947
25.7462 750 27.3861
25.8628 794 28.178
25.9795 809 28.4429
26.0962 817 28.5832
26.213 742 27.2397
26.3298 751 27.4044
26.4466 687 26.2107
26.5635 682 26.1151
26.6804 671 25.9037
26.7973 728 26.9815
26.9143 655 25.593
27.0313 695 26.3629
27.1483 670 25.8844
27.2653 708 26.6083
27.3824 711 26.6646
27.4996 687 26.2107
27.6167 686 26.1916
27.7339 676 26
27.8511 697 26.4008
27.9683 668 25.8457
28.0855 658 25.6515
28.2028 674 25.9615
28.3201 648 25.4558
28.4374 586 24.2074
28.5547 626 25.02
28.6721 630 25.0998
28.7894 646 25.4165
28.9068 680 26.0768
29.0242 662 25.7294
29.1416 661 25.7099
29.259 730 27.0185
29.3764 692 26.3059
29.4939 737 27.1477
29.6113 670 25.8844
29.7288 710 26.6458
29.8463 678 26.0384
29.9638 662 25.7294
30.0812 655 25.593
30.1987 628 25.0599
30.3162 595 24.3926
30.4337 573 23.9374
30.5512 657 25.632
30.6687 637 25.2389
30.7862 661 25.7099
30.9037 653 25.5539
31.0212 652 25.5343
31.1387 632 25.1396
31.2562 659 25.671
31.3737 646 25.4165
31.4912 618 24.8596
31.6087 620 24.8998
31.7262 640 25.2982
31.8436 587 24.2281
31.9611 532 23.0651
32.0785 510 22.5832
32.1959 572 23.9165
32.3134 593 24.3516
32.4308 655 25.593
32.5482 630 25.0998
32.6655 614 24.779
32.7829 652 25.5343
32.9002 681 26.096
33.0176 666 25.807
33.1349 650 25.4951
33.2522 602 24.5357
33.3694 639 25.2784
33.4867 629 25.0799
33.6039 560 23.6643
33.7211 553 23.516
33.8383 549 23.4307
33.9554 563 23.7276
34.0725 563 23.7276
34.1896 552 23.4947
34.3067 595 24.3926
34.4237 560 23.6643
34.5407 565 23.7697
34.6577 582 24.1247
34.7746 623 24.96
34.8915 537 23.1733
35.0084 595 24.3926
35.1252 551 23.4734
35.242 569 23.8537
35.3587 579 24.0624
35.4755 550 23.4521
35.5921 513 22.6495
35.7088 520 22.8035
35.8254 533 23.0868
35.9419 511 22.6053
36.0584 538 23.1948
36.1749 517 22.7376
36.2913 537 23.1733
36.4077 530 23.0217
36.524 541 23.2594
36.6403 494 22.2261
36.7565 504 22.4499
36.8727 463 21.5174
36.9889 463 21.5174
37.1049 344 18.5472
37.221 0 1
37.3369 0 1
37.4529 0 1
37.5687 0 1
37.6845 0 1
37.8003 0 1
37.916 0 1
38.0316 0 1
38.1472 0 1
40.5851 0 1
40.7008 0 1
40.8164 0 1
40.9322 0 1
41.048 0 1
41.1639 0 1
41.2798 0 1
41.3958 0 1
41.5118 0 1
41.6279 0 1
41.744 246 15.6844
41.8602 260 16.1245
41.9765 306 17.4929
42.0928 328 18.1108
42.2091 332 18.2209
42.3255 329 18.1384
42.4419 354 18.8149
42.5584 375 19.3649
42.675 364 19.0788
42.7915 351 18.735
42.9081 410 20.2485
43.0248 405 20.1246
43.1415 440 20.9762
43.2582 445 21.095
43.375 464 21.5407
43.4918 449 21.1896
43.6087 476 21.8174
43.7256 463 21.5174
43.8425 440 20.9762
43.9595 433 20.8087
44.0765 442 21.0238
44.1935 409 20.2237
44.3106 409 20.2237
44.4277 377 19.4165
44.5448 403 20.0749
44.6619 334 18.2757
44.7791 396 19.8997
44.8963 424 20.5913
45.0136 408 20.199
45.1308 447 21.1424
45.2481 403 20.0749
45.3654 476 21.8174
45.4827 428 20.6882
45.6001 443 21.0476
45.7174 417 20.4206
45.8348 418 20.445
45.9522 446 21.1187
46.0697 366 19.1311
46.1871 403 20.0749
46.3046 401 20.025
46.422 420 20.4939
46.5395 407 20.1742
46.657 423 20.567
46.7745 402 20.0499
46.892 416 20.3961
47.0096 455 21.3307
47.1271 407 20.1742
47.2446 453 21.2838
47.3622 463 21.5174
47.4797 427 20.664
47.5973 398 19.9499
47.7149 407 20.1742
47.8324 445 21.095
47.95 382 19.5448
48.0675 422 20.5426
48.1851 373 19.3132
48.3027 359 18.9473
48.4202 359 18.9473
48.5378 389 19.7231
48.6554 428 20.6882
48.7729 478 21.8632
48.8904 463 21.5174
49.008 492 22.1811
49.1255 462 21.4942
49.243 457 21.3776
49.3605 414 20.347
49.478 423 20.567
49.5955 410 20.2485
49.713 354 18.8149
49.8304 372 19.2873
49.9479 375 19.3649
50.0653 368 19.1833
50.1827 406 20.1494
50.3001 407 20.1742
50.4175 440 20.9762
50.5348 401 20.025
50.6521 444 21.0713
50.7694 398 19.9499
50.8867 454 21.3073
51.004 444 21.0713
51.1212 445 21.095
51.2384 417 20.4206
51.3556 388 19.6977
51.4727 380 19.4936
51.5899 383 19.5704
51.707 369 19.2094
51.824 350 18.7083
51.9411 376 19.3907
52.0581 371 19.2614
52.175 399 19.975
52.2919 396 19.8997
52.4088 426 20.6398
52.5257 426 20.6398
52.6425 428 20.6882
52.7593 397 19.9249
52.876 399 19.975
52.9927 437 20.9045
53.1094 400 20
53.226 387 19.6723
53.3426 399 19.975
53.4591 355 18.8414
53.5756 382 19.5448
53.692 372 19.2873
53.8084 350 18.7083
53.9248 324 18
54.0411 309 17.5784
54.1573 325 18.0278
54.2735 0 1
54.3896 0 1
54.5057 0 1
54.6217 0 1
54.7377 0 1
54.8537 0 1
54.9695 0 1
55.0853 0 1
55.2011 0 1
55.3168 0 1
55.4324 0 1
57.824 0 1
57.9396 0 1
58.0553 0 1
58.1711 0 1
58.2869 0 1
58.4028 0 1
58.5187 0 1
58.6347 0 1
58.7508 0 1
58.8669 0 1
58.983 276 16.6132
59.0992 333 18.2483
59.2155 358 18.9209
59.3318 392 19.799
59.4482 453 21.2838
59.5646 499 22.3383
59.681 472 21.7256
59.7975 490 22.1359
59.9141 523 22.8692
60.0306 480 21.9089
60.1473 522 22.8473
60.2639 459 21.4243
60.3807 421 20.5183
60.4974 475 21.7945
60.6142 438 20.9284
60.731 478 21.8632
60.8479 520 22.8035
60.9648 564 23.7487
61.0818 560 23.6643
61.1987 553 23.516
61.3158 545 23.3452
61.4328 538 23.1948
61.5499 575 23.9792
61.667 544 23.3238
61.7841 509 22.561
61.9013 446 21.1187
62.0185 521 22.8254
62.1357 527 22.9565
62.253 502 22.4054
62.3702 528 22.9783
62.4875 561 23.6854
62.6049 562 23.7065
62.7222 587 24.2281
62.8396 568 23.8328
62.9569 579 24.0624
63.0743 584 24.1661
63.1918 587 24.2281
63.3092 555 23.5584
63.4267 557 23.6008
63.5441 561 23.6854
63.6616 580 24.0832
63.7791 512 22.6274
63.8966 514 22.6716
64.0142 446 21.1187
64.1317 492 22.1811
64.2492 472 21.7256
64.3668 525 22.9129
64.4843 546 23.3666
64.6019 577 24.0208
64.7195 577 24.0208
64.837 636 25.219
64.9546 594 24.3721
65.0722 595 24.3926
65.1898 577 24.0208
65.3074 531 23.0434
65.4249 494 22.2261
65.5425 463 21.5174
65.6601 490 22.1359
65.7777 547 23.388
65.8952 531 23.0434
66.0128 520 22.8035
66.1304 595 24.3926
66.2479 604 24.5764
66.3655 626 25.02
66.483 611 24.7184
66.6005 640 25.2982
66.718 597 24.4336
66.8355 640 25.2982
66.953 643 25.3574
67.0705 617 24.8395
67.1879 586 24.2074
67.3054 556 23.5797
67.4228 520 22.8035
67.5402 454 21.3073
67.6576 467 21.6102
67.7749 497 22.2935
67.8923 477 21.8403
68.0096 544 23.3238
68.1269 570 23.8747
68.2442 583 24.1454
68.3614 621 24.9199
68.4787 639 25.2784
68.5958 599 24.4745
68.713 618 24.8596
68.8302 594 24.3721
68.9473 537 23.1733
69.0643 530 23.0217
69.1814 581 24.1039
69.2984 503 22.4277
69.4154 583 24.1454
69.5323 545 23.3452
69.6492 570 23.8747
69.7661 650 25.4951
69.8829 608 24.6577
69.9997 684 26.1534
70.1165 646 25.4165
70.2332 642 25.3377
70.3499 585 24.1868
70.4665 585 24.1868
70.5831 555 23.5584
70.6996 484 22
70.8161 468 21.6333
70.9326 477 21.8403
71.049 385 19.6214
71.1653 343 18.5203
71.2817 270 16.4317
71.3979 239 15.4596
71.5141 253 15.906
71.6303 214 14.6287
71.7464 223 14.9332
71.8624 0 1
71.9784 0 1
72.0944 0 1
72.2102 0 1
72.3261 0 1
72.4418 0 1
72.5575 0 1
72.6732 0 1
75.1054 0 1
75.2209 0 1
75.3365 0 1
75.4521 0 1
75.5678 0 1
75.6835 0 1
75.7993 0 1
75.9151 0 1
76.031 0 1
76.147 354 18.8149
76.263 439 20.9523
76.3791 418 20.445
76.4952 388 19.6977
76.6113 431 20.7605
76.7276 421 20.5183
76.8438 455 21.3307
76.9601 477 21.8403
77.0765 515 22.6936
77.1929 511 22.6053
77.3093 584 24.1661
77.4258 539 23.2164
77.5423 586 24.2074
77.6589 568 23.8328
77.7755 536 23.1517
77.8921 591 24.3105
78.0088 503 22.4277
78.1256 478 21.8632
78.2423 450 21.2132
78.3591 477 21.8403
78.4759 460 21.4476
78.5928 524 22.891
78.7097 511 22.6053
78.8266 542 23.2809
78.9436 572 23.9165
79.0606 566 23.7908
79.1776 604 24.5764
79.2946 593 24.3516
79.4117 570 23.8747
79.5288 596 24.4131
79.6459 583 24.1454
79.7631 561 23.6854
79.8802 521 22.8254
79.9974 473 21.7486
80.1147 472 21.7256
80.2319 437 20.9045
80.3491 397 19.9249
80.4664 436 20.8806
80.5837 456 21.3542
80.701 493 22.2036
80.8183 510 22.5832
80.9357 534 23.1084
81.053 551 23.4734
81.1704 523 22.8692
81.2877 523 22.8692
81.4051 536 23.1517
81.5225 525 22.9129
81.6399 513 22.6495
81.7573 450 21.2132
81.8747 403 20.0749
81.9922 428 20.6882
82.1096 447 21.1424
82.227 458 21.4009
82.3444 502 22.4054
82.4619 495 22.2486
82.5793 515 22.6936
82.6967 522 22.8473
82.8142 555 23.5584
82.9316 569 23.8537
83.049 535 23.1301
83.1664 528 22.9783
83.2838 443 21.0476
83.4012 451 21.2368
83.5186 457 21.3776
83.636 460 21.4476
83.7534 437 20.9045
83.8708 379 19.4679
83.9881 388 19.6977
84.1055 372 19.2873
84.2228 394 19.8494
84.3401 375 19.3649
84.4575 431 20.7605
84.5747 498 22.3159
84.692 485 22.0227
84.8093 478 21.8632
84.9265 482 21.9545
85.0437 445 21.095
85.1609 471 21.7025
85.2781 402 20.0499
85.3952 367 19.1572
85.5123 391 19.7737
85.6294 362 19.0263
85.7465 381 19.5192
85.8636 439 20.9523
85.9806 452 21.2603
86.0976 475 21.7945
86.2145 480 21.9089
86.3315 502 22.4054
86.4484 462 21.4942
86.5652 469 21.6564
86.682 498 22.3159
86.7988 448 21.166
86.9156 435 20.8567
87.0323 417 20.4206
87.149 405 20.1246
87.2657 427 20.664
87.3823 358 18.9209
87.4988 312 17.6635
87.6154 287 16.9411
87.7318 257 16.0312
87.8483 300 17.3205
87.9647 294 17.1464
88.081 290 17.0294
88.1973 316 17.7764
88.3136 342 18.4932
88.4298 294 17.1464
88.546 271 16.4621
88.6621 263 16.2173
88.7781 191 13.8203
88.8942 0 1
89.0101 0 1
89.126 0 1
89.2419 0 1
89.3577 0 1
89.4734 0 1
89.5891 0 1
89.7047 0 1
89.8203 0 1
89.9358 0 1
92.3269 0 1
92.4424 0 1
92.558 0 1
92.6736 0 1
92.7893 0 1
92.905 0 1
93.0208 0 1
93.1366 0 1
93.2525 0 1
93.3685 0 1
93.4845 0 1
93.6005 241 15.5242
93.7167 304 17.4356
93.8328 276 16.6132
93.949 335 18.303
94.0653 342 18.4932
94.1816 372 19.2873
94.2979 334 18.2757
94.4143 317 17.8045
94.5307 327 18.0831
94.6472 289 17
94.7637 312 17.6635
94.8803 303 17.4069
94.9969 346 18.6011
95.1135 357 18.8944
95.2302 353 18.7883
95.3469 403 20.0749
95.4637 393 19.8242
95.5805 409 20.2237
95.6973 389 19.7231
95.8142 403 20.0749
95.9311 425 20.6155
96.048 400 20
96.1649 392 19.799
96.2819 368 19.1833
96.3989 362 19.0263
96.516 331 18.1934
96.633 303 17.4069
96.7501 328 18.1108
96.8673 279 16.7033
96.9844 310 17.6068
97.1016 308 17.5499
97.2188 348 18.6548
97.336 385 19.6214
97.4532 346 18.6011
97.5704 396 19.8997
97.6877 411 20.2731
97.805 385 19.6214
97.9223 365 19.105
98.0396 373 19.3132
98.1569 311 17.6352
98.2743 302 17.3781
98.3916 307 17.5214
98.509 319 17.8606
98.6264 327 18.0831
98.7438 365 19.105
98.8612 374 19.3391
98.9786 377 19.4165
99.096 451 21.2368
99.2134 435 20.8567
99.3308 385 19.6214
99.4482 422 20.5426
99.5656 420 20.4939
99.6831 377 19.4165
99.8005 401 20.025
99.9179 402 20.0499
100.035 401 20.025
100.153 339 18.412
100.27 343 18.5203
100.388 284 16.8523
100.505 313 17.6918
100.622 346 18.6011
100.74 332 18.2209
100.857 340 18.4391
100.975 359 18.9473
101.092 382 19.5448
101.209 357 18.8944
101.327 419 20.4695
101.444 393 19.8242
101.561 341 18.4662
101.679 336 18.3303
101.796 300 17.3205
101.913 295 17.1756
102.03 324 18
102.148 326 18.0555
102.265 356 18.868
102.382 398 19.9499
102.499 362 19.0263
102.616 398 19.9499
102.733 423 20.567
102.851 414 20.347
102.968 432 20.7846
103.085 413 20.3224
103.202 434 20.8327
103.319 416 20.3961
103.436 423 20.567
103.552 372 19.2873
103.669 370 19.2354
103.786 339 18.412
103.903 338 18.3848
104.02 278 16.6733
104.137 340 18.4391
104.253 308 17.5499
104.37 329 18.1384
104.487 389 19.7231
104.603 370 19.2354
104.72 419 20.4695
104.836 397 19.9249
104.953 344 18.5472
105.069 332 18.2209
105.186 286 16.9115
105.302 259 16.0935
105.418 269 16.4012
105.535 275 16.5831
105.651 266 16.3095
105.767 246 15.6844
105.883 248 15.748
105.999 252 15.8745
106.115 0 1
106.231 0 1
106.347 0 1
106.463 0 1
106.579 0 1
106.694 0 1
106.81 0 1
106.926 0 1
107.041 0 1
107.157 0 1
109.576 0 1
109.692 0 1
109.807 0 1
109.923 0 1
110.039 0 1
110.155 0 1
110.27 0 1
110.386 0 1
110.502 0 1
110.618 134 11.5758
110.735 203 14.2478
110.851 207 14.3875
110.967 271 16.4621
111.083 271 16.4621
111.199 304 17.4356
111.316 287 16.9411
111.432 320 17.8885
111.549 327 18.0831
111.665 331 18.1934
111.782 347 18.6279
111.898 349 18.6815
112.015 320 17.8885
112.132 334 18.2757
112.248 300 17.3205
112.365 295 17.1756
112.482 255 15.9687
112.599 269 16.4012
112.716 253 15.906
112.832 253 15.906
112.949 310 17.6068
113.066 333 18.2483
113.183 351 18.735
113.3 341 18.4662
113.417 327 18.0831
113.534 330 18.1659
113.652 322 17.9444
113.769 292 17.088
113.886 297 17.2337
114.003 282 16.7929
114.12 297 17.2337
114.238 273 16.5227
114.355 339 18.412
114.472 294 17.1464
114.589 330 18.1659
114.707 363 19.0526
114.824 311 17.6352
114.942 362 19.0263
115.059 354 18.8149
115.176 366 19.1311
115.294 345 18.5742
115.411 330 18.1659
115.529 344 18.5472
115.646 323 17.9722
115.764 342 18.4932
115.881 292 17.088
115.999 288 16.9706
116.116 276 16.6132
116.234 271 16.4621
116.351 300 17.3205
116.469 273 16.5227
116.586 358 18.9209
116.704 351 18.735
116.821 343 18.5203
116.939 325 18.0278
117.056 315 17.7482
117.174 292 17.088
117.291 305 17.4642
117.409 245 15.6525
117.526 288 16.9706
117.644 281 16.7631
117.761 262 16.1864
117.879 311 17.6352
117.996 340 18.4391
118.114 329 18.1384
118.231 330 18.1659
118.349 332 18.2209
118.466 354 18.8149
118.584 353 18.7883
118.701 337 18.3576
118.819 355 18.8414
118.936 325 18.0278
119.053 317 17.8045
119.171 312 17.6635
119.288 301 17.3494
119.405 304 17.4356
119.523 284 16.8523
119.64 264 16.2481
119.757 261 16.1555
119.875 254 15.9374
119.992 254 15.9374
120.109 256 16
120.226 339 18.412
120.343 308 17.5499
120.46 294 17.1464
120.578 305 17.4642
120.695 332 18.2209
120.812 357 18.8944
120.929 302 17.3781
121.046 295 17.1756
121.163 295 17.1756
121.279 253 15.906
121.396 272 16.4924
121.513 286 16.9115
121.63 262 16.1864
121.747 265 16.2788
121.863 315 17.7482
121.98 285 16.8819
122.097 290 17.0294
122.213 303 17.4069
122.33 288 16.9706
122.446 254 15.9374
122.563 237 15.3948
122.679 232 15.2315
122.795 229 15.1327
122.912 207 14.3875
123.028 161 12.6886
123.144 148 12.1655
123.26 142 11.9164
123.377 0 1
123.493 0 1
123.609 0 1
123.725 0 1
123.84 0 1
123.956 0 1
124.072 0 1
124.188 0 1
124.303 0 1
124.419 0 1
126.852 0 1
126.968 0 1
127.083 0 1
127.199 0 1
127.315 0 1
127.431 0 1
127.547 0 1
127.663 0 1
127.779 0 1
127.895 0 1
128.011 0 1
128.127 0 1
128.243 0 1
128.359 310 17.6068
128.476 283 16.8226
128.592 308 17.5499
128.708 313 17.6918
128.825 242 15.5563
128.941 274 16.5529
129.058 290 17.0294
129.174 298 17.2627
129.291 349 18.6815
129.408 314 17.72
129.524 340 18.4391
129.641 374 19.3391
129.758 402 20.0499
129.875 338 18.3848
129.992 315 17.7482
130.108 324 18
130.225 299 17.2916
130.342 305 17.4642
130.459 291 17.0587
130.576 321 17.9165
130.693 345 18.5742
130.81 334 18.2757
130.928 370 19.2354
131.045 321 17.9165
131.162 390 19.7484
131.279 340 18.4391
131.396 384 19.5959
131.513 376 19.3907
131.631 355 18.8414
131.748 349 18.6815
131.865 337 18.3576
131.983 327 18.0831
132.1 314 17.72
132.217 311 17.6352
132.335 311 17.6352
132.452 310 17.6068
132.57 342 18.4932
132.687 323 17.9722
132.804 293 17.1172
132.922 367 19.1572
133.039 362 19.0263
133.157 364 19.0788
133.274 378 19.4422
133.392 345 18.5742
133.509 349 18.6815
133.627 339 18.412
133.744 322 17.9444
133.862 305 17.4642
133.979 288 16.9706
134.097 336 18.3303
134.214 344 18.5472
134.332 317 17.8045
134.449 371 19.2614
134.567 356 18.868
134.684 349 18.6815
134.802 391 19.7737
134.919 387 19.6723
135.037 338 18.3848
135.154 352 18.7617
135.272 340 18.4391
135.389 339 18.412
135.507 354 18.8149
135.624 346 18.6011
135.742 333 18.2483
135.859 299 17.2916
135.977 291 17.0587
136.094 317 17.8045
136.211 328 18.1108
136.329 315 17.7482
136.446 348 18.6548
136.564 363 19.0526
136.681 375 19.3649
136.798 369 19.2094
136.915 342 18.4932
137.033 360 18.9737
137.15 336 18.3303
137.267 324 18
137.384 321 17.9165
137.502 310 17.6068
137.619 273 16.5227
137.736 339 18.412
137.853 310 17.6068
137.97 377 19.4165
138.087 333 18.2483
138.204 335 18.303
138.321 332 18.2209
138.438 341 18.4662
138.555 393 19.8242
138.672 352 18.7617
138.788 342 18.4932
138.905 339 18.412
139.022 324 18
139.139 295 17.1756
139.255 262 16.1864
139.372 266 16.3095
139.488 253 15.906
139.605 230 15.1658
139.721 217 14.7309
139.838 215 14.6629
139.954 173 13.1529
140.071 195 13.9642
140.187 174 13.1909
140.303 189 13.7477
140.419 175 13.2288
140.535 165 12.8452
140.652 133 11.5326
140.768 0 1
140.884 0 1
141 0 1
141.115 0 1
141.231 0 1
141.347 0 1
141.463 0 1
141.578 0 1
141.694 0 1
144.104 0 1
144.219 0 1
144.335 0 1
144.45 0 1
144.566 0 1
144.682 0 1
144.798 0 1
144.914 0 1
145.03 0 1
145.146 213 14.5945
145.262 266 16.3095
145.378 252 15.8745
145.494 257 16.0312
145.61 310 17.6068
145.726 277 16.6433
145.842 283 16.8226
145.959 266 16.3095
146.075 225 15
146.192 258 16.0624
146.308 217 14.7309
146.425 233 15.2643
146.541 238 15.4272
146.658 277 16.6433
146.774 288 16.9706
146.891 257 16.0312
147.008 318 17.8326
147.125 261 16.1555
147.241 264 16.2481
147.358 280 16.7332
147.475 294 17.1464
147.592 258 16.0624
147.709 291 17.0587
147.826 277 16.6433
147.943 260 16.1245
148.06 292 17.088
148.177 271 16.4621
148.294 252 15.8745
148.411 277 16.6433
148.528 235 15.3297
148.645 238 15.4272
148.762 261 16.1555
148.88 263 16.2173
148.997 300 17.3205
149.114 297 17.2337
149.231 309 17.5784
149.349 279 16.7033
149.466 241 15.5242
149.583 264 16.2481
149.701 259 16.0935
149.818 262 16.1864
149.935 255 15.9687
150.053 231 15.1987
150.17 255 15.9687
150.287 267 16.3401
150.405 277 16.6433
150.522 279 16.7033
150.64 242 15.5563
150.757 305 17.4642
150.875 298 17.2627
150.992 272 16.4924
151.11 274 16.5529
151.227 264 16.2481
151.344 266 16.3095
151.462 278 16.6733
151.579 240 15.4919
151.697 275 16.5831
151.814 246 15.6844
151.932 237 15.3948
152.049 225 15
152.167 267 16.3401
152.284 228 15.0997
152.402 268 16.3707
152.519 298 17.2627
152.636 296 17.2047
152.754 291 17.0587
152.871 257 16.0312
152.989 268 16.3707
153.106 268 16.3707
153.223 229 15.1327
153.341 267 16.3401
153.458 243 15.5885
153.575 240 15.4919
153.693 247 15.7162
153.81 268 16.3707
153.927 262 16.1864
154.044 240 15.4919
154.162 277 16.6433
154.279 278 16.6733
154.396 272 16.4924
154.513 291 17.0587
154.63 282 16.7929
154.747 262 16.1864
154.864 253 15.906
154.981 268 16.3707
155.098 243 15.5885
155.215 257 16.0312
155.332 262 16.1864
155.449 238 15.4272
155.566 237 15.3948
155.683 241 15.5242
155.8 226 15.0333
155.917 233 15.2643
156.033 232 15.2315
156.15 0 1
156.267 0 1
156.383 0 1
156.5 0 1
156.617 0 1
156.733 0 1
156.85 0 1
156.966 0 1
157.082 0 1
157.199 0 1
157.315 0 1
157.431 0 1
157.547 0 1
157.664 0 1
157.78 0 1
157.896 0 1
158.012 0 1
158.128 0 1
158.244 0 1
158.359 0 1
158.475 0 1
158.591 0 1
158.706 0 1
