
6.15755 0 1
6.2731 0 1
6.3887 0 1
6.50437 0 1
6.62009 0 1
6.73587 0 1
6.8517 0 1
6.96759 0 1
7.08353 0 1
7.19952 0 1
7.31557 0 1
7.43166 0 1
7.54781 0 1
7.664 0 1
7.78024 0 1
7.89653 0 1
8.01286 0 1
8.12924 0 1
8.24567 0 1
8.36213 0 1
8.47864 0 1
8.59519 0 1
8.71178 0 1
8.82841 0 1
8.94508 0 1
9.06179 0 1
9.17853 0 1
9.29531 0 1
9.41212 0 1
9.52897 0 1
9.64584 0 1
9.76276 0 1
9.8797 0 1
9.99667 0 1
10.1137 0 1
10.2307 0 1
10.3478 0 1
10.4648 0 1
10.5819 0 1
10.6991 0 1
10.8162 0 1
10.9334 0 1
11.0506 0 1
11.1678 0 1
11.285 0 1
11.4023 0 1
11.5196 0 1
11.6369 0 1
11.7542 0 1
11.8715 0 1
11.9888 0 1
12.1062 0 1
12.2235 0 1
12.3409 0 1
12.4582 0 1
12.5756 0 1
12.693 0 1
12.8104 0 1
12.9278 0 1
13.0452 0 1
13.1626 0 1
13.28 0 1
13.3974 0 1
13.5149 0 1
13.6323 0 1
13.7497 0 1
13.8671 0 1
13.9845 0 1
14.1019 0 1
14.2193 0 1
14.3367 0 1
14.4541 0 1
14.5714 0 1
14.6888 0 1
14.8062 0 1
14.9235 0 1
15.0408 0 0
15.1581 0 0
15.2755 0 0
15.3927 0 0
15.51 0 0
15.6273 0 0
15.7445 0 0
15.8617 0 0
15.9789 0 0
16.0961 0 0
16.2132 0 0
16.3304 0 0
16.4475 0 0
16.5646 0 0
16.6816 0 0
16.7986 0 0
16.9156 0 0
17.0326 0 0
17.1496 0 0
17.2665 0 0
17.3833 0 0
17.5002 0 0
17.617 0 0
17.7338 0 0
17.8505 0 0
17.9672 0 0
18.0839 0 0
18.2005 0 0
18.3171 0 0
18.4337 0 0
18.5502 0 0
18.6666 0 0
18.7831 0 0
18.8994 0 0
19.0158 0 0
19.1321 0 0
19.2483 0 0
19.3645 0 0
19.4806 0 0
19.5967 0 0
19.7128 0 0
19.8288 0 0
19.9447 0 0
20.0606 0 1
20.1764 0 1
20.2922 0 1
20.4079 0 1
20.5236 0 1
20.6392 0 1
20.7548 0 1
20.8702 0 1
23.3078 0 1
23.4233 0 1
23.539 0 1
23.6547 0 1
23.7704 0 1
23.8862 0 1
24.0021 0 1
24.118 0 1
24.234 0 1
24.35 0 1
24.4661 282 16.7929
24.5822 264 16.2481
24.6984 326 18.0555
24.8146 389 19.7231
24.9309 417 20.4206
25.0472 397 19.9249
25.1636 419 20.4695
25.28 417 20.4206
25.3965 445 21.095
25.513 457 21.3776
25.6296 500 22.3607
25.7462 482 21.9545
25.8628 506 22.4944
25.9795 531 23.0434
26.0962 527 22.9565
26.213 523 22.8692
26.3298 516 22.7156
26.4466 507 22.5167
26.5635 507 22.5167
26.6804 524 22.891
26.7973 500 22.3607
26.9143 544 23.3238
27.0313 512 22.6274
27.1483 557 23.6008
27.2653 539 23.2164
27.3824 551 23.4734
27.4996 527 22.9565
27.6167 536 23.1517
27.7339 539 23.2164
27.8511 550 23.4521
27.9683 527 22.9565
28.0855 466 21.587
28.2028 487 22.0681
28.3201 498 22.3159
28.4374 469 21.6564
28.5547 444 21.0713
28.6721 471 21.7025
28.7894 477 21.8403
28.9068 460 21.4476
29.0242 483 21.9773
29.1416 444 21.0713
29.259 472 21.7256
29.3764 479 21.8861
29.4939 466 21.587
29.6113 435 20.8567
29.7288 496 22.2711
29.8463 458 21.4009
29.9638 460 21.4476
30.0812 476 21.8174
30.1987 494 22.2261
30.3162 473 21.7486
30.4337 477 21.8403
30.5512 459 21.4243
30.6687 506 22.4944
30.7862 482 21.9545
30.9037 540 23.2379
31.0212 527 22.9565
31.1387 517 22.7376
31.2562 476 21.8174
31.3737 478 21.8632
31.4912 473 21.7486
31.6087 488 22.0907
31.7262 489 22.1133
31.8436 453 21.2838
31.9611 455 21.3307
32.0785 477 21.8403
32.1959 452 21.2603
32.3134 446 21.1187
32.4308 449 21.1896
32.5482 420 20.4939
32.6655 453 21.2838
32.7829 431 20.7605
32.9002 432 20.7846
33.0176 406 20.1494
33.1349 403 20.0749
33.2522 470 21.6795
33.3694 448 21.166
33.4867 451 21.2368
33.6039 423 20.567
33.7211 454 21.3073
33.8383 458 21.4009
33.9554 484 22
34.0725 449 21.1896
34.1896 488 22.0907
34.3067 486 22.0454
34.4237 454 21.3073
34.5407 506 22.4944
34.6577 532 23.0651
34.7746 522 22.8473
34.8915 497 22.2935
35.0084 489 22.1133
35.1252 474 21.7715
35.242 447 21.1424
35.3587 460 21.4476
35.4755 427 20.664
35.5921 449 21.1896
35.7088 421 20.5183
35.8254 457 21.3776
35.9419 420 20.4939
36.0584 436 20.8806
36.1749 440 20.9762
36.2913 355 18.8414
36.4077 401 20.025
36.524 341 18.4662
36.6403 376 19.3907
36.7565 329 18.1384
36.8727 325 18.0278
36.9889 320 17.8885
37.1049 315 17.7482
37.221 0 1
37.3369 0 1
37.4529 0 1
37.5687 0 1
37.6845 0 1
37.8003 0 1
37.916 0 1
38.0316 0 1
38.1472 0 1
40.5851 0 1
40.7008 0 1
40.8164 0 1
40.9322 0 1
41.048 0 1
41.1639 0 1
41.2798 0 1
41.3958 0 1
41.5118 0 1
41.6279 0 1
41.744 179 13.3791
41.8602 203 14.2478
41.9765 224 14.9666
42.0928 248 15.748
42.2091 257 16.0312
42.3255 278 16.6733
42.4419 270 16.4317
42.5584 288 16.9706
42.675 339 18.412
42.7915 337 18.3576
42.9081 366 19.1311
43.0248 333 18.2483
43.1415 393 19.8242
43.2582 413 20.3224
43.375 435 20.8567
43.4918 372 19.2873
43.6087 438 20.9284
43.7256 382 19.5448
43.8425 377 19.4165
43.9595 405 20.1246
44.0765 340 18.4391
44.1935 387 19.6723
44.3106 382 19.5448
44.4277 355 18.8414
44.5448 357 18.8944
44.6619 327 18.0831
44.7791 365 19.105
44.8963 343 18.5203
45.0136 374 19.3391
45.1308 371 19.2614
45.2481 319 17.8606
45.3654 356 18.868
45.4827 340 18.4391
45.6001 339 18.412
45.7174 313 17.6918
45.8348 338 18.3848
45.9522 367 19.1572
46.0697 368 19.1833
46.1871 390 19.7484
46.3046 393 19.8242
46.422 367 19.1572
46.5395 356 18.868
46.657 357 18.8944
46.7745 436 20.8806
46.892 423 20.567
47.0096 401 20.025
47.1271 419 20.4695
47.2446 420 20.4939
47.3622 408 20.199
47.4797 421 20.5183
47.5973 412 20.2978
47.7149 420 20.4939
47.8324 432 20.7846
47.95 396 19.8997
48.0675 397 19.9249
48.1851 365 19.105
48.3027 367 19.1572
48.4202 377 19.4165
48.5378 349 18.6815
48.6554 333 18.2483
48.7729 322 17.9444
48.8904 309 17.5784
49.008 303 17.4069
49.1255 322 17.9444
49.243 318 17.8326
49.3605 344 18.5472
49.478 324 18
49.5955 375 19.3649
49.713 359 18.9473
49.8304 411 20.2731
49.9479 364 19.0788
50.0653 368 19.1833
50.1827 412 20.2978
50.3001 412 20.2978
50.4175 406 20.1494
50.5348 449 21.1896
50.6521 425 20.6155
50.7694 423 20.567
50.8867 426 20.6398
51.004 410 20.2485
51.1212 427 20.664
51.2384 396 19.8997
51.3556 403 20.0749
51.4727 394 19.8494
51.5899 352 18.7617
51.707 381 19.5192
51.824 341 18.4662
51.9411 342 18.4932
52.0581 367 19.1572
52.175 361 19
52.2919 344 18.5472
52.4088 315 17.7482
52.5257 328 18.1108
52.6425 327 18.0831
52.7593 328 18.1108
52.876 360 18.9737
52.9927 311 17.6352
53.1094 336 18.3303
53.226 358 18.9209
53.3426 383 19.5704
53.4591 349 18.6815
53.5756 334 18.2757
53.692 330 18.1659
53.8084 295 17.1756
53.9248 360 18.9737
54.0411 314 17.72
54.1573 305 17.4642
54.2735 0 1
54.3896 0 1
54.5057 0 1
54.6217 0 1
54.7377 0 1
54.8537 0 1
54.9695 0 1
55.0853 0 1
55.2011 0 1
55.3168 0 1
55.4324 0 1
57.824 0 1
57.9396 0 1
58.0553 0 1
58.1711 0 1
58.2869 0 1
58.4028 0 1
58.5187 0 1
58.6347 0 1
58.7508 0 1
58.8669 0 1
58.983 259 16.0935
59.0992 319 17.8606
59.2155 333 18.2483
59.3318 386 19.6469
59.4482 407 20.1742
59.5646 422 20.5426
59.681 473 21.7486
59.7975 462 21.4942
59.9141 481 21.9317
60.0306 449 21.1896
60.1473 462 21.4942
60.2639 507 22.5167
60.3807 428 20.6882
60.4974 476 21.8174
60.6142 474 21.7715
60.731 448 21.166
60.8479 473 21.7486
60.9648 408 20.199
61.0818 384 19.5959
61.1987 364 19.0788
61.3158 387 19.6723
61.4328 364 19.0788
61.5499 389 19.7231
61.667 403 20.0749
61.7841 395 19.8746
61.9013 435 20.8567
62.0185 466 21.587
62.1357 451 21.2368
62.253 514 22.6716
62.3702 498 22.3159
62.4875 492 22.1811
62.6049 516 22.7156
62.7222 561 23.6854
62.8396 521 22.8254
62.9569 503 22.4277
63.0743 537 23.1733
63.1918 559 23.6432
63.3092 519 22.7816
63.4267 512 22.6274
63.5441 484 22
63.6616 494 22.2261
63.7791 491 22.1585
63.8966 445 21.095
64.0142 430 20.7364
64.1317 462 21.4942
64.2492 454 21.3073
64.3668 394 19.8494
64.4843 384 19.5959
64.6019 401 20.025
64.7195 351 18.735
64.837 358 18.9209
64.9546 425 20.6155
65.0722 355 18.8414
65.1898 397 19.9249
65.3074 394 19.8494
65.4249 410 20.2485
65.5425 432 20.7846
65.6601 455 21.3307
65.7777 520 22.8035
65.8952 522 22.8473
66.0128 511 22.6053
66.1304 506 22.4944
66.2479 473 21.7486
66.3655 506 22.4944
66.483 573 23.9374
66.6005 534 23.1084
66.718 513 22.6495
66.8355 485 22.0227
66.953 497 22.2935
67.0705 476 21.8174
67.1879 473 21.7486
67.3054 485 22.0227
67.4228 469 21.6564
67.5402 460 21.4476
67.6576 492 22.1811
67.7749 413 20.3224
67.8923 400 20
68.0096 445 21.095
68.1269 390 19.7484
68.2442 327 18.0831
68.3614 388 19.6977
68.4787 396 19.8997
68.5958 330 18.1659
68.713 351 18.735
68.8302 386 19.6469
68.9473 377 19.4165
69.0643 434 20.8327
69.1814 415 20.3715
69.2984 449 21.1896
69.4154 462 21.4942
69.5323 469 21.6564
69.6492 482 21.9545
69.7661 451 21.2368
69.8829 469 21.6564
69.9997 478 21.8632
70.1165 446 21.1187
70.2332 462 21.4942
70.3499 413 20.3224
70.4665 446 21.1187
70.5831 435 20.8567
70.6996 386 19.6469
70.8161 367 19.1572
70.9326 358 18.9209
71.049 318 17.8326
71.1653 329 18.1384
71.2817 305 17.4642
71.3979 279 16.7033
71.5141 241 15.5242
71.6303 180 13.4164
71.7464 171 13.0767
71.8624 0 1
71.9784 0 1
72.0944 0 1
72.2102 0 1
72.3261 0 1
72.4418 0 1
72.5575 0 1
72.6732 0 1
75.1054 0 1
75.2209 0 1
75.3365 0 1
75.4521 0 1
75.5678 0 1
75.6835 0 1
75.7993 0 1
75.9151 0 1
76.031 0 1
76.147 298 17.2627
76.263 329 18.1384
76.3791 347 18.6279
76.4952 369 19.2094
76.6113 384 19.5959
76.7276 359 18.9473
76.8438 351 18.735
76.9601 358 18.9209
77.0765 348 18.6548
77.1929 377 19.4165
77.3093 318 17.8326
77.4258 283 16.8226
77.5423 319 17.8606
77.6589 286 16.9115
77.7755 301 17.3494
77.8921 320 17.8885
78.0088 363 19.0526
78.1256 343 18.5203
78.2423 378 19.4422
78.3591 358 18.9209
78.4759 394 19.8494
78.5928 416 20.3961
78.7097 436 20.8806
78.8266 419 20.4695
78.9436 464 21.5407
79.0606 424 20.5913
79.1776 388 19.6977
79.2946 455 21.3307
79.4117 432 20.7846
79.5288 432 20.7846
79.6459 445 21.095
79.7631 427 20.664
79.8802 427 20.664
79.9974 413 20.3224
80.1147 400 20
80.2319 410 20.2485
80.3491 410 20.2485
80.4664 424 20.5913
80.5837 402 20.0499
80.701 347 18.6279
80.8183 353 18.7883
80.9357 335 18.303
81.053 266 16.3095
81.1704 306 17.4929
81.2877 311 17.6352
81.4051 312 17.6635
81.5225 306 17.4929
81.6399 372 19.2873
81.7573 377 19.4165
81.8747 379 19.4679
81.9922 362 19.0263
82.1096 467 21.6102
82.227 432 20.7846
82.3444 422 20.5426
82.4619 437 20.9045
82.5793 419 20.4695
82.6967 459 21.4243
82.8142 440 20.9762
82.9316 468 21.6333
83.049 456 21.3542
83.1664 421 20.5183
83.2838 420 20.4939
83.4012 415 20.3715
83.5186 441 21
83.636 422 20.5426
83.7534 456 21.3542
83.8708 421 20.5183
83.9881 424 20.5913
84.1055 366 19.1311
84.2228 426 20.6398
84.3401 358 18.9209
84.4575 343 18.5203
84.5747 318 17.8326
84.692 317 17.8045
84.8093 331 18.1934
84.9265 313 17.6918
85.0437 306 17.4929
85.1609 317 17.8045
85.2781 323 17.9722
85.3952 343 18.5203
85.5123 362 19.0263
85.6294 383 19.5704
85.7465 422 20.5426
85.8636 424 20.5913
85.9806 461 21.4709
86.0976 470 21.6795
86.2145 416 20.3961
86.3315 459 21.4243
86.4484 472 21.7256
86.5652 495 22.2486
86.682 460 21.4476
86.7988 450 21.2132
86.9156 454 21.3073
87.0323 425 20.6155
87.149 456 21.3542
87.2657 413 20.3224
87.3823 407 20.1742
87.4988 425 20.6155
87.6154 371 19.2614
87.7318 326 18.0555
87.8483 301 17.3494
87.9647 305 17.4642
88.081 260 16.1245
88.1973 255 15.9687
88.3136 210 14.4914
88.4298 203 14.2478
88.546 225 15
88.6621 218 14.7648
88.7781 210 14.4914
88.8942 0 1
89.0101 0 1
89.126 0 1
89.2419 0 1
89.3577 0 1
89.4734 0 1
89.5891 0 1
89.7047 0 1
89.8203 0 1
89.9358 0 1
92.3269 0 1
92.4424 0 1
92.558 0 1
92.6736 0 1
92.7893 0 1
92.905 0 1
93.0208 0 1
93.1366 0 1
93.2525 0 1
93.3685 0 1
93.4845 0 1
93.6005 277 16.6433
93.7167 263 16.2173
93.8328 248 15.748
93.949 299 17.2916
94.0653 298 17.2627
94.1816 303 17.4069
94.2979 390 19.7484
94.4143 346 18.6011
94.5307 422 20.5426
94.6472 391 19.7737
94.7637 439 20.9523
94.8803 441 21
94.9969 449 21.1896
95.1135 470 21.6795
95.2302 479 21.8861
95.3469 471 21.7025
95.4637 487 22.0681
95.5805 454 21.3073
95.6973 534 23.1084
95.8142 495 22.2486
95.9311 444 21.0713
96.048 484 22
96.1649 403 20.0749
96.2819 427 20.664
96.3989 467 21.6102
96.516 395 19.8746
96.633 477 21.8403
96.7501 461 21.4709
96.8673 458 21.4009
96.9844 404 20.0998
97.1016 415 20.3715
97.2188 353 18.7883
97.336 385 19.6214
97.4532 286 16.9115
97.5704 341 18.4662
97.6877 322 17.9444
97.805 341 18.4662
97.9223 338 18.3848
98.0396 350 18.7083
98.1569 368 19.1833
98.2743 392 19.799
98.3916 421 20.5183
98.509 442 21.0238
98.6264 439 20.9523
98.7438 530 23.0217
98.8612 433 20.8087
98.9786 521 22.8254
99.096 495 22.2486
99.2134 511 22.6053
99.3308 535 23.1301
99.4482 529 23
99.5656 460 21.4476
99.6831 485 22.0227
99.8005 439 20.9523
99.9179 462 21.4942
100.035 496 22.2711
100.153 474 21.7715
100.27 443 21.0476
100.388 440 20.9762
100.505 492 22.1811
100.622 446 21.1187
100.74 475 21.7945
100.857 392 19.799
100.975 359 18.9473
101.092 335 18.303
101.209 350 18.7083
101.327 355 18.8414
101.444 366 19.1311
101.561 394 19.8494
101.679 411 20.2731
101.796 446 21.1187
101.913 472 21.7256
102.03 479 21.8861
102.148 474 21.7715
102.265 423 20.567
102.382 462 21.4942
102.499 505 22.4722
102.616 477 21.8403
102.733 505 22.4722
102.851 488 22.0907
102.968 469 21.6564
103.085 527 22.9565
103.202 490 22.1359
103.319 488 22.0907
103.436 465 21.5639
103.552 532 23.0651
103.669 467 21.6102
103.786 503 22.4277
103.903 501 22.383
104.02 511 22.6053
104.137 469 21.6564
104.253 383 19.5704
104.37 413 20.3224
104.487 387 19.6723
104.603 402 20.0499
104.72 335 18.303
104.836 338 18.3848
104.953 348 18.6548
105.069 351 18.735
105.186 336 18.3303
105.302 377 19.4165
105.418 361 19
105.535 350 18.7083
105.651 397 19.9249
105.767 354 18.8149
105.883 347 18.6279
105.999 287 16.9411
106.115 0 1
106.231 0 1
106.347 0 1
106.463 0 1
106.579 0 1
106.694 0 1
106.81 0 1
106.926 0 1
107.041 0 1
107.157 0 1
109.576 0 1
109.692 0 1
109.807 0 1
109.923 0 1
110.039 0 1
110.155 0 1
110.27 0 1
110.386 0 1
110.502 0 1
110.618 233 15.2643
110.735 239 15.4596
110.851 306 17.4929
110.967 317 17.8045
111.083 341 18.4662
111.199 380 19.4936
111.316 414 20.347
111.432 431 20.7605
111.549 423 20.567
111.665 416 20.3961
111.782 447 21.1424
111.898 416 20.3961
112.015 426 20.6398
112.132 412 20.2978
112.248 445 21.095
112.365 406 20.1494
112.482 426 20.6398
112.599 419 20.4695
112.716 377 19.4165
112.832 398 19.9499
112.949 342 18.4932
113.066 362 19.0263
113.183 330 18.1659
113.3 327 18.0831
113.417 294 17.1464
113.534 327 18.0831
113.652 301 17.3494
113.769 344 18.5472
113.886 328 18.1108
114.003 391 19.7737
114.12 388 19.6977
114.238 400 20
114.355 405 20.1246
114.472 436 20.8806
114.589 438 20.9284
114.707 432 20.7846
114.824 430 20.7364
114.942 490 22.1359
115.059 444 21.0713
115.176 435 20.8567
115.294 435 20.8567
115.411 401 20.025
115.529 420 20.4939
115.646 401 20.025
115.764 431 20.7605
115.881 404 20.0998
115.999 415 20.3715
116.116 432 20.7846
116.234 400 20
116.351 399 19.975
116.469 382 19.5448
116.586 366 19.1311
116.704 349 18.6815
116.821 324 18
116.939 351 18.735
117.056 291 17.0587
117.174 309 17.5784
117.291 321 17.9165
117.409 382 19.5448
117.526 392 19.799
117.644 374 19.3391
117.761 404 20.0998
117.879 387 19.6723
117.996 436 20.8806
118.114 415 20.3715
118.231 419 20.4695
118.349 447 21.1424
118.466 418 20.445
118.584 440 20.9762
118.701 427 20.664
118.819 405 20.1246
118.936 445 21.095
119.053 450 21.2132
119.171 394 19.8494
119.288 378 19.4422
119.405 414 20.347
119.523 395 19.8746
119.64 380 19.4936
119.757 366 19.1311
119.875 416 20.3961
119.992 379 19.4679
120.109 347 18.6279
120.226 309 17.5784
120.343 311 17.6352
120.46 344 18.5472
120.578 333 18.2483
120.695 300 17.3205
120.812 311 17.6352
120.929 346 18.6011
121.046 345 18.5742
121.163 344 18.5472
121.279 350 18.7083
121.396 358 18.9209
121.513 335 18.303
121.63 393 19.8242
121.747 373 19.3132
121.863 337 18.3576
121.98 343 18.5203
122.097 366 19.1311
122.213 337 18.3576
122.33 351 18.735
122.446 348 18.6548
122.563 292 17.088
122.679 318 17.8326
122.795 302 17.3781
122.912 247 15.7162
123.028 255 15.9687
123.144 202 14.2127
123.26 189 13.7477
123.377 0 1
123.493 0 1
123.609 0 1
123.725 0 1
123.84 0 1
123.956 0 1
124.072 0 1
124.188 0 1
124.303 0 1
124.419 0 1
126.852 0 1
126.968 0 1
127.083 0 1
127.199 0 1
127.315 0 1
127.431 0 1
127.547 0 1
127.663 0 1
127.779 0 1
127.895 0 1
128.011 0 1
128.127 0 1
128.243 0 1
128.359 371 19.2614
128.476 372 19.2873
128.592 388 19.6977
128.708 393 19.8242
128.825 348 18.6548
128.941 434 20.8327
129.058 433 20.8087
129.174 404 20.0998
129.291 404 20.0998
129.408 361 19
129.524 395 19.8746
129.641 356 18.868
129.758 383 19.5704
129.875 351 18.735
129.992 365 19.105
130.108 372 19.2873
130.225 368 19.1833
130.342 410 20.2485
130.459 375 19.3649
130.576 420 20.4939
130.693 414 20.347
130.81 453 21.2838
130.928 420 20.4939
131.045 432 20.7846
131.162 469 21.6564
131.279 462 21.4942
131.396 459 21.4243
131.513 497 22.2935
131.631 457 21.3776
131.748 448 21.166
131.865 433 20.8087
131.983 419 20.4695
132.1 424 20.5913
132.217 481 21.9317
132.335 397 19.9249
132.452 420 20.4939
132.57 375 19.3649
132.687 377 19.4165
132.804 388 19.6977
132.922 414 20.347
133.039 386 19.6469
133.157 385 19.6214
133.274 386 19.6469
133.392 403 20.0749
133.509 379 19.4679
133.627 368 19.1833
133.744 398 19.9499
133.862 400 20
133.979 400 20
134.097 424 20.5913
134.214 391 19.7737
134.332 464 21.5407
134.449 463 21.5174
134.567 401 20.025
134.684 441 21
134.802 511 22.6053
134.919 473 21.7486
135.037 421 20.5183
135.154 473 21.7486
135.272 430 20.7364
135.389 415 20.3715
135.507 420 20.4939
135.624 408 20.199
135.742 446 21.1187
135.859 397 19.9249
135.977 429 20.7123
136.094 420 20.4939
136.211 403 20.0749
136.329 374 19.3391
136.446 406 20.1494
136.564 387 19.6723
136.681 371 19.2614
136.798 414 20.347
136.915 358 18.9209
137.033 379 19.4679
137.15 343 18.5203
137.267 389 19.7231
137.384 398 19.9499
137.502 410 20.2485
137.619 380 19.4936
137.736 378 19.4422
137.853 427 20.664
137.97 383 19.5704
138.087 446 21.1187
138.204 391 19.7737
138.321 448 21.166
138.438 411 20.2731
138.555 405 20.1246
138.672 392 19.799
138.788 444 21.0713
138.905 423 20.567
139.022 397 19.9249
139.139 383 19.5704
139.255 360 18.9737
139.372 348 18.6548
139.488 320 17.8885
139.605 321 17.9165
139.721 289 17
139.838 252 15.8745
139.954 255 15.9687
140.071 255 15.9687
140.187 236 15.3623
140.303 214 14.6287
140.419 181 13.4536
140.535 172 13.1149
140.652 165 12.8452
140.768 0 1
140.884 0 1
141 0 1
141.115 0 1
141.231 0 1
141.347 0 1
141.463 0 1
141.578 0 1
141.694 0 1
144.104 0 1
144.219 0 1
144.335 0 1
144.45 0 1
144.566 0 1
144.682 0 1
144.798 0 1
144.914 0 1
145.03 0 1
145.146 290 17.0294
145.262 291 17.0587
145.378 300 17.3205
145.494 285 16.8819
145.61 319 17.8606
145.726 321 17.9165
145.842 296 17.2047
145.959 282 16.7929
146.075 291 17.0587
146.192 329 18.1384
146.308 277 16.6433
146.425 333 18.2483
146.541 304 17.4356
146.658 321 17.9165
146.774 277 16.6433
146.891 344 18.5472
147.008 342 18.4932
147.125 345 18.5742
147.241 351 18.735
147.358 343 18.5203
147.475 341 18.4662
147.592 347 18.6279
147.709 339 18.412
147.826 336 18.3303
147.943 324 18
148.06 349 18.6815
148.177 324 18
148.294 329 18.1384
148.411 329 18.1384
148.528 315 17.7482
148.645 324 18
148.762 344 18.5472
148.88 304 17.4356
148.997 305 17.4642
149.114 319 17.8606
149.231 310 17.6068
149.349 336 18.3303
149.466 277 16.6433
149.583 287 16.9411
149.701 297 17.2337
149.818 318 17.8326
149.935 311 17.6352
150.053 327 18.0831
150.17 329 18.1384
150.287 311 17.6352
150.405 319 17.8606
150.522 330 18.1659
150.64 344 18.5472
150.757 326 18.0555
150.875 329 18.1384
150.992 319 17.8606
151.11 342 18.4932
151.227 312 17.6635
151.344 358 18.9209
151.462 304 17.4356
151.579 353 18.7883
151.697 308 17.5499
151.814 307 17.5214
151.932 296 17.2047
152.049 291 17.0587
152.167 341 18.4662
152.284 312 17.6635
152.402 326 18.0555
152.519 298 17.2627
152.636 319 17.8606
152.754 292 17.088
152.871 269 16.4012
152.989 291 17.0587
153.106 304 17.4356
153.223 294 17.1464
153.341 295 17.1756
153.458 276 16.6132
153.575 319 17.8606
153.693 263 16.2173
153.81 290 17.0294
153.927 344 18.5472
154.044 293 17.1172
154.162 308 17.5499
154.279 269 16.4012
154.396 379 19.4679
154.513 317 17.8045
154.63 338 18.3848
154.747 286 16.9115
154.864 315 17.7482
154.981 299 17.2916
155.098 311 17.6352
155.215 294 17.1464
155.332 297 17.2337
155.449 299 17.2916
155.566 277 16.6433
155.683 295 17.1756
155.8 306 17.4929
155.917 265 16.2788
156.033 271 16.4621
156.15 0 1
156.267 0 1
156.383 0 1
156.5 0 1
156.617 0 1
156.733 0 1
156.85 0 1
156.966 0 1
157.082 0 1
157.199 0 1
157.315 0 1
157.431 0 1
157.547 0 1
157.664 0 1
157.78 0 1
157.896 0 1
158.012 0 1
158.128 0 1
158.244 0 1
158.359 0 1
158.475 0 1
158.591 0 1
158.706 0 1
