
6.15755 0 1
6.2731 0 1
6.3887 0 1
6.50437 0 1
6.62009 0 1
6.73587 0 1
6.8517 0 1
6.96759 0 1
7.08353 0 1
7.19952 0 1
7.31557 0 1
7.43166 0 1
7.54781 0 1
7.664 0 1
7.78024 0 1
7.89653 0 1
8.01286 0 1
8.12924 0 1
8.24567 0 1
8.36213 0 1
8.47864 0 1
8.59519 0 1
8.71178 0 1
8.82841 0 1
8.94508 0 1
9.06179 0 1
9.17853 0 1
9.29531 0 1
9.41212 0 1
9.52897 0 1
9.64584 0 1
9.76276 0 1
9.8797 0 1
9.99667 0 1
10.1137 0 1
10.2307 0 1
10.3478 0 1
10.4648 0 1
10.5819 0 1
10.6991 0 1
10.8162 0 1
10.9334 0 1
11.0506 0 1
11.1678 0 1
11.285 0 1
11.4023 0 1
11.5196 0 1
11.6369 0 1
11.7542 0 1
11.8715 0 1
11.9888 0 1
12.1062 0 1
12.2235 0 1
12.3409 0 1
12.4582 0 1
12.5756 0 1
12.693 0 1
12.8104 0 1
12.9278 0 1
13.0452 0 1
13.1626 0 1
13.28 0 1
13.3974 0 1
13.5149 0 1
13.6323 0 1
13.7497 0 1
13.8671 0 1
13.9845 0 1
14.1019 0 1
14.2193 0 1
14.3367 0 1
14.4541 0 1
14.5714 0 1
14.6888 0 1
14.8062 0 1
14.9235 0 1
15.0408 1015 31.8591
15.1581 1087 32.9697
15.2755 1102 33.1964
15.3927 1157 34.0147
15.51 1119 33.4515
15.6273 1033 32.1403
15.7445 1004 31.686
15.8617 1038 32.218
15.9789 960 30.9839
16.0961 940 30.6594
16.2132 953 30.8707
16.3304 997 31.5753
16.4475 1011 31.7962
16.5646 954 30.8869
16.6816 905 30.0832
16.7986 953 30.8707
16.9156 928 30.4631
17.0326 880 29.6648
17.1496 909 30.1496
17.2665 925 30.4138
17.3833 928 30.4631
17.5002 904 30.0666
17.617 910 30.1662
17.7338 916 30.2655
17.8505 912 30.1993
17.9672 946 30.7571
18.0839 953 30.8707
18.2005 885 29.7489
18.3171 860 29.3258
18.4337 896 29.9333
18.5502 900 30
18.6666 895 29.9166
18.7831 902 30.0333
18.8994 873 29.5466
19.0158 877 29.6142
19.1321 813 28.5132
19.2483 801 28.3019
19.3645 703 26.5141
19.4806 657 25.632
19.5967 723 26.8887
19.7128 686 26.1916
19.8288 735 27.1109
19.9447 621 24.9199
20.0606 0 1
20.1764 0 1
20.2922 0 1
20.4079 0 1
20.5236 0 1
20.6392 0 1
20.7548 0 1
20.8702 0 1
23.3078 0 1
23.4233 0 1
23.539 0 1
23.6547 0 1
23.7704 0 1
23.8862 0 1
24.0021 0 1
24.118 0 1
24.234 0 1
24.35 0 1
24.4661 356 18.868
24.5822 428 20.6882
24.6984 513 22.6495
24.8146 566 23.7908
24.9309 652 25.5343
25.0472 710 26.6458
25.1636 814 28.5307
25.28 861 29.3428
25.3965 906 30.0998
25.513 917 30.282
25.6296 997 31.5753
25.7462 1021 31.9531
25.8628 999 31.607
25.9795 1031 32.1092
26.0962 1043 32.2955
26.213 940 30.6594
26.3298 956 30.9192
26.4466 931 30.5123
26.5635 894 29.8998
26.6804 812 28.4956
26.7973 842 29.0172
26.9143 824 28.7054
27.0313 827 28.7576
27.1483 829 28.7924
27.2653 883 29.7153
27.3824 914 30.2324
27.4996 862 29.3598
27.6167 842 29.0172
27.7339 869 29.4788
27.8511 893 29.8831
27.9683 807 28.4077
28.0855 829 28.7924
28.2028 840 28.9828
28.3201 825 28.7228
28.4374 835 28.8964
28.5547 857 29.2746
28.6721 919 30.315
28.7894 896 29.9333
28.9068 876 29.5973
29.0242 890 29.8329
29.1416 900 30
29.259 868 29.4618
29.3764 877 29.6142
29.4939 839 28.9655
29.6113 912 30.1993
29.7288 800 28.2843
29.8463 842 29.0172
29.9638 815 28.5482
30.0812 819 28.6182
30.1987 790 28.1069
30.3162 825 28.7228
30.4337 858 29.2916
30.5512 823 28.688
30.6687 935 30.5778
30.7862 872 29.5296
30.9037 877 29.6142
31.0212 923 30.3809
31.1387 878 29.6311
31.2562 881 29.6816
31.3737 853 29.2062
31.4912 831 28.8271
31.6087 816 28.5657
31.7262 783 27.9821
31.8436 807 28.4077
31.9611 804 28.3549
32.0785 868 29.4618
32.1959 855 29.2404
32.3134 859 29.3087
32.4308 822 28.6705
32.5482 816 28.5657
32.6655 846 29.0861
32.7829 762 27.6043
32.9002 751 27.4044
33.0176 745 27.2947
33.1349 810 28.4605
33.2522 789 28.0891
33.3694 744 27.2764
33.4867 755 27.4773
33.6039 784 28
33.7211 735 27.1109
33.8383 778 27.8927
33.9554 779 27.9106
34.0725 723 26.8887
34.1896 845 29.0689
34.3067 842 29.0172
34.4237 811 28.4781
34.5407 803 28.3373
34.6577 782 27.9643
34.7746 763 27.6225
34.8915 772 27.7849
35.0084 841 29
35.1252 755 27.4773
35.242 709 26.6271
35.3587 675 25.9808
35.4755 721 26.8514
35.5921 724 26.9072
35.7088 733 27.074
35.8254 754 27.4591
35.9419 717 26.7769
36.0584 782 27.9643
36.1749 762 27.6043
36.2913 731 27.037
36.4077 651 25.5147
36.524 752 27.4226
36.6403 658 25.6515
36.7565 614 24.779
36.8727 631 25.1197
36.9889 564 23.7487
37.1049 561 23.6854
37.221 0 1
37.3369 0 1
37.4529 0 1
37.5687 0 1
37.6845 0 1
37.8003 0 1
37.916 0 1
38.0316 0 1
38.1472 0 1
40.5851 0 1
40.7008 0 1
40.8164 0 1
40.9322 0 1
41.048 0 1
41.1639 0 1
41.2798 0 1
41.3958 0 1
41.5118 0 1
41.6279 0 1
41.744 323 17.9722
41.8602 336 18.3303
41.9765 434 20.8327
42.0928 439 20.9523
42.2091 510 22.5832
42.3255 508 22.5389
42.4419 540 23.2379
42.5584 564 23.7487
42.675 582 24.1247
42.7915 621 24.9199
42.9081 611 24.7184
43.0248 607 24.6374
43.1415 587 24.2281
43.2582 648 25.4558
43.375 556 23.5797
43.4918 611 24.7184
43.6087 592 24.3311
43.7256 535 23.1301
43.8425 550 23.4521
43.9595 564 23.7487
44.0765 585 24.1868
44.1935 538 23.1948
44.3106 550 23.4521
44.4277 539 23.2164
44.5448 565 23.7697
44.6619 530 23.0217
44.7791 504 22.4499
44.8963 576 24
45.0136 608 24.6577
45.1308 605 24.5967
45.2481 586 24.2074
45.3654 594 24.3721
45.4827 602 24.5357
45.6001 610 24.6982
45.7174 626 25.02
45.8348 658 25.6515
45.9522 630 25.0998
46.0697 608 24.6577
46.1871 544 23.3238
46.3046 561 23.6854
46.422 599 24.4745
46.5395 556 23.5797
46.657 554 23.5372
46.7745 518 22.7596
46.892 558 23.622
47.0096 555 23.5584
47.1271 595 24.3926
47.2446 612 24.7386
47.3622 572 23.9165
47.4797 572 23.9165
47.5973 535 23.1301
47.7149 523 22.8692
47.8324 555 23.5584
47.95 538 23.1948
48.0675 504 22.4499
48.1851 518 22.7596
48.3027 528 22.9783
48.4202 525 22.9129
48.5378 568 23.8328
48.6554 530 23.0217
48.7729 541 23.2594
48.8904 544 23.3238
49.008 589 24.2693
49.1255 578 24.0416
49.243 534 23.1084
49.3605 609 24.6779
49.478 513 22.6495
49.5955 528 22.9783
49.713 548 23.4094
49.8304 500 22.3607
49.9479 523 22.8692
50.0653 536 23.1517
50.1827 501 22.383
50.3001 516 22.7156
50.4175 490 22.1359
50.5348 527 22.9565
50.6521 550 23.4521
50.7694 518 22.7596
50.8867 487 22.0681
51.004 497 22.2935
51.1212 540 23.2379
51.2384 535 23.1301
51.3556 554 23.5372
51.4727 509 22.561
51.5899 498 22.3159
51.707 517 22.7376
51.824 451 21.2368
51.9411 538 23.1948
52.0581 538 23.1948
52.175 550 23.4521
52.2919 538 23.1948
52.4088 539 23.2164
52.5257 530 23.0217
52.6425 548 23.4094
52.7593 534 23.1084
52.876 595 24.3926
52.9927 535 23.1301
53.1094 548 23.4094
53.226 539 23.2164
53.3426 528 22.9783
53.4591 511 22.6053
53.5756 495 22.2486
53.692 461 21.4709
53.8084 410 20.2485
53.9248 435 20.8567
54.0411 378 19.4422
54.1573 333 18.2483
54.2735 0 1
54.3896 0 1
54.5057 0 1
54.6217 0 1
54.7377 0 1
54.8537 0 1
54.9695 0 1
55.0853 0 1
55.2011 0 1
55.3168 0 1
55.4324 0 1
57.824 0 1
57.9396 0 1
58.0553 0 1
58.1711 0 1
58.2869 0 1
58.4028 0 1
58.5187 0 1
58.6347 0 1
58.7508 0 1
58.8669 0 1
58.983 381 19.5192
59.0992 469 21.6564
59.2155 514 22.6716
59.3318 574 23.9583
59.4482 652 25.5343
59.5646 648 25.4558
59.681 716 26.7582
59.7975 795 28.1957
59.9141 757 27.5136
60.0306 795 28.1957
60.1473 778 27.8927
60.2639 813 28.5132
60.3807 775 27.8388
60.4974 810 28.4605
60.6142 753 27.4408
60.731 745 27.2947
60.8479 755 27.4773
60.9648 780 27.9285
61.0818 798 28.2489
61.1987 745 27.2947
61.3158 739 27.1846
61.4328 815 28.5482
61.5499 754 27.4591
61.667 749 27.3679
61.7841 744 27.2764
61.9013 707 26.5895
62.0185 695 26.3629
62.1357 699 26.4386
62.253 668 25.8457
62.3702 654 25.5734
62.4875 573 23.9374
62.6049 642 25.3377
62.7222 615 24.7992
62.8396 653 25.5539
62.9569 672 25.923
63.0743 621 24.9199
63.1918 646 25.4165
63.3092 609 24.6779
63.4267 643 25.3574
63.5441 655 25.593
63.6616 688 26.2298
63.7791 643 25.3574
63.8966 619 24.8797
64.0142 564 23.7487
64.1317 567 23.8118
64.2492 588 24.2487
64.3668 605 24.5967
64.4843 619 24.8797
64.6019 682 26.1151
64.7195 611 24.7184
64.837 623 24.96
64.9546 602 24.5357
65.0722 634 25.1794
65.1898 611 24.7184
65.3074 662 25.7294
65.4249 617 24.8395
65.5425 630 25.0998
65.6601 643 25.3574
65.7777 614 24.779
65.8952 549 23.4307
66.0128 561 23.6854
66.1304 573 23.9374
66.2479 556 23.5797
66.3655 612 24.7386
66.483 599 24.4745
66.6005 582 24.1247
66.718 578 24.0416
66.8355 604 24.5764
66.953 604 24.5764
67.0705 625 25
67.1879 591 24.3105
67.3054 556 23.5797
67.4228 552 23.4947
67.5402 595 24.3926
67.6576 566 23.7908
67.7749 527 22.9565
67.8923 565 23.7697
68.0096 560 23.6643
68.1269 550 23.4521
68.2442 567 23.8118
68.3614 575 23.9792
68.4787 551 23.4734
68.5958 610 24.6982
68.713 587 24.2281
68.8302 639 25.2784
68.9473 654 25.5734
69.0643 649 25.4755
69.1814 624 24.98
69.2984 637 25.2389
69.4154 586 24.2074
69.5323 575 23.9792
69.6492 577 24.0208
69.7661 552 23.4947
69.8829 533 23.0868
69.9997 549 23.4307
70.1165 585 24.1868
70.2332 581 24.1039
70.3499 512 22.6274
70.4665 563 23.7276
70.5831 494 22.2261
70.6996 500 22.3607
70.8161 448 21.166
70.9326 443 21.0476
71.049 352 18.7617
71.1653 322 17.9444
71.2817 305 17.4642
71.3979 289 17
71.5141 264 16.2481
71.6303 258 16.0624
71.7464 193 13.8924
71.8624 0 1
71.9784 0 1
72.0944 0 1
72.2102 0 1
72.3261 0 1
72.4418 0 1
72.5575 0 1
72.6732 0 1
75.1054 0 1
75.2209 0 1
75.3365 0 1
75.4521 0 1
75.5678 0 1
75.6835 0 1
75.7993 0 1
75.9151 0 1
76.031 0 1
76.147 363 19.0526
76.263 388 19.6977
76.3791 427 20.664
76.4952 463 21.5174
76.6113 414 20.347
76.7276 459 21.4243
76.8438 446 21.1187
76.9601 444 21.0713
77.0765 422 20.5426
77.1929 450 21.2132
77.3093 473 21.7486
77.4258 457 21.3776
77.5423 502 22.4054
77.6589 487 22.0681
77.7755 537 23.1733
77.8921 533 23.0868
78.0088 517 22.7376
78.1256 584 24.1661
78.2423 550 23.4521
78.3591 537 23.1733
78.4759 530 23.0217
78.5928 476 21.8174
78.7097 449 21.1896
78.8266 390 19.7484
78.9436 487 22.0681
79.0606 508 22.5389
79.1776 521 22.8254
79.2946 516 22.7156
79.4117 544 23.3238
79.5288 515 22.6936
79.6459 497 22.2935
79.7631 543 23.3024
79.8802 512 22.6274
79.9974 522 22.8473
80.1147 472 21.7256
80.2319 489 22.1133
80.3491 438 20.9284
80.4664 459 21.4243
80.5837 507 22.5167
80.701 501 22.383
80.8183 474 21.7715
80.9357 520 22.8035
81.053 477 21.8403
81.1704 519 22.7816
81.2877 541 23.2594
81.4051 554 23.5372
81.5225 586 24.2074
81.6399 480 21.9089
81.7573 548 23.4094
81.8747 566 23.7908
81.9922 543 23.3024
82.1096 493 22.2036
82.227 492 22.1811
82.3444 404 20.0998
82.4619 436 20.8806
82.5793 473 21.7486
82.6967 524 22.891
82.8142 552 23.4947
82.9316 565 23.7697
83.049 511 22.6053
83.1664 495 22.2486
83.2838 579 24.0624
83.4012 535 23.1301
83.5186 528 22.9783
83.636 547 23.388
83.7534 536 23.1517
83.8708 472 21.7256
83.9881 456 21.3542
84.1055 474 21.7715
84.2228 480 21.9089
84.3401 470 21.6795
84.4575 493 22.2036
84.5747 516 22.7156
84.692 509 22.561
84.8093 491 22.1585
84.9265 563 23.7276
85.0437 561 23.6854
85.1609 599 24.4745
85.2781 578 24.0416
85.3952 561 23.6854
85.5123 608 24.6577
85.6294 597 24.4336
85.7465 531 23.0434
85.8636 457 21.3776
85.9806 504 22.4499
86.0976 511 22.6053
86.2145 493 22.2036
86.3315 530 23.0217
86.4484 522 22.8473
86.5652 510 22.5832
86.682 532 23.0651
86.7988 586 24.2074
86.9156 589 24.2693
87.0323 546 23.3666
87.149 527 22.9565
87.2657 548 23.4094
87.3823 508 22.5389
87.4988 453 21.2838
87.6154 467 21.6102
87.7318 444 21.0713
87.8483 427 20.664
87.9647 433 20.8087
88.081 429 20.7123
88.1973 400 20
88.3136 366 19.1311
88.4298 375 19.3649
88.546 353 18.7883
88.6621 355 18.8414
88.7781 322 17.9444
88.8942 0 1
89.0101 0 1
89.126 0 1
89.2419 0 1
89.3577 0 1
89.4734 0 1
89.5891 0 1
89.7047 0 1
89.8203 0 1
89.9358 0 1
92.3269 0 1
92.4424 0 1
92.558 0 1
92.6736 0 1
92.7893 0 1
92.905 0 1
93.0208 0 1
93.1366 0 1
93.2525 0 1
93.3685 0 1
93.4845 0 1
93.6005 425 20.6155
93.7167 429 20.7123
93.8328 454 21.3073
93.949 476 21.8174
94.0653 461 21.4709
94.1816 551 23.4734
94.2979 502 22.4054
94.4143 541 23.2594
94.5307 545 23.3452
94.6472 558 23.622
94.7637 564 23.7487
94.8803 537 23.1733
94.9969 513 22.6495
95.1135 498 22.3159
95.2302 497 22.2935
95.3469 493 22.2036
95.4637 493 22.2036
95.5805 571 23.8956
95.6973 542 23.2809
95.8142 555 23.5584
95.9311 554 23.5372
96.048 604 24.5764
96.1649 546 23.3666
96.2819 522 22.8473
96.3989 563 23.7276
96.516 502 22.4054
96.633 486 22.0454
96.7501 489 22.1133
96.8673 511 22.6053
96.9844 512 22.6274
97.1016 530 23.0217
97.2188 519 22.7816
97.336 558 23.622
97.4532 501 22.383
97.5704 533 23.0868
97.6877 551 23.4734
97.805 567 23.8118
97.9223 602 24.5357
98.0396 596 24.4131
98.1569 604 24.5764
98.2743 618 24.8596
98.3916 576 24
98.509 505 22.4722
98.6264 484 22
98.7438 540 23.2379
98.8612 555 23.5584
98.9786 574 23.9583
99.096 585 24.1868
99.2134 594 24.3721
99.3308 607 24.6374
99.4482 616 24.8193
99.5656 627 25.04
99.6831 608 24.6577
99.8005 563 23.7276
99.9179 585 24.1868
100.035 583 24.1454
100.153 573 23.9374
100.27 509 22.561
100.388 599 24.4745
100.505 554 23.5372
100.622 599 24.4745
100.74 565 23.7697
100.857 580 24.0832
100.975 571 23.8956
101.092 585 24.1868
101.209 595 24.3926
101.327 610 24.6982
101.444 663 25.7488
101.561 663 25.7488
101.679 633 25.1595
101.796 665 25.7876
101.913 640 25.2982
102.03 597 24.4336
102.148 614 24.779
102.265 582 24.1247
102.382 586 24.2074
102.499 587 24.2281
102.616 577 24.0208
102.733 664 25.7682
102.851 642 25.3377
102.968 645 25.3969
103.085 657 25.632
103.202 623 24.96
103.319 652 25.5343
103.436 675 25.9808
103.552 653 25.5539
103.669 589 24.2693
103.786 580 24.0832
103.903 543 23.3024
104.02 614 24.779
104.137 632 25.1396
104.253 589 24.2693
104.37 604 24.5764
104.487 649 25.4755
104.603 610 24.6982
104.72 631 25.1197
104.836 661 25.7099
104.953 651 25.5147
105.069 581 24.1039
105.186 560 23.6643
105.302 519 22.7816
105.418 481 21.9317
105.535 499 22.3383
105.651 412 20.2978
105.767 391 19.7737
105.883 356 18.868
105.999 353 18.7883
106.115 0 1
106.231 0 1
106.347 0 1
106.463 0 1
106.579 0 1
106.694 0 1
106.81 0 1
106.926 0 1
107.041 0 1
107.157 0 1
109.576 0 1
109.692 0 1
109.807 0 1
109.923 0 1
110.039 0 1
110.155 0 1
110.27 0 1
110.386 0 1
110.502 0 1
110.618 333 18.2483
110.735 377 19.4165
110.851 324 18
110.967 414 20.347
111.083 487 22.0681
111.199 484 22
111.316 534 23.1084
111.432 533 23.0868
111.549 579 24.0624
111.665 579 24.0624
111.782 611 24.7184
111.898 612 24.7386
112.015 584 24.1661
112.132 549 23.4307
112.248 524 22.891
112.365 528 22.9783
112.482 498 22.3159
112.599 548 23.4094
112.716 569 23.8537
112.832 609 24.6779
112.949 632 25.1396
113.066 628 25.0599
113.183 588 24.2487
113.3 564 23.7487
113.417 553 23.516
113.534 550 23.4521
113.652 598 24.454
113.769 559 23.6432
113.886 599 24.4745
114.003 551 23.4734
114.12 567 23.8118
114.238 506 22.4944
114.355 523 22.8692
114.472 511 22.6053
114.589 547 23.388
114.707 562 23.7065
114.824 571 23.8956
114.942 574 23.9583
115.059 619 24.8797
115.176 553 23.516
115.294 550 23.4521
115.411 554 23.5372
115.529 564 23.7487
115.646 502 22.4054
115.764 521 22.8254
115.881 471 21.7025
115.999 494 22.2261
116.116 516 22.7156
116.234 558 23.622
116.351 539 23.2164
116.469 557 23.6008
116.586 490 22.1359
116.704 574 23.9583
116.821 545 23.3452
116.939 572 23.9165
117.056 557 23.6008
117.174 513 22.6495
117.291 524 22.891
117.409 586 24.2074
117.526 579 24.0624
117.644 519 22.7816
117.761 518 22.7596
117.879 478 21.8632
117.996 473 21.7486
118.114 495 22.2486
118.231 537 23.1733
118.349 524 22.891
118.466 546 23.3666
118.584 544 23.3238
118.701 511 22.6053
118.819 542 23.2809
118.936 554 23.5372
119.053 530 23.0217
119.171 541 23.2594
119.288 521 22.8254
119.405 475 21.7945
119.523 500 22.3607
119.64 464 21.5407
119.757 473 21.7486
119.875 494 22.2261
119.992 503 22.4277
120.109 511 22.6053
120.226 460 21.4476
120.343 535 23.1301
120.46 506 22.4944
120.578 494 22.2261
120.695 496 22.2711
120.812 535 23.1301
120.929 497 22.2935
121.046 522 22.8473
121.163 514 22.6716
121.279 503 22.4277
121.396 459 21.4243
121.513 441 21
121.63 452 21.2603
121.747 439 20.9523
121.863 447 21.1424
121.98 488 22.0907
122.097 479 21.8861
122.213 467 21.6102
122.33 455 21.3307
122.446 362 19.0263
122.563 404 20.0998
122.679 386 19.6469
122.795 382 19.5448
122.912 300 17.3205
123.028 257 16.0312
123.144 236 15.3623
123.26 260 16.1245
123.377 0 1
123.493 0 1
123.609 0 1
123.725 0 1
123.84 0 1
123.956 0 1
124.072 0 1
124.188 0 1
124.303 0 1
124.419 0 1
126.852 0 1
126.968 0 1
127.083 0 1
127.199 0 1
127.315 0 1
127.431 0 1
127.547 0 1
127.663 0 1
127.779 0 1
127.895 0 1
128.011 0 1
128.127 0 1
128.243 0 1
128.359 515 22.6936
128.476 543 23.3024
128.592 527 22.9565
128.708 569 23.8537
128.825 532 23.0651
128.941 587 24.2281
129.058 636 25.219
129.174 584 24.1661
129.291 591 24.3105
129.408 655 25.593
129.524 609 24.6779
129.641 629 25.0799
129.758 683 26.1343
129.875 694 26.3439
129.992 745 27.2947
130.108 715 26.7395
130.225 653 25.5539
130.342 603 24.5561
130.459 638 25.2587
130.576 631 25.1197
130.693 669 25.865
130.81 689 26.2488
130.928 682 26.1151
131.045 824 28.7054
131.162 801 28.3019
131.279 847 29.1033
131.396 839 28.9655
131.513 824 28.7054
131.631 865 29.4109
131.748 797 28.2312
131.865 847 29.1033
131.983 893 29.8831
132.1 869 29.4788
132.217 916 30.2655
132.335 1008 31.749
132.452 1088 32.9848
132.57 1074 32.7719
132.687 1031 32.1092
132.804 1090 33.0151
132.922 1086 32.9545
133.039 1047 32.3574
133.157 1130 33.6155
133.274 1146 33.8526
133.392 1127 33.5708
133.509 1068 32.6803
133.627 1104 33.2265
133.744 1135 33.6898
133.862 1123 33.5112
133.979 1043 32.2955
134.097 1025 32.0156
134.214 994 31.5278
134.332 977 31.257
134.449 1047 32.3574
134.567 1105 33.2415
134.684 1145 33.8378
134.802 1281 35.7911
134.919 1181 34.3657
135.037 1215 34.8569
135.154 1105 33.2415
135.272 1125 33.541
135.389 1126 33.5559
135.507 1044 32.311
135.624 1080 32.8634
135.742 1178 34.322
135.859 1209 34.7707
135.977 1239 35.1994
136.094 1270 35.6371
136.211 1265 35.5668
136.329 1270 35.6371
136.446 1270 35.6371
136.564 1247 35.3129
136.681 1281 35.7911
136.798 1310 36.1939
136.915 1293 35.9583
137.033 1232 35.0999
137.15 1274 35.6931
137.267 1259 35.4824
137.384 1191 34.5109
137.502 1140 33.7639
137.619 1118 33.4365
137.736 1036 32.187
137.853 1007 31.7333
137.97 1049 32.3883
138.087 1048 32.3728
138.204 1093 33.0606
138.321 1182 34.3802
138.438 1166 34.1467
138.555 1286 35.8608
138.672 1261 35.5106
138.788 1193 34.5398
138.905 1146 33.8526
139.022 1068 32.6803
139.139 992 31.496
139.255 998 31.5911
139.372 1021 31.9531
139.488 941 30.6757
139.605 928 30.4631
139.721 900 30
139.838 880 29.6648
139.954 820 28.6356
140.071 695 26.3629
140.187 692 26.3059
140.303 692 26.3059
140.419 607 24.6374
140.535 665 25.7876
140.652 596 24.4131
140.768 0 1
140.884 0 1
141 0 1
141.115 0 1
141.231 0 1
141.347 0 1
141.463 0 1
141.578 0 1
141.694 0 1
144.104 0 1
144.219 0 1
144.335 0 1
144.45 0 1
144.566 0 1
144.682 0 1
144.798 0 1
144.914 0 1
145.03 0 1
145.146 1557 39.4588
145.262 1769 42.0595
145.378 1729 41.5812
145.494 1843 42.9302
145.61 1916 43.7721
145.726 1935 43.9886
145.842 2103 45.8585
145.959 2000 44.7214
146.075 1989 44.5982
146.192 2053 45.31
146.308 1950 44.1588
146.425 1886 43.4281
146.541 1927 43.8976
146.658 1916 43.7721
146.774 1892 43.4971
146.891 2026 45.0111
147.008 2061 45.3982
147.125 2135 46.2061
147.241 2233 47.2546
147.358 2238 47.3075
147.475 2111 45.9456
147.592 2020 44.9444
147.709 1747 41.7971
147.826 1683 41.0244
147.943 1800 42.4264
148.06 1853 43.0465
148.177 1865 43.1856
148.294 1925 43.8748
148.411 1902 43.6119
148.528 1869 43.2319
148.645 1976 44.4522
148.762 2155 46.422
148.88 2120 46.0435
148.997 2145 46.3141
149.114 1999 44.7102
149.231 2072 45.5192
149.349 2121 46.0543
149.466 2036 45.1221
149.583 2078 45.5851
149.701 2047 45.2438
149.818 1983 44.5309
149.935 1933 43.9659
150.053 2015 44.8888
150.17 2044 45.2106
150.287 1902 43.6119
150.405 1920 43.8178
150.522 2056 45.3431
150.64 2056 45.3431
150.757 2216 47.0744
150.875 2243 47.3603
150.992 2237 47.2969
151.11 2406 49.051
151.227 2193 46.8295
151.344 1902 43.6119
151.462 1679 40.9756
151.579 2010 44.833
151.697 2426 49.2544
151.814 2662 51.5946
151.932 2853 53.4135
152.049 3236 56.8859
152.167 3493 59.1016
152.284 3676 60.63
152.402 3730 61.0737
152.519 4023 63.4271
152.636 4066 63.7652
152.754 4315 65.6887
152.871 4345 65.9166
152.989 4533 67.3276
153.106 4655 68.2276
153.223 4649 68.1836
153.341 4928 70.1997
153.458 4879 69.8498
153.575 5120 71.5542
153.693 5144 71.7217
153.81 5132 71.638
153.927 5159 71.8262
154.044 5388 73.403
154.162 5573 74.6525
154.279 5663 75.2529
154.396 5603 74.8532
154.513 5474 73.9865
154.63 5472 73.973
154.747 5391 73.4234
154.864 4487 66.9851
154.981 2667 51.643
155.098 2526 50.2593
155.215 3914 62.562
155.332 4566 67.5722
155.449 4507 67.1342
155.566 4550 67.4537
155.683 4391 66.2646
155.8 4207 64.8614
155.917 4122 64.2028
156.033 3980 63.0872
156.15 0 1
156.267 0 1
156.383 0 1
156.5 0 1
156.617 0 1
156.733 0 1
156.85 0 1
156.966 0 1
157.082 0 1
157.199 0 1
157.315 0 1
157.431 0 1
157.547 0 1
157.664 0 1
157.78 0 1
157.896 0 1
158.012 0 1
158.128 0 1
158.244 0 1
158.359 0 1
158.475 0 1
158.591 0 1
158.706 0 1
