
6.15755 0 1
6.2731 0 1
6.3887 0 1
6.50437 0 1
6.62009 0 1
6.73587 0 1
6.8517 0 1
6.96759 0 1
7.08353 0 1
7.19952 0 1
7.31557 0 1
7.43166 0 1
7.54781 0 1
7.664 0 1
7.78024 0 1
7.89653 0 1
8.01286 0 1
8.12924 0 1
8.24567 0 1
8.36213 0 1
8.47864 0 1
8.59519 0 1
8.71178 0 1
8.82841 0 1
8.94508 0 1
9.06179 0 1
9.17853 0 1
9.29531 0 1
9.41212 0 1
9.52897 0 1
9.64584 0 1
9.76276 0 1
9.8797 0 1
9.99667 0 1
10.1137 0 1
10.2307 0 1
10.3478 0 1
10.4648 0 1
10.5819 0 1
10.6991 0 1
10.8162 0 1
10.9334 0 1
11.0506 0 1
11.1678 0 1
11.285 0 1
11.4023 0 1
11.5196 0 1
11.6369 0 1
11.7542 0 1
11.8715 0 1
11.9888 0 1
12.1062 0 1
12.2235 0 1
12.3409 0 1
12.4582 0 1
12.5756 0 1
12.693 0 1
12.8104 0 1
12.9278 0 1
13.0452 0 1
13.1626 0 1
13.28 0 1
13.3974 0 1
13.5149 0 1
13.6323 0 1
13.7497 0 1
13.8671 0 1
13.9845 0 1
14.1019 0 1
14.2193 0 1
14.3367 0 1
14.4541 0 1
14.5714 0 1
14.6888 0 1
14.8062 0 1
14.9235 0 1
15.0408 1811 42.5558
15.1581 1864 43.1741
15.2755 1917 43.7836
15.3927 1985 44.5533
15.51 2005 44.7772
15.6273 1865 43.1856
15.7445 1812 42.5676
15.8617 1817 42.6263
15.9789 1866 43.1972
16.0961 1755 41.8927
16.2132 1781 42.2019
16.3304 1928 43.909
16.4475 2014 44.8776
16.5646 2000 44.7214
16.6816 2160 46.4758
16.7986 2363 48.6107
16.9156 2311 48.0729
17.0326 2555 50.547
17.1496 2569 50.6853
17.2665 2577 50.7642
17.3833 2633 51.3128
17.5002 2523 50.2295
17.617 2628 51.264
17.7338 2684 51.8073
17.8505 2636 51.342
17.9672 2631 51.2933
18.0839 2678 51.7494
18.2005 2762 52.5547
18.3171 2756 52.4976
18.4337 2855 53.4322
18.5502 2784 52.7636
18.6666 2764 52.5738
18.7831 2814 53.0471
18.8994 2795 52.8678
19.0158 2652 51.4976
19.1321 2579 50.7839
19.2483 2518 50.1797
19.3645 2452 49.5177
19.4806 2545 50.448
19.5967 2383 48.816
19.7128 2276 47.7074
19.8288 2003 44.7549
19.9447 1808 42.5206
20.0606 0 1
20.1764 0 1
20.2922 0 1
20.4079 0 1
20.5236 0 1
20.6392 0 1
20.7548 0 1
20.8702 0 1
23.3078 0 1
23.4233 0 1
23.539 0 1
23.6547 0 1
23.7704 0 1
23.8862 0 1
24.0021 0 1
24.118 0 1
24.234 0 1
24.35 0 1
24.4661 2453 49.5278
24.5822 2441 49.4065
24.6984 2579 50.7839
24.8146 2550 50.4975
24.9309 2435 49.3457
25.0472 2213 47.0425
25.1636 2076 45.5631
25.28 2001 44.7325
25.3965 2087 45.6837
25.513 2236 47.2864
25.6296 2493 49.93
25.7462 2555 50.547
25.8628 2889 53.7494
25.9795 2993 54.7083
26.0962 2957 54.3783
26.213 2989 54.6717
26.3298 2999 54.7631
26.4466 2894 53.7959
26.5635 2927 54.1018
26.6804 3001 54.7814
26.7973 2873 53.6004
26.9143 2891 53.768
27.0313 2973 54.5252
27.1483 2855 53.4322
27.2653 2926 54.0925
27.3824 2893 53.7866
27.4996 2868 53.5537
27.6167 2835 53.2447
27.7339 2871 53.5817
27.8511 2629 51.2738
27.9683 2794 52.8583
28.0855 2716 52.1153
28.2028 2764 52.5738
28.3201 2635 51.3323
28.4374 2586 50.8527
28.5547 2295 47.9062
28.6721 2099 45.8148
28.7894 1974 44.4297
28.9068 2056 45.3431
29.0242 2108 45.913
29.1416 2231 47.2335
29.259 2506 50.06
29.3764 2613 51.1175
29.4939 2754 52.4786
29.6113 2794 52.8583
29.7288 2815 53.0566
29.8463 2862 53.4977
29.9638 2799 52.9056
30.0812 2788 52.8015
30.1987 2816 53.066
30.3162 2885 53.7122
30.4337 2886 53.7215
30.5512 2789 52.811
30.6687 2734 52.2877
30.7862 2729 52.2398
30.9037 2610 51.0882
31.0212 2895 53.8052
31.1387 2902 53.8702
31.2562 2773 52.6593
31.3737 2776 52.6878
31.4912 2759 52.5262
31.6087 2723 52.1824
31.7262 2760 52.5357
31.8436 2730 52.2494
31.9611 2501 50.01
32.0785 2355 48.5283
32.1959 2201 46.9148
32.3134 1969 44.3734
32.4308 1961 44.2832
32.5482 2043 45.1996
32.6655 2196 46.8615
32.7829 2311 48.0729
32.9002 2586 50.8527
33.0176 2707 52.0288
33.1349 2765 52.5833
33.2522 2716 52.1153
33.3694 2739 52.3355
33.4867 2794 52.8583
33.6039 2787 52.792
33.7211 2853 53.4135
33.8383 2864 53.5164
33.9554 2784 52.7636
34.0725 2690 51.8652
34.1896 2743 52.3737
34.3067 2699 51.9519
34.4237 2706 52.0192
34.5407 2649 51.4684
34.6577 2667 51.643
34.7746 2723 52.1824
34.8915 2767 52.6023
35.0084 2708 52.0384
35.1252 2695 51.9134
35.242 2582 50.8134
35.3587 2749 52.4309
35.4755 2623 51.2152
35.5921 2624 51.225
35.7088 2488 49.8799
35.8254 2315 48.1144
35.9419 2030 45.0555
36.0584 1915 43.7607
36.1749 1987 44.5758
36.2913 1997 44.6878
36.4077 2126 46.1086
36.524 2174 46.6262
36.6403 2483 49.8297
36.7565 2682 51.788
36.8727 2798 52.8961
36.9889 2748 52.4214
37.1049 2719 52.144
37.221 0 1
37.3369 0 1
37.4529 0 1
37.5687 0 1
37.6845 0 1
37.8003 0 1
37.916 0 1
38.0316 0 1
38.1472 0 1
40.5851 0 1
40.7008 0 1
40.8164 0 1
40.9322 0 1
41.048 0 1
41.1639 0 1
41.2798 0 1
41.3958 0 1
41.5118 0 1
41.6279 0 1
41.744 1896 43.5431
41.8602 2007 44.7996
41.9765 2137 46.2277
42.0928 2217 47.085
42.2091 2312 48.0833
42.3255 2375 48.734
42.4419 2281 47.7598
42.5584 2345 48.4252
42.675 2330 48.2701
42.7915 2288 47.833
42.9081 2136 46.2169
43.0248 2077 45.5741
43.1415 2114 45.9783
43.2582 2186 46.7547
43.375 2082 45.6289
43.4918 2173 46.6154
43.6087 2188 46.7761
43.7256 2245 47.3814
43.8425 2136 46.2169
43.9595 2078 45.5851
44.0765 2162 46.4973
44.1935 2094 45.7602
44.3106 2033 45.0888
44.4277 1934 43.9773
44.5448 1847 42.9767
44.6619 1659 40.7308
44.7791 1471 38.3536
44.8963 1375 37.081
45.0136 1385 37.2156
45.1308 1382 37.1753
45.2481 1460 38.2099
45.3654 1584 39.7995
45.4827 1664 40.7922
45.6001 1780 42.19
45.7174 1759 41.9404
45.8348 1746 41.7852
45.9522 1757 41.9166
46.0697 1696 41.1825
46.1871 1655 40.6817
46.3046 1652 40.6448
46.422 1572 39.6485
46.5395 1551 39.3827
46.657 1644 40.5463
46.7745 1591 39.8873
46.892 1535 39.1791
47.0096 1666 40.8167
47.1271 1647 40.5832
47.2446 1581 39.7618
47.3622 1559 39.4842
47.4797 1603 40.0375
47.5973 1540 39.2428
47.7149 1542 39.2683
47.8324 1382 37.1753
47.95 1433 37.855
48.0675 1364 36.9324
48.1851 1324 36.3868
48.3027 1112 33.3467
48.4202 1058 32.5269
48.5378 1039 32.2335
48.6554 1035 32.1714
48.7729 1085 32.9393
48.8904 1291 35.9305
49.008 1290 35.9166
49.1255 1370 37.0135
49.243 1321 36.3456
49.3605 1389 37.2693
49.478 1366 36.9594
49.5955 1401 37.4299
49.713 1410 37.55
49.8304 1339 36.5923
49.9479 1422 37.7094
50.0653 1319 36.318
50.1827 1422 37.7094
50.3001 1411 37.5633
50.4175 1409 37.5366
50.5348 1554 39.4208
50.6521 1650 40.6202
50.7694 1697 41.1947
50.8867 1634 40.4228
51.004 1673 40.9023
51.1212 1716 41.4246
51.2384 1739 41.7013
51.3556 1727 41.5572
51.4727 1638 40.4722
51.5899 1652 40.6448
51.707 1651 40.6325
51.824 1533 39.1535
51.9411 1423 37.7227
52.0581 1515 38.923
52.175 1531 39.128
52.2919 1686 41.0609
52.4088 1726 41.5452
52.5257 1994 44.6542
52.6425 2123 46.076
52.7593 2073 45.5302
52.876 2180 46.6905
52.9927 2199 46.8935
53.1094 2335 48.3218
53.226 2222 47.1381
53.3426 2244 47.3709
53.4591 2228 47.2017
53.5756 2116 46
53.692 2111 45.9456
53.8084 2135 46.2061
53.9248 2266 47.6025
54.0411 2308 48.0416
54.1573 2468 49.679
54.2735 0 1
54.3896 0 1
54.5057 0 1
54.6217 0 1
54.7377 0 1
54.8537 0 1
54.9695 0 1
55.0853 0 1
55.2011 0 1
55.3168 0 1
55.4324 0 1
57.824 0 1
57.9396 0 1
58.0553 0 1
58.1711 0 1
58.2869 0 1
58.4028 0 1
58.5187 0 1
58.6347 0 1
58.7508 0 1
58.8669 0 1
58.983 2385 48.8365
59.0992 2529 50.2892
59.2155 2621 51.1957
59.3318 2796 52.8772
59.4482 2933 54.1572
59.5646 2873 53.6004
59.681 2900 53.8516
59.7975 3012 54.8817
59.9141 2849 53.376
60.0306 2717 52.1249
60.1473 2717 52.1249
60.2639 2573 50.7247
60.3807 2475 49.7494
60.4974 2306 48.0208
60.6142 2131 46.1628
60.731 2105 45.8803
60.8479 2165 46.5296
60.9648 2224 47.1593
61.0818 2293 47.8853
61.1987 2386 48.8467
61.3158 2411 49.1019
61.4328 2581 50.8035
61.5499 2545 50.448
61.667 2518 50.1797
61.7841 2480 49.7996
61.9013 2489 49.8899
62.0185 2447 49.4672
62.1357 2330 48.2701
62.253 2235 47.2758
62.3702 2333 48.3011
62.4875 2466 49.6588
62.6049 2466 49.6588
62.7222 2544 50.4381
62.8396 2549 50.4876
62.9569 2583 50.8232
63.0743 2644 51.4198
63.1918 2612 51.1077
63.3092 2465 49.6488
63.4267 2454 49.5379
63.5441 2488 49.8799
63.6616 2458 49.5782
63.7791 2296 47.9166
63.8966 2159 46.465
64.0142 1991 44.6206
64.1317 2017 44.911
64.2492 1865 43.1856
64.3668 2001 44.7325
64.4843 1989 44.5982
64.6019 2145 46.3141
64.7195 2199 46.8935
64.837 2275 47.697
64.9546 2233 47.2546
65.0722 2240 47.3286
65.1898 2191 46.8081
65.3074 2348 48.4562
65.4249 2273 47.676
65.5425 2134 46.1952
65.6601 2110 45.9347
65.7777 2029 45.0444
65.8952 2134 46.1952
66.0128 2209 47
66.1304 2286 47.8121
66.2479 2341 48.3839
66.3655 2334 48.3115
66.483 2447 49.4672
66.6005 2684 51.8073
66.718 2472 49.7192
66.8355 2572 50.7149
66.953 2397 48.9592
67.0705 2487 49.8698
67.1879 2421 49.2037
67.3054 2300 47.9583
67.4228 2147 46.3357
67.5402 2097 45.793
67.6576 1877 43.3244
67.7749 1809 42.5323
67.8923 1898 43.566
68.0096 1860 43.1277
68.1269 1976 44.4522
68.2442 2058 45.3652
68.3614 2132 46.1736
68.4787 2299 47.9479
68.5958 2370 48.6826
68.713 2418 49.1732
68.8302 2336 48.3322
68.9473 2395 48.9387
69.0643 2262 47.5605
69.1814 2229 47.2123
69.2984 2158 46.4543
69.4154 2146 46.3249
69.5323 2132 46.1736
69.6492 2324 48.2079
69.7661 2410 49.0918
69.8829 2508 50.0799
69.9997 2641 51.3907
70.1165 2765 52.5833
70.2332 2811 53.0189
70.3499 2802 52.9339
70.4665 2799 52.9056
70.5831 2685 51.817
70.6996 2717 52.1249
70.8161 2582 50.8134
70.9326 2580 50.7937
71.049 2424 49.2341
71.1653 2317 48.1352
71.2817 2198 46.8828
71.3979 2071 45.5082
71.5141 2000 44.7214
71.6303 1767 42.0357
71.7464 1684 41.0366
71.8624 0 1
71.9784 0 1
72.0944 0 1
72.2102 0 1
72.3261 0 1
72.4418 0 1
72.5575 0 1
72.6732 0 1
75.1054 0 1
75.2209 0 1
75.3365 0 1
75.4521 0 1
75.5678 0 1
75.6835 0 1
75.7993 0 1
75.9151 0 1
76.031 0 1
76.147 2246 47.392
76.263 2550 50.4975
76.3791 2413 49.1223
76.4952 2406 49.051
76.6113 2261 47.55
76.7276 2115 45.9891
76.8438 2069 45.4863
76.9601 2082 45.6289
77.0765 2113 45.9674
77.1929 2333 48.3011
77.3093 2425 49.2443
77.4258 2621 51.1957
77.5423 2563 50.6261
77.6589 2660 51.5752
77.7755 2539 50.3885
77.8921 2554 50.5371
78.0088 2484 49.8397
78.1256 2248 47.4131
78.2423 2167 46.551
78.3591 1990 44.6094
78.4759 1968 44.3621
78.5928 2123 46.076
78.7097 2294 47.8957
78.8266 2318 48.1456
78.9436 2643 51.4101
79.0606 2700 51.9615
79.1776 2755 52.4881
79.2946 2761 52.5452
79.4117 2744 52.3832
79.5288 2630 51.2835
79.6459 2630 51.2835
79.7631 2594 50.9313
79.8802 2561 50.6063
79.9974 2355 48.5283
80.1147 2305 48.0104
80.2319 2124 46.0869
80.3491 2037 45.1331
80.4664 1922 43.8406
80.5837 1936 44
80.701 2030 45.0555
80.8183 2119 46.0326
80.9357 2253 47.4658
81.053 2224 47.1593
81.1704 2398 48.9694
81.2877 2358 48.5592
81.4051 2224 47.1593
81.5225 2228 47.2017
81.6399 2222 47.1381
81.7573 2109 45.9239
81.8747 1911 43.715
81.9922 1769 42.0595
82.1096 1775 42.1307
82.227 1815 42.6028
82.3444 2020 44.9444
82.4619 2212 47.0319
82.5793 2375 48.734
82.6967 2400 48.9898
82.8142 2432 49.3153
82.9316 2447 49.4672
83.049 2393 48.9183
83.1664 2384 48.8262
83.2838 2304 48
83.4012 2140 46.2601
83.5186 2152 46.3897
83.636 2147 46.3357
83.7534 2019 44.9333
83.8708 1849 43
83.9881 1743 41.7493
84.1055 1702 41.2553
84.2228 1737 41.6773
84.3401 1740 41.7133
84.4575 1878 43.3359
84.5747 2045 45.2217
84.692 2082 45.6289
84.8093 2156 46.4327
84.9265 2107 45.9021
85.0437 2150 46.3681
85.1609 2105 45.8803
85.2781 2014 44.8776
85.3952 1730 41.5933
85.5123 1717 41.4367
85.6294 1632 40.398
85.7465 1746 41.7852
85.8636 1880 43.359
85.9806 2167 46.551
86.0976 2329 48.2597
86.2145 2458 49.5782
86.3315 2627 51.2543
86.4484 2447 49.4672
86.5652 2643 51.4101
86.682 2749 52.4309
86.7988 2716 52.1153
86.9156 2647 51.449
87.0323 2436 49.3559
87.149 2354 48.518
87.2657 2264 47.5815
87.3823 2226 47.1805
87.4988 2121 46.0543
87.6154 2146 46.3249
87.7318 2151 46.3789
87.8483 2121 46.0543
87.9647 2296 47.9166
88.081 2375 48.734
88.1973 2597 50.9608
88.3136 2536 50.3587
88.4298 2600 50.9902
88.546 2610 51.0882
88.6621 2637 51.3517
88.7781 2355 48.5283
88.8942 0 1
89.0101 0 1
89.126 0 1
89.2419 0 1
89.3577 0 1
89.4734 0 1
89.5891 0 1
89.7047 0 1
89.8203 0 1
89.9358 0 1
92.3269 0 1
92.4424 0 1
92.558 0 1
92.6736 0 1
92.7893 0 1
92.905 0 1
93.0208 0 1
93.1366 0 1
93.2525 0 1
93.3685 0 1
93.4845 0 1
93.6005 2397 48.9592
93.7167 2445 49.4469
93.8328 2586 50.8527
93.949 2471 49.7092
94.0653 2571 50.705
94.1816 2502 50.02
94.2979 2289 47.8435
94.4143 2084 45.6508
94.5307 1970 44.3847
94.6472 1849 43
94.7637 1918 43.795
94.8803 2033 45.0888
94.9969 2397 48.9592
95.1135 2549 50.4876
95.2302 2740 52.345
95.3469 2625 51.2348
95.4637 2710 52.0577
95.5805 2885 53.7122
95.6973 2997 54.7449
95.8142 2911 53.9537
95.9311 2891 53.768
96.048 2825 53.1507
96.1649 2609 51.0784
96.2819 2514 50.1398
96.3989 2524 50.2394
96.516 2363 48.6107
96.633 2258 47.5184
96.7501 2263 47.571
96.8673 2140 46.2601
96.9844 2224 47.1593
97.1016 2365 48.6313
97.2188 2479 49.7896
97.336 2448 49.4773
97.4532 2654 51.517
97.5704 2577 50.7642
97.6877 2530 50.2991
97.805 2494 49.94
97.9223 2288 47.833
98.0396 2063 45.4203
98.1569 1794 42.3556
98.2743 1858 43.1045
98.3916 1823 42.6966
98.509 1916 43.7721
98.6264 2290 47.8539
98.7438 2482 49.8197
98.8612 2647 51.449
98.9786 2711 52.0673
99.096 2826 53.1601
99.2134 2815 53.0566
99.3308 2714 52.0961
99.4482 2874 53.6097
99.5656 2857 53.4509
99.6831 2660 51.5752
99.8005 2671 51.6817
99.9179 2595 50.9411
100.035 2423 49.224
100.153 2279 47.7389
100.27 2302 47.9792
100.388 2277 47.7179
100.505 2309 48.0521
100.622 2387 48.8569
100.74 2442 49.4166
100.857 2589 50.8822
100.975 2514 50.1398
101.092 2595 50.9411
101.209 2535 50.3488
101.327 2571 50.705
101.444 2446 49.4571
101.561 2371 48.6929
101.679 2094 45.7602
101.796 1890 43.4741
101.913 1864 43.1741
102.03 1967 44.3509
102.148 2198 46.8828
102.265 2467 49.6689
102.382 2772 52.6498
102.499 2800 52.915
102.616 2923 54.0648
102.733 2932 54.1479
102.851 2999 54.7631
102.968 2949 54.3047
103.085 2915 53.9907
103.202 2866 53.535
103.319 2831 53.2071
103.436 2703 51.9904
103.552 2649 51.4684
103.669 2622 51.2055
103.786 2371 48.6929
103.903 2417 49.163
104.02 2486 49.8598
104.137 2553 50.5272
104.253 2585 50.8429
104.37 2690 51.8652
104.487 2808 52.9906
104.603 2712 52.0769
104.72 2812 53.0283
104.836 2730 52.2494
104.953 2653 51.5073
105.069 2390 48.8876
105.186 2113 45.9674
105.302 1963 44.3058
105.418 1979 44.486
105.535 2215 47.0638
105.651 2600 50.9902
105.767 2959 54.3967
105.883 3149 56.116
105.999 3206 56.6216
106.115 0 1
106.231 0 1
106.347 0 1
106.463 0 1
106.579 0 1
106.694 0 1
106.81 0 1
106.926 0 1
107.041 0 1
107.157 0 1
109.576 0 1
109.692 0 1
109.807 0 1
109.923 0 1
110.039 0 1
110.155 0 1
110.27 0 1
110.386 0 1
110.502 0 1
110.618 2175 46.6369
110.735 2592 50.9117
110.851 2841 53.301
110.967 3011 54.8726
111.083 3090 55.5878
111.199 3124 55.8928
111.316 3187 56.4535
111.432 3070 55.4076
111.549 3240 56.921
111.665 3070 55.4076
111.782 2993 54.7083
111.898 2912 53.963
112.015 2671 51.6817
112.132 2628 51.264
112.248 2573 50.7247
112.365 2636 51.342
112.482 2588 50.8724
112.599 2708 52.0384
112.716 2771 52.6403
112.832 2732 52.2685
112.949 2799 52.9056
113.066 2803 52.9434
113.183 2788 52.8015
113.3 2795 52.8678
113.417 2688 51.8459
113.534 2648 51.4587
113.652 2320 48.1664
113.769 2079 45.5961
113.886 1925 43.8748
114.003 1902 43.6119
114.12 2055 45.3321
114.238 2567 50.6656
114.355 2851 53.3948
114.472 3019 54.9454
114.589 3165 56.2583
114.707 3043 55.1634
114.824 3225 56.7891
114.942 3182 56.4092
115.059 3157 56.1872
115.176 3143 56.0625
115.294 3060 55.3173
115.411 2948 54.2955
115.529 2943 54.2494
115.646 2888 53.7401
115.764 2801 52.9245
115.881 2721 52.1632
115.999 2818 53.0848
116.116 2744 52.3832
116.234 2849 53.376
116.351 2812 53.0283
116.469 2942 54.2402
116.586 3019 54.9454
116.704 2935 54.1756
116.821 2765 52.5833
116.939 2909 53.9351
117.056 2773 52.6593
117.174 2630 51.2835
117.291 2412 49.1121
117.409 2102 45.8476
117.526 2041 45.1774
117.644 2127 46.1194
117.761 2430 49.295
117.879 2727 52.2207
117.996 3040 55.1362
118.114 3072 55.4256
118.231 3213 56.6833
118.349 3210 56.6569
118.466 3222 56.7627
118.584 3291 57.3672
118.701 3207 56.6304
118.819 3191 56.4889
118.936 3076 55.4617
119.053 2982 54.6077
119.171 2917 54.0093
119.288 2911 53.9537
119.405 2821 53.1131
119.523 2829 53.1883
119.64 2723 52.1824
119.757 2754 52.4786
119.875 2848 53.3667
119.992 2825 53.1507
120.109 2844 53.3292
120.226 2777 52.6972
120.343 2861 53.4883
120.46 2807 52.9811
120.578 2788 52.8015
120.695 2745 52.3927
120.812 2565 50.6458
120.929 2397 48.9592
121.046 2161 46.4866
121.163 1993 44.643
121.279 2081 45.618
121.396 2177 46.6583
121.513 2554 50.5371
121.63 2881 53.6749
121.747 2976 54.5527
121.863 3103 55.7046
121.98 3094 55.6237
122.097 3213 56.6833
122.213 3019 54.9454
122.33 3064 55.3534
122.446 3119 55.848
122.563 2936 54.1849
122.679 2948 54.2955
122.795 2898 53.8331
122.912 2771 52.6403
123.028 2831 53.2071
123.144 2710 52.0577
123.26 2837 53.2635
123.377 0 1
123.493 0 1
123.609 0 1
123.725 0 1
123.84 0 1
123.956 0 1
124.072 0 1
124.188 0 1
124.303 0 1
124.419 0 1
126.852 0 1
126.968 0 1
127.083 0 1
127.199 0 1
127.315 0 1
127.431 0 1
127.547 0 1
127.663 0 1
127.779 0 1
127.895 0 1
128.011 0 1
128.127 0 1
128.243 0 1
128.359 2980 54.5894
128.476 2975 54.5436
128.592 3018 54.9363
128.708 3002 54.7905
128.825 2978 54.5711
128.941 3050 55.2268
129.058 3062 55.3353
129.174 3083 55.5248
129.291 3176 56.356
129.408 2999 54.7631
129.524 3113 55.7943
129.641 3121 55.8659
129.758 2791 52.8299
129.875 2509 50.0899
129.992 2369 48.6724
130.108 2291 47.8644
130.225 2116 46
130.342 2346 48.4355
130.459 2758 52.5167
130.576 3260 57.0964
130.693 3343 57.8187
130.81 3418 58.4637
130.928 3480 58.9915
131.045 3448 58.7197
131.162 3449 58.7282
131.279 3526 59.3801
131.396 3446 58.7026
131.513 3440 58.6515
131.631 3367 58.0259
131.748 3234 56.8683
131.865 3251 57.0175
131.983 3226 56.7979
132.1 3310 57.5326
132.217 3303 57.4717
132.335 3340 57.7927
132.452 3231 56.8419
132.57 3201 56.5774
132.687 3256 57.0614
132.804 3314 57.5674
132.922 3265 57.1402
133.039 3222 56.7627
133.157 3165 56.2583
133.274 2961 54.4151
133.392 2740 52.345
133.509 2520 50.1996
133.627 2345 48.4252
133.744 2232 47.244
133.862 2247 47.4025
133.979 2686 51.8266
134.097 2903 53.8795
134.214 3235 56.8771
134.332 3361 57.9741
134.449 3382 58.155
134.567 3418 58.4637
134.684 3367 58.0259
134.802 3365 58.0086
134.919 3390 58.2237
135.037 3462 58.8388
135.154 3428 58.5491
135.272 3330 57.7062
135.389 3295 57.4021
135.507 3370 58.0517
135.624 3249 57
135.742 3206 56.6216
135.859 3352 57.8965
135.977 3172 56.3205
136.094 3335 57.7495
136.211 3250 57.0088
136.329 3312 57.55
136.446 3289 57.3498
136.564 3417 58.4551
136.681 3258 57.0789
136.798 3239 56.9122
136.915 3016 54.9181
137.033 2720 52.1536
137.15 2437 49.366
137.267 2305 48.0104
137.384 2166 46.5403
137.502 2282 47.7703
137.619 2661 51.5849
137.736 2986 54.6443
137.853 3025 55
137.97 3231 56.8419
138.087 3237 56.8946
138.204 3365 58.0086
138.321 3349 57.8705
138.438 3375 58.0948
138.555 3612 60.0999
138.672 3579 59.8247
138.788 3491 59.0847
138.905 3504 59.1946
139.022 3414 58.4294
139.139 3381 58.1464
139.255 3375 58.0948
139.372 3348 57.8619
139.488 3299 57.4369
139.605 3267 57.1577
139.721 3260 57.0964
139.838 3399 58.3009
139.954 3381 58.1464
140.071 3222 56.7627
140.187 3392 58.2409
140.303 3383 58.1636
140.419 3210 56.6569
140.535 3098 55.6597
140.652 2844 53.3292
140.768 0 1
140.884 0 1
141 0 1
141.115 0 1
141.231 0 1
141.347 0 1
141.463 0 1
141.578 0 1
141.694 0 1
144.104 0 1
144.219 0 1
144.335 0 1
144.45 0 1
144.566 0 1
144.682 0 1
144.798 0 1
144.914 0 1
145.03 0 1
145.146 2369 48.6724
145.262 2713 52.0865
145.378 2709 52.0481
145.494 2623 51.2152
145.61 2641 51.3907
145.726 2474 49.7393
145.842 2233 47.2546
145.959 2086 45.6727
146.075 1992 44.6318
146.192 1884 43.4051
146.308 1958 44.2493
146.425 2041 45.1774
146.541 2258 47.5184
146.658 2465 49.6488
146.774 2673 51.7011
146.891 2753 52.469
147.008 2717 52.1249
147.125 2736 52.3068
147.241 2898 53.8331
147.358 2947 54.2863
147.475 2903 53.8795
147.592 2865 53.5257
147.709 2961 54.4151
147.826 2977 54.5619
147.943 2867 53.5444
148.06 2896 53.8145
148.177 2876 53.6284
148.294 2908 53.9259
148.411 2936 54.1849
148.528 2933 54.1572
148.645 2937 54.1941
148.762 2996 54.7357
148.88 2903 53.8795
148.997 2935 54.1756
149.114 2934 54.1664
149.231 2959 54.3967
149.349 2775 52.6783
149.466 2710 52.0577
149.583 2605 51.0392
149.701 2419 49.1833
149.818 2182 46.7119
149.935 2080 45.607
150.053 2014 44.8776
150.17 2150 46.3681
150.287 2408 49.0714
150.405 2429 49.2849
150.522 2626 51.2445
150.64 2778 52.7067
150.757 2912 53.963
150.875 3038 55.1181
150.992 3028 55.0273
151.11 3134 55.9821
151.227 3135 55.9911
151.344 3052 55.2449
151.462 3112 55.7853
151.579 3181 56.4004
151.697 3100 55.6776
151.814 3046 55.1906
151.932 2980 54.5894
152.049 2994 54.7175
152.167 3014 54.8999
152.284 3000 54.7723
152.402 3026 55.0091
152.519 3087 55.5608
152.636 3080 55.4977
152.754 3039 55.1271
152.871 3058 55.2992
152.989 2877 53.6377
153.106 2756 52.4976
153.223 2700 51.9615
153.341 2385 48.8365
153.458 2259 47.5289
153.575 2236 47.2864
153.693 2221 47.1275
153.81 2294 47.8957
153.927 2417 49.163
154.044 2605 51.0392
154.162 2759 52.5262
154.279 2928 54.111
154.396 2945 54.2679
154.513 3065 55.3624
154.63 3118 55.8391
154.747 3191 56.4889
154.864 3141 56.0446
154.981 3204 56.6039
155.098 3286 57.3236
155.215 3251 57.0175
155.332 3175 56.3471
155.449 3188 56.4624
155.566 3092 55.6058
155.683 3036 55.0999
155.8 3176 56.356
155.917 3111 55.7763
156.033 3145 56.0803
156.15 0 1
156.267 0 1
156.383 0 1
156.5 0 1
156.617 0 1
156.733 0 1
156.85 0 1
156.966 0 1
157.082 0 1
157.199 0 1
157.315 0 1
157.431 0 1
157.547 0 1
157.664 0 1
157.78 0 1
157.896 0 1
158.012 0 1
158.128 0 1
158.244 0 1
158.359 0 1
158.475 0 1
158.591 0 1
158.706 0 1
