
6.15755 0 1
6.2731 0 1
6.3887 0 1
6.50437 0 1
6.62009 0 1
6.73587 0 1
6.8517 0 1
6.96759 0 1
7.08353 0 1
7.19952 0 1
7.31557 0 1
7.43166 0 1
7.54781 0 1
7.664 0 1
7.78024 0 1
7.89653 0 1
8.01286 0 1
8.12924 0 1
8.24567 0 1
8.36213 0 1
8.47864 0 1
8.59519 0 1
8.71178 0 1
8.82841 0 1
8.94508 0 1
9.06179 0 1
9.17853 0 1
9.29531 0 1
9.41212 0 1
9.52897 0 1
9.64584 0 1
9.76276 0 1
9.8797 0 1
9.99667 0 1
10.1137 0 1
10.2307 0 1
10.3478 0 1
10.4648 0 1
10.5819 0 1
10.6991 0 1
10.8162 0 1
10.9334 0 1
11.0506 0 1
11.1678 0 1
11.285 0 1
11.4023 0 1
11.5196 0 1
11.6369 0 1
11.7542 0 1
11.8715 0 1
11.9888 0 1
12.1062 0 1
12.2235 0 1
12.3409 0 1
12.4582 0 1
12.5756 0 1
12.693 0 1
12.8104 0 1
12.9278 0 1
13.0452 0 1
13.1626 0 1
13.28 0 1
13.3974 0 1
13.5149 0 1
13.6323 0 1
13.7497 0 1
13.8671 0 1
13.9845 0 1
14.1019 0 1
14.2193 0 1
14.3367 0 1
14.4541 0 1
14.5714 0 1
14.6888 0 1
14.8062 0 1
14.9235 0 1
15.0408 0 0
15.1581 0 0
15.2755 0 0
15.3927 0 0
15.51 0 0
15.6273 0 0
15.7445 0 0
15.8617 0 0
15.9789 0 0
16.0961 0 0
16.2132 0 0
16.3304 0 0
16.4475 0 0
16.5646 0 0
16.6816 0 0
16.7986 0 0
16.9156 0 0
17.0326 0 0
17.1496 0 0
17.2665 0 0
17.3833 0 0
17.5002 0 0
17.617 0 0
17.7338 0 0
17.8505 0 0
17.9672 0 0
18.0839 0 0
18.2005 0 0
18.3171 0 0
18.4337 0 0
18.5502 0 0
18.6666 0 0
18.7831 0 0
18.8994 0 0
19.0158 0 0
19.1321 0 0
19.2483 0 0
19.3645 0 0
19.4806 0 0
19.5967 0 0
19.7128 0 0
19.8288 0 0
19.9447 0 0
20.0606 0 1
20.1764 0 1
20.2922 0 1
20.4079 0 1
20.5236 0 1
20.6392 0 1
20.7548 0 1
20.8702 0 1
23.3078 0 1
23.4233 0 1
23.539 0 1
23.6547 0 1
23.7704 0 1
23.8862 0 1
24.0021 0 1
24.118 0 1
24.234 0 1
24.35 0 1
24.4661 2011 44.8442
24.5822 1950 44.1588
24.6984 2030 45.0555
24.8146 1975 44.441
24.9309 1889 43.4626
25.0472 1789 42.2966
25.1636 1728 41.5692
25.28 1861 43.1393
25.3965 1982 44.5197
25.513 2088 45.6946
25.6296 2298 47.9375
25.7462 2565 50.6458
25.8628 2484 49.8397
25.9795 2481 49.8096
26.0962 2571 50.705
26.213 2486 49.8598
26.3298 2442 49.4166
26.4466 2546 50.4579
26.5635 2494 49.94
26.6804 2404 49.0306
26.7973 2471 49.7092
26.9143 2450 49.4975
27.0313 2431 49.3052
27.1483 2406 49.051
27.2653 2474 49.7393
27.3824 2508 50.0799
27.4996 2382 48.8057
27.6167 2368 48.6621
27.7339 2339 48.3632
27.8511 2272 47.6655
27.9683 2120 46.0435
28.0855 2112 45.9565
28.2028 2097 45.793
28.3201 1961 44.2832
28.4374 1832 42.8019
28.5547 1724 41.5211
28.6721 1582 39.7744
28.7894 1683 41.0244
28.9068 1776 42.1426
29.0242 1915 43.7607
29.1416 2014 44.8776
29.259 2290 47.8539
29.3764 2318 48.1456
29.4939 2407 49.0612
29.6113 2375 48.734
29.7288 2342 48.3942
29.8463 2356 48.5386
29.9638 2367 48.6518
30.0812 2488 49.8799
30.1987 2463 49.6286
30.3162 2346 48.4355
30.4337 2386 48.8467
30.5512 2428 49.2747
30.6687 2367 48.6518
30.7862 2444 49.4368
30.9037 2381 48.7955
31.0212 2312 48.0833
31.1387 2310 48.0625
31.2562 2309 48.0521
31.3737 2253 47.4658
31.4912 2099 45.8148
31.6087 2158 46.4543
31.7262 1939 44.0341
31.8436 1962 44.2945
31.9611 1765 42.0119
32.0785 1641 40.5093
32.1959 1556 39.4462
32.3134 1581 39.7618
32.4308 1752 41.8569
32.5482 1836 42.8486
32.6655 1927 43.8976
32.7829 2212 47.0319
32.9002 2289 47.8435
33.0176 2273 47.676
33.1349 2229 47.2123
33.2522 2339 48.3632
33.3694 2324 48.2079
33.4867 2337 48.3425
33.6039 2252 47.4552
33.7211 2311 48.0729
33.8383 2364 48.621
33.9554 2435 49.3457
34.0725 2248 47.4131
34.1896 2279 47.7389
34.3067 2377 48.7545
34.4237 2374 48.7237
34.5407 2334 48.3115
34.6577 2297 47.927
34.7746 2371 48.6929
34.8915 2199 46.8935
35.0084 2136 46.2169
35.1252 2183 46.7226
35.242 2045 45.2217
35.3587 1988 44.587
35.4755 1967 44.3509
35.5921 1802 42.45
35.7088 1560 39.4968
35.8254 1484 38.5227
35.9419 1380 37.1484
36.0584 1472 38.3667
36.1749 1592 39.8999
36.2913 1752 41.8569
36.4077 1874 43.2897
36.524 2017 44.911
36.6403 2196 46.8615
36.7565 2260 47.5395
36.8727 2262 47.5605
36.9889 2214 47.0532
37.1049 2167 46.551
37.221 0 1
37.3369 0 1
37.4529 0 1
37.5687 0 1
37.6845 0 1
37.8003 0 1
37.916 0 1
38.0316 0 1
38.1472 0 1
40.5851 0 1
40.7008 0 1
40.8164 0 1
40.9322 0 1
41.048 0 1
41.1639 0 1
41.2798 0 1
41.3958 0 1
41.5118 0 1
41.6279 0 1
41.744 1623 40.2865
41.8602 1750 41.833
41.9765 1851 43.0232
42.0928 1858 43.1045
42.2091 1893 43.5086
42.3255 1876 43.3128
42.4419 1826 42.7317
42.5584 1775 42.1307
42.675 1910 43.7035
42.7915 1756 41.9047
42.9081 1844 42.9418
43.0248 1814 42.5911
43.1415 1765 42.0119
43.2582 1754 41.8808
43.375 1762 41.9762
43.4918 1774 42.1189
43.6087 1662 40.7676
43.7256 1713 41.3884
43.8425 1645 40.5586
43.9595 1512 38.8844
44.0765 1516 38.9358
44.1935 1428 37.7889
44.3106 1333 36.5103
44.4277 1269 35.623
44.5448 1090 33.0151
44.6619 982 31.3369
44.7791 951 30.8383
44.8963 938 30.6268
45.0136 1055 32.4808
45.1308 1072 32.7414
45.2481 1223 34.9714
45.3654 1356 36.8239
45.4827 1373 37.054
45.6001 1330 36.4692
45.7174 1301 36.0694
45.8348 1343 36.647
45.9522 1340 36.606
46.0697 1252 35.3836
46.1871 1257 35.4542
46.3046 1204 34.6987
46.422 1252 35.3836
46.5395 1197 34.5977
46.657 1174 34.2637
46.7745 1182 34.3802
46.892 1230 35.0714
47.0096 1121 33.4813
47.1271 1173 34.2491
47.2446 1191 34.5109
47.3622 1113 33.3617
47.4797 1084 32.9242
47.5973 1020 31.9374
47.7149 982 31.3369
47.8324 947 30.7734
47.95 872 29.5296
48.0675 808 28.4253
48.1851 769 27.7308
48.3027 660 25.6905
48.4202 724 26.9072
48.5378 743 27.258
48.6554 830 28.8097
48.7729 807 28.4077
48.8904 989 31.4484
49.008 928 30.4631
49.1255 997 31.5753
49.243 982 31.3369
49.3605 980 31.305
49.478 981 31.3209
49.5955 949 30.8058
49.713 936 30.5941
49.8304 1016 31.8748
49.9479 982 31.3369
50.0653 1008 31.749
50.1827 1069 32.6956
50.3001 1084 32.9242
50.4175 1068 32.6803
50.5348 1120 33.4664
50.6521 1166 34.1467
50.7694 1218 34.8999
50.8867 1249 35.3412
51.004 1184 34.4093
51.1212 1190 34.4964
51.2384 1164 34.1174
51.3556 1071 32.7261
51.4727 1044 32.311
51.5899 971 31.1609
51.707 929 30.4795
51.824 872 29.5296
51.9411 930 30.4959
52.0581 1066 32.6497
52.175 1183 34.3948
52.2919 1373 37.054
52.4088 1482 38.4968
52.5257 1617 40.2119
52.6425 1637 40.4599
52.7593 1598 39.975
52.876 1632 40.398
52.9927 1616 40.1995
53.1094 1582 39.7744
53.226 1703 41.2674
53.3426 1725 41.5331
53.4591 1726 41.5452
53.5756 1772 42.0951
53.692 1828 42.7551
53.8084 1833 42.8135
53.9248 1946 44.1135
54.0411 1930 43.9318
54.1573 1959 44.2606
54.2735 0 1
54.3896 0 1
54.5057 0 1
54.6217 0 1
54.7377 0 1
54.8537 0 1
54.9695 0 1
55.0853 0 1
55.2011 0 1
55.3168 0 1
55.4324 0 1
57.824 0 1
57.9396 0 1
58.0553 0 1
58.1711 0 1
58.2869 0 1
58.4028 0 1
58.5187 0 1
58.6347 0 1
58.7508 0 1
58.8669 0 1
58.983 2107 45.9021
59.0992 2248 47.4131
59.2155 2280 47.7493
59.3318 2274 47.6865
59.4482 2276 47.7074
59.5646 2306 48.0208
59.681 2243 47.3603
59.7975 2111 45.9456
59.9141 2005 44.7772
60.0306 1851 43.0232
60.1473 1709 41.3401
60.2639 1495 38.6652
60.3807 1382 37.1753
60.4974 1201 34.6554
60.6142 1236 35.1568
60.731 1388 37.2559
60.8479 1500 38.7298
60.9648 1605 40.0625
61.0818 1860 43.1277
61.1987 1932 43.9545
61.3158 1988 44.587
61.4328 1977 44.4635
61.5499 1952 44.1814
61.667 1956 44.2267
61.7841 1978 44.4747
61.9013 1947 44.1248
62.0185 1911 43.715
62.1357 1973 44.4185
62.253 1972 44.4072
62.3702 1949 44.1475
62.4875 2069 45.4863
62.6049 1955 44.2154
62.7222 2039 45.1553
62.8396 1968 44.3621
62.9569 2021 44.9555
63.0743 2010 44.833
63.1918 1954 44.2041
63.3092 1892 43.4971
63.4267 1751 41.845
63.5441 1697 41.1947
63.6616 1578 39.724
63.7791 1316 36.2767
63.8966 1170 34.2053
64.0142 1046 32.3419
64.1317 1095 33.0908
64.2492 1179 34.3366
64.3668 1307 36.1525
64.4843 1507 38.8201
64.6019 1620 40.2492
64.7195 1761 41.9643
64.837 1744 41.7612
64.9546 1789 42.2966
65.0722 1737 41.6773
65.1898 1812 42.5676
65.3074 1797 42.391
65.4249 1765 42.0119
65.5425 1758 41.9285
65.6601 1765 42.0119
65.7777 1792 42.332
65.8952 1826 42.7317
66.0128 1767 42.0357
66.1304 1740 41.7133
66.2479 1921 43.8292
66.3655 1850 43.0116
66.483 1829 42.7668
66.6005 1905 43.6463
66.718 1882 43.382
66.8355 1842 42.9185
66.953 1819 42.6497
67.0705 1727 41.5572
67.1879 1617 40.2119
67.3054 1471 38.3536
67.4228 1269 35.623
67.5402 1101 33.1813
67.6576 965 31.0644
67.7749 971 31.1609
67.8923 1086 32.9545
68.0096 1234 35.1283
68.1269 1489 38.5876
68.2442 1579 39.7366
68.3614 1687 41.0731
68.4787 1735 41.6533
68.5958 1738 41.6893
68.713 1823 42.6966
68.8302 1777 42.1545
68.9473 1793 42.3438
69.0643 1804 42.4735
69.1814 1812 42.5676
69.2984 1762 41.9762
69.4154 1856 43.0813
69.5323 1903 43.6234
69.6492 1951 44.1701
69.7661 1956 44.2267
69.8829 1910 43.7035
69.9997 2026 45.0111
70.1165 1985 44.5533
70.2332 2013 44.8665
70.3499 2063 45.4203
70.4665 2101 45.8367
70.5831 1994 44.6542
70.6996 1981 44.5084
70.8161 1892 43.4971
70.9326 1650 40.6202
71.049 1494 38.6523
71.1653 1269 35.623
71.2817 989 31.4484
71.3979 950 30.8221
71.5141 996 31.5595
71.6303 1077 32.8177
71.7464 1146 33.8526
71.8624 0 1
71.9784 0 1
72.0944 0 1
72.2102 0 1
72.3261 0 1
72.4418 0 1
72.5575 0 1
72.6732 0 1
75.1054 0 1
75.2209 0 1
75.3365 0 1
75.4521 0 1
75.5678 0 1
75.6835 0 1
75.7993 0 1
75.9151 0 1
76.031 0 1
76.147 1595 39.9375
76.263 1712 41.3763
76.3791 1562 39.5221
76.4952 1404 37.47
76.6113 1089 33
76.7276 945 30.7409
76.8438 987 31.4166
76.9601 1192 34.5254
77.0765 1326 36.4143
77.1929 1677 40.9512
77.3093 1880 43.359
77.4258 1869 43.2319
77.5423 1940 44.0454
77.6589 1996 44.6766
77.7755 1984 44.5421
77.8921 1885 43.4166
78.0088 1867 43.2088
78.1256 1931 43.9431
78.2423 1921 43.8292
78.3591 1942 44.0681
78.4759 1893 43.5086
78.5928 1953 44.1928
78.7097 1914 43.7493
78.8266 1906 43.6578
78.9436 2014 44.8776
79.0606 2008 44.8107
79.1776 1945 44.1022
79.2946 1885 43.4166
79.4117 1983 44.5309
79.5288 1914 43.7493
79.6459 1983 44.5309
79.7631 1737 41.6773
79.8802 1698 41.2068
79.9974 1587 39.8372
80.1147 1342 36.6333
80.2319 1115 33.3916
80.3491 876 29.5973
80.4664 880 29.6648
80.5837 1082 32.8938
80.701 1196 34.5832
80.8183 1412 37.5766
80.9357 1675 40.9268
81.053 1698 41.2068
81.1704 1764 42
81.2877 1751 41.845
81.4051 1662 40.7676
81.5225 1699 41.2189
81.6399 1655 40.6817
81.7573 1661 40.7554
81.8747 1654 40.6694
81.9922 1607 40.0874
82.1096 1700 41.2311
82.227 1606 40.0749
82.3444 1758 41.9285
82.4619 1665 40.8044
82.5793 1842 42.9185
82.6967 1636 40.4475
82.8142 1682 41.0122
82.9316 1725 41.5331
83.049 1729 41.5812
83.1664 1641 40.5093
83.2838 1619 40.2368
83.4012 1535 39.1791
83.5186 1480 38.4708
83.636 1320 36.3318
83.7534 1278 35.7491
83.8708 961 31
83.9881 735 27.1109
84.1055 759 27.55
84.2228 839 28.9655
84.3401 939 30.6431
84.4575 1222 34.9571
84.5747 1453 38.1182
84.692 1540 39.2428
84.8093 1548 39.3446
84.9265 1592 39.8999
85.0437 1528 39.0896
85.1609 1574 39.6737
85.2781 1550 39.37
85.3952 1604 40.05
85.5123 1584 39.7995
85.6294 1597 39.9625
85.7465 1632 40.398
85.8636 1657 40.7063
85.9806 1713 41.3884
86.0976 1689 41.0974
86.2145 1823 42.6966
86.3315 1896 43.5431
86.4484 1709 41.3401
86.5652 1937 44.0114
86.682 1839 42.8836
86.7988 1912 43.7264
86.9156 1751 41.845
87.0323 1771 42.0833
87.149 1698 41.2068
87.2657 1593 39.9124
87.3823 1402 37.4433
87.4988 1065 32.6343
87.6154 943 30.7083
87.7318 981 31.3209
87.8483 1213 34.8281
87.9647 1409 37.5366
88.081 1741 41.7253
88.1973 1818 42.638
88.3136 1924 43.8634
88.4298 1938 44.0227
88.546 1934 43.9773
88.6621 1899 43.5775
88.7781 1948 44.1362
88.8942 0 1
89.0101 0 1
89.126 0 1
89.2419 0 1
89.3577 0 1
89.4734 0 1
89.5891 0 1
89.7047 0 1
89.8203 0 1
89.9358 0 1
92.3269 0 1
92.4424 0 1
92.558 0 1
92.6736 0 1
92.7893 0 1
92.905 0 1
93.0208 0 1
93.1366 0 1
93.2525 0 1
93.3685 0 1
93.4845 0 1
93.6005 1779 42.1782
93.7167 1917 43.7836
93.8328 1911 43.715
93.949 1950 44.1588
94.0653 1914 43.7493
94.1816 1904 43.6348
94.2979 1859 43.1161
94.4143 1947 44.1248
94.5307 1876 43.3128
94.6472 1816 42.6146
94.7637 1916 43.7721
94.8803 1970 44.3847
94.9969 1964 44.317
95.1135 1957 44.238
95.2302 2025 45
95.3469 2030 45.0555
95.4637 2019 44.9333
95.5805 2083 45.6399
95.6973 2134 46.1952
95.8142 1981 44.5084
95.9311 1981 44.5084
96.048 1993 44.643
96.1649 1876 43.3128
96.2819 1840 42.8952
96.3989 1763 41.9881
96.516 1462 38.2361
96.633 1356 36.8239
96.7501 1101 33.1813
96.8673 984 31.3688
96.9844 1114 33.3766
97.1016 1288 35.8887
97.2188 1475 38.4057
97.336 1660 40.7431
97.4532 1789 42.2966
97.5704 1932 43.9545
97.6877 1811 42.5558
97.805 1904 43.6348
97.9223 1815 42.6028
98.0396 1818 42.638
98.1569 1844 42.9418
98.2743 1813 42.5793
98.3916 1909 43.6921
98.509 1855 43.0697
98.6264 1875 43.3013
98.7438 1966 44.3396
98.8612 1920 43.8178
98.9786 1914 43.7493
99.096 1961 44.2832
99.2134 2082 45.6289
99.3308 2085 45.6618
99.4482 2071 45.5082
99.5656 2007 44.7996
99.6831 1873 43.2782
99.8005 1885 43.4166
99.9179 1731 41.6053
100.035 1683 41.0244
100.153 1519 38.9744
100.27 1350 36.7423
100.388 1135 33.6898
100.505 1100 33.1662
100.622 1307 36.1525
100.74 1452 38.1051
100.857 1745 41.7732
100.975 1870 43.2435
101.092 1846 42.9651
101.209 1857 43.0929
101.327 1831 42.7902
101.444 1781 42.2019
101.561 1844 42.9418
101.679 1929 43.9204
101.796 1860 43.1277
101.913 1848 42.9884
102.03 1865 43.1856
102.148 1979 44.486
102.265 1957 44.238
102.382 2084 45.6508
102.499 2043 45.1996
102.616 2183 46.7226
102.733 2080 45.607
102.851 2127 46.1194
102.968 2153 46.4004
103.085 2048 45.2548
103.202 2077 45.5741
103.319 1951 44.1701
103.436 1938 44.0227
103.552 1829 42.7668
103.669 1614 40.1746
103.786 1293 35.9583
103.903 1168 34.176
104.02 1202 34.6699
104.137 1352 36.7696
104.253 1591 39.8873
104.37 1825 42.72
104.487 2022 44.9667
104.603 2077 45.5741
104.72 1976 44.4522
104.836 2077 45.5741
104.953 1975 44.441
105.069 2096 45.7821
105.186 2134 46.1952
105.302 2123 46.076
105.418 2131 46.1628
105.535 2146 46.3249
105.651 2238 47.3075
105.767 2279 47.7389
105.883 2279 47.7389
105.999 2284 47.7912
106.115 0 1
106.231 0 1
106.347 0 1
106.463 0 1
106.579 0 1
106.694 0 1
106.81 0 1
106.926 0 1
107.041 0 1
107.157 0 1
109.576 0 1
109.692 0 1
109.807 0 1
109.923 0 1
110.039 0 1
110.155 0 1
110.27 0 1
110.386 0 1
110.502 0 1
110.618 2057 45.3542
110.735 2174 46.6262
110.851 2253 47.4658
110.967 2161 46.4866
111.083 2195 46.8508
111.199 2296 47.9166
111.316 2273 47.676
111.432 2257 47.5079
111.549 2278 47.7284
111.665 2177 46.6583
111.782 2143 46.2925
111.898 2113 45.9674
112.015 2067 45.4643
112.132 1836 42.8486
112.248 1710 41.3521
112.365 1437 37.9078
112.482 1208 34.7563
112.599 1317 36.2905
112.716 1474 38.3927
112.832 1688 41.0853
112.949 1951 44.1701
113.066 2076 45.5631
113.183 2051 45.288
113.3 2078 45.5851
113.417 2035 45.111
113.534 2052 45.299
113.652 2112 45.9565
113.769 2038 45.1442
113.886 2114 45.9783
114.003 2112 45.9565
114.12 2122 46.0652
114.238 2177 46.6583
114.355 2193 46.8295
114.472 2231 47.2335
114.589 2308 48.0416
114.707 2305 48.0104
114.824 2361 48.5901
114.942 2352 48.4974
115.059 2471 49.7092
115.176 2353 48.5077
115.294 2289 47.8435
115.411 2201 46.9148
115.529 2138 46.2385
115.646 2118 46.0217
115.764 1933 43.9659
115.881 1838 42.8719
115.999 1514 38.9102
116.116 1444 38
116.234 1554 39.4208
116.351 1855 43.0697
116.469 2048 45.2548
116.586 2252 47.4552
116.704 2300 47.9583
116.821 2306 48.0208
116.939 2330 48.2701
117.056 2358 48.5592
117.174 2246 47.392
117.291 2334 48.3115
117.409 2301 47.9687
117.526 2451 49.5076
117.644 2326 48.2286
117.761 2347 48.4458
117.879 2348 48.4562
117.996 2441 49.4065
118.114 2442 49.4166
118.231 2519 50.1896
118.349 2475 49.7494
118.466 2642 51.4004
118.584 2462 49.6185
118.701 2505 50.05
118.819 2460 49.5984
118.936 2393 48.9183
119.053 2380 48.7852
119.171 2311 48.0729
119.288 2232 47.244
119.405 2024 44.9889
119.523 1788 42.2847
119.64 1537 39.2046
119.757 1609 40.1123
119.875 1607 40.0874
119.992 1846 42.9651
120.109 2153 46.4004
120.226 2137 46.2277
120.343 2324 48.2079
120.46 2329 48.2597
120.578 2246 47.392
120.695 2273 47.676
120.812 2311 48.0729
120.929 2301 47.9687
121.046 2312 48.0833
121.163 2260 47.5395
121.279 2353 48.5077
121.396 2274 47.6865
121.513 2323 48.1975
121.63 2352 48.4974
121.747 2360 48.5798
121.863 2397 48.9592
121.98 2514 50.1398
122.097 2457 49.5681
122.213 2366 48.6415
122.33 2496 49.96
122.446 2401 49
122.563 2394 48.9285
122.679 2329 48.2597
122.795 2256 47.4974
122.912 2177 46.6583
123.028 2165 46.5296
123.144 2001 44.7325
123.26 1755 41.8927
123.377 0 1
123.493 0 1
123.609 0 1
123.725 0 1
123.84 0 1
123.956 0 1
124.072 0 1
124.188 0 1
124.303 0 1
124.419 0 1
126.852 0 1
126.968 0 1
127.083 0 1
127.199 0 1
127.315 0 1
127.431 0 1
127.547 0 1
127.663 0 1
127.779 0 1
127.895 0 1
128.011 0 1
128.127 0 1
128.243 0 1
128.359 2108 45.913
128.476 1931 43.9431
128.592 1775 42.1307
128.708 1743 41.7493
128.825 1842 42.9185
128.941 2028 45.0333
129.058 2132 46.1736
129.174 2362 48.6004
129.291 2394 48.9285
129.408 2440 49.3964
129.524 2441 49.4065
129.641 2500 50
129.758 2460 49.5984
129.875 2390 48.8876
129.992 2459 49.5883
130.108 2417 49.163
130.225 2357 48.5489
130.342 2366 48.6415
130.459 2361 48.5901
130.576 2478 49.7795
130.693 2555 50.547
130.81 2414 49.1325
130.928 2467 49.6689
131.045 2548 50.4777
131.162 2556 50.5569
131.279 2599 50.9804
131.396 2586 50.8527
131.513 2506 50.06
131.631 2486 49.8598
131.748 2391 48.8979
131.865 2321 48.1768
131.983 2044 45.2106
132.1 1951 44.1701
132.217 1806 42.4971
132.335 1843 42.9302
132.452 2043 45.1996
132.57 2321 48.1768
132.687 2498 49.98
132.804 2621 51.1957
132.922 2631 51.2933
133.039 2626 51.2445
133.157 2613 51.1175
133.274 2612 51.1077
133.392 2469 49.689
133.509 2511 50.1099
133.627 2481 49.8096
133.744 2511 50.1099
133.862 2436 49.3559
133.979 2373 48.7134
134.097 2347 48.4458
134.214 2349 48.4665
134.332 2555 50.547
134.449 2531 50.309
134.567 2598 50.9706
134.684 2552 50.5173
134.802 2515 50.1498
134.919 2572 50.7149
135.037 2525 50.2494
135.154 2489 49.8899
135.272 2365 48.6313
135.389 2327 48.239
135.507 2187 46.7654
135.624 2004 44.7661
135.742 1910 43.7035
135.859 1847 42.9767
135.977 1997 44.6878
136.094 2248 47.4131
136.211 2476 49.7594
136.329 2508 50.0799
136.446 2524 50.2394
136.564 2538 50.3786
136.681 2560 50.5964
136.798 2531 50.309
136.915 2506 50.06
137.033 2498 49.98
137.15 2530 50.2991
137.267 2410 49.0918
137.384 2371 48.6929
137.502 2303 47.9896
137.619 2437 49.366
137.736 2394 48.9285
137.853 2411 49.1019
137.97 2435 49.3457
138.087 2396 48.949
138.204 2441 49.4065
138.321 2556 50.5569
138.438 2560 50.5964
138.555 2544 50.4381
138.672 2481 49.8096
138.788 2596 50.951
138.905 2359 48.5695
139.022 2378 48.7647
139.139 2208 46.9894
139.255 2059 45.3762
139.372 1914 43.7493
139.488 1989 44.5982
139.605 1966 44.3396
139.721 2306 48.0208
139.838 2417 49.163
139.954 2575 50.7445
140.071 2507 50.07
140.187 2477 49.7695
140.303 2493 49.93
140.419 2391 48.8979
140.535 2407 49.0612
140.652 2398 48.9694
140.768 0 1
140.884 0 1
141 0 1
141.115 0 1
141.231 0 1
141.347 0 1
141.463 0 1
141.578 0 1
141.694 0 1
144.104 0 1
144.219 0 1
144.335 0 1
144.45 0 1
144.566 0 1
144.682 0 1
144.798 0 1
144.914 0 1
145.03 0 1
145.146 1807 42.5088
145.262 2009 44.8219
145.378 2103 45.8585
145.494 2065 45.4423
145.61 2144 46.3033
145.726 2041 45.1774
145.842 2010 44.833
145.959 2042 45.1885
146.075 1956 44.2267
146.192 1894 43.5201
146.308 1879 43.3474
146.425 1936 44
146.541 1995 44.6654
146.658 2050 45.2769
146.774 2066 45.4533
146.891 2104 45.8694
147.008 2169 46.5725
147.125 2137 46.2277
147.241 2205 46.9574
147.358 2163 46.5081
147.475 2148 46.3465
147.592 2172 46.6047
147.709 2074 45.5412
147.826 2113 45.9674
147.943 1986 44.5646
148.06 1920 43.8178
148.177 1832 42.8019
148.294 1770 42.0714
148.411 1829 42.7668
148.528 2004 44.7661
148.645 2010 44.833
148.762 2198 46.8828
148.88 2275 47.697
148.997 2171 46.594
149.114 2305 48.0104
149.231 2168 46.5618
149.349 2247 47.4025
149.466 2328 48.2494
149.583 2175 46.6369
149.701 2101 45.8367
149.818 2093 45.7493
149.935 2012 44.8553
150.053 1968 44.3621
150.17 2042 45.1885
150.287 2055 45.3321
150.405 2123 46.076
150.522 2112 45.9565
150.64 2187 46.7654
150.757 2271 47.655
150.875 2167 46.551
150.992 2261 47.55
151.11 2277 47.7179
151.227 2319 48.156
151.344 2285 47.8017
151.462 2127 46.1194
151.579 2191 46.8081
151.697 2078 45.5851
151.814 1891 43.4856
151.932 1833 42.8135
152.049 1878 43.3359
152.167 1951 44.1701
152.284 1985 44.5533
152.402 2154 46.4112
152.519 2235 47.2758
152.636 2282 47.7703
152.754 2242 47.3498
152.871 2234 47.2652
152.989 2262 47.5605
153.106 2234 47.2652
153.223 2215 47.0638
153.341 2158 46.4543
153.458 2003 44.7549
153.575 2007 44.7996
153.693 2043 45.1996
153.81 2057 45.3542
153.927 2087 45.6837
154.044 2133 46.1844
154.162 2162 46.4973
154.279 2220 47.1169
154.396 2229 47.2123
154.513 2301 47.9687
154.63 2293 47.8853
154.747 2362 48.6004
154.864 2400 48.9898
154.981 2328 48.2494
155.098 2286 47.8121
155.215 2167 46.551
155.332 2118 46.0217
155.449 2082 45.6289
155.566 2089 45.7056
155.683 2159 46.465
155.8 2272 47.6655
155.917 2372 48.7032
156.033 2400 48.9898
156.15 0 1
156.267 0 1
156.383 0 1
156.5 0 1
156.617 0 1
156.733 0 1
156.85 0 1
156.966 0 1
157.082 0 1
157.199 0 1
157.315 0 1
157.431 0 1
157.547 0 1
157.664 0 1
157.78 0 1
157.896 0 1
158.012 0 1
158.128 0 1
158.244 0 1
158.359 0 1
158.475 0 1
158.591 0 1
158.706 0 1
