
6.15755 0 1
6.2731 0 1
6.3887 0 1
6.50437 0 1
6.62009 0 1
6.73587 0 1
6.8517 0 1
6.96759 0 1
7.08353 0 1
7.19952 0 1
7.31557 0 1
7.43166 0 1
7.54781 0 1
7.664 0 1
7.78024 0 1
7.89653 0 1
8.01286 0 1
8.12924 0 1
8.24567 0 1
8.36213 0 1
8.47864 0 1
8.59519 0 1
8.71178 0 1
8.82841 0 1
8.94508 0 1
9.06179 0 1
9.17853 0 1
9.29531 0 1
9.41212 0 1
9.52897 0 1
9.64584 0 1
9.76276 0 1
9.8797 0 1
9.99667 0 1
10.1137 0 1
10.2307 0 1
10.3478 0 1
10.4648 0 1
10.5819 0 1
10.6991 0 1
10.8162 0 1
10.9334 0 1
11.0506 0 1
11.1678 0 1
11.285 0 1
11.4023 0 1
11.5196 0 1
11.6369 0 1
11.7542 0 1
11.8715 0 1
11.9888 0 1
12.1062 0 1
12.2235 0 1
12.3409 0 1
12.4582 0 1
12.5756 0 1
12.693 0 1
12.8104 0 1
12.9278 0 1
13.0452 0 1
13.1626 0 1
13.28 0 1
13.3974 0 1
13.5149 0 1
13.6323 0 1
13.7497 0 1
13.8671 0 1
13.9845 0 1
14.1019 0 1
14.2193 0 1
14.3367 0 1
14.4541 0 1
14.5714 0 1
14.6888 0 1
14.8062 0 1
14.9235 0 1
15.0408 369 19.2094
15.1581 377 19.4165
15.2755 392 19.799
15.3927 436 20.8806
15.51 426 20.6398
15.6273 384 19.5959
15.7445 407 20.1742
15.8617 392 19.799
15.9789 421 20.5183
16.0961 399 19.975
16.2132 371 19.2614
16.3304 439 20.9523
16.4475 443 21.0476
16.5646 401 20.025
16.6816 456 21.3542
16.7986 399 19.975
16.9156 417 20.4206
17.0326 417 20.4206
17.1496 436 20.8806
17.2665 470 21.6795
17.3833 422 20.5426
17.5002 421 20.5183
17.617 410 20.2485
17.7338 420 20.4939
17.8505 384 19.5959
17.9672 418 20.445
18.0839 363 19.0526
18.2005 376 19.3907
18.3171 410 20.2485
18.4337 399 19.975
18.5502 395 19.8746
18.6666 446 21.1187
18.7831 431 20.7605
18.8994 446 21.1187
19.0158 458 21.4009
19.1321 390 19.7484
19.2483 405 20.1246
19.3645 340 18.4391
19.4806 352 18.7617
19.5967 365 19.105
19.7128 317 17.8045
19.8288 318 17.8326
19.9447 280 16.7332
20.0606 0 1
20.1764 0 1
20.2922 0 1
20.4079 0 1
20.5236 0 1
20.6392 0 1
20.7548 0 1
20.8702 0 1
23.3078 0 1
23.4233 0 1
23.539 0 1
23.6547 0 1
23.7704 0 1
23.8862 0 1
24.0021 0 1
24.118 0 1
24.234 0 1
24.35 0 1
24.4661 131 11.4455
24.5822 181 13.4536
24.6984 212 14.5602
24.8146 240 15.4919
24.9309 252 15.8745
25.0472 334 18.2757
25.1636 356 18.868
25.28 361 19
25.3965 433 20.8087
25.513 454 21.3073
25.6296 433 20.8087
25.7462 471 21.7025
25.8628 457 21.3776
25.9795 456 21.3542
26.0962 475 21.7945
26.213 470 21.6795
26.3298 480 21.9089
26.4466 481 21.9317
26.5635 438 20.9284
26.6804 408 20.199
26.7973 431 20.7605
26.9143 393 19.8242
27.0313 388 19.6977
27.1483 460 21.4476
27.2653 483 21.9773
27.3824 439 20.9523
27.4996 426 20.6398
27.6167 416 20.3961
27.7339 455 21.3307
27.8511 403 20.0749
27.9683 399 19.975
28.0855 439 20.9523
28.2028 401 20.025
28.3201 412 20.2978
28.4374 413 20.3224
28.5547 420 20.4939
28.6721 421 20.5183
28.7894 439 20.9523
28.9068 465 21.5639
29.0242 416 20.3961
29.1416 437 20.9045
29.259 458 21.4009
29.3764 444 21.0713
29.4939 443 21.0476
29.6113 455 21.3307
29.7288 459 21.4243
29.8463 435 20.8567
29.9638 411 20.2731
30.0812 408 20.199
30.1987 416 20.3961
30.3162 402 20.0499
30.4337 401 20.025
30.5512 411 20.2731
30.6687 404 20.0998
30.7862 403 20.0749
30.9037 409 20.2237
31.0212 419 20.4695
31.1387 419 20.4695
31.2562 385 19.6214
31.3737 392 19.799
31.4912 408 20.199
31.6087 386 19.6469
31.7262 413 20.3224
31.8436 376 19.3907
31.9611 393 19.8242
32.0785 401 20.025
32.1959 451 21.2368
32.3134 419 20.4695
32.4308 424 20.5913
32.5482 422 20.5426
32.6655 437 20.9045
32.7829 449 21.1896
32.9002 430 20.7364
33.0176 441 21
33.1349 449 21.1896
33.2522 437 20.9045
33.3694 453 21.2838
33.4867 447 21.1424
33.6039 412 20.2978
33.7211 441 21
33.8383 394 19.8494
33.9554 415 20.3715
34.0725 381 19.5192
34.1896 393 19.8242
34.3067 395 19.8746
34.4237 385 19.6214
34.5407 371 19.2614
34.6577 417 20.4206
34.7746 419 20.4695
34.8915 357 18.8944
35.0084 409 20.2237
35.1252 378 19.4422
35.242 383 19.5704
35.3587 372 19.2873
35.4755 395 19.8746
35.5921 415 20.3715
35.7088 406 20.1494
35.8254 402 20.0499
35.9419 425 20.6155
36.0584 430 20.7364
36.1749 436 20.8806
36.2913 423 20.567
36.4077 417 20.4206
36.524 397 19.9249
36.6403 354 18.8149
36.7565 341 18.4662
36.8727 328 18.1108
36.9889 300 17.3205
37.1049 265 16.2788
37.221 0 1
37.3369 0 1
37.4529 0 1
37.5687 0 1
37.6845 0 1
37.8003 0 1
37.916 0 1
38.0316 0 1
38.1472 0 1
40.5851 0 1
40.7008 0 1
40.8164 0 1
40.9322 0 1
41.048 0 1
41.1639 0 1
41.2798 0 1
41.3958 0 1
41.5118 0 1
41.6279 0 1
41.744 149 12.2066
41.8602 213 14.5945
41.9765 214 14.6287
42.0928 264 16.2481
42.2091 281 16.7631
42.3255 314 17.72
42.4419 320 17.8885
42.5584 342 18.4932
42.675 352 18.7617
42.7915 311 17.6352
42.9081 315 17.7482
43.0248 318 17.8326
43.1415 312 17.6635
43.2582 336 18.3303
43.375 349 18.6815
43.4918 353 18.7883
43.6087 372 19.2873
43.7256 378 19.4422
43.8425 329 18.1384
43.9595 316 17.7764
44.0765 325 18.0278
44.1935 325 18.0278
44.3106 331 18.1934
44.4277 354 18.8149
44.5448 336 18.3303
44.6619 332 18.2209
44.7791 311 17.6352
44.8963 380 19.4936
45.0136 340 18.4391
45.1308 368 19.1833
45.2481 389 19.7231
45.3654 331 18.1934
45.4827 344 18.5472
45.6001 352 18.7617
45.7174 369 19.2094
45.8348 375 19.3649
45.9522 375 19.3649
46.0697 369 19.2094
46.1871 363 19.0526
46.3046 316 17.7764
46.422 320 17.8885
46.5395 359 18.9473
46.657 331 18.1934
46.7745 327 18.0831
46.892 358 18.9209
47.0096 360 18.9737
47.1271 365 19.105
47.2446 362 19.0263
47.3622 351 18.735
47.4797 356 18.868
47.5973 335 18.303
47.7149 333 18.2483
47.8324 334 18.2757
47.95 321 17.9165
48.0675 374 19.3391
48.1851 381 19.5192
48.3027 320 17.8885
48.4202 364 19.0788
48.5378 356 18.868
48.6554 367 19.1572
48.7729 364 19.0788
48.8904 357 18.8944
49.008 355 18.8414
49.1255 341 18.4662
49.243 370 19.2354
49.3605 335 18.303
49.478 367 19.1572
49.5955 324 18
49.713 373 19.3132
49.8304 347 18.6279
49.9479 354 18.8149
50.0653 307 17.5214
50.1827 303 17.4069
50.3001 338 18.3848
50.4175 331 18.1934
50.5348 326 18.0555
50.6521 330 18.1659
50.7694 350 18.7083
50.8867 367 19.1572
51.004 338 18.3848
51.1212 346 18.6011
51.2384 365 19.105
51.3556 348 18.6548
51.4727 359 18.9473
51.5899 359 18.9473
51.707 355 18.8414
51.824 379 19.4679
51.9411 399 19.975
52.0581 349 18.6815
52.175 352 18.7617
52.2919 350 18.7083
52.4088 386 19.6469
52.5257 327 18.0831
52.6425 363 19.0526
52.7593 349 18.6815
52.876 369 19.2094
52.9927 411 20.2731
53.1094 381 19.5192
53.226 391 19.7737
53.3426 373 19.3132
53.4591 359 18.9473
53.5756 322 17.9444
53.692 334 18.2757
53.8084 304 17.4356
53.9248 247 15.7162
54.0411 235 15.3297
54.1573 187 13.6748
54.2735 0 1
54.3896 0 1
54.5057 0 1
54.6217 0 1
54.7377 0 1
54.8537 0 1
54.9695 0 1
55.0853 0 1
55.2011 0 1
55.3168 0 1
55.4324 0 1
57.824 0 1
57.9396 0 1
58.0553 0 1
58.1711 0 1
58.2869 0 1
58.4028 0 1
58.5187 0 1
58.6347 0 1
58.7508 0 1
58.8669 0 1
58.983 223 14.9332
59.0992 246 15.6844
59.2155 279 16.7033
59.3318 338 18.3848
59.4482 396 19.8997
59.5646 401 20.025
59.681 384 19.5959
59.7975 478 21.8632
59.9141 409 20.2237
60.0306 416 20.3961
60.1473 473 21.7486
60.2639 465 21.5639
60.3807 437 20.9045
60.4974 476 21.8174
60.6142 453 21.2838
60.731 452 21.2603
60.8479 482 21.9545
60.9648 452 21.2603
61.0818 463 21.5174
61.1987 477 21.8403
61.3158 468 21.6333
61.4328 433 20.8087
61.5499 412 20.2978
61.667 434 20.8327
61.7841 484 22
61.9013 467 21.6102
62.0185 452 21.2603
62.1357 447 21.1424
62.253 437 20.9045
62.3702 434 20.8327
62.4875 415 20.3715
62.6049 435 20.8567
62.7222 399 19.975
62.8396 421 20.5183
62.9569 472 21.7256
63.0743 447 21.1424
63.1918 451 21.2368
63.3092 451 21.2368
63.4267 467 21.6102
63.5441 468 21.6333
63.6616 472 21.7256
63.7791 430 20.7364
63.8966 439 20.9523
64.0142 482 21.9545
64.1317 436 20.8806
64.2492 490 22.1359
64.3668 472 21.7256
64.4843 477 21.8403
64.6019 462 21.4942
64.7195 444 21.0713
64.837 426 20.6398
64.9546 471 21.7025
65.0722 436 20.8806
65.1898 443 21.0476
65.3074 469 21.6564
65.4249 475 21.7945
65.5425 452 21.2603
65.6601 481 21.9317
65.7777 430 20.7364
65.8952 454 21.3073
66.0128 451 21.2368
66.1304 478 21.8632
66.2479 441 21
66.3655 408 20.199
66.483 443 21.0476
66.6005 395 19.8746
66.718 425 20.6155
66.8355 462 21.4942
66.953 453 21.2838
67.0705 435 20.8567
67.1879 437 20.9045
67.3054 443 21.0476
67.4228 440 20.9762
67.5402 475 21.7945
67.6576 476 21.8174
67.7749 461 21.4709
67.8923 440 20.9762
68.0096 471 21.7025
68.1269 405 20.1246
68.2442 436 20.8806
68.3614 460 21.4476
68.4787 487 22.0681
68.5958 402 20.0499
68.713 426 20.6398
68.8302 435 20.8567
68.9473 485 22.0227
69.0643 421 20.5183
69.1814 487 22.0681
69.2984 463 21.5174
69.4154 452 21.2603
69.5323 461 21.4709
69.6492 444 21.0713
69.7661 417 20.4206
69.8829 376 19.3907
69.9997 398 19.9499
70.1165 418 20.445
70.2332 401 20.025
70.3499 398 19.9499
70.4665 389 19.7231
70.5831 382 19.5448
70.6996 308 17.5499
70.8161 291 17.0587
70.9326 255 15.9687
71.049 239 15.4596
71.1653 225 15
71.2817 233 15.2643
71.3979 180 13.4164
71.5141 181 13.4536
71.6303 152 12.3288
71.7464 137 11.7047
71.8624 0 1
71.9784 0 1
72.0944 0 1
72.2102 0 1
72.3261 0 1
72.4418 0 1
72.5575 0 1
72.6732 0 1
75.1054 0 1
75.2209 0 1
75.3365 0 1
75.4521 0 1
75.5678 0 1
75.6835 0 1
75.7993 0 1
75.9151 0 1
76.031 0 1
76.147 210 14.4914
76.263 281 16.7631
76.3791 334 18.2757
76.4952 349 18.6815
76.6113 388 19.6977
76.7276 351 18.735
76.8438 387 19.6723
76.9601 387 19.6723
77.0765 377 19.4165
77.1929 396 19.8997
77.3093 399 19.975
77.4258 394 19.8494
77.5423 372 19.2873
77.6589 395 19.8746
77.7755 396 19.8997
77.8921 402 20.0499
78.0088 394 19.8494
78.1256 386 19.6469
78.2423 386 19.6469
78.3591 370 19.2354
78.4759 413 20.3224
78.5928 402 20.0499
78.7097 401 20.025
78.8266 368 19.1833
78.9436 383 19.5704
79.0606 369 19.2094
79.1776 395 19.8746
79.2946 382 19.5448
79.4117 418 20.445
79.5288 426 20.6398
79.6459 426 20.6398
79.7631 394 19.8494
79.8802 447 21.1424
79.9974 411 20.2731
80.1147 433 20.8087
80.2319 409 20.2237
80.3491 392 19.799
80.4664 434 20.8327
80.5837 419 20.4695
80.701 398 19.9499
80.8183 414 20.347
80.9357 402 20.0499
81.053 409 20.2237
81.1704 393 19.8242
81.2877 413 20.3224
81.4051 479 21.8861
81.5225 438 20.9284
81.6399 419 20.4695
81.7573 405 20.1246
81.8747 403 20.0749
81.9922 416 20.3961
82.1096 434 20.8327
82.227 436 20.8806
82.3444 429 20.7123
82.4619 390 19.7484
82.5793 408 20.199
82.6967 387 19.6723
82.8142 366 19.1311
82.9316 389 19.7231
83.049 377 19.4165
83.1664 356 18.868
83.2838 393 19.8242
83.4012 377 19.4165
83.5186 400 20
83.636 433 20.8087
83.7534 359 18.9473
83.8708 349 18.6815
83.9881 349 18.6815
84.1055 375 19.3649
84.2228 335 18.303
84.3401 370 19.2354
84.4575 347 18.6279
84.5747 350 18.7083
84.692 331 18.1934
84.8093 352 18.7617
84.9265 361 19
85.0437 347 18.6279
85.1609 333 18.2483
85.2781 330 18.1659
85.3952 338 18.3848
85.5123 320 17.8885
85.6294 334 18.2757
85.7465 296 17.2047
85.8636 300 17.3205
85.9806 319 17.8606
86.0976 331 18.1934
86.2145 286 16.9115
86.3315 258 16.0624
86.4484 220 14.8324
86.5652 259 16.0935
86.682 282 16.7929
86.7988 265 16.2788
86.9156 272 16.4924
87.0323 277 16.6433
87.149 267 16.3401
87.2657 301 17.3494
87.3823 261 16.1555
87.4988 257 16.0312
87.6154 231 15.1987
87.7318 239 15.4596
87.8483 229 15.1327
87.9647 195 13.9642
88.081 199 14.1067
88.1973 142 11.9164
88.3136 139 11.7898
88.4298 118 10.8628
88.546 116 10.7703
88.6621 124 11.1355
88.7781 93 9.64365
88.8942 0 1
89.0101 0 1
89.126 0 1
89.2419 0 1
89.3577 0 1
89.4734 0 1
89.5891 0 1
89.7047 0 1
89.8203 0 1
89.9358 0 1
92.3269 0 1
92.4424 0 1
92.558 0 1
92.6736 0 1
92.7893 0 1
92.905 0 1
93.0208 0 1
93.1366 0 1
93.2525 0 1
93.3685 0 1
93.4845 0 1
93.6005 144 12
93.7167 210 14.4914
93.8328 218 14.7648
93.949 259 16.0935
94.0653 272 16.4924
94.1816 241 15.5242
94.2979 285 16.8819
94.4143 288 16.9706
94.5307 272 16.4924
94.6472 281 16.7631
94.7637 261 16.1555
94.8803 312 17.6635
94.9969 270 16.4317
95.1135 304 17.4356
95.2302 280 16.7332
95.3469 298 17.2627
95.4637 283 16.8226
95.5805 297 17.2337
95.6973 292 17.088
95.8142 281 16.7631
95.9311 308 17.5499
96.048 277 16.6433
96.1649 307 17.5214
96.2819 323 17.9722
96.3989 327 18.0831
96.516 344 18.5472
96.633 310 17.6068
96.7501 308 17.5499
96.8673 317 17.8045
96.9844 308 17.5499
97.1016 356 18.868
97.2188 374 19.3391
97.336 354 18.8149
97.4532 335 18.303
97.5704 353 18.7883
97.6877 357 18.8944
97.805 356 18.868
97.9223 353 18.7883
98.0396 361 19
98.1569 364 19.0788
98.2743 352 18.7617
98.3916 378 19.4422
98.509 353 18.7883
98.6264 346 18.6011
98.7438 357 18.8944
98.8612 398 19.9499
98.9786 368 19.1833
99.096 354 18.8149
99.2134 343 18.5203
99.3308 372 19.2873
99.4482 360 18.9737
99.5656 375 19.3649
99.6831 368 19.1833
99.8005 366 19.1311
99.9179 392 19.799
100.035 370 19.2354
100.153 390 19.7484
100.27 393 19.8242
100.388 375 19.3649
100.505 373 19.3132
100.622 381 19.5192
100.74 362 19.0263
100.857 387 19.6723
100.975 390 19.7484
101.092 404 20.0998
101.209 381 19.5192
101.327 412 20.2978
101.444 417 20.4206
101.561 439 20.9523
101.679 401 20.025
101.796 419 20.4695
101.913 433 20.8087
102.03 437 20.9045
102.148 393 19.8242
102.265 390 19.7484
102.382 397 19.9249
102.499 406 20.1494
102.616 416 20.3961
102.733 382 19.5448
102.851 434 20.8327
102.968 416 20.3961
103.085 444 21.0713
103.202 358 18.9209
103.319 417 20.4206
103.436 423 20.567
103.552 426 20.6398
103.669 426 20.6398
103.786 398 19.9499
103.903 451 21.2368
104.02 428 20.6882
104.137 414 20.347
104.253 416 20.3961
104.37 463 21.5174
104.487 416 20.3961
104.603 440 20.9762
104.72 434 20.8327
104.836 413 20.3224
104.953 414 20.347
105.069 469 21.6564
105.186 417 20.4206
105.302 408 20.199
105.418 394 19.8494
105.535 307 17.5214
105.651 270 16.4317
105.767 242 15.5563
105.883 207 14.3875
105.999 143 11.9583
106.115 0 1
106.231 0 1
106.347 0 1
106.463 0 1
106.579 0 1
106.694 0 1
106.81 0 1
106.926 0 1
107.041 0 1
107.157 0 1
109.576 0 1
109.692 0 1
109.807 0 1
109.923 0 1
110.039 0 1
110.155 0 1
110.27 0 1
110.386 0 1
110.502 0 1
110.618 217 14.7309
110.735 276 16.6132
110.851 263 16.2173
110.967 335 18.303
111.083 314 17.72
111.199 332 18.2209
111.316 375 19.3649
111.432 373 19.3132
111.549 384 19.5959
111.665 385 19.6214
111.782 362 19.0263
111.898 383 19.5704
112.015 410 20.2485
112.132 406 20.1494
112.248 357 18.8944
112.365 411 20.2731
112.482 415 20.3715
112.599 401 20.025
112.716 393 19.8242
112.832 383 19.5704
112.949 415 20.3715
113.066 355 18.8414
113.183 381 19.5192
113.3 354 18.8149
113.417 375 19.3649
113.534 370 19.2354
113.652 400 20
113.769 371 19.2614
113.886 349 18.6815
114.003 391 19.7737
114.12 389 19.7231
114.238 363 19.0526
114.355 369 19.2094
114.472 367 19.1572
114.589 403 20.0749
114.707 372 19.2873
114.824 362 19.0263
114.942 334 18.2757
115.059 390 19.7484
115.176 392 19.799
115.294 387 19.6723
115.411 373 19.3132
115.529 350 18.7083
115.646 415 20.3715
115.764 354 18.8149
115.881 371 19.2614
115.999 423 20.567
116.116 385 19.6214
116.234 395 19.8746
116.351 351 18.735
116.469 400 20
116.586 375 19.3649
116.704 398 19.9499
116.821 414 20.347
116.939 371 19.2614
117.056 356 18.868
117.174 410 20.2485
117.291 381 19.5192
117.409 380 19.4936
117.526 370 19.2354
117.644 410 20.2485
117.761 390 19.7484
117.879 343 18.5203
117.996 374 19.3391
118.114 387 19.6723
118.231 374 19.3391
118.349 342 18.4932
118.466 353 18.7883
118.584 368 19.1833
118.701 415 20.3715
118.819 346 18.6011
118.936 366 19.1311
119.053 377 19.4165
119.171 370 19.2354
119.288 339 18.412
119.405 348 18.6548
119.523 347 18.6279
119.64 377 19.4165
119.757 347 18.6279
119.875 353 18.7883
119.992 405 20.1246
120.109 380 19.4936
120.226 370 19.2354
120.343 358 18.9209
120.46 346 18.6011
120.578 409 20.2237
120.695 357 18.8944
120.812 375 19.3649
120.929 379 19.4679
121.046 368 19.1833
121.163 365 19.105
121.279 362 19.0263
121.396 374 19.3391
121.513 341 18.4662
121.63 397 19.9249
121.747 333 18.2483
121.863 347 18.6279
121.98 315 17.7482
122.097 340 18.4391
122.213 298 17.2627
122.33 282 16.7929
122.446 246 15.6844
122.563 217 14.7309
122.679 212 14.5602
122.795 205 14.3178
122.912 187 13.6748
123.028 164 12.8062
123.144 180 13.4164
123.26 160 12.6491
123.377 0 1
123.493 0 1
123.609 0 1
123.725 0 1
123.84 0 1
123.956 0 1
124.072 0 1
124.188 0 1
124.303 0 1
124.419 0 1
126.852 0 1
126.968 0 1
127.083 0 1
127.199 0 1
127.315 0 1
127.431 0 1
127.547 0 1
127.663 0 1
127.779 0 1
127.895 0 1
128.011 0 1
128.127 0 1
128.243 0 1
128.359 348 18.6548
128.476 382 19.5448
128.592 378 19.4422
128.708 403 20.0749
128.825 428 20.6882
128.941 420 20.4939
129.058 400 20
129.174 378 19.4422
129.291 409 20.2237
129.408 412 20.2978
129.524 430 20.7364
129.641 421 20.5183
129.758 413 20.3224
129.875 385 19.6214
129.992 415 20.3715
130.108 428 20.6882
130.225 417 20.4206
130.342 426 20.6398
130.459 387 19.6723
130.576 405 20.1246
130.693 362 19.0263
130.81 412 20.2978
130.928 385 19.6214
131.045 380 19.4936
131.162 386 19.6469
131.279 409 20.2237
131.396 406 20.1494
131.513 438 20.9284
131.631 392 19.799
131.748 387 19.6723
131.865 353 18.7883
131.983 374 19.3391
132.1 372 19.2873
132.217 409 20.2237
132.335 450 21.2132
132.452 413 20.3224
132.57 380 19.4936
132.687 417 20.4206
132.804 410 20.2485
132.922 403 20.0749
133.039 412 20.2978
133.157 430 20.7364
133.274 420 20.4939
133.392 402 20.0499
133.509 431 20.7605
133.627 417 20.4206
133.744 383 19.5704
133.862 419 20.4695
133.979 411 20.2731
134.097 399 19.975
134.214 371 19.2614
134.332 358 18.9209
134.449 400 20
134.567 373 19.3132
134.684 378 19.4422
134.802 415 20.3715
134.919 413 20.3224
135.037 399 19.975
135.154 359 18.9473
135.272 365 19.105
135.389 373 19.3132
135.507 397 19.9249
135.624 342 18.4932
135.742 366 19.1311
135.859 420 20.4939
135.977 411 20.2731
136.094 426 20.6398
136.211 420 20.4939
136.329 414 20.347
136.446 438 20.9284
136.564 420 20.4939
136.681 415 20.3715
136.798 438 20.9284
136.915 447 21.1424
137.033 417 20.4206
137.15 359 18.9473
137.267 448 21.166
137.384 404 20.0998
137.502 401 20.025
137.619 376 19.3907
137.736 380 19.4936
137.853 384 19.5959
137.97 352 18.7617
138.087 363 19.0526
138.204 367 19.1572
138.321 409 20.2237
138.438 404 20.0998
138.555 429 20.7123
138.672 412 20.2978
138.788 398 19.9499
138.905 368 19.1833
139.022 352 18.7617
139.139 353 18.7883
139.255 336 18.3303
139.372 305 17.4642
139.488 325 18.0278
139.605 274 16.5529
139.721 269 16.4012
139.838 284 16.8523
139.954 271 16.4621
140.071 207 14.3875
140.187 251 15.843
140.303 206 14.3527
140.419 187 13.6748
140.535 180 13.4164
140.652 159 12.6095
140.768 0 1
140.884 0 1
141 0 1
141.115 0 1
141.231 0 1
141.347 0 1
141.463 0 1
141.578 0 1
141.694 0 1
144.104 0 1
144.219 0 1
144.335 0 1
144.45 0 1
144.566 0 1
144.682 0 1
144.798 0 1
144.914 0 1
145.03 0 1
145.146 295 17.1756
145.262 330 18.1659
145.378 316 17.7764
145.494 319 17.8606
145.61 327 18.0831
145.726 327 18.0831
145.842 309 17.5784
145.959 311 17.6352
146.075 321 17.9165
146.192 333 18.2483
146.308 294 17.1464
146.425 284 16.8523
146.541 310 17.6068
146.658 295 17.1756
146.774 283 16.8226
146.891 274 16.5529
147.008 286 16.9115
147.125 305 17.4642
147.241 302 17.3781
147.358 280 16.7332
147.475 301 17.3494
147.592 312 17.6635
147.709 297 17.2337
147.826 297 17.2337
147.943 323 17.9722
148.06 314 17.72
148.177 283 16.8226
148.294 313 17.6918
148.411 300 17.3205
148.528 308 17.5499
148.645 325 18.0278
148.762 308 17.5499
148.88 330 18.1659
148.997 343 18.5203
149.114 308 17.5499
149.231 284 16.8523
149.349 319 17.8606
149.466 332 18.2209
149.583 344 18.5472
149.701 300 17.3205
149.818 314 17.72
149.935 286 16.9115
150.053 294 17.1464
150.17 303 17.4069
150.287 276 16.6132
150.405 268 16.3707
150.522 301 17.3494
150.64 281 16.7631
150.757 250 15.8114
150.875 310 17.6068
150.992 290 17.0294
151.11 283 16.8226
151.227 265 16.2788
151.344 285 16.8819
151.462 269 16.4012
151.579 304 17.4356
151.697 315 17.7482
151.814 318 17.8326
151.932 290 17.0294
152.049 315 17.7482
152.167 288 16.9706
152.284 293 17.1172
152.402 314 17.72
152.519 306 17.4929
152.636 313 17.6918
152.754 292 17.088
152.871 307 17.5214
152.989 300 17.3205
153.106 334 18.2757
153.223 306 17.4929
153.341 284 16.8523
153.458 282 16.7929
153.575 304 17.4356
153.693 302 17.3781
153.81 271 16.4621
153.927 239 15.4596
154.044 281 16.7631
154.162 281 16.7631
154.279 305 17.4642
154.396 254 15.9374
154.513 295 17.1756
154.63 295 17.1756
154.747 288 16.9706
154.864 282 16.7929
154.981 278 16.6733
155.098 281 16.7631
155.215 248 15.748
155.332 257 16.0312
155.449 264 16.2481
155.566 292 17.088
155.683 277 16.6433
155.8 290 17.0294
155.917 283 16.8226
156.033 292 17.088
156.15 0 1
156.267 0 1
156.383 0 1
156.5 0 1
156.617 0 1
156.733 0 1
156.85 0 1
156.966 0 1
157.082 0 1
157.199 0 1
157.315 0 1
157.431 0 1
157.547 0 1
157.664 0 1
157.78 0 1
157.896 0 1
158.012 0 1
158.128 0 1
158.244 0 1
158.359 0 1
158.475 0 1
158.591 0 1
158.706 0 1
