
6.15755 0 1
6.2731 0 1
6.3887 0 1
6.50437 0 1
6.62009 0 1
6.73587 0 1
6.8517 0 1
6.96759 0 1
7.08353 0 1
7.19952 0 1
7.31557 0 1
7.43166 0 1
7.54781 0 1
7.664 0 1
7.78024 0 1
7.89653 0 1
8.01286 0 1
8.12924 0 1
8.24567 0 1
8.36213 0 1
8.47864 0 1
8.59519 0 1
8.71178 0 1
8.82841 0 1
8.94508 0 1
9.06179 0 1
9.17853 0 1
9.29531 0 1
9.41212 0 1
9.52897 0 1
9.64584 0 1
9.76276 0 1
9.8797 0 1
9.99667 0 1
10.1137 0 1
10.2307 0 1
10.3478 0 1
10.4648 0 1
10.5819 0 1
10.6991 0 1
10.8162 0 1
10.9334 0 1
11.0506 0 1
11.1678 0 1
11.285 0 1
11.4023 0 1
11.5196 0 1
11.6369 0 1
11.7542 0 1
11.8715 0 1
11.9888 0 1
12.1062 0 1
12.2235 0 1
12.3409 0 1
12.4582 0 1
12.5756 0 1
12.693 0 1
12.8104 0 1
12.9278 0 1
13.0452 0 1
13.1626 0 1
13.28 0 1
13.3974 0 1
13.5149 0 1
13.6323 0 1
13.7497 0 1
13.8671 0 1
13.9845 0 1
14.1019 0 1
14.2193 0 1
14.3367 0 1
14.4541 0 1
14.5714 0 1
14.6888 0 1
14.8062 0 1
14.9235 0 1
15.0408 0 0
15.1581 0 0
15.2755 0 0
15.3927 0 0
15.51 0 0
15.6273 0 0
15.7445 0 0
15.8617 0 0
15.9789 0 0
16.0961 0 0
16.2132 0 0
16.3304 0 0
16.4475 0 0
16.5646 0 0
16.6816 0 0
16.7986 0 0
16.9156 0 0
17.0326 0 0
17.1496 0 0
17.2665 0 0
17.3833 0 0
17.5002 0 0
17.617 0 0
17.7338 0 0
17.8505 0 0
17.9672 0 0
18.0839 0 0
18.2005 0 0
18.3171 0 0
18.4337 0 0
18.5502 0 0
18.6666 0 0
18.7831 0 0
18.8994 0 0
19.0158 0 0
19.1321 0 0
19.2483 0 0
19.3645 0 0
19.4806 0 0
19.5967 0 0
19.7128 0 0
19.8288 0 0
19.9447 0 0
20.0606 0 1
20.1764 0 1
20.2922 0 1
20.4079 0 1
20.5236 0 1
20.6392 0 1
20.7548 0 1
20.8702 0 1
23.3078 0 1
23.4233 0 1
23.539 0 1
23.6547 0 1
23.7704 0 1
23.8862 0 1
24.0021 0 1
24.118 0 1
24.234 0 1
24.35 0 1
24.4661 881 29.6816
24.5822 816 28.5657
24.6984 810 28.4605
24.8146 838 28.9482
24.9309 818 28.6007
25.0472 845 29.0689
25.1636 910 30.1662
25.28 876 29.5973
25.3965 857 29.2746
25.513 880 29.6648
25.6296 880 29.6648
25.7462 909 30.1496
25.8628 918 30.2985
25.9795 875 29.5804
26.0962 879 29.6479
26.213 855 29.2404
26.3298 871 29.5127
26.4466 889 29.8161
26.5635 862 29.3598
26.6804 841 29
26.7973 824 28.7054
26.9143 788 28.0713
27.0313 777 27.8747
27.1483 786 28.0357
27.2653 793 28.1603
27.3824 797 28.2312
27.4996 837 28.931
27.6167 800 28.2843
27.7339 741 27.2213
27.8511 801 28.3019
27.9683 760 27.5681
28.0855 759 27.55
28.2028 729 27
28.3201 736 27.1293
28.4374 813 28.5132
28.5547 781 27.9464
28.6721 818 28.6007
28.7894 818 28.6007
28.9068 854 29.2233
29.0242 813 28.5132
29.1416 847 29.1033
29.259 863 29.3769
29.3764 818 28.6007
29.4939 817 28.5832
29.6113 842 29.0172
29.7288 786 28.0357
29.8463 828 28.775
29.9638 799 28.2666
30.0812 793 28.1603
30.1987 794 28.178
30.3162 807 28.4077
30.4337 739 27.1846
30.5512 690 26.2679
30.6687 705 26.5518
30.7862 699 26.4386
30.9037 743 27.258
31.0212 779 27.9106
31.1387 793 28.1603
31.2562 747 27.3313
31.3737 711 26.6646
31.4912 768 27.7128
31.6087 725 26.9258
31.7262 756 27.4955
31.8436 725 26.9258
31.9611 798 28.2489
32.0785 747 27.3313
32.1959 858 29.2916
32.3134 784 28
32.4308 792 28.1425
32.5482 826 28.7402
32.6655 832 28.8444
32.7829 873 29.5466
32.9002 831 28.8271
33.0176 760 27.5681
33.1349 795 28.1957
33.2522 820 28.6356
33.3694 850 29.1548
33.4867 821 28.6531
33.6039 848 29.1204
33.7211 833 28.8617
33.8383 834 28.8791
33.9554 790 28.1069
34.0725 726 26.9444
34.1896 704 26.533
34.3067 645 25.3969
34.4237 682 26.1151
34.5407 700 26.4575
34.6577 711 26.6646
34.7746 695 26.3629
34.8915 727 26.9629
35.0084 744 27.2764
35.1252 728 26.9815
35.242 705 26.5518
35.3587 703 26.5141
35.4755 692 26.3059
35.5921 710 26.6458
35.7088 784 28
35.8254 752 27.4226
35.9419 759 27.55
36.0584 724 26.9072
36.1749 756 27.4955
36.2913 788 28.0713
36.4077 816 28.5657
36.524 766 27.6767
36.6403 727 26.9629
36.7565 788 28.0713
36.8727 800 28.2843
36.9889 752 27.4226
37.1049 774 27.8209
37.221 0 1
37.3369 0 1
37.4529 0 1
37.5687 0 1
37.6845 0 1
37.8003 0 1
37.916 0 1
38.0316 0 1
38.1472 0 1
40.5851 0 1
40.7008 0 1
40.8164 0 1
40.9322 0 1
41.048 0 1
41.1639 0 1
41.2798 0 1
41.3958 0 1
41.5118 0 1
41.6279 0 1
41.744 626 25.02
41.8602 621 24.9199
41.9765 662 25.7294
42.0928 636 25.219
42.2091 662 25.7294
42.3255 608 24.6577
42.4419 648 25.4558
42.5584 652 25.5343
42.675 665 25.7876
42.7915 671 25.9037
42.9081 606 24.6171
43.0248 584 24.1661
43.1415 534 23.1084
43.2582 556 23.5797
43.375 548 23.4094
43.4918 673 25.9422
43.6087 622 24.9399
43.7256 584 24.1661
43.8425 543 23.3024
43.9595 527 22.9565
44.0765 537 23.1733
44.1935 562 23.7065
44.3106 612 24.7386
44.4277 582 24.1247
44.5448 592 24.3311
44.6619 542 23.2809
44.7791 621 24.9199
44.8963 593 24.3516
45.0136 582 24.1247
45.1308 636 25.219
45.2481 552 23.4947
45.3654 573 23.9374
45.4827 535 23.1301
45.6001 618 24.8596
45.7174 575 23.9792
45.8348 536 23.1517
45.9522 545 23.3452
46.0697 503 22.4277
46.1871 519 22.7816
46.3046 532 23.0651
46.422 551 23.4734
46.5395 486 22.0454
46.657 438 20.9284
46.7745 423 20.567
46.892 411 20.2731
47.0096 472 21.7256
47.1271 454 21.3073
47.2446 439 20.9523
47.3622 432 20.7846
47.4797 435 20.8567
47.5973 405 20.1246
47.7149 383 19.5704
47.8324 391 19.7737
47.95 427 20.664
48.0675 401 20.025
48.1851 464 21.5407
48.3027 437 20.9045
48.4202 440 20.9762
48.5378 451 21.2368
48.6554 458 21.4009
48.7729 448 21.166
48.8904 451 21.2368
49.008 420 20.4939
49.1255 434 20.8327
49.243 449 21.1896
49.3605 448 21.166
49.478 426 20.6398
49.5955 470 21.6795
49.713 453 21.2838
49.8304 445 21.095
49.9479 448 21.166
50.0653 452 21.2603
50.1827 407 20.1742
50.3001 345 18.5742
50.4175 383 19.5704
50.5348 407 20.1742
50.6521 433 20.8087
50.7694 474 21.7715
50.8867 477 21.8403
51.004 464 21.5407
51.1212 448 21.166
51.2384 455 21.3307
51.3556 497 22.2935
51.4727 504 22.4499
51.5899 557 23.6008
51.707 516 22.7156
51.824 571 23.8956
51.9411 544 23.3238
52.0581 564 23.7487
52.175 547 23.388
52.2919 596 24.4131
52.4088 589 24.2693
52.5257 541 23.2594
52.6425 569 23.8537
52.7593 542 23.2809
52.876 562 23.7065
52.9927 567 23.8118
53.1094 566 23.7908
53.226 587 24.2281
53.3426 602 24.5357
53.4591 598 24.454
53.5756 628 25.0599
53.692 614 24.779
53.8084 588 24.2487
53.9248 557 23.6008
54.0411 496 22.2711
54.1573 484 22
54.2735 0 1
54.3896 0 1
54.5057 0 1
54.6217 0 1
54.7377 0 1
54.8537 0 1
54.9695 0 1
55.0853 0 1
55.2011 0 1
55.3168 0 1
55.4324 0 1
57.824 0 1
57.9396 0 1
58.0553 0 1
58.1711 0 1
58.2869 0 1
58.4028 0 1
58.5187 0 1
58.6347 0 1
58.7508 0 1
58.8669 0 1
58.983 622 24.9399
59.0992 615 24.7992
59.2155 538 23.1948
59.3318 500 22.3607
59.4482 590 24.2899
59.5646 633 25.1595
59.681 639 25.2784
59.7975 567 23.8118
59.9141 653 25.5539
60.0306 638 25.2587
60.1473 655 25.593
60.2639 631 25.1197
60.3807 651 25.5147
60.4974 659 25.671
60.6142 623 24.96
60.731 637 25.2389
60.8479 664 25.7682
60.9648 625 25
61.0818 593 24.3516
61.1987 587 24.2281
61.3158 627 25.04
61.4328 579 24.0624
61.5499 596 24.4131
61.667 550 23.4521
61.7841 559 23.6432
61.9013 612 24.7386
62.0185 579 24.0624
62.1357 571 23.8956
62.253 581 24.1039
62.3702 592 24.3311
62.4875 570 23.8747
62.6049 496 22.2711
62.7222 506 22.4944
62.8396 525 22.9129
62.9569 539 23.2164
63.0743 521 22.8254
63.1918 524 22.891
63.3092 505 22.4722
63.4267 530 23.0217
63.5441 532 23.0651
63.6616 547 23.388
63.7791 493 22.2036
63.8966 567 23.8118
64.0142 548 23.4094
64.1317 529 23
64.2492 558 23.622
64.3668 551 23.4734
64.4843 515 22.6936
64.6019 482 21.9545
64.7195 516 22.7156
64.837 529 23
64.9546 564 23.7487
65.0722 498 22.3159
65.1898 514 22.6716
65.3074 545 23.3452
65.4249 495 22.2486
65.5425 553 23.516
65.6601 549 23.4307
65.7777 521 22.8254
65.8952 506 22.4944
66.0128 504 22.4499
66.1304 483 21.9773
66.2479 431 20.7605
66.3655 454 21.3073
66.483 428 20.6882
66.6005 473 21.7486
66.718 465 21.5639
66.8355 415 20.3715
66.953 470 21.6795
67.0705 480 21.9089
67.1879 467 21.6102
67.3054 485 22.0227
67.4228 500 22.3607
67.5402 507 22.5167
67.6576 495 22.2486
67.7749 452 21.2603
67.8923 494 22.2261
68.0096 481 21.9317
68.1269 471 21.7025
68.2442 510 22.5832
68.3614 495 22.2486
68.4787 477 21.8403
68.5958 510 22.5832
68.713 481 21.9317
68.8302 497 22.2935
68.9473 493 22.2036
69.0643 483 21.9773
69.1814 493 22.2036
69.2984 472 21.7256
69.4154 498 22.3159
69.5323 501 22.383
69.6492 474 21.7715
69.7661 475 21.7945
69.8829 468 21.6333
69.9997 404 20.0998
70.1165 386 19.6469
70.2332 417 20.4206
70.3499 414 20.347
70.4665 417 20.4206
70.5831 421 20.5183
70.6996 427 20.664
70.8161 447 21.1424
70.9326 434 20.8327
71.049 435 20.8567
71.1653 426 20.6398
71.2817 429 20.7123
71.3979 431 20.7605
71.5141 389 19.7231
71.6303 413 20.3224
71.7464 376 19.3907
71.8624 0 1
71.9784 0 1
72.0944 0 1
72.2102 0 1
72.3261 0 1
72.4418 0 1
72.5575 0 1
72.6732 0 1
75.1054 0 1
75.2209 0 1
75.3365 0 1
75.4521 0 1
75.5678 0 1
75.6835 0 1
75.7993 0 1
75.9151 0 1
76.031 0 1
76.147 309 17.5784
76.263 323 17.9722
76.3791 340 18.4391
76.4952 340 18.4391
76.6113 340 18.4391
76.7276 298 17.2627
76.8438 306 17.4929
76.9601 321 17.9165
77.0765 293 17.1172
77.1929 327 18.0831
77.3093 306 17.4929
77.4258 336 18.3303
77.5423 318 17.8326
77.6589 304 17.4356
77.7755 313 17.6918
77.8921 340 18.4391
78.0088 289 17
78.1256 296 17.2047
78.2423 274 16.5529
78.3591 272 16.4924
78.4759 285 16.8819
78.5928 266 16.3095
78.7097 267 16.3401
78.8266 292 17.088
78.9436 242 15.5563
79.0606 229 15.1327
79.1776 189 13.7477
79.2946 210 14.4914
79.4117 251 15.843
79.5288 298 17.2627
79.6459 225 15
79.7631 243 15.5885
79.8802 224 14.9666
79.9974 217 14.7309
80.1147 229 15.1327
80.2319 202 14.2127
80.3491 212 14.5602
80.4664 190 13.784
80.5837 218 14.7648
80.701 208 14.4222
80.8183 180 13.4164
80.9357 187 13.6748
81.053 193 13.8924
81.1704 168 12.9615
81.2877 175 13.2288
81.4051 170 13.0384
81.5225 164 12.8062
81.6399 153 12.3693
81.7573 162 12.7279
81.8747 163 12.7671
81.9922 130 11.4018
82.1096 111 10.5357
82.227 146 12.083
82.3444 135 11.619
82.4619 132 11.4891
82.5793 118 10.8628
82.6967 113 10.6301
82.8142 113 10.6301
82.9316 65 8.06226
83.049 83 9.11043
83.1664 93 9.64365
83.2838 109 10.4403
83.4012 77 8.77496
83.5186 74 8.60233
83.636 57 7.54983
83.7534 84 9.16515
83.8708 96 9.79796
83.9881 101 10.0499
84.1055 76 8.7178
84.2228 60 7.74597
84.3401 72 8.48528
84.4575 62 7.87401
84.5747 70 8.3666
84.692 63 7.93725
84.8093 68 8.24621
84.9265 54 7.34847
85.0437 59 7.68115
85.1609 46 6.78233
85.2781 63 7.93725
85.3952 54 7.34847
85.5123 47 6.85565
85.6294 56 7.48331
85.7465 62 7.87401
85.8636 52 7.2111
85.9806 36 6
86.0976 53 7.28011
86.2145 39 6.245
86.3315 45 6.7082
86.4484 54 7.34847
86.5652 75 8.66025
86.682 67 8.18535
86.7988 78 8.83176
86.9156 71 8.42615
87.0323 90 9.48683
87.149 89 9.43398
87.2657 77 8.77496
87.3823 83 9.11043
87.4988 108 10.3923
87.6154 119 10.9087
87.7318 108 10.3923
87.8483 109 10.4403
87.9647 131 11.4455
88.081 113 10.6301
88.1973 122 11.0454
88.3136 113 10.6301
88.4298 130 11.4018
88.546 131 11.4455
88.6621 129 11.3578
88.7781 159 12.6095
88.8942 0 1
89.0101 0 1
89.126 0 1
89.2419 0 1
89.3577 0 1
89.4734 0 1
89.5891 0 1
89.7047 0 1
89.8203 0 1
89.9358 0 1
92.3269 0 1
92.4424 0 1
92.558 0 1
92.6736 0 1
92.7893 0 1
92.905 0 1
93.0208 0 1
93.1366 0 1
93.2525 0 1
93.3685 0 1
93.4845 0 1
93.6005 255 15.9687
93.7167 250 15.8114
93.8328 248 15.748
93.949 222 14.8997
94.0653 210 14.4914
94.1816 205 14.3178
94.2979 222 14.8997
94.4143 205 14.3178
94.5307 232 15.2315
94.6472 198 14.0712
94.7637 187 13.6748
94.8803 189 13.7477
94.9969 211 14.5258
95.1135 174 13.1909
95.2302 216 14.6969
95.3469 162 12.7279
95.4637 121 11
95.5805 119 10.9087
95.6973 173 13.1529
95.8142 200 14.1421
95.9311 220 14.8324
96.048 216 14.6969
96.1649 217 14.7309
96.2819 256 16
96.3989 229 15.1327
96.516 230 15.1658
96.633 227 15.0665
96.7501 248 15.748
96.8673 264 16.2481
96.9844 269 16.4012
97.1016 241 15.5242
97.2188 278 16.6733
97.336 262 16.1864
97.4532 314 17.72
97.5704 294 17.1464
97.6877 302 17.3781
97.805 302 17.3781
97.9223 362 19.0263
98.0396 332 18.2209
98.1569 291 17.0587
98.2743 349 18.6815
98.3916 345 18.5742
98.509 364 19.0788
98.6264 363 19.0526
98.7438 314 17.72
98.8612 357 18.8944
98.9786 315 17.7482
99.096 252 15.8745
99.2134 254 15.9374
99.3308 371 19.2614
99.4482 424 20.5913
99.5656 415 20.3715
99.6831 418 20.445
99.8005 410 20.2485
99.9179 486 22.0454
100.035 425 20.6155
100.153 445 21.095
100.27 472 21.7256
100.388 428 20.6882
100.505 434 20.8327
100.622 467 21.6102
100.74 468 21.6333
100.857 419 20.4695
100.975 461 21.4709
101.092 487 22.0681
101.209 534 23.1084
101.327 495 22.2486
101.444 515 22.6936
101.561 472 21.7256
101.679 490 22.1359
101.796 509 22.561
101.913 513 22.6495
102.03 494 22.2261
102.148 508 22.5389
102.265 551 23.4734
102.382 479 21.8861
102.499 422 20.5426
102.616 412 20.2978
102.733 334 18.2757
102.851 387 19.6723
102.968 533 23.0868
103.085 511 22.6053
103.202 516 22.7156
103.319 524 22.891
103.436 525 22.9129
103.552 510 22.5832
103.669 507 22.5167
103.786 507 22.5167
103.903 556 23.5797
104.02 513 22.6495
104.137 511 22.6053
104.253 511 22.6053
104.37 519 22.7816
104.487 541 23.2594
104.603 584 24.1661
104.72 557 23.6008
104.836 508 22.5389
104.953 580 24.0832
105.069 562 23.7065
105.186 553 23.516
105.302 542 23.2809
105.418 508 22.5389
105.535 553 23.516
105.651 511 22.6053
105.767 523 22.8692
105.883 487 22.0681
105.999 471 21.7025
106.115 0 1
106.231 0 1
106.347 0 1
106.463 0 1
106.579 0 1
106.694 0 1
106.81 0 1
106.926 0 1
107.041 0 1
107.157 0 1
109.576 0 1
109.692 0 1
109.807 0 1
109.923 0 1
110.039 0 1
110.155 0 1
110.27 0 1
110.386 0 1
110.502 0 1
110.618 420 20.4939
110.735 388 19.6977
110.851 419 20.4695
110.967 375 19.3649
111.083 355 18.8414
111.199 329 18.1384
111.316 282 16.7929
111.432 354 18.8149
111.549 390 19.7484
111.665 413 20.3224
111.782 370 19.2354
111.898 366 19.1311
112.015 389 19.7231
112.132 365 19.105
112.248 358 18.9209
112.365 367 19.1572
112.482 344 18.5472
112.599 372 19.2873
112.716 317 17.8045
112.832 331 18.1934
112.949 345 18.5742
113.066 357 18.8944
113.183 316 17.7764
113.3 343 18.5203
113.417 343 18.5203
113.534 298 17.2627
113.652 291 17.0587
113.769 346 18.6011
113.886 305 17.4642
114.003 308 17.5499
114.12 304 17.4356
114.238 275 16.5831
114.355 302 17.3781
114.472 297 17.2337
114.589 264 16.2481
114.707 280 16.7332
114.824 288 16.9706
114.942 256 16
115.059 267 16.3401
115.176 269 16.4012
115.294 272 16.4924
115.411 323 17.9722
115.529 277 16.6433
115.646 303 17.4069
115.764 270 16.4317
115.881 268 16.3707
115.999 279 16.7033
116.116 264 16.2481
116.234 278 16.6733
116.351 279 16.7033
116.469 285 16.8819
116.586 257 16.0312
116.704 264 16.2481
116.821 282 16.7929
116.939 304 17.4356
117.056 290 17.0294
117.174 287 16.9411
117.291 290 17.0294
117.409 266 16.3095
117.526 270 16.4317
117.644 254 15.9374
117.761 260 16.1245
117.879 243 15.5885
117.996 226 15.0333
118.114 241 15.5242
118.231 263 16.2173
118.349 253 15.906
118.466 258 16.0624
118.584 296 17.2047
118.701 270 16.4317
118.819 308 17.5499
118.936 271 16.4621
119.053 329 18.1384
119.171 301 17.3494
119.288 287 16.9411
119.405 300 17.3205
119.523 283 16.8226
119.64 307 17.5214
119.757 264 16.2481
119.875 282 16.7929
119.992 299 17.2916
120.109 279 16.7033
120.226 281 16.7631
120.343 269 16.4012
120.46 280 16.7332
120.578 284 16.8523
120.695 330 18.1659
120.812 310 17.6068
120.929 295 17.1756
121.046 327 18.0831
121.163 326 18.0555
121.279 307 17.5214
121.396 298 17.2627
121.513 255 15.9687
121.63 244 15.6205
121.747 206 14.3527
121.863 177 13.3041
121.98 242 15.5563
122.097 282 16.7929
122.213 296 17.2047
122.33 293 17.1172
122.446 302 17.3781
122.563 310 17.6068
122.679 316 17.7764
122.795 309 17.5784
122.912 311 17.6352
123.028 345 18.5742
123.144 313 17.6918
123.26 320 17.8885
123.377 0 1
123.493 0 1
123.609 0 1
123.725 0 1
123.84 0 1
123.956 0 1
124.072 0 1
124.188 0 1
124.303 0 1
124.419 0 1
126.852 0 1
126.968 0 1
127.083 0 1
127.199 0 1
127.315 0 1
127.431 0 1
127.547 0 1
127.663 0 1
127.779 0 1
127.895 0 1
128.011 0 1
128.127 0 1
128.243 0 1
128.359 393 19.8242
128.476 398 19.9499
128.592 421 20.5183
128.708 405 20.1246
128.825 423 20.567
128.941 393 19.8242
129.058 406 20.1494
129.174 420 20.4939
129.291 400 20
129.408 413 20.3224
129.524 450 21.2132
129.641 414 20.347
129.758 440 20.9762
129.875 442 21.0238
129.992 417 20.4206
130.108 414 20.347
130.225 399 19.975
130.342 388 19.6977
130.459 344 18.5472
130.576 325 18.0278
130.693 269 16.4012
130.81 282 16.7929
130.928 331 18.1934
131.045 397 19.9249
131.162 380 19.4936
131.279 410 20.2485
131.396 432 20.7846
131.513 436 20.8806
131.631 432 20.7846
131.748 433 20.8087
131.865 453 21.2838
131.983 470 21.6795
132.1 419 20.4695
132.217 412 20.2978
132.335 431 20.7605
132.452 446 21.1187
132.57 451 21.2368
132.687 432 20.7846
132.804 443 21.0476
132.922 433 20.8087
133.039 482 21.9545
133.157 469 21.6564
133.274 474 21.7715
133.392 463 21.5174
133.509 443 21.0476
133.627 430 20.7364
133.744 401 20.025
133.862 427 20.664
133.979 409 20.2237
134.097 345 18.5742
134.214 338 18.3848
134.332 347 18.6279
134.449 314 17.72
134.567 314 17.72
134.684 417 20.4206
134.802 467 21.6102
134.919 511 22.6053
135.037 466 21.587
135.154 492 22.1811
135.272 469 21.6564
135.389 463 21.5174
135.507 478 21.8632
135.624 481 21.9317
135.742 500 22.3607
135.859 497 22.2935
135.977 485 22.0227
136.094 478 21.8632
136.211 470 21.6795
136.329 523 22.8692
136.446 508 22.5389
136.564 501 22.383
136.681 513 22.6495
136.798 474 21.7715
136.915 502 22.4054
137.033 487 22.0681
137.15 503 22.4277
137.267 474 21.7715
137.384 424 20.5913
137.502 459 21.4243
137.619 422 20.5426
137.736 426 20.6398
137.853 366 19.1311
137.97 393 19.8242
138.087 409 20.2237
138.204 386 19.6469
138.321 384 19.5959
138.438 489 22.1133
138.555 499 22.3383
138.672 558 23.622
138.788 515 22.6936
138.905 507 22.5167
139.022 513 22.6495
139.139 523 22.8692
139.255 568 23.8328
139.372 601 24.5153
139.488 537 23.1733
139.605 540 23.2379
139.721 586 24.2074
139.838 550 23.4521
139.954 547 23.388
140.071 552 23.4947
140.187 536 23.1517
140.303 560 23.6643
140.419 529 23
140.535 565 23.7697
140.652 591 24.3105
140.768 0 1
140.884 0 1
141 0 1
141.115 0 1
141.231 0 1
141.347 0 1
141.463 0 1
141.578 0 1
141.694 0 1
144.104 0 1
144.219 0 1
144.335 0 1
144.45 0 1
144.566 0 1
144.682 0 1
144.798 0 1
144.914 0 1
145.03 0 1
145.146 511 22.6053
145.262 569 23.8537
145.378 554 23.5372
145.494 531 23.0434
145.61 531 23.0434
145.726 495 22.2486
145.842 517 22.7376
145.959 539 23.2164
146.075 472 21.7256
146.192 443 21.0476
146.308 403 20.0749
146.425 423 20.567
146.541 422 20.5426
146.658 377 19.4165
146.774 409 20.2237
146.891 414 20.347
147.008 427 20.664
147.125 507 22.5167
147.241 504 22.4499
147.358 558 23.622
147.475 551 23.4734
147.592 493 22.2036
147.709 470 21.6795
147.826 543 23.3024
147.943 589 24.2693
148.06 538 23.1948
148.177 519 22.7816
148.294 537 23.1733
148.411 522 22.8473
148.528 506 22.4944
148.645 506 22.4944
148.762 511 22.6053
148.88 494 22.2261
148.997 484 22
149.114 522 22.8473
149.231 480 21.9089
149.349 499 22.3383
149.466 528 22.9783
149.583 456 21.3542
149.701 466 21.587
149.818 445 21.095
149.935 422 20.5426
150.053 416 20.3961
150.17 378 19.4422
150.287 419 20.4695
150.405 378 19.4422
150.522 450 21.2132
150.64 481 21.9317
150.757 502 22.4054
150.875 484 22
150.992 514 22.6716
151.11 527 22.9565
151.227 534 23.1084
151.344 535 23.1301
151.462 502 22.4054
151.579 513 22.6495
151.697 516 22.7156
151.814 514 22.6716
151.932 540 23.2379
152.049 565 23.7697
152.167 569 23.8537
152.284 532 23.0651
152.402 505 22.4722
152.519 546 23.3666
152.636 529 23
152.754 506 22.4944
152.871 546 23.3666
152.989 492 22.1811
153.106 523 22.8692
153.223 496 22.2711
153.341 505 22.4722
153.458 467 21.6102
153.575 454 21.3073
153.693 443 21.0476
153.81 450 21.2132
153.927 476 21.8174
154.044 429 20.7123
154.162 485 22.0227
154.279 489 22.1133
154.396 546 23.3666
154.513 509 22.561
154.63 557 23.6008
154.747 575 23.9792
154.864 542 23.2809
154.981 554 23.5372
155.098 569 23.8537
155.215 562 23.7065
155.332 549 23.4307
155.449 551 23.4734
155.566 573 23.9374
155.683 520 22.8035
155.8 577 24.0208
155.917 538 23.1948
156.033 567 23.8118
156.15 0 1
156.267 0 1
156.383 0 1
156.5 0 1
156.617 0 1
156.733 0 1
156.85 0 1
156.966 0 1
157.082 0 1
157.199 0 1
157.315 0 1
157.431 0 1
157.547 0 1
157.664 0 1
157.78 0 1
157.896 0 1
158.012 0 1
158.128 0 1
158.244 0 1
158.359 0 1
158.475 0 1
158.591 0 1
158.706 0 1
