
6.15755 0 1
6.2731 0 1
6.3887 0 1
6.50437 0 1
6.62009 0 1
6.73587 0 1
6.8517 0 1
6.96759 0 1
7.08353 0 1
7.19952 0 1
7.31557 0 1
7.43166 0 1
7.54781 0 1
7.664 0 1
7.78024 0 1
7.89653 0 1
8.01286 0 1
8.12924 0 1
8.24567 0 1
8.36213 0 1
8.47864 0 1
8.59519 0 1
8.71178 0 1
8.82841 0 1
8.94508 0 1
9.06179 0 1
9.17853 0 1
9.29531 0 1
9.41212 0 1
9.52897 0 1
9.64584 0 1
9.76276 0 1
9.8797 0 1
9.99667 0 1
10.1137 0 1
10.2307 0 1
10.3478 0 1
10.4648 0 1
10.5819 0 1
10.6991 0 1
10.8162 0 1
10.9334 0 1
11.0506 0 1
11.1678 0 1
11.285 0 1
11.4023 0 1
11.5196 0 1
11.6369 0 1
11.7542 0 1
11.8715 0 1
11.9888 0 1
12.1062 0 1
12.2235 0 1
12.3409 0 1
12.4582 0 1
12.5756 0 1
12.693 0 1
12.8104 0 1
12.9278 0 1
13.0452 0 1
13.1626 0 1
13.28 0 1
13.3974 0 1
13.5149 0 1
13.6323 0 1
13.7497 0 1
13.8671 0 1
13.9845 0 1
14.1019 0 1
14.2193 0 1
14.3367 0 1
14.4541 0 1
14.5714 0 1
14.6888 0 1
14.8062 0 1
14.9235 0 1
15.0408 75734 275.198
15.1581 80334 283.433
15.2755 84052 289.917
15.3927 85281 292.029
15.51 85129 291.769
15.6273 84305 290.353
15.7445 82979 288.061
15.8617 82272 286.831
15.9789 81353 285.224
16.0961 81021 284.642
16.2132 81842 286.08
16.3304 83977 289.788
16.4475 84789 291.186
16.5646 86806 294.629
16.6816 86875 294.746
16.7986 86367 293.883
16.9156 86602 294.282
17.0326 85726 292.79
17.1496 85719 292.778
17.2665 85384 292.205
17.3833 85524 292.445
17.5002 85329 292.111
17.617 84980 291.513
17.7338 84158 290.1
17.8505 81883 286.152
17.9672 79970 282.79
18.0839 78406 280.011
18.2005 78525 280.223
18.3171 79122 281.286
18.4337 80215 283.223
18.5502 82430 287.106
18.6666 84452 290.606
18.7831 85497 292.399
18.8994 86161 293.532
19.0158 83562 289.071
19.1321 81994 286.346
19.2483 78985 281.043
19.3645 76326 276.272
19.4806 73470 271.054
19.5967 70406 265.341
19.7128 67699 260.19
19.8288 65272 255.484
19.9447 59129 243.165
20.0606 0 1
20.1764 0 1
20.2922 0 1
20.4079 0 1
20.5236 0 1
20.6392 0 1
20.7548 0 1
20.8702 0 1
23.3078 0 1
23.4233 0 1
23.539 0 1
23.6547 0 1
23.7704 0 1
23.8862 0 1
24.0021 0 1
24.118 0 1
24.234 0 1
24.35 0 1
24.4661 28752 169.564
24.5822 34233 185.022
24.6984 40843 202.097
24.8146 48746 220.785
24.9309 56865 238.464
25.0472 65122 255.19
25.1636 72343 268.967
25.28 78733 280.594
25.3965 84758 291.132
25.513 88907 298.173
25.6296 92099 303.478
25.7462 94405 307.254
25.8628 95359 308.803
25.9795 95025 308.261
26.0962 95313 308.728
26.213 94523 307.446
26.3298 93693 306.093
26.4466 90904 301.503
26.5635 88654 297.748
26.6804 85811 292.935
26.7973 84211 290.191
26.9143 82476 287.186
27.0313 82163 286.641
27.1483 84004 289.834
27.2653 85467 292.347
27.3824 86934 294.846
27.4996 87906 296.489
27.6167 85203 291.896
27.7339 83328 288.666
27.8511 81359 285.235
27.9683 79630 282.188
28.0855 78818 280.745
28.2028 79660 282.241
28.3201 79928 282.715
28.4374 82853 287.842
28.5547 85521 292.44
28.6721 88316 297.18
28.7894 89501 299.167
28.9068 90222 300.37
29.0242 90948 301.576
29.1416 90273 300.455
29.259 90999 301.66
29.3764 91036 301.722
29.4939 90165 300.275
29.6113 91101 301.829
29.7288 90452 300.752
29.8463 89736 299.56
29.9638 87622 296.01
30.0812 85995 293.249
30.1987 82814 287.774
30.3162 80746 284.158
30.4337 78264 279.757
30.5512 78170 279.589
30.6687 79168 281.368
30.7862 80411 283.568
30.9037 82676 287.534
31.0212 84091 289.984
31.1387 83720 289.344
31.2562 81495 285.473
31.3737 79211 281.444
31.4912 78305 279.83
31.6087 76977 277.447
31.7262 77548 278.474
31.8436 78753 280.63
31.9611 81743 285.907
32.0785 82833 287.807
32.1959 84522 290.727
32.3134 85422 292.27
32.4308 87135 295.186
32.5482 86525 294.151
32.6655 86913 294.81
32.7829 86926 294.832
32.9002 86912 294.808
33.0176 86035 293.317
33.1349 86452 294.027
33.2522 86545 294.185
33.3694 85984 293.23
33.4867 85538 292.469
33.6039 84556 290.785
33.7211 82540 287.298
33.8383 80317 283.403
33.9554 78213 279.666
34.0725 75867 275.44
34.1896 75490 274.754
34.3067 75861 275.429
34.4237 76550 276.677
34.5407 78578 280.318
34.6577 79264 281.539
34.7746 79512 281.979
34.8915 77519 278.422
35.0084 75106 274.055
35.1252 73996 272.022
35.242 73571 271.24
35.3587 73740 271.551
35.4755 75290 274.39
35.5921 77074 277.622
35.7088 78829 280.765
35.8254 81275 285.088
35.9419 82821 287.786
36.0584 84144 290.076
36.1749 84584 290.833
36.2913 84014 289.852
36.4077 81658 285.759
36.524 78353 279.916
36.6403 75060 273.971
36.7565 71408 267.223
36.8727 65846 256.605
36.9889 59767 244.473
37.1049 53460 231.214
37.221 0 1
37.3369 0 1
37.4529 0 1
37.5687 0 1
37.6845 0 1
37.8003 0 1
37.916 0 1
38.0316 0 1
38.1472 0 1
40.5851 0 1
40.7008 0 1
40.8164 0 1
40.9322 0 1
41.048 0 1
41.1639 0 1
41.2798 0 1
41.3958 0 1
41.5118 0 1
41.6279 0 1
41.744 30984 176.023
41.8602 37991 194.913
41.9765 44364 210.628
42.0928 50870 225.544
42.2091 56128 236.913
42.3255 61264 247.516
42.4419 64189 253.355
42.5584 65831 256.576
42.675 66033 256.969
42.7915 64560 254.087
42.9081 63136 251.269
43.0248 62368 249.736
43.1415 62340 249.68
43.2582 62826 250.651
43.375 65127 255.2
43.4918 66986 258.817
43.6087 67377 259.571
43.7256 65122 255.19
43.8425 63429 251.851
43.9595 62190 249.379
44.0765 62039 249.076
44.1935 62538 250.076
44.3106 63646 252.282
44.4277 65912 256.733
44.5448 67455 259.721
44.6619 67604 260.008
44.7791 68514 261.752
44.8963 68997 262.673
45.0136 69590 263.799
45.1308 69927 264.437
45.2481 69278 263.207
45.3654 70129 264.819
45.4827 69915 264.414
45.6001 70006 264.586
45.7174 69802 264.201
45.8348 70004 264.583
45.9522 69896 264.379
46.0697 69457 263.547
46.1871 68734 262.172
46.3046 67961 260.693
46.422 66254 257.399
46.5395 64494 253.957
46.657 64126 253.231
46.7745 64373 253.718
46.892 64990 254.931
47.0096 67241 259.309
47.1271 69715 264.036
47.2446 68940 262.564
47.3622 67169 259.17
47.4797 65356 255.648
47.5973 64716 254.393
47.7149 64856 254.668
47.8324 65935 256.778
47.95 67948 260.668
48.0675 69841 264.274
48.1851 70146 264.851
48.3027 70554 265.62
48.4202 71273 266.97
48.5378 70989 266.438
48.6554 71523 267.438
48.7729 71679 267.729
48.8904 71640 267.656
49.008 71629 267.636
49.1255 71150 266.74
49.243 71059 266.569
49.3605 70689 265.874
49.478 70983 266.426
49.5955 70559 265.629
49.713 69991 264.558
49.8304 68773 262.246
49.9479 66674 258.213
50.0653 64565 254.096
50.1827 63109 251.215
50.3001 62127 249.253
50.4175 62931 250.861
50.5348 64985 254.922
50.6521 66638 258.143
50.7694 67216 259.26
50.8867 66066 257.033
51.004 64482 253.933
51.1212 64310 253.594
51.2384 65351 255.638
51.3556 67828 260.438
51.4727 69682 263.973
51.5899 70939 266.344
51.707 71563 267.513
51.824 72268 268.827
51.9411 73049 270.276
52.0581 72467 269.197
52.175 72210 268.719
52.2919 72450 269.165
52.4088 72855 269.917
52.5257 73331 270.797
52.6425 73483 271.077
52.7593 72874 269.952
52.876 72941 270.076
52.9927 72502 269.262
53.1094 72399 269.071
53.226 72430 269.128
53.3426 72438 269.143
53.4591 71676 267.724
53.5756 68502 261.729
53.692 64746 254.452
53.8084 58900 242.693
53.9248 52540 229.216
54.0411 46247 215.051
54.1573 39968 199.92
54.2735 0 1
54.3896 0 1
54.5057 0 1
54.6217 0 1
54.7377 0 1
54.8537 0 1
54.9695 0 1
55.0853 0 1
55.2011 0 1
55.3168 0 1
55.4324 0 1
57.824 0 1
57.9396 0 1
58.0553 0 1
58.1711 0 1
58.2869 0 1
58.4028 0 1
58.5187 0 1
58.6347 0 1
58.7508 0 1
58.8669 0 1
58.983 43403 208.334
59.0992 51852 227.71
59.2155 60608 246.187
59.3318 68887 262.463
59.4482 76377 276.364
59.5646 82584 287.374
59.681 86325 293.811
59.7975 89226 298.707
59.9141 91595 302.647
60.0306 93974 306.552
60.1473 95981 309.808
60.2639 99041 314.708
60.3807 100607 317.186
60.4974 100828 317.534
60.6142 100746 317.405
60.731 100844 317.559
60.8479 100301 316.703
60.9648 99482 315.408
61.0818 99494 315.427
61.1987 99558 315.528
61.3158 98972 314.598
61.4328 99101 314.803
61.5499 98515 313.871
61.667 98787 314.304
61.7841 98646 314.08
61.9013 98371 313.642
62.0185 97683 312.543
62.1357 96631 310.855
62.253 95224 308.584
62.3702 93407 305.626
62.4875 90818 301.36
62.6049 89061 298.431
62.7222 90682 301.135
62.8396 91319 302.19
62.9569 92921 304.829
63.0743 91221 302.028
63.1918 89981 299.968
63.3092 89777 299.628
63.4267 90444 300.739
63.5441 92429 304.021
63.6616 93747 306.181
63.7791 95027 308.264
63.8966 94849 307.976
64.0142 94917 308.086
64.1317 94607 307.583
64.2492 93302 305.454
64.3668 92473 304.094
64.4843 92360 303.908
64.6019 91533 302.544
64.7195 90835 301.388
64.837 90226 300.376
64.9546 90159 300.265
65.0722 89967 299.945
65.1898 89191 298.649
65.3074 87834 296.368
65.4249 88735 297.884
65.5425 88166 296.928
65.6601 88349 297.236
65.7777 87270 295.415
65.8952 85515 292.429
66.0128 83134 288.33
66.1304 81458 285.408
66.2479 79610 282.152
66.3655 79848 282.574
66.483 81968 286.301
66.6005 82224 286.747
66.718 81115 284.807
66.8355 79958 282.768
66.953 81131 284.835
67.0705 82443 287.129
67.1879 83901 289.657
67.3054 84854 291.297
67.4228 85384 292.205
67.5402 84748 291.115
67.6576 84338 290.41
67.7749 83730 289.361
67.8923 83151 288.359
68.0096 82920 287.958
68.1269 82880 287.889
68.2442 83486 288.939
68.3614 83129 288.321
68.4787 83165 288.383
68.5958 82044 286.433
68.713 82336 286.943
68.8302 81899 286.18
68.9473 81470 285.43
69.0643 81275 285.088
69.1814 81988 286.335
69.2984 81864 286.119
69.4154 82092 286.517
69.5323 81164 284.893
69.6492 79996 282.836
69.7661 77992 279.27
69.8829 75999 275.679
69.9997 76149 275.951
70.1165 77488 278.367
70.2332 77331 278.085
70.3499 75934 275.561
70.4665 71225 266.88
70.5831 67919 260.613
70.6996 63680 252.349
70.8161 56601 237.91
70.9326 50874 225.553
71.049 45931 214.315
71.1653 41687 204.174
71.2817 38510 196.24
71.3979 36189 190.234
71.5141 33634 183.396
71.6303 31108 176.375
71.7464 27178 164.858
71.8624 0 1
71.9784 0 1
72.0944 0 1
72.2102 0 1
72.3261 0 1
72.4418 0 1
72.5575 0 1
72.6732 0 1
75.1054 0 1
75.2209 0 1
75.3365 0 1
75.4521 0 1
75.5678 0 1
75.6835 0 1
75.7993 0 1
75.9151 0 1
76.031 0 1
76.147 44195 210.226
76.263 55823 236.269
76.3791 63941 252.866
76.4952 68895 262.479
76.6113 70050 264.67
76.7276 69659 263.93
76.8438 70625 265.754
76.9601 70960 266.383
77.0765 71265 266.955
77.1929 72217 268.732
77.3093 73248 270.644
77.4258 73295 270.73
77.5423 72983 270.154
77.6589 73492 271.094
77.7755 72898 269.996
77.8921 73233 270.616
78.0088 72893 269.987
78.1256 73427 270.974
78.2423 73794 271.651
78.3591 73730 271.533
78.4759 74781 273.461
78.5928 75149 274.133
78.7097 74730 273.368
78.8266 71993 268.315
78.9436 70059 264.687
79.0606 67602 260.004
79.1776 69830 264.254
79.2946 71789 267.935
79.4117 73260 270.666
79.5288 72885 269.972
79.6459 75916 275.529
79.7631 78508 280.193
79.8802 80060 282.949
79.9974 80154 283.115
80.1147 78968 281.012
80.2319 78782 280.681
80.3491 78836 280.777
80.4664 78630 280.41
80.5837 79622 282.174
80.701 80359 283.477
80.8183 82081 286.498
80.9357 83100 288.271
81.053 83448 288.874
81.1704 83588 289.116
81.2877 83979 289.791
81.4051 83282 288.586
81.5225 82034 286.416
81.6399 81641 285.729
81.7573 78732 280.592
81.8747 79597 282.129
81.9922 78376 279.957
82.1096 80688 284.056
82.227 82158 286.632
82.3444 83298 288.614
82.4619 83379 288.754
82.5793 80150 283.108
82.6967 75313 274.432
82.8142 76584 276.738
82.9316 77418 278.241
83.049 76834 277.189
83.1664 75401 274.592
83.2838 76325 276.27
83.4012 79367 281.721
83.5186 81172 284.907
83.636 80893 284.417
83.7534 80422 283.588
83.8708 78285 279.795
83.9881 77132 277.726
84.1055 76682 276.915
84.2228 76541 276.66
84.3401 76747 277.032
84.4575 76542 276.662
84.5747 77864 279.041
84.692 76563 276.7
84.8093 77636 278.632
84.9265 75934 275.561
85.0437 74603 273.135
85.1609 72412 269.095
85.2781 70288 265.119
85.3952 68307 261.356
85.5123 67948 260.668
85.6294 67303 259.428
85.7465 67661 260.117
85.8636 68446 261.622
85.9806 68211 261.172
86.0976 66370 257.624
86.2145 62644 250.288
86.3315 59803 244.547
86.4484 60110 245.173
86.5652 60970 246.921
86.682 59025 242.951
86.7988 57541 239.877
86.9156 57553 239.902
87.0323 58830 242.549
87.149 59196 243.302
87.2657 57547 239.89
87.3823 56075 236.802
87.4988 53111 230.458
87.6154 51018 225.872
87.7318 49900 223.383
87.8483 46757 216.234
87.9647 42477 206.099
88.081 37396 193.38
88.1973 32196 179.432
88.3136 28303 168.235
88.4298 25218 158.802
88.546 23189 152.279
88.6621 20875 144.482
88.7781 18478 135.934
88.8942 0 1
89.0101 0 1
89.126 0 1
89.2419 0 1
89.3577 0 1
89.4734 0 1
89.5891 0 1
89.7047 0 1
89.8203 0 1
89.9358 0 1
92.3269 0 1
92.4424 0 1
92.558 0 1
92.6736 0 1
92.7893 0 1
92.905 0 1
93.0208 0 1
93.1366 0 1
93.2525 0 1
93.3685 0 1
93.4845 0 1
93.6005 31201 176.638
93.7167 38402 195.964
93.8328 44533 211.028
93.949 48803 220.914
94.0653 50743 225.262
94.1816 51910 227.838
94.2979 52877 229.95
94.4143 53441 231.173
94.5307 54559 233.579
94.6472 56425 237.539
94.7637 57284 239.341
94.8803 58317 241.489
94.9969 59900 244.745
95.1135 61299 247.586
95.2302 61780 248.556
95.3469 61035 247.053
95.4637 59428 243.779
95.5805 58543 241.957
95.6973 59899 244.743
95.8142 60907 246.793
95.9311 58259 241.369
96.048 58766 242.417
96.1649 61142 247.269
96.2819 65174 255.292
96.3989 67764 260.315
96.516 68069 260.9
96.633 68767 262.235
96.7501 69201 263.061
96.8673 68439 261.608
96.9844 69324 263.295
97.1016 69523 263.672
97.2188 70230 265.009
97.336 70913 266.295
97.4532 72638 269.514
97.5704 73087 270.346
97.6877 73551 271.203
97.805 73152 270.466
97.9223 73498 271.105
98.0396 74256 272.5
98.1569 73904 271.853
98.2743 74188 272.375
98.3916 74461 272.875
98.509 75040 273.934
98.6264 77216 277.878
98.7438 76960 277.417
98.8612 76096 275.855
98.9786 74587 273.106
99.096 72279 268.848
99.2134 72498 269.255
99.3308 75609 274.971
99.4482 77868 279.048
99.5656 77901 279.108
99.6831 77386 278.183
99.8005 79266 281.542
99.9179 81644 285.734
100.035 82376 287.012
100.153 82877 287.884
100.27 82688 287.555
100.388 82203 286.711
100.505 81164 284.893
100.622 80903 284.435
100.74 81578 285.619
100.857 82233 286.763
100.975 82338 286.946
101.092 83772 289.434
101.209 83711 289.329
101.327 84067 289.943
101.444 83930 289.707
101.561 83368 288.735
101.679 83048 288.18
101.796 83277 288.578
101.913 83019 288.13
102.03 83386 288.766
102.148 84890 291.359
102.265 83846 289.562
102.382 84923 291.416
102.499 82046 286.437
102.616 79311 281.622
102.733 78575 280.312
102.851 81465 285.421
102.968 83542 289.036
103.085 82502 287.232
103.202 82556 287.326
103.319 83303 288.623
103.436 84296 290.338
103.552 86494 294.099
103.669 86401 293.94
103.786 86674 294.404
103.903 85737 292.809
104.02 84933 291.433
104.137 84817 291.234
104.253 83412 288.811
104.37 87571 295.924
104.487 86794 294.608
104.603 87446 295.713
104.72 87577 295.934
104.836 86924 294.829
104.953 86843 294.691
105.069 85566 292.517
105.186 85208 291.904
105.302 81380 285.272
105.418 75012 273.883
105.535 65564 256.055
105.651 56149 236.958
105.767 48243 219.643
105.883 43246 207.957
105.999 39635 199.085
106.115 0 1
106.231 0 1
106.347 0 1
106.463 0 1
106.579 0 1
106.694 0 1
106.81 0 1
106.926 0 1
107.041 0 1
107.157 0 1
109.576 0 1
109.692 0 1
109.807 0 1
109.923 0 1
110.039 0 1
110.155 0 1
110.27 0 1
110.386 0 1
110.502 0 1
110.618 43725 209.105
110.735 52396 228.902
110.851 57296 239.366
110.967 61084 247.152
111.083 64580 254.126
111.199 67663 260.121
111.316 71225 266.88
111.432 74835 273.56
111.549 75734 275.198
111.665 73661 271.406
111.782 73359 270.849
111.898 73854 271.761
112.015 75309 274.425
112.132 76790 277.11
112.248 77715 278.774
112.365 76847 277.213
112.482 76222 276.083
112.599 78000 279.285
112.716 75801 275.32
112.832 76568 276.709
112.949 76009 275.697
113.066 75681 275.102
113.183 76401 276.407
113.3 76308 276.239
113.417 76426 276.453
113.534 76131 275.918
113.652 75354 274.507
113.769 75453 274.687
113.886 75189 274.206
114.003 75024 273.905
114.12 75325 274.454
114.238 75407 274.603
114.355 74632 273.189
114.472 69512 263.651
114.589 74374 272.716
114.707 70830 266.139
114.824 71373 267.157
114.942 73019 270.22
115.059 74909 273.695
115.176 74994 273.85
115.294 72978 270.144
115.411 72385 269.045
115.529 72735 269.694
115.646 73573 271.243
115.764 74187 272.373
115.881 74648 273.218
115.999 74579 273.092
116.116 73885 271.818
116.234 73259 270.664
116.351 73680 271.441
116.469 73779 271.623
116.586 73595 271.284
116.704 73715 271.505
116.821 74280 272.544
116.939 74160 272.323
117.056 74062 272.143
117.174 73816 271.691
117.291 73427 270.974
117.409 73171 270.501
117.526 73457 271.03
117.644 73503 271.114
117.761 73471 271.055
117.879 72757 269.735
117.996 71875 268.095
118.114 70812 266.105
118.231 70548 265.609
118.349 69304 263.257
118.466 71191 266.816
118.584 72842 269.893
118.701 73023 270.228
118.819 71234 266.897
118.936 69174 263.01
119.053 68064 260.891
119.171 68496 261.717
119.288 70115 264.792
119.405 71011 266.479
119.523 71062 266.575
119.64 72423 269.115
119.757 71147 266.734
119.875 71545 267.479
119.992 70929 266.325
120.109 70373 265.279
120.226 70767 266.021
120.343 70803 266.088
120.46 71213 266.858
120.578 71052 266.556
120.695 71440 267.283
120.812 70728 265.947
120.929 70065 264.698
121.046 70268 265.081
121.163 70083 264.732
121.279 70099 264.762
121.396 69361 263.365
121.513 69340 263.325
121.63 68043 260.851
121.747 67071 258.981
121.863 64512 253.992
121.98 63550 252.091
122.097 62222 249.443
122.213 59539 244.006
122.33 56521 237.741
122.446 52074 228.197
122.563 46485 215.604
122.679 42170 205.353
122.795 38878 197.175
122.912 37217 192.917
123.028 35857 189.359
123.144 35102 187.355
123.26 33684 183.532
123.377 0 1
123.493 0 1
123.609 0 1
123.725 0 1
123.84 0 1
123.956 0 1
124.072 0 1
124.188 0 1
124.303 0 1
124.419 0 1
126.852 0 1
126.968 0 1
127.083 0 1
127.199 0 1
127.315 0 1
127.431 0 1
127.547 0 1
127.663 0 1
127.779 0 1
127.895 0 1
128.011 0 1
128.127 0 1
128.243 0 1
128.359 74256 272.5
128.476 77702 278.751
128.592 80371 283.498
128.708 81434 285.366
128.825 82059 286.459
128.941 82560 287.333
129.058 82477 287.188
129.174 82865 287.863
129.291 82984 288.069
129.408 82826 287.795
129.524 82582 287.371
129.641 83110 288.288
129.758 83074 288.226
129.875 83012 288.118
129.992 83563 289.073
130.108 83049 288.182
130.225 82746 287.656
130.342 81857 286.107
130.459 80000 282.843
130.576 79974 282.797
130.693 77131 277.725
130.81 74731 273.37
130.928 74626 273.178
131.045 74201 272.399
131.162 76055 275.781
131.279 78806 280.724
131.396 79905 282.675
131.513 78909 280.907
131.631 76845 277.209
131.748 75164 274.161
131.865 74396 272.756
131.983 75468 274.714
132.1 78256 279.743
132.217 80051 282.933
132.335 80450 283.637
132.452 81591 285.641
132.57 82113 286.554
132.687 83288 288.597
132.804 81212 284.977
132.922 81678 285.794
133.039 82699 287.574
133.157 83061 288.203
133.274 82394 287.044
133.392 82835 287.811
133.509 83186 288.42
133.627 82940 287.993
133.744 82967 288.04
133.862 81578 285.619
133.979 80690 284.06
134.097 78555 280.277
134.214 77059 277.595
134.332 74197 272.391
134.449 74215 272.424
134.567 74320 272.617
134.684 75648 275.042
134.802 77391 278.192
134.919 79587 282.112
135.037 78519 280.212
135.154 76173 275.995
135.272 74694 273.302
135.389 74633 273.19
135.507 74582 273.097
135.624 76544 276.666
135.742 78691 280.519
135.859 80507 283.738
135.977 81820 286.042
136.094 82440 287.124
136.211 82386 287.03
136.329 82373 287.007
136.446 82387 287.031
136.564 82748 287.66
136.681 83178 288.406
136.798 82652 287.493
136.915 83276 288.576
137.033 82890 287.906
137.15 83350 288.704
137.267 83040 288.167
137.384 81953 286.274
137.502 80961 284.536
137.619 78174 279.596
137.736 76973 277.44
137.853 71871 268.088
137.97 72707 269.642
138.087 71263 266.951
138.204 73113 270.394
138.321 74327 272.63
138.438 76204 276.051
138.555 78738 280.603
138.672 77701 278.749
138.788 76222 276.083
138.905 73868 271.787
139.022 70766 266.019
139.139 69064 262.8
139.255 68538 261.798
139.372 66368 257.62
139.488 64305 253.584
139.605 61283 247.554
139.721 57576 239.95
139.838 53455 231.203
139.954 49891 223.363
140.071 47050 216.91
140.187 44023 209.817
140.303 42390 205.888
140.419 40112 200.28
140.535 38585 196.431
140.652 36121 190.055
140.768 0 1
140.884 0 1
141 0 1
141.115 0 1
141.231 0 1
141.347 0 1
141.463 0 1
141.578 0 1
141.694 0 1
144.104 0 1
144.219 0 1
144.335 0 1
144.45 0 1
144.566 0 1
144.682 0 1
144.798 0 1
144.914 0 1
145.03 0 1
145.146 57895 240.614
145.262 61607 248.208
145.378 62817 250.633
145.494 63025 251.048
145.61 63592 252.175
145.726 63433 251.859
145.842 63287 251.569
145.959 63431 251.855
146.075 62355 249.71
146.192 62006 249.01
146.308 60595 246.161
146.425 58785 242.456
146.541 56883 238.502
146.658 55909 236.451
146.774 54829 234.156
146.891 55626 235.852
147.008 56387 237.459
147.125 56765 238.254
147.241 58621 242.118
147.358 59695 244.326
147.475 59271 243.456
147.592 58313 241.481
147.709 56905 238.548
147.826 55777 236.172
147.943 55273 235.102
148.06 56225 237.118
148.177 56978 238.701
148.294 58979 242.856
148.411 60750 246.475
148.528 61908 248.813
148.645 62201 249.401
148.762 62755 250.509
148.88 63481 251.954
148.997 64966 254.884
149.114 62258 249.516
149.231 63406 251.805
149.349 63982 252.947
149.466 63370 251.734
149.583 64058 253.097
149.701 63343 251.68
149.818 62819 250.637
149.935 61964 248.926
150.053 59892 244.728
150.17 58817 242.522
150.287 57936 240.699
150.405 57422 239.629
150.522 57421 239.627
150.64 58563 241.998
150.757 59318 243.553
150.875 61099 247.182
150.992 61096 247.176
151.11 61603 248.2
151.227 60270 245.499
151.344 59525 243.977
151.462 57320 239.416
151.579 57190 239.144
151.697 57048 238.847
151.814 57944 240.716
151.932 60100 245.153
152.049 61215 247.417
152.167 62700 250.4
152.284 63675 252.339
152.402 64208 253.393
152.519 64001 252.984
152.636 63713 252.414
152.754 63553 252.097
152.871 64112 253.203
152.989 63532 252.056
153.106 63557 252.105
153.223 63450 251.893
153.341 62142 249.283
153.458 60966 246.913
153.575 59977 244.902
153.693 57336 239.449
153.81 56720 238.16
153.927 56418 237.525
154.044 56396 237.478
154.162 57830 240.479
154.279 57720 240.25
154.396 59221 243.354
154.513 59955 244.857
154.63 60619 246.209
154.747 60006 244.961
154.864 59174 243.257
154.981 57178 239.119
155.098 55995 236.633
155.215 55731 236.074
155.332 54927 234.365
155.449 55709 236.028
155.566 56861 238.455
155.683 58279 241.41
155.8 59703 244.342
155.917 58984 242.866
156.033 58427 241.717
156.15 0 1
156.267 0 1
156.383 0 1
156.5 0 1
156.617 0 1
156.733 0 1
156.85 0 1
156.966 0 1
157.082 0 1
157.199 0 1
157.315 0 1
157.431 0 1
157.547 0 1
157.664 0 1
157.78 0 1
157.896 0 1
158.012 0 1
158.128 0 1
158.244 0 1
158.359 0 1
158.475 0 1
158.591 0 1
158.706 0 1
