
6.15755 0 1
6.2731 0 1
6.3887 0 1
6.50437 0 1
6.62009 0 1
6.73587 0 1
6.8517 0 1
6.96759 0 1
7.08353 0 1
7.19952 0 1
7.31557 0 1
7.43166 0 1
7.54781 0 1
7.664 0 1
7.78024 0 1
7.89653 0 1
8.01286 0 1
8.12924 0 1
8.24567 0 1
8.36213 0 1
8.47864 0 1
8.59519 0 1
8.71178 0 1
8.82841 0 1
8.94508 0 1
9.06179 0 1
9.17853 0 1
9.29531 0 1
9.41212 0 1
9.52897 0 1
9.64584 0 1
9.76276 0 1
9.8797 0 1
9.99667 0 1
10.1137 0 1
10.2307 0 1
10.3478 0 1
10.4648 0 1
10.5819 0 1
10.6991 0 1
10.8162 0 1
10.9334 0 1
11.0506 0 1
11.1678 0 1
11.285 0 1
11.4023 0 1
11.5196 0 1
11.6369 0 1
11.7542 0 1
11.8715 0 1
11.9888 0 1
12.1062 0 1
12.2235 0 1
12.3409 0 1
12.4582 0 1
12.5756 0 1
12.693 0 1
12.8104 0 1
12.9278 0 1
13.0452 0 1
13.1626 0 1
13.28 0 1
13.3974 0 1
13.5149 0 1
13.6323 0 1
13.7497 0 1
13.8671 0 1
13.9845 0 1
14.1019 0 1
14.2193 0 1
14.3367 0 1
14.4541 0 1
14.5714 0 1
14.6888 0 1
14.8062 0 1
14.9235 0 1
15.0408 0 0
15.1581 0 0
15.2755 0 0
15.3927 0 0
15.51 0 0
15.6273 0 0
15.7445 0 0
15.8617 0 0
15.9789 0 0
16.0961 0 0
16.2132 0 0
16.3304 0 0
16.4475 0 0
16.5646 0 0
16.6816 0 0
16.7986 0 0
16.9156 0 0
17.0326 0 0
17.1496 0 0
17.2665 0 0
17.3833 0 0
17.5002 0 0
17.617 0 0
17.7338 0 0
17.8505 0 0
17.9672 0 0
18.0839 0 0
18.2005 0 0
18.3171 0 0
18.4337 0 0
18.5502 0 0
18.6666 0 0
18.7831 0 0
18.8994 0 0
19.0158 0 0
19.1321 0 0
19.2483 0 0
19.3645 0 0
19.4806 0 0
19.5967 0 0
19.7128 0 0
19.8288 0 0
19.9447 0 0
20.0606 0 1
20.1764 0 1
20.2922 0 1
20.4079 0 1
20.5236 0 1
20.6392 0 1
20.7548 0 1
20.8702 0 1
23.3078 0 1
23.4233 0 1
23.539 0 1
23.6547 0 1
23.7704 0 1
23.8862 0 1
24.0021 0 1
24.118 0 1
24.234 0 1
24.35 0 1
24.4661 88122 296.853
24.5822 88227 297.03
24.6984 89355 298.923
24.8146 90243 300.405
24.9309 92183 303.617
25.0472 93823 306.305
25.1636 95111 308.401
25.28 96748 311.043
25.3965 97569 312.36
25.513 97855 312.818
25.6296 98759 314.259
25.7462 99286 315.097
25.8628 97701 312.572
25.9795 97808 312.743
26.0962 97755 312.658
26.213 97804 312.736
26.3298 95730 309.403
26.4466 95651 309.275
26.5635 94118 306.787
26.6804 91245 302.068
26.7973 88181 296.953
26.9143 86273 293.723
27.0313 84811 291.223
27.1483 84742 291.105
27.2653 85687 292.723
27.3824 85841 292.986
27.4996 84954 291.469
27.6167 83661 289.242
27.7339 79423 281.821
27.8511 76295 276.215
27.9683 74536 273.013
28.0855 73972 271.978
28.2028 74786 273.47
28.3201 74908 273.693
28.4374 77692 278.733
28.5547 79372 281.73
28.6721 81025 284.649
28.7894 82638 287.468
28.9068 83133 288.328
29.0242 82956 288.021
29.1416 83009 288.113
29.259 83194 288.434
29.3764 83277 288.578
29.4939 82674 287.531
29.6113 82400 287.054
29.7288 82065 286.47
29.8463 81271 285.081
29.9638 81213 284.979
30.0812 79896 282.659
30.1987 77953 279.201
30.3162 75497 274.767
30.4337 73182 270.522
30.5512 71691 267.752
30.6687 71503 267.4
30.7862 71780 267.918
30.9037 71683 267.737
31.0212 73203 270.561
31.1387 72111 268.535
31.2562 69308 263.264
31.3737 67335 259.49
31.4912 65541 256.01
31.6087 65460 255.852
31.7262 65813 256.54
31.8436 67310 259.442
31.9611 68755 262.212
32.0785 70438 265.402
32.1959 72496 269.251
32.3134 73550 271.201
32.4308 73883 271.814
32.5482 74144 272.294
32.6655 74698 273.309
32.7829 73763 271.593
32.9002 74161 272.325
33.0176 74160 272.323
33.1349 73497 271.103
33.2522 73335 270.804
33.3694 73267 270.679
33.4867 73141 270.446
33.6039 72368 269.013
33.7211 72115 268.542
33.8383 71326 267.069
33.9554 69317 263.281
34.0725 66828 258.511
34.1896 64978 254.908
34.3067 63992 252.966
34.4237 64497 253.963
34.5407 64312 253.598
34.6577 65492 255.914
34.7746 64510 253.988
34.8915 63303 251.601
35.0084 60844 246.666
35.1252 58703 242.287
35.242 58030 240.894
35.3587 59636 244.205
35.4755 60238 245.434
35.5921 61906 248.809
35.7088 63705 252.398
35.8254 65647 256.217
35.9419 67190 259.21
36.0584 67336 259.492
36.1749 67220 259.268
36.2913 67654 260.104
36.4077 67951 260.674
36.524 67418 259.65
36.6403 67295 259.413
36.7565 67402 259.619
36.8727 66741 258.343
36.9889 66274 257.437
37.1049 65320 255.578
37.221 0 1
37.3369 0 1
37.4529 0 1
37.5687 0 1
37.6845 0 1
37.8003 0 1
37.916 0 1
38.0316 0 1
38.1472 0 1
40.5851 0 1
40.7008 0 1
40.8164 0 1
40.9322 0 1
41.048 0 1
41.1639 0 1
41.2798 0 1
41.3958 0 1
41.5118 0 1
41.6279 0 1
41.744 48787 220.878
41.8602 50402 224.504
41.9765 50638 225.029
42.0928 50927 225.67
42.2091 50567 224.871
42.3255 50288 224.25
42.4419 50574 224.887
42.5584 50325 224.332
42.675 49773 223.099
42.7915 48731 220.751
42.9081 47065 216.945
43.0248 45839 214.1
43.1415 44675 211.365
43.2582 44518 210.993
43.375 44577 211.133
43.4918 45477 213.253
43.6087 44446 210.822
43.7256 42668 206.562
43.8425 40742 201.846
43.9595 39462 198.65
44.0765 38766 196.891
44.1935 39216 198.03
44.3106 40058 200.145
44.4277 41173 202.911
44.5448 42451 206.036
44.6619 42304 205.679
44.7791 43053 207.492
44.8963 42453 206.041
45.0136 42169 205.351
45.1308 41698 204.201
45.2481 41599 203.958
45.3654 40843 202.097
45.4827 40380 200.948
45.6001 40205 200.512
45.7174 40238 200.594
45.8348 39952 199.88
45.9522 39482 198.701
46.0697 39411 198.522
46.1871 39457 198.638
46.3046 38514 196.25
46.422 37358 193.282
46.5395 36250 190.394
46.657 34931 186.898
46.7745 34391 185.448
46.892 33856 184
47.0096 34082 184.613
47.1271 34500 185.742
47.2446 33771 183.769
47.3622 31721 178.104
47.4797 30563 174.823
47.5973 29603 172.055
47.7149 30170 173.695
47.8324 30664 175.111
47.95 31629 177.845
48.0675 32339 179.83
48.1851 32510 180.305
48.3027 32692 180.809
48.4202 32770 181.025
48.5378 32171 179.363
48.6554 32567 180.463
48.7729 32219 179.497
48.8904 32182 179.393
49.008 32307 179.741
49.1255 32424 180.067
49.243 32838 181.213
49.3605 32958 181.543
49.478 33279 182.425
49.5955 33220 182.264
49.713 33516 183.074
49.8304 33746 183.701
49.9479 33606 183.319
50.0653 32768 181.019
50.1827 32202 179.449
50.3001 31895 178.592
50.4175 31792 178.303
50.5348 31795 178.312
50.6521 33412 182.789
50.7694 34280 185.149
50.8867 33150 182.071
51.004 32977 181.596
51.1212 33612 183.336
51.2384 35131 187.433
51.3556 36781 191.784
51.4727 39009 197.507
51.5899 40822 202.045
51.707 41954 204.827
51.824 42434 205.995
51.9411 42862 207.031
52.0581 43140 207.702
52.175 43741 209.143
52.2919 44261 210.383
52.4088 44561 211.095
52.5257 45374 213.012
52.6425 45985 214.441
52.7593 46091 214.688
52.876 46205 214.953
52.9927 47586 218.142
53.1094 47534 218.023
53.226 48528 220.291
53.3426 48517 220.266
53.4591 48986 221.328
53.5756 49572 222.648
53.692 48630 220.522
53.8084 47300 217.486
53.9248 46100 214.709
54.0411 45278 212.786
54.1573 45847 214.119
54.2735 0 1
54.3896 0 1
54.5057 0 1
54.6217 0 1
54.7377 0 1
54.8537 0 1
54.9695 0 1
55.0853 0 1
55.2011 0 1
55.3168 0 1
55.4324 0 1
57.824 0 1
57.9396 0 1
58.0553 0 1
58.1711 0 1
58.2869 0 1
58.4028 0 1
58.5187 0 1
58.6347 0 1
58.7508 0 1
58.8669 0 1
58.983 55580 235.754
59.0992 54677 233.831
59.2155 53607 231.532
59.3318 52767 229.711
59.4482 52568 229.277
59.5646 52237 228.554
59.681 52061 228.169
59.7975 52391 228.891
59.9141 53354 230.985
60.0306 54955 234.425
60.1473 56277 237.228
60.2639 57090 238.935
60.3807 57114 238.985
60.4974 56970 238.684
60.6142 56156 236.973
60.731 55823 236.269
60.8479 55963 236.565
60.9648 55548 235.686
61.0818 55427 235.429
61.1987 54779 234.049
61.3158 55086 234.704
61.4328 54700 233.88
61.5499 54291 233.004
61.667 54547 233.553
61.7841 54177 232.76
61.9013 54804 234.103
62.0185 54287 232.996
62.1357 53301 230.87
62.253 53585 231.484
62.3702 52584 229.312
62.4875 50543 224.818
62.6049 49669 222.865
62.7222 49540 222.576
62.8396 48924 221.188
62.9569 48670 220.613
63.0743 47105 217.037
63.1918 46913 216.594
63.3092 46852 216.453
63.4267 48733 220.756
63.5441 49939 223.47
63.6616 51544 227.033
63.7791 51157 226.179
63.8966 51103 226.06
64.0142 51599 227.154
64.1317 50833 225.462
64.2492 50515 224.755
64.3668 50108 223.848
64.4843 50214 224.085
64.6019 49802 223.164
64.7195 49599 222.708
64.837 49661 222.847
64.9546 49461 222.398
65.0722 49641 222.803
65.1898 48961 221.271
65.3074 49855 223.282
65.4249 48833 220.982
65.5425 48941 221.226
65.6601 49355 222.16
65.7777 48778 220.857
65.8952 49200 221.811
66.0128 48076 219.262
66.1304 46703 216.109
66.2479 44933 211.974
66.3655 44562 211.097
66.483 44198 210.233
66.6005 43534 208.648
66.718 42623 206.453
66.8355 42726 206.703
66.953 44699 211.421
67.0705 46569 215.799
67.1879 48237 219.629
67.3054 48091 219.297
67.4228 48090 219.294
67.5402 48054 219.212
67.6576 48545 220.329
67.7749 47538 218.032
67.8923 48864 221.052
68.0096 48051 219.205
68.1269 48275 219.716
68.2442 48038 219.176
68.3614 48066 219.24
68.4787 47891 218.84
68.5958 48472 220.164
68.713 48536 220.309
68.8302 48764 220.826
68.9473 49308 222.054
69.0643 48761 220.819
69.1814 49070 221.517
69.2984 48931 221.204
69.4154 49592 222.693
69.5323 49603 222.717
69.6492 49677 222.883
69.7661 49332 222.108
69.8829 47824 218.687
69.9997 46130 214.779
70.1165 45701 213.778
70.2332 45100 212.368
70.3499 43919 209.569
70.4665 43477 208.511
70.5831 45240 212.697
70.6996 47771 218.566
70.8161 49097 221.578
70.9326 49629 222.776
71.049 49672 222.872
71.1653 49248 221.919
71.2817 48887 221.104
71.3979 47720 218.449
71.5141 47347 217.594
71.6303 46092 214.69
71.7464 42967 207.285
71.8624 0 1
71.9784 0 1
72.0944 0 1
72.2102 0 1
72.3261 0 1
72.4418 0 1
72.5575 0 1
72.6732 0 1
75.1054 0 1
75.2209 0 1
75.3365 0 1
75.4521 0 1
75.5678 0 1
75.6835 0 1
75.7993 0 1
75.9151 0 1
76.031 0 1
76.147 42899 207.121
76.263 45940 214.336
76.3791 47175 217.198
76.4952 46697 216.095
76.6113 46940 216.656
76.7276 47422 217.766
76.8438 46592 215.852
76.9601 46576 215.815
77.0765 46285 215.139
77.1929 46304 215.184
77.3093 46837 216.419
77.4258 46600 215.87
77.5423 46410 215.43
77.6589 46313 215.205
77.7755 46066 214.63
77.8921 45586 213.509
78.0088 45701 213.778
78.1256 45420 213.12
78.2423 45491 213.286
78.3591 44970 212.061
78.4759 45309 212.859
78.5928 45024 212.189
78.7097 44574 211.126
78.8266 46754 216.227
78.9436 41593 203.944
79.0606 40389 200.97
79.1776 35860 189.367
79.2946 35409 188.173
79.4117 37481 193.6
79.5288 39709 199.271
79.6459 41974 204.876
79.7631 42382 205.869
79.8802 42190 205.402
79.9974 41826 204.514
80.1147 41685 204.169
80.2319 41562 203.868
80.3491 41088 202.702
80.4664 41258 203.121
80.5837 40651 201.621
80.701 40388 200.968
80.8183 39955 199.887
80.9357 40501 201.249
81.053 39923 199.807
81.1704 40061 200.152
81.2877 39833 199.582
81.4051 39464 198.655
81.5225 39323 198.3
81.6399 38071 195.118
81.7573 38639 196.568
81.8747 37580 193.856
81.9922 37635 193.997
82.1096 38025 195
82.227 37785 194.384
82.3444 37306 193.148
82.4619 37963 194.841
82.5793 36873 192.023
82.6967 37023 192.414
82.8142 32150 179.304
82.9316 29286 171.132
83.049 29243 171.006
83.1664 32683 180.784
83.2838 34601 186.013
83.4012 35174 187.547
83.5186 34761 186.443
83.636 34446 185.596
83.7534 34483 185.696
83.8708 33929 184.198
83.9881 33938 184.223
84.1055 34110 184.689
84.2228 33302 182.488
84.3401 33207 182.228
84.4575 33522 183.09
84.5747 33535 183.126
84.692 33708 183.597
84.8093 33453 182.902
84.9265 33072 181.857
85.0437 32869 181.298
85.1609 32978 181.598
85.2781 32690 180.804
85.3952 32773 181.033
85.5123 32811 181.138
85.6294 32959 181.546
85.7465 32946 181.51
85.8636 32834 181.202
85.9806 33329 182.562
86.0976 33342 182.598
86.2145 33411 182.787
86.3315 30667 175.12
86.4484 29754 172.493
86.5652 27688 166.397
86.682 30747 175.348
86.7988 32417 180.047
86.9156 32969 181.574
87.0323 32139 179.274
87.149 32195 179.43
87.2657 31918 178.656
87.3823 32118 179.215
87.4988 31457 177.361
87.6154 31679 177.986
87.7318 31640 177.876
87.8483 31325 176.989
87.9647 31613 177.8
88.081 32013 178.922
88.1973 32543 180.397
88.3136 32456 180.155
88.4298 31463 177.378
88.546 31665 177.947
88.6621 31337 177.023
88.7781 30699 175.211
88.8942 0 1
89.0101 0 1
89.126 0 1
89.2419 0 1
89.3577 0 1
89.4734 0 1
89.5891 0 1
89.7047 0 1
89.8203 0 1
89.9358 0 1
92.3269 0 1
92.4424 0 1
92.558 0 1
92.6736 0 1
92.7893 0 1
92.905 0 1
93.0208 0 1
93.1366 0 1
93.2525 0 1
93.3685 0 1
93.4845 0 1
93.6005 30264 173.966
93.7167 31203 176.644
93.8328 31367 177.107
93.949 31550 177.623
94.0653 31558 177.646
94.1816 31574 177.691
94.2979 31910 178.634
94.4143 31805 178.34
94.5307 32326 179.794
94.6472 32392 179.978
94.7637 32672 180.754
94.8803 33477 182.967
94.9969 33650 183.439
95.1135 34119 184.713
95.2302 34070 184.581
95.3469 33766 183.755
95.4637 33174 182.137
95.5805 31007 176.088
95.6973 28788 169.67
95.8142 29787 172.589
95.9311 33562 183.199
96.048 35405 188.162
96.1649 36303 190.533
96.2819 36191 190.239
96.3989 36067 189.913
96.516 35881 189.423
96.633 35686 188.907
96.7501 35765 189.116
96.8673 35480 188.361
96.9844 35349 188.013
97.1016 35400 188.149
97.2188 35008 187.104
97.336 35335 187.976
97.4532 35380 188.096
97.5704 35019 187.134
97.6877 34907 186.834
97.805 34047 184.518
97.9223 33933 184.209
98.0396 33430 182.839
98.1569 33547 183.158
98.2743 33122 181.995
98.3916 33134 182.027
98.509 33162 182.104
98.6264 32707 180.851
98.7438 33019 181.711
98.8612 33105 181.948
98.9786 33392 182.735
99.096 32115 179.207
99.2134 30679 175.154
99.3308 28945 170.132
99.4482 30310 174.098
99.5656 32148 179.299
99.6831 33087 181.898
99.8005 33012 181.692
99.9179 32556 180.433
100.035 32756 180.986
100.153 32703 180.84
100.27 32221 179.502
100.388 32610 180.582
100.505 32554 180.427
100.622 32852 181.251
100.74 32590 180.527
100.857 33116 181.978
100.975 33331 182.568
101.092 33869 184.035
101.209 33444 182.877
101.327 33627 183.377
101.444 33259 182.371
101.561 33541 183.142
101.679 33501 183.033
101.796 33854 183.995
101.913 34030 184.472
102.03 34043 184.507
102.148 34062 184.559
102.265 36396 190.777
102.382 33014 181.698
102.499 34495 185.728
102.616 33576 183.238
102.733 31128 176.431
102.851 29742 172.459
102.968 31559 177.649
103.085 32541 180.391
103.202 32748 180.964
103.319 33438 182.861
103.436 33177 182.146
103.552 32528 180.355
103.669 32029 178.966
103.786 31957 178.765
103.903 31674 177.972
104.02 31263 176.813
104.137 31126 176.426
104.253 31632 177.854
104.37 30269 173.98
104.487 30584 174.883
104.603 30809 175.525
104.72 30205 173.796
104.836 30164 173.678
104.953 29528 171.837
105.069 28959 170.173
105.186 28796 169.694
105.302 28401 168.526
105.418 28376 168.452
105.535 28101 167.634
105.651 27667 166.334
105.767 27696 166.421
105.883 27190 164.894
105.999 27203 164.933
106.115 0 1
106.231 0 1
106.347 0 1
106.463 0 1
106.579 0 1
106.694 0 1
106.81 0 1
106.926 0 1
107.041 0 1
107.157 0 1
109.576 0 1
109.692 0 1
109.807 0 1
109.923 0 1
110.039 0 1
110.155 0 1
110.27 0 1
110.386 0 1
110.502 0 1
110.618 16340 127.828
110.735 16615 128.899
110.851 16668 129.105
110.967 16678 129.143
111.083 16193 127.252
111.199 16705 129.248
111.316 17011 130.426
111.432 16158 127.114
111.549 15383 124.028
111.665 14442 120.175
111.782 14530 120.54
111.898 15227 123.398
112.015 15547 124.688
112.132 15417 124.165
112.248 14942 122.237
112.365 15064 122.735
112.482 14974 122.368
112.599 14363 119.846
112.716 14389 119.954
112.832 14501 120.42
112.949 14407 120.029
113.066 14559 120.661
113.183 14819 121.733
113.3 14554 120.64
113.417 14538 120.574
113.534 14307 119.612
113.652 14599 120.826
113.769 14776 121.557
113.886 14825 121.758
114.003 14837 121.807
114.12 15236 123.434
114.238 15281 123.616
114.355 15214 123.345
114.472 13992 118.288
114.589 12469 111.665
114.707 12430 111.49
114.824 14379 119.912
114.942 15917 126.163
115.059 16288 127.624
115.176 16088 126.838
115.294 15266 123.556
115.411 15396 124.081
115.529 15842 125.865
115.646 16478 128.367
115.764 16605 128.86
115.881 16731 129.348
115.999 16801 129.619
116.116 16527 128.557
116.234 16863 129.858
116.351 16767 129.487
116.469 17112 130.813
116.586 17241 131.305
116.704 17792 133.387
116.821 17843 133.578
116.939 17985 134.108
117.056 18175 134.815
117.174 18344 135.44
117.291 18705 136.766
117.409 19149 138.38
117.526 19364 139.155
117.644 19534 139.764
117.761 20028 141.52
117.879 20073 141.679
117.996 18747 136.92
118.114 17447 132.087
118.231 15703 125.312
118.349 15141 123.049
118.466 18034 134.291
118.584 20637 143.656
118.701 22171 148.899
118.819 22472 149.907
118.936 21875 147.902
119.053 21531 146.734
119.171 21837 147.773
119.288 22348 149.492
119.405 22809 151.026
119.523 22791 150.967
119.64 22770 150.897
119.757 22930 151.427
119.875 22693 150.642
119.992 22988 151.618
120.109 22522 150.073
120.226 23433 153.078
120.343 23322 152.715
120.46 23159 152.181
120.578 23601 153.626
120.695 23928 154.687
120.812 24012 154.958
120.929 24641 156.975
121.046 24882 157.74
121.163 25311 159.094
121.279 25360 159.248
121.396 25432 159.474
121.513 25362 159.255
121.63 24755 157.337
121.747 22768 150.891
121.863 20554 143.367
121.98 19602 140.007
122.097 19470 139.535
122.213 22237 149.121
122.33 25117 158.483
122.446 26864 163.902
122.563 27333 165.327
122.679 27194 164.906
122.795 27231 165.018
122.912 27574 166.054
123.028 27617 166.184
123.144 27962 167.218
123.26 28080 167.571
123.377 0 1
123.493 0 1
123.609 0 1
123.725 0 1
123.84 0 1
123.956 0 1
124.072 0 1
124.188 0 1
124.303 0 1
124.419 0 1
126.852 0 1
126.968 0 1
127.083 0 1
127.199 0 1
127.315 0 1
127.431 0 1
127.547 0 1
127.663 0 1
127.779 0 1
127.895 0 1
128.011 0 1
128.127 0 1
128.243 0 1
128.359 36517 191.094
128.476 36482 191.003
128.592 36758 191.724
128.708 36561 191.209
128.825 36825 191.898
128.941 37001 192.356
129.058 36893 192.076
129.174 36920 192.146
129.291 37118 192.66
129.408 36766 191.745
129.524 36565 191.22
129.641 36904 192.104
129.758 37591 193.884
129.875 37938 194.777
129.992 37905 194.692
130.108 38032 195.018
130.225 37946 194.797
130.342 37613 193.941
130.459 35146 187.473
130.576 34650 186.145
130.693 31878 178.544
130.81 29880 172.858
130.928 29082 170.534
131.045 30458 174.522
131.162 32381 179.947
131.279 35907 189.491
131.396 38684 196.682
131.513 38854 197.114
131.631 39593 198.98
131.748 39645 199.111
131.865 39428 198.565
131.983 39449 198.618
132.1 39881 199.702
132.217 39272 198.172
132.335 39827 199.567
132.452 39287 198.209
132.57 39431 198.572
132.687 37680 194.113
132.804 40705 201.755
132.922 39170 197.914
133.039 38992 197.464
133.157 39403 198.502
133.274 39221 198.043
133.392 39694 199.234
133.509 39967 199.917
133.627 40290 200.724
133.744 40054 200.135
133.862 39032 197.565
133.979 38415 195.997
134.097 36566 191.222
134.214 35014 187.12
134.332 32251 179.586
134.449 32288 179.689
134.567 32419 180.053
134.684 34619 186.062
134.802 36900 192.094
134.919 38488 196.184
135.037 40730 201.817
135.154 41924 204.754
135.272 41854 204.583
135.389 41299 203.222
135.507 41923 204.751
135.624 41959 204.839
135.742 41932 204.773
135.859 42119 205.229
135.977 42389 205.886
136.094 42364 205.825
136.211 41612 203.99
136.329 41696 204.196
136.446 41939 204.79
136.564 41999 204.937
136.681 42724 206.698
136.798 41634 204.044
136.915 42789 206.855
137.033 43117 207.646
137.15 42800 206.882
137.267 42835 206.966
137.384 42470 206.083
137.502 41311 203.251
137.619 39342 198.348
137.736 38149 195.318
137.853 35468 188.329
137.97 33861 184.014
138.087 35299 187.88
138.204 35223 187.678
138.321 37021 192.408
138.438 39676 199.188
138.555 41126 202.795
138.672 41947 204.81
138.788 43484 208.528
138.905 44263 210.388
139.022 44604 211.197
139.139 44335 210.559
139.255 44762 211.57
139.372 44810 211.684
139.488 44863 211.809
139.605 45136 212.452
139.721 45131 212.441
139.838 44997 212.125
139.954 45113 212.398
140.071 43918 209.566
140.187 44582 211.145
140.303 44509 210.972
140.419 44194 210.224
140.535 44420 210.761
140.652 44312 210.504
140.768 0 1
140.884 0 1
141 0 1
141.115 0 1
141.231 0 1
141.347 0 1
141.463 0 1
141.578 0 1
141.694 0 1
144.104 0 1
144.219 0 1
144.335 0 1
144.45 0 1
144.566 0 1
144.682 0 1
144.798 0 1
144.914 0 1
145.03 0 1
145.146 40287 200.716
145.262 40774 201.926
145.378 40864 202.148
145.494 41089 202.704
145.61 40963 202.393
145.726 40604 201.504
145.842 40419 201.045
145.959 39904 199.76
146.075 38969 197.406
146.192 37759 194.317
146.308 36163 190.166
146.425 34365 185.378
146.541 33381 182.705
146.658 32653 180.701
146.774 32893 181.364
146.891 33955 184.269
147.008 36107 190.018
147.125 37256 193.018
147.241 37847 194.543
147.358 37313 193.166
147.475 37632 193.99
147.592 38739 196.822
147.709 40072 200.18
147.826 39904 199.76
147.943 40274 200.684
148.06 39827 199.567
148.177 39433 198.577
148.294 39215 198.028
148.411 39358 198.389
148.528 39314 198.278
148.645 39261 198.144
148.762 39030 197.56
148.88 38816 197.018
148.997 37578 193.85
149.114 40258 200.644
149.231 38653 196.604
149.349 39030 197.56
149.466 38165 195.359
149.583 37164 192.78
149.701 36886 192.057
149.818 35514 188.452
149.935 34209 184.957
150.053 32680 180.776
150.17 32244 179.566
150.287 31919 178.659
150.405 32641 180.668
150.522 33673 183.502
150.64 35346 188.005
150.757 36378 190.73
150.875 36728 191.646
150.992 36278 190.468
151.11 35585 188.64
151.227 36557 191.199
151.344 38180 195.397
151.462 38515 196.252
151.579 39543 198.854
151.697 39269 198.164
151.814 39245 198.104
151.932 39163 197.896
152.049 39096 197.727
152.167 38871 197.157
152.284 38718 196.769
152.402 39324 198.303
152.519 38810 197.003
152.636 38901 197.233
152.754 38784 196.937
152.871 38695 196.71
152.989 38312 195.735
153.106 38116 195.233
153.223 37479 193.595
153.341 36307 190.544
153.458 35013 187.118
153.575 34001 184.394
153.693 32911 181.414
153.81 32134 179.26
153.927 32498 180.272
154.044 33754 183.723
154.162 35413 188.183
154.279 37023 192.414
154.396 38519 196.263
154.513 38757 196.868
154.63 38894 197.216
154.747 38012 194.967
154.864 38102 195.197
154.981 39318 198.288
155.098 39807 199.517
155.215 40759 201.889
155.332 40454 201.132
155.449 40423 201.055
155.566 40184 200.459
155.683 40306 200.764
155.8 40057 200.142
155.917 40508 201.266
156.033 40270 200.674
156.15 0 1
156.267 0 1
156.383 0 1
156.5 0 1
156.617 0 1
156.733 0 1
156.85 0 1
156.966 0 1
157.082 0 1
157.199 0 1
157.315 0 1
157.431 0 1
157.547 0 1
157.664 0 1
157.78 0 1
157.896 0 1
158.012 0 1
158.128 0 1
158.244 0 1
158.359 0 1
158.475 0 1
158.591 0 1
158.706 0 1
