
6.15755 0 1
6.2731 0 1
6.3887 0 1
6.50437 0 1
6.62009 0 1
6.73587 0 1
6.8517 0 1
6.96759 0 1
7.08353 0 1
7.19952 0 1
7.31557 0 1
7.43166 0 1
7.54781 0 1
7.664 0 1
7.78024 0 1
7.89653 0 1
8.01286 0 1
8.12924 0 1
8.24567 0 1
8.36213 0 1
8.47864 0 1
8.59519 0 1
8.71178 0 1
8.82841 0 1
8.94508 0 1
9.06179 0 1
9.17853 0 1
9.29531 0 1
9.41212 0 1
9.52897 0 1
9.64584 0 1
9.76276 0 1
9.8797 0 1
9.99667 0 1
10.1137 0 1
10.2307 0 1
10.3478 0 1
10.4648 0 1
10.5819 0 1
10.6991 0 1
10.8162 0 1
10.9334 0 1
11.0506 0 1
11.1678 0 1
11.285 0 1
11.4023 0 1
11.5196 0 1
11.6369 0 1
11.7542 0 1
11.8715 0 1
11.9888 0 1
12.1062 0 1
12.2235 0 1
12.3409 0 1
12.4582 0 1
12.5756 0 1
12.693 0 1
12.8104 0 1
12.9278 0 1
13.0452 0 1
13.1626 0 1
13.28 0 1
13.3974 0 1
13.5149 0 1
13.6323 0 1
13.7497 0 1
13.8671 0 1
13.9845 0 1
14.1019 0 1
14.2193 0 1
14.3367 0 1
14.4541 0 1
14.5714 0 1
14.6888 0 1
14.8062 0 1
14.9235 0 1
15.0408 16259 127.511
15.1581 17118 130.836
15.2755 17497 132.276
15.3927 17335 131.662
15.51 17250 131.339
15.6273 16851 129.811
15.7445 16691 129.194
15.8617 17205 131.168
15.9789 17428 132.015
16.0961 17429 132.019
16.2132 17585 132.608
16.3304 17976 134.075
16.4475 18177 134.822
16.5646 18257 135.118
16.6816 19001 137.844
16.7986 19199 138.56
16.9156 19449 139.46
17.0326 19805 140.73
17.1496 20357 142.678
17.2665 20312 142.52
17.3833 20299 142.475
17.5002 20324 142.562
17.617 20307 142.503
17.7338 19769 140.602
17.8505 20083 141.715
17.9672 19467 139.524
18.0839 19410 139.32
18.2005 19538 139.778
18.3171 19631 140.111
18.4337 20142 141.923
18.5502 20321 142.552
18.6666 20780 144.153
18.7831 20906 144.589
18.8994 20818 144.284
19.0158 20346 142.639
19.1321 19904 141.082
19.2483 18977 137.757
19.3645 18755 136.949
19.4806 18663 136.613
19.5967 18262 135.137
19.7128 17238 131.294
19.8288 16245 127.456
19.9447 13781 117.393
20.0606 0 1
20.1764 0 1
20.2922 0 1
20.4079 0 1
20.5236 0 1
20.6392 0 1
20.7548 0 1
20.8702 0 1
23.3078 0 1
23.4233 0 1
23.539 0 1
23.6547 0 1
23.7704 0 1
23.8862 0 1
24.0021 0 1
24.118 0 1
24.234 0 1
24.35 0 1
24.4661 10489 102.416
24.5822 12358 111.167
24.6984 14175 119.059
24.8146 15798 125.69
24.9309 17601 132.669
25.0472 18960 137.695
25.1636 20486 143.129
25.28 21732 147.418
25.3965 23070 151.888
25.513 24577 156.771
25.6296 25411 159.408
25.7462 26361 162.361
25.8628 26610 163.126
25.9795 26793 163.686
26.0962 27340 165.348
26.213 27183 164.873
26.3298 27036 164.426
26.4466 26584 163.046
26.5635 26821 163.771
26.6804 26504 162.8
26.7973 27251 165.079
26.9143 26952 164.171
27.0313 27696 166.421
27.1483 28241 168.051
27.2653 29082 170.534
27.3824 29404 171.476
27.4996 29540 171.872
27.6167 29298 171.167
27.7339 28365 168.419
27.8511 27339 165.345
27.9683 27405 165.545
28.0855 26888 163.976
28.2028 27509 165.858
28.3201 27555 165.997
28.4374 27241 165.048
28.5547 27105 164.636
28.6721 26579 163.031
28.7894 26601 163.098
28.9068 26874 163.933
29.0242 27012 164.353
29.1416 27499 165.828
29.259 27848 166.877
29.3764 27618 166.187
29.4939 27946 167.171
29.6113 28251 168.08
29.7288 28134 167.732
29.8463 27809 166.76
29.9638 27975 167.257
30.0812 28280 168.167
30.1987 28124 167.702
30.3162 28547 168.959
30.4337 29156 170.751
30.5512 30058 173.372
30.6687 29851 172.774
30.7862 31071 176.27
30.9037 31613 177.8
31.0212 31831 178.412
31.1387 31217 176.683
31.2562 30807 175.519
31.3737 30483 174.594
31.4912 30399 174.353
31.6087 29983 173.156
31.7262 30663 175.109
31.8436 30482 174.591
31.9611 29989 173.173
32.0785 29722 172.401
32.1959 29446 171.598
32.3134 28940 170.118
32.4308 28843 169.832
32.5482 29492 171.732
32.6655 29576 171.977
32.7829 29984 173.159
32.9002 30700 175.214
33.0176 30464 174.539
33.1349 30543 174.766
33.2522 30889 175.753
33.3694 30387 174.319
33.4867 30979 176.009
33.6039 31349 177.056
33.7211 31595 177.75
33.8383 31638 177.871
33.9554 32279 179.664
34.0725 32334 179.817
34.1896 32791 181.083
34.3067 33931 184.204
34.4237 34586 185.973
34.5407 35295 187.87
34.6577 35615 188.719
34.7746 35801 189.212
34.8915 35197 187.609
35.0084 34510 185.769
35.1252 34669 186.196
35.242 34389 185.443
35.3587 34570 185.93
35.4755 34672 186.204
35.5921 35163 187.518
35.7088 34078 184.602
35.8254 32887 181.348
35.9419 31805 178.34
36.0584 30790 175.471
36.1749 30035 173.306
36.2913 29332 171.266
36.4077 29088 170.552
36.524 28738 169.523
36.6403 28760 169.588
36.7565 28480 168.76
36.8727 27893 167.012
36.9889 27008 164.341
37.1049 25016 158.164
37.221 0 1
37.3369 0 1
37.4529 0 1
37.5687 0 1
37.6845 0 1
37.8003 0 1
37.916 0 1
38.0316 0 1
38.1472 0 1
40.5851 0 1
40.7008 0 1
40.8164 0 1
40.9322 0 1
41.048 0 1
41.1639 0 1
41.2798 0 1
41.3958 0 1
41.5118 0 1
41.6279 0 1
41.744 19095 138.185
41.8602 21401 146.291
41.9765 23572 153.532
42.0928 26421 162.545
42.2091 28853 169.862
42.3255 31467 177.389
42.4419 34285 185.162
42.5584 35861 189.37
42.675 37364 193.298
42.7915 38838 197.074
42.9081 40880 202.188
43.0248 43065 207.521
43.1415 46062 214.621
43.2582 47768 218.559
43.375 48965 221.28
43.4918 49757 223.063
43.6087 49940 223.473
43.7256 50452 224.615
43.8425 49467 222.412
43.9595 48610 220.477
44.0765 48454 220.123
44.1935 48690 220.658
44.3106 50003 223.614
44.4277 49803 223.166
44.5448 49201 221.813
44.6619 46564 215.787
44.7791 44044 209.867
44.8963 41598 203.956
45.0136 40329 200.821
45.1308 40554 201.38
45.2481 40643 201.601
45.3654 41188 202.948
45.4827 42259 205.57
45.6001 44022 209.814
45.7174 46852 216.453
45.8348 48897 221.127
45.9522 49972 223.544
46.0697 52054 228.153
46.1871 52183 228.436
46.3046 52878 229.952
46.422 52912 230.026
46.5395 54369 233.172
46.657 56176 237.015
46.7745 57486 239.762
46.892 58505 241.878
47.0096 59710 244.356
47.1271 60705 246.384
47.2446 59927 244.8
47.3622 60151 245.257
47.4797 58945 242.786
47.5973 57193 239.151
47.7149 56745 238.212
47.8324 58094 241.027
47.95 58599 242.072
48.0675 56725 238.17
48.1851 54949 234.412
48.3027 51151 226.166
48.4202 47216 217.292
48.5378 43459 208.468
48.6554 41620 204.01
48.7729 41268 203.145
48.8904 41429 203.541
49.008 42175 205.366
49.1255 44584 211.149
49.243 48077 219.265
49.3605 51501 226.938
49.478 53281 230.827
49.5955 54671 233.818
49.713 54660 233.795
49.8304 54758 234.004
49.9479 54754 233.996
50.0653 55134 234.806
50.1827 56837 238.405
50.3001 57632 240.067
50.4175 58461 241.787
50.5348 59385 243.69
50.6521 59476 243.877
50.7694 59468 243.861
50.8867 58582 242.037
51.004 57640 240.083
51.1212 56097 236.848
51.2384 55294 235.147
51.3556 56081 236.814
51.4727 56417 237.523
51.5899 55351 235.268
51.707 53254 230.768
51.824 49993 223.591
51.9411 44765 211.577
52.0581 40543 201.353
52.175 38697 196.716
52.2919 37651 194.039
52.4088 37502 193.654
52.5257 38099 195.19
52.6425 40192 200.479
52.7593 42045 205.049
52.876 43711 209.072
52.9927 44516 210.988
53.1094 44661 211.331
53.226 44748 211.537
53.3426 43963 209.674
53.4591 42197 205.419
53.5756 40815 202.027
53.692 38734 196.81
53.8084 37757 194.312
53.9248 36404 190.798
54.0411 34986 187.045
54.1573 32974 181.587
54.2735 0 1
54.3896 0 1
54.5057 0 1
54.6217 0 1
54.7377 0 1
54.8537 0 1
54.9695 0 1
55.0853 0 1
55.2011 0 1
55.3168 0 1
55.4324 0 1
57.824 0 1
57.9396 0 1
58.0553 0 1
58.1711 0 1
58.2869 0 1
58.4028 0 1
58.5187 0 1
58.6347 0 1
58.7508 0 1
58.8669 0 1
58.983 30357 174.233
59.0992 34411 185.502
59.2155 37556 193.794
59.3318 39777 199.442
59.4482 41519 203.762
59.5646 42956 207.258
59.681 44127 210.064
59.7975 45128 212.434
59.9141 45844 214.112
60.0306 46770 216.264
60.1473 47547 218.053
60.2639 48077 219.265
60.3807 47893 218.845
60.4974 45447 213.183
60.6142 41706 204.22
60.731 37044 192.468
60.8479 33209 182.233
60.9648 31080 176.295
61.0818 29746 172.47
61.1987 30631 175.017
61.3158 32682 180.782
61.4328 36093 189.982
61.5499 40474 201.182
61.667 43974 209.7
61.7841 45564 213.457
61.9013 46984 216.758
62.0185 46725 216.16
62.1357 46171 214.874
62.253 45566 213.462
62.3702 45885 214.208
62.4875 46625 215.928
62.6049 47052 216.915
62.7222 47685 218.369
62.8396 47727 218.465
62.9569 47938 218.947
63.0743 47214 217.288
63.1918 46928 216.629
63.3092 45434 213.153
63.4267 44760 211.566
63.5441 44378 210.661
63.6616 44801 211.662
63.7791 45208 212.622
63.8966 43691 209.024
64.0142 41803 204.458
64.1317 37899 194.677
64.2492 33129 182.014
64.3668 29165 170.778
64.4843 26825 163.783
64.6019 25604 160.012
64.7195 25784 160.574
64.837 27199 164.921
64.9546 30096 173.482
65.0722 34200 184.932
65.1898 37854 194.561
65.3074 40398 200.993
65.4249 41403 203.477
65.5425 42183 205.385
65.6601 41200 202.978
65.7777 40513 201.278
65.8952 40375 200.935
66.0128 40635 201.581
66.1304 41415 203.507
66.2479 41863 204.604
66.3655 42250 205.548
66.483 42729 206.71
66.6005 42486 206.121
66.718 41999 204.937
66.8355 41703 204.213
66.953 40540 201.345
67.0705 39378 198.439
67.1879 39440 198.595
67.3054 40305 200.761
67.4228 40183 200.457
67.5402 39218 198.035
67.6576 36692 191.552
67.7749 33688 183.543
67.8923 29511 171.788
68.0096 25608 160.025
68.1269 23495 153.281
68.2442 22063 148.536
68.3614 22283 149.275
68.4787 23402 152.977
68.5958 26425 162.558
68.713 29989 173.173
68.8302 33915 184.16
68.9473 36779 191.779
69.0643 38096 195.182
69.1814 38543 196.324
69.2984 37709 194.188
69.4154 36371 190.712
69.5323 34561 185.906
69.6492 33387 182.721
69.7661 33724 183.641
69.8829 33818 183.897
69.9997 33480 182.975
70.1165 33723 183.638
70.2332 33386 182.718
70.3499 32296 179.711
70.4665 30661 175.103
70.5831 28921 170.062
70.6996 27106 164.639
70.8161 25746 160.456
70.9326 24391 156.176
71.049 23541 153.431
71.1653 22379 149.596
71.2817 20436 142.955
71.3979 18479 135.937
71.5141 15536 124.643
71.6303 12327 111.027
71.7464 8670 93.1128
71.8624 0 1
71.9784 0 1
72.0944 0 1
72.2102 0 1
72.3261 0 1
72.4418 0 1
72.5575 0 1
72.6732 0 1
75.1054 0 1
75.2209 0 1
75.3365 0 1
75.4521 0 1
75.5678 0 1
75.6835 0 1
75.7993 0 1
75.9151 0 1
76.031 0 1
76.147 22506 150.02
76.263 25378 159.305
76.3791 26617 163.147
76.4952 25973 161.161
76.6113 25622 160.069
76.7276 24453 156.375
76.8438 22914 151.374
76.9601 20832 144.333
77.0765 19345 139.086
77.1929 18543 136.173
77.3093 18532 136.132
77.4258 19151 138.387
77.5423 21298 145.938
77.6589 24987 158.073
77.7755 28983 170.244
77.8921 31875 178.536
78.0088 33769 183.763
78.1256 34308 185.224
78.2423 33998 184.385
78.3591 33187 182.173
78.4759 32123 179.229
78.5928 31724 178.112
78.7097 31598 177.758
78.8266 31573 177.688
78.9436 33707 183.595
79.0606 33458 182.915
79.1776 34064 184.564
79.2946 34073 184.589
79.4117 34246 185.057
79.5288 33850 183.984
79.6459 33018 181.709
79.7631 32289 179.691
79.8802 32572 180.477
79.9974 33529 183.109
80.1147 33620 183.358
80.2319 32795 181.094
80.3491 30422 174.419
80.4664 28254 168.089
80.5837 24758 157.347
80.701 21441 146.427
80.8183 19680 140.285
80.9357 19183 138.503
81.053 18878 137.397
81.1704 20186 142.077
81.2877 23142 152.125
81.4051 27168 164.827
81.5225 31467 177.389
81.6399 33220 182.264
81.7573 34610 186.038
81.8747 34272 185.127
81.9922 34209 184.957
82.1096 33014 181.698
82.227 31981 178.832
82.3444 31879 178.547
82.4619 32572 180.477
82.5793 33127 182.008
82.6967 33442 182.872
82.8142 34272 185.127
82.9316 34414 185.51
83.049 34689 186.25
83.1664 33752 183.717
83.2838 33723 183.638
83.4012 33269 182.398
83.5186 32754 180.981
83.636 32711 180.862
83.7534 32526 180.35
83.8708 31597 177.755
83.9881 29626 172.122
84.1055 27969 167.239
84.2228 25762 160.505
84.3401 23069 151.885
84.4575 20560 143.388
84.5747 19564 139.871
84.692 19776 140.627
84.8093 21738 147.438
84.9265 25770 160.53
85.0437 29294 171.155
85.1609 32505 180.291
85.2781 35540 188.521
85.3952 36640 191.416
85.5123 36849 191.961
85.6294 35941 189.581
85.7465 35196 187.606
85.8636 34390 185.445
85.9806 35546 188.536
86.0976 36074 189.932
86.2145 36651 191.445
86.3315 37886 194.643
86.4484 36611 191.34
86.5652 37202 192.878
86.682 35919 189.523
86.7988 34760 186.44
86.9156 33719 183.627
87.0323 32886 181.345
87.149 31940 178.718
87.2657 31142 176.471
87.3823 30657 175.091
87.4988 29478 171.692
87.6154 27966 167.23
87.7318 25818 160.68
87.8483 23064 151.868
87.9647 20136 141.901
88.081 17618 132.733
88.1973 16294 127.648
88.3136 15579 124.816
88.4298 16006 126.515
88.546 18174 134.811
88.6621 20509 143.21
88.7781 22405 149.683
88.8942 0 1
89.0101 0 1
89.126 0 1
89.2419 0 1
89.3577 0 1
89.4734 0 1
89.5891 0 1
89.7047 0 1
89.8203 0 1
89.9358 0 1
92.3269 0 1
92.4424 0 1
92.558 0 1
92.6736 0 1
92.7893 0 1
92.905 0 1
93.0208 0 1
93.1366 0 1
93.2525 0 1
93.3685 0 1
93.4845 0 1
93.6005 22615 150.383
93.7167 24690 157.131
93.8328 27481 165.774
93.949 32238 179.549
94.0653 37234 192.961
94.1816 42186 205.392
94.2979 46278 215.123
94.4143 49801 223.161
94.5307 52892 229.983
94.6472 55040 234.606
94.7637 56067 236.785
94.8803 56673 238.061
94.9969 55915 236.464
95.1135 55231 235.013
95.2302 56050 236.749
95.3469 57342 239.462
95.4637 57736 240.283
95.5805 57431 239.648
95.6973 56667 238.048
95.8142 56104 236.863
95.9311 54918 234.346
96.048 53630 231.582
96.1649 52757 229.689
96.2819 51267 226.422
96.3989 50627 225.004
96.516 49426 222.32
96.633 47570 218.105
96.7501 44288 210.447
96.8673 40931 202.314
96.9844 38061 195.092
97.1016 35632 188.764
97.2188 33852 183.989
97.336 33165 182.113
97.4532 34207 184.951
97.5704 38031 195.015
97.6877 43367 208.247
97.805 48915 221.167
97.9223 55089 234.71
98.0396 62057 249.112
98.1569 64894 254.743
98.2743 67743 260.275
98.3916 69930 264.443
98.509 70073 264.713
98.6264 68543 261.807
98.7438 68037 260.839
98.8612 67104 259.044
98.9786 67638 260.073
99.096 67743 260.275
99.2134 67171 259.174
99.3308 65194 255.331
99.4482 63057 251.112
99.5656 60704 246.382
99.6831 59310 243.536
99.8005 57672 240.15
99.9179 56532 237.765
100.035 56952 238.646
100.153 54952 234.418
100.27 51573 227.097
100.388 45835 214.091
100.505 40943 202.344
100.622 37238 192.972
100.74 35474 188.345
100.857 34569 185.927
100.975 35073 187.278
101.092 36943 192.206
101.209 41878 204.641
101.327 48649 220.565
101.444 56136 236.93
101.561 62655 250.31
101.679 67143 259.12
101.796 69724 264.053
101.913 70876 266.225
102.03 69855 264.301
102.148 68537 261.796
102.265 67450 259.711
102.382 64457 253.884
102.499 64664 254.291
102.616 64581 254.128
102.733 63596 252.182
102.851 62538 250.076
102.968 61483 247.958
103.085 59506 243.939
103.202 58195 241.236
103.319 57089 238.933
103.436 55953 236.544
103.552 55241 235.034
103.669 54897 234.301
103.786 53351 230.978
103.903 48447 220.107
104.02 42949 207.241
104.137 38082 195.146
104.253 34885 186.775
104.37 32045 179.011
104.487 31922 178.667
104.603 32288 179.689
104.72 35223 187.678
104.836 37667 194.08
104.953 41548 203.833
105.069 43106 207.62
105.186 43586 208.773
105.302 43325 208.147
105.418 41794 204.436
105.535 38860 197.129
105.651 36071 189.924
105.767 32497 180.269
105.883 29319 171.228
105.999 27032 164.414
106.115 0 1
106.231 0 1
106.347 0 1
106.463 0 1
106.579 0 1
106.694 0 1
106.81 0 1
106.926 0 1
107.041 0 1
107.157 0 1
109.576 0 1
109.692 0 1
109.807 0 1
109.923 0 1
110.039 0 1
110.155 0 1
110.27 0 1
110.386 0 1
110.502 0 1
110.618 31990 178.857
110.735 34570 185.93
110.851 36402 190.793
110.967 38672 196.652
111.083 42351 205.794
111.199 45737 213.862
111.316 48845 221.009
111.432 51153 226.17
111.549 52589 229.323
111.665 53578 231.469
111.782 53730 231.797
111.898 53577 231.467
112.015 53204 230.66
112.132 53550 231.409
112.248 53488 231.275
112.365 54101 232.596
112.482 51545 227.035
112.599 45737 213.862
112.716 40396 200.988
112.832 35729 189.021
112.949 32665 180.735
113.066 31583 177.716
113.183 31815 178.368
113.3 33241 182.321
113.417 36152 190.137
113.534 42807 206.899
113.652 49055 221.484
113.769 53551 231.411
113.886 56074 236.799
114.003 57064 238.881
114.12 56950 238.642
114.238 55045 234.617
114.355 53123 230.484
114.472 52009 228.055
114.589 52220 228.517
114.707 53599 231.515
114.824 55132 234.802
114.942 55936 236.508
115.059 55927 236.489
115.176 56683 238.082
115.294 55266 235.087
115.411 54416 233.272
115.529 53960 232.293
115.646 53115 230.467
115.764 52087 228.226
115.881 52259 228.602
115.999 51834 227.671
116.116 48928 221.197
116.234 44434 210.794
116.351 39227 198.058
116.469 35430 188.229
116.586 32848 181.24
116.704 31954 178.757
116.821 32416 180.044
116.939 33165 182.113
117.056 37476 193.587
117.174 43434 208.408
117.291 48797 220.9
117.409 51831 227.664
117.526 53558 231.426
117.644 54127 232.652
117.761 53868 232.095
117.879 52412 228.937
117.996 50182 224.013
118.114 49645 222.812
118.231 50057 223.734
118.349 51601 227.159
118.466 52838 229.865
118.584 53045 230.315
118.701 53547 231.402
118.819 53117 230.471
118.936 51844 227.693
119.053 50936 225.69
119.171 49953 223.502
119.288 49313 222.065
119.405 48981 221.317
119.523 48804 220.916
119.64 48559 220.361
119.757 46901 216.566
119.875 43415 208.363
119.992 38574 196.403
120.109 35077 187.289
120.226 32679 180.773
120.343 31604 177.775
120.46 31586 177.725
120.578 32039 178.994
120.695 33542 183.145
120.812 37382 193.344
120.929 41806 204.465
121.046 44636 211.272
121.163 46178 214.891
121.279 46567 215.794
121.396 45940 214.336
121.513 45046 212.24
121.63 42850 207.002
121.747 40884 202.198
121.863 40243 200.607
121.98 40675 201.68
122.097 40502 201.251
122.213 39629 199.07
122.33 38841 197.081
122.446 37684 194.124
122.563 35529 188.491
122.679 33708 183.597
122.795 31183 176.587
122.912 29483 171.706
123.028 27226 165.003
123.144 25748 160.462
123.26 23312 152.683
123.377 0 1
123.493 0 1
123.609 0 1
123.725 0 1
123.84 0 1
123.956 0 1
124.072 0 1
124.188 0 1
124.303 0 1
124.419 0 1
126.852 0 1
126.968 0 1
127.083 0 1
127.199 0 1
127.315 0 1
127.431 0 1
127.547 0 1
127.663 0 1
127.779 0 1
127.895 0 1
128.011 0 1
128.127 0 1
128.243 0 1
128.359 46901 216.566
128.476 47034 216.873
128.592 48740 220.771
128.708 49835 223.238
128.825 49349 222.146
128.941 47755 218.529
129.058 44889 211.87
129.174 41654 204.093
129.291 39633 199.08
129.408 38192 195.428
129.524 37856 194.566
129.641 37429 193.466
129.758 38088 195.161
129.875 41507 203.733
129.992 45119 212.412
130.108 48010 219.112
130.225 51007 225.847
130.342 52915 230.033
130.459 52159 228.383
130.576 52903 230.007
130.693 50340 224.366
130.81 49839 223.247
130.928 50236 224.134
131.045 51353 226.612
131.162 52483 229.092
131.279 53466 231.227
131.396 53258 230.777
131.513 53168 230.582
131.631 52063 228.173
131.748 51490 226.914
131.865 49954 223.504
131.983 49364 222.18
132.1 48661 220.592
132.217 48838 220.993
132.335 48394 219.986
132.452 47569 218.103
132.57 45149 212.483
132.687 41272 203.155
132.804 40529 201.318
132.922 38106 195.208
133.039 38192 195.428
133.157 37334 193.22
133.274 36496 191.039
133.392 37305 193.145
133.509 40428 201.067
133.627 43474 208.504
133.744 46002 214.481
133.862 49235 221.89
133.979 49428 222.324
134.097 50187 224.025
134.214 49393 222.245
134.332 48133 219.392
134.449 48002 219.094
134.567 49175 221.754
134.684 50457 224.626
134.802 50978 225.783
134.919 51380 226.672
135.037 51606 227.17
135.154 50735 225.244
135.272 50100 223.83
135.389 49578 222.661
135.507 48568 220.381
135.624 48012 219.116
135.742 47870 218.792
135.859 48035 219.169
135.977 47161 217.166
136.094 47145 217.129
136.211 44937 211.983
136.329 43016 207.403
136.446 41485 203.679
136.564 40196 200.489
136.681 39011 197.512
136.798 38562 196.372
136.915 37638 194.005
137.033 37883 194.636
137.15 39805 199.512
137.267 41319 203.271
137.384 43851 209.406
137.502 45832 214.084
137.619 46931 216.636
137.736 47850 218.746
137.853 46029 214.544
137.97 46216 214.979
138.087 45283 212.798
138.204 46527 215.701
138.321 47177 217.203
138.438 46882 216.523
138.555 46589 215.845
138.672 45525 213.366
138.788 44105 210.012
138.905 42642 206.499
139.022 41642 204.064
139.139 39501 198.749
139.255 37225 192.938
139.372 35898 189.468
139.488 34703 186.287
139.605 32981 181.607
139.721 31184 176.59
139.838 29203 170.889
139.954 27020 164.378
140.071 24500 156.525
140.187 22371 149.569
140.303 20462 143.045
140.419 18348 135.455
140.535 17084 130.706
140.652 15490 124.459
140.768 0 1
140.884 0 1
141 0 1
141.115 0 1
141.231 0 1
141.347 0 1
141.463 0 1
141.578 0 1
141.694 0 1
144.104 0 1
144.219 0 1
144.335 0 1
144.45 0 1
144.566 0 1
144.682 0 1
144.798 0 1
144.914 0 1
145.03 0 1
145.146 30690 175.186
145.262 31702 178.051
145.378 31805 178.34
145.494 31539 177.592
145.61 31148 176.488
145.726 31083 176.304
145.842 30914 175.824
145.959 31282 176.867
146.075 31544 177.606
146.192 32712 180.865
146.308 33400 182.757
146.425 34681 186.228
146.541 34869 186.732
146.658 34492 185.72
146.774 34280 185.149
146.891 34489 185.712
147.008 36244 190.379
147.125 36561 191.209
147.241 37254 193.013
147.358 37332 193.215
147.475 37465 193.559
147.592 37551 193.781
147.709 36907 192.112
147.826 36509 191.073
147.943 35940 189.578
148.06 35305 187.896
148.177 34898 186.81
148.294 34928 186.89
148.411 35565 188.587
148.528 36033 189.824
148.645 35991 189.713
148.762 35764 189.114
148.88 35576 188.616
148.997 35816 189.251
149.114 34573 185.938
149.231 34403 185.48
149.349 34007 184.41
149.466 32677 180.768
149.583 32600 180.555
149.701 32428 180.078
149.818 32517 180.325
149.935 33034 181.753
150.053 34078 184.602
150.17 34787 186.513
150.287 34785 186.507
150.405 34056 184.543
150.522 34507 185.761
150.64 34957 186.968
150.757 35990 189.71
150.875 36967 192.268
150.992 37485 193.61
151.11 37888 194.648
151.227 37329 193.207
151.344 36840 191.937
151.462 36386 190.751
151.579 34995 187.07
151.697 34982 187.035
151.814 34431 185.556
151.932 34277 185.14
152.049 34656 186.161
152.167 35011 187.112
152.284 35040 187.19
152.402 35269 187.8
152.519 35221 187.673
152.636 35176 187.553
152.754 34762 186.446
152.871 34266 185.111
152.989 33424 182.822
153.106 32946 181.51
153.223 32115 179.207
153.341 31623 177.829
153.458 32223 179.508
153.575 32690 180.804
153.693 32747 180.961
153.81 33380 182.702
153.927 33328 182.56
154.044 32629 180.635
154.162 32478 180.217
154.279 33813 183.883
154.396 34670 186.199
154.513 35260 187.776
154.63 35864 189.378
154.747 35687 188.91
154.864 35256 187.766
154.981 34231 185.016
155.098 33546 183.156
155.215 33153 182.08
155.332 32453 180.147
155.449 32459 180.164
155.566 32503 180.286
155.683 31893 178.586
155.8 32009 178.911
155.917 31635 177.862
156.033 30845 175.627
156.15 0 1
156.267 0 1
156.383 0 1
156.5 0 1
156.617 0 1
156.733 0 1
156.85 0 1
156.966 0 1
157.082 0 1
157.199 0 1
157.315 0 1
157.431 0 1
157.547 0 1
157.664 0 1
157.78 0 1
157.896 0 1
158.012 0 1
158.128 0 1
158.244 0 1
158.359 0 1
158.475 0 1
158.591 0 1
158.706 0 1
