
6.15755 0 1
6.2731 0 1
6.3887 0 1
6.50437 0 1
6.62009 0 1
6.73587 0 1
6.8517 0 1
6.96759 0 1
7.08353 0 1
7.19952 0 1
7.31557 0 1
7.43166 0 1
7.54781 0 1
7.664 0 1
7.78024 0 1
7.89653 0 1
8.01286 0 1
8.12924 0 1
8.24567 0 1
8.36213 0 1
8.47864 0 1
8.59519 0 1
8.71178 0 1
8.82841 0 1
8.94508 0 1
9.06179 0 1
9.17853 0 1
9.29531 0 1
9.41212 0 1
9.52897 0 1
9.64584 0 1
9.76276 0 1
9.8797 0 1
9.99667 0 1
10.1137 0 1
10.2307 0 1
10.3478 0 1
10.4648 0 1
10.5819 0 1
10.6991 0 1
10.8162 0 1
10.9334 0 1
11.0506 0 1
11.1678 0 1
11.285 0 1
11.4023 0 1
11.5196 0 1
11.6369 0 1
11.7542 0 1
11.8715 0 1
11.9888 0 1
12.1062 0 1
12.2235 0 1
12.3409 0 1
12.4582 0 1
12.5756 0 1
12.693 0 1
12.8104 0 1
12.9278 0 1
13.0452 0 1
13.1626 0 1
13.28 0 1
13.3974 0 1
13.5149 0 1
13.6323 0 1
13.7497 0 1
13.8671 0 1
13.9845 0 1
14.1019 0 1
14.2193 0 1
14.3367 0 1
14.4541 0 1
14.5714 0 1
14.6888 0 1
14.8062 0 1
14.9235 0 1
15.0408 0 0
15.1581 0 0
15.2755 0 0
15.3927 0 0
15.51 0 0
15.6273 0 0
15.7445 0 0
15.8617 0 0
15.9789 0 0
16.0961 0 0
16.2132 0 0
16.3304 0 0
16.4475 0 0
16.5646 0 0
16.6816 0 0
16.7986 0 0
16.9156 0 0
17.0326 0 0
17.1496 0 0
17.2665 0 0
17.3833 0 0
17.5002 0 0
17.617 0 0
17.7338 0 0
17.8505 0 0
17.9672 0 0
18.0839 0 0
18.2005 0 0
18.3171 0 0
18.4337 0 0
18.5502 0 0
18.6666 0 0
18.7831 0 0
18.8994 0 0
19.0158 0 0
19.1321 0 0
19.2483 0 0
19.3645 0 0
19.4806 0 0
19.5967 0 0
19.7128 0 0
19.8288 0 0
19.9447 0 0
20.0606 0 1
20.1764 0 1
20.2922 0 1
20.4079 0 1
20.5236 0 1
20.6392 0 1
20.7548 0 1
20.8702 0 1
23.3078 0 1
23.4233 0 1
23.539 0 1
23.6547 0 1
23.7704 0 1
23.8862 0 1
24.0021 0 1
24.118 0 1
24.234 0 1
24.35 0 1
24.4661 1599 39.9875
24.5822 1457 38.1707
24.6984 1525 39.0512
24.8146 1424 37.7359
24.9309 1377 37.108
25.0472 1392 37.3095
25.1636 1460 38.2099
25.28 1514 38.9102
25.3965 1619 40.2368
25.513 1553 39.4081
25.6296 1678 40.9634
25.7462 1752 41.8569
25.8628 1753 41.8688
25.9795 1849 43
26.0962 1785 42.2493
26.213 1783 42.2256
26.3298 1689 41.0974
26.4466 1730 41.5933
26.5635 1668 40.8412
26.6804 1643 40.5339
26.7973 1605 40.0625
26.9143 1726 41.5452
27.0313 1698 41.2068
27.1483 1788 42.2847
27.2653 1715 41.4126
27.3824 1766 42.0238
27.4996 1763 41.9881
27.6167 1728 41.5692
27.7339 1694 41.1582
27.8511 1658 40.7185
27.9683 1697 41.1947
28.0855 1607 40.0874
28.2028 1523 39.0256
28.3201 1486 38.5487
28.4374 1359 36.8646
28.5547 1317 36.2905
28.6721 1301 36.0694
28.7894 1406 37.4967
28.9068 1453 38.1182
29.0242 1566 39.5727
29.1416 1587 39.8372
29.259 1669 40.8534
29.3764 1649 40.6079
29.4939 1670 40.8656
29.6113 1647 40.5832
29.7288 1687 41.0731
29.8463 1712 41.3763
29.9638 1680 40.9878
30.0812 1612 40.1497
30.1987 1567 39.5854
30.3162 1552 39.3954
30.4337 1574 39.6737
30.5512 1584 39.7995
30.6687 1617 40.2119
30.7862 1698 41.2068
30.9037 1708 41.328
31.0212 1745 41.7732
31.1387 1793 42.3438
31.2562 1773 42.107
31.3737 1723 41.509
31.4912 1683 41.0244
31.6087 1624 40.2989
31.7262 1553 39.4081
31.8436 1480 38.4708
31.9611 1399 37.4032
32.0785 1357 36.8375
32.1959 1359 36.8646
32.3134 1424 37.7359
32.4308 1527 39.0768
32.5482 1557 39.4588
32.6655 1608 40.0999
32.7829 1724 41.5211
32.9002 1769 42.0595
33.0176 1748 41.8091
33.1349 1726 41.5452
33.2522 1668 40.8412
33.3694 1689 41.0974
33.4867 1654 40.6694
33.6039 1778 42.1663
33.7211 1667 40.8289
33.8383 1579 39.7366
33.9554 1563 39.5348
34.0725 1599 39.9875
34.1896 1775 42.1307
34.3067 1775 42.1307
34.4237 1785 42.2493
34.5407 1757 41.9166
34.6577 1680 40.9878
34.7746 1680 40.9878
34.8915 1651 40.6325
35.0084 1781 42.2019
35.1252 1694 41.1582
35.242 1716 41.4246
35.3587 1676 40.939
35.4755 1541 39.2556
35.5921 1471 38.3536
35.7088 1338 36.5787
35.8254 1267 35.5949
35.9419 1327 36.428
36.0584 1365 36.9459
36.1749 1501 38.7427
36.2913 1619 40.2368
36.4077 1639 40.4846
36.524 1675 40.9268
36.6403 1727 41.5572
36.7565 1764 42
36.8727 1758 41.9285
36.9889 1737 41.6773
37.1049 1691 41.1218
37.221 0 1
37.3369 0 1
37.4529 0 1
37.5687 0 1
37.6845 0 1
37.8003 0 1
37.916 0 1
38.0316 0 1
38.1472 0 1
40.5851 0 1
40.7008 0 1
40.8164 0 1
40.9322 0 1
41.048 0 1
41.1639 0 1
41.2798 0 1
41.3958 0 1
41.5118 0 1
41.6279 0 1
41.744 1519 38.9744
41.8602 1440 37.9473
41.9765 1520 38.9872
42.0928 1522 39.0128
42.2091 1632 40.398
42.3255 1564 39.5474
42.4419 1555 39.4335
42.5584 1499 38.7169
42.675 1445 38.0132
42.7915 1433 37.855
42.9081 1425 37.7492
43.0248 1493 38.6394
43.1415 1577 39.7115
43.2582 1569 39.6106
43.375 1605 40.0625
43.4918 1583 39.7869
43.6087 1550 39.37
43.7256 1540 39.2428
43.8425 1588 39.8497
43.9595 1455 38.1445
44.0765 1528 39.0896
44.1935 1372 37.0405
44.3106 1239 35.1994
44.4277 1182 34.3802
44.5448 1096 33.1059
44.6619 993 31.5119
44.7791 1064 32.619
44.8963 1128 33.5857
45.0136 1265 35.5668
45.1308 1330 36.4692
45.2481 1429 37.8021
45.3654 1359 36.8646
45.4827 1387 37.2424
45.6001 1449 38.0657
45.7174 1375 37.081
45.8348 1371 37.027
45.9522 1352 36.7696
46.0697 1342 36.6333
46.1871 1265 35.5668
46.3046 1186 34.4384
46.422 1197 34.5977
46.5395 1284 35.8329
46.657 1269 35.623
46.7745 1290 35.9166
46.892 1313 36.2353
47.0096 1329 36.4555
47.1271 1219 34.9142
47.2446 1219 34.9142
47.3622 1242 35.242
47.4797 1174 34.2637
47.5973 1238 35.1852
47.7149 1158 34.0294
47.8324 1080 32.8634
47.95 1047 32.3574
48.0675 884 29.7321
48.1851 797 28.2312
48.3027 839 28.9655
48.4202 971 31.1609
48.5378 1007 31.7333
48.6554 1072 32.7414
48.7729 1144 33.8231
48.8904 1208 34.7563
49.008 1198 34.6121
49.1255 1235 35.1426
49.243 1168 34.176
49.3605 1267 35.5949
49.478 1220 34.9285
49.5955 1175 34.2783
49.713 1216 34.8712
49.8304 1215 34.8569
49.9479 1227 35.0286
50.0653 1194 34.5543
50.1827 1299 36.0416
50.3001 1331 36.4829
50.4175 1384 37.2022
50.5348 1405 37.4833
50.6521 1521 39
50.7694 1474 38.3927
50.8867 1469 38.3275
51.004 1498 38.704
51.1212 1511 38.8716
51.2384 1519 38.9744
51.3556 1475 38.4057
51.4727 1383 37.1887
51.5899 1234 35.1283
51.707 1158 34.0294
51.824 1190 34.4964
51.9411 1338 36.5787
52.0581 1497 38.6911
52.175 1687 41.0731
52.2919 1811 42.5558
52.4088 1854 43.0581
52.5257 1890 43.4741
52.6425 1853 43.0465
52.7593 1899 43.5775
52.876 1891 43.4856
52.9927 1928 43.909
53.1094 1988 44.587
53.226 2007 44.7996
53.3426 1963 44.3058
53.4591 1938 44.0227
53.5756 1982 44.5197
53.692 1973 44.4185
53.8084 2059 45.3762
53.9248 2065 45.4423
54.0411 2253 47.4658
54.1573 2228 47.2017
54.2735 0 1
54.3896 0 1
54.5057 0 1
54.6217 0 1
54.7377 0 1
54.8537 0 1
54.9695 0 1
55.0853 0 1
55.2011 0 1
55.3168 0 1
55.4324 0 1
57.824 0 1
57.9396 0 1
58.0553 0 1
58.1711 0 1
58.2869 0 1
58.4028 0 1
58.5187 0 1
58.6347 0 1
58.7508 0 1
58.8669 0 1
58.983 2833 53.2259
59.0992 3008 54.8452
59.2155 3042 55.1543
59.3318 3047 55.1996
59.4482 3179 56.3826
59.5646 3116 55.8211
59.681 3057 55.2901
59.7975 2962 54.4243
59.9141 3000 54.7723
60.0306 2777 52.6972
60.1473 2567 50.6656
60.2639 2220 47.1169
60.3807 2202 46.9255
60.4974 2218 47.0956
60.6142 2466 49.6588
60.731 2561 50.6063
60.8479 2840 53.2917
60.9648 2936 54.1849
61.0818 3179 56.3826
61.1987 3162 56.2317
61.3158 3253 57.0351
61.4328 3133 55.9732
61.5499 3253 57.0351
61.667 3165 56.2583
61.7841 3147 56.0981
61.9013 3169 56.2939
62.0185 3084 55.5338
62.1357 3057 55.2901
62.253 3088 55.5698
62.3702 3095 55.6327
62.4875 3155 56.1694
62.6049 3214 56.6922
62.7222 3320 57.6194
62.8396 3309 57.5239
62.9569 3369 58.0431
63.0743 3291 57.3672
63.1918 3308 57.5152
63.3092 3184 56.4269
63.4267 3082 55.5158
63.5441 2881 53.6749
63.6616 2695 51.9134
63.7791 2452 49.5177
63.8966 2293 47.8853
64.0142 2289 47.8435
64.1317 2416 49.1528
64.2492 2735 52.2972
64.3668 3089 55.5788
64.4843 3237 56.8946
64.6019 3313 57.5587
64.7195 3542 59.5147
64.837 3444 58.6856
64.9546 3564 59.6992
65.0722 3474 58.9406
65.1898 3398 58.2924
65.3074 3482 59.0085
65.4249 3309 57.5239
65.5425 3435 58.6089
65.6601 3295 57.4021
65.7777 3468 58.8897
65.8952 3348 57.8619
66.0128 3498 59.1439
66.1304 3523 59.3549
66.2479 3554 59.6154
66.3655 3531 59.4222
66.483 3591 59.925
66.6005 3630 60.2495
66.718 3629 60.2412
66.8355 3576 59.7997
66.953 3415 58.438
67.0705 3310 57.5326
67.1879 3217 56.7186
67.3054 2835 53.2447
67.4228 2496 49.96
67.5402 2474 49.7393
67.6576 2512 50.1199
67.7749 2778 52.7067
67.8923 3206 56.6216
68.0096 3455 58.7792
68.1269 3766 61.3677
68.2442 3918 62.5939
68.3614 3857 62.1048
68.4787 3883 62.3137
68.5958 3852 62.0645
68.713 3869 62.2013
68.8302 3882 62.3057
68.9473 3911 62.538
69.0643 4009 63.3167
69.1814 3922 62.6259
69.2984 3902 62.466
69.4154 3748 61.2209
69.5323 3919 62.6019
69.6492 4106 64.0781
69.7661 4048 63.6239
69.8829 4166 64.5446
69.9997 4153 64.4438
70.1165 4344 65.909
70.2332 4265 65.307
70.3499 4292 65.5134
70.4665 4040 63.561
70.5831 4008 63.3088
70.6996 3834 61.9193
70.8161 3640 60.3324
70.9326 3494 59.1101
71.049 3087 55.5608
71.1653 2856 53.4416
71.2817 2625 51.2348
71.3979 2830 53.1977
71.5141 3008 54.8452
71.6303 3416 58.4466
71.7464 3453 58.7622
71.8624 0 1
71.9784 0 1
72.0944 0 1
72.2102 0 1
72.3261 0 1
72.4418 0 1
72.5575 0 1
72.6732 0 1
75.1054 0 1
75.2209 0 1
75.3365 0 1
75.4521 0 1
75.5678 0 1
75.6835 0 1
75.7993 0 1
75.9151 0 1
76.031 0 1
76.147 3511 59.2537
76.263 3599 59.9917
76.3791 3340 57.7927
76.4952 2889 53.7494
76.6113 2885 53.7122
76.7276 2999 54.7631
76.8438 3404 58.3438
76.9601 3892 62.3859
77.0765 4353 65.9773
77.1929 4375 66.1438
77.3093 4526 67.2756
77.4258 4515 67.1937
77.5423 4611 67.9043
77.6589 4651 68.1982
77.7755 4450 66.7083
77.8921 4492 67.0224
78.0088 4645 68.1542
78.1256 4451 66.7158
78.2423 4493 67.0298
78.3591 4559 67.5204
78.4759 4409 66.4003
78.5928 4399 66.325
78.7097 4426 66.5282
78.8266 4768 69.0507
78.9436 4231 65.0461
79.0606 4497 67.0597
79.1776 4492 67.0224
79.2946 4531 67.3127
79.4117 4470 66.8581
79.5288 4466 66.8281
79.6459 4152 64.436
79.7631 3990 63.1664
79.8802 3870 62.2093
79.9974 3497 59.1354
80.1147 3096 55.6417
80.2319 2825 53.1507
80.3491 3029 55.0364
80.4664 3305 57.4891
80.5837 3817 61.7819
80.701 4151 64.4283
80.8183 4457 66.7608
80.9357 4399 66.325
81.053 4447 66.6858
81.1704 4480 66.9328
81.2877 4498 67.0671
81.4051 4495 67.0448
81.5225 4549 67.4463
81.6399 4293 65.521
81.7573 4403 66.3551
81.8747 4180 64.6529
81.9922 4272 65.3605
82.1096 4224 64.9923
82.227 4293 65.521
82.3444 4206 64.8537
82.4619 4267 65.3223
82.5793 4123 64.2106
82.6967 4369 66.0984
82.8142 4275 65.3835
82.9316 4359 66.0227
83.049 4345 65.9166
83.1664 4100 64.0312
83.2838 3930 62.6897
83.4012 3733 61.0983
83.5186 3453 58.7622
83.636 3290 57.3585
83.7534 2941 54.231
83.8708 2695 51.9134
83.9881 2704 52
84.1055 2963 54.4334
84.2228 3352 57.8965
84.3401 3836 61.9355
84.4575 4142 64.3584
84.5747 4185 64.6916
84.692 4326 65.7723
84.8093 4237 65.0922
84.9265 4253 65.215
85.0437 4373 66.1287
85.1609 4283 65.4446
85.2781 4395 66.2948
85.3952 4318 65.7115
85.5123 4222 64.9769
85.6294 4313 65.6734
85.7465 4318 65.7115
85.8636 4261 65.2763
85.9806 4473 66.8805
86.0976 4439 66.6258
86.2145 4462 66.7982
86.3315 4262 65.284
86.4484 4782 69.152
86.5652 4683 68.4324
86.682 4714 68.6586
86.7988 4594 67.7791
86.9156 4429 66.5507
87.0323 4195 64.7688
87.149 3961 62.9365
87.2657 3618 60.1498
87.3823 3301 57.4543
87.4988 3194 56.5155
87.6154 3285 57.3149
87.7318 3907 62.506
87.8483 4259 65.261
87.9647 4634 68.0735
88.081 4835 69.5342
88.1973 5018 70.8378
88.3136 4959 70.4202
88.4298 4993 70.6612
88.546 5033 70.9436
88.6621 4944 70.3136
88.7781 4958 70.4131
88.8942 0 1
89.0101 0 1
89.126 0 1
89.2419 0 1
89.3577 0 1
89.4734 0 1
89.5891 0 1
89.7047 0 1
89.8203 0 1
89.9358 0 1
92.3269 0 1
92.4424 0 1
92.558 0 1
92.6736 0 1
92.7893 0 1
92.905 0 1
93.0208 0 1
93.1366 0 1
93.2525 0 1
93.3685 0 1
93.4845 0 1
93.6005 4833 69.5198
93.7167 5014 70.8096
93.8328 4944 70.3136
93.949 5128 71.6101
94.0653 4920 70.1427
94.1816 4858 69.6994
94.2979 5037 70.9718
94.4143 4910 70.0714
94.5307 4944 70.3136
94.6472 4943 70.3065
94.7637 4890 69.9285
94.8803 4847 69.6204
94.9969 4940 70.2851
95.1135 4980 70.5691
95.2302 4876 69.8284
95.3469 4886 69.8999
95.4637 4935 70.2496
95.5805 5099 71.4073
95.6973 5109 71.4773
95.8142 5062 71.1477
95.9311 5107 71.4633
96.048 4863 69.7352
96.1649 4472 66.873
96.2819 4345 65.9166
96.3989 3964 62.9603
96.516 3589 59.9083
96.633 3357 57.9396
96.7501 3552 59.5987
96.8673 3776 61.4492
96.9844 4281 65.4294
97.1016 4721 68.7095
97.2188 4908 70.0571
97.336 5176 71.9444
97.4532 5116 71.5262
97.5704 5266 72.5672
97.6877 5262 72.5396
97.805 5227 72.298
97.9223 5110 71.4843
98.0396 5079 71.2671
98.1569 5080 71.2741
98.2743 5155 71.7983
98.3916 5148 71.7496
98.509 5166 71.8749
98.6264 5006 70.7531
98.7438 5247 72.4362
98.8612 5168 71.8888
98.9786 5278 72.6498
99.096 5184 72
99.2134 5471 73.9662
99.3308 5282 72.6774
99.4482 5360 73.212
99.5656 5277 72.643
99.6831 5058 71.1196
99.8005 4836 69.5414
99.9179 4542 67.3944
100.035 4203 64.8305
100.153 3990 63.1664
100.27 3653 60.4401
100.388 3924 62.6418
100.505 4461 66.7907
100.622 4824 69.455
100.74 5222 72.2634
100.857 5183 71.9931
100.975 5511 74.2361
101.092 5500 74.162
101.209 5454 73.8512
101.327 5533 74.3841
101.444 5504 74.1889
101.561 5570 74.6324
101.679 5597 74.8131
101.796 5410 73.5527
101.913 5458 73.8783
102.03 5431 73.6953
102.148 5492 74.108
102.265 5628 75.02
102.382 5248 72.4431
102.499 5645 75.1332
102.616 5497 74.1418
102.733 5528 74.3505
102.851 5717 75.6108
102.968 5707 75.5447
103.085 5764 75.921
103.202 5587 74.7462
103.319 5412 73.5663
103.436 5103 71.4353
103.552 4505 67.1193
103.669 3985 63.1269
103.786 3875 62.2495
103.903 4156 64.467
104.02 4541 67.3869
104.137 5182 71.9861
104.253 5803 76.1774
104.37 5651 75.1731
104.487 5931 77.013
104.603 5989 77.3886
104.72 5816 76.2627
104.836 5923 76.961
104.953 6156 78.4602
105.069 6038 77.7046
105.186 6074 77.9359
105.302 6095 78.0705
105.418 6097 78.0833
105.535 6065 77.8781
105.651 5980 77.3305
105.767 5968 77.2528
105.883 5922 76.9545
105.999 5838 76.4068
106.115 0 1
106.231 0 1
106.347 0 1
106.463 0 1
106.579 0 1
106.694 0 1
106.81 0 1
106.926 0 1
107.041 0 1
107.157 0 1
109.576 0 1
109.692 0 1
109.807 0 1
109.923 0 1
110.039 0 1
110.155 0 1
110.27 0 1
110.386 0 1
110.502 0 1
110.618 5572 74.6458
110.735 5722 75.6439
110.851 5778 76.0132
110.967 5746 75.8024
111.083 5691 75.4387
111.199 5730 75.6968
111.316 5769 75.9539
111.432 5875 76.6485
111.549 5593 74.7864
111.665 5675 75.3326
111.782 5315 72.904
111.898 4976 70.5408
112.015 4508 67.1416
112.132 4091 63.9609
112.248 3671 60.5888
112.365 3929 62.6817
112.482 4273 65.3682
112.599 4598 67.8086
112.716 5092 71.3583
112.832 5346 73.1163
112.949 5383 73.3689
113.066 5459 73.885
113.183 5338 73.0616
113.3 5288 72.7186
113.417 5197 72.0902
113.534 5253 72.4776
113.652 5114 71.5122
113.769 5303 72.8217
113.886 5226 72.2911
114.003 5209 72.1734
114.12 5037 70.9718
114.238 5019 70.8449
114.355 4979 70.562
114.472 5001 70.7177
114.589 5058 71.1196
114.707 4974 70.5266
114.824 5031 70.9295
114.942 4981 70.5762
115.059 5121 71.5612
115.176 5069 71.1969
115.294 4849 69.6348
115.411 4656 68.2349
115.529 4330 65.8027
115.646 3916 62.578
115.764 3563 59.6909
115.881 3432 58.5833
115.999 3783 61.5061
116.116 4280 65.4217
116.234 4701 68.5638
116.351 4952 70.3704
116.469 5060 71.1337
116.586 5091 71.3512
116.704 5155 71.7983
116.821 5109 71.4773
116.939 5138 71.6798
117.056 5093 71.3653
117.174 5175 71.9375
117.291 4953 70.3776
117.409 5064 71.1618
117.526 5011 70.7884
117.644 5105 71.4493
117.761 5058 71.1196
117.879 5093 71.3653
117.996 5042 71.007
118.114 5135 71.6589
118.231 5179 71.9653
118.349 5154 71.7914
118.466 5212 72.1942
118.584 5175 71.9375
118.701 5256 72.4983
118.819 5063 71.1548
118.936 4993 70.6612
119.053 4765 69.029
119.171 4418 66.468
119.288 3938 62.7535
119.405 3484 59.0254
119.523 3496 59.127
119.64 3822 61.8223
119.757 4335 65.8407
119.875 4547 67.4314
119.992 5006 70.7531
120.109 5074 71.232
120.226 5079 71.2671
120.343 5011 70.7884
120.46 4933 70.2353
120.578 5071 71.211
120.695 5015 70.8167
120.812 4938 70.2709
120.929 5015 70.8167
121.046 4921 70.1498
121.163 4949 70.3491
121.279 5012 70.7955
121.396 4952 70.3704
121.513 5130 71.624
121.63 4868 69.7711
121.747 4963 70.4486
121.863 5017 70.8308
121.98 5058 71.1196
122.097 4881 69.8642
122.213 5020 70.852
122.33 5100 71.4143
122.446 4892 69.9428
122.563 4850 69.6419
122.679 4806 69.3253
122.795 4649 68.1836
122.912 4185 64.6916
123.028 3912 62.546
123.144 3541 59.5063
123.26 3468 58.8897
123.377 0 1
123.493 0 1
123.609 0 1
123.725 0 1
123.84 0 1
123.956 0 1
124.072 0 1
124.188 0 1
124.303 0 1
124.419 0 1
126.852 0 1
126.968 0 1
127.083 0 1
127.199 0 1
127.315 0 1
127.431 0 1
127.547 0 1
127.663 0 1
127.779 0 1
127.895 0 1
128.011 0 1
128.127 0 1
128.243 0 1
128.359 4038 63.5453
128.476 3934 62.7216
128.592 4159 64.4903
128.708 4811 69.3614
128.825 5089 71.3372
128.941 5445 73.7902
129.058 5598 74.8198
129.174 5589 74.7596
129.291 5611 74.9066
129.408 5637 75.08
129.524 5659 75.2263
129.641 5469 73.9527
129.758 5424 73.6478
129.875 5455 73.858
129.992 5604 74.8599
130.108 5449 73.8173
130.225 5330 73.0068
130.342 5414 73.5799
130.459 5292 72.7461
130.576 5504 74.1889
130.693 5312 72.8835
130.81 5321 72.9452
130.928 5507 74.2092
131.045 5479 74.0203
131.162 5486 74.0675
131.279 5529 74.3572
131.396 5392 73.4302
131.513 5276 72.6361
131.631 4989 70.6329
131.748 4815 69.3902
131.865 4252 65.2074
131.983 4042 63.5767
132.1 3993 63.1902
132.217 4413 66.4304
132.335 4976 70.5408
132.452 5207 72.1595
132.57 5429 73.6817
132.687 5324 72.9657
132.804 5621 74.9733
132.922 5414 73.5799
133.039 5391 73.4234
133.157 5390 73.4166
133.274 5388 73.403
133.392 5433 73.7089
133.509 5194 72.0694
133.627 5367 73.2598
133.744 5440 73.7564
133.862 5264 72.5534
133.979 5359 73.2052
134.097 5223 72.2703
134.214 5149 71.7565
134.332 5088 71.3302
134.449 5273 72.6154
134.567 5189 72.0347
134.684 5292 72.7461
134.802 5226 72.2911
134.919 5156 71.8053
135.037 5319 72.9315
135.154 4962 70.4415
135.272 4783 69.1592
135.389 4453 66.7308
135.507 4040 63.561
135.624 3815 61.7657
135.742 3993 63.1902
135.859 4450 66.7083
135.977 4960 70.4273
136.094 5246 72.4293
136.211 5287 72.7118
136.329 5348 73.13
136.446 5371 73.2871
136.564 5401 73.4915
136.681 5321 72.9452
136.798 5265 72.5603
136.915 5535 74.3976
137.033 5384 73.3757
137.15 5331 73.0137
137.267 4986 70.6116
137.384 5173 71.9236
137.502 5056 71.1056
137.619 5128 71.6101
137.736 5174 71.9305
137.853 5128 71.6101
137.97 4895 69.9643
138.087 5161 71.8401
138.204 5139 71.6868
138.321 5234 72.3464
138.438 5276 72.6361
138.555 5234 72.3464
138.672 5245 72.4224
138.788 5107 71.4633
138.905 4801 69.2892
139.022 4597 67.8012
139.139 4140 64.3428
139.255 3909 62.522
139.372 4143 64.3661
139.488 4427 66.5357
139.605 4893 69.95
139.721 5147 71.7426
139.838 5231 72.3257
139.954 5224 72.2772
140.071 5281 72.6705
140.187 5250 72.4569
140.303 5101 71.4213
140.419 5172 71.9166
140.535 5159 71.8262
140.652 5052 71.0774
140.768 0 1
140.884 0 1
141 0 1
141.115 0 1
141.231 0 1
141.347 0 1
141.463 0 1
141.578 0 1
141.694 0 1
144.104 0 1
144.219 0 1
144.335 0 1
144.45 0 1
144.566 0 1
144.682 0 1
144.798 0 1
144.914 0 1
145.03 0 1
145.146 4515 67.1937
145.262 4618 67.9559
145.378 4436 66.6033
145.494 4469 66.8506
145.61 4597 67.8012
145.726 4585 67.7126
145.842 4343 65.9014
145.959 4356 66
146.075 4413 66.4304
146.192 4330 65.8027
146.308 4328 65.7875
146.425 4301 65.582
146.541 4199 64.7997
146.658 4288 65.4828
146.774 4463 66.8057
146.891 4373 66.1287
147.008 4476 66.9029
147.125 4372 66.1211
147.241 4361 66.0379
147.358 4428 66.5432
147.475 4186 64.6993
147.592 3857 62.1048
147.709 3660 60.4979
147.826 3273 57.2101
147.943 3413 58.4209
148.06 3594 59.95
148.177 3998 63.2297
148.294 4144 64.3739
148.411 4312 65.6658
148.528 4335 65.8407
148.645 4298 65.5591
148.762 4336 65.8483
148.88 4235 65.0769
148.997 4184 64.6838
149.114 4336 65.8483
149.231 4127 64.2417
149.349 4324 65.7571
149.466 4058 63.7024
149.583 4092 63.9687
149.701 3988 63.1506
149.818 3895 62.4099
149.935 3954 62.8808
150.053 3936 62.7375
150.17 3962 62.9444
150.287 4023 63.4271
150.405 4010 63.3246
150.522 4185 64.6916
150.64 4164 64.5291
150.757 4210 64.8845
150.875 4179 64.6452
150.992 4079 63.867
151.11 3925 62.6498
151.227 3786 61.5305
151.344 3393 58.2495
151.462 3056 55.2811
151.579 3183 56.4181
151.697 3593 59.9416
151.814 3901 62.458
151.932 4026 63.4508
152.049 4296 65.5439
152.167 4453 66.7308
152.284 4353 65.9773
152.402 4185 64.6916
152.519 4087 63.9296
152.636 4255 65.2304
152.754 4266 65.3146
152.871 4079 63.867
152.989 4105 64.0703
153.106 4007 63.3009
153.223 3855 62.0886
153.341 3928 62.6738
153.458 3834 61.9193
153.575 3984 63.1189
153.693 3917 62.5859
153.81 3965 62.9682
153.927 4089 63.9453
154.044 4139 64.3351
154.162 4079 63.867
154.279 4297 65.5515
154.396 4208 64.8691
154.513 4295 65.5362
154.63 4211 64.8922
154.747 4082 63.8905
154.864 3968 62.9921
154.981 3711 60.918
155.098 3403 58.3352
155.215 3436 58.6174
155.332 3723 61.0164
155.449 4038 63.5453
155.566 4195 64.7688
155.683 4160 64.4981
155.8 4300 65.5744
155.917 4198 64.792
156.033 4197 64.7843
156.15 0 1
156.267 0 1
156.383 0 1
156.5 0 1
156.617 0 1
156.733 0 1
156.85 0 1
156.966 0 1
157.082 0 1
157.199 0 1
157.315 0 1
157.431 0 1
157.547 0 1
157.664 0 1
157.78 0 1
157.896 0 1
158.012 0 1
158.128 0 1
158.244 0 1
158.359 0 1
158.475 0 1
158.591 0 1
158.706 0 1
