
6.15755 0 1
6.2731 0 1
6.3887 0 1
6.50437 0 1
6.62009 0 1
6.73587 0 1
6.8517 0 1
6.96759 0 1
7.08353 0 1
7.19952 0 1
7.31557 0 1
7.43166 0 1
7.54781 0 1
7.664 0 1
7.78024 0 1
7.89653 0 1
8.01286 0 1
8.12924 0 1
8.24567 0 1
8.36213 0 1
8.47864 0 1
8.59519 0 1
8.71178 0 1
8.82841 0 1
8.94508 0 1
9.06179 0 1
9.17853 0 1
9.29531 0 1
9.41212 0 1
9.52897 0 1
9.64584 0 1
9.76276 0 1
9.8797 0 1
9.99667 0 1
10.1137 0 1
10.2307 0 1
10.3478 0 1
10.4648 0 1
10.5819 0 1
10.6991 0 1
10.8162 0 1
10.9334 0 1
11.0506 0 1
11.1678 0 1
11.285 0 1
11.4023 0 1
11.5196 0 1
11.6369 0 1
11.7542 0 1
11.8715 0 1
11.9888 0 1
12.1062 0 1
12.2235 0 1
12.3409 0 1
12.4582 0 1
12.5756 0 1
12.693 0 1
12.8104 0 1
12.9278 0 1
13.0452 0 1
13.1626 0 1
13.28 0 1
13.3974 0 1
13.5149 0 1
13.6323 0 1
13.7497 0 1
13.8671 0 1
13.9845 0 1
14.1019 0 1
14.2193 0 1
14.3367 0 1
14.4541 0 1
14.5714 0 1
14.6888 0 1
14.8062 0 1
14.9235 0 1
15.0408 0 0
15.1581 0 0
15.2755 0 0
15.3927 0 0
15.51 0 0
15.6273 0 0
15.7445 0 0
15.8617 0 0
15.9789 0 0
16.0961 0 0
16.2132 0 0
16.3304 0 0
16.4475 0 0
16.5646 0 0
16.6816 0 0
16.7986 0 0
16.9156 0 0
17.0326 0 0
17.1496 0 0
17.2665 0 0
17.3833 0 0
17.5002 0 0
17.617 0 0
17.7338 0 0
17.8505 0 0
17.9672 0 0
18.0839 0 0
18.2005 0 0
18.3171 0 0
18.4337 0 0
18.5502 0 0
18.6666 0 0
18.7831 0 0
18.8994 0 0
19.0158 0 0
19.1321 0 0
19.2483 0 0
19.3645 0 0
19.4806 0 0
19.5967 0 0
19.7128 0 0
19.8288 0 0
19.9447 0 0
20.0606 0 1
20.1764 0 1
20.2922 0 1
20.4079 0 1
20.5236 0 1
20.6392 0 1
20.7548 0 1
20.8702 0 1
23.3078 0 1
23.4233 0 1
23.539 0 1
23.6547 0 1
23.7704 0 1
23.8862 0 1
24.0021 0 1
24.118 0 1
24.234 0 1
24.35 0 1
24.4661 1478 38.4448
24.5822 1440 37.9473
24.6984 1429 37.8021
24.8146 1524 39.0384
24.9309 1544 39.2938
25.0472 1575 39.6863
25.1636 1634 40.4228
25.28 1582 39.7744
25.3965 1621 40.2616
25.513 1701 41.2432
25.6296 1611 40.1373
25.7462 1717 41.4367
25.8628 1686 41.0609
25.9795 1641 40.5093
26.0962 1639 40.4846
26.213 1616 40.1995
26.3298 1640 40.4969
26.4466 1583 39.7869
26.5635 1607 40.0874
26.6804 1590 39.8748
26.7973 1522 39.0128
26.9143 1489 38.5876
27.0313 1548 39.3446
27.1483 1470 38.3406
27.2653 1504 38.7814
27.3824 1563 39.5348
27.4996 1624 40.2989
27.6167 1529 39.1024
27.7339 1516 38.9358
27.8511 1451 38.092
27.9683 1467 38.3014
28.0855 1424 37.7359
28.2028 1399 37.4032
28.3201 1478 38.4448
28.4374 1426 37.7624
28.5547 1492 38.6264
28.6721 1495 38.6652
28.7894 1503 38.7685
28.9068 1515 38.923
29.0242 1508 38.833
29.1416 1573 39.6611
29.259 1541 39.2556
29.3764 1503 38.7685
29.4939 1553 39.4081
29.6113 1502 38.7556
29.7288 1550 39.37
29.8463 1534 39.1663
29.9638 1541 39.2556
30.0812 1556 39.4462
30.1987 1500 38.7298
30.3162 1509 38.8458
30.4337 1495 38.6652
30.5512 1453 38.1182
30.6687 1408 37.5233
30.7862 1530 39.1152
30.9037 1450 38.0789
31.0212 1474 38.3927
31.1387 1465 38.2753
31.2562 1482 38.4968
31.3737 1464 38.2623
31.4912 1439 37.9342
31.6087 1367 36.973
31.7262 1438 37.921
31.8436 1485 38.5357
31.9611 1469 38.3275
32.0785 1416 37.6298
32.1959 1506 38.8072
32.3134 1472 38.3667
32.4308 1469 38.3275
32.5482 1523 39.0256
32.6655 1498 38.704
32.7829 1546 39.3192
32.9002 1514 38.9102
33.0176 1512 38.8844
33.1349 1558 39.4715
33.2522 1521 39
33.3694 1557 39.4588
33.4867 1541 39.2556
33.6039 1577 39.7115
33.7211 1538 39.2173
33.8383 1507 38.8201
33.9554 1489 38.5876
34.0725 1400 37.4166
34.1896 1455 38.1445
34.3067 1446 38.0263
34.4237 1468 38.3145
34.5407 1508 38.833
34.6577 1422 37.7094
34.7746 1436 37.8946
34.8915 1399 37.4032
35.0084 1424 37.7359
35.1252 1358 36.8511
35.242 1450 38.0789
35.3587 1425 37.7492
35.4755 1380 37.1484
35.5921 1471 38.3536
35.7088 1412 37.5766
35.8254 1410 37.55
35.9419 1496 38.6782
36.0584 1473 38.3797
36.1749 1460 38.2099
36.2913 1424 37.7359
36.4077 1442 37.9737
36.524 1476 38.4187
36.6403 1447 38.0395
36.7565 1506 38.8072
36.8727 1546 39.3192
36.9889 1505 38.7943
37.1049 1465 38.2753
37.221 0 1
37.3369 0 1
37.4529 0 1
37.5687 0 1
37.6845 0 1
37.8003 0 1
37.916 0 1
38.0316 0 1
38.1472 0 1
40.5851 0 1
40.7008 0 1
40.8164 0 1
40.9322 0 1
41.048 0 1
41.1639 0 1
41.2798 0 1
41.3958 0 1
41.5118 0 1
41.6279 0 1
41.744 1175 34.2783
41.8602 1198 34.6121
41.9765 1148 33.8821
42.0928 1352 36.7696
42.2091 1341 36.6197
42.3255 1352 36.7696
42.4419 1294 35.9722
42.5584 1297 36.0139
42.675 1355 36.8103
42.7915 1338 36.5787
42.9081 1214 34.8425
43.0248 1191 34.5109
43.1415 1211 34.7994
43.2582 1226 35.0143
43.375 1271 35.6511
43.4918 1328 36.4417
43.6087 1222 34.9571
43.7256 1224 34.9857
43.8425 1229 35.0571
43.9595 1170 34.2053
44.0765 1177 34.3074
44.1935 1168 34.176
44.3106 1144 33.8231
44.4277 1220 34.9285
44.5448 1174 34.2637
44.6619 1227 35.0286
44.7791 1169 34.1906
44.8963 1092 33.0454
45.0136 1120 33.4664
45.1308 1038 32.218
45.2481 1106 33.2566
45.3654 1081 32.8786
45.4827 1155 33.9853
45.6001 1083 32.909
45.7174 1095 33.0908
45.8348 1118 33.4365
45.9522 1111 33.3317
46.0697 1079 32.8481
46.1871 1173 34.2491
46.3046 1102 33.1964
46.422 1109 33.3017
46.5395 1066 32.6497
46.657 1094 33.0757
46.7745 1030 32.0936
46.892 1017 31.8904
47.0096 963 31.0322
47.1271 1081 32.8786
47.2446 1021 31.9531
47.3622 985 31.3847
47.4797 975 31.225
47.5973 927 30.4467
47.7149 972 31.1769
47.8324 1018 31.9061
47.95 991 31.4802
48.0675 980 31.305
48.1851 947 30.7734
48.3027 912 30.1993
48.4202 939 30.6431
48.5378 888 29.7993
48.6554 928 30.4631
48.7729 911 30.1828
48.8904 894 29.8998
49.008 944 30.7246
49.1255 926 30.4302
49.243 962 31.0161
49.3605 938 30.6268
49.478 968 31.1127
49.5955 966 31.0805
49.713 1028 32.0624
49.8304 1023 31.9844
49.9479 1017 31.8904
50.0653 1035 32.1714
50.1827 994 31.5278
50.3001 1032 32.1248
50.4175 1046 32.3419
50.5348 1019 31.9218
50.6521 1062 32.5883
50.7694 1120 33.4664
50.8867 1168 34.176
51.004 1136 33.7046
51.1212 1208 34.7563
51.2384 1161 34.0735
51.3556 1303 36.0971
51.4727 1285 35.8469
51.5899 1306 36.1386
51.707 1286 35.8608
51.824 1255 35.426
51.9411 1256 35.4401
52.0581 1219 34.9142
52.175 1296 36
52.2919 1206 34.7275
52.4088 1242 35.242
52.5257 1299 36.0416
52.6425 1223 34.9714
52.7593 1302 36.0832
52.876 1280 35.7771
52.9927 1293 35.9583
53.1094 1404 37.47
53.226 1492 38.6264
53.3426 1513 38.8973
53.4591 1525 39.0512
53.5756 1481 38.4838
53.692 1480 38.4708
53.8084 1384 37.2022
53.9248 1492 38.6264
54.0411 1381 37.1618
54.1573 1426 37.7624
54.2735 0 1
54.3896 0 1
54.5057 0 1
54.6217 0 1
54.7377 0 1
54.8537 0 1
54.9695 0 1
55.0853 0 1
55.2011 0 1
55.3168 0 1
55.4324 0 1
57.824 0 1
57.9396 0 1
58.0553 0 1
58.1711 0 1
58.2869 0 1
58.4028 0 1
58.5187 0 1
58.6347 0 1
58.7508 0 1
58.8669 0 1
58.983 1769 42.0595
59.0992 1726 41.5452
59.2155 1704 41.2795
59.3318 1768 42.0476
59.4482 1710 41.3521
59.5646 1810 42.5441
59.681 1772 42.0951
59.7975 1845 42.9535
59.9141 1887 43.4396
60.0306 1848 42.9884
60.1473 1781 42.2019
60.2639 1724 41.5211
60.3807 1700 41.2311
60.4974 1667 40.8289
60.6142 1689 41.0974
60.731 1691 41.1218
60.8479 1682 41.0122
60.9648 1549 39.3573
61.0818 1647 40.5832
61.1987 1648 40.5956
61.3158 1594 39.9249
61.4328 1636 40.4475
61.5499 1626 40.3237
61.667 1651 40.6325
61.7841 1646 40.5709
61.9013 1691 41.1218
62.0185 1793 42.3438
62.1357 1755 41.8927
62.253 1651 40.6325
62.3702 1674 40.9145
62.4875 1696 41.1825
62.6049 1629 40.3609
62.7222 1631 40.3856
62.8396 1651 40.6325
62.9569 1757 41.9166
63.0743 1623 40.2865
63.1918 1708 41.328
63.3092 1700 41.2311
63.4267 1693 41.1461
63.5441 1634 40.4228
63.6616 1725 41.5331
63.7791 1585 39.8121
63.8966 1653 40.6571
64.0142 1510 38.8587
64.1317 1502 38.7556
64.2492 1538 39.2173
64.3668 1557 39.4588
64.4843 1463 38.2492
64.6019 1513 38.8973
64.7195 1517 38.9487
64.837 1459 38.1969
64.9546 1517 38.9487
65.0722 1486 38.5487
65.1898 1490 38.6005
65.3074 1587 39.8372
65.4249 1544 39.2938
65.5425 1515 38.923
65.6601 1582 39.7744
65.7777 1614 40.1746
65.8952 1632 40.398
66.0128 1550 39.37
66.1304 1439 37.9342
66.2479 1496 38.6782
66.3655 1514 38.9102
66.483 1531 39.128
66.6005 1613 40.1622
66.718 1617 40.2119
66.8355 1640 40.4969
66.953 1578 39.724
67.0705 1655 40.6817
67.1879 1584 39.7995
67.3054 1617 40.2119
67.4228 1515 38.923
67.5402 1505 38.7943
67.6576 1467 38.3014
67.7749 1496 38.6782
67.8923 1494 38.6523
68.0096 1462 38.2361
68.1269 1442 37.9737
68.2442 1527 39.0768
68.3614 1512 38.8844
68.4787 1528 39.0896
68.5958 1537 39.2046
68.713 1510 38.8587
68.8302 1530 39.1152
68.9473 1569 39.6106
69.0643 1434 37.8682
69.1814 1512 38.8844
69.2984 1579 39.7366
69.4154 1634 40.4228
69.5323 1717 41.4367
69.6492 1614 40.1746
69.7661 1593 39.9124
69.8829 1577 39.7115
69.9997 1656 40.694
70.1165 1684 41.0366
70.2332 1667 40.8289
70.3499 1663 40.7799
70.4665 1751 41.845
70.5831 1748 41.8091
70.6996 1632 40.398
70.8161 1643 40.5339
70.9326 1609 40.1123
71.049 1582 39.7744
71.1653 1467 38.3014
71.2817 1520 38.9872
71.3979 1469 38.3275
71.5141 1443 37.9868
71.6303 1405 37.4833
71.7464 1316 36.2767
71.8624 0 1
71.9784 0 1
72.0944 0 1
72.2102 0 1
72.3261 0 1
72.4418 0 1
72.5575 0 1
72.6732 0 1
75.1054 0 1
75.2209 0 1
75.3365 0 1
75.4521 0 1
75.5678 0 1
75.6835 0 1
75.7993 0 1
75.9151 0 1
76.031 0 1
76.147 1440 37.9473
76.263 1540 39.2428
76.3791 1654 40.6694
76.4952 1551 39.3827
76.6113 1558 39.4715
76.7276 1594 39.9249
76.8438 1527 39.0768
76.9601 1579 39.7366
77.0765 1587 39.8372
77.1929 1603 40.0375
77.3093 1717 41.4367
77.4258 1707 41.3159
77.5423 1738 41.6893
77.6589 1699 41.2189
77.7755 1616 40.1995
77.8921 1692 41.1339
78.0088 1742 41.7373
78.1256 1696 41.1825
78.2423 1677 40.9512
78.3591 1736 41.6653
78.4759 1764 42
78.5928 1717 41.4367
78.7097 1819 42.6497
78.8266 1909 43.6921
78.9436 1611 40.1373
79.0606 1480 38.4708
79.1776 1402 37.4433
79.2946 1635 40.4351
79.4117 1746 41.7852
79.5288 1877 43.3244
79.6459 1799 42.4146
79.7631 1732 41.6173
79.8802 1615 40.1871
79.9974 1624 40.2989
80.1147 1509 38.8458
80.2319 1563 39.5348
80.3491 1511 38.8716
80.4664 1618 40.2244
80.5837 1567 39.5854
80.701 1570 39.6232
80.8183 1602 40.025
80.9357 1504 38.7814
81.053 1698 41.2068
81.1704 1610 40.1248
81.2877 1566 39.5727
81.4051 1475 38.4057
81.5225 1569 39.6106
81.6399 1447 38.0395
81.7573 1491 38.6135
81.8747 1492 38.6264
81.9922 1489 38.5876
82.1096 1494 38.6523
82.227 1440 37.9473
82.3444 1486 38.5487
82.4619 1537 39.2046
82.5793 1472 38.3667
82.6967 1366 36.9594
82.8142 1212 34.8138
82.9316 1343 36.647
83.049 1404 37.47
83.1664 1472 38.3667
83.2838 1428 37.7889
83.4012 1274 35.6931
83.5186 1248 35.327
83.636 1114 33.3766
83.7534 1168 34.176
83.8708 1209 34.7707
83.9881 1155 33.9853
84.1055 1118 33.4365
84.2228 1246 35.2987
84.3401 1139 33.7491
84.4575 1115 33.3916
84.5747 1222 34.9571
84.692 1353 36.7831
84.8093 1256 35.4401
84.9265 1186 34.4384
85.0437 1135 33.6898
85.1609 1146 33.8526
85.2781 1118 33.4365
85.3952 1138 33.7343
85.5123 1080 32.8634
85.6294 1107 33.2716
85.7465 1147 33.8674
85.8636 1149 33.8969
85.9806 1106 33.2566
86.0976 1244 35.2704
86.2145 1189 34.4819
86.3315 1112 33.3467
86.4484 1075 32.7872
86.5652 1230 35.0714
86.682 1324 36.3868
86.7988 1295 35.9861
86.9156 1235 35.1426
87.0323 1110 33.3167
87.149 1115 33.3916
87.2657 1123 33.5112
87.3823 1086 32.9545
87.4988 1039 32.2335
87.6154 1052 32.4345
87.7318 1054 32.4654
87.8483 1119 33.4515
87.9647 1079 32.8481
88.081 1189 34.4819
88.1973 1230 35.0714
88.3136 1261 35.5106
88.4298 1328 36.4417
88.546 1194 34.5543
88.6621 1147 33.8674
88.7781 1169 34.1906
88.8942 0 1
89.0101 0 1
89.126 0 1
89.2419 0 1
89.3577 0 1
89.4734 0 1
89.5891 0 1
89.7047 0 1
89.8203 0 1
89.9358 0 1
92.3269 0 1
92.4424 0 1
92.558 0 1
92.6736 0 1
92.7893 0 1
92.905 0 1
93.0208 0 1
93.1366 0 1
93.2525 0 1
93.3685 0 1
93.4845 0 1
93.6005 1380 37.1484
93.7167 1481 38.4838
93.8328 1387 37.2424
93.949 1410 37.55
94.0653 1404 37.47
94.1816 1376 37.0945
94.2979 1338 36.5787
94.4143 1408 37.5233
94.5307 1494 38.6523
94.6472 1414 37.6032
94.7637 1418 37.6563
94.8803 1542 39.2683
94.9969 1522 39.0128
95.1135 1485 38.5357
95.2302 1579 39.7366
95.3469 1509 38.8458
95.4637 1449 38.0657
95.5805 1393 37.3229
95.6973 1513 38.8973
95.8142 1614 40.1746
95.9311 1667 40.8289
96.048 1589 39.8623
96.1649 1625 40.3113
96.2819 1582 39.7744
96.3989 1534 39.1663
96.516 1432 37.8418
96.633 1522 39.0128
96.7501 1492 38.6264
96.8673 1416 37.6298
96.9844 1501 38.7427
97.1016 1473 38.3797
97.2188 1522 39.0128
97.336 1567 39.5854
97.4532 1627 40.3361
97.5704 1602 40.025
97.6877 1611 40.1373
97.805 1621 40.2616
97.9223 1525 39.0512
98.0396 1540 39.2428
98.1569 1475 38.4057
98.2743 1488 38.5746
98.3916 1544 39.2938
98.509 1562 39.5221
98.6264 1517 38.9487
98.7438 1609 40.1123
98.8612 1619 40.2368
98.9786 1617 40.2119
99.096 1578 39.724
99.2134 1512 38.8844
99.3308 1576 39.6989
99.4482 1687 41.0731
99.5656 1635 40.4351
99.6831 1710 41.3521
99.8005 1647 40.5832
99.9179 1583 39.7869
100.035 1593 39.9124
100.153 1454 38.1314
100.27 1546 39.3192
100.388 1540 39.2428
100.505 1509 38.8458
100.622 1507 38.8201
100.74 1505 38.7943
100.857 1588 39.8497
100.975 1587 39.8372
101.092 1638 40.4722
101.209 1664 40.7922
101.327 1516 38.9358
101.444 1595 39.9375
101.561 1510 38.8587
101.679 1619 40.2368
101.796 1599 39.9875
101.913 1574 39.6737
102.03 1632 40.398
102.148 1634 40.4228
102.265 1740 41.7133
102.382 1671 40.8779
102.499 1711 41.3642
102.616 1566 39.5727
102.733 1506 38.8072
102.851 1642 40.5216
102.968 1704 41.2795
103.085 1750 41.833
103.202 1697 41.1947
103.319 1627 40.3361
103.436 1577 39.7115
103.552 1566 39.5727
103.669 1511 38.8716
103.786 1430 37.8153
103.903 1374 37.0675
104.02 1425 37.7492
104.137 1483 38.5097
104.253 1491 38.6135
104.37 1429 37.8021
104.487 1530 39.1152
104.603 1532 39.1408
104.72 1444 38
104.836 1517 38.9487
104.953 1413 37.5899
105.069 1326 36.4143
105.186 1374 37.0675
105.302 1369 37
105.418 1392 37.3095
105.535 1374 37.0675
105.651 1369 37
105.767 1400 37.4166
105.883 1587 39.8372
105.999 1510 38.8587
106.115 0 1
106.231 0 1
106.347 0 1
106.463 0 1
106.579 0 1
106.694 0 1
106.81 0 1
106.926 0 1
107.041 0 1
107.157 0 1
109.576 0 1
109.692 0 1
109.807 0 1
109.923 0 1
110.039 0 1
110.155 0 1
110.27 0 1
110.386 0 1
110.502 0 1
110.618 939 30.6431
110.735 1018 31.9061
110.851 1102 33.1964
110.967 1138 33.7343
111.083 1151 33.9264
111.199 1159 34.0441
111.316 1124 33.5261
111.432 1093 33.0606
111.549 1072 32.7414
111.665 1098 33.1361
111.782 1011 31.7962
111.898 985 31.3847
112.015 946 30.7571
112.132 855 29.2404
112.248 874 29.5635
112.365 847 29.1033
112.482 779 27.9106
112.599 710 26.6458
112.716 753 27.4408
112.832 710 26.6458
112.949 721 26.8514
113.066 707 26.5895
113.183 742 27.2397
113.3 736 27.1293
113.417 698 26.4197
113.534 652 25.5343
113.652 691 26.2869
113.769 742 27.2397
113.886 789 28.0891
114.003 785 28.0179
114.12 765 27.6586
114.238 800 28.2843
114.355 816 28.5657
114.472 911 30.1828
114.589 871 29.5127
114.707 951 30.8383
114.824 949 30.8058
114.942 937 30.6105
115.059 919 30.315
115.176 826 28.7402
115.294 855 29.2404
115.411 771 27.7669
115.529 745 27.2947
115.646 753 27.4408
115.764 732 27.0555
115.881 745 27.2947
115.999 670 25.8844
116.116 647 25.4362
116.234 638 25.2587
116.351 670 25.8844
116.469 622 24.9399
116.586 645 25.3969
116.704 616 24.8193
116.821 628 25.0599
116.939 688 26.2298
117.056 668 25.8457
117.174 678 26.0384
117.291 747 27.3313
117.409 692 26.3059
117.526 732 27.0555
117.644 717 26.7769
117.761 855 29.2404
117.879 836 28.9137
117.996 780 27.9285
118.114 813 28.5132
118.231 899 29.9833
118.349 976 31.241
118.466 960 30.9839
118.584 1031 32.1092
118.701 950 30.8221
118.819 951 30.8383
118.936 916 30.2655
119.053 860 29.3258
119.171 804 28.3549
119.288 787 28.0535
119.405 844 29.0517
119.523 767 27.6948
119.64 807 28.4077
119.757 775 27.8388
119.875 735 27.1109
119.992 677 26.0192
120.109 685 26.1725
120.226 682 26.1151
120.343 631 25.1197
120.46 652 25.5343
120.578 651 25.5147
120.695 686 26.1916
120.812 733 27.074
120.929 771 27.7669
121.046 824 28.7054
121.163 834 28.8791
121.279 823 28.688
121.396 851 29.1719
121.513 876 29.5973
121.63 882 29.6985
121.747 819 28.6182
121.863 866 29.4279
121.98 939 30.6431
122.097 953 30.8707
122.213 1015 31.8591
122.33 1017 31.8904
122.446 1034 32.1559
122.563 972 31.1769
122.679 946 30.7571
122.795 876 29.5973
122.912 967 31.0966
123.028 942 30.692
123.144 944 30.7246
123.26 878 29.6311
123.377 0 1
123.493 0 1
123.609 0 1
123.725 0 1
123.84 0 1
123.956 0 1
124.072 0 1
124.188 0 1
124.303 0 1
124.419 0 1
126.852 0 1
126.968 0 1
127.083 0 1
127.199 0 1
127.315 0 1
127.431 0 1
127.547 0 1
127.663 0 1
127.779 0 1
127.895 0 1
128.011 0 1
128.127 0 1
128.243 0 1
128.359 1175 34.2783
128.476 1178 34.322
128.592 1146 33.8526
128.708 1112 33.3467
128.825 1013 31.8277
128.941 996 31.5595
129.058 1014 31.8434
129.174 978 31.273
129.291 1011 31.7962
129.408 973 31.1929
129.524 968 31.1127
129.641 1009 31.7648
129.758 983 31.3528
129.875 1063 32.6037
129.992 1073 32.7567
130.108 1150 33.9116
130.225 1150 33.9116
130.342 1104 33.2265
130.459 1097 33.121
130.576 1064 32.619
130.693 1019 31.9218
130.81 1022 31.9687
130.928 1054 32.4654
131.045 1159 34.0441
131.162 1291 35.9305
131.279 1262 35.5246
131.396 1304 36.1109
131.513 1367 36.973
131.631 1280 35.7771
131.748 1357 36.8375
131.865 1244 35.2704
131.983 1220 34.9285
132.1 1227 35.0286
132.217 1238 35.1852
132.335 1148 33.8821
132.452 1174 34.2637
132.57 1122 33.4963
132.687 1088 32.9848
132.804 1149 33.8969
132.922 1076 32.8024
133.039 1092 33.0454
133.157 1081 32.8786
133.274 1114 33.3766
133.392 1189 34.4819
133.509 1173 34.2491
133.627 1293 35.9583
133.744 1321 36.3456
133.862 1251 35.3695
133.979 1254 35.4119
134.097 1127 33.5708
134.214 1192 34.5254
134.332 1126 33.5559
134.449 1190 34.4964
134.567 1238 35.1852
134.684 1314 36.2491
134.802 1435 37.8814
134.919 1471 38.3536
135.037 1467 38.3014
135.154 1444 38
135.272 1457 38.1707
135.389 1516 38.9358
135.507 1495 38.6652
135.624 1456 38.1576
135.742 1367 36.973
135.859 1390 37.2827
135.977 1394 37.3363
136.094 1386 37.229
136.211 1305 36.1248
136.329 1259 35.4824
136.446 1223 34.9714
136.564 1231 35.0856
136.681 1222 34.9571
136.798 1261 35.5106
136.915 1350 36.7423
137.033 1381 37.1618
137.15 1482 38.4968
137.267 1478 38.4448
137.384 1462 38.2361
137.502 1486 38.5487
137.619 1438 37.921
137.736 1509 38.8458
137.853 1379 37.1349
137.97 1342 36.6333
138.087 1435 37.8814
138.204 1453 38.1182
138.321 1456 38.1576
138.438 1570 39.6232
138.555 1617 40.2119
138.672 1606 40.0749
138.788 1609 40.1123
138.905 1649 40.6079
139.022 1685 41.0488
139.139 1751 41.845
139.255 1596 39.95
139.372 1635 40.4351
139.488 1593 39.9124
139.605 1630 40.3733
139.721 1574 39.6737
139.838 1519 38.9744
139.954 1463 38.2492
140.071 1439 37.9342
140.187 1446 38.0263
140.303 1392 37.3095
140.419 1420 37.6829
140.535 1401 37.4299
140.652 1423 37.7227
140.768 0 1
140.884 0 1
141 0 1
141.115 0 1
141.231 0 1
141.347 0 1
141.463 0 1
141.578 0 1
141.694 0 1
144.104 0 1
144.219 0 1
144.335 0 1
144.45 0 1
144.566 0 1
144.682 0 1
144.798 0 1
144.914 0 1
145.03 0 1
145.146 1331 36.4829
145.262 1458 38.1838
145.378 1439 37.9342
145.494 1541 39.2556
145.61 1351 36.756
145.726 1374 37.0675
145.842 1485 38.5357
145.959 1537 39.2046
146.075 1480 38.4708
146.192 1432 37.8418
146.308 1378 37.1214
146.425 1358 36.8511
146.541 1408 37.5233
146.658 1419 37.6696
146.774 1386 37.229
146.891 1485 38.5357
147.008 1514 38.9102
147.125 1524 39.0384
147.241 1603 40.0375
147.358 1512 38.8844
147.475 1573 39.6611
147.592 1595 39.9375
147.709 1597 39.9625
147.826 1569 39.6106
147.943 1582 39.7744
148.06 1553 39.4081
148.177 1592 39.8999
148.294 1485 38.5357
148.411 1485 38.5357
148.528 1490 38.6005
148.645 1415 37.6165
148.762 1398 37.3898
148.88 1311 36.2077
148.997 1366 36.9594
149.114 1415 37.6165
149.231 1455 38.1445
149.349 1454 38.1314
149.466 1428 37.7889
149.583 1432 37.8418
149.701 1464 38.2623
149.818 1380 37.1484
149.935 1309 36.1801
150.053 1298 36.0278
150.17 1361 36.8917
150.287 1388 37.2559
150.405 1461 38.223
150.522 1403 37.4566
150.64 1474 38.3927
150.757 1529 39.1024
150.875 1505 38.7943
150.992 1559 39.4842
151.11 1551 39.3827
151.227 1518 38.9615
151.344 1491 38.6135
151.462 1491 38.6135
151.579 1552 39.3954
151.697 1548 39.3446
151.814 1567 39.5854
151.932 1544 39.2938
152.049 1562 39.5221
152.167 1466 38.2884
152.284 1426 37.7624
152.402 1449 38.0657
152.519 1467 38.3014
152.636 1513 38.8973
152.754 1459 38.1969
152.871 1482 38.4968
152.989 1431 37.8286
153.106 1484 38.5227
153.223 1407 37.51
153.341 1478 38.4448
153.458 1420 37.6829
153.575 1398 37.3898
153.693 1416 37.6298
153.81 1476 38.4187
153.927 1381 37.1618
154.044 1491 38.6135
154.162 1486 38.5487
154.279 1572 39.6485
154.396 1664 40.7922
154.513 1671 40.8779
154.63 1709 41.3401
154.747 1689 41.0974
154.864 1646 40.5709
154.981 1710 41.3521
155.098 1745 41.7732
155.215 1662 40.7676
155.332 1697 41.1947
155.449 1731 41.6053
155.566 1700 41.2311
155.683 1654 40.6694
155.8 1675 40.9268
155.917 1635 40.4351
156.033 1585 39.8121
156.15 0 1
156.267 0 1
156.383 0 1
156.5 0 1
156.617 0 1
156.733 0 1
156.85 0 1
156.966 0 1
157.082 0 1
157.199 0 1
157.315 0 1
157.431 0 1
157.547 0 1
157.664 0 1
157.78 0 1
157.896 0 1
158.012 0 1
158.128 0 1
158.244 0 1
158.359 0 1
158.475 0 1
158.591 0 1
158.706 0 1
