
6.15755 0 1
6.2731 0 1
6.3887 0 1
6.50437 0 1
6.62009 0 1
6.73587 0 1
6.8517 0 1
6.96759 0 1
7.08353 0 1
7.19952 0 1
7.31557 0 1
7.43166 0 1
7.54781 0 1
7.664 0 1
7.78024 0 1
7.89653 0 1
8.01286 0 1
8.12924 0 1
8.24567 0 1
8.36213 0 1
8.47864 0 1
8.59519 0 1
8.71178 0 1
8.82841 0 1
8.94508 0 1
9.06179 0 1
9.17853 0 1
9.29531 0 1
9.41212 0 1
9.52897 0 1
9.64584 0 1
9.76276 0 1
9.8797 0 1
9.99667 0 1
10.1137 0 1
10.2307 0 1
10.3478 0 1
10.4648 0 1
10.5819 0 1
10.6991 0 1
10.8162 0 1
10.9334 0 1
11.0506 0 1
11.1678 0 1
11.285 0 1
11.4023 0 1
11.5196 0 1
11.6369 0 1
11.7542 0 1
11.8715 0 1
11.9888 0 1
12.1062 0 1
12.2235 0 1
12.3409 0 1
12.4582 0 1
12.5756 0 1
12.693 0 1
12.8104 0 1
12.9278 0 1
13.0452 0 1
13.1626 0 1
13.28 0 1
13.3974 0 1
13.5149 0 1
13.6323 0 1
13.7497 0 1
13.8671 0 1
13.9845 0 1
14.1019 0 1
14.2193 0 1
14.3367 0 1
14.4541 0 1
14.5714 0 1
14.6888 0 1
14.8062 0 1
14.9235 0 1
15.0408 0 0
15.1581 0 0
15.2755 0 0
15.3927 0 0
15.51 0 0
15.6273 0 0
15.7445 0 0
15.8617 0 0
15.9789 0 0
16.0961 0 0
16.2132 0 0
16.3304 0 0
16.4475 0 0
16.5646 0 0
16.6816 0 0
16.7986 0 0
16.9156 0 0
17.0326 0 0
17.1496 1 1
17.2665 0 0
17.3833 0 0
17.5002 0 0
17.617 0 0
17.7338 0 0
17.8505 0 0
17.9672 0 0
18.0839 0 0
18.2005 0 0
18.3171 0 0
18.4337 0 0
18.5502 0 0
18.6666 0 0
18.7831 0 0
18.8994 0 0
19.0158 0 0
19.1321 0 0
19.2483 0 0
19.3645 0 0
19.4806 0 0
19.5967 0 0
19.7128 0 0
19.8288 0 0
19.9447 0 0
20.0606 0 1
20.1764 0 1
20.2922 0 1
20.4079 0 1
20.5236 0 1
20.6392 0 1
20.7548 0 1
20.8702 0 1
23.3078 0 1
23.4233 0 1
23.539 0 1
23.6547 0 1
23.7704 0 1
23.8862 0 1
24.0021 0 1
24.118 0 1
24.234 0 1
24.35 0 1
24.4661 397201 630.239
24.5822 397961 630.842
24.6984 399279 631.885
24.8146 400620 632.945
24.9309 408291 638.977
25.0472 412398 642.182
25.1636 418200 646.684
25.28 427086 653.518
25.3965 435453 659.889
25.513 440757 663.895
25.6296 450088 670.886
25.7462 455023 674.554
25.8628 453435 673.376
25.9795 453862 673.693
26.0962 451348 671.824
26.213 451946 672.269
26.3298 442838 665.461
26.4466 444592 666.777
26.5635 438457 662.161
26.6804 431744 657.072
26.7973 419313 647.544
26.9143 408408 639.068
27.0313 396666 629.814
27.1483 396665 629.813
27.2653 398078 630.934
27.3824 398872 631.563
27.4996 393767 627.509
27.6167 384616 620.174
27.7339 368666 607.179
27.8511 354015 594.992
27.9683 345426 587.73
28.0855 339036 582.268
28.2028 340817 583.795
28.3201 334608 578.453
28.4374 342222 584.997
28.5547 348081 589.984
28.6721 356478 597.058
28.7894 364306 603.578
28.9068 373095 610.815
29.0242 378515 615.236
29.1416 384928 620.426
29.259 388703 623.461
29.3764 391390 625.612
29.4939 390088 624.57
29.6113 390566 624.953
29.7288 389746 624.296
29.8463 388953 623.661
29.9638 389549 624.139
30.0812 387884 622.803
30.1987 386059 621.336
30.3162 377343 614.283
30.4337 367155 605.933
30.5512 358530 598.774
30.6687 352409 593.64
30.7862 359030 599.191
30.9037 359025 599.187
31.0212 363837 603.189
31.1387 359957 599.964
31.2562 348391 590.247
31.3737 339594 582.747
31.4912 330755 575.113
31.6087 326398 571.313
31.7262 323554 568.818
31.8436 324020 569.228
31.9611 328746 573.364
32.0785 333704 577.671
32.1959 344041 586.55
32.3134 350768 592.257
32.4308 358598 598.831
32.5482 364793 603.981
32.6655 371217 609.276
32.7829 372045 609.955
32.9002 377090 614.077
33.0176 374104 611.64
33.1349 374776 612.19
33.2522 373886 611.462
33.3694 375836 613.055
33.4867 374324 611.82
33.6039 374610 612.054
33.7211 371964 609.889
33.8383 370582 608.754
33.9554 366503 605.395
34.0725 356784 597.314
34.1896 346746 588.851
34.3067 340905 583.871
34.4237 339692 582.831
34.5407 340445 583.477
34.6577 345814 588.06
34.7746 342159 584.944
34.8915 338237 581.581
35.0084 324829 569.938
35.1252 318265 564.15
35.242 311513 558.133
35.3587 311533 558.151
35.4755 311225 557.875
35.5921 314977 561.228
35.7088 320571 566.19
35.8254 326462 571.369
35.9419 334646 578.486
36.0584 341337 584.241
36.1749 349266 590.987
36.2913 353888 594.885
36.4077 357608 598.003
36.524 359583 599.652
36.6403 360430 600.358
36.7565 360002 600.002
36.8727 359926 599.938
36.9889 358145 598.452
37.1049 352106 593.385
37.221 0 1
37.3369 0 1
37.4529 0 1
37.5687 0 1
37.6845 0 1
37.8003 0 1
37.916 0 1
38.0316 0 1
38.1472 0 1
40.5851 0 1
40.7008 0 1
40.8164 0 1
40.9322 0 1
41.048 0 1
41.1639 0 1
41.2798 0 1
41.3958 0 1
41.5118 0 1
41.6279 0 1
41.744 289499 538.051
41.8602 297788 545.7
41.9765 299923 547.652
42.0928 300427 548.112
42.2091 301365 548.967
42.3255 302418 549.925
42.4419 301622 549.201
42.5584 301213 548.829
42.675 301065 548.694
42.7915 296378 544.406
42.9081 285286 534.122
43.0248 278013 527.269
43.1415 274515 523.942
43.2582 275890 525.252
43.375 278877 528.088
43.4918 283376 532.331
43.6087 276522 525.854
43.7256 267280 516.991
43.8425 258552 508.48
43.9595 250100 500.1
44.0765 245504 495.484
44.1935 244498 494.467
44.3106 245833 495.815
44.4277 247794 497.789
44.5448 250725 500.724
44.6619 255884 505.85
44.7791 260590 510.48
44.8963 263955 513.766
45.0136 263914 513.726
45.1308 262659 512.503
45.2481 261104 510.983
45.3654 258247 508.18
45.4827 256392 506.352
45.6001 255282 505.254
45.7174 253121 503.111
45.8348 249117 499.116
45.9522 249146 499.145
46.0697 245696 495.677
46.1871 242668 492.613
46.3046 239707 489.599
46.422 233321 483.033
46.5395 224161 473.456
46.657 216153 464.923
46.7745 212450 460.923
46.892 211284 459.656
47.0096 212809 461.312
47.1271 215142 463.834
47.2446 211325 459.701
47.3622 201358 448.729
47.4797 194040 440.5
47.5973 188779 434.487
47.7149 184872 429.967
47.8324 183971 428.918
47.95 184654 429.714
48.0675 188347 433.99
48.1851 190768 436.77
48.3027 194963 441.546
48.4202 198010 444.983
48.5378 200878 448.194
48.6554 200975 448.302
48.7729 200723 448.021
48.8904 201824 449.248
49.008 202311 449.79
49.1255 203474 451.081
49.243 204674 452.409
49.3605 205625 453.459
49.478 207923 455.986
49.5955 210091 458.357
49.713 211674 460.08
49.8304 213155 461.687
49.9479 211939 460.368
50.0653 207449 455.466
50.1827 203973 451.634
50.3001 199781 446.969
50.4175 203598 451.218
50.5348 207924 455.987
50.6521 220284 469.344
50.7694 224806 474.137
50.8867 223798 473.073
51.004 222119 471.295
51.1212 222687 471.897
51.2384 227585 477.059
51.3556 231600 481.248
51.4727 240377 490.283
51.5899 251343 501.341
51.707 261714 511.58
51.824 271569 521.123
51.9411 277663 526.937
52.0581 281663 530.719
52.175 286673 535.419
52.2919 288261 536.899
52.4088 291816 540.2
52.5257 295516 543.614
52.6425 295594 543.686
52.7593 298051 545.94
52.876 300479 548.16
52.9927 303183 550.621
53.1094 304059 551.415
53.226 308081 555.05
53.3426 310992 557.667
53.4591 312876 559.353
53.5756 311778 558.371
53.692 302947 550.406
53.8084 292220 540.574
53.9248 285229 534.068
54.0411 286270 535.042
54.1573 290111 538.62
54.2735 0 1
54.3896 0 1
54.5057 0 1
54.6217 0 1
54.7377 0 1
54.8537 0 1
54.9695 0 1
55.0853 0 1
55.2011 0 1
55.3168 0 1
55.4324 0 1
57.824 0 1
57.9396 0 1
58.0553 0 1
58.1711 0 1
58.2869 0 1
58.4028 0 1
58.5187 0 1
58.6347 0 1
58.7508 0 1
58.8669 0 1
58.983 335122 578.897
59.0992 333076 577.127
59.2155 335531 579.25
59.3318 337021 580.535
59.4482 340676 583.675
59.5646 341149 584.08
59.681 339281 582.478
59.7975 337005 580.521
59.9141 338682 581.964
60.0306 342368 585.122
60.1473 350878 592.35
60.2639 357645 598.034
60.3807 361778 601.48
60.4974 365682 604.716
60.6142 365653 604.692
60.731 362907 602.418
60.8479 365192 604.311
60.9648 361114 600.928
61.0818 361718 601.43
61.1987 357687 598.069
61.3158 358492 598.742
61.4328 356679 597.226
61.5499 354434 595.344
61.667 355087 595.892
61.7841 353855 594.857
61.9013 352621 593.819
62.0185 351753 593.088
62.1357 343884 586.416
62.253 336686 580.246
62.3702 325243 570.301
62.4875 316524 562.605
62.6049 313265 559.701
62.7222 316884 562.925
62.8396 321009 566.577
62.9569 320372 566.014
63.0743 317286 563.281
63.1918 313017 559.479
63.3092 310829 557.52
63.4267 314024 560.378
63.5441 321588 567.087
63.6616 328640 573.271
63.7791 331665 575.904
63.8966 336667 580.23
64.0142 336853 580.39
64.1317 337574 581.011
64.2492 336003 579.658
64.3668 333949 577.883
64.4843 331659 575.898
64.6019 333126 577.171
64.7195 331724 575.955
64.837 330040 574.491
64.9546 330372 574.78
65.0722 328635 573.267
65.1898 326341 571.263
65.3074 329796 574.279
65.4249 324530 569.675
65.5425 326771 571.639
65.6601 325300 570.351
65.7777 321845 567.314
65.8952 312115 558.673
66.0128 299549 547.311
66.1304 287766 536.438
66.2479 284152 533.059
66.3655 288445 537.071
66.483 296136 544.184
66.6005 299714 547.461
66.718 297320 545.271
66.8355 294450 542.632
66.953 296720 544.72
67.0705 302758 550.234
67.1879 311203 557.856
67.3054 317653 563.607
67.4228 320430 566.065
67.5402 321321 566.852
67.6576 324496 569.646
67.7749 318997 564.798
67.8923 325992 570.957
68.0096 323759 568.998
68.1269 324001 569.211
68.2442 324581 569.72
68.3614 323635 568.889
68.4787 323537 568.803
68.5958 325490 570.517
68.713 324650 569.781
68.8302 324739 569.859
68.9473 327071 571.901
69.0643 326458 571.365
69.1814 327342 572.138
69.2984 327990 572.704
69.4154 329713 574.206
69.5323 324574 569.714
69.6492 316463 562.55
69.7661 302398 549.907
69.8829 291834 540.217
69.9997 295525 543.622
70.1165 302034 549.576
70.2332 308983 555.862
70.3499 306475 553.602
70.4665 304080 551.434
70.5831 305523 552.741
70.6996 311992 558.562
70.8161 318996 564.797
70.9326 326757 571.627
71.049 328489 573.14
71.1653 327257 572.064
71.2817 324421 569.58
71.3979 319418 565.171
71.5141 315600 561.783
71.6303 308647 555.56
71.7464 288441 537.067
71.8624 0 1
71.9784 0 1
72.0944 0 1
72.2102 0 1
72.3261 0 1
72.4418 0 1
72.5575 0 1
72.6732 0 1
75.1054 0 1
75.2209 0 1
75.3365 0 1
75.4521 0 1
75.5678 0 1
75.6835 0 1
75.7993 0 1
75.9151 0 1
76.031 0 1
76.147 287295 535.999
76.263 310972 557.649
76.3791 318421 564.288
76.4952 318929 564.738
76.6113 320753 566.351
76.7276 322574 567.956
76.8438 317972 563.89
76.9601 318875 564.69
77.0765 319763 565.476
77.1929 320991 566.561
77.3093 320646 566.256
77.4258 317964 563.883
77.5423 318487 564.347
77.6589 318816 564.638
77.7755 316297 562.403
77.8921 314939 561.194
78.0088 316312 562.416
78.1256 314382 560.698
78.2423 315344 561.555
78.3591 313050 559.509
78.4759 312066 558.629
78.5928 306863 553.952
78.7097 294274 542.47
78.8266 280516 529.638
78.9436 237275 487.109
79.0606 240555 490.464
79.1776 248269 498.266
79.2946 269571 519.202
79.4117 281554 530.617
79.5288 290854 539.309
79.6459 297700 545.619
79.7631 301812 549.374
79.8802 302070 549.609
79.9974 301188 548.806
80.1147 299803 547.543
80.2319 299003 546.812
80.3491 297519 545.453
80.4664 297130 545.096
80.5837 296033 544.089
80.701 294905 543.052
80.8183 293432 541.694
80.9357 292265 540.615
81.053 293893 542.119
81.1704 289737 538.272
81.2877 290631 539.102
81.4051 287136 535.851
81.5225 290681 539.148
81.6399 279609 528.781
81.7573 284803 533.669
81.8747 282187 531.213
81.9922 281510 530.575
82.1096 282052 531.086
82.227 277995 527.252
82.3444 272611 522.122
82.4619 259846 509.751
82.5793 230275 479.87
82.6967 221410 470.542
82.8142 219338 468.335
82.9316 232964 482.663
83.049 246321 496.307
83.1664 254140 504.123
83.2838 262835 512.674
83.4012 265963 515.716
83.5186 264111 513.917
83.636 262865 512.704
83.7534 261747 511.612
83.8708 259903 509.807
83.9881 259898 509.802
84.1055 259905 509.809
84.2228 255550 505.52
84.3401 256901 506.854
84.4575 256495 506.453
84.5747 256094 506.057
84.692 257918 507.856
84.8093 257137 507.087
84.9265 255462 505.432
85.0437 256496 506.454
85.1609 256093 506.056
85.2781 255933 505.898
85.3952 255540 505.51
85.5123 256627 506.584
85.6294 257356 507.303
85.7465 257660 507.602
85.8636 257658 507.6
85.9806 252988 502.979
86.0976 237678 487.522
86.2145 212009 460.444
86.3315 191130 437.184
86.4484 213382 461.933
86.5652 234410 484.159
86.682 252728 502.721
86.7988 259596 509.506
86.9156 263214 513.044
87.0323 261463 511.335
87.149 263541 513.362
87.2657 260598 510.488
87.3823 260323 510.219
87.4988 259134 509.052
87.6154 260067 509.968
87.7318 258771 508.695
87.8483 259858 509.763
87.9647 259920 509.823
88.081 259566 509.476
88.1973 261263 511.139
88.3136 260084 509.984
88.4298 259189 509.106
88.546 256720 506.675
88.6621 253323 503.312
88.7781 249914 499.914
88.8942 0 1
89.0101 0 1
89.126 0 1
89.2419 0 1
89.3577 0 1
89.4734 0 1
89.5891 0 1
89.7047 0 1
89.8203 0 1
89.9358 0 1
92.3269 0 1
92.4424 0 1
92.558 0 1
92.6736 0 1
92.7893 0 1
92.905 0 1
93.0208 0 1
93.1366 0 1
93.2525 0 1
93.3685 0 1
93.4845 0 1
93.6005 196017 442.738
93.7167 197820 444.77
93.8328 196191 442.935
93.949 195092 441.692
94.0653 191623 437.748
94.1816 188634 434.32
94.2979 186965 432.394
94.4143 183997 428.949
94.5307 182057 426.681
94.6472 180929 425.357
94.7637 177682 421.523
94.8803 178804 422.852
94.9969 175926 419.435
95.1135 172613 415.467
95.2302 164377 405.434
95.3469 149521 386.679
95.4637 125003 353.558
95.5805 120897 347.702
95.6973 145164 381.004
95.8142 163265 404.061
95.9311 164740 405.882
96.048 163248 404.04
96.1649 160361 400.451
96.2819 156930 396.144
96.3989 153768 392.133
96.516 150911 388.473
96.633 147438 383.977
96.7501 144736 380.442
96.8673 141230 375.806
96.9844 138135 371.665
97.1016 135822 368.54
97.2188 131919 363.207
97.336 131791 363.03
97.4532 128712 358.765
97.5704 126117 355.13
97.6877 123652 351.642
97.805 118967 344.916
97.9223 115060 339.205
98.0396 110876 332.98
98.1569 108540 329.454
98.2743 105962 325.518
98.3916 102975 320.897
98.509 101594 318.738
98.6264 99021 314.676
98.7438 96099 309.998
98.8612 92275 303.768
98.9786 83715 289.335
99.096 66910 258.67
99.2134 61335 247.659
99.3308 75783 275.287
99.4482 81949 286.267
99.5656 81761 285.939
99.6831 79122 281.286
99.8005 76156 275.964
99.9179 74674 273.265
100.035 73176 270.511
100.153 71212 266.856
100.27 70380 265.292
100.388 70631 265.765
100.505 70384 265.3
100.622 71243 266.914
100.74 71784 267.925
100.857 74652 273.225
100.975 76555 276.686
101.092 79375 281.736
101.209 81694 285.822
101.327 83483 288.934
101.444 86938 294.853
101.561 88817 298.022
101.679 91940 303.216
101.796 93518 305.807
101.913 96825 311.167
102.03 100553 317.101
102.148 104240 322.862
102.265 113606 337.055
102.382 106206 325.893
102.499 106151 325.808
102.616 85947 293.167
102.733 78436 280.064
102.851 107378 327.686
102.968 126777 356.058
103.085 133248 365.032
103.202 136026 368.817
103.319 138403 372.026
103.436 139566 373.585
103.552 143013 378.171
103.669 144831 380.567
103.786 147113 383.553
103.903 150533 387.986
104.02 152898 391.022
104.137 155892 394.832
104.253 162569 403.198
104.37 159664 399.58
104.487 166937 408.579
104.603 170366 412.754
104.72 172303 415.094
104.836 175367 418.768
104.953 177417 421.209
105.069 180595 424.965
105.186 183136 427.944
105.302 185767 431.007
105.418 186965 432.394
105.535 189652 435.491
105.651 190971 437.002
105.767 191232 437.301
105.883 180316 424.636
105.999 146143 382.287
106.115 0 1
106.231 0 1
106.347 0 1
106.463 0 1
106.579 0 1
106.694 0 1
106.81 0 1
106.926 0 1
107.041 0 1
107.157 0 1
109.576 0 1
109.692 0 1
109.807 0 1
109.923 0 1
110.039 0 1
110.155 0 1
110.27 0 1
110.386 0 1
110.502 0 1
110.618 189509 435.326
110.735 193109 439.442
110.851 186475 431.828
110.967 169706 411.954
111.083 147446 383.987
111.199 138548 372.22
111.316 159071 398.837
111.432 190356 436.298
111.549 200282 447.529
111.665 202900 450.444
111.782 200431 447.695
111.898 198828 445.901
112.015 196994 443.84
112.132 195149 441.757
112.248 193009 439.328
112.365 193343 439.708
112.482 191013 437.05
112.599 183932 428.873
112.716 185762 431.001
112.832 184254 429.248
112.949 180404 424.74
113.066 180702 425.091
113.183 178543 422.543
113.3 174696 417.967
113.417 173085 416.035
113.534 171898 414.606
113.652 170510 412.929
113.769 167721 409.538
113.886 165772 407.151
114.003 163890 404.833
114.12 161068 401.333
114.238 158714 398.389
114.355 155185 393.935
114.472 143210 378.431
114.589 121842 349.059
114.707 106077 325.695
114.824 109109 330.317
114.942 126335 355.436
115.059 142557 377.567
115.176 146495 382.747
115.294 146990 383.393
115.411 144889 380.643
115.529 142613 377.641
115.646 140746 375.161
115.764 138989 372.812
115.881 136048 368.847
115.999 133957 366.001
116.116 131908 363.191
116.234 130772 361.624
116.351 129185 359.423
116.469 126681 355.923
116.586 125725 354.577
116.704 124912 353.429
116.821 122283 349.69
116.939 121644 348.775
117.056 119290 345.384
117.174 117555 342.863
117.291 116930 341.95
117.409 115238 339.467
117.526 114045 337.705
117.644 113172 336.41
117.761 111645 334.133
117.879 110542 332.479
117.996 106555 326.428
118.114 106737 326.706
118.231 102354 319.928
118.349 88906 298.171
118.466 85188 291.87
118.584 91253 302.081
118.701 100665 317.277
118.819 104399 323.108
118.936 103885 322.312
119.053 103132 321.142
119.171 101269 318.228
119.288 100829 317.536
119.405 100181 316.514
119.523 97895 312.882
119.64 97890 312.874
119.757 96229 310.208
119.875 95954 309.764
119.992 94529 307.456
120.109 93742 306.173
120.226 94696 307.727
120.343 93838 306.33
120.46 93542 305.846
120.578 93804 306.274
120.695 93287 305.429
120.812 93702 306.108
120.929 93584 305.915
121.046 93935 306.488
121.163 94018 306.624
121.279 92395 303.965
121.396 86795 294.61
121.513 77854 279.023
121.63 72688 269.607
121.747 73088 270.348
121.863 82655 287.498
121.98 90762 301.267
122.097 91300 302.159
122.213 87991 296.633
122.33 87281 295.434
122.446 91279 302.124
122.563 95448 308.947
122.679 96898 311.284
122.795 96857 311.219
122.912 97316 311.955
123.028 96343 310.392
123.144 95979 309.805
123.26 96039 309.902
123.377 0 1
123.493 0 1
123.609 0 1
123.725 0 1
123.84 0 1
123.956 0 1
124.072 0 1
124.188 0 1
124.303 0 1
124.419 0 1
126.852 0 1
126.968 0 1
127.083 0 1
127.199 0 1
127.315 0 1
127.431 0 1
127.547 0 1
127.663 0 1
127.779 0 1
127.895 0 1
128.011 0 1
128.127 0 1
128.243 0 1
128.359 136744 369.789
128.476 137063 370.22
128.592 137916 371.37
128.708 140990 375.486
128.825 140664 375.052
128.941 142721 377.784
129.058 143321 378.578
129.174 144410 380.013
129.291 145145 380.979
129.408 146537 382.802
129.524 147578 384.159
129.641 148798 385.743
129.758 150215 387.576
129.875 150822 388.358
129.992 151189 388.83
130.108 146150 382.296
130.225 136476 369.427
130.342 121631 348.756
130.459 98786 314.302
130.576 85605 292.583
130.693 84291 290.329
130.81 109084 330.279
130.928 141944 376.755
131.045 157886 397.349
131.162 164749 405.893
131.279 166709 408.3
131.396 166729 408.325
131.513 169367 411.542
131.631 169285 411.443
131.748 172411 415.224
131.865 172012 414.743
131.983 171081 413.619
132.1 174019 417.156
132.217 174679 417.946
132.335 175458 418.877
132.452 175599 419.045
132.57 176544 420.171
132.687 170690 413.146
132.804 182881 427.646
132.922 178409 422.385
133.039 179236 423.363
133.157 180594 424.964
133.274 181578 426.12
133.392 182216 426.868
133.509 180413 424.751
133.627 175484 418.908
133.744 166212 407.691
133.862 150805 388.336
133.979 134613 366.896
134.097 117538 342.838
134.214 108691 329.683
134.332 108492 329.381
134.449 135114 367.579
134.567 169778 412.041
134.684 189418 435.222
134.802 195152 441.76
134.919 197403 444.301
135.037 200031 447.248
135.154 200409 447.671
135.272 201743 449.158
135.389 200538 447.815
135.507 202208 449.675
135.624 203330 450.921
135.742 203713 451.346
135.859 204732 452.473
135.977 205219 453.011
136.094 206946 454.913
136.211 206809 454.763
136.329 208900 457.056
136.446 209156 457.336
136.564 211562 459.959
136.681 213196 461.732
136.798 211086 459.441
136.915 212479 460.954
137.033 211897 460.323
137.15 208632 456.763
137.267 199964 447.173
137.384 188505 434.172
137.502 173162 416.127
137.619 156334 395.391
137.736 144111 379.62
137.853 133967 366.015
137.97 134161 366.28
138.087 154146 392.614
138.204 179845 424.081
138.321 209820 458.061
138.438 225623 474.998
138.555 228447 477.961
138.672 230568 480.175
138.788 232336 482.012
138.905 233753 483.48
139.022 234440 484.19
139.139 235748 485.539
139.255 234574 484.328
139.372 237538 487.379
139.488 236082 485.883
139.605 236780 486.6
139.721 237963 487.815
139.838 237947 487.798
139.954 237117 486.947
140.071 234481 484.232
140.187 238967 488.843
140.303 237094 486.923
140.419 236629 486.445
140.535 235524 485.308
140.652 232989 482.689
140.768 0 1
140.884 0 1
141 0 1
141.115 0 1
141.231 0 1
141.347 0 1
141.463 0 1
141.578 0 1
141.694 0 1
144.104 0 1
144.219 0 1
144.335 0 1
144.45 0 1
144.566 0 1
144.682 0 1
144.798 0 1
144.914 0 1
145.03 0 1
145.146 233262 482.972
145.262 235360 485.139
145.378 236031 485.83
145.494 234634 484.39
145.61 231220 480.853
145.726 225142 474.491
145.842 217516 466.386
145.959 205559 453.386
146.075 193052 439.377
146.192 181691 426.252
146.308 173571 416.619
146.425 168237 410.167
146.541 167816 409.654
146.658 173782 416.872
146.774 183817 428.739
146.891 200835 448.146
147.008 220350 469.415
147.125 235911 485.707
147.241 240151 490.052
147.358 242494 492.437
147.475 241758 491.689
147.592 242724 492.67
147.709 241935 491.869
147.826 240279 490.183
147.943 242670 492.615
148.06 239328 489.212
148.177 240278 490.182
148.294 240553 490.462
148.411 239845 489.74
148.528 240373 490.278
148.645 238463 488.327
148.762 239917 489.813
148.88 238461 488.325
148.997 228907 478.442
149.114 242970 492.92
149.231 231295 480.931
149.349 226001 475.396
149.466 216047 464.809
149.583 205452 453.268
149.701 196262 443.015
149.818 187370 432.863
149.935 180704 425.093
150.053 176963 420.67
150.17 177740 421.592
150.287 182701 427.435
150.405 192110 438.304
150.522 206427 454.342
150.64 219028 468.004
150.757 232968 482.668
150.875 241800 491.732
150.992 247108 497.1
151.11 241567 491.495
151.227 245229 495.206
151.344 244969 494.943
151.462 244710 494.682
151.579 246879 496.869
151.697 246392 496.379
151.814 246603 496.591
151.932 245890 495.873
152.049 247261 497.253
152.167 247612 497.606
152.284 248339 498.336
152.402 248017 498.013
152.519 246331 496.317
152.636 247164 497.156
152.754 242733 492.679
152.871 236831 486.653
152.989 229806 479.381
153.106 222269 471.454
153.223 211010 459.358
153.341 202679 450.199
153.458 195568 442.231
153.575 190394 436.342
153.693 190400 436.348
153.81 192335 438.56
153.927 197384 444.279
154.044 209276 457.467
154.162 223305 472.552
154.279 235530 485.314
154.396 246007 495.991
154.513 255775 505.742
154.63 260136 510.035
154.747 258042 507.978
154.864 259162 509.08
154.981 259515 509.426
155.098 259819 509.724
155.215 260423 510.317
155.332 259313 509.228
155.449 259707 509.615
155.566 259731 509.638
155.683 260135 510.034
155.8 260831 510.716
155.917 261651 511.518
156.033 262451 512.3
156.15 0 1
156.267 0 1
156.383 0 1
156.5 0 1
156.617 0 1
156.733 0 1
156.85 0 1
156.966 0 1
157.082 0 1
157.199 0 1
157.315 0 1
157.431 0 1
157.547 0 1
157.664 0 1
157.78 0 1
157.896 0 1
158.012 0 1
158.128 0 1
158.244 0 1
158.359 0 1
158.475 0 1
158.591 0 1
158.706 0 1
