
6.15755 0 1
6.2731 0 1
6.3887 0 1
6.50437 0 1
6.62009 0 1
6.73587 0 1
6.8517 0 1
6.96759 0 1
7.08353 0 1
7.19952 0 1
7.31557 0 1
7.43166 0 1
7.54781 0 1
7.664 0 1
7.78024 0 1
7.89653 0 1
8.01286 0 1
8.12924 0 1
8.24567 0 1
8.36213 0 1
8.47864 0 1
8.59519 0 1
8.71178 0 1
8.82841 0 1
8.94508 0 1
9.06179 0 1
9.17853 0 1
9.29531 0 1
9.41212 0 1
9.52897 0 1
9.64584 0 1
9.76276 0 1
9.8797 0 1
9.99667 0 1
10.1137 0 1
10.2307 0 1
10.3478 0 1
10.4648 0 1
10.5819 0 1
10.6991 0 1
10.8162 0 1
10.9334 0 1
11.0506 0 1
11.1678 0 1
11.285 0 1
11.4023 0 1
11.5196 0 1
11.6369 0 1
11.7542 0 1
11.8715 0 1
11.9888 0 1
12.1062 0 1
12.2235 0 1
12.3409 0 1
12.4582 0 1
12.5756 0 1
12.693 0 1
12.8104 0 1
12.9278 0 1
13.0452 0 1
13.1626 0 1
13.28 0 1
13.3974 0 1
13.5149 0 1
13.6323 0 1
13.7497 0 1
13.8671 0 1
13.9845 0 1
14.1019 0 1
14.2193 0 1
14.3367 0 1
14.4541 0 1
14.5714 0 1
14.6888 0 1
14.8062 0 1
14.9235 0 1
15.0408 4204 64.8383
15.1581 4307 65.6277
15.2755 4446 66.6783
15.3927 4519 67.2235
15.51 4500 67.082
15.6273 4484 66.9627
15.7445 4384 66.2118
15.8617 4264 65.2993
15.9789 4449 66.7008
16.0961 4366 66.0757
16.2132 4496 67.0522
16.3304 4692 68.4982
16.4475 4693 68.5055
16.5646 4936 70.2567
16.6816 4801 69.2892
16.7986 4974 70.5266
16.9156 4984 70.5975
17.0326 5079 71.2671
17.1496 5095 71.3793
17.2665 5166 71.8749
17.3833 5141 71.7008
17.5002 5143 71.7147
17.617 5216 72.2219
17.7338 5127 71.6031
17.8505 5078 71.2601
17.9672 4952 70.3704
18.0839 4965 70.4628
18.2005 5051 71.0704
18.3171 5132 71.638
18.4337 5232 72.3326
18.5502 5528 74.3505
18.6666 5415 73.5867
18.7831 5560 74.5654
18.8994 5426 73.6614
19.0158 5423 73.641
19.1321 5091 71.3512
19.2483 5084 71.3022
19.3645 4992 70.6541
19.4806 4852 69.6563
19.5967 4679 68.4032
19.7128 4574 67.6314
19.8288 4298 65.5591
19.9447 3765 61.3596
20.0606 0 1
20.1764 0 1
20.2922 0 1
20.4079 0 1
20.5236 0 1
20.6392 0 1
20.7548 0 1
20.8702 0 1
23.3078 0 1
23.4233 0 1
23.539 0 1
23.6547 0 1
23.7704 0 1
23.8862 0 1
24.0021 0 1
24.118 0 1
24.234 0 1
24.35 0 1
24.4661 2993 54.7083
24.5822 3543 59.5231
24.6984 4135 64.304
24.8146 4685 68.4471
24.9309 5020 70.852
25.0472 5466 73.9324
25.1636 5823 76.3086
25.28 6343 79.643
25.3965 6626 81.4002
25.513 7042 83.9166
25.6296 7239 85.0823
25.7462 7240 85.0882
25.8628 7336 85.6505
25.9795 7508 86.6487
26.0962 7680 87.6356
26.213 7378 85.8953
26.3298 7346 85.7088
26.4466 7450 86.3134
26.5635 7531 86.7813
26.6804 7622 87.3041
26.7973 7434 86.2206
26.9143 7610 87.2353
27.0313 7871 88.7187
27.1483 8113 90.0722
27.2653 8295 91.0769
27.3824 8475 92.0598
27.4996 8362 91.444
27.6167 8360 91.433
27.7339 8138 90.2109
27.8511 8033 89.627
27.9683 7985 89.3588
28.0855 7763 88.1079
28.2028 7766 88.1249
28.3201 7989 89.3812
28.4374 7806 88.3516
28.5547 7971 89.2805
28.6721 7755 88.0625
28.7894 7718 87.8521
28.9068 7607 87.2181
29.0242 7563 86.9655
29.1416 7847 88.5833
29.259 7800 88.3176
29.3764 7868 88.7017
29.4939 7992 89.398
29.6113 7734 87.9432
29.7288 7859 88.651
29.8463 7928 89.0393
29.9638 7977 89.3141
30.0812 8073 89.8499
30.1987 8175 90.4157
30.3162 8303 91.1208
30.4337 8286 91.0275
30.5512 8777 93.6856
30.6687 8940 94.5516
30.7862 9040 95.0789
30.9037 9065 95.2103
31.0212 9402 96.9639
31.1387 9204 95.9375
31.2562 8993 94.8314
31.3737 9132 95.5615
31.4912 8809 93.8563
31.6087 8771 93.6536
31.7262 8884 94.255
31.8436 8846 94.0532
31.9611 8705 93.3006
32.0785 8705 93.3006
32.1959 8621 92.8493
32.3134 8609 92.7847
32.4308 8637 92.9355
32.5482 8677 93.1504
32.6655 8882 94.2444
32.7829 8722 93.3916
32.9002 8733 93.4505
33.0176 8813 93.8776
33.1349 8759 93.5895
33.2522 8796 93.787
33.3694 8861 94.1329
33.4867 9097 95.3782
33.6039 8986 94.7945
33.7211 9339 96.6385
33.8383 9243 96.1405
33.9554 9432 97.1185
34.0725 9690 98.4378
34.1896 9888 99.4384
34.3067 10388 101.922
34.4237 10420 102.078
34.5407 10799 103.918
34.6577 10799 103.918
34.7746 10758 103.721
34.8915 10791 103.88
35.0084 10542 102.674
35.1252 10417 102.064
35.242 10399 101.975
35.3587 10591 102.913
35.4755 10553 102.728
35.5921 10554 102.733
35.7088 10120 100.598
35.8254 9922 99.6092
35.9419 9511 97.5244
36.0584 9423 97.0721
36.1749 9123 95.5144
36.2913 8847 94.0585
36.4077 8703 93.2899
36.524 8669 93.1075
36.6403 8426 91.7932
36.7565 8471 92.038
36.8727 8227 90.7028
36.9889 8223 90.6808
37.1049 7658 87.51
37.221 0 1
37.3369 0 1
37.4529 0 1
37.5687 0 1
37.6845 0 1
37.8003 0 1
37.916 0 1
38.0316 0 1
38.1472 0 1
40.5851 0 1
40.7008 0 1
40.8164 0 1
40.9322 0 1
41.048 0 1
41.1639 0 1
41.2798 0 1
41.3958 0 1
41.5118 0 1
41.6279 0 1
41.744 6271 79.1896
41.8602 6985 83.5763
41.9765 7650 87.4643
42.0928 8405 91.6788
42.2091 9376 96.8297
42.3255 10475 102.347
42.4419 11126 105.48
42.5584 11570 107.564
42.675 12139 110.177
42.7915 12719 112.779
42.9081 13509 116.228
43.0248 14637 120.983
43.1415 15243 123.463
43.2582 15892 126.063
43.375 16446 128.242
43.4918 16617 128.907
43.6087 16626 128.942
43.7256 16813 129.665
43.8425 16488 128.406
43.9595 15999 126.487
44.0765 16372 127.953
44.1935 16735 129.364
44.3106 16939 130.15
44.4277 16578 128.756
44.5448 15882 126.024
44.6619 15629 125.016
44.7791 14961 122.315
44.8963 14404 120.017
45.0136 13572 116.499
45.1308 13502 116.198
45.2481 13616 116.688
45.3654 13466 116.043
45.4827 13749 117.256
45.6001 14519 120.495
45.7174 15555 124.72
45.8348 16295 127.652
45.9522 17235 131.282
46.0697 17389 131.867
46.1871 17636 132.801
46.3046 17450 132.098
46.422 17983 134.101
46.5395 18457 135.857
46.657 19354 139.119
46.7745 19479 139.567
46.892 20034 141.542
47.0096 20042 141.57
47.1271 20682 143.812
47.2446 20638 143.659
47.3622 20347 142.643
47.4797 19878 140.989
47.5973 19491 139.61
47.7149 19726 140.449
47.8324 20233 142.243
47.95 19988 141.379
48.0675 18937 137.612
48.1851 18454 135.846
48.3027 17354 131.735
48.4202 15550 124.7
48.5378 14594 120.806
48.6554 13974 118.212
48.7729 13836 117.627
48.8904 14002 118.33
49.008 14140 118.912
49.1255 14816 121.721
49.243 16100 126.886
49.3605 17529 132.397
49.478 18138 134.677
49.5955 18258 135.122
49.713 18366 135.521
49.8304 18276 135.189
49.9479 18322 135.359
50.0653 18777 137.029
50.1827 19432 139.399
50.3001 19640 140.143
50.4175 19972 141.322
50.5348 20511 143.217
50.6521 19988 141.379
50.7694 20187 142.081
50.8867 19967 141.305
51.004 19401 139.287
51.1212 18877 137.394
51.2384 19371 139.18
51.3556 19337 139.058
51.4727 19061 138.062
51.5899 18425 135.739
51.707 17603 132.676
51.824 16323 127.761
51.9411 14773 121.544
52.0581 13643 116.803
52.175 12664 112.534
52.2919 12491 111.763
52.4088 12396 111.337
52.5257 12624 112.357
52.6425 13166 114.743
52.7593 13407 115.789
52.876 14333 119.721
52.9927 15126 122.988
53.1094 15042 122.646
53.226 14548 120.615
53.3426 14090 118.701
53.4591 13575 116.512
53.5756 13067 114.311
53.692 12901 113.583
53.8084 12568 112.107
53.9248 12165 110.295
54.0411 11471 107.103
54.1573 10815 103.995
54.2735 0 1
54.3896 0 1
54.5057 0 1
54.6217 0 1
54.7377 0 1
54.8537 0 1
54.9695 0 1
55.0853 0 1
55.2011 0 1
55.3168 0 1
55.4324 0 1
57.824 0 1
57.9396 0 1
58.0553 0 1
58.1711 0 1
58.2869 0 1
58.4028 0 1
58.5187 0 1
58.6347 0 1
58.7508 0 1
58.8669 0 1
58.983 10363 101.799
59.0992 11297 106.287
59.2155 12294 110.878
59.3318 12888 113.525
59.4482 13294 115.3
59.5646 13914 117.958
59.681 14280 119.499
59.7975 14702 121.252
59.9141 14961 122.315
60.0306 15634 125.036
60.1473 15261 123.535
60.2639 15191 123.252
60.3807 14582 120.756
60.4974 13434 115.905
60.6142 12449 111.575
60.731 10973 104.752
60.8479 9742 98.7016
60.9648 9234 96.0937
61.0818 9172 95.7706
61.1987 9708 98.5292
61.3158 10293 101.454
61.4328 11576 107.592
61.5499 13078 114.359
61.667 14038 118.482
61.7841 14464 120.266
61.9013 14314 119.641
62.0185 14191 119.126
62.1357 14065 118.596
62.253 14185 119.101
62.3702 14679 121.157
62.4875 14715 121.305
62.6049 14769 121.528
62.7222 14998 122.466
62.8396 14930 122.188
62.9569 15008 122.507
63.0743 14787 121.602
63.1918 14225 119.269
63.3092 14158 118.987
63.4267 14228 119.281
63.5441 14131 118.874
63.6616 14264 119.432
63.7791 13806 117.499
63.8966 12920 113.666
64.0142 11902 109.096
64.1317 10606 102.985
64.2492 9419 97.0515
64.3668 8256 90.8625
64.4843 7448 86.3018
64.6019 7351 85.738
64.7195 7519 86.7122
64.837 8462 91.9891
64.9546 9559 97.7701
65.0722 10940 104.594
65.1898 11653 107.949
65.3074 12512 111.857
65.4249 12354 111.149
65.5425 12260 110.725
65.6601 12131 110.141
65.7777 12036 109.709
65.8952 12291 110.865
66.0128 12566 112.098
66.1304 12740 112.872
66.2479 12630 112.383
66.3655 12729 112.823
66.483 12760 112.96
66.6005 12713 112.752
66.718 12595 112.227
66.8355 12214 110.517
66.953 11984 109.471
67.0705 12380 111.265
67.1879 12406 111.382
67.3054 12306 110.932
67.4228 11949 109.311
67.5402 10992 104.843
67.6576 9965 99.8248
67.7749 8950 94.6044
67.8923 7531 86.7813
68.0096 6798 82.45
68.1269 6156 78.4602
68.2442 5965 77.2334
68.3614 6329 79.555
68.4787 7116 84.3564
68.5958 8195 90.5262
68.713 9502 97.4782
68.8302 10613 103.019
68.9473 11097 105.342
69.0643 10778 103.817
69.1814 10829 104.062
69.2984 10235 101.168
69.4154 9909 99.544
69.5323 9804 99.0152
69.6492 9829 99.1413
69.7661 9811 99.0505
69.8829 9685 98.4124
69.9997 9815 99.0707
70.1165 9698 98.4784
70.2332 9425 97.0824
70.3499 9096 95.373
70.4665 8623 92.8601
70.5831 8130 90.1665
70.6996 7791 88.2666
70.8161 7690 87.6926
70.9326 7462 86.3829
71.049 6943 83.3247
71.1653 6291 79.3158
71.2817 5574 74.6592
71.3979 5037 70.9718
71.5141 4058 63.7024
71.6303 3078 55.4797
71.7464 2139 46.2493
71.8624 0 1
71.9784 0 1
72.0944 0 1
72.2102 0 1
72.3261 0 1
72.4418 0 1
72.5575 0 1
72.6732 0 1
75.1054 0 1
75.2209 0 1
75.3365 0 1
75.4521 0 1
75.5678 0 1
75.6835 0 1
75.7993 0 1
75.9151 0 1
76.031 0 1
76.147 6573 81.074
76.263 7055 83.994
76.3791 7021 83.7914
76.4952 6724 82
76.6113 6305 79.404
76.7276 5849 76.4788
76.8438 5505 74.1957
76.9601 4861 69.7209
77.0765 4454 66.7383
77.1929 4360 66.0303
77.3093 4409 66.4003
77.4258 5030 70.9225
77.5423 6096 78.0769
77.6589 7307 85.481
77.7755 8328 91.2579
77.8921 8958 94.6467
78.0088 8875 94.2072
78.1256 8514 92.2713
78.2423 8412 91.717
78.3591 8421 91.766
78.4759 8336 91.3017
78.5928 8739 93.4826
78.7097 8986 94.7945
78.8266 8746 93.5201
78.9436 9398 96.9433
79.0606 9137 95.5877
79.1776 9275 96.3068
79.2946 9146 95.6347
79.4117 9340 96.6437
79.5288 9056 95.163
79.6459 9003 94.8841
79.7631 9084 95.31
79.8802 9322 96.5505
79.9974 9380 96.8504
80.1147 8722 93.3916
80.2319 8193 90.5152
80.3491 7332 85.6271
80.4664 6578 81.1049
80.5837 5580 74.6994
80.701 4674 68.3667
80.8183 4351 65.9621
80.9357 4149 64.4127
81.053 4703 68.5784
81.1704 5291 72.7393
81.2877 6656 81.5843
81.4051 7904 88.9044
81.5225 8763 93.6109
81.6399 8950 94.6044
81.7573 8965 94.6837
81.8747 8419 91.7551
81.9922 8349 91.3729
82.1096 8450 91.9239
82.227 8592 92.693
82.3444 8780 93.7017
82.4619 9070 95.2365
82.5793 9099 95.3887
82.6967 9324 96.5609
82.8142 9382 96.8607
82.9316 9216 96
83.049 9212 95.9792
83.1664 8960 94.6573
83.2838 8924 94.4669
83.4012 9078 95.2785
83.5186 9421 97.0618
83.636 8948 94.5939
83.7534 8478 92.0761
83.8708 7589 87.1149
83.9881 7053 83.9821
84.1055 6573 81.074
84.2228 5814 76.2496
84.3401 5138 71.6798
84.4575 4812 69.3686
84.5747 4643 68.1396
84.692 5068 71.1899
84.8093 6219 78.8606
84.9265 7500 86.6025
85.0437 8658 93.0484
85.1609 9584 97.8979
85.2781 9908 99.5389
85.3952 9515 97.5449
85.5123 9323 96.5557
85.6294 9247 96.1613
85.7465 9573 97.8417
85.8636 10177 100.881
85.9806 10256 101.272
86.0976 10631 103.107
86.2145 10508 102.509
86.3315 11177 105.721
86.4484 10350 101.735
86.5652 10402 101.99
86.682 10018 100.09
86.7988 9939 99.6945
86.9156 9444 97.1802
87.0323 9851 99.2522
87.149 9376 96.8297
87.2657 8973 94.7259
87.3823 8355 91.4057
87.4988 7528 86.764
87.6154 7085 84.1724
87.7318 6718 81.9634
87.8483 5739 75.7562
87.9647 4634 68.0735
88.081 4295 65.5362
88.1973 4015 63.364
88.3136 4183 64.6761
88.4298 5038 70.9789
88.546 6022 77.6015
88.6621 6847 82.7466
88.7781 7554 86.9138
88.8942 0 1
89.0101 0 1
89.126 0 1
89.2419 0 1
89.3577 0 1
89.4734 0 1
89.5891 0 1
89.7047 0 1
89.8203 0 1
89.9358 0 1
92.3269 0 1
92.4424 0 1
92.558 0 1
92.6736 0 1
92.7893 0 1
92.905 0 1
93.0208 0 1
93.1366 0 1
93.2525 0 1
93.3685 0 1
93.4845 0 1
93.6005 6577 81.0987
93.7167 7235 85.0588
93.8328 8578 92.6175
93.949 10044 100.22
94.0653 11695 108.143
94.1816 12784 113.066
94.2979 13595 116.598
94.4143 14361 119.837
94.5307 14896 122.049
94.6472 15738 125.451
94.7637 16711 129.271
94.8803 17226 131.248
94.9969 17658 132.883
95.1135 17753 133.24
95.2302 18118 134.603
95.3469 17844 133.581
95.4637 18354 135.477
95.5805 18011 134.205
95.6973 17854 133.619
95.8142 17347 131.708
95.9311 16846 129.792
96.048 16886 129.946
96.1649 16261 127.519
96.2819 15934 126.23
96.3989 15055 122.699
96.516 14387 119.946
96.633 13364 115.603
96.7501 12508 111.839
96.8673 11606 107.731
96.9844 10914 104.47
97.1016 9946 99.7296
97.2188 9471 97.3191
97.336 9584 97.8979
97.4532 10415 102.054
97.5704 12222 110.553
97.6877 14012 118.372
97.805 16177 127.189
97.9223 17836 133.551
98.0396 19201 138.568
98.1569 19880 140.996
98.2743 20804 144.236
98.3916 21834 147.763
98.509 23052 151.829
98.6264 23278 152.571
98.7438 23656 153.805
98.8612 23307 152.666
98.9786 22972 151.565
99.096 23447 153.124
99.2134 22741 150.801
99.3308 21868 147.878
99.4482 21164 145.479
99.5656 20447 142.993
99.6831 19748 140.528
99.8005 19567 139.882
99.9179 18591 136.349
100.035 17487 132.238
100.153 16153 127.094
100.27 14716 121.31
100.388 13081 114.372
100.505 11600 107.703
100.622 10365 101.809
100.74 9961 99.8048
100.857 9932 99.6594
100.975 10426 102.108
101.092 11996 109.526
101.209 14200 119.164
101.327 16728 129.337
101.444 18379 135.569
101.561 19703 140.367
101.679 21105 145.276
101.796 21320 146.014
101.913 21943 148.132
102.03 22488 149.96
102.148 23401 152.974
102.265 23262 152.519
102.382 22588 150.293
102.499 22202 149.003
102.616 22255 149.181
102.733 21846 147.804
102.851 21015 144.966
102.968 20681 143.809
103.085 19877 140.986
103.202 19376 139.198
103.319 18927 137.575
103.436 18610 136.418
103.552 18089 134.495
103.669 16745 129.402
103.786 15156 123.11
103.903 13704 117.064
104.02 12244 110.653
104.137 10917 104.484
104.253 9958 99.7898
104.37 9261 96.2341
104.487 9696 98.4683
104.603 10600 102.956
104.72 11708 108.204
104.836 13181 114.809
104.953 14228 119.281
105.069 14250 119.373
105.186 14014 118.381
105.302 13442 115.94
105.418 12718 112.774
105.535 11953 109.33
105.651 11233 105.986
105.767 10427 102.113
105.883 9867 99.3328
105.999 9005 94.8947
106.115 0 1
106.231 0 1
106.347 0 1
106.463 0 1
106.579 0 1
106.694 0 1
106.81 0 1
106.926 0 1
107.041 0 1
107.157 0 1
109.576 0 1
109.692 0 1
109.807 0 1
109.923 0 1
110.039 0 1
110.155 0 1
110.27 0 1
110.386 0 1
110.502 0 1
110.618 9482 97.3756
110.735 10771 103.783
110.851 12248 110.671
110.967 13044 114.21
111.083 14139 118.908
111.199 14742 121.417
111.316 15451 124.302
111.432 16000 126.491
111.549 16465 128.316
111.665 16659 129.07
111.782 16629 128.953
111.898 16915 130.058
112.015 17244 131.316
112.132 17783 133.353
112.248 16870 129.885
112.365 15395 124.077
112.482 13964 118.169
112.599 12286 110.842
112.716 10723 103.552
112.832 9379 96.8452
112.949 8725 93.4077
113.066 8721 93.3863
113.183 9254 96.1977
113.3 10409 102.025
113.417 12748 112.907
113.534 14427 120.112
113.652 16088 126.838
113.769 16697 129.217
113.886 16349 127.863
114.003 15776 125.603
114.12 15610 124.94
114.238 15574 124.796
114.355 16147 127.071
114.472 16859 129.842
114.589 16483 128.386
114.707 17267 131.404
114.824 17312 131.575
114.942 17286 131.476
115.059 17281 131.457
115.176 17305 131.548
115.294 16791 129.58
115.411 16660 129.074
115.529 17089 130.725
115.646 17169 131.031
115.764 16774 129.514
115.881 15904 126.111
115.999 14348 119.783
116.116 12912 113.631
116.234 11395 106.747
116.351 10281 101.395
116.469 9227 96.0573
116.586 8955 94.6309
116.704 9018 94.9632
116.821 9555 97.7497
116.939 11168 105.679
117.056 13003 114.031
117.174 14186 119.105
117.291 15338 123.847
117.409 15436 124.242
117.526 15186 123.231
117.644 14929 122.184
117.761 14749 121.445
117.879 15009 122.511
117.996 15372 123.984
118.114 15757 125.527
118.231 15618 124.972
118.349 16000 126.491
118.466 15833 125.829
118.584 15866 125.96
118.701 15944 126.27
118.819 15859 125.933
118.936 15382 124.024
119.053 15313 123.746
119.171 15612 124.948
119.288 15531 124.623
119.405 15572 124.788
119.523 14744 121.425
119.64 13561 116.452
119.757 12266 110.752
119.875 10799 103.918
119.992 9721 98.5951
120.109 8958 94.6467
120.226 8808 93.8509
120.343 8740 93.488
120.46 9050 95.1315
120.578 10089 100.444
120.695 11025 105
120.812 12436 111.517
120.929 13117 114.529
121.046 13439 115.927
121.163 12938 113.745
121.279 12623 112.352
121.396 12196 110.436
121.513 11987 109.485
121.63 12155 110.25
121.747 12150 110.227
121.863 12114 110.064
121.98 11989 109.494
122.097 12115 110.068
122.213 11728 108.296
122.33 11192 105.792
122.446 10776 103.808
122.563 10475 102.347
122.679 9666 98.3158
122.795 9376 96.8297
122.912 9182 95.8228
123.028 8593 92.6984
123.144 7924 89.0169
123.26 7029 83.8391
123.377 0 1
123.493 0 1
123.609 0 1
123.725 0 1
123.84 0 1
123.956 0 1
124.072 0 1
124.188 0 1
124.303 0 1
124.419 0 1
126.852 0 1
126.968 0 1
127.083 0 1
127.199 0 1
127.315 0 1
127.431 0 1
127.547 0 1
127.663 0 1
127.779 0 1
127.895 0 1
128.011 0 1
128.127 0 1
128.243 0 1
128.359 14339 119.746
128.476 14725 121.347
128.592 14568 120.698
128.708 14121 118.832
128.825 13152 114.682
128.941 12239 110.63
129.058 11441 106.963
129.174 10867 104.245
129.291 10446 102.206
129.408 10605 102.981
129.524 10390 101.931
129.641 11226 105.953
129.758 12035 109.704
129.875 13228 115.013
129.992 13967 118.182
130.108 14124 118.844
130.225 14186 119.105
130.342 14300 119.583
130.459 14040 118.491
130.576 14658 121.07
130.693 14977 122.381
130.81 15123 122.976
130.928 15523 124.591
131.045 15849 125.893
131.162 15915 126.155
131.279 15923 126.186
131.396 16051 126.693
131.513 15598 124.892
131.631 15653 125.112
131.748 15508 124.531
131.865 15442 124.266
131.983 15527 124.607
132.1 15272 123.58
132.217 14759 121.487
132.335 13884 117.83
132.452 13074 114.342
132.57 12290 110.86
132.687 11475 107.121
132.804 11530 107.378
132.922 11040 105.071
133.039 11136 105.527
133.157 11089 105.304
133.274 11693 108.134
133.392 12501 111.808
133.509 13218 114.97
133.627 13527 116.306
133.744 13880 117.813
133.862 13801 117.478
133.979 13636 116.773
134.097 13977 118.224
134.214 14122 118.836
134.332 14524 120.516
134.449 14991 122.438
134.567 15316 123.758
134.684 15337 123.843
134.802 15236 123.434
134.919 15563 124.752
135.037 15507 124.527
135.154 15131 123.008
135.272 14706 121.268
135.389 14812 121.705
135.507 14911 122.111
135.624 14935 122.209
135.742 14421 120.087
135.859 14008 118.355
135.977 13420 115.845
136.094 12756 112.942
136.211 12226 110.571
136.329 11650 107.935
136.446 11566 107.545
136.564 11537 107.41
136.681 11377 106.663
136.798 11309 106.344
136.915 11726 108.287
137.033 12015 109.613
137.15 12497 111.79
137.267 12989 113.969
137.384 13051 114.241
137.502 13005 114.039
137.619 13098 114.446
137.736 13087 114.398
137.853 13185 114.826
137.97 14043 118.503
138.087 14034 118.465
138.204 14315 119.645
138.321 14266 119.44
138.438 14088 118.693
138.555 14137 118.899
138.672 13586 116.559
138.788 13193 114.861
138.905 12476 111.696
139.022 11938 109.261
139.139 11685 108.097
139.255 11386 106.705
139.372 10850 104.163
139.488 10299 101.484
139.605 9356 96.7264
139.721 8641 92.957
139.838 8048 89.7106
139.954 7391 85.9709
140.071 7013 83.7437
140.187 6510 80.6846
140.303 6061 77.8524
140.419 5542 74.4446
140.535 5072 71.218
140.652 4829 69.491
140.768 0 1
140.884 0 1
141 0 1
141.115 0 1
141.231 0 1
141.347 0 1
141.463 0 1
141.578 0 1
141.694 0 1
144.104 0 1
144.219 0 1
144.335 0 1
144.45 0 1
144.566 0 1
144.682 0 1
144.798 0 1
144.914 0 1
145.03 0 1
145.146 8613 92.8062
145.262 9020 94.9737
145.378 9106 95.4254
145.494 9064 95.205
145.61 9122 95.5092
145.726 9258 96.2185
145.842 9486 97.3961
145.959 9446 97.1905
146.075 9401 96.9588
146.192 9476 97.3447
146.308 9366 96.7781
146.425 9292 96.395
146.541 9532 97.632
146.658 9855 99.2724
146.774 10338 101.676
146.891 10572 102.82
147.008 10761 103.735
147.125 10899 104.398
147.241 10836 104.096
147.358 11139 105.541
147.475 11048 105.109
147.592 10852 104.173
147.709 10651 103.204
147.826 10443 102.191
147.943 10594 102.927
148.06 10697 103.426
148.177 10385 101.907
148.294 10280 101.39
148.411 10371 101.838
148.528 10200 100.995
148.645 9908 99.5389
148.762 10035 100.175
148.88 9993 99.965
148.997 10409 102.025
149.114 9909 99.544
149.231 9843 99.2119
149.349 9669 98.3311
149.466 9636 98.1631
149.583 9465 97.2882
149.701 9547 97.7088
149.818 9464 97.2831
149.935 9559 97.7701
150.053 9509 97.5141
150.17 9589 97.9234
150.287 9520 97.5705
150.405 9964 99.8198
150.522 10347 101.72
150.64 10780 103.827
150.757 10761 103.735
150.875 10999 104.876
150.992 11104 105.376
151.11 11051 105.124
151.227 10981 104.79
151.344 10630 103.102
151.462 10555 102.738
151.579 10171 100.851
151.697 10265 101.316
151.814 10522 102.577
151.932 10255 101.267
152.049 10012 100.06
152.167 10055 100.275
152.284 10203 101.01
152.402 10126 100.628
152.519 10261 101.297
152.636 9956 99.7798
152.754 9871 99.3529
152.871 9862 99.3076
152.989 9519 97.5654
153.106 9800 98.9949
153.223 9604 98
153.341 9521 97.5756
153.458 9306 96.4676
153.575 9245 96.1509
153.693 9214 95.9896
153.81 9035 95.0526
153.927 9151 95.6609
154.044 9741 98.6965
154.162 9757 98.7775
154.279 10209 101.04
154.396 10488 102.411
154.513 10497 102.455
154.63 10485 102.396
154.747 10505 102.494
154.864 10514 102.538
154.981 10072 100.359
155.098 9722 98.6002
155.215 9830 99.1464
155.332 9732 98.6509
155.449 9538 97.6627
155.566 9574 97.8468
155.683 9452 97.2214
155.8 9190 95.8645
155.917 9096 95.373
156.033 8927 94.4828
156.15 0 1
156.267 0 1
156.383 0 1
156.5 0 1
156.617 0 1
156.733 0 1
156.85 0 1
156.966 0 1
157.082 0 1
157.199 0 1
157.315 0 1
157.431 0 1
157.547 0 1
157.664 0 1
157.78 0 1
157.896 0 1
158.012 0 1
158.128 0 1
158.244 0 1
158.359 0 1
158.475 0 1
158.591 0 1
158.706 0 1
