
6.15755 0 1
6.2731 0 1
6.3887 0 1
6.50437 0 1
6.62009 0 1
6.73587 0 1
6.8517 0 1
6.96759 0 1
7.08353 0 1
7.19952 0 1
7.31557 0 1
7.43166 0 1
7.54781 0 1
7.664 0 1
7.78024 0 1
7.89653 0 1
8.01286 0 1
8.12924 0 1
8.24567 0 1
8.36213 0 1
8.47864 0 1
8.59519 0 1
8.71178 0 1
8.82841 0 1
8.94508 0 1
9.06179 0 1
9.17853 0 1
9.29531 0 1
9.41212 0 1
9.52897 0 1
9.64584 0 1
9.76276 0 1
9.8797 0 1
9.99667 0 1
10.1137 0 1
10.2307 0 1
10.3478 0 1
10.4648 0 1
10.5819 0 1
10.6991 0 1
10.8162 0 1
10.9334 0 1
11.0506 0 1
11.1678 0 1
11.285 0 1
11.4023 0 1
11.5196 0 1
11.6369 0 1
11.7542 0 1
11.8715 0 1
11.9888 0 1
12.1062 0 1
12.2235 0 1
12.3409 0 1
12.4582 0 1
12.5756 0 1
12.693 0 1
12.8104 0 1
12.9278 0 1
13.0452 0 1
13.1626 0 1
13.28 0 1
13.3974 0 1
13.5149 0 1
13.6323 0 1
13.7497 0 1
13.8671 0 1
13.9845 0 1
14.1019 0 1
14.2193 0 1
14.3367 0 1
14.4541 0 1
14.5714 0 1
14.6888 0 1
14.8062 0 1
14.9235 0 1
15.0408 0 0
15.1581 0 0
15.2755 0 0
15.3927 0 0
15.51 0 0
15.6273 0 0
15.7445 0 0
15.8617 0 0
15.9789 0 0
16.0961 0 0
16.2132 0 0
16.3304 0 0
16.4475 0 0
16.5646 0 0
16.6816 0 0
16.7986 0 0
16.9156 0 0
17.0326 0 0
17.1496 0 0
17.2665 0 0
17.3833 0 0
17.5002 0 0
17.617 0 0
17.7338 0 0
17.8505 0 0
17.9672 0 0
18.0839 0 0
18.2005 0 0
18.3171 0 0
18.4337 0 0
18.5502 0 0
18.6666 0 0
18.7831 0 0
18.8994 0 0
19.0158 0 0
19.1321 0 0
19.2483 0 0
19.3645 0 0
19.4806 0 0
19.5967 0 0
19.7128 0 0
19.8288 0 0
19.9447 0 0
20.0606 0 1
20.1764 0 1
20.2922 0 1
20.4079 0 1
20.5236 0 1
20.6392 0 1
20.7548 0 1
20.8702 0 1
23.3078 0 1
23.4233 0 1
23.539 0 1
23.6547 0 1
23.7704 0 1
23.8862 0 1
24.0021 0 1
24.118 0 1
24.234 0 1
24.35 0 1
24.4661 1163 34.1028
24.5822 1101 33.1813
24.6984 1116 33.4066
24.8146 1130 33.6155
24.9309 1137 33.7194
25.0472 1084 32.9242
25.1636 1108 33.2866
25.28 1121 33.4813
25.3965 1065 32.6343
25.513 1164 34.1174
25.6296 1206 34.7275
25.7462 1255 35.426
25.8628 1276 35.7211
25.9795 1253 35.3977
26.0962 1333 36.5103
26.213 1291 35.9305
26.3298 1212 34.8138
26.4466 1286 35.8608
26.5635 1184 34.4093
26.6804 1163 34.1028
26.7973 1183 34.3948
26.9143 1220 34.9285
27.0313 1214 34.8425
27.1483 1288 35.8887
27.2653 1262 35.5246
27.3824 1292 35.9444
27.4996 1322 36.3593
27.6167 1259 35.4824
27.7339 1256 35.4401
27.8511 1268 35.609
27.9683 1228 35.0428
28.0855 1208 34.7563
28.2028 1179 34.3366
28.3201 1103 33.2114
28.4374 1123 33.5112
28.5547 1087 32.9697
28.6721 1050 32.4037
28.7894 1037 32.2025
28.9068 1098 33.1361
29.0242 1029 32.078
29.1416 1053 32.45
29.259 1118 33.4365
29.3764 1112 33.3467
29.4939 1224 34.9857
29.6113 1171 34.2199
29.7288 1222 34.9571
29.8463 1216 34.8712
29.9638 1219 34.9142
30.0812 1127 33.5708
30.1987 1068 32.6803
30.3162 1073 32.7567
30.4337 1078 32.8329
30.5512 1148 33.8821
30.6687 1152 33.9411
30.7862 1186 34.4384
30.9037 1164 34.1174
31.0212 1158 34.0294
31.1387 1256 35.4401
31.2562 1145 33.8378
31.3737 1214 34.8425
31.4912 1156 34
31.6087 1123 33.5112
31.7262 1093 33.0606
31.8436 1142 33.7935
31.9611 1039 32.2335
32.0785 1052 32.4345
32.1959 969 31.1288
32.3134 982 31.3369
32.4308 1003 31.6702
32.5482 1066 32.6497
32.6655 1042 32.28
32.7829 1091 33.0303
32.9002 1127 33.5708
33.0176 1173 34.2491
33.1349 1132 33.6452
33.2522 1137 33.7194
33.3694 1147 33.8674
33.4867 1175 34.2783
33.6039 1128 33.5857
33.7211 1127 33.5708
33.8383 1039 32.2335
33.9554 1000 31.6228
34.0725 1049 32.3883
34.1896 1073 32.7567
34.3067 1129 33.6006
34.4237 1127 33.5708
34.5407 1133 33.6601
34.6577 1205 34.7131
34.7746 1166 34.1467
34.8915 1129 33.6006
35.0084 1182 34.3802
35.1252 1173 34.2491
35.242 1130 33.6155
35.3587 1030 32.0936
35.4755 1052 32.4345
35.5921 1035 32.1714
35.7088 1010 31.7805
35.8254 1011 31.7962
35.9419 967 31.0966
36.0584 955 30.9031
36.1749 944 30.7246
36.2913 982 31.3369
36.4077 1037 32.2025
36.524 1060 32.5576
36.6403 1016 31.8748
36.7565 1097 33.121
36.8727 1067 32.665
36.9889 1102 33.1964
37.1049 1024 32
37.221 0 1
37.3369 0 1
37.4529 0 1
37.5687 0 1
37.6845 0 1
37.8003 0 1
37.916 0 1
38.0316 0 1
38.1472 0 1
40.5851 0 1
40.7008 0 1
40.8164 0 1
40.9322 0 1
41.048 0 1
41.1639 0 1
41.2798 0 1
41.3958 0 1
41.5118 0 1
41.6279 0 1
41.744 829 28.7924
41.8602 835 28.8964
41.9765 839 28.9655
42.0928 902 30.0333
42.2091 932 30.5287
42.3255 952 30.8545
42.4419 811 28.4781
42.5584 824 28.7054
42.675 804 28.3549
42.7915 761 27.5862
42.9081 811 28.4781
43.0248 811 28.4781
43.1415 850 29.1548
43.2582 885 29.7489
43.375 816 28.5657
43.4918 896 29.9333
43.6087 871 29.5127
43.7256 861 29.3428
43.8425 790 28.1069
43.9595 794 28.178
44.0765 844 29.0517
44.1935 798 28.2489
44.3106 757 27.5136
44.4277 753 27.4408
44.5448 666 25.807
44.6619 644 25.3772
44.7791 627 25.04
44.8963 572 23.9165
45.0136 605 24.5967
45.1308 664 25.7682
45.2481 617 24.8395
45.3654 625 25
45.4827 686 26.1916
45.6001 644 25.3772
45.7174 658 25.6515
45.8348 640 25.2982
45.9522 648 25.4558
46.0697 598 24.454
46.1871 580 24.0832
46.3046 537 23.1733
46.422 528 22.9783
46.5395 571 23.8956
46.657 594 24.3721
46.7745 615 24.7992
46.892 625 25
47.0096 647 25.4362
47.1271 580 24.0832
47.2446 606 24.6171
47.3622 609 24.6779
47.4797 577 24.0208
47.5973 620 24.8998
47.7149 570 23.8747
47.8324 581 24.1039
47.95 524 22.891
48.0675 491 22.1585
48.1851 468 21.6333
48.3027 454 21.3073
48.4202 468 21.6333
48.5378 442 21.0238
48.6554 442 21.0238
48.7729 475 21.7945
48.8904 460 21.4476
49.008 538 23.1948
49.1255 530 23.0217
49.243 523 22.8692
49.3605 518 22.7596
49.478 463 21.5174
49.5955 456 21.3542
49.713 430 20.7364
49.8304 461 21.4709
49.9479 441 21
50.0653 497 22.2935
50.1827 544 23.3238
50.3001 552 23.4947
50.4175 587 24.2281
50.5348 617 24.8395
50.6521 620 24.8998
50.7694 607 24.6374
50.8867 631 25.1197
51.004 648 25.4558
51.1212 618 24.8596
51.2384 628 25.0599
51.3556 678 26.0384
51.4727 617 24.8395
51.5899 596 24.4131
51.707 573 23.9374
51.824 583 24.1454
51.9411 583 24.1454
52.0581 653 25.5539
52.175 619 24.8797
52.2919 660 25.6905
52.4088 717 26.7769
52.5257 744 27.2764
52.6425 784 28
52.7593 811 28.4781
52.876 798 28.2489
52.9927 776 27.8568
53.1094 789 28.0891
53.226 735 27.1109
53.3426 688 26.2298
53.4591 675 25.9808
53.5756 713 26.7021
53.692 810 28.4605
53.8084 880 29.6648
53.9248 887 29.7825
54.0411 950 30.8221
54.1573 955 30.9031
54.2735 0 1
54.3896 0 1
54.5057 0 1
54.6217 0 1
54.7377 0 1
54.8537 0 1
54.9695 0 1
55.0853 0 1
55.2011 0 1
55.3168 0 1
55.4324 0 1
57.824 0 1
57.9396 0 1
58.0553 0 1
58.1711 0 1
58.2869 0 1
58.4028 0 1
58.5187 0 1
58.6347 0 1
58.7508 0 1
58.8669 0 1
58.983 985 31.3847
59.0992 1048 32.3728
59.2155 1061 32.573
59.3318 1101 33.1813
59.4482 1198 34.6121
59.5646 1166 34.1467
59.681 1202 34.6699
59.7975 1110 33.3167
59.9141 1086 32.9545
60.0306 1104 33.2265
60.1473 1012 31.8119
60.2639 995 31.5436
60.3807 878 29.6311
60.4974 841 29
60.6142 828 28.775
60.731 893 29.8831
60.8479 883 29.7153
60.9648 1023 31.9844
61.0818 938 30.6268
61.1987 939 30.6431
61.3158 943 30.7083
61.4328 964 31.0483
61.5499 976 31.241
61.667 915 30.249
61.7841 852 29.189
61.9013 829 28.7924
62.0185 774 27.8209
62.1357 848 29.1204
62.253 885 29.7489
62.3702 969 31.1288
62.4875 1082 32.8938
62.6049 1044 32.311
62.7222 1051 32.4191
62.8396 1084 32.9242
62.9569 1098 33.1361
63.0743 1164 34.1174
63.1918 1106 33.2566
63.3092 1124 33.5261
63.4267 1134 33.6749
63.5441 1011 31.7962
63.6616 979 31.289
63.7791 940 30.6594
63.8966 910 30.1662
64.0142 870 29.4958
64.1317 915 30.249
64.2492 958 30.9516
64.3668 916 30.2655
64.4843 969 31.1288
64.6019 994 31.5278
64.7195 974 31.209
64.837 1046 32.3419
64.9546 1002 31.6544
65.0722 1033 32.1403
65.1898 989 31.4484
65.3074 915 30.249
65.4249 830 28.8097
65.5425 811 28.4781
65.6601 831 28.8271
65.7777 894 29.8998
65.8952 999 31.607
66.0128 996 31.5595
66.1304 1079 32.8481
66.2479 1134 33.6749
66.3655 1108 33.2866
66.483 1132 33.6452
66.6005 1138 33.7343
66.718 1106 33.2566
66.8355 1158 34.0294
66.953 1123 33.5112
67.0705 1000 31.6228
67.1879 1036 32.187
67.3054 1018 31.9061
67.4228 885 29.7489
67.5402 837 28.931
67.6576 804 28.3549
67.7749 792 28.1425
67.8923 808 28.4253
68.0096 833 28.8617
68.1269 878 29.6311
68.2442 967 31.0966
68.3614 915 30.249
68.4787 947 30.7734
68.5958 956 30.9192
68.713 911 30.1828
68.8302 923 30.3809
68.9473 787 28.0535
69.0643 735 27.1109
69.1814 744 27.2764
69.2984 775 27.8388
69.4154 791 28.1247
69.5323 932 30.5287
69.6492 969 31.1288
69.7661 1003 31.6702
69.8829 1022 31.9687
69.9997 1066 32.6497
70.1165 1066 32.6497
70.2332 1135 33.6898
70.3499 1042 32.28
70.4665 1052 32.4345
70.5831 1021 31.9531
70.6996 1030 32.0936
70.8161 974 31.209
70.9326 915 30.249
71.049 812 28.4956
71.1653 818 28.6007
71.2817 779 27.9106
71.3979 725 26.9258
71.5141 714 26.7208
71.6303 769 27.7308
71.7464 718 26.7955
71.8624 0 1
71.9784 0 1
72.0944 0 1
72.2102 0 1
72.3261 0 1
72.4418 0 1
72.5575 0 1
72.6732 0 1
75.1054 0 1
75.2209 0 1
75.3365 0 1
75.4521 0 1
75.5678 0 1
75.6835 0 1
75.7993 0 1
75.9151 0 1
76.031 0 1
76.147 879 29.6479
76.263 959 30.9677
76.3791 971 31.1609
76.4952 903 30.05
76.6113 788 28.0713
76.7276 768 27.7128
76.8438 693 26.3249
76.9601 792 28.1425
77.0765 880 29.6648
77.1929 855 29.2404
77.3093 944 30.7246
77.4258 976 31.241
77.5423 949 30.8058
77.6589 938 30.6268
77.7755 891 29.8496
77.8921 787 28.0535
78.0088 692 26.3059
78.1256 730 27.0185
78.2423 663 25.7488
78.3591 710 26.6458
78.4759 835 28.8964
78.5928 888 29.7993
78.7097 910 30.1662
78.8266 979 31.289
78.9436 1024 32
79.0606 1007 31.7333
79.1776 1025 32.0156
79.2946 1086 32.9545
79.4117 1040 32.249
79.5288 1041 32.2645
79.6459 983 31.3528
79.7631 970 31.1448
79.8802 905 30.0832
79.9974 838 28.9482
80.1147 830 28.8097
80.2319 722 26.8701
80.3491 697 26.4008
80.4664 738 27.1662
80.5837 764 27.6405
80.701 726 26.9444
80.8183 839 28.9655
80.9357 779 27.9106
81.053 834 28.8791
81.1704 842 29.0172
81.2877 846 29.0861
81.4051 808 28.4253
81.5225 758 27.5318
81.6399 631 25.1197
81.7573 645 25.3969
81.8747 608 24.6577
81.9922 607 24.6374
82.1096 711 26.6646
82.227 831 28.8271
82.3444 811 28.4781
82.4619 855 29.2404
82.5793 895 29.9166
82.6967 881 29.6816
82.8142 920 30.3315
82.9316 848 29.1204
83.049 897 29.95
83.1664 859 29.3087
83.2838 835 28.8964
83.4012 792 28.1425
83.5186 768 27.7128
83.636 679 26.0576
83.7534 633 25.1595
83.8708 634 25.1794
83.9881 603 24.5561
84.1055 625 25
84.2228 629 25.0799
84.3401 660 25.6905
84.4575 751 27.4044
84.5747 786 28.0357
84.692 779 27.9106
84.8093 815 28.5482
84.9265 777 27.8747
85.0437 677 26.0192
85.1609 640 25.2982
85.2781 553 23.516
85.3952 563 23.7276
85.5123 563 23.7276
85.6294 674 25.9615
85.7465 754 27.4591
85.8636 768 27.7128
85.9806 823 28.688
86.0976 906 30.0998
86.2145 936 30.5941
86.3315 986 31.4006
86.4484 957 30.9354
86.5652 1042 32.28
86.682 964 31.0483
86.7988 1014 31.8434
86.9156 902 30.0333
87.0323 932 30.5287
87.149 888 29.7993
87.2657 844 29.0517
87.3823 805 28.3725
87.4988 792 28.1425
87.6154 766 27.6767
87.7318 797 28.2312
87.8483 816 28.5657
87.9647 940 30.6594
88.081 963 31.0322
88.1973 1022 31.9687
88.3136 978 31.273
88.4298 908 30.133
88.546 861 29.3428
88.6621 727 26.9629
88.7781 731 27.037
88.8942 0 1
89.0101 0 1
89.126 0 1
89.2419 0 1
89.3577 0 1
89.4734 0 1
89.5891 0 1
89.7047 0 1
89.8203 0 1
89.9358 0 1
92.3269 0 1
92.4424 0 1
92.558 0 1
92.6736 0 1
92.7893 0 1
92.905 0 1
93.0208 0 1
93.1366 0 1
93.2525 0 1
93.3685 0 1
93.4845 0 1
93.6005 968 31.1127
93.7167 997 31.5753
93.8328 899 29.9833
93.949 886 29.7658
94.0653 849 29.1376
94.1816 780 27.9285
94.2979 742 27.2397
94.4143 715 26.7395
94.5307 711 26.6646
94.6472 704 26.533
94.7637 759 27.55
94.8803 855 29.2404
94.9969 970 31.1448
95.1135 996 31.5595
95.2302 1032 32.1248
95.3469 1110 33.3167
95.4637 1101 33.1813
95.5805 1082 32.8938
95.6973 1109 33.3017
95.8142 1101 33.1813
95.9311 1058 32.5269
96.048 1031 32.1092
96.1649 1006 31.7175
96.2819 908 30.133
96.3989 949 30.8058
96.516 887 29.7825
96.633 857 29.2746
96.7501 851 29.1719
96.8673 870 29.4958
96.9844 849 29.1376
97.1016 934 30.5614
97.2188 983 31.3528
97.336 965 31.0644
97.4532 987 31.4166
97.5704 995 31.5436
97.6877 964 31.0483
97.805 813 28.5132
97.9223 720 26.8328
98.0396 724 26.9072
98.1569 710 26.6458
98.2743 739 27.1846
98.3916 805 28.3725
98.509 898 29.9666
98.6264 888 29.7993
98.7438 962 31.0161
98.8612 1022 31.9687
98.9786 1110 33.3167
99.096 1109 33.3017
99.2134 1150 33.9116
99.3308 1191 34.5109
99.4482 1087 32.9697
99.5656 1139 33.7491
99.6831 1064 32.619
99.8005 1018 31.9061
99.9179 1027 32.0468
100.035 946 30.7571
100.153 925 30.4138
100.27 849 29.1376
100.388 875 29.5804
100.505 958 30.9516
100.622 928 30.4631
100.74 923 30.3809
100.857 945 30.7409
100.975 1009 31.7648
101.092 996 31.5595
101.209 905 30.0832
101.327 944 30.7246
101.444 818 28.6007
101.561 779 27.9106
101.679 743 27.258
101.796 688 26.2298
101.913 779 27.9106
102.03 881 29.6816
102.148 990 31.4643
102.265 972 31.1769
102.382 1174 34.2637
102.499 1179 34.3366
102.616 1239 35.1994
102.733 1188 34.4674
102.851 1233 35.1141
102.968 1272 35.6651
103.085 1193 34.5398
103.202 1159 34.0441
103.319 1059 32.5423
103.436 1136 33.7046
103.552 1007 31.7333
103.669 938 30.6268
103.786 895 29.9166
103.903 966 31.0805
104.02 998 31.5911
104.137 1017 31.8904
104.253 1085 32.9393
104.37 1155 33.9853
104.487 1077 32.8177
104.603 1087 32.9697
104.72 1027 32.0468
104.836 983 31.3528
104.953 884 29.7321
105.069 817 28.5832
105.186 770 27.7489
105.302 804 28.3549
105.418 925 30.4138
105.535 1041 32.2645
105.651 1141 33.7787
105.767 1249 35.3412
105.883 1309 36.1801
105.999 1316 36.2767
106.115 0 1
106.231 0 1
106.347 0 1
106.463 0 1
106.579 0 1
106.694 0 1
106.81 0 1
106.926 0 1
107.041 0 1
107.157 0 1
109.576 0 1
109.692 0 1
109.807 0 1
109.923 0 1
110.039 0 1
110.155 0 1
110.27 0 1
110.386 0 1
110.502 0 1
110.618 934 30.5614
110.735 1073 32.7567
110.851 1094 33.0757
110.967 1168 34.176
111.083 1216 34.8712
111.199 1153 33.9559
111.316 1229 35.0571
111.432 1232 35.0999
111.549 1199 34.6266
111.665 1189 34.4819
111.782 1147 33.8674
111.898 1139 33.7491
112.015 1112 33.3467
112.132 1067 32.665
112.248 979 31.289
112.365 971 31.1609
112.482 914 30.2324
112.599 1029 32.078
112.716 1019 31.9218
112.832 1053 32.45
112.949 1060 32.5576
113.066 1115 33.3916
113.183 1006 31.7175
113.3 997 31.5753
113.417 901 30.0167
113.534 843 29.0345
113.652 818 28.6007
113.769 757 27.5136
113.886 751 27.4044
114.003 836 28.9137
114.12 958 30.9516
114.238 1094 33.0757
114.355 1123 33.5112
114.472 1178 34.322
114.589 1190 34.4964
114.707 1134 33.6749
114.824 1208 34.7563
114.942 1200 34.641
115.059 1194 34.5543
115.176 1214 34.8425
115.294 1182 34.3802
115.411 1105 33.2415
115.529 1082 32.8938
115.646 1045 32.3265
115.764 970 31.1448
115.881 1051 32.4191
115.999 984 31.3688
116.116 1019 31.9218
116.234 981 31.3209
116.351 1080 32.8634
116.469 1094 33.0757
116.586 1097 33.121
116.704 1117 33.4215
116.821 1044 32.311
116.939 931 30.5123
117.056 954 30.8869
117.174 830 28.8097
117.291 819 28.6182
117.409 837 28.931
117.526 868 29.4618
117.644 982 31.3369
117.761 1050 32.4037
117.879 1155 33.9853
117.996 1177 34.3074
118.114 1215 34.8569
118.231 1243 35.2562
118.349 1226 35.0143
118.466 1261 35.5106
118.584 1251 35.3695
118.701 1202 34.6699
118.819 1279 35.7631
118.936 1254 35.4119
119.053 1174 34.2637
119.171 1206 34.7275
119.288 1148 33.8821
119.405 1074 32.7719
119.523 1048 32.3728
119.64 1009 31.7648
119.757 1053 32.45
119.875 1055 32.4808
119.992 1147 33.8674
120.109 1089 33
120.226 1099 33.1512
120.343 1098 33.1361
120.46 1040 32.249
120.578 1011 31.7962
120.695 914 30.2324
120.812 869 29.4788
120.929 829 28.7924
121.046 828 28.775
121.163 833 28.8617
121.279 950 30.8221
121.396 1013 31.8277
121.513 1085 32.9393
121.63 1189 34.4819
121.747 1173 34.2491
121.863 1230 35.0714
121.98 1175 34.2783
122.097 1204 34.6987
122.213 1183 34.3948
122.33 1226 35.0143
122.446 1221 34.9428
122.563 1200 34.641
122.679 1146 33.8526
122.795 1047 32.3574
122.912 1119 33.4515
123.028 1113 33.3617
123.144 1023 31.9844
123.26 1000 31.6228
123.377 0 1
123.493 0 1
123.609 0 1
123.725 0 1
123.84 0 1
123.956 0 1
124.072 0 1
124.188 0 1
124.303 0 1
124.419 0 1
126.852 0 1
126.968 0 1
127.083 0 1
127.199 0 1
127.315 0 1
127.431 0 1
127.547 0 1
127.663 0 1
127.779 0 1
127.895 0 1
128.011 0 1
128.127 0 1
128.243 0 1
128.359 1110 33.3167
128.476 1118 33.4365
128.592 1164 34.1174
128.708 1174 34.2637
128.825 1209 34.7707
128.941 1152 33.9411
129.058 1157 34.0147
129.174 1137 33.7194
129.291 1114 33.3766
129.408 1124 33.5261
129.524 1097 33.121
129.641 977 31.257
129.758 976 31.241
129.875 903 30.05
129.992 892 29.8664
130.108 881 29.6816
130.225 956 30.9192
130.342 1121 33.4813
130.459 1169 34.1906
130.576 1164 34.1174
130.693 1204 34.6987
130.81 1267 35.5949
130.928 1252 35.3836
131.045 1250 35.3553
131.162 1245 35.2846
131.279 1281 35.7911
131.396 1269 35.623
131.513 1283 35.819
131.631 1201 34.6554
131.748 1204 34.6987
131.865 1140 33.7639
131.983 1140 33.7639
132.1 1200 34.641
132.217 1192 34.5254
132.335 1249 35.3412
132.452 1291 35.9305
132.57 1315 36.2629
132.687 1198 34.6121
132.804 1166 34.1467
132.922 1208 34.7563
133.039 1083 32.909
133.157 1067 32.665
133.274 1027 32.0468
133.392 891 29.8496
133.509 907 30.1164
133.627 915 30.249
133.744 928 30.4631
133.862 1072 32.7414
133.979 1120 33.4664
134.097 1176 34.2929
134.214 1262 35.5246
134.332 1288 35.8887
134.449 1231 35.0856
134.567 1200 34.641
134.684 1279 35.7631
134.802 1245 35.2846
134.919 1311 36.2077
135.037 1279 35.7631
135.154 1217 34.8855
135.272 1220 34.9285
135.389 1187 34.4529
135.507 1190 34.4964
135.624 1183 34.3948
135.742 1145 33.8378
135.859 1174 34.2637
135.977 1263 35.5387
136.094 1227 35.0286
136.211 1175 34.2783
136.329 1244 35.2704
136.446 1174 34.2637
136.564 1192 34.5254
136.681 1128 33.5857
136.798 1034 32.1559
136.915 1015 31.8591
137.033 980 31.305
137.15 938 30.6268
137.267 868 29.4618
137.384 950 30.8221
137.502 1084 32.9242
137.619 1140 33.7639
137.736 1105 33.2415
137.853 1161 34.0735
137.97 1177 34.3074
138.087 1179 34.3366
138.204 1240 35.2136
138.321 1233 35.1141
138.438 1316 36.2767
138.555 1342 36.6333
138.672 1287 35.8748
138.788 1273 35.6791
138.905 1143 33.8083
139.022 1208 34.7563
139.139 1237 35.171
139.255 1206 34.7275
139.372 1198 34.6121
139.488 1246 35.2987
139.605 1221 34.9428
139.721 1266 35.5809
139.838 1251 35.3695
139.954 1217 34.8855
140.071 1196 34.5832
140.187 1157 34.0147
140.303 1128 33.5857
140.419 1069 32.6956
140.535 906 30.0998
140.652 966 31.0805
140.768 0 1
140.884 0 1
141 0 1
141.115 0 1
141.231 0 1
141.347 0 1
141.463 0 1
141.578 0 1
141.694 0 1
144.104 0 1
144.219 0 1
144.335 0 1
144.45 0 1
144.566 0 1
144.682 0 1
144.798 0 1
144.914 0 1
145.03 0 1
145.146 837 28.931
145.262 905 30.0832
145.378 821 28.6531
145.494 843 29.0345
145.61 873 29.5466
145.726 800 28.2843
145.842 803 28.3373
145.959 768 27.7128
146.075 710 26.6458
146.192 761 27.5862
146.308 782 27.9643
146.425 852 29.189
146.541 871 29.5127
146.658 904 30.0666
146.774 886 29.7658
146.891 924 30.3974
147.008 990 31.4643
147.125 952 30.8545
147.241 962 31.0161
147.358 1011 31.7962
147.475 948 30.7896
147.592 977 31.257
147.709 1009 31.7648
147.826 929 30.4795
147.943 922 30.3645
148.06 951 30.8383
148.177 925 30.4138
148.294 973 31.1929
148.411 945 30.7409
148.528 974 31.209
148.645 1030 32.0936
148.762 940 30.6594
148.88 898 29.9666
148.997 905 30.0832
149.114 957 30.9354
149.231 903 30.05
149.349 849 29.1376
149.466 872 29.5296
149.583 807 28.4077
149.701 799 28.2666
149.818 711 26.6646
149.935 747 27.3313
150.053 804 28.3549
150.17 861 29.3428
150.287 912 30.1993
150.405 915 30.249
150.522 861 29.3428
150.64 904 30.0666
150.757 1044 32.311
150.875 1007 31.7333
150.992 987 31.4166
151.11 993 31.5119
151.227 1046 32.3419
151.344 1055 32.4808
151.462 984 31.3688
151.579 1026 32.0312
151.697 948 30.7896
151.814 919 30.315
151.932 958 30.9516
152.049 1002 31.6544
152.167 994 31.5278
152.284 962 31.0161
152.402 989 31.4484
152.519 923 30.3809
152.636 1018 31.9061
152.754 968 31.1127
152.871 926 30.4302
152.989 877 29.6142
153.106 902 30.0333
153.223 851 29.1719
153.341 831 28.8271
153.458 809 28.4429
153.575 786 28.0357
153.693 804 28.3549
153.81 904 30.0666
153.927 911 30.1828
154.044 1038 32.218
154.162 1030 32.0936
154.279 979 31.289
154.396 1114 33.3766
154.513 1141 33.7787
154.63 1085 32.9393
154.747 1184 34.4093
154.864 1084 32.9242
154.981 1127 33.5708
155.098 1102 33.1964
155.215 1108 33.2866
155.332 1059 32.5423
155.449 1116 33.4066
155.566 1129 33.6006
155.683 1108 33.2866
155.8 1127 33.5708
155.917 1163 34.1028
156.033 1087 32.9697
156.15 0 1
156.267 0 1
156.383 0 1
156.5 0 1
156.617 0 1
156.733 0 1
156.85 0 1
156.966 0 1
157.082 0 1
157.199 0 1
157.315 0 1
157.431 0 1
157.547 0 1
157.664 0 1
157.78 0 1
157.896 0 1
158.012 0 1
158.128 0 1
158.244 0 1
158.359 0 1
158.475 0 1
158.591 0 1
158.706 0 1
