
6.15755 0 1
6.2731 0 1
6.3887 0 1
6.50437 0 1
6.62009 0 1
6.73587 0 1
6.8517 0 1
6.96759 0 1
7.08353 0 1
7.19952 0 1
7.31557 0 1
7.43166 0 1
7.54781 0 1
7.664 0 1
7.78024 0 1
7.89653 0 1
8.01286 0 1
8.12924 0 1
8.24567 0 1
8.36213 0 1
8.47864 0 1
8.59519 0 1
8.71178 0 1
8.82841 0 1
8.94508 0 1
9.06179 0 1
9.17853 0 1
9.29531 0 1
9.41212 0 1
9.52897 0 1
9.64584 0 1
9.76276 0 1
9.8797 0 1
9.99667 0 1
10.1137 0 1
10.2307 0 1
10.3478 0 1
10.4648 0 1
10.5819 0 1
10.6991 0 1
10.8162 0 1
10.9334 0 1
11.0506 0 1
11.1678 0 1
11.285 0 1
11.4023 0 1
11.5196 0 1
11.6369 0 1
11.7542 0 1
11.8715 0 1
11.9888 0 1
12.1062 0 1
12.2235 0 1
12.3409 0 1
12.4582 0 1
12.5756 0 1
12.693 0 1
12.8104 0 1
12.9278 0 1
13.0452 0 1
13.1626 0 1
13.28 0 1
13.3974 0 1
13.5149 0 1
13.6323 0 1
13.7497 0 1
13.8671 0 1
13.9845 0 1
14.1019 0 1
14.2193 0 1
14.3367 0 1
14.4541 0 1
14.5714 0 1
14.6888 0 1
14.8062 0 1
14.9235 0 1
15.0408 0 0
15.1581 0 0
15.2755 0 0
15.3927 0 0
15.51 0 0
15.6273 0 0
15.7445 0 0
15.8617 0 0
15.9789 0 0
16.0961 0 0
16.2132 0 0
16.3304 0 0
16.4475 0 0
16.5646 0 0
16.6816 0 0
16.7986 0 0
16.9156 0 0
17.0326 0 0
17.1496 0 0
17.2665 0 0
17.3833 0 0
17.5002 0 0
17.617 0 0
17.7338 0 0
17.8505 0 0
17.9672 0 0
18.0839 0 0
18.2005 0 0
18.3171 0 0
18.4337 0 0
18.5502 0 0
18.6666 0 0
18.7831 0 0
18.8994 0 0
19.0158 0 0
19.1321 0 0
19.2483 0 0
19.3645 0 0
19.4806 0 0
19.5967 0 0
19.7128 0 0
19.8288 0 0
19.9447 0 0
20.0606 0 1
20.1764 0 1
20.2922 0 1
20.4079 0 1
20.5236 0 1
20.6392 0 1
20.7548 0 1
20.8702 0 1
23.3078 0 1
23.4233 0 1
23.539 0 1
23.6547 0 1
23.7704 0 1
23.8862 0 1
24.0021 0 1
24.118 0 1
24.234 0 1
24.35 0 1
24.4661 5160 71.8331
24.5822 5171 71.9097
24.6984 5207 72.1595
24.8146 5296 72.7736
24.9309 5441 73.7631
25.0472 5441 73.7631
25.1636 5706 75.5381
25.28 5737 75.743
25.3965 5732 75.71
25.513 5846 76.4591
25.6296 5769 75.9539
25.7462 5715 75.5976
25.8628 5849 76.4788
25.9795 5786 76.0658
26.0962 5744 75.7892
26.213 5691 75.4387
26.3298 5656 75.2064
26.4466 5654 75.1931
26.5635 5468 73.9459
26.6804 5335 73.0411
26.7973 5221 72.2565
26.9143 5033 70.9436
27.0313 4917 70.1213
27.1483 5149 71.7565
27.2653 5093 71.3653
27.3824 5091 71.3512
27.4996 5108 71.4703
27.6167 4849 69.6348
27.7339 4657 68.2422
27.8511 4403 66.3551
27.9683 4390 66.2571
28.0855 4333 65.8255
28.2028 4318 65.7115
28.3201 4408 66.3928
28.4374 4541 67.3869
28.5547 4606 67.8675
28.6721 4824 69.455
28.7894 4817 69.4046
28.9068 4872 69.7997
29.0242 4843 69.5917
29.1416 5010 70.7814
29.259 4880 69.857
29.3764 4848 69.6276
29.4939 4856 69.685
29.6113 4871 69.7925
29.7288 4851 69.6491
29.8463 4885 69.8928
29.9638 4645 68.1542
30.0812 4654 68.2202
30.1987 4595 67.7864
30.3162 4332 65.8179
30.4337 4327 65.7799
30.5512 4231 65.0461
30.6687 4258 65.2534
30.7862 4286 65.4675
30.9037 4181 64.6607
31.0212 4425 66.5207
31.1387 4236 65.0846
31.2562 4140 64.3428
31.3737 3938 62.7535
31.4912 3845 62.0081
31.6087 3787 61.5386
31.7262 3885 62.3298
31.8436 3982 63.1031
31.9611 4115 64.1483
32.0785 4137 64.3195
32.1959 4293 65.521
32.3134 4297 65.5515
32.4308 4316 65.6963
32.5482 4363 66.053
32.6655 4374 66.1362
32.7829 4470 66.8581
32.9002 4406 66.3777
33.0176 4243 65.1383
33.1349 4252 65.2074
33.2522 4246 65.1613
33.3694 4337 65.8559
33.4867 4278 65.4064
33.6039 4221 64.9692
33.7211 4186 64.6993
33.8383 4137 64.3195
33.9554 4161 64.5058
34.0725 4022 63.4192
34.1896 3923 62.6339
34.3067 3911 62.538
34.4237 3841 61.9758
34.5407 3817 61.7819
34.6577 3903 62.474
34.7746 3813 61.7495
34.8915 3753 61.2617
35.0084 3598 59.9833
35.1252 3549 59.5735
35.242 3389 58.2151
35.3587 3512 59.2621
35.4755 3645 60.3738
35.5921 3730 61.0737
35.7088 3926 62.6578
35.8254 3833 61.9112
35.9419 4034 63.5138
36.0584 4000 63.2456
36.1749 3999 63.2376
36.2913 3941 62.7774
36.4077 3930 62.6897
36.524 3964 62.9603
36.6403 3947 62.8252
36.7565 3948 62.8331
36.8727 4102 64.0469
36.9889 3996 63.2139
37.1049 3827 61.8628
37.221 0 1
37.3369 0 1
37.4529 0 1
37.5687 0 1
37.6845 0 1
37.8003 0 1
37.916 0 1
38.0316 0 1
38.1472 0 1
40.5851 0 1
40.7008 0 1
40.8164 0 1
40.9322 0 1
41.048 0 1
41.1639 0 1
41.2798 0 1
41.3958 0 1
41.5118 0 1
41.6279 0 1
41.744 2861 53.4883
41.8602 2912 53.963
41.9765 3025 55
42.0928 3087 55.5608
42.2091 2989 54.6717
42.3255 2978 54.5711
42.4419 2973 54.5252
42.5584 3084 55.5338
42.675 2948 54.2955
42.7915 2823 53.1319
42.9081 2884 53.7029
43.0248 2687 51.8363
43.1415 2725 52.2015
43.2582 2644 51.4198
43.375 2664 51.614
43.4918 2822 53.1225
43.6087 2776 52.6878
43.7256 2575 50.7445
43.8425 2381 48.7955
43.9595 2340 48.3735
44.0765 2287 47.8226
44.1935 2285 47.8017
44.3106 2406 49.051
44.4277 2522 50.2195
44.5448 2490 49.8999
44.6619 2580 50.7937
44.7791 2466 49.6588
44.8963 2514 50.1398
45.0136 2518 50.1797
45.1308 2408 49.0714
45.2481 2570 50.6952
45.3654 2435 49.3457
45.4827 2369 48.6724
45.6001 2399 48.9796
45.7174 2363 48.6107
45.8348 2441 49.4065
45.9522 2390 48.8876
46.0697 2337 48.3425
46.1871 2306 48.0208
46.3046 2279 47.7389
46.422 2247 47.4025
46.5395 2168 46.5618
46.657 2069 45.4863
46.7745 2094 45.7602
46.892 2059 45.3762
47.0096 1956 44.2267
47.1271 2050 45.2769
47.2446 2026 45.0111
47.3622 1924 43.8634
47.4797 1805 42.4853
47.5973 1842 42.9185
47.7149 1790 42.3084
47.8324 1766 42.0238
47.95 1867 43.2088
48.0675 1901 43.6005
48.1851 1914 43.7493
48.3027 2077 45.5741
48.4202 1958 44.2493
48.5378 2006 44.7884
48.6554 1885 43.4166
48.7729 1925 43.8748
48.8904 1920 43.8178
49.008 1939 44.0341
49.1255 1949 44.1475
49.243 2005 44.7772
49.3605 1980 44.4972
49.478 2001 44.7325
49.5955 2013 44.8665
49.713 2030 45.0555
49.8304 1957 44.238
49.9479 1977 44.4635
50.0653 1993 44.643
50.1827 1939 44.0341
50.3001 1898 43.566
50.4175 1980 44.4972
50.5348 1946 44.1135
50.6521 2032 45.0777
50.7694 2011 44.8442
50.8867 1970 44.3847
51.004 2020 44.9444
51.1212 2003 44.7549
51.2384 2122 46.0652
51.3556 2153 46.4004
51.4727 2279 47.7389
51.5899 2463 49.6286
51.707 2488 49.8799
51.824 2560 50.5964
51.9411 2656 51.5364
52.0581 2626 51.2445
52.175 2588 50.8724
52.2919 2646 51.4393
52.4088 2757 52.5071
52.5257 2742 52.3641
52.6425 2738 52.3259
52.7593 2689 51.8556
52.876 2757 52.5071
52.9927 2854 53.4228
53.1094 2850 53.3854
53.226 2906 53.9073
53.3426 2961 54.4151
53.4591 2936 54.1849
53.5756 2999 54.7631
53.692 2867 53.5444
53.8084 2840 53.2917
53.9248 2767 52.6023
54.0411 2770 52.6308
54.1573 2771 52.6403
54.2735 0 1
54.3896 0 1
54.5057 0 1
54.6217 0 1
54.7377 0 1
54.8537 0 1
54.9695 0 1
55.0853 0 1
55.2011 0 1
55.3168 0 1
55.4324 0 1
57.824 0 1
57.9396 0 1
58.0553 0 1
58.1711 0 1
58.2869 0 1
58.4028 0 1
58.5187 0 1
58.6347 0 1
58.7508 0 1
58.8669 0 1
58.983 3279 57.2626
59.0992 3420 58.4808
59.2155 3236 56.8859
59.3318 3230 56.8331
59.4482 3135 55.9911
59.5646 3126 55.9106
59.681 3132 55.9643
59.7975 3121 55.8659
59.9141 3214 56.6922
60.0306 3249 57
60.1473 3398 58.2924
60.2639 3385 58.1808
60.3807 3277 57.2451
60.4974 3376 58.1034
60.6142 3385 58.1808
60.731 3332 57.7235
60.8479 3384 58.1722
60.9648 3278 57.2538
61.0818 3253 57.0351
61.1987 3370 58.0517
61.3158 3270 57.1839
61.4328 3344 57.8273
61.5499 3416 58.4466
61.667 3260 57.0964
61.7841 3395 58.2666
61.9013 3270 57.1839
62.0185 3308 57.5152
62.1357 3223 56.7715
62.253 3225 56.7891
62.3702 3139 56.0268
62.4875 3187 56.4535
62.6049 3004 54.8088
62.7222 2860 53.479
62.8396 2968 54.4794
62.9569 2934 54.1664
63.0743 2740 52.345
63.1918 2835 53.2447
63.3092 2763 52.5642
63.4267 2999 54.7631
63.5441 3027 55.0182
63.6616 3125 55.9017
63.7791 3100 55.6776
63.8966 3001 54.7814
64.0142 3066 55.3715
64.1317 2979 54.5802
64.2492 3056 55.2811
64.3668 2987 54.6535
64.4843 3026 55.0091
64.6019 2948 54.2955
64.7195 2976 54.5527
64.837 2892 53.7773
64.9546 2991 54.69
65.0722 2975 54.5436
65.1898 3042 55.1543
65.3074 3010 54.8635
65.4249 2930 54.1295
65.5425 2966 54.461
65.6601 2915 53.9907
65.7777 3004 54.8088
65.8952 2932 54.1479
66.0128 2865 53.5257
66.1304 2874 53.6097
66.2479 2599 50.9804
66.3655 2703 51.9904
66.483 2601 51
66.6005 2621 51.1957
66.718 2524 50.2394
66.8355 2560 50.5964
66.953 2720 52.1536
67.0705 2712 52.0769
67.1879 2951 54.3231
67.3054 2958 54.3875
67.4228 2905 53.8981
67.5402 2918 54.0185
67.6576 2879 53.6563
67.7749 2888 53.7401
67.8923 2815 53.0566
68.0096 2910 53.9444
68.1269 2824 53.1413
68.2442 2907 53.9166
68.3614 2801 52.9245
68.4787 2928 54.111
68.5958 2843 53.3198
68.713 2949 54.3047
68.8302 2927 54.1018
68.9473 2943 54.2494
69.0643 2911 53.9537
69.1814 2874 53.6097
69.2984 2932 54.1479
69.4154 2939 54.2125
69.5323 2973 54.5252
69.6492 2995 54.7266
69.7661 3045 55.1815
69.8829 2802 52.9339
69.9997 2808 52.9906
70.1165 2800 52.915
70.2332 2725 52.2015
70.3499 2620 51.1859
70.4665 2489 49.8899
70.5831 2846 53.3479
70.6996 2853 53.4135
70.8161 2896 53.8145
70.9326 2965 54.4518
71.049 3065 55.3624
71.1653 2920 54.037
71.2817 2909 53.9351
71.3979 2877 53.6377
71.5141 2817 53.0754
71.6303 2693 51.8941
71.7464 2509 50.0899
71.8624 0 1
71.9784 0 1
72.0944 0 1
72.2102 0 1
72.3261 0 1
72.4418 0 1
72.5575 0 1
72.6732 0 1
75.1054 0 1
75.2209 0 1
75.3365 0 1
75.4521 0 1
75.5678 0 1
75.6835 0 1
75.7993 0 1
75.9151 0 1
76.031 0 1
76.147 2451 49.5076
76.263 2769 52.6213
76.3791 2773 52.6593
76.4952 2731 52.259
76.6113 2726 52.2111
76.7276 2885 53.7122
76.8438 2870 53.5724
76.9601 2823 53.1319
77.0765 2714 52.0961
77.1929 2747 52.4118
77.3093 2869 53.563
77.4258 2703 51.9904
77.5423 2867 53.5444
77.6589 2696 51.923
77.7755 2726 52.2111
77.8921 2774 52.6688
78.0088 2734 52.2877
78.1256 2691 51.8748
78.2423 2756 52.4976
78.3591 2738 52.3259
78.4759 2791 52.8299
78.5928 2756 52.4976
78.7097 2781 52.7352
78.8266 2784 52.7636
78.9436 2512 50.1199
79.0606 2469 49.689
79.1776 2128 46.1303
79.2946 2131 46.1628
79.4117 2242 47.3498
79.5288 2428 49.2747
79.6459 2521 50.2096
79.7631 2570 50.6952
79.8802 2575 50.7445
79.9974 2522 50.2195
80.1147 2504 50.04
80.2319 2506 50.06
80.3491 2420 49.1935
80.4664 2468 49.679
80.5837 2414 49.1325
80.701 2422 49.2138
80.8183 2489 49.8899
80.9357 2444 49.4368
81.053 2431 49.3052
81.1704 2448 49.4773
81.2877 2505 50.05
81.4051 2437 49.366
81.5225 2418 49.1732
81.6399 2269 47.634
81.7573 2412 49.1121
81.8747 2258 47.5184
81.9922 2230 47.2229
82.1096 2268 47.6235
82.227 2340 48.3735
82.3444 2216 47.0744
82.4619 2227 47.1911
82.5793 2150 46.3681
82.6967 2183 46.7226
82.8142 1998 44.699
82.9316 1766 42.0238
83.049 1771 42.0833
83.1664 1923 43.852
83.2838 2044 45.2106
83.4012 2111 45.9456
83.5186 2015 44.8888
83.636 2091 45.7275
83.7534 2095 45.7712
83.8708 2055 45.3321
83.9881 2149 46.3573
84.1055 1992 44.6318
84.2228 2025 45
84.3401 1913 43.7379
84.4575 1970 44.3847
84.5747 2048 45.2548
84.692 2042 45.1885
84.8093 2036 45.1221
84.9265 1948 44.1362
85.0437 2008 44.8107
85.1609 1924 43.8634
85.2781 1949 44.1475
85.3952 1933 43.9659
85.5123 2010 44.833
85.6294 1948 44.1362
85.7465 1977 44.4635
85.8636 1966 44.3396
85.9806 1953 44.1928
86.0976 2074 45.5412
86.2145 2029 45.0444
86.3315 1930 43.9318
86.4484 1838 42.8719
86.5652 1658 40.7185
86.682 1859 43.1161
86.7988 2019 44.9333
86.9156 1945 44.1022
87.0323 1943 44.0795
87.149 1943 44.0795
87.2657 1865 43.1856
87.3823 1875 43.3013
87.4988 1873 43.2782
87.6154 1896 43.5431
87.7318 1878 43.3359
87.8483 1876 43.3128
87.9647 1908 43.6807
88.081 1940 44.0454
88.1973 1964 44.317
88.3136 1977 44.4635
88.4298 1907 43.6692
88.546 1987 44.5758
88.6621 1894 43.5201
88.7781 1874 43.2897
88.8942 0 1
89.0101 0 1
89.126 0 1
89.2419 0 1
89.3577 0 1
89.4734 0 1
89.5891 0 1
89.7047 0 1
89.8203 0 1
89.9358 0 1
92.3269 0 1
92.4424 0 1
92.558 0 1
92.6736 0 1
92.7893 0 1
92.905 0 1
93.0208 0 1
93.1366 0 1
93.2525 0 1
93.3685 0 1
93.4845 0 1
93.6005 1842 42.9185
93.7167 1766 42.0238
93.8328 1834 42.8252
93.949 1933 43.9659
94.0653 1892 43.4971
94.1816 1957 44.238
94.2979 1919 43.8064
94.4143 1968 44.3621
94.5307 1900 43.589
94.6472 1911 43.715
94.7637 1943 44.0795
94.8803 2029 45.0444
94.9969 1975 44.441
95.1135 2021 44.9555
95.2302 2102 45.8476
95.3469 2009 44.8219
95.4637 2106 45.8912
95.5805 1923 43.852
95.6973 1728 41.5692
95.8142 1831 42.7902
95.9311 1914 43.7493
96.048 2136 46.2169
96.1649 2210 47.0106
96.2819 2110 45.9347
96.3989 2193 46.8295
96.516 2219 47.1063
96.633 2206 46.9681
96.7501 2084 45.6508
96.8673 2100 45.8258
96.9844 2123 46.076
97.1016 2071 45.5082
97.2188 2118 46.0217
97.336 2146 46.3249
97.4532 2109 45.9239
97.5704 2151 46.3789
97.6877 2106 45.8912
97.805 2064 45.4313
97.9223 2049 45.2659
98.0396 1971 44.3959
98.1569 2029 45.0444
98.2743 2036 45.1221
98.3916 1927 43.8976
98.509 1985 44.5533
98.6264 1988 44.587
98.7438 2052 45.299
98.8612 1957 44.238
98.9786 2000 44.7214
99.096 1981 44.5084
99.2134 1870 43.2435
99.3308 1778 42.1663
99.4482 1825 42.72
99.5656 2007 44.7996
99.6831 1980 44.4972
99.8005 1984 44.5421
99.9179 2062 45.4093
100.035 1885 43.4166
100.153 1985 44.5533
100.27 1957 44.238
100.388 1958 44.2493
100.505 1959 44.2606
100.622 1929 43.9204
100.74 2007 44.7996
100.857 2014 44.8776
100.975 2017 44.911
101.092 2008 44.8107
101.209 2021 44.9555
101.327 2077 45.5741
101.444 1937 44.0114
101.561 2070 45.4973
101.679 2033 45.0888
101.796 2053 45.31
101.913 2002 44.7437
102.03 2068 45.4753
102.148 2109 45.9239
102.265 2281 47.7598
102.382 1953 44.1928
102.499 2086 45.6727
102.616 2001 44.7325
102.733 1830 42.7785
102.851 1784 42.2374
102.968 1927 43.8976
103.085 1974 44.4297
103.202 2010 44.833
103.319 1970 44.3847
103.436 1931 43.9431
103.552 1952 44.1814
103.669 1863 43.1625
103.786 1913 43.7379
103.903 1859 43.1161
104.02 1893 43.5086
104.137 1873 43.2782
104.253 1882 43.382
104.37 1759 41.9404
104.487 1879 43.3474
104.603 1905 43.6463
104.72 1830 42.7785
104.836 1828 42.7551
104.953 1891 43.4856
105.069 1699 41.2189
105.186 1692 41.1339
105.302 1812 42.5676
105.418 1733 41.6293
105.535 1666 40.8167
105.651 1624 40.2989
105.767 1624 40.2989
105.883 1567 39.5854
105.999 1648 40.5956
106.115 0 1
106.231 0 1
106.347 0 1
106.463 0 1
106.579 0 1
106.694 0 1
106.81 0 1
106.926 0 1
107.041 0 1
107.157 0 1
109.576 0 1
109.692 0 1
109.807 0 1
109.923 0 1
110.039 0 1
110.155 0 1
110.27 0 1
110.386 0 1
110.502 0 1
110.618 1039 32.2335
110.735 976 31.241
110.851 1019 31.9218
110.967 945 30.7409
111.083 1037 32.2025
111.199 986 31.4006
111.316 1045 32.3265
111.432 986 31.4006
111.549 916 30.2655
111.665 893 29.8831
111.782 895 29.9166
111.898 920 30.3315
112.015 956 30.9192
112.132 979 31.289
112.248 907 30.1164
112.365 919 30.315
112.482 913 30.2159
112.599 890 29.8329
112.716 933 30.545
112.832 864 29.3939
112.949 824 28.7054
113.066 892 29.8664
113.183 861 29.3428
113.3 955 30.9031
113.417 874 29.5635
113.534 920 30.3315
113.652 899 29.9833
113.769 941 30.6757
113.886 883 29.7153
114.003 896 29.9333
114.12 919 30.315
114.238 924 30.3974
114.355 952 30.8545
114.472 828 28.775
114.589 761 27.5862
114.707 760 27.5681
114.824 840 28.9828
114.942 979 31.289
115.059 945 30.7409
115.176 983 31.3528
115.294 942 30.692
115.411 885 29.7489
115.529 1017 31.8904
115.646 1074 32.7719
115.764 1025 32.0156
115.881 991 31.4802
115.999 986 31.4006
116.116 984 31.3688
116.234 1044 32.311
116.351 1046 32.3419
116.469 1126 33.5559
116.586 1059 32.5423
116.704 1061 32.573
116.821 1067 32.665
116.939 1075 32.7872
117.056 1128 33.5857
117.174 1137 33.7194
117.291 1200 34.641
117.409 1132 33.6452
117.526 1162 34.0881
117.644 1145 33.8378
117.761 1256 35.4401
117.879 1291 35.9305
117.996 1181 34.3657
118.114 1089 33
118.231 976 31.241
118.349 975 31.225
118.466 1021 31.9531
118.584 1323 36.3731
118.701 1310 36.1939
118.819 1343 36.647
118.936 1330 36.4692
119.053 1323 36.3731
119.171 1359 36.8646
119.288 1288 35.8887
119.405 1439 37.9342
119.523 1447 38.0395
119.64 1418 37.6563
119.757 1349 36.7287
119.875 1361 36.8917
119.992 1425 37.7492
120.109 1459 38.1969
120.226 1388 37.2559
120.343 1400 37.4166
120.46 1434 37.8682
120.578 1434 37.8682
120.695 1410 37.55
120.812 1471 38.3536
120.929 1491 38.6135
121.046 1489 38.5876
121.163 1470 38.3406
121.279 1530 39.1152
121.396 1580 39.7492
121.513 1507 38.8201
121.63 1551 39.3827
121.747 1396 37.3631
121.863 1338 36.5787
121.98 1236 35.1568
122.097 1181 34.3657
122.213 1313 36.2353
122.33 1577 39.7115
122.446 1634 40.4228
122.563 1642 40.5216
122.679 1597 39.9625
122.795 1671 40.8779
122.912 1665 40.8044
123.028 1748 41.8091
123.144 1737 41.6773
123.26 1744 41.7612
123.377 0 1
123.493 0 1
123.609 0 1
123.725 0 1
123.84 0 1
123.956 0 1
124.072 0 1
124.188 0 1
124.303 0 1
124.419 0 1
126.852 0 1
126.968 0 1
127.083 0 1
127.199 0 1
127.315 0 1
127.431 0 1
127.547 0 1
127.663 0 1
127.779 0 1
127.895 0 1
128.011 0 1
128.127 0 1
128.243 0 1
128.359 2266 47.6025
128.476 2204 46.9468
128.592 2193 46.8295
128.708 2145 46.3141
128.825 2167 46.551
128.941 2220 47.1169
129.058 2242 47.3498
129.174 2216 47.0744
129.291 2239 47.3181
129.408 2176 46.6476
129.524 2190 46.7974
129.641 2239 47.3181
129.758 2280 47.7493
129.875 2307 48.0312
129.992 2231 47.2335
130.108 2347 48.4458
130.225 2321 48.1768
130.342 2262 47.5605
130.459 2093 45.7493
130.576 2208 46.9894
130.693 1901 43.6005
130.81 1858 43.1045
130.928 1827 42.7434
131.045 1789 42.2966
131.162 1962 44.2945
131.279 2157 46.4435
131.396 2272 47.6655
131.513 2420 49.1935
131.631 2318 48.1456
131.748 2420 49.1935
131.865 2401 49
131.983 2389 48.8774
132.1 2441 49.4065
132.217 2384 48.8262
132.335 2419 49.1833
132.452 2327 48.239
132.57 2314 48.1041
132.687 2366 48.6415
132.804 2524 50.2394
132.922 2297 47.927
133.039 2441 49.4065
133.157 2415 49.1426
133.274 2405 49.0408
133.392 2442 49.4166
133.509 2375 48.734
133.627 2420 49.1935
133.744 2435 49.3457
133.862 2380 48.7852
133.979 2330 48.2701
134.097 2185 46.744
134.214 2086 45.6727
134.332 1940 44.0454
134.449 2025 45
134.567 2044 45.2106
134.684 2028 45.0333
134.802 2303 47.9896
134.919 2456 49.558
135.037 2430 49.295
135.154 2456 49.558
135.272 2524 50.2394
135.389 2469 49.689
135.507 2672 51.6914
135.624 2539 50.3885
135.742 2611 51.0979
135.859 2637 51.3517
135.977 2600 50.9902
136.094 2526 50.2593
136.211 2583 50.8232
136.329 2496 49.96
136.446 2540 50.3984
136.564 2511 50.1099
136.681 2648 51.4587
136.798 2563 50.6261
136.915 2651 51.4879
137.033 2559 50.5866
137.15 2590 50.892
137.267 2582 50.8134
137.384 2547 50.4678
137.502 2474 49.7393
137.619 2345 48.4252
137.736 2277 47.7179
137.853 2199 46.8935
137.97 2065 45.4423
138.087 2086 45.6727
138.204 2197 46.8722
138.321 2230 47.2229
138.438 2470 49.6991
138.555 2569 50.6853
138.672 2612 51.1077
138.788 2608 51.0686
138.905 2699 51.9519
139.022 2751 52.45
139.139 2780 52.7257
139.255 2768 52.6118
139.372 2805 52.9623
139.488 2762 52.5547
139.605 2748 52.4214
139.721 2837 53.2635
139.838 2723 52.1824
139.954 2725 52.2015
140.071 2727 52.2207
140.187 2745 52.3927
140.303 2533 50.3289
140.419 2669 51.6624
140.535 2661 51.5849
140.652 2737 52.3163
140.768 0 1
140.884 0 1
141 0 1
141.115 0 1
141.231 0 1
141.347 0 1
141.463 0 1
141.578 0 1
141.694 0 1
144.104 0 1
144.219 0 1
144.335 0 1
144.45 0 1
144.566 0 1
144.682 0 1
144.798 0 1
144.914 0 1
145.03 0 1
145.146 2390 48.8876
145.262 2532 50.319
145.378 2469 49.689
145.494 2574 50.7346
145.61 2491 49.9099
145.726 2509 50.0899
145.842 2530 50.2991
145.959 2427 49.2646
146.075 2385 48.8365
146.192 2293 47.8853
146.308 2194 46.8402
146.425 2051 45.288
146.541 2066 45.4533
146.658 2054 45.3211
146.774 1953 44.1928
146.891 2040 45.1664
147.008 2192 46.8188
147.125 2321 48.1768
147.241 2304 48
147.358 2310 48.0625
147.475 2324 48.2079
147.592 2392 48.9081
147.709 2457 49.5681
147.826 2520 50.1996
147.943 2468 49.679
148.06 2439 49.3862
148.177 2492 49.9199
148.294 2457 49.5681
148.411 2445 49.4469
148.528 2403 49.0204
148.645 2396 48.949
148.762 2338 48.3529
148.88 2349 48.4665
148.997 2318 48.1456
149.114 2439 49.3862
149.231 2372 48.7032
149.349 2441 49.4065
149.466 2230 47.2229
149.583 2211 47.0213
149.701 2211 47.0213
149.818 2217 47.085
149.935 2070 45.4973
150.053 2022 44.9667
150.17 1900 43.589
150.287 1914 43.7493
150.405 1955 44.2154
150.522 2058 45.3652
150.64 2140 46.2601
150.757 2251 47.4447
150.875 2278 47.7284
150.992 2219 47.1063
151.11 2167 46.551
151.227 2196 46.8615
151.344 2265 47.592
151.462 2361 48.5901
151.579 2384 48.8262
151.697 2377 48.7545
151.814 2407 49.0612
151.932 2358 48.5592
152.049 2445 49.4469
152.167 2362 48.6004
152.284 2418 49.1732
152.402 2391 48.8979
152.519 2250 47.4342
152.636 2349 48.4665
152.754 2387 48.8569
152.871 2295 47.9062
152.989 2292 47.8748
153.106 2477 49.7695
153.223 2381 48.7955
153.341 2264 47.5815
153.458 2146 46.3249
153.575 2056 45.3431
153.693 2066 45.4533
153.81 2009 44.8219
153.927 2038 45.1442
154.044 2057 45.3542
154.162 2127 46.1194
154.279 2258 47.5184
154.396 2358 48.5592
154.513 2296 47.9166
154.63 2373 48.7134
154.747 2364 48.621
154.864 2296 47.9166
154.981 2407 49.0612
155.098 2534 50.3389
155.215 2600 50.9902
155.332 2539 50.3885
155.449 2485 49.8498
155.566 2482 49.8197
155.683 2469 49.689
155.8 2470 49.6991
155.917 2485 49.8498
156.033 2467 49.6689
156.15 0 1
156.267 0 1
156.383 0 1
156.5 0 1
156.617 0 1
156.733 0 1
156.85 0 1
156.966 0 1
157.082 0 1
157.199 0 1
157.315 0 1
157.431 0 1
157.547 0 1
157.664 0 1
157.78 0 1
157.896 0 1
158.012 0 1
158.128 0 1
158.244 0 1
158.359 0 1
158.475 0 1
158.591 0 1
158.706 0 1
