
6.15755 0 1
6.2731 0 1
6.3887 0 1
6.50437 0 1
6.62009 0 1
6.73587 0 1
6.8517 0 1
6.96759 0 1
7.08353 0 1
7.19952 0 1
7.31557 0 1
7.43166 0 1
7.54781 0 1
7.664 0 1
7.78024 0 1
7.89653 0 1
8.01286 0 1
8.12924 0 1
8.24567 0 1
8.36213 0 1
8.47864 0 1
8.59519 0 1
8.71178 0 1
8.82841 0 1
8.94508 0 1
9.06179 0 1
9.17853 0 1
9.29531 0 1
9.41212 0 1
9.52897 0 1
9.64584 0 1
9.76276 0 1
9.8797 0 1
9.99667 0 1
10.1137 0 1
10.2307 0 1
10.3478 0 1
10.4648 0 1
10.5819 0 1
10.6991 0 1
10.8162 0 1
10.9334 0 1
11.0506 0 1
11.1678 0 1
11.285 0 1
11.4023 0 1
11.5196 0 1
11.6369 0 1
11.7542 0 1
11.8715 0 1
11.9888 0 1
12.1062 0 1
12.2235 0 1
12.3409 0 1
12.4582 0 1
12.5756 0 1
12.693 0 1
12.8104 0 1
12.9278 0 1
13.0452 0 1
13.1626 0 1
13.28 0 1
13.3974 0 1
13.5149 0 1
13.6323 0 1
13.7497 0 1
13.8671 0 1
13.9845 0 1
14.1019 0 1
14.2193 0 1
14.3367 0 1
14.4541 0 1
14.5714 0 1
14.6888 0 1
14.8062 0 1
14.9235 0 1
15.0408 1141 33.7787
15.1581 1121 33.4813
15.2755 1200 34.641
15.3927 1264 35.5528
15.51 1294 35.9722
15.6273 1257 35.4542
15.7445 1238 35.1852
15.8617 1258 35.4683
15.9789 1237 35.171
16.0961 1209 34.7707
16.2132 1146 33.8526
16.3304 1195 34.5688
16.4475 1273 35.6791
16.5646 1267 35.5949
16.6816 1407 37.51
16.7986 1451 38.092
16.9156 1490 38.6005
17.0326 1501 38.7427
17.1496 1497 38.6911
17.2665 1409 37.5366
17.3833 1471 38.3536
17.5002 1406 37.4967
17.617 1373 37.054
17.7338 1342 36.6333
17.8505 1276 35.7211
17.9672 1273 35.6791
18.0839 1274 35.6931
18.2005 1333 36.5103
18.3171 1354 36.7967
18.4337 1373 37.054
18.5502 1386 37.229
18.6666 1409 37.5366
18.7831 1459 38.1969
18.8994 1439 37.9342
19.0158 1476 38.4187
19.1321 1428 37.7889
19.2483 1313 36.2353
19.3645 1190 34.4964
19.4806 1215 34.8569
19.5967 1107 33.2716
19.7128 1043 32.2955
19.8288 961 31
19.9447 907 30.1164
20.0606 0 1
20.1764 0 1
20.2922 0 1
20.4079 0 1
20.5236 0 1
20.6392 0 1
20.7548 0 1
20.8702 0 1
23.3078 0 1
23.4233 0 1
23.539 0 1
23.6547 0 1
23.7704 0 1
23.8862 0 1
24.0021 0 1
24.118 0 1
24.234 0 1
24.35 0 1
24.4661 589 24.2693
24.5822 743 27.258
24.6984 780 27.9285
24.8146 880 29.6648
24.9309 929 30.4795
25.0472 1072 32.7414
25.1636 1177 34.3074
25.28 1213 34.8281
25.3965 1339 36.5923
25.513 1453 38.1182
25.6296 1490 38.6005
25.7462 1507 38.8201
25.8628 1558 39.4715
25.9795 1618 40.2244
26.0962 1569 39.6106
26.213 1549 39.3573
26.3298 1423 37.7227
26.4466 1435 37.8814
26.5635 1358 36.8511
26.6804 1315 36.2629
26.7973 1342 36.6333
26.9143 1451 38.092
27.0313 1491 38.6135
27.1483 1489 38.5876
27.2653 1580 39.7492
27.3824 1539 39.2301
27.4996 1584 39.7995
27.6167 1471 38.3536
27.7339 1467 38.3014
27.8511 1393 37.3229
27.9683 1378 37.1214
28.0855 1302 36.0832
28.2028 1352 36.7696
28.3201 1245 35.2846
28.4374 1293 35.9583
28.5547 1282 35.805
28.6721 1344 36.6606
28.7894 1313 36.2353
28.9068 1448 38.0526
29.0242 1472 38.3667
29.1416 1577 39.7115
29.259 1566 39.5727
29.3764 1507 38.8201
29.4939 1517 38.9487
29.6113 1524 39.0384
29.7288 1438 37.921
29.8463 1306 36.1386
29.9638 1332 36.4966
30.0812 1251 35.3695
30.1987 1241 35.2278
30.3162 1328 36.4417
30.4337 1326 36.4143
30.5512 1379 37.1349
30.6687 1387 37.2424
30.7862 1397 37.3765
30.9037 1441 37.9605
31.0212 1495 38.6652
31.1387 1466 38.2884
31.2562 1469 38.3275
31.3737 1430 37.8153
31.4912 1376 37.0945
31.6087 1290 35.9166
31.7262 1284 35.8329
31.8436 1288 35.8887
31.9611 1248 35.327
32.0785 1248 35.327
32.1959 1329 36.4555
32.3134 1363 36.9188
32.4308 1377 37.108
32.5482 1364 36.9324
32.6655 1492 38.6264
32.7829 1572 39.6485
32.9002 1416 37.6298
33.0176 1439 37.9342
33.1349 1474 38.3927
33.2522 1480 38.4708
33.3694 1444 38
33.4867 1326 36.4143
33.6039 1238 35.1852
33.7211 1208 34.7563
33.8383 1198 34.6121
33.9554 1243 35.2562
34.0725 1214 34.8425
34.1896 1305 36.1248
34.3067 1349 36.7287
34.4237 1404 37.47
34.5407 1415 37.6165
34.6577 1400 37.4166
34.7746 1413 37.5899
34.8915 1333 36.5103
35.0084 1367 36.973
35.1252 1381 37.1618
35.242 1259 35.4824
35.3587 1271 35.6511
35.4755 1222 34.9571
35.5921 1217 34.8855
35.7088 1174 34.2637
35.8254 1129 33.6006
35.9419 1181 34.3657
36.0584 1300 36.0555
36.1749 1296 36
36.2913 1226 35.0143
36.4077 1280 35.7771
36.524 1237 35.171
36.6403 1228 35.0428
36.7565 1177 34.3074
36.8727 1092 33.0454
36.9889 1019 31.9218
37.1049 955 30.9031
37.221 0 1
37.3369 0 1
37.4529 0 1
37.5687 0 1
37.6845 0 1
37.8003 0 1
37.916 0 1
38.0316 0 1
38.1472 0 1
40.5851 0 1
40.7008 0 1
40.8164 0 1
40.9322 0 1
41.048 0 1
41.1639 0 1
41.2798 0 1
41.3958 0 1
41.5118 0 1
41.6279 0 1
41.744 658 25.6515
41.8602 762 27.6043
41.9765 798 28.2489
42.0928 846 29.0861
42.2091 762 27.6043
42.3255 817 28.5832
42.4419 806 28.3901
42.5584 821 28.6531
42.675 957 30.9354
42.7915 1003 31.6702
42.9081 1106 33.2566
43.0248 1165 34.1321
43.1415 1130 33.6155
43.2582 1121 33.4813
43.375 1171 34.2199
43.4918 1144 33.8231
43.6087 1163 34.1028
43.7256 1118 33.4365
43.8425 1076 32.8024
43.9595 1117 33.4215
44.0765 1089 33
44.1935 1030 32.0936
44.3106 1033 32.1403
44.4277 1001 31.6386
44.5448 986 31.4006
44.6619 989 31.4484
44.7791 1020 31.9374
44.8963 1068 32.6803
45.0136 1158 34.0294
45.1308 1180 34.3511
45.2481 1176 34.2929
45.3654 1190 34.4964
45.4827 1174 34.2637
45.6001 1193 34.5398
45.7174 1189 34.4819
45.8348 1055 32.4808
45.9522 954 30.8869
46.0697 947 30.7734
46.1871 1003 31.6702
46.3046 985 31.3847
46.422 1066 32.6497
46.5395 1102 33.1964
46.657 1073 32.7567
46.7745 1154 33.9706
46.892 1199 34.6266
47.0096 1142 33.7935
47.1271 1221 34.9428
47.2446 1243 35.2562
47.3622 1159 34.0441
47.4797 1209 34.7707
47.5973 1208 34.7563
47.7149 1169 34.1906
47.8324 1115 33.3916
47.95 1002 31.6544
48.0675 985 31.3847
48.1851 1014 31.8434
48.3027 1024 32
48.4202 1102 33.1964
48.5378 1134 33.6749
48.6554 1162 34.0881
48.7729 1230 35.0714
48.8904 1224 34.9857
49.008 1224 34.9857
49.1255 1149 33.8969
49.243 1239 35.1994
49.3605 1087 32.9697
49.478 990 31.4643
49.5955 964 31.0483
49.713 964 31.0483
49.8304 950 30.8221
49.9479 1011 31.7962
50.0653 1179 34.3366
50.1827 1108 33.2866
50.3001 1129 33.6006
50.4175 1193 34.5398
50.5348 1183 34.3948
50.6521 1242 35.242
50.7694 1258 35.4683
50.8867 1288 35.8887
51.004 1205 34.7131
51.1212 1262 35.5246
51.2384 1284 35.8329
51.3556 1217 34.8855
51.4727 1149 33.8969
51.5899 1133 33.6601
51.707 1101 33.1813
51.824 1194 34.5543
51.9411 1281 35.7911
52.0581 1411 37.5633
52.175 1512 38.8844
52.2919 1574 39.6737
52.4088 1613 40.1622
52.5257 1618 40.2244
52.6425 1660 40.7431
52.7593 1673 40.9023
52.876 1586 39.8246
52.9927 1603 40.0375
53.1094 1490 38.6005
53.226 1432 37.8418
53.3426 1443 37.9868
53.4591 1349 36.7287
53.5756 1427 37.7757
53.692 1406 37.4967
53.8084 1455 38.1445
53.9248 1363 36.9188
54.0411 1359 36.8646
54.1573 1257 35.4542
54.2735 0 1
54.3896 0 1
54.5057 0 1
54.6217 0 1
54.7377 0 1
54.8537 0 1
54.9695 0 1
55.0853 0 1
55.2011 0 1
55.3168 0 1
55.4324 0 1
57.824 0 1
57.9396 0 1
58.0553 0 1
58.1711 0 1
58.2869 0 1
58.4028 0 1
58.5187 0 1
58.6347 0 1
58.7508 0 1
58.8669 0 1
58.983 968 31.1127
59.0992 1059 32.5423
59.2155 1196 34.5832
59.3318 1217 34.8855
59.4482 1229 35.0571
59.5646 1279 35.7631
59.681 1337 36.565
59.7975 1386 37.229
59.9141 1394 37.3363
60.0306 1307 36.1525
60.1473 1331 36.4829
60.2639 1305 36.1248
60.3807 1285 35.8469
60.4974 1265 35.5668
60.6142 1323 36.3731
60.731 1402 37.4433
60.8479 1505 38.7943
60.9648 1488 38.5746
61.0818 1494 38.6523
61.1987 1532 39.1408
61.3158 1419 37.6696
61.4328 1507 38.8201
61.5499 1371 37.027
61.667 1252 35.3836
61.7841 1251 35.3695
61.9013 1131 33.6303
62.0185 1144 33.8231
62.1357 1190 34.4964
62.253 1296 36
62.3702 1360 36.8782
62.4875 1460 38.2099
62.6049 1429 37.8021
62.7222 1446 38.0263
62.8396 1523 39.0256
62.9569 1541 39.2556
63.0743 1483 38.5097
63.1918 1427 37.7757
63.3092 1419 37.6696
63.4267 1452 38.1051
63.5441 1383 37.1887
63.6616 1345 36.6742
63.7791 1235 35.1426
63.8966 1181 34.3657
64.0142 1150 33.9116
64.1317 1249 35.3412
64.2492 1346 36.6879
64.3668 1376 37.0945
64.4843 1460 38.2099
64.6019 1548 39.3446
64.7195 1457 38.1707
64.837 1515 38.923
64.9546 1489 38.5876
65.0722 1384 37.2022
65.1898 1309 36.1801
65.3074 1208 34.7563
65.4249 1124 33.5261
65.5425 1065 32.6343
65.6601 1132 33.6452
65.7777 1164 34.1174
65.8952 1287 35.8748
66.0128 1419 37.6696
66.1304 1372 37.0405
66.2479 1452 38.1051
66.3655 1465 38.2753
66.483 1445 38.0132
66.6005 1464 38.2623
66.718 1466 38.2884
66.8355 1459 38.1969
66.953 1364 36.9324
67.0705 1339 36.5923
67.1879 1334 36.524
67.3054 1303 36.0971
67.4228 1158 34.0294
67.5402 1157 34.0147
67.6576 1155 33.9853
67.7749 1182 34.3802
67.8923 1278 35.7491
68.0096 1340 36.606
68.1269 1446 38.0263
68.2442 1429 37.8021
68.3614 1440 37.9473
68.4787 1482 38.4968
68.5958 1415 37.6165
68.713 1347 36.7015
68.8302 1259 35.4824
68.9473 1159 34.0441
69.0643 1110 33.3167
69.1814 988 31.4325
69.2984 1097 33.121
69.4154 1095 33.0908
69.5323 1287 35.8748
69.6492 1340 36.606
69.7661 1344 36.6606
69.8829 1350 36.7423
69.9997 1345 36.6742
70.1165 1320 36.3318
70.2332 1243 35.2562
70.3499 1253 35.3977
70.4665 1135 33.6898
70.5831 1144 33.8231
70.6996 1088 32.9848
70.8161 931 30.5123
70.9326 854 29.2233
71.049 821 28.6531
71.1653 679 26.0576
71.2817 578 24.0416
71.3979 549 23.4307
71.5141 519 22.7816
71.6303 500 22.3607
71.7464 461 21.4709
71.8624 0 1
71.9784 0 1
72.0944 0 1
72.2102 0 1
72.3261 0 1
72.4418 0 1
72.5575 0 1
72.6732 0 1
75.1054 0 1
75.2209 0 1
75.3365 0 1
75.4521 0 1
75.5678 0 1
75.6835 0 1
75.7993 0 1
75.9151 0 1
76.031 0 1
76.147 836 28.9137
76.263 932 30.5287
76.3791 916 30.2655
76.4952 864 29.3939
76.6113 944 30.7246
76.7276 964 31.0483
76.8438 1057 32.5115
76.9601 1129 33.6006
77.0765 1209 34.7707
77.1929 1233 35.1141
77.3093 1257 35.4542
77.4258 1232 35.0999
77.5423 1271 35.6511
77.6589 1223 34.9714
77.7755 1112 33.3467
77.8921 1053 32.45
78.0088 991 31.4802
78.1256 834 28.8791
78.2423 870 29.4958
78.3591 954 30.8869
78.4759 1049 32.3883
78.5928 1108 33.2866
78.7097 1096 33.1059
78.8266 1120 33.4664
78.9436 1256 35.4401
79.0606 1258 35.4683
79.1776 1281 35.7911
79.2946 1246 35.2987
79.4117 1339 36.5923
79.5288 1243 35.2562
79.6459 1229 35.0571
79.7631 1226 35.0143
79.8802 1187 34.4529
79.9974 1141 33.7787
80.1147 997 31.5753
80.2319 974 31.209
80.3491 1074 32.7719
80.4664 1035 32.1714
80.5837 1143 33.8083
80.701 1227 35.0286
80.8183 1278 35.7491
80.9357 1327 36.428
81.053 1300 36.0555
81.1704 1286 35.8608
81.2877 1291 35.9305
81.4051 1281 35.7911
81.5225 1223 34.9714
81.6399 1085 32.9393
81.7573 915 30.249
81.8747 895 29.9166
81.9922 906 30.0998
82.1096 1003 31.6702
82.227 1100 33.1662
82.3444 1198 34.6121
82.4619 1263 35.5387
82.5793 1262 35.5246
82.6967 1308 36.1663
82.8142 1364 36.9324
82.9316 1352 36.7696
83.049 1312 36.2215
83.1664 1271 35.6511
83.2838 1228 35.0428
83.4012 1322 36.3593
83.5186 1197 34.5977
83.636 1127 33.5708
83.7534 1145 33.8378
83.8708 1039 32.2335
83.9881 987 31.4166
84.1055 1058 32.5269
84.2228 1106 33.2566
84.3401 1164 34.1174
84.4575 1278 35.7491
84.5747 1361 36.8917
84.692 1349 36.7287
84.8093 1324 36.3868
84.9265 1299 36.0416
85.0437 1247 35.3129
85.1609 1220 34.9285
85.2781 1053 32.45
85.3952 947 30.7734
85.5123 929 30.4795
85.6294 974 31.209
85.7465 1039 32.2335
85.8636 1173 34.2491
85.9806 1143 33.8083
86.0976 1310 36.1939
86.2145 1317 36.2905
86.3315 1309 36.1801
86.4484 1351 36.756
86.5652 1344 36.6606
86.682 1316 36.2767
86.7988 1295 35.9861
86.9156 1285 35.8469
87.0323 1271 35.6511
87.149 1256 35.4401
87.2657 1160 34.0588
87.3823 1024 32
87.4988 877 29.6142
87.6154 915 30.249
87.7318 875 29.5804
87.8483 908 30.133
87.9647 1005 31.7017
88.081 1062 32.5883
88.1973 1017 31.8904
88.3136 1061 32.573
88.4298 936 30.5941
88.546 824 28.7054
88.6621 799 28.2666
88.7781 629 25.0799
88.8942 0 1
89.0101 0 1
89.126 0 1
89.2419 0 1
89.3577 0 1
89.4734 0 1
89.5891 0 1
89.7047 0 1
89.8203 0 1
89.9358 0 1
92.3269 0 1
92.4424 0 1
92.558 0 1
92.6736 0 1
92.7893 0 1
92.905 0 1
93.0208 0 1
93.1366 0 1
93.2525 0 1
93.3685 0 1
93.4845 0 1
93.6005 975 31.225
93.7167 989 31.4484
93.8328 1067 32.665
93.949 1148 33.8821
94.0653 1153 33.9559
94.1816 1161 34.0735
94.2979 1115 33.3916
94.4143 1008 31.749
94.5307 965 31.0644
94.6472 934 30.5614
94.7637 990 31.4643
94.8803 1039 32.2335
94.9969 1136 33.7046
95.1135 1221 34.9428
95.2302 1245 35.2846
95.3469 1323 36.3731
95.4637 1330 36.4692
95.5805 1313 36.2353
95.6973 1353 36.7831
95.8142 1396 37.3631
95.9311 1382 37.1753
96.048 1331 36.4829
96.1649 1265 35.5668
96.2819 1283 35.819
96.3989 1239 35.1994
96.516 1162 34.0881
96.633 1065 32.6343
96.7501 1069 32.6956
96.8673 1081 32.8786
96.9844 1109 33.3017
97.1016 1218 34.8999
97.2188 1281 35.7911
97.336 1358 36.8511
97.4532 1419 37.6696
97.5704 1397 37.3765
97.6877 1398 37.3898
97.805 1297 36.0139
97.9223 1207 34.7419
98.0396 1197 34.5977
98.1569 1058 32.5269
98.2743 1003 31.6702
98.3916 950 30.8221
98.509 1107 33.2716
98.6264 1141 33.7787
98.7438 1214 34.8425
98.8612 1253 35.3977
98.9786 1307 36.1525
99.096 1326 36.4143
99.2134 1415 37.6165
99.3308 1410 37.55
99.4482 1523 39.0256
99.5656 1436 37.8946
99.6831 1404 37.47
99.8005 1384 37.2022
99.9179 1392 37.3095
100.035 1381 37.1618
100.153 1262 35.5246
100.27 1094 33.0757
100.388 1098 33.1361
100.505 1198 34.6121
100.622 1299 36.0416
100.74 1318 36.3043
100.857 1401 37.4299
100.975 1453 38.1182
101.092 1388 37.2559
101.209 1450 38.0789
101.327 1481 38.4838
101.444 1373 37.054
101.561 1243 35.2562
101.679 1200 34.641
101.796 1146 33.8526
101.913 1082 32.8938
102.03 972 31.1769
102.148 1176 34.2929
102.265 1237 35.171
102.382 1393 37.3229
102.499 1493 38.6394
102.616 1476 38.4187
102.733 1506 38.8072
102.851 1543 39.281
102.968 1440 37.9473
103.085 1510 38.8587
103.202 1455 38.1445
103.319 1454 38.1314
103.436 1435 37.8814
103.552 1418 37.6563
103.669 1314 36.2491
103.786 1247 35.3129
103.903 1140 33.7639
104.02 1252 35.3836
104.137 1359 36.8646
104.253 1391 37.2961
104.37 1557 39.4588
104.487 1549 39.3573
104.603 1545 39.3065
104.72 1514 38.9102
104.836 1413 37.5899
104.953 1358 36.8511
105.069 1242 35.242
105.186 1119 33.4515
105.302 987 31.4166
105.418 979 31.289
105.535 928 30.4631
105.651 1011 31.7962
105.767 999 31.607
105.883 1007 31.7333
105.999 927 30.4467
106.115 0 1
106.231 0 1
106.347 0 1
106.463 0 1
106.579 0 1
106.694 0 1
106.81 0 1
106.926 0 1
107.041 0 1
107.157 0 1
109.576 0 1
109.692 0 1
109.807 0 1
109.923 0 1
110.039 0 1
110.155 0 1
110.27 0 1
110.386 0 1
110.502 0 1
110.618 598 24.454
110.735 819 28.6182
110.851 967 31.0966
110.967 1062 32.5883
111.083 1137 33.7194
111.199 1258 35.4683
111.316 1370 37.0135
111.432 1317 36.2905
111.549 1375 37.081
111.665 1469 38.3275
111.782 1436 37.8946
111.898 1410 37.55
112.015 1420 37.6829
112.132 1327 36.428
112.248 1165 34.1321
112.365 1154 33.9706
112.482 1135 33.6898
112.599 1236 35.1568
112.716 1316 36.2767
112.832 1327 36.428
112.949 1395 37.3497
113.066 1459 38.1969
113.183 1461 38.223
113.3 1474 38.3927
113.417 1412 37.5766
113.534 1324 36.3868
113.652 1240 35.2136
113.769 1120 33.4664
113.886 1009 31.7648
114.003 1061 32.573
114.12 1128 33.5857
114.238 1206 34.7275
114.355 1278 35.7491
114.472 1269 35.623
114.589 1456 38.1576
114.707 1383 37.1887
114.824 1482 38.4968
114.942 1419 37.6696
115.059 1490 38.6005
115.176 1513 38.8973
115.294 1473 38.3797
115.411 1418 37.6563
115.529 1325 36.4005
115.646 1331 36.4829
115.764 1291 35.9305
115.881 1248 35.327
115.999 1189 34.4819
116.116 1193 34.5398
116.234 1268 35.609
116.351 1404 37.47
116.469 1458 38.1838
116.586 1498 38.704
116.704 1418 37.6563
116.821 1426 37.7624
116.939 1468 38.3145
117.056 1418 37.6563
117.174 1312 36.2215
117.291 1205 34.7131
117.409 1156 34
117.526 1093 33.0606
117.644 990 31.4643
117.761 1173 34.2491
117.879 1197 34.5977
117.996 1313 36.2353
118.114 1363 36.9188
118.231 1428 37.7889
118.349 1387 37.2424
118.466 1402 37.4433
118.584 1409 37.5366
118.701 1417 37.6431
118.819 1452 38.1051
118.936 1370 37.0135
119.053 1325 36.4005
119.171 1248 35.327
119.288 1340 36.606
119.405 1222 34.9571
119.523 1119 33.4515
119.64 1137 33.7194
119.757 1154 33.9706
119.875 1256 35.4401
119.992 1299 36.0416
120.109 1281 35.7911
120.226 1396 37.3631
120.343 1385 37.2156
120.46 1312 36.2215
120.578 1304 36.1109
120.695 1263 35.5387
120.812 1232 35.0999
120.929 1182 34.3802
121.046 1095 33.0908
121.163 978 31.273
121.279 992 31.496
121.396 935 30.5778
121.513 1008 31.749
121.63 1060 32.5576
121.747 1065 32.6343
121.863 1043 32.2955
121.98 1099 33.1512
122.097 1044 32.311
122.213 1092 33.0454
122.33 1061 32.573
122.446 968 31.1127
122.563 971 31.1609
122.679 895 29.9166
122.795 836 28.9137
122.912 764 27.6405
123.028 655 25.593
123.144 574 23.9583
123.26 543 23.3024
123.377 0 1
123.493 0 1
123.609 0 1
123.725 0 1
123.84 0 1
123.956 0 1
124.072 0 1
124.188 0 1
124.303 0 1
124.419 0 1
126.852 0 1
126.968 0 1
127.083 0 1
127.199 0 1
127.315 0 1
127.431 0 1
127.547 0 1
127.663 0 1
127.779 0 1
127.895 0 1
128.011 0 1
128.127 0 1
128.243 0 1
128.359 1285 35.8469
128.476 1271 35.6511
128.592 1253 35.3977
128.708 1205 34.7131
128.825 1226 35.0143
128.941 1304 36.1109
129.058 1321 36.3456
129.174 1456 38.1576
129.291 1438 37.921
129.408 1498 38.704
129.524 1460 38.2099
129.641 1448 38.0526
129.758 1378 37.1214
129.875 1290 35.9166
129.992 1311 36.2077
130.108 1170 34.2053
130.225 1042 32.28
130.342 1094 33.0757
130.459 1157 34.0147
130.576 1144 33.8231
130.693 1262 35.5246
130.81 1342 36.6333
130.928 1370 37.0135
131.045 1440 37.9473
131.162 1498 38.704
131.279 1463 38.2492
131.396 1450 38.0789
131.513 1431 37.8286
131.631 1459 38.1969
131.748 1386 37.229
131.865 1393 37.3229
131.983 1331 36.4829
132.1 1240 35.2136
132.217 1220 34.9285
132.335 1219 34.9142
132.452 1246 35.2987
132.57 1342 36.6333
132.687 1442 37.9737
132.804 1361 36.8917
132.922 1444 38
133.039 1503 38.7685
133.157 1402 37.4433
133.274 1518 38.9615
133.392 1431 37.8286
133.509 1275 35.7071
133.627 1272 35.6651
133.744 1143 33.8083
133.862 1092 33.0454
133.979 1151 33.9264
134.097 1210 34.7851
134.214 1259 35.4824
134.332 1314 36.2491
134.449 1370 37.0135
134.567 1437 37.9078
134.684 1443 37.9868
134.802 1465 38.2753
134.919 1472 38.3667
135.037 1498 38.704
135.154 1488 38.5746
135.272 1351 36.756
135.389 1374 37.0675
135.507 1368 36.9865
135.624 1274 35.6931
135.742 1285 35.8469
135.859 1216 34.8712
135.977 1298 36.0278
136.094 1326 36.4143
136.211 1372 37.0405
136.329 1443 37.9868
136.446 1433 37.855
136.564 1464 38.2623
136.681 1518 38.9615
136.798 1496 38.6782
136.915 1485 38.5357
137.033 1406 37.4967
137.15 1366 36.9594
137.267 1189 34.4819
137.384 1167 34.1614
137.502 1075 32.7872
137.619 1126 33.5559
137.736 1243 35.2562
137.853 1212 34.8138
137.97 1304 36.1109
138.087 1313 36.2353
138.204 1419 37.6696
138.321 1418 37.6563
138.438 1436 37.8946
138.555 1430 37.8153
138.672 1409 37.5366
138.788 1411 37.5633
138.905 1332 36.4966
139.022 1227 35.0286
139.139 1233 35.1141
139.255 1140 33.7639
139.372 1115 33.3916
139.488 930 30.4959
139.605 937 30.6105
139.721 933 30.545
139.838 962 31.0161
139.954 924 30.3974
140.071 911 30.1828
140.187 887 29.7825
140.303 815 28.5482
140.419 758 27.5318
140.535 740 27.2029
140.652 669 25.865
140.768 0 1
140.884 0 1
141 0 1
141.115 0 1
141.231 0 1
141.347 0 1
141.463 0 1
141.578 0 1
141.694 0 1
144.104 0 1
144.219 0 1
144.335 0 1
144.45 0 1
144.566 0 1
144.682 0 1
144.798 0 1
144.914 0 1
145.03 0 1
145.146 1007 31.7333
145.262 1145 33.8378
145.378 1117 33.4215
145.494 1191 34.5109
145.61 1158 34.0294
145.726 1123 33.5112
145.842 1076 32.8024
145.959 1043 32.2955
146.075 995 31.5436
146.192 941 30.6757
146.308 925 30.4138
146.425 935 30.5778
146.541 984 31.3688
146.658 1052 32.4345
146.774 1047 32.3574
146.891 1022 31.9687
147.008 1148 33.8821
147.125 1123 33.5112
147.241 1134 33.6749
147.358 1099 33.1512
147.475 1150 33.9116
147.592 1141 33.7787
147.709 1099 33.1512
147.826 1116 33.4066
147.943 1028 32.0624
148.06 1012 31.8119
148.177 958 30.9516
148.294 999 31.607
148.411 952 30.8545
148.528 1008 31.749
148.645 1064 32.619
148.762 1124 33.5261
148.88 1190 34.4964
148.997 1167 34.1614
149.114 1114 33.3766
149.231 1146 33.8526
149.349 1237 35.171
149.466 1102 33.1964
149.583 1069 32.6956
149.701 935 30.5778
149.818 945 30.7409
149.935 949 30.8058
150.053 907 30.1164
150.17 947 30.7734
150.287 979 31.289
150.405 1055 32.4808
150.522 1001 31.6386
150.64 1071 32.7261
150.757 1021 31.9531
150.875 1123 33.5112
150.992 1082 32.8938
151.11 1193 34.5398
151.227 1074 32.7719
151.344 1077 32.8177
151.462 992 31.496
151.579 1048 32.3728
151.697 1038 32.218
151.814 954 30.8869
151.932 1005 31.7017
152.049 1010 31.7805
152.167 1000 31.6228
152.284 1067 32.665
152.402 1067 32.665
152.519 1067 32.665
152.636 1079 32.8481
152.754 1075 32.7872
152.871 1115 33.3916
152.989 1081 32.8786
153.106 1075 32.7872
153.223 994 31.5278
153.341 906 30.0998
153.458 859 29.3087
153.575 811 28.4781
153.693 859 29.3087
153.81 882 29.6985
153.927 955 30.9031
154.044 967 31.0966
154.162 959 30.9677
154.279 984 31.3688
154.396 1050 32.4037
154.513 1037 32.2025
154.63 1021 31.9531
154.747 1026 32.0312
154.864 986 31.4006
154.981 984 31.3688
155.098 948 30.7896
155.215 926 30.4302
155.332 913 30.2159
155.449 893 29.8831
155.566 914 30.2324
155.683 851 29.1719
155.8 932 30.5287
155.917 926 30.4302
156.033 934 30.5614
156.15 0 1
156.267 0 1
156.383 0 1
156.5 0 1
156.617 0 1
156.733 0 1
156.85 0 1
156.966 0 1
157.082 0 1
157.199 0 1
157.315 0 1
157.431 0 1
157.547 0 1
157.664 0 1
157.78 0 1
157.896 0 1
158.012 0 1
158.128 0 1
158.244 0 1
158.359 0 1
158.475 0 1
158.591 0 1
158.706 0 1
