
6.15755 0 1
6.2731 0 1
6.3887 0 1
6.50437 0 1
6.62009 0 1
6.73587 0 1
6.8517 0 1
6.96759 0 1
7.08353 0 1
7.19952 0 1
7.31557 0 1
7.43166 0 1
7.54781 0 1
7.664 0 1
7.78024 0 1
7.89653 0 1
8.01286 0 1
8.12924 0 1
8.24567 0 1
8.36213 0 1
8.47864 0 1
8.59519 0 1
8.71178 0 1
8.82841 0 1
8.94508 0 1
9.06179 0 1
9.17853 0 1
9.29531 0 1
9.41212 0 1
9.52897 0 1
9.64584 0 1
9.76276 0 1
9.8797 0 1
9.99667 0 1
10.1137 0 1
10.2307 0 1
10.3478 0 1
10.4648 0 1
10.5819 0 1
10.6991 0 1
10.8162 0 1
10.9334 0 1
11.0506 0 1
11.1678 0 1
11.285 0 1
11.4023 0 1
11.5196 0 1
11.6369 0 1
11.7542 0 1
11.8715 0 1
11.9888 0 1
12.1062 0 1
12.2235 0 1
12.3409 0 1
12.4582 0 1
12.5756 0 1
12.693 0 1
12.8104 0 1
12.9278 0 1
13.0452 0 1
13.1626 0 1
13.28 0 1
13.3974 0 1
13.5149 0 1
13.6323 0 1
13.7497 0 1
13.8671 0 1
13.9845 0 1
14.1019 0 1
14.2193 0 1
14.3367 0 1
14.4541 0 1
14.5714 0 1
14.6888 0 1
14.8062 0 1
14.9235 0 1
15.0408 0 0
15.1581 0 0
15.2755 0 0
15.3927 0 0
15.51 0 0
15.6273 0 0
15.7445 0 0
15.8617 0 0
15.9789 0 0
16.0961 0 0
16.2132 0 0
16.3304 0 0
16.4475 0 0
16.5646 0 0
16.6816 0 0
16.7986 0 0
16.9156 0 0
17.0326 0 0
17.1496 0 0
17.2665 0 0
17.3833 0 0
17.5002 0 0
17.617 0 0
17.7338 0 0
17.8505 0 0
17.9672 0 0
18.0839 0 0
18.2005 0 0
18.3171 0 0
18.4337 0 0
18.5502 0 0
18.6666 0 0
18.7831 0 0
18.8994 0 0
19.0158 0 0
19.1321 0 0
19.2483 0 0
19.3645 0 0
19.4806 0 0
19.5967 0 0
19.7128 0 0
19.8288 0 0
19.9447 0 0
20.0606 0 1
20.1764 0 1
20.2922 0 1
20.4079 0 1
20.5236 0 1
20.6392 0 1
20.7548 0 1
20.8702 0 1
23.3078 0 1
23.4233 0 1
23.539 0 1
23.6547 0 1
23.7704 0 1
23.8862 0 1
24.0021 0 1
24.118 0 1
24.234 0 1
24.35 0 1
24.4661 1124 33.5261
24.5822 1113 33.3617
24.6984 1123 33.5112
24.8146 1148 33.8821
24.9309 1038 32.218
25.0472 1107 33.2716
25.1636 1011 31.7962
25.28 1074 32.7719
25.3965 1088 32.9848
25.513 1100 33.1662
25.6296 1172 34.2345
25.7462 1140 33.7639
25.8628 1151 33.9264
25.9795 1189 34.4819
26.0962 1325 36.4005
26.213 1174 34.2637
26.3298 1215 34.8569
26.4466 1243 35.2562
26.5635 1175 34.2783
26.6804 1190 34.4964
26.7973 1114 33.3766
26.9143 1110 33.3167
27.0313 1149 33.8969
27.1483 1209 34.7707
27.2653 1211 34.7994
27.3824 1268 35.609
27.4996 1226 35.0143
27.6167 1209 34.7707
27.7339 1236 35.1568
27.8511 1131 33.6303
27.9683 1135 33.6898
28.0855 1157 34.0147
28.2028 1171 34.2199
28.3201 1134 33.6749
28.4374 1038 32.218
28.5547 1016 31.8748
28.6721 1046 32.3419
28.7894 1041 32.2645
28.9068 1001 31.6386
29.0242 963 31.0322
29.1416 998 31.5911
29.259 982 31.3369
29.3764 1017 31.8904
29.4939 1126 33.5559
29.6113 1070 32.7109
29.7288 1126 33.5559
29.8463 1164 34.1174
29.9638 1107 33.2716
30.0812 1080 32.8634
30.1987 1066 32.6497
30.3162 1102 33.1964
30.4337 1079 32.8481
30.5512 1084 32.9242
30.6687 1115 33.3916
30.7862 1099 33.1512
30.9037 1220 34.9285
31.0212 1158 34.0294
31.1387 1136 33.7046
31.2562 1184 34.4093
31.3737 1104 33.2265
31.4912 1147 33.8674
31.6087 1090 33.0151
31.7262 1117 33.4215
31.8436 1071 32.7261
31.9611 1069 32.6956
32.0785 967 31.0966
32.1959 948 30.7896
32.3134 963 31.0322
32.4308 946 30.7571
32.5482 939 30.6431
32.6655 1002 31.6544
32.7829 953 30.8707
32.9002 1011 31.7962
33.0176 1018 31.9061
33.1349 1003 31.6702
33.2522 1091 33.0303
33.3694 1013 31.8277
33.4867 1084 32.9242
33.6039 1120 33.4664
33.7211 1082 32.8938
33.8383 1010 31.7805
33.9554 1013 31.8277
34.0725 1025 32.0156
34.1896 1029 32.078
34.3067 1111 33.3317
34.4237 1133 33.6601
34.5407 1078 32.8329
34.6577 1151 33.9264
34.7746 1181 34.3657
34.8915 1107 33.2716
35.0084 1124 33.5261
35.1252 1077 32.8177
35.242 1075 32.7872
35.3587 1088 32.9848
35.4755 1064 32.619
35.5921 1018 31.9061
35.7088 1004 31.686
35.8254 987 31.4166
35.9419 913 30.2159
36.0584 932 30.5287
36.1749 925 30.4138
36.2913 885 29.7489
36.4077 910 30.1662
36.524 898 29.9666
36.6403 963 31.0322
36.7565 982 31.3369
36.8727 1025 32.0156
36.9889 1033 32.1403
37.1049 1021 31.9531
37.221 0 1
37.3369 0 1
37.4529 0 1
37.5687 0 1
37.6845 0 1
37.8003 0 1
37.916 0 1
38.0316 0 1
38.1472 0 1
40.5851 0 1
40.7008 0 1
40.8164 0 1
40.9322 0 1
41.048 0 1
41.1639 0 1
41.2798 0 1
41.3958 0 1
41.5118 0 1
41.6279 0 1
41.744 700 26.4575
41.8602 760 27.5681
41.9765 789 28.0891
42.0928 836 28.9137
42.2091 852 29.189
42.3255 848 29.1204
42.4419 812 28.4956
42.5584 813 28.5132
42.675 846 29.0861
42.7915 813 28.5132
42.9081 761 27.5862
43.0248 793 28.1603
43.1415 796 28.2135
43.2582 788 28.0713
43.375 851 29.1719
43.4918 849 29.1376
43.6087 824 28.7054
43.7256 841 29
43.8425 818 28.6007
43.9595 761 27.5862
44.0765 767 27.6948
44.1935 738 27.1662
44.3106 726 26.9444
44.4277 681 26.096
44.5448 704 26.533
44.6619 615 24.7992
44.7791 636 25.219
44.8963 597 24.4336
45.0136 577 24.0208
45.1308 543 23.3024
45.2481 586 24.2074
45.3654 601 24.5153
45.4827 573 23.9374
45.6001 598 24.454
45.7174 623 24.96
45.8348 601 24.5153
45.9522 613 24.7588
46.0697 574 23.9583
46.1871 599 24.4745
46.3046 543 23.3024
46.422 584 24.1661
46.5395 560 23.6643
46.657 606 24.6171
46.7745 550 23.4521
46.892 586 24.2074
47.0096 601 24.5153
47.1271 621 24.9199
47.2446 602 24.5357
47.3622 569 23.8537
47.4797 566 23.7908
47.5973 546 23.3666
47.7149 520 22.8035
47.8324 543 23.3024
47.95 518 22.7596
48.0675 452 21.2603
48.1851 476 21.8174
48.3027 387 19.6723
48.4202 386 19.6469
48.5378 405 20.1246
48.6554 393 19.8242
48.7729 379 19.4679
48.8904 428 20.6882
49.008 421 20.5183
49.1255 476 21.8174
49.243 464 21.5407
49.3605 446 21.1187
49.478 488 22.0907
49.5955 444 21.0713
49.713 484 22
49.8304 414 20.347
49.9479 479 21.8861
50.0653 466 21.587
50.1827 505 22.4722
50.3001 501 22.383
50.4175 567 23.8118
50.5348 557 23.6008
50.6521 550 23.4521
50.7694 621 24.9199
50.8867 627 25.04
51.004 615 24.7992
51.1212 655 25.593
51.2384 617 24.8395
51.3556 587 24.2281
51.4727 621 24.9199
51.5899 609 24.6779
51.707 582 24.1247
51.824 512 22.6274
51.9411 541 23.2594
52.0581 562 23.7065
52.175 553 23.516
52.2919 574 23.9583
52.4088 634 25.1794
52.5257 628 25.0599
52.6425 738 27.1662
52.7593 723 26.8887
52.876 767 27.6948
52.9927 751 27.4044
53.1094 783 27.9821
53.226 810 28.4605
53.3426 797 28.2312
53.4591 812 28.4956
53.5756 792 28.1425
53.692 882 29.6985
53.8084 868 29.4618
53.9248 904 30.0666
54.0411 937 30.6105
54.1573 986 31.4006
54.2735 0 1
54.3896 0 1
54.5057 0 1
54.6217 0 1
54.7377 0 1
54.8537 0 1
54.9695 0 1
55.0853 0 1
55.2011 0 1
55.3168 0 1
55.4324 0 1
57.824 0 1
57.9396 0 1
58.0553 0 1
58.1711 0 1
58.2869 0 1
58.4028 0 1
58.5187 0 1
58.6347 0 1
58.7508 0 1
58.8669 0 1
58.983 1032 32.1248
59.0992 1046 32.3419
59.2155 1046 32.3419
59.3318 1094 33.0757
59.4482 1095 33.0908
59.5646 1122 33.4963
59.681 1150 33.9116
59.7975 1122 33.4963
59.9141 1070 32.7109
60.0306 1000 31.6228
60.1473 937 30.6105
60.2639 829 28.7924
60.3807 819 28.6182
60.4974 825 28.7228
60.6142 787 28.0535
60.731 723 26.8887
60.8479 722 26.8701
60.9648 773 27.8029
61.0818 851 29.1719
61.1987 852 29.189
61.3158 865 29.4109
61.4328 877 29.6142
61.5499 915 30.249
61.667 923 30.3809
61.7841 868 29.4618
61.9013 921 30.348
62.0185 875 29.5804
62.1357 870 29.4958
62.253 936 30.5941
62.3702 971 31.1609
62.4875 1017 31.8904
62.6049 1012 31.8119
62.7222 1067 32.665
62.8396 1099 33.1512
62.9569 1105 33.2415
63.0743 1080 32.8634
63.1918 1101 33.1813
63.3092 1008 31.749
63.4267 979 31.289
63.5441 1001 31.6386
63.6616 889 29.8161
63.7791 854 29.2233
63.8966 813 28.5132
64.0142 815 28.5482
64.1317 761 27.5862
64.2492 719 26.8142
64.3668 814 28.5307
64.4843 818 28.6007
64.6019 795 28.1957
64.7195 919 30.315
64.837 927 30.4467
64.9546 946 30.7571
65.0722 978 31.273
65.1898 916 30.2655
65.3074 993 31.5119
65.4249 866 29.4279
65.5425 919 30.315
65.6601 860 29.3258
65.7777 844 29.0517
65.8952 914 30.2324
66.0128 916 30.2655
66.1304 1026 32.0312
66.2479 1013 31.8277
66.3655 1054 32.4654
66.483 1041 32.2645
66.6005 1110 33.3167
66.718 1117 33.4215
66.8355 1035 32.1714
66.953 1027 32.0468
67.0705 985 31.3847
67.1879 948 30.7896
67.3054 868 29.4618
67.4228 786 28.0357
67.5402 749 27.3679
67.6576 644 25.3772
67.7749 649 25.4755
67.8923 727 26.9629
68.0096 720 26.8328
68.1269 742 27.2397
68.2442 797 28.2312
68.3614 828 28.775
68.4787 909 30.1496
68.5958 903 30.05
68.713 919 30.315
68.8302 942 30.692
68.9473 891 29.8496
69.0643 900 30
69.1814 861 29.3428
69.2984 846 29.0861
69.4154 843 29.0345
69.5323 812 28.4956
69.6492 901 30.0167
69.7661 952 30.8545
69.8829 1052 32.4345
69.9997 1078 32.8329
70.1165 1080 32.8634
70.2332 1085 32.9393
70.3499 1047 32.3574
70.4665 1097 33.121
70.5831 983 31.3528
70.6996 960 30.9839
70.8161 972 31.1769
70.9326 895 29.9166
71.049 769 27.7308
71.1653 769 27.7308
71.2817 694 26.3439
71.3979 619 24.8797
71.5141 646 25.4165
71.6303 721 26.8514
71.7464 653 25.5539
71.8624 0 1
71.9784 0 1
72.0944 0 1
72.2102 0 1
72.3261 0 1
72.4418 0 1
72.5575 0 1
72.6732 0 1
75.1054 0 1
75.2209 0 1
75.3365 0 1
75.4521 0 1
75.5678 0 1
75.6835 0 1
75.7993 0 1
75.9151 0 1
76.031 0 1
76.147 865 29.4109
76.263 935 30.5778
76.3791 887 29.7825
76.4952 861 29.3428
76.6113 728 26.9815
76.7276 741 27.2213
76.8438 710 26.6458
76.9601 719 26.8142
77.0765 777 27.8747
77.1929 800 28.2843
77.3093 923 30.3809
77.4258 987 31.4166
77.5423 1000 31.6228
77.6589 923 30.3809
77.7755 915 30.249
77.8921 888 29.7993
78.0088 889 29.8161
78.1256 862 29.3598
78.2423 844 29.0517
78.3591 852 29.189
78.4759 840 28.9828
78.5928 888 29.7993
78.7097 949 30.8058
78.8266 958 30.9516
78.9436 1093 33.0606
79.0606 1072 32.7414
79.1776 1040 32.249
79.2946 1105 33.2415
79.4117 1071 32.7261
79.5288 1050 32.4037
79.6459 1066 32.6497
79.7631 928 30.4631
79.8802 880 29.6648
79.9974 804 28.3549
80.1147 749 27.3679
80.2319 644 25.3772
80.3491 630 25.0998
80.4664 677 26.0192
80.5837 618 24.8596
80.701 712 26.6833
80.8183 766 27.6767
80.9357 810 28.4605
81.053 871 29.5127
81.1704 813 28.5132
81.2877 787 28.0535
81.4051 723 26.8887
81.5225 751 27.4044
81.6399 752 27.4226
81.7573 746 27.313
81.8747 772 27.7849
81.9922 711 26.6646
82.1096 750 27.3861
82.227 846 29.0861
82.3444 879 29.6479
82.4619 842 29.0172
82.5793 888 29.7993
82.6967 913 30.2159
82.8142 884 29.7321
82.9316 893 29.8831
83.049 931 30.5123
83.1664 916 30.2655
83.2838 846 29.0861
83.4012 754 27.4591
83.5186 722 26.8701
83.636 647 25.4362
83.7534 603 24.5561
83.8708 558 23.622
83.9881 519 22.7816
84.1055 509 22.561
84.2228 549 23.4307
84.3401 580 24.0832
84.4575 649 25.4755
84.5747 720 26.8328
84.692 731 27.037
84.8093 738 27.1662
84.9265 752 27.4226
85.0437 684 26.1534
85.1609 727 26.9629
85.2781 689 26.2488
85.3952 694 26.3439
85.5123 681 26.096
85.6294 735 27.1109
85.7465 784 28
85.8636 780 27.9285
85.9806 887 29.7825
86.0976 909 30.1496
86.2145 936 30.5941
86.3315 995 31.5436
86.4484 992 31.496
86.5652 969 31.1288
86.682 1002 31.6544
86.7988 929 30.4795
86.9156 908 30.133
87.0323 824 28.7054
87.149 771 27.7669
87.2657 750 27.3861
87.3823 682 26.1151
87.4988 600 24.4949
87.6154 607 24.6374
87.7318 643 25.3574
87.8483 725 26.9258
87.9647 841 29
88.081 902 30.0333
88.1973 947 30.7734
88.3136 958 30.9516
88.4298 944 30.7246
88.546 924 30.3974
88.6621 929 30.4795
88.7781 855 29.2404
88.8942 0 1
89.0101 0 1
89.126 0 1
89.2419 0 1
89.3577 0 1
89.4734 0 1
89.5891 0 1
89.7047 0 1
89.8203 0 1
89.9358 0 1
92.3269 0 1
92.4424 0 1
92.558 0 1
92.6736 0 1
92.7893 0 1
92.905 0 1
93.0208 0 1
93.1366 0 1
93.2525 0 1
93.3685 0 1
93.4845 0 1
93.6005 913 30.2159
93.7167 942 30.692
93.8328 876 29.5973
93.949 957 30.9354
94.0653 781 27.9464
94.1816 844 29.0517
94.2979 803 28.3373
94.4143 808 28.4253
94.5307 862 29.3598
94.6472 806 28.3901
94.7637 908 30.133
94.8803 918 30.2985
94.9969 927 30.4467
95.1135 1068 32.6803
95.2302 1096 33.1059
95.3469 1009 31.7648
95.4637 1137 33.7194
95.5805 1124 33.5261
95.6973 1149 33.8969
95.8142 1067 32.665
95.9311 1102 33.1964
96.048 1004 31.686
96.1649 993 31.5119
96.2819 926 30.4302
96.3989 846 29.0861
96.516 830 28.8097
96.633 698 26.4197
96.7501 714 26.7208
96.8673 745 27.2947
96.9844 778 27.8927
97.1016 814 28.5307
97.2188 867 29.4449
97.336 937 30.6105
97.4532 995 31.5436
97.5704 929 30.4795
97.6877 894 29.8998
97.805 888 29.7993
97.9223 862 29.3598
98.0396 803 28.3373
98.1569 864 29.3939
98.2743 824 28.7054
98.3916 887 29.7825
98.509 893 29.8831
98.6264 937 30.6105
98.7438 998 31.5911
98.8612 1068 32.6803
98.9786 1118 33.4365
99.096 1101 33.1813
99.2134 1164 34.1174
99.3308 1117 33.4215
99.4482 1096 33.1059
99.5656 1075 32.7872
99.6831 977 31.257
99.8005 914 30.2324
99.9179 917 30.282
100.035 874 29.5635
100.153 769 27.7308
100.27 678 26.0384
100.388 737 27.1477
100.505 772 27.7849
100.622 835 28.8964
100.74 841 29
100.857 943 30.7083
100.975 990 31.4643
101.092 1005 31.7017
101.209 934 30.5614
101.327 887 29.7825
101.444 858 29.2916
101.561 860 29.3258
101.679 863 29.3769
101.796 831 28.8271
101.913 900 30
102.03 886 29.7658
102.148 1027 32.0468
102.265 1007 31.7333
102.382 1123 33.5112
102.499 1139 33.7491
102.616 1196 34.5832
102.733 1174 34.2637
102.851 1188 34.4674
102.968 1155 33.9853
103.085 1140 33.7639
103.202 1088 32.9848
103.319 1074 32.7719
103.436 962 31.0161
103.552 921 30.348
103.669 826 28.7402
103.786 753 27.4408
103.903 806 28.3901
104.02 838 28.9482
104.137 876 29.5973
104.253 960 30.9839
104.37 1072 32.7414
104.487 1056 32.4962
104.603 1050 32.4037
104.72 999 31.607
104.836 952 30.8545
104.953 934 30.5614
105.069 909 30.1496
105.186 923 30.3809
105.302 923 30.3809
105.418 990 31.4643
105.535 1100 33.1662
105.651 1193 34.5398
105.767 1169 34.1906
105.883 1245 35.2846
105.999 1264 35.5528
106.115 0 1
106.231 0 1
106.347 0 1
106.463 0 1
106.579 0 1
106.694 0 1
106.81 0 1
106.926 0 1
107.041 0 1
107.157 0 1
109.576 0 1
109.692 0 1
109.807 0 1
109.923 0 1
110.039 0 1
110.155 0 1
110.27 0 1
110.386 0 1
110.502 0 1
110.618 1042 32.28
110.735 1153 33.9559
110.851 1194 34.5543
110.967 1206 34.7275
111.083 1210 34.7851
111.199 1241 35.2278
111.316 1243 35.2562
111.432 1278 35.7491
111.549 1223 34.9714
111.665 1149 33.8969
111.782 1169 34.1906
111.898 1089 33
112.015 1074 32.7719
112.132 940 30.6594
112.248 831 28.8271
112.365 816 28.5657
112.482 781 27.9464
112.599 931 30.5123
112.716 916 30.2655
112.832 1020 31.9374
112.949 975 31.225
113.066 1029 32.078
113.183 892 29.8664
113.3 934 30.5614
113.417 847 29.1033
113.534 866 29.4279
113.652 853 29.2062
113.769 831 28.8271
113.886 881 29.6816
114.003 861 29.3428
114.12 1107 33.2716
114.238 1124 33.5261
114.355 1178 34.322
114.472 1203 34.6843
114.589 1177 34.3074
114.707 1222 34.9571
114.824 1135 33.6898
114.942 1178 34.322
115.059 1207 34.7419
115.176 1144 33.8231
115.294 1138 33.7343
115.411 1029 32.078
115.529 1056 32.4962
115.646 996 31.5595
115.764 928 30.4631
115.881 789 28.0891
115.999 829 28.7924
116.116 849 29.1376
116.234 937 30.6105
116.351 947 30.7734
116.469 1060 32.5576
116.586 1029 32.078
116.704 968 31.1127
116.821 962 31.0161
116.939 1010 31.7805
117.056 857 29.2746
117.174 919 30.315
117.291 864 29.3939
117.409 873 29.5466
117.526 1025 32.0156
117.644 1054 32.4654
117.761 1147 33.8674
117.879 1189 34.4819
117.996 1194 34.5543
118.114 1284 35.8329
118.231 1247 35.3129
118.349 1262 35.5246
118.466 1283 35.819
118.584 1309 36.1801
118.701 1247 35.3129
118.819 1266 35.5809
118.936 1183 34.3948
119.053 1140 33.7639
119.171 1092 33.0454
119.288 1052 32.4345
119.405 936 30.5941
119.523 895 29.9166
119.64 921 30.348
119.757 934 30.5614
119.875 965 31.0644
119.992 978 31.273
120.109 966 31.0805
120.226 1070 32.7109
120.343 1029 32.078
120.46 965 31.0644
120.578 977 31.257
120.695 916 30.2655
120.812 952 30.8545
120.929 943 30.7083
121.046 978 31.273
121.163 1007 31.7333
121.279 1020 31.9374
121.396 1081 32.8786
121.513 1255 35.426
121.63 1194 34.5543
121.747 1276 35.7211
121.863 1184 34.4093
121.98 1222 34.9571
122.097 1275 35.7071
122.213 1190 34.4964
122.33 1254 35.4119
122.446 1226 35.0143
122.563 1152 33.9411
122.679 1129 33.6006
122.795 1126 33.5559
122.912 1104 33.2265
123.028 1004 31.686
123.144 956 30.9192
123.26 923 30.3809
123.377 0 1
123.493 0 1
123.609 0 1
123.725 0 1
123.84 0 1
123.956 0 1
124.072 0 1
124.188 0 1
124.303 0 1
124.419 0 1
126.852 0 1
126.968 0 1
127.083 0 1
127.199 0 1
127.315 0 1
127.431 0 1
127.547 0 1
127.663 0 1
127.779 0 1
127.895 0 1
128.011 0 1
128.127 0 1
128.243 0 1
128.359 1051 32.4191
128.476 1055 32.4808
128.592 1019 31.9218
128.708 984 31.3688
128.825 1101 33.1813
128.941 1099 33.1512
129.058 1121 33.4813
129.174 1085 32.9393
129.291 1156 34
129.408 1041 32.2645
129.524 1099 33.1512
129.641 998 31.5911
129.758 1018 31.9061
129.875 1028 32.0624
129.992 1040 32.249
130.108 1052 32.4345
130.225 1122 33.4963
130.342 1194 34.5543
130.459 1245 35.2846
130.576 1417 37.6431
130.693 1296 36
130.81 1269 35.623
130.928 1281 35.7911
131.045 1348 36.7151
131.162 1320 36.3318
131.279 1288 35.8887
131.396 1288 35.8887
131.513 1291 35.9305
131.631 1207 34.7419
131.748 1196 34.5832
131.865 1120 33.4664
131.983 1044 32.311
132.1 1021 31.9531
132.217 1013 31.8277
132.335 1063 32.6037
132.452 1136 33.7046
132.57 1124 33.5261
132.687 1133 33.6601
132.804 1182 34.3802
132.922 1131 33.6303
133.039 1082 32.8938
133.157 1032 32.1248
133.274 1073 32.7567
133.392 1049 32.3883
133.509 1046 32.3419
133.627 1082 32.8938
133.744 1115 33.3916
133.862 1187 34.4529
133.979 1236 35.1568
134.097 1227 35.0286
134.214 1272 35.6651
134.332 1313 36.2353
134.449 1323 36.3731
134.567 1268 35.609
134.684 1250 35.3553
134.802 1317 36.2905
134.919 1305 36.1248
135.037 1256 35.4401
135.154 1155 33.9853
135.272 1187 34.4529
135.389 1193 34.5398
135.507 1031 32.1092
135.624 1057 32.5115
135.742 1038 32.218
135.859 1084 32.9242
135.977 1187 34.4529
136.094 1195 34.5688
136.211 1221 34.9428
136.329 1123 33.5112
136.446 1212 34.8138
136.564 1095 33.0908
136.681 1045 32.3265
136.798 1055 32.4808
136.915 1094 33.0757
137.033 1064 32.619
137.15 1056 32.4962
137.267 1014 31.8434
137.384 1167 34.1614
137.502 1126 33.5559
137.619 1251 35.3695
137.736 1312 36.2215
137.853 1286 35.8608
137.97 1263 35.5387
138.087 1311 36.2077
138.204 1318 36.3043
138.321 1290 35.9166
138.438 1325 36.4005
138.555 1368 36.9865
138.672 1278 35.7491
138.788 1179 34.3366
138.905 1187 34.4529
139.022 1194 34.5543
139.139 1165 34.1321
139.255 1040 32.249
139.372 1035 32.1714
139.488 1090 33.0151
139.605 1205 34.7131
139.721 1177 34.3074
139.838 1211 34.7994
139.954 1181 34.3657
140.071 1101 33.1813
140.187 1196 34.5832
140.303 1109 33.3017
140.419 1038 32.218
140.535 1062 32.5883
140.652 1037 32.2025
140.768 0 1
140.884 0 1
141 0 1
141.115 0 1
141.231 0 1
141.347 0 1
141.463 0 1
141.578 0 1
141.694 0 1
144.104 0 1
144.219 0 1
144.335 0 1
144.45 0 1
144.566 0 1
144.682 0 1
144.798 0 1
144.914 0 1
145.03 0 1
145.146 838 28.9482
145.262 859 29.3087
145.378 856 29.2575
145.494 848 29.1204
145.61 879 29.6479
145.726 826 28.7402
145.842 863 29.3769
145.959 863 29.3769
146.075 860 29.3258
146.192 878 29.6311
146.308 958 30.9516
146.425 954 30.8869
146.541 976 31.241
146.658 995 31.5436
146.774 983 31.3528
146.891 1022 31.9687
147.008 973 31.1929
147.125 1039 32.2335
147.241 1014 31.8434
147.358 1083 32.909
147.475 1016 31.8748
147.592 1031 32.1092
147.709 1001 31.6386
147.826 957 30.9354
147.943 905 30.0832
148.06 789 28.0891
148.177 874 29.5635
148.294 869 29.4788
148.411 909 30.1496
148.528 982 31.3369
148.645 953 30.8707
148.762 931 30.5123
148.88 917 30.282
148.997 892 29.8664
149.114 941 30.6757
149.231 955 30.9031
149.349 873 29.5466
149.466 911 30.1828
149.583 888 29.7993
149.701 863 29.3769
149.818 872 29.5296
149.935 882 29.6985
150.053 912 30.1993
150.17 939 30.6431
150.287 992 31.496
150.405 995 31.5436
150.522 1048 32.3728
150.64 1041 32.2645
150.757 1047 32.3574
150.875 977 31.257
150.992 1040 32.249
151.11 1061 32.573
151.227 1048 32.3728
151.344 1026 32.0312
151.462 983 31.3528
151.579 1027 32.0468
151.697 901 30.0167
151.814 903 30.05
151.932 938 30.6268
152.049 953 30.8707
152.167 977 31.257
152.284 1039 32.2335
152.402 1025 32.0156
152.519 1047 32.3574
152.636 975 31.225
152.754 1035 32.1714
152.871 988 31.4325
152.989 938 30.6268
153.106 921 30.348
153.223 953 30.8707
153.341 973 31.1929
153.458 975 31.225
153.575 938 30.6268
153.693 1010 31.7805
153.81 970 31.1448
153.927 1060 32.5576
154.044 1060 32.5576
154.162 1091 33.0303
154.279 1097 33.121
154.396 1123 33.5112
154.513 1151 33.9264
154.63 1195 34.5688
154.747 1224 34.9857
154.864 1217 34.8855
154.981 1236 35.1568
155.098 1136 33.7046
155.215 1095 33.0908
155.332 1018 31.9061
155.449 1075 32.7872
155.566 1043 32.2955
155.683 1136 33.7046
155.8 1126 33.5559
155.917 1088 32.9848
156.033 1120 33.4664
156.15 0 1
156.267 0 1
156.383 0 1
156.5 0 1
156.617 0 1
156.733 0 1
156.85 0 1
156.966 0 1
157.082 0 1
157.199 0 1
157.315 0 1
157.431 0 1
157.547 0 1
157.664 0 1
157.78 0 1
157.896 0 1
158.012 0 1
158.128 0 1
158.244 0 1
158.359 0 1
158.475 0 1
158.591 0 1
158.706 0 1
