
6.15755 0 1
6.2731 0 1
6.3887 0 1
6.50437 0 1
6.62009 0 1
6.73587 0 1
6.8517 0 1
6.96759 0 1
7.08353 0 1
7.19952 0 1
7.31557 0 1
7.43166 0 1
7.54781 0 1
7.664 0 1
7.78024 0 1
7.89653 0 1
8.01286 0 1
8.12924 0 1
8.24567 0 1
8.36213 0 1
8.47864 0 1
8.59519 0 1
8.71178 0 1
8.82841 0 1
8.94508 0 1
9.06179 0 1
9.17853 0 1
9.29531 0 1
9.41212 0 1
9.52897 0 1
9.64584 0 1
9.76276 0 1
9.8797 0 1
9.99667 0 1
10.1137 0 1
10.2307 0 1
10.3478 0 1
10.4648 0 1
10.5819 0 1
10.6991 0 1
10.8162 0 1
10.9334 0 1
11.0506 0 1
11.1678 0 1
11.285 0 1
11.4023 0 1
11.5196 0 1
11.6369 0 1
11.7542 0 1
11.8715 0 1
11.9888 0 1
12.1062 0 1
12.2235 0 1
12.3409 0 1
12.4582 0 1
12.5756 0 1
12.693 0 1
12.8104 0 1
12.9278 0 1
13.0452 0 1
13.1626 0 1
13.28 0 1
13.3974 0 1
13.5149 0 1
13.6323 0 1
13.7497 0 1
13.8671 0 1
13.9845 0 1
14.1019 0 1
14.2193 0 1
14.3367 0 1
14.4541 0 1
14.5714 0 1
14.6888 0 1
14.8062 0 1
14.9235 0 1
15.0408 0 0
15.1581 0 0
15.2755 0 0
15.3927 0 0
15.51 0 0
15.6273 0 0
15.7445 0 0
15.8617 0 0
15.9789 0 0
16.0961 0 0
16.2132 0 0
16.3304 0 0
16.4475 0 0
16.5646 0 0
16.6816 0 0
16.7986 0 0
16.9156 0 0
17.0326 0 0
17.1496 0 0
17.2665 0 0
17.3833 0 0
17.5002 0 0
17.617 0 0
17.7338 0 0
17.8505 0 0
17.9672 0 0
18.0839 0 0
18.2005 0 0
18.3171 0 0
18.4337 0 0
18.5502 0 0
18.6666 0 0
18.7831 0 0
18.8994 0 0
19.0158 0 0
19.1321 0 0
19.2483 0 0
19.3645 0 0
19.4806 0 0
19.5967 0 0
19.7128 0 0
19.8288 0 0
19.9447 0 0
20.0606 0 1
20.1764 0 1
20.2922 0 1
20.4079 0 1
20.5236 0 1
20.6392 0 1
20.7548 0 1
20.8702 0 1
23.3078 0 1
23.4233 0 1
23.539 0 1
23.6547 0 1
23.7704 0 1
23.8862 0 1
24.0021 0 1
24.118 0 1
24.234 0 1
24.35 0 1
24.4661 601 24.5153
24.5822 590 24.2899
24.6984 614 24.779
24.8146 578 24.0416
24.9309 616 24.8193
25.0472 654 25.5734
25.1636 632 25.1396
25.28 652 25.5343
25.3965 693 26.3249
25.513 635 25.1992
25.6296 665 25.7876
25.7462 648 25.4558
25.8628 655 25.593
25.9795 648 25.4558
26.0962 636 25.219
26.213 668 25.8457
26.3298 641 25.318
26.4466 663 25.7488
26.5635 670 25.8844
26.6804 703 26.5141
26.7973 639 25.2784
26.9143 565 23.7697
27.0313 594 24.3721
27.1483 590 24.2899
27.2653 566 23.7908
27.3824 598 24.454
27.4996 627 25.04
27.6167 585 24.1868
27.7339 615 24.7992
27.8511 599 24.4745
27.9683 587 24.2281
28.0855 566 23.7908
28.2028 571 23.8956
28.3201 585 24.1868
28.4374 563 23.7276
28.5547 628 25.0599
28.6721 620 24.8998
28.7894 647 25.4362
28.9068 597 24.4336
29.0242 663 25.7488
29.1416 655 25.593
29.259 639 25.2784
29.3764 604 24.5764
29.4939 634 25.1794
29.6113 662 25.7294
29.7288 643 25.3574
29.8463 591 24.3105
29.9638 599 24.4745
30.0812 633 25.1595
30.1987 601 24.5153
30.3162 597 24.4336
30.4337 531 23.0434
30.5512 553 23.516
30.6687 516 22.7156
30.7862 542 23.2809
30.9037 556 23.5797
31.0212 563 23.7276
31.1387 521 22.8254
31.2562 577 24.0208
31.3737 523 22.8692
31.4912 519 22.7816
31.6087 533 23.0868
31.7262 549 23.4307
31.8436 585 24.1868
31.9611 576 24
32.0785 627 25.04
32.1959 594 24.3721
32.3134 606 24.6171
32.4308 637 25.2389
32.5482 593 24.3516
32.6655 583 24.1454
32.7829 570 23.8747
32.9002 583 24.1454
33.0176 589 24.2693
33.1349 613 24.7588
33.2522 593 24.3516
33.3694 643 25.3574
33.4867 593 24.3516
33.6039 646 25.4165
33.7211 591 24.3105
33.8383 605 24.5967
33.9554 604 24.5764
34.0725 569 23.8537
34.1896 553 23.516
34.3067 529 23
34.4237 493 22.2036
34.5407 481 21.9317
34.6577 524 22.891
34.7746 574 23.9583
34.8915 551 23.4734
35.0084 533 23.0868
35.1252 504 22.4499
35.242 497 22.2935
35.3587 517 22.7376
35.4755 554 23.5372
35.5921 507 22.5167
35.7088 593 24.3516
35.8254 564 23.7487
35.9419 570 23.8747
36.0584 535 23.1301
36.1749 618 24.8596
36.2913 619 24.8797
36.4077 616 24.8193
36.524 567 23.8118
36.6403 589 24.2693
36.7565 610 24.6982
36.8727 582 24.1247
36.9889 571 23.8956
37.1049 568 23.8328
37.221 0 1
37.3369 0 1
37.4529 0 1
37.5687 0 1
37.6845 0 1
37.8003 0 1
37.916 0 1
38.0316 0 1
38.1472 0 1
40.5851 0 1
40.7008 0 1
40.8164 0 1
40.9322 0 1
41.048 0 1
41.1639 0 1
41.2798 0 1
41.3958 0 1
41.5118 0 1
41.6279 0 1
41.744 499 22.3383
41.8602 485 22.0227
41.9765 508 22.5389
42.0928 478 21.8632
42.2091 514 22.6716
42.3255 520 22.8035
42.4419 547 23.388
42.5584 506 22.4944
42.675 505 22.4722
42.7915 510 22.5832
42.9081 464 21.5407
43.0248 428 20.6882
43.1415 437 20.9045
43.2582 445 21.095
43.375 488 22.0907
43.4918 477 21.8403
43.6087 441 21
43.7256 455 21.3307
43.8425 427 20.664
43.9595 438 20.9284
44.0765 490 22.1359
44.1935 424 20.5913
44.3106 457 21.3776
44.4277 428 20.6882
44.5448 443 21.0476
44.6619 442 21.0238
44.7791 429 20.7123
44.8963 424 20.5913
45.0136 412 20.2978
45.1308 429 20.7123
45.2481 467 21.6102
45.3654 418 20.445
45.4827 435 20.8567
45.6001 424 20.5913
45.7174 384 19.5959
45.8348 385 19.6214
45.9522 406 20.1494
46.0697 425 20.6155
46.1871 373 19.3132
46.3046 390 19.7484
46.422 377 19.4165
46.5395 362 19.0263
46.657 329 18.1384
46.7745 335 18.303
46.892 304 17.4356
47.0096 324 18
47.1271 336 18.3303
47.2446 363 19.0526
47.3622 324 18
47.4797 314 17.72
47.5973 350 18.7083
47.7149 329 18.1384
47.8324 302 17.3781
47.95 356 18.868
48.0675 319 17.8606
48.1851 342 18.4932
48.3027 327 18.0831
48.4202 345 18.5742
48.5378 309 17.5784
48.6554 299 17.2916
48.7729 315 17.7482
48.8904 306 17.4929
49.008 365 19.105
49.1255 309 17.5784
49.243 348 18.6548
49.3605 339 18.412
49.478 321 17.9165
49.5955 334 18.2757
49.713 348 18.6548
49.8304 353 18.7883
49.9479 363 19.0526
50.0653 313 17.6918
50.1827 320 17.8885
50.3001 288 16.9706
50.4175 287 16.9411
50.5348 309 17.5784
50.6521 341 18.4662
50.7694 329 18.1384
50.8867 365 19.105
51.004 313 17.6918
51.1212 341 18.4662
51.2384 338 18.3848
51.3556 359 18.9473
51.4727 388 19.6977
51.5899 413 20.3224
51.707 405 20.1246
51.824 435 20.8567
51.9411 380 19.4936
52.0581 408 20.199
52.175 446 21.1187
52.2919 412 20.2978
52.4088 438 20.9284
52.5257 446 21.1187
52.6425 392 19.799
52.7593 447 21.1424
52.876 448 21.166
52.9927 441 21
53.1094 434 20.8327
53.226 443 21.0476
53.3426 464 21.5407
53.4591 450 21.2132
53.5756 483 21.9773
53.692 455 21.3307
53.8084 414 20.347
53.9248 381 19.5192
54.0411 351 18.735
54.1573 373 19.3132
54.2735 0 1
54.3896 0 1
54.5057 0 1
54.6217 0 1
54.7377 0 1
54.8537 0 1
54.9695 0 1
55.0853 0 1
55.2011 0 1
55.3168 0 1
55.4324 0 1
57.824 0 1
57.9396 0 1
58.0553 0 1
58.1711 0 1
58.2869 0 1
58.4028 0 1
58.5187 0 1
58.6347 0 1
58.7508 0 1
58.8669 0 1
58.983 469 21.6564
59.0992 428 20.6882
59.2155 446 21.1187
59.3318 458 21.4009
59.4482 440 20.9762
59.5646 445 21.095
59.681 460 21.4476
59.7975 474 21.7715
59.9141 499 22.3383
60.0306 473 21.7486
60.1473 497 22.2935
60.2639 507 22.5167
60.3807 485 22.0227
60.4974 490 22.1359
60.6142 490 22.1359
60.731 467 21.6102
60.8479 515 22.6936
60.9648 461 21.4709
61.0818 455 21.3307
61.1987 476 21.8174
61.3158 478 21.8632
61.4328 466 21.587
61.5499 410 20.2485
61.667 473 21.7486
61.7841 475 21.7945
61.9013 424 20.5913
62.0185 462 21.4942
62.1357 433 20.8087
62.253 439 20.9523
62.3702 433 20.8087
62.4875 438 20.9284
62.6049 417 20.4206
62.7222 405 20.1246
62.8396 403 20.0749
62.9569 371 19.2614
63.0743 374 19.3391
63.1918 361 19
63.3092 441 21
63.4267 402 20.0499
63.5441 412 20.2978
63.6616 409 20.2237
63.7791 449 21.1896
63.8966 418 20.445
64.0142 439 20.9523
64.1317 410 20.2485
64.2492 411 20.2731
64.3668 415 20.3715
64.4843 413 20.3224
64.6019 392 19.799
64.7195 394 19.8494
64.837 405 20.1246
64.9546 439 20.9523
65.0722 385 19.6214
65.1898 396 19.8997
65.3074 408 20.199
65.4249 392 19.799
65.5425 382 19.5448
65.6601 379 19.4679
65.7777 367 19.1572
65.8952 406 20.1494
66.0128 383 19.5704
66.1304 375 19.3649
66.2479 339 18.412
66.3655 304 17.4356
66.483 336 18.3303
66.6005 335 18.303
66.718 372 19.2873
66.8355 336 18.3303
66.953 380 19.4936
67.0705 394 19.8494
67.1879 372 19.2873
67.3054 379 19.4679
67.4228 383 19.5704
67.5402 342 18.4932
67.6576 391 19.7737
67.7749 337 18.3576
67.8923 360 18.9737
68.0096 341 18.4662
68.1269 347 18.6279
68.2442 359 18.9473
68.3614 336 18.3303
68.4787 353 18.7883
68.5958 385 19.6214
68.713 353 18.7883
68.8302 404 20.0998
68.9473 372 19.2873
69.0643 365 19.105
69.1814 349 18.6815
69.2984 357 18.8944
69.4154 360 18.9737
69.5323 368 19.1833
69.6492 338 18.3848
69.7661 357 18.8944
69.8829 345 18.5742
69.9997 278 16.6733
70.1165 281 16.7631
70.2332 305 17.4642
70.3499 323 17.9722
70.4665 286 16.9115
70.5831 336 18.3303
70.6996 332 18.2209
70.8161 352 18.7617
70.9326 379 19.4679
71.049 297 17.2337
71.1653 334 18.2757
71.2817 323 17.9722
71.3979 293 17.1172
71.5141 318 17.8326
71.6303 298 17.2627
71.7464 258 16.0624
71.8624 0 1
71.9784 0 1
72.0944 0 1
72.2102 0 1
72.3261 0 1
72.4418 0 1
72.5575 0 1
72.6732 0 1
75.1054 0 1
75.2209 0 1
75.3365 0 1
75.4521 0 1
75.5678 0 1
75.6835 0 1
75.7993 0 1
75.9151 0 1
76.031 0 1
76.147 204 14.2829
76.263 276 16.6132
76.3791 255 15.9687
76.4952 277 16.6433
76.6113 284 16.8523
76.7276 295 17.1756
76.8438 251 15.843
76.9601 259 16.0935
77.0765 239 15.4596
77.1929 268 16.3707
77.3093 239 15.4596
77.4258 254 15.9374
77.5423 229 15.1327
77.6589 232 15.2315
77.7755 219 14.7986
77.8921 232 15.2315
78.0088 247 15.7162
78.1256 221 14.8661
78.2423 208 14.4222
78.3591 201 14.1774
78.4759 189 13.7477
78.5928 221 14.8661
78.7097 192 13.8564
78.8266 224 14.9666
78.9436 181 13.4536
79.0606 170 13.0384
79.1776 159 12.6095
79.2946 144 12
79.4117 181 13.4536
79.5288 180 13.4164
79.6459 184 13.5647
79.7631 172 13.1149
79.8802 164 12.8062
79.9974 184 13.5647
80.1147 160 12.6491
80.2319 159 12.6095
80.3491 146 12.083
80.4664 173 13.1529
80.5837 156 12.49
80.701 176 13.2665
80.8183 159 12.6095
80.9357 148 12.1655
81.053 134 11.5758
81.1704 143 11.9583
81.2877 139 11.7898
81.4051 136 11.6619
81.5225 134 11.5758
81.6399 120 10.9545
81.7573 103 10.1489
81.8747 113 10.6301
81.9922 128 11.3137
82.1096 109 10.4403
82.227 84 9.16515
82.3444 95 9.74679
82.4619 91 9.53939
82.5793 102 10.0995
82.6967 88 9.38083
82.8142 85 9.21954
82.9316 65 8.06226
83.049 84 9.16515
83.1664 77 8.77496
83.2838 77 8.77496
83.4012 78 8.83176
83.5186 76 8.7178
83.636 72 8.48528
83.7534 64 8
83.8708 58 7.61577
83.9881 63 7.93725
84.1055 50 7.07107
84.2228 66 8.12404
84.3401 53 7.28011
84.4575 56 7.48331
84.5747 47 6.85565
84.692 40 6.32456
84.8093 42 6.48074
84.9265 46 6.78233
85.0437 53 7.28011
85.1609 52 7.2111
85.2781 34 5.83095
85.3952 40 6.32456
85.5123 40 6.32456
85.6294 35 5.91608
85.7465 31 5.56776
85.8636 37 6.08276
85.9806 43 6.55744
86.0976 21 4.58258
86.2145 32 5.65685
86.3315 39 6.245
86.4484 49 7
86.5652 47 6.85565
86.682 65 8.06226
86.7988 62 7.87401
86.9156 61 7.81025
87.0323 66 8.12404
87.149 67 8.18535
87.2657 63 7.93725
87.3823 74 8.60233
87.4988 72 8.48528
87.6154 68 8.24621
87.7318 75 8.66025
87.8483 80 8.94427
87.9647 99 9.94987
88.081 101 10.0499
88.1973 85 9.21954
88.3136 113 10.6301
88.4298 112 10.583
88.546 100 10
88.6621 120 10.9545
88.7781 116 10.7703
88.8942 0 1
89.0101 0 1
89.126 0 1
89.2419 0 1
89.3577 0 1
89.4734 0 1
89.5891 0 1
89.7047 0 1
89.8203 0 1
89.9358 0 1
92.3269 0 1
92.4424 0 1
92.558 0 1
92.6736 0 1
92.7893 0 1
92.905 0 1
93.0208 0 1
93.1366 0 1
93.2525 0 1
93.3685 0 1
93.4845 0 1
93.6005 220 14.8324
93.7167 201 14.1774
93.8328 188 13.7113
93.949 172 13.1149
94.0653 165 12.8452
94.1816 187 13.6748
94.2979 175 13.2288
94.4143 157 12.53
94.5307 155 12.4499
94.6472 166 12.8841
94.7637 130 11.4018
94.8803 166 12.8841
94.9969 150 12.2474
95.1135 150 12.2474
95.2302 145 12.0416
95.3469 138 11.7473
95.4637 95 9.74679
95.5805 84 9.16515
95.6973 116 10.7703
95.8142 165 12.8452
95.9311 133 11.5326
96.048 171 13.0767
96.1649 181 13.4536
96.2819 168 12.9615
96.3989 188 13.7113
96.516 150 12.2474
96.633 166 12.8841
96.7501 175 13.2288
96.8673 190 13.784
96.9844 177 13.3041
97.1016 209 14.4568
97.2188 207 14.3875
97.336 219 14.7986
97.4532 223 14.9332
97.5704 204 14.2829
97.6877 235 15.3297
97.805 270 16.4317
97.9223 242 15.5563
98.0396 242 15.5563
98.1569 265 16.2788
98.2743 255 15.9687
98.3916 267 16.3401
98.509 248 15.748
98.6264 288 16.9706
98.7438 275 16.5831
98.8612 259 16.0935
98.9786 252 15.8745
99.096 227 15.0665
99.2134 215 14.6629
99.3308 242 15.5563
99.4482 325 18.0278
99.5656 329 18.1384
99.6831 327 18.0831
99.8005 324 18
99.9179 287 16.9411
100.035 347 18.6279
100.153 335 18.303
100.27 356 18.868
100.388 370 19.2354
100.505 354 18.8149
100.622 341 18.4662
100.74 352 18.7617
100.857 331 18.1934
100.975 380 19.4936
101.092 367 19.1572
101.209 360 18.9737
101.327 373 19.3132
101.444 367 19.1572
101.561 387 19.6723
101.679 384 19.5959
101.796 372 19.2873
101.913 381 19.5192
102.03 353 18.7883
102.148 354 18.8149
102.265 410 20.2485
102.382 343 18.5203
102.499 331 18.1934
102.616 256 16
102.733 223 14.9332
102.851 314 17.72
102.968 393 19.8242
103.085 413 20.3224
103.202 398 19.9499
103.319 415 20.3715
103.436 368 19.1833
103.552 406 20.1494
103.669 385 19.6214
103.786 374 19.3391
103.903 423 20.567
104.02 383 19.5704
104.137 392 19.799
104.253 431 20.7605
104.37 396 19.8997
104.487 376 19.3907
104.603 407 20.1742
104.72 379 19.4679
104.836 414 20.347
104.953 421 20.5183
105.069 429 20.7123
105.186 434 20.8327
105.302 376 19.3907
105.418 382 19.5448
105.535 396 19.8997
105.651 394 19.8494
105.767 450 21.2132
105.883 365 19.105
105.999 322 17.9444
106.115 0 1
106.231 0 1
106.347 0 1
106.463 0 1
106.579 0 1
106.694 0 1
106.81 0 1
106.926 0 1
107.041 0 1
107.157 0 1
109.576 0 1
109.692 0 1
109.807 0 1
109.923 0 1
110.039 0 1
110.155 0 1
110.27 0 1
110.386 0 1
110.502 0 1
110.618 339 18.412
110.735 306 17.4929
110.851 318 17.8326
110.967 299 17.2916
111.083 263 16.2173
111.199 252 15.8745
111.316 263 16.2173
111.432 226 15.0333
111.549 287 16.9411
111.665 296 17.2047
111.782 314 17.72
111.898 303 17.4069
112.015 276 16.6132
112.132 312 17.6635
112.248 302 17.3781
112.365 285 16.8819
112.482 239 15.4596
112.599 257 16.0312
112.716 257 16.0312
112.832 260 16.1245
112.949 241 15.5242
113.066 269 16.4012
113.183 263 16.2173
113.3 256 16
113.417 260 16.1245
113.534 258 16.0624
113.652 255 15.9687
113.769 290 17.0294
113.886 231 15.1987
114.003 245 15.6525
114.12 240 15.4919
114.238 220 14.8324
114.355 194 13.9284
114.472 196 14
114.589 216 14.6969
114.707 191 13.8203
114.824 192 13.8564
114.942 199 14.1067
115.059 196 14
115.176 227 15.0665
115.294 192 13.8564
115.411 222 14.8997
115.529 211 14.5258
115.646 206 14.3527
115.764 215 14.6629
115.881 208 14.4222
115.999 194 13.9284
116.116 209 14.4568
116.234 186 13.6382
116.351 201 14.1774
116.469 208 14.4222
116.586 171 13.0767
116.704 215 14.6629
116.821 227 15.0665
116.939 222 14.8997
117.056 204 14.2829
117.174 198 14.0712
117.291 239 15.4596
117.409 213 14.5945
117.526 199 14.1067
117.644 209 14.4568
117.761 215 14.6629
117.879 172 13.1149
117.996 169 13
118.114 176 13.2665
118.231 186 13.6382
118.349 174 13.1909
118.466 186 13.6382
118.584 217 14.7309
118.701 210 14.4914
118.819 206 14.3527
118.936 208 14.4222
119.053 226 15.0333
119.171 211 14.5258
119.288 232 15.2315
119.405 227 15.0665
119.523 239 15.4596
119.64 217 14.7309
119.757 197 14.0357
119.875 234 15.2971
119.992 219 14.7986
120.109 209 14.4568
120.226 232 15.2315
120.343 228 15.0997
120.46 204 14.2829
120.578 236 15.3623
120.695 251 15.843
120.812 216 14.6969
120.929 221 14.8661
121.046 204 14.2829
121.163 230 15.1658
121.279 205 14.3178
121.396 220 14.8324
121.513 216 14.6969
121.63 191 13.8203
121.747 163 12.7671
121.863 150 12.2474
121.98 186 13.6382
122.097 221 14.8661
122.213 235 15.3297
122.33 224 14.9666
122.446 253 15.906
122.563 211 14.5258
122.679 233 15.2643
122.795 223 14.9332
122.912 251 15.843
123.028 216 14.6969
123.144 226 15.0333
123.26 239 15.4596
123.377 0 1
123.493 0 1
123.609 0 1
123.725 0 1
123.84 0 1
123.956 0 1
124.072 0 1
124.188 0 1
124.303 0 1
124.419 0 1
126.852 0 1
126.968 0 1
127.083 0 1
127.199 0 1
127.315 0 1
127.431 0 1
127.547 0 1
127.663 0 1
127.779 0 1
127.895 0 1
128.011 0 1
128.127 0 1
128.243 0 1
128.359 310 17.6068
128.476 300 17.3205
128.592 341 18.4662
128.708 305 17.4642
128.825 330 18.1659
128.941 320 17.8885
129.058 354 18.8149
129.174 326 18.0555
129.291 345 18.5742
129.408 330 18.1659
129.524 316 17.7764
129.641 336 18.3303
129.758 355 18.8414
129.875 311 17.6352
129.992 330 18.1659
130.108 316 17.7764
130.225 297 17.2337
130.342 262 16.1864
130.459 254 15.9374
130.576 237 15.3948
130.693 219 14.7986
130.81 230 15.1658
130.928 211 14.5258
131.045 298 17.2627
131.162 300 17.3205
131.279 320 17.8885
131.396 345 18.5742
131.513 351 18.735
131.631 345 18.5742
131.748 342 18.4932
131.865 309 17.5784
131.983 321 17.9165
132.1 349 18.6815
132.217 353 18.7883
132.335 362 19.0263
132.452 329 18.1384
132.57 358 18.9209
132.687 313 17.6918
132.804 355 18.8414
132.922 331 18.1934
133.039 358 18.9209
133.157 350 18.7083
133.274 330 18.1659
133.392 340 18.4391
133.509 342 18.4932
133.627 338 18.3848
133.744 337 18.3576
133.862 319 17.8606
133.979 341 18.4662
134.097 303 17.4069
134.214 268 16.3707
134.332 225 15
134.449 261 16.1555
134.567 259 16.0935
134.684 297 17.2337
134.802 325 18.0278
134.919 396 19.8997
135.037 368 19.1833
135.154 385 19.6214
135.272 383 19.5704
135.389 382 19.5448
135.507 395 19.8746
135.624 345 18.5742
135.742 395 19.8746
135.859 361 19
135.977 374 19.3391
136.094 358 18.9209
136.211 361 19
136.329 370 19.2354
136.446 346 18.6011
136.564 374 19.3391
136.681 338 18.3848
136.798 362 19.0263
136.915 396 19.8997
137.033 402 20.0499
137.15 349 18.6815
137.267 378 19.4422
137.384 378 19.4422
137.502 328 18.1108
137.619 332 18.2209
137.736 299 17.2916
137.853 311 17.6352
137.97 274 16.5529
138.087 325 18.0278
138.204 294 17.1464
138.321 327 18.0831
138.438 374 19.3391
138.555 393 19.8242
138.672 420 20.4939
138.788 392 19.799
138.905 376 19.3907
139.022 392 19.799
139.139 408 20.199
139.255 425 20.6155
139.372 423 20.567
139.488 416 20.3961
139.605 404 20.0998
139.721 386 19.6469
139.838 419 20.4695
139.954 432 20.7846
140.071 429 20.7123
140.187 445 21.095
140.303 385 19.6214
140.419 409 20.2237
140.535 393 19.8242
140.652 449 21.1896
140.768 0 1
140.884 0 1
141 0 1
141.115 0 1
141.231 0 1
141.347 0 1
141.463 0 1
141.578 0 1
141.694 0 1
144.104 0 1
144.219 0 1
144.335 0 1
144.45 0 1
144.566 0 1
144.682 0 1
144.798 0 1
144.914 0 1
145.03 0 1
145.146 408 20.199
145.262 427 20.664
145.378 386 19.6469
145.494 375 19.3649
145.61 389 19.7231
145.726 402 20.0499
145.842 368 19.1833
145.959 400 20
146.075 362 19.0263
146.192 342 18.4932
146.308 330 18.1659
146.425 332 18.2209
146.541 335 18.303
146.658 338 18.3848
146.774 285 16.8819
146.891 372 19.2873
147.008 331 18.1934
147.125 350 18.7083
147.241 384 19.5959
147.358 368 19.1833
147.475 408 20.199
147.592 410 20.2485
147.709 415 20.3715
147.826 387 19.6723
147.943 395 19.8746
148.06 368 19.1833
148.177 391 19.7737
148.294 390 19.7484
148.411 426 20.6398
148.528 403 20.0749
148.645 418 20.445
148.762 392 19.799
148.88 381 19.5192
148.997 383 19.5704
149.114 387 19.6723
149.231 391 19.7737
149.349 385 19.6214
149.466 385 19.6214
149.583 357 18.8944
149.701 346 18.6011
149.818 293 17.1172
149.935 297 17.2337
150.053 322 17.9444
150.17 326 18.0555
150.287 325 18.0278
150.405 281 16.7631
150.522 340 18.4391
150.64 362 19.0263
150.757 344 18.5472
150.875 370 19.2354
150.992 413 20.3224
151.11 398 19.9499
151.227 413 20.3224
151.344 389 19.7231
151.462 393 19.8242
151.579 376 19.3907
151.697 388 19.6977
151.814 411 20.2731
151.932 427 20.664
152.049 426 20.6398
152.167 404 20.0998
152.284 380 19.4936
152.402 406 20.1494
152.519 400 20
152.636 396 19.8997
152.754 424 20.5913
152.871 391 19.7737
152.989 358 18.9209
153.106 364 19.0788
153.223 333 18.2483
153.341 370 19.2354
153.458 333 18.2483
153.575 336 18.3303
153.693 343 18.5203
153.81 340 18.4391
153.927 337 18.3576
154.044 357 18.8944
154.162 395 19.8746
154.279 382 19.5448
154.396 402 20.0499
154.513 401 20.025
154.63 445 21.095
154.747 412 20.2978
154.864 401 20.025
154.981 428 20.6882
155.098 431 20.7605
155.215 443 21.0476
155.332 462 21.4942
155.449 455 21.3307
155.566 432 20.7846
155.683 420 20.4939
155.8 428 20.6882
155.917 456 21.3542
156.033 455 21.3307
156.15 0 1
156.267 0 1
156.383 0 1
156.5 0 1
156.617 0 1
156.733 0 1
156.85 0 1
156.966 0 1
157.082 0 1
157.199 0 1
157.315 0 1
157.431 0 1
157.547 0 1
157.664 0 1
157.78 0 1
157.896 0 1
158.012 0 1
158.128 0 1
158.244 0 1
158.359 0 1
158.475 0 1
158.591 0 1
158.706 0 1
