
6.15755 0 1
6.2731 0 1
6.3887 0 1
6.50437 0 1
6.62009 0 1
6.73587 0 1
6.8517 0 1
6.96759 0 1
7.08353 0 1
7.19952 0 1
7.31557 0 1
7.43166 0 1
7.54781 0 1
7.664 0 1
7.78024 0 1
7.89653 0 1
8.01286 0 1
8.12924 0 1
8.24567 0 1
8.36213 0 1
8.47864 0 1
8.59519 0 1
8.71178 0 1
8.82841 0 1
8.94508 0 1
9.06179 0 1
9.17853 0 1
9.29531 0 1
9.41212 0 1
9.52897 0 1
9.64584 0 1
9.76276 0 1
9.8797 0 1
9.99667 0 1
10.1137 0 1
10.2307 0 1
10.3478 0 1
10.4648 0 1
10.5819 0 1
10.6991 0 1
10.8162 0 1
10.9334 0 1
11.0506 0 1
11.1678 0 1
11.285 0 1
11.4023 0 1
11.5196 0 1
11.6369 0 1
11.7542 0 1
11.8715 0 1
11.9888 0 1
12.1062 0 1
12.2235 0 1
12.3409 0 1
12.4582 0 1
12.5756 0 1
12.693 0 1
12.8104 0 1
12.9278 0 1
13.0452 0 1
13.1626 0 1
13.28 0 1
13.3974 0 1
13.5149 0 1
13.6323 0 1
13.7497 0 1
13.8671 0 1
13.9845 0 1
14.1019 0 1
14.2193 0 1
14.3367 0 1
14.4541 0 1
14.5714 0 1
14.6888 0 1
14.8062 0 1
14.9235 0 1
15.0408 0 0
15.1581 0 0
15.2755 0 0
15.3927 0 0
15.51 0 0
15.6273 0 0
15.7445 0 0
15.8617 0 0
15.9789 0 0
16.0961 0 0
16.2132 0 0
16.3304 0 0
16.4475 0 0
16.5646 0 0
16.6816 0 0
16.7986 0 0
16.9156 0 0
17.0326 0 0
17.1496 0 0
17.2665 0 0
17.3833 0 0
17.5002 0 0
17.617 0 0
17.7338 0 0
17.8505 0 0
17.9672 0 0
18.0839 0 0
18.2005 0 0
18.3171 0 0
18.4337 0 0
18.5502 0 0
18.6666 0 0
18.7831 0 0
18.8994 0 0
19.0158 0 0
19.1321 0 0
19.2483 0 0
19.3645 0 0
19.4806 0 0
19.5967 0 0
19.7128 0 0
19.8288 0 0
19.9447 0 0
20.0606 0 1
20.1764 0 1
20.2922 0 1
20.4079 0 1
20.5236 0 1
20.6392 0 1
20.7548 0 1
20.8702 0 1
23.3078 0 1
23.4233 0 1
23.539 0 1
23.6547 0 1
23.7704 0 1
23.8862 0 1
24.0021 0 1
24.118 0 1
24.234 0 1
24.35 0 1
24.4661 1886 43.4281
24.5822 1957 44.238
24.6984 1908 43.6807
24.8146 1844 42.9418
24.9309 1996 44.6766
25.0472 1940 44.0454
25.1636 1983 44.5309
25.28 2037 45.1331
25.3965 2044 45.2106
25.513 1960 44.2719
25.6296 1988 44.587
25.7462 2141 46.2709
25.8628 1976 44.4522
25.9795 2052 45.299
26.0962 2180 46.6905
26.213 2007 44.7996
26.3298 1998 44.699
26.4466 1940 44.0454
26.5635 1794 42.3556
26.6804 1741 41.7253
26.7973 1639 40.4846
26.9143 1683 41.0244
27.0313 1716 41.4246
27.1483 1890 43.4741
27.2653 1992 44.6318
27.3824 1935 43.9886
27.4996 2012 44.8553
27.6167 1940 44.0454
27.7339 1978 44.4747
27.8511 1896 43.5431
27.9683 1855 43.0697
28.0855 1893 43.5086
28.2028 1943 44.0795
28.3201 1906 43.6578
28.4374 1916 43.7721
28.5547 1884 43.4051
28.6721 1925 43.8748
28.7894 1900 43.589
28.9068 1971 44.3959
29.0242 1923 43.852
29.1416 1948 44.1362
29.259 1974 44.4297
29.3764 1964 44.317
29.4939 1954 44.2041
29.6113 1977 44.4635
29.7288 1975 44.441
29.8463 1933 43.9659
29.9638 1863 43.1625
30.0812 1726 41.5452
30.1987 1610 40.1248
30.3162 1585 39.8121
30.4337 1565 39.5601
30.5512 1686 41.0609
30.6687 1792 42.332
30.7862 1853 43.0465
30.9037 1981 44.5084
31.0212 1940 44.0454
31.1387 1972 44.4072
31.2562 2006 44.7884
31.3737 1974 44.4297
31.4912 1945 44.1022
31.6087 1902 43.6119
31.7262 1958 44.2493
31.8436 2001 44.7325
31.9611 1907 43.6692
32.0785 1926 43.8862
32.1959 2020 44.9444
32.3134 1990 44.6094
32.4308 2017 44.911
32.5482 1955 44.2154
32.6655 1984 44.5421
32.7829 1913 43.7379
32.9002 1971 44.3959
33.0176 1961 44.2832
33.1349 1920 43.8178
33.2522 2012 44.8553
33.3694 2051 45.288
33.4867 1963 44.3058
33.6039 1842 42.9185
33.7211 1841 42.9069
33.8383 1628 40.3485
33.9554 1563 39.5348
34.0725 1653 40.6571
34.1896 1729 41.5812
34.3067 1805 42.4853
34.4237 1834 42.8252
34.5407 1927 43.8976
34.6577 1958 44.2493
34.7746 1976 44.4522
34.8915 1994 44.6542
35.0084 1990 44.6094
35.1252 1951 44.1701
35.242 1934 43.9773
35.3587 1985 44.5533
35.4755 1971 44.3959
35.5921 1993 44.643
35.7088 1943 44.0795
35.8254 1951 44.1701
35.9419 1995 44.6654
36.0584 1969 44.3734
36.1749 1984 44.5421
36.2913 1966 44.3396
36.4077 2009 44.8219
36.524 1955 44.2154
36.6403 2022 44.9667
36.7565 2010 44.833
36.8727 2103 45.8585
36.9889 2013 44.8665
37.1049 1966 44.3396
37.221 0 1
37.3369 0 1
37.4529 0 1
37.5687 0 1
37.6845 0 1
37.8003 0 1
37.916 0 1
38.0316 0 1
38.1472 0 1
40.5851 0 1
40.7008 0 1
40.8164 0 1
40.9322 0 1
41.048 0 1
41.1639 0 1
41.2798 0 1
41.3958 0 1
41.5118 0 1
41.6279 0 1
41.744 1681 41
41.8602 1736 41.6653
41.9765 1771 42.0833
42.0928 1773 42.107
42.2091 1795 42.3674
42.3255 1773 42.107
42.4419 1621 40.2616
42.5584 1588 39.8497
42.675 1455 38.1445
42.7915 1360 36.8782
42.9081 1409 37.5366
43.0248 1602 40.025
43.1415 1557 39.4588
43.2582 1662 40.7676
43.375 1697 41.1947
43.4918 1786 42.2611
43.6087 1792 42.332
43.7256 1757 41.9166
43.8425 1737 41.6773
43.9595 1762 41.9762
44.0765 1704 41.2795
44.1935 1654 40.6694
44.3106 1589 39.8623
44.4277 1572 39.6485
44.5448 1554 39.4208
44.6619 1505 38.7943
44.7791 1532 39.1408
44.8963 1608 40.0999
45.0136 1626 40.3237
45.1308 1562 39.5221
45.2481 1540 39.2428
45.3654 1654 40.6694
45.4827 1611 40.1373
45.6001 1602 40.025
45.7174 1577 39.7115
45.8348 1541 39.2556
45.9522 1500 38.7298
46.0697 1446 38.0263
46.1871 1257 35.4542
46.3046 1138 33.7343
46.422 1194 34.5543
46.5395 1287 35.8748
46.657 1338 36.5787
46.7745 1421 37.6962
46.892 1479 38.4578
47.0096 1547 39.3319
47.1271 1530 39.1152
47.2446 1490 38.6005
47.3622 1455 38.1445
47.4797 1391 37.2961
47.5973 1381 37.1618
47.7149 1327 36.428
47.8324 1387 37.2424
47.95 1303 36.0971
48.0675 1340 36.606
48.1851 1250 35.3553
48.3027 1306 36.1386
48.4202 1243 35.2562
48.5378 1328 36.4417
48.6554 1342 36.6333
48.7729 1305 36.1248
48.8904 1315 36.2629
49.008 1379 37.1349
49.1255 1462 38.2361
49.243 1376 37.0945
49.3605 1410 37.55
49.478 1441 37.9605
49.5955 1246 35.2987
49.713 1181 34.3657
49.8304 1076 32.8024
49.9479 1133 33.6601
50.0653 1254 35.4119
50.1827 1430 37.8153
50.3001 1529 39.1024
50.4175 1634 40.4228
50.5348 1667 40.8289
50.6521 1849 43
50.7694 1753 41.8688
50.8867 1817 42.6263
51.004 1869 43.2319
51.1212 1861 43.1393
51.2384 1925 43.8748
51.3556 1760 41.9524
51.4727 1873 43.2782
51.5899 1819 42.6497
51.707 1777 42.1545
51.824 1879 43.3474
51.9411 1933 43.9659
52.0581 2008 44.8107
52.175 2092 45.7384
52.2919 2176 46.6476
52.4088 2146 46.3249
52.5257 2223 47.1487
52.6425 2282 47.7703
52.7593 2326 48.2286
52.876 2249 47.4236
52.9927 2294 47.8957
53.1094 2158 46.4543
53.226 2079 45.5961
53.3426 1866 43.1972
53.4591 1747 41.7971
53.5756 1782 42.2137
53.692 1994 44.6542
53.8084 2215 47.0638
53.9248 2382 48.8057
54.0411 2420 49.1935
54.1573 2520 50.1996
54.2735 0 1
54.3896 0 1
54.5057 0 1
54.6217 0 1
54.7377 0 1
54.8537 0 1
54.9695 0 1
55.0853 0 1
55.2011 0 1
55.3168 0 1
55.4324 0 1
57.824 0 1
57.9396 0 1
58.0553 0 1
58.1711 0 1
58.2869 0 1
58.4028 0 1
58.5187 0 1
58.6347 0 1
58.7508 0 1
58.8669 0 1
58.983 3099 55.6687
59.0992 3378 58.1206
59.2155 3410 58.3952
59.3318 3533 59.439
59.4482 3421 58.4893
59.5646 3559 59.6574
59.681 3540 59.4979
59.7975 3512 59.2621
59.9141 3474 58.9406
60.0306 3289 57.3498
60.1473 3244 56.9561
60.2639 3267 57.1577
60.3807 3230 56.8331
60.4974 3324 57.6541
60.6142 3237 56.8946
60.731 3419 58.4722
60.8479 3521 59.338
60.9648 3546 59.5483
61.0818 3678 60.6465
61.1987 3779 61.4736
61.3158 3708 60.8933
61.4328 3603 60.025
61.5499 3604 60.0333
61.667 3357 57.9396
61.7841 3202 56.5862
61.9013 2911 53.9537
62.0185 2731 52.259
62.1357 2805 52.9623
62.253 3036 55.0999
62.3702 3353 57.9051
62.4875 3555 59.6238
62.6049 3749 61.2291
62.7222 3822 61.8223
62.8396 3838 61.9516
62.9569 3853 62.0725
63.0743 3842 61.9839
63.1918 3911 62.538
63.3092 3814 61.7576
63.4267 3718 60.9754
63.5441 3513 59.2706
63.6616 3478 58.9746
63.7791 3402 58.3267
63.8966 3442 58.6686
64.0142 3518 59.3127
64.1317 3545 59.5399
64.2492 3745 61.1964
64.3668 3762 61.3351
64.4843 3771 61.4085
64.6019 3854 62.0806
64.7195 4018 63.3877
64.837 3902 62.466
64.9546 4070 63.7966
65.0722 3896 62.4179
65.1898 3825 61.8466
65.3074 3640 60.3324
65.4249 3313 57.5587
65.5425 3025 55
65.6601 3006 54.827
65.7777 3074 55.4437
65.8952 3385 58.1808
66.0128 3823 61.8304
66.1304 3904 62.482
66.2479 4013 63.3482
66.3655 4276 65.3911
66.483 4271 65.3529
66.6005 4330 65.8027
66.718 4296 65.5439
66.8355 4225 65
66.953 4141 64.3506
67.0705 4059 63.7103
67.1879 3956 62.8967
67.3054 3699 60.8194
67.4228 3762 61.3351
67.5402 3650 60.4152
67.6576 3860 62.1289
67.7749 3799 61.636
67.8923 4219 64.9538
68.0096 4361 66.0379
68.1269 4490 67.0075
68.2442 4488 66.9925
68.3614 4438 66.6183
68.4787 4606 67.8675
68.5958 4502 67.0969
68.713 4602 67.838
68.8302 4475 66.8954
68.9473 4168 64.56
69.0643 3828 61.8708
69.1814 3589 59.9083
69.2984 3281 57.28
69.4154 3467 58.8812
69.5323 3926 62.6578
69.6492 4289 65.4905
69.7661 4632 68.0588
69.8829 4840 69.5701
69.9997 4905 70.0357
70.1165 4986 70.6116
70.2332 5014 70.8096
70.3499 4937 70.2638
70.4665 4817 69.4046
70.5831 4808 69.3397
70.6996 4861 69.7209
70.8161 4559 67.5204
70.9326 4488 66.9925
71.049 4250 65.192
71.1653 4205 64.846
71.2817 4151 64.4283
71.3979 4199 64.7997
71.5141 4382 66.1967
71.6303 4307 65.6277
71.7464 4277 65.3988
71.8624 0 1
71.9784 0 1
72.0944 0 1
72.2102 0 1
72.3261 0 1
72.4418 0 1
72.5575 0 1
72.6732 0 1
75.1054 0 1
75.2209 0 1
75.3365 0 1
75.4521 0 1
75.5678 0 1
75.6835 0 1
75.7993 0 1
75.9151 0 1
76.031 0 1
76.147 4390 66.2571
76.263 4561 67.5352
76.3791 4566 67.5722
76.4952 4419 66.4756
76.6113 4443 66.6558
76.7276 4575 67.6387
76.8438 4616 67.9412
76.9601 4911 70.0785
77.0765 5129 71.617
77.1929 5313 72.8903
77.3093 5468 73.9459
77.4258 5305 72.8354
77.5423 5302 72.8148
77.6589 5428 73.675
77.7755 5168 71.8888
77.8921 4906 70.0428
78.0088 4593 67.7717
78.1256 4181 64.6607
78.2423 3972 63.0238
78.3591 3688 60.7289
78.4759 3887 62.3458
78.5928 4224 64.9923
78.7097 4705 68.593
78.8266 5393 73.437
78.9436 5045 71.0282
79.0606 5224 72.2772
79.1776 5227 72.298
79.2946 5421 73.6274
79.4117 5390 73.4166
79.5288 5421 73.6274
79.6459 5212 72.1942
79.7631 4888 69.9142
79.8802 4812 69.3686
79.9974 4593 67.7717
80.1147 4368 66.0908
80.2319 4453 66.7308
80.3491 4410 66.4078
80.4664 4450 66.7083
80.5837 4886 69.8999
80.701 4966 70.4699
80.8183 5097 71.3933
80.9357 5301 72.808
81.053 5316 72.9109
81.1704 5275 72.6292
81.2877 5174 71.9305
81.4051 5157 71.8123
81.5225 5190 72.0417
81.6399 4625 68.0074
81.7573 4422 66.4981
81.8747 3980 63.0872
81.9922 3811 61.7333
82.1096 3831 61.8951
82.227 4043 63.5846
82.3444 4354 65.9848
82.4619 4856 69.685
82.5793 4942 70.2994
82.6967 5265 72.5603
82.8142 5249 72.45
82.9316 5204 72.1388
83.049 4953 70.3776
83.1664 4954 70.3847
83.2838 4885 69.8928
83.4012 4825 69.4622
83.5186 4537 67.3573
83.636 4338 65.8635
83.7534 4140 64.3428
83.8708 3962 62.9444
83.9881 3912 62.546
84.1055 4150 64.4205
84.2228 4199 64.7997
84.3401 4688 68.469
84.4575 4910 70.0714
84.5747 5003 70.7319
84.692 4960 70.4273
84.8093 4881 69.8642
84.9265 5000 70.7107
85.0437 4829 69.491
85.1609 4666 68.3081
85.2781 4424 66.5132
85.3952 4011 63.3325
85.5123 3937 62.7455
85.6294 3709 60.9016
85.7465 4023 63.4271
85.8636 4408 66.3928
85.9806 4655 68.2276
86.0976 5028 70.9084
86.2145 5130 71.624
86.3315 5167 71.8818
86.4484 5413 73.5731
86.5652 5475 73.9932
86.682 5721 75.6373
86.7988 5389 73.4098
86.9156 5360 73.212
87.0323 5363 73.2325
87.149 5024 70.8802
87.2657 4839 69.5629
87.3823 4704 68.5857
87.4988 4514 67.1863
87.6154 4539 67.3721
87.7318 4992 70.6541
87.8483 5209 72.1734
87.9647 5525 74.3303
88.081 5636 75.0733
88.1973 5887 76.7268
88.3136 6021 77.5951
88.4298 5674 75.326
88.546 5898 76.7984
88.6621 5634 75.06
88.7781 5226 72.2911
88.8942 0 1
89.0101 0 1
89.126 0 1
89.2419 0 1
89.3577 0 1
89.4734 0 1
89.5891 0 1
89.7047 0 1
89.8203 0 1
89.9358 0 1
92.3269 0 1
92.4424 0 1
92.558 0 1
92.6736 0 1
92.7893 0 1
92.905 0 1
93.0208 0 1
93.1366 0 1
93.2525 0 1
93.3685 0 1
93.4845 0 1
93.6005 5624 74.9933
93.7167 5749 75.8222
93.8328 5659 75.2263
93.949 5703 75.5182
94.0653 5692 75.4453
94.1816 5500 74.162
94.2979 5238 72.374
94.4143 4994 70.6682
94.5307 4816 69.3974
94.6472 4370 66.106
94.7637 4430 66.5582
94.8803 4779 69.1303
94.9969 4953 70.3776
95.1135 5165 71.8679
95.2302 5514 74.2563
95.3469 5591 74.773
95.4637 5919 76.935
95.5805 6032 77.666
95.6973 6081 77.9808
95.8142 6085 78.0064
95.9311 5897 76.7919
96.048 5964 77.2269
96.1649 5814 76.2496
96.2819 5728 75.6836
96.3989 5376 73.3212
96.516 5092 71.3583
96.633 4796 69.2532
96.7501 4700 68.5565
96.8673 4990 70.6399
96.9844 5079 71.2671
97.1016 5615 74.9333
97.2188 5805 76.1906
97.336 6035 77.6853
97.4532 6034 77.6788
97.5704 5954 77.1622
97.6877 6077 77.9551
97.805 6195 78.7083
97.9223 5884 76.7072
98.0396 5349 73.1369
98.1569 4995 70.6753
98.2743 4794 69.2387
98.3916 4644 68.1469
98.509 4751 68.9275
98.6264 5134 71.6519
98.7438 5418 73.6071
98.8612 5638 75.0866
98.9786 5843 76.4395
99.096 6134 78.3199
99.2134 6290 79.3095
99.3308 6260 79.1202
99.4482 6327 79.5424
99.5656 6305 79.404
99.6831 6156 78.4602
99.8005 5977 77.3111
99.9179 5813 76.243
100.035 5564 74.5922
100.153 5285 72.698
100.27 4884 69.8856
100.388 5005 70.746
100.505 5295 72.7668
100.622 5796 76.1315
100.74 5970 77.2658
100.857 6495 80.5916
100.975 6450 80.3119
101.092 6394 79.9625
101.209 6530 80.8084
101.327 6373 79.8311
101.444 6183 78.6321
101.561 6088 78.0256
101.679 5773 75.9803
101.796 5239 72.3809
101.913 5038 70.9789
102.03 5123 71.5751
102.148 5365 73.2462
102.265 5842 76.433
102.382 5750 75.8288
102.499 6219 78.8606
102.616 6305 79.404
102.733 6549 80.9259
102.851 6536 80.8455
102.968 6748 82.1462
103.085 6722 81.9878
103.202 6650 81.5475
103.319 6661 81.6149
103.436 6295 79.341
103.552 6128 78.2815
103.669 5728 75.6836
103.786 5276 72.6361
103.903 5108 71.4703
104.02 5526 74.3371
104.137 6250 79.0569
104.253 6596 81.2158
104.37 6569 81.0494
104.487 6966 83.4626
104.603 6851 82.7708
104.72 7018 83.7735
104.836 6869 82.8794
104.953 6826 82.6196
105.069 6523 80.7651
105.186 6017 77.5693
105.302 5696 75.4718
105.418 5524 74.3236
105.535 5585 74.7329
105.651 5998 77.4468
105.767 6490 80.5605
105.883 6736 82.0731
105.999 6500 80.6226
106.115 0 1
106.231 0 1
106.347 0 1
106.463 0 1
106.579 0 1
106.694 0 1
106.81 0 1
106.926 0 1
107.041 0 1
107.157 0 1
109.576 0 1
109.692 0 1
109.807 0 1
109.923 0 1
110.039 0 1
110.155 0 1
110.27 0 1
110.386 0 1
110.502 0 1
110.618 5295 72.7668
110.735 5726 75.6703
110.851 6157 78.4666
110.967 6321 79.5047
111.083 6349 79.6806
111.199 6500 80.6226
111.316 6786 82.3772
111.432 6824 82.6075
111.549 6730 82.0366
111.665 6630 81.4248
111.782 6386 79.9125
111.898 6197 78.721
112.015 5728 75.6836
112.132 5389 73.4098
112.248 4851 69.6491
112.365 4910 70.0714
112.482 5137 71.6729
112.599 5395 73.4507
112.716 5853 76.5049
112.832 6204 78.7655
112.949 6364 79.7747
113.066 6195 78.7083
113.183 6186 78.6511
113.3 6233 78.9494
113.417 6090 78.0385
113.534 5908 76.8635
113.652 5616 74.94
113.769 5244 72.4155
113.886 4998 70.6965
114.003 4890 69.9285
114.12 4898 69.9857
114.238 5193 72.0625
114.355 5340 73.0753
114.472 5459 73.885
114.589 5605 74.8665
114.707 5615 74.9333
114.824 5808 76.2102
114.942 5902 76.8245
115.059 5996 77.4338
115.176 6043 77.7367
115.294 5891 76.7529
115.411 5719 75.6241
115.529 5535 74.3976
115.646 5352 73.1574
115.764 4821 69.4334
115.881 4463 66.8057
115.999 4572 67.6166
116.116 4882 69.8713
116.234 5461 73.8986
116.351 5785 76.0592
116.469 5927 76.987
116.586 5891 76.7529
116.704 6007 77.5048
116.821 5825 76.3217
116.939 5946 77.1103
117.056 6009 77.5177
117.174 5664 75.2596
117.291 5594 74.793
117.409 5357 73.1915
117.526 5020 70.852
117.644 4957 70.406
117.761 5036 70.9648
117.879 5250 72.4569
117.996 5508 74.2159
118.114 5719 75.6241
118.231 5780 76.0263
118.349 5704 75.5248
118.466 5910 76.8765
118.584 6057 77.8267
118.701 6095 78.0705
118.819 5998 77.4468
118.936 5971 77.2722
119.053 5911 76.883
119.171 5533 74.3841
119.288 5297 72.7805
119.405 4820 69.4262
119.523 4364 66.0606
119.64 4542 67.3944
119.757 4942 70.2994
119.875 5400 73.4847
119.992 5754 75.8551
120.109 5686 75.4056
120.226 5905 76.844
120.343 5810 76.2234
120.46 5747 75.809
120.578 5992 77.408
120.695 5881 76.6877
120.812 5801 76.1643
120.929 5621 74.9733
121.046 5340 73.0753
121.163 5226 72.2911
121.279 5214 72.208
121.396 4906 70.0428
121.513 5089 71.3372
121.63 5158 71.8192
121.747 5564 74.5922
121.863 5490 74.0945
121.98 5533 74.3841
122.097 5732 75.71
122.213 5918 76.9285
122.33 5963 77.2205
122.446 6008 77.5113
122.563 5836 76.3937
122.679 5787 76.0723
122.795 5805 76.1906
122.912 5514 74.2563
123.028 5165 71.8679
123.144 4596 67.7938
123.26 4344 65.909
123.377 0 1
123.493 0 1
123.609 0 1
123.725 0 1
123.84 0 1
123.956 0 1
124.072 0 1
124.188 0 1
124.303 0 1
124.419 0 1
126.852 0 1
126.968 0 1
127.083 0 1
127.199 0 1
127.315 0 1
127.431 0 1
127.547 0 1
127.663 0 1
127.779 0 1
127.895 0 1
128.011 0 1
128.127 0 1
128.243 0 1
128.359 5163 71.854
128.476 4773 69.0869
128.592 4782 69.152
128.708 5347 73.1232
128.825 6132 78.3071
128.941 6360 79.7496
129.058 6407 80.0437
129.174 6552 80.9444
129.291 6533 80.827
129.408 6397 79.9812
129.524 6616 81.3388
129.641 6373 79.8311
129.758 6506 80.6598
129.875 6431 80.1935
129.992 6152 78.4347
130.108 5846 76.4591
130.225 5850 76.4853
130.342 5645 75.1332
130.459 5608 74.8866
130.576 6000 77.4597
130.693 6017 77.5693
130.81 6152 78.4347
130.928 6228 78.9177
131.045 6166 78.5239
131.162 6267 79.1644
131.279 6401 80.0062
131.396 6471 80.4425
131.513 6390 79.9375
131.631 6264 79.1454
131.748 5944 77.0973
131.865 5270 72.5948
131.983 4874 69.814
132.1 4916 70.1142
132.217 5073 71.225
132.335 5656 75.2064
132.452 6071 77.9166
132.57 6470 80.4363
132.687 6091 78.0449
132.804 6430 80.1873
132.922 6473 80.455
133.039 6366 79.7872
133.157 6361 79.7559
133.274 6320 79.4984
133.392 6360 79.7496
133.509 6113 78.1857
133.627 5948 77.1233
133.744 5660 75.233
133.862 5540 74.4312
133.979 5523 74.3169
134.097 5582 74.7128
134.214 5843 76.4395
134.332 5838 76.4068
134.449 6123 78.2496
134.567 6116 78.2049
134.684 6076 77.9487
134.802 6307 79.4166
134.919 6332 79.5739
135.037 6273 79.2023
135.154 6116 78.2049
135.272 5975 77.2981
135.389 5523 74.3169
135.507 4982 70.5833
135.624 4578 67.6609
135.742 4651 68.1982
135.859 5287 72.7118
135.977 5607 74.8799
136.094 5876 76.6551
136.211 6203 78.7591
136.329 6133 78.3135
136.446 6247 79.038
136.564 6184 78.6384
136.681 6258 79.1075
136.798 6209 78.7972
136.915 6240 78.9937
137.033 6145 78.3901
137.15 6112 78.1793
137.267 5922 76.9545
137.384 5794 76.1183
137.502 5600 74.8331
137.619 5555 74.5319
137.736 5453 73.8444
137.853 5532 74.3774
137.97 5710 75.5645
138.087 6032 77.666
138.204 6001 77.4661
138.321 6043 77.7367
138.438 6153 78.4411
138.555 6222 78.8797
138.672 6187 78.6575
138.788 6250 79.0569
138.905 5939 77.0649
139.022 5566 74.6056
139.139 5116 71.5262
139.255 4801 69.2892
139.372 4767 69.0435
139.488 5141 71.7008
139.605 5639 75.0933
139.721 5939 77.0649
139.838 6103 78.1217
139.954 6382 79.8874
140.071 6201 78.7464
140.187 6306 79.4103
140.303 6188 78.6638
140.419 6094 78.0641
140.535 6164 78.5111
140.652 6082 77.9872
140.768 0 1
140.884 0 1
141 0 1
141.115 0 1
141.231 0 1
141.347 0 1
141.463 0 1
141.578 0 1
141.694 0 1
144.104 0 1
144.219 0 1
144.335 0 1
144.45 0 1
144.566 0 1
144.682 0 1
144.798 0 1
144.914 0 1
145.03 0 1
145.146 5425 73.6546
145.262 5407 73.5323
145.378 5458 73.8783
145.494 5420 73.6206
145.61 5329 73
145.726 5341 73.0821
145.842 5285 72.698
145.959 5148 71.7496
146.075 5096 71.3863
146.192 4838 69.5557
146.308 4757 68.971
146.425 4832 69.5126
146.541 4917 70.1213
146.658 4978 70.5549
146.774 5120 71.5542
146.891 5192 72.0555
147.008 5249 72.45
147.125 5269 72.5879
147.241 5227 72.298
147.358 5169 71.8958
147.475 4837 69.5485
147.592 4676 68.3813
147.709 4381 66.1891
147.826 3874 62.2415
147.943 3918 62.5939
148.06 4196 64.7765
148.177 4486 66.9776
148.294 4888 69.9142
148.411 5023 70.8731
148.528 5033 70.9436
148.645 5157 71.8123
148.762 5102 71.4283
148.88 5103 71.4353
148.997 4811 69.3614
149.114 5360 73.212
149.231 5026 70.8943
149.349 4891 69.9357
149.466 4829 69.491
149.583 4968 70.484
149.701 4639 68.1102
149.818 4559 67.5204
149.935 4614 67.9264
150.053 4579 67.6683
150.17 4653 68.2129
150.287 4609 67.8896
150.405 4825 69.4622
150.522 4838 69.5557
150.64 4882 69.8713
150.757 4873 69.8069
150.875 4781 69.1448
150.992 4804 69.3109
151.11 4532 67.3201
151.227 4434 66.5883
151.344 4019 63.3956
151.462 3713 60.9344
151.579 3861 62.1369
151.697 4034 63.5138
151.814 4398 66.3174
151.932 4742 68.8622
152.049 4870 69.7854
152.167 4919 70.1356
152.284 4945 70.3207
152.402 4928 70.1997
152.519 4878 69.8427
152.636 4971 70.5053
152.754 4942 70.2994
152.871 4847 69.6204
152.989 4924 70.1712
153.106 4843 69.5917
153.223 4822 69.4406
153.341 4716 68.6731
153.458 4602 67.838
153.575 4611 67.9043
153.693 4542 67.3944
153.81 4588 67.7348
153.927 4604 67.8528
154.044 4803 69.3037
154.162 4910 70.0714
154.279 4823 69.4478
154.396 4901 70.0071
154.513 4882 69.8713
154.63 4803 69.3037
154.747 4728 68.7605
154.864 4598 67.8086
154.981 4431 66.5658
155.098 4006 63.293
155.215 4077 63.8514
155.332 4312 65.6658
155.449 4608 67.8823
155.566 4878 69.8427
155.683 4852 69.6563
155.8 4956 70.3989
155.917 4949 70.3491
156.033 5012 70.7955
156.15 0 1
156.267 0 1
156.383 0 1
156.5 0 1
156.617 0 1
156.733 0 1
156.85 0 1
156.966 0 1
157.082 0 1
157.199 0 1
157.315 0 1
157.431 0 1
157.547 0 1
157.664 0 1
157.78 0 1
157.896 0 1
158.012 0 1
158.128 0 1
158.244 0 1
158.359 0 1
158.475 0 1
158.591 0 1
158.706 0 1
