
6.15755 0 1
6.2731 0 1
6.3887 0 1
6.50437 0 1
6.62009 0 1
6.73587 0 1
6.8517 0 1
6.96759 0 1
7.08353 0 1
7.19952 0 1
7.31557 0 1
7.43166 0 1
7.54781 0 1
7.664 0 1
7.78024 0 1
7.89653 0 1
8.01286 0 1
8.12924 0 1
8.24567 0 1
8.36213 0 1
8.47864 0 1
8.59519 0 1
8.71178 0 1
8.82841 0 1
8.94508 0 1
9.06179 0 1
9.17853 0 1
9.29531 0 1
9.41212 0 1
9.52897 0 1
9.64584 0 1
9.76276 0 1
9.8797 0 1
9.99667 0 1
10.1137 0 1
10.2307 0 1
10.3478 0 1
10.4648 0 1
10.5819 0 1
10.6991 0 1
10.8162 0 1
10.9334 0 1
11.0506 0 1
11.1678 0 1
11.285 0 1
11.4023 0 1
11.5196 0 1
11.6369 0 1
11.7542 0 1
11.8715 0 1
11.9888 0 1
12.1062 0 1
12.2235 0 1
12.3409 0 1
12.4582 0 1
12.5756 0 1
12.693 0 1
12.8104 0 1
12.9278 0 1
13.0452 0 1
13.1626 0 1
13.28 0 1
13.3974 0 1
13.5149 0 1
13.6323 0 1
13.7497 0 1
13.8671 0 1
13.9845 0 1
14.1019 0 1
14.2193 0 1
14.3367 0 1
14.4541 0 1
14.5714 0 1
14.6888 0 1
14.8062 0 1
14.9235 0 1
15.0408 0 0
15.1581 0 0
15.2755 0 0
15.3927 0 0
15.51 0 0
15.6273 0 0
15.7445 0 0
15.8617 0 0
15.9789 0 0
16.0961 0 0
16.2132 0 0
16.3304 0 0
16.4475 0 0
16.5646 0 0
16.6816 0 0
16.7986 0 0
16.9156 0 0
17.0326 0 0
17.1496 0 0
17.2665 0 0
17.3833 0 0
17.5002 0 0
17.617 0 0
17.7338 0 0
17.8505 0 0
17.9672 0 0
18.0839 0 0
18.2005 0 0
18.3171 0 0
18.4337 0 0
18.5502 0 0
18.6666 0 0
18.7831 0 0
18.8994 0 0
19.0158 0 0
19.1321 0 0
19.2483 0 0
19.3645 0 0
19.4806 0 0
19.5967 0 0
19.7128 0 0
19.8288 0 0
19.9447 0 0
20.0606 0 1
20.1764 0 1
20.2922 0 1
20.4079 0 1
20.5236 0 1
20.6392 0 1
20.7548 0 1
20.8702 0 1
23.3078 0 1
23.4233 0 1
23.539 0 1
23.6547 0 1
23.7704 0 1
23.8862 0 1
24.0021 0 1
24.118 0 1
24.234 0 1
24.35 0 1
24.4661 1289 35.9026
24.5822 1236 35.1568
24.6984 1247 35.3129
24.8146 1208 34.7563
24.9309 1266 35.5809
25.0472 1212 34.8138
25.1636 1187 34.4529
25.28 1208 34.7563
25.3965 1263 35.5387
25.513 1287 35.8748
25.6296 1330 36.4692
25.7462 1346 36.6879
25.8628 1359 36.8646
25.9795 1434 37.8682
26.0962 1427 37.7757
26.213 1339 36.5923
26.3298 1369 37
26.4466 1363 36.9188
26.5635 1377 37.108
26.6804 1251 35.3695
26.7973 1316 36.2767
26.9143 1330 36.4692
27.0313 1331 36.4829
27.1483 1413 37.5899
27.2653 1368 36.9865
27.3824 1400 37.4166
27.4996 1399 37.4032
27.6167 1431 37.8286
27.7339 1431 37.8286
27.8511 1390 37.2827
27.9683 1385 37.2156
28.0855 1287 35.8748
28.2028 1262 35.5246
28.3201 1227 35.0286
28.4374 1161 34.0735
28.5547 1146 33.8526
28.6721 1162 34.0881
28.7894 1161 34.0735
28.9068 1174 34.2637
29.0242 1146 33.8526
29.1416 1238 35.1852
29.259 1167 34.1614
29.3764 1279 35.7631
29.4939 1369 37
29.6113 1306 36.1386
29.7288 1435 37.8814
29.8463 1294 35.9722
29.9638 1294 35.9722
30.0812 1236 35.1568
30.1987 1238 35.1852
30.3162 1170 34.2053
30.4337 1238 35.1852
30.5512 1346 36.6879
30.6687 1308 36.1663
30.7862 1383 37.1887
30.9037 1325 36.4005
31.0212 1344 36.6606
31.1387 1377 37.108
31.2562 1347 36.7015
31.3737 1397 37.3765
31.4912 1367 36.973
31.6087 1286 35.8608
31.7262 1226 35.0143
31.8436 1202 34.6699
31.9611 1208 34.7563
32.0785 1147 33.8674
32.1959 1109 33.3017
32.3134 1145 33.8378
32.4308 1109 33.3017
32.5482 1117 33.4215
32.6655 1157 34.0147
32.7829 1266 35.5809
32.9002 1326 36.4143
33.0176 1259 35.4824
33.1349 1327 36.428
33.2522 1285 35.8469
33.3694 1228 35.0428
33.4867 1277 35.7351
33.6039 1225 35
33.7211 1149 33.8969
33.8383 1215 34.8569
33.9554 1153 33.9559
34.0725 1228 35.0428
34.1896 1227 35.0286
34.3067 1283 35.819
34.4237 1272 35.6651
34.5407 1285 35.8469
34.6577 1301 36.0694
34.7746 1238 35.1852
34.8915 1301 36.0694
35.0084 1273 35.6791
35.1252 1287 35.8748
35.242 1270 35.6371
35.3587 1199 34.6266
35.4755 1171 34.2199
35.5921 1204 34.6987
35.7088 1092 33.0454
35.8254 1030 32.0936
35.9419 1073 32.7567
36.0584 1069 32.6956
36.1749 1103 33.2114
36.2913 1067 32.665
36.4077 1144 33.8231
36.524 1120 33.4664
36.6403 1247 35.3129
36.7565 1241 35.2278
36.8727 1259 35.4824
36.9889 1276 35.7211
37.1049 1209 34.7707
37.221 0 1
37.3369 0 1
37.4529 0 1
37.5687 0 1
37.6845 0 1
37.8003 0 1
37.916 0 1
38.0316 0 1
38.1472 0 1
40.5851 0 1
40.7008 0 1
40.8164 0 1
40.9322 0 1
41.048 0 1
41.1639 0 1
41.2798 0 1
41.3958 0 1
41.5118 0 1
41.6279 0 1
41.744 915 30.249
41.8602 914 30.2324
41.9765 1028 32.0624
42.0928 1005 31.7017
42.2091 1083 32.909
42.3255 1010 31.7805
42.4419 967 31.0966
42.5584 901 30.0167
42.675 885 29.7489
42.7915 830 28.8097
42.9081 847 29.1033
43.0248 934 30.5614
43.1415 958 30.9516
43.2582 986 31.4006
43.375 990 31.4643
43.4918 978 31.273
43.6087 1002 31.6544
43.7256 1050 32.4037
43.8425 983 31.3528
43.9595 908 30.133
44.0765 943 30.7083
44.1935 884 29.7321
44.3106 889 29.8161
44.4277 845 29.0689
44.5448 771 27.7669
44.6619 700 26.4575
44.7791 666 25.807
44.8963 688 26.2298
45.0136 722 26.8701
45.1308 717 26.7769
45.2481 717 26.7769
45.3654 743 27.258
45.4827 750 27.3861
45.6001 753 27.4408
45.7174 770 27.7489
45.8348 732 27.0555
45.9522 724 26.9072
46.0697 648 25.4558
46.1871 656 25.6125
46.3046 618 24.8596
46.422 571 23.8956
46.5395 680 26.0768
46.657 664 25.7682
46.7745 713 26.7021
46.892 729 27
47.0096 762 27.6043
47.1271 755 27.4773
47.2446 760 27.5681
47.3622 722 26.8701
47.4797 707 26.5895
47.5973 684 26.1534
47.7149 702 26.4953
47.8324 606 24.6171
47.95 609 24.6779
48.0675 531 23.0434
48.1851 509 22.561
48.3027 588 24.2487
48.4202 518 22.7596
48.5378 516 22.7156
48.6554 570 23.8747
48.7729 547 23.388
48.8904 558 23.622
49.008 620 24.8998
49.1255 642 25.3377
49.243 617 24.8395
49.3605 586 24.2074
49.478 587 24.2281
49.5955 551 23.4734
49.713 532 23.0651
49.8304 509 22.561
49.9479 515 22.6936
50.0653 619 24.8797
50.1827 596 24.4131
50.3001 637 25.2389
50.4175 669 25.865
50.5348 694 26.3439
50.6521 647 25.4362
50.7694 708 26.6083
50.8867 726 26.9444
51.004 660 25.6905
51.1212 750 27.3861
51.2384 783 27.9821
51.3556 783 27.9821
51.4727 713 26.7021
51.5899 713 26.7021
51.707 636 25.219
51.824 659 25.671
51.9411 685 26.1725
52.0581 712 26.6833
52.175 722 26.8701
52.2919 822 28.6705
52.4088 856 29.2575
52.5257 852 29.189
52.6425 891 29.8496
52.7593 940 30.6594
52.876 956 30.9192
52.9927 883 29.7153
53.1094 895 29.9166
53.226 823 28.688
53.3426 780 27.9285
53.4591 799 28.2666
53.5756 854 29.2233
53.692 908 30.133
53.8084 980 31.305
53.9248 1059 32.5423
54.0411 1080 32.8634
54.1573 1092 33.0454
54.2735 0 1
54.3896 0 1
54.5057 0 1
54.6217 0 1
54.7377 0 1
54.8537 0 1
54.9695 0 1
55.0853 0 1
55.2011 0 1
55.3168 0 1
55.4324 0 1
57.824 0 1
57.9396 0 1
58.0553 0 1
58.1711 0 1
58.2869 0 1
58.4028 0 1
58.5187 0 1
58.6347 0 1
58.7508 0 1
58.8669 0 1
58.983 1132 33.6452
59.0992 1240 35.2136
59.2155 1291 35.9305
59.3318 1378 37.1214
59.4482 1295 35.9861
59.5646 1279 35.7631
59.681 1316 36.2767
59.7975 1259 35.4824
59.9141 1282 35.805
60.0306 1226 35.0143
60.1473 1130 33.6155
60.2639 1049 32.3883
60.3807 1036 32.187
60.4974 903 30.05
60.6142 961 31
60.731 988 31.4325
60.8479 1025 32.0156
60.9648 1056 32.4962
61.0818 1096 33.1059
61.1987 1097 33.121
61.3158 1113 33.3617
61.4328 1083 32.909
61.5499 1085 32.9393
61.667 1026 32.0312
61.7841 1029 32.078
61.9013 942 30.692
62.0185 981 31.3209
62.1357 1015 31.8591
62.253 1068 32.6803
62.3702 1147 33.8674
62.4875 1154 33.9706
62.6049 1263 35.5387
62.7222 1263 35.5387
62.8396 1232 35.0999
62.9569 1344 36.6606
63.0743 1247 35.3129
63.1918 1306 36.1386
63.3092 1285 35.8469
63.4267 1240 35.2136
63.5441 1235 35.1426
63.6616 1173 34.2491
63.7791 1102 33.1964
63.8966 999 31.607
64.0142 1034 32.1559
64.1317 1027 32.0468
64.2492 992 31.496
64.3668 1089 33
64.4843 1141 33.7787
64.6019 1199 34.6266
64.7195 1176 34.2929
64.837 1176 34.2929
64.9546 1158 34.0294
65.0722 1146 33.8526
65.1898 1093 33.0606
65.3074 1041 32.2645
65.4249 951 30.8383
65.5425 950 30.8221
65.6601 951 30.8383
65.7777 973 31.1929
65.8952 1112 33.3467
66.0128 1123 33.5112
66.1304 1157 34.0147
66.2479 1193 34.5398
66.3655 1216 34.8712
66.483 1262 35.5246
66.6005 1271 35.6511
66.718 1220 34.9285
66.8355 1232 35.0999
66.953 1187 34.4529
67.0705 1197 34.5977
67.1879 1140 33.7639
67.3054 1180 34.3511
67.4228 1109 33.3017
67.5402 902 30.0333
67.6576 889 29.8161
67.7749 950 30.8221
67.8923 947 30.7734
68.0096 931 30.5123
68.1269 927 30.4467
68.2442 1043 32.2955
68.3614 1055 32.4808
68.4787 1113 33.3617
68.5958 1019 31.9218
68.713 1038 32.218
68.8302 962 31.0161
68.9473 894 29.8998
69.0643 842 29.0172
69.1814 820 28.6356
69.2984 858 29.2916
69.4154 982 31.3369
69.5323 992 31.496
69.6492 1082 32.8938
69.7661 1144 33.8231
69.8829 1187 34.4529
69.9997 1158 34.0294
70.1165 1208 34.7563
70.2332 1181 34.3657
70.3499 1329 36.4555
70.4665 1209 34.7707
70.5831 1285 35.8469
70.6996 1221 34.9428
70.8161 1125 33.541
70.9326 1092 33.0454
71.049 969 31.1288
71.1653 938 30.6268
71.2817 865 29.4109
71.3979 895 29.9166
71.5141 860 29.3258
71.6303 918 30.2985
71.7464 875 29.5804
71.8624 0 1
71.9784 0 1
72.0944 0 1
72.2102 0 1
72.3261 0 1
72.4418 0 1
72.5575 0 1
72.6732 0 1
75.1054 0 1
75.2209 0 1
75.3365 0 1
75.4521 0 1
75.5678 0 1
75.6835 0 1
75.7993 0 1
75.9151 0 1
76.031 0 1
76.147 1028 32.0624
76.263 1042 32.28
76.3791 1084 32.9242
76.4952 1034 32.1559
76.6113 876 29.5973
76.7276 911 30.1828
76.8438 905 30.0832
76.9601 981 31.3209
77.0765 986 31.4006
77.1929 1106 33.2566
77.3093 1080 32.8634
77.4258 1080 32.8634
77.5423 1119 33.4515
77.6589 1131 33.6303
77.7755 1040 32.249
77.8921 942 30.692
78.0088 865 29.4109
78.1256 777 27.8747
78.2423 761 27.5862
78.3591 866 29.4279
78.4759 919 30.315
78.5928 973 31.1929
78.7097 1041 32.2645
78.8266 1053 32.45
78.9436 1218 34.8999
79.0606 1136 33.7046
79.1776 1220 34.9285
79.2946 1193 34.5398
79.4117 1239 35.1994
79.5288 1196 34.5832
79.6459 1144 33.8231
79.7631 1097 33.121
79.8802 1065 32.6343
79.9974 986 31.4006
80.1147 867 29.4449
80.2319 826 28.7402
80.3491 820 28.6356
80.4664 800 28.2843
80.5837 894 29.8998
80.701 979 31.289
80.8183 932 30.5287
80.9357 1018 31.9061
81.053 1024 32
81.1704 1021 31.9531
81.2877 977 31.257
81.4051 1001 31.6386
81.5225 830 28.8097
81.6399 776 27.8568
81.7573 759 27.55
81.8747 662 25.7294
81.9922 748 27.3496
82.1096 808 28.4253
82.227 841 29
82.3444 976 31.241
82.4619 984 31.3688
82.5793 1085 32.9393
82.6967 1006 31.7175
82.8142 1090 33.0151
82.9316 1070 32.7109
83.049 1063 32.6037
83.1664 1018 31.9061
83.2838 981 31.3209
83.4012 910 30.1662
83.5186 870 29.4958
83.636 877 29.6142
83.7534 827 28.7576
83.8708 717 26.7769
83.9881 735 27.1109
84.1055 712 26.6833
84.2228 745 27.2947
84.3401 796 28.2135
84.4575 862 29.3598
84.5747 889 29.8161
84.692 917 30.282
84.8093 882 29.6985
84.9265 859 29.3087
85.0437 735 27.1109
85.1609 685 26.1725
85.2781 658 25.6515
85.3952 674 25.9615
85.5123 704 26.533
85.6294 814 28.5307
85.7465 867 29.4449
85.8636 965 31.0644
85.9806 982 31.3369
86.0976 1043 32.2955
86.2145 1071 32.7261
86.3315 1163 34.1028
86.4484 1134 33.6749
86.5652 1204 34.6987
86.682 1108 33.2866
86.7988 1208 34.7563
86.9156 1123 33.5112
87.0323 1050 32.4037
87.149 970 31.1448
87.2657 964 31.0483
87.3823 897 29.95
87.4988 826 28.7402
87.6154 925 30.4138
87.7318 957 30.9354
87.8483 976 31.241
87.9647 996 31.5595
88.081 1092 33.0454
88.1973 1161 34.0735
88.3136 1113 33.3617
88.4298 1150 33.9116
88.546 1102 33.1964
88.6621 929 30.4795
88.7781 827 28.7576
88.8942 0 1
89.0101 0 1
89.126 0 1
89.2419 0 1
89.3577 0 1
89.4734 0 1
89.5891 0 1
89.7047 0 1
89.8203 0 1
89.9358 0 1
92.3269 0 1
92.4424 0 1
92.558 0 1
92.6736 0 1
92.7893 0 1
92.905 0 1
93.0208 0 1
93.1366 0 1
93.2525 0 1
93.3685 0 1
93.4845 0 1
93.6005 1048 32.3728
93.7167 1119 33.4515
93.8328 1099 33.1512
93.949 1097 33.121
94.0653 991 31.4802
94.1816 913 30.2159
94.2979 866 29.4279
94.4143 814 28.5307
94.5307 794 28.178
94.6472 877 29.6142
94.7637 890 29.8329
94.8803 942 30.692
94.9969 1093 33.0606
95.1135 1103 33.2114
95.2302 1141 33.7787
95.3469 1247 35.3129
95.4637 1225 35
95.5805 1321 36.3456
95.6973 1312 36.2215
95.8142 1291 35.9305
95.9311 1228 35.0428
96.048 1205 34.7131
96.1649 1152 33.9411
96.2819 1126 33.5559
96.3989 1067 32.665
96.516 941 30.6757
96.633 976 31.241
96.7501 951 30.8383
96.8673 982 31.3369
96.9844 993 31.5119
97.1016 1101 33.1813
97.2188 1126 33.5559
97.336 1145 33.8378
97.4532 1109 33.3017
97.5704 1136 33.7046
97.6877 1096 33.1059
97.805 950 30.8221
97.9223 885 29.7489
98.0396 840 28.9828
98.1569 775 27.8388
98.2743 817 28.5832
98.3916 845 29.0689
98.509 1024 32
98.6264 1118 33.4365
98.7438 1178 34.322
98.8612 1157 34.0147
98.9786 1269 35.623
99.096 1304 36.1109
99.2134 1342 36.6333
99.3308 1320 36.3318
99.4482 1321 36.3456
99.5656 1261 35.5106
99.6831 1222 34.9571
99.8005 1247 35.3129
99.9179 1118 33.4365
100.035 1120 33.4664
100.153 1036 32.187
100.27 963 31.0322
100.388 1002 31.6544
100.505 969 31.1288
100.622 1095 33.0908
100.74 1033 32.1403
100.857 1129 33.6006
100.975 1125 33.541
101.092 1250 35.3553
101.209 1130 33.6155
101.327 1050 32.4037
101.444 926 30.4302
101.561 902 30.0333
101.679 851 29.1719
101.796 874 29.5635
101.913 925 30.4138
102.03 970 31.1448
102.148 1120 33.4664
102.265 1209 34.7707
102.382 1314 36.2491
102.499 1350 36.7423
102.616 1344 36.6606
102.733 1438 37.921
102.851 1319 36.318
102.968 1386 37.229
103.085 1360 36.8782
103.202 1241 35.2278
103.319 1294 35.9722
103.436 1281 35.7911
103.552 1170 34.2053
103.669 1065 32.6343
103.786 1111 33.3317
103.903 1108 33.2866
104.02 1168 34.176
104.137 1155 33.9853
104.253 1216 34.8712
104.37 1243 35.2562
104.487 1303 36.0971
104.603 1232 35.0999
104.72 1187 34.4529
104.836 1139 33.7491
104.953 1072 32.7414
105.069 913 30.2159
105.186 886 29.7658
105.302 970 31.1448
105.418 1048 32.3728
105.535 1136 33.7046
105.651 1294 35.9722
105.767 1305 36.1248
105.883 1413 37.5899
105.999 1375 37.081
106.115 0 1
106.231 0 1
106.347 0 1
106.463 0 1
106.579 0 1
106.694 0 1
106.81 0 1
106.926 0 1
107.041 0 1
107.157 0 1
109.576 0 1
109.692 0 1
109.807 0 1
109.923 0 1
110.039 0 1
110.155 0 1
110.27 0 1
110.386 0 1
110.502 0 1
110.618 1104 33.2265
110.735 1223 34.9714
110.851 1409 37.5366
110.967 1365 36.9459
111.083 1390 37.2827
111.199 1414 37.6032
111.316 1382 37.1753
111.432 1404 37.47
111.549 1478 38.4448
111.665 1346 36.6879
111.782 1327 36.428
111.898 1322 36.3593
112.015 1291 35.9305
112.132 1186 34.4384
112.248 1156 34
112.365 1157 34.0147
112.482 1077 32.8177
112.599 1178 34.322
112.716 1167 34.1614
112.832 1201 34.6554
112.949 1222 34.9571
113.066 1180 34.3511
113.183 1109 33.3017
113.3 1117 33.4215
113.417 1081 32.8786
113.534 955 30.9031
113.652 834 28.8791
113.769 840 28.9828
113.886 889 29.8161
114.003 940 30.6594
114.12 1054 32.4654
114.238 1163 34.1028
114.355 1318 36.3043
114.472 1326 36.4143
114.589 1325 36.4005
114.707 1354 36.7967
114.824 1382 37.1753
114.942 1402 37.4433
115.059 1389 37.2693
115.176 1421 37.6962
115.294 1349 36.7287
115.411 1270 35.6371
115.529 1231 35.0856
115.646 1245 35.2846
115.764 1143 33.8083
115.881 1090 33.0151
115.999 1136 33.7046
116.116 1176 34.2929
116.234 1146 33.8526
116.351 1285 35.8469
116.469 1263 35.5387
116.586 1239 35.1994
116.704 1293 35.9583
116.821 1212 34.8138
116.939 1175 34.2783
117.056 1047 32.3574
117.174 983 31.3528
117.291 931 30.5123
117.409 897 29.95
117.526 918 30.2985
117.644 1086 32.9545
117.761 1170 34.2053
117.879 1336 36.5513
117.996 1371 37.027
118.114 1401 37.4299
118.231 1446 38.0263
118.349 1442 37.9737
118.466 1431 37.8286
118.584 1499 38.7169
118.701 1489 38.5876
118.819 1371 37.027
118.936 1343 36.647
119.053 1262 35.5246
119.171 1302 36.0832
119.288 1211 34.7994
119.405 1181 34.3657
119.523 1167 34.1614
119.64 1186 34.4384
119.757 1156 34
119.875 1281 35.7911
119.992 1212 34.8138
120.109 1219 34.9142
120.226 1198 34.6121
120.343 1241 35.2278
120.46 1238 35.1852
120.578 1179 34.3366
120.695 1052 32.4345
120.812 1011 31.7962
120.929 989 31.4484
121.046 975 31.225
121.163 990 31.4643
121.279 1080 32.8634
121.396 1181 34.3657
121.513 1288 35.8887
121.63 1387 37.2424
121.747 1344 36.6606
121.863 1362 36.9053
121.98 1444 38
122.097 1446 38.0263
122.213 1358 36.8511
122.33 1327 36.428
122.446 1369 37
122.563 1362 36.9053
122.679 1396 37.3631
122.795 1299 36.0416
122.912 1275 35.7071
123.028 1265 35.5668
123.144 1143 33.8083
123.26 1126 33.5559
123.377 0 1
123.493 0 1
123.609 0 1
123.725 0 1
123.84 0 1
123.956 0 1
124.072 0 1
124.188 0 1
124.303 0 1
124.419 0 1
126.852 0 1
126.968 0 1
127.083 0 1
127.199 0 1
127.315 0 1
127.431 0 1
127.547 0 1
127.663 0 1
127.779 0 1
127.895 0 1
128.011 0 1
128.127 0 1
128.243 0 1
128.359 1312 36.2215
128.476 1233 35.1141
128.592 1306 36.1386
128.708 1330 36.4692
128.825 1320 36.3318
128.941 1370 37.0135
129.058 1405 37.4833
129.174 1321 36.3456
129.291 1383 37.1887
129.408 1283 35.819
129.524 1182 34.3802
129.641 1175 34.2783
129.758 1111 33.3317
129.875 1077 32.8177
129.992 1066 32.6497
130.108 1079 32.8481
130.225 1103 33.2114
130.342 1251 35.3695
130.459 1348 36.7151
130.576 1482 38.4968
130.693 1439 37.9342
130.81 1487 38.5616
130.928 1470 38.3406
131.045 1463 38.2492
131.162 1571 39.6358
131.279 1591 39.8873
131.396 1473 38.3797
131.513 1513 38.8973
131.631 1396 37.3631
131.748 1436 37.8946
131.865 1412 37.5766
131.983 1365 36.9459
132.1 1318 36.3043
132.217 1363 36.9188
132.335 1347 36.7015
132.452 1460 38.2099
132.57 1378 37.1214
132.687 1385 37.2156
132.804 1386 37.229
132.922 1367 36.973
133.039 1299 36.0416
133.157 1273 35.6791
133.274 1253 35.3977
133.392 1156 34
133.509 1093 33.0606
133.627 1074 32.7719
133.744 1194 34.5543
133.862 1276 35.7211
133.979 1292 35.9444
134.097 1331 36.4829
134.214 1396 37.3631
134.332 1519 38.9744
134.449 1516 38.9358
134.567 1504 38.7814
134.684 1527 39.0768
134.802 1451 38.092
134.919 1486 38.5487
135.037 1475 38.4057
135.154 1476 38.4187
135.272 1409 37.5366
135.389 1379 37.1349
135.507 1365 36.9459
135.624 1315 36.2629
135.742 1394 37.3363
135.859 1432 37.8418
135.977 1405 37.4833
136.094 1398 37.3898
136.211 1387 37.2424
136.329 1363 36.9188
136.446 1405 37.4833
136.564 1309 36.1801
136.681 1273 35.6791
136.798 1268 35.609
136.915 1176 34.2929
137.033 1135 33.6898
137.15 1080 32.8634
137.267 1084 32.9242
137.384 1112 33.3467
137.502 1216 34.8712
137.619 1330 36.4692
137.736 1389 37.2693
137.853 1326 36.4143
137.97 1331 36.4829
138.087 1324 36.3868
138.204 1428 37.7889
138.321 1525 39.0512
138.438 1539 39.2301
138.555 1493 38.6394
138.672 1541 39.2556
138.788 1470 38.3406
138.905 1392 37.3095
139.022 1413 37.5899
139.139 1346 36.6879
139.255 1363 36.9188
139.372 1451 38.092
139.488 1404 37.47
139.605 1452 38.1051
139.721 1440 37.9473
139.838 1404 37.47
139.954 1332 36.4966
140.071 1379 37.1349
140.187 1402 37.4433
140.303 1272 35.6651
140.419 1182 34.3802
140.535 1174 34.2637
140.652 1094 33.0757
140.768 0 1
140.884 0 1
141 0 1
141.115 0 1
141.231 0 1
141.347 0 1
141.463 0 1
141.578 0 1
141.694 0 1
144.104 0 1
144.219 0 1
144.335 0 1
144.45 0 1
144.566 0 1
144.682 0 1
144.798 0 1
144.914 0 1
145.03 0 1
145.146 1050 32.4037
145.262 949 30.8058
145.378 974 31.209
145.494 1006 31.7175
145.61 930 30.4959
145.726 885 29.7489
145.842 894 29.8998
145.959 876 29.5973
146.075 842 29.0172
146.192 922 30.3645
146.308 964 31.0483
146.425 965 31.0644
146.541 1018 31.9061
146.658 1054 32.4654
146.774 1092 33.0454
146.891 1090 33.0151
147.008 1132 33.6452
147.125 1178 34.322
147.241 1180 34.3511
147.358 1189 34.4819
147.475 1185 34.4238
147.592 1202 34.6699
147.709 1083 32.909
147.826 1175 34.2783
147.943 1073 32.7567
148.06 1088 32.9848
148.177 1095 33.0908
148.294 1182 34.3802
148.411 1048 32.3728
148.528 1101 33.1813
148.645 1077 32.8177
148.762 1160 34.0588
148.88 1129 33.6006
148.997 1106 33.2566
149.114 1098 33.1361
149.231 1082 32.8938
149.349 1015 31.8591
149.466 1040 32.249
149.583 987 31.4166
149.701 937 30.6105
149.818 926 30.4302
149.935 905 30.0832
150.053 922 30.3645
150.17 992 31.496
150.287 1091 33.0303
150.405 1025 32.0156
150.522 1091 33.0303
150.64 1060 32.5576
150.757 1150 33.9116
150.875 1197 34.5977
150.992 1164 34.1174
151.11 1228 35.0428
151.227 1195 34.5688
151.344 1213 34.8281
151.462 1136 33.7046
151.579 1170 34.2053
151.697 1123 33.5112
151.814 1150 33.9116
151.932 1172 34.2345
152.049 1181 34.3657
152.167 1187 34.4529
152.284 1211 34.7994
152.402 1201 34.6554
152.519 1232 35.0999
152.636 1198 34.6121
152.754 1075 32.7872
152.871 1135 33.6898
152.989 1020 31.9374
153.106 1033 32.1403
153.223 1023 31.9844
153.341 1017 31.8904
153.458 965 31.0644
153.575 945 30.7409
153.693 1034 32.1559
153.81 1124 33.5261
153.927 1057 32.5115
154.044 1126 33.5559
154.162 1142 33.7935
154.279 1165 34.1321
154.396 1280 35.7771
154.513 1265 35.5668
154.63 1324 36.3868
154.747 1284 35.8329
154.864 1321 36.3456
154.981 1317 36.2905
155.098 1280 35.7771
155.215 1313 36.2353
155.332 1264 35.5528
155.449 1181 34.3657
155.566 1203 34.6843
155.683 1207 34.7419
155.8 1210 34.7851
155.917 1280 35.7771
156.033 1324 36.3868
156.15 0 1
156.267 0 1
156.383 0 1
156.5 0 1
156.617 0 1
156.733 0 1
156.85 0 1
156.966 0 1
157.082 0 1
157.199 0 1
157.315 0 1
157.431 0 1
157.547 0 1
157.664 0 1
157.78 0 1
157.896 0 1
158.012 0 1
158.128 0 1
158.244 0 1
158.359 0 1
158.475 0 1
158.591 0 1
158.706 0 1
