
6.15755 0 1
6.2731 0 1
6.3887 0 1
6.50437 0 1
6.62009 0 1
6.73587 0 1
6.8517 0 1
6.96759 0 1
7.08353 0 1
7.19952 0 1
7.31557 0 1
7.43166 0 1
7.54781 0 1
7.664 0 1
7.78024 0 1
7.89653 0 1
8.01286 0 1
8.12924 0 1
8.24567 0 1
8.36213 0 1
8.47864 0 1
8.59519 0 1
8.71178 0 1
8.82841 0 1
8.94508 0 1
9.06179 0 1
9.17853 0 1
9.29531 0 1
9.41212 0 1
9.52897 0 1
9.64584 0 1
9.76276 0 1
9.8797 0 1
9.99667 0 1
10.1137 0 1
10.2307 0 1
10.3478 0 1
10.4648 0 1
10.5819 0 1
10.6991 0 1
10.8162 0 1
10.9334 0 1
11.0506 0 1
11.1678 0 1
11.285 0 1
11.4023 0 1
11.5196 0 1
11.6369 0 1
11.7542 0 1
11.8715 0 1
11.9888 0 1
12.1062 0 1
12.2235 0 1
12.3409 0 1
12.4582 0 1
12.5756 0 1
12.693 0 1
12.8104 0 1
12.9278 0 1
13.0452 0 1
13.1626 0 1
13.28 0 1
13.3974 0 1
13.5149 0 1
13.6323 0 1
13.7497 0 1
13.8671 0 1
13.9845 0 1
14.1019 0 1
14.2193 0 1
14.3367 0 1
14.4541 0 1
14.5714 0 1
14.6888 0 1
14.8062 0 1
14.9235 0 1
15.0408 979 31.289
15.1581 1045 32.3265
15.2755 1080 32.8634
15.3927 975 31.225
15.51 926 30.4302
15.6273 1011 31.7962
15.7445 1019 31.9218
15.8617 999 31.607
15.9789 1023 31.9844
16.0961 990 31.4643
16.2132 945 30.7409
16.3304 950 30.8221
16.4475 938 30.6268
16.5646 954 30.8869
16.6816 933 30.545
16.7986 950 30.8221
16.9156 963 31.0322
17.0326 930 30.4959
17.1496 953 30.8707
17.2665 937 30.6105
17.3833 956 30.9192
17.5002 935 30.5778
17.617 935 30.5778
17.7338 933 30.545
17.8505 978 31.273
17.9672 952 30.8545
18.0839 964 31.0483
18.2005 963 31.0322
18.3171 919 30.315
18.4337 967 31.0966
18.5502 888 29.7993
18.6666 980 31.305
18.7831 966 31.0805
18.8994 883 29.7153
19.0158 900 30
19.1321 852 29.189
19.2483 864 29.3939
19.3645 857 29.2746
19.4806 837 28.931
19.5967 740 27.2029
19.7128 695 26.3629
19.8288 643 25.3574
19.9447 563 23.7276
20.0606 0 1
20.1764 0 1
20.2922 0 1
20.4079 0 1
20.5236 0 1
20.6392 0 1
20.7548 0 1
20.8702 0 1
23.3078 0 1
23.4233 0 1
23.539 0 1
23.6547 0 1
23.7704 0 1
23.8862 0 1
24.0021 0 1
24.118 0 1
24.234 0 1
24.35 0 1
24.4661 384 19.5959
24.5822 508 22.5389
24.6984 463 21.5174
24.8146 574 23.9583
24.9309 679 26.0576
25.0472 727 26.9629
25.1636 806 28.3901
25.28 838 28.9482
25.3965 866 29.4279
25.513 958 30.9516
25.6296 993 31.5119
25.7462 995 31.5436
25.8628 974 31.209
25.9795 967 31.0966
26.0962 994 31.5278
26.213 912 30.1993
26.3298 961 31
26.4466 905 30.0832
26.5635 925 30.4138
26.6804 863 29.3769
26.7973 824 28.7054
26.9143 822 28.6705
27.0313 728 26.9815
27.1483 783 27.9821
27.2653 838 28.9482
27.3824 871 29.5127
27.4996 885 29.7489
27.6167 911 30.1828
27.7339 906 30.0998
27.8511 869 29.4788
27.9683 802 28.3196
28.0855 898 29.9666
28.2028 937 30.6105
28.3201 822 28.6705
28.4374 939 30.6431
28.5547 878 29.6311
28.6721 881 29.6816
28.7894 819 28.6182
28.9068 898 29.9666
29.0242 844 29.0517
29.1416 910 30.1662
29.259 901 30.0167
29.3764 850 29.1548
29.4939 839 28.9655
29.6113 808 28.4253
29.7288 845 29.0689
29.8463 864 29.3939
29.9638 854 29.2233
30.0812 855 29.2404
30.1987 829 28.7924
30.3162 854 29.2233
30.4337 716 26.7582
30.5512 780 27.9285
30.6687 747 27.3313
30.7862 817 28.5832
30.9037 895 29.9166
31.0212 955 30.9031
31.1387 874 29.5635
31.2562 914 30.2324
31.3737 896 29.9333
31.4912 885 29.7489
31.6087 842 29.0172
31.7262 865 29.4109
31.8436 833 28.8617
31.9611 764 27.6405
32.0785 743 27.258
32.1959 725 26.9258
32.3134 728 26.9815
32.4308 761 27.5862
32.5482 798 28.2489
32.6655 786 28.0357
32.7829 776 27.8568
32.9002 745 27.2947
33.0176 760 27.5681
33.1349 771 27.7669
33.2522 793 28.1603
33.3694 741 27.2213
33.4867 787 28.0535
33.6039 753 27.4408
33.7211 802 28.3196
33.8383 734 27.0924
33.9554 729 27
34.0725 728 26.9815
34.1896 680 26.0768
34.3067 673 25.9422
34.4237 750 27.3861
34.5407 848 29.1204
34.6577 727 26.9629
34.7746 800 28.2843
34.8915 807 28.4077
35.0084 832 28.8444
35.1252 813 28.5132
35.242 795 28.1957
35.3587 772 27.7849
35.4755 720 26.8328
35.5921 727 26.9629
35.7088 686 26.1916
35.8254 673 25.9422
35.9419 665 25.7876
36.0584 685 26.1725
36.1749 705 26.5518
36.2913 747 27.3313
36.4077 691 26.2869
36.524 672 25.923
36.6403 662 25.7294
36.7565 635 25.1992
36.8727 574 23.9583
36.9889 568 23.8328
37.1049 529 23
37.221 0 1
37.3369 0 1
37.4529 0 1
37.5687 0 1
37.6845 0 1
37.8003 0 1
37.916 0 1
38.0316 0 1
38.1472 0 1
40.5851 0 1
40.7008 0 1
40.8164 0 1
40.9322 0 1
41.048 0 1
41.1639 0 1
41.2798 0 1
41.3958 0 1
41.5118 0 1
41.6279 0 1
41.744 325 18.0278
41.8602 382 19.5448
41.9765 476 21.8174
42.0928 487 22.0681
42.2091 572 23.9165
42.3255 562 23.7065
42.4419 636 25.219
42.5584 635 25.1992
42.675 643 25.3574
42.7915 610 24.6982
42.9081 551 23.4734
43.0248 566 23.7908
43.1415 562 23.7065
43.2582 582 24.1247
43.375 605 24.5967
43.4918 637 25.2389
43.6087 625 25
43.7256 626 25.02
43.8425 674 25.9615
43.9595 651 25.5147
44.0765 668 25.8457
44.1935 625 25
44.3106 625 25
44.4277 582 24.1247
44.5448 560 23.6643
44.6619 537 23.1733
44.7791 573 23.9374
44.8963 599 24.4745
45.0136 622 24.9399
45.1308 621 24.9199
45.2481 654 25.5734
45.3654 618 24.8596
45.4827 672 25.923
45.6001 659 25.671
45.7174 637 25.2389
45.8348 665 25.7876
45.9522 706 26.5707
46.0697 684 26.1534
46.1871 644 25.3772
46.3046 621 24.9199
46.422 591 24.3105
46.5395 527 22.9565
46.657 534 23.1084
46.7745 589 24.2693
46.892 594 24.3721
47.0096 626 25.02
47.1271 625 25
47.2446 578 24.0416
47.3622 620 24.8998
47.4797 645 25.3969
47.5973 636 25.219
47.7149 604 24.5764
47.8324 607 24.6374
47.95 604 24.5764
48.0675 514 22.6716
48.1851 584 24.1661
48.3027 515 22.6936
48.4202 595 24.3926
48.5378 627 25.04
48.6554 650 25.4951
48.7729 616 24.8193
48.8904 642 25.3377
49.008 675 25.9808
49.1255 640 25.2982
49.243 670 25.8844
49.3605 679 26.0576
49.478 648 25.4558
49.5955 643 25.3574
49.713 610 24.6982
49.8304 560 23.6643
49.9479 515 22.6936
50.0653 529 23
50.1827 458 21.4009
50.3001 589 24.2693
50.4175 588 24.2487
50.5348 576 24
50.6521 617 24.8395
50.7694 591 24.3105
50.8867 628 25.0599
51.004 621 24.9199
51.1212 635 25.1992
51.2384 571 23.8956
51.3556 626 25.02
51.4727 585 24.1868
51.5899 582 24.1247
51.707 571 23.8956
51.824 591 24.3105
51.9411 635 25.1992
52.0581 658 25.6515
52.175 716 26.7582
52.2919 727 26.9629
52.4088 688 26.2298
52.5257 809 28.4429
52.6425 812 28.4956
52.7593 830 28.8097
52.876 868 29.4618
52.9927 969 31.1288
53.1094 1009 31.7648
53.226 1033 32.1403
53.3426 1074 32.7719
53.4591 970 31.1448
53.5756 1008 31.749
53.692 889 29.8161
53.8084 838 28.9482
53.9248 884 29.7321
54.0411 899 29.9833
54.1573 911 30.1828
54.2735 0 1
54.3896 0 1
54.5057 0 1
54.6217 0 1
54.7377 0 1
54.8537 0 1
54.9695 0 1
55.0853 0 1
55.2011 0 1
55.3168 0 1
55.4324 0 1
57.824 0 1
57.9396 0 1
58.0553 0 1
58.1711 0 1
58.2869 0 1
58.4028 0 1
58.5187 0 1
58.6347 0 1
58.7508 0 1
58.8669 0 1
58.983 754 27.4591
59.0992 911 30.1828
59.2155 1100 33.1662
59.3318 1191 34.5109
59.4482 1345 36.6742
59.5646 1325 36.4005
59.681 1425 37.7492
59.7975 1460 38.2099
59.9141 1480 38.4708
60.0306 1465 38.2753
60.1473 1537 39.2046
60.2639 1354 36.7967
60.3807 1395 37.3497
60.4974 1317 36.2905
60.6142 1393 37.3229
60.731 1397 37.3765
60.8479 1401 37.4299
60.9648 1393 37.3229
61.0818 1335 36.5377
61.1987 1389 37.2693
61.3158 1299 36.0416
61.4328 1314 36.2491
61.5499 1262 35.5246
61.667 1250 35.3553
61.7841 1253 35.3977
61.9013 1209 34.7707
62.0185 1129 33.6006
62.1357 1068 32.6803
62.253 983 31.3528
62.3702 942 30.692
62.4875 1009 31.7648
62.6049 971 31.1609
62.7222 1047 32.3574
62.8396 1018 31.9061
62.9569 1032 32.1248
63.0743 1038 32.218
63.1918 992 31.496
63.3092 1035 32.1714
63.4267 937 30.6105
63.5441 917 30.282
63.6616 781 27.9464
63.7791 781 27.9464
63.8966 726 26.9444
64.0142 686 26.1916
64.1317 635 25.1992
64.2492 738 27.1662
64.3668 695 26.3629
64.4843 650 25.4951
64.6019 691 26.2869
64.7195 676 26
64.837 606 24.6171
64.9546 661 25.7099
65.0722 688 26.2298
65.1898 673 25.9422
65.3074 629 25.0799
65.4249 647 25.4362
65.5425 637 25.2389
65.6601 604 24.5764
65.7777 561 23.6854
65.8952 556 23.5797
66.0128 593 24.3516
66.1304 577 24.0208
66.2479 580 24.0832
66.3655 602 24.5357
66.483 625 25
66.6005 663 25.7488
66.718 637 25.2389
66.8355 662 25.7294
66.953 667 25.8263
67.0705 643 25.3574
67.1879 608 24.6577
67.3054 574 23.9583
67.4228 549 23.4307
67.5402 615 24.7992
67.6576 619 24.8797
67.7749 607 24.6374
67.8923 639 25.2784
68.0096 606 24.6171
68.1269 604 24.5764
68.2442 593 24.3516
68.3614 604 24.5764
68.4787 594 24.3721
68.5958 614 24.779
68.713 636 25.219
68.8302 642 25.3377
68.9473 653 25.5539
69.0643 662 25.7294
69.1814 615 24.7992
69.2984 586 24.2074
69.4154 546 23.3666
69.5323 578 24.0416
69.6492 511 22.6053
69.7661 576 24
69.8829 630 25.0998
69.9997 596 24.4131
70.1165 631 25.1197
70.2332 570 23.8747
70.3499 597 24.4336
70.4665 575 23.9792
70.5831 534 23.1084
70.6996 481 21.9317
70.8161 474 21.7715
70.9326 387 19.6723
71.049 349 18.6815
71.1653 368 19.1833
71.2817 319 17.8606
71.3979 309 17.5784
71.5141 314 17.72
71.6303 276 16.6132
71.7464 202 14.2127
71.8624 0 1
71.9784 0 1
72.0944 0 1
72.2102 0 1
72.3261 0 1
72.4418 0 1
72.5575 0 1
72.6732 0 1
75.1054 0 1
75.2209 0 1
75.3365 0 1
75.4521 0 1
75.5678 0 1
75.6835 0 1
75.7993 0 1
75.9151 0 1
76.031 0 1
76.147 363 19.0526
76.263 385 19.6214
76.3791 427 20.664
76.4952 464 21.5407
76.6113 493 22.2036
76.7276 489 22.1133
76.8438 451 21.2368
76.9601 531 23.0434
77.0765 499 22.3383
77.1929 539 23.2164
77.3093 516 22.7156
77.4258 560 23.6643
77.5423 549 23.4307
77.6589 526 22.9347
77.7755 523 22.8692
77.8921 523 22.8692
78.0088 554 23.5372
78.1256 502 22.4054
78.2423 482 21.9545
78.3591 476 21.8174
78.4759 441 21
78.5928 460 21.4476
78.7097 463 21.5174
78.8266 461 21.4709
78.9436 511 22.6053
79.0606 537 23.1733
79.1776 535 23.1301
79.2946 569 23.8537
79.4117 515 22.6936
79.5288 532 23.0651
79.6459 515 22.6936
79.7631 504 22.4499
79.8802 488 22.0907
79.9974 464 21.5407
80.1147 471 21.7025
80.2319 517 22.7376
80.3491 509 22.561
80.4664 519 22.7816
80.5837 527 22.9565
80.701 495 22.2486
80.8183 520 22.8035
80.9357 493 22.2036
81.053 527 22.9565
81.1704 508 22.5389
81.2877 582 24.1247
81.4051 559 23.6432
81.5225 562 23.7065
81.6399 517 22.7376
81.7573 545 23.3452
81.8747 515 22.6936
81.9922 502 22.4054
82.1096 494 22.2261
82.227 442 21.0238
82.3444 462 21.4942
82.4619 525 22.9129
82.5793 544 23.3238
82.6967 531 23.0434
82.8142 515 22.6936
82.9316 547 23.388
83.049 581 24.1039
83.1664 556 23.5797
83.2838 588 24.2487
83.4012 486 22.0454
83.5186 529 23
83.636 493 22.2036
83.7534 530 23.0217
83.8708 487 22.0681
83.9881 543 23.3024
84.1055 518 22.7596
84.2228 577 24.0208
84.3401 540 23.2379
84.4575 515 22.6936
84.5747 538 23.1948
84.692 494 22.2261
84.8093 527 22.9565
84.9265 557 23.6008
85.0437 561 23.6854
85.1609 558 23.622
85.2781 514 22.6716
85.3952 556 23.5797
85.5123 524 22.891
85.6294 506 22.4944
85.7465 509 22.561
85.8636 488 22.0907
85.9806 538 23.1948
86.0976 521 22.8254
86.2145 556 23.5797
86.3315 548 23.4094
86.4484 529 23
86.5652 566 23.7908
86.682 563 23.7276
86.7988 588 24.2487
86.9156 555 23.5584
87.0323 508 22.5389
87.149 522 22.8473
87.2657 538 23.1948
87.3823 536 23.1517
87.4988 510 22.5832
87.6154 490 22.1359
87.7318 469 21.6564
87.8483 441 21
87.9647 476 21.8174
88.081 447 21.1424
88.1973 396 19.8997
88.3136 376 19.3907
88.4298 364 19.0788
88.546 308 17.5499
88.6621 329 18.1384
88.7781 303 17.4069
88.8942 0 1
89.0101 0 1
89.126 0 1
89.2419 0 1
89.3577 0 1
89.4734 0 1
89.5891 0 1
89.7047 0 1
89.8203 0 1
89.9358 0 1
92.3269 0 1
92.4424 0 1
92.558 0 1
92.6736 0 1
92.7893 0 1
92.905 0 1
93.0208 0 1
93.1366 0 1
93.2525 0 1
93.3685 0 1
93.4845 0 1
93.6005 403 20.0749
93.7167 457 21.3776
93.8328 471 21.7025
93.949 503 22.4277
94.0653 509 22.561
94.1816 568 23.8328
94.2979 537 23.1733
94.4143 591 24.3105
94.5307 550 23.4521
94.6472 585 24.1868
94.7637 534 23.1084
94.8803 498 22.3159
94.9969 522 22.8473
95.1135 521 22.8254
95.2302 550 23.4521
95.3469 552 23.4947
95.4637 593 24.3516
95.5805 579 24.0624
95.6973 575 23.9792
95.8142 560 23.6643
95.9311 523 22.8692
96.048 522 22.8473
96.1649 509 22.561
96.2819 553 23.516
96.3989 553 23.516
96.516 548 23.4094
96.633 603 24.5561
96.7501 584 24.1661
96.8673 606 24.6171
96.9844 580 24.0832
97.1016 589 24.2693
97.2188 547 23.388
97.336 545 23.3452
97.4532 569 23.8537
97.5704 578 24.0416
97.6877 578 24.0416
97.805 601 24.5153
97.9223 523 22.8692
98.0396 552 23.4947
98.1569 564 23.7487
98.2743 523 22.8692
98.3916 525 22.9129
98.509 525 22.9129
98.6264 516 22.7156
98.7438 595 24.3926
98.8612 531 23.0434
98.9786 598 24.454
99.096 598 24.454
99.2134 621 24.9199
99.3308 597 24.4336
99.4482 614 24.779
99.5656 596 24.4131
99.6831 564 23.7487
99.8005 600 24.4949
99.9179 612 24.7386
100.035 582 24.1247
100.153 624 24.98
100.27 641 25.318
100.388 630 25.0998
100.505 556 23.5797
100.622 596 24.4131
100.74 582 24.1247
100.857 545 23.3452
100.975 569 23.8537
101.092 602 24.5357
101.209 560 23.6643
101.327 617 24.8395
101.444 573 23.9374
101.561 621 24.9199
101.679 568 23.8328
101.796 585 24.1868
101.913 563 23.7276
102.03 546 23.3666
102.148 543 23.3024
102.265 592 24.3311
102.382 546 23.3666
102.499 577 24.0208
102.616 614 24.779
102.733 656 25.6125
102.851 618 24.8596
102.968 634 25.1794
103.085 608 24.6577
103.202 616 24.8193
103.319 579 24.0624
103.436 602 24.5357
103.552 655 25.593
103.669 679 26.0576
103.786 606 24.6171
103.903 614 24.779
104.02 633 25.1595
104.137 634 25.1794
104.253 592 24.3311
104.37 627 25.04
104.487 607 24.6374
104.603 602 24.5357
104.72 615 24.7992
104.836 537 23.1733
104.953 587 24.2281
105.069 544 23.3238
105.186 513 22.6495
105.302 507 22.5167
105.418 480 21.9089
105.535 438 20.9284
105.651 410 20.2485
105.767 401 20.025
105.883 338 18.3848
105.999 330 18.1659
106.115 0 1
106.231 0 1
106.347 0 1
106.463 0 1
106.579 0 1
106.694 0 1
106.81 0 1
106.926 0 1
107.041 0 1
107.157 0 1
109.576 0 1
109.692 0 1
109.807 0 1
109.923 0 1
110.039 0 1
110.155 0 1
110.27 0 1
110.386 0 1
110.502 0 1
110.618 295 17.1756
110.735 378 19.4422
110.851 361 19
110.967 454 21.3073
111.083 513 22.6495
111.199 504 22.4499
111.316 502 22.4054
111.432 573 23.9374
111.549 632 25.1396
111.665 573 23.9374
111.782 543 23.3024
111.898 531 23.0434
112.015 552 23.4947
112.132 556 23.5797
112.248 567 23.8118
112.365 620 24.8998
112.482 614 24.779
112.599 589 24.2693
112.716 627 25.04
112.832 590 24.2899
112.949 571 23.8956
113.066 548 23.4094
113.183 561 23.6854
113.3 532 23.0651
113.417 534 23.1084
113.534 561 23.6854
113.652 547 23.388
113.769 530 23.0217
113.886 550 23.4521
114.003 491 22.1585
114.12 534 23.1084
114.238 499 22.3383
114.355 465 21.5639
114.472 520 22.8035
114.589 536 23.1517
114.707 564 23.7487
114.824 573 23.9374
114.942 602 24.5357
115.059 589 24.2693
115.176 575 23.9792
115.294 587 24.2281
115.411 516 22.7156
115.529 508 22.5389
115.646 511 22.6053
115.764 574 23.9583
115.881 570 23.8747
115.999 560 23.6643
116.116 611 24.7184
116.234 541 23.2594
116.351 542 23.2809
116.469 542 23.2809
116.586 522 22.8473
116.704 510 22.5832
116.821 494 22.2261
116.939 525 22.9129
117.056 522 22.8473
117.174 482 21.9545
117.291 541 23.2594
117.409 507 22.5167
117.526 522 22.8473
117.644 489 22.1133
117.761 475 21.7945
117.879 479 21.8861
117.996 493 22.2036
118.114 534 23.1084
118.231 495 22.2486
118.349 535 23.1301
118.466 542 23.2809
118.584 571 23.8956
118.701 545 23.3452
118.819 531 23.0434
118.936 517 22.7376
119.053 511 22.6053
119.171 501 22.383
119.288 489 22.1133
119.405 554 23.5372
119.523 513 22.6495
119.64 525 22.9129
119.757 486 22.0454
119.875 552 23.4947
119.992 494 22.2261
120.109 512 22.6274
120.226 511 22.6053
120.343 499 22.3383
120.46 493 22.2036
120.578 474 21.7715
120.695 501 22.383
120.812 480 21.9089
120.929 478 21.8632
121.046 503 22.4277
121.163 469 21.6564
121.279 448 21.166
121.396 443 21.0476
121.513 427 20.664
121.63 420 20.4939
121.747 429 20.7123
121.863 380 19.4936
121.98 399 19.975
122.097 429 20.7123
122.213 416 20.3961
122.33 404 20.0998
122.446 391 19.7737
122.563 344 18.5472
122.679 313 17.6918
122.795 311 17.6352
122.912 260 16.1245
123.028 286 16.9115
123.144 291 17.0587
123.26 255 15.9687
123.377 0 1
123.493 0 1
123.609 0 1
123.725 0 1
123.84 0 1
123.956 0 1
124.072 0 1
124.188 0 1
124.303 0 1
124.419 0 1
126.852 0 1
126.968 0 1
127.083 0 1
127.199 0 1
127.315 0 1
127.431 0 1
127.547 0 1
127.663 0 1
127.779 0 1
127.895 0 1
128.011 0 1
128.127 0 1
128.243 0 1
128.359 504 22.4499
128.476 567 23.8118
128.592 569 23.8537
128.708 589 24.2693
128.825 597 24.4336
128.941 566 23.7908
129.058 582 24.1247
129.174 564 23.7487
129.291 609 24.6779
129.408 610 24.6982
129.524 571 23.8956
129.641 598 24.454
129.758 580 24.0832
129.875 577 24.0208
129.992 594 24.3721
130.108 610 24.6982
130.225 657 25.632
130.342 567 23.8118
130.459 596 24.4131
130.576 598 24.454
130.693 580 24.0832
130.81 628 25.0599
130.928 617 24.8395
131.045 651 25.5147
131.162 676 26
131.279 742 27.2397
131.396 769 27.7308
131.513 763 27.6225
131.631 766 27.6767
131.748 704 26.533
131.865 791 28.1247
131.983 827 28.7576
132.1 836 28.9137
132.217 876 29.5973
132.335 897 29.95
132.452 930 30.4959
132.57 998 31.5911
132.687 983 31.3528
132.804 1001 31.6386
132.922 1048 32.3728
133.039 1023 31.9844
133.157 1099 33.1512
133.274 1109 33.3017
133.392 1072 32.7414
133.509 1116 33.4066
133.627 1077 32.8177
133.744 1050 32.4037
133.862 1034 32.1559
133.979 996 31.5595
134.097 974 31.209
134.214 960 30.9839
134.332 1037 32.2025
134.449 987 31.4166
134.567 1008 31.749
134.684 1011 31.7962
134.802 1113 33.3617
134.919 1130 33.6155
135.037 1020 31.9374
135.154 1169 34.1906
135.272 1081 32.8786
135.389 1061 32.573
135.507 1096 33.1059
135.624 1079 32.8481
135.742 1113 33.3617
135.859 1221 34.9428
135.977 1188 34.4674
136.094 1163 34.1028
136.211 1140 33.7639
136.329 1142 33.7935
136.446 1137 33.7194
136.564 1095 33.0908
136.681 1159 34.0441
136.798 1123 33.5112
136.915 1127 33.5708
137.033 1176 34.2929
137.15 1068 32.6803
137.267 1158 34.0294
137.384 1061 32.573
137.502 1054 32.4654
137.619 1036 32.187
137.736 937 30.6105
137.853 961 31
137.97 968 31.1127
138.087 978 31.273
138.204 995 31.5436
138.321 1063 32.6037
138.438 1037 32.2025
138.555 1105 33.2415
138.672 1151 33.9264
138.788 1114 33.3766
138.905 1071 32.7261
139.022 1097 33.121
139.139 938 30.6268
139.255 946 30.7571
139.372 896 29.9333
139.488 873 29.5466
139.605 839 28.9655
139.721 842 29.0172
139.838 827 28.7576
139.954 773 27.8029
140.071 734 27.0924
140.187 728 26.9815
140.303 697 26.4008
140.419 649 25.4755
140.535 636 25.219
140.652 646 25.4165
140.768 0 1
140.884 0 1
141 0 1
141.115 0 1
141.231 0 1
141.347 0 1
141.463 0 1
141.578 0 1
141.694 0 1
144.104 0 1
144.219 0 1
144.335 0 1
144.45 0 1
144.566 0 1
144.682 0 1
144.798 0 1
144.914 0 1
145.03 0 1
145.146 1706 41.3038
145.262 1846 42.9651
145.378 1973 44.4185
145.494 1946 44.1135
145.61 2032 45.0777
145.726 1997 44.6878
145.842 2161 46.4866
145.959 2207 46.9787
146.075 2320 48.1664
146.192 2393 48.9183
146.308 2430 49.295
146.425 2540 50.3984
146.541 2546 50.4579
146.658 2367 48.6518
146.774 2246 47.392
146.891 1941 44.0568
147.008 2290 47.8539
147.125 2684 51.8073
147.241 3089 55.5788
147.358 3282 57.2887
147.475 3380 58.1378
147.592 3530 59.4138
147.709 3526 59.3801
147.826 3445 58.6941
147.943 3510 59.2453
148.06 3381 58.1464
148.177 3416 58.4466
148.294 3518 59.3127
148.411 3474 58.9406
148.528 3623 60.1914
148.645 3712 60.9262
148.762 3627 60.2246
148.88 3623 60.1914
148.997 3680 60.663
149.114 3461 58.8303
149.231 3666 60.5475
149.349 3666 60.5475
149.466 3651 60.4235
149.583 3639 60.3241
149.701 3526 59.3801
149.818 3562 59.6825
149.935 3462 58.8388
150.053 3456 58.7878
150.17 3418 58.4637
150.287 3169 56.2939
150.405 2968 54.4794
150.522 2573 50.7247
150.64 2327 48.239
150.757 2726 52.2111
150.875 3258 57.0789
150.992 3499 59.1523
151.11 3692 60.7618
151.227 3727 61.0492
151.344 3724 61.0246
151.462 3881 62.2977
151.579 3855 62.0886
151.697 3892 62.3859
151.814 3994 63.1981
151.932 4117 64.1639
152.049 4151 64.4283
152.167 4387 66.2344
152.284 4526 67.2756
152.402 4498 67.0671
152.519 4528 67.2904
152.636 4611 67.9043
152.754 4792 69.2243
152.871 4759 68.9855
152.989 4710 68.6294
153.106 4826 69.4694
153.223 4726 68.7459
153.341 4802 69.2965
153.458 4742 68.8622
153.575 4613 67.9191
153.693 4584 67.7052
153.81 4296 65.5439
153.927 3671 60.5888
154.044 2659 51.5655
154.162 2413 49.1223
154.279 3244 56.9561
154.396 3830 61.887
154.513 3923 62.6339
154.63 3966 62.9762
154.747 4026 63.4508
154.864 3721 61
154.981 3634 60.2827
155.098 3572 59.7662
155.215 3408 58.3781
155.332 3322 57.6368
155.449 3204 56.6039
155.566 3035 55.0908
155.683 2968 54.4794
155.8 2846 53.3479
155.917 2785 52.7731
156.033 2709 52.0481
156.15 0 1
156.267 0 1
156.383 0 1
156.5 0 1
156.617 0 1
156.733 0 1
156.85 0 1
156.966 0 1
157.082 0 1
157.199 0 1
157.315 0 1
157.431 0 1
157.547 0 1
157.664 0 1
157.78 0 1
157.896 0 1
158.012 0 1
158.128 0 1
158.244 0 1
158.359 0 1
158.475 0 1
158.591 0 1
158.706 0 1
