
6.15755 0 1
6.2731 0 1
6.3887 0 1
6.50437 0 1
6.62009 0 1
6.73587 0 1
6.8517 0 1
6.96759 0 1
7.08353 0 1
7.19952 0 1
7.31557 0 1
7.43166 0 1
7.54781 0 1
7.664 0 1
7.78024 0 1
7.89653 0 1
8.01286 0 1
8.12924 0 1
8.24567 0 1
8.36213 0 1
8.47864 0 1
8.59519 0 1
8.71178 0 1
8.82841 0 1
8.94508 0 1
9.06179 0 1
9.17853 0 1
9.29531 0 1
9.41212 0 1
9.52897 0 1
9.64584 0 1
9.76276 0 1
9.8797 0 1
9.99667 0 1
10.1137 0 1
10.2307 0 1
10.3478 0 1
10.4648 0 1
10.5819 0 1
10.6991 0 1
10.8162 0 1
10.9334 0 1
11.0506 0 1
11.1678 0 1
11.285 0 1
11.4023 0 1
11.5196 0 1
11.6369 0 1
11.7542 0 1
11.8715 0 1
11.9888 0 1
12.1062 0 1
12.2235 0 1
12.3409 0 1
12.4582 0 1
12.5756 0 1
12.693 0 1
12.8104 0 1
12.9278 0 1
13.0452 0 1
13.1626 0 1
13.28 0 1
13.3974 0 1
13.5149 0 1
13.6323 0 1
13.7497 0 1
13.8671 0 1
13.9845 0 1
14.1019 0 1
14.2193 0 1
14.3367 0 1
14.4541 0 1
14.5714 0 1
14.6888 0 1
14.8062 0 1
14.9235 0 1
15.0408 0 0
15.1581 0 0
15.2755 0 0
15.3927 0 0
15.51 0 0
15.6273 0 0
15.7445 0 0
15.8617 0 0
15.9789 0 0
16.0961 0 0
16.2132 0 0
16.3304 0 0
16.4475 0 0
16.5646 0 0
16.6816 0 0
16.7986 0 0
16.9156 0 0
17.0326 0 0
17.1496 0 0
17.2665 0 0
17.3833 0 0
17.5002 0 0
17.617 0 0
17.7338 0 0
17.8505 0 0
17.9672 0 0
18.0839 0 0
18.2005 0 0
18.3171 0 0
18.4337 0 0
18.5502 0 0
18.6666 0 0
18.7831 0 0
18.8994 0 0
19.0158 0 0
19.1321 0 0
19.2483 0 0
19.3645 0 0
19.4806 0 0
19.5967 0 0
19.7128 0 0
19.8288 0 0
19.9447 0 0
20.0606 0 1
20.1764 0 1
20.2922 0 1
20.4079 0 1
20.5236 0 1
20.6392 0 1
20.7548 0 1
20.8702 0 1
23.3078 0 1
23.4233 0 1
23.539 0 1
23.6547 0 1
23.7704 0 1
23.8862 0 1
24.0021 0 1
24.118 0 1
24.234 0 1
24.35 0 1
24.4661 1655 40.6817
24.5822 1733 41.6293
24.6984 1664 40.7922
24.8146 1599 39.9875
24.9309 1611 40.1373
25.0472 1589 39.8623
25.1636 1641 40.5093
25.28 1658 40.7185
25.3965 1616 40.1995
25.513 1742 41.7373
25.6296 1778 42.1663
25.7462 1892 43.4971
25.8628 1946 44.1135
25.9795 1874 43.2897
26.0962 1808 42.5206
26.213 1976 44.4522
26.3298 1822 42.6849
26.4466 1804 42.4735
26.5635 1738 41.6893
26.6804 1748 41.8091
26.7973 1709 41.3401
26.9143 1646 40.5709
27.0313 1714 41.4005
27.1483 1845 42.9535
27.2653 1888 43.4511
27.3824 1843 42.9302
27.4996 1790 42.3084
27.6167 1840 42.8952
27.7339 1794 42.3556
27.8511 1850 43.0116
27.9683 1715 41.4126
28.0855 1697 41.1947
28.2028 1649 40.6079
28.3201 1588 39.8497
28.4374 1499 38.7169
28.5547 1553 39.4081
28.6721 1507 38.8201
28.7894 1546 39.3192
28.9068 1639 40.4846
29.0242 1691 41.1218
29.1416 1851 43.0232
29.259 1737 41.6773
29.3764 1703 41.2674
29.4939 1775 42.1307
29.6113 1712 41.3763
29.7288 1845 42.9535
29.8463 1724 41.5211
29.9638 1708 41.328
30.0812 1612 40.1497
30.1987 1552 39.3954
30.3162 1601 40.0125
30.4337 1617 40.2119
30.5512 1719 41.4608
30.6687 1743 41.7493
30.7862 1861 43.1393
30.9037 1767 42.0357
31.0212 1855 43.0697
31.1387 1844 42.9418
31.2562 1816 42.6146
31.3737 1783 42.2256
31.4912 1820 42.6615
31.6087 1740 41.7133
31.7262 1610 40.1248
31.8436 1604 40.05
31.9611 1512 38.8844
32.0785 1495 38.6652
32.1959 1452 38.1051
32.3134 1576 39.6989
32.4308 1544 39.2938
32.5482 1684 41.0366
32.6655 1700 41.2311
32.7829 1754 41.8808
32.9002 1704 41.2795
33.0176 1818 42.638
33.1349 1806 42.4971
33.2522 1744 41.7612
33.3694 1749 41.821
33.4867 1774 42.1189
33.6039 1785 42.2493
33.7211 1623 40.2865
33.8383 1572 39.6485
33.9554 1565 39.5601
34.0725 1694 41.1582
34.1896 1740 41.7133
34.3067 1709 41.3401
34.4237 1774 42.1189
34.5407 1814 42.5911
34.6577 1761 41.9643
34.7746 1829 42.7668
34.8915 1817 42.6263
35.0084 1799 42.4146
35.1252 1738 41.6893
35.242 1708 41.328
35.3587 1759 41.9404
35.4755 1642 40.5216
35.5921 1614 40.1746
35.7088 1573 39.6611
35.8254 1426 37.7624
35.9419 1512 38.8844
36.0584 1450 38.0789
36.1749 1620 40.2492
36.2913 1616 40.1995
36.4077 1626 40.3237
36.524 1762 41.9762
36.6403 1838 42.8719
36.7565 1800 42.4264
36.8727 1894 43.5201
36.9889 1766 42.0238
37.1049 1815 42.6028
37.221 0 1
37.3369 0 1
37.4529 0 1
37.5687 0 1
37.6845 0 1
37.8003 0 1
37.916 0 1
38.0316 0 1
38.1472 0 1
40.5851 0 1
40.7008 0 1
40.8164 0 1
40.9322 0 1
41.048 0 1
41.1639 0 1
41.2798 0 1
41.3958 0 1
41.5118 0 1
41.6279 0 1
41.744 1467 38.3014
41.8602 1496 38.6782
41.9765 1482 38.4968
42.0928 1566 39.5727
42.2091 1574 39.6737
42.3255 1519 38.9744
42.4419 1444 38
42.5584 1430 37.8153
42.675 1322 36.3593
42.7915 1410 37.55
42.9081 1438 37.921
43.0248 1463 38.2492
43.1415 1534 39.1663
43.2582 1565 39.5601
43.375 1542 39.2683
43.4918 1599 39.9875
43.6087 1488 38.5746
43.7256 1526 39.064
43.8425 1467 38.3014
43.9595 1434 37.8682
44.0765 1389 37.2693
44.1935 1371 37.027
44.3106 1389 37.2693
44.4277 1312 36.2215
44.5448 1186 34.4384
44.6619 1125 33.541
44.7791 1118 33.4365
44.8963 1171 34.2199
45.0136 1312 36.2215
45.1308 1349 36.7287
45.2481 1285 35.8469
45.3654 1373 37.054
45.4827 1347 36.7015
45.6001 1362 36.9053
45.7174 1357 36.8375
45.8348 1325 36.4005
45.9522 1243 35.2562
46.0697 1210 34.7851
46.1871 1082 32.8938
46.3046 1107 33.2716
46.422 1180 34.3511
46.5395 1153 33.9559
46.657 1270 35.6371
46.7745 1254 35.4119
46.892 1260 35.4965
47.0096 1285 35.8469
47.1271 1275 35.7071
47.2446 1219 34.9142
47.3622 1161 34.0735
47.4797 1183 34.3948
47.5973 1158 34.0294
47.7149 1116 33.4066
47.8324 1050 32.4037
47.95 1024 32
48.0675 962 31.0161
48.1851 854 29.2233
48.3027 987 31.4166
48.4202 909 30.1496
48.5378 994 31.5278
48.6554 1074 32.7719
48.7729 1067 32.665
48.8904 1104 33.2265
49.008 1055 32.4808
49.1255 1048 32.3728
49.243 1119 33.4515
49.3605 1126 33.5559
49.478 1051 32.4191
49.5955 1020 31.9374
49.713 1003 31.6702
49.8304 961 31
49.9479 1016 31.8748
50.0653 1187 34.4529
50.1827 1141 33.7787
50.3001 1208 34.7563
50.4175 1210 34.7851
50.5348 1218 34.8999
50.6521 1285 35.8469
50.7694 1401 37.4299
50.8867 1367 36.973
51.004 1375 37.081
51.1212 1368 36.9865
51.2384 1308 36.1663
51.3556 1374 37.0675
51.4727 1253 35.3977
51.5899 1210 34.7851
51.707 1203 34.6843
51.824 1273 35.6791
51.9411 1298 36.0278
52.0581 1257 35.4542
52.175 1458 38.1838
52.2919 1540 39.2428
52.4088 1636 40.4475
52.5257 1604 40.05
52.6425 1623 40.2865
52.7593 1669 40.8534
52.876 1713 41.3884
52.9927 1667 40.8289
53.1094 1616 40.1995
53.226 1570 39.6232
53.3426 1596 39.95
53.4591 1587 39.8372
53.5756 1628 40.3485
53.692 1784 42.2374
53.8084 1770 42.0714
53.9248 1839 42.8836
54.0411 1815 42.6028
54.1573 1936 44
54.2735 0 1
54.3896 0 1
54.5057 0 1
54.6217 0 1
54.7377 0 1
54.8537 0 1
54.9695 0 1
55.0853 0 1
55.2011 0 1
55.3168 0 1
55.4324 0 1
57.824 0 1
57.9396 0 1
58.0553 0 1
58.1711 0 1
58.2869 0 1
58.4028 0 1
58.5187 0 1
58.6347 0 1
58.7508 0 1
58.8669 0 1
58.983 2179 46.6798
59.0992 2260 47.5395
59.2155 2282 47.7703
59.3318 2357 48.5489
59.4482 2351 48.4871
59.5646 2353 48.5077
59.681 2352 48.4974
59.7975 2217 47.085
59.9141 2240 47.3286
60.0306 2124 46.0869
60.1473 1971 44.3959
60.2639 1812 42.5676
60.3807 1719 41.4608
60.4974 1733 41.6293
60.6142 1829 42.7668
60.731 1905 43.6463
60.8479 2127 46.1194
60.9648 2146 46.3249
61.0818 2148 46.3465
61.1987 2240 47.3286
61.3158 2251 47.4447
61.4328 2219 47.1063
61.5499 2174 46.6262
61.667 2106 45.8912
61.7841 2031 45.0666
61.9013 2089 45.7056
62.0185 2033 45.0888
62.1357 2094 45.7602
62.253 2181 46.7012
62.3702 2251 47.4447
62.4875 2146 46.3249
62.6049 2237 47.2969
62.7222 2321 48.1768
62.8396 2358 48.5592
62.9569 2366 48.6415
63.0743 2253 47.4658
63.1918 2333 48.3011
63.3092 2262 47.5605
63.4267 2202 46.9255
63.5441 2047 45.2438
63.6616 1920 43.8178
63.7791 1785 42.2493
63.8966 1649 40.6079
64.0142 1697 41.1947
64.1317 1771 42.0833
64.2492 1864 43.1741
64.3668 2011 44.8442
64.4843 2155 46.422
64.6019 2135 46.2061
64.7195 2110 45.9347
64.837 2193 46.8295
64.9546 2278 47.7284
65.0722 2168 46.5618
65.1898 2147 46.3357
65.3074 2133 46.1844
65.4249 1978 44.4747
65.5425 1997 44.6878
65.6601 1972 44.4072
65.7777 2051 45.288
65.8952 2067 45.4643
66.0128 2232 47.244
66.1304 2279 47.7389
66.2479 2327 48.239
66.3655 2332 48.2908
66.483 2337 48.3425
66.6005 2393 48.9183
66.718 2377 48.7545
66.8355 2382 48.8057
66.953 2355 48.5283
67.0705 2230 47.2229
67.1879 2056 45.3431
67.3054 1976 44.4522
67.4228 1745 41.7732
67.5402 1595 39.9375
67.6576 1804 42.4735
67.7749 1788 42.2847
67.8923 1929 43.9204
68.0096 2100 45.8258
68.1269 2210 47.0106
68.2442 2268 47.6235
68.3614 2354 48.518
68.4787 2301 47.9687
68.5958 2357 48.5489
68.713 2420 49.1935
68.8302 2393 48.9183
68.9473 2272 47.6655
69.0643 2251 47.4447
69.1814 2228 47.2017
69.2984 2182 46.7119
69.4154 2256 47.4974
69.5323 2371 48.6929
69.6492 2305 48.0104
69.7661 2608 51.0686
69.8829 2589 50.8822
69.9997 2683 51.7977
70.1165 2655 51.5267
70.2332 2681 51.7784
70.3499 2736 52.3068
70.4665 2670 51.672
70.5831 2674 51.7107
70.6996 2590 50.892
70.8161 2387 48.8569
70.9326 2363 48.6107
71.049 1962 44.2945
71.1653 1849 43
71.2817 1714 41.4005
71.3979 1916 43.7721
71.5141 1863 43.1625
71.6303 2033 45.0888
71.7464 2043 45.1996
71.8624 0 1
71.9784 0 1
72.0944 0 1
72.2102 0 1
72.3261 0 1
72.4418 0 1
72.5575 0 1
72.6732 0 1
75.1054 0 1
75.2209 0 1
75.3365 0 1
75.4521 0 1
75.5678 0 1
75.6835 0 1
75.7993 0 1
75.9151 0 1
76.031 0 1
76.147 2438 49.3761
76.263 2512 50.1199
76.3791 2360 48.5798
76.4952 2011 44.8442
76.6113 1988 44.587
76.7276 2066 45.4533
76.8438 2147 46.3357
76.9601 2492 49.9199
77.0765 2707 52.0288
77.1929 2877 53.6377
77.3093 3098 55.6597
77.4258 3084 55.5338
77.5423 2995 54.7266
77.6589 3025 55
77.7755 2972 54.5161
77.8921 2913 53.9722
78.0088 2795 52.8678
78.1256 2780 52.7257
78.2423 2713 52.0865
78.3591 2609 51.0784
78.4759 2706 52.0192
78.5928 2894 53.7959
78.7097 2987 54.6535
78.8266 3249 57
78.9436 3062 55.3353
79.0606 3134 55.9821
79.1776 3203 56.5951
79.2946 3095 55.6327
79.4117 3196 56.5332
79.5288 3179 56.3826
79.6459 3078 55.4797
79.7631 2993 54.7083
79.8802 2870 53.5724
79.9974 2645 51.4296
80.1147 2303 47.9896
80.2319 2165 46.5296
80.3491 2149 46.3573
80.4664 2411 49.1019
80.5837 2643 51.4101
80.701 2902 53.8702
80.8183 3140 56.0357
80.9357 3177 56.3649
81.053 3213 56.6833
81.1704 3157 56.1872
81.2877 3173 56.3294
81.4051 3160 56.2139
81.5225 3281 57.28
81.6399 3059 55.3082
81.7573 2905 53.8981
81.8747 2863 53.507
81.9922 2833 53.2259
82.1096 2903 53.8795
82.227 3025 55
82.3444 3096 55.6417
82.4619 3259 57.0877
82.5793 3153 56.1516
82.6967 3453 58.7622
82.8142 3480 58.9915
82.9316 3359 57.9569
83.049 3347 57.8533
83.1664 3407 58.3695
83.2838 3329 57.6975
83.4012 3133 55.9732
83.5186 3001 54.7814
83.636 2716 52.1153
83.7534 2426 49.2544
83.8708 2309 48.0521
83.9881 2172 46.6047
84.1055 2383 48.816
84.2228 2511 50.1099
84.3401 2920 54.037
84.4575 3280 57.2713
84.5747 3391 58.2323
84.692 3454 58.7707
84.8093 3499 59.1523
84.9265 3425 58.5235
85.0437 3378 58.1206
85.1609 3440 58.6515
85.2781 3268 57.1664
85.3952 3214 56.6922
85.5123 3103 55.7046
85.6294 3168 56.285
85.7465 3249 57
85.8636 3494 59.1101
85.9806 3555 59.6238
86.0976 3834 61.9193
86.2145 3825 61.8466
86.3315 3934 62.7216
86.4484 4233 65.0615
86.5652 4101 64.0391
86.682 4128 64.2495
86.7988 4044 63.5925
86.9156 4055 63.6789
87.0323 3869 62.2013
87.149 3661 60.5062
87.2657 3380 58.1378
87.3823 3003 54.7996
87.4988 2892 53.7773
87.6154 3078 55.4797
87.7318 3314 57.5674
87.8483 3740 61.1555
87.9647 4206 64.8537
88.081 4396 66.3023
88.1973 4532 67.3201
88.3136 4676 68.3813
88.4298 4735 68.8113
88.546 4494 67.0373
88.6621 4481 66.9403
88.7781 4438 66.6183
88.8942 0 1
89.0101 0 1
89.126 0 1
89.2419 0 1
89.3577 0 1
89.4734 0 1
89.5891 0 1
89.7047 0 1
89.8203 0 1
89.9358 0 1
92.3269 0 1
92.4424 0 1
92.558 0 1
92.6736 0 1
92.7893 0 1
92.905 0 1
93.0208 0 1
93.1366 0 1
93.2525 0 1
93.3685 0 1
93.4845 0 1
93.6005 4921 70.1498
93.7167 5058 71.1196
93.8328 5045 71.0282
93.949 5170 71.9027
94.0653 5154 71.7914
94.1816 4936 70.2567
94.2979 4908 70.0571
94.4143 4806 69.3253
94.5307 4754 68.9493
94.6472 4657 68.2422
94.7637 4635 68.0808
94.8803 4717 68.6804
94.9969 4939 70.278
95.1135 5140 71.6938
95.2302 5144 71.7217
95.3469 5351 73.1505
95.4637 5457 73.8715
95.5805 5432 73.7021
95.6973 5686 75.4056
95.8142 5642 75.1132
95.9311 5598 74.8198
96.048 5355 73.1779
96.1649 5222 72.2634
96.2819 4937 70.2638
96.3989 4765 69.029
96.516 4246 65.1613
96.633 3931 62.6977
96.7501 3800 61.6441
96.8673 4219 64.9538
96.9844 4575 67.6387
97.1016 5067 71.1829
97.2188 5383 73.3689
97.336 5832 76.3675
97.4532 5950 77.1362
97.5704 5916 76.9155
97.6877 5871 76.6225
97.805 5824 76.3151
97.9223 5617 74.9466
98.0396 5630 75.0333
98.1569 5367 73.2598
98.2743 5178 71.9583
98.3916 5170 71.9027
98.509 5320 72.9383
98.6264 5350 73.1437
98.7438 5558 74.552
98.8612 5775 75.9934
98.9786 6103 78.1217
99.096 6168 78.5366
99.2134 6243 79.0127
99.3308 6222 78.8797
99.4482 6169 78.543
99.5656 6204 78.7655
99.6831 6035 77.6853
99.8005 5879 76.6746
99.9179 5731 75.7034
100.035 5290 72.7324
100.153 4917 70.1213
100.27 4458 66.7683
100.388 4423 66.5056
100.505 4848 69.6276
100.622 5514 74.2563
100.74 5965 77.2334
100.857 6278 79.2338
100.975 6540 80.8703
101.092 6396 79.975
101.209 6504 80.6474
101.327 6602 81.2527
101.444 6439 80.2434
101.561 6407 80.0437
101.679 6175 78.5812
101.796 5867 76.5963
101.913 5794 76.1183
102.03 5911 76.883
102.148 5877 76.6616
102.265 6425 80.1561
102.382 6017 77.5693
102.499 6557 80.9753
102.616 6710 81.9146
102.733 6782 82.3529
102.851 6975 83.5165
102.968 6922 83.1986
103.085 6892 83.0181
103.202 6777 82.3225
103.319 6562 81.0062
103.436 6370 79.8123
103.552 5982 77.3434
103.669 5530 74.364
103.786 4910 70.0714
103.903 4949 70.3491
104.02 5304 72.8286
104.137 5934 77.0325
104.253 6790 82.4015
104.37 6930 83.2466
104.487 7164 84.6404
104.603 7360 85.7904
104.72 7333 85.6329
104.836 7173 84.6936
104.953 7040 83.9047
105.069 6955 83.3966
105.186 6891 83.012
105.302 6493 80.5792
105.418 6602 81.2527
105.535 6670 81.6701
105.651 6609 81.2958
105.767 6845 82.7345
105.883 7058 84.0119
105.999 7299 85.4342
106.115 0 1
106.231 0 1
106.347 0 1
106.463 0 1
106.579 0 1
106.694 0 1
106.81 0 1
106.926 0 1
107.041 0 1
107.157 0 1
109.576 0 1
109.692 0 1
109.807 0 1
109.923 0 1
110.039 0 1
110.155 0 1
110.27 0 1
110.386 0 1
110.502 0 1
110.618 6062 77.8588
110.735 6318 79.4858
110.851 6602 81.2527
110.967 6754 82.1827
111.083 6736 82.0731
111.199 6856 82.801
111.316 7030 83.8451
111.432 6859 82.8191
111.549 6829 82.6378
111.665 6759 82.2131
111.782 6508 80.6722
111.898 6067 77.8909
112.015 5613 74.92
112.132 5313 72.8903
112.248 4819 69.419
112.365 4697 68.5347
112.482 4879 69.8498
112.599 5295 72.7668
112.716 5917 76.922
112.832 6221 78.8733
112.949 6336 79.599
113.066 6390 79.9375
113.183 6100 78.1025
113.3 6180 78.613
113.417 6160 78.4857
113.534 6007 77.5048
113.652 5756 75.8683
113.769 5683 75.3857
113.886 5504 74.1889
114.003 5327 72.9863
114.12 5262 72.5396
114.238 5397 73.4643
114.355 5475 73.9932
114.472 5593 74.7864
114.589 5727 75.6769
114.707 5719 75.6241
114.824 5732 75.71
114.942 5895 76.7789
115.059 5933 77.026
115.176 5821 76.2955
115.294 5783 76.046
115.411 5509 74.2226
115.529 5181 71.9792
115.646 4934 70.2424
115.764 4474 66.888
115.881 4033 63.5059
115.999 4159 64.4903
116.116 4438 66.6183
116.234 5003 70.7319
116.351 5471 73.9662
116.469 5791 76.0986
116.586 5661 75.2396
116.704 5778 76.0132
116.821 5773 75.9803
116.939 5704 75.5248
117.056 5706 75.5381
117.174 5654 75.1931
117.291 5375 73.3144
117.409 5316 72.9109
117.526 5230 72.3187
117.644 5235 72.3533
117.761 5150 71.7635
117.879 5448 73.8106
117.996 5431 73.6953
118.114 5391 73.4234
118.231 5610 74.8999
118.349 5663 75.2529
118.466 5615 74.9333
118.584 5663 75.2529
118.701 5881 76.6877
118.819 5829 76.3479
118.936 5499 74.1552
119.053 5368 73.2666
119.171 5060 71.1337
119.288 4874 69.814
119.405 4380 66.1816
119.523 4000 63.2456
119.64 4030 63.4823
119.757 4339 65.8711
119.875 4739 68.8404
119.992 5334 73.0342
120.109 5225 72.2842
120.226 5453 73.8444
120.343 5418 73.6071
120.46 5523 74.3169
120.578 5471 73.9662
120.695 5449 73.8173
120.812 5427 73.6682
120.929 5161 71.8401
121.046 5100 71.4143
121.163 5058 71.1196
121.279 4839 69.5629
121.396 4909 70.0643
121.513 5041 71
121.63 5042 71.007
121.747 5010 70.7814
121.863 5167 71.8818
121.98 5192 72.0555
122.097 5281 72.6705
122.213 5507 74.2092
122.33 5281 72.6705
122.446 5403 73.5051
122.563 5378 73.3348
122.679 5192 72.0555
122.795 5044 71.0211
122.912 4836 69.5414
123.028 4431 66.5658
123.144 4104 64.0625
123.26 3720 60.9918
123.377 0 1
123.493 0 1
123.609 0 1
123.725 0 1
123.84 0 1
123.956 0 1
124.072 0 1
124.188 0 1
124.303 0 1
124.419 0 1
126.852 0 1
126.968 0 1
127.083 0 1
127.199 0 1
127.315 0 1
127.431 0 1
127.547 0 1
127.663 0 1
127.779 0 1
127.895 0 1
128.011 0 1
128.127 0 1
128.243 0 1
128.359 4637 68.0955
128.476 4081 63.8827
128.592 4152 64.436
128.708 4465 66.8207
128.825 4911 70.0785
128.941 5422 73.6342
129.058 5574 74.6592
129.174 5585 74.7329
129.291 5751 75.8353
129.408 5756 75.8683
129.524 5628 75.02
129.641 5697 75.4785
129.758 5567 74.6123
129.875 5367 73.2598
129.992 5230 72.3187
130.108 5257 72.5052
130.225 5058 71.1196
130.342 5251 72.4638
130.459 5106 71.4563
130.576 5419 73.6139
130.693 5468 73.9459
130.81 5422 73.6342
130.928 5472 73.973
131.045 5416 73.5935
131.162 5311 72.8766
131.279 5573 74.6525
131.396 5392 73.4302
131.513 5390 73.4166
131.631 5097 71.3933
131.748 5023 70.8731
131.865 4581 67.6831
131.983 4124 64.2184
132.1 4000 63.2456
132.217 4147 64.3972
132.335 4714 68.6586
132.452 4908 70.0571
132.57 5225 72.2842
132.687 5146 71.7356
132.804 5660 75.233
132.922 5285 72.698
133.039 5226 72.2911
133.157 5335 73.0411
133.274 5195 72.0763
133.392 5224 72.2772
133.509 5049 71.0563
133.627 4939 70.278
133.744 4840 69.5701
133.862 4936 70.2567
133.979 4995 70.6753
134.097 5034 70.9507
134.214 5173 71.9236
134.332 5004 70.739
134.449 5148 71.7496
134.567 5069 71.1969
134.684 5290 72.7324
134.802 5297 72.7805
134.919 5323 72.9589
135.037 5109 71.4773
135.154 5103 71.4353
135.272 4806 69.3253
135.389 4626 68.0147
135.507 4348 65.9394
135.624 3854 62.0806
135.742 3915 62.57
135.859 4149 64.4127
135.977 4621 67.9779
136.094 4939 70.278
136.211 5226 72.2911
136.329 5206 72.1526
136.446 5153 71.7844
136.564 5298 72.7874
136.681 5235 72.3533
136.798 5179 71.9653
136.915 4974 70.5266
137.033 5038 70.9789
137.15 4767 69.0435
137.267 4839 69.5629
137.384 4728 68.7605
137.502 4745 68.884
137.619 4750 68.9202
137.736 4922 70.157
137.853 4846 69.6132
137.97 4678 68.3959
138.087 5115 71.5192
138.204 4940 70.2851
138.321 5070 71.2039
138.438 5076 71.2461
138.555 5115 71.5192
138.672 5059 71.1266
138.788 5009 70.7743
138.905 4894 69.9571
139.022 4699 68.5493
139.139 4352 65.9697
139.255 3923 62.6339
139.372 3854 62.0806
139.488 4058 63.7024
139.605 4466 66.8281
139.721 4794 69.2387
139.838 4975 70.5337
139.954 5081 71.2811
140.071 4988 70.6258
140.187 5156 71.8053
140.303 5032 70.9366
140.419 4878 69.8427
140.535 4831 69.5054
140.652 4872 69.7997
140.768 0 1
140.884 0 1
141 0 1
141.115 0 1
141.231 0 1
141.347 0 1
141.463 0 1
141.578 0 1
141.694 0 1
144.104 0 1
144.219 0 1
144.335 0 1
144.45 0 1
144.566 0 1
144.682 0 1
144.798 0 1
144.914 0 1
145.03 0 1
145.146 4229 65.0308
145.262 4290 65.4981
145.378 4305 65.6125
145.494 4360 66.0303
145.61 4233 65.0615
145.726 4091 63.9609
145.842 4114 64.1405
145.959 3960 62.9285
146.075 4003 63.2693
146.192 4070 63.7966
146.308 4121 64.195
146.425 3969 63
146.541 4105 64.0703
146.658 4028 63.4665
146.774 4118 64.1716
146.891 4078 63.8592
147.008 4143 64.3661
147.125 4141 64.3506
147.241 4203 64.8305
147.358 4212 64.8999
147.475 4040 63.561
147.592 3905 62.49
147.709 3476 58.9576
147.826 3238 56.9034
147.943 3275 57.2276
148.06 3229 56.8243
148.177 3558 59.649
148.294 3823 61.8304
148.411 4042 63.5767
148.528 4047 63.616
148.645 4155 64.4593
148.762 4156 64.467
148.88 4060 63.7181
148.997 3822 61.8223
149.114 4140 64.3428
149.231 3991 63.1744
149.349 3920 62.6099
149.466 3747 61.2127
149.583 3671 60.5888
149.701 3602 60.0167
149.818 3742 61.1719
149.935 3819 61.7981
150.053 3723 61.0164
150.17 3667 60.5558
150.287 3668 60.564
150.405 3934 62.7216
150.522 3836 61.9355
150.64 3786 61.5305
150.757 3932 62.7057
150.875 3900 62.45
150.992 3805 61.6847
151.11 3703 60.8523
151.227 3620 60.1664
151.344 3301 57.4543
151.462 3240 56.921
151.579 3056 55.2811
151.697 3167 56.2761
151.814 3439 58.643
151.932 3745 61.1964
152.049 3824 61.8385
152.167 3931 62.6977
152.284 3837 61.9435
152.402 4022 63.4192
152.519 3868 62.1932
152.636 3901 62.458
152.754 3855 62.0886
152.871 3855 62.0886
152.989 3753 61.2617
153.106 3754 61.2699
153.223 3609 60.075
153.341 3597 59.975
153.458 3720 60.9918
153.575 3644 60.3656
153.693 3776 61.4492
153.81 3747 61.2127
153.927 3691 60.7536
154.044 3718 60.9754
154.162 3842 61.9839
154.279 3807 61.7009
154.396 3977 63.0635
154.513 3982 63.1031
154.63 3939 62.7615
154.747 3856 62.0967
154.864 3636 60.2993
154.981 3476 58.9576
155.098 3326 57.6715
155.215 3236 56.8859
155.332 3444 58.6856
155.449 3585 59.8749
155.566 3829 61.8789
155.683 3865 62.1691
155.8 3959 62.9206
155.917 3939 62.7615
156.033 3916 62.578
156.15 0 1
156.267 0 1
156.383 0 1
156.5 0 1
156.617 0 1
156.733 0 1
156.85 0 1
156.966 0 1
157.082 0 1
157.199 0 1
157.315 0 1
157.431 0 1
157.547 0 1
157.664 0 1
157.78 0 1
157.896 0 1
158.012 0 1
158.128 0 1
158.244 0 1
158.359 0 1
158.475 0 1
158.591 0 1
158.706 0 1
