
6.15755 0 1
6.2731 0 1
6.3887 0 1
6.50437 0 1
6.62009 0 1
6.73587 0 1
6.8517 0 1
6.96759 0 1
7.08353 0 1
7.19952 0 1
7.31557 0 1
7.43166 0 1
7.54781 0 1
7.664 0 1
7.78024 0 1
7.89653 0 1
8.01286 0 1
8.12924 0 1
8.24567 0 1
8.36213 0 1
8.47864 0 1
8.59519 0 1
8.71178 0 1
8.82841 0 1
8.94508 0 1
9.06179 0 1
9.17853 0 1
9.29531 0 1
9.41212 0 1
9.52897 0 1
9.64584 0 1
9.76276 0 1
9.8797 0 1
9.99667 0 1
10.1137 0 1
10.2307 0 1
10.3478 0 1
10.4648 0 1
10.5819 0 1
10.6991 0 1
10.8162 0 1
10.9334 0 1
11.0506 0 1
11.1678 0 1
11.285 0 1
11.4023 0 1
11.5196 0 1
11.6369 0 1
11.7542 0 1
11.8715 0 1
11.9888 0 1
12.1062 0 1
12.2235 0 1
12.3409 0 1
12.4582 0 1
12.5756 0 1
12.693 0 1
12.8104 0 1
12.9278 0 1
13.0452 0 1
13.1626 0 1
13.28 0 1
13.3974 0 1
13.5149 0 1
13.6323 0 1
13.7497 0 1
13.8671 0 1
13.9845 0 1
14.1019 0 1
14.2193 0 1
14.3367 0 1
14.4541 0 1
14.5714 0 1
14.6888 0 1
14.8062 0 1
14.9235 0 1
15.0408 831 28.8271
15.1581 769 27.7308
15.2755 894 29.8998
15.3927 804 28.3549
15.51 874 29.5635
15.6273 831 28.8271
15.7445 788 28.0713
15.8617 820 28.6356
15.9789 764 27.6405
16.0961 753 27.4408
16.2132 744 27.2764
16.3304 759 27.55
16.4475 808 28.4253
16.5646 771 27.7669
16.6816 750 27.3861
16.7986 690 26.2679
16.9156 712 26.6833
17.0326 704 26.533
17.1496 683 26.1343
17.2665 653 25.5539
17.3833 691 26.2869
17.5002 664 25.7682
17.617 705 26.5518
17.7338 628 25.0599
17.8505 755 27.4773
17.9672 705 26.5518
18.0839 695 26.3629
18.2005 680 26.0768
18.3171 630 25.0998
18.4337 706 26.5707
18.5502 714 26.7208
18.6666 725 26.9258
18.7831 722 26.8701
18.8994 686 26.1916
19.0158 664 25.7682
19.1321 636 25.219
19.2483 621 24.9199
19.3645 571 23.8956
19.4806 510 22.5832
19.5967 516 22.7156
19.7128 496 22.2711
19.8288 545 23.3452
19.9447 464 21.5407
20.0606 0 1
20.1764 0 1
20.2922 0 1
20.4079 0 1
20.5236 0 1
20.6392 0 1
20.7548 0 1
20.8702 0 1
23.3078 0 1
23.4233 0 1
23.539 0 1
23.6547 0 1
23.7704 0 1
23.8862 0 1
24.0021 0 1
24.118 0 1
24.234 0 1
24.35 0 1
24.4661 307 17.5214
24.5822 356 18.868
24.6984 418 20.445
24.8146 456 21.3542
24.9309 528 22.9783
25.0472 618 24.8596
25.1636 636 25.219
25.28 725 26.9258
25.3965 659 25.671
25.513 715 26.7395
25.6296 800 28.2843
25.7462 823 28.688
25.8628 769 27.7308
25.9795 743 27.258
26.0962 777 27.8747
26.213 716 26.7582
26.3298 709 26.6271
26.4466 699 26.4386
26.5635 674 25.9615
26.6804 645 25.3969
26.7973 588 24.2487
26.9143 631 25.1197
27.0313 588 24.2487
27.1483 641 25.318
27.2653 666 25.807
27.3824 630 25.0998
27.4996 707 26.5895
27.6167 653 25.5539
27.7339 662 25.7294
27.8511 593 24.3516
27.9683 616 24.8193
28.0855 624 24.98
28.2028 611 24.7184
28.3201 671 25.9037
28.4374 677 26.0192
28.5547 724 26.9072
28.6721 701 26.4764
28.7894 728 26.9815
28.9068 733 27.074
29.0242 680 26.0768
29.1416 673 25.9422
29.259 677 26.0192
29.3764 636 25.219
29.4939 700 26.4575
29.6113 633 25.1595
29.7288 619 24.8797
29.8463 574 23.9583
29.9638 630 25.0998
30.0812 615 24.7992
30.1987 544 23.3238
30.3162 558 23.622
30.4337 578 24.0416
30.5512 643 25.3574
30.6687 629 25.0799
30.7862 653 25.5539
30.9037 732 27.0555
31.0212 660 25.6905
31.1387 709 26.6271
31.2562 683 26.1343
31.3737 638 25.2587
31.4912 598 24.454
31.6087 677 26.0192
31.7262 659 25.671
31.8436 646 25.4165
31.9611 693 26.3249
32.0785 684 26.1534
32.1959 602 24.5357
32.3134 658 25.6515
32.4308 612 24.7386
32.5482 596 24.4131
32.6655 593 24.3516
32.7829 569 23.8537
32.9002 602 24.5357
33.0176 532 23.0651
33.1349 597 24.4336
33.2522 610 24.6982
33.3694 524 22.891
33.4867 550 23.4521
33.6039 563 23.7276
33.7211 591 24.3105
33.8383 553 23.516
33.9554 563 23.7276
34.0725 552 23.4947
34.1896 600 24.4949
34.3067 615 24.7992
34.4237 616 24.8193
34.5407 630 25.0998
34.6577 666 25.807
34.7746 664 25.7682
34.8915 579 24.0624
35.0084 523 22.8692
35.1252 517 22.7376
35.242 541 23.2594
35.3587 542 23.2809
35.4755 575 23.9792
35.5921 602 24.5357
35.7088 567 23.8118
35.8254 547 23.388
35.9419 552 23.4947
36.0584 583 24.1454
36.1749 526 22.9347
36.2913 540 23.2379
36.4077 501 22.383
36.524 513 22.6495
36.6403 462 21.4942
36.7565 437 20.9045
36.8727 447 21.1424
36.9889 422 20.5426
37.1049 341 18.4662
37.221 0 1
37.3369 0 1
37.4529 0 1
37.5687 0 1
37.6845 0 1
37.8003 0 1
37.916 0 1
38.0316 0 1
38.1472 0 1
40.5851 0 1
40.7008 0 1
40.8164 0 1
40.9322 0 1
41.048 0 1
41.1639 0 1
41.2798 0 1
41.3958 0 1
41.5118 0 1
41.6279 0 1
41.744 247 15.7162
41.8602 303 17.4069
41.9765 347 18.6279
42.0928 330 18.1659
42.2091 358 18.9209
42.3255 445 21.095
42.4419 411 20.2731
42.5584 452 21.2603
42.675 455 21.3307
42.7915 440 20.9762
42.9081 429 20.7123
43.0248 439 20.9523
43.1415 430 20.7364
43.2582 485 22.0227
43.375 427 20.664
43.4918 471 21.7025
43.6087 443 21.0476
43.7256 438 20.9284
43.8425 453 21.2838
43.9595 375 19.3649
44.0765 394 19.8494
44.1935 429 20.7123
44.3106 454 21.3073
44.4277 437 20.9045
44.5448 467 21.6102
44.6619 419 20.4695
44.7791 439 20.9523
44.8963 465 21.5639
45.0136 473 21.7486
45.1308 475 21.7945
45.2481 467 21.6102
45.3654 452 21.2603
45.4827 488 22.0907
45.6001 446 21.1187
45.7174 481 21.9317
45.8348 438 20.9284
45.9522 451 21.2368
46.0697 404 20.0998
46.1871 431 20.7605
46.3046 415 20.3715
46.422 398 19.9499
46.5395 434 20.8327
46.657 438 20.9284
46.7745 450 21.2132
46.892 461 21.4709
47.0096 466 21.587
47.1271 436 20.8806
47.2446 446 21.1187
47.3622 448 21.166
47.4797 356 18.868
47.5973 368 19.1833
47.7149 421 20.5183
47.8324 452 21.2603
47.95 437 20.9045
48.0675 422 20.5426
48.1851 460 21.4476
48.3027 462 21.4942
48.4202 423 20.567
48.5378 485 22.0227
48.6554 467 21.6102
48.7729 464 21.5407
48.8904 505 22.4722
49.008 440 20.9762
49.1255 459 21.4243
49.243 419 20.4695
49.3605 395 19.8746
49.478 453 21.2838
49.5955 398 19.9499
49.713 416 20.3961
49.8304 406 20.1494
49.9479 411 20.2731
50.0653 363 19.0526
50.1827 382 19.5448
50.3001 448 21.166
50.4175 400 20
50.5348 462 21.4942
50.6521 449 21.1896
50.7694 432 20.7846
50.8867 409 20.2237
51.004 373 19.3132
51.1212 398 19.9499
51.2384 415 20.3715
51.3556 446 21.1187
51.4727 441 21
51.5899 445 21.095
51.707 430 20.7364
51.824 446 21.1187
51.9411 479 21.8861
52.0581 428 20.6882
52.175 448 21.166
52.2919 468 21.6333
52.4088 443 21.0476
52.5257 492 22.1811
52.6425 437 20.9045
52.7593 446 21.1187
52.876 458 21.4009
52.9927 397 19.9249
53.1094 415 20.3715
53.226 409 20.2237
53.3426 399 19.975
53.4591 359 18.9473
53.5756 381 19.5192
53.692 348 18.6548
53.8084 358 18.9209
53.9248 326 18.0555
54.0411 271 16.4621
54.1573 286 16.9115
54.2735 0 1
54.3896 0 1
54.5057 0 1
54.6217 0 1
54.7377 0 1
54.8537 0 1
54.9695 0 1
55.0853 0 1
55.2011 0 1
55.3168 0 1
55.4324 0 1
57.824 0 1
57.9396 0 1
58.0553 0 1
58.1711 0 1
58.2869 0 1
58.4028 0 1
58.5187 0 1
58.6347 0 1
58.7508 0 1
58.8669 0 1
58.983 516 22.7156
59.0992 660 25.6905
59.2155 767 27.6948
59.3318 861 29.3428
59.4482 903 30.05
59.5646 1022 31.9687
59.681 1013 31.8277
59.7975 988 31.4325
59.9141 996 31.5595
60.0306 1101 33.1813
60.1473 1081 32.8786
60.2639 1166 34.1467
60.3807 1119 33.4515
60.4974 1191 34.5109
60.6142 1103 33.2114
60.731 1166 34.1467
60.8479 1114 33.3766
60.9648 1112 33.3467
61.0818 1147 33.8674
61.1987 1059 32.5423
61.3158 1030 32.0936
61.4328 943 30.7083
61.5499 915 30.249
61.667 880 29.6648
61.7841 766 27.6767
61.9013 767 27.6948
62.0185 702 26.4953
62.1357 704 26.533
62.253 694 26.3439
62.3702 736 27.1293
62.4875 767 27.6948
62.6049 695 26.3629
62.7222 691 26.2869
62.8396 661 25.7099
62.9569 680 26.0768
63.0743 681 26.096
63.1918 629 25.0799
63.3092 589 24.2693
63.4267 567 23.8118
63.5441 555 23.5584
63.6616 574 23.9583
63.7791 605 24.5967
63.8966 571 23.8956
64.0142 560 23.6643
64.1317 485 22.0227
64.2492 540 23.2379
64.3668 534 23.1084
64.4843 527 22.9565
64.6019 562 23.7065
64.7195 525 22.9129
64.837 553 23.516
64.9546 425 20.6155
65.0722 521 22.8254
65.1898 491 22.1585
65.3074 495 22.2486
65.4249 461 21.4709
65.5425 486 22.0454
65.6601 471 21.7025
65.7777 478 21.8632
65.8952 450 21.2132
66.0128 480 21.9089
66.1304 450 21.2132
66.2479 483 21.9773
66.3655 459 21.4243
66.483 494 22.2261
66.6005 506 22.4944
66.718 491 22.1585
66.8355 465 21.5639
66.953 526 22.9347
67.0705 467 21.6102
67.1879 460 21.4476
67.3054 483 21.9773
67.4228 510 22.5832
67.5402 488 22.0907
67.6576 535 23.1301
67.7749 525 22.9129
67.8923 495 22.2486
68.0096 503 22.4277
68.1269 470 21.6795
68.2442 485 22.0227
68.3614 437 20.9045
68.4787 540 23.2379
68.5958 474 21.7715
68.713 455 21.3307
68.8302 467 21.6102
68.9473 512 22.6274
69.0643 477 21.8403
69.1814 454 21.3073
69.2984 474 21.7715
69.4154 477 21.8403
69.5323 416 20.3961
69.6492 438 20.9284
69.7661 437 20.9045
69.8829 465 21.5639
69.9997 464 21.5407
70.1165 450 21.2132
70.2332 483 21.9773
70.3499 481 21.9317
70.4665 437 20.9045
70.5831 400 20
70.6996 364 19.0788
70.8161 349 18.6815
70.9326 322 17.9444
71.049 312 17.6635
71.1653 271 16.4621
71.2817 263 16.2173
71.3979 248 15.748
71.5141 222 14.8997
71.6303 195 13.9642
71.7464 158 12.5698
71.8624 0 1
71.9784 0 1
72.0944 0 1
72.2102 0 1
72.3261 0 1
72.4418 0 1
72.5575 0 1
72.6732 0 1
75.1054 0 1
75.2209 0 1
75.3365 0 1
75.4521 0 1
75.5678 0 1
75.6835 0 1
75.7993 0 1
75.9151 0 1
76.031 0 1
76.147 307 17.5214
76.263 338 18.3848
76.3791 360 18.9737
76.4952 365 19.105
76.6113 357 18.8944
76.7276 437 20.9045
76.8438 436 20.8806
76.9601 413 20.3224
77.0765 398 19.9499
77.1929 382 19.5448
77.3093 375 19.3649
77.4258 406 20.1494
77.5423 405 20.1246
77.6589 387 19.6723
77.7755 402 20.0499
77.8921 412 20.2978
78.0088 431 20.7605
78.1256 437 20.9045
78.2423 367 19.1572
78.3591 353 18.7883
78.4759 362 19.0263
78.5928 379 19.4679
78.7097 322 17.9444
78.8266 365 19.105
78.9436 408 20.199
79.0606 389 19.7231
79.1776 426 20.6398
79.2946 426 20.6398
79.4117 414 20.347
79.5288 449 21.1896
79.6459 383 19.5704
79.7631 397 19.9249
79.8802 397 19.9249
79.9974 394 19.8494
80.1147 410 20.2485
80.2319 428 20.6882
80.3491 458 21.4009
80.4664 411 20.2731
80.5837 465 21.5639
80.701 451 21.2368
80.8183 422 20.5426
80.9357 420 20.4939
81.053 416 20.3961
81.1704 412 20.2978
81.2877 461 21.4709
81.4051 453 21.2838
81.5225 449 21.1896
81.6399 447 21.1424
81.7573 428 20.6882
81.8747 407 20.1742
81.9922 386 19.6469
82.1096 383 19.5704
82.227 349 18.6815
82.3444 394 19.8494
82.4619 388 19.6977
82.5793 400 20
82.6967 415 20.3715
82.8142 401 20.025
82.9316 411 20.2731
83.049 463 21.5174
83.1664 433 20.8087
83.2838 478 21.8632
83.4012 447 21.1424
83.5186 436 20.8806
83.636 383 19.5704
83.7534 434 20.8327
83.8708 436 20.8806
83.9881 450 21.2132
84.1055 416 20.3961
84.2228 444 21.0713
84.3401 465 21.5639
84.4575 421 20.5183
84.5747 426 20.6398
84.692 454 21.3073
84.8093 472 21.7256
84.9265 486 22.0454
85.0437 431 20.7605
85.1609 441 21
85.2781 423 20.567
85.3952 446 21.1187
85.5123 435 20.8567
85.6294 404 20.0998
85.7465 421 20.5183
85.8636 395 19.8746
85.9806 428 20.6882
86.0976 383 19.5704
86.2145 453 21.2838
86.3315 431 20.7605
86.4484 417 20.4206
86.5652 417 20.4206
86.682 453 21.2838
86.7988 457 21.3776
86.9156 421 20.5183
87.0323 428 20.6882
87.149 445 21.095
87.2657 451 21.2368
87.3823 423 20.567
87.4988 464 21.5407
87.6154 429 20.7123
87.7318 450 21.2132
87.8483 383 19.5704
87.9647 363 19.0526
88.081 359 18.9473
88.1973 309 17.5784
88.3136 294 17.1464
88.4298 273 16.5227
88.546 254 15.9374
88.6621 250 15.8114
88.7781 246 15.6844
88.8942 0 1
89.0101 0 1
89.126 0 1
89.2419 0 1
89.3577 0 1
89.4734 0 1
89.5891 0 1
89.7047 0 1
89.8203 0 1
89.9358 0 1
92.3269 0 1
92.4424 0 1
92.558 0 1
92.6736 0 1
92.7893 0 1
92.905 0 1
93.0208 0 1
93.1366 0 1
93.2525 0 1
93.3685 0 1
93.4845 0 1
93.6005 367 19.1572
93.7167 353 18.7883
93.8328 430 20.7364
93.949 430 20.7364
94.0653 436 20.8806
94.1816 403 20.0749
94.2979 462 21.4942
94.4143 440 20.9762
94.5307 425 20.6155
94.6472 422 20.5426
94.7637 413 20.3224
94.8803 422 20.5426
94.9969 392 19.799
95.1135 422 20.5426
95.2302 414 20.347
95.3469 437 20.9045
95.4637 436 20.8806
95.5805 478 21.8632
95.6973 478 21.8632
95.8142 448 21.166
95.9311 458 21.4009
96.048 458 21.4009
96.1649 488 22.0907
96.2819 453 21.2838
96.3989 452 21.2603
96.516 512 22.6274
96.633 452 21.2603
96.7501 478 21.8632
96.8673 488 22.0907
96.9844 498 22.3159
97.1016 489 22.1133
97.2188 417 20.4206
97.336 450 21.2132
97.4532 479 21.8861
97.5704 433 20.8087
97.6877 509 22.561
97.805 490 22.1359
97.9223 488 22.0907
98.0396 497 22.2935
98.1569 505 22.4722
98.2743 478 21.8632
98.3916 458 21.4009
98.509 460 21.4476
98.6264 444 21.0713
98.7438 453 21.2838
98.8612 471 21.7025
98.9786 451 21.2368
99.096 467 21.6102
99.2134 482 21.9545
99.3308 500 22.3607
99.4482 517 22.7376
99.5656 527 22.9565
99.6831 503 22.4277
99.8005 503 22.4277
99.9179 499 22.3383
100.035 440 20.9762
100.153 489 22.1133
100.27 493 22.2036
100.388 518 22.7596
100.505 526 22.9347
100.622 502 22.4054
100.74 500 22.3607
100.857 452 21.2603
100.975 479 21.8861
101.092 475 21.7945
101.209 468 21.6333
101.327 497 22.2935
101.444 541 23.2594
101.561 516 22.7156
101.679 462 21.4942
101.796 483 21.9773
101.913 538 23.1948
102.03 451 21.2368
102.148 486 22.0454
102.265 501 22.383
102.382 463 21.5174
102.499 538 23.1948
102.616 507 22.5167
102.733 530 23.0217
102.851 495 22.2486
102.968 540 23.2379
103.085 521 22.8254
103.202 534 23.1084
103.319 534 23.1084
103.436 494 22.2261
103.552 490 22.1359
103.669 516 22.7156
103.786 490 22.1359
103.903 507 22.5167
104.02 528 22.9783
104.137 530 23.0217
104.253 503 22.4277
104.37 522 22.8473
104.487 512 22.6274
104.603 545 23.3452
104.72 499 22.3383
104.836 513 22.6495
104.953 472 21.7256
105.069 459 21.4243
105.186 434 20.8327
105.302 358 18.9209
105.418 372 19.2873
105.535 365 19.105
105.651 322 17.9444
105.767 333 18.2483
105.883 314 17.72
105.999 267 16.3401
106.115 0 1
106.231 0 1
106.347 0 1
106.463 0 1
106.579 0 1
106.694 0 1
106.81 0 1
106.926 0 1
107.041 0 1
107.157 0 1
109.576 0 1
109.692 0 1
109.807 0 1
109.923 0 1
110.039 0 1
110.155 0 1
110.27 0 1
110.386 0 1
110.502 0 1
110.618 287 16.9411
110.735 331 18.1934
110.851 353 18.7883
110.967 404 20.0998
111.083 435 20.8567
111.199 402 20.0499
111.316 504 22.4499
111.432 473 21.7486
111.549 490 22.1359
111.665 479 21.8861
111.782 543 23.3024
111.898 521 22.8254
112.015 492 22.1811
112.132 517 22.7376
112.248 464 21.5407
112.365 510 22.5832
112.482 513 22.6495
112.599 492 22.1811
112.716 505 22.4722
112.832 485 22.0227
112.949 481 21.9317
113.066 465 21.5639
113.183 427 20.664
113.3 433 20.8087
113.417 445 21.095
113.534 448 21.166
113.652 459 21.4243
113.769 470 21.6795
113.886 423 20.567
114.003 409 20.2237
114.12 451 21.2368
114.238 434 20.8327
114.355 422 20.5426
114.472 419 20.4695
114.589 412 20.2978
114.707 432 20.7846
114.824 438 20.9284
114.942 455 21.3307
115.059 422 20.5426
115.176 470 21.6795
115.294 464 21.5407
115.411 443 21.0476
115.529 468 21.6333
115.646 444 21.0713
115.764 435 20.8567
115.881 461 21.4709
115.999 408 20.199
116.116 438 20.9284
116.234 440 20.9762
116.351 473 21.7486
116.469 427 20.664
116.586 413 20.3224
116.704 440 20.9762
116.821 443 21.0476
116.939 455 21.3307
117.056 370 19.2354
117.174 391 19.7737
117.291 436 20.8806
117.409 415 20.3715
117.526 449 21.1896
117.644 421 20.5183
117.761 391 19.7737
117.879 432 20.7846
117.996 399 19.975
118.114 394 19.8494
118.231 371 19.2614
118.349 408 20.199
118.466 415 20.3715
118.584 435 20.8567
118.701 441 21
118.819 440 20.9762
118.936 415 20.3715
119.053 414 20.347
119.171 423 20.567
119.288 406 20.1494
119.405 424 20.5913
119.523 384 19.5959
119.64 408 20.199
119.757 363 19.0526
119.875 447 21.1424
119.992 408 20.199
120.109 413 20.3224
120.226 425 20.6155
120.343 427 20.664
120.46 401 20.025
120.578 350 18.7083
120.695 368 19.1833
120.812 348 18.6548
120.929 396 19.8997
121.046 360 18.9737
121.163 392 19.799
121.279 379 19.4679
121.396 372 19.2873
121.513 418 20.445
121.63 341 18.4662
121.747 373 19.3132
121.863 338 18.3848
121.98 327 18.0831
122.097 393 19.8242
122.213 339 18.412
122.33 329 18.1384
122.446 316 17.7764
122.563 303 17.4069
122.679 277 16.6433
122.795 240 15.4919
122.912 220 14.8324
123.028 231 15.1987
123.144 212 14.5602
123.26 237 15.3948
123.377 0 1
123.493 0 1
123.609 0 1
123.725 0 1
123.84 0 1
123.956 0 1
124.072 0 1
124.188 0 1
124.303 0 1
124.419 0 1
126.852 0 1
126.968 0 1
127.083 0 1
127.199 0 1
127.315 0 1
127.431 0 1
127.547 0 1
127.663 0 1
127.779 0 1
127.895 0 1
128.011 0 1
128.127 0 1
128.243 0 1
128.359 469 21.6564
128.476 401 20.025
128.592 442 21.0238
128.708 473 21.7486
128.825 449 21.1896
128.941 466 21.587
129.058 464 21.5407
129.174 471 21.7025
129.291 475 21.7945
129.408 481 21.9317
129.524 468 21.6333
129.641 493 22.2036
129.758 438 20.9284
129.875 465 21.5639
129.992 428 20.6882
130.108 451 21.2368
130.225 431 20.7605
130.342 469 21.6564
130.459 517 22.7376
130.576 571 23.8956
130.693 492 22.1811
130.81 549 23.4307
130.928 569 23.8537
131.045 606 24.6171
131.162 607 24.6374
131.279 686 26.1916
131.396 784 28
131.513 805 28.3725
131.631 762 27.6043
131.748 837 28.931
131.865 865 29.4109
131.983 933 30.545
132.1 978 31.273
132.217 1052 32.4345
132.335 1077 32.8177
132.452 1099 33.1512
132.57 1229 35.0571
132.687 1273 35.6791
132.804 1221 34.9428
132.922 1354 36.7967
133.039 1505 38.7943
133.157 1566 39.5727
133.274 1643 40.5339
133.392 1702 41.2553
133.509 1790 42.3084
133.627 1946 44.1135
133.744 1951 44.1701
133.862 2156 46.4327
133.979 2416 49.1528
134.097 2606 51.049
134.214 2793 52.8488
134.332 2818 53.0848
134.449 2988 54.6626
134.567 3068 55.3895
134.684 3198 56.5509
134.802 3423 58.5064
134.919 3311 57.5413
135.037 2709 52.0481
135.154 2895 53.8052
135.272 3681 60.6712
135.389 4039 63.5531
135.507 4299 65.5668
135.624 4455 66.7458
135.742 4639 68.1102
135.859 4740 68.8477
135.977 5061 71.1407
136.094 5164 71.861
136.211 5206 72.1526
136.329 5496 74.135
136.446 5479 74.0203
136.564 5658 75.2197
136.681 5730 75.6968
136.798 5690 75.4321
136.915 6079 77.9679
137.033 6191 78.6829
137.15 6091 78.0449
137.267 6187 78.6575
137.384 6162 78.4984
137.502 6186 78.6511
137.619 6158 78.4729
137.736 6414 80.0875
137.853 6151 78.4283
137.97 6336 79.599
138.087 6151 78.4283
138.204 6170 78.5493
138.321 6245 79.0253
138.438 6279 79.2401
138.555 6222 78.8797
138.672 5140 71.6938
138.788 3825 61.8466
138.905 4238 65.0999
139.022 5677 75.3459
139.139 6172 78.5621
139.255 6405 80.0312
139.372 6132 78.3071
139.488 5939 77.0649
139.605 5406 73.5255
139.721 4339 65.8711
139.838 3776 61.4492
139.954 3485 59.0339
140.071 3283 57.2975
140.187 3039 55.1271
140.303 2874 53.6097
140.419 2776 52.6878
140.535 2488 49.8799
140.652 2413 49.1223
140.768 0 1
140.884 0 1
141 0 1
141.115 0 1
141.231 0 1
141.347 0 1
141.463 0 1
141.578 0 1
141.694 0 1
144.104 0 1
144.219 0 1
144.335 0 1
144.45 0 1
144.566 0 1
144.682 0 1
144.798 0 1
144.914 0 1
145.03 0 1
145.146 2190 46.7974
145.262 2296 47.9166
145.378 2204 46.9468
145.494 2246 47.392
145.61 2036 45.1221
145.726 1928 43.909
145.842 1818 42.638
145.959 1743 41.7493
146.075 1742 41.7373
146.192 1785 42.2493
146.308 1760 41.9524
146.425 1749 41.821
146.541 1655 40.6817
146.658 1643 40.5339
146.774 1644 40.5463
146.891 1673 40.9023
147.008 1669 40.8534
147.125 1743 41.7493
147.241 1782 42.2137
147.358 1889 43.4626
147.475 1867 43.2088
147.592 1772 42.0951
147.709 1693 41.1461
147.826 1711 41.3642
147.943 1678 40.9634
148.06 1822 42.6849
148.177 1765 42.0119
148.294 1807 42.5088
148.411 1832 42.8019
148.528 1839 42.8836
148.645 1787 42.2729
148.762 1786 42.2611
148.88 1702 41.2553
148.997 1826 42.7317
149.114 1751 41.845
149.231 1729 41.5812
149.349 1693 41.1461
149.466 1695 41.1704
149.583 1761 41.9643
149.701 1688 41.0853
149.818 1630 40.3733
149.935 1467 38.3014
150.053 1361 36.8917
150.17 1293 35.9583
150.287 1376 37.0945
150.405 1563 39.5348
150.522 1547 39.3319
150.64 1602 40.025
150.757 1604 40.05
150.875 1622 40.2741
150.992 1662 40.7676
151.11 1658 40.7185
151.227 1561 39.5095
151.344 1467 38.3014
151.462 1379 37.1349
151.579 1544 39.2938
151.697 1689 41.0974
151.814 1689 41.0974
151.932 1649 40.6079
152.049 1648 40.5956
152.167 1588 39.8497
152.284 1605 40.0625
152.402 1631 40.3856
152.519 1748 41.8091
152.636 1619 40.2368
152.754 1593 39.9124
152.871 1572 39.6485
152.989 1525 39.0512
153.106 1555 39.4335
153.223 1441 37.9605
153.341 1414 37.6032
153.458 1291 35.9305
153.575 1189 34.4819
153.693 1152 33.9411
153.81 1194 34.5543
153.927 1227 35.0286
154.044 1174 34.2637
154.162 1224 34.9857
154.279 1217 34.8855
154.396 1223 34.9714
154.513 1232 35.0999
154.63 1296 36
154.747 1307 36.1525
154.864 1154 33.9706
154.981 1041 32.2645
155.098 1023 31.9844
155.215 1153 33.9559
155.332 1096 33.1059
155.449 1102 33.1964
155.566 1114 33.3766
155.683 1108 33.2866
155.8 1061 32.573
155.917 1026 32.0312
156.033 953 30.8707
156.15 0 1
156.267 0 1
156.383 0 1
156.5 0 1
156.617 0 1
156.733 0 1
156.85 0 1
156.966 0 1
157.082 0 1
157.199 0 1
157.315 0 1
157.431 0 1
157.547 0 1
157.664 0 1
157.78 0 1
157.896 0 1
158.012 0 1
158.128 0 1
158.244 0 1
158.359 0 1
158.475 0 1
158.591 0 1
158.706 0 1
