
6.15755 0 1
6.2731 0 1
6.3887 0 1
6.50437 0 1
6.62009 0 1
6.73587 0 1
6.8517 0 1
6.96759 0 1
7.08353 0 1
7.19952 0 1
7.31557 0 1
7.43166 0 1
7.54781 0 1
7.664 0 1
7.78024 0 1
7.89653 0 1
8.01286 0 1
8.12924 0 1
8.24567 0 1
8.36213 0 1
8.47864 0 1
8.59519 0 1
8.71178 0 1
8.82841 0 1
8.94508 0 1
9.06179 0 1
9.17853 0 1
9.29531 0 1
9.41212 0 1
9.52897 0 1
9.64584 0 1
9.76276 0 1
9.8797 0 1
9.99667 0 1
10.1137 0 1
10.2307 0 1
10.3478 0 1
10.4648 0 1
10.5819 0 1
10.6991 0 1
10.8162 0 1
10.9334 0 1
11.0506 0 1
11.1678 0 1
11.285 0 1
11.4023 0 1
11.5196 0 1
11.6369 0 1
11.7542 0 1
11.8715 0 1
11.9888 0 1
12.1062 0 1
12.2235 0 1
12.3409 0 1
12.4582 0 1
12.5756 0 1
12.693 0 1
12.8104 0 1
12.9278 0 1
13.0452 0 1
13.1626 0 1
13.28 0 1
13.3974 0 1
13.5149 0 1
13.6323 0 1
13.7497 0 1
13.8671 0 1
13.9845 0 1
14.1019 0 1
14.2193 0 1
14.3367 0 1
14.4541 0 1
14.5714 0 1
14.6888 0 1
14.8062 0 1
14.9235 0 1
15.0408 1027 32.0468
15.1581 1064 32.619
15.2755 1059 32.5423
15.3927 1096 33.1059
15.51 1159 34.0441
15.6273 1110 33.3167
15.7445 1053 32.45
15.8617 1000 31.6228
15.9789 1067 32.665
16.0961 1056 32.4962
16.2132 1069 32.6956
16.3304 1081 32.8786
16.4475 1155 33.9853
16.5646 1106 33.2566
16.6816 1254 35.4119
16.7986 1301 36.0694
16.9156 1340 36.606
17.0326 1338 36.5787
17.1496 1264 35.5528
17.2665 1297 36.0139
17.3833 1285 35.8469
17.5002 1225 35
17.617 1246 35.2987
17.7338 1151 33.9264
17.8505 1168 34.176
17.9672 1129 33.6006
18.0839 1193 34.5398
18.2005 1175 34.2783
18.3171 1168 34.176
18.4337 1177 34.3074
18.5502 1226 35.0143
18.6666 1282 35.805
18.7831 1260 35.4965
18.8994 1337 36.565
19.0158 1270 35.6371
19.1321 1303 36.0971
19.2483 1208 34.7563
19.3645 1169 34.1906
19.4806 1034 32.1559
19.5967 991 31.4802
19.7128 920 30.3315
19.8288 813 28.5132
19.9447 730 27.0185
20.0606 0 1
20.1764 0 1
20.2922 0 1
20.4079 0 1
20.5236 0 1
20.6392 0 1
20.7548 0 1
20.8702 0 1
23.3078 0 1
23.4233 0 1
23.539 0 1
23.6547 0 1
23.7704 0 1
23.8862 0 1
24.0021 0 1
24.118 0 1
24.234 0 1
24.35 0 1
24.4661 513 22.6495
24.5822 651 25.5147
24.6984 678 26.0384
24.8146 802 28.3196
24.9309 818 28.6007
25.0472 927 30.4467
25.1636 1002 31.6544
25.28 1040 32.249
25.3965 1175 34.2783
25.513 1262 35.5246
25.6296 1309 36.1801
25.7462 1297 36.0139
25.8628 1383 37.1887
25.9795 1414 37.6032
26.0962 1388 37.2559
26.213 1324 36.3868
26.3298 1272 35.6651
26.4466 1268 35.609
26.5635 1193 34.5398
26.6804 1177 34.3074
26.7973 1275 35.7071
26.9143 1210 34.7851
27.0313 1258 35.4683
27.1483 1261 35.5106
27.2653 1280 35.7771
27.3824 1354 36.7967
27.4996 1322 36.3593
27.6167 1315 36.2629
27.7339 1234 35.1283
27.8511 1278 35.7491
27.9683 1257 35.4542
28.0855 1232 35.0999
28.2028 1142 33.7935
28.3201 1180 34.3511
28.4374 1053 32.45
28.5547 1114 33.3766
28.6721 1053 32.45
28.7894 1155 33.9853
28.9068 1240 35.2136
29.0242 1266 35.5809
29.1416 1353 36.7831
29.259 1399 37.4032
29.3764 1385 37.2156
29.4939 1319 36.318
29.6113 1291 35.9305
29.7288 1231 35.0856
29.8463 1174 34.2637
29.9638 1219 34.9142
30.0812 1167 34.1614
30.1987 1156 34
30.3162 1141 33.7787
30.4337 1202 34.6699
30.5512 1254 35.4119
30.6687 1191 34.5109
30.7862 1238 35.1852
30.9037 1227 35.0286
31.0212 1289 35.9026
31.1387 1271 35.6511
31.2562 1241 35.2278
31.3737 1237 35.171
31.4912 1262 35.5246
31.6087 1163 34.1028
31.7262 1186 34.4384
31.8436 1108 33.2866
31.9611 1079 32.8481
32.0785 1067 32.665
32.1959 1098 33.1361
32.3134 1153 33.9559
32.4308 1118 33.4365
32.5482 1249 35.3412
32.6655 1251 35.3695
32.7829 1309 36.1801
32.9002 1283 35.819
33.0176 1299 36.0416
33.1349 1306 36.1386
33.2522 1302 36.0832
33.3694 1177 34.3074
33.4867 1200 34.641
33.6039 1090 33.0151
33.7211 1030 32.0936
33.8383 1050 32.4037
33.9554 1089 33
34.0725 1066 32.6497
34.1896 1147 33.8674
34.3067 1144 33.8231
34.4237 1205 34.7131
34.5407 1244 35.2704
34.6577 1279 35.7631
34.7746 1259 35.4824
34.8915 1224 34.9857
35.0084 1189 34.4819
35.1252 1156 34
35.242 1125 33.541
35.3587 1116 33.4066
35.4755 1112 33.3467
35.5921 1018 31.9061
35.7088 1024 32
35.8254 1010 31.7805
35.9419 1060 32.5576
36.0584 1052 32.4345
36.1749 1136 33.7046
36.2913 1106 33.2566
36.4077 1097 33.121
36.524 1078 32.8329
36.6403 1056 32.4962
36.7565 1003 31.6702
36.8727 968 31.1127
36.9889 933 30.545
37.1049 872 29.5296
37.221 0 1
37.3369 0 1
37.4529 0 1
37.5687 0 1
37.6845 0 1
37.8003 0 1
37.916 0 1
38.0316 0 1
38.1472 0 1
40.5851 0 1
40.7008 0 1
40.8164 0 1
40.9322 0 1
41.048 0 1
41.1639 0 1
41.2798 0 1
41.3958 0 1
41.5118 0 1
41.6279 0 1
41.744 610 24.6982
41.8602 673 25.9422
41.9765 708 26.6083
42.0928 746 27.313
42.2091 746 27.313
42.3255 738 27.1662
42.4419 760 27.5681
42.5584 746 27.313
42.675 763 27.6225
42.7915 848 29.1204
42.9081 906 30.0998
43.0248 942 30.692
43.1415 969 31.1288
43.2582 983 31.3528
43.375 1004 31.686
43.4918 976 31.241
43.6087 984 31.3688
43.7256 1047 32.3574
43.8425 995 31.5436
43.9595 972 31.1769
44.0765 977 31.257
44.1935 963 31.0322
44.3106 919 30.315
44.4277 838 28.9482
44.5448 814 28.5307
44.6619 884 29.7321
44.7791 914 30.2324
44.8963 888 29.7993
45.0136 1020 31.9374
45.1308 1065 32.6343
45.2481 1109 33.3017
45.3654 1025 32.0156
45.4827 1019 31.9218
45.6001 1038 32.218
45.7174 1026 32.0312
45.8348 954 30.8869
45.9522 944 30.7246
46.0697 860 29.3258
46.1871 802 28.3196
46.3046 853 29.2062
46.422 958 30.9516
46.5395 949 30.8058
46.657 1028 32.0624
46.7745 964 31.0483
46.892 1082 32.8938
47.0096 1010 31.7805
47.1271 1052 32.4345
47.2446 1031 32.1092
47.3622 1021 31.9531
47.4797 995 31.5436
47.5973 1008 31.749
47.7149 969 31.1288
47.8324 958 30.9516
47.95 903 30.05
48.0675 883 29.7153
48.1851 866 29.4279
48.3027 902 30.0333
48.4202 968 31.1127
48.5378 995 31.5436
48.6554 990 31.4643
48.7729 1058 32.5269
48.8904 985 31.3847
49.008 1101 33.1813
49.1255 1081 32.8786
49.243 1021 31.9531
49.3605 887 29.7825
49.478 925 30.4138
49.5955 809 28.4429
49.713 789 28.0891
49.8304 825 28.7228
49.9479 966 31.0805
50.0653 985 31.3847
50.1827 991 31.4802
50.3001 1067 32.665
50.4175 1058 32.5269
50.5348 1117 33.4215
50.6521 1091 33.0303
50.7694 1168 34.176
50.8867 1149 33.8969
51.004 1149 33.8969
51.1212 1157 34.0147
51.2384 999 31.607
51.3556 1086 32.9545
51.4727 1031 32.1092
51.5899 978 31.273
51.707 951 30.8383
51.824 1028 32.0624
51.9411 1185 34.4238
52.0581 1218 34.8999
52.175 1401 37.4299
52.2919 1393 37.3229
52.4088 1336 36.5513
52.5257 1510 38.8587
52.6425 1508 38.833
52.7593 1469 38.3275
52.876 1467 38.3014
52.9927 1424 37.7359
53.1094 1326 36.4143
53.226 1233 35.1141
53.3426 1301 36.0694
53.4591 1188 34.4674
53.5756 1262 35.5246
53.692 1277 35.7351
53.8084 1310 36.1939
53.9248 1222 34.9571
54.0411 1173 34.2491
54.1573 1084 32.9242
54.2735 0 1
54.3896 0 1
54.5057 0 1
54.6217 0 1
54.7377 0 1
54.8537 0 1
54.9695 0 1
55.0853 0 1
55.2011 0 1
55.3168 0 1
55.4324 0 1
57.824 0 1
57.9396 0 1
58.0553 0 1
58.1711 0 1
58.2869 0 1
58.4028 0 1
58.5187 0 1
58.6347 0 1
58.7508 0 1
58.8669 0 1
58.983 715 26.7395
59.0992 862 29.3598
59.2155 970 31.1448
59.3318 980 31.305
59.4482 1072 32.7414
59.5646 1152 33.9411
59.681 1158 34.0294
59.7975 1162 34.0881
59.9141 1110 33.3167
60.0306 1178 34.322
60.1473 1154 33.9706
60.2639 1132 33.6452
60.3807 1089 33
60.4974 1118 33.4365
60.6142 1187 34.4529
60.731 1169 34.1906
60.8479 1258 35.4683
60.9648 1311 36.2077
61.0818 1269 35.623
61.1987 1355 36.8103
61.3158 1300 36.0555
61.4328 1313 36.2353
61.5499 1193 34.5398
61.667 1153 33.9559
61.7841 1070 32.7109
61.9013 984 31.3688
62.0185 953 30.8707
62.1357 1076 32.8024
62.253 1084 32.9242
62.3702 1168 34.176
62.4875 1199 34.6266
62.6049 1247 35.3129
62.7222 1276 35.7211
62.8396 1325 36.4005
62.9569 1287 35.8748
63.0743 1345 36.6742
63.1918 1253 35.3977
63.3092 1288 35.8887
63.4267 1259 35.4824
63.5441 1206 34.7275
63.6616 1178 34.322
63.7791 1022 31.9687
63.8966 1021 31.9531
64.0142 1098 33.1361
64.1317 1101 33.1813
64.2492 1145 33.8378
64.3668 1195 34.5688
64.4843 1365 36.9459
64.6019 1307 36.1525
64.7195 1262 35.5246
64.837 1270 35.6371
64.9546 1312 36.2215
65.0722 1202 34.6699
65.1898 1127 33.5708
65.3074 1042 32.28
65.4249 1053 32.45
65.5425 938 30.6268
65.6601 918 30.2985
65.7777 1022 31.9687
65.8952 1139 33.7491
66.0128 1085 32.9393
66.1304 1189 34.4819
66.2479 1265 35.5668
66.3655 1341 36.6197
66.483 1282 35.805
66.6005 1246 35.2987
66.718 1242 35.242
66.8355 1241 35.2278
66.953 1201 34.6554
67.0705 1198 34.6121
67.1879 1199 34.6266
67.3054 1084 32.9242
67.4228 1013 31.8277
67.5402 978 31.273
67.6576 1027 32.0468
67.7749 1004 31.686
67.8923 1097 33.121
68.0096 1176 34.2929
68.1269 1225 35
68.2442 1226 35.0143
68.3614 1281 35.7911
68.4787 1257 35.4542
68.5958 1230 35.0714
68.713 1245 35.2846
68.8302 1110 33.3167
68.9473 992 31.496
69.0643 939 30.6431
69.1814 928 30.4631
69.2984 856 29.2575
69.4154 1055 32.4808
69.5323 1062 32.5883
69.6492 1142 33.7935
69.7661 1212 34.8138
69.8829 1181 34.3657
69.9997 1161 34.0735
70.1165 1150 33.9116
70.2332 1094 33.0757
70.3499 1027 32.0468
70.4665 1035 32.1714
70.5831 992 31.496
70.6996 918 30.2985
70.8161 855 29.2404
70.9326 787 28.0535
71.049 696 26.3818
71.1653 615 24.7992
71.2817 477 21.8403
71.3979 482 21.9545
71.5141 448 21.166
71.6303 428 20.6882
71.7464 395 19.8746
71.8624 0 1
71.9784 0 1
72.0944 0 1
72.2102 0 1
72.3261 0 1
72.4418 0 1
72.5575 0 1
72.6732 0 1
75.1054 0 1
75.2209 0 1
75.3365 0 1
75.4521 0 1
75.5678 0 1
75.6835 0 1
75.7993 0 1
75.9151 0 1
76.031 0 1
76.147 787 28.0535
76.263 850 29.1548
76.3791 780 27.9285
76.4952 795 28.1957
76.6113 814 28.5307
76.7276 813 28.5132
76.8438 917 30.282
76.9601 943 30.7083
77.0765 1078 32.8329
77.1929 1124 33.5261
77.3093 1033 32.1403
77.4258 1099 33.1512
77.5423 1065 32.6343
77.6589 1105 33.2415
77.7755 980 31.305
77.8921 950 30.8221
78.0088 799 28.2666
78.1256 803 28.3373
78.2423 786 28.0357
78.3591 822 28.6705
78.4759 856 29.2575
78.5928 949 30.8058
78.7097 949 30.8058
78.8266 1017 31.8904
78.9436 1109 33.3017
79.0606 1078 32.8329
79.1776 1063 32.6037
79.2946 1185 34.4238
79.4117 1138 33.7343
79.5288 1083 32.909
79.6459 1093 33.0606
79.7631 1007 31.7333
79.8802 962 31.0161
79.9974 1051 32.4191
80.1147 868 29.4618
80.2319 808 28.4253
80.3491 916 30.2655
80.4664 936 30.5941
80.5837 964 31.0483
80.701 1117 33.4215
80.8183 1123 33.5112
80.9357 1171 34.2199
81.053 1139 33.7491
81.1704 1149 33.8969
81.2877 1149 33.8969
81.4051 1092 33.0454
81.5225 990 31.4643
81.6399 930 30.4959
81.7573 790 28.1069
81.8747 844 29.0517
81.9922 821 28.6531
82.1096 895 29.9166
82.227 955 30.9031
82.3444 1019 31.9218
82.4619 1127 33.5708
82.5793 1060 32.5576
82.6967 1096 33.1059
82.8142 1120 33.4664
82.9316 1129 33.6006
83.049 1188 34.4674
83.1664 1128 33.5857
83.2838 1086 32.9545
83.4012 1093 33.0606
83.5186 1035 32.1714
83.636 967 31.0966
83.7534 919 30.315
83.8708 938 30.6268
83.9881 872 29.5296
84.1055 887 29.7825
84.2228 990 31.4643
84.3401 1010 31.7805
84.4575 1106 33.2566
84.5747 1154 33.9706
84.692 1140 33.7639
84.8093 1196 34.5832
84.9265 1112 33.3467
85.0437 1168 34.176
85.1609 1025 32.0156
85.2781 943 30.7083
85.3952 816 28.5657
85.5123 817 28.5832
85.6294 801 28.3019
85.7465 888 29.7993
85.8636 998 31.5911
85.9806 1099 33.1512
86.0976 1119 33.4515
86.2145 1143 33.8083
86.3315 1135 33.6898
86.4484 1155 33.9853
86.5652 1170 34.2053
86.682 1163 34.1028
86.7988 1193 34.5398
86.9156 1174 34.2637
87.0323 1120 33.4664
87.149 1130 33.6155
87.2657 1013 31.8277
87.3823 923 30.3809
87.4988 779 27.9106
87.6154 764 27.6405
87.7318 811 28.4781
87.8483 850 29.1548
87.9647 836 28.9137
88.081 989 31.4484
88.1973 927 30.4467
88.3136 858 29.2916
88.4298 830 28.8097
88.546 781 27.9464
88.6621 703 26.5141
88.7781 523 22.8692
88.8942 0 1
89.0101 0 1
89.126 0 1
89.2419 0 1
89.3577 0 1
89.4734 0 1
89.5891 0 1
89.7047 0 1
89.8203 0 1
89.9358 0 1
92.3269 0 1
92.4424 0 1
92.558 0 1
92.6736 0 1
92.7893 0 1
92.905 0 1
93.0208 0 1
93.1366 0 1
93.2525 0 1
93.3685 0 1
93.4845 0 1
93.6005 842 29.0172
93.7167 892 29.8664
93.8328 932 30.5287
93.949 999 31.607
94.0653 984 31.3688
94.1816 1011 31.7962
94.2979 910 30.1662
94.4143 930 30.4959
94.5307 893 29.8831
94.6472 857 29.2746
94.7637 883 29.7153
94.8803 915 30.249
94.9969 971 31.1609
95.1135 967 31.0966
95.2302 1107 33.2716
95.3469 1105 33.2415
95.4637 1144 33.8231
95.5805 1163 34.1028
95.6973 1172 34.2345
95.8142 1164 34.1174
95.9311 1174 34.2637
96.048 1116 33.4066
96.1649 1128 33.5857
96.2819 1109 33.3017
96.3989 1039 32.2335
96.516 1009 31.7648
96.633 936 30.5941
96.7501 899 29.9833
96.8673 951 30.8383
96.9844 1036 32.187
97.1016 1025 32.0156
97.2188 1141 33.7787
97.336 1174 34.2637
97.4532 1164 34.1174
97.5704 1270 35.6371
97.6877 1239 35.1994
97.805 1185 34.4238
97.9223 1103 33.2114
98.0396 943 30.7083
98.1569 940 30.6594
98.2743 865 29.4109
98.3916 815 28.5482
98.509 908 30.133
98.6264 1014 31.8434
98.7438 1073 32.7567
98.8612 1109 33.3017
98.9786 1172 34.2345
99.096 1236 35.1568
99.2134 1253 35.3977
99.3308 1246 35.2987
99.4482 1260 35.4965
99.5656 1274 35.6931
99.6831 1211 34.7994
99.8005 1245 35.2846
99.9179 1228 35.0428
100.035 1123 33.5112
100.153 1080 32.8634
100.27 999 31.607
100.388 1030 32.0936
100.505 1019 31.9218
100.622 1154 33.9706
100.74 1171 34.2199
100.857 1236 35.1568
100.975 1208 34.7563
101.092 1225 35
101.209 1284 35.8329
101.327 1271 35.6511
101.444 1260 35.4965
101.561 1172 34.2345
101.679 965 31.0644
101.796 922 30.3645
101.913 814 28.5307
102.03 934 30.5614
102.148 1063 32.6037
102.265 1054 32.4654
102.382 1163 34.1028
102.499 1301 36.0694
102.616 1255 35.426
102.733 1291 35.9305
102.851 1350 36.7423
102.968 1305 36.1248
103.085 1283 35.819
103.202 1397 37.3765
103.319 1263 35.5387
103.436 1230 35.0714
103.552 1249 35.3412
103.669 1170 34.2053
103.786 1114 33.3766
103.903 1110 33.3167
104.02 1118 33.4365
104.137 1182 34.3802
104.253 1268 35.609
104.37 1375 37.081
104.487 1303 36.0971
104.603 1352 36.7696
104.72 1368 36.9865
104.836 1233 35.1141
104.953 1185 34.4238
105.069 1090 33.0151
105.186 952 30.8545
105.302 887 29.7825
105.418 847 29.1033
105.535 852 29.189
105.651 871 29.5127
105.767 840 28.9828
105.883 830 28.8097
105.999 786 28.0357
106.115 0 1
106.231 0 1
106.347 0 1
106.463 0 1
106.579 0 1
106.694 0 1
106.81 0 1
106.926 0 1
107.041 0 1
107.157 0 1
109.576 0 1
109.692 0 1
109.807 0 1
109.923 0 1
110.039 0 1
110.155 0 1
110.27 0 1
110.386 0 1
110.502 0 1
110.618 547 23.388
110.735 655 25.593
110.851 800 28.2843
110.967 954 30.8869
111.083 992 31.496
111.199 1100 33.1662
111.316 1133 33.6601
111.432 1212 34.8138
111.549 1150 33.9116
111.665 1237 35.171
111.782 1257 35.4542
111.898 1210 34.7851
112.015 1136 33.7046
112.132 1142 33.7935
112.248 1032 32.1248
112.365 1054 32.4654
112.482 1032 32.1248
112.599 1110 33.3167
112.716 1198 34.6121
112.832 1228 35.0428
112.949 1249 35.3412
113.066 1231 35.0856
113.183 1299 36.0416
113.3 1274 35.6931
113.417 1192 34.5254
113.534 1151 33.9264
113.652 1032 32.1248
113.769 1005 31.7017
113.886 931 30.5123
114.003 903 30.05
114.12 903 30.05
114.238 1061 32.573
114.355 1159 34.0441
114.472 1150 33.9116
114.589 1277 35.7351
114.707 1237 35.171
114.824 1309 36.1801
114.942 1302 36.0832
115.059 1305 36.1248
115.176 1270 35.6371
115.294 1291 35.9305
115.411 1277 35.7351
115.529 1253 35.3977
115.646 1275 35.7071
115.764 1184 34.4093
115.881 1140 33.7639
115.999 1018 31.9061
116.116 1043 32.2955
116.234 1064 32.619
116.351 1180 34.3511
116.469 1245 35.2846
116.586 1229 35.0571
116.704 1235 35.1426
116.821 1303 36.0971
116.939 1303 36.0971
117.056 1227 35.0286
117.174 1133 33.6601
117.291 1050 32.4037
117.409 1061 32.573
117.526 914 30.2324
117.644 930 30.4959
117.761 976 31.241
117.879 1080 32.8634
117.996 1121 33.4813
118.114 1096 33.1059
118.231 1144 33.8231
118.349 1229 35.0571
118.466 1138 33.7343
118.584 1287 35.8748
118.701 1221 34.9428
118.819 1267 35.5949
118.936 1223 34.9714
119.053 1151 33.9264
119.171 1127 33.5708
119.288 1163 34.1028
119.405 1110 33.3167
119.523 1022 31.9687
119.64 980 31.305
119.757 977 31.257
119.875 931 30.5123
119.992 1053 32.45
120.109 1143 33.8083
120.226 1138 33.7343
120.343 1176 34.2929
120.46 1121 33.4813
120.578 1161 34.0735
120.695 1197 34.5977
120.812 1013 31.8277
120.929 972 31.1769
121.046 892 29.8664
121.163 869 29.4788
121.279 830 28.8097
121.396 831 28.8271
121.513 864 29.3939
121.63 941 30.6757
121.747 936 30.5941
121.863 946 30.7571
121.98 908 30.133
122.097 925 30.4138
122.213 924 30.3974
122.33 925 30.4138
122.446 876 29.5973
122.563 774 27.8209
122.679 794 28.178
122.795 765 27.6586
122.912 688 26.2298
123.028 528 22.9783
123.144 519 22.7816
123.26 453 21.2838
123.377 0 1
123.493 0 1
123.609 0 1
123.725 0 1
123.84 0 1
123.956 0 1
124.072 0 1
124.188 0 1
124.303 0 1
124.419 0 1
126.852 0 1
126.968 0 1
127.083 0 1
127.199 0 1
127.315 0 1
127.431 0 1
127.547 0 1
127.663 0 1
127.779 0 1
127.895 0 1
128.011 0 1
128.127 0 1
128.243 0 1
128.359 1047 32.3574
128.476 1042 32.28
128.592 1077 32.8177
128.708 1059 32.5423
128.825 999 31.607
128.941 1094 33.0757
129.058 1234 35.1283
129.174 1221 34.9428
129.291 1219 34.9142
129.408 1243 35.2562
129.524 1265 35.5668
129.641 1192 34.5254
129.758 1239 35.1994
129.875 1187 34.4529
129.992 1035 32.1714
130.108 1025 32.0156
130.225 916 30.2655
130.342 929 30.4795
130.459 993 31.5119
130.576 1025 32.0156
130.693 1144 33.8231
130.81 1174 34.2637
130.928 1236 35.1568
131.045 1218 34.8999
131.162 1201 34.6554
131.279 1264 35.5528
131.396 1228 35.0428
131.513 1237 35.171
131.631 1231 35.0856
131.748 1182 34.3802
131.865 1235 35.1426
131.983 1118 33.4365
132.1 1154 33.9706
132.217 1005 31.7017
132.335 1102 33.1964
132.452 1143 33.8083
132.57 1198 34.6121
132.687 1275 35.7071
132.804 1272 35.6651
132.922 1305 36.1248
133.039 1248 35.327
133.157 1281 35.7911
133.274 1358 36.8511
133.392 1254 35.4119
133.509 1131 33.6303
133.627 1060 32.5576
133.744 944 30.7246
133.862 874 29.5635
133.979 1032 32.1248
134.097 1049 32.3883
134.214 1191 34.5109
134.332 1192 34.5254
134.449 1219 34.9142
134.567 1263 35.5387
134.684 1307 36.1525
134.802 1283 35.819
134.919 1302 36.0832
135.037 1294 35.9722
135.154 1196 34.5832
135.272 1260 35.4965
135.389 1247 35.3129
135.507 1225 35
135.624 1188 34.4674
135.742 1108 33.2866
135.859 1098 33.1361
135.977 1170 34.2053
136.094 1167 34.1614
136.211 1192 34.5254
136.329 1299 36.0416
136.446 1242 35.242
136.564 1356 36.8239
136.681 1350 36.7423
136.798 1293 35.9583
136.915 1286 35.8608
137.033 1268 35.609
137.15 1184 34.4093
137.267 1012 31.8119
137.384 1028 32.0624
137.502 970 31.1448
137.619 974 31.209
137.736 1013 31.8277
137.853 1036 32.187
137.97 1193 34.5398
138.087 1163 34.1028
138.204 1224 34.9857
138.321 1175 34.2783
138.438 1223 34.9714
138.555 1259 35.4824
138.672 1298 36.0278
138.788 1209 34.7707
138.905 1176 34.2929
139.022 1120 33.4664
139.139 1056 32.4962
139.255 970 31.1448
139.372 877 29.6142
139.488 909 30.1496
139.605 808 28.4253
139.721 790 28.1069
139.838 818 28.6007
139.954 813 28.5132
140.071 829 28.7924
140.187 741 27.2213
140.303 693 26.3249
140.419 630 25.0998
140.535 653 25.5539
140.652 608 24.6577
140.768 0 1
140.884 0 1
141 0 1
141.115 0 1
141.231 0 1
141.347 0 1
141.463 0 1
141.578 0 1
141.694 0 1
144.104 0 1
144.219 0 1
144.335 0 1
144.45 0 1
144.566 0 1
144.682 0 1
144.798 0 1
144.914 0 1
145.03 0 1
145.146 936 30.5941
145.262 995 31.5436
145.378 1019 31.9218
145.494 1009 31.7648
145.61 1013 31.8277
145.726 1006 31.7175
145.842 932 30.5287
145.959 928 30.4631
146.075 892 29.8664
146.192 776 27.8568
146.308 765 27.6586
146.425 862 29.3598
146.541 920 30.3315
146.658 844 29.0517
146.774 948 30.7896
146.891 903 30.05
147.008 967 31.0966
147.125 982 31.3369
147.241 1023 31.9844
147.358 987 31.4166
147.475 992 31.496
147.592 931 30.5123
147.709 975 31.225
147.826 972 31.1769
147.943 887 29.7825
148.06 931 30.5123
148.177 884 29.7321
148.294 825 28.7228
148.411 905 30.0832
148.528 840 28.9828
148.645 937 30.6105
148.762 1054 32.4654
148.88 1033 32.1403
148.997 1012 31.8119
149.114 1041 32.2645
149.231 1016 31.8748
149.349 1037 32.2025
149.466 970 31.1448
149.583 951 30.8383
149.701 881 29.6816
149.818 795 28.1957
149.935 781 27.9464
150.053 786 28.0357
150.17 812 28.4956
150.287 827 28.7576
150.405 899 29.9833
150.522 886 29.7658
150.64 945 30.7409
150.757 954 30.8869
150.875 1009 31.7648
150.992 965 31.0644
151.11 980 31.305
151.227 1035 32.1714
151.344 920 30.3315
151.462 870 29.4958
151.579 917 30.282
151.697 886 29.7658
151.814 891 29.8496
151.932 879 29.6479
152.049 885 29.7489
152.167 899 29.9833
152.284 907 30.1164
152.402 891 29.8496
152.519 918 30.2985
152.636 918 30.2985
152.754 929 30.4795
152.871 923 30.3809
152.989 930 30.4959
153.106 909 30.1496
153.223 843 29.0345
153.341 839 28.9655
153.458 840 28.9828
153.575 752 27.4226
153.693 747 27.3313
153.81 798 28.2489
153.927 843 29.0345
154.044 786 28.0357
154.162 851 29.1719
154.279 895 29.9166
154.396 892 29.8664
154.513 873 29.5466
154.63 915 30.249
154.747 893 29.8831
154.864 884 29.7321
154.981 917 30.282
155.098 838 28.9482
155.215 833 28.8617
155.332 770 27.7489
155.449 762 27.6043
155.566 769 27.7308
155.683 821 28.6531
155.8 767 27.6948
155.917 819 28.6182
156.033 806 28.3901
156.15 0 1
156.267 0 1
156.383 0 1
156.5 0 1
156.617 0 1
156.733 0 1
156.85 0 1
156.966 0 1
157.082 0 1
157.199 0 1
157.315 0 1
157.431 0 1
157.547 0 1
157.664 0 1
157.78 0 1
157.896 0 1
158.012 0 1
158.128 0 1
158.244 0 1
158.359 0 1
158.475 0 1
158.591 0 1
158.706 0 1
