
6.15755 0 1
6.2731 0 1
6.3887 0 1
6.50437 0 1
6.62009 0 1
6.73587 0 1
6.8517 0 1
6.96759 0 1
7.08353 0 1
7.19952 0 1
7.31557 0 1
7.43166 0 1
7.54781 0 1
7.664 0 1
7.78024 0 1
7.89653 0 1
8.01286 0 1
8.12924 0 1
8.24567 0 1
8.36213 0 1
8.47864 0 1
8.59519 0 1
8.71178 0 1
8.82841 0 1
8.94508 0 1
9.06179 0 1
9.17853 0 1
9.29531 0 1
9.41212 0 1
9.52897 0 1
9.64584 0 1
9.76276 0 1
9.8797 0 1
9.99667 0 1
10.1137 0 1
10.2307 0 1
10.3478 0 1
10.4648 0 1
10.5819 0 1
10.6991 0 1
10.8162 0 1
10.9334 0 1
11.0506 0 1
11.1678 0 1
11.285 0 1
11.4023 0 1
11.5196 0 1
11.6369 0 1
11.7542 0 1
11.8715 0 1
11.9888 0 1
12.1062 0 1
12.2235 0 1
12.3409 0 1
12.4582 0 1
12.5756 0 1
12.693 0 1
12.8104 0 1
12.9278 0 1
13.0452 0 1
13.1626 0 1
13.28 0 1
13.3974 0 1
13.5149 0 1
13.6323 0 1
13.7497 0 1
13.8671 0 1
13.9845 0 1
14.1019 0 1
14.2193 0 1
14.3367 0 1
14.4541 0 1
14.5714 0 1
14.6888 0 1
14.8062 0 1
14.9235 0 1
15.0408 804 28.3549
15.1581 833 28.8617
15.2755 898 29.9666
15.3927 837 28.931
15.51 861 29.3428
15.6273 841 29
15.7445 875 29.5804
15.8617 813 28.5132
15.9789 811 28.4781
16.0961 838 28.9482
16.2132 792 28.1425
16.3304 794 28.178
16.4475 790 28.1069
16.5646 791 28.1247
16.6816 793 28.1603
16.7986 746 27.313
16.9156 784 28
17.0326 759 27.55
17.1496 800 28.2843
17.2665 731 27.037
17.3833 756 27.4955
17.5002 742 27.2397
17.617 753 27.4408
17.7338 756 27.4955
17.8505 787 28.0535
17.9672 801 28.3019
18.0839 811 28.4781
18.2005 735 27.1109
18.3171 714 26.7208
18.4337 723 26.8887
18.5502 767 27.6948
18.6666 744 27.2764
18.7831 764 27.6405
18.8994 723 26.8887
19.0158 717 26.7769
19.1321 734 27.0924
19.2483 679 26.0576
19.3645 674 25.9615
19.4806 689 26.2488
19.5967 645 25.3969
19.7128 570 23.8747
19.8288 499 22.3383
19.9447 436 20.8806
20.0606 0 1
20.1764 0 1
20.2922 0 1
20.4079 0 1
20.5236 0 1
20.6392 0 1
20.7548 0 1
20.8702 0 1
23.3078 0 1
23.4233 0 1
23.539 0 1
23.6547 0 1
23.7704 0 1
23.8862 0 1
24.0021 0 1
24.118 0 1
24.234 0 1
24.35 0 1
24.4661 340 18.4391
24.5822 383 19.5704
24.6984 449 21.1896
24.8146 474 21.7715
24.9309 543 23.3024
25.0472 625 25
25.1636 658 25.6515
25.28 754 27.4591
25.3965 771 27.7669
25.513 754 27.4591
25.6296 850 29.1548
25.7462 875 29.5804
25.8628 820 28.6356
25.9795 823 28.688
26.0962 839 28.9655
26.213 793 28.1603
26.3298 830 28.8097
26.4466 797 28.2312
26.5635 736 27.1293
26.6804 764 27.6405
26.7973 684 26.1534
26.9143 663 25.7488
27.0313 661 25.7099
27.1483 631 25.1197
27.2653 728 26.9815
27.3824 745 27.2947
27.4996 725 26.9258
27.6167 692 26.3059
27.7339 805 28.3725
27.8511 747 27.3313
27.9683 765 27.6586
28.0855 741 27.2213
28.2028 756 27.4955
28.3201 695 26.3629
28.4374 697 26.4008
28.5547 683 26.1343
28.6721 720 26.8328
28.7894 718 26.7955
28.9068 713 26.7021
29.0242 774 27.8209
29.1416 729 27
29.259 752 27.4226
29.3764 733 27.074
29.4939 704 26.533
29.6113 741 27.2213
29.7288 718 26.7955
29.8463 710 26.6458
29.9638 722 26.8701
30.0812 760 27.5681
30.1987 728 26.9815
30.3162 656 25.6125
30.4337 567 23.8118
30.5512 644 25.3772
30.6687 686 26.1916
30.7862 692 26.3059
30.9037 704 26.533
31.0212 766 27.6767
31.1387 714 26.7208
31.2562 740 27.2029
31.3737 761 27.5862
31.4912 777 27.8747
31.6087 750 27.3861
31.7262 752 27.4226
31.8436 733 27.074
31.9611 685 26.1725
32.0785 681 26.096
32.1959 642 25.3377
32.3134 627 25.04
32.4308 699 26.4386
32.5482 696 26.3818
32.6655 661 25.7099
32.7829 623 24.96
32.9002 649 25.4755
33.0176 624 24.98
33.1349 633 25.1595
33.2522 688 26.2298
33.3694 704 26.533
33.4867 656 25.6125
33.6039 666 25.807
33.7211 717 26.7769
33.8383 713 26.7021
33.9554 672 25.923
34.0725 619 24.8797
34.1896 590 24.2899
34.3067 596 24.4131
34.4237 658 25.6515
34.5407 587 24.2281
34.6577 718 26.7955
34.7746 683 26.1343
34.8915 668 25.8457
35.0084 700 26.4575
35.1252 666 25.807
35.242 676 26
35.3587 656 25.6125
35.4755 631 25.1197
35.5921 635 25.1992
35.7088 594 24.3721
35.8254 570 23.8747
35.9419 590 24.2899
36.0584 598 24.454
36.1749 589 24.2693
36.2913 640 25.2982
36.4077 594 24.3721
36.524 551 23.4734
36.6403 521 22.8254
36.7565 486 22.0454
36.8727 525 22.9129
36.9889 457 21.3776
37.1049 416 20.3961
37.221 0 1
37.3369 0 1
37.4529 0 1
37.5687 0 1
37.6845 0 1
37.8003 0 1
37.916 0 1
38.0316 0 1
38.1472 0 1
40.5851 0 1
40.7008 0 1
40.8164 0 1
40.9322 0 1
41.048 0 1
41.1639 0 1
41.2798 0 1
41.3958 0 1
41.5118 0 1
41.6279 0 1
41.744 247 15.7162
41.8602 309 17.5784
41.9765 385 19.6214
42.0928 427 20.664
42.2091 456 21.3542
42.3255 435 20.8567
42.4419 470 21.6795
42.5584 501 22.383
42.675 474 21.7715
42.7915 499 22.3383
42.9081 446 21.1187
43.0248 478 21.8632
43.1415 466 21.587
43.2582 501 22.383
43.375 501 22.383
43.4918 497 22.2935
43.6087 533 23.0868
43.7256 480 21.9089
43.8425 530 23.0217
43.9595 528 22.9783
44.0765 463 21.5174
44.1935 509 22.561
44.3106 501 22.383
44.4277 410 20.2485
44.5448 438 20.9284
44.6619 442 21.0238
44.7791 478 21.8632
44.8963 554 23.5372
45.0136 496 22.2711
45.1308 537 23.1733
45.2481 560 23.6643
45.3654 536 23.1517
45.4827 591 24.3105
45.6001 598 24.454
45.7174 608 24.6577
45.8348 608 24.6577
45.9522 625 25
46.0697 625 25
46.1871 583 24.1454
46.3046 557 23.6008
46.422 522 22.8473
46.5395 482 21.9545
46.657 478 21.8632
46.7745 513 22.6495
46.892 500 22.3607
47.0096 565 23.7697
47.1271 536 23.1517
47.2446 587 24.2281
47.3622 529 23
47.4797 559 23.6432
47.5973 517 22.7376
47.7149 553 23.516
47.8324 525 22.9129
47.95 528 22.9783
48.0675 526 22.9347
48.1851 452 21.2603
48.3027 506 22.4944
48.4202 543 23.3024
48.5378 519 22.7816
48.6554 590 24.2899
48.7729 559 23.6432
48.8904 571 23.8956
49.008 584 24.1661
49.1255 529 23
49.243 601 24.5153
49.3605 567 23.8118
49.478 509 22.561
49.5955 446 21.1187
49.713 483 21.9773
49.8304 460 21.4476
49.9479 397 19.9249
50.0653 437 20.9045
50.1827 455 21.3307
50.3001 452 21.2603
50.4175 454 21.3073
50.5348 500 22.3607
50.6521 440 20.9762
50.7694 498 22.3159
50.8867 461 21.4709
51.004 511 22.6053
51.1212 506 22.4944
51.2384 496 22.2711
51.3556 452 21.2603
51.4727 462 21.4942
51.5899 451 21.2368
51.707 429 20.7123
51.824 457 21.3776
51.9411 517 22.7376
52.0581 432 20.7846
52.175 483 21.9773
52.2919 459 21.4243
52.4088 456 21.3542
52.5257 456 21.3542
52.6425 500 22.3607
52.7593 515 22.6936
52.876 463 21.5174
52.9927 499 22.3383
53.1094 484 22
53.226 477 21.8403
53.3426 449 21.1896
53.4591 394 19.8494
53.5756 414 20.347
53.692 363 19.0526
53.8084 358 18.9209
53.9248 375 19.3649
54.0411 367 19.1572
54.1573 342 18.4932
54.2735 0 1
54.3896 0 1
54.5057 0 1
54.6217 0 1
54.7377 0 1
54.8537 0 1
54.9695 0 1
55.0853 0 1
55.2011 0 1
55.3168 0 1
55.4324 0 1
57.824 0 1
57.9396 0 1
58.0553 0 1
58.1711 0 1
58.2869 0 1
58.4028 0 1
58.5187 0 1
58.6347 0 1
58.7508 0 1
58.8669 0 1
58.983 588 24.2487
59.0992 713 26.7021
59.2155 867 29.4449
59.3318 835 28.8964
59.4482 907 30.1164
59.5646 988 31.4325
59.681 1009 31.7648
59.7975 1109 33.3017
59.9141 1113 33.3617
60.0306 1098 33.1361
60.1473 1002 31.6544
60.2639 960 30.9839
60.3807 1076 32.8024
60.4974 1072 32.7414
60.6142 1061 32.573
60.731 1098 33.1361
60.8479 1020 31.9374
60.9648 1040 32.249
61.0818 1049 32.3883
61.1987 987 31.4166
61.3158 982 31.3369
61.4328 938 30.6268
61.5499 935 30.5778
61.667 848 29.1204
61.7841 880 29.6648
61.9013 794 28.178
62.0185 748 27.3496
62.1357 709 26.6271
62.253 648 25.4558
62.3702 660 25.6905
62.4875 646 25.4165
62.6049 682 26.1151
62.7222 668 25.8457
62.8396 648 25.4558
62.9569 641 25.318
63.0743 642 25.3377
63.1918 580 24.0832
63.3092 556 23.5797
63.4267 599 24.4745
63.5441 547 23.388
63.6616 546 23.3666
63.7791 546 23.3666
63.8966 483 21.9773
64.0142 550 23.4521
64.1317 579 24.0624
64.2492 580 24.0832
64.3668 504 22.4499
64.4843 547 23.388
64.6019 542 23.2809
64.7195 549 23.4307
64.837 574 23.9583
64.9546 528 22.9783
65.0722 539 23.2164
65.1898 540 23.2379
65.3074 540 23.2379
65.4249 578 24.0416
65.5425 539 23.2164
65.6601 456 21.3542
65.7777 450 21.2132
65.8952 470 21.6795
66.0128 486 22.0454
66.1304 528 22.9783
66.2479 517 22.7376
66.3655 504 22.4499
66.483 537 23.1733
66.6005 493 22.2036
66.718 540 23.2379
66.8355 563 23.7276
66.953 564 23.7487
67.0705 509 22.561
67.1879 525 22.9129
67.3054 463 21.5174
67.4228 469 21.6564
67.5402 495 22.2486
67.6576 473 21.7486
67.7749 506 22.4944
67.8923 506 22.4944
68.0096 552 23.4947
68.1269 543 23.3024
68.2442 484 22
68.3614 517 22.7376
68.4787 530 23.0217
68.5958 506 22.4944
68.713 526 22.9347
68.8302 492 22.1811
68.9473 525 22.9129
69.0643 506 22.4944
69.1814 511 22.6053
69.2984 484 22
69.4154 458 21.4009
69.5323 463 21.5174
69.6492 458 21.4009
69.7661 489 22.1133
69.8829 521 22.8254
69.9997 532 23.0651
70.1165 467 21.6102
70.2332 490 22.1359
70.3499 486 22.0454
70.4665 455 21.3307
70.5831 414 20.347
70.6996 420 20.4939
70.8161 362 19.0263
70.9326 337 18.3576
71.049 288 16.9706
71.1653 312 17.6635
71.2817 283 16.8226
71.3979 240 15.4919
71.5141 273 16.5227
71.6303 237 15.3948
71.7464 177 13.3041
71.8624 0 1
71.9784 0 1
72.0944 0 1
72.2102 0 1
72.3261 0 1
72.4418 0 1
72.5575 0 1
72.6732 0 1
75.1054 0 1
75.2209 0 1
75.3365 0 1
75.4521 0 1
75.5678 0 1
75.6835 0 1
75.7993 0 1
75.9151 0 1
76.031 0 1
76.147 289 17
76.263 311 17.6352
76.3791 367 19.1572
76.4952 357 18.8944
76.6113 400 20
76.7276 367 19.1572
76.8438 449 21.1896
76.9601 426 20.6398
77.0765 404 20.0998
77.1929 419 20.4695
77.3093 424 20.5913
77.4258 416 20.3961
77.5423 439 20.9523
77.6589 425 20.6155
77.7755 453 21.2838
77.8921 416 20.3961
78.0088 409 20.2237
78.1256 397 19.9249
78.2423 404 20.0998
78.3591 416 20.3961
78.4759 381 19.5192
78.5928 396 19.8997
78.7097 444 21.0713
78.8266 448 21.166
78.9436 440 20.9762
79.0606 424 20.5913
79.1776 423 20.567
79.2946 412 20.2978
79.4117 420 20.4939
79.5288 448 21.166
79.6459 429 20.7123
79.7631 392 19.799
79.8802 413 20.3224
79.9974 454 21.3073
80.1147 418 20.445
80.2319 427 20.664
80.3491 420 20.4939
80.4664 448 21.166
80.5837 426 20.6398
80.701 433 20.8087
80.8183 442 21.0238
80.9357 410 20.2485
81.053 448 21.166
81.1704 456 21.3542
81.2877 430 20.7364
81.4051 434 20.8327
81.5225 467 21.6102
81.6399 460 21.4476
81.7573 438 20.9284
81.8747 405 20.1246
81.9922 390 19.7484
82.1096 404 20.0998
82.227 410 20.2485
82.3444 411 20.2731
82.4619 419 20.4695
82.5793 438 20.9284
82.6967 498 22.3159
82.8142 444 21.0713
82.9316 425 20.6155
83.049 465 21.5639
83.1664 445 21.095
83.2838 423 20.567
83.4012 426 20.6398
83.5186 445 21.095
83.636 420 20.4939
83.7534 464 21.5407
83.8708 459 21.4243
83.9881 462 21.4942
84.1055 497 22.2935
84.2228 466 21.587
84.3401 432 20.7846
84.4575 446 21.1187
84.5747 457 21.3776
84.692 476 21.8174
84.8093 410 20.2485
84.9265 455 21.3307
85.0437 431 20.7605
85.1609 450 21.2132
85.2781 466 21.587
85.3952 452 21.2603
85.5123 450 21.2132
85.6294 410 20.2485
85.7465 453 21.2838
85.8636 408 20.199
85.9806 447 21.1424
86.0976 423 20.567
86.2145 437 20.9045
86.3315 524 22.891
86.4484 443 21.0476
86.5652 457 21.3776
86.682 465 21.5639
86.7988 484 22
86.9156 467 21.6102
87.0323 426 20.6398
87.149 450 21.2132
87.2657 439 20.9523
87.3823 484 22
87.4988 502 22.4054
87.6154 408 20.199
87.7318 415 20.3715
87.8483 427 20.664
87.9647 416 20.3961
88.081 384 19.5959
88.1973 338 18.3848
88.3136 303 17.4069
88.4298 290 17.0294
88.546 272 16.4924
88.6621 260 16.1245
88.7781 231 15.1987
88.8942 0 1
89.0101 0 1
89.126 0 1
89.2419 0 1
89.3577 0 1
89.4734 0 1
89.5891 0 1
89.7047 0 1
89.8203 0 1
89.9358 0 1
92.3269 0 1
92.4424 0 1
92.558 0 1
92.6736 0 1
92.7893 0 1
92.905 0 1
93.0208 0 1
93.1366 0 1
93.2525 0 1
93.3685 0 1
93.4845 0 1
93.6005 345 18.5742
93.7167 356 18.868
93.8328 431 20.7605
93.949 453 21.2838
94.0653 472 21.7256
94.1816 484 22
94.2979 436 20.8806
94.4143 472 21.7256
94.5307 439 20.9523
94.6472 445 21.095
94.7637 441 21
94.8803 406 20.1494
94.9969 406 20.1494
95.1135 418 20.445
95.2302 481 21.9317
95.3469 473 21.7486
95.4637 495 22.2486
95.5805 500 22.3607
95.6973 435 20.8567
95.8142 501 22.383
95.9311 486 22.0454
96.048 460 21.4476
96.1649 451 21.2368
96.2819 443 21.0476
96.3989 463 21.5174
96.516 515 22.6936
96.633 489 22.1133
96.7501 480 21.9089
96.8673 493 22.2036
96.9844 469 21.6564
97.1016 455 21.3307
97.2188 449 21.1896
97.336 425 20.6155
97.4532 466 21.587
97.5704 470 21.6795
97.6877 448 21.166
97.805 475 21.7945
97.9223 480 21.9089
98.0396 479 21.8861
98.1569 441 21
98.2743 423 20.567
98.3916 438 20.9284
98.509 421 20.5183
98.6264 459 21.4243
98.7438 511 22.6053
98.8612 477 21.8403
98.9786 503 22.4277
99.096 517 22.7376
99.2134 510 22.5832
99.3308 509 22.561
99.4482 508 22.5389
99.5656 499 22.3383
99.6831 488 22.0907
99.8005 481 21.9317
99.9179 529 23
100.035 485 22.0227
100.153 513 22.6495
100.27 505 22.4722
100.388 513 22.6495
100.505 507 22.5167
100.622 501 22.383
100.74 491 22.1585
100.857 510 22.5832
100.975 492 22.1811
101.092 481 21.9317
101.209 472 21.7256
101.327 525 22.9129
101.444 518 22.7596
101.561 521 22.8254
101.679 514 22.6716
101.796 483 21.9773
101.913 454 21.3073
102.03 454 21.3073
102.148 492 22.1811
102.265 440 20.9762
102.382 537 23.1733
102.499 529 23
102.616 567 23.8118
102.733 547 23.388
102.851 536 23.1517
102.968 564 23.7487
103.085 503 22.4277
103.202 531 23.0434
103.319 532 23.0651
103.436 497 22.2935
103.552 563 23.7276
103.669 583 24.1454
103.786 560 23.6643
103.903 538 23.1948
104.02 558 23.622
104.137 579 24.0624
104.253 509 22.561
104.37 538 23.1948
104.487 537 23.1733
104.603 516 22.7156
104.72 519 22.7816
104.836 517 22.7376
104.953 537 23.1733
105.069 498 22.3159
105.186 467 21.6102
105.302 427 20.664
105.418 445 21.095
105.535 406 20.1494
105.651 323 17.9722
105.767 282 16.7929
105.883 298 17.2627
105.999 273 16.5227
106.115 0 1
106.231 0 1
106.347 0 1
106.463 0 1
106.579 0 1
106.694 0 1
106.81 0 1
106.926 0 1
107.041 0 1
107.157 0 1
109.576 0 1
109.692 0 1
109.807 0 1
109.923 0 1
110.039 0 1
110.155 0 1
110.27 0 1
110.386 0 1
110.502 0 1
110.618 260 16.1245
110.735 298 17.2627
110.851 348 18.6548
110.967 409 20.2237
111.083 415 20.3715
111.199 454 21.3073
111.316 488 22.0907
111.432 483 21.9773
111.549 559 23.6432
111.665 536 23.1517
111.782 548 23.4094
111.898 528 22.9783
112.015 457 21.3776
112.132 469 21.6564
112.248 516 22.7156
112.365 561 23.6854
112.482 516 22.7156
112.599 510 22.5832
112.716 536 23.1517
112.832 506 22.4944
112.949 488 22.0907
113.066 508 22.5389
113.183 483 21.9773
113.3 440 20.9762
113.417 496 22.2711
113.534 464 21.5407
113.652 462 21.4942
113.769 498 22.3159
113.886 457 21.3776
114.003 462 21.4942
114.12 483 21.9773
114.238 421 20.5183
114.355 454 21.3073
114.472 475 21.7945
114.589 458 21.4009
114.707 452 21.2603
114.824 486 22.0454
114.942 469 21.6564
115.059 522 22.8473
115.176 509 22.561
115.294 492 22.1811
115.411 504 22.4499
115.529 435 20.8567
115.646 464 21.5407
115.764 451 21.2368
115.881 454 21.3073
115.999 455 21.3307
116.116 487 22.0681
116.234 536 23.1517
116.351 462 21.4942
116.469 487 22.0681
116.586 473 21.7486
116.704 439 20.9523
116.821 433 20.8087
116.939 452 21.2603
117.056 445 21.095
117.174 429 20.7123
117.291 480 21.9089
117.409 465 21.5639
117.526 454 21.3073
117.644 454 21.3073
117.761 466 21.587
117.879 433 20.8087
117.996 410 20.2485
118.114 417 20.4206
118.231 423 20.567
118.349 451 21.2368
118.466 410 20.2485
118.584 470 21.6795
118.701 475 21.7945
118.819 461 21.4709
118.936 491 22.1585
119.053 429 20.7123
119.171 451 21.2368
119.288 417 20.4206
119.405 436 20.8806
119.523 440 20.9762
119.64 466 21.587
119.757 458 21.4009
119.875 447 21.1424
119.992 415 20.3715
120.109 409 20.2237
120.226 471 21.7025
120.343 469 21.6564
120.46 430 20.7364
120.578 413 20.3224
120.695 415 20.3715
120.812 449 21.1896
120.929 440 20.9762
121.046 456 21.3542
121.163 452 21.2603
121.279 420 20.4939
121.396 411 20.2731
121.513 390 19.7484
121.63 369 19.2094
121.747 343 18.5203
121.863 371 19.2614
121.98 371 19.2614
122.097 371 19.2614
122.213 395 19.8746
122.33 374 19.3391
122.446 322 17.9444
122.563 323 17.9722
122.679 282 16.7929
122.795 247 15.7162
122.912 267 16.3401
123.028 235 15.3297
123.144 223 14.9332
123.26 236 15.3623
123.377 0 1
123.493 0 1
123.609 0 1
123.725 0 1
123.84 0 1
123.956 0 1
124.072 0 1
124.188 0 1
124.303 0 1
124.419 0 1
126.852 0 1
126.968 0 1
127.083 0 1
127.199 0 1
127.315 0 1
127.431 0 1
127.547 0 1
127.663 0 1
127.779 0 1
127.895 0 1
128.011 0 1
128.127 0 1
128.243 0 1
128.359 435 20.8567
128.476 521 22.8254
128.592 503 22.4277
128.708 490 22.1359
128.825 510 22.5832
128.941 523 22.8692
129.058 493 22.2036
129.174 518 22.7596
129.291 497 22.2935
129.408 532 23.0651
129.524 487 22.0681
129.641 548 23.4094
129.758 528 22.9783
129.875 512 22.6274
129.992 565 23.7697
130.108 523 22.8692
130.225 480 21.9089
130.342 516 22.7156
130.459 492 22.1811
130.576 576 24
130.693 525 22.9129
130.81 521 22.8254
130.928 530 23.0217
131.045 594 24.3721
131.162 657 25.632
131.279 665 25.7876
131.396 657 25.632
131.513 703 26.5141
131.631 717 26.7769
131.748 725 26.9258
131.865 724 26.9072
131.983 699 26.4386
132.1 725 26.9258
132.217 806 28.3901
132.335 819 28.6182
132.452 910 30.1662
132.57 863 29.3769
132.687 847 29.1033
132.804 898 29.9666
132.922 892 29.8664
133.039 929 30.4795
133.157 945 30.7409
133.274 907 30.1164
133.392 962 31.0161
133.509 979 31.289
133.627 894 29.8998
133.744 941 30.6757
133.862 850 29.1548
133.979 913 30.2159
134.097 823 28.688
134.214 893 29.8831
134.332 817 28.5832
134.449 856 29.2575
134.567 838 28.9482
134.684 861 29.3428
134.802 1035 32.1714
134.919 949 30.8058
135.037 975 31.225
135.154 983 31.3528
135.272 1006 31.7175
135.389 884 29.7321
135.507 877 29.6142
135.624 870 29.4958
135.742 883 29.7153
135.859 952 30.8545
135.977 979 31.289
136.094 1013 31.8277
136.211 971 31.1609
136.329 903 30.05
136.446 972 31.1769
136.564 870 29.4958
136.681 965 31.0644
136.798 947 30.7734
136.915 912 30.1993
137.033 904 30.0666
137.15 917 30.282
137.267 915 30.249
137.384 908 30.133
137.502 927 30.4467
137.619 813 28.5132
137.736 870 29.4958
137.853 811 28.4781
137.97 814 28.5307
138.087 805 28.3725
138.204 805 28.3725
138.321 859 29.3087
138.438 854 29.2233
138.555 994 31.5278
138.672 945 30.7409
138.788 939 30.6431
138.905 942 30.692
139.022 860 29.3258
139.139 840 28.9828
139.255 763 27.6225
139.372 701 26.4764
139.488 700 26.4575
139.605 669 25.865
139.721 691 26.2869
139.838 664 25.7682
139.954 630 25.0998
140.071 620 24.8998
140.187 577 24.0208
140.303 544 23.3238
140.419 526 22.9347
140.535 507 22.5167
140.652 429 20.7123
140.768 0 1
140.884 0 1
141 0 1
141.115 0 1
141.231 0 1
141.347 0 1
141.463 0 1
141.578 0 1
141.694 0 1
144.104 0 1
144.219 0 1
144.335 0 1
144.45 0 1
144.566 0 1
144.682 0 1
144.798 0 1
144.914 0 1
145.03 0 1
145.146 1740 41.7133
145.262 1763 41.9881
145.378 1782 42.2137
145.494 1829 42.7668
145.61 1806 42.4971
145.726 1926 43.8862
145.842 1800 42.4264
145.959 1823 42.6966
146.075 1934 43.9773
146.192 1939 44.0341
146.308 1929 43.9204
146.425 1944 44.0908
146.541 1882 43.382
146.658 1810 42.5441
146.774 1746 41.7852
146.891 1588 39.8497
147.008 1589 39.8623
147.125 1874 43.2897
147.241 1955 44.2154
147.358 1992 44.6318
147.475 2090 45.7165
147.592 2083 45.6399
147.709 2123 46.076
147.826 2117 46.0109
147.943 2019 44.9333
148.06 1874 43.2897
148.177 1858 43.1045
148.294 1901 43.6005
148.411 1970 44.3847
148.528 1927 43.8976
148.645 2007 44.7996
148.762 2030 45.0555
148.88 1972 44.4072
148.997 2041 45.1774
149.114 1981 44.5084
149.231 2004 44.7661
149.349 1905 43.6463
149.466 1889 43.4626
149.583 1994 44.6542
149.701 1999 44.7102
149.818 1786 42.2611
149.935 1888 43.4511
150.053 1878 43.3359
150.17 1805 42.4853
150.287 1746 41.7852
150.405 1691 41.1218
150.522 1543 39.281
150.64 1505 38.7943
150.757 1627 40.3361
150.875 1603 40.0375
150.992 1606 40.0749
151.11 1599 39.9875
151.227 1644 40.5463
151.344 1667 40.8289
151.462 1627 40.3361
151.579 1516 38.9358
151.697 1553 39.4081
151.814 1460 38.2099
151.932 1469 38.3275
152.049 1456 38.1576
152.167 1545 39.3065
152.284 1599 39.9875
152.402 1563 39.5348
152.519 1589 39.8623
152.636 1544 39.2938
152.754 1516 38.9358
152.871 1545 39.3065
152.989 1470 38.3406
153.106 1555 39.4335
153.223 1541 39.2556
153.341 1448 38.0526
153.458 1450 38.0789
153.575 1405 37.4833
153.693 1275 35.7071
153.81 1213 34.8281
153.927 1230 35.0714
154.044 1246 35.2987
154.162 1265 35.5668
154.279 1201 34.6554
154.396 1242 35.242
154.513 1207 34.7419
154.63 1301 36.0694
154.747 1307 36.1525
154.864 1359 36.8646
154.981 1313 36.2353
155.098 1190 34.4964
155.215 1152 33.9411
155.332 1175 34.2783
155.449 1159 34.0441
155.566 1228 35.0428
155.683 1255 35.426
155.8 1240 35.2136
155.917 1208 34.7563
156.033 1203 34.6843
156.15 0 1
156.267 0 1
156.383 0 1
156.5 0 1
156.617 0 1
156.733 0 1
156.85 0 1
156.966 0 1
157.082 0 1
157.199 0 1
157.315 0 1
157.431 0 1
157.547 0 1
157.664 0 1
157.78 0 1
157.896 0 1
158.012 0 1
158.128 0 1
158.244 0 1
158.359 0 1
158.475 0 1
158.591 0 1
158.706 0 1
