
6.15755 0 1
6.2731 0 1
6.3887 0 1
6.50437 0 1
6.62009 0 1
6.73587 0 1
6.8517 0 1
6.96759 0 1
7.08353 0 1
7.19952 0 1
7.31557 0 1
7.43166 0 1
7.54781 0 1
7.664 0 1
7.78024 0 1
7.89653 0 1
8.01286 0 1
8.12924 0 1
8.24567 0 1
8.36213 0 1
8.47864 0 1
8.59519 0 1
8.71178 0 1
8.82841 0 1
8.94508 0 1
9.06179 0 1
9.17853 0 1
9.29531 0 1
9.41212 0 1
9.52897 0 1
9.64584 0 1
9.76276 0 1
9.8797 0 1
9.99667 0 1
10.1137 0 1
10.2307 0 1
10.3478 0 1
10.4648 0 1
10.5819 0 1
10.6991 0 1
10.8162 0 1
10.9334 0 1
11.0506 0 1
11.1678 0 1
11.285 0 1
11.4023 0 1
11.5196 0 1
11.6369 0 1
11.7542 0 1
11.8715 0 1
11.9888 0 1
12.1062 0 1
12.2235 0 1
12.3409 0 1
12.4582 0 1
12.5756 0 1
12.693 0 1
12.8104 0 1
12.9278 0 1
13.0452 0 1
13.1626 0 1
13.28 0 1
13.3974 0 1
13.5149 0 1
13.6323 0 1
13.7497 0 1
13.8671 0 1
13.9845 0 1
14.1019 0 1
14.2193 0 1
14.3367 0 1
14.4541 0 1
14.5714 0 1
14.6888 0 1
14.8062 0 1
14.9235 0 1
15.0408 4042 63.5767
15.1581 4128 64.2495
15.2755 4302 65.5896
15.3927 4268 65.3299
15.51 4209 64.8768
15.6273 4112 64.1249
15.7445 4051 63.6475
15.8617 3781 61.4898
15.9789 3799 61.636
16.0961 3790 61.563
16.2132 3763 61.3433
16.3304 3750 61.2372
16.4475 3743 61.1801
16.5646 3574 59.7829
16.6816 3575 59.7913
16.7986 3523 59.3549
16.9156 3568 59.7327
17.0326 3592 59.9333
17.1496 3443 58.6771
17.2665 3409 58.3866
17.3833 3463 58.8473
17.5002 3494 59.1101
17.617 3559 59.6574
17.7338 3670 60.5805
17.8505 3632 60.2661
17.9672 3556 59.6322
18.0839 3362 57.9828
18.2005 3228 56.8155
18.3171 3172 56.3205
18.4337 3436 58.6174
18.5502 3474 58.9406
18.6666 3604 60.0333
18.7831 3629 60.2412
18.8994 3540 59.4979
19.0158 3263 57.1227
19.1321 3251 57.0175
19.2483 3029 55.0364
19.3645 2944 54.2586
19.4806 2822 53.1225
19.5967 2637 51.3517
19.7128 2570 50.6952
19.8288 2448 49.4773
19.9447 2333 48.3011
20.0606 0 1
20.1764 0 1
20.2922 0 1
20.4079 0 1
20.5236 0 1
20.6392 0 1
20.7548 0 1
20.8702 0 1
23.3078 0 1
23.4233 0 1
23.539 0 1
23.6547 0 1
23.7704 0 1
23.8862 0 1
24.0021 0 1
24.118 0 1
24.234 0 1
24.35 0 1
24.4661 1369 37
24.5822 1534 39.1663
24.6984 1905 43.6463
24.8146 2311 48.0729
24.9309 2658 51.5558
25.0472 3058 55.2992
25.1636 3276 57.2364
25.28 3578 59.8164
25.3965 3810 61.7252
25.513 4176 64.622
25.6296 4393 66.2797
25.7462 4594 67.7791
25.8628 4651 68.1982
25.9795 4702 68.5711
26.0962 4675 68.374
26.213 4805 69.3181
26.3298 5027 70.9013
26.4466 5421 73.6274
26.5635 6041 77.7239
26.6804 5926 76.9805
26.7973 4499 67.0746
26.9143 3534 59.4475
27.0313 4656 68.2349
27.1483 6553 80.9506
27.2653 7211 84.9176
27.3824 7193 84.8116
27.4996 7191 84.7998
27.6167 7240 85.0882
27.7339 7470 86.4292
27.8511 8010 89.4986
27.9683 8083 89.9055
28.0855 8337 91.3072
28.2028 8505 92.2226
28.3201 8232 90.7304
28.4374 8137 90.2053
28.5547 8112 90.0666
28.6721 7672 87.59
28.7894 7514 86.6833
28.9068 7457 86.3539
29.0242 7413 86.0988
29.1416 6890 83.006
29.259 6133 78.3135
29.3764 5369 73.2735
29.4939 4772 69.0797
29.6113 4562 67.5426
29.7288 4259 65.261
29.8463 3978 63.0714
29.9638 4005 63.2851
30.0812 3999 63.2376
30.1987 3822 61.8223
30.3162 3378 58.1206
30.4337 2935 54.1756
30.5512 3747 61.2127
30.6687 5291 72.7393
30.7862 5691 75.4387
30.9037 5272 72.6085
31.0212 4948 70.342
31.1387 4416 66.453
31.2562 4170 64.5755
31.3737 3762 61.3351
31.4912 3396 58.2752
31.6087 3470 58.9067
31.7262 3327 57.6802
31.8436 3298 57.4282
31.9611 3442 58.6686
32.0785 3446 58.7026
32.1959 3506 59.2115
32.3134 3336 57.7581
32.4308 3327 57.6802
32.5482 3131 55.9553
32.6655 3047 55.1996
32.7829 3090 55.5878
32.9002 3117 55.8301
33.0176 3025 55
33.1349 3076 55.4617
33.2522 3077 55.4707
33.3694 3064 55.3534
33.4867 3131 55.9553
33.6039 3080 55.4977
33.7211 3021 54.9636
33.8383 3050 55.2268
33.9554 2749 52.4309
34.0725 2680 51.7687
34.1896 2857 53.4509
34.3067 3019 54.9454
34.4237 3118 55.8391
34.5407 3250 57.0088
34.6577 3303 57.4717
34.7746 3254 57.0438
34.8915 3011 54.8726
35.0084 2956 54.3691
35.1252 2946 54.2771
35.242 2934 54.1664
35.3587 2911 53.9537
35.4755 3008 54.8452
35.5921 2908 53.9259
35.7088 2983 54.6168
35.8254 2932 54.1479
35.9419 3001 54.7814
36.0584 2962 54.4243
36.1749 2959 54.3967
36.2913 2971 54.5069
36.4077 2773 52.6593
36.524 2700 51.9615
36.6403 2617 51.1566
36.7565 2576 50.7543
36.8727 2360 48.5798
36.9889 2273 47.676
37.1049 1952 44.1814
37.221 0 1
37.3369 0 1
37.4529 0 1
37.5687 0 1
37.6845 0 1
37.8003 0 1
37.916 0 1
38.0316 0 1
38.1472 0 1
40.5851 0 1
40.7008 0 1
40.8164 0 1
40.9322 0 1
41.048 0 1
41.1639 0 1
41.2798 0 1
41.3958 0 1
41.5118 0 1
41.6279 0 1
41.744 1286 35.8608
41.8602 1604 40.05
41.9765 1771 42.0833
42.0928 1807 42.5088
42.2091 1943 44.0795
42.3255 2199 46.8935
42.4419 2370 48.6826
42.5584 2303 47.9896
42.675 2267 47.613
42.7915 2130 46.1519
42.9081 2265 47.592
43.0248 2294 47.8957
43.1415 2246 47.392
43.2582 2436 49.3559
43.375 2419 49.1833
43.4918 2429 49.2849
43.6087 2286 47.8121
43.7256 2283 47.7807
43.8425 2203 46.9361
43.9595 2083 45.6399
44.0765 2147 46.3357
44.1935 2157 46.4435
44.3106 2187 46.7654
44.4277 2256 47.4974
44.5448 2247 47.4025
44.6619 2239 47.3181
44.7791 2381 48.7955
44.8963 2331 48.2804
45.0136 2361 48.5901
45.1308 2418 49.1732
45.2481 2367 48.6518
45.3654 2408 49.0714
45.4827 2368 48.6621
45.6001 2489 49.8899
45.7174 2418 49.1732
45.8348 2547 50.4678
45.9522 2511 50.1099
46.0697 2383 48.816
46.1871 2260 47.5395
46.3046 2178 46.669
46.422 2042 45.1885
46.5395 2100 45.8258
46.657 2080 45.607
46.7745 2278 47.7284
46.892 2332 48.2908
47.0096 2298 47.9375
47.1271 2346 48.4355
47.2446 2256 47.4974
47.3622 2242 47.3498
47.4797 2215 47.0638
47.5973 2064 45.4313
47.7149 2214 47.0532
47.8324 2135 46.2061
47.95 2163 46.5081
48.0675 2346 48.4355
48.1851 2232 47.244
48.3027 2260 47.5395
48.4202 2274 47.6865
48.5378 2234 47.2652
48.6554 2416 49.1528
48.7729 2194 46.8402
48.8904 2301 47.9687
49.008 2310 48.0625
49.1255 2321 48.1768
49.243 2289 47.8435
49.3605 2224 47.1593
49.478 2290 47.8539
49.5955 2120 46.0435
49.713 1980 44.4972
49.8304 1892 43.4971
49.9479 1925 43.8748
50.0653 1983 44.5309
50.1827 2064 45.4313
50.3001 2142 46.2817
50.4175 2123 46.076
50.5348 2117 46.0109
50.6521 2145 46.3141
50.7694 2125 46.0977
50.8867 2132 46.1736
51.004 1953 44.1928
51.1212 1882 43.382
51.2384 2039 45.1553
51.3556 2007 44.7996
51.4727 2069 45.4863
51.5899 2176 46.6476
51.707 2284 47.7912
51.824 2251 47.4447
51.9411 2189 46.7868
52.0581 2180 46.6905
52.175 2294 47.8957
52.2919 2207 46.9787
52.4088 2096 45.7821
52.5257 2190 46.7974
52.6425 2186 46.7547
52.7593 2150 46.3681
52.876 2239 47.3181
52.9927 2243 47.3603
53.1094 2247 47.4025
53.226 2079 45.5961
53.3426 1989 44.5982
53.4591 1893 43.5086
53.5756 1875 43.3013
53.692 1934 43.9773
53.8084 1903 43.6234
53.9248 1806 42.4971
54.0411 1632 40.398
54.1573 1522 39.0128
54.2735 0 1
54.3896 0 1
54.5057 0 1
54.6217 0 1
54.7377 0 1
54.8537 0 1
54.9695 0 1
55.0853 0 1
55.2011 0 1
55.3168 0 1
55.4324 0 1
57.824 0 1
57.9396 0 1
58.0553 0 1
58.1711 0 1
58.2869 0 1
58.4028 0 1
58.5187 0 1
58.6347 0 1
58.7508 0 1
58.8669 0 1
58.983 2946 54.2771
59.0992 3899 62.442
59.2155 4670 68.3374
59.3318 5382 73.3621
59.4482 5643 75.1199
59.5646 5849 76.4788
59.681 5804 76.184
59.7975 5678 75.3525
59.9141 5572 74.6458
60.0306 5506 74.2024
60.1473 5425 73.6546
60.2639 5387 73.3962
60.3807 5392 73.4302
60.4974 5300 72.8011
60.6142 5490 74.0945
60.731 5335 73.0411
60.8479 5274 72.6223
60.9648 5269 72.5879
61.0818 5053 71.0845
61.1987 5041 71
61.3158 4887 69.9071
61.4328 4903 70.0214
61.5499 4894 69.9571
61.667 4720 68.7023
61.7841 4632 68.0588
61.9013 4488 66.9925
62.0185 4380 66.1816
62.1357 4131 64.2729
62.253 4056 63.6867
62.3702 4056 63.6867
62.4875 4162 64.5136
62.6049 4120 64.1872
62.7222 3826 61.8547
62.8396 3805 61.6847
62.9569 3672 60.597
63.0743 3484 59.0254
63.1918 3161 56.2228
63.3092 2969 54.4885
63.4267 2861 53.4883
63.5441 2725 52.2015
63.6616 2687 51.8363
63.7791 2698 51.9423
63.8966 2757 52.5071
64.0142 2680 51.7687
64.1317 2554 50.5371
64.2492 2679 51.7591
64.3668 2603 51.0196
64.4843 2591 50.9019
64.6019 2657 51.5461
64.7195 2568 50.6754
64.837 2547 50.4678
64.9546 2652 51.4976
65.0722 2621 51.1957
65.1898 2642 51.4004
65.3074 2699 51.9519
65.4249 2639 51.3712
65.5425 2515 50.1498
65.6601 2515 50.1498
65.7777 2451 49.5076
65.8952 2511 50.1099
66.0128 2573 50.7247
66.1304 2593 50.9215
66.2479 2591 50.9019
66.3655 2517 50.1697
66.483 2609 51.0784
66.6005 2594 50.9313
66.718 2719 52.144
66.8355 2621 51.1957
66.953 2609 51.0784
67.0705 2508 50.0799
67.1879 2511 50.1099
67.3054 2453 49.5278
67.4228 2496 49.96
67.5402 2492 49.9199
67.6576 2596 50.951
67.7749 2660 51.5752
67.8923 2618 51.1664
68.0096 2558 50.5767
68.1269 2578 50.774
68.2442 2541 50.4083
68.3614 2541 50.4083
68.4787 2506 50.06
68.5958 2558 50.5767
68.713 2640 51.3809
68.8302 2662 51.5946
68.9473 2515 50.1498
69.0643 2507 50.07
69.1814 2517 50.1697
69.2984 2462 49.6185
69.4154 2559 50.5866
69.5323 2440 49.3964
69.6492 2596 50.951
69.7661 2559 50.5866
69.8829 2630 51.2835
69.9997 2558 50.5767
70.1165 2508 50.0799
70.2332 2480 49.7996
70.3499 2316 48.1248
70.4665 2370 48.6826
70.5831 2198 46.8828
70.6996 1982 44.5197
70.8161 1758 41.9285
70.9326 1668 40.8412
71.049 1507 38.8201
71.1653 1460 38.2099
71.2817 1407 37.51
71.3979 1301 36.0694
71.5141 1222 34.9571
71.6303 1101 33.1813
71.7464 915 30.249
71.8624 0 1
71.9784 0 1
72.0944 0 1
72.2102 0 1
72.3261 0 1
72.4418 0 1
72.5575 0 1
72.6732 0 1
75.1054 0 1
75.2209 0 1
75.3365 0 1
75.4521 0 1
75.5678 0 1
75.6835 0 1
75.7993 0 1
75.9151 0 1
76.031 0 1
76.147 1371 37.027
76.263 1652 40.6448
76.3791 1799 42.4146
76.4952 1963 44.3058
76.6113 1973 44.4185
76.7276 2120 46.0435
76.8438 2196 46.8615
76.9601 2233 47.2546
77.0765 2171 46.594
77.1929 2127 46.1194
77.3093 2142 46.2817
77.4258 2167 46.551
77.5423 2195 46.8508
77.6589 2184 46.7333
77.7755 2246 47.392
77.8921 2312 48.0833
78.0088 2212 47.0319
78.1256 2234 47.2652
78.2423 2091 45.7275
78.3591 2037 45.1331
78.4759 2121 46.0543
78.5928 2177 46.6583
78.7097 2188 46.7761
78.8266 2197 46.8722
78.9436 2262 47.5605
79.0606 2257 47.5079
79.1776 2173 46.6154
79.2946 2108 45.913
79.4117 2232 47.244
79.5288 2248 47.4131
79.6459 2155 46.422
79.7631 2270 47.6445
79.8802 2184 46.7333
79.9974 2155 46.422
80.1147 2188 46.7761
80.2319 2174 46.6262
80.3491 2148 46.3465
80.4664 2210 47.0106
80.5837 2265 47.592
80.701 2333 48.3011
80.8183 2227 47.1911
80.9357 2264 47.5815
81.053 2221 47.1275
81.1704 2233 47.2546
81.2877 2317 48.1352
81.4051 2328 48.2494
81.5225 2297 47.927
81.6399 2291 47.8644
81.7573 2205 46.9574
81.8747 2182 46.7119
81.9922 2137 46.2277
82.1096 2252 47.4552
82.227 2190 46.7974
82.3444 2221 47.1275
82.4619 2258 47.5184
82.5793 2271 47.655
82.6967 2272 47.6655
82.8142 2256 47.4974
82.9316 2306 48.0208
83.049 2324 48.2079
83.1664 2258 47.5184
83.2838 2277 47.7179
83.4012 2285 47.8017
83.5186 2269 47.634
83.636 2276 47.7074
83.7534 2186 46.7547
83.8708 2250 47.4342
83.9881 2155 46.422
84.1055 2211 47.0213
84.2228 2290 47.8539
84.3401 2231 47.2335
84.4575 2311 48.0729
84.5747 2310 48.0625
84.692 2226 47.1805
84.8093 2374 48.7237
84.9265 2238 47.3075
85.0437 2418 49.1732
85.1609 2342 48.3942
85.2781 2368 48.6621
85.3952 2288 47.833
85.5123 2240 47.3286
85.6294 2180 46.6905
85.7465 2254 47.4763
85.8636 2298 47.9375
85.9806 2311 48.0729
86.0976 2311 48.0729
86.2145 2371 48.6929
86.3315 2341 48.3839
86.4484 2261 47.55
86.5652 2417 49.163
86.682 2392 48.9081
86.7988 2282 47.7703
86.9156 2351 48.4871
87.0323 2303 47.9896
87.149 2385 48.8365
87.2657 2208 46.9894
87.3823 2142 46.2817
87.4988 2168 46.5618
87.6154 2061 45.3982
87.7318 2064 45.4313
87.8483 1989 44.5982
87.9647 1919 43.8064
88.081 1814 42.5911
88.1973 1748 41.8091
88.3136 1609 40.1123
88.4298 1538 39.2173
88.546 1458 38.1838
88.6621 1326 36.4143
88.7781 1272 35.6651
88.8942 0 1
89.0101 0 1
89.126 0 1
89.2419 0 1
89.3577 0 1
89.4734 0 1
89.5891 0 1
89.7047 0 1
89.8203 0 1
89.9358 0 1
92.3269 0 1
92.4424 0 1
92.558 0 1
92.6736 0 1
92.7893 0 1
92.905 0 1
93.0208 0 1
93.1366 0 1
93.2525 0 1
93.3685 0 1
93.4845 0 1
93.6005 1650 40.6202
93.7167 1844 42.9418
93.8328 2017 44.911
93.949 2124 46.0869
94.0653 2228 47.2017
94.1816 2259 47.5289
94.2979 2290 47.8539
94.4143 2243 47.3603
94.5307 2250 47.4342
94.6472 2272 47.6655
94.7637 2241 47.3392
94.8803 2248 47.4131
94.9969 2327 48.239
95.1135 2274 47.6865
95.2302 2212 47.0319
95.3469 2238 47.3075
95.4637 2222 47.1381
95.5805 2407 49.0612
95.6973 2346 48.4355
95.8142 2268 47.6235
95.9311 2205 46.9574
96.048 2347 48.4458
96.1649 2289 47.8435
96.2819 2355 48.5283
96.3989 2395 48.9387
96.516 2363 48.6107
96.633 2257 47.5079
96.7501 2185 46.744
96.8673 2221 47.1275
96.9844 2200 46.9042
97.1016 2253 47.4658
97.2188 2225 47.1699
97.336 2172 46.6047
97.4532 2215 47.0638
97.5704 2279 47.7389
97.6877 2364 48.621
97.805 2413 49.1223
97.9223 2379 48.775
98.0396 2381 48.7955
98.1569 2266 47.6025
98.2743 2266 47.6025
98.3916 2406 49.051
98.509 2352 48.4974
98.6264 2260 47.5395
98.7438 2262 47.5605
98.8612 2333 48.3011
98.9786 2322 48.1871
99.096 2351 48.4871
99.2134 2477 49.7695
99.3308 2552 50.5173
99.4482 2368 48.6621
99.5656 2424 49.2341
99.6831 2498 49.98
99.8005 2467 49.6689
99.9179 2504 50.04
100.035 2504 50.04
100.153 2310 48.0625
100.27 2269 47.634
100.388 2418 49.1732
100.505 2300 47.9583
100.622 2303 47.9896
100.74 2278 47.7284
100.857 2258 47.5184
100.975 2418 49.1732
101.092 2288 47.833
101.209 2447 49.4672
101.327 2372 48.7032
101.444 2627 51.2543
101.561 2446 49.4571
101.679 2500 50
101.796 2473 49.7293
101.913 2435 49.3457
102.03 2402 49.0102
102.148 2433 49.3254
102.265 2342 48.3942
102.382 2356 48.5386
102.499 2423 49.224
102.616 2509 50.0899
102.733 2641 51.3907
102.851 2579 50.7839
102.968 2634 51.3225
103.085 2617 51.1566
103.202 2595 50.9411
103.319 2562 50.6162
103.436 2570 50.6952
103.552 2645 51.4296
103.669 2448 49.4773
103.786 2423 49.224
103.903 2470 49.6991
104.02 2524 50.2394
104.137 2419 49.1833
104.253 2478 49.7795
104.37 2481 49.8096
104.487 2486 49.8598
104.603 2540 50.3984
104.72 2505 50.05
104.836 2479 49.7896
104.953 2590 50.892
105.069 2379 48.775
105.186 2261 47.55
105.302 2225 47.1699
105.418 2025 45
105.535 1867 43.2088
105.651 1723 41.509
105.767 1600 40
105.883 1468 38.3145
105.999 1385 37.2156
106.115 0 1
106.231 0 1
106.347 0 1
106.463 0 1
106.579 0 1
106.694 0 1
106.81 0 1
106.926 0 1
107.041 0 1
107.157 0 1
109.576 0 1
109.692 0 1
109.807 0 1
109.923 0 1
110.039 0 1
110.155 0 1
110.27 0 1
110.386 0 1
110.502 0 1
110.618 1255 35.426
110.735 1417 37.6431
110.851 1623 40.2865
110.967 1638 40.4722
111.083 1707 41.3159
111.199 1989 44.5982
111.316 2217 47.085
111.432 2318 48.1456
111.549 2304 48
111.665 2265 47.592
111.782 2289 47.8435
111.898 2398 48.9694
112.015 2350 48.4768
112.132 2360 48.5798
112.248 2311 48.0729
112.365 2254 47.4763
112.482 2144 46.3033
112.599 2123 46.076
112.716 2101 45.8367
112.832 2095 45.7712
112.949 2109 45.9239
113.066 2219 47.1063
113.183 2188 46.7761
113.3 2135 46.2061
113.417 2346 48.4355
113.534 2176 46.6476
113.652 2331 48.2804
113.769 2209 47
113.886 2294 47.8957
114.003 2278 47.7284
114.12 2133 46.1844
114.238 2138 46.2385
114.355 2065 45.4423
114.472 1958 44.2493
114.589 1894 43.5201
114.707 2005 44.7772
114.824 2164 46.5188
114.942 2236 47.2864
115.059 2170 46.5833
115.176 2205 46.9574
115.294 2237 47.2969
115.411 2228 47.2017
115.529 2149 46.3573
115.646 2108 45.913
115.764 2115 45.9891
115.881 1982 44.5197
115.999 2001 44.7325
116.116 1788 42.2847
116.234 1886 43.4281
116.351 1888 43.4511
116.469 1898 43.566
116.586 1941 44.0568
116.704 1852 43.0349
116.821 1968 44.3621
116.939 1922 43.8406
117.056 1937 44.0114
117.174 2008 44.8107
117.291 2002 44.7437
117.409 2073 45.5302
117.526 2087 45.6837
117.644 2062 45.4093
117.761 2041 45.1774
117.879 1972 44.4072
117.996 1818 42.638
118.114 1770 42.0714
118.231 1769 42.0595
118.349 1993 44.643
118.466 1951 44.1701
118.584 1970 44.3847
118.701 2012 44.8553
118.819 1973 44.4185
118.936 1997 44.6878
119.053 1955 44.2154
119.171 2022 44.9667
119.288 1928 43.909
119.405 1780 42.19
119.523 1840 42.8952
119.64 1798 42.4028
119.757 1756 41.9047
119.875 1737 41.6773
119.992 1754 41.8808
120.109 1789 42.2966
120.226 1793 42.3438
120.343 1774 42.1189
120.46 1829 42.7668
120.578 1890 43.4741
120.695 1934 43.9773
120.812 1891 43.4856
120.929 1939 44.0341
121.046 1900 43.589
121.163 1912 43.7264
121.279 1886 43.4281
121.396 1896 43.5431
121.513 1749 41.821
121.63 1705 41.2916
121.747 1611 40.1373
121.863 1520 38.9872
121.98 1630 40.3733
122.097 1691 41.1218
122.213 1544 39.2938
122.33 1586 39.8246
122.446 1466 38.2884
122.563 1446 38.0263
122.679 1332 36.4966
122.795 1363 36.9188
122.912 1288 35.8887
123.028 1108 33.2866
123.144 1125 33.541
123.26 930 30.4959
123.377 0 1
123.493 0 1
123.609 0 1
123.725 0 1
123.84 0 1
123.956 0 1
124.072 0 1
124.188 0 1
124.303 0 1
124.419 0 1
126.852 0 1
126.968 0 1
127.083 0 1
127.199 0 1
127.315 0 1
127.431 0 1
127.547 0 1
127.663 0 1
127.779 0 1
127.895 0 1
128.011 0 1
128.127 0 1
128.243 0 1
128.359 1995 44.6654
128.476 1986 44.5646
128.592 2090 45.7165
128.708 1953 44.1928
128.825 1932 43.9545
128.941 1851 43.0232
129.058 2002 44.7437
129.174 2018 44.9222
129.291 2041 45.1774
129.408 2135 46.2061
129.524 2131 46.1628
129.641 2156 46.4327
129.758 2152 46.3897
129.875 2226 47.1805
129.992 2320 48.1664
130.108 2223 47.1487
130.225 2372 48.7032
130.342 2327 48.239
130.459 2255 47.4868
130.576 2252 47.4552
130.693 2045 45.2217
130.81 2080 45.607
130.928 2108 45.913
131.045 2393 48.9183
131.162 2394 48.9285
131.279 2565 50.6458
131.396 2798 52.8961
131.513 2818 53.0848
131.631 2940 54.2218
131.748 3007 54.8361
131.865 2945 54.2679
131.983 3043 55.1634
132.1 3091 55.5968
132.217 3186 56.4447
132.335 3142 56.0535
132.452 3197 56.542
132.57 3301 57.4543
132.687 3455 58.7792
132.804 3638 60.3158
132.922 3762 61.3351
133.039 3929 62.6817
133.157 4005 63.2851
133.274 3951 62.857
133.392 4068 63.7809
133.509 4099 64.0234
133.627 4171 64.5833
133.744 4186 64.6993
133.862 4323 65.7495
133.979 4152 64.436
134.097 4078 63.8592
134.214 3781 61.4898
134.332 3371 58.0603
134.449 3468 58.8897
134.567 3853 62.0725
134.684 4056 63.6867
134.802 4075 63.8357
134.919 4159 64.4903
135.037 4250 65.192
135.154 4309 65.643
135.272 4455 66.7458
135.389 4440 66.6333
135.507 4437 66.6108
135.624 4411 66.4154
135.742 4446 66.6783
135.859 4328 65.7875
135.977 4479 66.9253
136.094 4432 66.5733
136.211 4602 67.838
136.329 4625 68.0074
136.446 4611 67.9043
136.564 4668 68.3228
136.681 4775 69.1014
136.798 4735 68.8113
136.915 4908 70.0571
137.033 4790 69.2098
137.15 4920 70.1427
137.267 5141 71.7008
137.384 5030 70.9225
137.502 4898 69.9857
137.619 4862 69.728
137.736 4774 69.0941
137.853 4273 65.3682
137.97 4266 65.3146
138.087 4324 65.7571
138.204 4346 65.9242
138.321 4314 65.681
138.438 4705 68.593
138.555 4845 69.606
138.672 5105 71.4493
138.788 5328 72.9932
138.905 5148 71.7496
139.022 5280 72.6636
139.139 4913 70.0928
139.255 4786 69.1809
139.372 4273 65.3682
139.488 4016 63.3719
139.605 3683 60.6877
139.721 3618 60.1498
139.838 3376 58.1034
139.954 3392 58.2409
140.071 3434 58.6003
140.187 3194 56.5155
140.303 3128 55.9285
140.419 3003 54.7996
140.535 2852 53.4041
140.652 2773 52.6593
140.768 0 1
140.884 0 1
141 0 1
141.115 0 1
141.231 0 1
141.347 0 1
141.463 0 1
141.578 0 1
141.694 0 1
144.104 0 1
144.219 0 1
144.335 0 1
144.45 0 1
144.566 0 1
144.682 0 1
144.798 0 1
144.914 0 1
145.03 0 1
145.146 4688 68.469
145.262 4652 68.2056
145.378 4860 69.7137
145.494 5185 72.0069
145.61 5102 71.4283
145.726 5024 70.8802
145.842 5108 71.4703
145.959 5038 70.9789
146.075 5188 72.0278
146.192 5201 72.118
146.308 5262 72.5396
146.425 5117 71.5332
146.541 4870 69.7854
146.658 4547 67.4314
146.774 4351 65.9621
146.891 4254 65.2227
147.008 4415 66.4455
147.125 4481 66.9403
147.241 4702 68.5711
147.358 5058 71.1196
147.475 5079 71.2671
147.592 5140 71.6938
147.709 5132 71.638
147.826 5253 72.4776
147.943 5141 71.7008
148.06 4968 70.484
148.177 4853 69.6635
148.294 4757 68.971
148.411 5016 70.8237
148.528 5033 70.9436
148.645 4915 70.1071
148.762 5052 71.0774
148.88 4974 70.5266
148.997 5184 72
149.114 5005 70.746
149.231 5224 72.2772
149.349 5154 71.7914
149.466 4988 70.6258
149.583 5117 71.5332
149.701 5016 70.8237
149.818 5029 70.9154
149.935 5040 70.993
150.053 4949 70.3491
150.17 4630 68.0441
150.287 4453 66.7308
150.405 4112 64.1249
150.522 4102 64.0469
150.64 4069 63.7887
150.757 4250 65.192
150.875 4406 66.3777
150.992 4431 66.5658
151.11 4375 66.1438
151.227 4455 66.7458
151.344 4508 67.1416
151.462 4555 67.4907
151.579 4246 65.1613
151.697 4381 66.1891
151.814 4190 64.7302
151.932 4214 64.9153
152.049 4200 64.8074
152.167 4331 65.8103
152.284 4256 65.238
152.402 4420 66.4831
152.519 4402 66.3476
152.636 4418 66.468
152.754 4515 67.1937
152.871 4384 66.2118
152.989 4369 66.0984
153.106 4486 66.9776
153.223 4541 67.3869
153.341 4417 66.4605
153.458 4393 66.2797
153.575 4307 65.6277
153.693 4257 65.2457
153.81 4099 64.0234
153.927 3946 62.8172
154.044 3749 61.2291
154.162 3759 61.3107
154.279 3957 62.9047
154.396 3807 61.7009
154.513 4092 63.9687
154.63 4167 64.5523
154.747 3983 63.111
154.864 4015 63.364
154.981 4093 63.9766
155.098 4226 65.0077
155.215 4231 65.0461
155.332 3932 62.7057
155.449 4052 63.6553
155.566 3975 63.0476
155.683 4134 64.2962
155.8 4193 64.7534
155.917 4179 64.6452
156.033 4173 64.5988
156.15 0 1
156.267 0 1
156.383 0 1
156.5 0 1
156.617 0 1
156.733 0 1
156.85 0 1
156.966 0 1
157.082 0 1
157.199 0 1
157.315 0 1
157.431 0 1
157.547 0 1
157.664 0 1
157.78 0 1
157.896 0 1
158.012 0 1
158.128 0 1
158.244 0 1
158.359 0 1
158.475 0 1
158.591 0 1
158.706 0 1
