
6.15755 0 1
6.2731 0 1
6.3887 0 1
6.50437 0 1
6.62009 0 1
6.73587 0 1
6.8517 0 1
6.96759 0 1
7.08353 0 1
7.19952 0 1
7.31557 0 1
7.43166 0 1
7.54781 0 1
7.664 0 1
7.78024 0 1
7.89653 0 1
8.01286 0 1
8.12924 0 1
8.24567 0 1
8.36213 0 1
8.47864 0 1
8.59519 0 1
8.71178 0 1
8.82841 0 1
8.94508 0 1
9.06179 0 1
9.17853 0 1
9.29531 0 1
9.41212 0 1
9.52897 0 1
9.64584 0 1
9.76276 0 1
9.8797 0 1
9.99667 0 1
10.1137 0 1
10.2307 0 1
10.3478 0 1
10.4648 0 1
10.5819 0 1
10.6991 0 1
10.8162 0 1
10.9334 0 1
11.0506 0 1
11.1678 0 1
11.285 0 1
11.4023 0 1
11.5196 0 1
11.6369 0 1
11.7542 0 1
11.8715 0 1
11.9888 0 1
12.1062 0 1
12.2235 0 1
12.3409 0 1
12.4582 0 1
12.5756 0 1
12.693 0 1
12.8104 0 1
12.9278 0 1
13.0452 0 1
13.1626 0 1
13.28 0 1
13.3974 0 1
13.5149 0 1
13.6323 0 1
13.7497 0 1
13.8671 0 1
13.9845 0 1
14.1019 0 1
14.2193 0 1
14.3367 0 1
14.4541 0 1
14.5714 0 1
14.6888 0 1
14.8062 0 1
14.9235 0 1
15.0408 718 26.7955
15.1581 716 26.7582
15.2755 673 25.9422
15.3927 726 26.9444
15.51 721 26.8514
15.6273 674 25.9615
15.7445 710 26.6458
15.8617 705 26.5518
15.9789 664 25.7682
16.0961 688 26.2298
16.2132 632 25.1396
16.3304 631 25.1197
16.4475 641 25.318
16.5646 608 24.6577
16.6816 691 26.2869
16.7986 642 25.3377
16.9156 679 26.0576
17.0326 633 25.1595
17.1496 626 25.02
17.2665 628 25.0599
17.3833 664 25.7682
17.5002 631 25.1197
17.617 649 25.4755
17.7338 623 24.96
17.8505 629 25.0799
17.9672 658 25.6515
18.0839 610 24.6982
18.2005 577 24.0208
18.3171 609 24.6779
18.4337 632 25.1396
18.5502 602 24.5357
18.6666 646 25.4165
18.7831 601 24.5153
18.8994 642 25.3377
19.0158 607 24.6374
19.1321 578 24.0416
19.2483 535 23.1301
19.3645 575 23.9792
19.4806 512 22.6274
19.5967 458 21.4009
19.7128 475 21.7945
19.8288 418 20.445
19.9447 381 19.5192
20.0606 0 1
20.1764 0 1
20.2922 0 1
20.4079 0 1
20.5236 0 1
20.6392 0 1
20.7548 0 1
20.8702 0 1
23.3078 0 1
23.4233 0 1
23.539 0 1
23.6547 0 1
23.7704 0 1
23.8862 0 1
24.0021 0 1
24.118 0 1
24.234 0 1
24.35 0 1
24.4661 274 16.5529
24.5822 294 17.1464
24.6984 313 17.6918
24.8146 349 18.6815
24.9309 438 20.9284
25.0472 466 21.587
25.1636 505 22.4722
25.28 559 23.6432
25.3965 634 25.1794
25.513 599 24.4745
25.6296 664 25.7682
25.7462 646 25.4165
25.8628 662 25.7294
25.9795 623 24.96
26.0962 622 24.9399
26.213 656 25.6125
26.3298 651 25.5147
26.4466 585 24.1868
26.5635 620 24.8998
26.6804 559 23.6432
26.7973 564 23.7487
26.9143 515 22.6936
27.0313 480 21.9089
27.1483 542 23.2809
27.2653 549 23.4307
27.3824 555 23.5584
27.4996 582 24.1247
27.6167 550 23.4521
27.7339 592 24.3311
27.8511 582 24.1247
27.9683 627 25.04
28.0855 630 25.0998
28.2028 629 25.0799
28.3201 569 23.8537
28.4374 561 23.6854
28.5547 543 23.3024
28.6721 554 23.5372
28.7894 526 22.9347
28.9068 572 23.9165
29.0242 556 23.5797
29.1416 557 23.6008
29.259 568 23.8328
29.3764 552 23.4947
29.4939 576 24
29.6113 567 23.8118
29.7288 568 23.8328
29.8463 566 23.7908
29.9638 556 23.5797
30.0812 512 22.6274
30.1987 547 23.388
30.3162 557 23.6008
30.4337 484 22
30.5512 500 22.3607
30.6687 486 22.0454
30.7862 498 22.3159
30.9037 606 24.6171
31.0212 597 24.4336
31.1387 608 24.6577
31.2562 621 24.9199
31.3737 627 25.04
31.4912 640 25.2982
31.6087 553 23.516
31.7262 617 24.8395
31.8436 544 23.3238
31.9611 530 23.0217
32.0785 534 23.1084
32.1959 567 23.8118
32.3134 549 23.4307
32.4308 498 22.3159
32.5482 533 23.0868
32.6655 474 21.7715
32.7829 546 23.3666
32.9002 559 23.6432
33.0176 550 23.4521
33.1349 524 22.891
33.2522 549 23.4307
33.3694 536 23.1517
33.4867 502 22.4054
33.6039 580 24.0832
33.7211 529 23
33.8383 540 23.2379
33.9554 492 22.1811
34.0725 505 22.4722
34.1896 482 21.9545
34.3067 489 22.1133
34.4237 520 22.8035
34.5407 549 23.4307
34.6577 547 23.388
34.7746 572 23.9165
34.8915 600 24.4949
35.0084 613 24.7588
35.1252 604 24.5764
35.242 541 23.2594
35.3587 525 22.9129
35.4755 571 23.8956
35.5921 505 22.4722
35.7088 462 21.4942
35.8254 469 21.6564
35.9419 439 20.9523
36.0584 479 21.8861
36.1749 524 22.891
36.2913 510 22.5832
36.4077 530 23.0217
36.524 484 22
36.6403 462 21.4942
36.7565 410 20.2485
36.8727 385 19.6214
36.9889 388 19.6977
37.1049 396 19.8997
37.221 0 1
37.3369 0 1
37.4529 0 1
37.5687 0 1
37.6845 0 1
37.8003 0 1
37.916 0 1
38.0316 0 1
38.1472 0 1
40.5851 0 1
40.7008 0 1
40.8164 0 1
40.9322 0 1
41.048 0 1
41.1639 0 1
41.2798 0 1
41.3958 0 1
41.5118 0 1
41.6279 0 1
41.744 198 14.0712
41.8602 312 17.6635
41.9765 305 17.4642
42.0928 347 18.6279
42.2091 351 18.735
42.3255 388 19.6977
42.4419 387 19.6723
42.5584 409 20.2237
42.675 372 19.2873
42.7915 404 20.0998
42.9081 354 18.8149
43.0248 336 18.3303
43.1415 368 19.1833
43.2582 383 19.5704
43.375 388 19.6977
43.4918 411 20.2731
43.6087 411 20.2731
43.7256 385 19.6214
43.8425 395 19.8746
43.9595 420 20.4939
44.0765 431 20.7605
44.1935 379 19.4679
44.3106 372 19.2873
44.4277 348 18.6548
44.5448 351 18.735
44.6619 324 18
44.7791 365 19.105
44.8963 413 20.3224
45.0136 439 20.9523
45.1308 421 20.5183
45.2481 411 20.2731
45.3654 430 20.7364
45.4827 407 20.1742
45.6001 450 21.2132
45.7174 453 21.2838
45.8348 451 21.2368
45.9522 391 19.7737
46.0697 466 21.587
46.1871 412 20.2978
46.3046 425 20.6155
46.422 364 19.0788
46.5395 367 19.1572
46.657 335 18.303
46.7745 373 19.3132
46.892 396 19.8997
47.0096 384 19.5959
47.1271 407 20.1742
47.2446 447 21.1424
47.3622 383 19.5704
47.4797 365 19.105
47.5973 405 20.1246
47.7149 374 19.3391
47.8324 350 18.7083
47.95 368 19.1833
48.0675 336 18.3303
48.1851 346 18.6011
48.3027 398 19.9499
48.4202 397 19.9249
48.5378 370 19.2354
48.6554 420 20.4939
48.7729 389 19.7231
48.8904 381 19.5192
49.008 379 19.4679
49.1255 402 20.0499
49.243 391 19.7737
49.3605 417 20.4206
49.478 390 19.7484
49.5955 392 19.799
49.713 359 18.9473
49.8304 369 19.2094
49.9479 286 16.9115
50.0653 299 17.2916
50.1827 323 17.9722
50.3001 353 18.7883
50.4175 328 18.1108
50.5348 379 19.4679
50.6521 386 19.6469
50.7694 378 19.4422
50.8867 393 19.8242
51.004 373 19.3132
51.1212 373 19.3132
51.2384 351 18.735
51.3556 401 20.025
51.4727 348 18.6548
51.5899 332 18.2209
51.707 327 18.0831
51.824 389 19.7231
51.9411 357 18.8944
52.0581 388 19.6977
52.175 401 20.025
52.2919 375 19.3649
52.4088 392 19.799
52.5257 392 19.799
52.6425 403 20.0749
52.7593 377 19.4165
52.876 397 19.9249
52.9927 418 20.445
53.1094 351 18.735
53.226 359 18.9473
53.3426 370 19.2354
53.4591 347 18.6279
53.5756 299 17.2916
53.692 286 16.9115
53.8084 329 18.1384
53.9248 291 17.0587
54.0411 311 17.6352
54.1573 280 16.7332
54.2735 0 1
54.3896 0 1
54.5057 0 1
54.6217 0 1
54.7377 0 1
54.8537 0 1
54.9695 0 1
55.0853 0 1
55.2011 0 1
55.3168 0 1
55.4324 0 1
57.824 0 1
57.9396 0 1
58.0553 0 1
58.1711 0 1
58.2869 0 1
58.4028 0 1
58.5187 0 1
58.6347 0 1
58.7508 0 1
58.8669 0 1
58.983 340 18.4391
59.0992 472 21.7256
59.2155 540 23.2379
59.3318 567 23.8118
59.4482 619 24.8797
59.5646 666 25.807
59.681 660 25.6905
59.7975 727 26.9629
59.9141 671 25.9037
60.0306 735 27.1109
60.1473 682 26.1151
60.2639 696 26.3818
60.3807 705 26.5518
60.4974 707 26.5895
60.6142 759 27.55
60.731 729 27
60.8479 753 27.4408
60.9648 700 26.4575
61.0818 729 27
61.1987 730 27.0185
61.3158 702 26.4953
61.4328 658 25.6515
61.5499 644 25.3772
61.667 626 25.02
61.7841 633 25.1595
61.9013 588 24.2487
62.0185 558 23.622
62.1357 547 23.388
62.253 484 22
62.3702 503 22.4277
62.4875 500 22.3607
62.6049 510 22.5832
62.7222 553 23.516
62.8396 533 23.0868
62.9569 508 22.5389
63.0743 518 22.7596
63.1918 490 22.1359
63.3092 481 21.9317
63.4267 468 21.6333
63.5441 489 22.1133
63.6616 432 20.7846
63.7791 457 21.3776
63.8966 446 21.1187
64.0142 480 21.9089
64.1317 512 22.6274
64.2492 492 22.1811
64.3668 464 21.5407
64.4843 436 20.8806
64.6019 450 21.2132
64.7195 465 21.5639
64.837 469 21.6564
64.9546 463 21.5174
65.0722 467 21.6102
65.1898 451 21.2368
65.3074 458 21.4009
65.4249 430 20.7364
65.5425 426 20.6398
65.6601 431 20.7605
65.7777 411 20.2731
65.8952 394 19.8494
66.0128 448 21.166
66.1304 452 21.2603
66.2479 436 20.8806
66.3655 474 21.7715
66.483 485 22.0227
66.6005 460 21.4476
66.718 450 21.2132
66.8355 485 22.0227
66.953 467 21.6102
67.0705 429 20.7123
67.1879 441 21
67.3054 420 20.4939
67.4228 415 20.3715
67.5402 460 21.4476
67.6576 431 20.7605
67.7749 476 21.8174
67.8923 443 21.0476
68.0096 421 20.5183
68.1269 450 21.2132
68.2442 412 20.2978
68.3614 435 20.8567
68.4787 450 21.2132
68.5958 440 20.9762
68.713 454 21.3073
68.8302 440 20.9762
68.9473 425 20.6155
69.0643 447 21.1424
69.1814 415 20.3715
69.2984 397 19.9249
69.4154 435 20.8567
69.5323 433 20.8087
69.6492 433 20.8087
69.7661 431 20.7605
69.8829 428 20.6882
69.9997 443 21.0476
70.1165 451 21.2368
70.2332 449 21.1896
70.3499 423 20.567
70.4665 389 19.7231
70.5831 368 19.1833
70.6996 375 19.3649
70.8161 347 18.6279
70.9326 276 16.6132
71.049 262 16.1864
71.1653 249 15.7797
71.2817 268 16.3707
71.3979 215 14.6629
71.5141 221 14.8661
71.6303 202 14.2127
71.7464 161 12.6886
71.8624 0 1
71.9784 0 1
72.0944 0 1
72.2102 0 1
72.3261 0 1
72.4418 0 1
72.5575 0 1
72.6732 0 1
75.1054 0 1
75.2209 0 1
75.3365 0 1
75.4521 0 1
75.5678 0 1
75.6835 0 1
75.7993 0 1
75.9151 0 1
76.031 0 1
76.147 245 15.6525
76.263 314 17.72
76.3791 347 18.6279
76.4952 365 19.105
76.6113 361 19
76.7276 379 19.4679
76.8438 386 19.6469
76.9601 380 19.4936
77.0765 371 19.2614
77.1929 356 18.868
77.3093 392 19.799
77.4258 397 19.9249
77.5423 372 19.2873
77.6589 360 18.9737
77.7755 382 19.5448
77.8921 400 20
78.0088 392 19.799
78.1256 365 19.105
78.2423 342 18.4932
78.3591 326 18.0555
78.4759 321 17.9165
78.5928 356 18.868
78.7097 323 17.9722
78.8266 342 18.4932
78.9436 373 19.3132
79.0606 414 20.347
79.1776 387 19.6723
79.2946 391 19.7737
79.4117 416 20.3961
79.5288 395 19.8746
79.6459 362 19.0263
79.7631 367 19.1572
79.8802 383 19.5704
79.9974 371 19.2614
80.1147 392 19.799
80.2319 382 19.5448
80.3491 411 20.2731
80.4664 433 20.8087
80.5837 380 19.4936
80.701 358 18.9209
80.8183 404 20.0998
80.9357 375 19.3649
81.053 373 19.3132
81.1704 390 19.7484
81.2877 416 20.3961
81.4051 410 20.2485
81.5225 396 19.8997
81.6399 391 19.7737
81.7573 353 18.7883
81.8747 365 19.105
81.9922 355 18.8414
82.1096 371 19.2614
82.227 369 19.2094
82.3444 365 19.105
82.4619 375 19.3649
82.5793 386 19.6469
82.6967 392 19.799
82.8142 418 20.445
82.9316 435 20.8567
83.049 397 19.9249
83.1664 381 19.5192
83.2838 352 18.7617
83.4012 379 19.4679
83.5186 362 19.0263
83.636 384 19.5959
83.7534 374 19.3391
83.8708 376 19.3907
83.9881 377 19.4165
84.1055 402 20.0499
84.2228 430 20.7364
84.3401 379 19.4679
84.4575 422 20.5426
84.5747 374 19.3391
84.692 411 20.2731
84.8093 411 20.2731
84.9265 429 20.7123
85.0437 413 20.3224
85.1609 372 19.2873
85.2781 410 20.2485
85.3952 356 18.868
85.5123 353 18.7883
85.6294 357 18.8944
85.7465 406 20.1494
85.8636 377 19.4165
85.9806 354 18.8149
86.0976 356 18.868
86.2145 414 20.347
86.3315 398 19.9499
86.4484 423 20.567
86.5652 414 20.347
86.682 417 20.4206
86.7988 417 20.4206
86.9156 372 19.2873
87.0323 380 19.4936
87.149 402 20.0499
87.2657 374 19.3391
87.3823 400 20
87.4988 423 20.567
87.6154 354 18.8149
87.7318 419 20.4695
87.8483 356 18.868
87.9647 359 18.9473
88.081 332 18.2209
88.1973 316 17.7764
88.3136 285 16.8819
88.4298 265 16.2788
88.546 230 15.1658
88.6621 217 14.7309
88.7781 208 14.4222
88.8942 0 1
89.0101 0 1
89.126 0 1
89.2419 0 1
89.3577 0 1
89.4734 0 1
89.5891 0 1
89.7047 0 1
89.8203 0 1
89.9358 0 1
92.3269 0 1
92.4424 0 1
92.558 0 1
92.6736 0 1
92.7893 0 1
92.905 0 1
93.0208 0 1
93.1366 0 1
93.2525 0 1
93.3685 0 1
93.4845 0 1
93.6005 336 18.3303
93.7167 299 17.2916
93.8328 386 19.6469
93.949 378 19.4422
94.0653 411 20.2731
94.1816 395 19.8746
94.2979 388 19.6977
94.4143 420 20.4939
94.5307 379 19.4679
94.6472 429 20.7123
94.7637 404 20.0998
94.8803 364 19.0788
94.9969 345 18.5742
95.1135 418 20.445
95.2302 413 20.3224
95.3469 398 19.9499
95.4637 384 19.5959
95.5805 428 20.6882
95.6973 425 20.6155
95.8142 419 20.4695
95.9311 413 20.3224
96.048 386 19.6469
96.1649 400 20
96.2819 378 19.4422
96.3989 397 19.9249
96.516 425 20.6155
96.633 450 21.2132
96.7501 431 20.7605
96.8673 443 21.0476
96.9844 447 21.1424
97.1016 411 20.2731
97.2188 422 20.5426
97.336 443 21.0476
97.4532 432 20.7846
97.5704 426 20.6398
97.6877 434 20.8327
97.805 403 20.0749
97.9223 454 21.3073
98.0396 416 20.3961
98.1569 395 19.8746
98.2743 396 19.8997
98.3916 430 20.7364
98.509 398 19.9499
98.6264 418 20.445
98.7438 425 20.6155
98.8612 400 20
98.9786 418 20.445
99.096 445 21.095
99.2134 523 22.8692
99.3308 475 21.7945
99.4482 430 20.7364
99.5656 462 21.4942
99.6831 404 20.0998
99.8005 454 21.3073
99.9179 464 21.5407
100.035 467 21.6102
100.153 470 21.6795
100.27 456 21.3542
100.388 480 21.9089
100.505 487 22.0681
100.622 462 21.4942
100.74 494 22.2261
100.857 443 21.0476
100.975 455 21.3307
101.092 443 21.0476
101.209 453 21.2838
101.327 454 21.3073
101.444 427 20.664
101.561 474 21.7715
101.679 466 21.587
101.796 463 21.5174
101.913 450 21.2132
102.03 390 19.7484
102.148 403 20.0749
102.265 459 21.4243
102.382 452 21.2603
102.499 452 21.2603
102.616 508 22.5389
102.733 503 22.4277
102.851 499 22.3383
102.968 496 22.2711
103.085 506 22.4944
103.202 500 22.3607
103.319 460 21.4476
103.436 482 21.9545
103.552 510 22.5832
103.669 490 22.1359
103.786 491 22.1585
103.903 523 22.8692
104.02 471 21.7025
104.137 516 22.7156
104.253 501 22.383
104.37 481 21.9317
104.487 508 22.5389
104.603 496 22.2711
104.72 458 21.4009
104.836 449 21.1896
104.953 461 21.4709
105.069 439 20.9523
105.186 443 21.0476
105.302 398 19.9499
105.418 376 19.3907
105.535 368 19.1833
105.651 362 19.0263
105.767 289 17
105.883 296 17.2047
105.999 271 16.4621
106.115 0 1
106.231 0 1
106.347 0 1
106.463 0 1
106.579 0 1
106.694 0 1
106.81 0 1
106.926 0 1
107.041 0 1
107.157 0 1
109.576 0 1
109.692 0 1
109.807 0 1
109.923 0 1
110.039 0 1
110.155 0 1
110.27 0 1
110.386 0 1
110.502 0 1
110.618 230 15.1658
110.735 271 16.4621
110.851 311 17.6352
110.967 327 18.0831
111.083 358 18.9209
111.199 395 19.8746
111.316 431 20.7605
111.432 465 21.5639
111.549 482 21.9545
111.665 468 21.6333
111.782 479 21.8861
111.898 413 20.3224
112.015 453 21.2838
112.132 443 21.0476
112.248 464 21.5407
112.365 456 21.3542
112.482 472 21.7256
112.599 451 21.2368
112.716 464 21.5407
112.832 469 21.6564
112.949 456 21.3542
113.066 413 20.3224
113.183 416 20.3961
113.3 430 20.7364
113.417 406 20.1494
113.534 444 21.0713
113.652 485 22.0227
113.769 464 21.5407
113.886 433 20.8087
114.003 446 21.1187
114.12 454 21.3073
114.238 425 20.6155
114.355 452 21.2603
114.472 425 20.6155
114.589 394 19.8494
114.707 424 20.5913
114.824 430 20.7364
114.942 408 20.199
115.059 484 22
115.176 426 20.6398
115.294 467 21.6102
115.411 453 21.2838
115.529 424 20.5913
115.646 382 19.5448
115.764 410 20.2485
115.881 408 20.199
115.999 430 20.7364
116.116 428 20.6882
116.234 469 21.6564
116.351 393 19.8242
116.469 437 20.9045
116.586 381 19.5192
116.704 404 20.0998
116.821 412 20.2978
116.939 401 20.025
117.056 386 19.6469
117.174 442 21.0238
117.291 397 19.9249
117.409 412 20.2978
117.526 398 19.9499
117.644 372 19.2873
117.761 369 19.2094
117.879 367 19.1572
117.996 335 18.303
118.114 356 18.868
118.231 382 19.5448
118.349 412 20.2978
118.466 400 20
118.584 419 20.4695
118.701 376 19.3907
118.819 439 20.9523
118.936 376 19.3907
119.053 400 20
119.171 388 19.6977
119.288 375 19.3649
119.405 368 19.1833
119.523 385 19.6214
119.64 383 19.5704
119.757 378 19.4422
119.875 398 19.9499
119.992 365 19.105
120.109 402 20.0499
120.226 373 19.3132
120.343 367 19.1572
120.46 376 19.3907
120.578 370 19.2354
120.695 370 19.2354
120.812 372 19.2873
120.929 366 19.1311
121.046 379 19.4679
121.163 390 19.7484
121.279 376 19.3907
121.396 363 19.0526
121.513 357 18.8944
121.63 317 17.8045
121.747 320 17.8885
121.863 334 18.2757
121.98 317 17.8045
122.097 315 17.7482
122.213 308 17.5499
122.33 323 17.9722
122.446 277 16.6433
122.563 313 17.6918
122.679 268 16.3707
122.795 258 16.0624
122.912 247 15.7162
123.028 216 14.6969
123.144 190 13.784
123.26 194 13.9284
123.377 0 1
123.493 0 1
123.609 0 1
123.725 0 1
123.84 0 1
123.956 0 1
124.072 0 1
124.188 0 1
124.303 0 1
124.419 0 1
126.852 0 1
126.968 0 1
127.083 0 1
127.199 0 1
127.315 0 1
127.431 0 1
127.547 0 1
127.663 0 1
127.779 0 1
127.895 0 1
128.011 0 1
128.127 0 1
128.243 0 1
128.359 379 19.4679
128.476 402 20.0499
128.592 409 20.2237
128.708 419 20.4695
128.825 453 21.2838
128.941 448 21.166
129.058 448 21.166
129.174 485 22.0227
129.291 408 20.199
129.408 440 20.9762
129.524 449 21.1896
129.641 448 21.166
129.758 425 20.6155
129.875 432 20.7846
129.992 457 21.3776
130.108 492 22.1811
130.225 458 21.4009
130.342 397 19.9249
130.459 412 20.2978
130.576 406 20.1494
130.693 377 19.4165
130.81 426 20.6398
130.928 452 21.2603
131.045 451 21.2368
131.162 487 22.0681
131.279 539 23.2164
131.396 524 22.891
131.513 558 23.622
131.631 598 24.454
131.748 595 24.3926
131.865 537 23.1733
131.983 565 23.7697
132.1 554 23.5372
132.217 605 24.5967
132.335 648 25.4558
132.452 698 26.4197
132.57 741 27.2213
132.687 753 27.4408
132.804 754 27.4591
132.922 747 27.3313
133.039 791 28.1247
133.157 853 29.2062
133.274 794 28.178
133.392 796 28.2135
133.509 841 29
133.627 838 28.9482
133.744 764 27.6405
133.862 798 28.2489
133.979 768 27.7128
134.097 780 27.9285
134.214 703 26.5141
134.332 759 27.55
134.449 791 28.1247
134.567 742 27.2397
134.684 765 27.6586
134.802 780 27.9285
134.919 755 27.4773
135.037 818 28.6007
135.154 855 29.2404
135.272 824 28.7054
135.389 809 28.4429
135.507 734 27.0924
135.624 696 26.3818
135.742 765 27.6586
135.859 730 27.0185
135.977 741 27.2213
136.094 831 28.8271
136.211 793 28.1603
136.329 812 28.4956
136.446 819 28.6182
136.564 810 28.4605
136.681 815 28.5482
136.798 830 28.8097
136.915 835 28.8964
137.033 846 29.0861
137.15 819 28.6182
137.267 848 29.1204
137.384 859 29.3087
137.502 775 27.8388
137.619 756 27.4955
137.736 791 28.1247
137.853 758 27.5318
137.97 780 27.9285
138.087 733 27.074
138.204 774 27.8209
138.321 789 28.0891
138.438 878 29.6311
138.555 831 28.8271
138.672 854 29.2233
138.788 861 29.3428
138.905 814 28.5307
139.022 800 28.2843
139.139 734 27.0924
139.255 698 26.4197
139.372 630 25.0998
139.488 649 25.4755
139.605 672 25.923
139.721 660 25.6905
139.838 627 25.04
139.954 592 24.3311
140.071 551 23.4734
140.187 544 23.3238
140.303 478 21.8632
140.419 491 22.1585
140.535 480 21.9089
140.652 471 21.7025
140.768 0 1
140.884 0 1
141 0 1
141.115 0 1
141.231 0 1
141.347 0 1
141.463 0 1
141.578 0 1
141.694 0 1
144.104 0 1
144.219 0 1
144.335 0 1
144.45 0 1
144.566 0 1
144.682 0 1
144.798 0 1
144.914 0 1
145.03 0 1
145.146 898 29.9666
145.262 1040 32.249
145.378 1099 33.1512
145.494 1124 33.5261
145.61 1174 34.2637
145.726 1143 33.8083
145.842 1161 34.0735
145.959 1180 34.3511
146.075 1158 34.0294
146.192 1296 36
146.308 1294 35.9722
146.425 1350 36.7423
146.541 1284 35.8329
146.658 1361 36.8917
146.774 1290 35.9166
146.891 1366 36.9594
147.008 1374 37.0675
147.125 1250 35.3553
147.241 1280 35.7771
147.358 1416 37.6298
147.475 1461 38.223
147.592 1507 38.8201
147.709 1590 39.8748
147.826 1553 39.4081
147.943 1460 38.2099
148.06 1493 38.6394
148.177 1321 36.3456
148.294 1469 38.3275
148.411 1511 38.8716
148.528 1469 38.3275
148.645 1536 39.1918
148.762 1463 38.2492
148.88 1511 38.8716
148.997 1503 38.7685
149.114 1460 38.2099
149.231 1473 38.3797
149.349 1497 38.6911
149.466 1538 39.2173
149.583 1568 39.598
149.701 1501 38.7427
149.818 1499 38.7169
149.935 1417 37.6431
150.053 1377 37.108
150.17 1348 36.7151
150.287 1264 35.5528
150.405 1296 36
150.522 1255 35.426
150.64 1190 34.4964
150.757 1255 35.426
150.875 1226 35.0143
150.992 1227 35.0286
151.11 1265 35.5668
151.227 1289 35.9026
151.344 1334 36.524
151.462 1348 36.7151
151.579 1250 35.3553
151.697 1222 34.9571
151.814 1209 34.7707
151.932 1298 36.0278
152.049 1213 34.8281
152.167 1296 36
152.284 1278 35.7491
152.402 1261 35.5106
152.519 1307 36.1525
152.636 1264 35.5528
152.754 1275 35.7071
152.871 1231 35.0856
152.989 1253 35.3977
153.106 1265 35.5668
153.223 1289 35.9026
153.341 1267 35.5949
153.458 1159 34.0441
153.575 1167 34.1614
153.693 1121 33.4813
153.81 1002 31.6544
153.927 1140 33.7639
154.044 1098 33.1361
154.162 1140 33.7639
154.279 1088 32.9848
154.396 1071 32.7261
154.513 1096 33.1059
154.63 1186 34.4384
154.747 1213 34.8281
154.864 1189 34.4819
154.981 1265 35.5668
155.098 1229 35.0571
155.215 1115 33.3916
155.332 1089 33
155.449 1127 33.5708
155.566 1211 34.7994
155.683 1221 34.9428
155.8 1194 34.5543
155.917 1151 33.9264
156.033 1247 35.3129
156.15 0 1
156.267 0 1
156.383 0 1
156.5 0 1
156.617 0 1
156.733 0 1
156.85 0 1
156.966 0 1
157.082 0 1
157.199 0 1
157.315 0 1
157.431 0 1
157.547 0 1
157.664 0 1
157.78 0 1
157.896 0 1
158.012 0 1
158.128 0 1
158.244 0 1
158.359 0 1
158.475 0 1
158.591 0 1
158.706 0 1
