
6.15755 0 1
6.2731 0 1
6.3887 0 1
6.50437 0 1
6.62009 0 1
6.73587 0 1
6.8517 0 1
6.96759 0 1
7.08353 0 1
7.19952 0 1
7.31557 0 1
7.43166 0 1
7.54781 0 1
7.664 0 1
7.78024 0 1
7.89653 0 1
8.01286 0 1
8.12924 0 1
8.24567 0 1
8.36213 0 1
8.47864 0 1
8.59519 0 1
8.71178 0 1
8.82841 0 1
8.94508 0 1
9.06179 0 1
9.17853 0 1
9.29531 0 1
9.41212 0 1
9.52897 0 1
9.64584 0 1
9.76276 0 1
9.8797 0 1
9.99667 0 1
10.1137 0 1
10.2307 0 1
10.3478 0 1
10.4648 0 1
10.5819 0 1
10.6991 0 1
10.8162 0 1
10.9334 0 1
11.0506 0 1
11.1678 0 1
11.285 0 1
11.4023 0 1
11.5196 0 1
11.6369 0 1
11.7542 0 1
11.8715 0 1
11.9888 0 1
12.1062 0 1
12.2235 0 1
12.3409 0 1
12.4582 0 1
12.5756 0 1
12.693 0 1
12.8104 0 1
12.9278 0 1
13.0452 0 1
13.1626 0 1
13.28 0 1
13.3974 0 1
13.5149 0 1
13.6323 0 1
13.7497 0 1
13.8671 0 1
13.9845 0 1
14.1019 0 1
14.2193 0 1
14.3367 0 1
14.4541 0 1
14.5714 0 1
14.6888 0 1
14.8062 0 1
14.9235 0 1
15.0408 0 0
15.1581 0 0
15.2755 0 0
15.3927 0 0
15.51 0 0
15.6273 0 0
15.7445 0 0
15.8617 0 0
15.9789 0 0
16.0961 0 0
16.2132 0 0
16.3304 0 0
16.4475 0 0
16.5646 0 0
16.6816 0 0
16.7986 0 0
16.9156 0 0
17.0326 0 0
17.1496 0 0
17.2665 0 0
17.3833 0 0
17.5002 0 0
17.617 0 0
17.7338 0 0
17.8505 0 0
17.9672 0 0
18.0839 0 0
18.2005 0 0
18.3171 0 0
18.4337 0 0
18.5502 0 0
18.6666 0 0
18.7831 0 0
18.8994 0 0
19.0158 0 0
19.1321 0 0
19.2483 0 0
19.3645 0 0
19.4806 0 0
19.5967 0 0
19.7128 0 0
19.8288 0 0
19.9447 0 0
20.0606 0 1
20.1764 0 1
20.2922 0 1
20.4079 0 1
20.5236 0 1
20.6392 0 1
20.7548 0 1
20.8702 0 1
23.3078 0 1
23.4233 0 1
23.539 0 1
23.6547 0 1
23.7704 0 1
23.8862 0 1
24.0021 0 1
24.118 0 1
24.234 0 1
24.35 0 1
24.4661 1187 34.4529
24.5822 1197 34.5977
24.6984 1157 34.0147
24.8146 1221 34.9428
24.9309 1203 34.6843
25.0472 1175 34.2783
25.1636 1237 35.171
25.28 1178 34.322
25.3965 1319 36.318
25.513 1285 35.8469
25.6296 1270 35.6371
25.7462 1364 36.9324
25.8628 1436 37.8946
25.9795 1406 37.4967
26.0962 1485 38.5357
26.213 1378 37.1214
26.3298 1490 38.6005
26.4466 1388 37.2559
26.5635 1404 37.47
26.6804 1355 36.8103
26.7973 1307 36.1525
26.9143 1276 35.7211
27.0313 1321 36.3456
27.1483 1407 37.51
27.2653 1416 37.6298
27.3824 1420 37.6829
27.4996 1423 37.7227
27.6167 1423 37.7227
27.7339 1422 37.7094
27.8511 1377 37.108
27.9683 1461 38.223
28.0855 1452 38.1051
28.2028 1419 37.6696
28.3201 1375 37.081
28.4374 1359 36.8646
28.5547 1374 37.0675
28.6721 1347 36.7015
28.7894 1352 36.7696
28.9068 1405 37.4833
29.0242 1441 37.9605
29.1416 1385 37.2156
29.259 1446 38.0263
29.3764 1532 39.1408
29.4939 1554 39.4208
29.6113 1529 39.1024
29.7288 1555 39.4335
29.8463 1517 38.9487
29.9638 1467 38.3014
30.0812 1446 38.0263
30.1987 1489 38.5876
30.3162 1281 35.7911
30.4337 1231 35.0856
30.5512 1297 36.0139
30.6687 1316 36.2767
30.7862 1407 37.51
30.9037 1356 36.8239
31.0212 1440 37.9473
31.1387 1339 36.5923
31.2562 1385 37.2156
31.3737 1292 35.9444
31.4912 1301 36.0694
31.6087 1309 36.1801
31.7262 1346 36.6879
31.8436 1359 36.8646
31.9611 1277 35.7351
32.0785 1300 36.0555
32.1959 1301 36.0694
32.3134 1165 34.1321
32.4308 1273 35.6791
32.5482 1271 35.6511
32.6655 1259 35.4824
32.7829 1275 35.7071
32.9002 1308 36.1663
33.0176 1319 36.318
33.1349 1337 36.565
33.2522 1364 36.9324
33.3694 1309 36.1801
33.4867 1283 35.819
33.6039 1369 37
33.7211 1320 36.3318
33.8383 1271 35.6511
33.9554 1222 34.9571
34.0725 1149 33.8969
34.1896 1154 33.9706
34.3067 1164 34.1174
34.4237 1299 36.0416
34.5407 1216 34.8712
34.6577 1187 34.4529
34.7746 1210 34.7851
34.8915 1173 34.2491
35.0084 1127 33.5708
35.1252 1151 33.9264
35.242 1238 35.1852
35.3587 1181 34.3657
35.4755 1211 34.7994
35.5921 1232 35.0999
35.7088 1152 33.9411
35.8254 1153 33.9559
35.9419 1078 32.8329
36.0584 1215 34.8569
36.1749 1182 34.3802
36.2913 1125 33.541
36.4077 1199 34.6266
36.524 1131 33.6303
36.6403 1251 35.3695
36.7565 1267 35.5949
36.8727 1241 35.2278
36.9889 1203 34.6843
37.1049 1285 35.8469
37.221 0 1
37.3369 0 1
37.4529 0 1
37.5687 0 1
37.6845 0 1
37.8003 0 1
37.916 0 1
38.0316 0 1
38.1472 0 1
40.5851 0 1
40.7008 0 1
40.8164 0 1
40.9322 0 1
41.048 0 1
41.1639 0 1
41.2798 0 1
41.3958 0 1
41.5118 0 1
41.6279 0 1
41.744 964 31.0483
41.8602 989 31.4484
41.9765 1073 32.7567
42.0928 1086 32.9545
42.2091 1054 32.4654
42.3255 1039 32.2335
42.4419 1042 32.28
42.5584 1053 32.45
42.675 1020 31.9374
42.7915 998 31.5911
42.9081 914 30.2324
43.0248 871 29.5127
43.1415 966 31.0805
43.2582 953 30.8707
43.375 1019 31.9218
43.4918 1028 32.0624
43.6087 994 31.5278
43.7256 958 30.9516
43.8425 913 30.2159
43.9595 932 30.5287
44.0765 895 29.9166
44.1935 953 30.8707
44.3106 945 30.7409
44.4277 908 30.133
44.5448 869 29.4788
44.6619 803 28.3373
44.7791 811 28.4781
44.8963 784 28
45.0136 780 27.9285
45.1308 827 28.7576
45.2481 841 29
45.3654 843 29.0345
45.4827 833 28.8617
45.6001 813 28.5132
45.7174 865 29.4109
45.8348 799 28.2666
45.9522 806 28.3901
46.0697 826 28.7402
46.1871 792 28.1425
46.3046 784 28
46.422 764 27.6405
46.5395 681 26.096
46.657 736 27.1293
46.7745 702 26.4953
46.892 752 27.4226
47.0096 751 27.4044
47.1271 709 26.6271
47.2446 778 27.8927
47.3622 728 26.9815
47.4797 711 26.6646
47.5973 716 26.7582
47.7149 700 26.4575
47.8324 654 25.5734
47.95 671 25.9037
48.0675 638 25.2587
48.1851 636 25.219
48.3027 584 24.1661
48.4202 627 25.04
48.5378 613 24.7588
48.6554 666 25.807
48.7729 617 24.8395
48.8904 637 25.2389
49.008 668 25.8457
49.1255 603 24.5561
49.243 637 25.2389
49.3605 683 26.1343
49.478 683 26.1343
49.5955 647 25.4362
49.713 670 25.8844
49.8304 631 25.1197
49.9479 536 23.1517
50.0653 552 23.4947
50.1827 624 24.98
50.3001 657 25.632
50.4175 687 26.2107
50.5348 692 26.3059
50.6521 786 28.0357
50.7694 711 26.6646
50.8867 675 25.9808
51.004 699 26.4386
51.1212 676 26
51.2384 751 27.4044
51.3556 782 27.9643
51.4727 774 27.8209
51.5899 766 27.6767
51.707 766 27.6767
51.824 783 27.9821
51.9411 807 28.4077
52.0581 817 28.5832
52.175 873 29.5466
52.2919 956 30.9192
52.4088 888 29.7993
52.5257 934 30.5614
52.6425 960 30.9839
52.7593 892 29.8664
52.876 980 31.305
52.9927 983 31.3528
53.1094 949 30.8058
53.226 1013 31.8277
53.3426 1017 31.8904
53.4591 934 30.5614
53.5756 909 30.1496
53.692 849 29.1376
53.8084 948 30.7896
53.9248 981 31.3209
54.0411 932 30.5287
54.1573 971 31.1609
54.2735 0 1
54.3896 0 1
54.5057 0 1
54.6217 0 1
54.7377 0 1
54.8537 0 1
54.9695 0 1
55.0853 0 1
55.2011 0 1
55.3168 0 1
55.4324 0 1
57.824 0 1
57.9396 0 1
58.0553 0 1
58.1711 0 1
58.2869 0 1
58.4028 0 1
58.5187 0 1
58.6347 0 1
58.7508 0 1
58.8669 0 1
58.983 1026 32.0312
59.0992 1136 33.7046
59.2155 1118 33.4365
59.3318 1122 33.4963
59.4482 1171 34.2199
59.5646 1178 34.322
59.681 1179 34.3366
59.7975 1130 33.6155
59.9141 1117 33.4215
60.0306 1092 33.0454
60.1473 1099 33.1512
60.2639 1105 33.2415
60.3807 1026 32.0312
60.4974 983 31.3528
60.6142 1006 31.7175
60.731 1075 32.7872
60.8479 1006 31.7175
60.9648 1086 32.9545
61.0818 1099 33.1512
61.1987 1084 32.9242
61.3158 1100 33.1662
61.4328 1127 33.5708
61.5499 1071 32.7261
61.667 1110 33.3167
61.7841 1088 32.9848
61.9013 1094 33.0757
62.0185 1056 32.4962
62.1357 930 30.4959
62.253 916 30.2655
62.3702 894 29.8998
62.4875 965 31.0644
62.6049 1119 33.4515
62.7222 1064 32.619
62.8396 1056 32.4962
62.9569 1091 33.0303
63.0743 1111 33.3317
63.1918 1062 32.5883
63.3092 1026 32.0312
63.4267 950 30.8221
63.5441 993 31.5119
63.6616 972 31.1769
63.7791 989 31.4484
63.8966 941 30.6757
64.0142 945 30.7409
64.1317 901 30.0167
64.2492 947 30.7734
64.3668 1018 31.9061
64.4843 986 31.4006
64.6019 1004 31.686
64.7195 1044 32.311
64.837 1034 32.1559
64.9546 1046 32.3419
65.0722 1073 32.7567
65.1898 1011 31.7962
65.3074 1027 32.0468
65.4249 984 31.3688
65.5425 901 30.0167
65.6601 923 30.3809
65.7777 847 29.1033
65.8952 837 28.931
66.0128 902 30.0333
66.1304 930 30.4959
66.2479 1023 31.9844
66.3655 1059 32.5423
66.483 1043 32.2955
66.6005 1043 32.2955
66.718 1027 32.0468
66.8355 972 31.1769
66.953 1018 31.9061
67.0705 890 29.8329
67.1879 945 30.7409
67.3054 872 29.5296
67.4228 935 30.5778
67.5402 870 29.4958
67.6576 905 30.0832
67.7749 845 29.0689
67.8923 950 30.8221
68.0096 917 30.282
68.1269 1004 31.686
68.2442 1006 31.7175
68.3614 1023 31.9844
68.4787 1056 32.4962
68.5958 1040 32.249
68.713 1079 32.8481
68.8302 1077 32.8177
68.9473 1035 32.1714
69.0643 1066 32.6497
69.1814 977 31.257
69.2984 1007 31.7333
69.4154 971 31.1609
69.5323 881 29.6816
69.6492 961 31
69.7661 1013 31.8277
69.8829 1105 33.2415
69.9997 1113 33.3617
70.1165 1065 32.6343
70.2332 1132 33.6452
70.3499 1148 33.8821
70.4665 1180 34.3511
70.5831 1053 32.45
70.6996 968 31.1127
70.8161 980 31.305
70.9326 951 30.8383
71.049 942 30.692
71.1653 984 31.3688
71.2817 975 31.225
71.3979 922 30.3645
71.5141 960 30.9839
71.6303 987 31.4166
71.7464 938 30.6268
71.8624 0 1
71.9784 0 1
72.0944 0 1
72.2102 0 1
72.3261 0 1
72.4418 0 1
72.5575 0 1
72.6732 0 1
75.1054 0 1
75.2209 0 1
75.3365 0 1
75.4521 0 1
75.5678 0 1
75.6835 0 1
75.7993 0 1
75.9151 0 1
76.031 0 1
76.147 814 28.5307
76.263 888 29.7993
76.3791 941 30.6757
76.4952 961 31
76.6113 998 31.5911
76.7276 1069 32.6956
76.8438 1070 32.7109
76.9601 1061 32.573
77.0765 1089 33
77.1929 1045 32.3265
77.3093 1083 32.909
77.4258 1070 32.7109
77.5423 1097 33.121
77.6589 1058 32.5269
77.7755 1075 32.7872
77.8921 1058 32.5269
78.0088 1066 32.6497
78.1256 1035 32.1714
78.2423 969 31.1288
78.3591 954 30.8869
78.4759 835 28.8964
78.5928 893 29.8831
78.7097 1009 31.7648
78.8266 982 31.3369
78.9436 1167 34.1614
79.0606 1092 33.0454
79.1776 1135 33.6898
79.2946 1164 34.1174
79.4117 1068 32.6803
79.5288 1113 33.3617
79.6459 1022 31.9687
79.7631 972 31.1769
79.8802 925 30.4138
79.9974 845 29.0689
80.1147 834 28.8791
80.2319 972 31.1769
80.3491 1006 31.7175
80.4664 987 31.4166
80.5837 1034 32.1559
80.701 1040 32.249
80.8183 959 30.9677
80.9357 1066 32.6497
81.053 1053 32.45
81.1704 945 30.7409
81.2877 933 30.545
81.4051 984 31.3688
81.5225 980 31.305
81.6399 950 30.8221
81.7573 990 31.4643
81.8747 890 29.8329
81.9922 868 29.4618
82.1096 855 29.2404
82.227 815 28.5482
82.3444 888 29.7993
82.4619 884 29.7321
82.5793 1019 31.9218
82.6967 990 31.4643
82.8142 1043 32.2955
82.9316 1015 31.8591
83.049 1024 32
83.1664 1006 31.7175
83.2838 942 30.692
83.4012 843 29.0345
83.5186 776 27.8568
83.636 709 26.6271
83.7534 785 28.0179
83.8708 869 29.4788
83.9881 831 28.8271
84.1055 952 30.8545
84.2228 938 30.6268
84.3401 928 30.4631
84.4575 982 31.3369
84.5747 980 31.305
84.692 917 30.282
84.8093 997 31.5753
84.9265 923 30.3809
85.0437 957 30.9354
85.1609 958 30.9516
85.2781 897 29.95
85.3952 855 29.2404
85.5123 874 29.5635
85.6294 857 29.2746
85.7465 808 28.4253
85.8636 883 29.7153
85.9806 960 30.9839
86.0976 1017 31.8904
86.2145 1016 31.8748
86.3315 1073 32.7567
86.4484 1020 31.9374
86.5652 1174 34.2637
86.682 1150 33.9116
86.7988 1093 33.0606
86.9156 1074 32.7719
87.0323 993 31.5119
87.149 893 29.8831
87.2657 860 29.3258
87.3823 897 29.95
87.4988 970 31.1448
87.6154 1050 32.4037
87.7318 1093 33.0606
87.8483 1070 32.7109
87.9647 1172 34.2345
88.081 1163 34.1028
88.1973 1146 33.8526
88.3136 1133 33.6601
88.4298 1161 34.0735
88.546 1149 33.8969
88.6621 1125 33.541
88.7781 1151 33.9264
88.8942 0 1
89.0101 0 1
89.126 0 1
89.2419 0 1
89.3577 0 1
89.4734 0 1
89.5891 0 1
89.7047 0 1
89.8203 0 1
89.9358 0 1
92.3269 0 1
92.4424 0 1
92.558 0 1
92.6736 0 1
92.7893 0 1
92.905 0 1
93.0208 0 1
93.1366 0 1
93.2525 0 1
93.3685 0 1
93.4845 0 1
93.6005 1080 32.8634
93.7167 1179 34.3366
93.8328 1187 34.4529
93.949 1143 33.8083
94.0653 1150 33.9116
94.1816 1128 33.5857
94.2979 1067 32.665
94.4143 1069 32.6956
94.5307 1023 31.9844
94.6472 988 31.4325
94.7637 1014 31.8434
94.8803 1033 32.1403
94.9969 1081 32.8786
95.1135 1160 34.0588
95.2302 1095 33.0908
95.3469 1179 34.3366
95.4637 1155 33.9853
95.5805 1241 35.2278
95.6973 1234 35.1283
95.8142 1206 34.7275
95.9311 1246 35.2987
96.048 1160 34.0588
96.1649 1095 33.0908
96.2819 996 31.5595
96.3989 920 30.3315
96.516 876 29.5973
96.633 966 31.0805
96.7501 1051 32.4191
96.8673 1128 33.5857
96.9844 1180 34.3511
97.1016 1129 33.6006
97.2188 1171 34.2199
97.336 1223 34.9714
97.4532 1174 34.2637
97.5704 1106 33.2566
97.6877 1110 33.3167
97.805 1136 33.7046
97.9223 1095 33.0908
98.0396 1069 32.6956
98.1569 1025 32.0156
98.2743 945 30.7409
98.3916 970 31.1448
98.509 1030 32.0936
98.6264 1084 32.9242
98.7438 1078 32.8329
98.8612 1138 33.7343
98.9786 1151 33.9264
99.096 1235 35.1426
99.2134 1210 34.7851
99.3308 1235 35.1426
99.4482 1252 35.3836
99.5656 1212 34.8138
99.6831 1138 33.7343
99.8005 1070 32.7109
99.9179 983 31.3528
100.035 939 30.6431
100.153 988 31.4325
100.27 1106 33.2566
100.388 1149 33.8969
100.505 1155 33.9853
100.622 1170 34.2053
100.74 1149 33.8969
100.857 1248 35.327
100.975 1150 33.9116
101.092 1193 34.5398
101.209 1171 34.2199
101.327 1219 34.9142
101.444 1136 33.7046
101.561 1117 33.4215
101.679 1024 32
101.796 989 31.4484
101.913 1048 32.3728
102.03 1050 32.4037
102.148 1072 32.7414
102.265 1143 33.8083
102.382 1204 34.6987
102.499 1207 34.7419
102.616 1231 35.0856
102.733 1275 35.7071
102.851 1273 35.6791
102.968 1358 36.8511
103.085 1295 35.9861
103.202 1223 34.9714
103.319 1191 34.5109
103.436 1127 33.5708
103.552 947 30.7734
103.669 957 30.9354
103.786 1090 33.0151
103.903 1185 34.4238
104.02 1202 34.6699
104.137 1247 35.3129
104.253 1284 35.8329
104.37 1305 36.1248
104.487 1299 36.0416
104.603 1291 35.9305
104.72 1212 34.8138
104.836 1248 35.327
104.953 1175 34.2783
105.069 1130 33.6155
105.186 1106 33.2566
105.302 1095 33.0908
105.418 1004 31.686
105.535 1130 33.6155
105.651 1291 35.9305
105.767 1305 36.1248
105.883 1332 36.4966
105.999 1364 36.9324
106.115 0 1
106.231 0 1
106.347 0 1
106.463 0 1
106.579 0 1
106.694 0 1
106.81 0 1
106.926 0 1
107.041 0 1
107.157 0 1
109.576 0 1
109.692 0 1
109.807 0 1
109.923 0 1
110.039 0 1
110.155 0 1
110.27 0 1
110.386 0 1
110.502 0 1
110.618 1105 33.2415
110.735 1210 34.7851
110.851 1246 35.2987
110.967 1284 35.8329
111.083 1313 36.2353
111.199 1234 35.1283
111.316 1443 37.9868
111.432 1324 36.3868
111.549 1275 35.7071
111.665 1267 35.5949
111.782 1258 35.4683
111.898 1204 34.6987
112.015 1041 32.2645
112.132 979 31.289
112.248 1001 31.6386
112.365 1087 32.9697
112.482 1173 34.2491
112.599 1251 35.3695
112.716 1219 34.9142
112.832 1241 35.2278
112.949 1210 34.7851
113.066 1258 35.4683
113.183 1192 34.5254
113.3 1228 35.0428
113.417 1189 34.4819
113.534 1183 34.3948
113.652 1062 32.5883
113.769 1056 32.4962
113.886 968 31.1127
114.003 998 31.5911
114.12 1095 33.0908
114.238 1168 34.176
114.355 1206 34.7275
114.472 1183 34.3948
114.589 1301 36.0694
114.707 1290 35.9166
114.824 1239 35.1994
114.942 1273 35.6791
115.059 1233 35.1141
115.176 1220 34.9285
115.294 1227 35.0286
115.411 1238 35.1852
115.529 1101 33.1813
115.646 1009 31.7648
115.764 980 31.305
115.881 1042 32.28
115.999 1111 33.3317
116.116 1168 34.176
116.234 1183 34.3948
116.351 1190 34.4964
116.469 1194 34.5543
116.586 1263 35.5387
116.704 1162 34.0881
116.821 1223 34.9714
116.939 1218 34.8999
117.056 1117 33.4215
117.174 1132 33.6452
117.291 1058 32.5269
117.409 992 31.496
117.526 1047 32.3574
117.644 1078 32.8329
117.761 1146 33.8526
117.879 1178 34.322
117.996 1179 34.3366
118.114 1233 35.1141
118.231 1276 35.7211
118.349 1237 35.171
118.466 1232 35.0999
118.584 1308 36.1663
118.701 1295 35.9861
118.819 1217 34.8855
118.936 1228 35.0428
119.053 1114 33.3766
119.171 1083 32.909
119.288 1023 31.9844
119.405 977 31.257
119.523 961 31
119.64 1150 33.9116
119.757 1177 34.3074
119.875 1145 33.8378
119.992 1211 34.7994
120.109 1244 35.2704
120.226 1212 34.8138
120.343 1161 34.0735
120.46 1173 34.2491
120.578 1134 33.6749
120.695 1093 33.0606
120.812 1085 32.9393
120.929 988 31.4325
121.046 943 30.7083
121.163 968 31.1127
121.279 990 31.4643
121.396 1065 32.6343
121.513 1116 33.4066
121.63 1175 34.2783
121.747 1179 34.3366
121.863 1247 35.3129
121.98 1159 34.0441
122.097 1240 35.2136
122.213 1178 34.322
122.33 1251 35.3695
122.446 1141 33.7787
122.563 1126 33.5559
122.679 1157 34.0147
122.795 1083 32.909
122.912 1095 33.0908
123.028 873 29.5466
123.144 935 30.5778
123.26 927 30.4467
123.377 0 1
123.493 0 1
123.609 0 1
123.725 0 1
123.84 0 1
123.956 0 1
124.072 0 1
124.188 0 1
124.303 0 1
124.419 0 1
126.852 0 1
126.968 0 1
127.083 0 1
127.199 0 1
127.315 0 1
127.431 0 1
127.547 0 1
127.663 0 1
127.779 0 1
127.895 0 1
128.011 0 1
128.127 0 1
128.243 0 1
128.359 1006 31.7175
128.476 981 31.3209
128.592 1078 32.8329
128.708 1182 34.3802
128.825 1195 34.5688
128.941 1272 35.6651
129.058 1310 36.1939
129.174 1309 36.1801
129.291 1253 35.3977
129.408 1276 35.7211
129.524 1243 35.2562
129.641 1183 34.3948
129.758 1106 33.2566
129.875 1077 32.8177
129.992 1105 33.2415
130.108 1083 32.909
130.225 1138 33.7343
130.342 1124 33.5261
130.459 1186 34.4384
130.576 1269 35.623
130.693 1235 35.1426
130.81 1342 36.6333
130.928 1338 36.5787
131.045 1322 36.3593
131.162 1304 36.1109
131.279 1325 36.4005
131.396 1354 36.7967
131.513 1282 35.805
131.631 1250 35.3553
131.748 1174 34.2637
131.865 1016 31.8748
131.983 1004 31.686
132.1 1086 32.9545
132.217 1163 34.1028
132.335 1218 34.8999
132.452 1203 34.6843
132.57 1297 36.0139
132.687 1250 35.3553
132.804 1326 36.4143
132.922 1276 35.7211
133.039 1339 36.5923
133.157 1246 35.2987
133.274 1190 34.4964
133.392 1119 33.4515
133.509 1156 34
133.627 1059 32.5423
133.744 1121 33.4813
133.862 1125 33.541
133.979 1173 34.2491
134.097 1333 36.5103
134.214 1314 36.2491
134.332 1273 35.6791
134.449 1321 36.3456
134.567 1286 35.8608
134.684 1273 35.6791
134.802 1279 35.7631
134.919 1333 36.5103
135.037 1335 36.5377
135.154 1301 36.0694
135.272 1225 35
135.389 1093 33.0606
135.507 985 31.3847
135.624 1027 32.0468
135.742 1128 33.5857
135.859 1186 34.4384
135.977 1273 35.6791
136.094 1237 35.171
136.211 1275 35.7071
136.329 1312 36.2215
136.446 1295 35.9861
136.564 1289 35.9026
136.681 1272 35.6651
136.798 1281 35.7911
136.915 1211 34.7994
137.033 1115 33.3916
137.15 1109 33.3017
137.267 1064 32.619
137.384 1086 32.9545
137.502 1101 33.1813
137.619 1170 34.2053
137.736 1224 34.9857
137.853 1303 36.0971
137.97 1253 35.3977
138.087 1318 36.3043
138.204 1243 35.2562
138.321 1313 36.2353
138.438 1341 36.6197
138.555 1348 36.7151
138.672 1330 36.4692
138.788 1308 36.1663
138.905 1245 35.2846
139.022 1115 33.3916
139.139 1057 32.5115
139.255 1115 33.3916
139.372 1147 33.8674
139.488 1251 35.3695
139.605 1279 35.7631
139.721 1314 36.2491
139.838 1373 37.054
139.954 1357 36.8375
140.071 1310 36.1939
140.187 1297 36.0139
140.303 1239 35.1994
140.419 1167 34.1614
140.535 1195 34.5688
140.652 1178 34.322
140.768 0 1
140.884 0 1
141 0 1
141.115 0 1
141.231 0 1
141.347 0 1
141.463 0 1
141.578 0 1
141.694 0 1
144.104 0 1
144.219 0 1
144.335 0 1
144.45 0 1
144.566 0 1
144.682 0 1
144.798 0 1
144.914 0 1
145.03 0 1
145.146 956 30.9192
145.262 944 30.7246
145.378 989 31.4484
145.494 952 30.8545
145.61 934 30.5614
145.726 926 30.4302
145.842 927 30.4467
145.959 903 30.05
146.075 879 29.6479
146.192 830 28.8097
146.308 932 30.5287
146.425 1006 31.7175
146.541 936 30.5941
146.658 1062 32.5883
146.774 1030 32.0936
146.891 1048 32.3728
147.008 1065 32.6343
147.125 1040 32.249
147.241 1037 32.2025
147.358 1035 32.1714
147.475 1065 32.6343
147.592 1002 31.6544
147.709 998 31.5911
147.826 993 31.5119
147.943 821 28.6531
148.06 822 28.6705
148.177 893 29.8831
148.294 898 29.9666
148.411 991 31.4802
148.528 1055 32.4808
148.645 1087 32.9697
148.762 1083 32.909
148.88 1009 31.7648
148.997 1019 31.9218
149.114 1079 32.8481
149.231 1090 33.0151
149.349 1000 31.6228
149.466 976 31.241
149.583 860 29.3258
149.701 926 30.4302
149.818 865 29.4109
149.935 846 29.0861
150.053 888 29.7993
150.17 964 31.0483
150.287 982 31.3369
150.405 1009 31.7648
150.522 1070 32.7109
150.64 1053 32.45
150.757 1045 32.3265
150.875 1036 32.187
150.992 1141 33.7787
151.11 1058 32.5269
151.227 1092 33.0454
151.344 1057 32.5115
151.462 1097 33.121
151.579 911 30.1828
151.697 904 30.0666
151.814 854 29.2233
151.932 954 30.8869
152.049 937 30.6105
152.167 1017 31.8904
152.284 1038 32.218
152.402 1096 33.1059
152.519 995 31.5436
152.636 1068 32.6803
152.754 1056 32.4962
152.871 1039 32.2335
152.989 1047 32.3574
153.106 1041 32.2645
153.223 1008 31.749
153.341 956 30.9192
153.458 886 29.7658
153.575 942 30.692
153.693 995 31.5436
153.81 1005 31.7017
153.927 1048 32.3728
154.044 1055 32.4808
154.162 1092 33.0454
154.279 1073 32.7567
154.396 1155 33.9853
154.513 1138 33.7343
154.63 1203 34.6843
154.747 1209 34.7707
154.864 1130 33.6155
154.981 1172 34.2345
155.098 1057 32.5115
155.215 1054 32.4654
155.332 907 30.1164
155.449 965 31.0644
155.566 1050 32.4037
155.683 1092 33.0454
155.8 1177 34.3074
155.917 1191 34.5109
156.033 1178 34.322
156.15 0 1
156.267 0 1
156.383 0 1
156.5 0 1
156.617 0 1
156.733 0 1
156.85 0 1
156.966 0 1
157.082 0 1
157.199 0 1
157.315 0 1
157.431 0 1
157.547 0 1
157.664 0 1
157.78 0 1
157.896 0 1
158.012 0 1
158.128 0 1
158.244 0 1
158.359 0 1
158.475 0 1
158.591 0 1
158.706 0 1
