
6.15755 0 1
6.2731 0 1
6.3887 0 1
6.50437 0 1
6.62009 0 1
6.73587 0 1
6.8517 0 1
6.96759 0 1
7.08353 0 1
7.19952 0 1
7.31557 0 1
7.43166 0 1
7.54781 0 1
7.664 0 1
7.78024 0 1
7.89653 0 1
8.01286 0 1
8.12924 0 1
8.24567 0 1
8.36213 0 1
8.47864 0 1
8.59519 0 1
8.71178 0 1
8.82841 0 1
8.94508 0 1
9.06179 0 1
9.17853 0 1
9.29531 0 1
9.41212 0 1
9.52897 0 1
9.64584 0 1
9.76276 0 1
9.8797 0 1
9.99667 0 1
10.1137 0 1
10.2307 0 1
10.3478 0 1
10.4648 0 1
10.5819 0 1
10.6991 0 1
10.8162 0 1
10.9334 0 1
11.0506 0 1
11.1678 0 1
11.285 0 1
11.4023 0 1
11.5196 0 1
11.6369 0 1
11.7542 0 1
11.8715 0 1
11.9888 0 1
12.1062 0 1
12.2235 0 1
12.3409 0 1
12.4582 0 1
12.5756 0 1
12.693 0 1
12.8104 0 1
12.9278 0 1
13.0452 0 1
13.1626 0 1
13.28 0 1
13.3974 0 1
13.5149 0 1
13.6323 0 1
13.7497 0 1
13.8671 0 1
13.9845 0 1
14.1019 0 1
14.2193 0 1
14.3367 0 1
14.4541 0 1
14.5714 0 1
14.6888 0 1
14.8062 0 1
14.9235 0 1
15.0408 803 28.3373
15.1581 847 29.1033
15.2755 855 29.2404
15.3927 854 29.2233
15.51 836 28.9137
15.6273 851 29.1719
15.7445 862 29.3598
15.8617 837 28.931
15.9789 831 28.8271
16.0961 853 29.2062
16.2132 796 28.2135
16.3304 831 28.8271
16.4475 835 28.8964
16.5646 877 29.6142
16.6816 886 29.7658
16.7986 970 31.1448
16.9156 959 30.9677
17.0326 975 31.225
17.1496 993 31.5119
17.2665 973 31.1929
17.3833 942 30.692
17.5002 971 31.1609
17.617 910 30.1662
17.7338 847 29.1033
17.8505 821 28.6531
17.9672 853 29.2062
18.0839 830 28.8097
18.2005 848 29.1204
18.3171 884 29.7321
18.4337 908 30.133
18.5502 927 30.4467
18.6666 902 30.0333
18.7831 941 30.6757
18.8994 955 30.9031
19.0158 940 30.6594
19.1321 943 30.7083
19.2483 892 29.8664
19.3645 863 29.3769
19.4806 786 28.0357
19.5967 713 26.7021
19.7128 702 26.4953
19.8288 593 24.3516
19.9447 551 23.4734
20.0606 0 1
20.1764 0 1
20.2922 0 1
20.4079 0 1
20.5236 0 1
20.6392 0 1
20.7548 0 1
20.8702 0 1
23.3078 0 1
23.4233 0 1
23.539 0 1
23.6547 0 1
23.7704 0 1
23.8862 0 1
24.0021 0 1
24.118 0 1
24.234 0 1
24.35 0 1
24.4661 390 19.7484
24.5822 456 21.3542
24.6984 532 23.0651
24.8146 542 23.2809
24.9309 600 24.4949
25.0472 638 25.2587
25.1636 675 25.9808
25.28 735 27.1109
25.3965 783 27.9821
25.513 821 28.6531
25.6296 929 30.4795
25.7462 939 30.6431
25.8628 982 31.3369
25.9795 986 31.4006
26.0962 925 30.4138
26.213 992 31.496
26.3298 870 29.4958
26.4466 919 30.315
26.5635 855 29.2404
26.6804 845 29.0689
26.7973 871 29.5127
26.9143 882 29.6985
27.0313 868 29.4618
27.1483 949 30.8058
27.2653 959 30.9677
27.3824 929 30.4795
27.4996 955 30.9031
27.6167 920 30.3315
27.7339 912 30.1993
27.8511 859 29.3087
27.9683 940 30.6594
28.0855 819 28.6182
28.2028 865 29.4109
28.3201 791 28.1247
28.4374 721 26.8514
28.5547 790 28.1069
28.6721 734 27.0924
28.7894 863 29.3769
28.9068 876 29.5973
29.0242 908 30.133
29.1416 963 31.0322
29.259 995 31.5436
29.3764 953 30.8707
29.4939 953 30.8707
29.6113 899 29.9833
29.7288 913 30.2159
29.8463 851 29.1719
29.9638 801 28.3019
30.0812 837 28.931
30.1987 799 28.2666
30.3162 823 28.688
30.4337 873 29.5466
30.5512 872 29.5296
30.6687 881 29.6816
30.7862 959 30.9677
30.9037 965 31.0644
31.0212 914 30.2324
31.1387 933 30.545
31.2562 921 30.348
31.3737 891 29.8496
31.4912 817 28.5832
31.6087 847 29.1033
31.7262 826 28.7402
31.8436 782 27.9643
31.9611 687 26.2107
32.0785 762 27.6043
32.1959 777 27.8747
32.3134 790 28.1069
32.4308 840 28.9828
32.5482 893 29.8831
32.6655 936 30.5941
32.7829 895 29.9166
32.9002 985 31.3847
33.0176 915 30.249
33.1349 906 30.0998
33.2522 911 30.1828
33.3694 846 29.0861
33.4867 777 27.8747
33.6039 785 28.0179
33.7211 773 27.8029
33.8383 736 27.1293
33.9554 760 27.5681
34.0725 788 28.0713
34.1896 797 28.2312
34.3067 817 28.5832
34.4237 811 28.4781
34.5407 859 29.3087
34.6577 847 29.1033
34.7746 867 29.4449
34.8915 869 29.4788
35.0084 868 29.4618
35.1252 810 28.4605
35.242 792 28.1425
35.3587 771 27.7669
35.4755 801 28.3019
35.5921 716 26.7582
35.7088 728 26.9815
35.8254 737 27.1477
35.9419 712 26.6833
36.0584 739 27.1846
36.1749 774 27.8209
36.2913 847 29.1033
36.4077 835 28.8964
36.524 871 29.5127
36.6403 792 28.1425
36.7565 740 27.2029
36.8727 680 26.0768
36.9889 671 25.9037
37.1049 579 24.0624
37.221 0 1
37.3369 0 1
37.4529 0 1
37.5687 0 1
37.6845 0 1
37.8003 0 1
37.916 0 1
38.0316 0 1
38.1472 0 1
40.5851 0 1
40.7008 0 1
40.8164 0 1
40.9322 0 1
41.048 0 1
41.1639 0 1
41.2798 0 1
41.3958 0 1
41.5118 0 1
41.6279 0 1
41.744 425 20.6155
41.8602 482 21.9545
41.9765 501 22.383
42.0928 498 22.3159
42.2091 517 22.7376
42.3255 478 21.8632
42.4419 494 22.2261
42.5584 481 21.9317
42.675 513 22.6495
42.7915 585 24.1868
42.9081 586 24.2074
43.0248 659 25.671
43.1415 687 26.2107
43.2582 712 26.6833
43.375 706 26.5707
43.4918 747 27.3313
43.6087 712 26.6833
43.7256 684 26.1534
43.8425 680 26.0768
43.9595 728 26.9815
44.0765 689 26.2488
44.1935 660 25.6905
44.3106 595 24.3926
44.4277 602 24.5357
44.5448 577 24.0208
44.6619 563 23.7276
44.7791 632 25.1396
44.8963 724 26.9072
45.0136 662 25.7294
45.1308 683 26.1343
45.2481 750 27.3861
45.3654 716 26.7582
45.4827 704 26.533
45.6001 719 26.8142
45.7174 736 27.1293
45.8348 656 25.6125
45.9522 619 24.8797
46.0697 584 24.1661
46.1871 558 23.622
46.3046 622 24.9399
46.422 630 25.0998
46.5395 643 25.3574
46.657 684 26.1534
46.7745 678 26.0384
46.892 751 27.4044
47.0096 738 27.1662
47.1271 708 26.6083
47.2446 733 27.074
47.3622 762 27.6043
47.4797 704 26.533
47.5973 701 26.4764
47.7149 703 26.5141
47.8324 663 25.7488
47.95 624 24.98
48.0675 616 24.8193
48.1851 584 24.1661
48.3027 613 24.7588
48.4202 650 25.4951
48.5378 674 25.9615
48.6554 681 26.096
48.7729 756 27.4955
48.8904 752 27.4226
49.008 733 27.074
49.1255 753 27.4408
49.243 639 25.2784
49.3605 596 24.4131
49.478 609 24.6779
49.5955 612 24.7386
49.713 563 23.7276
49.8304 572 23.9165
49.9479 624 24.98
50.0653 606 24.6171
50.1827 697 26.4008
50.3001 719 26.8142
50.4175 720 26.8328
50.5348 760 27.5681
50.6521 730 27.0185
50.7694 713 26.7021
50.8867 726 26.9444
51.004 687 26.2107
51.1212 681 26.096
51.2384 663 25.7488
51.3556 676 26
51.4727 598 24.454
51.5899 554 23.5372
51.707 592 24.3311
51.824 604 24.5764
51.9411 661 25.7099
52.0581 684 26.1534
52.175 718 26.7955
52.2919 731 27.037
52.4088 745 27.2947
52.5257 742 27.2397
52.6425 758 27.5318
52.7593 750 27.3861
52.876 717 26.7769
52.9927 668 25.8457
53.1094 590 24.2899
53.226 587 24.2281
53.3426 574 23.9583
53.4591 576 24
53.5756 586 24.2074
53.692 568 23.8328
53.8084 560 23.6643
53.9248 574 23.9583
54.0411 508 22.5389
54.1573 510 22.5832
54.2735 0 1
54.3896 0 1
54.5057 0 1
54.6217 0 1
54.7377 0 1
54.8537 0 1
54.9695 0 1
55.0853 0 1
55.2011 0 1
55.3168 0 1
55.4324 0 1
57.824 0 1
57.9396 0 1
58.0553 0 1
58.1711 0 1
58.2869 0 1
58.4028 0 1
58.5187 0 1
58.6347 0 1
58.7508 0 1
58.8669 0 1
58.983 502 22.4054
59.0992 608 24.6577
59.2155 663 25.7488
59.3318 688 26.2298
59.4482 734 27.0924
59.5646 810 28.4605
59.681 806 28.3901
59.7975 818 28.6007
59.9141 849 29.1376
60.0306 834 28.8791
60.1473 749 27.3679
60.2639 814 28.5307
60.3807 774 27.8209
60.4974 707 26.5895
60.6142 754 27.4591
60.731 838 28.9482
60.8479 929 30.4795
60.9648 886 29.7658
61.0818 931 30.5123
61.1987 852 29.189
61.3158 952 30.8545
61.4328 887 29.7825
61.5499 860 29.3258
61.667 796 28.2135
61.7841 716 26.7582
61.9013 753 27.4408
62.0185 710 26.6458
62.1357 785 28.0179
62.253 862 29.3598
62.3702 897 29.95
62.4875 891 29.8496
62.6049 955 30.9031
62.7222 957 30.9354
62.8396 878 29.6311
62.9569 882 29.6985
63.0743 968 31.1127
63.1918 932 30.5287
63.3092 905 30.0832
63.4267 927 30.4467
63.5441 869 29.4788
63.6616 825 28.7228
63.7791 771 27.7669
63.8966 729 27
64.0142 684 26.1534
64.1317 781 27.9464
64.2492 816 28.5657
64.3668 885 29.7489
64.4843 919 30.315
64.6019 934 30.5614
64.7195 928 30.4631
64.837 934 30.5614
64.9546 913 30.2159
65.0722 879 29.6479
65.1898 837 28.931
65.3074 735 27.1109
65.4249 756 27.4955
65.5425 696 26.3818
65.6601 711 26.6646
65.7777 735 27.1109
65.8952 832 28.8444
66.0128 824 28.7054
66.1304 899 29.9833
66.2479 892 29.8664
66.3655 945 30.7409
66.483 902 30.0333
66.6005 958 30.9516
66.718 903 30.05
66.8355 966 31.0805
66.953 911 30.1828
67.0705 855 29.2404
67.1879 828 28.775
67.3054 770 27.7489
67.4228 751 27.4044
67.5402 702 26.4953
67.6576 733 27.074
67.7749 770 27.7489
67.8923 801 28.3019
68.0096 892 29.8664
68.1269 905 30.0832
68.2442 927 30.4467
68.3614 933 30.545
68.4787 971 31.1609
68.5958 960 30.9839
68.713 968 31.1127
68.8302 892 29.8664
68.9473 859 29.3087
69.0643 787 28.0535
69.1814 760 27.5681
69.2984 826 28.7402
69.4154 815 28.5482
69.5323 972 31.1769
69.6492 983 31.3528
69.7661 1034 32.1559
69.8829 996 31.5595
69.9997 1035 32.1714
70.1165 1062 32.5883
70.2332 992 31.496
70.3499 983 31.3528
70.4665 950 30.8221
70.5831 870 29.4958
70.6996 836 28.9137
70.8161 795 28.1957
70.9326 702 26.4953
71.049 610 24.6982
71.1653 503 22.4277
71.2817 473 21.7486
71.3979 437 20.9045
71.5141 434 20.8327
71.6303 403 20.0749
71.7464 411 20.2731
71.8624 0 1
71.9784 0 1
72.0944 0 1
72.2102 0 1
72.3261 0 1
72.4418 0 1
72.5575 0 1
72.6732 0 1
75.1054 0 1
75.2209 0 1
75.3365 0 1
75.4521 0 1
75.5678 0 1
75.6835 0 1
75.7993 0 1
75.9151 0 1
76.031 0 1
76.147 673 25.9422
76.263 699 26.4386
76.3791 721 26.8514
76.4952 682 26.1151
76.6113 702 26.4953
76.7276 746 27.313
76.8438 767 27.6948
76.9601 855 29.2404
77.0765 857 29.2746
77.1929 923 30.3809
77.3093 919 30.315
77.4258 876 29.5973
77.5423 858 29.2916
77.6589 828 28.775
77.7755 753 27.4408
77.8921 701 26.4764
78.0088 659 25.671
78.1256 623 24.96
78.2423 593 24.3516
78.3591 617 24.8395
78.4759 676 26
78.5928 714 26.7208
78.7097 780 27.9285
78.8266 713 26.7021
78.9436 807 28.4077
79.0606 833 28.8617
79.1776 815 28.5482
79.2946 836 28.9137
79.4117 888 29.7993
79.5288 818 28.6007
79.6459 753 27.4408
79.7631 746 27.313
79.8802 766 27.6767
79.9974 688 26.2298
80.1147 619 24.8797
80.2319 603 24.5561
80.3491 614 24.779
80.4664 654 25.5734
80.5837 722 26.8701
80.701 764 27.6405
80.8183 880 29.6648
80.9357 812 28.4956
81.053 821 28.6531
81.1704 823 28.688
81.2877 768 27.7128
81.4051 801 28.3019
81.5225 763 27.6225
81.6399 657 25.632
81.7573 592 24.3311
81.8747 589 24.2693
81.9922 615 24.7992
82.1096 626 25.02
82.227 667 25.8263
82.3444 752 27.4226
82.4619 731 27.037
82.5793 836 28.9137
82.6967 809 28.4429
82.8142 827 28.7576
82.9316 849 29.1376
83.049 865 29.4109
83.1664 821 28.6531
83.2838 838 28.9482
83.4012 810 28.4605
83.5186 810 28.4605
83.636 738 27.1662
83.7534 694 26.3439
83.8708 667 25.8263
83.9881 625 25
84.1055 623 24.96
84.2228 714 26.7208
84.3401 710 26.6458
84.4575 777 27.8747
84.5747 861 29.3428
84.692 839 28.9655
84.8093 890 29.8329
84.9265 826 28.7402
85.0437 807 28.4077
85.1609 788 28.0713
85.2781 684 26.1534
85.3952 642 25.3377
85.5123 635 25.1992
85.6294 619 24.8797
85.7465 688 26.2298
85.8636 785 28.0179
85.9806 782 27.9643
86.0976 828 28.775
86.2145 830 28.8097
86.3315 883 29.7153
86.4484 880 29.6648
86.5652 835 28.8964
86.682 881 29.6816
86.7988 848 29.1204
86.9156 820 28.6356
87.0323 815 28.5482
87.149 798 28.2489
87.2657 713 26.7021
87.3823 645 25.3969
87.4988 576 24
87.6154 536 23.1517
87.7318 586 24.2074
87.8483 617 24.8395
87.9647 647 25.4362
88.081 631 25.1197
88.1973 639 25.2784
88.3136 651 25.5147
88.4298 578 24.0416
88.546 554 23.5372
88.6621 458 21.4009
88.7781 344 18.5472
88.8942 0 1
89.0101 0 1
89.126 0 1
89.2419 0 1
89.3577 0 1
89.4734 0 1
89.5891 0 1
89.7047 0 1
89.8203 0 1
89.9358 0 1
92.3269 0 1
92.4424 0 1
92.558 0 1
92.6736 0 1
92.7893 0 1
92.905 0 1
93.0208 0 1
93.1366 0 1
93.2525 0 1
93.3685 0 1
93.4845 0 1
93.6005 527 22.9565
93.7167 627 25.04
93.8328 665 25.7876
93.949 673 25.9422
94.0653 704 26.533
94.1816 689 26.2488
94.2979 682 26.1151
94.4143 676 26
94.5307 603 24.5561
94.6472 647 25.4362
94.7637 561 23.6854
94.8803 661 25.7099
94.9969 694 26.3439
95.1135 771 27.7669
95.2302 757 27.5136
95.3469 803 28.3373
95.4637 832 28.8444
95.5805 828 28.775
95.6973 835 28.8964
95.8142 826 28.7402
95.9311 854 29.2233
96.048 840 28.9828
96.1649 729 27
96.2819 779 27.9106
96.3989 781 27.9464
96.516 763 27.6225
96.633 685 26.1725
96.7501 589 24.2693
96.8673 624 24.98
96.9844 622 24.9399
97.1016 695 26.3629
97.2188 764 27.6405
97.336 803 28.3373
97.4532 860 29.3258
97.5704 896 29.9333
97.6877 814 28.5307
97.805 804 28.3549
97.9223 756 27.4955
98.0396 694 26.3439
98.1569 615 24.7992
98.2743 627 25.04
98.3916 610 24.6982
98.509 671 25.9037
98.6264 628 25.0599
98.7438 777 27.8747
98.8612 759 27.55
98.9786 806 28.3901
99.096 866 29.4279
99.2134 842 29.0172
99.3308 897 29.95
99.4482 888 29.7993
99.5656 849 29.1376
99.6831 845 29.0689
99.8005 853 29.2062
99.9179 830 28.8097
100.035 849 29.1376
100.153 773 27.8029
100.27 732 27.0555
100.388 727 26.9629
100.505 667 25.8263
100.622 735 27.1109
100.74 871 29.5127
100.857 839 28.9655
100.975 870 29.4958
101.092 891 29.8496
101.209 844 29.0517
101.327 839 28.9655
101.444 868 29.4618
101.561 808 28.4253
101.679 694 26.3439
101.796 634 25.1794
101.913 616 24.8193
102.03 684 26.1534
102.148 754 27.4591
102.265 788 28.0713
102.382 836 28.9137
102.499 918 30.2985
102.616 880 29.6648
102.733 882 29.6985
102.851 919 30.315
102.968 869 29.4788
103.085 920 30.3315
103.202 873 29.5466
103.319 938 30.6268
103.436 909 30.1496
103.552 865 29.4109
103.669 882 29.6985
103.786 787 28.0535
103.903 709 26.6271
104.02 722 26.8701
104.137 806 28.3901
104.253 840 28.9828
104.37 967 31.0966
104.487 1005 31.7017
104.603 956 30.9192
104.72 888 29.7993
104.836 909 30.1496
104.953 790 28.1069
105.069 742 27.2397
105.186 704 26.533
105.302 600 24.4949
105.418 642 25.3377
105.535 602 24.5357
105.651 671 25.9037
105.767 609 24.6779
105.883 585 24.1868
105.999 603 24.5561
106.115 0 1
106.231 0 1
106.347 0 1
106.463 0 1
106.579 0 1
106.694 0 1
106.81 0 1
106.926 0 1
107.041 0 1
107.157 0 1
109.576 0 1
109.692 0 1
109.807 0 1
109.923 0 1
110.039 0 1
110.155 0 1
110.27 0 1
110.386 0 1
110.502 0 1
110.618 330 18.1659
110.735 424 20.5913
110.851 569 23.8537
110.967 659 25.671
111.083 631 25.1197
111.199 725 26.9258
111.316 761 27.5862
111.432 845 29.0689
111.549 801 28.3019
111.665 856 29.2575
111.782 836 28.9137
111.898 832 28.8444
112.015 858 29.2916
112.132 795 28.1957
112.248 699 26.4386
112.365 703 26.5141
112.482 636 25.219
112.599 728 26.9815
112.716 702 26.4953
112.832 750 27.3861
112.949 810 28.4605
113.066 894 29.8998
113.183 845 29.0689
113.3 830 28.8097
113.417 868 29.4618
113.534 777 27.8747
113.652 699 26.4386
113.769 632 25.1396
113.886 596 24.4131
114.003 577 24.0208
114.12 648 25.4558
114.238 687 26.2107
114.355 770 27.7489
114.472 785 28.0179
114.589 866 29.4279
114.707 814 28.5307
114.824 890 29.8329
114.942 879 29.6479
115.059 853 29.2062
115.176 816 28.5657
115.294 838 28.9482
115.411 837 28.931
115.529 763 27.6225
115.646 791 28.1247
115.764 724 26.9072
115.881 695 26.3629
115.999 613 24.7588
116.116 695 26.3629
116.234 689 26.2488
116.351 759 27.55
116.469 825 28.7228
116.586 865 29.4109
116.704 833 28.8617
116.821 850 29.1548
116.939 878 29.6311
117.056 844 29.0517
117.174 772 27.7849
117.291 695 26.3629
117.409 655 25.593
117.526 584 24.1661
117.644 579 24.0624
117.761 677 26.0192
117.879 757 27.5136
117.996 798 28.2489
118.114 762 27.6043
118.231 875 29.5804
118.349 822 28.6705
118.466 830 28.8097
118.584 907 30.1164
118.701 850 29.1548
118.819 816 28.5657
118.936 786 28.0357
119.053 794 28.178
119.171 760 27.5681
119.288 719 26.8142
119.405 759 27.55
119.523 711 26.6646
119.64 646 25.4165
119.757 682 26.1151
119.875 690 26.2679
119.992 729 27
120.109 787 28.0535
120.226 743 27.258
120.343 790 28.1069
120.46 841 29
120.578 804 28.3549
120.695 794 28.178
120.812 749 27.3679
120.929 733 27.074
121.046 662 25.7294
121.163 612 24.7386
121.279 605 24.5967
121.396 600 24.4949
121.513 701 26.4764
121.63 656 25.6125
121.747 687 26.2107
121.863 694 26.3439
121.98 715 26.7395
122.097 683 26.1343
122.213 680 26.0768
122.33 671 25.9037
122.446 669 25.865
122.563 645 25.3969
122.679 656 25.6125
122.795 582 24.1247
122.912 502 22.4054
123.028 440 20.9762
123.144 411 20.2731
123.26 322 17.9444
123.377 0 1
123.493 0 1
123.609 0 1
123.725 0 1
123.84 0 1
123.956 0 1
124.072 0 1
124.188 0 1
124.303 0 1
124.419 0 1
126.852 0 1
126.968 0 1
127.083 0 1
127.199 0 1
127.315 0 1
127.431 0 1
127.547 0 1
127.663 0 1
127.779 0 1
127.895 0 1
128.011 0 1
128.127 0 1
128.243 0 1
128.359 898 29.9666
128.476 904 30.0666
128.592 847 29.1033
128.708 857 29.2746
128.825 780 27.9285
128.941 890 29.8329
129.058 991 31.4802
129.174 1027 32.0468
129.291 1007 31.7333
129.408 1009 31.7648
129.524 1039 32.2335
129.641 1092 33.0454
129.758 1013 31.8277
129.875 910 30.1662
129.992 915 30.249
130.108 805 28.3725
130.225 802 28.3196
130.342 734 27.0924
130.459 774 27.8209
130.576 872 29.5296
130.693 949 30.8058
130.81 910 30.1662
130.928 972 31.1769
131.045 1050 32.4037
131.162 980 31.305
131.279 983 31.3528
131.396 1007 31.7333
131.513 1102 33.1964
131.631 1000 31.6228
131.748 989 31.4484
131.865 959 30.9677
131.983 943 30.7083
132.1 912 30.1993
132.217 875 29.5804
132.335 899 29.9833
132.452 902 30.0333
132.57 921 30.348
132.687 954 30.8869
132.804 994 31.5278
132.922 1003 31.6702
133.039 1040 32.249
133.157 1103 33.2114
133.274 1035 32.1714
133.392 962 31.0161
133.509 961 31
133.627 880 29.6648
133.744 825 28.7228
133.862 766 27.6767
133.979 778 27.8927
134.097 840 28.9828
134.214 955 30.9031
134.332 927 30.4467
134.449 963 31.0322
134.567 1032 32.1248
134.684 1002 31.6544
134.802 989 31.4484
134.919 969 31.1288
135.037 1065 32.6343
135.154 1035 32.1714
135.272 999 31.607
135.389 1009 31.7648
135.507 1003 31.6702
135.624 942 30.692
135.742 868 29.4618
135.859 845 29.0689
135.977 907 30.1164
136.094 896 29.9333
136.211 929 30.4795
136.329 973 31.1929
136.446 984 31.3688
136.564 1018 31.9061
136.681 1064 32.619
136.798 1053 32.45
136.915 1044 32.311
137.033 949 30.8058
137.15 927 30.4467
137.267 874 29.5635
137.384 842 29.0172
137.502 780 27.9285
137.619 781 27.9464
137.736 828 28.775
137.853 857 29.2746
137.97 911 30.1828
138.087 934 30.5614
138.204 894 29.8998
138.321 934 30.5614
138.438 993 31.5119
138.555 952 30.8545
138.672 973 31.1929
138.788 929 30.4795
138.905 878 29.6311
139.022 804 28.3549
139.139 810 28.4605
139.255 736 27.1293
139.372 695 26.3629
139.488 641 25.318
139.605 619 24.8797
139.721 631 25.1197
139.838 615 24.7992
139.954 649 25.4755
140.071 607 24.6374
140.187 567 23.8118
140.303 524 22.891
140.419 522 22.8473
140.535 460 21.4476
140.652 444 21.0713
140.768 0 1
140.884 0 1
141 0 1
141.115 0 1
141.231 0 1
141.347 0 1
141.463 0 1
141.578 0 1
141.694 0 1
144.104 0 1
144.219 0 1
144.335 0 1
144.45 0 1
144.566 0 1
144.682 0 1
144.798 0 1
144.914 0 1
145.03 0 1
145.146 614 24.779
145.262 641 25.318
145.378 673 25.9422
145.494 680 26.0768
145.61 675 25.9808
145.726 661 25.7099
145.842 688 26.2298
145.959 625 25
146.075 562 23.7065
146.192 544 23.3238
146.308 540 23.2379
146.425 582 24.1247
146.541 586 24.2074
146.658 594 24.3721
146.774 612 24.7386
146.891 611 24.7184
147.008 670 25.8844
147.125 642 25.3377
147.241 656 25.6125
147.358 652 25.5343
147.475 681 26.096
147.592 622 24.9399
147.709 600 24.4949
147.826 610 24.6982
147.943 620 24.8998
148.06 586 24.2074
148.177 564 23.7487
148.294 565 23.7697
148.411 618 24.8596
148.528 590 24.2899
148.645 608 24.6577
148.762 634 25.1794
148.88 661 25.7099
148.997 734 27.0924
149.114 619 24.8797
149.231 661 25.7099
149.349 657 25.632
149.466 585 24.1868
149.583 594 24.3721
149.701 541 23.2594
149.818 504 22.4499
149.935 502 22.4054
150.053 485 22.0227
150.17 565 23.7697
150.287 585 24.1868
150.405 605 24.5967
150.522 563 23.7276
150.64 614 24.779
150.757 661 25.7099
150.875 614 24.779
150.992 660 25.6905
151.11 634 25.1794
151.227 612 24.7386
151.344 617 24.8395
151.462 623 24.96
151.579 628 25.0599
151.697 565 23.7697
151.814 558 23.622
151.932 591 24.3105
152.049 590 24.2899
152.167 556 23.5797
152.284 594 24.3721
152.402 627 25.04
152.519 681 26.096
152.636 694 26.3439
152.754 594 24.3721
152.871 625 25
152.989 587 24.2281
153.106 596 24.4131
153.223 549 23.4307
153.341 530 23.0217
153.458 479 21.8861
153.575 494 22.2261
153.693 518 22.7596
153.81 555 23.5584
153.927 582 24.1247
154.044 581 24.1039
154.162 641 25.318
154.279 589 24.2693
154.396 616 24.8193
154.513 612 24.7386
154.63 596 24.4131
154.747 579 24.0624
154.864 565 23.7697
154.981 545 23.3452
155.098 557 23.6008
155.215 573 23.9374
155.332 557 23.6008
155.449 522 22.8473
155.566 518 22.7596
155.683 545 23.3452
155.8 545 23.3452
155.917 523 22.8692
156.033 560 23.6643
156.15 0 1
156.267 0 1
156.383 0 1
156.5 0 1
156.617 0 1
156.733 0 1
156.85 0 1
156.966 0 1
157.082 0 1
157.199 0 1
157.315 0 1
157.431 0 1
157.547 0 1
157.664 0 1
157.78 0 1
157.896 0 1
158.012 0 1
158.128 0 1
158.244 0 1
158.359 0 1
158.475 0 1
158.591 0 1
158.706 0 1
