
6.15755 0 1
6.2731 0 1
6.3887 0 1
6.50437 0 1
6.62009 0 1
6.73587 0 1
6.8517 0 1
6.96759 0 1
7.08353 0 1
7.19952 0 1
7.31557 0 1
7.43166 0 1
7.54781 0 1
7.664 0 1
7.78024 0 1
7.89653 0 1
8.01286 0 1
8.12924 0 1
8.24567 0 1
8.36213 0 1
8.47864 0 1
8.59519 0 1
8.71178 0 1
8.82841 0 1
8.94508 0 1
9.06179 0 1
9.17853 0 1
9.29531 0 1
9.41212 0 1
9.52897 0 1
9.64584 0 1
9.76276 0 1
9.8797 0 1
9.99667 0 1
10.1137 0 1
10.2307 0 1
10.3478 0 1
10.4648 0 1
10.5819 0 1
10.6991 0 1
10.8162 0 1
10.9334 0 1
11.0506 0 1
11.1678 0 1
11.285 0 1
11.4023 0 1
11.5196 0 1
11.6369 0 1
11.7542 0 1
11.8715 0 1
11.9888 0 1
12.1062 0 1
12.2235 0 1
12.3409 0 1
12.4582 0 1
12.5756 0 1
12.693 0 1
12.8104 0 1
12.9278 0 1
13.0452 0 1
13.1626 0 1
13.28 0 1
13.3974 0 1
13.5149 0 1
13.6323 0 1
13.7497 0 1
13.8671 0 1
13.9845 0 1
14.1019 0 1
14.2193 0 1
14.3367 0 1
14.4541 0 1
14.5714 0 1
14.6888 0 1
14.8062 0 1
14.9235 0 1
15.0408 0 0
15.1581 0 0
15.2755 0 0
15.3927 0 0
15.51 0 0
15.6273 0 0
15.7445 0 0
15.8617 0 0
15.9789 0 0
16.0961 0 0
16.2132 0 0
16.3304 0 0
16.4475 0 0
16.5646 0 0
16.6816 0 0
16.7986 0 0
16.9156 0 0
17.0326 0 0
17.1496 0 0
17.2665 0 0
17.3833 0 0
17.5002 0 0
17.617 0 0
17.7338 0 0
17.8505 0 0
17.9672 0 0
18.0839 0 0
18.2005 0 0
18.3171 0 0
18.4337 0 0
18.5502 0 0
18.6666 0 0
18.7831 0 0
18.8994 0 0
19.0158 0 0
19.1321 0 0
19.2483 0 0
19.3645 0 0
19.4806 0 0
19.5967 0 0
19.7128 0 0
19.8288 0 0
19.9447 0 0
20.0606 0 1
20.1764 0 1
20.2922 0 1
20.4079 0 1
20.5236 0 1
20.6392 0 1
20.7548 0 1
20.8702 0 1
23.3078 0 1
23.4233 0 1
23.539 0 1
23.6547 0 1
23.7704 0 1
23.8862 0 1
24.0021 0 1
24.118 0 1
24.234 0 1
24.35 0 1
24.4661 57185 239.134
24.5822 56524 237.748
24.6984 56418 237.525
24.8146 56371 237.426
24.9309 55687 235.981
25.0472 54452 233.35
25.1636 52956 230.122
25.28 52739 229.65
25.3965 53995 232.368
25.513 55594 235.784
25.6296 57677 240.16
25.7462 60747 246.469
25.8628 62488 249.976
25.9795 64421 253.813
26.0962 64934 254.822
26.213 65698 256.316
26.3298 64133 253.245
26.4466 64435 253.841
26.5635 62835 250.669
26.6804 59856 244.655
26.7973 57210 239.186
26.9143 56677 238.069
27.0313 59191 243.292
27.1483 61569 248.131
27.2653 62814 250.627
27.3824 64157 253.292
27.4996 64329 253.632
27.6167 63648 252.286
27.7339 62685 250.37
27.8511 61887 248.771
27.9683 61116 247.217
28.0855 59954 244.855
28.2028 58542 241.955
28.3201 58348 241.553
28.4374 56471 237.636
28.5547 55243 235.038
28.6721 53233 230.723
28.7894 52453 229.026
28.9068 52806 229.796
29.0242 54290 233.002
29.1416 55929 236.493
29.259 58270 241.392
29.3764 60207 245.371
29.4939 62882 250.763
29.6113 63884 252.753
29.7288 64957 254.867
29.8463 64347 253.667
29.9638 64053 253.087
30.0812 62487 249.974
30.1987 59446 243.816
30.3162 56263 237.198
30.4337 56019 236.683
30.5512 57838 240.495
30.6687 60688 246.349
30.7862 61841 248.679
30.9037 64023 253.028
31.0212 64571 254.108
31.1387 65064 255.076
31.2562 63953 252.889
31.3737 62812 250.623
31.4912 61964 248.926
31.6087 61744 248.483
31.7262 60583 246.136
31.8436 59845 244.632
31.9611 58031 240.896
32.0785 57171 239.105
32.1959 54254 232.925
32.3134 53695 231.722
32.4308 53967 232.308
32.5482 55040 234.606
32.6655 56680 238.076
32.7829 58617 242.109
32.9002 61446 247.883
33.0176 63294 251.583
33.1349 63927 252.838
33.2522 64100 253.18
33.3694 65614 256.152
33.4867 65643 256.209
33.6039 65453 255.838
33.7211 63497 251.986
33.8383 60003 244.955
33.9554 57607 240.015
34.0725 55683 235.972
34.1896 57175 239.113
34.3067 59274 243.463
34.4237 61411 247.812
34.5407 62699 250.398
34.6577 63742 252.472
34.7746 63579 252.149
34.8915 63456 251.905
35.0084 62942 250.882
35.1252 62116 249.231
35.242 61268 247.524
35.3587 60425 245.815
35.4755 59373 243.666
35.5921 58346 241.549
35.7088 56923 238.585
35.8254 55231 235.013
35.9419 52784 229.748
36.0584 52083 228.217
36.1749 52486 229.098
36.2913 53214 230.682
36.4077 54969 234.455
36.524 56827 238.384
36.6403 58942 242.78
36.7565 61181 247.348
36.8727 62292 249.584
36.9889 62846 250.691
37.1049 62483 249.966
37.221 0 1
37.3369 0 1
37.4529 0 1
37.5687 0 1
37.6845 0 1
37.8003 0 1
37.916 0 1
38.0316 0 1
38.1472 0 1
40.5851 0 1
40.7008 0 1
40.8164 0 1
40.9322 0 1
41.048 0 1
41.1639 0 1
41.2798 0 1
41.3958 0 1
41.5118 0 1
41.6279 0 1
41.744 47362 217.628
41.8602 51128 226.115
41.9765 53217 230.688
42.0928 55032 234.589
42.2091 55169 234.881
42.3255 55728 236.068
42.4419 55554 235.699
42.5584 52686 229.534
42.675 49702 222.939
42.7915 47227 217.318
42.9081 46751 216.22
43.0248 48975 221.303
43.1415 51048 225.938
43.2582 52848 229.887
43.375 53614 231.547
43.4918 54803 234.1
43.6087 54420 233.281
43.7256 53837 232.028
43.8425 52782 229.743
43.9595 52018 228.075
44.0765 50625 225
44.1935 50111 223.855
44.3106 48961 221.271
44.4277 46904 216.573
44.5448 45419 213.117
44.6619 42477 206.099
44.7791 40373 200.93
44.8963 40063 200.157
45.0136 40537 201.338
45.1308 41686 204.171
45.2481 42802 206.886
45.3654 44695 211.412
45.4827 46827 216.395
45.6001 46360 215.314
45.7174 47134 217.104
45.8348 46709 216.123
45.9522 46184 214.905
46.0697 45509 213.328
46.1871 41566 203.877
46.3046 39103 197.745
46.422 37726 194.232
46.5395 38193 195.43
46.657 39717 199.291
46.7745 41054 202.618
46.892 42021 204.99
47.0096 42194 205.412
47.1271 42538 206.247
47.2446 41934 204.778
47.3622 40746 201.856
47.4797 40665 201.656
47.5973 38842 197.084
47.7149 38305 195.717
47.8324 37373 193.321
47.95 35906 189.489
48.0675 35376 188.085
48.1851 33275 182.414
48.3027 31155 176.508
48.4202 30185 173.738
48.5378 30660 175.1
48.6554 31963 178.782
48.7729 33269 182.398
48.8904 35045 187.203
49.008 37585 193.869
49.1255 37996 194.926
49.243 38195 195.435
49.3605 38826 197.043
49.478 39015 197.522
49.5955 37572 193.835
49.713 35159 187.507
49.8304 33312 182.516
49.9479 32326 179.794
50.0653 34033 184.48
50.1827 36647 191.434
50.3001 38994 197.469
50.4175 40597 201.487
50.5348 42320 205.718
50.6521 43132 207.682
50.7694 43446 208.437
50.8867 44215 210.274
51.004 44255 210.369
51.1212 44637 211.275
51.2384 44066 209.919
51.3556 44047 209.874
51.4727 43492 208.547
51.5899 42900 207.123
51.707 41684 204.167
51.824 39655 199.136
51.9411 39464 198.655
52.0581 40747 201.859
52.175 43223 207.901
52.2919 45490 213.284
52.4088 48769 220.837
52.5257 51435 226.793
52.6425 52197 228.467
52.7593 52619 229.388
52.876 53294 230.855
52.9927 52979 230.172
53.1094 53132 230.504
53.226 50547 224.827
53.3426 47604 218.183
53.4591 45171 212.535
53.5756 44272 210.409
53.692 46370 215.337
53.8084 49695 222.924
53.9248 51973 227.976
54.0411 52833 229.854
54.1573 54745 233.976
54.2735 0 1
54.3896 0 1
54.5057 0 1
54.6217 0 1
54.7377 0 1
54.8537 0 1
54.9695 0 1
55.0853 0 1
55.2011 0 1
55.3168 0 1
55.4324 0 1
57.824 0 1
57.9396 0 1
58.0553 0 1
58.1711 0 1
58.2869 0 1
58.4028 0 1
58.5187 0 1
58.6347 0 1
58.7508 0 1
58.8669 0 1
58.983 55805 236.231
59.0992 59945 244.837
59.2155 62631 250.262
59.3318 64291 253.557
59.4482 65108 255.163
59.5646 65138 255.221
59.681 65598 256.121
59.7975 64891 254.737
59.9141 62999 250.996
60.0306 61883 248.763
60.1473 60070 245.092
60.2639 58054 240.944
60.3807 55123 234.783
60.4974 52824 229.835
60.6142 52086 228.224
60.731 52713 229.593
60.8479 53072 230.374
60.9648 55392 235.355
61.0818 58609 242.093
61.1987 60389 245.742
61.3158 61919 248.835
61.4328 61450 247.891
61.5499 61469 247.929
61.667 60203 245.363
61.7841 57450 239.687
61.9013 54361 233.154
62.0185 51608 227.174
62.1357 50897 225.604
62.253 52531 229.196
62.3702 55414 235.402
62.4875 57995 240.822
62.6049 59044 242.99
62.7222 61880 248.757
62.8396 61444 247.879
62.9569 62508 250.016
63.0743 62240 249.479
63.1918 61337 247.663
63.3092 59852 244.647
63.4267 58725 242.332
63.5441 57731 240.273
63.6616 55836 236.296
63.7791 53555 231.42
63.8966 51121 226.1
64.0142 48565 220.375
64.1317 47502 217.95
64.2492 48300 219.773
64.3668 49538 222.571
64.4843 52028 228.096
64.6019 54642 233.756
64.7195 56742 238.206
64.837 57231 239.23
64.9546 57766 240.346
65.0722 57268 239.307
65.1898 56229 237.127
65.3074 55161 234.864
65.4249 50930 225.677
65.5425 48069 219.246
65.6601 46520 215.685
65.7777 46917 216.603
65.8952 49547 222.592
66.0128 52307 228.707
66.1304 54749 233.985
66.2479 56114 236.884
66.3655 57532 239.858
66.483 58787 242.46
66.6005 59184 243.278
66.718 58961 242.819
66.8355 58341 241.539
66.953 57610 240.021
67.0705 56287 237.249
67.1879 54059 232.506
67.3054 52341 228.782
67.4228 50684 225.131
67.5402 47679 218.355
67.6576 45377 213.019
67.7749 45344 212.941
67.8923 45586 213.509
68.0096 47636 218.257
68.1269 50669 225.098
68.2442 53787 231.92
68.3614 56573 237.851
68.4787 57179 239.121
68.5958 57127 239.013
68.713 57487 239.764
68.8302 56817 238.363
68.9473 54860 234.222
69.0643 51230 226.34
69.1814 48192 219.527
69.2984 46928 216.629
69.4154 47747 218.511
69.5323 50472 224.66
69.6492 53936 232.241
69.7661 56309 237.295
69.8829 59320 243.557
69.9997 60671 246.315
70.1165 61831 248.658
70.2332 61639 248.272
70.3499 61289 247.566
70.4665 61182 247.35
70.5831 59822 244.585
70.6996 58447 241.758
70.8161 56619 237.947
70.9326 54997 234.514
71.049 53146 230.534
71.1653 49941 223.475
71.2817 46173 214.879
71.3979 44589 211.161
71.5141 43945 209.631
71.6303 44575 211.128
71.7464 42184 205.387
71.8624 0 1
71.9784 0 1
72.0944 0 1
72.2102 0 1
72.3261 0 1
72.4418 0 1
72.5575 0 1
72.6732 0 1
75.1054 0 1
75.2209 0 1
75.3365 0 1
75.4521 0 1
75.5678 0 1
75.6835 0 1
75.7993 0 1
75.9151 0 1
76.031 0 1
76.147 49234 221.887
76.263 52775 229.728
76.3791 53089 230.411
76.4952 50498 224.718
76.6113 47500 217.945
76.7276 44919 211.941
76.8438 45341 212.934
76.9601 46538 215.727
77.0765 49247 221.917
77.1929 53042 230.308
77.3093 56449 237.59
77.4258 58350 241.557
77.5423 58423 241.709
77.6589 58331 241.518
77.7755 58046 240.927
77.8921 56306 237.289
78.0088 52386 228.88
78.1256 48266 219.695
78.2423 45189 212.577
78.3591 43146 207.716
78.4759 44755 211.554
78.5928 48686 220.649
78.7097 52263 228.611
78.8266 54841 234.182
78.9436 57879 240.581
79.0606 58038 240.911
79.1776 59361 243.641
79.2946 59907 244.759
79.4117 60092 245.137
79.5288 59478 243.881
79.6459 58701 242.283
79.7631 56617 237.943
79.8802 55230 235.011
79.9974 52917 230.037
80.1147 50531 224.791
80.2319 46526 215.699
80.3491 44016 209.8
80.4664 43946 209.633
80.5837 45335 212.92
80.701 47519 217.989
80.8183 50817 225.426
80.9357 54388 233.212
81.053 55404 235.381
81.1704 55523 235.633
81.2877 55532 235.652
81.4051 54557 233.574
81.5225 54674 233.825
81.6399 50184 224.018
81.7573 47037 216.88
81.8747 42719 206.686
81.9922 41586 203.926
82.1096 42632 206.475
82.227 46216 214.979
82.3444 49257 221.939
82.4619 52007 228.05
82.5793 54437 233.317
82.6967 53529 231.363
82.8142 54810 234.115
82.9316 55109 234.753
83.049 54882 234.269
83.1664 54168 232.74
83.2838 53504 231.309
83.4012 51448 226.822
83.5186 50009 223.627
83.636 48025 219.146
83.7534 45885 214.208
83.8708 42583 206.356
83.9881 39473 198.678
84.1055 39925 199.812
84.2228 41327 203.29
84.3401 43519 208.612
84.4575 47060 216.933
84.5747 50475 224.666
84.692 52673 229.506
84.8093 53310 230.89
84.9265 52905 230.011
85.0437 52943 230.093
85.1609 49858 223.289
85.2781 45813 214.04
85.3952 42588 206.369
85.5123 41228 203.047
85.6294 40789 201.963
85.7465 44266 210.395
85.8636 48992 221.341
85.9806 52064 228.175
86.0976 54986 234.491
86.2145 56060 236.77
86.3315 57534 239.862
86.4484 59363 243.645
86.5652 60509 245.986
86.682 60279 245.518
86.7988 59950 244.847
86.9156 58155 241.153
87.0323 56986 238.717
87.149 55478 235.538
87.2657 53553 231.415
87.3823 50990 225.81
87.4988 47166 217.177
87.6154 46275 215.116
87.7318 47958 218.993
87.8483 51038 225.916
87.9647 55250 235.053
88.081 59307 243.53
88.1973 61916 248.829
88.3136 61801 248.598
88.4298 61228 247.443
88.546 60491 245.949
88.6621 58189 241.224
88.7781 53933 232.235
88.8942 0 1
89.0101 0 1
89.126 0 1
89.2419 0 1
89.3577 0 1
89.4734 0 1
89.5891 0 1
89.7047 0 1
89.8203 0 1
89.9358 0 1
92.3269 0 1
92.4424 0 1
92.558 0 1
92.6736 0 1
92.7893 0 1
92.905 0 1
93.0208 0 1
93.1366 0 1
93.2525 0 1
93.3685 0 1
93.4845 0 1
93.6005 60056 245.063
93.7167 61447 247.885
93.8328 61665 248.324
93.949 61076 247.136
94.0653 59295 243.506
94.1816 57167 239.096
94.2979 53465 231.225
94.4143 50657 225.071
94.5307 48386 219.968
94.6472 48134 219.395
94.7637 49400 222.261
94.8803 53103 230.441
94.9969 57463 239.714
95.1135 60146 245.247
95.2302 62772 250.543
95.3469 63826 252.638
95.4637 65744 256.406
95.5805 66361 257.606
95.6973 67390 259.596
95.8142 67857 260.494
95.9311 66319 257.525
96.048 65593 256.111
96.1649 64035 253.051
96.2819 61792 248.58
96.3989 59990 244.929
96.516 57601 240.002
96.633 53603 231.523
96.7501 51843 227.691
96.8673 52634 229.421
96.9844 55390 235.351
97.1016 58388 241.636
97.2188 62916 250.831
97.336 65419 255.771
97.4532 67194 259.218
97.5704 66658 258.182
97.6877 65805 256.525
97.805 63336 251.666
97.9223 59218 243.347
98.0396 55228 235.006
98.1569 52258 228.6
98.2743 50747 225.271
98.3916 51768 227.526
98.509 55287 235.132
98.6264 59774 244.487
98.7438 63532 252.056
98.8612 65943 256.794
98.9786 68148 261.052
99.096 69666 263.943
99.2134 70072 264.711
99.3308 71348 267.11
99.4482 71583 267.55
99.5656 70588 265.684
99.6831 69697 264.002
99.8005 67080 258.998
99.9179 65757 256.431
100.035 63347 251.688
100.153 59837 244.616
100.27 56247 237.164
100.388 55736 236.085
100.505 57852 240.524
100.622 61375 247.74
100.74 66224 257.34
100.857 69346 263.336
100.975 70528 265.571
101.092 70869 266.212
101.209 70194 264.942
101.327 68769 262.238
101.444 65943 256.794
101.561 61065 247.113
101.679 57114 238.985
101.796 54003 232.385
101.913 53902 232.168
102.03 57016 238.78
102.148 62233 249.465
102.265 71691 267.752
102.382 65835 256.583
102.499 72533 269.32
102.616 74195 272.388
102.733 75463 274.705
102.851 76500 276.586
102.968 76944 277.388
103.085 76101 275.864
103.202 74759 273.421
103.319 73047 270.272
103.436 71193 266.82
103.552 68955 262.593
103.669 64905 254.765
103.786 61198 247.382
103.903 59976 244.9
104.02 62083 249.165
104.137 66082 257.064
104.253 72917 270.031
104.37 73199 270.553
104.487 76843 277.206
104.603 76705 276.957
104.72 76187 276.02
104.836 74799 273.494
104.953 69737 264.078
105.069 64799 254.556
105.186 60962 246.905
105.302 58441 241.746
105.418 58572 242.017
105.535 63328 251.651
105.651 69296 263.241
105.767 73666 271.415
105.883 77053 277.584
105.999 78921 280.929
106.115 0 1
106.231 0 1
106.347 0 1
106.463 0 1
106.579 0 1
106.694 0 1
106.81 0 1
106.926 0 1
107.041 0 1
107.157 0 1
109.576 0 1
109.692 0 1
109.807 0 1
109.923 0 1
110.039 0 1
110.155 0 1
110.27 0 1
110.386 0 1
110.502 0 1
110.618 61721 248.437
110.735 69452 263.537
110.851 73240 270.629
110.967 75719 275.171
111.083 77186 277.824
111.199 78708 280.549
111.316 80136 283.083
111.432 80563 283.836
111.549 79565 282.073
111.665 79589 282.115
111.782 77219 277.883
111.898 75487 274.749
112.015 72916 270.03
112.132 70171 264.898
112.248 65171 255.286
112.365 62162 249.323
112.482 63053 251.104
112.599 64427 253.825
112.716 69855 264.301
112.832 73982 271.996
112.949 76203 276.049
113.066 76598 276.763
113.183 76261 276.154
113.3 75068 273.985
113.417 72240 268.775
113.534 67974 260.718
113.652 62691 250.382
113.769 59174 243.257
113.886 57234 239.236
114.003 56955 238.652
114.12 61883 248.763
114.238 68149 261.054
114.355 71915 268.17
114.472 77910 279.124
114.589 71029 266.513
114.707 76587 276.744
114.824 77115 277.696
114.942 78190 279.625
115.059 78062 279.396
115.176 78048 279.371
115.294 76401 276.407
115.411 74027 272.079
115.529 71662 267.698
115.646 69595 263.809
115.764 66166 257.228
115.881 61488 247.968
115.999 60413 245.791
116.116 62620 250.24
116.234 66765 258.389
116.351 70405 265.339
116.469 72531 269.316
116.586 73242 270.633
116.704 72826 269.863
116.821 72626 269.492
116.939 70913 266.295
117.056 66284 257.457
117.174 62166 249.331
117.291 58068 240.973
117.409 56094 236.842
117.526 54885 234.275
117.644 56974 238.692
117.761 62011 249.02
117.879 65947 256.801
117.996 68177 261.107
118.114 70279 265.102
118.231 72237 268.769
118.349 72419 269.108
118.466 73557 271.214
118.584 73738 271.547
118.701 73889 271.825
118.819 72684 269.6
118.936 70665 265.829
119.053 68870 262.431
119.171 66905 258.66
119.288 64307 253.588
119.405 60988 246.957
119.523 57167 239.096
119.64 57771 240.356
119.757 59726 244.389
119.875 63112 251.221
119.992 65566 256.059
120.109 67949 260.67
120.226 68434 261.599
120.343 67853 260.486
120.46 68189 261.13
120.578 66288 257.465
120.695 62225 249.449
120.812 58934 242.763
120.929 55518 235.623
121.046 53790 231.927
121.163 52341 228.782
121.279 53363 231.004
121.396 57296 239.366
121.513 61850 248.697
121.63 63707 252.402
121.747 67164 259.16
121.863 67506 259.819
121.98 68103 260.966
122.097 69192 263.044
122.213 69226 263.108
122.33 68986 262.652
122.446 68947 262.578
122.563 67775 260.336
122.679 65454 255.84
122.795 64210 253.397
122.912 62475 249.95
123.028 59885 244.714
123.144 56376 237.436
123.26 53903 232.17
123.377 0 1
123.493 0 1
123.609 0 1
123.725 0 1
123.84 0 1
123.956 0 1
124.072 0 1
124.188 0 1
124.303 0 1
124.419 0 1
126.852 0 1
126.968 0 1
127.083 0 1
127.199 0 1
127.315 0 1
127.431 0 1
127.547 0 1
127.663 0 1
127.779 0 1
127.895 0 1
128.011 0 1
128.127 0 1
128.243 0 1
128.359 61019 247.02
128.476 58425 241.713
128.592 58651 242.18
128.708 61379 247.748
128.825 64391 253.754
128.941 68376 261.488
129.058 69276 263.203
129.174 70029 264.63
129.291 69953 264.486
129.408 69277 263.205
129.524 66672 258.209
129.641 64229 253.434
129.758 59754 244.446
129.875 56935 238.611
129.992 54886 234.278
130.108 54162 232.727
130.225 56381 237.447
130.342 60294 245.548
130.459 62589 250.178
130.576 67476 259.761
130.693 68153 261.061
130.81 68787 262.273
130.928 69684 263.977
131.045 69929 264.441
131.162 70950 266.364
131.279 70966 266.394
131.396 71032 266.518
131.513 70433 265.392
131.631 68043 260.851
131.748 67237 259.301
131.865 64835 254.627
131.983 60827 246.631
132.1 59778 244.495
132.217 61298 247.584
132.335 64648 254.26
132.452 68208 261.167
132.57 69445 263.524
132.687 67711 260.213
132.804 71953 268.241
132.922 69700 264.008
133.039 67898 260.572
133.157 64550 254.067
133.274 60537 246.043
133.392 58170 241.185
133.509 55934 236.504
133.627 54941 234.395
133.744 55290 235.138
133.862 59134 243.175
133.979 62498 249.996
134.097 65528 255.984
134.214 67888 260.553
134.332 67999 260.766
134.449 68707 262.12
134.567 69340 263.325
134.684 70796 266.075
134.802 70390 265.311
134.919 70905 266.28
135.037 69754 264.11
135.154 69111 262.89
135.272 67053 258.946
135.389 66207 257.307
135.507 62703 250.406
135.624 59927 244.8
135.742 60591 246.152
135.859 63284 251.563
135.977 66314 257.515
136.094 69065 262.802
136.211 69396 263.431
136.329 69812 264.22
136.446 69842 264.276
136.564 68663 262.036
136.681 66412 257.705
136.798 63849 252.684
136.915 59886 244.716
137.033 57092 238.939
137.15 54994 234.508
137.267 54435 233.313
137.384 55663 235.93
137.502 58634 242.145
137.619 62077 249.153
137.736 63562 252.115
137.853 64771 254.501
137.97 68126 261.01
138.087 66636 258.139
138.204 69459 263.551
138.321 69662 263.936
138.438 70339 265.215
138.555 71747 267.856
138.672 70973 266.408
138.788 70133 264.826
138.905 68645 262.002
139.022 66654 258.174
139.139 64252 253.48
139.255 62322 249.644
139.372 62720 250.44
139.488 65171 255.286
139.605 69089 262.848
139.721 70897 266.265
139.838 72477 269.216
139.954 71451 267.303
140.071 70724 265.94
140.187 71170 266.777
140.303 68416 261.565
140.419 64924 254.802
140.535 61733 248.461
140.652 58427 241.717
140.768 0 1
140.884 0 1
141 0 1
141.115 0 1
141.231 0 1
141.347 0 1
141.463 0 1
141.578 0 1
141.694 0 1
144.104 0 1
144.219 0 1
144.335 0 1
144.45 0 1
144.566 0 1
144.682 0 1
144.798 0 1
144.914 0 1
145.03 0 1
145.146 60665 246.303
145.262 60071 245.094
145.378 57559 239.915
145.494 55215 234.979
145.61 52670 229.499
145.726 51015 225.865
145.842 49850 223.271
145.959 49486 222.454
146.075 51022 225.88
146.192 54107 232.609
146.308 55778 236.174
146.425 57214 239.194
146.541 58419 241.7
146.658 59115 243.136
146.774 59816 244.573
146.891 60985 246.951
147.008 60929 246.838
147.125 62166 249.331
147.241 62500 250
147.358 61184 247.354
147.475 59860 244.663
147.592 58127 241.095
147.709 55955 236.548
147.826 53683 231.696
147.943 53152 230.547
148.06 53529 231.363
148.177 57108 238.973
148.294 59983 244.914
148.411 60105 245.163
148.528 60534 246.037
148.645 60330 245.622
148.762 59598 244.127
148.88 59131 243.169
148.997 55197 234.94
149.114 54565 233.592
149.231 51325 226.55
149.349 49977 223.555
149.466 47000 216.795
149.583 47355 217.612
149.701 48561 220.366
149.818 51373 226.656
149.935 52722 229.613
150.053 53914 232.194
150.17 55006 234.534
150.287 55755 236.125
150.405 57576 239.95
150.522 58288 241.429
150.64 58850 242.59
150.757 58988 242.874
150.875 59395 243.711
150.992 58700 242.281
151.11 57726 240.262
151.227 56563 237.83
151.344 53684 231.698
151.462 51475 226.881
151.579 51796 227.587
151.697 52717 229.602
151.814 55304 235.168
151.932 58173 241.191
152.049 58557 241.986
152.167 58881 242.654
152.284 59148 243.204
152.402 58473 241.812
152.519 56719 238.158
152.636 54020 232.422
152.754 52138 228.337
152.871 50449 224.609
152.989 48921 221.181
153.106 47281 217.442
153.223 47352 217.605
153.341 49080 221.54
153.458 50871 225.546
153.575 53276 230.816
153.693 54586 233.636
153.81 55366 235.3
153.927 56821 238.372
154.044 58528 241.926
154.162 58514 241.897
154.279 60219 245.396
154.396 61523 248.038
154.513 61717 248.429
154.63 61295 247.578
154.747 60634 246.24
154.864 59180 243.269
154.981 56731 238.183
155.098 54711 233.904
155.215 54383 233.202
155.332 56647 238.006
155.449 59115 243.136
155.566 61067 247.117
155.683 61517 248.026
155.8 61416 247.823
155.917 61661 248.316
156.033 61359 247.707
156.15 0 1
156.267 0 1
156.383 0 1
156.5 0 1
156.617 0 1
156.733 0 1
156.85 0 1
156.966 0 1
157.082 0 1
157.199 0 1
157.315 0 1
157.431 0 1
157.547 0 1
157.664 0 1
157.78 0 1
157.896 0 1
158.012 0 1
158.128 0 1
158.244 0 1
158.359 0 1
158.475 0 1
158.591 0 1
158.706 0 1
