
6.15755 0 1
6.2731 0 1
6.3887 0 1
6.50437 0 1
6.62009 0 1
6.73587 0 1
6.8517 0 1
6.96759 0 1
7.08353 0 1
7.19952 0 1
7.31557 0 1
7.43166 0 1
7.54781 0 1
7.664 0 1
7.78024 0 1
7.89653 0 1
8.01286 0 1
8.12924 0 1
8.24567 0 1
8.36213 0 1
8.47864 0 1
8.59519 0 1
8.71178 0 1
8.82841 0 1
8.94508 0 1
9.06179 0 1
9.17853 0 1
9.29531 0 1
9.41212 0 1
9.52897 0 1
9.64584 0 1
9.76276 0 1
9.8797 0 1
9.99667 0 1
10.1137 0 1
10.2307 0 1
10.3478 0 1
10.4648 0 1
10.5819 0 1
10.6991 0 1
10.8162 0 1
10.9334 0 1
11.0506 0 1
11.1678 0 1
11.285 0 1
11.4023 0 1
11.5196 0 1
11.6369 0 1
11.7542 0 1
11.8715 0 1
11.9888 0 1
12.1062 0 1
12.2235 0 1
12.3409 0 1
12.4582 0 1
12.5756 0 1
12.693 0 1
12.8104 0 1
12.9278 0 1
13.0452 0 1
13.1626 0 1
13.28 0 1
13.3974 0 1
13.5149 0 1
13.6323 0 1
13.7497 0 1
13.8671 0 1
13.9845 0 1
14.1019 0 1
14.2193 0 1
14.3367 0 1
14.4541 0 1
14.5714 0 1
14.6888 0 1
14.8062 0 1
14.9235 0 1
15.0408 0 0
15.1581 0 0
15.2755 0 0
15.3927 0 0
15.51 0 0
15.6273 0 0
15.7445 0 0
15.8617 0 0
15.9789 0 0
16.0961 0 0
16.2132 0 0
16.3304 0 0
16.4475 0 0
16.5646 0 0
16.6816 0 0
16.7986 0 0
16.9156 0 0
17.0326 0 0
17.1496 0 0
17.2665 0 0
17.3833 0 0
17.5002 0 0
17.617 0 0
17.7338 0 0
17.8505 0 0
17.9672 0 0
18.0839 0 0
18.2005 0 0
18.3171 0 0
18.4337 0 0
18.5502 0 0
18.6666 0 0
18.7831 0 0
18.8994 0 0
19.0158 0 0
19.1321 0 0
19.2483 0 0
19.3645 0 0
19.4806 0 0
19.5967 0 0
19.7128 0 0
19.8288 0 0
19.9447 0 0
20.0606 0 1
20.1764 0 1
20.2922 0 1
20.4079 0 1
20.5236 0 1
20.6392 0 1
20.7548 0 1
20.8702 0 1
23.3078 0 1
23.4233 0 1
23.539 0 1
23.6547 0 1
23.7704 0 1
23.8862 0 1
24.0021 0 1
24.118 0 1
24.234 0 1
24.35 0 1
24.4661 13360 115.585
24.5822 13592 116.585
24.6984 13414 115.819
24.8146 13393 115.728
24.9309 13481 116.108
25.0472 13211 114.939
25.1636 13071 114.328
25.28 13231 115.026
25.3965 13442 115.94
25.513 13702 117.056
25.6296 14217 119.235
25.7462 14844 121.836
25.8628 15168 123.158
25.9795 15617 124.968
26.0962 15198 123.28
26.213 15283 123.624
26.3298 14969 122.348
26.4466 15198 123.28
26.5635 14482 120.341
26.6804 13531 116.323
26.7973 13128 114.577
26.9143 13398 115.75
27.0313 13962 118.161
27.1483 14325 119.687
27.2653 14895 122.045
27.3824 14934 122.205
27.4996 15324 123.79
27.6167 15044 122.654
27.7339 14786 121.598
27.8511 14510 120.457
27.9683 14073 118.63
28.0855 13806 117.499
28.2028 13680 116.962
28.3201 13849 117.682
28.4374 13443 115.944
28.5547 12964 113.86
28.6721 12951 113.802
28.7894 12905 113.6
28.9068 13161 114.721
29.0242 13506 116.215
29.1416 13727 117.162
29.259 14049 118.528
29.3764 14405 120.021
29.4939 14697 121.231
29.6113 14647 121.025
29.7288 14887 122.012
29.8463 14409 120.037
29.9638 14384 119.933
30.0812 13724 117.149
30.1987 12875 113.468
30.3162 12484 111.732
30.4337 12797 113.124
30.5512 13499 116.185
30.6687 13896 117.881
30.7862 14342 119.758
30.9037 14669 121.116
31.0212 14789 121.61
31.1387 14806 121.68
31.2562 14737 121.396
31.3737 14473 120.304
31.4912 14128 118.861
31.6087 14109 118.781
31.7262 13685 116.983
31.8436 13576 116.516
31.9611 13411 115.806
32.0785 13047 114.223
32.1959 12813 113.195
32.3134 12913 113.635
32.4308 12944 113.772
32.5482 13285 115.261
32.6655 13801 117.478
32.7829 13852 117.695
32.9002 14289 119.537
33.0176 14476 120.316
33.1349 14492 120.383
33.2522 14518 120.491
33.3694 14832 121.787
33.4867 14492 120.383
33.6039 14183 119.092
33.7211 13483 116.116
33.8383 12695 112.672
33.9554 12388 111.301
34.0725 12236 110.616
34.1896 12919 113.662
34.3067 13432 115.897
34.4237 13714 117.107
34.5407 14289 119.537
34.6577 14483 120.345
34.7746 14568 120.698
34.8915 14699 121.239
35.0084 14307 119.612
35.1252 14132 118.878
35.242 14036 118.474
35.3587 13773 117.358
35.4755 13660 116.876
35.5921 13562 116.456
35.7088 13006 114.044
35.8254 12902 113.587
35.9419 12545 112.004
36.0584 12648 112.463
36.1749 12818 113.217
36.2913 12916 113.649
36.4077 13129 114.582
36.524 13608 116.653
36.6403 14030 118.448
36.7565 14242 119.34
36.8727 14373 119.887
36.9889 14521 120.503
37.1049 13919 117.979
37.221 0 1
37.3369 0 1
37.4529 0 1
37.5687 0 1
37.6845 0 1
37.8003 0 1
37.916 0 1
38.0316 0 1
38.1472 0 1
40.5851 0 1
40.7008 0 1
40.8164 0 1
40.9322 0 1
41.048 0 1
41.1639 0 1
41.2798 0 1
41.3958 0 1
41.5118 0 1
41.6279 0 1
41.744 11209 105.873
41.8602 11670 108.028
41.9765 11919 109.174
42.0928 12249 110.675
42.2091 12387 111.297
42.3255 12087 109.941
42.4419 11434 106.93
42.5584 10682 103.354
42.675 10098 100.489
42.7915 9840 99.1968
42.9081 10094 100.469
43.0248 10902 104.413
43.1415 11204 105.849
43.2582 11622 107.805
43.375 11861 108.908
43.4918 12065 109.841
43.6087 11720 108.259
43.7256 11537 107.41
43.8425 11460 107.051
43.9595 10957 104.676
44.0765 10814 103.99
44.1935 10684 103.363
44.3106 10250 101.242
44.4277 9922 99.6092
44.5448 9789 98.9394
44.6619 9185 95.8384
44.7791 9028 95.0158
44.8963 9192 95.8749
45.0136 9180 95.8123
45.1308 9118 95.4882
45.2481 9527 97.6064
45.3654 9705 98.514
45.4827 9795 98.9697
45.6001 9646 98.2141
45.7174 9663 98.3006
45.8348 9597 97.9643
45.9522 9460 97.2625
46.0697 8409 91.7006
46.1871 8023 89.5712
46.3046 7587 87.1034
46.422 7450 86.3134
46.5395 8179 90.4378
46.657 8441 91.8749
46.7745 8592 92.693
46.892 8671 93.1182
47.0096 8721 93.3863
47.1271 8722 93.3916
47.2446 8466 92.0109
47.3622 8414 91.7279
47.4797 8453 91.9402
47.5973 8152 90.2884
47.7149 7908 88.9269
47.8324 7689 87.6869
47.95 7436 86.2322
48.0675 7210 84.9117
48.1851 6724 82
48.3027 6667 81.6517
48.4202 6608 81.2896
48.5378 6756 82.1949
48.6554 6867 82.8674
48.7729 7183 84.7526
48.8904 7398 86.0116
49.008 7428 86.1858
49.1255 7505 86.6314
49.243 7524 86.741
49.3605 7345 85.703
49.478 6880 82.9458
49.5955 6649 81.5414
49.713 6060 77.846
49.8304 6050 77.7817
49.9479 6567 81.037
50.0653 6850 82.7647
50.1827 7469 86.4234
50.3001 7668 87.5671
50.4175 8096 89.9778
50.5348 8327 91.2524
50.6521 8577 92.6121
50.7694 8868 94.1701
50.8867 8905 94.3663
51.004 8971 94.7154
51.1212 9164 95.7288
51.2384 9114 95.4673
51.3556 9147 95.6399
51.4727 9022 94.9842
51.5899 8905 94.3663
51.707 8611 92.7955
51.824 8850 94.0744
51.9411 9187 95.8488
52.0581 9570 97.8264
52.175 10020 100.1
52.2919 10456 102.255
52.4088 10894 104.374
52.5257 11220 105.925
52.6425 11322 106.405
52.7593 11592 107.666
52.876 11612 107.759
52.9927 11631 107.847
53.1094 10882 104.317
53.226 10315 101.563
53.3426 9615 98.0561
53.4591 9709 98.5343
53.5756 10241 101.198
53.692 11235 105.995
53.8084 11909 109.128
53.9248 12409 111.396
54.0411 12791 113.097
54.1573 13084 114.385
54.2735 0 1
54.3896 0 1
54.5057 0 1
54.6217 0 1
54.7377 0 1
54.8537 0 1
54.9695 0 1
55.0853 0 1
55.2011 0 1
55.3168 0 1
55.4324 0 1
57.824 0 1
57.9396 0 1
58.0553 0 1
58.1711 0 1
58.2869 0 1
58.4028 0 1
58.5187 0 1
58.6347 0 1
58.7508 0 1
58.8669 0 1
58.983 13656 116.859
59.0992 14833 121.791
59.2155 15177 123.195
59.3318 15494 124.475
59.4482 15686 125.244
59.5646 15694 125.276
59.681 15455 124.318
59.7975 15288 123.645
59.9141 14880 121.984
60.0306 14517 120.487
60.1473 14030 118.448
60.2639 13356 115.568
60.3807 12612 112.303
60.4974 12667 112.548
60.6142 12597 112.236
60.731 13151 114.678
60.8479 13258 115.143
60.9648 13660 116.876
61.0818 14306 119.608
61.1987 13931 118.03
61.3158 14333 119.721
61.4328 14026 118.431
61.5499 13523 116.288
61.667 12484 111.732
61.7841 11956 109.343
61.9013 11384 106.696
62.0185 11065 105.19
62.1357 11486 107.173
62.253 12148 110.218
62.3702 12944 113.772
62.4875 13436 115.914
62.6049 13759 117.299
62.7222 14119 118.823
62.8396 14027 118.436
62.9569 14220 119.248
63.0743 14406 120.025
63.1918 14192 119.13
63.3092 13841 117.648
63.4267 13490 116.146
63.5441 12951 113.802
63.6616 12699 112.69
63.7791 11956 109.343
63.8966 11507 107.271
64.0142 11350 106.536
64.1317 11477 107.131
64.2492 11759 108.439
64.3668 12064 109.836
64.4843 12589 112.201
64.6019 12853 113.371
64.7195 12756 112.942
64.837 12924 113.684
64.9546 12683 112.619
65.0722 12286 110.842
65.1898 11673 108.042
65.3074 10875 104.283
65.4249 10173 100.861
65.5425 10089 100.444
65.6601 10097 100.484
65.7777 10679 103.339
65.8952 11496 107.219
66.0128 12070 109.864
66.1304 12560 112.071
66.2479 12902 113.587
66.3655 13188 114.839
66.483 13595 116.598
66.6005 13558 116.439
66.718 13282 115.248
66.8355 13321 115.417
66.953 13280 115.239
67.0705 12883 113.503
67.1879 12011 109.595
67.3054 11765 108.467
67.4228 11298 106.292
67.5402 10791 103.88
67.6576 10751 103.687
67.7749 11027 105.01
67.8923 11309 106.344
68.0096 11979 109.449
68.1269 12469 111.665
68.2442 12962 113.851
68.3614 12858 113.393
68.4787 13142 114.639
68.5958 12938 113.745
68.713 12485 111.736
68.8302 11777 108.522
68.9473 10841 104.12
69.0643 10332 101.646
69.1814 10116 100.578
69.2984 10610 103.005
69.4154 11607 107.736
69.5323 12357 111.162
69.6492 12826 113.252
69.7661 13465 116.039
69.8829 14158 118.987
69.9997 14229 119.285
70.1165 14503 120.428
70.2332 14667 121.107
70.3499 14624 120.93
70.4665 14601 120.835
70.5831 14250 119.373
70.6996 13889 117.852
70.8161 13533 116.331
70.9326 12906 113.605
71.049 12397 111.342
71.1653 11747 108.384
71.2817 11375 106.654
71.3979 11272 106.17
71.5141 11462 107.061
71.6303 11809 108.669
71.7464 11342 106.499
71.8624 0 1
71.9784 0 1
72.0944 0 1
72.2102 0 1
72.3261 0 1
72.4418 0 1
72.5575 0 1
72.6732 0 1
75.1054 0 1
75.2209 0 1
75.3365 0 1
75.4521 0 1
75.5678 0 1
75.6835 0 1
75.7993 0 1
75.9151 0 1
76.031 0 1
76.147 12504 111.821
76.263 13208 114.926
76.3791 13148 114.665
76.4952 12195 110.431
76.6113 11846 108.839
76.7276 11716 108.24
76.8438 12366 111.203
76.9601 12886 113.517
77.0765 13375 115.65
77.1929 13779 117.384
77.3093 14407 120.029
77.4258 14372 119.883
77.5423 14329 119.704
77.6589 13743 117.231
77.7755 12777 113.035
77.8921 11820 108.72
78.0088 10869 104.254
78.1256 10311 101.543
78.2423 9835 99.1716
78.3591 10489 102.416
78.4759 11395 106.747
78.5928 12521 111.897
78.7097 12793 113.106
78.8266 13452 115.983
78.9436 13959 118.148
79.0606 14173 119.05
79.1776 14294 119.558
79.2946 14383 119.929
79.4117 14256 119.398
79.5288 14040 118.491
79.6459 13986 118.262
79.7631 13382 115.681
79.8802 12784 113.066
79.9974 12191 110.413
80.1147 11262 106.123
80.2319 10617 103.039
80.3491 10751 103.687
80.4664 11233 105.986
80.5837 11524 107.35
80.701 12293 110.874
80.8183 12382 111.274
80.9357 12955 113.82
81.053 12598 112.241
81.1704 12969 113.882
81.2877 12557 112.058
81.4051 11882 109.005
81.5225 10929 104.542
81.6399 9606 98.0102
81.7573 9130 95.551
81.8747 8988 94.8051
81.9922 9165 95.734
82.1096 10276 101.371
82.227 11118 105.442
82.3444 11503 107.252
82.4619 12008 109.581
82.5793 12646 112.454
82.6967 12386 111.292
82.8142 12523 111.906
82.9316 12515 111.87
83.049 12585 112.183
83.1664 12299 110.901
83.2838 12002 109.554
83.4012 11401 106.775
83.5186 10919 104.494
83.636 10386 101.912
83.7534 9793 98.9596
83.8708 9345 96.6695
83.9881 9307 96.4728
84.1055 9669 98.3311
84.2228 10140 100.698
84.3401 10932 104.556
84.4575 11214 105.896
84.5747 11409 106.813
84.692 11700 108.167
84.8093 11578 107.601
84.9265 11336 106.471
85.0437 10269 101.336
85.1609 9523 97.5859
85.2781 8857 94.1116
85.3952 8597 92.72
85.5123 8888 94.2762
85.6294 9668 98.326
85.7465 10679 103.339
85.8636 11505 107.261
85.9806 12007 109.576
86.0976 12638 112.419
86.2145 12854 113.375
86.3315 13419 115.84
86.4484 13853 117.699
86.5652 14080 118.659
86.682 14114 118.802
86.7988 14010 118.364
86.9156 13420 115.845
87.0323 13290 115.282
87.149 12672 112.57
87.2657 12216 110.526
87.3823 11463 107.065
87.4988 11392 106.733
87.6154 11903 109.101
87.7318 12595 112.227
87.8483 13563 116.46
87.9647 14244 119.348
88.081 14430 120.125
88.1973 14756 121.474
88.3136 15047 122.666
88.4298 14541 120.586
88.546 13788 117.422
88.6621 12316 110.977
88.7781 11625 107.819
88.8942 0 1
89.0101 0 1
89.126 0 1
89.2419 0 1
89.3577 0 1
89.4734 0 1
89.5891 0 1
89.7047 0 1
89.8203 0 1
89.9358 0 1
92.3269 0 1
92.4424 0 1
92.558 0 1
92.6736 0 1
92.7893 0 1
92.905 0 1
93.0208 0 1
93.1366 0 1
93.2525 0 1
93.3685 0 1
93.4845 0 1
93.6005 15235 123.43
93.7167 15341 123.859
93.8328 15116 122.947
93.949 14632 120.963
94.0653 13653 116.846
94.1816 12403 111.369
94.2979 11745 108.374
94.4143 11446 106.986
94.5307 11432 106.921
94.6472 12003 109.558
94.7637 13037 114.18
94.8803 14000 118.322
94.9969 14552 120.632
95.1135 15186 123.231
95.2302 15898 126.087
95.3469 16131 127.008
95.4637 16301 127.675
95.5805 16399 128.059
95.6973 16819 129.688
95.8142 16655 129.054
95.9311 16109 126.921
96.048 15938 126.246
96.1649 15638 125.052
96.2819 15124 122.98
96.3989 14276 119.482
96.516 13766 117.329
96.633 13165 114.739
96.7501 13476 116.086
96.8673 13786 117.414
96.9844 14592 120.797
97.1016 15165 123.146
97.2188 15670 125.18
97.336 15767 125.567
97.4532 15856 125.921
97.5704 15141 123.049
97.6877 14004 118.338
97.805 13002 114.026
97.9223 12068 109.854
98.0396 11504 107.257
98.1569 11173 105.702
98.2743 11427 106.897
98.3916 12428 111.481
98.509 13338 115.49
98.6264 14041 118.495
98.7438 14774 121.548
98.8612 15273 123.584
98.9786 15624 124.996
99.096 16136 127.028
99.2134 16002 126.499
99.3308 16410 128.102
99.4482 16180 127.201
99.5656 15965 126.353
99.6831 15794 125.674
99.8005 15042 122.646
99.9179 14290 119.541
100.035 13761 117.307
100.153 13239 115.061
100.27 12975 113.908
100.388 13588 116.568
100.505 14245 119.352
100.622 15020 122.556
100.74 15142 123.053
100.857 15133 123.016
100.975 15427 124.205
101.092 15250 123.491
101.209 14839 121.815
101.327 13631 116.752
101.444 12407 111.387
101.561 11899 109.083
101.679 11410 106.818
101.796 11223 105.939
101.913 12123 110.104
102.03 13312 115.378
102.148 14113 118.798
102.265 15956 126.317
102.382 14500 120.416
102.499 15881 126.02
102.616 16489 128.41
102.733 16680 129.151
102.851 16782 129.545
102.968 17054 130.591
103.085 16688 129.182
103.202 16539 128.604
103.319 16064 126.744
103.436 15528 124.611
103.552 14749 121.445
103.669 13991 118.284
103.786 14013 118.377
103.903 14580 120.748
104.02 15528 124.611
104.137 16157 127.11
104.253 16796 129.599
104.37 16402 128.07
104.487 17177 131.061
104.603 16936 130.138
104.72 16147 127.071
104.836 14983 122.405
104.953 14231 119.294
105.069 13182 114.813
105.186 13057 114.267
105.302 12955 113.82
105.418 14458 120.241
105.535 15772 125.587
105.651 16712 129.275
105.767 17783 133.353
105.883 18527 136.114
105.999 19261 138.784
106.115 0 1
106.231 0 1
106.347 0 1
106.463 0 1
106.579 0 1
106.694 0 1
106.81 0 1
106.926 0 1
107.041 0 1
107.157 0 1
109.576 0 1
109.692 0 1
109.807 0 1
109.923 0 1
110.039 0 1
110.155 0 1
110.27 0 1
110.386 0 1
110.502 0 1
110.618 18797 137.102
110.735 20410 142.864
110.851 21187 145.558
110.967 22147 148.819
111.083 22780 150.93
111.199 23049 151.819
111.316 23352 152.814
111.432 23705 153.964
111.549 23735 154.062
111.665 23268 152.539
111.782 22883 151.271
111.898 21992 148.297
112.015 21180 145.534
112.132 19577 139.918
112.248 18824 137.201
112.365 19430 139.392
112.482 20511 143.217
112.599 21092 145.231
112.716 22494 149.98
112.832 22478 149.927
112.949 22646 150.486
113.066 22717 150.722
113.183 21971 148.226
113.3 20592 143.499
113.417 18862 137.339
113.534 17685 132.985
113.652 16929 130.111
113.769 16246 127.46
113.886 16351 127.871
114.003 17268 131.408
114.12 19210 138.6
114.238 20471 143.077
114.355 21097 145.248
114.472 22641 150.469
114.589 21102 145.265
114.707 22421 149.736
114.824 23101 151.99
114.942 23307 152.666
115.059 23421 153.039
115.176 23179 152.247
115.294 22889 151.291
115.411 22753 150.841
115.529 21542 146.772
115.646 20306 142.499
115.764 19457 139.488
115.881 19172 138.463
115.999 20127 141.87
116.116 21424 146.369
116.234 22165 148.879
116.351 22682 150.605
116.469 22675 150.582
116.586 22733 150.775
116.704 22547 150.157
116.821 21485 146.578
116.939 19810 140.748
117.056 18712 136.792
117.174 17726 133.139
117.291 16827 129.719
117.409 16462 128.304
117.526 17288 131.484
117.644 18396 135.632
117.761 19806 140.734
117.879 20808 144.25
117.996 21348 146.11
118.114 21894 147.966
118.231 22253 149.174
118.349 22767 150.887
118.466 22820 151.063
118.584 23046 151.809
118.701 22504 150.013
118.819 22468 149.893
118.936 22115 148.711
119.053 21449 146.455
119.171 20511 143.217
119.288 19325 139.014
119.405 18882 137.412
119.523 18497 136.004
119.64 19332 139.04
119.757 20166 142.007
119.875 20564 143.402
119.992 20630 143.631
120.109 20356 142.674
120.226 20621 143.6
120.343 20243 142.278
120.46 19588 139.957
120.578 18358 135.492
120.695 16730 129.345
120.812 15777 125.607
120.929 15384 124.032
121.046 14927 122.176
121.163 14750 121.45
121.279 15773 125.591
121.396 17032 130.507
121.513 17702 133.049
121.63 18072 134.432
121.747 18710 136.785
121.863 18775 137.022
121.98 18749 136.927
122.097 19464 139.513
122.213 19134 138.326
122.33 19163 138.43
122.446 18744 136.909
122.563 17977 134.078
122.679 17859 133.638
122.795 17449 132.095
122.912 16649 129.031
123.028 15645 125.08
123.144 15110 122.923
123.26 14920 122.147
123.377 0 1
123.493 0 1
123.609 0 1
123.725 0 1
123.84 0 1
123.956 0 1
124.072 0 1
124.188 0 1
124.303 0 1
124.419 0 1
126.852 0 1
126.968 0 1
127.083 0 1
127.199 0 1
127.315 0 1
127.431 0 1
127.547 0 1
127.663 0 1
127.779 0 1
127.895 0 1
128.011 0 1
128.127 0 1
128.243 0 1
128.359 16054 126.704
128.476 16138 127.035
128.592 16759 129.457
128.708 17710 133.079
128.825 18547 136.187
128.941 18748 136.923
129.058 18635 136.51
129.174 18650 136.565
129.291 18595 136.363
129.408 17666 132.914
129.524 16762 129.468
129.641 15956 126.317
129.758 15369 123.972
129.875 14903 122.078
129.992 14569 120.702
130.108 15307 123.721
130.225 16062 126.736
130.342 17053 130.587
130.459 17603 132.676
130.576 18772 137.011
130.693 19132 138.318
130.81 19296 138.91
130.928 19699 140.353
131.045 19872 140.968
131.162 20200 142.127
131.279 20191 142.095
131.396 20566 143.409
131.513 20254 142.317
131.631 19593 139.975
131.748 19224 138.651
131.865 18121 134.614
131.983 17832 133.537
132.1 18305 135.296
132.217 19577 139.918
132.335 20453 143.014
132.452 20424 142.913
132.57 20649 143.698
132.687 19937 141.198
132.804 21223 145.681
132.922 20033 141.538
133.039 18720 136.821
133.157 17986 134.112
133.274 17148 130.95
133.392 16526 128.553
133.509 16102 126.894
133.627 16193 127.252
133.744 16918 130.069
133.862 18027 134.265
133.979 18637 136.517
134.097 19124 138.29
134.214 20122 141.852
134.332 19963 141.29
134.449 20417 142.888
134.567 20689 143.837
134.684 21021 144.986
134.802 21257 145.798
134.919 21369 146.181
135.037 20976 144.831
135.154 20603 143.537
135.272 19441 139.431
135.389 19269 138.813
135.507 18546 136.184
135.624 18606 136.404
135.742 19467 139.524
135.859 20403 142.839
135.977 20612 143.569
136.094 20641 143.67
136.211 20733 143.99
136.329 20919 144.634
136.446 20524 143.262
136.564 19643 140.153
136.681 18577 136.297
136.798 18032 134.283
136.915 17043 130.549
137.033 16704 129.244
137.15 16213 127.33
137.267 16396 128.047
137.384 16991 130.35
137.502 18008 134.194
137.619 18553 136.209
137.736 19149 138.38
137.853 19109 138.235
137.97 20050 141.598
138.087 19787 140.666
138.204 20549 143.349
138.321 20599 143.524
138.438 20981 144.848
138.555 21144 145.41
138.672 20952 144.748
138.788 20445 142.986
138.905 20049 141.594
139.022 19327 139.022
139.139 18752 136.938
139.255 18777 137.029
139.372 19537 139.775
139.488 20183 142.067
139.605 21019 144.979
139.721 21173 145.509
139.838 20985 144.862
139.954 20672 143.778
140.071 20190 142.092
140.187 19983 141.361
140.303 18819 137.182
140.419 17983 134.101
140.535 17040 130.537
140.652 16516 128.515
140.768 0 1
140.884 0 1
141 0 1
141.115 0 1
141.231 0 1
141.347 0 1
141.463 0 1
141.578 0 1
141.694 0 1
144.104 0 1
144.219 0 1
144.335 0 1
144.45 0 1
144.566 0 1
144.682 0 1
144.798 0 1
144.914 0 1
145.03 0 1
145.146 17608 132.695
145.262 16628 128.95
145.378 16222 127.366
145.494 15716 125.363
145.61 15243 123.463
145.726 14837 121.807
145.842 14774 121.548
145.959 15037 122.625
146.075 15236 123.434
146.192 16052 126.696
146.308 16417 128.129
146.425 16870 129.885
146.541 17102 130.775
146.658 17395 131.89
146.774 17678 132.959
146.891 17912 133.836
147.008 17849 133.6
147.125 18422 135.728
147.241 18560 136.235
147.358 18248 135.085
147.475 17876 133.701
147.592 17260 131.377
147.709 16307 127.699
147.826 16096 126.87
147.943 16723 129.317
148.06 17141 130.924
148.177 17894 133.768
148.294 18109 134.57
148.411 17900 133.791
148.528 18090 134.499
148.645 17955 133.996
148.762 17629 132.774
148.88 17055 130.595
148.997 15840 125.857
149.114 16022 126.578
149.231 15095 122.862
149.349 14857 121.889
149.466 14403 120.012
149.583 14415 120.062
149.701 14819 121.733
149.818 15352 123.903
149.935 15802 125.706
150.053 16003 126.503
150.17 16681 129.155
150.287 16724 129.321
150.405 17319 131.602
150.522 17245 131.32
150.64 17649 132.85
150.757 18029 134.272
150.875 17900 133.791
150.992 17532 132.408
151.11 17252 131.347
151.227 16930 130.115
151.344 16054 126.704
151.462 15859 125.933
151.579 16359 127.902
151.697 16934 130.131
151.814 17620 132.74
151.932 17775 133.323
152.049 17715 133.098
152.167 17974 134.067
152.284 17731 133.158
152.402 17303 131.541
152.519 16461 128.3
152.636 16167 127.15
152.754 15791 125.662
152.871 15369 123.972
152.989 14975 122.372
153.106 14353 119.804
153.223 14757 121.478
153.341 15144 123.061
153.458 15755 125.519
153.575 16297 127.66
153.693 16532 128.577
153.81 16818 129.684
153.927 17154 130.973
154.044 17748 133.222
154.162 17624 132.755
154.279 18382 135.58
154.396 18829 137.219
154.513 18804 137.128
154.63 18500 136.015
154.747 18499 136.011
154.864 17935 133.922
154.981 16963 130.242
155.098 16659 129.07
155.215 16908 130.031
155.332 17743 133.203
155.449 18318 135.344
155.566 18068 134.417
155.683 18343 135.436
155.8 18002 134.172
155.917 18110 134.573
156.033 17943 133.951
156.15 0 1
156.267 0 1
156.383 0 1
156.5 0 1
156.617 0 1
156.733 0 1
156.85 0 1
156.966 0 1
157.082 0 1
157.199 0 1
157.315 0 1
157.431 0 1
157.547 0 1
157.664 0 1
157.78 0 1
157.896 0 1
158.012 0 1
158.128 0 1
158.244 0 1
158.359 0 1
158.475 0 1
158.591 0 1
158.706 0 1
