
6.15755 0 1
6.2731 0 1
6.3887 0 1
6.50437 0 1
6.62009 0 1
6.73587 0 1
6.8517 0 1
6.96759 0 1
7.08353 0 1
7.19952 0 1
7.31557 0 1
7.43166 0 1
7.54781 0 1
7.664 0 1
7.78024 0 1
7.89653 0 1
8.01286 0 1
8.12924 0 1
8.24567 0 1
8.36213 0 1
8.47864 0 1
8.59519 0 1
8.71178 0 1
8.82841 0 1
8.94508 0 1
9.06179 0 1
9.17853 0 1
9.29531 0 1
9.41212 0 1
9.52897 0 1
9.64584 0 1
9.76276 0 1
9.8797 0 1
9.99667 0 1
10.1137 0 1
10.2307 0 1
10.3478 0 1
10.4648 0 1
10.5819 0 1
10.6991 0 1
10.8162 0 1
10.9334 0 1
11.0506 0 1
11.1678 0 1
11.285 0 1
11.4023 0 1
11.5196 0 1
11.6369 0 1
11.7542 0 1
11.8715 0 1
11.9888 0 1
12.1062 0 1
12.2235 0 1
12.3409 0 1
12.4582 0 1
12.5756 0 1
12.693 0 1
12.8104 0 1
12.9278 0 1
13.0452 0 1
13.1626 0 1
13.28 0 1
13.3974 0 1
13.5149 0 1
13.6323 0 1
13.7497 0 1
13.8671 0 1
13.9845 0 1
14.1019 0 1
14.2193 0 1
14.3367 0 1
14.4541 0 1
14.5714 0 1
14.6888 0 1
14.8062 0 1
14.9235 0 1
15.0408 3515 59.2874
15.1581 3443 58.6771
15.2755 3498 59.1439
15.3927 3483 59.0169
15.51 3333 57.7321
15.6273 3358 57.9483
15.7445 3348 57.8619
15.8617 3401 58.3181
15.9789 3432 58.5833
16.0961 3496 59.127
16.2132 3622 60.1831
16.3304 3820 61.8061
16.4475 3882 62.3057
16.5646 3829 61.8789
16.6816 3958 62.9126
16.7986 4053 63.6632
16.9156 3904 62.482
17.0326 3986 63.1348
17.1496 3946 62.8172
17.2665 3863 62.153
17.3833 3856 62.0967
17.5002 3792 61.5792
17.617 3849 62.0403
17.7338 3997 63.2218
17.8505 4039 63.5531
17.9672 4149 64.4127
18.0839 4261 65.2763
18.2005 4286 65.4675
18.3171 4469 66.8506
18.4337 4434 66.5883
18.5502 4609 67.8896
18.6666 4637 68.0955
18.7831 4436 66.6033
18.8994 4531 67.3127
19.0158 4365 66.0681
19.1321 4306 65.6201
19.2483 4134 64.2962
19.3645 4277 65.3988
19.4806 4044 63.5925
19.5967 4189 64.7225
19.7128 4365 66.0681
19.8288 4460 66.7832
19.9447 4192 64.7457
20.0606 0 1
20.1764 0 1
20.2922 0 1
20.4079 0 1
20.5236 0 1
20.6392 0 1
20.7548 0 1
20.8702 0 1
23.3078 0 1
23.4233 0 1
23.539 0 1
23.6547 0 1
23.7704 0 1
23.8862 0 1
24.0021 0 1
24.118 0 1
24.234 0 1
24.35 0 1
24.4661 4304 65.6049
24.5822 4275 65.3835
24.6984 4415 66.4455
24.8146 4414 66.4379
24.9309 4595 67.7864
25.0472 4765 69.029
25.1636 4786 69.1809
25.28 4925 70.1783
25.3965 4786 69.1809
25.513 4825 69.4622
25.6296 4673 68.3593
25.7462 4715 68.6659
25.8628 4702 68.5711
25.9795 4691 68.4909
26.0962 4720 68.7023
26.213 4783 69.1592
26.3298 4820 69.4262
26.4466 4913 70.0928
26.5635 4967 70.4769
26.6804 5144 71.7217
26.7973 5224 72.2772
26.9143 5353 73.1642
27.0313 5304 72.8286
27.1483 5344 73.1027
27.2653 5618 74.9533
27.3824 5476 74
27.4996 5488 74.081
27.6167 5317 72.9178
27.7339 5045 71.0282
27.8511 5089 71.3372
27.9683 5015 70.8167
28.0855 4680 68.4105
28.2028 4769 69.0579
28.3201 4586 67.72
28.4374 4802 69.2965
28.5547 4905 70.0357
28.6721 5199 72.1041
28.7894 5158 71.8192
28.9068 5089 71.3372
29.0242 5065 71.1688
29.1416 5003 70.7319
29.259 4731 68.7823
29.3764 4710 68.6294
29.4939 4576 67.6461
29.6113 4629 68.0368
29.7288 4676 68.3813
29.8463 4854 69.6707
29.9638 4981 70.5762
30.0812 5020 70.852
30.1987 5108 71.4703
30.3162 5154 71.7914
30.4337 5411 73.5595
30.5512 5469 73.9527
30.6687 5514 74.2563
30.7862 5604 74.8599
30.9037 5717 75.6108
31.0212 5787 76.0723
31.1387 5542 74.4446
31.2562 5327 72.9863
31.3737 5252 72.4707
31.4912 5134 71.6519
31.6087 4910 70.0714
31.7262 4757 68.971
31.8436 4840 69.5701
31.9611 5041 71
32.0785 5251 72.4638
32.1959 5303 72.8217
32.3134 5411 73.5595
32.4308 5481 74.0338
32.5482 5273 72.6154
32.6655 5032 70.9366
32.7829 5223 72.2703
32.9002 4839 69.5629
33.0176 4777 69.1158
33.1349 4870 69.7854
33.2522 4930 70.214
33.3694 4793 69.2315
33.4867 4963 70.4486
33.6039 5093 71.3653
33.7211 5249 72.45
33.8383 5223 72.2703
33.9554 5464 73.9189
34.0725 5460 73.8918
34.1896 5664 75.2596
34.3067 5518 74.2832
34.4237 5624 74.9933
34.5407 5735 75.7298
34.6577 5837 76.4003
34.7746 5651 75.1731
34.8915 5562 74.5788
35.0084 5353 73.1642
35.1252 5324 72.9657
35.242 5278 72.6498
35.3587 5081 71.2811
35.4755 4898 69.9857
35.5921 4878 69.8427
35.7088 5081 71.2811
35.8254 5220 72.2496
35.9419 5439 73.7496
36.0584 5510 74.2294
36.1749 5403 73.5051
36.2913 5311 72.8766
36.4077 5274 72.6223
36.524 5043 71.0141
36.6403 4865 69.7496
36.7565 4861 69.7209
36.8727 4827 69.4766
36.9889 4664 68.2935
37.1049 4918 70.1285
37.221 0 1
37.3369 0 1
37.4529 0 1
37.5687 0 1
37.6845 0 1
37.8003 0 1
37.916 0 1
38.0316 0 1
38.1472 0 1
40.5851 0 1
40.7008 0 1
40.8164 0 1
40.9322 0 1
41.048 0 1
41.1639 0 1
41.2798 0 1
41.3958 0 1
41.5118 0 1
41.6279 0 1
41.744 4103 64.0547
41.8602 4134 64.2962
41.9765 4171 64.5833
42.0928 4074 63.8279
42.2091 4282 65.437
42.3255 4579 67.6683
42.4419 4532 67.3201
42.5584 4779 69.1303
42.675 4777 69.1158
42.7915 5158 71.8192
42.9081 5125 71.5891
43.0248 5176 71.9444
43.1415 5420 73.6206
43.2582 5284 72.6911
43.375 5188 72.0278
43.4918 5273 72.6154
43.6087 5197 72.0902
43.7256 4977 70.5479
43.8425 4905 70.0357
43.9595 4785 69.1737
44.0765 4633 68.0661
44.1935 4410 66.4078
44.3106 4297 65.5515
44.4277 4429 66.5507
44.5448 4426 66.5282
44.6619 4424 66.5132
44.7791 4707 68.6076
44.8963 4386 66.2269
45.0136 4394 66.2873
45.1308 4187 64.707
45.2481 4029 63.4744
45.3654 3885 62.3298
45.4827 3662 60.5145
45.6001 3747 61.2127
45.7174 3578 59.8164
45.8348 3688 60.7289
45.9522 3893 62.3939
46.0697 3967 62.9841
46.1871 4116 64.1561
46.3046 4177 64.6297
46.422 4270 65.3452
46.5395 4426 66.5282
46.657 4505 67.1193
46.7745 4392 66.2722
46.892 4552 67.4685
47.0096 4316 65.6963
47.1271 4468 66.8431
47.2446 4456 66.7533
47.3622 4234 65.0692
47.4797 4122 64.2028
47.5973 3976 63.0555
47.7149 3800 61.6441
47.8324 3705 60.8687
47.95 3682 60.6795
48.0675 3758 61.3025
48.1851 3804 61.6766
48.3027 3824 61.8385
48.4202 3893 62.3939
48.5378 3796 61.6117
48.6554 3555 59.6238
48.7729 3385 58.1808
48.8904 3239 56.9122
49.008 3142 56.0535
49.1255 2975 54.5436
49.243 3057 55.2901
49.3605 3187 56.4535
49.478 3217 56.7186
49.5955 3482 59.0085
49.713 3542 59.5147
49.8304 3779 61.4736
49.9479 3936 62.7375
50.0653 4047 63.616
50.1827 4107 64.0859
50.3001 4210 64.8845
50.4175 4135 64.304
50.5348 4253 65.215
50.6521 4241 65.123
50.7694 4245 65.1537
50.8867 4279 65.4141
51.004 4269 65.3376
51.1212 4152 64.436
51.2384 4226 65.0077
51.3556 4162 64.5136
51.4727 4201 64.8151
51.5899 4262 65.284
51.707 4494 67.0373
51.824 4744 68.8767
51.9411 4734 68.8041
52.0581 4741 68.8549
52.175 4710 68.6294
52.2919 4429 66.5507
52.4088 4236 65.0846
52.5257 4180 64.6529
52.6425 4120 64.1872
52.7593 4063 63.7417
52.876 4267 65.3223
52.9927 4521 67.2384
53.1094 4814 69.383
53.226 5058 71.1196
53.3426 5270 72.5948
53.4591 5590 74.7663
53.5756 5827 76.3348
53.692 6068 77.8974
53.8084 6039 77.711
53.9248 6248 79.0443
54.0411 6350 79.6869
54.1573 6323 79.5173
54.2735 0 1
54.3896 0 1
54.5057 0 1
54.6217 0 1
54.7377 0 1
54.8537 0 1
54.9695 0 1
55.0853 0 1
55.2011 0 1
55.3168 0 1
55.4324 0 1
57.824 0 1
57.9396 0 1
58.0553 0 1
58.1711 0 1
58.2869 0 1
58.4028 0 1
58.5187 0 1
58.6347 0 1
58.7508 0 1
58.8669 0 1
58.983 7010 83.7257
59.0992 7555 86.9195
59.2155 7797 88.3006
59.3318 7658 87.51
59.4482 7411 86.0872
59.5646 7582 87.0747
59.681 7374 85.872
59.7975 7320 85.557
59.9141 7142 84.5104
60.0306 7070 84.0833
60.1473 7044 83.9285
60.2639 7123 84.3979
60.3807 7069 84.0773
60.4974 7149 84.5518
60.6142 6966 83.4626
60.731 6655 81.5782
60.8479 6446 80.287
60.9648 5990 77.3951
61.0818 5729 75.6902
61.1987 5545 74.4648
61.3158 5430 73.6885
61.4328 5479 74.0203
61.5499 5696 75.4718
61.667 6016 77.5629
61.7841 6317 79.4796
61.9013 6581 81.1234
62.0185 7086 84.1784
62.1357 7128 84.4275
62.253 7320 85.557
62.3702 7467 86.4118
62.4875 7573 87.023
62.6049 7531 86.7813
62.7222 7531 86.7813
62.8396 7321 85.5628
62.9569 7315 85.5278
63.0743 7304 85.4634
63.1918 7192 84.8057
63.3092 7005 83.6959
63.4267 6791 82.4075
63.5441 6752 82.1706
63.6616 6588 81.1665
63.7791 6743 82.1158
63.8966 6837 82.6862
64.0142 6837 82.6862
64.1317 6698 81.8413
64.2492 6524 80.7713
64.3668 6146 78.3964
64.4843 5856 76.5245
64.6019 5442 73.7699
64.7195 5208 72.1665
64.837 5080 71.2741
64.9546 5116 71.5262
65.0722 5287 72.7118
65.1898 5671 75.306
65.3074 6013 77.5435
65.4249 6366 79.7872
65.5425 6682 81.7435
65.6601 6900 83.0662
65.7777 7033 83.863
65.8952 7263 85.2232
66.0128 7342 85.6855
66.1304 7263 85.2232
66.2479 7483 86.5043
66.3655 7349 85.7263
66.483 7391 85.9709
66.6005 7387 85.9477
66.718 7400 86.0233
66.8355 7045 83.9345
66.953 7069 84.0773
67.0705 6971 83.4925
67.1879 6905 83.0963
67.3054 6886 82.9819
67.4228 6924 83.2106
67.5402 7044 83.9285
67.6576 7165 84.6463
67.7749 7071 84.0892
67.8923 6911 83.1324
68.0096 6476 80.4736
68.1269 6307 79.4166
68.2442 5766 75.9342
68.3614 5526 74.3371
68.4787 5492 74.108
68.5958 5415 73.5867
68.713 5648 75.1532
68.8302 6206 78.7782
68.9473 6526 80.7837
69.0643 6984 83.5703
69.1814 7289 85.3756
69.2984 7921 89
69.4154 8057 89.7608
69.5323 8379 91.5369
69.6492 8527 92.3418
69.7661 8636 92.9301
69.8829 8792 93.7657
69.9997 8611 92.7955
70.1165 8878 94.2231
70.2332 8821 93.9202
70.3499 8735 93.4612
70.4665 8504 92.2171
70.5831 8387 91.5806
70.6996 8448 91.913
70.8161 8336 91.3017
70.9326 8357 91.4166
71.049 8312 91.1702
71.1653 8458 91.9674
71.2817 8604 92.7577
71.3979 8386 91.5751
71.5141 7987 89.37
71.6303 7330 85.6154
71.7464 6376 79.8499
71.8624 0 1
71.9784 0 1
72.0944 0 1
72.2102 0 1
72.3261 0 1
72.4418 0 1
72.5575 0 1
72.6732 0 1
75.1054 0 1
75.2209 0 1
75.3365 0 1
75.4521 0 1
75.5678 0 1
75.6835 0 1
75.7993 0 1
75.9151 0 1
76.031 0 1
76.147 8134 90.1887
76.263 8823 93.9308
76.3791 9139 95.5981
76.4952 9554 97.7446
76.6113 9695 98.4632
76.7276 9788 98.9343
76.8438 9121 95.5039
76.9601 8754 93.5628
77.0765 8052 89.7329
77.1929 7381 85.9127
77.3093 6901 83.0723
77.4258 6487 80.5419
77.5423 6384 79.8999
77.6589 6926 83.2226
77.7755 7122 84.3919
77.8921 7900 88.8819
78.0088 8617 92.8278
78.1256 9333 96.6075
78.2423 9922 99.6092
78.3591 10117 100.583
78.4759 10569 102.806
78.5928 10295 101.464
78.7097 10599 102.951
78.8266 10099 100.494
78.9436 11037 105.057
79.0606 10381 101.887
79.1776 10373 101.848
79.2946 10337 101.671
79.4117 10270 101.341
79.5288 9930 99.6494
79.6459 9798 98.9848
79.7631 9585 97.903
79.8802 9675 98.3616
79.9974 9610 98.0306
80.1147 9851 99.2522
80.2319 10017 100.085
80.3491 10023 100.115
80.4664 9754 98.7623
80.5837 9416 97.0361
80.701 8454 91.9456
80.8183 7729 87.9147
80.9357 7144 84.5222
81.053 6590 81.1788
81.1704 6341 79.6304
81.2877 6639 81.4801
81.4051 6917 83.1685
81.5225 7340 85.6738
81.6399 8232 90.7304
81.7573 9016 94.9526
81.8747 9554 97.7446
81.9922 10069 100.344
82.1096 10233 101.158
82.227 10178 100.886
82.3444 10360 101.784
82.4619 10183 100.911
82.5793 10436 102.157
82.6967 10086 100.429
82.8142 10108 100.539
82.9316 9900 99.4987
83.049 9840 99.1968
83.1664 9669 98.3311
83.2838 9450 97.2111
83.4012 9224 96.0417
83.5186 9231 96.0781
83.636 9028 95.0158
83.7534 9354 96.7161
83.8708 9527 97.6064
83.9881 9706 98.519
84.1055 9366 96.7781
84.2228 8924 94.4669
84.3401 8337 91.3072
84.4575 7624 87.3155
84.5747 7053 83.9821
84.692 6467 80.4177
84.8093 6234 78.9557
84.9265 6264 79.1454
85.0437 6762 82.2314
85.1609 7430 86.1974
85.2781 8378 91.5314
85.3952 9266 96.2601
85.5123 9985 99.925
85.6294 10462 102.284
85.7465 10934 104.566
85.8636 11133 105.513
85.9806 11292 106.264
86.0976 11427 106.897
86.2145 11792 108.591
86.3315 12009 109.586
86.4484 11248 106.057
86.5652 11888 109.032
86.682 11839 108.807
86.7988 11887 109.028
86.9156 11680 108.074
87.0323 11746 108.379
87.149 11683 108.088
87.2657 11817 108.706
87.3823 12077 109.895
87.4988 12281 110.82
87.6154 12431 111.494
87.7318 12262 110.734
87.8483 11613 107.764
87.9647 10562 102.772
88.081 9706 98.519
88.1973 8945 94.578
88.3136 8401 91.657
88.4298 8204 90.5759
88.546 8479 92.0815
88.6621 9307 96.4728
88.7781 10283 101.405
88.8942 0 1
89.0101 0 1
89.126 0 1
89.2419 0 1
89.3577 0 1
89.4734 0 1
89.5891 0 1
89.7047 0 1
89.8203 0 1
89.9358 0 1
92.3269 0 1
92.4424 0 1
92.558 0 1
92.6736 0 1
92.7893 0 1
92.905 0 1
93.0208 0 1
93.1366 0 1
93.2525 0 1
93.3685 0 1
93.4845 0 1
93.6005 9284 96.3535
93.7167 9121 95.5039
93.8328 9284 96.3535
93.949 9491 97.4218
94.0653 10257 101.277
94.1816 11430 106.911
94.2979 12350 111.131
94.4143 13427 115.875
94.5307 14039 118.486
94.6472 14697 121.231
94.7637 15079 122.797
94.8803 15061 122.723
94.9969 15196 123.272
95.1135 15293 123.665
95.2302 15251 123.495
95.3469 15232 123.418
95.4637 15306 123.717
95.5805 15170 123.167
95.6973 15310 123.734
95.8142 15002 122.483
95.9311 15148 123.077
96.048 14787 121.602
96.1649 14895 122.045
96.2819 14344 119.766
96.3989 14897 122.053
96.516 15148 123.077
96.633 15259 123.527
96.7501 14808 121.688
96.8673 14339 119.746
96.9844 13543 116.374
97.1016 12734 112.845
97.2188 11289 106.25
97.336 10678 103.334
97.4532 9784 98.9141
97.5704 9576 97.857
97.6877 9922 99.6092
97.805 10386 101.912
97.9223 11663 107.995
98.0396 12841 113.318
98.1569 13792 117.439
98.2743 14452 120.216
98.3916 14915 122.127
98.509 15730 125.419
98.6264 15847 125.885
98.7438 16018 126.562
98.8612 15919 126.171
98.9786 16065 126.748
99.096 15767 125.567
99.2134 15999 126.487
99.3308 15952 126.301
99.4482 16065 126.748
99.5656 15746 125.483
99.6831 15604 124.916
99.8005 15548 124.692
99.9179 15227 123.398
100.035 15306 123.717
100.153 15770 125.579
100.27 15873 125.988
100.388 15615 124.96
100.505 14792 121.622
100.622 13698 117.038
100.74 12737 112.858
100.857 11777 108.522
100.975 10666 103.276
101.092 10190 100.946
101.209 10072 100.359
101.327 10463 102.289
101.444 11466 107.079
101.561 12616 112.321
101.679 13706 117.073
101.796 15051 122.683
101.913 15770 125.579
102.03 16264 127.53
102.148 16478 128.367
102.265 15908 126.127
102.382 17113 130.817
102.499 16914 130.054
102.616 16558 128.678
102.733 16260 127.515
102.851 16428 128.172
102.968 16486 128.398
103.085 16581 128.767
103.202 16223 127.37
103.319 16087 126.835
103.436 15950 126.293
103.552 15974 126.388
103.669 16121 126.969
103.786 16358 127.898
103.903 16534 128.585
104.02 15997 126.479
104.137 14887 122.012
104.253 13924 118
104.37 12738 112.863
104.487 11635 107.866
104.603 11088 105.3
104.72 10854 104.183
104.836 11071 105.219
104.953 12148 110.218
105.069 13295 115.304
105.186 14750 121.45
105.302 15851 125.901
105.418 16740 129.383
105.535 17266 131.4
105.651 17344 131.697
105.767 17916 133.851
105.883 17907 133.817
105.999 17514 132.34
106.115 0 1
106.231 0 1
106.347 0 1
106.463 0 1
106.579 0 1
106.694 0 1
106.81 0 1
106.926 0 1
107.041 0 1
107.157 0 1
109.576 0 1
109.692 0 1
109.807 0 1
109.923 0 1
110.039 0 1
110.155 0 1
110.27 0 1
110.386 0 1
110.502 0 1
110.618 15622 124.988
110.735 16024 126.586
110.851 16336 127.812
110.967 16697 129.217
111.083 16411 128.105
111.199 16253 127.487
111.316 16450 128.258
111.432 16543 128.62
111.549 16754 129.437
111.665 16455 128.277
111.782 15875 125.996
111.898 15692 125.268
112.015 15512 124.547
112.132 16003 126.503
112.248 16136 127.028
112.365 15911 126.139
112.482 14748 121.441
112.599 14519 120.495
112.716 13424 115.862
112.832 12249 110.675
112.949 11104 105.376
113.066 10567 102.796
113.183 10336 101.666
113.3 10386 101.912
113.417 10984 104.805
113.534 11797 108.614
113.652 12707 112.725
113.769 13481 116.108
113.886 14665 121.099
114.003 14829 121.774
114.12 15392 124.064
114.238 15563 124.752
114.355 15508 124.531
114.472 15562 124.748
114.589 15545 124.68
114.707 15156 123.11
114.824 15103 122.894
114.942 15204 123.305
115.059 15321 123.778
115.176 15390 124.056
115.294 15431 124.222
115.411 14754 121.466
115.529 14852 121.869
115.646 14917 122.135
115.764 15180 123.207
115.881 15431 124.222
115.999 14948 122.262
116.116 14319 119.662
116.234 13825 117.58
116.351 12731 112.832
116.469 11916 109.16
116.586 11041 105.076
116.704 10701 103.446
116.821 10382 101.892
116.939 10535 102.64
117.056 11214 105.896
117.174 11661 107.986
117.291 12499 111.799
117.409 13756 117.286
117.526 14306 119.608
117.644 14732 121.375
117.761 14981 122.397
117.879 15239 123.446
117.996 15119 122.959
118.114 15283 123.624
118.231 14971 122.356
118.349 14732 121.375
118.466 14551 120.628
118.584 14845 121.84
118.701 15194 123.264
118.819 14991 122.438
118.936 14717 121.314
119.053 14527 120.528
119.171 14113 118.798
119.288 14415 120.062
119.405 14660 121.078
119.523 14821 121.742
119.64 14296 119.566
119.757 14245 119.352
119.875 13445 115.953
119.992 12743 112.885
120.109 12062 109.827
120.226 11197 105.816
120.343 10541 102.669
120.46 10345 101.71
120.578 10110 100.548
120.695 10362 101.794
120.812 10951 104.647
120.929 11840 108.812
121.046 12488 111.75
121.163 13269 115.191
121.279 13916 117.966
121.396 14065 118.596
121.513 14436 120.15
121.63 14785 121.594
121.747 14324 119.683
121.863 14390 119.958
121.98 14130 118.87
122.097 14151 118.958
122.213 14185 119.101
122.33 13938 118.059
122.446 14194 119.139
122.563 13936 118.051
122.679 14103 118.756
122.795 13557 116.435
122.912 13621 116.709
123.028 13750 117.26
123.144 13754 117.277
123.26 13635 116.769
123.377 0 1
123.493 0 1
123.609 0 1
123.725 0 1
123.84 0 1
123.956 0 1
124.072 0 1
124.188 0 1
124.303 0 1
124.419 0 1
126.852 0 1
126.968 0 1
127.083 0 1
127.199 0 1
127.315 0 1
127.431 0 1
127.547 0 1
127.663 0 1
127.779 0 1
127.895 0 1
128.011 0 1
128.127 0 1
128.243 0 1
128.359 14400 120
128.476 14877 121.971
128.592 14472 120.3
128.708 13926 118.008
128.825 13400 115.758
128.941 12974 113.903
129.058 12360 111.176
129.174 11657 107.968
129.291 11297 106.287
129.408 11080 105.262
129.524 11127 105.485
129.641 11732 108.314
129.758 12417 111.432
129.875 12733 112.841
129.992 13423 115.858
130.108 13998 118.313
130.225 14033 118.461
130.342 14452 120.216
130.459 14216 119.231
130.576 14797 121.643
130.693 14616 120.897
130.81 14285 119.52
130.928 14099 118.739
131.045 14261 119.419
131.162 14532 120.549
131.279 14622 120.921
131.396 14640 120.996
131.513 14444 120.183
131.631 14379 119.912
131.748 14562 120.673
131.865 14631 120.959
131.983 14883 121.996
132.1 14507 120.445
132.217 14218 119.239
132.335 13590 116.576
132.452 13124 114.56
132.57 12286 110.842
132.687 11440 106.958
132.804 11447 106.991
132.922 11211 105.882
133.039 11134 105.518
133.157 11171 105.693
133.274 11582 107.62
133.392 12208 110.49
133.509 13132 114.595
133.627 13197 114.878
133.744 13333 115.469
133.862 14060 118.575
133.979 14029 118.444
134.097 14002 118.33
134.214 13691 117.009
134.332 13855 117.707
134.449 13372 115.637
134.567 13388 115.707
134.684 13923 117.996
134.802 14163 119.008
134.919 14082 118.668
135.037 14143 118.924
135.154 13847 117.673
135.272 13874 117.788
135.389 13799 117.469
135.507 13911 117.945
135.624 14148 118.945
135.742 14123 118.84
135.859 13661 116.88
135.977 12973 113.899
136.094 12509 111.844
136.211 11886 109.023
136.329 11521 107.336
136.446 11058 105.157
136.564 10811 103.976
136.681 10800 103.923
136.798 11068 105.205
136.915 11232 105.981
137.033 11942 109.279
137.15 12474 111.687
137.267 12870 113.446
137.384 13037 114.18
137.502 13224 114.996
137.619 13295 115.304
137.736 13417 115.832
137.853 13052 114.245
137.97 13001 114.022
138.087 12568 112.107
138.204 12966 113.868
138.321 13091 114.416
138.438 13387 115.702
138.555 13730 117.175
138.672 13528 116.31
138.788 13286 115.265
138.905 13393 115.728
139.022 13568 116.482
139.139 13674 116.936
139.255 13500 116.19
139.372 13512 116.241
139.488 13279 115.235
139.605 12896 113.561
139.721 12364 111.194
139.838 11941 109.275
139.954 11457 107.037
140.071 10967 104.723
140.187 10901 104.408
140.303 10849 104.159
140.419 10893 104.37
140.535 10810 103.971
140.652 11019 104.971
140.768 0 1
140.884 0 1
141 0 1
141.115 0 1
141.231 0 1
141.347 0 1
141.463 0 1
141.578 0 1
141.694 0 1
144.104 0 1
144.219 0 1
144.335 0 1
144.45 0 1
144.566 0 1
144.682 0 1
144.798 0 1
144.914 0 1
145.03 0 1
145.146 7754 88.0568
145.262 8472 92.0435
145.378 8543 92.4284
145.494 8828 93.9574
145.61 8994 94.8367
145.726 9253 96.1925
145.842 9344 96.6644
145.959 9567 97.811
146.075 9763 98.8079
146.192 9976 99.8799
146.308 10182 100.906
146.425 9948 99.7397
146.541 9894 99.4686
146.658 9849 99.2421
146.774 9679 98.3819
146.891 9592 97.9388
147.008 9916 99.5791
147.125 10095 100.474
147.241 10170 100.846
147.358 10341 101.691
147.475 10462 102.284
147.592 10357 101.769
147.709 10405 102.005
147.826 10670 103.296
147.943 10429 102.122
148.06 10407 102.015
148.177 10266 101.321
148.294 10290 101.44
148.411 10097 100.484
148.528 9859 99.2925
148.645 9638 98.1733
148.762 9072 95.247
148.88 9028 95.0158
148.997 8995 94.842
149.114 9362 96.7574
149.231 9185 95.8384
149.349 9128 95.5406
149.466 9523 97.5859
149.583 9535 97.6473
149.701 9829 99.1413
149.818 10013 100.065
149.935 10019 100.095
150.053 10175 100.871
150.17 10119 100.593
150.287 9892 99.4585
150.405 9941 99.7046
150.522 9761 98.7978
150.64 9800 98.9949
150.757 9711 98.5444
150.875 10085 100.424
150.992 10354 101.755
151.11 10566 102.791
151.227 10381 101.887
151.344 10459 102.269
151.462 10486 102.401
151.579 10680 103.344
151.697 10578 102.849
151.814 10460 102.274
151.932 10512 102.528
152.049 10225 101.119
152.167 10135 100.673
152.284 9925 99.6243
152.402 9487 97.4012
152.519 9385 96.8762
152.636 9155 95.6818
152.754 9156 95.687
152.871 9283 96.3483
152.989 9459 97.2574
153.106 9500 97.4679
153.223 9594 97.949
153.341 9935 99.6745
153.458 10190 100.946
153.575 10221 101.099
153.693 10274 101.361
153.81 10332 101.646
153.927 10162 100.807
154.044 10051 100.255
154.162 9935 99.6745
154.279 9999 99.995
154.396 10017 100.085
154.513 10378 101.872
154.63 10731 103.591
154.747 10790 103.875
154.864 10668 103.286
154.981 11131 105.504
155.098 11327 106.428
155.215 10957 104.676
155.332 11004 104.9
155.449 11149 105.589
155.566 10615 103.029
155.683 10599 102.951
155.8 10517 102.552
155.917 10327 101.622
156.033 9950 99.7497
156.15 0 1
156.267 0 1
156.383 0 1
156.5 0 1
156.617 0 1
156.733 0 1
156.85 0 1
156.966 0 1
157.082 0 1
157.199 0 1
157.315 0 1
157.431 0 1
157.547 0 1
157.664 0 1
157.78 0 1
157.896 0 1
158.012 0 1
158.128 0 1
158.244 0 1
158.359 0 1
158.475 0 1
158.591 0 1
158.706 0 1
