
6.15755 0 1
6.2731 0 1
6.3887 0 1
6.50437 0 1
6.62009 0 1
6.73587 0 1
6.8517 0 1
6.96759 0 1
7.08353 0 1
7.19952 0 1
7.31557 0 1
7.43166 0 1
7.54781 0 1
7.664 0 1
7.78024 0 1
7.89653 0 1
8.01286 0 1
8.12924 0 1
8.24567 0 1
8.36213 0 1
8.47864 0 1
8.59519 0 1
8.71178 0 1
8.82841 0 1
8.94508 0 1
9.06179 0 1
9.17853 0 1
9.29531 0 1
9.41212 0 1
9.52897 0 1
9.64584 0 1
9.76276 0 1
9.8797 0 1
9.99667 0 1
10.1137 0 1
10.2307 0 1
10.3478 0 1
10.4648 0 1
10.5819 0 1
10.6991 0 1
10.8162 0 1
10.9334 0 1
11.0506 0 1
11.1678 0 1
11.285 0 1
11.4023 0 1
11.5196 0 1
11.6369 0 1
11.7542 0 1
11.8715 0 1
11.9888 0 1
12.1062 0 1
12.2235 0 1
12.3409 0 1
12.4582 0 1
12.5756 0 1
12.693 0 1
12.8104 0 1
12.9278 0 1
13.0452 0 1
13.1626 0 1
13.28 0 1
13.3974 0 1
13.5149 0 1
13.6323 0 1
13.7497 0 1
13.8671 0 1
13.9845 0 1
14.1019 0 1
14.2193 0 1
14.3367 0 1
14.4541 0 1
14.5714 0 1
14.6888 0 1
14.8062 0 1
14.9235 0 1
15.0408 4222 64.9769
15.1581 4298 65.5591
15.2755 4411 66.4154
15.3927 4430 66.5582
15.51 4062 63.7338
15.6273 4025 63.4429
15.7445 3824 61.8385
15.8617 3872 62.2254
15.9789 3983 63.111
16.0961 3892 62.3859
16.2132 3939 62.7615
16.3304 3835 61.9274
16.4475 3717 60.9672
16.5646 3634 60.2827
16.6816 3639 60.3241
16.7986 3642 60.349
16.9156 3614 60.1166
17.0326 3490 59.0762
17.1496 3407 58.3695
17.2665 3428 58.5491
17.3833 3431 58.5747
17.5002 3468 58.8897
17.617 3494 59.1101
17.7338 3382 58.155
17.8505 3433 58.5918
17.9672 3481 59
18.0839 3506 59.2115
18.2005 3436 58.6174
18.3171 3440 58.6515
18.4337 3540 59.4979
18.5502 3496 59.127
18.6666 3646 60.3821
18.7831 3648 60.3987
18.8994 3391 58.2323
19.0158 3321 57.6281
19.1321 3017 54.9272
19.2483 2837 53.2635
19.3645 2827 53.1695
19.4806 3000 54.7723
19.5967 2801 52.9245
19.7128 2804 52.9528
19.8288 2588 50.8724
19.9447 2423 49.224
20.0606 0 1
20.1764 0 1
20.2922 0 1
20.4079 0 1
20.5236 0 1
20.6392 0 1
20.7548 0 1
20.8702 0 1
23.3078 0 1
23.4233 0 1
23.539 0 1
23.6547 0 1
23.7704 0 1
23.8862 0 1
24.0021 0 1
24.118 0 1
24.234 0 1
24.35 0 1
24.4661 1379 37.1349
24.5822 1724 41.5211
24.6984 2072 45.5192
24.8146 2448 49.4773
24.9309 2649 51.4684
25.0472 2990 54.6809
25.1636 3244 56.9561
25.28 3401 58.3181
25.3965 3581 59.8415
25.513 3677 60.6383
25.6296 3920 62.6099
25.7462 3973 63.0317
25.8628 3988 63.1506
25.9795 3848 62.0322
26.0962 3760 61.3188
26.213 3713 60.9344
26.3298 3482 59.0085
26.4466 3399 58.3009
26.5635 3413 58.4209
26.6804 3308 57.5152
26.7973 3176 56.356
26.9143 3142 56.0535
27.0313 3150 56.1249
27.1483 3206 56.6216
27.2653 3472 58.9237
27.3824 3523 59.3549
27.4996 3395 58.2666
27.6167 3481 59
27.7339 3353 57.9051
27.8511 3163 56.2406
27.9683 3035 55.0908
28.0855 3122 55.8749
28.2028 3331 57.7148
28.3201 3618 60.1498
28.4374 3744 61.1882
28.5547 3812 61.7414
28.6721 3874 62.2415
28.7894 3805 61.6847
28.9068 3803 61.6685
29.0242 3699 60.8194
29.1416 3689 60.7371
29.259 3700 60.8276
29.3764 3680 60.663
29.4939 3723 61.0164
29.6113 3811 61.7333
29.7288 3835 61.9274
29.8463 3690 60.7454
29.9638 3800 61.6441
30.0812 3825 61.8466
30.1987 3726 61.041
30.3162 3561 59.6741
30.4337 3808 61.709
30.5512 4083 63.8984
30.6687 4202 64.8228
30.7862 4420 66.4831
30.9037 4530 67.3053
31.0212 4413 66.4304
31.1387 4175 64.6142
31.2562 4218 64.9461
31.3737 4100 64.0312
31.4912 3875 62.2495
31.6087 3778 61.4654
31.7262 3957 62.9047
31.8436 4114 64.1405
31.9611 4254 65.2227
32.0785 3945 62.8092
32.1959 3999 63.2376
32.3134 3780 61.4817
32.4308 3912 62.546
32.5482 3992 63.1823
32.6655 3804 61.6766
32.7829 3946 62.8172
32.9002 3809 61.7171
33.0176 3788 61.5467
33.1349 3841 61.9758
33.2522 3941 62.7774
33.3694 3947 62.8252
33.4867 4058 63.7024
33.6039 4093 63.9766
33.7211 3745 61.1964
33.8383 3557 59.6406
33.9554 3306 57.4978
34.0725 3413 58.4209
34.1896 3223 56.7715
34.3067 3456 58.7878
34.4237 3315 57.576
34.5407 3429 58.5577
34.6577 3477 58.9661
34.7746 3568 59.7327
34.8915 3418 58.4637
35.0084 3410 58.3952
35.1252 3233 56.8595
35.242 2955 54.3599
35.3587 3099 55.6687
35.4755 3310 57.5326
35.5921 3345 57.836
35.7088 3360 57.9655
35.8254 3331 57.7148
35.9419 3163 56.2406
36.0584 3149 56.116
36.1749 3039 55.1271
36.2913 3076 55.4617
36.4077 2855 53.4322
36.524 2738 52.3259
36.6403 2586 50.8527
36.7565 2531 50.309
36.8727 2240 47.3286
36.9889 2181 46.7012
37.1049 2003 44.7549
37.221 0 1
37.3369 0 1
37.4529 0 1
37.5687 0 1
37.6845 0 1
37.8003 0 1
37.916 0 1
38.0316 0 1
38.1472 0 1
40.5851 0 1
40.7008 0 1
40.8164 0 1
40.9322 0 1
41.048 0 1
41.1639 0 1
41.2798 0 1
41.3958 0 1
41.5118 0 1
41.6279 0 1
41.744 1358 36.8511
41.8602 1615 40.1871
41.9765 1774 42.1189
42.0928 2043 45.1996
42.2091 2117 46.0109
42.3255 2319 48.156
42.4419 2405 49.0408
42.5584 2427 49.2646
42.675 2416 49.1528
42.7915 2365 48.6313
42.9081 2384 48.8262
43.0248 2265 47.592
43.1415 2268 47.6235
43.2582 2264 47.5815
43.375 2417 49.163
43.4918 2403 49.0204
43.6087 2425 49.2443
43.7256 2397 48.9592
43.8425 2384 48.8262
43.9595 2269 47.634
44.0765 2064 45.4313
44.1935 2134 46.1952
44.3106 2324 48.2079
44.4277 2408 49.0714
44.5448 2343 48.4045
44.6619 2239 47.3181
44.7791 2379 48.775
44.8963 2424 49.2341
45.0136 2446 49.4571
45.1308 2538 50.3786
45.2481 2493 49.93
45.3654 2418 49.1732
45.4827 2503 50.03
45.6001 2483 49.8297
45.7174 2591 50.9019
45.8348 2492 49.9199
45.9522 2388 48.8672
46.0697 2447 49.4672
46.1871 2319 48.156
46.3046 2246 47.392
46.422 2173 46.6154
46.5395 2116 46
46.657 2107 45.9021
46.7745 2169 46.5725
46.892 2263 47.571
47.0096 2359 48.5695
47.1271 2342 48.3942
47.2446 2347 48.4458
47.3622 2332 48.2908
47.4797 2303 47.9896
47.5973 2181 46.7012
47.7149 1993 44.643
47.8324 2153 46.4004
47.95 2176 46.6476
48.0675 2240 47.3286
48.1851 2386 48.8467
48.3027 2420 49.1935
48.4202 2330 48.2701
48.5378 2412 49.1121
48.6554 2361 48.5901
48.7729 2325 48.2183
48.8904 2346 48.4355
49.008 2323 48.1975
49.1255 2339 48.3632
49.243 2328 48.2494
49.3605 2282 47.7703
49.478 2129 46.1411
49.5955 2192 46.8188
49.713 2108 45.913
49.8304 1954 44.2041
49.9479 1953 44.1928
50.0653 2002 44.7437
50.1827 2016 44.8999
50.3001 2016 44.8999
50.4175 2040 45.1664
50.5348 2174 46.6262
50.6521 2269 47.634
50.7694 2228 47.2017
50.8867 2245 47.3814
51.004 2221 47.1275
51.1212 2029 45.0444
51.2384 2024 44.9889
51.3556 2006 44.7884
51.4727 2054 45.3211
51.5899 2195 46.8508
51.707 2221 47.1275
51.824 2213 47.0425
51.9411 2194 46.8402
52.0581 2347 48.4458
52.175 2173 46.6154
52.2919 2276 47.7074
52.4088 2227 47.1911
52.5257 2162 46.4973
52.6425 2244 47.3709
52.7593 2217 47.085
52.876 2221 47.1275
52.9927 2229 47.2123
53.1094 2118 46.0217
53.226 2095 45.7712
53.3426 1948 44.1362
53.4591 2021 44.9555
53.5756 1812 42.5676
53.692 1694 41.1582
53.8084 1721 41.4849
53.9248 1550 39.37
54.0411 1538 39.2173
54.1573 1463 38.2492
54.2735 0 1
54.3896 0 1
54.5057 0 1
54.6217 0 1
54.7377 0 1
54.8537 0 1
54.9695 0 1
55.0853 0 1
55.2011 0 1
55.3168 0 1
55.4324 0 1
57.824 0 1
57.9396 0 1
58.0553 0 1
58.1711 0 1
58.2869 0 1
58.4028 0 1
58.5187 0 1
58.6347 0 1
58.7508 0 1
58.8669 0 1
58.983 2439 49.3862
59.0992 3164 56.2494
59.2155 3911 62.538
59.3318 4486 66.9776
59.4482 4980 70.5691
59.5646 5352 73.1574
59.681 5504 74.1889
59.7975 5542 74.4446
59.9141 5532 74.3774
60.0306 5530 74.364
60.1473 5643 75.1199
60.2639 5687 75.4122
60.3807 5628 75.02
60.4974 5782 76.0395
60.6142 5767 75.9408
60.731 5884 76.7072
60.8479 5874 76.642
60.9648 5735 75.7298
61.0818 5506 74.2024
61.1987 5415 73.5867
61.3158 5341 73.0821
61.4328 5266 72.5672
61.5499 5087 71.3232
61.667 4965 70.4628
61.7841 4775 69.1014
61.9013 4405 66.3702
62.0185 4245 65.1537
62.1357 3919 62.6019
62.253 3841 61.9758
62.3702 3677 60.6383
62.4875 3563 59.6909
62.6049 3600 60
62.7222 3559 59.6574
62.8396 3650 60.4152
62.9569 3507 59.2199
63.0743 3367 58.0259
63.1918 3388 58.2065
63.3092 3225 56.7891
63.4267 2997 54.7449
63.5441 2853 53.4135
63.6616 2773 52.6593
63.7791 2767 52.6023
63.8966 2754 52.4786
64.0142 2811 53.0189
64.1317 2756 52.4976
64.2492 2602 51.0098
64.3668 2552 50.5173
64.4843 2572 50.7149
64.6019 2425 49.2443
64.7195 2592 50.9117
64.837 2615 51.1371
64.9546 2527 50.2693
65.0722 2564 50.636
65.1898 2639 51.3712
65.3074 2609 51.0784
65.4249 2577 50.7642
65.5425 2478 49.7795
65.6601 2421 49.2037
65.7777 2375 48.734
65.8952 2408 49.0714
66.0128 2294 47.8957
66.1304 2538 50.3786
66.2479 2539 50.3885
66.3655 2585 50.8429
66.483 2589 50.8822
66.6005 2609 51.0784
66.718 2697 51.9326
66.8355 2701 51.9711
66.953 2704 52
67.0705 2518 50.1797
67.1879 2549 50.4876
67.3054 2500 50
67.4228 2535 50.3488
67.5402 2538 50.3786
67.6576 2532 50.319
67.7749 2765 52.5833
67.8923 2665 51.6236
68.0096 2517 50.1697
68.1269 2465 49.6488
68.2442 2485 49.8498
68.3614 2456 49.558
68.4787 2543 50.4282
68.5958 2573 50.7247
68.713 2546 50.4579
68.8302 2499 49.99
68.9473 2496 49.96
69.0643 2386 48.8467
69.1814 2396 48.949
69.2984 2266 47.6025
69.4154 2182 46.7119
69.5323 2215 47.0638
69.6492 2315 48.1144
69.7661 2408 49.0714
69.8829 2418 49.1732
69.9997 2446 49.4571
70.1165 2485 49.8498
70.2332 2477 49.7695
70.3499 2287 47.8226
70.4665 2282 47.7703
70.5831 2183 46.7226
70.6996 1977 44.4635
70.8161 1715 41.4126
70.9326 1560 39.4968
71.049 1519 38.9744
71.1653 1464 38.2623
71.2817 1434 37.8682
71.3979 1281 35.7911
71.5141 1232 35.0999
71.6303 1285 35.8469
71.7464 1004 31.686
71.8624 0 1
71.9784 0 1
72.0944 0 1
72.2102 0 1
72.3261 0 1
72.4418 0 1
72.5575 0 1
72.6732 0 1
75.1054 0 1
75.2209 0 1
75.3365 0 1
75.4521 0 1
75.5678 0 1
75.6835 0 1
75.7993 0 1
75.9151 0 1
76.031 0 1
76.147 1685 41.0488
76.263 1907 43.6692
76.3791 1943 44.0795
76.4952 2063 45.4203
76.6113 2077 45.5741
76.7276 2209 47
76.8438 2260 47.5395
76.9601 2268 47.6235
77.0765 2175 46.6369
77.1929 2135 46.2061
77.3093 2199 46.8935
77.4258 2330 48.2701
77.5423 2204 46.9468
77.6589 2201 46.9148
77.7755 2242 47.3498
77.8921 2264 47.5815
78.0088 2208 46.9894
78.1256 2071 45.5082
78.2423 2089 45.7056
78.3591 1927 43.8976
78.4759 1926 43.8862
78.5928 1933 43.9659
78.7097 1961 44.2832
78.8266 1962 44.2945
78.9436 2219 47.1063
79.0606 2067 45.4643
79.1776 2187 46.7654
79.2946 2234 47.2652
79.4117 2286 47.8121
79.5288 2237 47.2969
79.6459 2274 47.6865
79.7631 2233 47.2546
79.8802 2229 47.2123
79.9974 2176 46.6476
80.1147 2306 48.0208
80.2319 2316 48.1248
80.3491 2232 47.244
80.4664 2296 47.9166
80.5837 2422 49.2138
80.701 2263 47.571
80.8183 2233 47.2546
80.9357 2288 47.833
81.053 2259 47.5289
81.1704 2290 47.8539
81.2877 2344 48.4149
81.4051 2306 48.0208
81.5225 2295 47.9062
81.6399 2209 47
81.7573 2224 47.1593
81.8747 2060 45.3872
81.9922 2009 44.8219
82.1096 2075 45.5522
82.227 2049 45.2659
82.3444 2085 45.6618
82.4619 2134 46.1952
82.5793 2184 46.7333
82.6967 2196 46.8615
82.8142 2194 46.8402
82.9316 2375 48.734
83.049 2470 49.6991
83.1664 2423 49.224
83.2838 2555 50.547
83.4012 2387 48.8569
83.5186 2339 48.3632
83.636 2265 47.592
83.7534 2269 47.634
83.8708 2392 48.9081
83.9881 2378 48.7647
84.1055 2412 49.1121
84.2228 2388 48.8672
84.3401 2470 49.6991
84.4575 2291 47.8644
84.5747 2299 47.9479
84.692 2325 48.2183
84.8093 2318 48.1456
84.9265 2407 49.0612
85.0437 2301 47.9687
85.1609 2360 48.5798
85.2781 2237 47.2969
85.3952 2258 47.5184
85.5123 2081 45.618
85.6294 2158 46.4543
85.7465 2164 46.5188
85.8636 2207 46.9787
85.9806 2204 46.9468
86.0976 2224 47.1593
86.2145 2269 47.634
86.3315 2362 48.6004
86.4484 2371 48.6929
86.5652 2419 49.1833
86.682 2482 49.8197
86.7988 2491 49.9099
86.9156 2379 48.775
87.0323 2468 49.679
87.149 2379 48.775
87.2657 2317 48.1352
87.3823 2399 48.9796
87.4988 2258 47.5184
87.6154 2272 47.6655
87.7318 2225 47.1699
87.8483 2180 46.6905
87.9647 1958 44.2493
88.081 1831 42.7902
88.1973 1742 41.7373
88.3136 1666 40.8167
88.4298 1536 39.1918
88.546 1434 37.8682
88.6621 1291 35.9305
88.7781 1214 34.8425
88.8942 0 1
89.0101 0 1
89.126 0 1
89.2419 0 1
89.3577 0 1
89.4734 0 1
89.5891 0 1
89.7047 0 1
89.8203 0 1
89.9358 0 1
92.3269 0 1
92.4424 0 1
92.558 0 1
92.6736 0 1
92.7893 0 1
92.905 0 1
93.0208 0 1
93.1366 0 1
93.2525 0 1
93.3685 0 1
93.4845 0 1
93.6005 2061 45.3982
93.7167 2148 46.3465
93.8328 2207 46.9787
93.949 2312 48.0833
94.0653 2308 48.0416
94.1816 2253 47.4658
94.2979 2314 48.1041
94.4143 2256 47.4974
94.5307 2206 46.9681
94.6472 2209 47
94.7637 2334 48.3115
94.8803 2390 48.8876
94.9969 2377 48.7545
95.1135 2324 48.2079
95.2302 2361 48.5901
95.3469 2379 48.775
95.4637 2371 48.6929
95.5805 2462 49.6185
95.6973 2521 50.2096
95.8142 2502 50.02
95.9311 2422 49.2138
96.048 2494 49.94
96.1649 2469 49.689
96.2819 2436 49.3559
96.3989 2413 49.1223
96.516 2418 49.1732
96.633 2440 49.3964
96.7501 2539 50.3885
96.8673 2493 49.93
96.9844 2423 49.224
97.1016 2514 50.1398
97.2188 2418 49.1732
97.336 2359 48.5695
97.4532 2401 49
97.5704 2307 48.0312
97.6877 2300 47.9583
97.805 2358 48.5592
97.9223 2247 47.4025
98.0396 2286 47.8121
98.1569 2261 47.55
98.2743 2266 47.6025
98.3916 2344 48.4149
98.509 2423 49.224
98.6264 2423 49.224
98.7438 2382 48.8057
98.8612 2285 47.8017
98.9786 2409 49.0816
99.096 2582 50.8134
99.2134 2632 51.303
99.3308 2564 50.636
99.4482 2589 50.8822
99.5656 2599 50.9804
99.6831 2536 50.3587
99.8005 2563 50.6261
99.9179 2586 50.8527
100.035 2519 50.1896
100.153 2483 49.8297
100.27 2565 50.6458
100.388 2519 50.1896
100.505 2603 51.0196
100.622 2546 50.4579
100.74 2430 49.295
100.857 2456 49.558
100.975 2404 49.0306
101.092 2365 48.6313
101.209 2361 48.5901
101.327 2350 48.4768
101.444 2358 48.5592
101.561 2370 48.6826
101.679 2221 47.1275
101.796 2372 48.7032
101.913 2415 49.1426
102.03 2522 50.2195
102.148 2522 50.2195
102.265 2519 50.1896
102.382 2392 48.9081
102.499 2362 48.6004
102.616 2579 50.7839
102.733 2625 51.2348
102.851 2717 52.1249
102.968 2764 52.5738
103.085 2623 51.2152
103.202 2677 51.7397
103.319 2718 52.1344
103.436 2649 51.4684
103.552 2639 51.3712
103.669 2630 51.2835
103.786 2686 51.8266
103.903 2767 52.6023
104.02 2620 51.1859
104.137 2723 52.1824
104.253 2546 50.4579
104.37 2564 50.636
104.487 2538 50.3786
104.603 2476 49.7594
104.72 2452 49.5177
104.836 2360 48.5798
104.953 2291 47.8644
105.069 2169 46.5725
105.186 2102 45.8476
105.302 2114 45.9783
105.418 2066 45.4533
105.535 1875 43.3013
105.651 1773 42.107
105.767 1624 40.2989
105.883 1540 39.2428
105.999 1332 36.4966
106.115 0 1
106.231 0 1
106.347 0 1
106.463 0 1
106.579 0 1
106.694 0 1
106.81 0 1
106.926 0 1
107.041 0 1
107.157 0 1
109.576 0 1
109.692 0 1
109.807 0 1
109.923 0 1
110.039 0 1
110.155 0 1
110.27 0 1
110.386 0 1
110.502 0 1
110.618 1391 37.2961
110.735 1640 40.4969
110.851 1899 43.5775
110.967 1982 44.5197
111.083 1921 43.8292
111.199 2034 45.0999
111.316 2220 47.1169
111.432 2277 47.7179
111.549 2435 49.3457
111.665 2307 48.0312
111.782 2235 47.2758
111.898 2369 48.6724
112.015 2356 48.5386
112.132 2317 48.1352
112.248 2329 48.2597
112.365 2278 47.7284
112.482 2403 49.0204
112.599 2234 47.2652
112.716 2340 48.3735
112.832 2254 47.4763
112.949 2250 47.4342
113.066 2154 46.4112
113.183 2191 46.8081
113.3 2061 45.3982
113.417 2087 45.6837
113.534 1981 44.5084
113.652 1940 44.0454
113.769 1960 44.2719
113.886 1947 44.1248
114.003 2018 44.9222
114.12 2119 46.0326
114.238 2212 47.0319
114.355 2194 46.8402
114.472 2249 47.4236
114.589 2208 46.9894
114.707 2047 45.2438
114.824 2098 45.8039
114.942 2146 46.3249
115.059 2209 47
115.176 2165 46.5296
115.294 2117 46.0109
115.411 2128 46.1303
115.529 2128 46.1303
115.646 2029 45.0444
115.764 2199 46.8935
115.881 2113 45.9674
115.999 2086 45.6727
116.116 2090 45.7165
116.234 2097 45.793
116.351 2082 45.6289
116.469 2103 45.8585
116.586 1925 43.8748
116.704 1997 44.6878
116.821 1939 44.0341
116.939 1921 43.8292
117.056 1880 43.359
117.174 1794 42.3556
117.291 1783 42.2256
117.409 1783 42.2256
117.526 1759 41.9404
117.644 1857 43.0929
117.761 1983 44.5309
117.879 2019 44.9333
117.996 1920 43.8178
118.114 2029 45.0444
118.231 1850 43.0116
118.349 1996 44.6766
118.466 1880 43.359
118.584 2045 45.2217
118.701 2053 45.31
118.819 2032 45.0777
118.936 1860 43.1277
119.053 1963 44.3058
119.171 1851 43.0232
119.288 1927 43.8976
119.405 1938 44.0227
119.523 1925 43.8748
119.64 1894 43.5201
119.757 1945 44.1022
119.875 1908 43.6807
119.992 1896 43.5431
120.109 1849 43
120.226 1853 43.0465
120.343 1790 42.3084
120.46 1801 42.4382
120.578 1802 42.45
120.695 1698 41.2068
120.812 1685 41.0488
120.929 1637 40.4599
121.046 1631 40.3856
121.163 1642 40.5216
121.279 1723 41.509
121.396 1734 41.6413
121.513 1743 41.7493
121.63 1757 41.9166
121.747 1655 40.6817
121.863 1721 41.4849
121.98 1684 41.0366
122.097 1513 38.8973
122.213 1509 38.8458
122.33 1554 39.4208
122.446 1499 38.7169
122.563 1352 36.7696
122.679 1212 34.8138
122.795 1159 34.0441
122.912 1168 34.176
123.028 1113 33.3617
123.144 1048 32.3728
123.26 1067 32.665
123.377 0 1
123.493 0 1
123.609 0 1
123.725 0 1
123.84 0 1
123.956 0 1
124.072 0 1
124.188 0 1
124.303 0 1
124.419 0 1
126.852 0 1
126.968 0 1
127.083 0 1
127.199 0 1
127.315 0 1
127.431 0 1
127.547 0 1
127.663 0 1
127.779 0 1
127.895 0 1
128.011 0 1
128.127 0 1
128.243 0 1
128.359 2040 45.1664
128.476 2059 45.3762
128.592 2151 46.3789
128.708 2148 46.3465
128.825 2244 47.3709
128.941 2155 46.422
129.058 2204 46.9468
129.174 2211 47.0213
129.291 2110 45.9347
129.408 2182 46.7119
129.524 2166 46.5403
129.641 2130 46.1519
129.758 2069 45.4863
129.875 1955 44.2154
129.992 1908 43.6807
130.108 1917 43.7836
130.225 1981 44.5084
130.342 2085 45.6618
130.459 2159 46.465
130.576 2457 49.5681
130.693 2343 48.4045
130.81 2375 48.734
130.928 2417 49.163
131.045 2520 50.1996
131.162 2545 50.448
131.279 2788 52.8015
131.396 2859 53.4696
131.513 2845 53.3385
131.631 2784 52.7636
131.748 2757 52.5071
131.865 2961 54.4151
131.983 3348 57.8619
132.1 3486 59.0424
132.217 3693 60.7701
132.335 3788 61.5467
132.452 4009 63.3167
132.57 4138 64.3273
132.687 4304 65.6049
132.804 4491 67.0149
132.922 4524 67.2607
133.039 4608 67.8823
133.157 4589 67.7422
133.274 4512 67.1714
133.392 4493 67.0298
133.509 4343 65.9014
133.627 4276 65.3911
133.744 4249 65.1844
133.862 4437 66.6108
133.979 4469 66.8506
134.097 4583 67.6979
134.214 4585 67.7126
134.332 4608 67.8823
134.449 4449 66.7008
134.567 4378 66.1665
134.684 4149 64.4127
134.802 4243 65.1383
134.919 4267 65.3223
135.037 4421 66.4906
135.154 4108 64.0937
135.272 3891 62.3779
135.389 3790 61.563
135.507 3918 62.5939
135.624 4236 65.0846
135.742 4260 65.2687
135.859 4381 66.1891
135.977 4268 65.3299
136.094 4229 65.0308
136.211 4301 65.582
136.329 4273 65.3682
136.446 4175 64.6142
136.564 4164 64.5291
136.681 4266 65.3146
136.798 4194 64.7611
136.915 4089 63.9453
137.033 3976 63.0555
137.15 3894 62.4019
137.267 3845 62.0081
137.384 3834 61.9193
137.502 3831 61.8951
137.619 3869 62.2013
137.736 3996 63.2139
137.853 3799 61.636
137.97 4145 64.3817
138.087 4177 64.6297
138.204 4101 64.0391
138.321 4007 63.3009
138.438 3956 62.8967
138.555 4039 63.5531
138.672 4069 63.7887
138.788 3971 63.0159
138.905 3623 60.1914
139.022 3582 59.8498
139.139 3779 61.4736
139.255 3929 62.6817
139.372 3847 62.0242
139.488 3733 61.0983
139.605 3475 58.9491
139.721 3293 57.3847
139.838 2924 54.074
139.954 2753 52.469
140.071 2664 51.614
140.187 2556 50.5569
140.303 2425 49.2443
140.419 2277 47.7179
140.535 2236 47.2864
140.652 2175 46.6369
140.768 0 1
140.884 0 1
141 0 1
141.115 0 1
141.231 0 1
141.347 0 1
141.463 0 1
141.578 0 1
141.694 0 1
144.104 0 1
144.219 0 1
144.335 0 1
144.45 0 1
144.566 0 1
144.682 0 1
144.798 0 1
144.914 0 1
145.03 0 1
145.146 4124 64.2184
145.262 4360 66.0303
145.378 4262 65.284
145.494 4492 67.0224
145.61 4492 67.0224
145.726 4525 67.2681
145.842 4500 67.082
145.959 4490 67.0075
146.075 4514 67.1863
146.192 4498 67.0671
146.308 4634 68.0735
146.425 4839 69.5629
146.541 5013 70.8025
146.658 5142 71.7077
146.774 5238 72.374
146.891 5372 73.2939
147.008 5497 74.1418
147.125 5255 72.4914
147.241 5457 73.8715
147.358 5478 74.0135
147.475 5243 72.4086
147.592 4942 70.2994
147.709 5075 71.239
147.826 5182 71.9861
147.943 5453 73.8444
148.06 5716 75.6042
148.177 5754 75.8551
148.294 5741 75.7694
148.411 5925 76.974
148.528 5839 76.4133
148.645 5585 74.7329
148.762 5793 76.1118
148.88 5805 76.1906
148.997 5869 76.6094
149.114 5657 75.213
149.231 5861 76.5572
149.349 6025 77.6209
149.466 5795 76.1249
149.583 5951 77.1427
149.701 5717 75.6108
149.818 5526 74.3371
149.935 5679 75.3591
150.053 5570 74.6324
150.17 5843 76.4395
150.287 5885 76.7138
150.405 5908 76.8635
150.522 5844 76.4461
150.64 5655 75.1997
150.757 5533 74.3841
150.875 5540 74.4312
150.992 5531 74.3707
151.11 5203 72.1318
151.227 5097 71.3933
151.344 4876 69.8284
151.462 5103 71.4353
151.579 5211 72.1873
151.697 5443 73.7767
151.814 5559 74.5587
151.932 5584 74.7262
152.049 5566 74.6056
152.167 5716 75.6042
152.284 5600 74.8331
152.402 5657 75.213
152.519 5674 75.326
152.636 5716 75.6042
152.754 5527 74.3438
152.871 5563 74.5855
152.989 5494 74.1215
153.106 5577 74.6793
153.223 5446 73.797
153.341 5244 72.4155
153.458 5130 71.624
153.575 5070 71.2039
153.693 4905 70.0357
153.81 5020 70.852
153.927 5254 72.4845
154.044 5285 72.698
154.162 4934 70.2424
154.279 4873 69.8069
154.396 4851 69.6491
154.513 4838 69.5557
154.63 4621 67.9779
154.747 4584 67.7052
154.864 4387 66.2344
154.981 4235 65.0769
155.098 4315 65.6887
155.215 4358 66.0151
155.332 4395 66.2948
155.449 4515 67.1937
155.566 4685 68.4471
155.683 4709 68.6222
155.8 4716 68.6731
155.917 4651 68.1982
156.033 4638 68.1029
156.15 0 1
156.267 0 1
156.383 0 1
156.5 0 1
156.617 0 1
156.733 0 1
156.85 0 1
156.966 0 1
157.082 0 1
157.199 0 1
157.315 0 1
157.431 0 1
157.547 0 1
157.664 0 1
157.78 0 1
157.896 0 1
158.012 0 1
158.128 0 1
158.244 0 1
158.359 0 1
158.475 0 1
158.591 0 1
158.706 0 1
