
6.15755 0 1
6.2731 0 1
6.3887 0 1
6.50437 0 1
6.62009 0 1
6.73587 0 1
6.8517 0 1
6.96759 0 1
7.08353 0 1
7.19952 0 1
7.31557 0 1
7.43166 0 1
7.54781 0 1
7.664 0 1
7.78024 0 1
7.89653 0 1
8.01286 0 1
8.12924 0 1
8.24567 0 1
8.36213 0 1
8.47864 0 1
8.59519 0 1
8.71178 0 1
8.82841 0 1
8.94508 0 1
9.06179 0 1
9.17853 0 1
9.29531 0 1
9.41212 0 1
9.52897 0 1
9.64584 0 1
9.76276 0 1
9.8797 0 1
9.99667 0 1
10.1137 0 1
10.2307 0 1
10.3478 0 1
10.4648 0 1
10.5819 0 1
10.6991 0 1
10.8162 0 1
10.9334 0 1
11.0506 0 1
11.1678 0 1
11.285 0 1
11.4023 0 1
11.5196 0 1
11.6369 0 1
11.7542 0 1
11.8715 0 1
11.9888 0 1
12.1062 0 1
12.2235 0 1
12.3409 0 1
12.4582 0 1
12.5756 0 1
12.693 0 1
12.8104 0 1
12.9278 0 1
13.0452 0 1
13.1626 0 1
13.28 0 1
13.3974 0 1
13.5149 0 1
13.6323 0 1
13.7497 0 1
13.8671 0 1
13.9845 0 1
14.1019 0 1
14.2193 0 1
14.3367 0 1
14.4541 0 1
14.5714 0 1
14.6888 0 1
14.8062 0 1
14.9235 0 1
15.0408 0 0
15.1581 0 0
15.2755 0 0
15.3927 0 0
15.51 0 0
15.6273 0 0
15.7445 0 0
15.8617 0 0
15.9789 0 0
16.0961 0 0
16.2132 0 0
16.3304 0 0
16.4475 0 0
16.5646 0 0
16.6816 0 0
16.7986 0 0
16.9156 0 0
17.0326 0 0
17.1496 0 0
17.2665 0 0
17.3833 0 0
17.5002 0 0
17.617 0 0
17.7338 0 0
17.8505 0 0
17.9672 0 0
18.0839 0 0
18.2005 0 0
18.3171 0 0
18.4337 0 0
18.5502 0 0
18.6666 0 0
18.7831 0 0
18.8994 0 0
19.0158 0 0
19.1321 0 0
19.2483 0 0
19.3645 0 0
19.4806 0 0
19.5967 0 0
19.7128 0 0
19.8288 0 0
19.9447 0 0
20.0606 0 1
20.1764 0 1
20.2922 0 1
20.4079 0 1
20.5236 0 1
20.6392 0 1
20.7548 0 1
20.8702 0 1
23.3078 0 1
23.4233 0 1
23.539 0 1
23.6547 0 1
23.7704 0 1
23.8862 0 1
24.0021 0 1
24.118 0 1
24.234 0 1
24.35 0 1
24.4661 17186 131.095
24.5822 17501 132.291
24.6984 16977 130.296
24.8146 16722 129.314
24.9309 16088 126.838
25.0472 16332 127.797
25.1636 16607 128.868
25.28 17323 131.617
25.3965 17805 133.435
25.513 18302 135.285
25.6296 19257 138.77
25.7462 19898 141.06
25.8628 19934 141.188
25.9795 19797 140.702
26.0962 20003 141.432
26.213 19800 140.712
26.3298 19614 140.05
26.4466 19067 138.083
26.5635 18705 136.766
26.6804 18137 134.674
26.7973 17609 132.699
26.9143 17794 133.394
27.0313 18108 134.566
27.1483 18397 135.636
27.2653 19057 138.047
27.3824 19500 139.642
27.4996 19227 138.661
27.6167 19327 139.022
27.7339 18987 137.793
27.8511 18504 136.029
27.9683 17944 133.955
28.0855 17313 131.579
28.2028 17074 130.668
28.3201 16157 127.11
28.4374 15970 126.372
28.5547 15596 124.884
28.6721 15508 124.531
28.7894 15958 126.325
28.9068 16903 130.012
29.0242 17298 131.522
29.1416 17932 133.91
29.259 18619 136.451
29.3764 18989 137.801
29.4939 18622 136.462
29.6113 19093 138.177
29.7288 18934 137.601
29.8463 19144 138.362
29.9638 18754 136.945
30.0812 18282 135.211
30.1987 17897 133.78
30.3162 17335 131.662
30.4337 17297 131.518
30.5512 17635 132.797
30.6687 18144 134.7
30.7862 18833 137.233
30.9037 18782 137.047
31.0212 19387 139.237
31.1387 19257 138.77
31.2562 18949 137.655
31.3737 18508 136.044
31.4912 18289 135.237
31.6087 17636 132.801
31.7262 16864 129.861
31.8436 16485 128.394
31.9611 16000 126.491
32.0785 15583 124.832
32.1959 15522 124.587
32.3134 16234 127.413
32.4308 16863 129.858
32.5482 17782 133.349
32.6655 18113 134.585
32.7829 18732 136.865
32.9002 19215 138.618
33.0176 19215 138.618
33.1349 19211 138.604
33.2522 19211 138.604
33.3694 19588 139.957
33.4867 19471 139.539
33.6039 19308 138.953
33.7211 18793 137.088
33.8383 17954 133.993
33.9554 17791 133.383
34.0725 17465 132.155
34.1896 17931 133.907
34.3067 18258 135.122
34.4237 18786 137.062
34.5407 19073 138.105
34.6577 19211 138.604
34.7746 19319 138.993
34.8915 19301 138.928
35.0084 18701 136.752
35.1252 18772 137.011
35.242 17940 133.94
35.3587 17352 131.727
35.4755 16795 129.596
35.5921 15987 126.44
35.7088 15476 124.403
35.8254 15043 122.65
35.9419 15309 123.73
36.0584 15846 125.881
36.1749 16901 130.004
36.2913 17358 131.75
36.4077 18244 135.07
36.524 18550 136.198
36.6403 18843 137.27
36.7565 18941 137.626
36.8727 19099 138.199
36.9889 19194 138.542
37.1049 18643 136.539
37.221 0 1
37.3369 0 1
37.4529 0 1
37.5687 0 1
37.6845 0 1
37.8003 0 1
37.916 0 1
38.0316 0 1
38.1472 0 1
40.5851 0 1
40.7008 0 1
40.8164 0 1
40.9322 0 1
41.048 0 1
41.1639 0 1
41.2798 0 1
41.3958 0 1
41.5118 0 1
41.6279 0 1
41.744 16172 127.169
41.8602 16728 129.337
41.9765 17015 130.442
42.0928 17079 130.687
42.2091 16949 130.188
42.3255 17192 131.118
42.4419 16752 129.43
42.5584 16238 127.428
42.675 15777 125.607
42.7915 15521 124.583
42.9081 15827 125.805
43.0248 16117 126.953
43.1415 16694 129.205
43.2582 16782 129.545
43.375 16973 130.28
43.4918 17243 131.313
43.6087 16886 129.946
43.7256 16662 129.081
43.8425 16518 128.522
43.9595 15811 125.742
44.0765 15409 124.133
44.1935 14760 121.491
44.3106 14190 119.122
44.4277 13278 115.23
44.5448 12407 111.387
44.6619 11987 109.485
44.7791 12335 111.063
44.8963 12962 113.851
45.0136 13453 115.987
45.1308 14366 119.858
45.2481 14707 121.272
45.3654 14718 121.318
45.4827 15112 122.931
45.6001 14919 122.143
45.7174 14860 121.902
45.8348 14551 120.628
45.9522 14242 119.34
46.0697 13869 117.767
46.1871 13023 114.118
46.3046 12533 111.951
46.422 12452 111.589
46.5395 12748 112.907
46.657 13025 114.127
46.7745 13481 116.108
46.892 13496 116.172
47.0096 13230 115.022
47.1271 13536 116.344
47.2446 12998 114.009
47.3622 12983 113.943
47.4797 12590 112.205
47.5973 12240 110.635
47.7149 11823 108.734
47.8324 11354 106.555
47.95 10423 102.093
48.0675 9738 98.6813
48.1851 9219 96.0156
48.3027 9393 96.9175
48.4202 9751 98.7472
48.5378 10266 101.321
48.6554 11101 105.361
48.7729 11521 107.336
48.8904 12123 110.104
49.008 12099 109.995
49.1255 12411 111.405
49.243 12469 111.665
49.3605 12308 110.941
49.478 12211 110.503
49.5955 11710 108.213
49.713 11206 105.858
49.8304 11114 105.423
49.9479 11577 107.596
50.0653 12228 110.58
50.1827 13072 114.333
50.3001 13260 115.152
50.4175 13641 116.795
50.5348 13793 117.444
50.6521 14415 120.062
50.7694 14652 121.045
50.8867 14702 121.252
51.004 14985 122.413
51.1212 15124 122.98
51.2384 14760 121.491
51.3556 14359 119.829
51.4727 13655 116.855
51.5899 12952 113.807
51.707 12280 110.815
51.824 12938 113.745
51.9411 13648 116.825
52.0581 14692 121.211
52.175 16205 127.299
52.2919 17142 130.927
52.4088 17613 132.714
52.5257 18215 134.963
52.6425 18041 134.317
52.7593 18607 136.407
52.876 18340 135.425
52.9927 18584 136.323
53.1094 18396 135.632
53.226 17973 134.063
53.3426 17508 132.318
53.4591 17389 131.867
53.5756 18050 134.35
53.692 19019 137.909
53.8084 19402 139.291
53.9248 19436 139.413
54.0411 19672 140.257
54.1573 19994 141.4
54.2735 0 1
54.3896 0 1
54.5057 0 1
54.6217 0 1
54.7377 0 1
54.8537 0 1
54.9695 0 1
55.0853 0 1
55.2011 0 1
55.3168 0 1
55.4324 0 1
57.824 0 1
57.9396 0 1
58.0553 0 1
58.1711 0 1
58.2869 0 1
58.4028 0 1
58.5187 0 1
58.6347 0 1
58.7508 0 1
58.8669 0 1
58.983 24796 157.467
59.0992 25687 160.272
59.2155 25736 160.424
59.3318 26519 162.847
59.4482 26523 162.859
59.5646 25980 161.183
59.681 25928 161.022
59.7975 25376 159.298
59.9141 24276 155.808
60.0306 23249 152.476
60.1473 21788 147.608
60.2639 20188 142.084
60.3807 18973 137.743
60.4974 19203 138.575
60.6142 20003 141.432
60.731 21295 145.928
60.8479 22880 151.261
60.9648 24255 155.74
61.0818 25135 158.54
61.1987 25792 160.599
61.3158 25941 161.062
61.4328 26006 161.264
61.5499 25611 160.034
61.667 25720 160.375
61.7841 24464 156.41
61.9013 24412 156.243
62.0185 24261 155.759
62.1357 24685 157.115
62.253 25266 158.953
62.3702 25711 160.346
62.4875 26492 162.764
62.6049 26579 163.031
62.7222 26880 163.951
62.8396 26872 163.927
62.9569 27131 164.715
63.0743 26846 163.847
63.1918 26560 162.972
63.3092 25878 160.866
63.4267 24628 156.933
63.5441 23767 154.165
63.6616 21844 147.797
63.7791 20108 141.803
63.8966 18797 137.102
64.0142 18680 136.675
64.1317 20092 141.746
64.2492 21567 146.857
64.3668 23645 153.769
64.4843 25140 158.556
64.6019 26051 161.403
64.7195 26633 163.196
64.837 26638 163.212
64.9546 26939 164.131
65.0722 26718 163.456
65.1898 26817 163.759
65.3074 26435 162.588
65.4249 25308 159.085
65.5425 25006 158.133
65.6601 24955 157.972
65.7777 25472 159.599
65.8952 26807 163.728
66.0128 27125 164.697
66.1304 27592 166.108
66.2479 27803 166.742
66.3655 28044 167.463
66.483 28680 169.352
66.6005 28370 168.434
66.718 28186 167.887
66.8355 27842 166.859
66.953 27169 164.83
67.0705 26083 161.502
67.1879 24732 157.264
67.3054 22972 151.565
67.4228 20637 143.656
67.5402 19172 138.463
67.6576 19178 138.485
67.7749 20379 142.755
67.8923 23208 152.342
68.0096 25372 159.286
68.1269 27678 166.367
68.2442 28743 169.538
68.3614 29080 170.529
68.4787 29729 172.421
68.5958 29877 172.85
68.713 30018 173.257
68.8302 29940 173.032
68.9473 29457 171.63
69.0643 28676 169.34
69.1814 28179 167.866
69.2984 28141 167.753
69.4154 29272 171.091
69.5323 30053 173.358
69.6492 31151 176.496
69.7661 32449 180.136
69.8829 32153 179.313
69.9997 32473 180.203
70.1165 32832 181.196
70.2332 32988 181.626
70.3499 32721 180.889
70.4665 32208 179.466
70.5831 31477 177.418
70.6996 30412 174.39
70.8161 29042 170.417
70.9326 27368 165.433
71.049 24471 156.432
71.1653 21508 146.656
71.2817 19934 141.188
71.3979 20749 144.045
71.5141 22398 149.66
71.6303 24752 157.328
71.7464 25189 158.71
71.8624 0 1
71.9784 0 1
72.0944 0 1
72.2102 0 1
72.3261 0 1
72.4418 0 1
72.5575 0 1
72.6732 0 1
75.1054 0 1
75.2209 0 1
75.3365 0 1
75.4521 0 1
75.5678 0 1
75.6835 0 1
75.7993 0 1
75.9151 0 1
76.031 0 1
76.147 29125 170.66
76.263 29820 172.685
76.3791 27917 167.084
76.4952 24381 156.144
76.6113 22576 150.253
76.7276 23868 154.493
76.8438 26453 162.644
76.9601 30054 173.361
77.0765 34021 184.448
77.1929 36195 190.25
77.3093 37300 193.132
77.4258 37414 193.427
77.5423 38030 195.013
77.6589 38117 195.236
77.7755 38107 195.21
77.8921 37853 194.558
78.0088 37357 193.28
78.1256 36199 190.26
78.2423 35659 188.836
78.3591 35621 188.735
78.4759 36225 190.329
78.5928 37751 194.296
78.7097 38923 197.289
78.8266 41332 203.303
78.9436 38184 195.407
79.0606 40167 200.417
79.1776 40302 200.754
79.2946 40190 200.474
79.4117 40064 200.16
79.5288 39513 198.779
79.6459 38587 196.436
79.7631 37242 192.982
79.8802 35764 189.114
79.9974 32583 180.508
80.1147 28613 169.154
80.2319 25569 159.903
80.3491 25487 159.646
80.4664 28603 169.124
80.5837 32810 181.135
80.701 36706 191.588
80.8183 39709 199.271
80.9357 40674 201.678
81.053 41122 202.786
81.1704 41201 202.98
81.2877 41549 203.836
81.4051 41153 202.862
81.5225 42050 205.061
81.6399 40143 200.357
81.7573 40355 200.886
81.8747 38565 196.38
81.9922 38108 195.213
82.1096 38607 196.487
82.227 39549 198.869
82.3444 41092 202.712
82.4619 42372 205.845
82.5793 41414 203.504
82.6967 43641 208.904
82.8142 42759 206.782
82.9316 43049 207.483
83.049 42485 206.119
83.1664 41053 202.615
83.2838 40720 201.792
83.4012 39251 198.119
83.5186 37421 193.445
83.636 34812 186.58
83.7534 29986 173.165
83.8708 26075 161.478
83.9881 25596 159.987
84.1055 28330 168.315
84.2228 32337 179.825
84.3401 37591 193.884
84.4575 41421 203.521
84.5747 43250 207.966
84.692 44537 211.038
84.8093 44951 212.017
84.9265 44682 211.381
85.0437 45186 212.57
85.1609 44993 212.116
85.2781 43899 209.521
85.3952 43581 208.761
85.5123 42565 206.313
85.6294 42463 206.066
85.7465 43437 208.415
85.8636 45442 213.171
85.9806 46949 216.677
86.0976 48075 219.26
86.2145 48857 221.036
86.3315 48342 219.868
86.4484 51711 227.401
86.5652 50933 225.683
86.682 50069 223.761
86.7988 50074 223.772
86.9156 49111 221.61
87.0323 46982 216.753
87.149 45109 212.389
87.2657 40651 201.621
87.3823 35601 188.682
87.4988 32536 180.377
87.6154 34580 185.957
87.7318 39509 198.769
87.8483 45825 214.068
87.9647 50784 225.353
88.081 53841 232.037
88.1973 55076 234.683
88.3136 55705 236.019
88.4298 55650 235.903
88.546 55616 235.83
88.6621 55713 236.036
88.7781 54524 233.504
88.8942 0 1
89.0101 0 1
89.126 0 1
89.2419 0 1
89.3577 0 1
89.4734 0 1
89.5891 0 1
89.7047 0 1
89.8203 0 1
89.9358 0 1
92.3269 0 1
92.4424 0 1
92.558 0 1
92.6736 0 1
92.7893 0 1
92.905 0 1
93.0208 0 1
93.1366 0 1
93.2525 0 1
93.3685 0 1
93.4845 0 1
93.6005 58351 241.56
93.7167 59796 244.532
93.8328 59960 244.867
93.949 60049 245.049
94.0653 59974 244.896
94.1816 59795 244.53
94.2979 60088 245.129
94.4143 58472 241.81
94.5307 58225 241.299
94.6472 56867 238.468
94.7637 56703 238.124
94.8803 57997 240.826
94.9969 59083 243.07
95.1135 60281 245.522
95.2302 61714 248.423
95.3469 63064 251.125
95.4637 63791 252.569
95.5805 64560 254.087
95.6973 64437 253.844
95.8142 65191 255.325
95.9311 64109 253.198
96.048 61806 248.608
96.1649 59932 244.81
96.2819 56980 238.705
96.3989 52566 229.273
96.516 46192 214.923
96.633 41189 202.951
96.7501 39858 199.645
96.8673 44082 209.957
96.9844 50353 224.395
97.1016 57858 240.537
97.2188 63163 251.323
97.336 66954 258.755
97.4532 67562 259.927
97.5704 68028 260.822
97.6877 68082 260.925
97.805 67648 260.092
97.9223 67663 260.121
98.0396 67040 258.921
98.1569 66199 257.292
98.2743 64402 253.775
98.3916 64054 253.089
98.509 63023 251.044
98.6264 63837 252.66
98.7438 65555 256.037
98.8612 67101 259.039
98.9786 69501 263.63
99.096 69899 264.384
99.2134 70177 264.909
99.3308 70900 266.271
99.4482 71416 267.238
99.5656 70890 266.252
99.6831 69110 262.888
99.8005 66941 258.73
99.9179 63012 251.022
100.035 57379 239.539
100.153 50087 223.801
100.27 45855 214.138
100.388 46595 215.859
100.505 53399 231.082
100.622 62017 249.032
100.74 68452 261.633
100.857 72134 268.578
100.975 73642 271.371
101.092 73585 271.266
101.209 73646 271.378
101.327 73680 271.441
101.444 73566 271.231
101.561 73260 270.666
101.679 73522 271.149
101.796 72130 268.57
101.913 70406 265.341
102.03 69170 263.002
102.148 68625 261.964
102.265 74295 272.571
102.382 69549 263.721
102.499 75189 274.206
102.616 75895 275.49
102.733 77230 277.903
102.851 78452 280.093
102.968 77982 279.253
103.085 77888 279.084
103.202 76066 275.801
103.319 74252 272.492
103.436 69595 263.809
103.552 63543 252.077
103.669 54881 234.267
103.786 49108 221.603
103.903 50846 225.491
104.02 58906 242.706
104.137 68000 260.768
104.253 77639 278.638
104.37 78139 279.534
104.487 81107 284.793
104.603 81138 284.847
104.72 80958 284.531
104.836 81951 286.271
104.953 81840 286.077
105.069 80926 284.475
105.186 80484 283.697
105.302 79337 281.668
105.418 77112 277.69
105.535 75914 275.525
105.651 76239 276.114
105.767 78196 279.635
105.883 80077 282.979
105.999 81869 286.128
106.115 0 1
106.231 0 1
106.347 0 1
106.463 0 1
106.579 0 1
106.694 0 1
106.81 0 1
106.926 0 1
107.041 0 1
107.157 0 1
109.576 0 1
109.692 0 1
109.807 0 1
109.923 0 1
110.039 0 1
110.155 0 1
110.27 0 1
110.386 0 1
110.502 0 1
110.618 71259 266.944
110.735 72580 269.407
110.851 74482 272.914
110.967 76058 275.786
111.083 77195 277.84
111.199 77883 279.075
111.316 78315 279.848
111.432 78830 280.767
111.549 77614 278.593
111.665 76616 276.796
111.782 73834 271.724
111.898 69134 262.933
112.015 62464 249.928
112.132 54770 234.03
112.248 47933 218.936
112.365 47445 217.819
112.482 52962 230.135
112.599 59566 244.061
112.716 67685 260.163
112.832 71513 267.419
112.949 72225 268.747
113.066 73376 270.88
113.183 72443 269.152
113.3 71445 267.292
113.417 71468 267.335
113.534 70806 266.094
113.652 69907 264.399
113.769 69670 263.951
113.886 67794 260.373
114.003 65940 256.788
114.12 64443 253.856
114.238 63110 251.217
114.355 63783 252.553
114.472 64188 253.354
114.589 65752 256.422
114.707 67304 259.43
114.824 67451 259.713
114.942 68236 261.22
115.059 68508 261.74
115.176 67990 260.749
115.294 66112 257.123
115.411 63577 252.145
115.529 59468 243.861
115.646 53440 231.171
115.764 47170 217.187
115.881 42868 207.046
115.999 45347 212.948
116.116 52001 228.037
116.234 59311 243.538
116.351 64216 253.409
116.469 66632 258.132
116.586 67277 259.378
116.704 67656 260.108
116.821 67177 259.185
116.939 67722 260.235
117.056 67060 258.959
117.174 66186 257.266
117.291 66990 258.824
117.409 66226 257.344
117.526 64678 254.319
117.644 64098 253.176
117.761 63489 251.97
117.879 63309 251.613
117.996 62037 249.072
118.114 64148 253.275
118.231 66375 257.633
118.349 65974 256.854
118.466 67109 259.054
118.584 67598 259.996
118.701 67403 259.621
118.819 66952 258.751
118.936 65204 255.351
119.053 62291 249.582
119.171 58015 240.863
119.288 51818 227.636
119.405 45698 213.771
119.523 42065 205.098
119.64 44894 211.882
119.757 50197 224.047
119.875 57185 239.134
119.992 62025 249.048
120.109 63598 252.186
120.226 65226 255.394
120.343 65128 255.202
120.46 65268 255.476
120.578 65213 255.368
120.695 64922 254.798
120.812 64362 253.697
120.929 64366 253.705
121.046 63777 252.541
121.163 63318 251.631
121.279 62195 249.389
121.396 61193 247.372
121.513 60095 245.143
121.63 60619 246.209
121.747 59955 244.857
121.863 60647 246.266
121.98 62316 249.632
122.097 62382 249.764
122.213 63921 252.826
122.33 63924 252.832
122.446 63451 251.895
122.563 62129 249.257
122.679 60561 246.091
122.795 57754 240.321
122.912 54816 234.128
123.028 48898 221.129
123.144 42683 206.599
123.26 39779 199.447
123.377 0 1
123.493 0 1
123.609 0 1
123.725 0 1
123.84 0 1
123.956 0 1
124.072 0 1
124.188 0 1
124.303 0 1
124.419 0 1
126.852 0 1
126.968 0 1
127.083 0 1
127.199 0 1
127.315 0 1
127.431 0 1
127.547 0 1
127.663 0 1
127.779 0 1
127.895 0 1
128.011 0 1
128.127 0 1
128.243 0 1
128.359 47438 217.803
128.476 43704 209.055
128.592 45399 213.07
128.708 51796 227.587
128.825 59103 243.111
128.941 64811 254.58
129.058 66489 257.855
129.174 67073 258.985
129.291 67661 260.117
129.408 67983 260.735
129.524 67558 259.919
129.641 67281 259.386
129.758 67022 258.886
129.875 66373 257.63
129.992 66088 257.076
130.108 65141 255.227
130.225 64047 253.075
130.342 64054 253.089
130.459 61445 247.881
130.576 63337 251.668
130.693 62485 249.97
130.81 62456 249.912
130.928 63813 252.612
131.045 64808 254.574
131.162 65797 256.509
131.279 64980 254.912
131.396 65003 254.957
131.513 63191 251.378
131.631 60951 246.883
131.748 57162 239.086
131.865 50557 224.849
131.983 44483 210.91
132.1 44235 210.321
132.217 48374 219.941
132.335 54817 234.13
132.452 59727 244.391
132.57 62992 250.982
132.687 61628 248.25
132.804 66194 257.282
132.922 63493 251.978
133.039 63879 252.743
133.157 63855 252.695
133.274 63790 252.567
133.392 63538 252.067
133.509 62021 249.04
133.627 61799 248.594
133.744 61714 248.423
133.862 59987 244.922
133.979 60591 246.152
134.097 59590 244.111
134.214 60820 246.617
134.332 59179 243.267
134.449 60136 245.226
134.567 60663 246.299
134.684 61341 247.671
134.802 61812 248.62
134.919 61992 248.982
135.037 61184 247.354
135.154 59121 243.148
135.272 56309 237.295
135.389 51322 226.544
135.507 45664 213.691
135.624 41820 204.499
135.742 43378 208.274
135.859 48695 220.669
135.977 55130 234.798
136.094 59166 243.241
136.211 61119 247.223
136.329 62181 249.361
136.446 61864 248.725
136.564 61819 248.634
136.681 62479 249.958
136.798 60510 245.988
136.915 61322 247.633
137.033 60335 245.632
137.15 60143 245.241
137.267 59118 243.142
137.384 58509 241.886
137.502 57564 239.925
137.619 57933 240.693
137.736 58000 240.832
137.853 56049 236.747
137.97 55329 235.221
138.087 58412 241.686
138.204 57882 240.587
138.321 58403 241.667
138.438 59501 243.928
138.555 59186 243.282
138.672 58911 242.716
138.788 57198 239.161
138.905 55233 235.017
139.022 51461 226.85
139.139 46516 215.676
139.255 42569 206.323
139.372 42896 207.113
139.488 46584 215.833
139.605 52501 229.131
139.721 56928 238.596
139.838 59203 243.317
139.954 60379 245.721
140.071 59030 242.961
140.187 59900 244.745
140.303 58525 241.919
140.419 59164 243.237
140.535 58330 241.516
140.652 57467 239.723
140.768 0 1
140.884 0 1
141 0 1
141.115 0 1
141.231 0 1
141.347 0 1
141.463 0 1
141.578 0 1
141.694 0 1
144.104 0 1
144.219 0 1
144.335 0 1
144.45 0 1
144.566 0 1
144.682 0 1
144.798 0 1
144.914 0 1
145.03 0 1
145.146 50026 223.665
145.262 50374 224.442
145.378 50201 224.056
145.494 50008 223.625
145.61 49147 221.691
145.726 48705 220.692
145.842 48524 220.282
145.959 47433 217.791
146.075 47060 216.933
146.192 47336 217.568
146.308 46928 216.629
146.425 47167 217.18
146.541 46923 216.617
146.658 46805 216.345
146.774 46080 214.663
146.891 46156 214.839
147.008 46752 216.222
147.125 47044 216.896
147.241 46890 216.541
147.358 45690 213.752
147.475 44104 210.01
147.592 41888 204.666
147.709 39039 197.583
147.826 34730 186.36
147.943 34586 185.973
148.06 36458 190.94
148.177 40578 201.44
148.294 44481 210.905
148.411 46478 215.588
148.528 46569 215.799
148.645 46027 214.539
148.762 45983 214.436
148.88 46574 215.81
148.997 44273 210.412
149.114 46680 216.056
149.231 44758 211.561
149.349 44439 210.806
149.466 43109 207.627
149.583 42665 206.555
149.701 42253 205.555
149.818 42907 207.14
149.935 43308 208.106
150.053 42882 207.08
150.17 43107 207.622
150.287 42861 207.029
150.405 42649 206.516
150.522 42710 206.664
150.64 43203 207.853
150.757 43492 208.547
150.875 43223 207.901
150.992 43064 207.519
151.11 40659 201.641
151.227 39267 198.159
151.344 36873 192.023
151.462 33317 182.529
151.579 33225 182.277
151.697 35515 188.454
151.814 39427 198.562
151.932 42690 206.616
152.049 44239 210.331
152.167 44992 212.113
152.284 44952 212.019
152.402 44870 211.825
152.519 44443 210.815
152.636 44308 210.495
152.754 44283 210.435
152.871 43541 208.665
152.989 42583 206.356
153.106 42195 205.414
153.223 41822 204.504
153.341 41932 204.773
153.458 42042 205.041
153.575 43099 207.603
153.693 42924 207.181
153.81 42946 207.234
153.927 42417 205.954
154.044 42839 206.976
154.162 43297 208.079
154.279 43557 208.703
154.396 44560 211.092
154.513 44524 211.007
154.63 43960 209.666
154.747 42707 206.657
154.864 41399 203.467
154.981 39094 197.722
155.098 36336 190.62
155.215 35536 188.51
155.332 38070 195.115
155.449 41189 202.951
155.566 43920 209.571
155.683 44878 211.844
155.8 45225 212.662
155.917 45234 212.683
156.033 45433 213.15
156.15 0 1
156.267 0 1
156.383 0 1
156.5 0 1
156.617 0 1
156.733 0 1
156.85 0 1
156.966 0 1
157.082 0 1
157.199 0 1
157.315 0 1
157.431 0 1
157.547 0 1
157.664 0 1
157.78 0 1
157.896 0 1
158.012 0 1
158.128 0 1
158.244 0 1
158.359 0 1
158.475 0 1
158.591 0 1
158.706 0 1
