
6.15755 0 1
6.2731 0 1
6.3887 0 1
6.50437 0 1
6.62009 0 1
6.73587 0 1
6.8517 0 1
6.96759 0 1
7.08353 0 1
7.19952 0 1
7.31557 0 1
7.43166 0 1
7.54781 0 1
7.664 0 1
7.78024 0 1
7.89653 0 1
8.01286 0 1
8.12924 0 1
8.24567 0 1
8.36213 0 1
8.47864 0 1
8.59519 0 1
8.71178 0 1
8.82841 0 1
8.94508 0 1
9.06179 0 1
9.17853 0 1
9.29531 0 1
9.41212 0 1
9.52897 0 1
9.64584 0 1
9.76276 0 1
9.8797 0 1
9.99667 0 1
10.1137 0 1
10.2307 0 1
10.3478 0 1
10.4648 0 1
10.5819 0 1
10.6991 0 1
10.8162 0 1
10.9334 0 1
11.0506 0 1
11.1678 0 1
11.285 0 1
11.4023 0 1
11.5196 0 1
11.6369 0 1
11.7542 0 1
11.8715 0 1
11.9888 0 1
12.1062 0 1
12.2235 0 1
12.3409 0 1
12.4582 0 1
12.5756 0 1
12.693 0 1
12.8104 0 1
12.9278 0 1
13.0452 0 1
13.1626 0 1
13.28 0 1
13.3974 0 1
13.5149 0 1
13.6323 0 1
13.7497 0 1
13.8671 0 1
13.9845 0 1
14.1019 0 1
14.2193 0 1
14.3367 0 1
14.4541 0 1
14.5714 0 1
14.6888 0 1
14.8062 0 1
14.9235 0 1
15.0408 2248 47.4131
15.1581 2240 47.3286
15.2755 2383 48.816
15.3927 2352 48.4974
15.51 2320 48.1664
15.6273 2349 48.4665
15.7445 2329 48.2597
15.8617 2234 47.2652
15.9789 2207 46.9787
16.0961 2212 47.0319
16.2132 2170 46.5833
16.3304 2252 47.4552
16.4475 2123 46.076
16.5646 2257 47.5079
16.6816 2316 48.1248
16.7986 2218 47.0956
16.9156 2104 45.8694
17.0326 2149 46.3573
17.1496 2183 46.7226
17.2665 2031 45.0666
17.3833 2060 45.3872
17.5002 2049 45.2659
17.617 2002 44.7437
17.7338 2031 45.0666
17.8505 2067 45.4643
17.9672 2136 46.2169
18.0839 2269 47.634
18.2005 2228 47.2017
18.3171 2406 49.051
18.4337 2408 49.0714
18.5502 2473 49.7293
18.6666 2395 48.9387
18.7831 2395 48.9387
18.8994 2433 49.3254
19.0158 2422 49.2138
19.1321 2306 48.0208
19.2483 2181 46.7012
19.3645 2157 46.4435
19.4806 2028 45.0333
19.5967 1967 44.3509
19.7128 1942 44.0681
19.8288 1786 42.2611
19.9447 1732 41.6173
20.0606 0 1
20.1764 0 1
20.2922 0 1
20.4079 0 1
20.5236 0 1
20.6392 0 1
20.7548 0 1
20.8702 0 1
23.3078 0 1
23.4233 0 1
23.539 0 1
23.6547 0 1
23.7704 0 1
23.8862 0 1
24.0021 0 1
24.118 0 1
24.234 0 1
24.35 0 1
24.4661 2054 45.3211
24.5822 2030 45.0555
24.6984 1888 43.4511
24.8146 1842 42.9185
24.9309 1881 43.3705
25.0472 1920 43.8178
25.1636 1989 44.5982
25.28 2078 45.5851
25.3965 2081 45.618
25.513 2162 46.4973
25.6296 2154 46.4112
25.7462 2311 48.0729
25.8628 2235 47.2758
25.9795 2163 46.5081
26.0962 2177 46.6583
26.213 1924 43.8634
26.3298 1897 43.5546
26.4466 1859 43.1161
26.5635 1978 44.4747
26.6804 1988 44.587
26.7973 2040 45.1664
26.9143 2100 45.8258
27.0313 1991 44.6206
27.1483 2225 47.1699
27.2653 2153 46.4004
27.3824 2238 47.3075
27.4996 2159 46.465
27.6167 2075 45.5522
27.7339 2063 45.4203
27.8511 2091 45.7275
27.9683 2029 45.0444
28.0855 2063 45.4203
28.2028 1998 44.699
28.3201 1864 43.1741
28.4374 1758 41.9285
28.5547 1841 42.9069
28.6721 1862 43.1509
28.7894 1938 44.0227
28.9068 1940 44.0454
29.0242 1970 44.3847
29.1416 1984 44.5421
29.259 2013 44.8665
29.3764 1931 43.9431
29.4939 1922 43.8406
29.6113 1894 43.5201
29.7288 1841 42.9069
29.8463 1776 42.1426
29.9638 1772 42.0951
30.0812 1762 41.9762
30.1987 1761 41.9643
30.3162 1822 42.6849
30.4337 1913 43.7379
30.5512 1999 44.7102
30.6687 1940 44.0454
30.7862 2051 45.288
30.9037 2073 45.5302
31.0212 2068 45.4753
31.1387 2137 46.2277
31.2562 1978 44.4747
31.3737 2054 45.3211
31.4912 1956 44.2267
31.6087 1877 43.3244
31.7262 1848 42.9884
31.8436 1696 41.1825
31.9611 1712 41.3763
32.0785 1757 41.9166
32.1959 1698 41.2068
32.3134 1810 42.5441
32.4308 1846 42.9651
32.5482 1872 43.2666
32.6655 1942 44.0681
32.7829 1887 43.4396
32.9002 1939 44.0341
33.0176 1852 43.0349
33.1349 1806 42.4971
33.2522 1835 42.8369
33.3694 1739 41.7013
33.4867 1826 42.7317
33.6039 1636 40.4475
33.7211 1727 41.5572
33.8383 1651 40.6325
33.9554 1766 42.0238
34.0725 1851 43.0232
34.1896 1855 43.0697
34.3067 1916 43.7721
34.4237 1962 44.2945
34.5407 2011 44.8442
34.6577 1925 43.8748
34.7746 2027 45.0222
34.8915 1938 44.0227
35.0084 1889 43.4626
35.1252 1871 43.2551
35.242 1907 43.6692
35.3587 1847 42.9767
35.4755 1711 41.3642
35.5921 1726 41.5452
35.7088 1675 40.9268
35.8254 1651 40.6325
35.9419 1602 40.025
36.0584 1656 40.694
36.1749 1788 42.2847
36.2913 1842 42.9185
36.4077 1766 42.0238
36.524 1700 41.2311
36.6403 1856 43.0813
36.7565 1824 42.7083
36.8727 1725 41.5331
36.9889 1681 41
37.1049 1701 41.2432
37.221 0 1
37.3369 0 1
37.4529 0 1
37.5687 0 1
37.6845 0 1
37.8003 0 1
37.916 0 1
38.0316 0 1
38.1472 0 1
40.5851 0 1
40.7008 0 1
40.8164 0 1
40.9322 0 1
41.048 0 1
41.1639 0 1
41.2798 0 1
41.3958 0 1
41.5118 0 1
41.6279 0 1
41.744 1387 37.2424
41.8602 1430 37.8153
41.9765 1504 38.7814
42.0928 1482 38.4968
42.2091 1456 38.1576
42.3255 1319 36.318
42.4419 1407 37.51
42.5584 1356 36.8239
42.675 1313 36.2353
42.7915 1306 36.1386
42.9081 1360 36.8782
43.0248 1369 37
43.1415 1458 38.1838
43.2582 1371 37.027
43.375 1428 37.7889
43.4918 1507 38.8201
43.6087 1446 38.0263
43.7256 1442 37.9737
43.8425 1407 37.51
43.9595 1379 37.1349
44.0765 1362 36.9053
44.1935 1346 36.6879
44.3106 1212 34.8138
44.4277 1192 34.5254
44.5448 1149 33.8969
44.6619 1104 33.2265
44.7791 1045 32.3265
44.8963 1037 32.2025
45.0136 1088 32.9848
45.1308 1070 32.7109
45.2481 1139 33.7491
45.3654 1099 33.1512
45.4827 1082 32.8938
45.6001 1138 33.7343
45.7174 1110 33.3167
45.8348 1099 33.1512
45.9522 1066 32.6497
46.0697 1044 32.311
46.1871 1022 31.9687
46.3046 904 30.0666
46.422 964 31.0483
46.5395 969 31.1288
46.657 1038 32.218
46.7745 1037 32.2025
46.892 1017 31.8904
47.0096 1064 32.619
47.1271 1069 32.6956
47.2446 1014 31.8434
47.3622 998 31.5911
47.4797 1076 32.8024
47.5973 927 30.4467
47.7149 919 30.315
47.8324 950 30.8221
47.95 953 30.8707
48.0675 932 30.5287
48.1851 819 28.6182
48.3027 844 29.0517
48.4202 810 28.4605
48.5378 845 29.0689
48.6554 845 29.0689
48.7729 921 30.348
48.8904 860 29.3258
49.008 866 29.4279
49.1255 940 30.6594
49.243 928 30.4631
49.3605 940 30.6594
49.478 882 29.6985
49.5955 923 30.3809
49.713 878 29.6311
49.8304 827 28.7576
49.9479 871 29.5127
50.0653 900 30
50.1827 970 31.1448
50.3001 991 31.4802
50.4175 996 31.5595
50.5348 1041 32.2645
50.6521 1103 33.2114
50.7694 1057 32.5115
50.8867 1128 33.5857
51.004 1162 34.0881
51.1212 1111 33.3317
51.2384 1184 34.4093
51.3556 1165 34.1321
51.4727 1150 33.9116
51.5899 1172 34.2345
51.707 1056 32.4962
51.824 1079 32.8481
51.9411 1149 33.8969
52.0581 1165 34.1321
52.175 1238 35.1852
52.2919 1379 37.1349
52.4088 1368 36.9865
52.5257 1355 36.8103
52.6425 1419 37.6696
52.7593 1451 38.092
52.876 1450 38.0789
52.9927 1485 38.5357
53.1094 1464 38.2623
53.226 1378 37.1214
53.3426 1330 36.4692
53.4591 1345 36.6742
53.5756 1336 36.5513
53.692 1444 38
53.8084 1519 38.9744
53.9248 1547 39.3319
54.0411 1629 40.3609
54.1573 1643 40.5339
54.2735 0 1
54.3896 0 1
54.5057 0 1
54.6217 0 1
54.7377 0 1
54.8537 0 1
54.9695 0 1
55.0853 0 1
55.2011 0 1
55.3168 0 1
55.4324 0 1
57.824 0 1
57.9396 0 1
58.0553 0 1
58.1711 0 1
58.2869 0 1
58.4028 0 1
58.5187 0 1
58.6347 0 1
58.7508 0 1
58.8669 0 1
58.983 1842 42.9185
59.0992 1990 44.6094
59.2155 1995 44.6654
59.3318 2129 46.1411
59.4482 2133 46.1844
59.5646 2113 45.9674
59.681 2089 45.7056
59.7975 2126 46.1086
59.9141 2097 45.793
60.0306 2104 45.8694
60.1473 2072 45.5192
60.2639 1952 44.1814
60.3807 1904 43.6348
60.4974 1904 43.6348
60.6142 1770 42.0714
60.731 1845 42.9535
60.8479 1868 43.2204
60.9648 1875 43.3013
61.0818 1965 44.3283
61.1987 1940 44.0454
61.3158 2006 44.7884
61.4328 2021 44.9555
61.5499 1936 44
61.667 1962 44.2945
61.7841 1936 44
61.9013 1833 42.8135
62.0185 1777 42.1545
62.1357 1704 41.2795
62.253 1648 40.5956
62.3702 1698 41.2068
62.4875 1759 41.9404
62.6049 1795 42.3674
62.7222 1725 41.5331
62.8396 1882 43.382
62.9569 1835 42.8369
63.0743 1856 43.0813
63.1918 1926 43.8862
63.3092 1834 42.8252
63.4267 1822 42.6849
63.5441 1831 42.7902
63.6616 1792 42.332
63.7791 1784 42.2374
63.8966 1697 41.1947
64.0142 1601 40.0125
64.1317 1607 40.0874
64.2492 1590 39.8748
64.3668 1664 40.7922
64.4843 1597 39.9625
64.6019 1665 40.8044
64.7195 1777 42.1545
64.837 1785 42.2493
64.9546 1846 42.9651
65.0722 1804 42.4735
65.1898 1823 42.6966
65.3074 1862 43.1509
65.4249 1755 41.8927
65.5425 1664 40.7922
65.6601 1618 40.2244
65.7777 1586 39.8246
65.8952 1531 39.128
66.0128 1651 40.6325
66.1304 1614 40.1746
66.2479 1663 40.7799
66.3655 1745 41.7732
66.483 1799 42.4146
66.6005 1797 42.391
66.718 1835 42.8369
66.8355 1852 43.0349
66.953 1815 42.6028
67.0705 1858 43.1045
67.1879 1756 41.9047
67.3054 1785 42.2493
67.4228 1709 41.3401
67.5402 1804 42.4735
67.6576 1717 41.4367
67.7749 1513 38.8973
67.8923 1600 40
68.0096 1627 40.3361
68.1269 1642 40.5216
68.2442 1760 41.9524
68.3614 1865 43.1856
68.4787 1870 43.2435
68.5958 1930 43.9318
68.713 1857 43.0929
68.8302 2057 45.3542
68.9473 2036 45.1221
69.0643 1961 44.2832
69.1814 1910 43.7035
69.2984 1806 42.4971
69.4154 1645 40.5586
69.5323 1704 41.2795
69.6492 1679 40.9756
69.7661 1874 43.2897
69.8829 1853 43.0465
69.9997 1900 43.589
70.1165 1931 43.9431
70.2332 1993 44.643
70.3499 2052 45.299
70.4665 2020 44.9444
70.5831 2058 45.3652
70.6996 2017 44.911
70.8161 2004 44.7661
70.9326 1938 44.0227
71.049 1916 43.7721
71.1653 1966 44.3396
71.2817 1940 44.0454
71.3979 1853 43.0465
71.5141 1761 41.9643
71.6303 1578 39.724
71.7464 1576 39.6989
71.8624 0 1
71.9784 0 1
72.0944 0 1
72.2102 0 1
72.3261 0 1
72.4418 0 1
72.5575 0 1
72.6732 0 1
75.1054 0 1
75.2209 0 1
75.3365 0 1
75.4521 0 1
75.5678 0 1
75.6835 0 1
75.7993 0 1
75.9151 0 1
76.031 0 1
76.147 1736 41.6653
76.263 1806 42.4971
76.3791 1884 43.4051
76.4952 1808 42.5206
76.6113 1815 42.6028
76.7276 1741 41.7253
76.8438 1691 41.1218
76.9601 1746 41.7852
77.0765 1793 42.3438
77.1929 1725 41.5331
77.3093 1834 42.8252
77.4258 2004 44.7661
77.5423 1941 44.0568
77.6589 2113 45.9674
77.7755 2011 44.8442
77.8921 2046 45.2327
78.0088 1989 44.5982
78.1256 1869 43.2319
78.2423 1720 41.4729
78.3591 1661 40.7554
78.4759 1538 39.2173
78.5928 1589 39.8623
78.7097 1692 41.1339
78.8266 1700 41.2311
78.9436 1796 42.3792
79.0606 1804 42.4735
79.1776 1883 43.3935
79.2946 1879 43.3474
79.4117 1908 43.6807
79.5288 1990 44.6094
79.6459 1943 44.0795
79.7631 1968 44.3621
79.8802 1881 43.3705
79.9974 2017 44.911
80.1147 1955 44.2154
80.2319 1839 42.8836
80.3491 1742 41.7373
80.4664 1687 41.0731
80.5837 1671 40.8779
80.701 1745 41.7732
80.8183 1876 43.3128
80.9357 1865 43.1856
81.053 1927 43.8976
81.1704 1964 44.317
81.2877 2037 45.1331
81.4051 2053 45.31
81.5225 2069 45.4863
81.6399 2046 45.2327
81.7573 2014 44.8776
81.8747 1836 42.8486
81.9922 1662 40.7676
82.1096 1529 39.1024
82.227 1602 40.025
82.3444 1656 40.694
82.4619 1807 42.5088
82.5793 1866 43.1972
82.6967 1839 42.8836
82.8142 1899 43.5775
82.9316 1971 44.3959
83.049 1921 43.8292
83.1664 1980 44.4972
83.2838 1859 43.1161
83.4012 1952 44.1814
83.5186 1887 43.4396
83.636 1949 44.1475
83.7534 1988 44.587
83.8708 1834 42.8252
83.9881 1811 42.5558
84.1055 1718 41.4488
84.2228 1786 42.2611
84.3401 1755 41.8927
84.4575 1820 42.6615
84.5747 1920 43.8178
84.692 1922 43.8406
84.8093 2018 44.9222
84.9265 2080 45.607
85.0437 2091 45.7275
85.1609 2121 46.0543
85.2781 2055 45.3321
85.3952 1894 43.5201
85.5123 1829 42.7668
85.6294 1692 41.1339
85.7465 1546 39.3192
85.8636 1759 41.9404
85.9806 1786 42.2611
86.0976 1904 43.6348
86.2145 1990 44.6094
86.3315 1992 44.6318
86.4484 2115 45.9891
86.5652 2105 45.8803
86.682 2171 46.594
86.7988 2033 45.0888
86.9156 2086 45.6727
87.0323 2149 46.3573
87.149 2075 45.5522
87.2657 2108 45.913
87.3823 2118 46.0217
87.4988 1933 43.9659
87.6154 1886 43.4281
87.7318 1837 42.8602
87.8483 1861 43.1393
87.9647 1856 43.0813
88.081 2024 44.9889
88.1973 2089 45.7056
88.3136 2206 46.9681
88.4298 2106 45.8912
88.546 2232 47.244
88.6621 2270 47.6445
88.7781 2172 46.6047
88.8942 0 1
89.0101 0 1
89.126 0 1
89.2419 0 1
89.3577 0 1
89.4734 0 1
89.5891 0 1
89.7047 0 1
89.8203 0 1
89.9358 0 1
92.3269 0 1
92.4424 0 1
92.558 0 1
92.6736 0 1
92.7893 0 1
92.905 0 1
93.0208 0 1
93.1366 0 1
93.2525 0 1
93.3685 0 1
93.4845 0 1
93.6005 1984 44.5421
93.7167 2068 45.4753
93.8328 2075 45.5522
93.949 2122 46.0652
94.0653 2088 45.6946
94.1816 2097 45.793
94.2979 1894 43.5201
94.4143 1768 42.0476
94.5307 1595 39.9375
94.6472 1566 39.5727
94.7637 1645 40.5586
94.8803 1758 41.9285
94.9969 1837 42.8602
95.1135 1827 42.7434
95.2302 1918 43.795
95.3469 2012 44.8553
95.4637 2032 45.0777
95.5805 1958 44.2493
95.6973 2017 44.911
95.8142 2043 45.1996
95.9311 1996 44.6766
96.048 2043 45.1996
96.1649 2019 44.9333
96.2819 2000 44.7214
96.3989 2020 44.9444
96.516 2019 44.9333
96.633 1764 42
96.7501 1796 42.3792
96.8673 1747 41.7971
96.9844 1772 42.0951
97.1016 1810 42.5441
97.2188 1831 42.7902
97.336 2014 44.8776
97.4532 2013 44.8665
97.5704 1997 44.6878
97.6877 2109 45.9239
97.805 2071 45.5082
97.9223 1944 44.0908
98.0396 1820 42.6615
98.1569 1792 42.332
98.2743 1601 40.0125
98.3916 1560 39.4968
98.509 1542 39.2683
98.6264 1690 41.1096
98.7438 1810 42.5441
98.8612 1846 42.9651
98.9786 1821 42.6732
99.096 1819 42.6497
99.2134 1861 43.1393
99.3308 1955 44.2154
99.4482 1901 43.6005
99.5656 1893 43.5086
99.6831 1894 43.5201
99.8005 1926 43.8862
99.9179 1820 42.6615
100.035 1900 43.589
100.153 1822 42.6849
100.27 1726 41.5452
100.388 1676 40.939
100.505 1654 40.6694
100.622 1727 41.5572
100.74 1789 42.2966
100.857 1900 43.589
100.975 1925 43.8748
101.092 1906 43.6578
101.209 1977 44.4635
101.327 2066 45.4533
101.444 2005 44.7772
101.561 1961 44.2832
101.679 1840 42.8952
101.796 1705 41.2916
101.913 1629 40.3609
102.03 1540 39.2428
102.148 1650 40.6202
102.265 1697 41.1947
102.382 1956 44.2267
102.499 1881 43.3705
102.616 1883 43.3935
102.733 1905 43.6463
102.851 2115 45.9891
102.968 2067 45.4643
103.085 1951 44.1701
103.202 1949 44.1475
103.319 2044 45.2106
103.436 2074 45.5412
103.552 2003 44.7549
103.669 2006 44.7884
103.786 1920 43.8178
103.903 1766 42.0238
104.02 1876 43.3128
104.137 1817 42.6263
104.253 1950 44.1588
104.37 2003 44.7549
104.487 2081 45.618
104.603 2152 46.3897
104.72 2174 46.6262
104.836 2240 47.3286
104.953 2121 46.0543
105.069 2130 46.1519
105.186 1997 44.6878
105.302 1786 42.2611
105.418 1680 40.9878
105.535 1708 41.328
105.651 1699 41.2189
105.767 1913 43.7379
105.883 1935 43.9886
105.999 1947 44.1248
106.115 0 1
106.231 0 1
106.347 0 1
106.463 0 1
106.579 0 1
106.694 0 1
106.81 0 1
106.926 0 1
107.041 0 1
107.157 0 1
109.576 0 1
109.692 0 1
109.807 0 1
109.923 0 1
110.039 0 1
110.155 0 1
110.27 0 1
110.386 0 1
110.502 0 1
110.618 1438 37.921
110.735 1571 39.6358
110.851 1676 40.939
110.967 1707 41.3159
111.083 1761 41.9643
111.199 1748 41.8091
111.316 1744 41.7612
111.432 1849 43
111.549 1859 43.1161
111.665 1808 42.5206
111.782 1832 42.8019
111.898 1789 42.2966
112.015 1696 41.1825
112.132 1732 41.6173
112.248 1718 41.4488
112.365 1551 39.3827
112.482 1600 40
112.599 1436 37.8946
112.716 1551 39.3827
112.832 1610 40.1248
112.949 1582 39.7744
113.066 1630 40.3733
113.183 1724 41.5211
113.3 1702 41.2553
113.417 1696 41.1825
113.534 1719 41.4608
113.652 1638 40.4722
113.769 1555 39.4335
113.886 1407 37.51
114.003 1306 36.1386
114.12 1310 36.1939
114.238 1348 36.7151
114.355 1416 37.6298
114.472 1536 39.1918
114.589 1423 37.7227
114.707 1447 38.0395
114.824 1494 38.6523
114.942 1526 39.064
115.059 1481 38.4838
115.176 1505 38.7943
115.294 1435 37.8814
115.411 1404 37.47
115.529 1392 37.3095
115.646 1388 37.2559
115.764 1385 37.2156
115.881 1285 35.8469
115.999 1249 35.3412
116.116 1249 35.3412
116.234 1256 35.4401
116.351 1202 34.6699
116.469 1245 35.2846
116.586 1315 36.2629
116.704 1329 36.4555
116.821 1291 35.9305
116.939 1361 36.8917
117.056 1345 36.6742
117.174 1341 36.6197
117.291 1301 36.0694
117.409 1170 34.2053
117.526 1101 33.1813
117.644 1076 32.8024
117.761 1099 33.1512
117.879 1168 34.176
117.996 1212 34.8138
118.114 1279 35.7631
118.231 1259 35.4824
118.349 1237 35.171
118.466 1354 36.7967
118.584 1298 36.0278
118.701 1299 36.0416
118.819 1292 35.9444
118.936 1288 35.8887
119.053 1325 36.4005
119.171 1249 35.3412
119.288 1254 35.4119
119.405 1222 34.9571
119.523 1203 34.6843
119.64 1238 35.1852
119.757 1108 33.2866
119.875 1175 34.2783
119.992 1252 35.3836
120.109 1305 36.1248
120.226 1396 37.3631
120.343 1313 36.2353
120.46 1359 36.8646
120.578 1388 37.2559
120.695 1445 38.0132
120.812 1458 38.1838
120.929 1443 37.9868
121.046 1377 37.108
121.163 1313 36.2353
121.279 1282 35.805
121.396 1194 34.5543
121.513 1296 36
121.63 1346 36.6879
121.747 1441 37.9605
121.863 1397 37.3765
121.98 1495 38.6652
122.097 1528 39.0896
122.213 1535 39.1791
122.33 1463 38.2492
122.446 1464 38.2623
122.563 1492 38.6264
122.679 1488 38.5746
122.795 1611 40.1373
122.912 1540 39.2428
123.028 1517 38.9487
123.144 1468 38.3145
123.26 1385 37.2156
123.377 0 1
123.493 0 1
123.609 0 1
123.725 0 1
123.84 0 1
123.956 0 1
124.072 0 1
124.188 0 1
124.303 0 1
124.419 0 1
126.852 0 1
126.968 0 1
127.083 0 1
127.199 0 1
127.315 0 1
127.431 0 1
127.547 0 1
127.663 0 1
127.779 0 1
127.895 0 1
128.011 0 1
128.127 0 1
128.243 0 1
128.359 1773 42.107
128.476 1619 40.2368
128.592 1687 41.0731
128.708 1623 40.2865
128.825 1545 39.3065
128.941 1594 39.9249
129.058 1648 40.5956
129.174 1695 41.1704
129.291 1771 42.0833
129.408 1787 42.2729
129.524 1787 42.2729
129.641 1798 42.4028
129.758 1791 42.3202
129.875 1739 41.7013
129.992 1781 42.2019
130.108 1667 40.8289
130.225 1645 40.5586
130.342 1518 38.9615
130.459 1481 38.4838
130.576 1485 38.5357
130.693 1674 40.9145
130.81 1693 41.1461
130.928 1692 41.1339
131.045 1725 41.5331
131.162 1710 41.3521
131.279 1770 42.0714
131.396 1626 40.3237
131.513 1708 41.328
131.631 1658 40.7185
131.748 1682 41.0122
131.865 1656 40.694
131.983 1590 39.8748
132.1 1612 40.1497
132.217 1522 39.0128
132.335 1444 38
132.452 1414 37.6032
132.57 1491 38.6135
132.687 1474 38.3927
132.804 1670 40.8656
132.922 1647 40.5832
133.039 1684 41.0366
133.157 1725 41.5331
133.274 1822 42.6849
133.392 1767 42.0357
133.509 1806 42.4971
133.627 1620 40.2492
133.744 1521 39
133.862 1589 39.8623
133.979 1385 37.2156
134.097 1521 39
134.214 1615 40.1871
134.332 1662 40.7676
134.449 1673 40.9023
134.567 1712 41.3763
134.684 1661 40.7554
134.802 1743 41.7493
134.919 1635 40.4351
135.037 1691 41.1218
135.154 1566 39.5727
135.272 1565 39.5601
135.389 1557 39.4588
135.507 1572 39.6485
135.624 1462 38.2361
135.742 1463 38.2492
135.859 1362 36.9053
135.977 1367 36.973
136.094 1379 37.1349
136.211 1394 37.3363
136.329 1441 37.9605
136.446 1388 37.2559
136.564 1466 38.2884
136.681 1559 39.4842
136.798 1504 38.7814
136.915 1536 39.1918
137.033 1501 38.7427
137.15 1457 38.1707
137.267 1451 38.092
137.384 1322 36.3593
137.502 1223 34.9714
137.619 1251 35.3695
137.736 1380 37.1484
137.853 1386 37.229
137.97 1398 37.3898
138.087 1516 38.9358
138.204 1563 39.5348
138.321 1549 39.3573
138.438 1536 39.1918
138.555 1566 39.5727
138.672 1697 41.1947
138.788 1611 40.1373
138.905 1639 40.4846
139.022 1619 40.2368
139.139 1554 39.4208
139.255 1658 40.7185
139.372 1564 39.5474
139.488 1515 38.923
139.605 1485 38.5357
139.721 1522 39.0128
139.838 1599 39.9875
139.954 1582 39.7744
140.071 1646 40.5709
140.187 1858 43.1045
140.303 1783 42.2256
140.419 1857 43.0929
140.535 1849 43
140.652 1805 42.4853
140.768 0 1
140.884 0 1
141 0 1
141.115 0 1
141.231 0 1
141.347 0 1
141.463 0 1
141.578 0 1
141.694 0 1
144.104 0 1
144.219 0 1
144.335 0 1
144.45 0 1
144.566 0 1
144.682 0 1
144.798 0 1
144.914 0 1
145.03 0 1
145.146 2157 46.4435
145.262 2188 46.7761
145.378 2467 49.6689
145.494 2612 51.1077
145.61 2756 52.4976
145.726 2871 53.5817
145.842 2976 54.5527
145.959 2876 53.6284
146.075 2980 54.5894
146.192 2921 54.0463
146.308 3037 55.109
146.425 3354 57.9137
146.541 3551 59.5903
146.658 3931 62.6977
146.774 4169 64.5678
146.891 4471 66.8655
147.008 4895 69.9643
147.125 5325 72.9726
147.241 5509 74.2226
147.358 5857 76.531
147.475 6039 77.711
147.592 6272 79.196
147.709 6359 79.7433
147.826 6556 80.9691
147.943 6428 80.1748
148.06 6467 80.4177
148.177 6502 80.635
148.294 6370 79.8123
148.411 6626 81.4002
148.528 6700 81.8535
148.645 7240 85.0882
148.762 7393 85.9826
148.88 7595 87.1493
148.997 8285 91.022
149.114 7418 86.1278
149.231 7854 88.6228
149.349 7769 88.1419
149.466 7874 88.7356
149.583 7268 85.2526
149.701 6907 83.1084
149.818 6530 80.8084
149.935 6307 79.4166
150.053 6347 79.6681
150.17 6693 81.8108
150.287 6888 82.994
150.405 7158 84.605
150.522 7520 86.7179
150.64 7489 86.539
150.757 7676 87.6128
150.875 7674 87.6014
150.992 7530 86.7756
151.11 7658 87.51
151.227 7698 87.7382
151.344 7408 86.0697
151.462 7297 85.4225
151.579 7284 85.3464
151.697 7119 84.3742
151.814 7012 83.7377
151.932 6980 83.5464
152.049 7082 84.1546
152.167 7359 85.7846
152.284 7802 88.3289
152.402 8034 89.6326
152.519 8203 90.5704
152.636 8284 91.0165
152.754 8529 92.3526
152.871 8390 91.5969
152.989 8578 92.6175
153.106 8331 91.2743
153.223 7739 87.9716
153.341 7283 85.3405
153.458 6976 83.5225
153.575 6988 83.5943
153.693 7133 84.4571
153.81 7600 87.178
153.927 7856 88.6341
154.044 7942 89.1179
154.162 8330 91.2688
154.279 8624 92.8655
154.396 8853 94.0904
154.513 9209 95.9635
154.63 9194 95.8853
154.747 9257 96.2133
154.864 9008 94.9105
154.981 9010 94.921
155.098 9048 95.121
155.215 8860 94.1276
155.332 8777 93.6856
155.449 8628 92.887
155.566 8546 92.4446
155.683 8791 93.7603
155.8 9053 95.1473
155.917 9394 96.9226
156.033 9597 97.9643
156.15 0 1
156.267 0 1
156.383 0 1
156.5 0 1
156.617 0 1
156.733 0 1
156.85 0 1
156.966 0 1
157.082 0 1
157.199 0 1
157.315 0 1
157.431 0 1
157.547 0 1
157.664 0 1
157.78 0 1
157.896 0 1
158.012 0 1
158.128 0 1
158.244 0 1
158.359 0 1
158.475 0 1
158.591 0 1
158.706 0 1
