
6.15755 0 1
6.2731 0 1
6.3887 0 1
6.50437 0 1
6.62009 0 1
6.73587 0 1
6.8517 0 1
6.96759 0 1
7.08353 0 1
7.19952 0 1
7.31557 0 1
7.43166 0 1
7.54781 0 1
7.664 0 1
7.78024 0 1
7.89653 0 1
8.01286 0 1
8.12924 0 1
8.24567 0 1
8.36213 0 1
8.47864 0 1
8.59519 0 1
8.71178 0 1
8.82841 0 1
8.94508 0 1
9.06179 0 1
9.17853 0 1
9.29531 0 1
9.41212 0 1
9.52897 0 1
9.64584 0 1
9.76276 0 1
9.8797 0 1
9.99667 0 1
10.1137 0 1
10.2307 0 1
10.3478 0 1
10.4648 0 1
10.5819 0 1
10.6991 0 1
10.8162 0 1
10.9334 0 1
11.0506 0 1
11.1678 0 1
11.285 0 1
11.4023 0 1
11.5196 0 1
11.6369 0 1
11.7542 0 1
11.8715 0 1
11.9888 0 1
12.1062 0 1
12.2235 0 1
12.3409 0 1
12.4582 0 1
12.5756 0 1
12.693 0 1
12.8104 0 1
12.9278 0 1
13.0452 0 1
13.1626 0 1
13.28 0 1
13.3974 0 1
13.5149 0 1
13.6323 0 1
13.7497 0 1
13.8671 0 1
13.9845 0 1
14.1019 0 1
14.2193 0 1
14.3367 0 1
14.4541 0 1
14.5714 0 1
14.6888 0 1
14.8062 0 1
14.9235 0 1
15.0408 243 15.5885
15.1581 275 16.5831
15.2755 306 17.4929
15.3927 265 16.2788
15.51 319 17.8606
15.6273 288 16.9706
15.7445 333 18.2483
15.8617 311 17.6352
15.9789 299 17.2916
16.0961 288 16.9706
16.2132 266 16.3095
16.3304 274 16.5529
16.4475 285 16.8819
16.5646 300 17.3205
16.6816 337 18.3576
16.7986 350 18.7083
16.9156 365 19.105
17.0326 335 18.303
17.1496 306 17.4929
17.2665 328 18.1108
17.3833 339 18.412
17.5002 299 17.2916
17.617 301 17.3494
17.7338 277 16.6433
17.8505 283 16.8226
17.9672 303 17.4069
18.0839 292 17.088
18.2005 299 17.2916
18.3171 297 17.2337
18.4337 304 17.4356
18.5502 327 18.0831
18.6666 300 17.3205
18.7831 331 18.1934
18.8994 330 18.1659
19.0158 313 17.6918
19.1321 324 18
19.2483 287 16.9411
19.3645 270 16.4317
19.4806 255 15.9687
19.5967 249 15.7797
19.7128 197 14.0357
19.8288 199 14.1067
19.9447 176 13.2665
20.0606 0 1
20.1764 0 1
20.2922 0 1
20.4079 0 1
20.5236 0 1
20.6392 0 1
20.7548 0 1
20.8702 0 1
23.3078 0 1
23.4233 0 1
23.539 0 1
23.6547 0 1
23.7704 0 1
23.8862 0 1
24.0021 0 1
24.118 0 1
24.234 0 1
24.35 0 1
24.4661 137 11.7047
24.5822 142 11.9164
24.6984 145 12.0416
24.8146 165 12.8452
24.9309 159 12.6095
25.0472 195 13.9642
25.1636 233 15.2643
25.28 230 15.1658
25.3965 226 15.0333
25.513 305 17.4642
25.6296 315 17.7482
25.7462 259 16.0935
25.8628 317 17.8045
25.9795 290 17.0294
26.0962 291 17.0587
26.213 276 16.6132
26.3298 283 16.8226
26.4466 260 16.1245
26.5635 250 15.8114
26.6804 248 15.748
26.7973 251 15.843
26.9143 263 16.2173
27.0313 255 15.9687
27.1483 293 17.1172
27.2653 253 15.906
27.3824 303 17.4069
27.4996 265 16.2788
27.6167 287 16.9411
27.7339 274 16.5529
27.8511 280 16.7332
27.9683 269 16.4012
28.0855 265 16.2788
28.2028 246 15.6844
28.3201 230 15.1658
28.4374 239 15.4596
28.5547 253 15.906
28.6721 222 14.8997
28.7894 239 15.4596
28.9068 227 15.0665
29.0242 298 17.2627
29.1416 281 16.7631
29.259 271 16.4621
29.3764 248 15.748
29.4939 299 17.2916
29.6113 258 16.0624
29.7288 258 16.0624
29.8463 260 16.1245
29.9638 241 15.5242
30.0812 238 15.4272
30.1987 254 15.9374
30.3162 264 16.2481
30.4337 245 15.6525
30.5512 257 16.0312
30.6687 250 15.8114
30.7862 237 15.3948
30.9037 271 16.4621
31.0212 254 15.9374
31.1387 250 15.8114
31.2562 267 16.3401
31.3737 216 14.6969
31.4912 248 15.748
31.6087 249 15.7797
31.7262 264 16.2481
31.8436 205 14.3178
31.9611 192 13.8564
32.0785 218 14.7648
32.1959 237 15.3948
32.3134 222 14.8997
32.4308 208 14.4222
32.5482 271 16.4621
32.6655 254 15.9374
32.7829 278 16.6733
32.9002 264 16.2481
33.0176 245 15.6525
33.1349 247 15.7162
33.2522 264 16.2481
33.3694 226 15.0333
33.4867 260 16.1245
33.6039 220 14.8324
33.7211 224 14.9666
33.8383 233 15.2643
33.9554 222 14.8997
34.0725 238 15.4272
34.1896 227 15.0665
34.3067 273 16.5227
34.4237 243 15.5885
34.5407 250 15.8114
34.6577 261 16.1555
34.7746 288 16.9706
34.8915 258 16.0624
35.0084 244 15.6205
35.1252 223 14.9332
35.242 224 14.9666
35.3587 218 14.7648
35.4755 210 14.4914
35.5921 224 14.9666
35.7088 191 13.8203
35.8254 170 13.0384
35.9419 223 14.9332
36.0584 220 14.8324
36.1749 235 15.3297
36.2913 217 14.7309
36.4077 224 14.9666
36.524 218 14.7648
36.6403 235 15.3297
36.7565 191 13.8203
36.8727 204 14.2829
36.9889 185 13.6015
37.1049 154 12.4097
37.221 0 1
37.3369 0 1
37.4529 0 1
37.5687 0 1
37.6845 0 1
37.8003 0 1
37.916 0 1
38.0316 0 1
38.1472 0 1
40.5851 0 1
40.7008 0 1
40.8164 0 1
40.9322 0 1
41.048 0 1
41.1639 0 1
41.2798 0 1
41.3958 0 1
41.5118 0 1
41.6279 0 1
41.744 125 11.1803
41.8602 112 10.583
41.9765 130 11.4018
42.0928 164 12.8062
42.2091 137 11.7047
42.3255 155 12.4499
42.4419 156 12.49
42.5584 174 13.1909
42.675 147 12.1244
42.7915 180 13.4164
42.9081 213 14.5945
43.0248 183 13.5277
43.1415 206 14.3527
43.2582 219 14.7986
43.375 213 14.5945
43.4918 214 14.6287
43.6087 234 15.2971
43.7256 213 14.5945
43.8425 197 14.0357
43.9595 206 14.3527
44.0765 188 13.7113
44.1935 196 14
44.3106 175 13.2288
44.4277 170 13.0384
44.5448 165 12.8452
44.6619 169 13
44.7791 177 13.3041
44.8963 179 13.3791
45.0136 186 13.6382
45.1308 205 14.3178
45.2481 226 15.0333
45.3654 204 14.2829
45.4827 213 14.5945
45.6001 228 15.0997
45.7174 197 14.0357
45.8348 190 13.784
45.9522 185 13.6015
46.0697 180 13.4164
46.1871 191 13.8203
46.3046 190 13.784
46.422 194 13.9284
46.5395 172 13.1149
46.657 214 14.6287
46.7745 232 15.2315
46.892 226 15.0333
47.0096 215 14.6629
47.1271 228 15.0997
47.2446 224 14.9666
47.3622 212 14.5602
47.4797 218 14.7648
47.5973 223 14.9332
47.7149 204 14.2829
47.8324 207 14.3875
47.95 195 13.9642
48.0675 170 13.0384
48.1851 145 12.0416
48.3027 176 13.2665
48.4202 193 13.8924
48.5378 176 13.2665
48.6554 199 14.1067
48.7729 236 15.3623
48.8904 211 14.5258
49.008 201 14.1774
49.1255 222 14.8997
49.243 231 15.1987
49.3605 194 13.9284
49.478 190 13.784
49.5955 158 12.5698
49.713 195 13.9642
49.8304 201 14.1774
49.9479 191 13.8203
50.0653 177 13.3041
50.1827 221 14.8661
50.3001 193 13.8924
50.4175 202 14.2127
50.5348 223 14.9332
50.6521 199 14.1067
50.7694 234 15.2971
50.8867 215 14.6629
51.004 208 14.4222
51.1212 222 14.8997
51.2384 201 14.1774
51.3556 193 13.8924
51.4727 204 14.2829
51.5899 170 13.0384
51.707 175 13.2288
51.824 165 12.8452
51.9411 187 13.6748
52.0581 210 14.4914
52.175 223 14.9332
52.2919 230 15.1658
52.4088 234 15.2971
52.5257 211 14.5258
52.6425 219 14.7986
52.7593 230 15.1658
52.876 235 15.3297
52.9927 182 13.4907
53.1094 205 14.3178
53.226 178 13.3417
53.3426 180 13.4164
53.4591 190 13.784
53.5756 176 13.2665
53.692 189 13.7477
53.8084 173 13.1529
53.9248 191 13.8203
54.0411 167 12.9228
54.1573 174 13.1909
54.2735 0 1
54.3896 0 1
54.5057 0 1
54.6217 0 1
54.7377 0 1
54.8537 0 1
54.9695 0 1
55.0853 0 1
55.2011 0 1
55.3168 0 1
55.4324 0 1
57.824 0 1
57.9396 0 1
58.0553 0 1
58.1711 0 1
58.2869 0 1
58.4028 0 1
58.5187 0 1
58.6347 0 1
58.7508 0 1
58.8669 0 1
58.983 157 12.53
59.0992 182 13.4907
59.2155 179 13.3791
59.3318 233 15.2643
59.4482 231 15.1987
59.5646 231 15.1987
59.681 253 15.906
59.7975 265 16.2788
59.9141 282 16.7929
60.0306 269 16.4012
60.1473 254 15.9374
60.2639 244 15.6205
60.3807 230 15.1658
60.4974 224 14.9666
60.6142 245 15.6525
60.731 223 14.9332
60.8479 265 16.2788
60.9648 264 16.2481
61.0818 306 17.4929
61.1987 280 16.7332
61.3158 274 16.5529
61.4328 293 17.1172
61.5499 266 16.3095
61.667 253 15.906
61.7841 231 15.1987
61.9013 256 16
62.0185 214 14.6287
62.1357 203 14.2478
62.253 280 16.7332
62.3702 234 15.2971
62.4875 276 16.6132
62.6049 288 16.9706
62.7222 300 17.3205
62.8396 285 16.8819
62.9569 304 17.4356
63.0743 294 17.1464
63.1918 266 16.3095
63.3092 271 16.4621
63.4267 278 16.6733
63.5441 261 16.1555
63.6616 276 16.6132
63.7791 268 16.3707
63.8966 244 15.6205
64.0142 249 15.7797
64.1317 237 15.3948
64.2492 243 15.5885
64.3668 241 15.5242
64.4843 284 16.8523
64.6019 284 16.8523
64.7195 269 16.4012
64.837 288 16.9706
64.9546 285 16.8819
65.0722 289 17
65.1898 286 16.9115
65.3074 263 16.2173
65.4249 243 15.5885
65.5425 234 15.2971
65.6601 217 14.7309
65.7777 234 15.2971
65.8952 282 16.7929
66.0128 301 17.3494
66.1304 274 16.5529
66.2479 281 16.7631
66.3655 315 17.7482
66.483 282 16.7929
66.6005 287 16.9411
66.718 283 16.8226
66.8355 330 18.1659
66.953 312 17.6635
67.0705 291 17.0587
67.1879 259 16.0935
67.3054 280 16.7332
67.4228 254 15.9374
67.5402 254 15.9374
67.6576 240 15.4919
67.7749 221 14.8661
67.8923 236 15.3623
68.0096 249 15.7797
68.1269 275 16.5831
68.2442 288 16.9706
68.3614 319 17.8606
68.4787 351 18.735
68.5958 294 17.1464
68.713 301 17.3494
68.8302 305 17.4642
68.9473 281 16.7631
69.0643 265 16.2788
69.1814 248 15.748
69.2984 249 15.7797
69.4154 253 15.906
69.5323 252 15.8745
69.6492 301 17.3494
69.7661 280 16.7332
69.8829 302 17.3781
69.9997 327 18.0831
70.1165 277 16.6433
70.2332 260 16.1245
70.3499 256 16
70.4665 245 15.6525
70.5831 231 15.1987
70.6996 257 16.0312
70.8161 232 15.2315
70.9326 198 14.0712
71.049 187 13.6748
71.1653 167 12.9228
71.2817 125 11.1803
71.3979 125 11.1803
71.5141 126 11.225
71.6303 120 10.9545
71.7464 101 10.0499
71.8624 0 1
71.9784 0 1
72.0944 0 1
72.2102 0 1
72.3261 0 1
72.4418 0 1
72.5575 0 1
72.6732 0 1
75.1054 0 1
75.2209 0 1
75.3365 0 1
75.4521 0 1
75.5678 0 1
75.6835 0 1
75.7993 0 1
75.9151 0 1
76.031 0 1
76.147 242 15.5563
76.263 277 16.6433
76.3791 242 15.5563
76.4952 312 17.6635
76.6113 334 18.2757
76.7276 357 18.8944
76.8438 435 20.8567
76.9601 491 22.1585
77.0765 540 23.2379
77.1929 628 25.0599
77.3093 680 26.0768
77.4258 741 27.2213
77.5423 819 28.6182
77.6589 798 28.2489
77.7755 882 29.6985
77.8921 871 29.5127
78.0088 778 27.8927
78.1256 711 26.6646
78.2423 663 25.7488
78.3591 644 25.3772
78.4759 658 25.6515
78.5928 776 27.8568
78.7097 817 28.5832
78.8266 792 28.1425
78.9436 807 28.4077
79.0606 714 26.7208
79.1776 742 27.2397
79.2946 862 29.3598
79.4117 764 27.6405
79.5288 753 27.4408
79.6459 748 27.3496
79.7631 673 25.9422
79.8802 634 25.1794
79.9974 641 25.318
80.1147 521 22.8254
80.2319 506 22.4944
80.3491 459 21.4243
80.4664 457 21.3776
80.5837 392 19.799
80.701 349 18.6815
80.8183 381 19.5192
80.9357 419 20.4695
81.053 385 19.6214
81.1704 380 19.4936
81.2877 339 18.412
81.4051 331 18.1934
81.5225 302 17.3781
81.6399 294 17.1464
81.7573 257 16.0312
81.8747 265 16.2788
81.9922 211 14.5258
82.1096 223 14.9332
82.227 236 15.3623
82.3444 260 16.1245
82.4619 291 17.0587
82.5793 294 17.1464
82.6967 316 17.7764
82.8142 290 17.0294
82.9316 333 18.2483
83.049 302 17.3781
83.1664 311 17.6352
83.2838 274 16.5529
83.4012 273 16.5227
83.5186 299 17.2916
83.636 332 18.2209
83.7534 282 16.7929
83.8708 232 15.2315
83.9881 240 15.4919
84.1055 209 14.4568
84.2228 243 15.5885
84.3401 259 16.0935
84.4575 243 15.5885
84.5747 278 16.6733
84.692 312 17.6635
84.8093 278 16.6733
84.9265 274 16.5529
85.0437 276 16.6132
85.1609 255 15.9687
85.2781 295 17.1756
85.3952 234 15.2971
85.5123 245 15.6525
85.6294 201 14.1774
85.7465 240 15.4919
85.8636 240 15.4919
85.9806 243 15.5885
86.0976 310 17.6068
86.2145 298 17.2627
86.3315 309 17.5784
86.4484 277 16.6433
86.5652 314 17.72
86.682 311 17.6352
86.7988 297 17.2337
86.9156 338 18.3848
87.0323 291 17.0587
87.149 296 17.2047
87.2657 235 15.3297
87.3823 253 15.906
87.4988 196 14
87.6154 167 12.9228
87.7318 179 13.3791
87.8483 194 13.9284
87.9647 234 15.2971
88.081 220 14.8324
88.1973 248 15.748
88.3136 223 14.9332
88.4298 210 14.4914
88.546 183 13.5277
88.6621 198 14.0712
88.7781 163 12.7671
88.8942 0 1
89.0101 0 1
89.126 0 1
89.2419 0 1
89.3577 0 1
89.4734 0 1
89.5891 0 1
89.7047 0 1
89.8203 0 1
89.9358 0 1
92.3269 0 1
92.4424 0 1
92.558 0 1
92.6736 0 1
92.7893 0 1
92.905 0 1
93.0208 0 1
93.1366 0 1
93.2525 0 1
93.3685 0 1
93.4845 0 1
93.6005 414 20.347
93.7167 432 20.7846
93.8328 472 21.7256
93.949 440 20.9762
94.0653 479 21.8861
94.1816 503 22.4277
94.2979 498 22.3159
94.4143 511 22.6053
94.5307 496 22.2711
94.6472 519 22.7816
94.7637 450 21.2132
94.8803 384 19.5959
94.9969 486 22.0454
95.1135 456 21.3542
95.2302 501 22.383
95.3469 454 21.3073
95.4637 455 21.3307
95.5805 422 20.5426
95.6973 404 20.0998
95.8142 377 19.4165
95.9311 380 19.4936
96.048 375 19.3649
96.1649 358 18.9209
96.2819 335 18.303
96.3989 321 17.9165
96.516 311 17.6352
96.633 284 16.8523
96.7501 235 15.3297
96.8673 239 15.4596
96.9844 233 15.2643
97.1016 236 15.3623
97.2188 281 16.7631
97.336 261 16.1555
97.4532 289 17
97.5704 296 17.2047
97.6877 308 17.5499
97.805 315 17.7482
97.9223 297 17.2337
98.0396 275 16.5831
98.1569 265 16.2788
98.2743 240 15.4919
98.3916 250 15.8114
98.509 224 14.9666
98.6264 257 16.0312
98.7438 257 16.0312
98.8612 309 17.5784
98.9786 273 16.5227
99.096 314 17.72
99.2134 317 17.8045
99.3308 330 18.1659
99.4482 286 16.9115
99.5656 263 16.2173
99.6831 317 17.8045
99.8005 350 18.7083
99.9179 282 16.7929
100.035 270 16.4317
100.153 297 17.2337
100.27 232 15.2315
100.388 258 16.0624
100.505 252 15.8745
100.622 209 14.4568
100.74 221 14.8661
100.857 249 15.7797
100.975 277 16.6433
101.092 287 16.9411
101.209 313 17.6918
101.327 281 16.7631
101.444 326 18.0555
101.561 303 17.4069
101.679 270 16.4317
101.796 239 15.4596
101.913 246 15.6844
102.03 221 14.8661
102.148 244 15.6205
102.265 278 16.6733
102.382 300 17.3205
102.499 294 17.1464
102.616 285 16.8819
102.733 306 17.4929
102.851 330 18.1659
102.968 335 18.303
103.085 321 17.9165
103.202 325 18.0278
103.319 295 17.1756
103.436 292 17.088
103.552 271 16.4621
103.669 271 16.4621
103.786 281 16.7631
103.903 252 15.8745
104.02 222 14.8997
104.137 247 15.7162
104.253 237 15.3948
104.37 280 16.7332
104.487 234 15.2971
104.603 302 17.3781
104.72 332 18.2209
104.836 283 16.8226
104.953 248 15.748
105.069 237 15.3948
105.186 231 15.1987
105.302 215 14.6629
105.418 209 14.4568
105.535 197 14.0357
105.651 186 13.6382
105.767 178 13.3417
105.883 191 13.8203
105.999 149 12.2066
106.115 0 1
106.231 0 1
106.347 0 1
106.463 0 1
106.579 0 1
106.694 0 1
106.81 0 1
106.926 0 1
107.041 0 1
107.157 0 1
109.576 0 1
109.692 0 1
109.807 0 1
109.923 0 1
110.039 0 1
110.155 0 1
110.27 0 1
110.386 0 1
110.502 0 1
110.618 100 10
110.735 125 11.1803
110.851 152 12.3288
110.967 143 11.9583
111.083 190 13.784
111.199 187 13.6748
111.316 213 14.5945
111.432 243 15.5885
111.549 233 15.2643
111.665 261 16.1555
111.782 254 15.9374
111.898 232 15.2315
112.015 275 16.5831
112.132 224 14.9666
112.248 231 15.1987
112.365 237 15.3948
112.482 197 14.0357
112.599 203 14.2478
112.716 211 14.5258
112.832 206 14.3527
112.949 202 14.2127
113.066 272 16.4924
113.183 273 16.5227
113.3 254 15.9374
113.417 253 15.906
113.534 272 16.4924
113.652 237 15.3948
113.769 191 13.8203
113.886 199 14.1067
114.003 188 13.7113
114.12 179 13.3791
114.238 201 14.1774
114.355 212 14.5602
114.472 194 13.9284
114.589 262 16.1864
114.707 244 15.6205
114.824 248 15.748
114.942 273 16.5227
115.059 272 16.4924
115.176 262 16.1864
115.294 249 15.7797
115.411 264 16.2481
115.529 230 15.1658
115.646 227 15.0665
115.764 217 14.7309
115.881 219 14.7986
115.999 211 14.5258
116.116 180 13.4164
116.234 190 13.784
116.351 221 14.8661
116.469 240 15.4919
116.586 224 14.9666
116.704 249 15.7797
116.821 239 15.4596
116.939 260 16.1245
117.056 230 15.1658
117.174 246 15.6844
117.291 241 15.5242
117.409 215 14.6629
117.526 199 14.1067
117.644 196 14
117.761 196 14
117.879 223 14.9332
117.996 239 15.4596
118.114 247 15.7162
118.231 283 16.8226
118.349 222 14.8997
118.466 264 16.2481
118.584 241 15.5242
118.701 237 15.3948
118.819 276 16.6132
118.936 259 16.0935
119.053 235 15.3297
119.171 226 15.0333
119.288 226 15.0333
119.405 204 14.2829
119.523 194 13.9284
119.64 190 13.784
119.757 179 13.3791
119.875 161 12.6886
119.992 201 14.1774
120.109 220 14.8324
120.226 199 14.1067
120.343 233 15.2643
120.46 232 15.2315
120.578 250 15.8114
120.695 229 15.1327
120.812 227 15.0665
120.929 187 13.6748
121.046 192 13.8564
121.163 184 13.5647
121.279 164 12.8062
121.396 168 12.9615
121.513 156 12.49
121.63 177 13.3041
121.747 225 15
121.863 212 14.5602
121.98 187 13.6748
122.097 194 13.9284
122.213 230 15.1658
122.33 188 13.7113
122.446 185 13.6015
122.563 148 12.1655
122.679 155 12.4499
122.795 124 11.1355
122.912 125 11.1803
123.028 128 11.3137
123.144 104 10.198
123.26 91 9.53939
123.377 0 1
123.493 0 1
123.609 0 1
123.725 0 1
123.84 0 1
123.956 0 1
124.072 0 1
124.188 0 1
124.303 0 1
124.419 0 1
126.852 0 1
126.968 0 1
127.083 0 1
127.199 0 1
127.315 0 1
127.431 0 1
127.547 0 1
127.663 0 1
127.779 0 1
127.895 0 1
128.011 0 1
128.127 0 1
128.243 0 1
128.359 220 14.8324
128.476 229 15.1327
128.592 204 14.2829
128.708 206 14.3527
128.825 179 13.3791
128.941 192 13.8564
129.058 197 14.0357
129.174 204 14.2829
129.291 245 15.6525
129.408 254 15.9374
129.524 247 15.7162
129.641 254 15.9374
129.758 260 16.1245
129.875 254 15.9374
129.992 211 14.5258
130.108 230 15.1658
130.225 207 14.3875
130.342 207 14.3875
130.459 192 13.8564
130.576 206 14.3527
130.693 218 14.7648
130.81 225 15
130.928 254 15.9374
131.045 240 15.4919
131.162 252 15.8745
131.279 239 15.4596
131.396 293 17.1172
131.513 277 16.6433
131.631 238 15.4272
131.748 279 16.7033
131.865 237 15.3948
131.983 229 15.1327
132.1 230 15.1658
132.217 208 14.4222
132.335 195 13.9642
132.452 220 14.8324
132.57 203 14.2478
132.687 202 14.2127
132.804 227 15.0665
132.922 234 15.2971
133.039 254 15.9374
133.157 228 15.0997
133.274 270 16.4317
133.392 244 15.6205
133.509 229 15.1327
133.627 257 16.0312
133.744 218 14.7648
133.862 189 13.7477
133.979 204 14.2829
134.097 189 13.7477
134.214 194 13.9284
134.332 234 15.2971
134.449 233 15.2643
134.567 249 15.7797
134.684 230 15.1658
134.802 231 15.1987
134.919 245 15.6525
135.037 237 15.3948
135.154 215 14.6629
135.272 233 15.2643
135.389 235 15.3297
135.507 232 15.2315
135.624 207 14.3875
135.742 203 14.2478
135.859 212 14.5602
135.977 233 15.2643
136.094 196 14
136.211 195 13.9642
136.329 221 14.8661
136.446 228 15.0997
136.564 252 15.8745
136.681 263 16.2173
136.798 262 16.1864
136.915 235 15.3297
137.033 234 15.2971
137.15 234 15.2971
137.267 229 15.1327
137.384 212 14.5602
137.502 201 14.1774
137.619 211 14.5258
137.736 212 14.5602
137.853 234 15.2971
137.97 233 15.2643
138.087 247 15.7162
138.204 243 15.5885
138.321 226 15.0333
138.438 220 14.8324
138.555 233 15.2643
138.672 235 15.3297
138.788 235 15.3297
138.905 212 14.5602
139.022 187 13.6748
139.139 185 13.6015
139.255 204 14.2829
139.372 159 12.6095
139.488 155 12.4499
139.605 160 12.6491
139.721 133 11.5326
139.838 129 11.3578
139.954 119 10.9087
140.071 154 12.4097
140.187 123 11.0905
140.303 120 10.9545
140.419 89 9.43398
140.535 112 10.583
140.652 104 10.198
140.768 0 1
140.884 0 1
141 0 1
141.115 0 1
141.231 0 1
141.347 0 1
141.463 0 1
141.578 0 1
141.694 0 1
144.104 0 1
144.219 0 1
144.335 0 1
144.45 0 1
144.566 0 1
144.682 0 1
144.798 0 1
144.914 0 1
145.03 0 1
145.146 147 12.1244
145.262 150 12.2474
145.378 172 13.1149
145.494 196 14
145.61 202 14.2127
145.726 212 14.5602
145.842 200 14.1421
145.959 186 13.6382
146.075 162 12.7279
146.192 154 12.4097
146.308 145 12.0416
146.425 132 11.4891
146.541 153 12.3693
146.658 168 12.9615
146.774 202 14.2127
146.891 167 12.9228
147.008 185 13.6015
147.125 189 13.7477
147.241 176 13.2665
147.358 187 13.6748
147.475 172 13.1149
147.592 161 12.6886
147.709 142 11.9164
147.826 176 13.2665
147.943 165 12.8452
148.06 193 13.8924
148.177 154 12.4097
148.294 136 11.6619
148.411 148 12.1655
148.528 173 13.1529
148.645 174 13.1909
148.762 140 11.8322
148.88 191 13.8203
148.997 173 13.1529
149.114 200 14.1421
149.231 205 14.3178
149.349 175 13.2288
149.466 178 13.3417
149.583 176 13.2665
149.701 157 12.53
149.818 148 12.1655
149.935 163 12.7671
150.053 138 11.7473
150.17 153 12.3693
150.287 159 12.6095
150.405 180 13.4164
150.522 192 13.8564
150.64 174 13.1909
150.757 152 12.3288
150.875 170 13.0384
150.992 187 13.6748
151.11 187 13.6748
151.227 173 13.1529
151.344 176 13.2665
151.462 193 13.8924
151.579 172 13.1149
151.697 172 13.1149
151.814 174 13.1909
151.932 143 11.9583
152.049 155 12.4499
152.167 157 12.53
152.284 142 11.9164
152.402 141 11.8743
152.519 146 12.083
152.636 192 13.8564
152.754 189 13.7477
152.871 175 13.2288
152.989 184 13.5647
153.106 185 13.6015
153.223 163 12.7671
153.341 157 12.53
153.458 165 12.8452
153.575 151 12.2882
153.693 178 13.3417
153.81 133 11.5326
153.927 148 12.1655
154.044 139 11.7898
154.162 158 12.5698
154.279 141 11.8743
154.396 180 13.4164
154.513 204 14.2829
154.63 178 13.3417
154.747 197 14.0357
154.864 173 13.1529
154.981 166 12.8841
155.098 175 13.2288
155.215 152 12.3288
155.332 182 13.4907
155.449 150 12.2474
155.566 146 12.083
155.683 141 11.8743
155.8 170 13.0384
155.917 143 11.9583
156.033 150 12.2474
156.15 0 1
156.267 0 1
156.383 0 1
156.5 0 1
156.617 0 1
156.733 0 1
156.85 0 1
156.966 0 1
157.082 0 1
157.199 0 1
157.315 0 1
157.431 0 1
157.547 0 1
157.664 0 1
157.78 0 1
157.896 0 1
158.012 0 1
158.128 0 1
158.244 0 1
158.359 0 1
158.475 0 1
158.591 0 1
158.706 0 1
