
6.15755 0 1
6.2731 0 1
6.3887 0 1
6.50437 0 1
6.62009 0 1
6.73587 0 1
6.8517 0 1
6.96759 0 1
7.08353 0 1
7.19952 0 1
7.31557 0 1
7.43166 0 1
7.54781 0 1
7.664 0 1
7.78024 0 1
7.89653 0 1
8.01286 0 1
8.12924 0 1
8.24567 0 1
8.36213 0 1
8.47864 0 1
8.59519 0 1
8.71178 0 1
8.82841 0 1
8.94508 0 1
9.06179 0 1
9.17853 0 1
9.29531 0 1
9.41212 0 1
9.52897 0 1
9.64584 0 1
9.76276 0 1
9.8797 0 1
9.99667 0 1
10.1137 0 1
10.2307 0 1
10.3478 0 1
10.4648 0 1
10.5819 0 1
10.6991 0 1
10.8162 0 1
10.9334 0 1
11.0506 0 1
11.1678 0 1
11.285 0 1
11.4023 0 1
11.5196 0 1
11.6369 0 1
11.7542 0 1
11.8715 0 1
11.9888 0 1
12.1062 0 1
12.2235 0 1
12.3409 0 1
12.4582 0 1
12.5756 0 1
12.693 0 1
12.8104 0 1
12.9278 0 1
13.0452 0 1
13.1626 0 1
13.28 0 1
13.3974 0 1
13.5149 0 1
13.6323 0 1
13.7497 0 1
13.8671 0 1
13.9845 0 1
14.1019 0 1
14.2193 0 1
14.3367 0 1
14.4541 0 1
14.5714 0 1
14.6888 0 1
14.8062 0 1
14.9235 0 1
15.0408 0 0
15.1581 0 0
15.2755 0 0
15.3927 0 0
15.51 0 0
15.6273 0 0
15.7445 0 0
15.8617 0 0
15.9789 0 0
16.0961 0 0
16.2132 0 0
16.3304 0 0
16.4475 0 0
16.5646 0 0
16.6816 0 0
16.7986 0 0
16.9156 0 0
17.0326 0 0
17.1496 0 0
17.2665 0 0
17.3833 0 0
17.5002 0 0
17.617 0 0
17.7338 0 0
17.8505 0 0
17.9672 0 0
18.0839 0 0
18.2005 0 0
18.3171 0 0
18.4337 0 0
18.5502 0 0
18.6666 0 0
18.7831 0 0
18.8994 0 0
19.0158 0 0
19.1321 0 0
19.2483 0 0
19.3645 0 0
19.4806 0 0
19.5967 0 0
19.7128 0 0
19.8288 0 0
19.9447 0 0
20.0606 0 1
20.1764 0 1
20.2922 0 1
20.4079 0 1
20.5236 0 1
20.6392 0 1
20.7548 0 1
20.8702 0 1
23.3078 0 1
23.4233 0 1
23.539 0 1
23.6547 0 1
23.7704 0 1
23.8862 0 1
24.0021 0 1
24.118 0 1
24.234 0 1
24.35 0 1
24.4661 10073 100.364
24.5822 10141 100.703
24.6984 9866 99.3277
24.8146 9800 98.9949
24.9309 9704 98.5089
25.0472 9546 97.7036
25.1636 9575 97.8519
25.28 9882 99.4082
25.3965 9865 99.3227
25.513 10034 100.17
25.6296 10389 101.926
25.7462 10687 103.378
25.8628 10595 102.932
25.9795 10489 102.416
26.0962 10593 102.922
26.213 10518 102.557
26.3298 10212 101.054
26.4466 9791 98.9495
26.5635 9709 98.5343
26.6804 9378 96.8401
26.7973 9592 97.9388
26.9143 10017 100.085
27.0313 10181 100.901
27.1483 10563 102.776
27.2653 10653 103.213
27.3824 10730 103.586
27.4996 10774 103.798
27.6167 10742 103.644
27.7339 10492 102.43
27.8511 10482 102.382
27.9683 10487 102.406
28.0855 9955 99.7747
28.2028 9900 99.4987
28.3201 9382 96.8607
28.4374 9426 97.0876
28.5547 8839 94.016
28.6721 8903 94.3557
28.7894 8924 94.4669
28.9068 9041 95.0842
29.0242 9201 95.9218
29.1416 9124 95.5196
29.259 9335 96.6178
29.3764 9148 95.6452
29.4939 9303 96.4521
29.6113 9267 96.2653
29.7288 9175 95.7862
29.8463 8861 94.1329
29.9638 8829 93.9628
30.0812 8616 92.8224
30.1987 8774 93.6696
30.3162 8917 94.4299
30.4337 9241 96.1301
30.5512 9504 97.4885
30.6687 9532 97.632
30.7862 10061 100.305
30.9037 9997 99.985
31.0212 9999 99.995
31.1387 10015 100.075
31.2562 9990 99.95
31.3737 9931 99.6544
31.4912 9813 99.0606
31.6087 9628 98.1224
31.7262 9479 97.3602
31.8436 9295 96.4106
31.9611 8981 94.7681
32.0785 8781 93.707
32.1959 8690 93.2202
32.3134 8728 93.4238
32.4308 8584 92.6499
32.5482 8791 93.7603
32.6655 9035 95.0526
32.7829 8985 94.7892
32.9002 9137 95.5877
33.0176 8893 94.3027
33.1349 8951 94.6097
33.2522 8837 94.0053
33.3694 8937 94.5357
33.4867 8766 93.6269
33.6039 8681 93.1719
33.7211 8545 92.4392
33.8383 8602 92.747
33.9554 8918 94.4352
34.0725 9157 95.6922
34.1896 9231 96.0781
34.3067 9443 97.1751
34.4237 9659 98.2802
34.5407 9891 99.4535
34.6577 10137 100.683
34.7746 9991 99.955
34.8915 9919 99.5942
35.0084 9663 98.3006
35.1252 9835 99.1716
35.242 9436 97.1391
35.3587 9537 97.6576
35.4755 9131 95.5563
35.5921 8927 94.4828
35.7088 8683 93.1826
35.8254 8354 91.4002
35.9419 8475 92.0598
36.0584 8373 91.5041
36.1749 8435 91.8423
36.2913 8410 91.7061
36.4077 8542 92.4229
36.524 8413 91.7224
36.6403 8561 92.5257
36.7565 8652 93.0161
36.8727 8720 93.3809
36.9889 8754 93.5628
37.1049 8405 91.6788
37.221 0 1
37.3369 0 1
37.4529 0 1
37.5687 0 1
37.6845 0 1
37.8003 0 1
37.916 0 1
38.0316 0 1
38.1472 0 1
40.5851 0 1
40.7008 0 1
40.8164 0 1
40.9322 0 1
41.048 0 1
41.1639 0 1
41.2798 0 1
41.3958 0 1
41.5118 0 1
41.6279 0 1
41.744 7038 83.8928
41.8602 7255 85.1763
41.9765 7389 85.9593
42.0928 7402 86.0349
42.2091 7315 85.5278
42.3255 7162 84.6286
42.4419 7077 84.1249
42.5584 7083 84.1606
42.675 7117 84.3623
42.7915 7406 86.0581
42.9081 7669 87.5728
43.0248 7718 87.8521
43.1415 7881 88.775
43.2582 8247 90.813
43.375 8189 90.4931
43.4918 8394 91.6188
43.6087 8219 90.6587
43.7256 8345 91.351
43.8425 8230 90.7193
43.9595 8110 90.0555
44.0765 7986 89.3644
44.1935 7684 87.6584
44.3106 7387 85.9477
44.4277 6947 83.3487
44.5448 6724 82
44.6619 6441 80.2558
44.7791 6552 80.9444
44.8963 6458 80.3617
45.0136 6567 81.037
45.1308 6747 82.1401
45.2481 6619 81.3572
45.3654 6652 81.5598
45.4827 6639 81.4801
45.6001 6571 81.0617
45.7174 6686 81.768
45.8348 6396 79.975
45.9522 6156 78.4602
46.0697 5986 77.3692
46.1871 6030 77.6531
46.3046 5989 77.3886
46.422 6367 79.7935
46.5395 6547 80.9135
46.657 6626 81.4002
46.7745 6764 82.2435
46.892 6738 82.0853
47.0096 6939 83.3007
47.1271 6918 83.1745
47.2446 6874 82.9096
47.3622 6758 82.2071
47.4797 6641 81.4923
47.5973 6419 80.1187
47.7149 6393 79.9562
47.8324 6004 77.4855
47.95 5925 76.974
48.0675 5563 74.5855
48.1851 5141 71.7008
48.3027 5191 72.0486
48.4202 5042 71.007
48.5378 5214 72.208
48.6554 5306 72.8423
48.7729 5385 73.3826
48.8904 5350 73.1437
49.008 5567 74.6123
49.1255 5706 75.5381
49.243 5676 75.3392
49.3605 5534 74.3909
49.478 5224 72.2772
49.5955 5153 71.7844
49.713 5129 71.617
49.8304 5423 73.641
49.9479 5859 76.5441
50.0653 6322 79.511
50.1827 6488 80.5481
50.3001 6732 82.0488
50.4175 6989 83.6002
50.5348 7176 84.7113
50.6521 7748 88.0227
50.7694 7551 86.8965
50.8867 7783 88.2213
51.004 8007 89.4818
51.1212 8029 89.6047
51.2384 8057 89.7608
51.3556 7785 88.2326
51.4727 7387 85.9477
51.5899 7023 83.8033
51.707 6844 82.7285
51.824 6955 83.3966
51.9411 7020 83.7854
52.0581 7206 84.8882
52.175 7468 86.4176
52.2919 7408 86.0697
52.4088 7470 86.4292
52.5257 7729 87.9147
52.6425 7901 88.8876
52.7593 7891 88.8313
52.876 7751 88.0398
52.9927 7646 87.4414
53.1094 7399 86.0174
53.226 7434 86.2206
53.3426 7624 87.3155
53.4591 7837 88.5268
53.5756 8365 91.4604
53.692 8972 94.7206
53.8084 9278 96.3224
53.9248 9539 97.6678
54.0411 9933 99.6644
54.1573 9930 99.6494
54.2735 0 1
54.3896 0 1
54.5057 0 1
54.6217 0 1
54.7377 0 1
54.8537 0 1
54.9695 0 1
55.0853 0 1
55.2011 0 1
55.3168 0 1
55.4324 0 1
57.824 0 1
57.9396 0 1
58.0553 0 1
58.1711 0 1
58.2869 0 1
58.4028 0 1
58.5187 0 1
58.6347 0 1
58.7508 0 1
58.8669 0 1
58.983 10994 104.852
59.0992 11252 106.075
59.2155 11925 109.202
59.3318 12151 110.232
59.4482 12303 110.919
59.5646 12444 111.553
59.681 12295 110.883
59.7975 11997 109.531
59.9141 11624 107.815
60.0306 10846 104.144
60.1473 10134 100.668
60.2639 9751 98.7472
60.3807 9131 95.5563
60.4974 9135 95.5772
60.6142 8998 94.8578
60.731 9222 96.0312
60.8479 9396 96.933
60.9648 9311 96.4935
61.0818 9668 98.326
61.1987 9759 98.7877
61.3158 9795 98.9697
61.4328 9418 97.0464
61.5499 9269 96.2756
61.667 8747 93.5254
61.7841 8492 92.152
61.9013 8771 93.6536
62.0185 9009 94.9158
62.1357 9666 98.3158
62.253 9987 99.935
62.3702 10248 101.232
62.4875 10733 103.6
62.6049 10968 104.728
62.7222 11500 107.238
62.8396 11568 107.555
62.9569 11857 108.89
63.0743 11630 107.842
63.1918 11744 108.37
63.3092 11123 105.466
63.4267 11004 104.9
63.5441 10333 101.651
63.6616 9499 97.4628
63.7791 8971 94.7154
63.8966 8452 91.9348
64.0142 8348 91.3674
64.1317 8433 91.8314
64.2492 8535 92.3851
64.3668 8551 92.4716
64.4843 8675 93.1397
64.6019 8934 94.5198
64.7195 9057 95.1683
64.837 9251 96.1821
64.9546 9088 95.331
65.0722 8531 92.3634
65.1898 8146 90.2552
65.3074 8201 90.5594
65.4249 8051 89.7274
65.5425 8011 89.5042
65.6601 8536 92.3905
65.7777 9068 95.226
65.8952 9450 97.2111
66.0128 9849 99.2421
66.1304 10291 101.445
66.2479 10991 104.838
66.3655 11162 105.65
66.483 11259 106.108
66.6005 11324 106.414
66.718 11248 106.057
66.8355 10948 104.633
66.953 10853 104.178
67.0705 10366 101.814
67.1879 9628 98.1224
67.3054 9029 95.0211
67.4228 8314 91.1811
67.5402 7831 88.4929
67.6576 7844 88.5664
67.7749 7879 88.7637
67.8923 8317 91.1976
68.0096 8372 91.4986
68.1269 8611 92.7955
68.2442 9307 96.4728
68.3614 9427 97.0927
68.4787 9535 97.6473
68.5958 9398 96.9433
68.713 8844 94.0425
68.8302 8335 91.2962
68.9473 8275 90.967
69.0643 8173 90.4046
69.1814 8106 90.0333
69.2984 8844 94.0425
69.4154 9523 97.5859
69.5323 9796 98.9747
69.6492 10095 100.474
69.7661 10944 104.614
69.8829 11150 105.594
69.9997 11742 108.361
70.1165 11876 108.977
70.2332 11889 109.037
70.3499 11863 108.917
70.4665 11809 108.669
70.5831 11453 107.019
70.6996 10934 104.566
70.8161 9919 99.5942
70.9326 9530 97.6217
71.049 8729 93.4291
71.1653 7980 89.3308
71.2817 7956 89.1964
71.3979 7827 88.4703
71.5141 7896 88.8594
71.6303 8249 90.824
71.7464 7988 89.3756
71.8624 0 1
71.9784 0 1
72.0944 0 1
72.2102 0 1
72.3261 0 1
72.4418 0 1
72.5575 0 1
72.6732 0 1
75.1054 0 1
75.2209 0 1
75.3365 0 1
75.4521 0 1
75.5678 0 1
75.6835 0 1
75.7993 0 1
75.9151 0 1
76.031 0 1
76.147 9446 97.1905
76.263 9642 98.1937
76.3791 9202 95.9271
76.4952 8591 92.6876
76.6113 8325 91.2414
76.7276 8377 91.526
76.8438 8838 94.0106
76.9601 9130 95.551
77.0765 9665 98.3107
77.1929 9724 98.6103
77.3093 10414 102.049
77.4258 10430 102.127
77.5423 10564 102.781
77.6589 10010 100.05
77.7755 9284 96.3535
77.8921 8640 92.9516
78.0088 8576 92.6067
78.1256 8170 90.3881
78.2423 8391 91.6024
78.3591 8929 94.4934
78.4759 9563 97.7906
78.5928 10002 100.01
78.7097 10791 103.88
78.8266 11723 108.273
78.9436 11414 106.836
79.0606 12099 109.995
79.1776 12006 109.572
79.2946 12122 110.1
79.4117 11976 109.435
79.5288 11949 109.311
79.6459 11605 107.727
79.7631 10827 104.053
79.8802 9952 99.7597
79.9974 9292 96.395
80.1147 8469 92.0272
80.2319 8161 90.3383
80.3491 8051 89.7274
80.4664 8200 90.5539
80.5837 8750 93.5414
80.701 8918 94.4352
80.8183 9110 95.4463
80.9357 9581 97.8826
81.053 9862 99.3076
81.1704 9912 99.559
81.2877 9504 97.4885
81.4051 8793 93.771
81.5225 8288 91.0385
81.6399 7679 87.6299
81.7573 7716 87.8408
81.8747 7851 88.6059
81.9922 8135 90.1942
82.1096 8847 94.0585
82.227 9467 97.2985
82.3444 10165 100.822
82.4619 10621 103.058
82.5793 10759 103.726
82.6967 11437 106.944
82.8142 11171 105.693
82.9316 11333 106.457
83.049 11391 106.729
83.1664 11159 105.636
83.2838 10413 102.044
83.4012 9645 98.209
83.5186 9089 95.3362
83.636 8359 91.4276
83.7534 7726 87.8977
83.8708 7389 85.9593
83.9881 7229 85.0235
84.1055 7529 86.7698
84.2228 7715 87.8351
84.3401 8345 91.351
84.4575 8517 92.2876
84.5747 9299 96.4313
84.692 9603 97.9949
84.8093 9548 97.7139
84.9265 8933 94.5145
85.0437 8070 89.8332
85.1609 7719 87.8578
85.2781 7571 87.0115
85.3952 7517 86.7006
85.5123 7725 87.892
85.6294 8331 91.2743
85.7465 9086 95.3205
85.8636 9721 98.5951
85.9806 10296 101.469
86.0976 11034 105.043
86.2145 11526 107.359
86.3315 11711 108.217
86.4484 12261 110.729
86.5652 12413 111.414
86.682 12057 109.804
86.7988 11720 108.259
86.9156 11231 105.976
87.0323 10582 102.869
87.149 9834 99.1665
87.2657 9241 96.1301
87.3823 8518 92.293
87.4988 8437 91.8531
87.6154 8494 92.1629
87.7318 8818 93.9042
87.8483 9483 97.3807
87.9647 9905 99.5239
88.081 10397 101.966
88.1973 11006 104.909
88.3136 11319 106.391
88.4298 10481 102.377
88.546 9706 98.519
88.6621 8873 94.1966
88.7781 8298 91.0934
88.8942 0 1
89.0101 0 1
89.126 0 1
89.2419 0 1
89.3577 0 1
89.4734 0 1
89.5891 0 1
89.7047 0 1
89.8203 0 1
89.9358 0 1
92.3269 0 1
92.4424 0 1
92.558 0 1
92.6736 0 1
92.7893 0 1
92.905 0 1
93.0208 0 1
93.1366 0 1
93.2525 0 1
93.3685 0 1
93.4845 0 1
93.6005 15334 123.831
93.7167 16339 127.824
93.8328 16681 129.155
93.949 16718 129.298
94.0653 16603 128.853
94.1816 16116 126.949
94.2979 16237 127.424
94.4143 16258 127.507
94.5307 17226 131.248
94.6472 18420 135.72
94.7637 20120 141.845
94.8803 22474 149.913
94.9969 24144 155.383
95.1135 26158 161.734
95.2302 27212 164.961
95.3469 29129 170.672
95.4637 29889 172.884
95.5805 31141 176.468
95.6973 32272 179.644
95.8142 32859 181.271
95.9311 32985 181.618
96.048 32525 180.347
96.1649 31884 178.561
96.2819 30807 175.519
96.3989 30156 173.655
96.516 28503 168.828
96.633 27229 165.012
96.7501 27129 164.709
96.8673 28294 168.208
96.9844 31012 176.102
97.1016 33139 182.041
97.2188 34469 185.658
97.336 35827 189.28
97.4532 36019 189.787
97.5704 35320 187.936
97.6877 33926 184.19
97.805 31372 177.121
97.9223 29010 170.323
98.0396 27465 165.726
98.1569 26221 161.929
98.2743 26595 163.08
98.3916 27935 167.138
98.509 30549 174.783
98.6264 32279 179.664
98.7438 34024 184.456
98.8612 34899 186.813
98.9786 36352 190.662
99.096 36786 191.797
99.2134 37674 194.098
99.3308 37308 193.153
99.4482 37470 193.572
99.5656 37214 192.909
99.6831 36234 190.352
99.8005 34988 187.051
99.9179 33830 183.929
100.035 31951 178.748
100.153 29263 171.064
100.27 28307 168.247
100.388 28741 169.532
100.505 30810 175.528
100.622 32562 180.449
100.74 34050 184.526
100.857 34935 186.909
100.975 35182 187.569
101.092 35056 187.232
101.209 34284 185.159
101.327 32107 179.184
101.444 29404 171.476
101.561 27284 165.179
101.679 25889 160.901
101.796 25053 158.281
101.913 25166 158.638
102.03 27330 165.318
102.148 29241 171
102.265 31692 178.022
102.382 29653 172.2
102.499 31806 178.342
102.616 31561 177.654
102.733 31892 178.583
102.851 31403 177.209
102.968 30781 175.445
103.085 29718 172.389
103.202 28083 167.58
103.319 26330 162.265
103.436 24662 157.041
103.552 22446 149.82
103.669 20107 141.799
103.786 18522 136.096
103.903 17798 133.409
104.02 18164 134.774
104.137 18303 135.289
104.253 18950 137.659
104.37 17948 133.97
104.487 17932 133.91
104.603 17479 132.208
104.72 16367 127.934
104.836 14738 121.4
104.953 12920 113.666
105.069 11819 108.715
105.186 11325 106.419
105.302 11228 105.962
105.418 11470 107.098
105.535 12146 110.209
105.651 12857 113.389
105.767 13710 117.09
105.883 14139 118.908
105.999 14642 121.004
106.115 0 1
106.231 0 1
106.347 0 1
106.463 0 1
106.579 0 1
106.694 0 1
106.81 0 1
106.926 0 1
107.041 0 1
107.157 0 1
109.576 0 1
109.692 0 1
109.807 0 1
109.923 0 1
110.039 0 1
110.155 0 1
110.27 0 1
110.386 0 1
110.502 0 1
110.618 10650 103.199
110.735 11579 107.606
110.851 12429 111.485
110.967 13245 115.087
111.083 13616 116.688
111.199 13851 117.69
111.316 14147 118.941
111.432 13936 118.051
111.549 13888 117.847
111.665 13271 115.2
111.782 12465 111.647
111.898 12038 109.718
112.015 11334 106.461
112.132 10625 103.078
112.248 9766 98.8231
112.365 9646 98.2141
112.482 9405 96.9794
112.599 9758 98.7826
112.716 10377 101.868
112.832 10357 101.769
112.949 10540 102.665
113.066 10618 103.044
113.183 10311 101.543
113.3 10141 100.703
113.417 9076 95.268
113.534 8750 93.5414
113.652 8603 92.7524
113.769 8381 91.5478
113.886 8758 93.5842
114.003 9100 95.3939
114.12 9727 98.6256
114.238 10677 103.33
114.355 11404 106.79
114.472 11970 109.407
114.589 12167 110.304
114.707 12610 112.294
114.824 12573 112.129
114.942 12701 112.699
115.059 12745 112.894
115.176 12055 109.795
115.294 12031 109.686
115.411 11488 107.182
115.529 10945 104.618
115.646 10601 102.961
115.764 9952 99.7597
115.881 9453 97.2265
115.999 9508 97.509
116.116 9435 97.1339
116.234 9851 99.2522
116.351 9934 99.6695
116.469 10539 102.66
116.586 10541 102.669
116.704 10489 102.416
116.821 10369 101.828
116.939 9792 98.9545
117.056 9233 96.0885
117.174 9070 95.2365
117.291 9042 95.0894
117.409 9009 94.9158
117.526 9327 96.5764
117.644 10197 100.98
117.761 10825 104.043
117.879 11678 108.065
117.996 12060 109.818
118.114 12691 112.654
118.231 13198 114.883
118.349 13025 114.127
118.466 13369 115.624
118.584 13163 114.73
118.701 13248 115.1
118.819 13205 114.913
118.936 12424 111.463
119.053 11845 108.835
119.171 11603 107.717
119.288 10930 104.547
119.405 10608 102.995
119.523 9819 99.0909
119.64 10018 100.09
119.757 10094 100.469
119.875 10332 101.646
119.992 10368 101.823
120.109 10423 102.093
120.226 10845 104.139
120.343 10621 103.058
120.46 10533 102.63
120.578 9914 99.5691
120.695 9702 98.4987
120.812 9453 97.2265
120.929 9268 96.2705
121.046 9311 96.4935
121.163 9606 98.0102
121.279 9887 99.4334
121.396 10658 103.238
121.513 11340 106.489
121.63 12050 109.772
121.747 12234 110.607
121.863 12992 113.982
121.98 13109 114.495
122.097 13007 114.048
122.213 13343 115.512
122.33 13393 115.728
122.446 13021 114.11
122.563 12629 112.379
122.679 12355 111.153
122.795 11948 109.307
122.912 11581 107.615
123.028 10918 104.489
123.144 10329 101.632
123.26 10137 100.683
123.377 0 1
123.493 0 1
123.609 0 1
123.725 0 1
123.84 0 1
123.956 0 1
124.072 0 1
124.188 0 1
124.303 0 1
124.419 0 1
126.852 0 1
126.968 0 1
127.083 0 1
127.199 0 1
127.315 0 1
127.431 0 1
127.547 0 1
127.663 0 1
127.779 0 1
127.895 0 1
128.011 0 1
128.127 0 1
128.243 0 1
128.359 12246 110.662
128.476 11834 108.784
128.592 11230 105.972
128.708 11488 107.182
128.825 11996 109.526
128.941 12561 112.076
129.058 12362 111.185
129.174 12264 110.743
129.291 12388 111.301
129.408 12054 109.791
129.524 11679 108.069
129.641 11152 105.603
129.758 10923 104.513
129.875 10948 104.633
129.992 11255 106.09
130.108 10820 104.019
130.225 11626 107.824
130.342 12256 110.707
130.459 12413 111.414
130.576 13593 116.589
130.693 13687 116.991
130.81 13991 118.284
130.928 14036 118.474
131.045 14043 118.503
131.162 14118 118.819
131.279 14099 118.739
131.396 13960 118.152
131.513 13773 117.358
131.631 13483 116.116
131.748 12888 113.525
131.865 12329 111.036
131.983 11639 107.884
132.1 11375 106.654
132.217 11606 107.731
132.335 11932 109.234
132.452 11799 108.623
132.57 12224 110.562
132.687 11744 108.37
132.804 12607 112.281
132.922 11888 109.032
133.039 11820 108.72
133.157 11402 106.78
133.274 11039 105.067
133.392 10979 104.781
133.509 10872 104.269
133.627 10880 104.307
133.744 11183 105.75
133.862 11780 108.536
133.979 12386 111.292
134.097 12989 113.969
134.214 13457 116.004
134.332 13340 115.499
134.449 13670 116.919
134.567 13825 117.58
134.684 13994 118.296
134.802 14086 118.684
134.919 13955 118.131
135.037 13860 117.729
135.154 13660 116.876
135.272 13292 115.291
135.389 12898 113.569
135.507 12414 111.418
135.624 11909 109.128
135.742 11592 107.666
135.859 11910 109.133
135.977 12262 110.734
136.094 12446 111.562
136.211 12512 111.857
136.329 12516 111.875
136.446 12381 111.27
136.564 12183 110.377
136.681 12283 110.829
136.798 11689 108.116
136.915 11546 107.452
137.033 11476 107.126
137.15 11152 105.603
137.267 11441 106.963
137.384 11528 107.369
137.502 12068 109.854
137.619 12594 112.223
137.736 13197 114.878
137.853 12985 113.952
137.97 13330 115.456
138.087 14013 118.377
138.204 13787 117.418
138.321 14143 118.924
138.438 14407 120.029
138.555 14307 119.612
138.672 14507 120.445
138.788 13880 117.813
138.905 13604 116.636
139.022 13441 115.935
139.139 13079 114.363
139.255 12422 111.454
139.372 12101 110.005
139.488 12336 111.068
139.605 12724 112.801
139.721 12782 113.058
139.838 12918 113.657
139.954 12734 112.845
140.071 12288 110.851
140.187 12418 111.436
140.303 12142 110.191
140.419 11802 108.637
140.535 11432 106.921
140.652 11002 104.89
140.768 0 1
140.884 0 1
141 0 1
141.115 0 1
141.231 0 1
141.347 0 1
141.463 0 1
141.578 0 1
141.694 0 1
144.104 0 1
144.219 0 1
144.335 0 1
144.45 0 1
144.566 0 1
144.682 0 1
144.798 0 1
144.914 0 1
145.03 0 1
145.146 11740 108.351
145.262 11881 109
145.378 11464 107.07
145.494 11191 105.788
145.61 11290 106.254
145.726 11158 105.631
145.842 11050 105.119
145.959 10973 104.752
146.075 11212 105.887
146.192 11781 108.54
146.308 12198 110.445
146.425 12523 111.906
146.541 12835 113.292
146.658 12569 112.112
146.774 12988 113.965
146.891 13052 114.245
147.008 13429 115.884
147.125 13284 115.256
147.241 13363 115.598
147.358 13059 114.276
147.475 12910 113.622
147.592 12753 112.929
147.709 12165 110.295
147.826 11760 108.444
147.943 11484 107.163
148.06 11512 107.294
148.177 11722 108.268
148.294 12057 109.804
148.411 12284 110.833
148.528 12140 110.182
148.645 11911 109.138
148.762 11966 109.389
148.88 11732 108.314
148.997 11282 106.217
149.114 11886 109.023
149.231 11072 105.224
149.349 11118 105.442
149.466 10740 103.634
149.583 10698 103.431
149.701 10809 103.966
149.818 11422 106.874
149.935 11744 108.37
150.053 11973 109.421
150.17 12055 109.795
150.287 12512 111.857
150.405 12544 112
150.522 12797 113.124
150.64 12892 113.543
150.757 13228 115.013
150.875 13148 114.665
150.992 13041 114.197
151.11 12796 113.119
151.227 12793 113.106
151.344 12134 110.154
151.462 11633 107.856
151.579 11343 106.504
151.697 11756 108.425
151.814 11880 108.995
151.932 12203 110.467
152.049 12650 112.472
152.167 12338 111.077
152.284 12459 111.62
152.402 12286 110.842
152.519 12122 110.1
152.636 11936 109.252
152.754 11634 107.861
152.871 11598 107.694
152.989 11417 106.85
153.106 11237 106.005
153.223 11137 105.532
153.341 11415 106.841
153.458 11915 109.156
153.575 12224 110.562
153.693 12309 110.946
153.81 12883 113.503
153.927 13190 114.848
154.044 13313 115.382
154.162 13803 117.486
154.279 13757 117.29
154.396 14111 118.79
154.513 14123 118.84
154.63 14099 118.739
154.747 13739 117.213
154.864 13613 116.675
154.981 13429 115.884
155.098 12809 113.177
155.215 12444 111.553
155.332 12470 111.669
155.449 12924 113.684
155.566 12823 113.239
155.683 12970 113.886
155.8 12872 113.455
155.917 12644 112.446
156.033 12642 112.437
156.15 0 1
156.267 0 1
156.383 0 1
156.5 0 1
156.617 0 1
156.733 0 1
156.85 0 1
156.966 0 1
157.082 0 1
157.199 0 1
157.315 0 1
157.431 0 1
157.547 0 1
157.664 0 1
157.78 0 1
157.896 0 1
158.012 0 1
158.128 0 1
158.244 0 1
158.359 0 1
158.475 0 1
158.591 0 1
158.706 0 1
