
6.15755 0 1
6.2731 0 1
6.3887 0 1
6.50437 0 1
6.62009 0 1
6.73587 0 1
6.8517 0 1
6.96759 0 1
7.08353 0 1
7.19952 0 1
7.31557 0 1
7.43166 0 1
7.54781 0 1
7.664 0 1
7.78024 0 1
7.89653 0 1
8.01286 0 1
8.12924 0 1
8.24567 0 1
8.36213 0 1
8.47864 0 1
8.59519 0 1
8.71178 0 1
8.82841 0 1
8.94508 0 1
9.06179 0 1
9.17853 0 1
9.29531 0 1
9.41212 0 1
9.52897 0 1
9.64584 0 1
9.76276 0 1
9.8797 0 1
9.99667 0 1
10.1137 0 1
10.2307 0 1
10.3478 0 1
10.4648 0 1
10.5819 0 1
10.6991 0 1
10.8162 0 1
10.9334 0 1
11.0506 0 1
11.1678 0 1
11.285 0 1
11.4023 0 1
11.5196 0 1
11.6369 0 1
11.7542 0 1
11.8715 0 1
11.9888 0 1
12.1062 0 1
12.2235 0 1
12.3409 0 1
12.4582 0 1
12.5756 0 1
12.693 0 1
12.8104 0 1
12.9278 0 1
13.0452 0 1
13.1626 0 1
13.28 0 1
13.3974 0 1
13.5149 0 1
13.6323 0 1
13.7497 0 1
13.8671 0 1
13.9845 0 1
14.1019 0 1
14.2193 0 1
14.3367 0 1
14.4541 0 1
14.5714 0 1
14.6888 0 1
14.8062 0 1
14.9235 0 1
15.0408 0 0
15.1581 0 0
15.2755 0 0
15.3927 0 0
15.51 0 0
15.6273 0 0
15.7445 0 0
15.8617 0 0
15.9789 0 0
16.0961 0 0
16.2132 0 0
16.3304 0 0
16.4475 0 0
16.5646 0 0
16.6816 0 0
16.7986 0 0
16.9156 0 0
17.0326 0 0
17.1496 0 0
17.2665 0 0
17.3833 0 0
17.5002 0 0
17.617 0 0
17.7338 0 0
17.8505 0 0
17.9672 0 0
18.0839 0 0
18.2005 0 0
18.3171 0 0
18.4337 0 0
18.5502 0 0
18.6666 0 0
18.7831 0 0
18.8994 0 0
19.0158 0 0
19.1321 0 0
19.2483 0 0
19.3645 0 0
19.4806 0 0
19.5967 0 0
19.7128 0 0
19.8288 0 0
19.9447 0 0
20.0606 0 1
20.1764 0 1
20.2922 0 1
20.4079 0 1
20.5236 0 1
20.6392 0 1
20.7548 0 1
20.8702 0 1
23.3078 0 1
23.4233 0 1
23.539 0 1
23.6547 0 1
23.7704 0 1
23.8862 0 1
24.0021 0 1
24.118 0 1
24.234 0 1
24.35 0 1
24.4661 16166 127.146
24.5822 16371 127.949
24.6984 15894 126.071
24.8146 15506 124.523
24.9309 15518 124.571
25.0472 14962 122.319
25.1636 15139 123.041
25.28 15065 122.74
25.3965 15651 125.104
25.513 15733 125.431
25.6296 16182 127.208
25.7462 16808 129.646
25.8628 16955 130.211
25.9795 17032 130.507
26.0962 17016 130.445
26.213 17161 131
26.3298 16549 128.643
26.4466 16625 128.938
26.5635 15880 126.016
26.6804 15276 123.596
26.7973 15180 123.207
26.9143 16026 126.594
27.0313 16376 127.969
27.1483 16483 128.386
27.2653 17026 130.484
27.3824 17460 132.136
27.4996 17172 131.042
27.6167 16956 130.215
27.7339 16963 130.242
27.8511 16337 127.816
27.9683 15967 126.361
28.0855 15956 126.317
28.2028 15864 125.952
28.3201 14959 122.307
28.4374 14695 121.223
28.5547 14312 119.633
28.6721 14259 119.411
28.7894 14250 119.373
28.9068 14351 119.796
29.0242 14610 120.872
29.1416 14798 121.647
29.259 14699 121.239
29.3764 15116 122.947
29.4939 15442 124.266
29.6113 15383 124.028
29.7288 15396 124.081
29.8463 15253 123.503
29.9638 14909 122.102
30.0812 14500 120.416
30.1987 14239 119.327
30.3162 14334 119.725
30.4337 14614 120.888
30.5512 15173 123.179
30.6687 15413 124.149
30.7862 15971 126.376
30.9037 16072 126.775
31.0212 16236 127.421
31.1387 16471 128.339
31.2562 15963 126.345
31.3737 15708 125.332
31.4912 15628 125.012
31.6087 15414 124.153
31.7262 15176 123.191
31.8436 14867 121.93
31.9611 14473 120.304
32.0785 13945 118.089
32.1959 13927 118.013
32.3134 13956 118.136
32.4308 13757 117.29
32.5482 14121 118.832
32.6655 14161 119
32.7829 14422 120.092
32.9002 14799 121.651
33.0176 14661 121.083
33.1349 14685 121.182
33.2522 14720 121.326
33.3694 14913 122.119
33.4867 15036 122.621
33.6039 14613 120.884
33.7211 14579 120.744
33.8383 13925 118.004
33.9554 14111 118.79
34.0725 14447 120.196
34.1896 14765 121.511
34.3067 15242 123.458
34.4237 15597 124.888
34.5407 15849 125.893
34.6577 16031 126.614
34.7746 16212 127.326
34.8915 16153 127.094
35.0084 15805 125.718
35.1252 15890 126.056
35.242 15527 124.607
35.3587 15078 122.793
35.4755 14882 121.992
35.5921 14760 121.491
35.7088 14320 119.666
35.8254 13707 117.077
35.9419 13356 115.568
36.0584 13363 115.598
36.1749 13387 115.702
36.2913 13452 115.983
36.4077 13829 117.597
36.524 14144 118.929
36.6403 14235 119.311
36.7565 14265 119.436
36.8727 14628 120.946
36.9889 14412 120.05
37.1049 14212 119.214
37.221 0 1
37.3369 0 1
37.4529 0 1
37.5687 0 1
37.6845 0 1
37.8003 0 1
37.916 0 1
38.0316 0 1
38.1472 0 1
40.5851 0 1
40.7008 0 1
40.8164 0 1
40.9322 0 1
41.048 0 1
41.1639 0 1
41.2798 0 1
41.3958 0 1
41.5118 0 1
41.6279 0 1
41.744 11586 107.638
41.8602 12097 109.986
41.9765 12238 110.625
42.0928 12505 111.826
42.2091 12910 113.622
42.3255 12261 110.729
42.4419 12210 110.499
42.5584 11774 108.508
42.675 11649 107.931
42.7915 11796 108.609
42.9081 12508 111.839
43.0248 12715 112.761
43.1415 13105 114.477
43.2582 13308 115.36
43.375 13589 116.572
43.4918 13674 116.936
43.6087 13646 116.816
43.7256 13727 117.162
43.8425 13325 115.434
43.9595 13224 114.996
44.0765 13134 114.604
44.1935 12574 112.134
44.3106 12360 111.176
44.4277 11799 108.623
44.5448 11236 106
44.6619 10720 103.537
44.7791 10473 102.338
44.8963 10394 101.951
45.0136 10428 102.118
45.1308 10442 102.186
45.2481 10803 103.937
45.3654 10747 103.668
45.4827 10959 104.685
45.6001 10903 104.417
45.7174 11069 105.209
45.8348 10843 104.13
45.9522 10639 103.146
46.0697 10558 102.752
46.1871 10279 101.385
46.3046 9920 99.5992
46.422 10170 100.846
46.5395 10615 103.029
46.657 10905 104.427
46.7745 11183 105.75
46.892 11050 105.119
47.0096 11281 106.212
47.1271 11492 107.201
47.2446 11242 106.028
47.3622 11021 104.981
47.4797 10927 104.532
47.5973 10639 103.146
47.7149 10421 102.083
47.8324 10146 100.727
47.95 9663 98.3006
48.0675 9304 96.4572
48.1851 8845 94.0479
48.3027 8526 92.3363
48.4202 8394 91.6188
48.5378 8495 92.1683
48.6554 8419 91.7551
48.7729 8760 93.5949
48.8904 8953 94.6203
49.008 9092 95.352
49.1255 9078 95.2785
49.243 9329 96.5867
49.3605 9363 96.7626
49.478 9364 96.7678
49.5955 9111 95.4516
49.713 9079 95.2838
49.8304 8939 94.5463
49.9479 9320 96.5401
50.0653 9999 99.995
50.1827 10822 104.029
50.3001 10909 104.446
50.4175 11405 106.794
50.5348 11788 108.573
50.6521 12209 110.494
50.7694 12588 112.196
50.8867 12692 112.659
51.004 12820 113.225
51.1212 12987 113.961
51.2384 13012 114.07
51.3556 12814 113.199
51.4727 12739 112.867
51.5899 12145 110.204
51.707 11590 107.657
51.824 11354 106.555
51.9411 11297 106.287
52.0581 11446 106.986
52.175 11612 107.759
52.2919 11990 109.499
52.4088 12586 112.187
52.5257 12602 112.259
52.6425 12654 112.49
52.7593 13077 114.355
52.876 13232 115.03
52.9927 13455 115.996
53.1094 13036 114.175
53.226 12797 113.124
53.3426 12754 112.934
53.4591 12734 112.845
53.5756 13171 114.765
53.692 14322 119.675
53.8084 14940 122.229
53.9248 15678 125.212
54.0411 16082 126.815
54.1573 16378 127.977
54.2735 0 1
54.3896 0 1
54.5057 0 1
54.6217 0 1
54.7377 0 1
54.8537 0 1
54.9695 0 1
55.0853 0 1
55.2011 0 1
55.3168 0 1
55.4324 0 1
57.824 0 1
57.9396 0 1
58.0553 0 1
58.1711 0 1
58.2869 0 1
58.4028 0 1
58.5187 0 1
58.6347 0 1
58.7508 0 1
58.8669 0 1
58.983 17658 132.883
59.0992 18617 136.444
59.2155 19245 138.726
59.3318 19596 139.986
59.4482 20048 141.591
59.5646 19638 140.136
59.681 19708 140.385
59.7975 19102 138.21
59.9141 18853 137.306
60.0306 18149 134.718
60.1473 17371 131.799
60.2639 16403 128.074
60.3807 15582 124.828
60.4974 14593 120.801
60.6142 14722 121.334
60.731 14430 120.125
60.8479 14833 121.791
60.9648 15038 122.63
61.0818 15610 124.94
61.1987 15681 125.224
61.3158 16220 127.358
61.4328 15820 125.778
61.5499 15828 125.809
61.667 15367 123.964
61.7841 14874 121.959
61.9013 14528 120.532
62.0185 14619 120.909
62.1357 15455 124.318
62.253 16096 126.87
62.3702 16897 129.988
62.4875 17524 132.378
62.6049 17951 133.981
62.7222 18664 136.616
62.8396 18461 135.871
62.9569 18900 137.477
63.0743 18690 136.711
63.1918 18369 135.532
63.3092 18386 135.595
63.4267 18036 134.298
63.5441 16715 129.287
63.6616 16105 126.905
63.7791 15006 122.499
63.8966 14253 119.386
64.0142 13594 116.593
64.1317 13204 114.909
64.2492 13243 115.078
64.3668 13470 116.06
64.4843 13918 117.975
64.6019 14207 119.193
64.7195 14656 121.062
64.837 14550 120.623
64.9546 14685 121.182
65.0722 14823 121.75
65.1898 14449 120.204
65.3074 14199 119.16
65.4249 13504 116.207
65.5425 13229 115.017
65.6601 13753 117.273
65.7777 14662 121.087
65.8952 15492 124.467
66.0128 16247 127.464
66.1304 16809 129.65
66.2479 17609 132.699
66.3655 17666 132.914
66.483 18180 134.833
66.6005 18392 135.617
66.718 18215 134.963
66.8355 17851 133.608
66.953 17627 132.767
67.0705 17068 130.645
67.1879 16024 126.586
67.3054 15680 125.22
67.4228 14223 119.26
67.5402 13267 115.182
67.6576 12965 113.864
67.7749 12436 111.517
67.8923 12851 113.362
68.0096 13324 115.43
68.1269 13583 116.546
68.2442 14497 120.403
68.3614 14801 121.659
68.4787 14928 122.18
68.5958 15262 123.539
68.713 15195 123.268
68.8302 14490 120.374
68.9473 14258 119.407
69.0643 13628 116.739
69.1814 13545 116.383
69.2984 13842 117.652
69.4154 14944 122.246
69.5323 16057 126.716
69.6492 17010 130.422
69.7661 17723 133.128
69.8829 18380 135.573
69.9997 18880 137.405
70.1165 19303 138.935
70.2332 19519 139.71
70.3499 19421 139.359
70.4665 19224 138.651
70.5831 18709 136.781
70.6996 18192 134.878
70.8161 17333 131.655
70.9326 16301 127.675
71.049 15525 124.599
71.1653 14246 119.357
71.2817 13360 115.585
71.3979 13026 114.132
71.5141 12830 113.27
71.6303 12947 113.785
71.7464 12468 111.66
71.8624 0 1
71.9784 0 1
72.0944 0 1
72.2102 0 1
72.3261 0 1
72.4418 0 1
72.5575 0 1
72.6732 0 1
75.1054 0 1
75.2209 0 1
75.3365 0 1
75.4521 0 1
75.5678 0 1
75.6835 0 1
75.7993 0 1
75.9151 0 1
76.031 0 1
76.147 16630 128.957
76.263 17308 131.56
76.3791 16498 128.445
76.4952 15177 123.195
76.6113 14303 119.595
76.7276 13935 118.047
76.8438 14122 118.836
76.9601 14234 119.306
77.0765 15020 122.556
77.1929 15827 125.805
77.3093 16181 127.205
77.4258 16644 129.012
77.5423 16673 129.124
77.6589 16802 129.623
77.7755 16180 127.201
77.8921 15559 124.736
78.0088 15002 122.483
78.1256 14661 121.083
78.2423 14273 119.47
78.3591 14887 122.012
78.4759 15737 125.447
78.5928 17233 131.275
78.7097 18162 134.766
78.8266 19671 140.253
78.9436 18888 137.434
79.0606 19935 141.191
79.1776 19930 141.174
79.2946 19982 141.358
79.4117 19788 140.67
79.5288 19725 140.446
79.6459 19354 139.119
79.7631 18482 135.949
79.8802 17565 132.533
79.9974 16519 128.526
80.1147 15324 123.79
80.2319 13830 117.601
80.3491 13262 115.161
80.4664 13334 115.473
80.5837 13356 115.568
80.701 14019 118.402
80.8183 14408 120.033
80.9357 14891 122.029
81.053 15500 124.499
81.1704 15508 124.531
81.2877 15568 124.772
81.4051 15092 122.85
81.5225 14722 121.334
81.6399 13710 117.09
81.7573 13370 115.629
81.8747 13065 114.302
81.9922 13296 115.308
82.1096 14648 121.029
82.227 15259 123.527
82.3444 16445 128.238
82.4619 17243 131.313
82.5793 17181 131.076
82.6967 18765 136.985
82.8142 18153 134.733
82.9316 18034 134.291
83.049 18086 134.484
83.1664 17510 132.325
83.2838 16857 129.835
83.4012 16038 126.641
83.5186 15379 124.012
83.636 14440 120.167
83.7534 13544 116.379
83.8708 12359 111.171
83.9881 12014 109.608
84.1055 11839 108.807
84.2228 12000 109.545
84.3401 12681 112.61
84.4575 13433 115.901
84.5747 14189 119.118
84.692 14534 120.557
84.8093 14874 121.959
84.9265 14727 121.355
85.0437 13752 117.269
85.1609 13288 115.274
85.2781 12825 113.248
85.3952 12406 111.382
85.5123 12674 112.579
85.6294 13119 114.538
85.7465 14434 120.142
85.8636 15755 125.519
85.9806 16644 129.012
86.0976 17568 132.544
86.2145 18235 135.037
86.3315 18272 135.174
86.4484 19474 139.549
86.5652 19248 138.737
86.682 19277 138.842
86.7988 18894 137.455
86.9156 18386 135.595
87.0323 17511 132.329
87.149 16805 129.634
87.2657 15645 125.08
87.3823 14822 121.746
87.4988 13715 117.111
87.6154 13643 116.803
87.7318 13665 116.897
87.8483 14562 120.673
87.9647 15332 123.822
88.081 16220 127.358
88.1973 16896 129.985
88.3136 17245 131.32
88.4298 16858 129.838
88.546 16412 128.109
88.6621 15550 124.7
88.7781 14343 119.762
88.8942 0 1
89.0101 0 1
89.126 0 1
89.2419 0 1
89.3577 0 1
89.4734 0 1
89.5891 0 1
89.7047 0 1
89.8203 0 1
89.9358 0 1
92.3269 0 1
92.4424 0 1
92.558 0 1
92.6736 0 1
92.7893 0 1
92.905 0 1
93.0208 0 1
93.1366 0 1
93.2525 0 1
93.3685 0 1
93.4845 0 1
93.6005 19216 138.622
93.7167 20180 142.056
93.8328 21029 145.014
93.949 21476 146.547
94.0653 21983 148.267
94.1816 21386 146.24
94.2979 21130 145.362
94.4143 21185 145.551
94.5307 21745 147.462
94.6472 21922 148.061
94.7637 24077 155.168
94.8803 26705 163.417
94.9969 28958 170.171
95.1135 30948 175.92
95.2302 32497 180.269
95.3469 34391 185.448
95.4637 35957 189.623
95.5805 36946 192.213
95.6973 38228 195.52
95.8142 38867 197.147
95.9311 38886 197.195
96.048 39161 197.891
96.1649 38748 196.845
96.2819 37798 194.417
96.3989 36438 190.887
96.516 34807 186.566
96.633 32768 181.019
96.7501 31660 177.933
96.8673 32336 179.822
96.9844 33487 182.995
97.1016 36391 190.764
97.2188 38973 197.416
97.336 41800 204.45
97.4532 41804 204.46
97.5704 42810 206.906
97.6877 42058 205.08
97.805 40377 200.94
97.9223 37650 194.036
98.0396 35469 188.332
98.1569 33585 183.262
98.2743 33280 182.428
98.3916 33713 183.611
98.509 36029 189.813
98.6264 38784 196.937
98.7438 41161 202.882
98.8612 42790 206.857
98.9786 44252 210.362
99.096 45069 212.295
99.2134 45796 214
99.3308 45775 213.951
99.4482 46044 214.579
99.5656 45391 213.052
99.6831 44876 211.84
99.8005 43852 209.409
99.9179 42211 205.453
100.035 40159 200.397
100.153 37815 194.461
100.27 34590 185.984
100.388 33869 184.035
100.505 35014 187.12
100.622 37353 193.269
100.74 39979 199.947
100.857 41485 203.679
100.975 42495 206.143
101.092 42052 205.066
101.209 42268 205.592
101.327 41237 203.069
101.444 39059 197.633
101.561 36393 190.769
101.679 34337 185.302
101.796 32742 180.948
101.913 32405 180.014
102.03 33808 183.87
102.148 36575 191.246
102.265 40760 201.891
102.382 38649 196.593
102.499 41800 204.45
102.616 42030 205.012
102.733 42301 205.672
102.851 41905 204.707
102.968 41617 204.002
103.085 40861 202.141
103.202 39312 198.273
103.319 37070 192.536
103.436 35381 188.098
103.552 32878 181.323
103.669 29925 172.988
103.786 27314 165.269
103.903 25492 159.662
104.02 25636 160.112
104.137 26169 161.768
104.253 27612 166.169
104.37 26792 163.683
104.487 27258 165.1
104.603 26541 162.914
104.72 25837 160.739
104.836 24164 155.448
104.953 22202 149.003
105.069 20186 142.077
105.186 19350 139.104
105.302 18597 136.371
105.418 19077 138.12
105.535 20002 141.428
105.651 21426 146.376
105.767 22214 149.044
105.883 23293 152.62
105.999 23521 153.366
106.115 0 1
106.231 0 1
106.347 0 1
106.463 0 1
106.579 0 1
106.694 0 1
106.81 0 1
106.926 0 1
107.041 0 1
107.157 0 1
109.576 0 1
109.692 0 1
109.807 0 1
109.923 0 1
110.039 0 1
110.155 0 1
110.27 0 1
110.386 0 1
110.502 0 1
110.618 16884 129.938
110.735 18660 136.602
110.851 19944 141.223
110.967 20803 144.232
111.083 21322 146.021
111.199 21644 147.119
111.316 21708 147.336
111.432 22040 148.459
111.549 21682 147.248
111.665 21154 145.444
111.782 20390 142.794
111.898 19487 139.596
112.015 18305 135.296
112.132 17428 132.015
112.248 16302 127.679
112.365 15629 125.016
112.482 15607 124.928
112.599 15275 123.592
112.716 16109 126.921
112.832 16593 128.814
112.949 16993 130.357
113.066 16786 129.561
113.183 16500 128.452
113.3 16307 127.699
113.417 15934 126.23
113.534 15088 122.833
113.652 14900 122.066
113.769 14791 121.618
113.886 14488 120.366
114.003 15135 123.024
114.12 16734 129.36
114.238 17606 132.688
114.355 19088 138.159
114.472 20118 141.838
114.589 20317 142.538
114.707 20601 143.53
114.824 21026 145.003
114.942 21111 145.296
115.059 21264 145.822
115.176 20842 144.368
115.294 20481 143.112
115.411 19944 141.223
115.529 19062 138.065
115.646 18080 134.462
115.764 17433 132.034
115.881 16318 127.742
115.999 15880 126.016
116.116 16273 127.566
116.234 16737 129.372
116.351 16714 129.283
116.469 17484 132.227
116.586 17489 132.246
116.704 17572 132.559
116.821 17220 131.225
116.939 16863 129.858
117.056 16430 128.18
117.174 16032 126.618
117.291 15800 125.698
117.409 15857 125.925
117.526 15980 126.412
117.644 17550 132.476
117.761 18776 137.026
117.879 20044 141.577
117.996 20404 142.843
118.114 21125 145.344
118.231 22042 148.465
118.349 22115 148.711
118.466 22359 149.529
118.584 22236 149.117
118.701 22426 149.753
118.819 22139 148.792
118.936 21492 146.602
119.053 20690 143.84
119.171 20270 142.373
119.288 19303 138.935
119.405 17915 133.847
119.523 17165 131.015
119.64 17047 130.564
119.757 16852 129.815
119.875 17142 130.927
119.992 17343 131.693
120.109 17876 133.701
120.226 17777 133.33
120.343 17602 132.673
120.46 17411 131.951
120.578 17146 130.943
120.695 16613 128.891
120.812 16555 128.666
120.929 16247 127.464
121.046 16333 127.801
121.163 16643 129.008
121.279 17133 130.893
121.396 18204 134.922
121.513 19567 139.882
121.63 20721 143.948
121.747 20701 143.878
121.863 21391 146.257
121.98 21916 148.041
122.097 21965 148.206
122.213 22009 148.354
122.33 22314 149.379
122.446 21931 148.091
122.563 21539 146.762
122.679 21175 145.516
122.795 20682 143.812
122.912 19990 141.386
123.028 19138 138.34
123.144 18227 135.007
123.26 17146 130.943
123.377 0 1
123.493 0 1
123.609 0 1
123.725 0 1
123.84 0 1
123.956 0 1
124.072 0 1
124.188 0 1
124.303 0 1
124.419 0 1
126.852 0 1
126.968 0 1
127.083 0 1
127.199 0 1
127.315 0 1
127.431 0 1
127.547 0 1
127.663 0 1
127.779 0 1
127.895 0 1
128.011 0 1
128.127 0 1
128.243 0 1
128.359 20764 144.097
128.476 19612 140.043
128.592 18943 137.634
128.708 19354 139.119
128.825 19783 140.652
128.941 20290 142.443
129.058 20318 142.541
129.174 19953 141.255
129.291 19874 140.975
129.408 19276 138.838
129.524 19240 138.708
129.641 18540 136.162
129.758 18438 135.787
129.875 18334 135.403
129.992 18214 134.959
130.108 17765 133.285
130.225 18546 136.184
130.342 20107 141.799
130.459 20361 142.692
130.576 21840 147.784
130.693 22207 149.02
130.81 22245 149.148
130.928 22619 150.396
131.045 22764 150.877
131.162 22512 150.04
131.279 22639 150.463
131.396 22378 149.593
131.513 21864 147.865
131.631 21386 146.24
131.748 20662 143.743
131.865 20072 141.676
131.983 18866 137.354
132.1 18509 136.048
132.217 18321 135.355
132.335 18829 137.219
132.452 19050 138.022
132.57 19362 139.147
132.687 18710 136.785
132.804 19636 140.129
132.922 18882 137.412
133.039 19011 137.88
133.157 18522 136.096
133.274 17872 133.686
133.392 17577 132.578
133.509 17705 133.06
133.627 17744 133.207
133.744 18193 134.881
133.862 18837 137.248
133.979 19774 140.62
134.097 20672 143.778
134.214 21642 147.112
134.332 21430 146.39
134.449 21734 147.425
134.567 21715 147.36
134.684 22161 148.866
134.802 22326 149.419
134.919 22607 150.356
135.037 22249 149.161
135.154 22034 148.439
135.272 21551 146.803
135.389 20621 143.6
135.507 20114 141.824
135.624 18954 137.674
135.742 18728 136.85
135.859 19011 137.88
135.977 19080 138.13
136.094 19881 141
136.211 20045 141.58
136.329 19984 141.365
136.446 19377 139.201
136.564 19394 139.262
136.681 19604 140.014
136.798 18768 136.996
136.915 18612 136.426
137.033 18566 136.257
137.15 18348 135.455
137.267 18210 134.944
137.384 18573 136.283
137.502 19427 139.381
137.619 20042 141.57
137.736 21002 144.921
137.853 20950 144.741
137.97 21146 145.417
138.087 22409 149.696
138.204 22173 148.906
138.321 22246 149.151
138.438 23060 151.855
138.555 22739 150.795
138.672 22709 150.695
138.788 22411 149.703
138.905 21954 148.169
139.022 21626 147.058
139.139 20893 144.544
139.255 19746 140.52
139.372 19458 139.492
139.488 19455 139.481
139.605 19985 141.368
139.721 20623 143.607
139.838 20579 143.454
139.954 20061 141.637
140.071 19976 141.336
140.187 19932 141.181
140.303 19283 138.863
140.419 18860 137.332
140.535 18172 134.804
140.652 17953 133.989
140.768 0 1
140.884 0 1
141 0 1
141.115 0 1
141.231 0 1
141.347 0 1
141.463 0 1
141.578 0 1
141.694 0 1
144.104 0 1
144.219 0 1
144.335 0 1
144.45 0 1
144.566 0 1
144.682 0 1
144.798 0 1
144.914 0 1
145.03 0 1
145.146 18845 137.277
145.262 18745 136.912
145.378 18304 135.292
145.494 18103 134.547
145.61 18044 134.328
145.726 17623 132.752
145.842 17749 133.225
145.959 17652 132.861
146.075 17903 133.802
146.192 18801 137.117
146.308 19068 138.087
146.425 19626 140.093
146.541 19948 141.237
146.658 20120 141.845
146.774 20292 142.45
146.891 21011 144.952
147.008 21358 146.144
147.125 20998 144.907
147.241 21314 145.993
147.358 20811 144.26
147.475 20640 143.666
147.592 20070 141.669
147.709 19666 140.236
147.826 19031 137.953
147.943 18513 136.062
148.06 18281 135.207
148.177 18632 136.499
148.294 19185 138.51
148.411 19506 139.664
148.528 19046 138.007
148.645 18874 137.383
148.762 18911 137.517
148.88 18733 136.869
148.997 17833 133.54
149.114 18687 136.7
149.231 17993 134.138
149.349 17843 133.578
149.466 17491 132.254
149.583 17436 132.045
149.701 17944 133.955
149.818 18597 136.371
149.935 19166 138.441
150.053 19449 139.46
150.17 19679 140.282
150.287 20471 143.077
150.405 21021 144.986
150.522 21229 145.702
150.64 21591 146.939
150.757 21328 146.041
150.875 21864 147.865
150.992 21792 147.621
151.11 21163 145.475
151.227 21220 145.671
151.344 20253 142.313
151.462 19842 140.862
151.579 19371 139.18
151.697 19659 140.211
151.814 20092 141.746
151.932 20156 141.972
152.049 20914 144.617
152.167 20959 144.772
152.284 20488 143.136
152.402 20469 143.07
152.519 20250 142.302
152.636 20061 141.637
152.754 19897 141.057
152.871 19210 138.6
152.989 19302 138.932
153.106 19349 139.101
153.223 19181 138.495
153.341 19647 140.168
153.458 20362 142.695
153.575 20845 144.378
153.693 21177 145.523
153.81 21997 148.314
153.927 22342 149.472
154.044 22553 150.177
154.162 23400 152.971
154.279 23435 153.085
154.396 23673 153.86
154.513 23824 154.35
154.63 23597 153.613
154.747 23524 153.375
154.864 23050 151.822
154.981 22445 149.817
155.098 21763 147.523
155.215 21211 145.64
155.332 21011 144.952
155.449 21810 147.682
155.566 22164 148.876
155.683 21955 148.172
155.8 21865 147.868
155.917 21811 147.685
156.033 21610 147.003
156.15 0 1
156.267 0 1
156.383 0 1
156.5 0 1
156.617 0 1
156.733 0 1
156.85 0 1
156.966 0 1
157.082 0 1
157.199 0 1
157.315 0 1
157.431 0 1
157.547 0 1
157.664 0 1
157.78 0 1
157.896 0 1
158.012 0 1
158.128 0 1
158.244 0 1
158.359 0 1
158.475 0 1
158.591 0 1
158.706 0 1
