
6.15755 0 1
6.2731 0 1
6.3887 0 1
6.50437 0 1
6.62009 0 1
6.73587 0 1
6.8517 0 1
6.96759 0 1
7.08353 0 1
7.19952 0 1
7.31557 0 1
7.43166 0 1
7.54781 0 1
7.664 0 1
7.78024 0 1
7.89653 0 1
8.01286 0 1
8.12924 0 1
8.24567 0 1
8.36213 0 1
8.47864 0 1
8.59519 0 1
8.71178 0 1
8.82841 0 1
8.94508 0 1
9.06179 0 1
9.17853 0 1
9.29531 0 1
9.41212 0 1
9.52897 0 1
9.64584 0 1
9.76276 0 1
9.8797 0 1
9.99667 0 1
10.1137 0 1
10.2307 0 1
10.3478 0 1
10.4648 0 1
10.5819 0 1
10.6991 0 1
10.8162 0 1
10.9334 0 1
11.0506 0 1
11.1678 0 1
11.285 0 1
11.4023 0 1
11.5196 0 1
11.6369 0 1
11.7542 0 1
11.8715 0 1
11.9888 0 1
12.1062 0 1
12.2235 0 1
12.3409 0 1
12.4582 0 1
12.5756 0 1
12.693 0 1
12.8104 0 1
12.9278 0 1
13.0452 0 1
13.1626 0 1
13.28 0 1
13.3974 0 1
13.5149 0 1
13.6323 0 1
13.7497 0 1
13.8671 0 1
13.9845 0 1
14.1019 0 1
14.2193 0 1
14.3367 0 1
14.4541 0 1
14.5714 0 1
14.6888 0 1
14.8062 0 1
14.9235 0 1
15.0408 0 0
15.1581 0 0
15.2755 0 0
15.3927 0 0
15.51 0 0
15.6273 0 0
15.7445 0 0
15.8617 0 0
15.9789 0 0
16.0961 0 0
16.2132 0 0
16.3304 0 0
16.4475 0 0
16.5646 0 0
16.6816 0 0
16.7986 0 0
16.9156 0 0
17.0326 0 0
17.1496 0 0
17.2665 0 0
17.3833 0 0
17.5002 0 0
17.617 0 0
17.7338 0 0
17.8505 0 0
17.9672 0 0
18.0839 0 0
18.2005 0 0
18.3171 0 0
18.4337 0 0
18.5502 0 0
18.6666 0 0
18.7831 0 0
18.8994 0 0
19.0158 0 0
19.1321 0 0
19.2483 0 0
19.3645 0 0
19.4806 0 0
19.5967 0 0
19.7128 0 0
19.8288 0 0
19.9447 0 0
20.0606 0 1
20.1764 0 1
20.2922 0 1
20.4079 0 1
20.5236 0 1
20.6392 0 1
20.7548 0 1
20.8702 0 1
23.3078 0 1
23.4233 0 1
23.539 0 1
23.6547 0 1
23.7704 0 1
23.8862 0 1
24.0021 0 1
24.118 0 1
24.234 0 1
24.35 0 1
24.4661 1768 42.0476
24.5822 1680 40.9878
24.6984 1694 41.1582
24.8146 1733 41.6293
24.9309 1778 42.1663
25.0472 1687 41.0731
25.1636 1574 39.6737
25.28 1559 39.4842
25.3965 1531 39.128
25.513 1589 39.8623
25.6296 1637 40.4599
25.7462 1817 42.6263
25.8628 1873 43.2782
25.9795 1905 43.6463
26.0962 1826 42.7317
26.213 1890 43.4741
26.3298 1881 43.3705
26.4466 1848 42.9884
26.5635 1904 43.6348
26.6804 1736 41.6653
26.7973 1764 42
26.9143 1840 42.8952
27.0313 1737 41.6773
27.1483 1797 42.391
27.2653 1858 43.1045
27.3824 1812 42.5676
27.4996 1923 43.852
27.6167 1796 42.3792
27.7339 1878 43.3359
27.8511 1854 43.0581
27.9683 1770 42.0714
28.0855 1742 41.7373
28.2028 1810 42.5441
28.3201 1739 41.7013
28.4374 1746 41.7852
28.5547 1610 40.1248
28.6721 1535 39.1791
28.7894 1459 38.1969
28.9068 1477 38.4318
29.0242 1508 38.833
29.1416 1587 39.8372
29.259 1687 41.0731
29.3764 1767 42.0357
29.4939 1828 42.7551
29.6113 1872 43.2666
29.7288 1755 41.8927
29.8463 1807 42.5088
29.9638 1778 42.1663
30.0812 1725 41.5331
30.1987 1706 41.3038
30.3162 1685 41.0488
30.4337 1675 40.9268
30.5512 1775 42.1307
30.6687 1705 41.2916
30.7862 1790 42.3084
30.9037 1828 42.7551
31.0212 1973 44.4185
31.1387 1814 42.5911
31.2562 1862 43.1509
31.3737 1758 41.9285
31.4912 1806 42.4971
31.6087 1848 42.9884
31.7262 1875 43.3013
31.8436 1693 41.1461
31.9611 1755 41.8927
32.0785 1613 40.1622
32.1959 1524 39.0384
32.3134 1514 38.9102
32.4308 1507 38.8201
32.5482 1507 38.8201
32.6655 1585 39.8121
32.7829 1754 41.8808
32.9002 1823 42.6966
33.0176 1822 42.6849
33.1349 1785 42.2493
33.2522 1858 43.1045
33.3694 1757 41.9166
33.4867 1773 42.107
33.6039 1775 42.1307
33.7211 1736 41.6653
33.8383 1656 40.694
33.9554 1597 39.9625
34.0725 1625 40.3113
34.1896 1689 41.0974
34.3067 1704 41.2795
34.4237 1741 41.7253
34.5407 1767 42.0357
34.6577 1832 42.8019
34.7746 1819 42.6497
34.8915 1777 42.1545
35.0084 1810 42.5441
35.1252 1757 41.9166
35.242 1846 42.9651
35.3587 1797 42.391
35.4755 1792 42.332
35.5921 1799 42.4146
35.7088 1557 39.4588
35.8254 1582 39.7744
35.9419 1401 37.4299
36.0584 1423 37.7227
36.1749 1471 38.3536
36.2913 1554 39.4208
36.4077 1550 39.37
36.524 1674 40.9145
36.6403 1716 41.4246
36.7565 1731 41.6053
36.8727 1740 41.7133
36.9889 1753 41.8688
37.1049 1740 41.7133
37.221 0 1
37.3369 0 1
37.4529 0 1
37.5687 0 1
37.6845 0 1
37.8003 0 1
37.916 0 1
38.0316 0 1
38.1472 0 1
40.5851 0 1
40.7008 0 1
40.8164 0 1
40.9322 0 1
41.048 0 1
41.1639 0 1
41.2798 0 1
41.3958 0 1
41.5118 0 1
41.6279 0 1
41.744 1279 35.7631
41.8602 1413 37.5899
41.9765 1342 36.6333
42.0928 1539 39.2301
42.2091 1489 38.5876
42.3255 1445 38.0132
42.4419 1386 37.229
42.5584 1350 36.7423
42.675 1282 35.805
42.7915 1316 36.2767
42.9081 1259 35.4824
43.0248 1313 36.2353
43.1415 1366 36.9594
43.2582 1434 37.8682
43.375 1483 38.5097
43.4918 1457 38.1707
43.6087 1551 39.3827
43.7256 1507 38.8201
43.8425 1473 38.3797
43.9595 1516 38.9358
44.0765 1409 37.5366
44.1935 1397 37.3765
44.3106 1442 37.9737
44.4277 1373 37.054
44.5448 1236 35.1568
44.6619 1158 34.0294
44.7791 1125 33.541
44.8963 1100 33.1662
45.0136 1096 33.1059
45.1308 1051 32.4191
45.2481 1163 34.1028
45.3654 1253 35.3977
45.4827 1231 35.0856
45.6001 1202 34.6699
45.7174 1161 34.0735
45.8348 1212 34.8138
45.9522 1070 32.7109
46.0697 1102 33.1964
46.1871 956 30.9192
46.3046 923 30.3809
46.422 989 31.4484
46.5395 1059 32.5423
46.657 1047 32.3574
46.7745 1091 33.0303
46.892 1042 32.28
47.0096 1099 33.1512
47.1271 1085 32.9393
47.2446 1169 34.1906
47.3622 1120 33.4664
47.4797 1047 32.3574
47.5973 1087 32.9697
47.7149 1110 33.3167
47.8324 1073 32.7567
47.95 1027 32.0468
48.0675 945 30.7409
48.1851 892 29.8664
48.3027 804 28.3549
48.4202 911 30.1828
48.5378 891 29.8496
48.6554 971 31.1609
48.7729 935 30.5778
48.8904 945 30.7409
49.008 1057 32.5115
49.1255 1004 31.686
49.243 969 31.1288
49.3605 905 30.0832
49.478 939 30.6431
49.5955 866 29.4279
49.713 759 27.55
49.8304 781 27.9464
49.9479 776 27.8568
50.0653 866 29.4279
50.1827 894 29.8998
50.3001 974 31.209
50.4175 1017 31.8904
50.5348 1077 32.8177
50.6521 1105 33.2415
50.7694 1175 34.2783
50.8867 1192 34.5254
51.004 1198 34.6121
51.1212 1150 33.9116
51.2384 1217 34.8855
51.3556 1242 35.242
51.4727 1195 34.5688
51.5899 1186 34.4384
51.707 1038 32.218
51.824 1010 31.7805
51.9411 1019 31.9218
52.0581 1138 33.7343
52.175 1165 34.1321
52.2919 1288 35.8887
52.4088 1321 36.3456
52.5257 1240 35.2136
52.6425 1313 36.2353
52.7593 1315 36.2629
52.876 1331 36.4829
52.9927 1292 35.9444
53.1094 1226 35.0143
53.226 1188 34.4674
53.3426 1074 32.7719
53.4591 1102 33.1964
53.5756 1144 33.8231
53.692 1329 36.4555
53.8084 1248 35.327
53.9248 1410 37.55
54.0411 1442 37.9737
54.1573 1453 38.1182
54.2735 0 1
54.3896 0 1
54.5057 0 1
54.6217 0 1
54.7377 0 1
54.8537 0 1
54.9695 0 1
55.0853 0 1
55.2011 0 1
55.3168 0 1
55.4324 0 1
57.824 0 1
57.9396 0 1
58.0553 0 1
58.1711 0 1
58.2869 0 1
58.4028 0 1
58.5187 0 1
58.6347 0 1
58.7508 0 1
58.8669 0 1
58.983 1528 39.0896
59.0992 1630 40.3733
59.2155 1734 41.6413
59.3318 1756 41.9047
59.4482 1747 41.7971
59.5646 1826 42.7317
59.681 1745 41.7732
59.7975 1697 41.1947
59.9141 1761 41.9643
60.0306 1716 41.4246
60.1473 1547 39.3319
60.2639 1508 38.833
60.3807 1394 37.3363
60.4974 1352 36.7696
60.6142 1517 38.9487
60.731 1457 38.1707
60.8479 1417 37.6431
60.9648 1484 38.5227
61.0818 1618 40.2244
61.1987 1607 40.0874
61.3158 1558 39.4715
61.4328 1640 40.4969
61.5499 1539 39.2301
61.667 1405 37.4833
61.7841 1409 37.5366
61.9013 1288 35.8887
62.0185 1288 35.8887
62.1357 1434 37.8682
62.253 1513 38.8973
62.3702 1575 39.6863
62.4875 1659 40.7308
62.6049 1737 41.6773
62.7222 1830 42.7785
62.8396 1817 42.6263
62.9569 1867 43.2088
63.0743 1849 43
63.1918 1845 42.9535
63.3092 1911 43.715
63.4267 1828 42.7551
63.5441 1727 41.5572
63.6616 1686 41.0609
63.7791 1641 40.5093
63.8966 1610 40.1248
64.0142 1527 39.0768
64.1317 1665 40.8044
64.2492 1662 40.7676
64.3668 1687 41.0731
64.4843 1750 41.833
64.6019 1769 42.0595
64.7195 1676 40.939
64.837 1750 41.833
64.9546 1809 42.5323
65.0722 1644 40.5463
65.1898 1523 39.0256
65.3074 1492 38.6264
65.4249 1242 35.242
65.5425 1228 35.0428
65.6601 1329 36.4555
65.7777 1350 36.7423
65.8952 1486 38.5487
66.0128 1523 39.0256
66.1304 1660 40.7431
66.2479 1765 42.0119
66.3655 1845 42.9535
66.483 1802 42.45
66.6005 1803 42.4617
66.718 1752 41.8569
66.8355 1811 42.5558
66.953 1707 41.3159
67.0705 1715 41.4126
67.1879 1608 40.0999
67.3054 1512 38.8844
67.4228 1412 37.5766
67.5402 1382 37.1753
67.6576 1368 36.9865
67.7749 1377 37.108
67.8923 1509 38.8458
68.0096 1453 38.1182
68.1269 1505 38.7943
68.2442 1476 38.4187
68.3614 1447 38.0395
68.4787 1544 39.2938
68.5958 1424 37.7359
68.713 1407 37.51
68.8302 1260 35.4965
68.9473 1127 33.5708
69.0643 1056 32.4962
69.1814 1059 32.5423
69.2984 1096 33.1059
69.4154 1285 35.8469
69.5323 1335 36.5377
69.6492 1522 39.0128
69.7661 1491 38.6135
69.8829 1587 39.8372
69.9997 1627 40.3361
70.1165 1597 39.9625
70.2332 1661 40.7554
70.3499 1615 40.1871
70.4665 1639 40.4846
70.5831 1670 40.8656
70.6996 1511 38.8716
70.8161 1468 38.3145
70.9326 1340 36.606
71.049 1325 36.4005
71.1653 1281 35.7911
71.2817 1274 35.6931
71.3979 1260 35.4965
71.5141 1338 36.5787
71.6303 1303 36.0971
71.7464 1203 34.6843
71.8624 0 1
71.9784 0 1
72.0944 0 1
72.2102 0 1
72.3261 0 1
72.4418 0 1
72.5575 0 1
72.6732 0 1
75.1054 0 1
75.2209 0 1
75.3365 0 1
75.4521 0 1
75.5678 0 1
75.6835 0 1
75.7993 0 1
75.9151 0 1
76.031 0 1
76.147 1347 36.7015
76.263 1399 37.4032
76.3791 1315 36.2629
76.4952 1288 35.8887
76.6113 1365 36.9459
76.7276 1348 36.7151
76.8438 1357 36.8375
76.9601 1380 37.1484
77.0765 1431 37.8286
77.1929 1415 37.6165
77.3093 1463 38.2492
77.4258 1477 38.4318
77.5423 1522 39.0128
77.6589 1306 36.1386
77.7755 1200 34.641
77.8921 1123 33.5112
78.0088 1042 32.28
78.1256 1021 31.9531
78.2423 903 30.05
78.3591 999 31.607
78.4759 1203 34.6843
78.5928 1242 35.242
78.7097 1347 36.7015
78.8266 1447 38.0395
78.9436 1650 40.6202
79.0606 1615 40.1871
79.1776 1572 39.6485
79.2946 1544 39.2938
79.4117 1588 39.8497
79.5288 1517 38.9487
79.6459 1504 38.7814
79.7631 1386 37.229
79.8802 1375 37.081
79.9974 1316 36.2767
80.1147 1235 35.1426
80.2319 1275 35.7071
80.3491 1245 35.2846
80.4664 1268 35.609
80.5837 1259 35.4824
80.701 1320 36.3318
80.8183 1275 35.7071
80.9357 1327 36.428
81.053 1364 36.9324
81.1704 1274 35.6931
81.2877 1305 36.1248
81.4051 1208 34.7563
81.5225 1050 32.4037
81.6399 999 31.607
81.7573 833 28.8617
81.8747 814 28.5307
81.9922 895 29.9166
82.1096 1098 33.1361
82.227 1217 34.8855
82.3444 1342 36.6333
82.4619 1381 37.1618
82.5793 1414 37.6032
82.6967 1431 37.8286
82.8142 1507 38.8201
82.9316 1506 38.8072
83.049 1469 38.3275
83.1664 1349 36.7287
83.2838 1377 37.108
83.4012 1216 34.8712
83.5186 1181 34.3657
83.636 1184 34.4093
83.7534 1187 34.4529
83.8708 1214 34.8425
83.9881 1188 34.4674
84.1055 1224 34.9857
84.2228 1203 34.6843
84.3401 1171 34.2199
84.4575 1219 34.9142
84.5747 1231 35.0856
84.692 1228 35.0428
84.8093 1270 35.6371
84.9265 1119 33.4515
85.0437 943 30.7083
85.1609 904 30.0666
85.2781 796 28.2135
85.3952 794 28.178
85.5123 856 29.2575
85.6294 999 31.607
85.7465 1165 34.1321
85.8636 1286 35.8608
85.9806 1379 37.1349
86.0976 1417 37.6431
86.2145 1466 38.2884
86.3315 1508 38.833
86.4484 1452 38.1051
86.5652 1596 39.95
86.682 1507 38.8201
86.7988 1496 38.6782
86.9156 1450 38.0789
87.0323 1379 37.1349
87.149 1293 35.9583
87.2657 1340 36.606
87.3823 1415 37.6165
87.4988 1364 36.9324
87.6154 1304 36.1109
87.7318 1321 36.3456
87.8483 1423 37.7227
87.9647 1422 37.7094
88.081 1483 38.5097
88.1973 1464 38.2623
88.3136 1452 38.1051
88.4298 1351 36.756
88.546 1228 35.0428
88.6621 1117 33.4215
88.7781 955 30.9031
88.8942 0 1
89.0101 0 1
89.126 0 1
89.2419 0 1
89.3577 0 1
89.4734 0 1
89.5891 0 1
89.7047 0 1
89.8203 0 1
89.9358 0 1
92.3269 0 1
92.4424 0 1
92.558 0 1
92.6736 0 1
92.7893 0 1
92.905 0 1
93.0208 0 1
93.1366 0 1
93.2525 0 1
93.3685 0 1
93.4845 0 1
93.6005 1399 37.4032
93.7167 1409 37.5366
93.8328 1370 37.0135
93.949 1298 36.0278
94.0653 1160 34.0588
94.1816 1052 32.4345
94.2979 1007 31.7333
94.4143 910 30.1662
94.5307 918 30.2985
94.6472 1075 32.7872
94.7637 1207 34.7419
94.8803 1321 36.3456
94.9969 1484 38.5227
95.1135 1555 39.4335
95.2302 1606 40.0749
95.3469 1570 39.6232
95.4637 1600 40
95.5805 1672 40.8901
95.6973 1675 40.9268
95.8142 1703 41.2674
95.9311 1724 41.5211
96.048 1631 40.3856
96.1649 1520 38.9872
96.2819 1519 38.9744
96.3989 1502 38.7556
96.516 1522 39.0128
96.633 1466 38.2884
96.7501 1494 38.6523
96.8673 1579 39.7366
96.9844 1482 38.4968
97.1016 1507 38.8201
97.2188 1597 39.9625
97.336 1531 39.128
97.4532 1535 39.1791
97.5704 1540 39.2428
97.6877 1356 36.8239
97.805 1107 33.2716
97.9223 961 31
98.0396 920 30.3315
98.1569 876 29.5973
98.2743 986 31.4006
98.3916 1179 34.3366
98.509 1407 37.51
98.6264 1551 39.3827
98.7438 1565 39.5601
98.8612 1693 41.1461
98.9786 1726 41.5452
99.096 1754 41.8808
99.2134 1728 41.5692
99.3308 1718 41.4488
99.4482 1674 40.9145
99.5656 1715 41.4126
99.6831 1760 41.9524
99.8005 1570 39.6232
99.9179 1559 39.4842
100.035 1596 39.95
100.153 1580 39.7492
100.27 1625 40.3113
100.388 1587 39.8372
100.505 1566 39.5727
100.622 1544 39.2938
100.74 1545 39.3065
100.857 1590 39.8748
100.975 1633 40.4104
101.092 1634 40.4228
101.209 1449 38.0657
101.327 1248 35.327
101.444 1042 32.28
101.561 1017 31.8904
101.679 976 31.241
101.796 968 31.1127
101.913 1126 33.5559
102.03 1386 37.229
102.148 1612 40.1497
102.265 1659 40.7308
102.382 1837 42.8602
102.499 1799 42.4146
102.616 1828 42.7551
102.733 1832 42.8019
102.851 1775 42.1307
102.968 1806 42.4971
103.085 1753 41.8688
103.202 1789 42.2966
103.319 1700 41.2311
103.436 1811 42.5558
103.552 1669 40.8534
103.669 1673 40.9023
103.786 1748 41.8091
103.903 1663 40.7799
104.02 1642 40.5216
104.137 1715 41.4126
104.253 1655 40.6817
104.37 1754 41.8808
104.487 1771 42.0833
104.603 1654 40.6694
104.72 1507 38.8201
104.836 1292 35.9444
104.953 1172 34.2345
105.069 930 30.4959
105.186 1027 32.0468
105.302 1086 32.9545
105.418 1320 36.3318
105.535 1553 39.4081
105.651 1681 41
105.767 1860 43.1277
105.883 1950 44.1588
105.999 1928 43.909
106.115 0 1
106.231 0 1
106.347 0 1
106.463 0 1
106.579 0 1
106.694 0 1
106.81 0 1
106.926 0 1
107.041 0 1
107.157 0 1
109.576 0 1
109.692 0 1
109.807 0 1
109.923 0 1
110.039 0 1
110.155 0 1
110.27 0 1
110.386 0 1
110.502 0 1
110.618 1530 39.1152
110.735 1645 40.5586
110.851 1723 41.509
110.967 1866 43.1972
111.083 1805 42.4853
111.199 1775 42.1307
111.316 1897 43.5546
111.432 1756 41.9047
111.549 1832 42.8019
111.665 1766 42.0238
111.782 1714 41.4005
111.898 1705 41.2916
112.015 1654 40.6694
112.132 1736 41.6653
112.248 1705 41.2916
112.365 1611 40.1373
112.482 1597 39.9625
112.599 1611 40.1373
112.716 1708 41.328
112.832 1638 40.4722
112.949 1707 41.3159
113.066 1662 40.7676
113.183 1553 39.4081
113.3 1437 37.9078
113.417 1206 34.7275
113.534 1080 32.8634
113.652 937 30.6105
113.769 926 30.4302
113.886 1014 31.8434
114.003 1164 34.1174
114.12 1414 37.6032
114.238 1569 39.6106
114.355 1740 41.7133
114.472 1699 41.2189
114.589 1743 41.7493
114.707 1762 41.9762
114.824 1778 42.1663
114.942 1726 41.5452
115.059 1776 42.1426
115.176 1753 41.8688
115.294 1714 41.4005
115.411 1706 41.3038
115.529 1705 41.2916
115.646 1699 41.2189
115.764 1607 40.0874
115.881 1619 40.2368
115.999 1644 40.5463
116.116 1574 39.6737
116.234 1553 39.4081
116.351 1518 38.9615
116.469 1577 39.7115
116.586 1658 40.7185
116.704 1597 39.9625
116.821 1436 37.8946
116.939 1308 36.1663
117.056 1144 33.8231
117.174 1032 32.1248
117.291 966 31.0805
117.409 964 31.0483
117.526 1118 33.4365
117.644 1342 36.6333
117.761 1487 38.5616
117.879 1579 39.7366
117.996 1664 40.7922
118.114 1659 40.7308
118.231 1650 40.6202
118.349 1710 41.3521
118.466 1715 41.4126
118.584 1725 41.5331
118.701 1667 40.8289
118.819 1741 41.7253
118.936 1684 41.0366
119.053 1712 41.3763
119.171 1661 40.7554
119.288 1593 39.9124
119.405 1605 40.0625
119.523 1544 39.2938
119.64 1560 39.4968
119.757 1456 38.1576
119.875 1594 39.9249
119.992 1536 39.1918
120.109 1531 39.128
120.226 1498 38.704
120.343 1543 39.281
120.46 1425 37.7492
120.578 1347 36.7015
120.695 1190 34.4964
120.812 1134 33.6749
120.929 1014 31.8434
121.046 1049 32.3883
121.163 1085 32.9393
121.279 1250 35.3553
121.396 1343 36.647
121.513 1508 38.833
121.63 1569 39.6106
121.747 1682 41.0122
121.863 1718 41.4488
121.98 1740 41.7133
122.097 1572 39.6485
122.213 1678 40.9634
122.33 1711 41.3642
122.446 1721 41.4849
122.563 1675 40.9268
122.679 1646 40.5709
122.795 1577 39.7115
122.912 1621 40.2616
123.028 1563 39.5348
123.144 1488 38.5746
123.26 1489 38.5876
123.377 0 1
123.493 0 1
123.609 0 1
123.725 0 1
123.84 0 1
123.956 0 1
124.072 0 1
124.188 0 1
124.303 0 1
124.419 0 1
126.852 0 1
126.968 0 1
127.083 0 1
127.199 0 1
127.315 0 1
127.431 0 1
127.547 0 1
127.663 0 1
127.779 0 1
127.895 0 1
128.011 0 1
128.127 0 1
128.243 0 1
128.359 1781 42.2019
128.476 1732 41.6173
128.592 1687 41.0731
128.708 1722 41.497
128.825 1709 41.3401
128.941 1722 41.497
129.058 1686 41.0609
129.174 1715 41.4126
129.291 1709 41.3401
129.408 1566 39.5727
129.524 1464 38.2623
129.641 1364 36.9324
129.758 1218 34.8999
129.875 1133 33.6601
129.992 1157 34.0147
130.108 1230 35.0714
130.225 1371 37.027
130.342 1552 39.3954
130.459 1518 38.9615
130.576 1793 42.3438
130.693 1764 42
130.81 1792 42.332
130.928 1841 42.9069
131.045 1880 43.359
131.162 1874 43.2897
131.279 1931 43.9431
131.396 1925 43.8748
131.513 1829 42.7668
131.631 1806 42.4971
131.748 1852 43.0349
131.865 1840 42.8952
131.983 1831 42.7902
132.1 1848 42.9884
132.217 1747 41.7971
132.335 1871 43.2551
132.452 1795 42.3674
132.57 1722 41.497
132.687 1743 41.7493
132.804 1787 42.2729
132.922 1658 40.7185
133.039 1523 39.0256
133.157 1430 37.8153
133.274 1283 35.819
133.392 1194 34.5543
133.509 1185 34.4238
133.627 1182 34.3802
133.744 1242 35.242
133.862 1465 38.2753
133.979 1549 39.3573
134.097 1560 39.4968
134.214 1666 40.8167
134.332 1824 42.7083
134.449 1746 41.7852
134.567 1851 43.0232
134.684 1857 43.0929
134.802 1925 43.8748
134.919 1884 43.4051
135.037 1857 43.0929
135.154 1899 43.5775
135.272 1955 44.2154
135.389 1833 42.8135
135.507 1811 42.5558
135.624 1841 42.9069
135.742 1893 43.5086
135.859 1827 42.7434
135.977 1845 42.9535
136.094 1828 42.7551
136.211 1707 41.3159
136.329 1833 42.8135
136.446 1785 42.2493
136.564 1763 41.9881
136.681 1542 39.2683
136.798 1497 38.6911
136.915 1321 36.3456
137.033 1244 35.2704
137.15 1194 34.5543
137.267 1208 34.7563
137.384 1253 35.3977
137.502 1453 38.1182
137.619 1456 38.1576
137.736 1551 39.3827
137.853 1668 40.8412
137.97 1627 40.3361
138.087 1689 41.0974
138.204 1837 42.8602
138.321 1920 43.8178
138.438 1996 44.6766
138.555 1894 43.5201
138.672 1922 43.8406
138.788 1939 44.0341
138.905 1916 43.7721
139.022 1885 43.4166
139.139 1883 43.3935
139.255 1817 42.6263
139.372 1822 42.6849
139.488 1814 42.5911
139.605 1788 42.2847
139.721 1889 43.4626
139.838 1756 41.9047
139.954 1813 42.5793
140.071 1726 41.5452
140.187 1757 41.9166
140.303 1603 40.0375
140.419 1428 37.7889
140.535 1386 37.229
140.652 1290 35.9166
140.768 0 1
140.884 0 1
141 0 1
141.115 0 1
141.231 0 1
141.347 0 1
141.463 0 1
141.578 0 1
141.694 0 1
144.104 0 1
144.219 0 1
144.335 0 1
144.45 0 1
144.566 0 1
144.682 0 1
144.798 0 1
144.914 0 1
145.03 0 1
145.146 1260 35.4965
145.262 1313 36.2353
145.378 1295 35.9861
145.494 1224 34.9857
145.61 1127 33.5708
145.726 1064 32.619
145.842 997 31.5753
145.959 890 29.8329
146.075 927 30.4467
146.192 969 31.1288
146.308 1001 31.6386
146.425 1130 33.6155
146.541 1099 33.1512
146.658 1227 35.0286
146.774 1335 36.5377
146.891 1417 37.6431
147.008 1481 38.4838
147.125 1403 37.4566
147.241 1477 38.4318
147.358 1481 38.4838
147.475 1465 38.2753
147.592 1477 38.4318
147.709 1456 38.1576
147.826 1459 38.1969
147.943 1423 37.7227
148.06 1420 37.6829
148.177 1428 37.7889
148.294 1396 37.3631
148.411 1526 39.064
148.528 1427 37.7757
148.645 1486 38.5487
148.762 1403 37.4566
148.88 1409 37.5366
148.997 1398 37.3898
149.114 1369 37
149.231 1272 35.6651
149.349 1162 34.0881
149.466 1169 34.1906
149.583 1079 32.8481
149.701 1024 32
149.818 1002 31.6544
149.935 980 31.305
150.053 986 31.4006
150.17 1063 32.6037
150.287 1089 33
150.405 1229 35.0571
150.522 1229 35.0571
150.64 1447 38.0395
150.757 1429 37.8021
150.875 1428 37.7889
150.992 1498 38.704
151.11 1436 37.8946
151.227 1498 38.704
151.344 1403 37.4566
151.462 1442 37.9737
151.579 1485 38.5357
151.697 1447 38.0395
151.814 1470 38.3406
151.932 1479 38.4578
152.049 1525 39.0512
152.167 1478 38.4448
152.284 1418 37.6563
152.402 1375 37.081
152.519 1444 38
152.636 1482 38.4968
152.754 1421 37.6962
152.871 1315 36.2629
152.989 1318 36.3043
153.106 1130 33.6155
153.223 1121 33.4813
153.341 1032 32.1248
153.458 964 31.0483
153.575 1000 31.6228
153.693 1036 32.187
153.81 1102 33.1964
153.927 1220 34.9285
154.044 1288 35.8887
154.162 1366 36.9594
154.279 1457 38.1707
154.396 1455 38.1445
154.513 1522 39.0128
154.63 1485 38.5357
154.747 1537 39.2046
154.864 1646 40.5709
154.981 1619 40.2368
155.098 1507 38.8201
155.215 1479 38.4578
155.332 1637 40.4599
155.449 1424 37.7359
155.566 1541 39.2556
155.683 1472 38.3667
155.8 1472 38.3667
155.917 1472 38.3667
156.033 1483 38.5097
156.15 0 1
156.267 0 1
156.383 0 1
156.5 0 1
156.617 0 1
156.733 0 1
156.85 0 1
156.966 0 1
157.082 0 1
157.199 0 1
157.315 0 1
157.431 0 1
157.547 0 1
157.664 0 1
157.78 0 1
157.896 0 1
158.012 0 1
158.128 0 1
158.244 0 1
158.359 0 1
158.475 0 1
158.591 0 1
158.706 0 1
