
6.15755 0 1
6.2731 0 1
6.3887 0 1
6.50437 0 1
6.62009 0 1
6.73587 0 1
6.8517 0 1
6.96759 0 1
7.08353 0 1
7.19952 0 1
7.31557 0 1
7.43166 0 1
7.54781 0 1
7.664 0 1
7.78024 0 1
7.89653 0 1
8.01286 0 1
8.12924 0 1
8.24567 0 1
8.36213 0 1
8.47864 0 1
8.59519 0 1
8.71178 0 1
8.82841 0 1
8.94508 0 1
9.06179 0 1
9.17853 0 1
9.29531 0 1
9.41212 0 1
9.52897 0 1
9.64584 0 1
9.76276 0 1
9.8797 0 1
9.99667 0 1
10.1137 0 1
10.2307 0 1
10.3478 0 1
10.4648 0 1
10.5819 0 1
10.6991 0 1
10.8162 0 1
10.9334 0 1
11.0506 0 1
11.1678 0 1
11.285 0 1
11.4023 0 1
11.5196 0 1
11.6369 0 1
11.7542 0 1
11.8715 0 1
11.9888 0 1
12.1062 0 1
12.2235 0 1
12.3409 0 1
12.4582 0 1
12.5756 0 1
12.693 0 1
12.8104 0 1
12.9278 0 1
13.0452 0 1
13.1626 0 1
13.28 0 1
13.3974 0 1
13.5149 0 1
13.6323 0 1
13.7497 0 1
13.8671 0 1
13.9845 0 1
14.1019 0 1
14.2193 0 1
14.3367 0 1
14.4541 0 1
14.5714 0 1
14.6888 0 1
14.8062 0 1
14.9235 0 1
15.0408 25265 158.95
15.1581 26338 162.29
15.2755 26637 163.208
15.3927 26748 163.548
15.51 26642 163.224
15.6273 26271 162.083
15.7445 26199 161.861
15.8617 25763 160.509
15.9789 24933 157.902
16.0961 24860 157.671
16.2132 24787 157.439
16.3304 24908 157.823
16.4475 25197 158.736
16.5646 25548 159.837
16.6816 25488 159.65
16.7986 25408 159.399
16.9156 26350 162.327
17.0326 26210 161.895
17.1496 26483 162.736
17.2665 26589 163.061
17.3833 26926 164.091
17.5002 27290 165.197
17.617 27905 167.048
17.7338 27944 167.165
17.8505 28987 170.256
17.9672 30317 174.118
18.0839 31286 176.878
18.2005 32327 179.797
18.3171 32956 181.538
18.4337 33123 181.997
18.5502 33724 183.641
18.6666 33553 183.175
18.7831 33239 182.316
18.8994 32591 180.53
19.0158 31350 177.059
19.1321 30345 174.198
19.2483 29557 171.921
19.3645 28811 169.738
19.4806 28346 168.363
19.5967 27471 165.744
19.7128 26948 164.158
19.8288 25964 161.133
19.9447 23275 152.561
20.0606 0 1
20.1764 0 1
20.2922 0 1
20.4079 0 1
20.5236 0 1
20.6392 0 1
20.7548 0 1
20.8702 0 1
23.3078 0 1
23.4233 0 1
23.539 0 1
23.6547 0 1
23.7704 0 1
23.8862 0 1
24.0021 0 1
24.118 0 1
24.234 0 1
24.35 0 1
24.4661 27235 165.03
24.5822 27505 165.846
24.6984 27312 165.263
24.8146 26705 163.417
24.9309 26994 164.299
25.0472 26726 163.481
25.1636 26239 161.985
25.28 26465 162.681
25.3965 26939 164.131
25.513 27733 166.532
25.6296 28380 168.464
25.7462 28691 169.384
25.8628 29198 170.874
25.9795 29359 171.345
26.0962 29936 173.02
26.213 29969 173.116
26.3298 29972 173.124
26.4466 30334 174.167
26.5635 30903 175.792
26.6804 31654 177.916
26.7973 32173 179.368
26.9143 32052 179.031
27.0313 32313 179.758
27.1483 32428 180.078
27.2653 32295 179.708
27.3824 31915 178.648
27.4996 31324 176.986
27.6167 29716 172.383
27.7339 28909 170.026
27.8511 28073 167.55
27.9683 27331 165.321
28.0855 27006 164.335
28.2028 26919 164.07
28.3201 26183 161.812
28.4374 26158 161.734
28.5547 26529 162.877
28.6721 26455 162.65
28.7894 26243 161.997
28.9068 26077 161.484
29.0242 26053 161.409
29.1416 26481 162.73
29.259 26712 163.438
29.3764 26713 163.441
29.4939 27054 164.481
29.6113 27431 165.623
29.7288 27834 166.835
29.8463 28423 168.591
29.9638 28813 169.744
30.0812 29599 172.044
30.1987 30297 174.06
30.3162 31002 176.074
30.4337 31040 176.182
30.5512 30785 175.457
30.6687 30599 174.926
30.7862 31144 176.477
30.9037 30284 174.023
31.0212 29497 171.747
31.1387 28721 169.473
31.2562 28001 167.335
31.3737 26988 164.28
31.4912 26589 163.061
31.6087 25799 160.621
31.7262 25387 159.333
31.8436 25283 159.006
31.9611 25302 159.066
32.0785 25601 160.003
32.1959 25723 160.384
32.3134 25937 161.05
32.4308 26144 161.691
32.5482 26053 161.409
32.6655 26196 161.852
32.7829 25868 160.835
32.9002 25737 160.428
33.0176 26052 161.406
33.1349 26389 162.447
33.2522 26588 163.058
33.3694 26504 162.8
33.4867 27194 164.906
33.6039 28007 167.353
33.7211 28558 168.991
33.8383 29316 171.219
33.9554 29220 170.939
34.0725 29617 172.096
34.1896 29081 170.532
34.3067 28946 170.135
34.4237 28517 168.87
34.5407 28029 167.419
34.6577 27685 166.388
34.7746 26880 163.951
34.8915 26014 161.289
35.0084 25457 159.552
35.1252 24860 157.671
35.242 24559 156.713
35.3587 24113 155.284
35.4755 24195 155.547
35.5921 24492 156.499
35.7088 24713 157.204
35.8254 25332 159.16
35.9419 25690 160.281
36.0584 26158 161.734
36.1749 26043 161.378
36.2913 25508 159.712
36.4077 25078 158.36
36.524 24761 157.356
36.6403 24328 155.974
36.7565 24643 156.981
36.8727 24579 156.777
36.9889 24870 157.702
37.1049 24741 157.293
37.221 0 1
37.3369 0 1
37.4529 0 1
37.5687 0 1
37.6845 0 1
37.8003 0 1
37.916 0 1
38.0316 0 1
38.1472 0 1
40.5851 0 1
40.7008 0 1
40.8164 0 1
40.9322 0 1
41.048 0 1
41.1639 0 1
41.2798 0 1
41.3958 0 1
41.5118 0 1
41.6279 0 1
41.744 19774 140.62
41.8602 21269 145.839
41.9765 21326 146.034
42.0928 21491 146.598
42.2091 21780 147.58
42.3255 21925 148.071
42.4419 22582 150.273
42.5584 22576 150.253
42.675 23407 152.993
42.7915 23444 153.114
42.9081 23852 154.441
43.0248 23994 154.9
43.1415 24241 155.695
43.2582 24245 155.708
43.375 24283 155.83
43.4918 23937 154.716
43.6087 24111 155.277
43.7256 24119 155.303
43.8425 23151 152.155
43.9595 22945 151.476
44.0765 22590 150.3
44.1935 22480 149.933
44.3106 22266 149.218
44.4277 22115 148.711
44.5448 21917 148.044
44.6619 21720 147.377
44.7791 21091 145.227
44.8963 20757 144.073
45.0136 20964 144.79
45.1308 20502 143.185
45.2481 20193 142.102
45.3654 19703 140.367
45.4827 19472 139.542
45.6001 19028 137.942
45.7174 18444 135.809
45.8348 18300 135.277
45.9522 17914 133.843
46.0697 17689 133
46.1871 17815 133.473
46.3046 17572 132.559
46.422 17481 132.216
46.5395 17560 132.514
46.657 17461 132.14
46.7745 17552 132.484
46.892 17500 132.288
47.0096 17260 131.377
47.1271 17009 130.419
47.2446 16853 129.819
47.3622 16677 129.139
47.4797 16214 127.334
47.5973 16222 127.366
47.7149 15875 125.996
47.8324 16000 126.491
47.95 15652 125.108
48.0675 15708 125.332
48.1851 15075 122.78
48.3027 14488 120.366
48.4202 14514 120.474
48.5378 14119 118.823
48.6554 14257 119.403
48.7729 14123 118.84
48.8904 14014 118.381
49.008 13941 118.072
49.1255 13734 117.192
49.243 13688 116.996
49.3605 13659 116.872
49.478 13887 117.843
49.5955 13796 117.456
49.713 14067 118.604
49.8304 14400 120
49.9479 14516 120.482
50.0653 14757 121.478
50.1827 15028 122.589
50.3001 15574 124.796
50.4175 15866 125.96
50.5348 15874 125.992
50.6521 16290 127.632
50.7694 16673 129.124
50.8867 17096 130.752
51.004 17420 131.985
51.1212 17670 132.929
51.2384 18434 135.772
51.3556 18588 136.338
51.4727 19093 138.177
51.5899 19196 138.55
51.707 18514 136.066
51.824 18626 136.477
51.9411 18586 136.33
52.0581 18397 135.636
52.175 18728 136.85
52.2919 18811 137.153
52.4088 18701 136.752
52.5257 18511 136.055
52.6425 17897 133.78
52.7593 17881 133.72
52.876 18277 135.192
52.9927 18222 134.989
53.1094 18661 136.605
53.226 19102 138.21
53.3426 19900 141.067
53.4591 20380 142.759
53.5756 20705 143.892
53.692 21288 145.904
53.8084 21895 147.97
53.9248 22183 148.94
54.0411 22397 149.656
54.1573 22622 150.406
54.2735 0 1
54.3896 0 1
54.5057 0 1
54.6217 0 1
54.7377 0 1
54.8537 0 1
54.9695 0 1
55.0853 0 1
55.2011 0 1
55.3168 0 1
55.4324 0 1
57.824 0 1
57.9396 0 1
58.0553 0 1
58.1711 0 1
58.2869 0 1
58.4028 0 1
58.5187 0 1
58.6347 0 1
58.7508 0 1
58.8669 0 1
58.983 24704 157.175
59.0992 25763 160.509
59.2155 26674 163.322
59.3318 27147 164.763
59.4482 27435 165.635
59.5646 28804 169.717
59.681 29488 171.721
59.7975 29843 172.751
59.9141 29354 171.33
60.0306 29473 171.677
60.1473 28645 169.248
60.2639 27982 167.278
60.3807 26898 164.006
60.4974 26008 161.27
60.6142 25003 158.123
60.731 24380 156.141
60.8479 23138 152.112
60.9648 22184 148.943
61.0818 21614 147.017
61.1987 21674 147.221
61.3158 22415 149.716
61.4328 22761 150.867
61.5499 23186 152.269
61.667 22836 151.116
61.7841 22835 151.113
61.9013 23375 152.889
62.0185 23714 153.994
62.1357 24235 155.676
62.253 24111 155.277
62.3702 24149 155.399
62.4875 24676 157.086
62.6049 24618 156.901
62.7222 24978 158.044
62.8396 26064 161.443
62.9569 26905 164.027
63.0743 27888 166.997
63.1918 28365 168.419
63.3092 28382 168.47
63.4267 28296 168.214
63.5441 27647 166.274
63.6616 27174 164.845
63.7791 26327 162.256
63.8966 25057 158.294
64.0142 24327 155.971
64.1317 23261 152.516
64.2492 21942 148.128
64.3668 21011 144.952
64.4843 20353 142.664
64.6019 19886 141.018
64.7195 19993 141.397
64.837 19982 141.358
64.9546 20920 144.637
65.0722 21429 146.386
65.1898 20934 144.686
65.3074 21460 146.492
65.4249 21635 147.088
65.5425 21806 147.669
65.6601 22015 148.375
65.7777 22696 150.652
65.8952 23058 151.849
66.0128 23311 152.679
66.1304 23329 152.738
66.2479 24151 155.406
66.3655 24944 157.937
66.483 25476 159.612
66.6005 26687 163.362
66.718 27119 164.678
66.8355 27173 164.842
66.953 27306 165.245
67.0705 27087 164.581
67.1879 26990 164.286
67.3054 26265 162.065
67.4228 24896 157.785
67.5402 23042 151.796
67.6576 21893 147.963
67.7749 20365 142.706
67.8923 19914 141.117
68.0096 19848 140.883
68.1269 19615 140.054
68.2442 19718 140.421
68.3614 19698 140.35
68.4787 20231 142.236
68.5958 21287 145.901
68.713 21660 147.173
68.8302 21744 147.458
68.9473 21632 147.078
69.0643 21993 148.3
69.1814 21957 148.179
69.2984 22845 151.146
69.4154 23237 152.437
69.5323 23578 153.551
69.6492 24160 155.435
69.7661 24877 157.724
69.8829 25746 160.456
69.9997 26815 163.753
70.1165 27422 165.596
70.2332 28070 167.541
70.3499 28702 169.417
70.4665 29045 170.426
70.5831 29058 170.464
70.6996 28566 169.015
70.8161 28389 168.49
70.9326 27155 164.788
71.049 24574 156.761
71.1653 22899 151.324
71.2817 21560 146.833
71.3979 20685 143.823
71.5141 19836 140.84
71.6303 19317 138.986
71.7464 18354 135.477
71.8624 0 1
71.9784 0 1
72.0944 0 1
72.2102 0 1
72.3261 0 1
72.4418 0 1
72.5575 0 1
72.6732 0 1
75.1054 0 1
75.2209 0 1
75.3365 0 1
75.4521 0 1
75.5678 0 1
75.6835 0 1
75.7993 0 1
75.9151 0 1
76.031 0 1
76.147 25350 159.217
76.263 25161 158.622
76.3791 23498 153.291
76.4952 22539 150.13
76.6113 21896 147.973
76.7276 21215 145.654
76.8438 21403 146.298
76.9601 21478 146.554
77.0765 20971 144.814
77.1929 20948 144.734
77.3093 21072 145.162
77.4258 21215 145.654
77.5423 22186 148.95
77.6589 22824 151.076
77.7755 22637 150.456
77.8921 22156 148.849
78.0088 22109 148.691
78.1256 22478 149.927
78.2423 23204 152.329
78.3591 23805 154.289
78.4759 24272 155.795
78.5928 25002 158.12
78.7097 25731 160.409
78.8266 26103 161.564
78.9436 27742 166.559
79.0606 27307 165.248
79.1776 28049 167.478
79.2946 28677 169.343
79.4117 29114 170.628
79.5288 29092 170.564
79.6459 28592 169.092
79.7631 27031 164.411
79.8802 26384 162.432
79.9974 24350 156.045
80.1147 23083 151.931
80.2319 22050 148.492
80.3491 21606 146.99
80.4664 21349 146.113
80.5837 21503 146.639
80.701 21479 146.557
80.8183 21049 145.083
80.9357 20986 144.865
81.053 21441 146.427
81.1704 22464 149.88
81.2877 22783 150.94
81.4051 23177 152.24
81.5225 22334 149.446
81.6399 21940 148.122
81.7573 22319 149.395
81.8747 22681 150.602
81.9922 23330 152.742
82.1096 24373 156.119
82.227 26014 161.289
82.3444 26592 163.071
82.4619 27882 166.979
82.5793 28501 168.822
82.6967 28209 167.955
82.8142 28714 169.452
82.9316 29270 171.085
83.049 29687 172.299
83.1664 29365 171.362
83.2838 28013 167.371
83.4012 26676 163.328
83.5186 24864 157.683
83.636 23827 154.36
83.7534 23055 151.839
83.8708 22516 150.053
83.9881 21958 148.182
84.1055 21891 147.956
84.2228 22485 149.95
84.3401 22105 148.678
84.4575 22032 148.432
84.5747 22009 148.354
84.692 23078 151.914
84.8093 24162 155.441
84.9265 24062 155.119
85.0437 23680 153.883
85.1609 23020 151.723
85.2781 23350 152.807
85.3952 23461 153.17
85.5123 24266 155.775
85.6294 25320 159.123
85.7465 26697 163.392
85.8636 28029 167.419
85.9806 28879 169.938
86.0976 29162 170.769
86.2145 29954 173.072
86.3315 30170 173.695
86.4484 30827 175.576
86.5652 31564 177.663
86.682 32131 179.251
86.7988 31415 177.243
86.9156 30423 174.422
87.0323 28544 168.95
87.149 26695 163.386
87.2657 25499 159.684
87.3823 24864 157.683
87.4988 24876 157.721
87.6154 24030 155.016
87.7318 23878 154.525
87.8483 23912 154.635
87.9647 23714 153.994
88.081 23783 154.217
88.1973 24861 157.674
88.3136 25542 159.819
88.4298 25880 160.873
88.546 25083 158.376
88.6621 24302 155.891
88.7781 23055 151.839
88.8942 0 1
89.0101 0 1
89.126 0 1
89.2419 0 1
89.3577 0 1
89.4734 0 1
89.5891 0 1
89.7047 0 1
89.8203 0 1
89.9358 0 1
92.3269 0 1
92.4424 0 1
92.558 0 1
92.6736 0 1
92.7893 0 1
92.905 0 1
93.0208 0 1
93.1366 0 1
93.2525 0 1
93.3685 0 1
93.4845 0 1
93.6005 23753 154.12
93.7167 23782 154.214
93.8328 23741 154.081
93.949 23006 151.677
94.0653 23074 151.901
94.1816 23342 152.781
94.2979 23768 154.169
94.4143 24541 156.656
94.5307 25324 159.135
94.6472 26439 162.601
94.7637 27508 165.855
94.8803 28665 169.307
94.9969 29317 171.222
95.1135 29737 172.444
95.2302 29435 171.566
95.3469 29498 171.75
95.4637 29954 173.072
95.5805 30216 173.828
95.6973 30033 173.3
95.8142 30001 173.208
95.9311 28400 168.523
96.048 27335 165.333
96.1649 26367 162.379
96.2819 25463 159.571
96.3989 25042 158.247
96.516 24497 156.515
96.633 24153 155.412
96.7501 23796 154.26
96.8673 23327 152.732
96.9844 23041 151.793
97.1016 23446 153.121
97.2188 23673 153.86
97.336 24885 157.75
97.4532 24368 156.103
97.5704 23858 154.46
97.6877 22952 151.499
97.805 23013 151.7
97.9223 22659 150.529
98.0396 23303 152.653
98.1569 23496 153.284
98.2743 24611 156.879
98.3916 25891 160.907
98.509 26931 164.107
98.6264 27405 165.545
98.7438 28041 167.454
98.8612 28405 168.538
98.9786 28638 169.228
99.096 28830 169.794
99.2134 29293 171.152
99.3308 29464 171.651
99.4482 29276 171.102
99.5656 28362 168.41
99.6831 26896 164
99.8005 26044 161.382
99.9179 24972 158.025
100.035 24196 155.551
100.153 23129 152.082
100.27 22685 150.615
100.388 22811 151.033
100.505 22759 150.861
100.622 22203 149.007
100.74 22273 149.241
100.857 22983 151.601
100.975 23478 153.225
101.092 23409 153
101.209 22625 150.416
101.327 22254 149.178
101.444 22460 149.867
101.561 22790 150.964
101.679 23206 152.335
101.796 23969 154.819
101.913 25078 158.36
102.03 26443 162.613
102.148 27990 167.302
102.265 27160 164.803
102.382 31943 178.726
102.499 29046 170.429
102.616 29274 171.096
102.733 30603 174.937
102.851 30999 176.065
102.968 31478 177.42
103.085 30399 174.353
103.202 29436 171.569
103.319 28456 168.689
103.436 26927 164.094
103.552 26352 162.333
103.669 25737 160.428
103.786 25467 159.584
103.903 24666 157.054
104.02 24495 156.509
104.137 24121 155.309
104.253 24337 156.003
104.37 24928 157.886
104.487 25300 159.06
104.603 24840 157.607
104.72 24327 155.971
104.836 24167 155.457
104.953 23883 154.541
105.069 24540 156.652
105.186 25170 158.651
105.302 26514 162.831
105.418 27504 165.843
105.535 29381 171.409
105.651 30797 175.491
105.767 30206 173.799
105.883 29865 172.815
105.999 29378 171.4
106.115 0 1
106.231 0 1
106.347 0 1
106.463 0 1
106.579 0 1
106.694 0 1
106.81 0 1
106.926 0 1
107.041 0 1
107.157 0 1
109.576 0 1
109.692 0 1
109.807 0 1
109.923 0 1
110.039 0 1
110.155 0 1
110.27 0 1
110.386 0 1
110.502 0 1
110.618 24992 158.089
110.735 26756 163.573
110.851 26878 163.945
110.967 25984 161.196
111.083 25584 159.95
111.199 26475 162.711
111.316 27475 165.756
111.432 28149 167.777
111.549 28133 167.729
111.665 26976 164.244
111.782 25935 161.043
111.898 24974 158.032
112.015 24287 155.843
112.132 23457 153.157
112.248 23076 151.908
112.365 22149 148.825
112.482 22045 148.476
112.599 20968 144.803
112.716 20495 143.161
112.832 20508 143.206
112.949 20118 141.838
113.066 19694 140.335
113.183 19210 138.6
113.3 18761 136.971
113.417 18947 137.648
113.534 19203 138.575
113.652 19716 140.414
113.769 20316 142.534
113.886 20930 144.672
114.003 21234 145.719
114.12 21944 148.135
114.238 22524 150.08
114.355 22343 149.476
114.472 21576 146.888
114.589 20434 142.948
114.707 21185 145.551
114.824 22094 148.641
114.942 23052 151.829
115.059 22763 150.874
115.176 22215 149.047
115.294 21331 146.051
115.411 20630 143.631
115.529 20019 141.489
115.646 19303 138.935
115.764 18611 136.422
115.881 17881 133.72
115.999 17473 132.185
116.116 16748 129.414
116.234 16333 127.801
116.351 15889 126.052
116.469 15738 125.451
116.586 15235 123.43
116.704 15069 122.756
116.821 14966 122.336
116.939 14988 122.425
117.056 15366 123.96
117.174 15965 126.353
117.291 16386 128.008
117.409 16937 130.142
117.526 16992 130.353
117.644 17352 131.727
117.761 17785 133.36
117.879 18061 134.391
117.996 17615 132.722
118.114 16980 130.307
118.231 17068 130.645
118.349 17572 132.559
118.466 18896 137.463
118.584 19804 140.727
118.701 19373 139.187
118.819 19051 138.025
118.936 18955 137.677
119.053 18739 136.89
119.171 18689 136.708
119.288 18351 135.466
119.405 17717 133.105
119.523 17543 132.45
119.64 16764 129.476
119.757 16718 129.298
119.875 16427 128.168
119.992 16002 126.499
120.109 15964 126.349
120.226 15680 125.22
120.343 15869 125.972
120.46 16182 127.208
120.578 16216 127.342
120.695 16870 129.885
120.812 17398 131.901
120.929 18106 134.559
121.046 18498 136.007
121.163 18588 136.338
121.279 19259 138.777
121.396 19605 140.018
121.513 20152 141.958
121.63 19766 140.592
121.747 18921 137.554
121.863 17463 132.148
121.98 18345 135.444
122.097 20262 142.345
122.213 21764 147.526
122.33 22240 149.131
122.446 22490 149.967
122.563 22308 149.359
122.679 22317 149.389
122.795 21774 147.56
122.912 21742 147.452
123.028 21025 145
123.144 20913 144.613
123.26 20385 142.776
123.377 0 1
123.493 0 1
123.609 0 1
123.725 0 1
123.84 0 1
123.956 0 1
124.072 0 1
124.188 0 1
124.303 0 1
124.419 0 1
126.852 0 1
126.968 0 1
127.083 0 1
127.199 0 1
127.315 0 1
127.431 0 1
127.547 0 1
127.663 0 1
127.779 0 1
127.895 0 1
128.011 0 1
128.127 0 1
128.243 0 1
128.359 24845 157.623
128.476 24414 156.25
128.592 23376 152.892
128.708 23179 152.247
128.825 22747 150.821
128.941 22264 149.211
129.058 21636 147.092
129.174 21147 145.42
129.291 20912 144.61
129.408 20857 144.42
129.524 20797 144.212
129.641 20593 143.503
129.758 20935 144.689
129.875 21039 145.048
129.992 21418 146.349
130.108 21669 147.204
130.225 21442 146.431
130.342 21929 148.084
130.459 22126 148.748
130.576 21268 145.836
130.693 18864 137.346
130.81 16433 128.191
130.928 16949 130.188
131.045 19991 141.39
131.162 21703 147.319
131.279 22127 148.751
131.396 21915 148.037
131.513 22314 149.379
131.631 22154 148.842
131.748 22170 148.896
131.865 21483 146.571
131.983 21517 146.687
132.1 21098 145.252
132.217 20578 143.45
132.335 20260 142.338
132.452 19864 140.94
132.57 19358 139.133
132.687 18273 135.178
132.804 19299 138.921
132.922 18604 136.396
133.039 18105 134.555
133.157 18370 135.536
133.274 18375 135.554
133.392 18670 136.638
133.509 18603 136.393
133.627 18521 136.092
133.744 18397 135.636
133.862 18731 136.861
133.979 18468 135.897
134.097 17850 133.604
134.214 16117 126.953
134.332 13230 115.022
134.449 13623 116.718
134.567 15816 125.762
134.684 17833 133.54
134.802 17824 133.507
134.919 17907 133.817
135.037 18052 134.358
135.154 17787 133.368
135.272 17432 132.03
135.389 17562 132.522
135.507 17198 131.141
135.624 16996 130.369
135.742 16679 129.147
135.859 16129 127
135.977 16051 126.693
136.094 15640 125.06
136.211 15159 123.122
136.329 15111 122.927
136.446 15180 123.207
136.564 14820 121.737
136.681 14366 119.858
136.798 14659 121.074
136.915 14700 121.244
137.033 14244 119.348
137.15 14399 119.996
137.267 14496 120.399
137.384 14600 120.83
137.502 14785 121.594
137.619 14413 120.054
137.736 13901 117.903
137.853 11907 109.119
137.97 10965 104.714
138.087 11572 107.573
138.204 13744 117.235
138.321 15023 122.568
138.438 15502 124.507
138.555 15742 125.467
138.672 15761 125.543
138.788 15781 125.622
138.905 16188 127.232
139.022 16099 126.882
139.139 16260 127.515
139.255 16137 127.031
139.372 16136 127.028
139.488 16337 127.816
139.605 16239 127.432
139.721 16163 127.134
139.838 16370 127.945
139.954 16330 127.789
140.071 15959 126.329
140.187 16288 127.624
140.303 16105 126.905
140.419 16097 126.874
140.535 16146 127.067
140.652 15979 126.408
140.768 0 1
140.884 0 1
141 0 1
141.115 0 1
141.231 0 1
141.347 0 1
141.463 0 1
141.578 0 1
141.694 0 1
144.104 0 1
144.219 0 1
144.335 0 1
144.45 0 1
144.566 0 1
144.682 0 1
144.798 0 1
144.914 0 1
145.03 0 1
145.146 13439 115.927
145.262 13449 115.97
145.378 13264 115.169
145.494 13146 114.656
145.61 12641 112.432
145.726 12590 112.205
145.842 12676 112.588
145.959 12408 111.391
146.075 12565 112.094
146.192 12584 112.178
146.308 12179 110.359
146.425 11709 108.208
146.541 11147 105.579
146.658 10447 102.211
146.774 10425 102.103
146.891 10991 104.838
147.008 11470 107.098
147.125 11748 108.388
147.241 11719 108.254
147.358 11675 108.051
147.475 11557 107.503
147.592 11168 105.679
147.709 11097 105.342
147.826 10959 104.685
147.943 10943 104.609
148.06 10759 103.726
148.177 10545 102.689
148.294 10644 103.17
148.411 10486 102.401
148.528 10364 101.804
148.645 10185 100.921
148.762 9968 99.8399
148.88 9951 99.7547
148.997 9578 97.8673
149.114 8944 94.5727
149.231 9214 95.9896
149.349 9100 95.3939
149.466 9448 97.2008
149.583 9205 95.9427
149.701 9104 95.4149
149.818 9005 94.8947
149.935 9164 95.7288
150.053 8942 94.5621
150.17 9144 95.6243
150.287 9038 95.0684
150.405 9013 94.9368
150.522 9188 95.8541
150.64 9587 97.9132
150.757 9701 98.4937
150.875 9800 98.9949
150.992 9836 99.1766
151.11 10039 100.195
151.227 10152 100.757
151.344 9780 98.8939
151.462 9963 99.8148
151.579 9850 99.2472
151.697 9731 98.6458
151.814 9855 99.2724
151.932 10027 100.135
152.049 10151 100.752
152.167 9977 99.8849
152.284 9858 99.2875
152.402 9666 98.3158
152.519 9626 98.1122
152.636 9678 98.3768
152.754 9740 98.6914
152.871 9829 99.1413
152.989 9859 99.2925
153.106 10071 100.354
153.223 9909 99.544
153.341 9917 99.5841
153.458 9593 97.9439
153.575 9658 98.2751
153.693 9886 99.4284
153.81 10158 100.787
153.927 10905 104.427
154.044 11180 105.736
154.162 11283 106.221
154.279 11653 107.949
154.396 12184 110.381
154.513 12302 110.914
154.63 12777 113.035
154.747 12605 112.272
154.864 13008 114.053
154.981 12665 112.539
155.098 12744 112.889
155.215 12902 113.587
155.332 12791 113.097
155.449 12617 112.325
155.566 12689 112.645
155.683 12479 111.709
155.8 12143 110.195
155.917 11999 109.54
156.033 11608 107.74
156.15 0 1
156.267 0 1
156.383 0 1
156.5 0 1
156.617 0 1
156.733 0 1
156.85 0 1
156.966 0 1
157.082 0 1
157.199 0 1
157.315 0 1
157.431 0 1
157.547 0 1
157.664 0 1
157.78 0 1
157.896 0 1
158.012 0 1
158.128 0 1
158.244 0 1
158.359 0 1
158.475 0 1
158.591 0 1
158.706 0 1
