
6.15755 0 1
6.2731 0 1
6.3887 0 1
6.50437 0 1
6.62009 0 1
6.73587 0 1
6.8517 0 1
6.96759 0 1
7.08353 0 1
7.19952 0 1
7.31557 0 1
7.43166 0 1
7.54781 0 1
7.664 0 1
7.78024 0 1
7.89653 0 1
8.01286 0 1
8.12924 0 1
8.24567 0 1
8.36213 0 1
8.47864 0 1
8.59519 0 1
8.71178 0 1
8.82841 0 1
8.94508 0 1
9.06179 0 1
9.17853 0 1
9.29531 0 1
9.41212 0 1
9.52897 0 1
9.64584 0 1
9.76276 0 1
9.8797 0 1
9.99667 0 1
10.1137 0 1
10.2307 0 1
10.3478 0 1
10.4648 0 1
10.5819 0 1
10.6991 0 1
10.8162 0 1
10.9334 0 1
11.0506 0 1
11.1678 0 1
11.285 0 1
11.4023 0 1
11.5196 0 1
11.6369 0 1
11.7542 0 1
11.8715 0 1
11.9888 0 1
12.1062 0 1
12.2235 0 1
12.3409 0 1
12.4582 0 1
12.5756 0 1
12.693 0 1
12.8104 0 1
12.9278 0 1
13.0452 0 1
13.1626 0 1
13.28 0 1
13.3974 0 1
13.5149 0 1
13.6323 0 1
13.7497 0 1
13.8671 0 1
13.9845 0 1
14.1019 0 1
14.2193 0 1
14.3367 0 1
14.4541 0 1
14.5714 0 1
14.6888 0 1
14.8062 0 1
14.9235 0 1
15.0408 0 0
15.1581 0 0
15.2755 0 0
15.3927 0 0
15.51 0 0
15.6273 0 0
15.7445 0 0
15.8617 0 0
15.9789 0 0
16.0961 0 0
16.2132 0 0
16.3304 0 0
16.4475 0 0
16.5646 0 0
16.6816 0 0
16.7986 0 0
16.9156 0 0
17.0326 0 0
17.1496 0 0
17.2665 0 0
17.3833 0 0
17.5002 0 0
17.617 0 0
17.7338 0 0
17.8505 0 0
17.9672 0 0
18.0839 0 0
18.2005 0 0
18.3171 0 0
18.4337 0 0
18.5502 0 0
18.6666 0 0
18.7831 0 0
18.8994 0 0
19.0158 0 0
19.1321 0 0
19.2483 0 0
19.3645 0 0
19.4806 0 0
19.5967 0 0
19.7128 0 0
19.8288 0 0
19.9447 0 0
20.0606 0 1
20.1764 0 1
20.2922 0 1
20.4079 0 1
20.5236 0 1
20.6392 0 1
20.7548 0 1
20.8702 0 1
23.3078 0 1
23.4233 0 1
23.539 0 1
23.6547 0 1
23.7704 0 1
23.8862 0 1
24.0021 0 1
24.118 0 1
24.234 0 1
24.35 0 1
24.4661 5902 76.8245
24.5822 6112 78.1793
24.6984 6065 77.8781
24.8146 6041 77.7239
24.9309 6288 79.2969
25.0472 6354 79.712
25.1636 6434 80.2122
25.28 6563 81.0123
25.3965 6585 81.148
25.513 6725 82.0061
25.6296 6911 83.1324
25.7462 6890 83.006
25.8628 7046 83.9405
25.9795 6802 82.4742
26.0962 6730 82.0366
26.213 6828 82.6317
26.3298 6762 82.2314
26.4466 6725 82.0061
26.5635 6526 80.7837
26.6804 6421 80.1311
26.7973 6301 79.3788
26.9143 6262 79.1328
27.0313 6121 78.2368
27.1483 6381 79.8812
27.2653 6438 80.2371
27.3824 6519 80.7403
27.4996 6511 80.6908
27.6167 6521 80.7527
27.7339 6138 78.3454
27.8511 6068 77.8974
27.9683 5919 76.935
28.0855 5922 76.9545
28.2028 5929 77
28.3201 5796 76.1315
28.4374 5997 77.4403
28.5547 5990 77.3951
28.6721 6260 79.1202
28.7894 6363 79.7684
28.9068 6382 79.8874
29.0242 6347 79.6681
29.1416 6439 80.2434
29.259 6356 79.7245
29.3764 6362 79.7621
29.4939 6367 79.7935
29.6113 6639 81.4801
29.7288 6611 81.3081
29.8463 6496 80.5978
29.9638 6354 79.712
30.0812 6389 79.9312
30.1987 6469 80.4301
30.3162 6156 78.4602
30.4337 6044 77.7432
30.5512 6130 78.2943
30.6687 5979 77.324
30.7862 6073 77.9295
30.9037 6224 78.8923
31.0212 6176 78.5875
31.1387 6295 79.341
31.2562 6246 79.0316
31.3737 6148 78.4092
31.4912 5853 76.5049
31.6087 5889 76.7398
31.7262 5856 76.5245
31.8436 6022 77.6015
31.9611 5957 77.1816
32.0785 6165 78.5175
32.1959 6085 78.0064
32.3134 6327 79.5424
32.4308 6176 78.5875
32.5482 6259 79.1138
32.6655 6129 78.2879
32.7829 6168 78.5366
32.9002 6249 79.0506
33.0176 6151 78.4283
33.1349 6337 79.6053
33.2522 6421 80.1311
33.3694 6428 80.1748
33.4867 6460 80.3741
33.6039 6331 79.5676
33.7211 6357 79.7308
33.8383 6153 78.4411
33.9554 6103 78.1217
34.0725 6106 78.1409
34.1896 5858 76.5376
34.3067 5881 76.6877
34.4237 5941 77.0779
34.5407 6078 77.9615
34.6577 5985 77.3628
34.7746 5999 77.4532
34.8915 6051 77.7882
35.0084 5937 77.0519
35.1252 5817 76.2693
35.242 5727 75.6769
35.3587 5812 76.2365
35.4755 5787 76.0723
35.5921 6058 77.8332
35.7088 6068 77.8974
35.8254 6156 78.4602
35.9419 6097 78.0833
36.0584 6050 77.7817
36.1749 6154 78.4474
36.2913 6174 78.5748
36.4077 6098 78.0897
36.524 6087 78.0192
36.6403 6233 78.9494
36.7565 6227 78.9113
36.8727 6232 78.943
36.9889 6286 79.2843
37.1049 6075 77.9423
37.221 0 1
37.3369 0 1
37.4529 0 1
37.5687 0 1
37.6845 0 1
37.8003 0 1
37.916 0 1
38.0316 0 1
38.1472 0 1
40.5851 0 1
40.7008 0 1
40.8164 0 1
40.9322 0 1
41.048 0 1
41.1639 0 1
41.2798 0 1
41.3958 0 1
41.5118 0 1
41.6279 0 1
41.744 4801 69.2892
41.8602 5095 71.3793
41.9765 5227 72.298
42.0928 5311 72.8766
42.2091 5238 72.374
42.3255 5328 72.9932
42.4419 5177 71.9514
42.5584 5460 73.8918
42.675 5338 73.0616
42.7915 5324 72.9657
42.9081 5240 72.3878
43.0248 5070 71.2039
43.1415 5113 71.5052
43.2582 5089 71.3372
43.375 5056 71.1056
43.4918 5198 72.0972
43.6087 5192 72.0555
43.7256 4865 69.7496
43.8425 5055 71.0985
43.9595 4949 70.3491
44.0765 4799 69.2748
44.1935 4907 70.05
44.3106 4954 70.3847
44.4277 5058 71.1196
44.5448 4800 69.282
44.6619 4983 70.5904
44.7791 4819 69.419
44.8963 4675 68.374
45.0136 4632 68.0588
45.1308 4628 68.0294
45.2481 4464 66.8132
45.3654 4643 68.1396
45.4827 4413 66.4304
45.6001 4562 67.5426
45.7174 4550 67.4537
45.8348 4693 68.5055
45.9522 4711 68.6367
46.0697 4676 68.3813
46.1871 4488 66.9925
46.3046 4600 67.8233
46.422 4451 66.7158
46.5395 4437 66.6108
46.657 4326 65.7723
46.7745 4243 65.1383
46.892 4220 64.9615
47.0096 4274 65.3758
47.1271 4320 65.7267
47.2446 4201 64.8151
47.3622 4194 64.7611
47.4797 4022 63.4192
47.5973 4009 63.3167
47.7149 4018 63.3877
47.8324 4048 63.6239
47.95 4194 64.7611
48.0675 4027 63.4586
48.1851 3890 62.3699
48.3027 3781 61.4898
48.4202 3659 60.4897
48.5378 3663 60.5227
48.6554 3592 59.9333
48.7729 3573 59.7746
48.8904 3721 61
49.008 3746 61.2046
49.1255 3799 61.636
49.243 3844 62
49.3605 3968 62.9921
49.478 4005 63.2851
49.5955 4116 64.1561
49.713 4141 64.3506
49.8304 4318 65.7115
49.9479 4279 65.4141
50.0653 4335 65.8407
50.1827 4063 63.7417
50.3001 4016 63.3719
50.4175 4147 64.3972
50.5348 4272 65.3605
50.6521 4480 66.9328
50.7694 4634 68.0735
50.8867 4620 67.9706
51.004 4618 67.9559
51.1212 4748 68.9057
51.2384 4945 70.3207
51.3556 5102 71.4283
51.4727 5145 71.7287
51.5899 5328 72.9932
51.707 5290 72.7324
51.824 5200 72.111
51.9411 5070 71.2039
52.0581 5037 70.9718
52.175 5022 70.8661
52.2919 5083 71.2952
52.4088 5197 72.0902
52.5257 5281 72.6705
52.6425 5236 72.3602
52.7593 5456 73.8647
52.876 5697 75.4785
52.9927 5756 75.8683
53.1094 5862 76.5637
53.226 5977 77.3111
53.3426 6269 79.177
53.4591 6232 78.943
53.5756 6156 78.4602
53.692 6270 79.1833
53.8084 6194 78.702
53.9248 5986 77.3692
54.0411 5872 76.629
54.1573 5993 77.4145
54.2735 0 1
54.3896 0 1
54.5057 0 1
54.6217 0 1
54.7377 0 1
54.8537 0 1
54.9695 0 1
55.0853 0 1
55.2011 0 1
55.3168 0 1
55.4324 0 1
57.824 0 1
57.9396 0 1
58.0553 0 1
58.1711 0 1
58.2869 0 1
58.4028 0 1
58.5187 0 1
58.6347 0 1
58.7508 0 1
58.8669 0 1
58.983 7226 85.0059
59.0992 7117 84.3623
59.2155 7063 84.0417
59.3318 7154 84.5813
59.4482 7234 85.0529
59.5646 7323 85.5745
59.681 7378 85.8953
59.7975 7449 86.3076
59.9141 7517 86.7006
60.0306 7599 87.1722
60.1473 7329 85.6096
60.2639 7229 85.0235
60.3807 7085 84.1724
60.4974 7082 84.1546
60.6142 6759 82.2131
60.731 6731 82.0427
60.8479 6703 81.8719
60.9648 6598 81.2281
61.0818 6683 81.7496
61.1987 6708 81.9024
61.3158 6915 83.1565
61.4328 6754 82.1827
61.5499 6793 82.4197
61.667 6874 82.9096
61.7841 6886 82.9819
61.9013 7032 83.857
62.0185 6960 83.4266
62.1357 6985 83.5763
62.253 6970 83.4865
62.3702 6993 83.6242
62.4875 6964 83.4506
62.6049 6775 82.3104
62.7222 6793 82.4197
62.8396 6821 82.5893
62.9569 6992 83.6182
63.0743 6884 82.9699
63.1918 7014 83.7496
63.3092 6932 83.2586
63.4267 7201 84.8587
63.5441 6910 83.1264
63.6616 6773 82.2982
63.7791 6653 81.5659
63.8966 6593 81.1973
64.0142 6476 80.4736
64.1317 6506 80.6598
64.2492 6297 79.3536
64.3668 6009 77.5177
64.4843 5967 77.2464
64.6019 6098 78.0897
64.7195 6127 78.2752
64.837 6243 79.0127
64.9546 6192 78.6893
65.0722 6219 78.8606
65.1898 6343 79.643
65.3074 6281 79.2528
65.4249 6229 78.924
65.5425 6377 79.8561
65.6601 6559 80.9877
65.7777 6542 80.8826
65.8952 6568 81.0432
66.0128 6615 81.3327
66.1304 6421 80.1311
66.2479 6313 79.4544
66.3655 6293 79.3284
66.483 6424 80.1499
66.6005 6540 80.8703
66.718 6604 81.265
66.8355 6655 81.5782
66.953 6742 82.1097
67.0705 6829 82.6378
67.1879 6544 80.895
67.3054 6336 79.599
67.4228 6149 78.4156
67.5402 6055 77.8139
67.6576 6084 78
67.7749 5891 76.7529
67.8923 6018 77.5758
68.0096 5805 76.1906
68.1269 5976 77.3046
68.2442 6178 78.6003
68.3614 6339 79.6178
68.4787 6407 80.0437
68.5958 6538 80.8579
68.713 6264 79.1454
68.8302 6338 79.6116
68.9473 6351 79.6932
69.0643 6484 80.5233
69.1814 6528 80.796
69.2984 6591 81.185
69.4154 6676 81.7068
69.5323 6578 81.1049
69.6492 6751 82.1645
69.7661 6905 83.0963
69.8829 6694 81.8169
69.9997 6600 81.2404
70.1165 6664 81.6333
70.2332 6780 82.3408
70.3499 6689 81.7863
70.4665 6935 83.2766
70.5831 6973 83.5045
70.6996 6750 82.1584
70.8161 6423 80.1436
70.9326 6397 79.9812
71.049 6332 79.5739
71.1653 6115 78.1985
71.2817 6080 77.9744
71.3979 5974 77.2917
71.5141 5872 76.629
71.6303 5903 76.831
71.7464 5589 74.7596
71.8624 0 1
71.9784 0 1
72.0944 0 1
72.2102 0 1
72.3261 0 1
72.4418 0 1
72.5575 0 1
72.6732 0 1
75.1054 0 1
75.2209 0 1
75.3365 0 1
75.4521 0 1
75.5678 0 1
75.6835 0 1
75.7993 0 1
75.9151 0 1
76.031 0 1
76.147 6011 77.5306
76.263 6108 78.1537
76.3791 6136 78.3326
76.4952 6098 78.0897
76.6113 6328 79.5487
76.7276 6358 79.7371
76.8438 6365 79.781
76.9601 6405 80.0312
77.0765 6376 79.8499
77.1929 6552 80.9444
77.3093 6936 83.2827
77.4258 7033 83.863
77.5423 7246 85.1234
77.6589 6972 83.4985
77.7755 6846 82.7406
77.8921 6932 83.2586
78.0088 6875 82.9156
78.1256 6962 83.4386
78.2423 6973 83.5045
78.3591 7022 83.7974
78.4759 7128 84.4275
78.5928 7286 85.3581
78.7097 7485 86.5159
78.8266 8053 89.7385
78.9436 7260 85.2056
79.0606 6803 82.4803
79.1776 6211 78.8099
79.2946 6716 81.9512
79.4117 7511 86.666
79.5288 8023 89.5712
79.6459 7945 89.1347
79.7631 7571 87.0115
79.8802 7255 85.1763
79.9974 7115 84.3505
80.1147 6944 83.3307
80.2319 6982 83.5584
80.3491 6764 82.2435
80.4664 6611 81.3081
80.5837 6694 81.8169
80.701 6649 81.5414
80.8183 6712 81.9268
80.9357 6783 82.359
81.053 7080 84.1427
81.1704 7101 84.2674
81.2877 6878 82.9337
81.4051 6730 82.0366
81.5225 6593 81.1973
81.6399 6283 79.2654
81.7573 6453 80.3306
81.8747 6409 80.0562
81.9922 6346 79.6618
82.1096 6321 79.5047
82.227 6477 80.4798
82.3444 6568 81.0432
82.4619 6782 82.3529
82.5793 6644 81.5107
82.6967 6203 78.7591
82.8142 5345 73.1095
82.9316 5688 75.4188
83.049 6325 79.5299
83.1664 6265 79.1518
83.2838 6075 77.9423
83.4012 5817 76.2693
83.5186 5586 74.7395
83.636 5309 72.8629
83.7534 5353 73.1642
83.8708 5203 72.1318
83.9881 5221 72.2565
84.1055 5126 71.5961
84.2228 5093 71.3653
84.3401 5167 71.8818
84.4575 5162 71.8471
84.5747 5437 73.736
84.692 5539 74.4245
84.8093 5459 73.885
84.9265 5328 72.9932
85.0437 4880 69.857
85.1609 4866 69.7567
85.2781 4919 70.1356
85.3952 4947 70.3349
85.5123 4724 68.7314
85.6294 4855 69.6778
85.7465 4840 69.5701
85.8636 5012 70.7955
85.9806 5231 72.3257
86.0976 5420 73.6206
86.2145 5372 73.2939
86.3315 4773 69.0869
86.4484 4744 68.8767
86.5652 5108 71.4703
86.682 5396 73.4575
86.7988 5302 72.8148
86.9156 4805 69.3181
87.0323 4746 68.8912
87.149 4485 66.9701
87.2657 4455 66.7458
87.3823 4430 66.5582
87.4988 4371 66.1135
87.6154 4381 66.1891
87.7318 4283 65.4446
87.8483 4295 65.5362
87.9647 4325 65.7647
88.081 4834 69.527
88.1973 5124 71.5821
88.3136 5167 71.8818
88.4298 5053 71.0845
88.546 4573 67.624
88.6621 4531 67.3127
88.7781 4522 67.2458
88.8942 0 1
89.0101 0 1
89.126 0 1
89.2419 0 1
89.3577 0 1
89.4734 0 1
89.5891 0 1
89.7047 0 1
89.8203 0 1
89.9358 0 1
92.3269 0 1
92.4424 0 1
92.558 0 1
92.6736 0 1
92.7893 0 1
92.905 0 1
93.0208 0 1
93.1366 0 1
93.2525 0 1
93.3685 0 1
93.4845 0 1
93.6005 5725 75.6637
93.7167 5991 77.4016
93.8328 6040 77.7174
93.949 5927 76.987
94.0653 5850 76.4853
94.1816 5849 76.4788
94.2979 5899 76.8049
94.4143 5726 75.6703
94.5307 5849 76.4788
94.6472 5756 75.8683
94.7637 6089 78.032
94.8803 6164 78.5111
94.9969 6274 79.2086
95.1135 6527 80.7899
95.2302 6765 82.2496
95.3469 6562 81.0062
95.4637 6239 78.9873
95.5805 5995 77.4274
95.6973 5931 77.013
95.8142 6452 80.3243
95.9311 6975 83.5165
96.048 6752 82.1706
96.1649 6424 80.1499
96.2819 6264 79.1454
96.3989 6317 79.4796
96.516 6210 78.8036
96.633 6168 78.5366
96.7501 6165 78.5175
96.8673 6186 78.6511
96.9844 6126 78.2688
97.1016 6212 78.8162
97.2188 6177 78.5939
97.336 6672 81.6823
97.4532 6894 83.0301
97.5704 6651 81.5537
97.6877 6795 82.4318
97.805 6662 81.6211
97.9223 6358 79.7371
98.0396 6383 79.8937
98.1569 6416 80.0999
98.2743 6116 78.2049
98.3916 6386 79.9125
98.509 6465 80.4052
98.6264 6480 80.4984
98.7438 6864 82.8493
98.8612 6798 82.45
98.9786 6913 83.1445
99.096 6481 80.5047
99.2134 6270 79.1833
99.3308 6480 80.4984
99.4482 7072 84.0952
99.5656 7269 85.2584
99.6831 7292 85.3932
99.8005 6863 82.8432
99.9179 6640 81.4862
100.035 6334 79.5864
100.153 6332 79.5739
100.27 6364 79.7747
100.388 6279 79.2401
100.505 6198 78.7274
100.622 6150 78.4219
100.74 6309 79.4292
100.857 6320 79.4984
100.975 6661 81.6149
101.092 6945 83.3367
101.209 6987 83.5883
101.327 6680 81.7313
101.444 6461 80.3803
101.561 6434 80.2122
101.679 6668 81.6578
101.796 6375 79.8436
101.913 6623 81.3818
102.03 6605 81.2712
102.148 6834 82.668
102.265 7329 85.6096
102.382 6870 82.8855
102.499 7202 84.8646
102.616 6793 82.4197
102.733 6519 80.7403
102.851 6859 82.8191
102.968 7001 83.672
103.085 7460 86.3713
103.202 7242 85.0999
103.319 6832 82.6559
103.436 6661 81.6149
103.552 6651 81.5537
103.669 6402 80.0125
103.786 6359 79.7433
103.903 6180 78.613
104.02 6019 77.5822
104.137 6057 77.8267
104.253 6237 78.9747
104.37 6075 77.9423
104.487 6386 79.9125
104.603 6539 80.8641
104.72 6564 81.0185
104.836 6372 79.8248
104.953 6036 77.6917
105.069 5980 77.3305
105.186 5948 77.1233
105.302 5987 77.3757
105.418 6106 78.1409
105.535 6129 78.2879
105.651 6092 78.0513
105.767 6363 79.7684
105.883 6524 80.7713
105.999 6634 81.4494
106.115 0 1
106.231 0 1
106.347 0 1
106.463 0 1
106.579 0 1
106.694 0 1
106.81 0 1
106.926 0 1
107.041 0 1
107.157 0 1
109.576 0 1
109.692 0 1
109.807 0 1
109.923 0 1
110.039 0 1
110.155 0 1
110.27 0 1
110.386 0 1
110.502 0 1
110.618 4314 65.681
110.735 4567 67.5796
110.851 4804 69.3109
110.967 5046 71.0352
111.083 5244 72.4155
111.199 5164 71.861
111.316 4983 70.5904
111.432 4860 69.7137
111.549 4704 68.5857
111.665 4483 66.9552
111.782 4440 66.6333
111.898 4245 65.1537
112.015 3968 62.9921
112.132 3948 62.8331
112.248 3776 61.4492
112.365 3574 59.7829
112.482 3452 58.7537
112.599 3248 56.9912
112.716 3335 57.7495
112.832 3319 57.6108
112.949 3176 56.356
113.066 3199 56.5597
113.183 3050 55.2268
113.3 3200 56.5685
113.417 3163 56.2406
113.534 3110 55.7674
113.652 3091 55.5968
113.769 3134 55.9821
113.886 3197 56.542
114.003 3329 57.6975
114.12 3285 57.3149
114.238 3315 57.576
114.355 3478 58.9746
114.472 3666 60.5475
114.589 3869 62.2013
114.707 3835 61.9274
114.824 3950 62.849
114.942 3916 62.578
115.059 3809 61.7171
115.176 3640 60.3324
115.294 3658 60.4814
115.411 3504 59.1946
115.529 3171 56.3116
115.646 3147 56.0981
115.764 3043 55.1634
115.881 2995 54.7266
115.999 2954 54.3507
116.116 2785 52.7731
116.234 2756 52.4976
116.351 2608 51.0686
116.469 2659 51.5655
116.586 2814 53.0471
116.704 2790 52.8205
116.821 2687 51.8363
116.939 2723 52.1824
117.056 2694 51.9038
117.174 2755 52.4881
117.291 2863 53.507
117.409 3022 54.9727
117.526 3033 55.0727
117.644 3242 56.9386
117.761 3333 57.7321
117.879 3298 57.4282
117.996 3277 57.2451
118.114 3589 59.9083
118.231 3742 61.1719
118.349 3946 62.8172
118.466 4031 63.4902
118.584 4037 63.5374
118.701 3962 62.9444
118.819 3811 61.7333
118.936 3589 59.9083
119.053 3500 59.1608
119.171 3489 59.0678
119.288 3295 57.4021
119.405 3308 57.5152
119.523 3144 56.0714
119.64 3165 56.2583
119.757 3037 55.109
119.875 2951 54.3231
119.992 2824 53.1413
120.109 2789 52.811
120.226 2673 51.7011
120.343 2659 51.5655
120.46 2641 51.3907
120.578 2733 52.2781
120.695 2706 52.0192
120.812 2823 53.1319
120.929 3139 56.0268
121.046 3193 56.5066
121.163 3437 58.6259
121.279 3537 59.4727
121.396 3529 59.4054
121.513 3600 60
121.63 3427 58.5406
121.747 3384 58.1722
121.863 3453 58.7622
121.98 3662 60.5145
122.097 3952 62.8649
122.213 4054 63.671
122.33 4267 65.3223
122.446 4253 65.215
122.563 4017 63.3798
122.679 3880 62.2896
122.795 3719 60.9836
122.912 3763 61.3433
123.028 3713 60.9344
123.144 3634 60.2827
123.26 3524 59.3633
123.377 0 1
123.493 0 1
123.609 0 1
123.725 0 1
123.84 0 1
123.956 0 1
124.072 0 1
124.188 0 1
124.303 0 1
124.419 0 1
126.852 0 1
126.968 0 1
127.083 0 1
127.199 0 1
127.315 0 1
127.431 0 1
127.547 0 1
127.663 0 1
127.779 0 1
127.895 0 1
128.011 0 1
128.127 0 1
128.243 0 1
128.359 4580 67.6757
128.476 4470 66.8581
128.592 4495 67.0448
128.708 4420 66.4831
128.825 4209 64.8768
128.941 4093 63.9766
129.058 4142 64.3584
129.174 3829 61.8789
129.291 3754 61.2699
129.408 3793 61.5873
129.524 3736 61.1228
129.641 3804 61.6766
129.758 4035 63.5216
129.875 4334 65.8331
129.992 4346 65.9242
130.108 4551 67.4611
130.225 4669 68.3301
130.342 4769 69.0579
130.459 4467 66.8356
130.576 4538 67.3647
130.693 4242 65.1306
130.81 4100 64.0312
130.928 4242 65.1306
131.045 4690 68.4836
131.162 4946 70.3278
131.279 5265 72.5603
131.396 5174 71.9305
131.513 5198 72.0972
131.631 5252 72.4707
131.748 5227 72.298
131.865 5062 71.1477
131.983 4909 70.0643
132.1 4972 70.5124
132.217 4856 69.685
132.335 4952 70.3704
132.452 4748 68.9057
132.57 4527 67.283
132.687 4294 65.5286
132.804 4332 65.8179
132.922 4194 64.7611
133.039 4332 65.8179
133.157 4298 65.5591
133.274 4514 67.1863
133.392 4749 68.913
133.509 4811 69.3614
133.627 4970 70.4982
133.744 5204 72.1388
133.862 5139 71.6868
133.979 5145 71.7287
134.097 4880 69.857
134.214 4753 68.942
134.332 4691 68.4909
134.449 4787 69.1881
134.567 4882 69.8713
134.684 5280 72.6636
134.802 5600 74.8331
134.919 5800 76.1577
135.037 5869 76.6094
135.154 5909 76.87
135.272 5981 77.3369
135.389 5931 77.013
135.507 5866 76.5898
135.624 5644 75.1266
135.742 5729 75.6902
135.859 5633 75.0533
135.977 5621 74.9733
136.094 5481 74.0338
136.211 5284 72.6911
136.329 4980 70.5691
136.446 4852 69.6563
136.564 4899 69.9929
136.681 4967 70.4769
136.798 5053 71.0845
136.915 5238 72.374
137.033 5587 74.7462
137.15 5980 77.3305
137.267 5992 77.408
137.384 6115 78.1985
137.502 5933 77.026
137.619 5829 76.3479
137.736 5794 76.1183
137.853 5568 74.619
137.97 5480 74.027
138.087 5776 76
138.204 5902 76.8245
138.321 6091 78.0449
138.438 6453 80.3306
138.555 6632 81.4371
138.672 6681 81.7374
138.788 6726 82.0122
138.905 6888 82.994
139.022 7007 83.7078
139.139 6809 82.5167
139.255 6905 83.0963
139.372 6752 82.1706
139.488 6640 81.4862
139.605 6450 80.3119
139.721 6423 80.1436
139.838 6356 79.7245
139.954 6063 77.8653
140.071 5667 75.2795
140.187 5833 76.3741
140.303 5839 76.4133
140.419 5908 76.8635
140.535 5795 76.1249
140.652 5808 76.2102
140.768 0 1
140.884 0 1
141 0 1
141.115 0 1
141.231 0 1
141.347 0 1
141.463 0 1
141.578 0 1
141.694 0 1
144.104 0 1
144.219 0 1
144.335 0 1
144.45 0 1
144.566 0 1
144.682 0 1
144.798 0 1
144.914 0 1
145.03 0 1
145.146 5657 75.213
145.262 5762 75.9078
145.378 5587 74.7462
145.494 5771 75.9671
145.61 5735 75.7298
145.726 5895 76.7789
145.842 6021 77.5951
145.959 6217 78.848
146.075 6004 77.4855
146.192 5913 76.896
146.308 5837 76.4003
146.425 5742 75.776
146.541 5611 74.9066
146.658 5645 75.1332
146.774 5706 75.5381
146.891 5843 76.4395
147.008 6143 78.3773
147.125 6058 77.8332
147.241 6397 79.9812
147.358 6395 79.9687
147.475 6490 80.5605
147.592 6377 79.8561
147.709 6627 81.4064
147.826 6516 80.7217
147.943 6633 81.4432
148.06 6425 80.1561
148.177 6301 79.3788
148.294 6246 79.0316
148.411 6045 77.7496
148.528 5986 77.3692
148.645 5999 77.4532
148.762 5798 76.1446
148.88 5821 76.2955
148.997 5503 74.1822
149.114 5901 76.818
149.231 5826 76.3282
149.349 5809 76.2168
149.466 5923 76.961
149.583 5791 76.0986
149.701 5763 75.9144
149.818 5690 75.4321
149.935 5720 75.6307
150.053 5603 74.8532
150.17 5562 74.5788
150.287 5572 74.6458
150.405 5733 75.7166
150.522 6008 77.5113
150.64 6130 78.2943
150.757 6133 78.3135
150.875 6087 78.0192
150.992 6274 79.2086
151.11 6331 79.5676
151.227 6428 80.1748
151.344 6512 80.697
151.462 6250 79.0569
151.579 6561 81
151.697 6587 81.1603
151.814 6459 80.3679
151.932 6382 79.8874
152.049 6241 79
152.167 6089 78.032
152.284 6100 78.1025
152.402 6099 78.0961
152.519 5925 76.974
152.636 6015 77.5564
152.754 5994 77.4209
152.871 6072 77.923
152.989 6023 77.608
153.106 6172 78.5621
153.223 6076 77.9487
153.341 5946 77.1103
153.458 5819 76.2824
153.575 5882 76.6942
153.693 5876 76.6551
153.81 5943 77.0909
153.927 6025 77.6209
154.044 6133 78.3135
154.162 6245 79.0253
154.279 6655 81.5782
154.396 6873 82.9036
154.513 6856 82.801
154.63 6804 82.4864
154.747 6850 82.7647
154.864 6817 82.5651
154.981 6905 83.0963
155.098 7054 83.9881
155.215 7056 84
155.332 6949 83.3607
155.449 6984 83.5703
155.566 6880 82.9458
155.683 6843 82.7224
155.8 6705 81.8841
155.917 6638 81.4739
156.033 6526 80.7837
156.15 0 1
156.267 0 1
156.383 0 1
156.5 0 1
156.617 0 1
156.733 0 1
156.85 0 1
156.966 0 1
157.082 0 1
157.199 0 1
157.315 0 1
157.431 0 1
157.547 0 1
157.664 0 1
157.78 0 1
157.896 0 1
158.012 0 1
158.128 0 1
158.244 0 1
158.359 0 1
158.475 0 1
158.591 0 1
158.706 0 1
