
6.15755 0 1
6.2731 0 1
6.3887 0 1
6.50437 0 1
6.62009 0 1
6.73587 0 1
6.8517 0 1
6.96759 0 1
7.08353 0 1
7.19952 0 1
7.31557 0 1
7.43166 0 1
7.54781 0 1
7.664 0 1
7.78024 0 1
7.89653 0 1
8.01286 0 1
8.12924 0 1
8.24567 0 1
8.36213 0 1
8.47864 0 1
8.59519 0 1
8.71178 0 1
8.82841 0 1
8.94508 0 1
9.06179 0 1
9.17853 0 1
9.29531 0 1
9.41212 0 1
9.52897 0 1
9.64584 0 1
9.76276 0 1
9.8797 0 1
9.99667 0 1
10.1137 0 1
10.2307 0 1
10.3478 0 1
10.4648 0 1
10.5819 0 1
10.6991 0 1
10.8162 0 1
10.9334 0 1
11.0506 0 1
11.1678 0 1
11.285 0 1
11.4023 0 1
11.5196 0 1
11.6369 0 1
11.7542 0 1
11.8715 0 1
11.9888 0 1
12.1062 0 1
12.2235 0 1
12.3409 0 1
12.4582 0 1
12.5756 0 1
12.693 0 1
12.8104 0 1
12.9278 0 1
13.0452 0 1
13.1626 0 1
13.28 0 1
13.3974 0 1
13.5149 0 1
13.6323 0 1
13.7497 0 1
13.8671 0 1
13.9845 0 1
14.1019 0 1
14.2193 0 1
14.3367 0 1
14.4541 0 1
14.5714 0 1
14.6888 0 1
14.8062 0 1
14.9235 0 1
15.0408 0 0
15.1581 0 0
15.2755 0 0
15.3927 0 0
15.51 0 0
15.6273 0 0
15.7445 0 0
15.8617 0 0
15.9789 0 0
16.0961 0 0
16.2132 0 0
16.3304 0 0
16.4475 0 0
16.5646 0 0
16.6816 0 0
16.7986 0 0
16.9156 0 0
17.0326 0 0
17.1496 0 0
17.2665 0 0
17.3833 0 0
17.5002 0 0
17.617 0 0
17.7338 0 0
17.8505 0 0
17.9672 0 0
18.0839 0 0
18.2005 0 0
18.3171 0 0
18.4337 0 0
18.5502 0 0
18.6666 0 0
18.7831 0 0
18.8994 0 0
19.0158 0 0
19.1321 0 0
19.2483 0 0
19.3645 0 0
19.4806 0 0
19.5967 0 0
19.7128 0 0
19.8288 0 0
19.9447 0 0
20.0606 0 1
20.1764 0 1
20.2922 0 1
20.4079 0 1
20.5236 0 1
20.6392 0 1
20.7548 0 1
20.8702 0 1
23.3078 0 1
23.4233 0 1
23.539 0 1
23.6547 0 1
23.7704 0 1
23.8862 0 1
24.0021 0 1
24.118 0 1
24.234 0 1
24.35 0 1
24.4661 2375 48.734
24.5822 2478 49.7795
24.6984 2539 50.3885
24.8146 2575 50.7445
24.9309 2683 51.7977
25.0472 2666 51.6333
25.1636 2831 53.2071
25.28 2720 52.1536
25.3965 2897 53.8238
25.513 2778 52.7067
25.6296 2883 53.6936
25.7462 2877 53.6377
25.8628 2667 51.643
25.9795 2593 50.9215
26.0962 2477 49.7695
26.213 2480 49.7996
26.3298 2423 49.224
26.4466 2339 48.3632
26.5635 2452 49.5177
26.6804 2328 48.2494
26.7973 2293 47.8853
26.9143 2214 47.0532
27.0313 2347 48.4458
27.1483 2105 45.8803
27.2653 2108 45.913
27.3824 2193 46.8295
27.4996 2202 46.9255
27.6167 2217 47.085
27.7339 2308 48.0416
27.8511 2355 48.5283
27.9683 2334 48.3115
28.0855 2579 50.7839
28.2028 2555 50.547
28.3201 2440 49.3964
28.4374 2428 49.2747
28.5547 2459 49.5883
28.6721 2474 49.7393
28.7894 2396 48.949
28.9068 2247 47.4025
29.0242 2332 48.2908
29.1416 2249 47.4236
29.259 2151 46.3789
29.3764 2187 46.7654
29.4939 2150 46.3681
29.6113 2056 45.3431
29.7288 2147 46.3357
29.8463 2110 45.9347
29.9638 2063 45.4203
30.0812 2146 46.3249
30.1987 2220 47.1169
30.3162 2132 46.1736
30.4337 2043 45.1996
30.5512 2076 45.5631
30.6687 2006 44.7884
30.7862 2046 45.2327
30.9037 2141 46.2709
31.0212 2282 47.7703
31.1387 2302 47.9792
31.2562 2492 49.9199
31.3737 2441 49.4065
31.4912 2519 50.1896
31.6087 2510 50.0999
31.7262 2314 48.1041
31.8436 2289 47.8435
31.9611 2237 47.2969
32.0785 2152 46.3897
32.1959 2115 45.9891
32.3134 1993 44.643
32.4308 1923 43.852
32.5482 1864 43.1741
32.6655 1911 43.715
32.7829 1805 42.4853
32.9002 1749 41.821
33.0176 1674 40.9145
33.1349 1849 43
33.2522 1685 41.0488
33.3694 1746 41.7852
33.4867 1750 41.833
33.6039 1722 41.497
33.7211 1811 42.5558
33.8383 1824 42.7083
33.9554 1995 44.6654
34.0725 1904 43.6348
34.1896 1937 44.0114
34.3067 1863 43.1625
34.4237 1852 43.0349
34.5407 1884 43.4051
34.6577 1957 44.238
34.7746 1865 43.1856
34.8915 1879 43.3474
35.0084 1853 43.0465
35.1252 1874 43.2897
35.242 1829 42.7668
35.3587 1818 42.638
35.4755 1828 42.7551
35.5921 1768 42.0476
35.7088 1787 42.2729
35.8254 1715 41.4126
35.9419 1688 41.0853
36.0584 1626 40.3237
36.1749 1600 40
36.2913 1597 39.9625
36.4077 1462 38.2361
36.524 1505 38.7943
36.6403 1442 37.9737
36.7565 1519 38.9744
36.8727 1421 37.6962
36.9889 1535 39.1791
37.1049 1488 38.5746
37.221 0 1
37.3369 0 1
37.4529 0 1
37.5687 0 1
37.6845 0 1
37.8003 0 1
37.916 0 1
38.0316 0 1
38.1472 0 1
40.5851 0 1
40.7008 0 1
40.8164 0 1
40.9322 0 1
41.048 0 1
41.1639 0 1
41.2798 0 1
41.3958 0 1
41.5118 0 1
41.6279 0 1
41.744 1235 35.1426
41.8602 1272 35.6651
41.9765 1262 35.5246
42.0928 1288 35.8887
42.2091 1280 35.7771
42.3255 1269 35.623
42.4419 1293 35.9583
42.5584 1222 34.9571
42.675 1195 34.5688
42.7915 1135 33.6898
42.9081 1150 33.9116
43.0248 1041 32.2645
43.1415 954 30.8869
43.2582 896 29.9333
43.375 898 29.9666
43.4918 1019 31.9218
43.6087 1018 31.9061
43.7256 941 30.6757
43.8425 933 30.545
43.9595 958 30.9516
44.0765 954 30.8869
44.1935 967 31.0966
44.3106 1003 31.6702
44.4277 981 31.3209
44.5448 935 30.5778
44.6619 920 30.3315
44.7791 944 30.7246
44.8963 929 30.4795
45.0136 926 30.4302
45.1308 964 31.0483
45.2481 1026 32.0312
45.3654 958 30.9516
45.4827 947 30.7734
45.6001 888 29.7993
45.7174 954 30.8869
45.8348 889 29.8161
45.9522 865 29.4109
46.0697 814 28.5307
46.1871 748 27.3496
46.3046 748 27.3496
46.422 764 27.6405
46.5395 746 27.313
46.657 661 25.7099
46.7745 617 24.8395
46.892 615 24.7992
47.0096 657 25.632
47.1271 644 25.3772
47.2446 686 26.1916
47.3622 609 24.6779
47.4797 677 26.0192
47.5973 676 26
47.7149 643 25.3574
47.8324 640 25.2982
47.95 632 25.1396
48.0675 653 25.5539
48.1851 636 25.219
48.3027 642 25.3377
48.4202 651 25.5147
48.5378 640 25.2982
48.6554 665 25.7876
48.7729 698 26.4197
48.8904 699 26.4386
49.008 661 25.7099
49.1255 701 26.4764
49.243 653 25.5539
49.3605 613 24.7588
49.478 640 25.2982
49.5955 650 25.4951
49.713 647 25.4362
49.8304 671 25.9037
49.9479 681 26.096
50.0653 629 25.0799
50.1827 601 24.5153
50.3001 571 23.8956
50.4175 610 24.6982
50.5348 582 24.1247
50.6521 678 26.0384
50.7694 660 25.6905
50.8867 687 26.2107
51.004 694 26.3439
51.1212 784 28
51.2384 766 27.6767
51.3556 780 27.9285
51.4727 758 27.5318
51.5899 743 27.258
51.707 797 28.2312
51.824 815 28.5482
51.9411 815 28.5482
52.0581 803 28.3373
52.175 816 28.5657
52.2919 813 28.5132
52.4088 806 28.3901
52.5257 906 30.0998
52.6425 874 29.5635
52.7593 837 28.931
52.876 810 28.4605
52.9927 854 29.2233
53.1094 834 28.8791
53.226 877 29.6142
53.3426 837 28.931
53.4591 866 29.4279
53.5756 857 29.2746
53.692 797 28.2312
53.8084 794 28.178
53.9248 782 27.9643
54.0411 736 27.1293
54.1573 773 27.8029
54.2735 0 1
54.3896 0 1
54.5057 0 1
54.6217 0 1
54.7377 0 1
54.8537 0 1
54.9695 0 1
55.0853 0 1
55.2011 0 1
55.3168 0 1
55.4324 0 1
57.824 0 1
57.9396 0 1
58.0553 0 1
58.1711 0 1
58.2869 0 1
58.4028 0 1
58.5187 0 1
58.6347 0 1
58.7508 0 1
58.8669 0 1
58.983 920 30.3315
59.0992 953 30.8707
59.2155 863 29.3769
59.3318 915 30.249
59.4482 994 31.5278
59.5646 957 30.9354
59.681 1052 32.4345
59.7975 1082 32.8938
59.9141 1117 33.4215
60.0306 1116 33.4066
60.1473 1165 34.1321
60.2639 1161 34.0735
60.3807 1186 34.4384
60.4974 1203 34.6843
60.6142 1213 34.8281
60.731 1180 34.3511
60.8479 1246 35.2987
60.9648 1253 35.3977
61.0818 1277 35.7351
61.1987 1230 35.0714
61.3158 1316 36.2767
61.4328 1205 34.7131
61.5499 1253 35.3977
61.667 1230 35.0714
61.7841 1268 35.609
61.9013 1221 34.9428
62.0185 1238 35.1852
62.1357 1222 34.9571
62.253 1155 33.9853
62.3702 1122 33.4963
62.4875 1100 33.1662
62.6049 1116 33.4066
62.7222 1166 34.1467
62.8396 1193 34.5398
62.9569 1171 34.2199
63.0743 1155 33.9853
63.1918 1233 35.1141
63.3092 1269 35.623
63.4267 1298 36.0278
63.5441 1293 35.9583
63.6616 1342 36.6333
63.7791 1286 35.8608
63.8966 1254 35.4119
64.0142 1399 37.4032
64.1317 1291 35.9305
64.2492 1287 35.8748
64.3668 1381 37.1618
64.4843 1356 36.8239
64.6019 1341 36.6197
64.7195 1289 35.9026
64.837 1353 36.7831
64.9546 1403 37.4566
65.0722 1350 36.7423
65.1898 1244 35.2704
65.3074 1335 36.5377
65.4249 1300 36.0555
65.5425 1277 35.7351
65.6601 1188 34.4674
65.7777 1144 33.8231
65.8952 1166 34.1467
66.0128 1003 31.6702
66.1304 1026 32.0312
66.2479 991 31.4802
66.3655 1016 31.8748
66.483 1090 33.0151
66.6005 1071 32.7261
66.718 1084 32.9242
66.8355 1074 32.7719
66.953 1132 33.6452
67.0705 1124 33.5261
67.1879 1027 32.0468
67.3054 1059 32.5423
67.4228 1035 32.1714
67.5402 1070 32.7109
67.6576 1070 32.7109
67.7749 1107 33.2716
67.8923 1073 32.7567
68.0096 1109 33.3017
68.1269 1134 33.6749
68.2442 1199 34.6266
68.3614 1115 33.3916
68.4787 1066 32.6497
68.5958 1063 32.6037
68.713 1075 32.7872
68.8302 999 31.607
68.9473 1046 32.3419
69.0643 1007 31.7333
69.1814 1001 31.6386
69.2984 989 31.4484
69.4154 1017 31.8904
69.5323 955 30.9031
69.6492 886 29.7658
69.7661 865 29.4109
69.8829 829 28.7924
69.9997 876 29.5973
70.1165 798 28.2489
70.2332 884 29.7321
70.3499 873 29.5466
70.4665 867 29.4449
70.5831 867 29.4449
70.6996 927 30.4467
70.8161 928 30.4631
70.9326 913 30.2159
71.049 922 30.3645
71.1653 935 30.5778
71.2817 859 29.3087
71.3979 840 28.9828
71.5141 853 29.2062
71.6303 920 30.3315
71.7464 836 28.9137
71.8624 0 1
71.9784 0 1
72.0944 0 1
72.2102 0 1
72.3261 0 1
72.4418 0 1
72.5575 0 1
72.6732 0 1
75.1054 0 1
75.2209 0 1
75.3365 0 1
75.4521 0 1
75.5678 0 1
75.6835 0 1
75.7993 0 1
75.9151 0 1
76.031 0 1
76.147 771 27.7669
76.263 825 28.7228
76.3791 844 29.0517
76.4952 879 29.6479
76.6113 888 29.7993
76.7276 903 30.05
76.8438 901 30.0167
76.9601 964 31.0483
77.0765 916 30.2655
77.1929 1001 31.6386
77.3093 985 31.3847
77.4258 978 31.273
77.5423 979 31.289
77.6589 996 31.5595
77.7755 965 31.0644
77.8921 974 31.209
78.0088 904 30.0666
78.1256 944 30.7246
78.2423 948 30.7896
78.3591 903 30.05
78.4759 935 30.5778
78.5928 897 29.95
78.7097 829 28.7924
78.8266 781 27.9464
78.9436 731 27.037
79.0606 783 27.9821
79.1776 777 27.8747
79.2946 849 29.1376
79.4117 839 28.9655
79.5288 833 28.8617
79.6459 892 29.8664
79.7631 924 30.3974
79.8802 873 29.5466
79.9974 960 30.9839
80.1147 961 31
80.2319 941 30.6757
80.3491 916 30.2655
80.4664 991 31.4802
80.5837 1035 32.1714
80.701 1025 32.0156
80.8183 1052 32.4345
80.9357 1024 32
81.053 1007 31.7333
81.1704 1030 32.0936
81.2877 1053 32.45
81.4051 998 31.5911
81.5225 997 31.5753
81.6399 952 30.8545
81.7573 949 30.8058
81.8747 938 30.6268
81.9922 960 30.9839
82.1096 955 30.9031
82.227 893 29.8831
82.3444 809 28.4429
82.4619 805 28.3725
82.5793 763 27.6225
82.6967 852 29.189
82.8142 807 28.4077
82.9316 838 28.9482
83.049 785 28.0179
83.1664 820 28.6356
83.2838 881 29.6816
83.4012 901 30.0167
83.5186 857 29.2746
83.636 1006 31.7175
83.7534 973 31.1929
83.8708 884 29.7321
83.9881 890 29.8329
84.1055 1020 31.9374
84.2228 935 30.5778
84.3401 1005 31.7017
84.4575 1018 31.9061
84.5747 1022 31.9687
84.692 977 31.257
84.8093 996 31.5595
84.9265 1018 31.9061
85.0437 1002 31.6544
85.1609 972 31.1769
85.2781 987 31.4166
85.3952 946 30.7571
85.5123 998 31.5911
85.6294 894 29.8998
85.7465 878 29.6311
85.8636 829 28.7924
85.9806 844 29.0517
86.0976 798 28.2489
86.2145 822 28.6705
86.3315 791 28.1247
86.4484 903 30.05
86.5652 922 30.3645
86.682 868 29.4618
86.7988 905 30.0832
86.9156 979 31.289
87.0323 953 30.8707
87.149 993 31.5119
87.2657 959 30.9677
87.3823 946 30.7571
87.4988 1034 32.1559
87.6154 1017 31.8904
87.7318 1002 31.6544
87.8483 1107 33.2716
87.9647 1091 33.0303
88.081 1141 33.7787
88.1973 1048 32.3728
88.3136 1142 33.7935
88.4298 1049 32.3883
88.546 1094 33.0757
88.6621 1091 33.0303
88.7781 1030 32.0936
88.8942 0 1
89.0101 0 1
89.126 0 1
89.2419 0 1
89.3577 0 1
89.4734 0 1
89.5891 0 1
89.7047 0 1
89.8203 0 1
89.9358 0 1
92.3269 0 1
92.4424 0 1
92.558 0 1
92.6736 0 1
92.7893 0 1
92.905 0 1
93.0208 0 1
93.1366 0 1
93.2525 0 1
93.3685 0 1
93.4845 0 1
93.6005 1032 32.1248
93.7167 1087 32.9697
93.8328 1087 32.9697
93.949 1116 33.4066
94.0653 1154 33.9706
94.1816 1092 33.0454
94.2979 1050 32.4037
94.4143 1035 32.1714
94.5307 1007 31.7333
94.6472 1054 32.4654
94.7637 1057 32.5115
94.8803 1011 31.7962
94.9969 1058 32.5269
95.1135 998 31.5911
95.2302 944 30.7246
95.3469 928 30.4631
95.4637 903 30.05
95.5805 913 30.2159
95.6973 984 31.3688
95.8142 929 30.4795
95.9311 996 31.5595
96.048 1013 31.8277
96.1649 1002 31.6544
96.2819 1112 33.3467
96.3989 1094 33.0757
96.516 1108 33.2866
96.633 1103 33.2114
96.7501 1166 34.1467
96.8673 1251 35.3695
96.9844 1195 34.5688
97.1016 1247 35.3129
97.2188 1217 34.8855
97.336 1251 35.3695
97.4532 1245 35.2846
97.5704 1274 35.6931
97.6877 1287 35.8748
97.805 1261 35.5106
97.9223 1225 35
98.0396 1176 34.2929
98.1569 1161 34.0735
98.2743 1174 34.2637
98.3916 1134 33.6749
98.509 1145 33.8378
98.6264 1033 32.1403
98.7438 1059 32.5423
98.8612 1041 32.2645
98.9786 972 31.1769
99.096 979 31.289
99.2134 970 31.1448
99.3308 982 31.3369
99.4482 1057 32.5115
99.5656 1074 32.7719
99.6831 1145 33.8378
99.8005 1105 33.2415
99.9179 1088 32.9848
100.035 1182 34.3802
100.153 1171 34.2199
100.27 1172 34.2345
100.388 1210 34.7851
100.505 1292 35.9444
100.622 1243 35.2562
100.74 1312 36.2215
100.857 1309 36.1801
100.975 1287 35.8748
101.092 1363 36.9188
101.209 1298 36.0278
101.327 1365 36.9459
101.444 1299 36.0416
101.561 1322 36.3593
101.679 1211 34.7994
101.796 1237 35.171
101.913 1261 35.5106
102.03 1216 34.8712
102.148 1157 34.0147
102.265 1238 35.1852
102.382 1057 32.5115
102.499 1065 32.6343
102.616 1094 33.0757
102.733 1063 32.6037
102.851 1063 32.6037
102.968 1127 33.5708
103.085 1174 34.2637
103.202 1148 33.8821
103.319 1222 34.9571
103.436 1229 35.0571
103.552 1190 34.4964
103.669 1348 36.7151
103.786 1311 36.2077
103.903 1363 36.9188
104.02 1428 37.7889
104.137 1397 37.3765
104.253 1447 38.0395
104.37 1412 37.5766
104.487 1460 38.2099
104.603 1547 39.3319
104.72 1543 39.281
104.836 1543 39.281
104.953 1515 38.923
105.069 1451 38.092
105.186 1421 37.6962
105.302 1409 37.5366
105.418 1466 38.2884
105.535 1478 38.4448
105.651 1482 38.4968
105.767 1417 37.6431
105.883 1417 37.6431
105.999 1415 37.6165
106.115 0 1
106.231 0 1
106.347 0 1
106.463 0 1
106.579 0 1
106.694 0 1
106.81 0 1
106.926 0 1
107.041 0 1
107.157 0 1
109.576 0 1
109.692 0 1
109.807 0 1
109.923 0 1
110.039 0 1
110.155 0 1
110.27 0 1
110.386 0 1
110.502 0 1
110.618 2018 44.9222
110.735 2014 44.8776
110.851 1988 44.587
110.967 1924 43.8634
111.083 1778 42.1663
111.199 1803 42.4617
111.316 1836 42.8486
111.432 1917 43.7836
111.549 1938 44.0227
111.665 1856 43.0813
111.782 1954 44.2041
111.898 2023 44.9778
112.015 2092 45.7384
112.132 2023 44.9778
112.248 2095 45.7712
112.365 2044 45.2106
112.482 2111 45.9456
112.599 2093 45.7493
112.716 2094 45.7602
112.832 2104 45.8694
112.949 2035 45.111
113.066 2051 45.288
113.183 2085 45.6618
113.3 2054 45.3211
113.417 1982 44.5197
113.534 2072 45.5192
113.652 1970 44.3847
113.769 1882 43.382
113.886 1987 44.5758
114.003 1979 44.486
114.12 1925 43.8748
114.238 1958 44.2493
114.355 1849 43
114.472 1793 42.3438
114.589 1643 40.5339
114.707 1541 39.2556
114.824 1605 40.0625
114.942 1719 41.4608
115.059 1718 41.4488
115.176 1727 41.5572
115.294 1774 42.1189
115.411 1768 42.0476
115.529 1878 43.3359
115.646 1940 44.0454
115.764 1874 43.2897
115.881 1916 43.7721
115.999 1963 44.3058
116.116 1927 43.8976
116.234 1966 44.3396
116.351 1949 44.1475
116.469 2009 44.8219
116.586 2096 45.7821
116.704 2032 45.0777
116.821 2005 44.7772
116.939 2018 44.9222
117.056 1973 44.4185
117.174 1984 44.5421
117.291 1972 44.4072
117.409 1989 44.5982
117.526 1953 44.1928
117.644 1923 43.852
117.761 1967 44.3509
117.879 1930 43.9318
117.996 1799 42.4146
118.114 1796 42.3792
118.231 1689 41.0974
118.349 1651 40.6325
118.466 1736 41.6653
118.584 1719 41.4608
118.701 1823 42.6966
118.819 1729 41.5812
118.936 1756 41.9047
119.053 1820 42.6615
119.171 1807 42.5088
119.288 1940 44.0454
119.405 1965 44.3283
119.523 1923 43.852
119.64 1910 43.7035
119.757 1959 44.2606
119.875 1952 44.1814
119.992 1996 44.6766
120.109 2005 44.7772
120.226 2044 45.2106
120.343 2055 45.3321
120.46 2016 44.8999
120.578 2070 45.4973
120.695 2055 45.3321
120.812 1943 44.0795
120.929 1962 44.2945
121.046 1904 43.6348
121.163 1961 44.2832
121.279 1861 43.1393
121.396 1877 43.3244
121.513 1957 44.238
121.63 1845 42.9535
121.747 1814 42.5911
121.863 1707 41.3159
121.98 1601 40.0125
122.097 1580 39.7492
122.213 1614 40.1746
122.33 1682 41.0122
122.446 1685 41.0488
122.563 1610 40.1248
122.679 1695 41.1704
122.795 1699 41.2189
122.912 1797 42.391
123.028 1770 42.0714
123.144 1853 43.0465
123.26 1832 42.8019
123.377 0 1
123.493 0 1
123.609 0 1
123.725 0 1
123.84 0 1
123.956 0 1
124.072 0 1
124.188 0 1
124.303 0 1
124.419 0 1
126.852 0 1
126.968 0 1
127.083 0 1
127.199 0 1
127.315 0 1
127.431 0 1
127.547 0 1
127.663 0 1
127.779 0 1
127.895 0 1
128.011 0 1
128.127 0 1
128.243 0 1
128.359 1928 43.909
128.476 1953 44.1928
128.592 1942 44.0681
128.708 1927 43.8976
128.825 1986 44.5646
128.941 1973 44.4185
129.058 1930 43.9318
129.174 1894 43.5201
129.291 1912 43.7264
129.408 1850 43.0116
129.524 1853 43.0465
129.641 1876 43.3128
129.758 1734 41.6413
129.875 1792 42.332
129.992 1693 41.1461
130.108 1662 40.7676
130.225 1518 38.9615
130.342 1477 38.4318
130.459 1525 39.0512
130.576 1492 38.6264
130.693 1428 37.7889
130.81 1412 37.5766
130.928 1259 35.4824
131.045 1232 35.0999
131.162 1277 35.7351
131.279 1301 36.0694
131.396 1263 35.5387
131.513 1287 35.8748
131.631 1258 35.4683
131.748 1357 36.8375
131.865 1355 36.8103
131.983 1398 37.3898
132.1 1433 37.855
132.217 1398 37.3898
132.335 1482 38.4968
132.452 1537 39.2046
132.57 1512 38.8844
132.687 1499 38.7169
132.804 1562 39.5221
132.922 1538 39.2173
133.039 1506 38.8072
133.157 1546 39.3192
133.274 1482 38.4968
133.392 1388 37.2559
133.509 1467 38.3014
133.627 1498 38.704
133.744 1499 38.7169
133.862 1498 38.704
133.979 1430 37.8153
134.097 1444 38
134.214 1485 38.5357
134.332 1359 36.8646
134.449 1298 36.0278
134.567 1282 35.805
134.684 1323 36.3731
134.802 1401 37.4299
134.919 1334 36.524
135.037 1383 37.1887
135.154 1414 37.6032
135.272 1461 38.223
135.389 1516 38.9358
135.507 1590 39.8748
135.624 1581 39.7618
135.742 1629 40.3609
135.859 1639 40.4846
135.977 1634 40.4228
136.094 1636 40.4475
136.211 1690 41.1096
136.329 1698 41.2068
136.446 1746 41.7852
136.564 1690 41.1096
136.681 1748 41.8091
136.798 1724 41.5211
136.915 1621 40.2616
137.033 1552 39.3954
137.15 1585 39.8121
137.267 1554 39.4208
137.384 1496 38.6782
137.502 1472 38.3667
137.619 1592 39.8999
137.736 1547 39.3319
137.853 1539 39.2301
137.97 1485 38.5357
138.087 1542 39.2683
138.204 1434 37.8682
138.321 1556 39.4462
138.438 1571 39.6358
138.555 1578 39.724
138.672 1744 41.7612
138.788 1666 40.8167
138.905 1777 42.1545
139.022 1847 42.9767
139.139 1940 44.0454
139.255 2130 46.1519
139.372 2128 46.1303
139.488 2183 46.7226
139.605 2156 46.4327
139.721 2275 47.697
139.838 2283 47.7807
139.954 2321 48.1768
140.071 2384 48.8262
140.187 2609 51.0784
140.303 2618 51.1664
140.419 2775 52.6783
140.535 2985 54.6352
140.652 2984 54.626
140.768 0 1
140.884 0 1
141 0 1
141.115 0 1
141.231 0 1
141.347 0 1
141.463 0 1
141.578 0 1
141.694 0 1
144.104 0 1
144.219 0 1
144.335 0 1
144.45 0 1
144.566 0 1
144.682 0 1
144.798 0 1
144.914 0 1
145.03 0 1
145.146 3137 56.0089
145.262 3120 55.857
145.378 3119 55.848
145.494 3101 55.6866
145.61 3209 56.648
145.726 3256 57.0614
145.842 3255 57.0526
145.959 3291 57.3672
146.075 3480 58.9915
146.192 3613 60.1082
146.308 3540 59.4979
146.425 3569 59.7411
146.541 3683 60.6877
146.658 3531 59.4222
146.774 3284 57.3062
146.891 3162 56.2317
147.008 3111 55.7763
147.125 3401 58.3181
147.241 3400 58.3095
147.358 3315 57.576
147.475 3314 57.5674
147.592 3286 57.3236
147.709 3423 58.5064
147.826 3511 59.2537
147.943 3454 58.7707
148.06 3301 57.4543
148.177 3234 56.8683
148.294 3205 56.6127
148.411 3236 56.8859
148.528 3181 56.4004
148.645 3144 56.0714
148.762 3118 55.8391
148.88 3173 56.3294
148.997 3088 55.5698
149.114 3222 56.7627
149.231 3180 56.3915
149.349 3272 57.2014
149.466 3376 58.1034
149.583 3318 57.6021
149.701 3343 57.8187
149.818 3336 57.7581
149.935 3430 58.5662
150.053 3360 57.9655
150.17 3403 58.3352
150.287 3224 56.7803
150.405 3053 55.254
150.522 2949 54.3047
150.64 3054 55.263
150.757 3038 55.1181
150.875 3039 55.1271
150.992 2977 54.5619
151.11 2928 54.111
151.227 3014 54.8999
151.344 3060 55.3173
151.462 3101 55.6866
151.579 3117 55.8301
151.697 3182 56.4092
151.814 3217 56.7186
151.932 3237 56.8946
152.049 3093 55.6147
152.167 3116 55.8211
152.284 3187 56.4535
152.402 3268 57.1664
152.519 3134 55.9821
152.636 3184 56.4269
152.754 3418 58.4637
152.871 3268 57.1664
152.989 3511 59.2537
153.106 3369 58.0431
153.223 3454 58.7707
153.341 3496 59.127
153.458 3453 58.7622
153.575 3404 58.3438
153.693 3441 58.66
153.81 3368 58.0345
153.927 3198 56.5509
154.044 3000 54.7723
154.162 2978 54.5711
154.279 3075 55.4527
154.396 3119 55.848
154.513 3186 56.4447
154.63 3254 57.0438
154.747 3119 55.848
154.864 3271 57.1927
154.981 3389 58.2151
155.098 3418 58.4637
155.215 3540 59.4979
155.332 3470 58.9067
155.449 3563 59.6909
155.566 3549 59.5735
155.683 3661 60.5062
155.8 3610 60.0833
155.917 3745 61.1964
156.033 3743 61.1801
156.15 0 1
156.267 0 1
156.383 0 1
156.5 0 1
156.617 0 1
156.733 0 1
156.85 0 1
156.966 0 1
157.082 0 1
157.199 0 1
157.315 0 1
157.431 0 1
157.547 0 1
157.664 0 1
157.78 0 1
157.896 0 1
158.012 0 1
158.128 0 1
158.244 0 1
158.359 0 1
158.475 0 1
158.591 0 1
158.706 0 1
