
6.15755 0 1
6.2731 0 1
6.3887 0 1
6.50437 0 1
6.62009 0 1
6.73587 0 1
6.8517 0 1
6.96759 0 1
7.08353 0 1
7.19952 0 1
7.31557 0 1
7.43166 0 1
7.54781 0 1
7.664 0 1
7.78024 0 1
7.89653 0 1
8.01286 0 1
8.12924 0 1
8.24567 0 1
8.36213 0 1
8.47864 0 1
8.59519 0 1
8.71178 0 1
8.82841 0 1
8.94508 0 1
9.06179 0 1
9.17853 0 1
9.29531 0 1
9.41212 0 1
9.52897 0 1
9.64584 0 1
9.76276 0 1
9.8797 0 1
9.99667 0 1
10.1137 0 1
10.2307 0 1
10.3478 0 1
10.4648 0 1
10.5819 0 1
10.6991 0 1
10.8162 0 1
10.9334 0 1
11.0506 0 1
11.1678 0 1
11.285 0 1
11.4023 0 1
11.5196 0 1
11.6369 0 1
11.7542 0 1
11.8715 0 1
11.9888 0 1
12.1062 0 1
12.2235 0 1
12.3409 0 1
12.4582 0 1
12.5756 0 1
12.693 0 1
12.8104 0 1
12.9278 0 1
13.0452 0 1
13.1626 0 1
13.28 0 1
13.3974 0 1
13.5149 0 1
13.6323 0 1
13.7497 0 1
13.8671 0 1
13.9845 0 1
14.1019 0 1
14.2193 0 1
14.3367 0 1
14.4541 0 1
14.5714 0 1
14.6888 0 1
14.8062 0 1
14.9235 0 1
15.0408 1066 32.6497
15.1581 1073 32.7567
15.2755 1148 33.8821
15.3927 1071 32.7261
15.51 1102 33.1964
15.6273 1065 32.6343
15.7445 1039 32.2335
15.8617 998 31.5911
15.9789 934 30.5614
16.0961 980 31.305
16.2132 1004 31.686
16.3304 948 30.7896
16.4475 952 30.8545
16.5646 908 30.133
16.6816 912 30.1993
16.7986 964 31.0483
16.9156 900 30
17.0326 904 30.0666
17.1496 890 29.8329
17.2665 870 29.4958
17.3833 872 29.5296
17.5002 935 30.5778
17.617 863 29.3769
17.7338 942 30.692
17.8505 894 29.8998
17.9672 936 30.5941
18.0839 879 29.6479
18.2005 824 28.7054
18.3171 903 30.05
18.4337 871 29.5127
18.5502 837 28.931
18.6666 831 28.8271
18.7831 944 30.7246
18.8994 883 29.7153
19.0158 851 29.1719
19.1321 856 29.2575
19.2483 790 28.1069
19.3645 724 26.9072
19.4806 705 26.5518
19.5967 660 25.6905
19.7128 675 25.9808
19.8288 673 25.9422
19.9447 533 23.0868
20.0606 0 1
20.1764 0 1
20.2922 0 1
20.4079 0 1
20.5236 0 1
20.6392 0 1
20.7548 0 1
20.8702 0 1
23.3078 0 1
23.4233 0 1
23.539 0 1
23.6547 0 1
23.7704 0 1
23.8862 0 1
24.0021 0 1
24.118 0 1
24.234 0 1
24.35 0 1
24.4661 386 19.6469
24.5822 396 19.8997
24.6984 497 22.2935
24.8146 567 23.8118
24.9309 724 26.9072
25.0472 776 27.8568
25.1636 880 29.6648
25.28 909 30.1496
25.3965 933 30.545
25.513 969 31.1288
25.6296 989 31.4484
25.7462 1000 31.6228
25.8628 993 31.5119
25.9795 928 30.4631
26.0962 983 31.3528
26.213 931 30.5123
26.3298 861 29.3428
26.4466 882 29.6985
26.5635 843 29.0345
26.6804 786 28.0357
26.7973 784 28
26.9143 694 26.3439
27.0313 722 26.8701
27.1483 749 27.3679
27.2653 749 27.3679
27.3824 841 29
27.4996 875 29.5804
27.6167 894 29.8998
27.7339 856 29.2575
27.8511 830 28.8097
27.9683 807 28.4077
28.0855 792 28.1425
28.2028 852 29.189
28.3201 860 29.3258
28.4374 832 28.8444
28.5547 860 29.3258
28.6721 929 30.4795
28.7894 868 29.4618
28.9068 928 30.4631
29.0242 901 30.0167
29.1416 793 28.1603
29.259 862 29.3598
29.3764 873 29.5466
29.4939 862 29.3598
29.6113 856 29.2575
29.7288 795 28.1957
29.8463 829 28.7924
29.9638 786 28.0357
30.0812 739 27.1846
30.1987 723 26.8887
30.3162 720 26.8328
30.4337 700 26.4575
30.5512 706 26.5707
30.6687 755 27.4773
30.7862 810 28.4605
30.9037 844 29.0517
31.0212 865 29.4109
31.1387 790 28.1069
31.2562 887 29.7825
31.3737 881 29.6816
31.4912 837 28.931
31.6087 835 28.8964
31.7262 796 28.2135
31.8436 842 29.0172
31.9611 832 28.8444
32.0785 837 28.931
32.1959 852 29.189
32.3134 801 28.3019
32.4308 816 28.5657
32.5482 818 28.6007
32.6655 733 27.074
32.7829 800 28.2843
32.9002 730 27.0185
33.0176 691 26.2869
33.1349 753 27.4408
33.2522 760 27.5681
33.3694 713 26.7021
33.4867 788 28.0713
33.6039 690 26.2679
33.7211 723 26.8887
33.8383 713 26.7021
33.9554 645 25.3969
34.0725 661 25.7099
34.1896 723 26.8887
34.3067 711 26.6646
34.4237 764 27.6405
34.5407 747 27.3313
34.6577 768 27.7128
34.7746 759 27.55
34.8915 808 28.4253
35.0084 777 27.8747
35.1252 800 28.2843
35.242 730 27.0185
35.3587 735 27.1109
35.4755 734 27.0924
35.5921 710 26.6458
35.7088 766 27.6767
35.8254 705 26.5518
35.9419 752 27.4226
36.0584 705 26.5518
36.1749 709 26.6271
36.2913 660 25.6905
36.4077 660 25.6905
36.524 655 25.593
36.6403 618 24.8596
36.7565 508 22.5389
36.8727 543 23.3024
36.9889 488 22.0907
37.1049 458 21.4009
37.221 0 1
37.3369 0 1
37.4529 0 1
37.5687 0 1
37.6845 0 1
37.8003 0 1
37.916 0 1
38.0316 0 1
38.1472 0 1
40.5851 0 1
40.7008 0 1
40.8164 0 1
40.9322 0 1
41.048 0 1
41.1639 0 1
41.2798 0 1
41.3958 0 1
41.5118 0 1
41.6279 0 1
41.744 346 18.6011
41.8602 403 20.0749
41.9765 468 21.6333
42.0928 491 22.1585
42.2091 545 23.3452
42.3255 491 22.1585
42.4419 527 22.9565
42.5584 521 22.8254
42.675 514 22.6716
42.7915 515 22.6936
42.9081 511 22.6053
43.0248 513 22.6495
43.1415 530 23.0217
43.2582 552 23.4947
43.375 589 24.2693
43.4918 519 22.7816
43.6087 568 23.8328
43.7256 529 23
43.8425 572 23.9165
43.9595 572 23.9165
44.0765 513 22.6495
44.1935 514 22.6716
44.3106 567 23.8118
44.4277 523 22.8692
44.5448 592 24.3311
44.6619 565 23.7697
44.7791 542 23.2809
44.8963 581 24.1039
45.0136 595 24.3926
45.1308 574 23.9583
45.2481 640 25.2982
45.3654 638 25.2587
45.4827 624 24.98
45.6001 645 25.3969
45.7174 610 24.6982
45.8348 592 24.3311
45.9522 589 24.2693
46.0697 540 23.2379
46.1871 548 23.4094
46.3046 490 22.1359
46.422 494 22.2261
46.5395 478 21.8632
46.657 550 23.4521
46.7745 553 23.516
46.892 579 24.0624
47.0096 526 22.9347
47.1271 567 23.8118
47.2446 626 25.02
47.3622 584 24.1661
47.4797 570 23.8747
47.5973 581 24.1039
47.7149 538 23.1948
47.8324 507 22.5167
47.95 532 23.0651
48.0675 560 23.6643
48.1851 600 24.4949
48.3027 559 23.6432
48.4202 543 23.3024
48.5378 570 23.8747
48.6554 562 23.7065
48.7729 556 23.5797
48.8904 600 24.4949
49.008 571 23.8956
49.1255 554 23.5372
49.243 565 23.7697
49.3605 533 23.0868
49.478 513 22.6495
49.5955 507 22.5167
49.713 433 20.8087
49.8304 451 21.2368
49.9479 466 21.587
50.0653 483 21.9773
50.1827 481 21.9317
50.3001 503 22.4277
50.4175 501 22.383
50.5348 543 23.3024
50.6521 504 22.4499
50.7694 564 23.7487
50.8867 588 24.2487
51.004 539 23.2164
51.1212 521 22.8254
51.2384 537 23.1733
51.3556 525 22.9129
51.4727 538 23.1948
51.5899 532 23.0651
51.707 548 23.4094
51.824 537 23.1733
51.9411 566 23.7908
52.0581 492 22.1811
52.175 520 22.8035
52.2919 550 23.4521
52.4088 553 23.516
52.5257 557 23.6008
52.6425 549 23.4307
52.7593 501 22.383
52.876 505 22.4722
52.9927 485 22.0227
53.1094 459 21.4243
53.226 466 21.587
53.3426 448 21.166
53.4591 412 20.2978
53.5756 454 21.3073
53.692 399 19.975
53.8084 379 19.4679
53.9248 337 18.3576
54.0411 348 18.6548
54.1573 317 17.8045
54.2735 0 1
54.3896 0 1
54.5057 0 1
54.6217 0 1
54.7377 0 1
54.8537 0 1
54.9695 0 1
55.0853 0 1
55.2011 0 1
55.3168 0 1
55.4324 0 1
57.824 0 1
57.9396 0 1
58.0553 0 1
58.1711 0 1
58.2869 0 1
58.4028 0 1
58.5187 0 1
58.6347 0 1
58.7508 0 1
58.8669 0 1
58.983 524 22.891
59.0992 531 23.0434
59.2155 675 25.9808
59.3318 770 27.7489
59.4482 821 28.6531
59.5646 919 30.315
59.681 956 30.9192
59.7975 1049 32.3883
59.9141 975 31.225
60.0306 987 31.4166
60.1473 943 30.7083
60.2639 1008 31.749
60.3807 920 30.3315
60.4974 929 30.4795
60.6142 945 30.7409
60.731 861 29.3428
60.8479 914 30.2324
60.9648 811 28.4781
61.0818 832 28.8444
61.1987 854 29.2233
61.3158 861 29.3428
61.4328 802 28.3196
61.5499 764 27.6405
61.667 763 27.6225
61.7841 700 26.4575
61.9013 729 27
62.0185 669 25.865
62.1357 715 26.7395
62.253 704 26.533
62.3702 699 26.4386
62.4875 640 25.2982
62.6049 665 25.7876
62.7222 675 25.9808
62.8396 665 25.7876
62.9569 699 26.4386
63.0743 644 25.3772
63.1918 653 25.5539
63.3092 668 25.8457
63.4267 644 25.3772
63.5441 642 25.3377
63.6616 618 24.8596
63.7791 670 25.8844
63.8966 594 24.3721
64.0142 637 25.2389
64.1317 643 25.3574
64.2492 647 25.4362
64.3668 625 25
64.4843 622 24.9399
64.6019 615 24.7992
64.7195 628 25.0599
64.837 607 24.6374
64.9546 563 23.7276
65.0722 581 24.1039
65.1898 571 23.8956
65.3074 544 23.3238
65.4249 508 22.5389
65.5425 551 23.4734
65.6601 523 22.8692
65.7777 557 23.6008
65.8952 553 23.516
66.0128 572 23.9165
66.1304 546 23.3666
66.2479 519 22.7816
66.3655 560 23.6643
66.483 584 24.1661
66.6005 626 25.02
66.718 569 23.8537
66.8355 627 25.04
66.953 610 24.6982
67.0705 575 23.9792
67.1879 643 25.3574
67.3054 617 24.8395
67.4228 578 24.0416
67.5402 558 23.622
67.6576 630 25.0998
67.7749 642 25.3377
67.8923 628 25.0599
68.0096 565 23.7697
68.1269 551 23.4734
68.2442 569 23.8537
68.3614 576 24
68.4787 537 23.1733
68.5958 528 22.9783
68.713 494 22.2261
68.8302 482 21.9545
68.9473 498 22.3159
69.0643 519 22.7816
69.1814 494 22.2261
69.2984 573 23.9374
69.4154 582 24.1247
69.5323 540 23.2379
69.6492 558 23.622
69.7661 507 22.5167
69.8829 558 23.622
69.9997 535 23.1301
70.1165 535 23.1301
70.2332 539 23.2164
70.3499 540 23.2379
70.4665 481 21.9317
70.5831 442 21.0238
70.6996 458 21.4009
70.8161 422 20.5426
70.9326 390 19.7484
71.049 362 19.0263
71.1653 339 18.412
71.2817 279 16.7033
71.3979 336 18.3303
71.5141 302 17.3781
71.6303 261 16.1555
71.7464 198 14.0712
71.8624 0 1
71.9784 0 1
72.0944 0 1
72.2102 0 1
72.3261 0 1
72.4418 0 1
72.5575 0 1
72.6732 0 1
75.1054 0 1
75.2209 0 1
75.3365 0 1
75.4521 0 1
75.5678 0 1
75.6835 0 1
75.7993 0 1
75.9151 0 1
76.031 0 1
76.147 412 20.2978
76.263 427 20.664
76.3791 454 21.3073
76.4952 463 21.5174
76.6113 492 22.1811
76.7276 530 23.0217
76.8438 534 23.1084
76.9601 507 22.5167
77.0765 500 22.3607
77.1929 489 22.1133
77.3093 470 21.6795
77.4258 481 21.9317
77.5423 443 21.0476
77.6589 427 20.664
77.7755 422 20.5426
77.8921 426 20.6398
78.0088 451 21.2368
78.1256 453 21.2838
78.2423 442 21.0238
78.3591 432 20.7846
78.4759 538 23.1948
78.5928 440 20.9762
78.7097 440 20.9762
78.8266 454 21.3073
78.9436 426 20.6398
79.0606 442 21.0238
79.1776 471 21.7025
79.2946 525 22.9129
79.4117 470 21.6795
79.5288 479 21.8861
79.6459 512 22.6274
79.7631 506 22.4944
79.8802 458 21.4009
79.9974 524 22.891
80.1147 498 22.3159
80.2319 501 22.383
80.3491 568 23.8328
80.4664 481 21.9317
80.5837 506 22.4944
80.701 503 22.4277
80.8183 525 22.9129
80.9357 494 22.2261
81.053 507 22.5167
81.1704 520 22.8035
81.2877 472 21.7256
81.4051 449 21.1896
81.5225 435 20.8567
81.6399 432 20.7846
81.7573 436 20.8806
81.8747 447 21.1424
81.9922 457 21.3776
82.1096 503 22.4277
82.227 501 22.383
82.3444 468 21.6333
82.4619 489 22.1133
82.5793 471 21.7025
82.6967 468 21.6333
82.8142 474 21.7715
82.9316 535 23.1301
83.049 498 22.3159
83.1664 483 21.9773
83.2838 527 22.9565
83.4012 545 23.3452
83.5186 522 22.8473
83.636 515 22.6936
83.7534 543 23.3024
83.8708 541 23.2594
83.9881 541 23.2594
84.1055 535 23.1301
84.2228 513 22.6495
84.3401 513 22.6495
84.4575 543 23.3024
84.5747 500 22.3607
84.692 512 22.6274
84.8093 441 21
84.9265 469 21.6564
85.0437 469 21.6564
85.1609 438 20.9284
85.2781 437 20.9045
85.3952 451 21.2368
85.5123 490 22.1359
85.6294 509 22.561
85.7465 516 22.7156
85.8636 475 21.7945
85.9806 510 22.5832
86.0976 486 22.0454
86.2145 491 22.1585
86.3315 524 22.891
86.4484 515 22.6936
86.5652 547 23.388
86.682 502 22.4054
86.7988 546 23.3666
86.9156 563 23.7276
87.0323 541 23.2594
87.149 515 22.6936
87.2657 476 21.8174
87.3823 533 23.0868
87.4988 521 22.8254
87.6154 462 21.4942
87.7318 461 21.4709
87.8483 440 20.9762
87.9647 436 20.8806
88.081 421 20.5183
88.1973 355 18.8414
88.3136 319 17.8606
88.4298 301 17.3494
88.546 247 15.7162
88.6621 247 15.7162
88.7781 224 14.9666
88.8942 0 1
89.0101 0 1
89.126 0 1
89.2419 0 1
89.3577 0 1
89.4734 0 1
89.5891 0 1
89.7047 0 1
89.8203 0 1
89.9358 0 1
92.3269 0 1
92.4424 0 1
92.558 0 1
92.6736 0 1
92.7893 0 1
92.905 0 1
93.0208 0 1
93.1366 0 1
93.2525 0 1
93.3685 0 1
93.4845 0 1
93.6005 425 20.6155
93.7167 415 20.3715
93.8328 474 21.7715
93.949 432 20.7846
94.0653 433 20.8087
94.1816 481 21.9317
94.2979 457 21.3776
94.4143 461 21.4709
94.5307 496 22.2711
94.6472 499 22.3383
94.7637 512 22.6274
94.8803 465 21.5639
94.9969 521 22.8254
95.1135 541 23.2594
95.2302 498 22.3159
95.3469 498 22.3159
95.4637 533 23.0868
95.5805 478 21.8632
95.6973 534 23.1084
95.8142 495 22.2486
95.9311 539 23.2164
96.048 529 23
96.1649 501 22.383
96.2819 556 23.5797
96.3989 571 23.8956
96.516 546 23.3666
96.633 574 23.9583
96.7501 551 23.4734
96.8673 558 23.622
96.9844 537 23.1733
97.1016 517 22.7376
97.2188 465 21.5639
97.336 495 22.2486
97.4532 485 22.0227
97.5704 467 21.6102
97.6877 471 21.7025
97.805 456 21.3542
97.9223 477 21.8403
98.0396 473 21.7486
98.1569 485 22.0227
98.2743 513 22.6495
98.3916 508 22.5389
98.509 579 24.0624
98.6264 547 23.388
98.7438 600 24.4949
98.8612 522 22.8473
98.9786 527 22.9565
99.096 598 24.454
99.2134 591 24.3105
99.3308 600 24.4949
99.4482 594 24.3721
99.5656 550 23.4521
99.6831 588 24.2487
99.8005 614 24.779
99.9179 618 24.8596
100.035 768 27.7128
100.153 955 30.9031
100.27 1234 35.1283
100.388 1480 38.4708
100.505 1953 44.1928
100.622 2582 50.8134
100.74 3436 58.6174
100.857 4085 63.914
100.975 4799 69.2748
101.092 5425 73.6546
101.209 5580 74.6994
101.327 5875 76.6485
101.444 6211 78.8099
101.561 6833 82.662
101.679 7681 87.6413
101.796 9352 96.7057
101.913 10921 104.504
102.03 11599 107.699
102.148 12170 110.318
102.265 12620 112.339
102.382 12269 110.766
102.499 12755 112.938
102.616 13415 115.823
102.733 14239 119.327
102.851 14975 122.372
102.968 14860 121.902
103.085 14294 119.558
103.202 13640 116.79
103.319 13412 115.81
103.436 13458 116.009
103.552 13629 116.743
103.669 14280 119.499
103.786 14090 118.701
103.903 14002 118.33
104.02 13347 115.529
104.137 13021 114.11
104.253 12252 110.689
104.37 11362 106.593
104.487 10363 101.799
104.603 8922 94.4563
104.72 7102 84.2734
104.836 5536 74.4043
104.953 4559 67.5204
105.069 4050 63.6396
105.186 3676 60.63
105.302 3689 60.7371
105.418 3950 62.849
105.535 3896 62.4179
105.651 3547 59.5567
105.767 3193 56.5066
105.883 2860 53.479
105.999 2473 49.7293
106.115 0 1
106.231 0 1
106.347 0 1
106.463 0 1
106.579 0 1
106.694 0 1
106.81 0 1
106.926 0 1
107.041 0 1
107.157 0 1
109.576 0 1
109.692 0 1
109.807 0 1
109.923 0 1
110.039 0 1
110.155 0 1
110.27 0 1
110.386 0 1
110.502 0 1
110.618 644 25.3772
110.735 763 27.6225
110.851 820 28.6356
110.967 874 29.5635
111.083 886 29.7658
111.199 807 28.4077
111.316 803 28.3373
111.432 821 28.6531
111.549 816 28.5657
111.665 749 27.3679
111.782 709 26.6271
111.898 671 25.9037
112.015 700 26.4575
112.132 680 26.0768
112.248 694 26.3439
112.365 693 26.3249
112.482 672 25.923
112.599 642 25.3377
112.716 603 24.5561
112.832 592 24.3311
112.949 593 24.3516
113.066 633 25.1595
113.183 547 23.388
113.3 584 24.1661
113.417 510 22.5832
113.534 547 23.388
113.652 543 23.3024
113.769 539 23.2164
113.886 437 20.9045
114.003 446 21.1187
114.12 479 21.8861
114.238 559 23.6432
114.355 499 22.3383
114.472 531 23.0434
114.589 529 23
114.707 560 23.6643
114.824 564 23.7487
114.942 547 23.388
115.059 521 22.8254
115.176 502 22.4054
115.294 530 23.0217
115.411 517 22.7376
115.529 487 22.0681
115.646 473 21.7486
115.764 527 22.9565
115.881 513 22.6495
115.999 532 23.0651
116.116 525 22.9129
116.234 512 22.6274
116.351 462 21.4942
116.469 488 22.0907
116.586 517 22.7376
116.704 460 21.4476
116.821 477 21.8403
116.939 486 22.0454
117.056 444 21.0713
117.174 443 21.0476
117.291 390 19.7484
117.409 402 20.0499
117.526 391 19.7737
117.644 385 19.6214
117.761 433 20.8087
117.879 454 21.3073
117.996 483 21.9773
118.114 494 22.2261
118.231 494 22.2261
118.349 454 21.3073
118.466 471 21.7025
118.584 500 22.3607
118.701 518 22.7596
118.819 445 21.095
118.936 459 21.4243
119.053 436 20.8806
119.171 464 21.5407
119.288 464 21.5407
119.405 490 22.1359
119.523 424 20.5913
119.64 490 22.1359
119.757 474 21.7715
119.875 465 21.5639
119.992 459 21.4243
120.109 441 21
120.226 475 21.7945
120.343 432 20.7846
120.46 399 19.975
120.578 448 21.166
120.695 397 19.9249
120.812 444 21.0713
120.929 372 19.2873
121.046 370 19.2354
121.163 350 18.7083
121.279 377 19.4165
121.396 385 19.6214
121.513 430 20.7364
121.63 397 19.9249
121.747 394 19.8494
121.863 409 20.2237
121.98 363 19.0526
122.097 402 20.0499
122.213 407 20.1742
122.33 392 19.799
122.446 350 18.7083
122.563 321 17.9165
122.679 321 17.9165
122.795 273 16.5227
122.912 315 17.7482
123.028 284 16.8523
123.144 295 17.1756
123.26 259 16.0935
123.377 0 1
123.493 0 1
123.609 0 1
123.725 0 1
123.84 0 1
123.956 0 1
124.072 0 1
124.188 0 1
124.303 0 1
124.419 0 1
126.852 0 1
126.968 0 1
127.083 0 1
127.199 0 1
127.315 0 1
127.431 0 1
127.547 0 1
127.663 0 1
127.779 0 1
127.895 0 1
128.011 0 1
128.127 0 1
128.243 0 1
128.359 485 22.0227
128.476 511 22.6053
128.592 531 23.0434
128.708 559 23.6432
128.825 558 23.622
128.941 553 23.516
129.058 544 23.3238
129.174 557 23.6008
129.291 519 22.7816
129.408 537 23.1733
129.524 511 22.6053
129.641 553 23.516
129.758 559 23.6432
129.875 536 23.1517
129.992 508 22.5389
130.108 481 21.9317
130.225 454 21.3073
130.342 514 22.6716
130.459 466 21.587
130.576 547 23.388
130.693 529 23
130.81 610 24.6982
130.928 617 24.8395
131.045 643 25.3574
131.162 662 25.7294
131.279 680 26.0768
131.396 745 27.2947
131.513 748 27.3496
131.631 750 27.3861
131.748 780 27.9285
131.865 827 28.7576
131.983 827 28.7576
132.1 930 30.4959
132.217 941 30.6757
132.335 989 31.4484
132.452 994 31.5278
132.57 1019 31.9218
132.687 1011 31.7962
132.804 1029 32.078
132.922 1147 33.8674
133.039 1110 33.3167
133.157 1172 34.2345
133.274 1090 33.0151
133.392 1065 32.6343
133.509 1111 33.3317
133.627 1059 32.5423
133.744 1036 32.187
133.862 1055 32.4808
133.979 1001 31.6386
134.097 1068 32.6803
134.214 1133 33.6601
134.332 1163 34.1028
134.449 1099 33.1512
134.567 1057 32.5115
134.684 1065 32.6343
134.802 1181 34.3657
134.919 1153 33.9559
135.037 1188 34.4674
135.154 1168 34.176
135.272 1136 33.7046
135.389 1073 32.7567
135.507 1069 32.6956
135.624 1143 33.8083
135.742 1187 34.4529
135.859 1210 34.7851
135.977 1163 34.1028
136.094 1196 34.5832
136.211 1153 33.9559
136.329 1185 34.4238
136.446 1188 34.4674
136.564 1138 33.7343
136.681 1241 35.2278
136.798 1155 33.9853
136.915 1180 34.3511
137.033 1214 34.8425
137.15 1156 34
137.267 1122 33.4963
137.384 1080 32.8634
137.502 1030 32.0936
137.619 984 31.3688
137.736 1021 31.9531
137.853 1022 31.9687
137.97 1134 33.6749
138.087 1056 32.4962
138.204 1034 32.1559
138.321 1092 33.0454
138.438 1062 32.5883
138.555 1163 34.1028
138.672 1123 33.5112
138.788 1100 33.1662
138.905 1017 31.8904
139.022 977 31.257
139.139 925 30.4138
139.255 956 30.9192
139.372 1000 31.6228
139.488 907 30.1164
139.605 958 30.9516
139.721 876 29.5973
139.838 795 28.1957
139.954 843 29.0345
140.071 749 27.3679
140.187 772 27.7849
140.303 715 26.7395
140.419 709 26.6271
140.535 685 26.1725
140.652 660 25.6905
140.768 0 1
140.884 0 1
141 0 1
141.115 0 1
141.231 0 1
141.347 0 1
141.463 0 1
141.578 0 1
141.694 0 1
144.104 0 1
144.219 0 1
144.335 0 1
144.45 0 1
144.566 0 1
144.682 0 1
144.798 0 1
144.914 0 1
145.03 0 1
145.146 5760 75.8947
145.262 8112 90.0666
145.378 10573 102.825
145.494 12050 109.772
145.61 13191 114.852
145.726 14905 122.086
145.842 16404 128.078
145.959 18076 134.447
146.075 20095 141.757
146.192 22405 149.683
146.308 24982 158.057
146.425 27761 166.616
146.541 30874 175.71
146.658 33580 183.248
146.774 35794 189.193
146.891 36051 189.871
147.008 34504 185.753
147.125 30901 175.787
147.241 29749 172.479
147.358 32552 180.422
147.475 36948 192.219
147.592 40168 200.42
147.709 41903 204.702
147.826 41437 203.561
147.943 41119 202.778
148.06 39747 199.366
148.177 38530 196.291
148.294 37044 192.468
148.411 35219 187.667
148.528 33663 183.475
148.645 31387 177.164
148.762 29146 170.722
148.88 27517 165.882
148.997 26178 161.796
149.114 23016 151.71
149.231 21775 147.564
149.349 20093 141.75
149.466 17682 132.974
149.583 16334 127.805
149.701 14458 120.241
149.818 12807 113.168
149.935 11345 106.513
150.053 9996 99.98
150.17 8723 93.397
150.287 6786 82.3772
150.405 4438 66.6183
150.522 3024 54.9909
150.64 3415 58.438
150.757 4068 63.7809
150.875 3927 62.6658
150.992 3536 59.4643
151.11 3355 57.9224
151.227 2977 54.5619
151.344 2755 52.4881
151.462 2420 49.1935
151.579 2226 47.1805
151.697 2161 46.4866
151.814 1996 44.6766
151.932 2006 44.7884
152.049 1969 44.3734
152.167 1868 43.2204
152.284 1762 41.9762
152.402 1756 41.9047
152.519 1746 41.7852
152.636 1858 43.1045
152.754 1829 42.7668
152.871 1841 42.9069
152.989 1805 42.4853
153.106 1931 43.9431
153.223 1911 43.715
153.341 1875 43.3013
153.458 1989 44.5982
153.575 1906 43.6578
153.693 1837 42.8602
153.81 1671 40.8779
153.927 1566 39.5727
154.044 1557 39.4588
154.162 1725 41.5331
154.279 1754 41.8808
154.396 1888 43.4511
154.513 2033 45.0888
154.63 2007 44.7996
154.747 2090 45.7165
154.864 2055 45.3321
154.981 1928 43.909
155.098 1942 44.0681
155.215 1914 43.7493
155.332 1844 42.9418
155.449 1867 43.2088
155.566 2120 46.0435
155.683 2253 47.4658
155.8 2221 47.1275
155.917 2315 48.1144
156.033 2414 49.1325
156.15 0 1
156.267 0 1
156.383 0 1
156.5 0 1
156.617 0 1
156.733 0 1
156.85 0 1
156.966 0 1
157.082 0 1
157.199 0 1
157.315 0 1
157.431 0 1
157.547 0 1
157.664 0 1
157.78 0 1
157.896 0 1
158.012 0 1
158.128 0 1
158.244 0 1
158.359 0 1
158.475 0 1
158.591 0 1
158.706 0 1
