
6.15755 0 1
6.2731 0 1
6.3887 0 1
6.50437 0 1
6.62009 0 1
6.73587 0 1
6.8517 0 1
6.96759 0 1
7.08353 0 1
7.19952 0 1
7.31557 0 1
7.43166 0 1
7.54781 0 1
7.664 0 1
7.78024 0 1
7.89653 0 1
8.01286 0 1
8.12924 0 1
8.24567 0 1
8.36213 0 1
8.47864 0 1
8.59519 0 1
8.71178 0 1
8.82841 0 1
8.94508 0 1
9.06179 0 1
9.17853 0 1
9.29531 0 1
9.41212 0 1
9.52897 0 1
9.64584 0 1
9.76276 0 1
9.8797 0 1
9.99667 0 1
10.1137 0 1
10.2307 0 1
10.3478 0 1
10.4648 0 1
10.5819 0 1
10.6991 0 1
10.8162 0 1
10.9334 0 1
11.0506 0 1
11.1678 0 1
11.285 0 1
11.4023 0 1
11.5196 0 1
11.6369 0 1
11.7542 0 1
11.8715 0 1
11.9888 0 1
12.1062 0 1
12.2235 0 1
12.3409 0 1
12.4582 0 1
12.5756 0 1
12.693 0 1
12.8104 0 1
12.9278 0 1
13.0452 0 1
13.1626 0 1
13.28 0 1
13.3974 0 1
13.5149 0 1
13.6323 0 1
13.7497 0 1
13.8671 0 1
13.9845 0 1
14.1019 0 1
14.2193 0 1
14.3367 0 1
14.4541 0 1
14.5714 0 1
14.6888 0 1
14.8062 0 1
14.9235 0 1
15.0408 0 0
15.1581 0 0
15.2755 0 0
15.3927 0 0
15.51 0 0
15.6273 0 0
15.7445 0 0
15.8617 0 0
15.9789 0 0
16.0961 0 0
16.2132 0 0
16.3304 0 0
16.4475 0 0
16.5646 0 0
16.6816 0 0
16.7986 0 0
16.9156 0 0
17.0326 0 0
17.1496 0 0
17.2665 0 0
17.3833 0 0
17.5002 0 0
17.617 0 0
17.7338 0 0
17.8505 0 0
17.9672 0 0
18.0839 0 0
18.2005 0 0
18.3171 0 0
18.4337 0 0
18.5502 0 0
18.6666 0 0
18.7831 0 0
18.8994 0 0
19.0158 0 0
19.1321 0 0
19.2483 0 0
19.3645 0 0
19.4806 0 0
19.5967 0 0
19.7128 0 0
19.8288 0 0
19.9447 0 0
20.0606 0 1
20.1764 0 1
20.2922 0 1
20.4079 0 1
20.5236 0 1
20.6392 0 1
20.7548 0 1
20.8702 0 1
23.3078 0 1
23.4233 0 1
23.539 0 1
23.6547 0 1
23.7704 0 1
23.8862 0 1
24.0021 0 1
24.118 0 1
24.234 0 1
24.35 0 1
24.4661 1595 39.9375
24.5822 1517 38.9487
24.6984 1553 39.4081
24.8146 1524 39.0384
24.9309 1558 39.4715
25.0472 1522 39.0128
25.1636 1495 38.6652
25.28 1451 38.092
25.3965 1564 39.5474
25.513 1704 41.2795
25.6296 1724 41.5211
25.7462 1854 43.0581
25.8628 1875 43.3013
25.9795 1913 43.7379
26.0962 1847 42.9767
26.213 1917 43.7836
26.3298 1778 42.1663
26.4466 1862 43.1509
26.5635 1862 43.1509
26.6804 1862 43.1509
26.7973 1793 42.3438
26.9143 1831 42.7902
27.0313 1761 41.9643
27.1483 1898 43.566
27.2653 1903 43.6234
27.3824 1855 43.0697
27.4996 1872 43.2666
27.6167 1795 42.3674
27.7339 1801 42.4382
27.8511 1732 41.6173
27.9683 1704 41.2795
28.0855 1673 40.9023
28.2028 1561 39.5095
28.3201 1545 39.3065
28.4374 1489 38.5876
28.5547 1455 38.1445
28.6721 1424 37.7359
28.7894 1458 38.1838
28.9068 1445 38.0132
29.0242 1579 39.7366
29.1416 1686 41.0609
29.259 1777 42.1545
29.3764 1752 41.8569
29.4939 1796 42.3792
29.6113 1831 42.7902
29.7288 1895 43.5316
29.8463 1890 43.4741
29.9638 1880 43.359
30.0812 1859 43.1161
30.1987 1925 43.8748
30.3162 1917 43.7836
30.4337 1803 42.4617
30.5512 1794 42.3556
30.6687 1811 42.5558
30.7862 1896 43.5431
30.9037 1919 43.8064
31.0212 1865 43.1856
31.1387 1817 42.6263
31.2562 1804 42.4735
31.3737 1850 43.0116
31.4912 1808 42.5206
31.6087 1776 42.1426
31.7262 1770 42.0714
31.8436 1609 40.1123
31.9611 1635 40.4351
32.0785 1639 40.4846
32.1959 1515 38.923
32.3134 1484 38.5227
32.4308 1572 39.6485
32.5482 1596 39.95
32.6655 1659 40.7308
32.7829 1725 41.5331
32.9002 1859 43.1161
33.0176 1878 43.3359
33.1349 1808 42.5206
33.2522 1955 44.2154
33.3694 1919 43.8064
33.4867 1913 43.7379
33.6039 1871 43.2551
33.7211 1810 42.5441
33.8383 1850 43.0116
33.9554 1763 41.9881
34.0725 1807 42.5088
34.1896 1869 43.2319
34.3067 1858 43.1045
34.4237 1810 42.5441
34.5407 1877 43.3244
34.6577 1907 43.6692
34.7746 1863 43.1625
34.8915 1884 43.4051
35.0084 1806 42.4971
35.1252 1735 41.6533
35.242 1790 42.3084
35.3587 1738 41.6893
35.4755 1743 41.7493
35.5921 1588 39.8497
35.7088 1619 40.2368
35.8254 1558 39.4715
35.9419 1510 38.8587
36.0584 1528 39.0896
36.1749 1549 39.3573
36.2913 1622 40.2741
36.4077 1611 40.1373
36.524 1697 41.1947
36.6403 1768 42.0476
36.7565 1816 42.6146
36.8727 1825 42.72
36.9889 1797 42.391
37.1049 1856 43.0813
37.221 0 1
37.3369 0 1
37.4529 0 1
37.5687 0 1
37.6845 0 1
37.8003 0 1
37.916 0 1
38.0316 0 1
38.1472 0 1
40.5851 0 1
40.7008 0 1
40.8164 0 1
40.9322 0 1
41.048 0 1
41.1639 0 1
41.2798 0 1
41.3958 0 1
41.5118 0 1
41.6279 0 1
41.744 1553 39.4081
41.8602 1641 40.5093
41.9765 1678 40.9634
42.0928 1742 41.7373
42.2091 1706 41.3038
42.3255 1732 41.6173
42.4419 1714 41.4005
42.5584 1705 41.2916
42.675 1718 41.4488
42.7915 1555 39.4335
42.9081 1610 40.1248
43.0248 1633 40.4104
43.1415 1737 41.6773
43.2582 1642 40.5216
43.375 1623 40.2865
43.4918 1719 41.4608
43.6087 1652 40.6448
43.7256 1588 39.8497
43.8425 1564 39.5474
43.9595 1578 39.724
44.0765 1559 39.4842
44.1935 1578 39.724
44.3106 1489 38.5876
44.4277 1382 37.1753
44.5448 1363 36.9188
44.6619 1220 34.9285
44.7791 1143 33.8083
44.8963 1227 35.0286
45.0136 1254 35.4119
45.1308 1200 34.641
45.2481 1294 35.9722
45.3654 1318 36.3043
45.4827 1364 36.9324
45.6001 1405 37.4833
45.7174 1334 36.524
45.8348 1383 37.1887
45.9522 1376 37.0945
46.0697 1410 37.55
46.1871 1283 35.819
46.3046 1301 36.0694
46.422 1173 34.2491
46.5395 1184 34.4093
46.657 1216 34.8712
46.7745 1220 34.9285
46.892 1260 35.4965
47.0096 1229 35.0571
47.1271 1261 35.5106
47.2446 1254 35.4119
47.3622 1259 35.4824
47.4797 1301 36.0694
47.5973 1206 34.7275
47.7149 1117 33.4215
47.8324 1100 33.1662
47.95 1059 32.5423
48.0675 1064 32.619
48.1851 1004 31.686
48.3027 919 30.315
48.4202 896 29.9333
48.5378 993 31.5119
48.6554 986 31.4006
48.7729 1112 33.3467
48.8904 1128 33.5857
49.008 1126 33.5559
49.1255 1117 33.4215
49.243 1116 33.4066
49.3605 1182 34.3802
49.478 1166 34.1467
49.5955 1071 32.7261
49.713 1089 33
49.8304 1081 32.8786
49.9479 1020 31.9374
50.0653 1104 33.2265
50.1827 1065 32.6343
50.3001 1117 33.4215
50.4175 1151 33.9264
50.5348 1166 34.1467
50.6521 1205 34.7131
50.7694 1218 34.8999
50.8867 1300 36.0555
51.004 1306 36.1386
51.1212 1262 35.5246
51.2384 1313 36.2353
51.3556 1263 35.5387
51.4727 1254 35.4119
51.5899 1249 35.3412
51.707 1116 33.4066
51.824 1110 33.3167
51.9411 1135 33.6898
52.0581 1132 33.6452
52.175 1209 34.7707
52.2919 1302 36.0832
52.4088 1372 37.0405
52.5257 1450 38.0789
52.6425 1433 37.855
52.7593 1426 37.7624
52.876 1437 37.9078
52.9927 1459 38.1969
53.1094 1477 38.4318
53.226 1462 38.2361
53.3426 1356 36.8239
53.4591 1385 37.2156
53.5756 1342 36.6333
53.692 1348 36.7151
53.8084 1397 37.3765
53.9248 1442 37.9737
54.0411 1413 37.5899
54.1573 1512 38.8844
54.2735 0 1
54.3896 0 1
54.5057 0 1
54.6217 0 1
54.7377 0 1
54.8537 0 1
54.9695 0 1
55.0853 0 1
55.2011 0 1
55.3168 0 1
55.4324 0 1
57.824 0 1
57.9396 0 1
58.0553 0 1
58.1711 0 1
58.2869 0 1
58.4028 0 1
58.5187 0 1
58.6347 0 1
58.7508 0 1
58.8669 0 1
58.983 1536 39.1918
59.0992 1609 40.1123
59.2155 1743 41.7493
59.3318 1754 41.8808
59.4482 1817 42.6263
59.5646 1808 42.5206
59.681 1864 43.1741
59.7975 1783 42.2256
59.9141 1806 42.4971
60.0306 1702 41.2553
60.1473 1638 40.4722
60.2639 1598 39.975
60.3807 1545 39.3065
60.4974 1373 37.054
60.6142 1443 37.9868
60.731 1387 37.2424
60.8479 1399 37.4032
60.9648 1524 39.0384
61.0818 1531 39.128
61.1987 1604 40.05
61.3158 1680 40.9878
61.4328 1665 40.8044
61.5499 1609 40.1123
61.667 1652 40.6448
61.7841 1556 39.4462
61.9013 1612 40.1497
62.0185 1533 39.1535
62.1357 1464 38.2623
62.253 1483 38.5097
62.3702 1434 37.8682
62.4875 1559 39.4842
62.6049 1667 40.8289
62.7222 1693 41.1461
62.8396 1692 41.1339
62.9569 1748 41.8091
63.0743 1663 40.7799
63.1918 1673 40.9023
63.3092 1644 40.5463
63.4267 1617 40.2119
63.5441 1675 40.9268
63.6616 1557 39.4588
63.7791 1472 38.3667
63.8966 1434 37.8682
64.0142 1280 35.7771
64.1317 1249 35.3412
64.2492 1216 34.8712
64.3668 1244 35.2704
64.4843 1395 37.3497
64.6019 1417 37.6431
64.7195 1501 38.7427
64.837 1580 39.7492
64.9546 1503 38.7685
65.0722 1499 38.7169
65.1898 1522 39.0128
65.3074 1498 38.704
65.4249 1416 37.6298
65.5425 1372 37.0405
65.6601 1326 36.4143
65.7777 1299 36.0416
65.8952 1333 36.5103
66.0128 1337 36.565
66.1304 1410 37.55
66.2479 1482 38.4968
66.3655 1568 39.598
66.483 1615 40.1871
66.6005 1542 39.2683
66.718 1549 39.3573
66.8355 1526 39.064
66.953 1624 40.2989
67.0705 1596 39.95
67.1879 1452 38.1051
67.3054 1378 37.1214
67.4228 1374 37.0675
67.5402 1291 35.9305
67.6576 1123 33.5112
67.7749 1092 33.0454
67.8923 1156 34
68.0096 1273 35.6791
68.1269 1300 36.0555
68.2442 1401 37.4299
68.3614 1456 38.1576
68.4787 1466 38.2884
68.5958 1408 37.5233
68.713 1429 37.8021
68.8302 1445 38.0132
68.9473 1466 38.2884
69.0643 1377 37.108
69.1814 1336 36.5513
69.2984 1306 36.1386
69.4154 1302 36.0832
69.5323 1383 37.1887
69.6492 1439 37.9342
69.7661 1428 37.7889
69.8829 1534 39.1663
69.9997 1584 39.7995
70.1165 1588 39.8497
70.2332 1648 40.5956
70.3499 1691 41.1218
70.4665 1676 40.939
70.5831 1581 39.7618
70.6996 1597 39.9625
70.8161 1572 39.6485
70.9326 1483 38.5097
71.049 1405 37.4833
71.1653 1365 36.9459
71.2817 1102 33.1964
71.3979 1168 34.176
71.5141 1060 32.5576
71.6303 1051 32.4191
71.7464 1011 31.7962
71.8624 0 1
71.9784 0 1
72.0944 0 1
72.2102 0 1
72.3261 0 1
72.4418 0 1
72.5575 0 1
72.6732 0 1
75.1054 0 1
75.2209 0 1
75.3365 0 1
75.4521 0 1
75.5678 0 1
75.6835 0 1
75.7993 0 1
75.9151 0 1
76.031 0 1
76.147 1310 36.1939
76.263 1400 37.4166
76.3791 1351 36.756
76.4952 1286 35.8608
76.6113 1234 35.1283
76.7276 1056 32.4962
76.8438 1129 33.6006
76.9601 1111 33.3317
77.0765 1145 33.8378
77.1929 1252 35.3836
77.3093 1355 36.8103
77.4258 1470 38.3406
77.5423 1512 38.8844
77.6589 1485 38.5357
77.7755 1435 37.8814
77.8921 1348 36.7151
78.0088 1403 37.4566
78.1256 1277 35.7351
78.2423 1262 35.5246
78.3591 1106 33.2566
78.4759 1211 34.7994
78.5928 1150 33.9116
78.7097 1285 35.8469
78.8266 1370 37.0135
78.9436 1421 37.6962
79.0606 1503 38.7685
79.1776 1541 39.2556
79.2946 1579 39.7366
79.4117 1548 39.3446
79.5288 1570 39.6232
79.6459 1488 38.5746
79.7631 1502 38.7556
79.8802 1442 37.9737
79.9974 1332 36.4966
80.1147 1277 35.7351
80.2319 1170 34.2053
80.3491 1016 31.8748
80.4664 1021 31.9531
80.5837 1017 31.8904
80.701 1080 32.8634
80.8183 1199 34.6266
80.9357 1413 37.5899
81.053 1358 36.8511
81.1704 1411 37.5633
81.2877 1387 37.2424
81.4051 1331 36.4829
81.5225 1366 36.9594
81.6399 1281 35.7911
81.7573 1235 35.1426
81.8747 1048 32.3728
81.9922 1073 32.7567
82.1096 1009 31.7648
82.227 1033 32.1403
82.3444 1142 33.7935
82.4619 1291 35.9305
82.5793 1373 37.054
82.6967 1316 36.2767
82.8142 1427 37.7757
82.9316 1473 38.3797
83.049 1402 37.4433
83.1664 1383 37.1887
83.2838 1459 38.1969
83.4012 1334 36.524
83.5186 1282 35.805
83.636 1250 35.3553
83.7534 1142 33.7935
83.8708 1009 31.7648
83.9881 921 30.348
84.1055 935 30.5778
84.2228 960 30.9839
84.3401 1045 32.3265
84.4575 1102 33.1964
84.5747 1233 35.1141
84.692 1233 35.1141
84.8093 1340 36.606
84.9265 1307 36.1525
85.0437 1198 34.6121
85.1609 1219 34.9142
85.2781 1112 33.3467
85.3952 1075 32.7872
85.5123 1006 31.7175
85.6294 957 30.9354
85.7465 1101 33.1813
85.8636 1106 33.2566
85.9806 1260 35.4965
86.0976 1386 37.229
86.2145 1449 38.0657
86.3315 1503 38.7685
86.4484 1555 39.4335
86.5652 1541 39.2556
86.682 1565 39.5601
86.7988 1564 39.5474
86.9156 1471 38.3536
87.0323 1511 38.8716
87.149 1445 38.0132
87.2657 1379 37.1349
87.3823 1233 35.1141
87.4988 1204 34.6987
87.6154 1066 32.6497
87.7318 1107 33.2716
87.8483 1202 34.6699
87.9647 1303 36.0971
88.081 1448 38.0526
88.1973 1475 38.4057
88.3136 1531 39.128
88.4298 1567 39.5854
88.546 1517 38.9487
88.6621 1469 38.3275
88.7781 1275 35.7071
88.8942 0 1
89.0101 0 1
89.126 0 1
89.2419 0 1
89.3577 0 1
89.4734 0 1
89.5891 0 1
89.7047 0 1
89.8203 0 1
89.9358 0 1
92.3269 0 1
92.4424 0 1
92.558 0 1
92.6736 0 1
92.7893 0 1
92.905 0 1
93.0208 0 1
93.1366 0 1
93.2525 0 1
93.3685 0 1
93.4845 0 1
93.6005 1428 37.7889
93.7167 1431 37.8286
93.8328 1446 38.0263
93.949 1553 39.4081
94.0653 1509 38.8458
94.1816 1458 38.1838
94.2979 1319 36.318
94.4143 1208 34.7563
94.5307 1137 33.7194
94.6472 1125 33.541
94.7637 1212 34.8138
94.8803 1347 36.7015
94.9969 1418 37.6563
95.1135 1526 39.064
95.2302 1629 40.3609
95.3469 1616 40.1995
95.4637 1632 40.398
95.5805 1698 41.2068
95.6973 1759 41.9404
95.8142 1723 41.509
95.9311 1710 41.3521
96.048 1590 39.8748
96.1649 1544 39.2938
96.2819 1572 39.6485
96.3989 1513 38.8973
96.516 1360 36.8782
96.633 1261 35.5106
96.7501 1199 34.6266
96.8673 1259 35.4824
96.9844 1284 35.8329
97.1016 1372 37.0405
97.2188 1407 37.51
97.336 1549 39.3573
97.4532 1603 40.0375
97.5704 1611 40.1373
97.6877 1582 39.7744
97.805 1432 37.8418
97.9223 1399 37.4032
98.0396 1300 36.0555
98.1569 1198 34.6121
98.2743 1132 33.6452
98.3916 1221 34.9428
98.509 1282 35.805
98.6264 1378 37.1214
98.7438 1515 38.923
98.8612 1602 40.025
98.9786 1740 41.7133
99.096 1668 40.8412
99.2134 1754 41.8808
99.3308 1702 41.2553
99.4482 1768 42.0476
99.5656 1718 41.4488
99.6831 1607 40.0874
99.8005 1550 39.37
99.9179 1519 38.9744
100.035 1480 38.4708
100.153 1437 37.9078
100.27 1294 35.9722
100.388 1304 36.1109
100.505 1423 37.7227
100.622 1305 36.1248
100.74 1509 38.8458
100.857 1566 39.5727
100.975 1626 40.3237
101.092 1635 40.4351
101.209 1633 40.4104
101.327 1569 39.6106
101.444 1513 38.8973
101.561 1385 37.2156
101.679 1165 34.1321
101.796 1210 34.7851
101.913 1277 35.7351
102.03 1286 35.8608
102.148 1405 37.4833
102.265 1724 41.5211
102.382 1588 39.8497
102.499 1806 42.4971
102.616 1815 42.6028
102.733 1818 42.638
102.851 1889 43.4626
102.968 1871 43.2551
103.085 1894 43.5201
103.202 1802 42.45
103.319 1743 41.7493
103.436 1644 40.5463
103.552 1544 39.2938
103.669 1475 38.4057
103.786 1441 37.9605
103.903 1448 38.0526
104.02 1414 37.6032
104.137 1550 39.37
104.253 1650 40.6202
104.37 1660 40.7431
104.487 1757 41.9166
104.603 1757 41.9166
104.72 1787 42.2729
104.836 1698 41.2068
104.953 1623 40.2865
105.069 1477 38.4318
105.186 1377 37.108
105.302 1309 36.1801
105.418 1291 35.9305
105.535 1404 37.47
105.651 1575 39.6863
105.767 1722 41.497
105.883 1933 43.9659
105.999 1923 43.852
106.115 0 1
106.231 0 1
106.347 0 1
106.463 0 1
106.579 0 1
106.694 0 1
106.81 0 1
106.926 0 1
107.041 0 1
107.157 0 1
109.576 0 1
109.692 0 1
109.807 0 1
109.923 0 1
110.039 0 1
110.155 0 1
110.27 0 1
110.386 0 1
110.502 0 1
110.618 1408 37.5233
110.735 1571 39.6358
110.851 1808 42.5206
110.967 1812 42.5676
111.083 1871 43.2551
111.199 1899 43.5775
111.316 1860 43.1277
111.432 1986 44.5646
111.549 1866 43.1972
111.665 1941 44.0568
111.782 1905 43.6463
111.898 1767 42.0357
112.015 1587 39.8372
112.132 1622 40.2741
112.248 1506 38.8072
112.365 1440 37.9473
112.482 1537 39.2046
112.599 1569 39.6106
112.716 1567 39.5854
112.832 1699 41.2189
112.949 1743 41.7493
113.066 1774 42.1189
113.183 1682 41.0122
113.3 1687 41.0731
113.417 1570 39.6232
113.534 1572 39.6485
113.652 1381 37.1618
113.769 1251 35.3695
113.886 1220 34.9285
114.003 1183 34.3948
114.12 1454 38.1314
114.238 1465 38.2753
114.355 1653 40.6571
114.472 1863 43.1625
114.589 1723 41.509
114.707 1837 42.8602
114.824 1845 42.9535
114.942 1923 43.852
115.059 1865 43.1856
115.176 1779 42.1782
115.294 1726 41.5452
115.411 1680 40.9878
115.529 1638 40.4722
115.646 1577 39.7115
115.764 1519 38.9744
115.881 1447 38.0395
115.999 1437 37.9078
116.116 1478 38.4448
116.234 1584 39.7995
116.351 1550 39.37
116.469 1632 40.398
116.586 1653 40.6571
116.704 1671 40.8779
116.821 1676 40.939
116.939 1621 40.2616
117.056 1464 38.2623
117.174 1402 37.4433
117.291 1316 36.2767
117.409 1184 34.4093
117.526 1201 34.6554
117.644 1333 36.5103
117.761 1375 37.081
117.879 1536 39.1918
117.996 1628 40.3485
118.114 1707 41.3159
118.231 1757 41.9166
118.349 1793 42.3438
118.466 1706 41.3038
118.584 1805 42.4853
118.701 1819 42.6497
118.819 1774 42.1189
118.936 1701 41.2432
119.053 1620 40.2492
119.171 1526 39.064
119.288 1572 39.6485
119.405 1503 38.7685
119.523 1428 37.7889
119.64 1429 37.8021
119.757 1485 38.5357
119.875 1495 38.6652
119.992 1455 38.1445
120.109 1511 38.8716
120.226 1510 38.8587
120.343 1558 39.4715
120.46 1597 39.9625
120.578 1473 38.3797
120.695 1463 38.2492
120.812 1414 37.6032
120.929 1285 35.8469
121.046 1243 35.2562
121.163 1225 35
121.279 1267 35.5949
121.396 1395 37.3497
121.513 1478 38.4448
121.63 1620 40.2492
121.747 1674 40.9145
121.863 1729 41.5812
121.98 1698 41.2068
122.097 1765 42.0119
122.213 1760 41.9524
122.33 1664 40.7922
122.446 1732 41.6173
122.563 1644 40.5463
122.679 1618 40.2244
122.795 1565 39.5601
122.912 1461 38.223
123.028 1466 38.2884
123.144 1404 37.47
123.26 1418 37.6563
123.377 0 1
123.493 0 1
123.609 0 1
123.725 0 1
123.84 0 1
123.956 0 1
124.072 0 1
124.188 0 1
124.303 0 1
124.419 0 1
126.852 0 1
126.968 0 1
127.083 0 1
127.199 0 1
127.315 0 1
127.431 0 1
127.547 0 1
127.663 0 1
127.779 0 1
127.895 0 1
128.011 0 1
128.127 0 1
128.243 0 1
128.359 1628 40.3485
128.476 1607 40.0874
128.592 1577 39.7115
128.708 1636 40.4475
128.825 1701 41.2432
128.941 1669 40.8534
129.058 1735 41.6533
129.174 1738 41.6893
129.291 1764 42
129.408 1760 41.9524
129.524 1650 40.6202
129.641 1573 39.6611
129.758 1525 39.0512
129.875 1415 37.6165
129.992 1338 36.5787
130.108 1291 35.9305
130.225 1371 37.027
130.342 1534 39.1663
130.459 1659 40.7308
130.576 1839 42.8836
130.693 1783 42.2256
130.81 1834 42.8252
130.928 1865 43.1856
131.045 1749 41.821
131.162 1863 43.1625
131.279 1847 42.9767
131.396 1829 42.7668
131.513 1781 42.2019
131.631 1735 41.6533
131.748 1667 40.8289
131.865 1698 41.2068
131.983 1669 40.8534
132.1 1677 40.9512
132.217 1733 41.6293
132.335 1736 41.6653
132.452 1766 42.0238
132.57 1700 41.2311
132.687 1667 40.8289
132.804 1874 43.2897
132.922 1709 41.3401
133.039 1703 41.2674
133.157 1653 40.6571
133.274 1535 39.1791
133.392 1445 38.0132
133.509 1347 36.7015
133.627 1320 36.3318
133.744 1389 37.2693
133.862 1436 37.8946
133.979 1666 40.8167
134.097 1738 41.6893
134.214 1805 42.4853
134.332 1785 42.2493
134.449 1758 41.9285
134.567 1785 42.2493
134.684 1771 42.0833
134.802 1787 42.2729
134.919 1765 42.0119
135.037 1787 42.2729
135.154 1808 42.5206
135.272 1761 41.9643
135.389 1732 41.6173
135.507 1743 41.7493
135.624 1686 41.0609
135.742 1751 41.845
135.859 1722 41.497
135.977 1795 42.3674
136.094 1801 42.4382
136.211 1741 41.7253
136.329 1779 42.1782
136.446 1824 42.7083
136.564 1694 41.1582
136.681 1649 40.6079
136.798 1626 40.3237
136.915 1498 38.704
137.033 1393 37.3229
137.15 1364 36.9324
137.267 1320 36.3318
137.384 1349 36.7287
137.502 1494 38.6523
137.619 1591 39.8873
137.736 1596 39.95
137.853 1732 41.6173
137.97 1812 42.5676
138.087 1723 41.509
138.204 1814 42.5911
138.321 1777 42.1545
138.438 1871 43.2551
138.555 1949 44.1475
138.672 1926 43.8862
138.788 1931 43.9431
138.905 1864 43.1741
139.022 1809 42.5323
139.139 1859 43.1161
139.255 1810 42.5441
139.372 1850 43.0116
139.488 1886 43.4281
139.605 1903 43.6234
139.721 1845 42.9535
139.838 1947 44.1248
139.954 1891 43.4856
140.071 1906 43.6578
140.187 1846 42.9651
140.303 1810 42.5441
140.419 1777 42.1545
140.535 1656 40.694
140.652 1530 39.1152
140.768 0 1
140.884 0 1
141 0 1
141.115 0 1
141.231 0 1
141.347 0 1
141.463 0 1
141.578 0 1
141.694 0 1
144.104 0 1
144.219 0 1
144.335 0 1
144.45 0 1
144.566 0 1
144.682 0 1
144.798 0 1
144.914 0 1
145.03 0 1
145.146 1620 40.2492
145.262 1686 41.0609
145.378 1557 39.4588
145.494 1429 37.8021
145.61 1471 38.3536
145.726 1416 37.6298
145.842 1359 36.8646
145.959 1305 36.1248
146.075 1307 36.1525
146.192 1434 37.8682
146.308 1546 39.3192
146.425 1487 38.5616
146.541 1513 38.8973
146.658 1644 40.5463
146.774 1626 40.3237
146.891 1604 40.05
147.008 1623 40.2865
147.125 1755 41.8927
147.241 1703 41.2674
147.358 1690 41.1096
147.475 1682 41.0122
147.592 1695 41.1704
147.709 1675 40.9268
147.826 1604 40.05
147.943 1590 39.8748
148.06 1572 39.6485
148.177 1638 40.4722
148.294 1596 39.95
148.411 1730 41.5933
148.528 1604 40.05
148.645 1598 39.975
148.762 1598 39.975
148.88 1623 40.2865
148.997 1496 38.6782
149.114 1526 39.064
149.231 1439 37.9342
149.349 1305 36.1248
149.466 1250 35.3553
149.583 1221 34.9428
149.701 1211 34.7994
149.818 1390 37.2827
149.935 1421 37.6962
150.053 1430 37.8153
150.17 1565 39.5601
150.287 1549 39.3573
150.405 1589 39.8623
150.522 1550 39.37
150.64 1647 40.5832
150.757 1610 40.1248
150.875 1613 40.1622
150.992 1599 39.9875
151.11 1587 39.8372
151.227 1579 39.7366
151.344 1637 40.4599
151.462 1589 39.8623
151.579 1609 40.1123
151.697 1570 39.6232
151.814 1578 39.724
151.932 1564 39.5474
152.049 1571 39.6358
152.167 1607 40.0874
152.284 1602 40.025
152.402 1613 40.1622
152.519 1578 39.724
152.636 1496 38.6782
152.754 1383 37.1887
152.871 1349 36.7287
152.989 1281 35.7911
153.106 1222 34.9571
153.223 1193 34.5398
153.341 1252 35.3836
153.458 1335 36.5377
153.575 1398 37.3898
153.693 1406 37.4967
153.81 1476 38.4187
153.927 1510 38.8587
154.044 1581 39.7618
154.162 1602 40.025
154.279 1578 39.724
154.396 1717 41.4367
154.513 1672 40.8901
154.63 1660 40.7431
154.747 1689 41.0974
154.864 1685 41.0488
154.981 1709 41.3401
155.098 1636 40.4475
155.215 1651 40.6325
155.332 1683 41.0244
155.449 1707 41.3159
155.566 1666 40.8167
155.683 1668 40.8412
155.8 1654 40.6694
155.917 1712 41.3763
156.033 1647 40.5832
156.15 0 1
156.267 0 1
156.383 0 1
156.5 0 1
156.617 0 1
156.733 0 1
156.85 0 1
156.966 0 1
157.082 0 1
157.199 0 1
157.315 0 1
157.431 0 1
157.547 0 1
157.664 0 1
157.78 0 1
157.896 0 1
158.012 0 1
158.128 0 1
158.244 0 1
158.359 0 1
158.475 0 1
158.591 0 1
158.706 0 1
