
6.15755 0 1
6.2731 0 1
6.3887 0 1
6.50437 0 1
6.62009 0 1
6.73587 0 1
6.8517 0 1
6.96759 0 1
7.08353 0 1
7.19952 0 1
7.31557 0 1
7.43166 0 1
7.54781 0 1
7.664 0 1
7.78024 0 1
7.89653 0 1
8.01286 0 1
8.12924 0 1
8.24567 0 1
8.36213 0 1
8.47864 0 1
8.59519 0 1
8.71178 0 1
8.82841 0 1
8.94508 0 1
9.06179 0 1
9.17853 0 1
9.29531 0 1
9.41212 0 1
9.52897 0 1
9.64584 0 1
9.76276 0 1
9.8797 0 1
9.99667 0 1
10.1137 0 1
10.2307 0 1
10.3478 0 1
10.4648 0 1
10.5819 0 1
10.6991 0 1
10.8162 0 1
10.9334 0 1
11.0506 0 1
11.1678 0 1
11.285 0 1
11.4023 0 1
11.5196 0 1
11.6369 0 1
11.7542 0 1
11.8715 0 1
11.9888 0 1
12.1062 0 1
12.2235 0 1
12.3409 0 1
12.4582 0 1
12.5756 0 1
12.693 0 1
12.8104 0 1
12.9278 0 1
13.0452 0 1
13.1626 0 1
13.28 0 1
13.3974 0 1
13.5149 0 1
13.6323 0 1
13.7497 0 1
13.8671 0 1
13.9845 0 1
14.1019 0 1
14.2193 0 1
14.3367 0 1
14.4541 0 1
14.5714 0 1
14.6888 0 1
14.8062 0 1
14.9235 0 1
15.0408 0 0
15.1581 0 0
15.2755 0 0
15.3927 0 0
15.51 0 0
15.6273 0 0
15.7445 0 0
15.8617 0 0
15.9789 0 0
16.0961 0 0
16.2132 0 0
16.3304 0 0
16.4475 0 0
16.5646 0 0
16.6816 0 0
16.7986 0 0
16.9156 0 0
17.0326 0 0
17.1496 0 0
17.2665 0 0
17.3833 0 0
17.5002 0 0
17.617 0 0
17.7338 0 0
17.8505 0 0
17.9672 0 0
18.0839 0 0
18.2005 0 0
18.3171 0 0
18.4337 0 0
18.5502 0 0
18.6666 0 0
18.7831 0 0
18.8994 0 0
19.0158 0 0
19.1321 0 0
19.2483 0 0
19.3645 0 0
19.4806 0 0
19.5967 0 0
19.7128 0 0
19.8288 0 0
19.9447 0 0
20.0606 0 1
20.1764 0 1
20.2922 0 1
20.4079 0 1
20.5236 0 1
20.6392 0 1
20.7548 0 1
20.8702 0 1
23.3078 0 1
23.4233 0 1
23.539 0 1
23.6547 0 1
23.7704 0 1
23.8862 0 1
24.0021 0 1
24.118 0 1
24.234 0 1
24.35 0 1
24.4661 1230 35.0714
24.5822 1285 35.8469
24.6984 1150 33.9116
24.8146 1150 33.9116
24.9309 1134 33.6749
25.0472 1136 33.7046
25.1636 1165 34.1321
25.28 1148 33.8821
25.3965 1206 34.7275
25.513 1388 37.2559
25.6296 1274 35.6931
25.7462 1376 37.0945
25.8628 1464 38.2623
25.9795 1383 37.1887
26.0962 1367 36.973
26.213 1402 37.4433
26.3298 1337 36.565
26.4466 1363 36.9188
26.5635 1350 36.7423
26.6804 1245 35.2846
26.7973 1296 36
26.9143 1298 36.0278
27.0313 1265 35.5668
27.1483 1333 36.5103
27.2653 1365 36.9459
27.3824 1376 37.0945
27.4996 1314 36.2491
27.6167 1431 37.8286
27.7339 1345 36.6742
27.8511 1323 36.3731
27.9683 1318 36.3043
28.0855 1308 36.1663
28.2028 1229 35.0571
28.3201 1096 33.1059
28.4374 1078 32.8329
28.5547 1104 33.2265
28.6721 1079 32.8481
28.7894 1195 34.5688
28.9068 1189 34.4819
29.0242 1202 34.6699
29.1416 1322 36.3593
29.259 1269 35.623
29.3764 1365 36.9459
29.4939 1279 35.7631
29.6113 1349 36.7287
29.7288 1367 36.973
29.8463 1304 36.1109
29.9638 1332 36.4966
30.0812 1294 35.9722
30.1987 1282 35.805
30.3162 1281 35.7911
30.4337 1167 34.1614
30.5512 1269 35.623
30.6687 1260 35.4965
30.7862 1362 36.9053
30.9037 1354 36.7967
31.0212 1325 36.4005
31.1387 1334 36.524
31.2562 1308 36.1663
31.3737 1322 36.3593
31.4912 1253 35.3977
31.6087 1279 35.7631
31.7262 1203 34.6843
31.8436 1149 33.8969
31.9611 1139 33.7491
32.0785 1139 33.7491
32.1959 1086 32.9545
32.3134 1168 34.176
32.4308 1235 35.1426
32.5482 1281 35.7911
32.6655 1332 36.4966
32.7829 1330 36.4692
32.9002 1361 36.8917
33.0176 1382 37.1753
33.1349 1372 37.0405
33.2522 1346 36.6879
33.3694 1379 37.1349
33.4867 1375 37.081
33.6039 1356 36.8239
33.7211 1319 36.318
33.8383 1263 35.5387
33.9554 1283 35.819
34.0725 1206 34.7275
34.1896 1202 34.6699
34.3067 1336 36.5513
34.4237 1286 35.8608
34.5407 1394 37.3363
34.6577 1374 37.0675
34.7746 1353 36.7831
34.8915 1363 36.9188
35.0084 1313 36.2353
35.1252 1285 35.8469
35.242 1304 36.1109
35.3587 1263 35.5387
35.4755 1194 34.5543
35.5921 1180 34.3511
35.7088 1069 32.6956
35.8254 1135 33.6898
35.9419 1112 33.3467
36.0584 1162 34.0881
36.1749 1183 34.3948
36.2913 1194 34.5543
36.4077 1273 35.6791
36.524 1356 36.8239
36.6403 1355 36.8103
36.7565 1378 37.1214
36.8727 1422 37.7094
36.9889 1359 36.8646
37.1049 1315 36.2629
37.221 0 1
37.3369 0 1
37.4529 0 1
37.5687 0 1
37.6845 0 1
37.8003 0 1
37.916 0 1
38.0316 0 1
38.1472 0 1
40.5851 0 1
40.7008 0 1
40.8164 0 1
40.9322 0 1
41.048 0 1
41.1639 0 1
41.2798 0 1
41.3958 0 1
41.5118 0 1
41.6279 0 1
41.744 1151 33.9264
41.8602 1165 34.1321
41.9765 1160 34.0588
42.0928 1152 33.9411
42.2091 1178 34.322
42.3255 1191 34.5109
42.4419 1233 35.1141
42.5584 1159 34.0441
42.675 1148 33.8821
42.7915 1123 33.5112
42.9081 1086 32.9545
43.0248 1196 34.5832
43.1415 1194 34.5543
43.2582 1178 34.322
43.375 1197 34.5977
43.4918 1207 34.7419
43.6087 1240 35.2136
43.7256 1234 35.1283
43.8425 1172 34.2345
43.9595 1190 34.4964
44.0765 1043 32.2955
44.1935 1038 32.218
44.3106 1010 31.7805
44.4277 978 31.273
44.5448 879 29.6479
44.6619 882 29.6985
44.7791 920 30.3315
44.8963 948 30.7896
45.0136 930 30.4959
45.1308 1005 31.7017
45.2481 1075 32.7872
45.3654 1004 31.686
45.4827 1075 32.7872
45.6001 1051 32.4191
45.7174 1077 32.8177
45.8348 1034 32.1559
45.9522 1011 31.7962
46.0697 958 30.9516
46.1871 983 31.3528
46.3046 863 29.3769
46.422 908 30.133
46.5395 891 29.8496
46.657 999 31.607
46.7745 955 30.9031
46.892 1014 31.8434
47.0096 1005 31.7017
47.1271 949 30.8058
47.2446 939 30.6431
47.3622 914 30.2324
47.4797 840 28.9828
47.5973 837 28.931
47.7149 869 29.4788
47.8324 809 28.4429
47.95 794 28.178
48.0675 728 26.9815
48.1851 690 26.2679
48.3027 685 26.1725
48.4202 694 26.3439
48.5378 730 27.0185
48.6554 769 27.7308
48.7729 857 29.2746
48.8904 826 28.7402
49.008 851 29.1719
49.1255 835 28.8964
49.243 932 30.5287
49.3605 893 29.8831
49.478 871 29.5127
49.5955 824 28.7054
49.713 782 27.9643
49.8304 832 28.8444
49.9479 828 28.775
50.0653 897 29.95
50.1827 919 30.315
50.3001 949 30.8058
50.4175 891 29.8496
50.5348 1018 31.9061
50.6521 1049 32.3883
50.7694 1066 32.6497
50.8867 1093 33.0606
51.004 1044 32.311
51.1212 1131 33.6303
51.2384 1116 33.4066
51.3556 984 31.3688
51.4727 968 31.1127
51.5899 875 29.5804
51.707 819 28.6182
51.824 863 29.3769
51.9411 987 31.4166
52.0581 1026 32.0312
52.175 1122 33.4963
52.2919 1248 35.327
52.4088 1184 34.4093
52.5257 1278 35.7491
52.6425 1276 35.7211
52.7593 1275 35.7071
52.876 1344 36.6606
52.9927 1304 36.1109
53.1094 1327 36.428
53.226 1332 36.4966
53.3426 1239 35.1994
53.4591 1278 35.7491
53.5756 1308 36.1663
53.692 1291 35.9305
53.8084 1369 37
53.9248 1445 38.0132
54.0411 1500 38.7298
54.1573 1464 38.2623
54.2735 0 1
54.3896 0 1
54.5057 0 1
54.6217 0 1
54.7377 0 1
54.8537 0 1
54.9695 0 1
55.0853 0 1
55.2011 0 1
55.3168 0 1
55.4324 0 1
57.824 0 1
57.9396 0 1
58.0553 0 1
58.1711 0 1
58.2869 0 1
58.4028 0 1
58.5187 0 1
58.6347 0 1
58.7508 0 1
58.8669 0 1
58.983 1815 42.6028
59.0992 1834 42.8252
59.2155 1856 43.0813
59.3318 1786 42.2611
59.4482 1886 43.4281
59.5646 1845 42.9535
59.681 1852 43.0349
59.7975 1830 42.7785
59.9141 1689 41.0974
60.0306 1663 40.7799
60.1473 1593 39.9124
60.2639 1460 38.2099
60.3807 1282 35.805
60.4974 1358 36.8511
60.6142 1411 37.5633
60.731 1538 39.2173
60.8479 1652 40.6448
60.9648 1779 42.1782
61.0818 1740 41.7133
61.1987 1782 42.2137
61.3158 1832 42.8019
61.4328 1801 42.4382
61.5499 1772 42.0951
61.667 1829 42.7668
61.7841 1831 42.7902
61.9013 1744 41.7612
62.0185 1737 41.6773
62.1357 1727 41.5572
62.253 1831 42.7902
62.3702 1872 43.2666
62.4875 1837 42.8602
62.6049 1841 42.9069
62.7222 1836 42.8486
62.8396 1894 43.5201
62.9569 1886 43.4281
63.0743 1874 43.2897
63.1918 1851 43.0232
63.3092 1800 42.4264
63.4267 1763 41.9881
63.5441 1653 40.6571
63.6616 1548 39.3446
63.7791 1422 37.7094
63.8966 1307 36.1525
64.0142 1330 36.4692
64.1317 1474 38.3927
64.2492 1485 38.5357
64.3668 1706 41.3038
64.4843 1873 43.2782
64.6019 1774 42.1189
64.7195 1856 43.0813
64.837 1909 43.6921
64.9546 1914 43.7493
65.0722 1931 43.9431
65.1898 1829 42.7668
65.3074 1852 43.0349
65.4249 1707 41.3159
65.5425 1753 41.8688
65.6601 1699 41.2189
65.7777 1778 42.1663
65.8952 1843 42.9302
66.0128 1885 43.4166
66.1304 1900 43.589
66.2479 1848 42.9884
66.3655 1963 44.3058
66.483 2049 45.2659
66.6005 2034 45.0999
66.718 1961 44.2832
66.8355 2002 44.7437
66.953 1884 43.4051
67.0705 1871 43.2551
67.1879 1731 41.6053
67.3054 1585 39.8121
67.4228 1555 39.4335
67.5402 1351 36.756
67.6576 1327 36.428
67.7749 1487 38.5616
67.8923 1740 41.7133
68.0096 1860 43.1277
68.1269 2000 44.7214
68.2442 1961 44.2832
68.3614 1990 44.6094
68.4787 2032 45.0777
68.5958 1994 44.6542
68.713 2159 46.465
68.8302 2083 45.6399
68.9473 2073 45.5302
69.0643 2018 44.9222
69.1814 1970 44.3847
69.2984 1913 43.7379
69.4154 1992 44.6318
69.5323 2146 46.3249
69.6492 2145 46.3141
69.7661 2157 46.4435
69.8829 2339 48.3632
69.9997 2262 47.5605
70.1165 2284 47.7912
70.2332 2224 47.1593
70.3499 2384 48.8262
70.4665 2268 47.6235
70.5831 2275 47.697
70.6996 2118 46.0217
70.8161 2033 45.0888
70.9326 1862 43.1509
71.049 1734 41.6413
71.1653 1440 37.9473
71.2817 1429 37.8021
71.3979 1479 38.4578
71.5141 1467 38.3014
71.6303 1758 41.9285
71.7464 1728 41.5692
71.8624 0 1
71.9784 0 1
72.0944 0 1
72.2102 0 1
72.3261 0 1
72.4418 0 1
72.5575 0 1
72.6732 0 1
75.1054 0 1
75.2209 0 1
75.3365 0 1
75.4521 0 1
75.5678 0 1
75.6835 0 1
75.7993 0 1
75.9151 0 1
76.031 0 1
76.147 2014 44.8776
76.263 2131 46.1628
76.3791 1953 44.1928
76.4952 1774 42.1189
76.6113 1515 38.923
76.7276 1688 41.0853
76.8438 1844 42.9418
76.9601 2061 45.3982
77.0765 2451 49.5076
77.1929 2575 50.7445
77.3093 2540 50.3984
77.4258 2650 51.4782
77.5423 2510 50.0999
77.6589 2725 52.2015
77.7755 2634 51.3225
77.8921 2610 51.0882
78.0088 2506 50.06
78.1256 2422 49.2138
78.2423 2437 49.366
78.3591 2369 48.6724
78.4759 2495 49.95
78.5928 2615 51.1371
78.7097 2791 52.8299
78.8266 2841 53.301
78.9436 2686 51.8266
79.0606 2737 52.3163
79.1776 2692 51.8845
79.2946 2797 52.8867
79.4117 2710 52.0577
79.5288 2684 51.8073
79.6459 2694 51.9038
79.7631 2602 51.0098
79.8802 2345 48.4252
79.9974 2104 45.8694
80.1147 2027 45.0222
80.2319 1781 42.2019
80.3491 1844 42.9418
80.4664 2017 44.911
80.5837 2232 47.244
80.701 2605 51.0392
80.8183 2708 52.0384
80.9357 2813 53.0377
81.053 2739 52.3355
81.1704 2839 53.2823
81.2877 2862 53.4977
81.4051 2849 53.376
81.5225 2876 53.6284
81.6399 2776 52.6878
81.7573 2735 52.2972
81.8747 2694 51.9038
81.9922 2586 50.8527
82.1096 2650 51.4782
82.227 2725 52.2015
82.3444 2788 52.8015
82.4619 2856 53.4416
82.5793 2935 54.1756
82.6967 3030 55.0454
82.8142 2914 53.9815
82.9316 2918 54.0185
83.049 2889 53.7494
83.1664 2872 53.591
83.2838 2801 52.9245
83.4012 2711 52.0673
83.5186 2588 50.8724
83.636 2342 48.3942
83.7534 2032 45.0777
83.8708 1775 42.1307
83.9881 1765 42.0119
84.1055 2015 44.8888
84.2228 2327 48.239
84.3401 2579 50.7839
84.4575 2802 52.9339
84.5747 3012 54.8817
84.692 3039 55.1271
84.8093 3165 56.2583
84.9265 3069 55.3986
85.0437 3100 55.6776
85.1609 3014 54.8999
85.2781 2923 54.0648
85.3952 3052 55.2449
85.5123 2956 54.3691
85.6294 2886 53.7215
85.7465 3006 54.827
85.8636 3042 55.1543
85.9806 3268 57.1664
86.0976 3339 57.7841
86.2145 3379 58.1292
86.3315 3257 57.0701
86.4484 3394 58.258
86.5652 3327 57.6802
86.682 3503 59.1861
86.7988 3412 58.4123
86.9156 3249 57
87.0323 3204 56.6039
87.149 3065 55.3624
87.2657 2821 53.1131
87.3823 2332 48.2908
87.4988 2299 47.9479
87.6154 2392 48.9081
87.7318 2684 51.8073
87.8483 3123 55.8838
87.9647 3499 59.1523
88.081 3629 60.2412
88.1973 3836 61.9355
88.3136 3836 61.9355
88.4298 3702 60.8441
88.546 3897 62.426
88.6621 3671 60.5888
88.7781 3687 60.7207
88.8942 0 1
89.0101 0 1
89.126 0 1
89.2419 0 1
89.3577 0 1
89.4734 0 1
89.5891 0 1
89.7047 0 1
89.8203 0 1
89.9358 0 1
92.3269 0 1
92.4424 0 1
92.558 0 1
92.6736 0 1
92.7893 0 1
92.905 0 1
93.0208 0 1
93.1366 0 1
93.2525 0 1
93.3685 0 1
93.4845 0 1
93.6005 3940 62.7694
93.7167 4001 63.2535
93.8328 4158 64.4826
93.949 4037 63.5374
94.0653 4117 64.1639
94.1816 4154 64.4515
94.2979 3998 63.2297
94.4143 3932 62.7057
94.5307 3978 63.0714
94.6472 3787 61.5386
94.7637 3824 61.8385
94.8803 3964 62.9603
94.9969 3854 62.0806
95.1135 3997 63.2218
95.2302 4235 65.0769
95.3469 4333 65.8255
95.4637 4297 65.5515
95.5805 4328 65.7875
95.6973 4247 65.169
95.8142 4431 66.5658
95.9311 4348 65.9394
96.048 4114 64.1405
96.1649 3980 63.0872
96.2819 3900 62.45
96.3989 3545 59.5399
96.516 3132 55.9643
96.633 2747 52.4118
96.7501 2646 51.4393
96.8673 3029 55.0364
96.9844 3480 58.9915
97.1016 3885 62.3298
97.2188 4345 65.9166
97.336 4539 67.3721
97.4532 4479 66.9253
97.5704 4603 67.8454
97.6877 4615 67.9338
97.805 4651 68.1982
97.9223 4619 67.9632
98.0396 4545 67.4166
98.1569 4507 67.1342
98.2743 4354 65.9848
98.3916 4324 65.7571
98.509 4275 65.3835
98.6264 4263 65.2917
98.7438 4346 65.9242
98.8612 4510 67.1565
98.9786 4705 68.593
99.096 4712 68.644
99.2134 4757 68.971
99.3308 4832 69.5126
99.4482 4783 69.1592
99.5656 4688 68.469
99.6831 4633 68.0661
99.8005 4530 67.3053
99.9179 4149 64.4127
100.035 3941 62.7774
100.153 3445 58.6941
100.27 3073 55.4346
100.388 3190 56.4801
100.505 3674 60.6135
100.622 4278 65.4064
100.74 4732 68.7895
100.857 4858 69.6994
100.975 4894 69.9571
101.092 4924 70.1712
101.209 4954 70.3847
101.327 4993 70.6612
101.444 5038 70.9789
101.561 5008 70.7672
101.679 5009 70.7743
101.796 4808 69.3397
101.913 4671 68.3447
102.03 4683 68.4324
102.148 4674 68.3667
102.265 5028 70.9084
102.382 4640 68.1175
102.499 4909 70.0643
102.616 5119 71.5472
102.733 5258 72.5121
102.851 5278 72.6498
102.968 5319 72.9315
103.085 5337 73.0548
103.202 5282 72.6774
103.319 5032 70.9366
103.436 4743 68.8694
103.552 4411 66.4154
103.669 3767 61.3759
103.786 3310 57.5326
103.903 3426 58.532
104.02 3958 62.9126
104.137 4542 67.3944
104.253 5251 72.4638
104.37 5325 72.9726
104.487 5360 73.212
104.603 5402 73.4983
104.72 5625 75
104.836 5556 74.5386
104.953 5591 74.773
105.069 5438 73.7428
105.186 5391 73.4234
105.302 5369 73.2735
105.418 5215 72.215
105.535 5054 71.0915
105.651 5230 72.3187
105.767 5230 72.3187
105.883 5462 73.9053
105.999 5460 73.8918
106.115 0 1
106.231 0 1
106.347 0 1
106.463 0 1
106.579 0 1
106.694 0 1
106.81 0 1
106.926 0 1
107.041 0 1
107.157 0 1
109.576 0 1
109.692 0 1
109.807 0 1
109.923 0 1
110.039 0 1
110.155 0 1
110.27 0 1
110.386 0 1
110.502 0 1
110.618 4670 68.3374
110.735 4944 70.3136
110.851 5051 71.0704
110.967 5026 70.8943
111.083 5172 71.9166
111.199 5213 72.2011
111.316 5246 72.4293
111.432 5391 73.4234
111.549 5129 71.617
111.665 5027 70.9013
111.782 4969 70.4911
111.898 4598 67.8086
112.015 4218 64.9461
112.132 3715 60.9508
112.248 3262 57.1139
112.365 3290 57.3585
112.482 3492 59.0931
112.599 4045 63.6003
112.716 4484 66.9627
112.832 4671 68.3447
112.949 4925 70.1783
113.066 4859 69.7065
113.183 4885 69.8928
113.3 4731 68.7823
113.417 4767 69.0435
113.534 4757 68.971
113.652 4760 68.9928
113.769 4536 67.3498
113.886 4656 68.2349
114.003 4486 66.9776
114.12 4443 66.6558
114.238 4254 65.2227
114.355 4325 65.7647
114.472 4320 65.7267
114.589 4628 68.0294
114.707 4392 66.2722
114.824 4594 67.7791
114.942 4527 67.283
115.059 4654 68.2202
115.176 4559 67.5204
115.294 4586 67.72
115.411 4340 65.8787
115.529 3986 63.1348
115.646 3495 59.1185
115.764 3098 55.6597
115.881 2915 53.9907
115.999 3166 56.2672
116.116 3517 59.3043
116.234 4014 63.3561
116.351 4285 65.4599
116.469 4442 66.6483
116.586 4629 68.0368
116.704 4567 67.5796
116.821 4485 66.9701
116.939 4498 67.0671
117.056 4598 67.8086
117.174 4444 66.6633
117.291 4545 67.4166
117.409 4353 65.9773
117.526 4355 65.9924
117.644 4304 65.6049
117.761 4158 64.4826
117.879 4263 65.2917
117.996 4189 64.7225
118.114 4316 65.6963
118.231 4483 66.9552
118.349 4435 66.5958
118.466 4596 67.7938
118.584 4651 68.1982
118.701 4578 67.6609
118.819 4554 67.4833
118.936 4416 66.453
119.053 4166 64.5446
119.171 3911 62.538
119.288 3462 58.8388
119.405 2991 54.69
119.523 2879 53.6563
119.64 3117 55.8301
119.757 3427 58.5406
119.875 3863 62.153
119.992 4133 64.2884
120.109 4223 64.9846
120.226 4384 66.2118
120.343 4342 65.8939
120.46 4496 67.0522
120.578 4364 66.0606
120.695 4279 65.4141
120.812 4280 65.4217
120.929 4258 65.2534
121.046 4201 64.8151
121.163 4262 65.284
121.279 4269 65.3376
121.396 4218 64.9461
121.513 4242 65.1306
121.63 4074 63.8279
121.747 4113 64.1327
121.863 4132 64.2806
121.98 4232 65.0538
122.097 4142 64.3584
122.213 4266 65.3146
122.33 4289 65.4905
122.446 4265 65.307
122.563 4142 64.3584
122.679 4007 63.3009
122.795 3879 62.2816
122.912 3665 60.5392
123.028 3307 57.5065
123.144 2922 54.0555
123.26 2799 52.9056
123.377 0 1
123.493 0 1
123.609 0 1
123.725 0 1
123.84 0 1
123.956 0 1
124.072 0 1
124.188 0 1
124.303 0 1
124.419 0 1
126.852 0 1
126.968 0 1
127.083 0 1
127.199 0 1
127.315 0 1
127.431 0 1
127.547 0 1
127.663 0 1
127.779 0 1
127.895 0 1
128.011 0 1
128.127 0 1
128.243 0 1
128.359 3269 57.1752
128.476 2878 53.647
128.592 3142 56.0535
128.708 3551 59.5903
128.825 3993 63.1902
128.941 4295 65.5362
129.058 4542 67.3944
129.174 4595 67.7864
129.291 4436 66.6033
129.408 4614 67.9264
129.524 4585 67.7126
129.641 4429 66.5507
129.758 4421 66.4906
129.875 4396 66.3023
129.992 4502 67.0969
130.108 4375 66.1438
130.225 4221 64.9692
130.342 4282 65.437
130.459 4094 63.9844
130.576 4385 66.2193
130.693 4323 65.7495
130.81 4205 64.846
130.928 4452 66.7233
131.045 4372 66.1211
131.162 4416 66.453
131.279 4497 67.0597
131.396 4516 67.2012
131.513 4423 66.5056
131.631 4025 63.4429
131.748 3915 62.57
131.865 3280 57.2713
131.983 3030 55.0454
132.1 2965 54.4518
132.217 3350 57.8792
132.335 3707 60.8851
132.452 3940 62.7694
132.57 4314 65.681
132.687 4220 64.9615
132.804 4498 67.0671
132.922 4364 66.0606
133.039 4313 65.6734
133.157 4340 65.8787
133.274 4348 65.9394
133.392 4220 64.9615
133.509 4157 64.4748
133.627 4214 64.9153
133.744 4154 64.4515
133.862 4093 63.9766
133.979 4116 64.1561
134.097 4147 64.3972
134.214 4088 63.9375
134.332 3918 62.5939
134.449 4059 63.7103
134.567 4086 63.9218
134.684 4199 64.7997
134.802 4243 65.1383
134.919 4209 64.8768
135.037 4151 64.4283
135.154 3994 63.1981
135.272 3822 61.8223
135.389 3501 59.1692
135.507 3094 55.6237
135.624 2818 53.0848
135.742 2960 54.4059
135.859 3280 57.2713
135.977 3658 60.4814
136.094 3972 63.0238
136.211 4052 63.6553
136.329 4213 64.9076
136.446 4276 65.3911
136.564 4257 65.2457
136.681 4207 64.8614
136.798 4049 63.6318
136.915 4070 63.7966
137.033 4068 63.7809
137.15 4062 63.7338
137.267 4011 63.3325
137.384 3926 62.6578
137.502 3986 63.1348
137.619 3864 62.1611
137.736 3836 61.9355
137.853 3683 60.6877
137.97 3792 61.5792
138.087 4007 63.3009
138.204 4053 63.6632
138.321 3935 62.7296
138.438 4007 63.3009
138.555 4061 63.726
138.672 3997 63.2218
138.788 3973 63.0317
138.905 3761 61.327
139.022 3596 59.9667
139.139 3131 55.9553
139.255 2975 54.5436
139.372 3006 54.827
139.488 3236 56.8859
139.605 3624 60.1997
139.721 3933 62.7136
139.838 3943 62.7933
139.954 3909 62.522
140.071 3957 62.9047
140.187 4086 63.9218
140.303 4000 63.2456
140.419 4014 63.3561
140.535 3911 62.538
140.652 3860 62.1289
140.768 0 1
140.884 0 1
141 0 1
141.115 0 1
141.231 0 1
141.347 0 1
141.463 0 1
141.578 0 1
141.694 0 1
144.104 0 1
144.219 0 1
144.335 0 1
144.45 0 1
144.566 0 1
144.682 0 1
144.798 0 1
144.914 0 1
145.03 0 1
145.146 3474 58.9406
145.262 3418 58.4637
145.378 3408 58.3781
145.494 3396 58.2752
145.61 3444 58.6856
145.726 3300 57.4456
145.842 3374 58.0861
145.959 3300 57.4456
146.075 3148 56.107
146.192 3235 56.8771
146.308 3248 56.9912
146.425 3222 56.7627
146.541 3274 57.2189
146.658 3190 56.4801
146.774 3139 56.0268
146.891 3204 56.6039
147.008 3166 56.2672
147.125 3210 56.6569
147.241 3302 57.463
147.358 3167 56.2761
147.475 3044 55.1725
147.592 2824 53.1413
147.709 2665 51.6236
147.826 2392 48.9081
147.943 2415 49.1426
148.06 2570 50.6952
148.177 2824 53.1413
148.294 3088 55.5698
148.411 3149 56.116
148.528 3242 56.9386
148.645 3223 56.7715
148.762 3264 57.1314
148.88 3102 55.6956
148.997 3005 54.8179
149.114 3154 56.1605
149.231 3051 55.2359
149.349 3025 55
149.466 2977 54.5619
149.583 2947 54.2863
149.701 2956 54.3691
149.818 2972 54.5161
149.935 3027 55.0182
150.053 2963 54.4334
150.17 2907 53.9166
150.287 2878 53.647
150.405 2979 54.5802
150.522 2910 53.9444
150.64 2887 53.7308
150.757 2968 54.4794
150.875 2958 54.3875
150.992 2978 54.5711
151.11 2716 52.1153
151.227 2674 51.7107
151.344 2557 50.5668
151.462 2336 48.3322
151.579 2225 47.1699
151.697 2378 48.7647
151.814 2756 52.4976
151.932 2808 52.9906
152.049 2976 54.5527
152.167 2992 54.6992
152.284 3100 55.6776
152.402 3089 55.5788
152.519 3007 54.8361
152.636 3014 54.8999
152.754 3010 54.8635
152.871 3014 54.8999
152.989 2830 53.1977
153.106 2936 54.1849
153.223 2788 52.8015
153.341 2879 53.6563
153.458 2885 53.7122
153.575 3047 55.1996
153.693 2928 54.111
153.81 3047 55.1996
153.927 2940 54.2218
154.044 2928 54.111
154.162 3058 55.2992
154.279 3090 55.5878
154.396 3013 54.8908
154.513 2990 54.6809
154.63 2952 54.3323
154.747 2921 54.0463
154.864 2867 53.5444
154.981 2754 52.4786
155.098 2609 51.0784
155.215 2491 49.9099
155.332 2575 50.7445
155.449 2819 53.0943
155.566 2981 54.5985
155.683 3073 55.4346
155.8 3022 54.9727
155.917 2972 54.5161
156.033 3149 56.116
156.15 0 1
156.267 0 1
156.383 0 1
156.5 0 1
156.617 0 1
156.733 0 1
156.85 0 1
156.966 0 1
157.082 0 1
157.199 0 1
157.315 0 1
157.431 0 1
157.547 0 1
157.664 0 1
157.78 0 1
157.896 0 1
158.012 0 1
158.128 0 1
158.244 0 1
158.359 0 1
158.475 0 1
158.591 0 1
158.706 0 1
