
6.15755 0 1
6.2731 0 1
6.3887 0 1
6.50437 0 1
6.62009 0 1
6.73587 0 1
6.8517 0 1
6.96759 0 1
7.08353 0 1
7.19952 0 1
7.31557 0 1
7.43166 0 1
7.54781 0 1
7.664 0 1
7.78024 0 1
7.89653 0 1
8.01286 0 1
8.12924 0 1
8.24567 0 1
8.36213 0 1
8.47864 0 1
8.59519 0 1
8.71178 0 1
8.82841 0 1
8.94508 0 1
9.06179 0 1
9.17853 0 1
9.29531 0 1
9.41212 0 1
9.52897 0 1
9.64584 0 1
9.76276 0 1
9.8797 0 1
9.99667 0 1
10.1137 0 1
10.2307 0 1
10.3478 0 1
10.4648 0 1
10.5819 0 1
10.6991 0 1
10.8162 0 1
10.9334 0 1
11.0506 0 1
11.1678 0 1
11.285 0 1
11.4023 0 1
11.5196 0 1
11.6369 0 1
11.7542 0 1
11.8715 0 1
11.9888 0 1
12.1062 0 1
12.2235 0 1
12.3409 0 1
12.4582 0 1
12.5756 0 1
12.693 0 1
12.8104 0 1
12.9278 0 1
13.0452 0 1
13.1626 0 1
13.28 0 1
13.3974 0 1
13.5149 0 1
13.6323 0 1
13.7497 0 1
13.8671 0 1
13.9845 0 1
14.1019 0 1
14.2193 0 1
14.3367 0 1
14.4541 0 1
14.5714 0 1
14.6888 0 1
14.8062 0 1
14.9235 0 1
15.0408 1890 43.4741
15.1581 1997 44.6878
15.2755 2082 45.6289
15.3927 2123 46.076
15.51 2062 45.4093
15.6273 2115 45.9891
15.7445 2093 45.7493
15.8617 2111 45.9456
15.9789 2116 46
16.0961 2124 46.0869
16.2132 2106 45.8912
16.3304 2164 46.5188
16.4475 2206 46.9681
16.5646 2226 47.1805
16.6816 2351 48.4871
16.7986 2447 49.4672
16.9156 2528 50.2792
17.0326 2555 50.547
17.1496 2448 49.4773
17.2665 2527 50.2693
17.3833 2442 49.4166
17.5002 2386 48.8467
17.617 2333 48.3011
17.7338 2207 46.9787
17.8505 2124 46.0869
17.9672 2141 46.2709
18.0839 2138 46.2385
18.2005 2182 46.7119
18.3171 2270 47.6445
18.4337 2302 47.9792
18.5502 2371 48.6929
18.6666 2363 48.6107
18.7831 2443 49.4267
18.8994 2425 49.2443
19.0158 2430 49.295
19.1321 2354 48.518
19.2483 2267 47.613
19.3645 2145 46.3141
19.4806 1969 44.3734
19.5967 1859 43.1161
19.7128 1665 40.8044
19.8288 1692 41.1339
19.9447 1514 38.9102
20.0606 0 1
20.1764 0 1
20.2922 0 1
20.4079 0 1
20.5236 0 1
20.6392 0 1
20.7548 0 1
20.8702 0 1
23.3078 0 1
23.4233 0 1
23.539 0 1
23.6547 0 1
23.7704 0 1
23.8862 0 1
24.0021 0 1
24.118 0 1
24.234 0 1
24.35 0 1
24.4661 1033 32.1403
24.5822 1166 34.1467
24.6984 1407 37.51
24.8146 1488 38.5746
24.9309 1628 40.3485
25.0472 1813 42.5793
25.1636 1880 43.359
25.28 2052 45.299
25.3965 2282 47.7703
25.513 2369 48.6724
25.6296 2506 50.06
25.7462 2562 50.6162
25.8628 2641 51.3907
25.9795 2622 51.2055
26.0962 2658 51.5558
26.213 2573 50.7247
26.3298 2325 48.2183
26.4466 2282 47.7703
26.5635 2240 47.3286
26.6804 2286 47.8121
26.7973 2330 48.2701
26.9143 2293 47.8853
27.0313 2302 47.9792
27.1483 2439 49.3862
27.2653 2439 49.3862
27.3824 2444 49.4368
27.4996 2577 50.7642
27.6167 2449 49.4874
27.7339 2452 49.5177
27.8511 2376 48.7442
27.9683 2222 47.1381
28.0855 2265 47.592
28.2028 2176 46.6476
28.3201 2174 46.6262
28.4374 2062 45.4093
28.5547 2127 46.1194
28.6721 2226 47.1805
28.7894 2360 48.5798
28.9068 2430 49.295
29.0242 2494 49.94
29.1416 2505 50.05
29.259 2536 50.3587
29.3764 2619 51.1762
29.4939 2523 50.2295
29.6113 2566 50.6557
29.7288 2338 48.3529
29.8463 2295 47.9062
29.9638 2167 46.551
30.0812 2079 45.5961
30.1987 2129 46.1411
30.3162 2112 45.9565
30.4337 2132 46.1736
30.5512 2293 47.8853
30.6687 2354 48.518
30.7862 2393 48.9183
30.9037 2269 47.634
31.0212 2411 49.1019
31.1387 2395 48.9387
31.2562 2351 48.4871
31.3737 2356 48.5386
31.4912 2324 48.2079
31.6087 2281 47.7598
31.7262 2186 46.7547
31.8436 2011 44.8442
31.9611 1988 44.587
32.0785 2091 45.7275
32.1959 2278 47.7284
32.3134 2158 46.4543
32.4308 2323 48.1975
32.5482 2428 49.2747
32.6655 2386 48.8467
32.7829 2463 49.6286
32.9002 2437 49.366
33.0176 2550 50.4975
33.1349 2475 49.7494
33.2522 2334 48.3115
33.3694 2268 47.6235
33.4867 2234 47.2652
33.6039 2193 46.8295
33.7211 1991 44.6206
33.8383 2021 44.9555
33.9554 1996 44.6766
34.0725 2127 46.1194
34.1896 2113 45.9674
34.3067 2178 46.669
34.4237 2357 48.5489
34.5407 2329 48.2597
34.6577 2241 47.3392
34.7746 2227 47.1911
34.8915 2258 47.5184
35.0084 2310 48.0625
35.1252 2201 46.9148
35.242 2135 46.2061
35.3587 2079 45.5961
35.4755 2110 45.9347
35.5921 1930 43.9318
35.7088 1992 44.6318
35.8254 1963 44.3058
35.9419 2111 45.9456
36.0584 2076 45.5631
36.1749 2160 46.4758
36.2913 2192 46.8188
36.4077 2100 45.8258
36.524 2201 46.9148
36.6403 2120 46.0435
36.7565 1908 43.6807
36.8727 1922 43.8406
36.9889 1791 42.3202
37.1049 1528 39.0896
37.221 0 1
37.3369 0 1
37.4529 0 1
37.5687 0 1
37.6845 0 1
37.8003 0 1
37.916 0 1
38.0316 0 1
38.1472 0 1
40.5851 0 1
40.7008 0 1
40.8164 0 1
40.9322 0 1
41.048 0 1
41.1639 0 1
41.2798 0 1
41.3958 0 1
41.5118 0 1
41.6279 0 1
41.744 1081 32.8786
41.8602 1264 35.5528
41.9765 1351 36.756
42.0928 1418 37.6563
42.2091 1402 37.4433
42.3255 1347 36.7015
42.4419 1326 36.4143
42.5584 1345 36.6742
42.675 1513 38.8973
42.7915 1638 40.4722
42.9081 1699 41.2189
43.0248 1772 42.0951
43.1415 1892 43.4971
43.2582 1824 42.7083
43.375 1977 44.4635
43.4918 1873 43.2782
43.6087 1975 44.441
43.7256 1905 43.6463
43.8425 1798 42.4028
43.9595 1829 42.7668
44.0765 1717 41.4367
44.1935 1695 41.1704
44.3106 1676 40.939
44.4277 1633 40.4104
44.5448 1588 39.8497
44.6619 1640 40.4969
44.7791 1640 40.4969
44.8963 1800 42.4264
45.0136 1890 43.4741
45.1308 1946 44.1135
45.2481 1896 43.5431
45.3654 1906 43.6578
45.4827 1995 44.6654
45.6001 1969 44.3734
45.7174 1883 43.3935
45.8348 1738 41.6893
45.9522 1612 40.1497
46.0697 1629 40.3609
46.1871 1568 39.598
46.3046 1731 41.6053
46.422 1650 40.6202
46.5395 1745 41.7732
46.657 1833 42.8135
46.7745 1821 42.6732
46.892 1818 42.638
47.0096 1920 43.8178
47.1271 1959 44.2606
47.2446 1954 44.2041
47.3622 1950 44.1588
47.4797 1815 42.6028
47.5973 1922 43.8406
47.7149 1819 42.6497
47.8324 1750 41.833
47.95 1680 40.9878
48.0675 1680 40.9878
48.1851 1610 40.1248
48.3027 1635 40.4351
48.4202 1736 41.6653
48.5378 1898 43.566
48.6554 1949 44.1475
48.7729 1960 44.2719
48.8904 1887 43.4396
49.008 1994 44.6542
49.1255 1945 44.1022
49.243 1809 42.5323
49.3605 1743 41.7493
49.478 1621 40.2616
49.5955 1596 39.95
49.713 1518 38.9615
49.8304 1524 39.0384
49.9479 1630 40.3733
50.0653 1699 41.2189
50.1827 1759 41.9404
50.3001 1829 42.7668
50.4175 1807 42.5088
50.5348 1922 43.8406
50.6521 1926 43.8862
50.7694 1975 44.441
50.8867 1968 44.3621
51.004 1926 43.8862
51.1212 1981 44.5084
51.2384 1867 43.2088
51.3556 1853 43.0465
51.4727 1700 41.2311
51.5899 1658 40.7185
51.707 1687 41.0731
51.824 1770 42.0714
51.9411 1904 43.6348
52.0581 2058 45.3652
52.175 2176 46.6476
52.2919 2229 47.2123
52.4088 2291 47.8644
52.5257 2428 49.2747
52.6425 2384 48.8262
52.7593 2317 48.1352
52.876 2243 47.3603
52.9927 2232 47.244
53.1094 2096 45.7821
53.226 1985 44.5533
53.3426 1904 43.6348
53.4591 1836 42.8486
53.5756 2013 44.8665
53.692 1968 44.3621
53.8084 1958 44.2493
53.9248 1896 43.5431
54.0411 1869 43.2319
54.1573 1812 42.5676
54.2735 0 1
54.3896 0 1
54.5057 0 1
54.6217 0 1
54.7377 0 1
54.8537 0 1
54.9695 0 1
55.0853 0 1
55.2011 0 1
55.3168 0 1
55.4324 0 1
57.824 0 1
57.9396 0 1
58.0553 0 1
58.1711 0 1
58.2869 0 1
58.4028 0 1
58.5187 0 1
58.6347 0 1
58.7508 0 1
58.8669 0 1
58.983 1545 39.3065
59.0992 1729 41.5812
59.2155 1998 44.699
59.3318 2112 45.9565
59.4482 2259 47.5289
59.5646 2288 47.833
59.681 2407 49.0612
59.7975 2297 47.927
59.9141 2356 48.5386
60.0306 2209 47
60.1473 2118 46.0217
60.2639 2121 46.0543
60.3807 2081 45.618
60.4974 2144 46.3033
60.6142 2186 46.7547
60.731 2358 48.5592
60.8479 2408 49.0714
60.9648 2457 49.5681
61.0818 2412 49.1121
61.1987 2465 49.6488
61.3158 2405 49.0408
61.4328 2376 48.7442
61.5499 2211 47.0213
61.667 2108 45.913
61.7841 1975 44.441
61.9013 1895 43.5316
62.0185 1941 44.0568
62.1357 2016 44.8999
62.253 2153 46.4004
62.3702 2145 46.3141
62.4875 2203 46.9361
62.6049 2311 48.0729
62.7222 2364 48.621
62.8396 2400 48.9898
62.9569 2380 48.7852
63.0743 2345 48.4252
63.1918 2392 48.9081
63.3092 2294 47.8957
63.4267 2330 48.2701
63.5441 2243 47.3603
63.6616 2076 45.5631
63.7791 1948 44.1362
63.8966 1979 44.486
64.0142 1997 44.6878
64.1317 2084 45.6508
64.2492 2144 46.3033
64.3668 2248 47.4131
64.4843 2452 49.5177
64.6019 2400 48.9898
64.7195 2497 49.97
64.837 2434 49.3356
64.9546 2386 48.8467
65.0722 2267 47.613
65.1898 2128 46.1303
65.3074 1859 43.1161
65.4249 1791 42.3202
65.5425 1732 41.6173
65.6601 1871 43.2551
65.7777 1851 43.0232
65.8952 2009 44.8219
66.0128 2141 46.2709
66.1304 2180 46.6905
66.2479 2276 47.7074
66.3655 2353 48.5077
66.483 2342 48.3942
66.6005 2259 47.5289
66.718 2420 49.1935
66.8355 2347 48.4458
66.953 2273 47.676
67.0705 2200 46.9042
67.1879 2134 46.1952
67.3054 2100 45.8258
67.4228 1934 43.9773
67.5402 1734 41.6413
67.6576 1858 43.1045
67.7749 1996 44.6766
67.8923 2083 45.6399
68.0096 2279 47.7389
68.1269 2323 48.1975
68.2442 2255 47.4868
68.3614 2327 48.239
68.4787 2362 48.6004
68.5958 2404 49.0306
68.713 2118 46.0217
68.8302 2055 45.3321
68.9473 1872 43.2666
69.0643 1732 41.6173
69.1814 1674 40.9145
69.2984 1706 41.3038
69.4154 1818 42.638
69.5323 1987 44.5758
69.6492 2043 45.1996
69.7661 2078 45.5851
69.8829 2188 46.7761
69.9997 2061 45.3982
70.1165 2111 45.9456
70.2332 2085 45.6618
70.3499 1948 44.1362
70.4665 1957 44.238
70.5831 1801 42.4382
70.6996 1698 41.2068
70.8161 1664 40.7922
70.9326 1448 38.0526
71.049 1316 36.2767
71.1653 1077 32.8177
71.2817 952 30.8545
71.3979 929 30.4795
71.5141 905 30.0832
71.6303 859 29.3087
71.7464 851 29.1719
71.8624 0 1
71.9784 0 1
72.0944 0 1
72.2102 0 1
72.3261 0 1
72.4418 0 1
72.5575 0 1
72.6732 0 1
75.1054 0 1
75.2209 0 1
75.3365 0 1
75.4521 0 1
75.5678 0 1
75.6835 0 1
75.7993 0 1
75.9151 0 1
76.031 0 1
76.147 1345 36.6742
76.263 1434 37.8682
76.3791 1443 37.9868
76.4952 1467 38.3014
76.6113 1448 38.0526
76.7276 1593 39.9124
76.8438 1690 41.1096
76.9601 1896 43.5431
77.0765 1944 44.0908
77.1929 2032 45.0777
77.3093 1991 44.6206
77.4258 1957 44.238
77.5423 1949 44.1475
77.6589 1891 43.4856
77.7755 1789 42.2966
77.8921 1592 39.8999
78.0088 1559 39.4842
78.1256 1384 37.2022
78.2423 1354 36.7967
78.3591 1539 39.2301
78.4759 1562 39.5221
78.5928 1619 40.2368
78.7097 1780 42.19
78.8266 1870 43.2435
78.9436 1894 43.5201
79.0606 1992 44.6318
79.1776 1911 43.715
79.2946 1958 44.2493
79.4117 2040 45.1664
79.5288 2028 45.0333
79.6459 1933 43.9659
79.7631 1957 44.238
79.8802 1916 43.7721
79.9974 1736 41.6653
80.1147 1664 40.7922
80.2319 1578 39.724
80.3491 1683 41.0244
80.4664 1742 41.7373
80.5837 1900 43.589
80.701 2048 45.2548
80.8183 2060 45.3872
80.9357 2097 45.793
81.053 2018 44.9222
81.1704 2118 46.0217
81.2877 2023 44.9778
81.4051 2018 44.9222
81.5225 1807 42.5088
81.6399 1703 41.2674
81.7573 1575 39.6863
81.8747 1418 37.6563
81.9922 1471 38.3536
82.1096 1629 40.3609
82.227 1725 41.5331
82.3444 1864 43.1741
82.4619 1904 43.6348
82.5793 1918 43.795
82.6967 2002 44.7437
82.8142 2040 45.1664
82.9316 2005 44.7772
83.049 2133 46.1844
83.1664 2050 45.2769
83.2838 2100 45.8258
83.4012 2122 46.0652
83.5186 1971 44.3959
83.636 1816 42.6146
83.7534 1749 41.821
83.8708 1631 40.3856
83.9881 1616 40.1995
84.1055 1676 40.939
84.2228 1834 42.8252
84.3401 1978 44.4747
84.4575 2025 45
84.5747 2064 45.4313
84.692 2057 45.3542
84.8093 2082 45.6289
84.9265 1983 44.5309
85.0437 1916 43.7721
85.1609 1890 43.4741
85.2781 1586 39.8246
85.3952 1494 38.6523
85.5123 1447 38.0395
85.6294 1471 38.3536
85.7465 1668 40.8412
85.8636 1817 42.6263
85.9806 1859 43.1161
86.0976 1984 44.5421
86.2145 1996 44.6766
86.3315 2018 44.9222
86.4484 2055 45.3321
86.5652 2107 45.9021
86.682 2053 45.31
86.7988 2083 45.6399
86.9156 2096 45.7821
87.0323 1983 44.5309
87.149 1967 44.3509
87.2657 1802 42.45
87.3823 1568 39.598
87.4988 1455 38.1445
87.6154 1405 37.4833
87.7318 1520 38.9872
87.8483 1540 39.2428
87.9647 1571 39.6358
88.081 1641 40.5093
88.1973 1623 40.2865
88.3136 1585 39.8121
88.4298 1527 39.0768
88.546 1422 37.7094
88.6621 1277 35.7351
88.7781 996 31.5595
88.8942 0 1
89.0101 0 1
89.126 0 1
89.2419 0 1
89.3577 0 1
89.4734 0 1
89.5891 0 1
89.7047 0 1
89.8203 0 1
89.9358 0 1
92.3269 0 1
92.4424 0 1
92.558 0 1
92.6736 0 1
92.7893 0 1
92.905 0 1
93.0208 0 1
93.1366 0 1
93.2525 0 1
93.3685 0 1
93.4845 0 1
93.6005 1594 39.9249
93.7167 1652 40.6448
93.8328 1722 41.497
93.949 1844 42.9418
94.0653 1892 43.4971
94.1816 1795 42.3674
94.2979 1722 41.497
94.4143 1552 39.3954
94.5307 1544 39.2938
94.6472 1516 38.9358
94.7637 1594 39.9249
94.8803 1670 40.8656
94.9969 1814 42.5911
95.1135 1867 43.2088
95.2302 1946 44.1135
95.3469 2038 45.1442
95.4637 2038 45.1442
95.5805 2106 45.8912
95.6973 2015 44.8888
95.8142 2110 45.9347
95.9311 2042 45.1885
96.048 2136 46.2169
96.1649 2052 45.299
96.2819 2054 45.3211
96.3989 1993 44.643
96.516 1893 43.5086
96.633 1717 41.4367
96.7501 1660 40.7431
96.8673 1753 41.8688
96.9844 1766 42.0238
97.1016 1919 43.8064
97.2188 2016 44.8999
97.336 2103 45.8585
97.4532 2157 46.4435
97.5704 2156 46.4327
97.6877 2091 45.7275
97.805 2117 46.0109
97.9223 1976 44.4522
98.0396 1801 42.4382
98.1569 1689 41.0974
98.2743 1557 39.4588
98.3916 1530 39.1152
98.509 1596 39.95
98.6264 1810 42.5441
98.7438 1970 44.3847
98.8612 1985 44.5533
98.9786 2109 45.9239
99.096 2150 46.3681
99.2134 2209 47
99.3308 2260 47.5395
99.4482 2208 46.9894
99.5656 2223 47.1487
99.6831 2115 45.9891
99.8005 2203 46.9361
99.9179 2210 47.0106
100.035 2134 46.1952
100.153 1951 44.1701
100.27 1915 43.7607
100.388 1848 42.9884
100.505 1891 43.4856
100.622 2047 45.2438
100.74 2208 46.9894
100.857 2224 47.1593
100.975 2309 48.0521
101.092 2248 47.4131
101.209 2295 47.9062
101.327 2250 47.4342
101.444 2144 46.3033
101.561 1944 44.0908
101.679 1773 42.107
101.796 1720 41.4729
101.913 1573 39.6611
102.03 1650 40.6202
102.148 1766 42.0238
102.265 1893 43.5086
102.382 2098 45.8039
102.499 2213 47.0425
102.616 2241 47.3392
102.733 2310 48.0625
102.851 2355 48.5283
102.968 2290 47.8539
103.085 2287 47.8226
103.202 2326 48.2286
103.319 2306 48.0208
103.436 2306 48.0208
103.552 2191 46.8081
103.669 2077 45.5741
103.786 2028 45.0333
103.903 1953 44.1928
104.02 2021 44.9555
104.137 2120 46.0435
104.253 2153 46.4004
104.37 2417 49.163
104.487 2388 48.8672
104.603 2522 50.2195
104.72 2429 49.2849
104.836 2283 47.7807
104.953 2150 46.3681
105.069 1899 43.5775
105.186 1676 40.939
105.302 1538 39.2173
105.418 1433 37.855
105.535 1395 37.3497
105.651 1432 37.8418
105.767 1575 39.6863
105.883 1538 39.2173
105.999 1445 38.0132
106.115 0 1
106.231 0 1
106.347 0 1
106.463 0 1
106.579 0 1
106.694 0 1
106.81 0 1
106.926 0 1
107.041 0 1
107.157 0 1
109.576 0 1
109.692 0 1
109.807 0 1
109.923 0 1
110.039 0 1
110.155 0 1
110.27 0 1
110.386 0 1
110.502 0 1
110.618 984 31.3688
110.735 1263 35.5387
110.851 1466 38.2884
110.967 1649 40.6079
111.083 1829 42.7668
111.199 1907 43.6692
111.316 2042 45.1885
111.432 2033 45.0888
111.549 2140 46.2601
111.665 2150 46.3681
111.782 2184 46.7333
111.898 2125 46.0977
112.015 2049 45.2659
112.132 2028 45.0333
112.248 1867 43.2088
112.365 1740 41.7133
112.482 1845 42.9535
112.599 1868 43.2204
112.716 2000 44.7214
112.832 2132 46.1736
112.949 2228 47.2017
113.066 2162 46.4973
113.183 2275 47.697
113.3 2222 47.1381
113.417 2220 47.1169
113.534 2020 44.9444
113.652 1824 42.7083
113.769 1690 41.1096
113.886 1607 40.0874
114.003 1579 39.7366
114.12 1535 39.1791
114.238 1756 41.9047
114.355 1926 43.8862
114.472 1886 43.4281
114.589 2201 46.9148
114.707 2124 46.0869
114.824 2125 46.0977
114.942 2161 46.4866
115.059 2198 46.8828
115.176 2124 46.0869
115.294 2140 46.2601
115.411 2199 46.8935
115.529 2199 46.8935
115.646 2080 45.607
115.764 1940 44.0454
115.881 1812 42.5676
115.999 1791 42.3202
116.116 1896 43.5431
116.234 1912 43.7264
116.351 2138 46.2385
116.469 2210 47.0106
116.586 2219 47.1063
116.704 2258 47.5184
116.821 2218 47.0956
116.939 2178 46.669
117.056 2106 45.8912
117.174 1985 44.5533
117.291 1790 42.3084
117.409 1614 40.1746
117.526 1587 39.8372
117.644 1451 38.092
117.761 1603 40.0375
117.879 1833 42.8135
117.996 1922 43.8406
118.114 1919 43.8064
118.231 2145 46.3141
118.349 2121 46.0543
118.466 2086 45.6727
118.584 2132 46.1736
118.701 2079 45.5961
118.819 2162 46.4973
118.936 2089 45.7056
119.053 2100 45.8258
119.171 2053 45.31
119.288 1938 44.0227
119.405 1920 43.8178
119.523 1772 42.0951
119.64 1745 41.7732
119.757 1772 42.0951
119.875 1846 42.9651
119.992 2002 44.7437
120.109 2019 44.9333
120.226 2137 46.2277
120.343 2176 46.6476
120.46 2087 45.6837
120.578 2121 46.0543
120.695 2066 45.4533
120.812 1952 44.1814
120.929 1826 42.7317
121.046 1587 39.8372
121.163 1574 39.6737
121.279 1403 37.4566
121.396 1508 38.833
121.513 1668 40.8412
121.63 1661 40.7554
121.747 1658 40.7185
121.863 1727 41.5572
121.98 1647 40.5832
122.097 1664 40.7922
122.213 1746 41.7852
122.33 1644 40.5463
122.446 1645 40.5586
122.563 1489 38.5876
122.679 1492 38.6264
122.795 1334 36.524
122.912 1238 35.1852
123.028 1101 33.1813
123.144 1005 31.7017
123.26 878 29.6311
123.377 0 1
123.493 0 1
123.609 0 1
123.725 0 1
123.84 0 1
123.956 0 1
124.072 0 1
124.188 0 1
124.303 0 1
124.419 0 1
126.852 0 1
126.968 0 1
127.083 0 1
127.199 0 1
127.315 0 1
127.431 0 1
127.547 0 1
127.663 0 1
127.779 0 1
127.895 0 1
128.011 0 1
128.127 0 1
128.243 0 1
128.359 1974 44.4297
128.476 2029 45.0444
128.592 1977 44.4635
128.708 1924 43.8634
128.825 2043 45.1996
128.941 2142 46.2817
129.058 2160 46.4758
129.174 2229 47.2123
129.291 2196 46.8615
129.408 2295 47.9062
129.524 2372 48.7032
129.641 2316 48.1248
129.758 2212 47.0319
129.875 1928 43.909
129.992 1927 43.8976
130.108 1858 43.1045
130.225 1645 40.5586
130.342 1664 40.7922
130.459 1730 41.5933
130.576 1927 43.8976
130.693 1922 43.8406
130.81 2100 45.8258
130.928 2108 45.913
131.045 2190 46.7974
131.162 2153 46.4004
131.279 2246 47.392
131.396 2121 46.0543
131.513 2236 47.2864
131.631 2139 46.2493
131.748 2127 46.1194
131.865 2071 45.5082
131.983 2054 45.3211
132.1 2073 45.5302
132.217 2004 44.7661
132.335 1936 44
132.452 2105 45.8803
132.57 2029 45.0444
132.687 2226 47.1805
132.804 2239 47.3181
132.922 2288 47.833
133.039 2349 48.4665
133.157 2292 47.8748
133.274 2342 48.3942
133.392 2210 47.0106
133.509 2024 44.9889
133.627 1949 44.1475
133.744 1790 42.3084
133.862 1567 39.5854
133.979 1729 41.5812
134.097 1875 43.3013
134.214 1905 43.6463
134.332 2025 45
134.449 2140 46.2601
134.567 2183 46.7226
134.684 2241 47.3392
134.802 2234 47.2652
134.919 2362 48.6004
135.037 2281 47.7598
135.154 2205 46.9574
135.272 2236 47.2864
135.389 2267 47.613
135.507 2133 46.1844
135.624 2099 45.8148
135.742 1959 44.2606
135.859 1972 44.4072
135.977 2054 45.3211
136.094 2096 45.7821
136.211 2175 46.6369
136.329 2326 48.2286
136.446 2308 48.0416
136.564 2297 47.927
136.681 2327 48.239
136.798 2336 48.3322
136.915 2343 48.4045
137.033 2211 47.0213
137.15 1974 44.4297
137.267 1874 43.2897
137.384 1756 41.9047
137.502 1714 41.4005
137.619 1757 41.9166
137.736 1894 43.5201
137.853 1933 43.9659
137.97 1932 43.9545
138.087 2074 45.5412
138.204 2053 45.31
138.321 2189 46.7868
138.438 2186 46.7547
138.555 2291 47.8644
138.672 2228 47.2017
138.788 2163 46.5081
138.905 2097 45.793
139.022 2050 45.2769
139.139 1874 43.2897
139.255 1734 41.6413
139.372 1628 40.3485
139.488 1578 39.724
139.605 1551 39.3827
139.721 1506 38.8072
139.838 1541 39.2556
139.954 1564 39.5474
140.071 1493 38.6394
140.187 1335 36.5377
140.303 1308 36.1663
140.419 1174 34.2637
140.535 1147 33.8674
140.652 1049 32.3883
140.768 0 1
140.884 0 1
141 0 1
141.115 0 1
141.231 0 1
141.347 0 1
141.463 0 1
141.578 0 1
141.694 0 1
144.104 0 1
144.219 0 1
144.335 0 1
144.45 0 1
144.566 0 1
144.682 0 1
144.798 0 1
144.914 0 1
145.03 0 1
145.146 1674 40.9145
145.262 1811 42.5558
145.378 1746 41.7852
145.494 1776 42.1426
145.61 1788 42.2847
145.726 1779 42.1782
145.842 1626 40.3237
145.959 1544 39.2938
146.075 1503 38.7685
146.192 1429 37.8021
146.308 1412 37.5766
146.425 1365 36.9459
146.541 1443 37.9868
146.658 1531 39.128
146.774 1573 39.6611
146.891 1529 39.1024
147.008 1775 42.1307
147.125 1644 40.5463
147.241 1681 41
147.358 1739 41.7013
147.475 1744 41.7612
147.592 1702 41.2553
147.709 1644 40.5463
147.826 1655 40.6817
147.943 1570 39.6232
148.06 1549 39.3573
148.177 1537 39.2046
148.294 1582 39.7744
148.411 1598 39.975
148.528 1635 40.4351
148.645 1752 41.8569
148.762 1701 41.2432
148.88 1805 42.4853
148.997 1895 43.5316
149.114 1678 40.9634
149.231 1860 43.1277
149.349 1773 42.107
149.466 1644 40.5463
149.583 1503 38.7685
149.701 1487 38.5616
149.818 1427 37.7757
149.935 1389 37.2693
150.053 1383 37.1887
150.17 1477 38.4318
150.287 1558 39.4715
150.405 1520 38.9872
150.522 1625 40.3113
150.64 1612 40.1497
150.757 1608 40.0999
150.875 1690 41.1096
150.992 1706 41.3038
151.11 1704 41.2795
151.227 1716 41.4246
151.344 1631 40.3856
151.462 1605 40.0625
151.579 1559 39.4842
151.697 1559 39.4842
151.814 1489 38.5876
151.932 1506 38.8072
152.049 1505 38.7943
152.167 1530 39.1152
152.284 1632 40.398
152.402 1706 41.3038
152.519 1651 40.6325
152.636 1706 41.3038
152.754 1748 41.8091
152.871 1694 41.1582
152.989 1641 40.5093
153.106 1599 39.9875
153.223 1531 39.128
153.341 1397 37.3765
153.458 1366 36.9594
153.575 1356 36.8239
153.693 1305 36.1248
153.81 1365 36.9459
153.927 1388 37.2559
154.044 1433 37.855
154.162 1551 39.3827
154.279 1586 39.8246
154.396 1604 40.05
154.513 1608 40.0999
154.63 1594 39.9249
154.747 1550 39.37
154.864 1556 39.4462
154.981 1540 39.2428
155.098 1419 37.6696
155.215 1483 38.5097
155.332 1408 37.5233
155.449 1426 37.7624
155.566 1404 37.47
155.683 1440 37.9473
155.8 1450 38.0789
155.917 1472 38.3667
156.033 1423 37.7227
156.15 0 1
156.267 0 1
156.383 0 1
156.5 0 1
156.617 0 1
156.733 0 1
156.85 0 1
156.966 0 1
157.082 0 1
157.199 0 1
157.315 0 1
157.431 0 1
157.547 0 1
157.664 0 1
157.78 0 1
157.896 0 1
158.012 0 1
158.128 0 1
158.244 0 1
158.359 0 1
158.475 0 1
158.591 0 1
158.706 0 1
