
6.15755 0 1
6.2731 0 1
6.3887 0 1
6.50437 0 1
6.62009 0 1
6.73587 0 1
6.8517 0 1
6.96759 0 1
7.08353 0 1
7.19952 0 1
7.31557 0 1
7.43166 0 1
7.54781 0 1
7.664 0 1
7.78024 0 1
7.89653 0 1
8.01286 0 1
8.12924 0 1
8.24567 0 1
8.36213 0 1
8.47864 0 1
8.59519 0 1
8.71178 0 1
8.82841 0 1
8.94508 0 1
9.06179 0 1
9.17853 0 1
9.29531 0 1
9.41212 0 1
9.52897 0 1
9.64584 0 1
9.76276 0 1
9.8797 0 1
9.99667 0 1
10.1137 0 1
10.2307 0 1
10.3478 0 1
10.4648 0 1
10.5819 0 1
10.6991 0 1
10.8162 0 1
10.9334 0 1
11.0506 0 1
11.1678 0 1
11.285 0 1
11.4023 0 1
11.5196 0 1
11.6369 0 1
11.7542 0 1
11.8715 0 1
11.9888 0 1
12.1062 0 1
12.2235 0 1
12.3409 0 1
12.4582 0 1
12.5756 0 1
12.693 0 1
12.8104 0 1
12.9278 0 1
13.0452 0 1
13.1626 0 1
13.28 0 1
13.3974 0 1
13.5149 0 1
13.6323 0 1
13.7497 0 1
13.8671 0 1
13.9845 0 1
14.1019 0 1
14.2193 0 1
14.3367 0 1
14.4541 0 1
14.5714 0 1
14.6888 0 1
14.8062 0 1
14.9235 0 1
15.0408 805 28.3725
15.1581 869 29.4788
15.2755 881 29.6816
15.3927 949 30.8058
15.51 941 30.6757
15.6273 904 30.0666
15.7445 886 29.7658
15.8617 866 29.4279
15.9789 787 28.0535
16.0961 861 29.3428
16.2132 746 27.313
16.3304 837 28.931
16.4475 870 29.4958
16.5646 741 27.2213
16.6816 800 28.2843
16.7986 760 27.5681
16.9156 761 27.5862
17.0326 730 27.0185
17.1496 752 27.4226
17.2665 767 27.6948
17.3833 773 27.8029
17.5002 783 27.9821
17.617 763 27.6225
17.7338 781 27.9464
17.8505 757 27.5136
17.9672 711 26.6646
18.0839 717 26.7769
18.2005 728 26.9815
18.3171 710 26.6458
18.4337 701 26.4764
18.5502 749 27.3679
18.6666 716 26.7582
18.7831 754 27.4591
18.8994 699 26.4386
19.0158 704 26.533
19.1321 722 26.8701
19.2483 683 26.1343
19.3645 652 25.5343
19.4806 564 23.7487
19.5967 587 24.2281
19.7128 577 24.0208
19.8288 509 22.561
19.9447 418 20.445
20.0606 0 1
20.1764 0 1
20.2922 0 1
20.4079 0 1
20.5236 0 1
20.6392 0 1
20.7548 0 1
20.8702 0 1
23.3078 0 1
23.4233 0 1
23.539 0 1
23.6547 0 1
23.7704 0 1
23.8862 0 1
24.0021 0 1
24.118 0 1
24.234 0 1
24.35 0 1
24.4661 307 17.5214
24.5822 374 19.3391
24.6984 451 21.2368
24.8146 550 23.4521
24.9309 607 24.6374
25.0472 683 26.1343
25.1636 710 26.6458
25.28 801 28.3019
25.3965 809 28.4429
25.513 825 28.7228
25.6296 836 28.9137
25.7462 837 28.931
25.8628 831 28.8271
25.9795 842 29.0172
26.0962 823 28.688
26.213 839 28.9655
26.3298 745 27.2947
26.4466 769 27.7308
26.5635 721 26.8514
26.6804 593 24.3516
26.7973 630 25.0998
26.9143 660 25.6905
27.0313 645 25.3969
27.1483 680 26.0768
27.2653 687 26.2107
27.3824 709 26.6271
27.4996 690 26.2679
27.6167 728 26.9815
27.7339 770 27.7489
27.8511 731 27.037
27.9683 819 28.6182
28.0855 705 26.5518
28.2028 741 27.2213
28.3201 688 26.2298
28.4374 723 26.8887
28.5547 735 27.1109
28.6721 825 28.7228
28.7894 803 28.3373
28.9068 781 27.9464
29.0242 694 26.3439
29.1416 698 26.4197
29.259 736 27.1293
29.3764 737 27.1477
29.4939 749 27.3679
29.6113 716 26.7582
29.7288 661 25.7099
29.8463 651 25.5147
29.9638 617 24.8395
30.0812 645 25.3969
30.1987 626 25.02
30.3162 566 23.7908
30.4337 606 24.6171
30.5512 701 26.4764
30.6687 736 27.1293
30.7862 673 25.9422
30.9037 675 25.9808
31.0212 748 27.3496
31.1387 780 27.9285
31.2562 759 27.55
31.3737 732 27.0555
31.4912 774 27.8209
31.6087 726 26.9444
31.7262 702 26.4953
31.8436 727 26.9629
31.9611 706 26.5707
32.0785 707 26.5895
32.1959 689 26.2488
32.3134 694 26.3439
32.4308 711 26.6646
32.5482 664 25.7682
32.6655 665 25.7876
32.7829 671 25.9037
32.9002 640 25.2982
33.0176 640 25.2982
33.1349 611 24.7184
33.2522 627 25.04
33.3694 607 24.6374
33.4867 604 24.5764
33.6039 561 23.6854
33.7211 606 24.6171
33.8383 589 24.2693
33.9554 600 24.4949
34.0725 643 25.3574
34.1896 643 25.3574
34.3067 617 24.8395
34.4237 634 25.1794
34.5407 642 25.3377
34.6577 696 26.3818
34.7746 672 25.923
34.8915 697 26.4008
35.0084 683 26.1343
35.1252 630 25.0998
35.242 655 25.593
35.3587 653 25.5539
35.4755 642 25.3377
35.5921 573 23.9374
35.7088 600 24.4949
35.8254 623 24.96
35.9419 624 24.98
36.0584 657 25.632
36.1749 592 24.3311
36.2913 589 24.2693
36.4077 592 24.3311
36.524 533 23.0868
36.6403 525 22.9129
36.7565 450 21.2132
36.8727 406 20.1494
36.9889 423 20.567
37.1049 393 19.8242
37.221 0 1
37.3369 0 1
37.4529 0 1
37.5687 0 1
37.6845 0 1
37.8003 0 1
37.916 0 1
38.0316 0 1
38.1472 0 1
40.5851 0 1
40.7008 0 1
40.8164 0 1
40.9322 0 1
41.048 0 1
41.1639 0 1
41.2798 0 1
41.3958 0 1
41.5118 0 1
41.6279 0 1
41.744 260 16.1245
41.8602 349 18.6815
41.9765 414 20.347
42.0928 424 20.5913
42.2091 402 20.0499
42.3255 420 20.4939
42.4419 430 20.7364
42.5584 452 21.2603
42.675 418 20.445
42.7915 495 22.2486
42.9081 482 21.9545
43.0248 464 21.5407
43.1415 438 20.9284
43.2582 443 21.0476
43.375 486 22.0454
43.4918 515 22.6936
43.6087 464 21.5407
43.7256 537 23.1733
43.8425 496 22.2711
43.9595 481 21.9317
44.0765 471 21.7025
44.1935 481 21.9317
44.3106 471 21.7025
44.4277 495 22.2486
44.5448 428 20.6882
44.6619 457 21.3776
44.7791 508 22.5389
44.8963 521 22.8254
45.0136 488 22.0907
45.1308 514 22.6716
45.2481 483 21.9773
45.3654 502 22.4054
45.4827 480 21.9089
45.6001 500 22.3607
45.7174 479 21.8861
45.8348 463 21.5174
45.9522 446 21.1187
46.0697 461 21.4709
46.1871 456 21.3542
46.3046 470 21.6795
46.422 483 21.9773
46.5395 432 20.7846
46.657 402 20.0499
46.7745 414 20.347
46.892 493 22.2036
47.0096 460 21.4476
47.1271 458 21.4009
47.2446 441 21
47.3622 488 22.0907
47.4797 482 21.9545
47.5973 446 21.1187
47.7149 475 21.7945
47.8324 463 21.5174
47.95 453 21.2838
48.0675 457 21.3776
48.1851 507 22.5167
48.3027 482 21.9545
48.4202 527 22.9565
48.5378 497 22.2935
48.6554 456 21.3542
48.7729 453 21.2838
48.8904 513 22.6495
49.008 474 21.7715
49.1255 468 21.6333
49.243 446 21.1187
49.3605 365 19.105
49.478 407 20.1742
49.5955 410 20.2485
49.713 406 20.1494
49.8304 421 20.5183
49.9479 445 21.095
50.0653 459 21.4243
50.1827 421 20.5183
50.3001 361 19
50.4175 407 20.1742
50.5348 415 20.3715
50.6521 459 21.4243
50.7694 427 20.664
50.8867 447 21.1424
51.004 417 20.4206
51.1212 434 20.8327
51.2384 494 22.2261
51.3556 433 20.8087
51.4727 450 21.2132
51.5899 481 21.9317
51.707 454 21.3073
51.824 445 21.095
51.9411 443 21.0476
52.0581 428 20.6882
52.175 431 20.7605
52.2919 449 21.1896
52.4088 412 20.2978
52.5257 436 20.8806
52.6425 457 21.3776
52.7593 423 20.567
52.876 399 19.975
52.9927 406 20.1494
53.1094 397 19.9249
53.226 387 19.6723
53.3426 440 20.9762
53.4591 395 19.8746
53.5756 407 20.1742
53.692 315 17.7482
53.8084 323 17.9722
53.9248 295 17.1756
54.0411 315 17.7482
54.1573 273 16.5227
54.2735 0 1
54.3896 0 1
54.5057 0 1
54.6217 0 1
54.7377 0 1
54.8537 0 1
54.9695 0 1
55.0853 0 1
55.2011 0 1
55.3168 0 1
55.4324 0 1
57.824 0 1
57.9396 0 1
58.0553 0 1
58.1711 0 1
58.2869 0 1
58.4028 0 1
58.5187 0 1
58.6347 0 1
58.7508 0 1
58.8669 0 1
58.983 348 18.6548
59.0992 426 20.6398
59.2155 485 22.0227
59.3318 508 22.5389
59.4482 534 23.1084
59.5646 538 23.1948
59.681 593 24.3516
59.7975 642 25.3377
59.9141 604 24.5764
60.0306 624 24.98
60.1473 634 25.1794
60.2639 638 25.2587
60.3807 634 25.1794
60.4974 646 25.4165
60.6142 677 26.0192
60.731 642 25.3377
60.8479 657 25.632
60.9648 620 24.8998
61.0818 634 25.1794
61.1987 640 25.2982
61.3158 604 24.5764
61.4328 591 24.3105
61.5499 573 23.9374
61.667 555 23.5584
61.7841 538 23.1948
61.9013 537 23.1733
62.0185 562 23.7065
62.1357 569 23.8537
62.253 536 23.1517
62.3702 547 23.388
62.4875 535 23.1301
62.6049 543 23.3024
62.7222 565 23.7697
62.8396 587 24.2281
62.9569 530 23.0217
63.0743 519 22.7816
63.1918 527 22.9565
63.3092 509 22.561
63.4267 531 23.0434
63.5441 493 22.2036
63.6616 497 22.2935
63.7791 544 23.3238
63.8966 539 23.2164
64.0142 540 23.2379
64.1317 525 22.9129
64.2492 515 22.6936
64.3668 515 22.6936
64.4843 534 23.1084
64.6019 521 22.8254
64.7195 532 23.0651
64.837 494 22.2261
64.9546 475 21.7945
65.0722 450 21.2132
65.1898 455 21.3307
65.3074 443 21.0476
65.4249 452 21.2603
65.5425 491 22.1585
65.6601 524 22.891
65.7777 547 23.388
65.8952 504 22.4499
66.0128 507 22.5167
66.1304 494 22.2261
66.2479 507 22.5167
66.3655 503 22.4277
66.483 498 22.3159
66.6005 469 21.6564
66.718 503 22.4277
66.8355 465 21.5639
66.953 513 22.6495
67.0705 485 22.0227
67.1879 480 21.9089
67.3054 540 23.2379
67.4228 524 22.891
67.5402 576 24
67.6576 496 22.2711
67.7749 537 23.1733
67.8923 544 23.3238
68.0096 530 23.0217
68.1269 481 21.9317
68.2442 497 22.2935
68.3614 510 22.5832
68.4787 447 21.1424
68.5958 423 20.567
68.713 461 21.4709
68.8302 441 21
68.9473 425 20.6155
69.0643 432 20.7846
69.1814 491 22.1585
69.2984 480 21.9089
69.4154 474 21.7715
69.5323 487 22.0681
69.6492 486 22.0454
69.7661 475 21.7945
69.8829 476 21.8174
69.9997 463 21.5174
70.1165 438 20.9284
70.2332 487 22.0681
70.3499 431 20.7605
70.4665 391 19.7737
70.5831 377 19.4165
70.6996 388 19.6977
70.8161 349 18.6815
70.9326 339 18.412
71.049 328 18.1108
71.1653 310 17.6068
71.2817 319 17.8606
71.3979 264 16.2481
71.5141 261 16.1555
71.6303 230 15.1658
71.7464 171 13.0767
71.8624 0 1
71.9784 0 1
72.0944 0 1
72.2102 0 1
72.3261 0 1
72.4418 0 1
72.5575 0 1
72.6732 0 1
75.1054 0 1
75.2209 0 1
75.3365 0 1
75.4521 0 1
75.5678 0 1
75.6835 0 1
75.7993 0 1
75.9151 0 1
76.031 0 1
76.147 338 18.3848
76.263 333 18.2483
76.3791 358 18.9209
76.4952 459 21.4243
76.6113 449 21.1896
76.7276 414 20.347
76.8438 440 20.9762
76.9601 464 21.5407
77.0765 398 19.9499
77.1929 379 19.4679
77.3093 398 19.9499
77.4258 362 19.0263
77.5423 388 19.6977
77.6589 357 18.8944
77.7755 358 18.9209
77.8921 373 19.3132
78.0088 339 18.412
78.1256 339 18.412
78.2423 365 19.105
78.3591 403 20.0749
78.4759 407 20.1742
78.5928 432 20.7846
78.7097 458 21.4009
78.8266 401 20.025
78.9436 417 20.4206
79.0606 389 19.7231
79.1776 436 20.8806
79.2946 466 21.587
79.4117 431 20.7605
79.5288 416 20.3961
79.6459 413 20.3224
79.7631 410 20.2485
79.8802 451 21.2368
79.9974 473 21.7486
80.1147 440 20.9762
80.2319 439 20.9523
80.3491 438 20.9284
80.4664 475 21.7945
80.5837 453 21.2838
80.701 413 20.3224
80.8183 427 20.664
80.9357 455 21.3307
81.053 429 20.7123
81.1704 420 20.4939
81.2877 402 20.0499
81.4051 407 20.1742
81.5225 401 20.025
81.6399 367 19.1572
81.7573 405 20.1246
81.8747 405 20.1246
81.9922 426 20.6398
82.1096 422 20.5426
82.227 404 20.0998
82.3444 430 20.7364
82.4619 443 21.0476
82.5793 448 21.166
82.6967 468 21.6333
82.8142 428 20.6882
82.9316 432 20.7846
83.049 478 21.8632
83.1664 425 20.6155
83.2838 446 21.1187
83.4012 431 20.7605
83.5186 442 21.0238
83.636 456 21.3542
83.7534 484 22
83.8708 463 21.5174
83.9881 441 21
84.1055 463 21.5174
84.2228 452 21.2603
84.3401 425 20.6155
84.4575 437 20.9045
84.5747 438 20.9284
84.692 426 20.6398
84.8093 411 20.2731
84.9265 433 20.8087
85.0437 414 20.347
85.1609 422 20.5426
85.2781 408 20.199
85.3952 382 19.5448
85.5123 409 20.2237
85.6294 459 21.4243
85.7465 438 20.9284
85.8636 453 21.2838
85.9806 434 20.8327
86.0976 447 21.1424
86.2145 464 21.5407
86.3315 396 19.8997
86.4484 423 20.567
86.5652 535 23.1301
86.682 453 21.2838
86.7988 457 21.3776
86.9156 463 21.5174
87.0323 456 21.3542
87.149 449 21.1896
87.2657 498 22.3159
87.3823 472 21.7256
87.4988 453 21.2838
87.6154 474 21.7715
87.7318 420 20.4939
87.8483 385 19.6214
87.9647 364 19.0788
88.081 327 18.0831
88.1973 315 17.7482
88.3136 288 16.9706
88.4298 296 17.2047
88.546 242 15.5563
88.6621 243 15.5885
88.7781 197 14.0357
88.8942 0 1
89.0101 0 1
89.126 0 1
89.2419 0 1
89.3577 0 1
89.4734 0 1
89.5891 0 1
89.7047 0 1
89.8203 0 1
89.9358 0 1
92.3269 0 1
92.4424 0 1
92.558 0 1
92.6736 0 1
92.7893 0 1
92.905 0 1
93.0208 0 1
93.1366 0 1
93.2525 0 1
93.3685 0 1
93.4845 0 1
93.6005 389 19.7231
93.7167 393 19.8242
93.8328 412 20.2978
93.949 435 20.8567
94.0653 430 20.7364
94.1816 396 19.8997
94.2979 396 19.8997
94.4143 400 20
94.5307 394 19.8494
94.6472 422 20.5426
94.7637 451 21.2368
94.8803 449 21.1896
94.9969 437 20.9045
95.1135 483 21.9773
95.2302 506 22.4944
95.3469 484 22
95.4637 510 22.5832
95.5805 482 21.9545
95.6973 452 21.2603
95.8142 462 21.4942
95.9311 482 21.9545
96.048 444 21.0713
96.1649 474 21.7715
96.2819 474 21.7715
96.3989 490 22.1359
96.516 512 22.6274
96.633 496 22.2711
96.7501 533 23.0868
96.8673 520 22.8035
96.9844 449 21.1896
97.1016 433 20.8087
97.2188 483 21.9773
97.336 487 22.0681
97.4532 475 21.7945
97.5704 508 22.5389
97.6877 428 20.6882
97.805 430 20.7364
97.9223 422 20.5426
98.0396 435 20.8567
98.1569 400 20
98.2743 485 22.0227
98.3916 482 21.9545
98.509 495 22.2486
98.6264 465 21.5639
98.7438 528 22.9783
98.8612 536 23.1517
98.9786 512 22.6274
99.096 531 23.0434
99.2134 500 22.3607
99.3308 537 23.1733
99.4482 514 22.6716
99.5656 535 23.1301
99.6831 505 22.4722
99.8005 479 21.8861
99.9179 579 24.0624
100.035 553 23.516
100.153 533 23.0868
100.27 577 24.0208
100.388 526 22.9347
100.505 507 22.5167
100.622 514 22.6716
100.74 496 22.2711
100.857 530 23.0217
100.975 497 22.2935
101.092 479 21.8861
101.209 533 23.0868
101.327 502 22.4054
101.444 483 21.9773
101.561 450 21.2132
101.679 455 21.3307
101.796 439 20.9523
101.913 474 21.7715
102.03 479 21.8861
102.148 540 23.2379
102.265 568 23.8328
102.382 547 23.388
102.499 521 22.8254
102.616 541 23.2594
102.733 600 24.4949
102.851 550 23.4521
102.968 552 23.4947
103.085 553 23.516
103.202 561 23.6854
103.319 573 23.9374
103.436 529 23
103.552 573 23.9374
103.669 586 24.2074
103.786 567 23.8118
103.903 571 23.8956
104.02 583 24.1454
104.137 503 22.4277
104.253 548 23.4094
104.37 578 24.0416
104.487 545 23.3452
104.603 520 22.8035
104.72 555 23.5584
104.836 482 21.9545
104.953 470 21.6795
105.069 420 20.4939
105.186 435 20.8567
105.302 402 20.0499
105.418 429 20.7123
105.535 380 19.4936
105.651 352 18.7617
105.767 352 18.7617
105.883 337 18.3576
105.999 300 17.3205
106.115 0 1
106.231 0 1
106.347 0 1
106.463 0 1
106.579 0 1
106.694 0 1
106.81 0 1
106.926 0 1
107.041 0 1
107.157 0 1
109.576 0 1
109.692 0 1
109.807 0 1
109.923 0 1
110.039 0 1
110.155 0 1
110.27 0 1
110.386 0 1
110.502 0 1
110.618 247 15.7162
110.735 339 18.412
110.851 395 19.8746
110.967 459 21.4243
111.083 454 21.3073
111.199 495 22.2486
111.316 492 22.1811
111.432 521 22.8254
111.549 516 22.7156
111.665 541 23.2594
111.782 526 22.9347
111.898 490 22.1359
112.015 518 22.7596
112.132 510 22.5832
112.248 530 23.0217
112.365 516 22.7156
112.482 538 23.1948
112.599 528 22.9783
112.716 529 23
112.832 552 23.4947
112.949 512 22.6274
113.066 548 23.4094
113.183 471 21.7025
113.3 531 23.0434
113.417 517 22.7376
113.534 483 21.9773
113.652 491 22.1585
113.769 485 22.0227
113.886 448 21.166
114.003 416 20.3961
114.12 417 20.4206
114.238 473 21.7486
114.355 479 21.8861
114.472 532 23.0651
114.589 488 22.0907
114.707 510 22.5832
114.824 534 23.1084
114.942 509 22.561
115.059 469 21.6564
115.176 529 23
115.294 510 22.5832
115.411 462 21.4942
115.529 444 21.0713
115.646 459 21.4243
115.764 481 21.9317
115.881 498 22.3159
115.999 508 22.5389
116.116 518 22.7596
116.234 513 22.6495
116.351 501 22.383
116.469 495 22.2486
116.586 449 21.1896
116.704 455 21.3307
116.821 472 21.7256
116.939 466 21.587
117.056 470 21.6795
117.174 449 21.1896
117.291 443 21.0476
117.409 441 21
117.526 408 20.199
117.644 435 20.8567
117.761 407 20.1742
117.879 395 19.8746
117.996 431 20.7605
118.114 475 21.7945
118.231 446 21.1187
118.349 464 21.5407
118.466 483 21.9773
118.584 505 22.4722
118.701 463 21.5174
118.819 468 21.6333
118.936 462 21.4942
119.053 489 22.1133
119.171 453 21.2838
119.288 453 21.2838
119.405 456 21.3542
119.523 457 21.3776
119.64 477 21.8403
119.757 465 21.5639
119.875 490 22.1359
119.992 455 21.3307
120.109 420 20.4939
120.226 459 21.4243
120.343 431 20.7605
120.46 470 21.6795
120.578 448 21.166
120.695 461 21.4709
120.812 419 20.4695
120.929 460 21.4476
121.046 401 20.025
121.163 413 20.3224
121.279 374 19.3391
121.396 362 19.0263
121.513 357 18.8944
121.63 380 19.4936
121.747 372 19.2873
121.863 414 20.347
121.98 365 19.105
122.097 366 19.1311
122.213 377 19.4165
122.33 365 19.105
122.446 340 18.4391
122.563 359 18.9473
122.679 299 17.2916
122.795 277 16.6433
122.912 276 16.6132
123.028 265 16.2788
123.144 232 15.2315
123.26 239 15.4596
123.377 0 1
123.493 0 1
123.609 0 1
123.725 0 1
123.84 0 1
123.956 0 1
124.072 0 1
124.188 0 1
124.303 0 1
124.419 0 1
126.852 0 1
126.968 0 1
127.083 0 1
127.199 0 1
127.315 0 1
127.431 0 1
127.547 0 1
127.663 0 1
127.779 0 1
127.895 0 1
128.011 0 1
128.127 0 1
128.243 0 1
128.359 513 22.6495
128.476 532 23.0651
128.592 496 22.2711
128.708 518 22.7596
128.825 496 22.2711
128.941 513 22.6495
129.058 504 22.4499
129.174 506 22.4944
129.291 508 22.5389
129.408 544 23.3238
129.524 515 22.6936
129.641 510 22.5832
129.758 535 23.1301
129.875 459 21.4243
129.992 493 22.2036
130.108 494 22.2261
130.225 485 22.0227
130.342 529 23
130.459 506 22.4944
130.576 494 22.2261
130.693 530 23.0217
130.81 526 22.9347
130.928 544 23.3238
131.045 612 24.7386
131.162 635 25.1992
131.279 675 25.9808
131.396 703 26.5141
131.513 649 25.4755
131.631 688 26.2298
131.748 660 25.6905
131.865 701 26.4764
131.983 725 26.9258
132.1 741 27.2213
132.217 760 27.5681
132.335 833 28.8617
132.452 851 29.1719
132.57 894 29.8998
132.687 909 30.1496
132.804 962 31.0161
132.922 963 31.0322
133.039 951 30.8383
133.157 1006 31.7175
133.274 1009 31.7648
133.392 1067 32.665
133.509 996 31.5595
133.627 1012 31.8119
133.744 993 31.5119
133.862 970 31.1448
133.979 947 30.7734
134.097 889 29.8161
134.214 836 28.9137
134.332 865 29.4109
134.449 882 29.6985
134.567 849 29.1376
134.684 948 30.7896
134.802 989 31.4484
134.919 1080 32.8634
135.037 992 31.496
135.154 976 31.241
135.272 932 30.5287
135.389 888 29.7993
135.507 883 29.7153
135.624 881 29.6816
135.742 859 29.3087
135.859 924 30.3974
135.977 928 30.4631
136.094 934 30.5614
136.211 959 30.9677
136.329 926 30.4302
136.446 957 30.9354
136.564 968 31.1127
136.681 923 30.3809
136.798 913 30.2159
136.915 906 30.0998
137.033 936 30.5941
137.15 895 29.9166
137.267 891 29.8496
137.384 874 29.5635
137.502 808 28.4253
137.619 754 27.4591
137.736 791 28.1247
137.853 745 27.2947
137.97 729 27
138.087 778 27.8927
138.204 785 28.0179
138.321 842 29.0172
138.438 884 29.7321
138.555 912 30.1993
138.672 913 30.2159
138.788 901 30.0167
138.905 883 29.7153
139.022 799 28.2666
139.139 758 27.5318
139.255 741 27.2213
139.372 721 26.8514
139.488 722 26.8701
139.605 704 26.533
139.721 663 25.7488
139.838 619 24.8797
139.954 626 25.02
140.071 588 24.2487
140.187 574 23.9583
140.303 586 24.2074
140.419 507 22.5167
140.535 516 22.7156
140.652 465 21.5639
140.768 0 1
140.884 0 1
141 0 1
141.115 0 1
141.231 0 1
141.347 0 1
141.463 0 1
141.578 0 1
141.694 0 1
144.104 0 1
144.219 0 1
144.335 0 1
144.45 0 1
144.566 0 1
144.682 0 1
144.798 0 1
144.914 0 1
145.03 0 1
145.146 1345 36.6742
145.262 1439 37.9342
145.378 1525 39.0512
145.494 1507 38.8201
145.61 1654 40.6694
145.726 1686 41.0609
145.842 1741 41.7253
145.959 1729 41.5812
146.075 1784 42.2374
146.192 1667 40.8289
146.308 1610 40.1248
146.425 1540 39.2428
146.541 1526 39.064
146.658 1537 39.2046
146.774 1517 38.9487
146.891 1656 40.694
147.008 2089 45.7056
147.125 2284 47.7912
147.241 2525 50.2494
147.358 2717 52.1249
147.475 2783 52.7541
147.592 2923 54.0648
147.709 3155 56.1694
147.826 3148 56.107
147.943 3339 57.7841
148.06 3453 58.7622
148.177 3481 59
148.294 3621 60.1747
148.411 3908 62.514
148.528 3930 62.6897
148.645 4007 63.3009
148.762 4176 64.622
148.88 4199 64.7997
148.997 4204 64.8383
149.114 4298 65.5591
149.231 4548 67.4389
149.349 4679 68.4032
149.466 4862 69.728
149.583 4891 69.9357
149.701 4928 70.1997
149.818 4953 70.3776
149.935 5095 71.3793
150.053 4969 70.4911
150.17 4921 70.1498
150.287 4644 68.1469
150.405 3304 57.4804
150.522 1972 44.4072
150.64 2905 53.8981
150.757 4860 69.7137
150.875 5343 73.0958
150.992 5358 73.1984
151.11 5379 73.3417
151.227 5281 72.6705
151.344 5075 71.239
151.462 4852 69.6563
151.579 4597 67.8012
151.697 4590 67.7495
151.814 4370 66.106
151.932 4380 66.1816
152.049 4069 63.7887
152.167 3898 62.434
152.284 3967 62.9841
152.402 3684 60.696
152.519 3563 59.6909
152.636 3548 59.5651
152.754 3335 57.7495
152.871 3325 57.6628
152.989 3210 56.6569
153.106 3113 55.7943
153.223 3014 54.8999
153.341 2955 54.3599
153.458 2784 52.7636
153.575 2595 50.9411
153.693 2316 48.1248
153.81 1936 44
153.927 1467 38.3014
154.044 1161 34.0735
154.162 1353 36.7831
154.279 1757 41.9166
154.396 1929 43.9204
154.513 1866 43.1972
154.63 1857 43.0929
154.747 1796 42.3792
154.864 1862 43.1509
154.981 1818 42.638
155.098 1731 41.6053
155.215 1622 40.2741
155.332 1696 41.1825
155.449 1770 42.0714
155.566 1798 42.4028
155.683 1777 42.1545
155.8 1813 42.5793
155.917 1798 42.4028
156.033 1866 43.1972
156.15 0 1
156.267 0 1
156.383 0 1
156.5 0 1
156.617 0 1
156.733 0 1
156.85 0 1
156.966 0 1
157.082 0 1
157.199 0 1
157.315 0 1
157.431 0 1
157.547 0 1
157.664 0 1
157.78 0 1
157.896 0 1
158.012 0 1
158.128 0 1
158.244 0 1
158.359 0 1
158.475 0 1
158.591 0 1
158.706 0 1
