
6.15755 0 1
6.2731 0 1
6.3887 0 1
6.50437 0 1
6.62009 0 1
6.73587 0 1
6.8517 0 1
6.96759 0 1
7.08353 0 1
7.19952 0 1
7.31557 0 1
7.43166 0 1
7.54781 0 1
7.664 0 1
7.78024 0 1
7.89653 0 1
8.01286 0 1
8.12924 0 1
8.24567 0 1
8.36213 0 1
8.47864 0 1
8.59519 0 1
8.71178 0 1
8.82841 0 1
8.94508 0 1
9.06179 0 1
9.17853 0 1
9.29531 0 1
9.41212 0 1
9.52897 0 1
9.64584 0 1
9.76276 0 1
9.8797 0 1
9.99667 0 1
10.1137 0 1
10.2307 0 1
10.3478 0 1
10.4648 0 1
10.5819 0 1
10.6991 0 1
10.8162 0 1
10.9334 0 1
11.0506 0 1
11.1678 0 1
11.285 0 1
11.4023 0 1
11.5196 0 1
11.6369 0 1
11.7542 0 1
11.8715 0 1
11.9888 0 1
12.1062 0 1
12.2235 0 1
12.3409 0 1
12.4582 0 1
12.5756 0 1
12.693 0 1
12.8104 0 1
12.9278 0 1
13.0452 0 1
13.1626 0 1
13.28 0 1
13.3974 0 1
13.5149 0 1
13.6323 0 1
13.7497 0 1
13.8671 0 1
13.9845 0 1
14.1019 0 1
14.2193 0 1
14.3367 0 1
14.4541 0 1
14.5714 0 1
14.6888 0 1
14.8062 0 1
14.9235 0 1
15.0408 1868 43.2204
15.1581 1968 44.3621
15.2755 1951 44.1701
15.3927 1986 44.5646
15.51 1923 43.852
15.6273 1973 44.4185
15.7445 1915 43.7607
15.8617 2008 44.8107
15.9789 1906 43.6578
16.0961 1830 42.7785
16.2132 1917 43.7836
16.3304 1958 44.2493
16.4475 1988 44.587
16.5646 2159 46.465
16.6816 2262 47.5605
16.7986 2457 49.5681
16.9156 2478 49.7795
17.0326 2608 51.0686
17.1496 2618 51.1664
17.2665 2722 52.1728
17.3833 2613 51.1175
17.5002 2728 52.2303
17.617 2624 51.225
17.7338 2710 52.0577
17.8505 2691 51.8748
17.9672 2713 52.0865
18.0839 2826 53.1601
18.2005 2833 53.2259
18.3171 2868 53.5537
18.4337 2873 53.6004
18.5502 2826 53.1601
18.6666 2874 53.6097
18.7831 2905 53.8981
18.8994 2865 53.5257
19.0158 2856 53.4416
19.1321 2732 52.2685
19.2483 2656 51.5364
19.3645 2582 50.8134
19.4806 2532 50.319
19.5967 2482 49.8197
19.7128 2376 48.7442
19.8288 2110 45.9347
19.9447 1898 43.566
20.0606 0 1
20.1764 0 1
20.2922 0 1
20.4079 0 1
20.5236 0 1
20.6392 0 1
20.7548 0 1
20.8702 0 1
23.3078 0 1
23.4233 0 1
23.539 0 1
23.6547 0 1
23.7704 0 1
23.8862 0 1
24.0021 0 1
24.118 0 1
24.234 0 1
24.35 0 1
24.4661 2624 51.225
24.5822 2533 50.3289
24.6984 2545 50.448
24.8146 2576 50.7543
24.9309 2435 49.3457
25.0472 2336 48.3322
25.1636 2070 45.4973
25.28 2131 46.1628
25.3965 2217 47.085
25.513 2353 48.5077
25.6296 2567 50.6656
25.7462 2873 53.6004
25.8628 2931 54.1387
25.9795 2999 54.7631
26.0962 3059 55.3082
26.213 3049 55.2178
26.3298 3058 55.2992
26.4466 3016 54.9181
26.5635 3067 55.3805
26.6804 2919 54.0278
26.7973 3012 54.8817
26.9143 3045 55.1815
27.0313 3157 56.1872
27.1483 2996 54.7357
27.2653 3020 54.9545
27.3824 2972 54.5161
27.4996 3057 55.2901
27.6167 3025 55
27.7339 2931 54.1387
27.8511 2818 53.0848
27.9683 2832 53.2165
28.0855 2750 52.4404
28.2028 2857 53.4509
28.3201 2744 52.3832
28.4374 2616 51.1468
28.5547 2469 49.689
28.6721 2142 46.2817
28.7894 2110 45.9347
28.9068 2092 45.7384
29.0242 2216 47.0744
29.1416 2328 48.2494
29.259 2487 49.8698
29.3764 2716 52.1153
29.4939 2834 53.2353
29.6113 2911 53.9537
29.7288 3017 54.9272
29.8463 2865 53.5257
29.9638 2937 54.1941
30.0812 2938 54.2033
30.1987 2988 54.6626
30.3162 3056 55.2811
30.4337 2873 53.6004
30.5512 2894 53.7959
30.6687 2784 52.7636
30.7862 2834 53.2353
30.9037 2920 54.037
31.0212 2831 53.2071
31.1387 3050 55.2268
31.2562 2894 53.7959
31.3737 2951 54.3231
31.4912 2765 52.5833
31.6087 2851 53.3948
31.7262 2747 52.4118
31.8436 2839 53.2823
31.9611 2721 52.1632
32.0785 2437 49.366
32.1959 2253 47.4658
32.3134 2052 45.299
32.4308 2097 45.793
32.5482 2129 46.1411
32.6655 2234 47.2652
32.7829 2482 49.8197
32.9002 2622 51.2055
33.0176 2736 52.3068
33.1349 2762 52.5547
33.2522 2904 53.8888
33.3694 2794 52.8583
33.4867 2911 53.9537
33.6039 2956 54.3691
33.7211 2946 54.2771
33.8383 2923 54.0648
33.9554 2970 54.4977
34.0725 2821 53.1131
34.1896 2858 53.4603
34.3067 2840 53.2917
34.4237 2840 53.2917
34.5407 2896 53.8145
34.6577 2865 53.5257
34.7746 2869 53.563
34.8915 2764 52.5738
35.0084 2787 52.792
35.1252 2789 52.811
35.242 2835 53.2447
35.3587 2852 53.4041
35.4755 2724 52.192
35.5921 2669 51.6624
35.7088 2629 51.2738
35.8254 2374 48.7237
35.9419 2126 46.1086
36.0584 2071 45.5082
36.1749 2077 45.5741
36.2913 2099 45.8148
36.4077 2160 46.4758
36.524 2339 48.3632
36.6403 2552 50.5173
36.7565 2734 52.2877
36.8727 2761 52.5452
36.9889 2768 52.6118
37.1049 2849 53.376
37.221 0 1
37.3369 0 1
37.4529 0 1
37.5687 0 1
37.6845 0 1
37.8003 0 1
37.916 0 1
38.0316 0 1
38.1472 0 1
40.5851 0 1
40.7008 0 1
40.8164 0 1
40.9322 0 1
41.048 0 1
41.1639 0 1
41.2798 0 1
41.3958 0 1
41.5118 0 1
41.6279 0 1
41.744 1894 43.5201
41.8602 2078 45.5851
41.9765 2282 47.7703
42.0928 2239 47.3181
42.2091 2429 49.2849
42.3255 2316 48.1248
42.4419 2374 48.7237
42.5584 2454 49.5379
42.675 2401 49
42.7915 2427 49.2646
42.9081 2323 48.1975
43.0248 2158 46.4543
43.1415 2188 46.7761
43.2582 2309 48.0521
43.375 2351 48.4871
43.4918 2318 48.1456
43.6087 2255 47.4868
43.7256 2266 47.6025
43.8425 2104 45.8694
43.9595 2233 47.2546
44.0765 2234 47.2652
44.1935 2169 46.5725
44.3106 2145 46.3141
44.4277 2074 45.5412
44.5448 1919 43.8064
44.6619 1725 41.5331
44.7791 1564 39.5474
44.8963 1474 38.3927
45.0136 1516 38.9358
45.1308 1442 37.9737
45.2481 1549 39.3573
45.3654 1665 40.8044
45.4827 1752 41.8569
45.6001 1843 42.9302
45.7174 1865 43.1856
45.8348 1803 42.4617
45.9522 1838 42.8719
46.0697 1656 40.694
46.1871 1799 42.4146
46.3046 1684 41.0366
46.422 1593 39.9124
46.5395 1634 40.4228
46.657 1679 40.9756
46.7745 1672 40.8901
46.892 1606 40.0749
47.0096 1689 41.0974
47.1271 1702 41.2553
47.2446 1619 40.2368
47.3622 1634 40.4228
47.4797 1633 40.4104
47.5973 1559 39.4842
47.7149 1635 40.4351
47.8324 1491 38.6135
47.95 1478 38.4448
48.0675 1476 38.4187
48.1851 1370 37.0135
48.3027 1249 35.3412
48.4202 1125 33.541
48.5378 1072 32.7414
48.6554 1119 33.4515
48.7729 1129 33.6006
48.8904 1244 35.2704
49.008 1355 36.8103
49.1255 1486 38.5487
49.243 1365 36.9459
49.3605 1447 38.0395
49.478 1477 38.4318
49.5955 1446 38.0263
49.713 1457 38.1707
49.8304 1490 38.6005
49.9479 1397 37.3765
50.0653 1422 37.7094
50.1827 1468 38.3145
50.3001 1506 38.8072
50.4175 1530 39.1152
50.5348 1632 40.398
50.6521 1610 40.1248
50.7694 1705 41.2916
50.8867 1742 41.7373
51.004 1818 42.638
51.1212 1791 42.3202
51.2384 1778 42.1663
51.3556 1774 42.1189
51.4727 1821 42.6732
51.5899 1720 41.4729
51.707 1742 41.7373
51.824 1525 39.0512
51.9411 1506 38.8072
52.0581 1630 40.3733
52.175 1670 40.8656
52.2919 1786 42.2611
52.4088 1945 44.1022
52.5257 2121 46.0543
52.6425 2077 45.5741
52.7593 2281 47.7598
52.876 2311 48.0729
52.9927 2272 47.6655
53.1094 2249 47.4236
53.226 2387 48.8569
53.3426 2348 48.4562
53.4591 2258 47.5184
53.5756 2222 47.1381
53.692 2197 46.8722
53.8084 2236 47.2864
53.9248 2360 48.5798
54.0411 2567 50.6656
54.1573 2606 51.049
54.2735 0 1
54.3896 0 1
54.5057 0 1
54.6217 0 1
54.7377 0 1
54.8537 0 1
54.9695 0 1
55.0853 0 1
55.2011 0 1
55.3168 0 1
55.4324 0 1
57.824 0 1
57.9396 0 1
58.0553 0 1
58.1711 0 1
58.2869 0 1
58.4028 0 1
58.5187 0 1
58.6347 0 1
58.7508 0 1
58.8669 0 1
58.983 2446 49.4571
59.0992 2624 51.225
59.2155 2800 52.915
59.3318 2952 54.3323
59.4482 3039 55.1271
59.5646 3003 54.7996
59.681 2992 54.6992
59.7975 2991 54.69
59.9141 2940 54.2218
60.0306 2829 53.1883
60.1473 2752 52.4595
60.2639 2668 51.6527
60.3807 2501 50.01
60.4974 2394 48.9285
60.6142 2237 47.2969
60.731 2216 47.0744
60.8479 2220 47.1169
60.9648 2297 47.927
61.0818 2317 48.1352
61.1987 2468 49.679
61.3158 2594 50.9313
61.4328 2705 52.0096
61.5499 2702 51.9808
61.667 2648 51.4587
61.7841 2572 50.7149
61.9013 2539 50.3885
62.0185 2342 48.3942
62.1357 2387 48.8569
62.253 2500 50
62.3702 2474 49.7393
62.4875 2539 50.3885
62.6049 2525 50.2494
62.7222 2637 51.3517
62.8396 2683 51.7977
62.9569 2664 51.614
63.0743 2777 52.6972
63.1918 2814 53.0471
63.3092 2705 52.0096
63.4267 2685 51.817
63.5441 2575 50.7445
63.6616 2457 49.5681
63.7791 2446 49.4571
63.8966 2178 46.669
64.0142 2171 46.594
64.1317 2085 45.6618
64.2492 2069 45.4863
64.3668 2030 45.0555
64.4843 2033 45.0888
64.6019 2257 47.5079
64.7195 2259 47.5289
64.837 2405 49.0408
64.9546 2383 48.816
65.0722 2405 49.0408
65.1898 2437 49.366
65.3074 2397 48.9592
65.4249 2270 47.6445
65.5425 2250 47.4342
65.6601 2080 45.607
65.7777 2173 46.6154
65.8952 2219 47.1063
66.0128 2308 48.0416
66.1304 2339 48.3632
66.2479 2397 48.9592
66.3655 2508 50.0799
66.483 2569 50.6853
66.6005 2583 50.8232
66.718 2708 52.0384
66.8355 2546 50.4579
66.953 2592 50.9117
67.0705 2567 50.6656
67.1879 2411 49.1019
67.3054 2331 48.2804
67.4228 2207 46.9787
67.5402 2135 46.2061
67.6576 2030 45.0555
67.7749 1924 43.8634
67.8923 1958 44.2493
68.0096 1974 44.4297
68.1269 2139 46.2493
68.2442 2110 45.9347
68.3614 2243 47.3603
68.4787 2463 49.6286
68.5958 2436 49.3559
68.713 2429 49.2849
68.8302 2421 49.2037
68.9473 2436 49.3559
69.0643 2413 49.1223
69.1814 2239 47.3181
69.2984 2222 47.1381
69.4154 2265 47.592
69.5323 2254 47.4763
69.6492 2398 48.9694
69.7661 2557 50.5668
69.8829 2694 51.9038
69.9997 2825 53.1507
70.1165 2833 53.2259
70.2332 2893 53.7866
70.3499 2868 53.5537
70.4665 2846 53.3479
70.5831 2807 52.9811
70.6996 2771 52.6403
70.8161 2812 53.0283
70.9326 2677 51.7397
71.049 2665 51.6236
71.1653 2412 49.1121
71.2817 2248 47.4131
71.3979 2149 46.3573
71.5141 2060 45.3872
71.6303 1944 44.0908
71.7464 1705 41.2916
71.8624 0 1
71.9784 0 1
72.0944 0 1
72.2102 0 1
72.3261 0 1
72.4418 0 1
72.5575 0 1
72.6732 0 1
75.1054 0 1
75.2209 0 1
75.3365 0 1
75.4521 0 1
75.5678 0 1
75.6835 0 1
75.7993 0 1
75.9151 0 1
76.031 0 1
76.147 2415 49.1426
76.263 2598 50.9706
76.3791 2613 51.1175
76.4952 2545 50.448
76.6113 2402 49.0102
76.7276 2212 47.0319
76.8438 2117 46.0109
76.9601 2102 45.8476
77.0765 2208 46.9894
77.1929 2432 49.3153
77.3093 2537 50.3686
77.4258 2597 50.9608
77.5423 2738 52.3259
77.6589 2703 51.9904
77.7755 2694 51.9038
77.8921 2658 51.5558
78.0088 2510 50.0999
78.1256 2442 49.4166
78.2423 2198 46.8828
78.3591 2092 45.7384
78.4759 2110 45.9347
78.5928 2140 46.2601
78.7097 2415 49.1426
78.8266 2398 48.9694
78.9436 2873 53.6004
79.0606 2765 52.5833
79.1776 2815 53.0566
79.2946 2830 53.1977
79.4117 2877 53.6377
79.5288 2746 52.4023
79.6459 2684 51.8073
79.7631 2609 51.0784
79.8802 2634 51.3225
79.9974 2495 49.95
80.1147 2337 48.3425
80.2319 2272 47.6655
80.3491 2041 45.1774
80.4664 2020 44.9444
80.5837 2002 44.7437
80.701 2042 45.1885
80.8183 2211 47.0213
80.9357 2377 48.7545
81.053 2410 49.0918
81.1704 2460 49.5984
81.2877 2420 49.1935
81.4051 2462 49.6185
81.5225 2330 48.2701
81.6399 2381 48.7955
81.7573 2186 46.7547
81.8747 1922 43.8406
81.9922 1979 44.486
82.1096 1661 40.7554
82.227 1956 44.2267
82.3444 2104 45.8694
82.4619 2392 48.9081
82.5793 2433 49.3254
82.6967 2547 50.4678
82.8142 2488 49.8799
82.9316 2493 49.93
83.049 2433 49.3254
83.1664 2511 50.1099
83.2838 2423 49.224
83.4012 2336 48.3322
83.5186 2261 47.55
83.636 2178 46.669
83.7534 2022 44.9667
83.8708 1867 43.2088
83.9881 1780 42.19
84.1055 1803 42.4617
84.2228 1819 42.6497
84.3401 1853 43.0465
84.4575 2001 44.7325
84.5747 2115 45.9891
84.692 2264 47.5815
84.8093 2239 47.3181
84.9265 2261 47.55
85.0437 2211 47.0213
85.1609 2224 47.1593
85.2781 1999 44.7102
85.3952 1865 43.1856
85.5123 1737 41.6773
85.6294 1719 41.4608
85.7465 1789 42.2966
85.8636 2004 44.7661
85.9806 2242 47.3498
86.0976 2389 48.8774
86.2145 2571 50.705
86.3315 2731 52.259
86.4484 2610 51.0882
86.5652 2729 52.2398
86.682 2759 52.5262
86.7988 2674 51.7107
86.9156 2642 51.4004
87.0323 2494 49.94
87.149 2440 49.3964
87.2657 2424 49.2341
87.3823 2208 46.9894
87.4988 2164 46.5188
87.6154 2199 46.8935
87.7318 2172 46.6047
87.8483 2228 47.2017
87.9647 2378 48.7647
88.081 2404 49.0306
88.1973 2540 50.3984
88.3136 2679 51.7591
88.4298 2639 51.3712
88.546 2751 52.45
88.6621 2547 50.4678
88.7781 2507 50.07
88.8942 0 1
89.0101 0 1
89.126 0 1
89.2419 0 1
89.3577 0 1
89.4734 0 1
89.5891 0 1
89.7047 0 1
89.8203 0 1
89.9358 0 1
92.3269 0 1
92.4424 0 1
92.558 0 1
92.6736 0 1
92.7893 0 1
92.905 0 1
93.0208 0 1
93.1366 0 1
93.2525 0 1
93.3685 0 1
93.4845 0 1
93.6005 2409 49.0816
93.7167 2601 51
93.8328 2641 51.3907
93.949 2572 50.7149
94.0653 2530 50.2991
94.1816 2596 50.951
94.2979 2456 49.558
94.4143 2216 47.0744
94.5307 1999 44.7102
94.6472 1871 43.2551
94.7637 1972 44.4072
94.8803 2144 46.3033
94.9969 2423 49.224
95.1135 2642 51.4004
95.2302 2781 52.7352
95.3469 2876 53.6284
95.4637 2902 53.8702
95.5805 2819 53.0943
95.6973 3052 55.2449
95.8142 3090 55.5878
95.9311 2947 54.2863
96.048 2819 53.0943
96.1649 2678 51.7494
96.2819 2654 51.517
96.3989 2568 50.6754
96.516 2507 50.07
96.633 2424 49.2341
96.7501 2314 48.1041
96.8673 2319 48.156
96.9844 2325 48.2183
97.1016 2353 48.5077
97.2188 2402 49.0102
97.336 2553 50.5272
97.4532 2705 52.0096
97.5704 2714 52.0961
97.6877 2549 50.4876
97.805 2574 50.7346
97.9223 2414 49.1325
98.0396 2118 46.0217
98.1569 1947 44.1248
98.2743 1870 43.2435
98.3916 1872 43.2666
98.509 2058 45.3652
98.6264 2344 48.4149
98.7438 2466 49.6588
98.8612 2736 52.3068
98.9786 2872 53.591
99.096 2937 54.1941
99.2134 2969 54.4885
99.3308 2924 54.074
99.4482 2882 53.6843
99.5656 2876 53.6284
99.6831 2795 52.8678
99.8005 2740 52.345
99.9179 2525 50.2494
100.035 2604 51.0294
100.153 2484 49.8397
100.27 2372 48.7032
100.388 2347 48.4458
100.505 2328 48.2494
100.622 2484 49.8397
100.74 2493 49.93
100.857 2740 52.345
100.975 2632 51.303
101.092 2654 51.517
101.209 2693 51.8941
101.327 2678 51.7494
101.444 2568 50.6754
101.561 2435 49.3457
101.679 2129 46.1411
101.796 1853 43.0465
101.913 1841 42.9069
102.03 2002 44.7437
102.148 2336 48.3322
102.265 2565 50.6458
102.382 2931 54.1387
102.499 2954 54.3507
102.616 3072 55.4256
102.733 3073 55.4346
102.851 3073 55.4346
102.968 3087 55.5608
103.085 3005 54.8179
103.202 3011 54.8726
103.319 2873 53.6004
103.436 2888 53.7401
103.552 2765 52.5833
103.669 2559 50.5866
103.786 2567 50.6656
103.903 2567 50.6656
104.02 2643 51.4101
104.137 2681 51.7784
104.253 2748 52.4214
104.37 2971 54.5069
104.487 2834 53.2353
104.603 2968 54.4794
104.72 2878 53.647
104.836 2867 53.5444
104.953 2756 52.4976
105.069 2563 50.6261
105.186 2313 48.0937
105.302 2016 44.8999
105.418 2076 45.5631
105.535 2222 47.1381
105.651 2787 52.792
105.767 3080 55.4977
105.883 3311 57.5413
105.999 3374 58.0861
106.115 0 1
106.231 0 1
106.347 0 1
106.463 0 1
106.579 0 1
106.694 0 1
106.81 0 1
106.926 0 1
107.041 0 1
107.157 0 1
109.576 0 1
109.692 0 1
109.807 0 1
109.923 0 1
110.039 0 1
110.155 0 1
110.27 0 1
110.386 0 1
110.502 0 1
110.618 2270 47.6445
110.735 2759 52.5262
110.851 3077 55.4707
110.967 3166 56.2672
111.083 3152 56.1427
111.199 3249 57
111.316 3248 56.9912
111.432 3288 57.3411
111.549 3276 57.2364
111.665 3271 57.1927
111.782 3061 55.3263
111.898 2949 54.3047
112.015 2818 53.0848
112.132 2702 51.9808
112.248 2773 52.6593
112.365 2824 53.1413
112.482 2645 51.4296
112.599 2739 52.3355
112.716 2705 52.0096
112.832 2742 52.3641
112.949 2881 53.6749
113.066 2856 53.4416
113.183 2859 53.4696
113.3 2867 53.5444
113.417 2800 52.915
113.534 2749 52.4309
113.652 2446 49.4571
113.769 2090 45.7165
113.886 2060 45.3872
114.003 1908 43.6807
114.12 2203 46.9361
114.238 2650 51.4782
114.355 3000 54.7723
114.472 2919 54.0278
114.589 3170 56.3028
114.707 3297 57.4195
114.824 3206 56.6216
114.942 3253 57.0351
115.059 3348 57.8619
115.176 3284 57.3062
115.294 3197 56.542
115.411 3030 55.0454
115.529 2997 54.7449
115.646 2982 54.6077
115.764 2772 52.6498
115.881 2824 53.1413
115.999 2813 53.0377
116.116 2912 53.963
116.234 2916 54
116.351 2982 54.6077
116.469 3055 55.2721
116.586 3076 55.4617
116.704 3013 54.8908
116.821 2879 53.6563
116.939 2912 53.963
117.056 2775 52.6783
117.174 2776 52.6878
117.291 2401 49
117.409 2188 46.7761
117.526 2096 45.7821
117.644 2164 46.5188
117.761 2404 49.0306
117.879 2875 53.619
117.996 2984 54.626
118.114 3179 56.3826
118.231 3225 56.7891
118.349 3270 57.1839
118.466 3334 57.7408
118.584 3252 57.0263
118.701 3288 57.3411
118.819 3313 57.5587
118.936 3095 55.6327
119.053 3214 56.6922
119.171 3062 55.3353
119.288 2988 54.6626
119.405 2866 53.535
119.523 2905 53.8981
119.64 2754 52.4786
119.757 2847 53.3573
119.875 2938 54.2033
119.992 2884 53.7029
120.109 2968 54.4794
120.226 2846 53.3479
120.343 2907 53.9166
120.46 2921 54.0463
120.578 2943 54.2494
120.695 2910 53.9444
120.812 2652 51.4976
120.929 2436 49.3559
121.046 2200 46.9042
121.163 2099 45.8148
121.279 2018 44.9222
121.396 2266 47.6025
121.513 2475 49.7494
121.63 2901 53.8609
121.747 2979 54.5802
121.863 3189 56.4712
121.98 3101 55.6866
122.097 3268 57.1664
122.213 3160 56.2139
122.33 3295 57.4021
122.446 3292 57.376
122.563 3125 55.9017
122.679 3122 55.8749
122.795 3001 54.7814
122.912 2878 53.647
123.028 2964 54.4426
123.144 2790 52.8205
123.26 2760 52.5357
123.377 0 1
123.493 0 1
123.609 0 1
123.725 0 1
123.84 0 1
123.956 0 1
124.072 0 1
124.188 0 1
124.303 0 1
124.419 0 1
126.852 0 1
126.968 0 1
127.083 0 1
127.199 0 1
127.315 0 1
127.431 0 1
127.547 0 1
127.663 0 1
127.779 0 1
127.895 0 1
128.011 0 1
128.127 0 1
128.243 0 1
128.359 3228 56.8155
128.476 3138 56.0179
128.592 3104 55.7136
128.708 3106 55.7315
128.825 3096 55.6417
128.941 3136 56
129.058 3167 56.2761
129.174 3190 56.4801
129.291 3143 56.0625
129.408 3111 55.7763
129.524 3172 56.3205
129.641 3198 56.5509
129.758 2981 54.5985
129.875 2760 52.5357
129.992 2584 50.8331
130.108 2288 47.833
130.225 2275 47.697
130.342 2511 50.1099
130.459 2771 52.6403
130.576 3164 56.2494
130.693 3351 57.8878
130.81 3444 58.6856
130.928 3421 58.4893
131.045 3439 58.643
131.162 3573 59.7746
131.279 3419 58.4722
131.396 3587 59.8916
131.513 3519 59.3212
131.631 3561 59.6741
131.748 3448 58.7197
131.865 3339 57.7841
131.983 3450 58.7367
132.1 3423 58.5064
132.217 3303 57.4717
132.335 3313 57.5587
132.452 3371 58.0603
132.57 3344 57.8273
132.687 3388 58.2065
132.804 3366 58.0172
132.922 3288 57.3411
133.039 3314 57.5674
133.157 3292 57.376
133.274 3194 56.5155
133.392 2825 53.1507
133.509 2638 51.3615
133.627 2331 48.2804
133.744 2318 48.1456
133.862 2489 49.8899
133.979 2719 52.144
134.097 3050 55.2268
134.214 3269 57.1752
134.332 3520 59.3296
134.449 3480 58.9915
134.567 3496 59.127
134.684 3548 59.5651
134.802 3655 60.4566
134.919 3585 59.8749
135.037 3475 58.9491
135.154 3464 58.8558
135.272 3515 59.2874
135.389 3499 59.1523
135.507 3347 57.8533
135.624 3404 58.3438
135.742 3374 58.0861
135.859 3358 57.9483
135.977 3405 58.3524
136.094 3400 58.3095
136.211 3449 58.7282
136.329 3382 58.155
136.446 3399 58.3009
136.564 3404 58.3438
136.681 3409 58.3866
136.798 3350 57.8792
136.915 3061 55.3263
137.033 2773 52.6593
137.15 2585 50.8429
137.267 2439 49.3862
137.384 2313 48.0937
137.502 2379 48.775
137.619 2793 52.8488
137.736 2977 54.5619
137.853 3146 56.0892
137.97 3315 57.576
138.087 3345 57.836
138.204 3402 58.3267
138.321 3494 59.1101
138.438 3465 58.8643
138.555 3655 60.4566
138.672 3615 60.1249
138.788 3628 60.2329
138.905 3459 58.8133
139.022 3585 59.8749
139.139 3425 58.5235
139.255 3493 59.1016
139.372 3267 57.1577
139.488 3361 57.9741
139.605 3400 58.3095
139.721 3417 58.4551
139.838 3500 59.1608
139.954 3458 58.8048
140.071 3489 59.0678
140.187 3500 59.1608
140.303 3483 59.0169
140.419 3401 58.3181
140.535 3186 56.4447
140.652 2922 54.0555
140.768 0 1
140.884 0 1
141 0 1
141.115 0 1
141.231 0 1
141.347 0 1
141.463 0 1
141.578 0 1
141.694 0 1
144.104 0 1
144.219 0 1
144.335 0 1
144.45 0 1
144.566 0 1
144.682 0 1
144.798 0 1
144.914 0 1
145.03 0 1
145.146 2476 49.7594
145.262 2799 52.9056
145.378 2820 53.1037
145.494 2786 52.7826
145.61 2752 52.4595
145.726 2530 50.2991
145.842 2368 48.6621
145.959 2198 46.8828
146.075 2096 45.7821
146.192 2001 44.7325
146.308 1977 44.4635
146.425 2134 46.1952
146.541 2347 48.4458
146.658 2543 50.4282
146.774 2552 50.5173
146.891 2839 53.2823
147.008 2831 53.2071
147.125 2916 54
147.241 3025 55
147.358 3044 55.1725
147.475 3093 55.6147
147.592 3038 55.1181
147.709 3094 55.6237
147.826 2970 54.4977
147.943 3069 55.3986
148.06 3034 55.0818
148.177 3062 55.3353
148.294 3097 55.6507
148.411 3088 55.5698
148.528 2962 54.4243
148.645 2989 54.6717
148.762 3134 55.9821
148.88 3008 54.8452
148.997 2919 54.0278
149.114 2982 54.6077
149.231 2899 53.8424
149.349 2946 54.2771
149.466 2868 53.5537
149.583 2657 51.5461
149.701 2498 49.98
149.818 2336 48.3322
149.935 2121 46.0543
150.053 2189 46.7868
150.17 2306 48.0208
150.287 2303 47.9896
150.405 2539 50.3885
150.522 2625 51.2348
150.64 2739 52.3355
150.757 2914 53.9815
150.875 3077 55.4707
150.992 3174 56.3383
151.11 3312 57.55
151.227 3194 56.5155
151.344 3289 57.3498
151.462 3205 56.6127
151.579 3207 56.6304
151.697 3223 56.7715
151.814 3204 56.6039
151.932 3155 56.1694
152.049 3066 55.3715
152.167 3146 56.0892
152.284 3145 56.0803
152.402 3123 55.8838
152.519 3039 55.1271
152.636 3074 55.4437
152.754 3200 56.5685
152.871 3087 55.5608
152.989 3072 55.4256
153.106 2909 53.9351
153.223 2752 52.4595
153.341 2616 51.1468
153.458 2495 49.95
153.575 2292 47.8748
153.693 2249 47.4236
153.81 2419 49.1833
153.927 2540 50.3984
154.044 2647 51.449
154.162 2812 53.0283
154.279 3038 55.1181
154.396 3101 55.6866
154.513 3107 55.7405
154.63 3269 57.1752
154.747 3314 57.5674
154.864 3278 57.2538
154.981 3458 58.8048
155.098 3361 57.9741
155.215 3368 58.0345
155.332 3248 56.9912
155.449 3165 56.2583
155.566 3333 57.7321
155.683 3239 56.9122
155.8 3201 56.5774
155.917 3168 56.285
156.033 3295 57.4021
156.15 0 1
156.267 0 1
156.383 0 1
156.5 0 1
156.617 0 1
156.733 0 1
156.85 0 1
156.966 0 1
157.082 0 1
157.199 0 1
157.315 0 1
157.431 0 1
157.547 0 1
157.664 0 1
157.78 0 1
157.896 0 1
158.012 0 1
158.128 0 1
158.244 0 1
158.359 0 1
158.475 0 1
158.591 0 1
158.706 0 1
