
6.15755 0 1
6.2731 0 1
6.3887 0 1
6.50437 0 1
6.62009 0 1
6.73587 0 1
6.8517 0 1
6.96759 0 1
7.08353 0 1
7.19952 0 1
7.31557 0 1
7.43166 0 1
7.54781 0 1
7.664 0 1
7.78024 0 1
7.89653 0 1
8.01286 0 1
8.12924 0 1
8.24567 0 1
8.36213 0 1
8.47864 0 1
8.59519 0 1
8.71178 0 1
8.82841 0 1
8.94508 0 1
9.06179 0 1
9.17853 0 1
9.29531 0 1
9.41212 0 1
9.52897 0 1
9.64584 0 1
9.76276 0 1
9.8797 0 1
9.99667 0 1
10.1137 0 1
10.2307 0 1
10.3478 0 1
10.4648 0 1
10.5819 0 1
10.6991 0 1
10.8162 0 1
10.9334 0 1
11.0506 0 1
11.1678 0 1
11.285 0 1
11.4023 0 1
11.5196 0 1
11.6369 0 1
11.7542 0 1
11.8715 0 1
11.9888 0 1
12.1062 0 1
12.2235 0 1
12.3409 0 1
12.4582 0 1
12.5756 0 1
12.693 0 1
12.8104 0 1
12.9278 0 1
13.0452 0 1
13.1626 0 1
13.28 0 1
13.3974 0 1
13.5149 0 1
13.6323 0 1
13.7497 0 1
13.8671 0 1
13.9845 0 1
14.1019 0 1
14.2193 0 1
14.3367 0 1
14.4541 0 1
14.5714 0 1
14.6888 0 1
14.8062 0 1
14.9235 0 1
15.0408 1772 42.0951
15.1581 1804 42.4735
15.2755 1840 42.8952
15.3927 1967 44.3509
15.51 1897 43.5546
15.6273 1896 43.5431
15.7445 1768 42.0476
15.8617 1863 43.1625
15.9789 1632 40.398
16.0961 1678 40.9634
16.2132 1645 40.5586
16.3304 1675 40.9268
16.4475 1609 40.1123
16.5646 1676 40.939
16.6816 1551 39.3827
16.7986 1537 39.2046
16.9156 1469 38.3275
17.0326 1482 38.4968
17.1496 1427 37.7757
17.2665 1383 37.1887
17.3833 1437 37.9078
17.5002 1364 36.9324
17.617 1462 38.2361
17.7338 1434 37.8682
17.8505 1526 39.064
17.9672 1535 39.1791
18.0839 1466 38.2884
18.2005 1612 40.1497
18.3171 1656 40.694
18.4337 1716 41.4246
18.5502 1697 41.1947
18.6666 1696 41.1825
18.7831 1730 41.5933
18.8994 1715 41.4126
19.0158 1534 39.1663
19.1321 1532 39.1408
19.2483 1458 38.1838
19.3645 1370 37.0135
19.4806 1229 35.0571
19.5967 1132 33.6452
19.7128 1050 32.4037
19.8288 957 30.9354
19.9447 903 30.05
20.0606 0 1
20.1764 0 1
20.2922 0 1
20.4079 0 1
20.5236 0 1
20.6392 0 1
20.7548 0 1
20.8702 0 1
23.3078 0 1
23.4233 0 1
23.539 0 1
23.6547 0 1
23.7704 0 1
23.8862 0 1
24.0021 0 1
24.118 0 1
24.234 0 1
24.35 0 1
24.4661 778 27.8927
24.5822 813 28.5132
24.6984 861 29.3428
24.8146 889 29.8161
24.9309 931 30.5123
25.0472 1010 31.7805
25.1636 1108 33.2866
25.28 1154 33.9706
25.3965 1264 35.5528
25.513 1315 36.2629
25.6296 1442 37.9737
25.7462 1489 38.5876
25.8628 1521 39
25.9795 1543 39.281
26.0962 1523 39.0256
26.213 1546 39.3192
26.3298 1534 39.1663
26.4466 1537 39.2046
26.5635 1470 38.3406
26.6804 1424 37.7359
26.7973 1440 37.9473
26.9143 1435 37.8814
27.0313 1416 37.6298
27.1483 1444 38
27.2653 1488 38.5746
27.3824 1506 38.8072
27.4996 1403 37.4566
27.6167 1454 38.1314
27.7339 1480 38.4708
27.8511 1414 37.6032
27.9683 1349 36.7287
28.0855 1310 36.1939
28.2028 1258 35.4683
28.3201 1174 34.2637
28.4374 1151 33.9264
28.5547 1136 33.7046
28.6721 1170 34.2053
28.7894 1273 35.6791
28.9068 1259 35.4824
29.0242 1335 36.5377
29.1416 1375 37.081
29.259 1344 36.6606
29.3764 1365 36.9459
29.4939 1399 37.4032
29.6113 1423 37.7227
29.7288 1372 37.0405
29.8463 1402 37.4433
29.9638 1401 37.4299
30.0812 1367 36.973
30.1987 1407 37.51
30.3162 1305 36.1248
30.4337 1376 37.0945
30.5512 1364 36.9324
30.6687 1489 38.5876
30.7862 1448 38.0526
30.9037 1395 37.3497
31.0212 1505 38.7943
31.1387 1399 37.4032
31.2562 1342 36.6333
31.3737 1344 36.6606
31.4912 1300 36.0555
31.6087 1283 35.819
31.7262 1179 34.3366
31.8436 1095 33.0908
31.9611 1150 33.9116
32.0785 1126 33.5559
32.1959 1158 34.0294
32.3134 1184 34.4093
32.4308 1242 35.242
32.5482 1278 35.7491
32.6655 1322 36.3593
32.7829 1320 36.3318
32.9002 1289 35.9026
33.0176 1287 35.8748
33.1349 1307 36.1525
33.2522 1399 37.4032
33.3694 1270 35.6371
33.4867 1351 36.756
33.6039 1245 35.2846
33.7211 1299 36.0416
33.8383 1256 35.4401
33.9554 1349 36.7287
34.0725 1293 35.9583
34.1896 1345 36.6742
34.3067 1321 36.3456
34.4237 1396 37.3631
34.5407 1414 37.6032
34.6577 1377 37.108
34.7746 1317 36.2905
34.8915 1356 36.8239
35.0084 1355 36.8103
35.1252 1293 35.9583
35.242 1261 35.5106
35.3587 1215 34.8569
35.4755 1170 34.2053
35.5921 1096 33.1059
35.7088 1068 32.6803
35.8254 1031 32.1092
35.9419 1026 32.0312
36.0584 1111 33.3317
36.1749 1139 33.7491
36.2913 1096 33.1059
36.4077 1167 34.1614
36.524 1145 33.8378
36.6403 1088 32.9848
36.7565 1140 33.7639
36.8727 1108 33.2866
36.9889 1036 32.187
37.1049 933 30.545
37.221 0 1
37.3369 0 1
37.4529 0 1
37.5687 0 1
37.6845 0 1
37.8003 0 1
37.916 0 1
38.0316 0 1
38.1472 0 1
40.5851 0 1
40.7008 0 1
40.8164 0 1
40.9322 0 1
41.048 0 1
41.1639 0 1
41.2798 0 1
41.3958 0 1
41.5118 0 1
41.6279 0 1
41.744 663 25.7488
41.8602 692 26.3059
41.9765 772 27.7849
42.0928 787 28.0535
42.2091 850 29.1548
42.3255 900 30
42.4419 905 30.0832
42.5584 956 30.9192
42.675 945 30.7409
42.7915 1061 32.573
42.9081 1083 32.909
43.0248 1184 34.4093
43.1415 1189 34.4819
43.2582 1205 34.7131
43.375 1224 34.9857
43.4918 1238 35.1852
43.6087 1186 34.4384
43.7256 1197 34.5977
43.8425 1197 34.5977
43.9595 1173 34.2491
44.0765 1208 34.7563
44.1935 1141 33.7787
44.3106 1084 32.9242
44.4277 1012 31.8119
44.5448 984 31.3688
44.6619 1001 31.6386
44.7791 1062 32.5883
44.8963 1076 32.8024
45.0136 1152 33.9411
45.1308 1077 32.8177
45.2481 1107 33.2716
45.3654 1143 33.8083
45.4827 1085 32.9393
45.6001 1139 33.7491
45.7174 1130 33.6155
45.8348 1161 34.0735
45.9522 1154 33.9706
46.0697 1129 33.6006
46.1871 1149 33.8969
46.3046 1149 33.8969
46.422 1205 34.7131
46.5395 1236 35.1568
46.657 1303 36.0971
46.7745 1275 35.7071
46.892 1358 36.8511
47.0096 1353 36.7831
47.1271 1377 37.108
47.2446 1385 37.2156
47.3622 1362 36.9053
47.4797 1333 36.5103
47.5973 1306 36.1386
47.7149 1320 36.3318
47.8324 1208 34.7563
47.95 1155 33.9853
48.0675 1004 31.686
48.1851 1089 33
48.3027 1105 33.2415
48.4202 1230 35.0714
48.5378 1217 34.8855
48.6554 1271 35.6511
48.7729 1302 36.0832
48.8904 1274 35.6931
49.008 1250 35.3553
49.1255 1276 35.7211
49.243 1275 35.7071
49.3605 1302 36.0832
49.478 1299 36.0416
49.5955 1231 35.0856
49.713 1372 37.0405
49.8304 1336 36.5513
49.9479 1337 36.565
50.0653 1427 37.7757
50.1827 1457 38.1707
50.3001 1499 38.7169
50.4175 1549 39.3573
50.5348 1483 38.5097
50.6521 1552 39.3954
50.7694 1522 39.0128
50.8867 1534 39.1663
51.004 1465 38.2753
51.1212 1492 38.6264
51.2384 1457 38.1707
51.3556 1349 36.7287
51.4727 1166 34.1467
51.5899 1172 34.2345
51.707 1163 34.1028
51.824 1232 35.0999
51.9411 1393 37.3229
52.0581 1461 38.223
52.175 1437 37.9078
52.2919 1414 37.6032
52.4088 1427 37.7757
52.5257 1451 38.092
52.6425 1500 38.7298
52.7593 1437 37.9078
52.876 1425 37.7492
52.9927 1590 39.8748
53.1094 1465 38.2753
53.226 1420 37.6829
53.3426 1469 38.3275
53.4591 1495 38.6652
53.5756 1601 40.0125
53.692 1487 38.5616
53.8084 1420 37.6829
53.9248 1464 38.2623
54.0411 1458 38.1838
54.1573 1357 36.8375
54.2735 0 1
54.3896 0 1
54.5057 0 1
54.6217 0 1
54.7377 0 1
54.8537 0 1
54.9695 0 1
55.0853 0 1
55.2011 0 1
55.3168 0 1
55.4324 0 1
57.824 0 1
57.9396 0 1
58.0553 0 1
58.1711 0 1
58.2869 0 1
58.4028 0 1
58.5187 0 1
58.6347 0 1
58.7508 0 1
58.8669 0 1
58.983 1259 35.4824
59.0992 1453 38.1182
59.2155 1693 41.1461
59.3318 1828 42.7551
59.4482 1990 44.6094
59.5646 2198 46.8828
59.681 2181 46.7012
59.7975 2288 47.833
59.9141 2265 47.592
60.0306 2270 47.6445
60.1473 2195 46.8508
60.2639 2128 46.1303
60.3807 2083 45.6399
60.4974 2147 46.3357
60.6142 2282 47.7703
60.731 2407 49.0612
60.8479 2541 50.4083
60.9648 2685 51.817
61.0818 2694 51.9038
61.1987 2747 52.4118
61.3158 2796 52.8772
61.4328 2744 52.3832
61.5499 2812 53.0283
61.667 2787 52.792
61.7841 2726 52.2111
61.9013 2804 52.9528
62.0185 2797 52.8867
62.1357 2800 52.915
62.253 2900 53.8516
62.3702 2896 53.8145
62.4875 3091 55.5968
62.6049 3156 56.1783
62.7222 3081 55.5068
62.8396 3294 57.3934
62.9569 3287 57.3324
63.0743 3185 56.4358
63.1918 3064 55.3534
63.3092 3133 55.9732
63.4267 2920 54.037
63.5441 2820 53.1037
63.6616 2482 49.8197
63.7791 2348 48.4562
63.8966 2343 48.4045
64.0142 2354 48.518
64.1317 2459 49.5883
64.2492 2706 52.0192
64.3668 2773 52.6593
64.4843 2908 53.9259
64.6019 2968 54.4794
64.7195 3024 54.9909
64.837 3136 56
64.9546 3106 55.7315
65.0722 3094 55.6237
65.1898 3126 55.9106
65.3074 3134 55.9821
65.4249 3032 55.0636
65.5425 3061 55.3263
65.6601 2993 54.7083
65.7777 3058 55.2992
65.8952 3105 55.7225
66.0128 3165 56.2583
66.1304 3293 57.3847
66.2479 3402 58.3267
66.3655 3296 57.4108
66.483 3514 59.279
66.6005 3412 58.4123
66.718 3372 58.0689
66.8355 3396 58.2752
66.953 3249 57
67.0705 3058 55.2992
67.1879 2898 53.8331
67.3054 2603 51.0196
67.4228 2230 47.2229
67.5402 2268 47.6235
67.6576 2336 48.3322
67.7749 2568 50.6754
67.8923 2736 52.3068
68.0096 2912 53.963
68.1269 3030 55.0454
68.2442 3119 55.848
68.3614 3183 56.4181
68.4787 3218 56.7274
68.5958 3214 56.6922
68.713 3193 56.5066
68.8302 3149 56.116
68.9473 3152 56.1427
69.0643 3111 55.7763
69.1814 2975 54.5436
69.2984 3016 54.9181
69.4154 3001 54.7814
69.5323 3052 55.2449
69.6492 3210 56.6569
69.7661 3262 57.1139
69.8829 3328 57.6888
69.9997 3346 57.8446
70.1165 3278 57.2538
70.2332 3314 57.5674
70.3499 3244 56.9561
70.4665 2999 54.7631
70.5831 2817 53.0754
70.6996 2718 52.1344
70.8161 2439 49.3862
70.9326 1981 44.5084
71.049 1663 40.7799
71.1653 1413 37.5899
71.2817 1299 36.0416
71.3979 1274 35.6931
71.5141 1274 35.6931
71.6303 1276 35.7211
71.7464 1080 32.8634
71.8624 0 1
71.9784 0 1
72.0944 0 1
72.2102 0 1
72.3261 0 1
72.4418 0 1
72.5575 0 1
72.6732 0 1
75.1054 0 1
75.2209 0 1
75.3365 0 1
75.4521 0 1
75.5678 0 1
75.6835 0 1
75.7993 0 1
75.9151 0 1
76.031 0 1
76.147 1651 40.6325
76.263 1611 40.1373
76.3791 1667 40.8289
76.4952 1603 40.0375
76.6113 1693 41.1461
76.7276 2051 45.288
76.8438 2242 47.3498
76.9601 2504 50.04
77.0765 2696 51.923
77.1929 2766 52.5928
77.3093 2717 52.1249
77.4258 2823 53.1319
77.5423 2777 52.6972
77.6589 2819 53.0943
77.7755 2848 53.3667
77.8921 2788 52.8015
78.0088 2780 52.7257
78.1256 2756 52.4976
78.2423 2761 52.5452
78.3591 2704 52
78.4759 2765 52.5833
78.5928 2700 51.9615
78.7097 2835 53.2447
78.8266 2866 53.535
78.9436 3017 54.9272
79.0606 2998 54.754
79.1776 2966 54.461
79.2946 3162 56.2317
79.4117 2982 54.6077
79.5288 2948 54.2955
79.6459 2871 53.5817
79.7631 2643 51.4101
79.8802 2530 50.2991
79.9974 2123 46.076
80.1147 1974 44.4297
80.2319 1931 43.9431
80.3491 2188 46.7761
80.4664 2384 48.8262
80.5837 2669 51.6624
80.701 2761 52.5452
80.8183 2774 52.6688
80.9357 2820 53.1037
81.053 2900 53.8516
81.1704 2925 54.0833
81.2877 2855 53.4322
81.4051 2953 54.3415
81.5225 2983 54.6168
81.6399 2917 54.0093
81.7573 2849 53.376
81.8747 2701 51.9711
81.9922 2729 52.2398
82.1096 2832 53.2165
82.227 2880 53.6656
82.3444 2939 54.2125
82.4619 3089 55.5788
82.5793 3059 55.3082
82.6967 3175 56.3471
82.8142 3104 55.7136
82.9316 3223 56.7715
83.049 3259 57.0877
83.1664 3092 55.6058
83.2838 2873 53.6004
83.4012 2829 53.1883
83.5186 2504 50.04
83.636 2188 46.7761
83.7534 1998 44.699
83.8708 1969 44.3734
83.9881 2118 46.0217
84.1055 2471 49.7092
84.2228 2674 51.7107
84.3401 2895 53.8052
84.4575 2903 53.8795
84.5747 2992 54.6992
84.692 3018 54.9363
84.8093 2998 54.754
84.9265 2983 54.6168
85.0437 2984 54.626
85.1609 3039 55.1271
85.2781 2945 54.2679
85.3952 2855 53.4322
85.5123 2849 53.376
85.6294 2874 53.6097
85.7465 2803 52.9434
85.8636 2904 53.8888
85.9806 3060 55.3173
86.0976 3188 56.4624
86.2145 3192 56.4978
86.3315 3296 57.4108
86.4484 3114 55.8032
86.5652 3286 57.3236
86.682 3249 57
86.7988 3073 55.4346
86.9156 3021 54.9636
87.0323 2766 52.5928
87.149 2514 50.1398
87.2657 2170 46.5833
87.3823 2113 45.9674
87.4988 2109 45.9239
87.6154 2335 48.3218
87.7318 2489 49.8899
87.8483 2587 50.8626
87.9647 2695 51.9134
88.081 2652 51.4976
88.1973 2704 52
88.3136 2584 50.8331
88.4298 2285 47.8017
88.546 2144 46.3033
88.6621 1882 43.382
88.7781 1585 39.8121
88.8942 0 1
89.0101 0 1
89.126 0 1
89.2419 0 1
89.3577 0 1
89.4734 0 1
89.5891 0 1
89.7047 0 1
89.8203 0 1
89.9358 0 1
92.3269 0 1
92.4424 0 1
92.558 0 1
92.6736 0 1
92.7893 0 1
92.905 0 1
93.0208 0 1
93.1366 0 1
93.2525 0 1
93.3685 0 1
93.4845 0 1
93.6005 2141 46.2709
93.7167 2427 49.2646
93.8328 2566 50.6557
93.949 2769 52.6213
94.0653 2862 53.4977
94.1816 2968 54.4794
94.2979 3071 55.4166
94.4143 3054 55.263
94.5307 3061 55.3263
94.6472 2993 54.7083
94.7637 3123 55.8838
94.8803 3062 55.3353
94.9969 3117 55.8301
95.1135 3189 56.4712
95.2302 3326 57.6715
95.3469 3400 58.3095
95.4637 3398 58.2924
95.5805 3362 57.9828
95.6973 3445 58.6941
95.8142 3255 57.0526
95.9311 3121 55.8659
96.048 3043 55.1634
96.1649 2789 52.811
96.2819 2594 50.9313
96.3989 2389 48.8774
96.516 2239 47.3181
96.633 2337 48.3425
96.7501 2452 49.5177
96.8673 2680 51.7687
96.9844 2849 53.376
97.1016 3089 55.5788
97.2188 3097 55.6507
97.336 3175 56.3471
97.4532 3196 56.5332
97.5704 3233 56.8595
97.6877 3128 55.9285
97.805 3096 55.6417
97.9223 3097 55.6507
98.0396 3087 55.5608
98.1569 2951 54.3231
98.2743 2949 54.3047
98.3916 2919 54.0278
98.509 2931 54.1387
98.6264 3194 56.5155
98.7438 3275 57.2276
98.8612 3312 57.55
98.9786 3386 58.1893
99.096 3566 59.716
99.2134 3539 59.4895
99.3308 3629 60.2412
99.4482 3519 59.3212
99.5656 3266 57.1489
99.6831 3046 55.1906
99.8005 2922 54.0555
99.9179 2608 51.0686
100.035 2465 49.6488
100.153 2581 50.8035
100.27 2718 52.1344
100.388 2915 53.9907
100.505 3077 55.4707
100.622 3151 56.1338
100.74 3179 56.3826
100.857 3210 56.6569
100.975 3225 56.7891
101.092 3229 56.8243
101.209 3298 57.4282
101.327 3316 57.5847
101.444 3153 56.1516
101.561 3218 56.7274
101.679 3083 55.5248
101.796 3126 55.9106
101.913 3151 56.1338
102.03 3108 55.7494
102.148 3333 57.7321
102.265 3388 58.2065
102.382 3360 57.9655
102.499 3403 58.3352
102.616 3522 59.3464
102.733 3518 59.3127
102.851 3568 59.7327
102.968 3385 58.1808
103.085 3271 57.1927
103.202 3097 55.6507
103.319 3132 55.9643
103.436 2740 52.345
103.552 2536 50.3587
103.669 2540 50.3984
103.786 2669 51.6624
103.903 2875 53.619
104.02 3034 55.0818
104.137 3168 56.285
104.253 3243 56.9473
104.37 3272 57.2014
104.487 3326 57.6715
104.603 3144 56.0714
104.72 3116 55.8211
104.836 3153 56.1516
104.953 2974 54.5344
105.069 2826 53.1601
105.186 2800 52.915
105.302 2617 51.1566
105.418 2644 51.4198
105.535 2543 50.4282
105.651 2510 50.0999
105.767 2312 48.0833
105.883 2193 46.8295
105.999 1928 43.909
106.115 0 1
106.231 0 1
106.347 0 1
106.463 0 1
106.579 0 1
106.694 0 1
106.81 0 1
106.926 0 1
107.041 0 1
107.157 0 1
109.576 0 1
109.692 0 1
109.807 0 1
109.923 0 1
110.039 0 1
110.155 0 1
110.27 0 1
110.386 0 1
110.502 0 1
110.618 1486 38.5487
110.735 1766 42.0238
110.851 1914 43.7493
110.967 2305 48.0104
111.083 2512 50.1199
111.199 2723 52.1824
111.316 2885 53.7122
111.432 2962 54.4243
111.549 3085 55.5428
111.665 3028 55.0273
111.782 2979 54.5802
111.898 2911 53.9537
112.015 2564 50.636
112.132 2488 49.8799
112.248 2290 47.8539
112.365 2385 48.8365
112.482 2489 49.8899
112.599 2648 51.4587
112.716 2759 52.5262
112.832 2920 54.037
112.949 2872 53.591
113.066 2885 53.7122
113.183 2861 53.4883
113.3 2895 53.8052
113.417 2807 52.9811
113.534 2792 52.8394
113.652 2725 52.2015
113.769 2647 51.449
113.886 2644 51.4198
114.003 2610 51.0882
114.12 2671 51.6817
114.238 2815 53.0566
114.355 2812 53.0283
114.472 3069 55.3986
114.589 2968 54.4794
114.707 3102 55.6956
114.824 3139 56.0268
114.942 3074 55.4437
115.059 3088 55.5698
115.176 3032 55.0636
115.294 2886 53.7215
115.411 2771 52.6403
115.529 2675 51.7204
115.646 2506 50.06
115.764 2242 47.3498
115.881 2247 47.4025
115.999 2465 49.6488
116.116 2593 50.9215
116.234 2634 51.3225
116.351 2601 51
116.469 2856 53.4416
116.586 2805 52.9623
116.704 2741 52.3546
116.821 2736 52.3068
116.939 2706 52.0192
117.056 2701 51.9711
117.174 2575 50.7445
117.291 2525 50.2494
117.409 2529 50.2892
117.526 2488 49.8799
117.644 2499 49.99
117.761 2619 51.1762
117.879 2711 52.0673
117.996 2747 52.4118
118.114 2748 52.4214
118.231 2879 53.6563
118.349 2860 53.479
118.466 2822 53.1225
118.584 2896 53.8145
118.701 2829 53.1883
118.819 2841 53.301
118.936 2633 51.3128
119.053 2504 50.04
119.171 2378 48.7647
119.288 2251 47.4447
119.405 2126 46.1086
119.523 2230 47.2229
119.64 2249 47.4236
119.757 2399 48.9796
119.875 2517 50.1697
119.992 2469 49.689
120.109 2532 50.319
120.226 2500 50
120.343 2607 51.0588
120.46 2517 50.1697
120.578 2551 50.5074
120.695 2493 49.93
120.812 2335 48.3218
120.929 2250 47.4342
121.046 2231 47.2335
121.163 2281 47.7598
121.279 2162 46.4973
121.396 2294 47.8957
121.513 2362 48.6004
121.63 2432 49.3153
121.747 2419 49.1833
121.863 2526 50.2593
121.98 2443 49.4267
122.097 2328 48.2494
122.213 2392 48.9081
122.33 2311 48.0729
122.446 2159 46.465
122.563 2000 44.7214
122.679 1858 43.1045
122.795 1599 39.9875
122.912 1448 38.0526
123.028 1212 34.8138
123.144 1198 34.6121
123.26 1160 34.0588
123.377 0 1
123.493 0 1
123.609 0 1
123.725 0 1
123.84 0 1
123.956 0 1
124.072 0 1
124.188 0 1
124.303 0 1
124.419 0 1
126.852 0 1
126.968 0 1
127.083 0 1
127.199 0 1
127.315 0 1
127.431 0 1
127.547 0 1
127.663 0 1
127.779 0 1
127.895 0 1
128.011 0 1
128.127 0 1
128.243 0 1
128.359 2377 48.7545
128.476 2351 48.4871
128.592 2307 48.0312
128.708 2435 49.3457
128.825 2702 51.9808
128.941 2729 52.2398
129.058 2811 53.0189
129.174 2757 52.5071
129.291 2753 52.469
129.408 2738 52.3259
129.524 2834 53.2353
129.641 2694 51.9038
129.758 2862 53.4977
129.875 2674 51.7107
129.992 2579 50.7839
130.108 2497 49.97
130.225 2487 49.8698
130.342 2543 50.4282
130.459 2641 51.3907
130.576 2771 52.6403
130.693 2828 53.1789
130.81 2888 53.7401
130.928 2837 53.2635
131.045 2917 54.0093
131.162 2880 53.6656
131.279 2943 54.2494
131.396 2954 54.3507
131.513 2841 53.301
131.631 2860 53.479
131.748 2745 52.3927
131.865 2588 50.8724
131.983 2497 49.97
132.1 2349 48.4665
132.217 2481 49.8096
132.335 2656 51.5364
132.452 2767 52.6023
132.57 2722 52.1728
132.687 2680 51.7687
132.804 2708 52.0384
132.922 2785 52.7731
133.039 2792 52.8394
133.157 2880 53.6656
133.274 2727 52.2207
133.392 2633 51.3128
133.509 2525 50.2494
133.627 2585 50.8429
133.744 2544 50.4381
133.862 2562 50.6162
133.979 2721 52.1632
134.097 2795 52.8678
134.214 2855 53.4322
134.332 2898 53.8331
134.449 2810 53.0094
134.567 2857 53.4509
134.684 2901 53.8609
134.802 2908 53.9259
134.919 2823 53.1319
135.037 2828 53.1789
135.154 2797 52.8867
135.272 2587 50.8626
135.389 2596 50.951
135.507 2542 50.4183
135.624 2355 48.5283
135.742 2475 49.7494
135.859 2557 50.5668
135.977 2764 52.5738
136.094 2704 52
136.211 2736 52.3068
136.329 2727 52.2207
136.446 2610 51.0882
136.564 2731 52.259
136.681 2718 52.1344
136.798 2699 51.9519
136.915 2645 51.4296
137.033 2508 50.0799
137.15 2405 49.0408
137.267 2345 48.4252
137.384 2493 49.93
137.502 2567 50.6656
137.619 2570 50.6952
137.736 2655 51.5267
137.853 2629 51.2738
137.97 2781 52.7352
138.087 2612 51.1077
138.204 2669 51.6624
138.321 2694 51.9038
138.438 2634 51.3225
138.555 2681 51.7784
138.672 2749 52.4309
138.788 2676 51.7301
138.905 2489 49.8899
139.022 2364 48.621
139.139 2177 46.6583
139.255 2097 45.793
139.372 2095 45.7712
139.488 2153 46.4004
139.605 2143 46.2925
139.721 2170 46.5833
139.838 2063 45.4203
139.954 1877 43.3244
140.071 1675 40.9268
140.187 1592 39.8999
140.303 1516 38.9358
140.419 1444 38
140.535 1372 37.0405
140.652 1249 35.3412
140.768 0 1
140.884 0 1
141 0 1
141.115 0 1
141.231 0 1
141.347 0 1
141.463 0 1
141.578 0 1
141.694 0 1
144.104 0 1
144.219 0 1
144.335 0 1
144.45 0 1
144.566 0 1
144.682 0 1
144.798 0 1
144.914 0 1
145.03 0 1
145.146 1893 43.5086
145.262 1989 44.5982
145.378 2063 45.4203
145.494 2026 45.0111
145.61 1955 44.2154
145.726 1952 44.1814
145.842 1855 43.0697
145.959 1895 43.5316
146.075 1735 41.6533
146.192 1794 42.3556
146.308 1861 43.1393
146.425 1893 43.5086
146.541 2017 44.911
146.658 1984 44.5421
146.774 2004 44.7661
146.891 1982 44.5197
147.008 2017 44.911
147.125 1918 43.795
147.241 2030 45.0555
147.358 2044 45.2106
147.475 2081 45.618
147.592 1968 44.3621
147.709 1905 43.6463
147.826 1911 43.715
147.943 1786 42.2611
148.06 1765 42.0119
148.177 1814 42.5911
148.294 1920 43.8178
148.411 1969 44.3734
148.528 1935 43.9886
148.645 2002 44.7437
148.762 1974 44.4297
148.88 1950 44.1588
148.997 2021 44.9555
149.114 1921 43.8292
149.231 1994 44.6542
149.349 1958 44.2493
149.466 1772 42.0951
149.583 1776 42.1426
149.701 1756 41.9047
149.818 1805 42.4853
149.935 1720 41.4729
150.053 1776 42.1426
150.17 1903 43.6234
150.287 1941 44.0568
150.405 1854 43.0581
150.522 1948 44.1362
150.64 1946 44.1135
150.757 1957 44.238
150.875 1896 43.5431
150.992 1987 44.5758
151.11 1943 44.0795
151.227 1983 44.5309
151.344 1859 43.1161
151.462 1871 43.2551
151.579 1714 41.4005
151.697 1675 40.9268
151.814 1779 42.1782
151.932 1831 42.7902
152.049 1824 42.7083
152.167 1945 44.1022
152.284 1877 43.3244
152.402 1944 44.0908
152.519 1880 43.359
152.636 1825 42.72
152.754 1792 42.332
152.871 1843 42.9302
152.989 1742 41.7373
153.106 1694 41.1582
153.223 1612 40.1497
153.341 1638 40.4722
153.458 1721 41.4849
153.575 1650 40.6202
153.693 1733 41.6293
153.81 1813 42.5793
153.927 1812 42.5676
154.044 1719 41.4608
154.162 1785 42.2493
154.279 1745 41.7732
154.396 1859 43.1161
154.513 1870 43.2435
154.63 1798 42.4028
154.747 1887 43.4396
154.864 1847 42.9767
154.981 1779 42.1782
155.098 1770 42.0714
155.215 1637 40.4599
155.332 1582 39.7744
155.449 1661 40.7554
155.566 1730 41.5933
155.683 1752 41.8569
155.8 1733 41.6293
155.917 1737 41.6773
156.033 1658 40.7185
156.15 0 1
156.267 0 1
156.383 0 1
156.5 0 1
156.617 0 1
156.733 0 1
156.85 0 1
156.966 0 1
157.082 0 1
157.199 0 1
157.315 0 1
157.431 0 1
157.547 0 1
157.664 0 1
157.78 0 1
157.896 0 1
158.012 0 1
158.128 0 1
158.244 0 1
158.359 0 1
158.475 0 1
158.591 0 1
158.706 0 1
