
6.15755 0 1
6.2731 0 1
6.3887 0 1
6.50437 0 1
6.62009 0 1
6.73587 0 1
6.8517 0 1
6.96759 0 1
7.08353 0 1
7.19952 0 1
7.31557 0 1
7.43166 0 1
7.54781 0 1
7.664 0 1
7.78024 0 1
7.89653 0 1
8.01286 0 1
8.12924 0 1
8.24567 0 1
8.36213 0 1
8.47864 0 1
8.59519 0 1
8.71178 0 1
8.82841 0 1
8.94508 0 1
9.06179 0 1
9.17853 0 1
9.29531 0 1
9.41212 0 1
9.52897 0 1
9.64584 0 1
9.76276 0 1
9.8797 0 1
9.99667 0 1
10.1137 0 1
10.2307 0 1
10.3478 0 1
10.4648 0 1
10.5819 0 1
10.6991 0 1
10.8162 0 1
10.9334 0 1
11.0506 0 1
11.1678 0 1
11.285 0 1
11.4023 0 1
11.5196 0 1
11.6369 0 1
11.7542 0 1
11.8715 0 1
11.9888 0 1
12.1062 0 1
12.2235 0 1
12.3409 0 1
12.4582 0 1
12.5756 0 1
12.693 0 1
12.8104 0 1
12.9278 0 1
13.0452 0 1
13.1626 0 1
13.28 0 1
13.3974 0 1
13.5149 0 1
13.6323 0 1
13.7497 0 1
13.8671 0 1
13.9845 0 1
14.1019 0 1
14.2193 0 1
14.3367 0 1
14.4541 0 1
14.5714 0 1
14.6888 0 1
14.8062 0 1
14.9235 0 1
15.0408 0 0
15.1581 0 0
15.2755 0 0
15.3927 0 0
15.51 0 0
15.6273 0 0
15.7445 0 0
15.8617 0 0
15.9789 0 0
16.0961 0 0
16.2132 0 0
16.3304 0 0
16.4475 0 0
16.5646 0 0
16.6816 0 0
16.7986 0 0
16.9156 0 0
17.0326 0 0
17.1496 0 0
17.2665 0 0
17.3833 0 0
17.5002 0 0
17.617 0 0
17.7338 0 0
17.8505 0 0
17.9672 0 0
18.0839 0 0
18.2005 0 0
18.3171 0 0
18.4337 0 0
18.5502 0 0
18.6666 0 0
18.7831 0 0
18.8994 0 0
19.0158 0 0
19.1321 0 0
19.2483 0 0
19.3645 0 0
19.4806 0 0
19.5967 0 0
19.7128 0 0
19.8288 0 0
19.9447 0 0
20.0606 0 1
20.1764 0 1
20.2922 0 1
20.4079 0 1
20.5236 0 1
20.6392 0 1
20.7548 0 1
20.8702 0 1
23.3078 0 1
23.4233 0 1
23.539 0 1
23.6547 0 1
23.7704 0 1
23.8862 0 1
24.0021 0 1
24.118 0 1
24.234 0 1
24.35 0 1
24.4661 35417 188.194
24.5822 35918 189.52
24.6984 36480 190.997
24.8146 37246 192.992
24.9309 37805 194.435
25.0472 38174 195.382
25.1636 39001 197.487
25.28 39305 198.255
25.3965 39742 199.354
25.513 39659 199.146
25.6296 40211 200.527
25.7462 40449 201.119
25.8628 40622 201.549
25.9795 40674 201.678
26.0962 40972 202.415
26.213 41284 203.185
26.3298 40943 202.344
26.4466 41122 202.786
26.5635 41058 202.628
26.6804 40501 201.249
26.7973 40244 200.609
26.9143 39587 198.965
27.0313 38705 196.736
27.1483 38658 196.616
27.2653 39172 197.919
27.3824 39144 197.848
27.4996 39233 198.073
27.6167 38426 196.026
27.7339 36727 191.643
27.8511 35182 187.569
27.9683 35042 187.195
28.0855 34663 186.18
28.2028 35565 188.587
28.3201 35150 187.483
28.4374 36035 189.829
28.5547 36749 191.7
28.6721 36893 192.076
28.7894 36940 192.198
28.9068 37205 192.886
29.0242 37281 193.083
29.1416 37332 193.215
29.259 37350 193.261
29.3764 37023 192.414
29.4939 36986 192.317
29.6113 37430 193.468
29.7288 37600 193.907
29.8463 38083 195.149
29.9638 38132 195.274
30.0812 37969 194.856
30.1987 38503 196.222
30.3162 37711 194.193
30.4337 37149 192.741
30.5512 36512 191.081
30.6687 36571 191.235
30.7862 37024 192.416
30.9037 37411 193.419
31.0212 37158 192.764
31.1387 37193 192.855
31.2562 35873 189.402
31.3737 35121 187.406
31.4912 34225 185
31.6087 34451 185.61
31.7262 34902 186.821
31.8436 35125 187.417
31.9611 35674 188.876
32.0785 36570 191.233
32.1959 36735 191.664
32.3134 36677 191.512
32.4308 36399 190.785
32.5482 36821 191.888
32.6655 36942 192.203
32.7829 36449 190.916
32.9002 36663 191.476
33.0176 36530 191.128
33.1349 36743 191.685
33.2522 36984 192.312
33.3694 37355 193.274
33.4867 37423 193.45
33.6039 38008 194.956
33.7211 38054 195.074
33.8383 38293 195.686
33.9554 37793 194.404
34.0725 37303 193.14
34.1896 36557 191.199
34.3067 36053 189.876
34.4237 36454 190.929
34.5407 36434 190.877
34.6577 37402 193.396
34.7746 36526 191.118
34.8915 35867 189.386
35.0084 34152 184.803
35.1252 34072 184.586
35.242 33740 183.685
35.3587 34773 186.475
35.4755 35065 187.257
35.5921 35662 188.844
35.7088 36232 190.347
35.8254 36255 190.407
35.9419 36706 191.588
36.0584 36416 190.83
36.1749 36556 191.196
36.2913 36462 190.95
36.4077 36717 191.617
36.524 36153 190.139
36.6403 36167 190.176
36.7565 36059 189.892
36.8727 36715 191.612
36.9889 36525 191.115
37.1049 36543 191.162
37.221 0 1
37.3369 0 1
37.4529 0 1
37.5687 0 1
37.6845 0 1
37.8003 0 1
37.916 0 1
38.0316 0 1
38.1472 0 1
40.5851 0 1
40.7008 0 1
40.8164 0 1
40.9322 0 1
41.048 0 1
41.1639 0 1
41.2798 0 1
41.3958 0 1
41.5118 0 1
41.6279 0 1
41.744 29600 172.047
41.8602 30626 175.003
41.9765 30862 175.676
42.0928 31166 176.539
42.2091 31355 177.073
42.3255 31651 177.907
42.4419 31918 178.656
42.5584 32067 179.073
42.675 32317 179.769
42.7915 32253 179.591
42.9081 31504 177.494
43.0248 30566 174.831
43.1415 30400 174.356
43.2582 30287 174.032
43.375 30942 175.903
43.4918 31573 177.688
43.6087 30481 174.588
43.7256 29658 172.215
43.8425 28414 168.565
43.9595 28683 169.361
44.0765 28702 169.417
44.1935 28764 169.6
44.3106 29067 170.49
44.4277 29513 171.793
44.5448 28977 170.226
44.6619 28945 170.132
44.7791 28722 169.476
44.8963 28453 168.68
45.0136 27377 165.46
45.1308 26884 163.963
45.2481 26938 164.128
45.3654 26663 163.288
45.4827 26718 163.456
45.6001 26362 162.364
45.7174 26514 162.831
45.8348 26632 163.193
45.9522 26671 163.313
46.0697 26514 162.831
46.1871 26207 161.886
46.3046 26172 161.778
46.422 26139 161.676
46.5395 25501 159.69
46.657 24897 157.788
46.7745 24170 155.467
46.892 24094 155.222
47.0096 24886 157.753
47.1271 24663 157.045
47.2446 23968 154.816
47.3622 23180 152.25
47.4797 22448 149.827
47.5973 22241 149.134
47.7149 22222 149.07
47.8324 22269 149.228
47.95 22538 150.127
48.0675 22792 150.97
48.1851 22111 148.698
48.3027 22032 148.432
48.4202 21737 147.435
48.5378 21344 146.096
48.6554 21232 145.712
48.7729 20837 144.35
48.8904 21142 145.403
49.008 21290 145.911
49.1255 21545 146.782
49.243 22063 148.536
49.3605 22281 149.268
49.478 22704 150.678
49.5955 23370 152.872
49.713 23651 153.789
49.8304 24122 155.313
49.9479 24490 156.493
50.0653 24721 157.229
50.1827 24748 157.315
50.3001 23998 154.913
50.4175 24684 157.111
50.5348 24969 158.016
50.6521 26354 162.339
50.7694 26541 162.914
50.8867 26237 161.978
51.004 26971 164.228
51.1212 27739 166.55
51.2384 28668 169.316
51.3556 29563 171.939
51.4727 30392 174.333
51.5899 31384 177.155
51.707 31050 176.21
51.824 31059 176.236
51.9411 30988 176.034
52.0581 30877 175.719
52.175 30981 176.014
52.2919 30927 175.861
52.4088 30848 175.636
52.5257 31604 177.775
52.6425 31527 177.558
52.7593 32302 179.728
52.876 32996 181.648
52.9927 33538 183.134
53.1094 33899 184.117
53.226 34769 186.464
53.3426 35438 188.25
53.4591 35821 189.264
53.5756 36444 190.903
53.692 36468 190.966
53.8084 36512 191.081
53.9248 35830 189.288
54.0411 34977 187.021
54.1573 36173 190.192
54.2735 0 1
54.3896 0 1
54.5057 0 1
54.6217 0 1
54.7377 0 1
54.8537 0 1
54.9695 0 1
55.0853 0 1
55.2011 0 1
55.3168 0 1
55.4324 0 1
57.824 0 1
57.9396 0 1
58.0553 0 1
58.1711 0 1
58.2869 0 1
58.4028 0 1
58.5187 0 1
58.6347 0 1
58.7508 0 1
58.8669 0 1
58.983 43235 207.93
59.0992 43234 207.928
59.2155 43163 207.757
59.3318 42975 207.304
59.4482 43601 208.809
59.5646 43585 208.77
59.681 44322 210.528
59.7975 44592 211.168
59.9141 44882 211.854
60.0306 45054 212.259
60.1473 45470 213.237
60.2639 44583 211.147
60.3807 43907 209.54
60.4974 43796 209.275
60.6142 43388 208.298
60.731 42546 206.267
60.8479 42529 206.226
60.9648 41910 204.719
61.0818 42085 205.146
61.1987 41639 204.056
61.3158 42032 205.017
61.4328 41561 203.865
61.5499 41687 204.174
61.667 42177 205.37
61.7841 42212 205.456
61.9013 42832 206.959
62.0185 43474 208.504
62.1357 43172 207.779
62.253 43809 209.306
62.3702 44093 209.983
62.4875 42712 206.669
62.6049 42491 206.133
62.7222 43142 207.707
62.8396 42954 207.253
62.9569 43185 207.81
63.0743 42706 206.654
63.1918 43370 208.255
63.3092 43639 208.899
63.4267 44302 210.48
63.5441 44438 210.803
63.6616 43935 209.607
63.7791 43243 207.95
63.8966 42682 206.596
64.0142 42029 205.01
64.1317 41302 203.229
64.2492 41326 203.288
64.3668 40632 201.574
64.4843 40135 200.337
64.6019 40400 200.998
64.7195 40863 202.146
64.837 40699 201.74
64.9546 40323 200.806
65.0722 39994 199.985
65.1898 39866 199.665
65.3074 40938 202.331
65.4249 40910 202.262
65.5425 41419 203.517
65.6601 42207 205.443
65.7777 42596 206.388
65.8952 43037 207.454
66.0128 42945 207.232
66.1304 42298 205.665
66.2479 41308 203.244
66.3655 41123 202.788
66.483 41399 203.467
66.6005 42071 205.112
66.718 42933 207.203
66.8355 43603 208.813
66.953 44923 211.95
67.0705 44876 211.84
67.1879 44503 210.957
67.3054 43191 207.824
67.4228 42677 206.584
67.5402 41956 204.832
67.6576 42150 205.305
67.7749 41212 203.007
67.8923 42072 205.115
68.0096 41222 203.032
68.1269 41713 204.238
68.2442 42402 205.917
68.3614 43062 207.514
68.4787 43083 207.564
68.5958 42594 206.383
68.713 42276 205.611
68.8302 42722 206.693
68.9473 42897 207.116
69.0643 43171 207.776
69.1814 43461 208.473
69.2984 44762 211.57
69.4154 45466 213.228
69.5323 46250 215.058
69.6492 47154 217.15
69.7661 47213 217.286
69.8829 45857 214.142
69.9997 44740 211.518
70.1165 44892 211.877
70.2332 44862 211.807
70.3499 45796 214
70.4665 47762 218.545
70.5831 48207 219.561
70.6996 47892 218.842
70.8161 47361 217.626
70.9326 46660 216.009
71.049 45876 214.187
71.1653 45209 212.624
71.2817 44473 210.886
71.3979 44095 209.988
71.5141 42948 207.239
71.6303 42047 205.054
71.7464 38433 196.043
71.8624 0 1
71.9784 0 1
72.0944 0 1
72.2102 0 1
72.3261 0 1
72.4418 0 1
72.5575 0 1
72.6732 0 1
75.1054 0 1
75.2209 0 1
75.3365 0 1
75.4521 0 1
75.5678 0 1
75.6835 0 1
75.7993 0 1
75.9151 0 1
76.031 0 1
76.147 43069 207.531
76.263 46263 215.088
76.3791 46477 215.585
76.4952 45351 212.958
76.6113 45659 213.68
76.7276 46007 214.492
76.8438 45478 213.256
76.9601 45784 213.972
77.0765 45508 213.326
77.1929 46061 214.618
77.3093 47407 217.731
77.4258 47637 218.259
77.5423 47614 218.206
77.6589 47238 217.343
77.7755 46635 215.951
77.8921 45762 213.921
78.0088 45990 214.453
78.1256 45513 213.338
78.2423 45936 214.327
78.3591 45611 213.567
78.4759 45869 214.17
78.5928 47158 217.159
78.7097 47932 218.934
78.8266 50372 224.437
78.9436 45882 214.201
79.0606 42597 206.39
79.1776 37446 193.51
79.2946 40923 202.294
79.4117 47380 217.669
79.5288 49454 222.383
79.6459 49580 222.666
79.7631 48361 219.911
79.8802 46390 215.383
79.9974 45865 214.161
80.1147 45633 213.619
80.2319 44752 211.547
80.3491 43744 209.151
80.4664 43934 209.604
80.5837 43668 208.969
80.701 43197 207.839
80.8183 43276 208.029
80.9357 43896 209.514
81.053 45207 212.619
81.1704 45047 212.243
81.2877 44405 210.725
81.4051 43753 209.172
81.5225 43601 208.809
81.6399 41866 204.612
81.7573 42397 205.905
81.8747 41377 203.413
81.9922 41537 203.806
82.1096 42086 205.149
82.227 42581 206.352
82.3444 42999 207.362
82.4619 43953 209.65
82.5793 42771 206.812
82.6967 41454 203.603
82.8142 34334 185.294
82.9316 36309 190.549
83.049 41564 203.873
83.1664 42396 205.903
83.2838 41944 204.802
83.4012 40393 200.98
83.5186 39294 198.227
83.636 38305 195.717
83.7534 37801 194.425
83.8708 36759 191.726
83.9881 36172 190.189
84.1055 36311 190.554
84.2228 35064 187.254
84.3401 35204 187.627
84.4575 35525 188.481
84.5747 36404 190.798
84.692 37331 193.212
84.8093 36591 191.288
84.9265 35753 189.085
85.0437 34869 186.732
85.1609 34512 185.774
85.2781 33804 183.859
85.3952 33296 182.472
85.5123 33067 181.843
85.6294 33130 182.016
85.7465 34035 184.486
85.8636 34687 186.244
85.9806 36683 191.528
86.0976 38151 195.323
86.2145 38036 195.028
86.3315 33700 183.576
86.4484 33163 182.107
86.5652 38188 195.418
86.682 42602 206.403
86.7988 43220 207.894
86.9156 43048 207.48
87.0323 42246 205.538
87.149 42368 205.835
87.2657 42461 206.061
87.3823 42369 205.837
87.4988 42419 205.959
87.6154 42885 207.087
87.7318 43238 207.937
87.8483 43591 208.785
87.9647 44149 210.117
88.081 46120 214.756
88.1973 48029 219.155
88.3136 49008 221.378
88.4298 48498 220.223
88.546 47467 217.869
88.6621 47594 218.16
88.7781 46963 216.709
88.8942 0 1
89.0101 0 1
89.126 0 1
89.2419 0 1
89.3577 0 1
89.4734 0 1
89.5891 0 1
89.7047 0 1
89.8203 0 1
89.9358 0 1
92.3269 0 1
92.4424 0 1
92.558 0 1
92.6736 0 1
92.7893 0 1
92.905 0 1
93.0208 0 1
93.1366 0 1
93.2525 0 1
93.3685 0 1
93.4845 0 1
93.6005 48524 220.282
93.7167 49544 222.585
93.8328 50473 224.662
93.949 49508 222.504
94.0653 49182 221.77
94.1816 48501 220.229
94.2979 48356 219.9
94.4143 48084 219.281
94.5307 47908 218.879
94.6472 46952 216.684
94.7637 47481 217.901
94.8803 47954 218.984
94.9969 47516 217.982
95.1135 49071 221.52
95.2302 49234 221.887
95.3469 47907 218.877
95.4637 45647 213.652
95.5805 42202 205.431
95.6973 43630 208.878
95.8142 48348 219.882
95.9311 50290 224.254
96.048 50514 224.753
96.1649 49292 222.018
96.2819 48517 220.266
96.3989 47309 217.506
96.516 46923 216.617
96.633 46002 214.481
96.7501 45529 213.375
96.8673 45066 212.288
96.9844 44361 210.621
97.1016 44252 210.362
97.2188 44769 211.587
97.336 45781 213.965
97.4532 46247 215.051
97.5704 46077 214.656
97.6877 45219 212.648
97.805 43977 209.707
97.9223 43750 209.165
98.0396 42853 207.01
98.1569 43015 207.401
98.2743 42606 206.412
98.3916 42672 206.572
98.509 42780 206.833
98.6264 42424 205.971
98.7438 42145 205.292
98.8612 42292 205.65
98.9786 42436 206
99.096 39742 199.354
99.2134 38663 196.629
99.3308 39806 199.514
99.4482 42760 206.785
99.5656 43478 208.514
99.6831 42952 207.249
99.8005 41377 203.413
99.9179 40967 202.403
100.035 40376 200.938
100.153 39030 197.56
100.27 38449 196.084
100.388 37825 194.487
100.505 37114 192.65
100.622 36905 192.107
100.74 36606 191.327
100.857 37090 192.588
100.975 37380 193.339
101.092 38083 195.149
101.209 37513 193.683
101.327 36449 190.916
101.444 35177 187.555
101.561 34535 185.836
101.679 34217 184.978
101.796 34684 186.236
101.913 34405 185.486
102.03 34839 186.652
102.148 34615 186.051
102.265 36387 190.754
102.382 33721 183.633
102.499 35377 188.088
102.616 35091 187.326
102.733 33795 183.834
102.851 33328 182.56
102.968 33827 183.921
103.085 34156 184.813
103.202 33304 182.494
103.319 32095 179.151
103.436 30948 175.92
103.552 30296 174.057
103.669 28903 170.009
103.786 28185 167.884
103.903 27346 165.366
104.02 26943 164.143
104.137 26288 162.136
104.253 26891 163.985
104.37 26216 161.914
104.487 27797 166.724
104.603 27815 166.778
104.72 27237 165.036
104.836 25954 161.102
104.953 25640 160.125
105.069 25762 160.505
105.186 25976 161.171
105.302 26509 162.816
105.418 26789 163.673
105.535 27262 165.112
105.651 27559 166.009
105.767 27758 166.607
105.883 27710 166.463
105.999 28906 170.018
106.115 0 1
106.231 0 1
106.347 0 1
106.463 0 1
106.579 0 1
106.694 0 1
106.81 0 1
106.926 0 1
107.041 0 1
107.157 0 1
109.576 0 1
109.692 0 1
109.807 0 1
109.923 0 1
110.039 0 1
110.155 0 1
110.27 0 1
110.386 0 1
110.502 0 1
110.618 24135 155.354
110.735 24886 157.753
110.851 24308 155.91
110.967 24692 157.137
111.083 26371 162.392
111.199 27676 166.361
111.316 28978 170.229
111.432 28934 170.1
111.549 28175 167.854
111.665 27381 165.472
111.782 26678 163.334
111.898 26476 162.714
112.015 25889 160.901
112.132 25375 159.295
112.248 24764 157.366
112.365 24706 157.181
112.482 24237 155.682
112.599 23469 153.196
112.716 23507 153.32
112.832 23673 153.86
112.949 23894 154.577
113.066 24114 155.287
113.183 23465 153.183
113.3 23345 152.791
113.417 23372 152.879
113.534 23443 153.111
113.652 23638 153.747
113.769 24554 156.697
113.886 25011 158.149
114.003 25459 159.559
114.12 25384 159.324
114.238 25511 159.722
114.355 24659 157.032
114.472 23470 153.199
114.589 23699 153.945
114.707 25372 159.286
114.824 28570 169.027
114.942 29511 171.788
115.059 29812 172.662
115.176 29884 172.87
115.294 28317 168.277
115.411 28100 167.631
115.529 28128 167.714
115.646 27652 166.289
115.764 27691 166.406
115.881 27776 166.661
115.999 27557 166.003
116.116 27192 164.9
116.234 27048 164.463
116.351 27029 164.405
116.469 27093 164.6
116.586 27763 166.622
116.704 27810 166.763
116.821 27667 166.334
116.939 28031 167.425
117.056 27966 167.23
117.174 28921 170.062
117.291 29396 171.453
117.409 29951 173.064
117.526 30739 175.325
117.644 31353 177.068
117.761 31602 177.77
117.879 30763 175.394
117.996 29276 171.102
118.114 28384 168.476
118.231 28417 168.573
118.349 29848 172.766
118.466 34006 184.407
118.584 35112 187.382
118.701 36028 189.81
118.819 36151 190.134
118.936 34863 186.716
119.053 34162 184.83
119.171 33736 183.674
119.288 33946 184.244
119.405 33786 183.81
119.523 33103 181.942
119.64 33322 182.543
119.757 32972 181.582
119.875 32501 180.28
119.992 32164 179.343
120.109 31669 177.958
120.226 32302 179.728
120.343 31918 178.656
120.46 31924 178.673
120.578 31837 178.429
120.695 32174 179.371
120.812 32824 181.174
120.929 33781 183.796
121.046 34565 185.917
121.163 34791 186.523
121.279 35337 187.981
121.396 35034 187.174
121.513 34580 185.957
121.63 33596 183.292
121.747 32096 179.154
121.863 30676 175.146
121.98 30961 175.957
122.097 33132 182.022
122.213 36101 190.003
122.33 38147 195.313
122.446 38865 197.142
122.563 38541 196.319
122.679 38300 195.704
122.795 37663 194.07
122.912 37366 193.303
123.028 37151 192.746
123.144 36603 191.319
123.26 36356 190.672
123.377 0 1
123.493 0 1
123.609 0 1
123.725 0 1
123.84 0 1
123.956 0 1
124.072 0 1
124.188 0 1
124.303 0 1
124.419 0 1
126.852 0 1
126.968 0 1
127.083 0 1
127.199 0 1
127.315 0 1
127.431 0 1
127.547 0 1
127.663 0 1
127.779 0 1
127.895 0 1
128.011 0 1
128.127 0 1
128.243 0 1
128.359 44454 210.841
128.476 44135 210.083
128.592 43518 208.61
128.708 43375 208.267
128.825 43031 207.439
128.941 43052 207.49
129.058 42034 205.022
129.174 42512 206.184
129.291 42362 205.82
129.408 42263 205.58
129.524 42517 206.197
129.641 42637 206.487
129.758 43647 208.919
129.875 44203 210.245
129.992 44334 210.556
130.108 44403 210.72
130.225 44403 210.72
130.342 43483 208.526
130.459 40882 202.193
130.576 40995 202.472
130.693 38702 196.728
130.81 38081 195.144
130.928 38925 197.294
131.045 39971 199.927
131.162 43459 208.468
131.279 46198 214.937
131.396 47219 217.299
131.513 46630 215.94
131.631 46446 215.513
131.748 46779 216.285
131.865 46048 214.588
131.983 45618 213.584
132.1 45717 213.815
132.217 45101 212.37
132.335 44740 211.518
132.452 43987 209.731
132.57 43673 208.981
132.687 42156 205.319
132.804 44941 211.993
132.922 43199 207.844
133.039 43451 208.449
133.157 43627 208.871
133.274 44380 210.666
133.392 44794 211.646
133.509 45182 212.561
133.627 45423 213.127
133.744 44957 212.031
133.862 43708 209.065
133.979 42824 206.94
134.097 41640 204.059
134.214 40704 201.752
134.332 38586 196.433
134.449 39498 198.741
134.567 40846 202.104
134.684 43287 208.055
134.802 45439 213.164
134.919 47729 218.47
135.037 48355 219.898
135.154 48127 219.379
135.272 47556 218.073
135.389 47156 217.154
135.507 47103 217.032
135.624 47385 217.681
135.742 46643 215.97
135.859 46447 215.516
135.977 45687 213.745
136.094 45707 213.792
136.211 45183 212.563
136.329 45449 213.188
136.446 44851 211.781
136.564 45170 212.532
136.681 46146 214.816
136.798 45694 213.762
136.915 46320 215.221
137.033 47126 217.085
137.15 46586 215.838
137.267 46212 214.97
137.384 46001 214.478
137.502 44803 211.667
137.619 43391 208.305
137.736 42342 205.772
137.853 40154 200.385
137.97 39884 199.71
138.087 41714 204.24
138.204 42299 205.667
138.321 44852 211.783
138.438 47901 218.863
138.555 48400 220
138.672 49702 222.939
138.788 49941 223.475
138.905 49555 222.61
139.022 48935 221.213
139.139 48991 221.339
139.255 49114 221.617
139.372 48533 220.302
139.488 48084 219.281
139.605 47761 218.543
139.721 47458 217.849
139.838 47262 217.398
139.954 46687 216.072
140.071 45892 214.224
140.187 46559 215.775
140.303 46674 216.042
140.419 46267 215.098
140.535 46805 216.345
140.652 46468 215.564
140.768 0 1
140.884 0 1
141 0 1
141.115 0 1
141.231 0 1
141.347 0 1
141.463 0 1
141.578 0 1
141.694 0 1
144.104 0 1
144.219 0 1
144.335 0 1
144.45 0 1
144.566 0 1
144.682 0 1
144.798 0 1
144.914 0 1
145.03 0 1
145.146 43338 208.178
145.262 44031 209.836
145.378 44291 210.454
145.494 44617 211.227
145.61 44686 211.391
145.726 44277 210.421
145.842 44521 211
145.959 43530 208.638
146.075 42388 205.883
146.192 41288 203.194
146.308 40305 200.761
146.425 39436 198.585
146.541 38820 197.028
146.658 38863 197.137
146.774 39846 199.615
146.891 41860 204.597
147.008 43449 208.444
147.125 44903 211.903
147.241 45458 213.209
147.358 45327 212.901
147.475 46068 214.635
147.592 46519 215.683
147.709 46139 214.8
147.826 45053 212.257
147.943 45142 212.466
148.06 44287 210.445
148.177 44456 210.846
148.294 43990 209.738
148.411 43752 209.17
148.528 43389 208.3
148.645 42641 206.497
148.762 43302 208.091
148.88 43299 208.084
148.997 41690 204.181
149.114 45217 212.643
149.231 43800 209.284
149.349 43237 207.935
149.466 42777 206.826
149.583 41567 203.88
149.701 40923 202.294
149.818 39742 199.354
149.935 39421 198.547
150.053 38331 195.783
150.17 38264 195.612
150.287 38540 196.316
150.405 39491 198.723
150.522 41192 202.958
150.64 43597 208.799
150.757 44203 210.245
150.875 44703 211.431
150.992 44212 210.266
151.11 43546 208.677
151.227 44928 211.962
151.344 45145 212.474
151.462 44877 211.842
151.579 44288 210.447
151.697 43848 209.399
151.814 44288 210.447
151.932 43965 209.678
152.049 43945 209.631
152.167 43917 209.564
152.284 43946 209.633
152.402 44083 209.96
152.519 44081 209.955
152.636 44458 210.851
152.754 45041 212.229
152.871 44627 211.251
152.989 44470 210.879
153.106 43664 208.959
153.223 42703 206.647
153.341 41821 204.502
153.458 41198 202.973
153.575 40522 201.301
153.693 40194 200.484
153.81 40399 200.995
153.927 40960 202.386
154.044 42395 205.9
154.162 44533 211.028
154.279 46741 216.197
154.396 47795 218.621
154.513 48183 219.506
154.63 48236 219.627
154.747 47479 217.897
154.864 48041 219.183
154.981 48983 221.321
155.098 49301 222.038
155.215 47680 218.358
155.332 47108 217.044
155.449 47029 216.862
155.566 46909 216.585
155.683 46477 215.585
155.8 46747 216.211
155.917 46514 215.671
156.033 46852 216.453
156.15 0 1
156.267 0 1
156.383 0 1
156.5 0 1
156.617 0 1
156.733 0 1
156.85 0 1
156.966 0 1
157.082 0 1
157.199 0 1
157.315 0 1
157.431 0 1
157.547 0 1
157.664 0 1
157.78 0 1
157.896 0 1
158.012 0 1
158.128 0 1
158.244 0 1
158.359 0 1
158.475 0 1
158.591 0 1
158.706 0 1
