
6.15755 0 1
6.2731 0 1
6.3887 0 1
6.50437 0 1
6.62009 0 1
6.73587 0 1
6.8517 0 1
6.96759 0 1
7.08353 0 1
7.19952 0 1
7.31557 0 1
7.43166 0 1
7.54781 0 1
7.664 0 1
7.78024 0 1
7.89653 0 1
8.01286 0 1
8.12924 0 1
8.24567 0 1
8.36213 0 1
8.47864 0 1
8.59519 0 1
8.71178 0 1
8.82841 0 1
8.94508 0 1
9.06179 0 1
9.17853 0 1
9.29531 0 1
9.41212 0 1
9.52897 0 1
9.64584 0 1
9.76276 0 1
9.8797 0 1
9.99667 0 1
10.1137 0 1
10.2307 0 1
10.3478 0 1
10.4648 0 1
10.5819 0 1
10.6991 0 1
10.8162 0 1
10.9334 0 1
11.0506 0 1
11.1678 0 1
11.285 0 1
11.4023 0 1
11.5196 0 1
11.6369 0 1
11.7542 0 1
11.8715 0 1
11.9888 0 1
12.1062 0 1
12.2235 0 1
12.3409 0 1
12.4582 0 1
12.5756 0 1
12.693 0 1
12.8104 0 1
12.9278 0 1
13.0452 0 1
13.1626 0 1
13.28 0 1
13.3974 0 1
13.5149 0 1
13.6323 0 1
13.7497 0 1
13.8671 0 1
13.9845 0 1
14.1019 0 1
14.2193 0 1
14.3367 0 1
14.4541 0 1
14.5714 0 1
14.6888 0 1
14.8062 0 1
14.9235 0 1
15.0408 2616 51.1468
15.1581 2934 54.1664
15.2755 2964 54.4426
15.3927 2945 54.2679
15.51 2878 53.647
15.6273 3066 55.3715
15.7445 2939 54.2125
15.8617 2835 53.2447
15.9789 2788 52.8015
16.0961 2661 51.5849
16.2132 2568 50.6754
16.3304 2538 50.3786
16.4475 2559 50.5866
16.5646 2575 50.7445
16.6816 2555 50.547
16.7986 2488 49.8799
16.9156 2526 50.2593
17.0326 2599 50.9804
17.1496 2510 50.0999
17.2665 2525 50.2494
17.3833 2425 49.2443
17.5002 2474 49.7393
17.617 2494 49.94
17.7338 2509 50.0899
17.8505 2623 51.2152
17.9672 2485 49.8498
18.0839 2400 48.9898
18.2005 2385 48.8365
18.3171 2404 49.0306
18.4337 2336 48.3322
18.5502 2544 50.4381
18.6666 2547 50.4678
18.7831 2531 50.309
18.8994 2514 50.1398
19.0158 2461 49.6085
19.1321 2392 48.9081
19.2483 2273 47.676
19.3645 2185 46.744
19.4806 2038 45.1442
19.5967 1862 43.1509
19.7128 1699 41.2189
19.8288 1620 40.2492
19.9447 1524 39.0384
20.0606 0 1
20.1764 0 1
20.2922 0 1
20.4079 0 1
20.5236 0 1
20.6392 0 1
20.7548 0 1
20.8702 0 1
23.3078 0 1
23.4233 0 1
23.539 0 1
23.6547 0 1
23.7704 0 1
23.8862 0 1
24.0021 0 1
24.118 0 1
24.234 0 1
24.35 0 1
24.4661 1090 33.0151
24.5822 1214 34.8425
24.6984 1459 38.1969
24.8146 1561 39.5095
24.9309 1894 43.5201
25.0472 2153 46.4004
25.1636 2249 47.4236
25.28 2457 49.5681
25.3965 2644 51.4198
25.513 2560 50.5964
25.6296 2730 52.2494
25.7462 2796 52.8772
25.8628 2927 54.1018
25.9795 2815 53.0566
26.0962 2814 53.0471
26.213 2742 52.3641
26.3298 2575 50.7445
26.4466 2462 49.6185
26.5635 2302 47.9792
26.6804 2217 47.085
26.7973 2101 45.8367
26.9143 2088 45.6946
27.0313 2005 44.7772
27.1483 2148 46.3465
27.2653 2297 47.927
27.3824 2359 48.5695
27.4996 2297 47.927
27.6167 2233 47.2546
27.7339 2296 47.9166
27.8511 2322 48.1871
27.9683 2386 48.8467
28.0855 2345 48.4252
28.2028 2289 47.8435
28.3201 2221 47.1275
28.4374 2240 47.3286
28.5547 2371 48.6929
28.6721 2344 48.4149
28.7894 2417 49.163
28.9068 2404 49.0306
29.0242 2438 49.3761
29.1416 2502 50.02
29.259 2360 48.5798
29.3764 2416 49.1528
29.4939 2253 47.4658
29.6113 2321 48.1768
29.7288 2305 48.0104
29.8463 2165 46.5296
29.9638 2080 45.607
30.0812 2088 45.6946
30.1987 1895 43.5316
30.3162 1980 44.4972
30.4337 2061 45.3982
30.5512 2154 46.4112
30.6687 2202 46.9255
30.7862 2304 48
30.9037 2474 49.7393
31.0212 2560 50.5964
31.1387 2465 49.6488
31.2562 2369 48.6724
31.3737 2468 49.679
31.4912 2412 49.1121
31.6087 2259 47.5289
31.7262 2208 46.9894
31.8436 2186 46.7547
31.9611 2267 47.613
32.0785 2142 46.2817
32.1959 2283 47.7807
32.3134 2266 47.6025
32.4308 2154 46.4112
32.5482 2083 45.6399
32.6655 2074 45.5412
32.7829 2091 45.7275
32.9002 2158 46.4543
33.0176 2093 45.7493
33.1349 1979 44.486
33.2522 2107 45.9021
33.3694 2037 45.1331
33.4867 2104 45.8694
33.6039 1831 42.7902
33.7211 1891 43.4856
33.8383 1864 43.1741
33.9554 1931 43.9431
34.0725 1962 44.2945
34.1896 1961 44.2832
34.3067 2167 46.551
34.4237 2231 47.2335
34.5407 2262 47.5605
34.6577 2296 47.9166
34.7746 2203 46.9361
34.8915 2230 47.2229
35.0084 2118 46.0217
35.1252 2120 46.0435
35.242 2060 45.3872
35.3587 1903 43.6234
35.4755 1858 43.1045
35.5921 1931 43.9431
35.7088 1960 44.2719
35.8254 2074 45.5412
35.9419 2009 44.8219
36.0584 2033 45.0888
36.1749 1986 44.5646
36.2913 1909 43.6921
36.4077 1751 41.845
36.524 1710 41.3521
36.6403 1703 41.2674
36.7565 1610 40.1248
36.8727 1635 40.4351
36.9889 1529 39.1024
37.1049 1267 35.5949
37.221 0 1
37.3369 0 1
37.4529 0 1
37.5687 0 1
37.6845 0 1
37.8003 0 1
37.916 0 1
38.0316 0 1
38.1472 0 1
40.5851 0 1
40.7008 0 1
40.8164 0 1
40.9322 0 1
41.048 0 1
41.1639 0 1
41.2798 0 1
41.3958 0 1
41.5118 0 1
41.6279 0 1
41.744 936 30.5941
41.8602 1129 33.6006
41.9765 1248 35.327
42.0928 1346 36.6879
42.2091 1421 37.6962
42.3255 1438 37.921
42.4419 1458 38.1838
42.5584 1444 38
42.675 1488 38.5746
42.7915 1483 38.5097
42.9081 1495 38.6652
43.0248 1540 39.2428
43.1415 1554 39.4208
43.2582 1611 40.1373
43.375 1612 40.1497
43.4918 1589 39.8623
43.6087 1678 40.9634
43.7256 1589 39.8623
43.8425 1520 38.9872
43.9595 1470 38.3406
44.0765 1493 38.6394
44.1935 1486 38.5487
44.3106 1502 38.7556
44.4277 1499 38.7169
44.5448 1582 39.7744
44.6619 1561 39.5095
44.7791 1565 39.5601
44.8963 1647 40.5832
45.0136 1666 40.8167
45.1308 1587 39.8372
45.2481 1699 41.2189
45.3654 1778 42.1663
45.4827 1730 41.5933
45.6001 1636 40.4475
45.7174 1672 40.8901
45.8348 1693 41.1461
45.9522 1620 40.2492
46.0697 1475 38.4057
46.1871 1519 38.9744
46.3046 1428 37.7889
46.422 1481 38.4838
46.5395 1464 38.2623
46.657 1469 38.3275
46.7745 1528 39.0896
46.892 1558 39.4715
47.0096 1561 39.5095
47.1271 1552 39.3954
47.2446 1614 40.1746
47.3622 1496 38.6782
47.4797 1410 37.55
47.5973 1474 38.3927
47.7149 1465 38.2753
47.8324 1469 38.3275
47.95 1552 39.3954
48.0675 1555 39.4335
48.1851 1528 39.0896
48.3027 1595 39.9375
48.4202 1583 39.7869
48.5378 1624 40.2989
48.6554 1578 39.724
48.7729 1618 40.2244
48.8904 1598 39.975
49.008 1658 40.7185
49.1255 1609 40.1123
49.243 1628 40.3485
49.3605 1585 39.8121
49.478 1523 39.0256
49.5955 1399 37.4032
49.713 1441 37.9605
49.8304 1337 36.565
49.9479 1321 36.3456
50.0653 1384 37.2022
50.1827 1379 37.1349
50.3001 1442 37.9737
50.4175 1538 39.2173
50.5348 1555 39.4335
50.6521 1585 39.8121
50.7694 1591 39.8873
50.8867 1428 37.7889
51.004 1405 37.4833
51.1212 1349 36.7287
51.2384 1517 38.9487
51.3556 1510 38.8587
51.4727 1479 38.4578
51.5899 1631 40.3856
51.707 1598 39.975
51.824 1623 40.2865
51.9411 1560 39.4968
52.0581 1619 40.2368
52.175 1498 38.704
52.2919 1470 38.3406
52.4088 1554 39.4208
52.5257 1579 39.7366
52.6425 1644 40.5463
52.7593 1554 39.4208
52.876 1546 39.3192
52.9927 1501 38.7427
53.1094 1469 38.3275
53.226 1367 36.973
53.3426 1336 36.5513
53.4591 1313 36.2353
53.5756 1273 35.6791
53.692 1299 36.0416
53.8084 1232 35.0999
53.9248 1285 35.8469
54.0411 1236 35.1568
54.1573 1144 33.8231
54.2735 0 1
54.3896 0 1
54.5057 0 1
54.6217 0 1
54.7377 0 1
54.8537 0 1
54.9695 0 1
55.0853 0 1
55.2011 0 1
55.3168 0 1
55.4324 0 1
57.824 0 1
57.9396 0 1
58.0553 0 1
58.1711 0 1
58.2869 0 1
58.4028 0 1
58.5187 0 1
58.6347 0 1
58.7508 0 1
58.8669 0 1
58.983 9942 99.7096
59.0992 12400 111.355
59.2155 13234 115.039
59.3318 13378 115.663
59.4482 12923 113.679
59.5646 12437 111.521
59.681 12053 109.786
59.7975 11310 106.348
59.9141 10829 104.062
60.0306 10474 102.343
60.1473 10295 101.464
60.2639 10094 100.469
60.3807 10089 100.444
60.4974 9807 99.0303
60.6142 10096 100.479
60.731 9943 99.7146
60.8479 10032 100.16
60.9648 9758 98.7826
61.0818 9634 98.1529
61.1987 9447 97.1957
61.3158 9332 96.6023
61.4328 9205 95.9427
61.5499 9170 95.7601
61.667 8704 93.2952
61.7841 7671 87.5842
61.9013 6291 79.3158
62.0185 4627 68.0221
62.1357 4115 64.1483
62.253 4544 67.4092
62.3702 5330 73.0068
62.4875 5454 73.8512
62.6049 4903 70.0214
62.7222 4086 63.9218
62.8396 3622 60.1831
62.9569 3163 56.2406
63.0743 2893 53.7866
63.1918 2630 51.2835
63.3092 2384 48.8262
63.4267 2256 47.4974
63.5441 2236 47.2864
63.6616 2312 48.0833
63.7791 2255 47.4868
63.8966 2201 46.9148
64.0142 2151 46.3789
64.1317 2133 46.1844
64.2492 2144 46.3033
64.3668 2005 44.7772
64.4843 1941 44.0568
64.6019 1869 43.2319
64.7195 1916 43.7721
64.837 1890 43.4741
64.9546 1891 43.4856
65.0722 1889 43.4626
65.1898 1889 43.4626
65.3074 1838 42.8719
65.4249 1741 41.7253
65.5425 1705 41.2916
65.6601 1755 41.8927
65.7777 1740 41.7133
65.8952 1786 42.2611
66.0128 1821 42.6732
66.1304 1879 43.3474
66.2479 1872 43.2666
66.3655 1889 43.4626
66.483 1947 44.1248
66.6005 1829 42.7668
66.718 1902 43.6119
66.8355 1784 42.2374
66.953 1731 41.6053
67.0705 1842 42.9185
67.1879 1822 42.6849
67.3054 1945 44.1022
67.4228 1935 43.9886
67.5402 2007 44.7996
67.6576 1944 44.0908
67.7749 1941 44.0568
67.8923 1903 43.6234
68.0096 1949 44.1475
68.1269 1867 43.2088
68.2442 1897 43.5546
68.3614 1826 42.7317
68.4787 1825 42.72
68.5958 1861 43.1393
68.713 1899 43.5775
68.8302 1904 43.6348
68.9473 1848 42.9884
69.0643 1855 43.0697
69.1814 1803 42.4617
69.2984 1810 42.5441
69.4154 1807 42.5088
69.5323 1789 42.2966
69.6492 1815 42.6028
69.7661 1817 42.6263
69.8829 2002 44.7437
69.9997 1997 44.6878
70.1165 2077 45.5741
70.2332 2055 45.3321
70.3499 1962 44.2945
70.4665 1812 42.5676
70.5831 1659 40.7308
70.6996 1445 38.0132
70.8161 1321 36.3456
70.9326 1317 36.2905
71.049 1229 35.0571
71.1653 1191 34.5109
71.2817 1123 33.5112
71.3979 1044 32.311
71.5141 948 30.7896
71.6303 880 29.6648
71.7464 736 27.1293
71.8624 0 1
71.9784 0 1
72.0944 0 1
72.2102 0 1
72.3261 0 1
72.4418 0 1
72.5575 0 1
72.6732 0 1
75.1054 0 1
75.2209 0 1
75.3365 0 1
75.4521 0 1
75.5678 0 1
75.6835 0 1
75.7993 0 1
75.9151 0 1
76.031 0 1
76.147 1188 34.4674
76.263 1288 35.8887
76.3791 1421 37.6962
76.4952 1561 39.5095
76.6113 1687 41.0731
76.7276 1670 40.8656
76.8438 1676 40.939
76.9601 1650 40.6202
77.0765 1659 40.7308
77.1929 1652 40.6448
77.3093 1576 39.6989
77.4258 1674 40.9145
77.5423 1667 40.8289
77.6589 1645 40.5586
77.7755 1611 40.1373
77.8921 1619 40.2368
78.0088 1663 40.7799
78.1256 1569 39.6106
78.2423 1532 39.1408
78.3591 1555 39.4335
78.4759 1526 39.064
78.5928 1483 38.5097
78.7097 1517 38.9487
78.8266 1468 38.3145
78.9436 1589 39.8623
79.0606 1646 40.5709
79.1776 1582 39.7744
79.2946 1692 41.1339
79.4117 1705 41.2916
79.5288 1681 41
79.6459 1699 41.2189
79.7631 1556 39.4462
79.8802 1655 40.6817
79.9974 1742 41.7373
80.1147 1784 42.2374
80.2319 1899 43.5775
80.3491 1842 42.9185
80.4664 1830 42.7785
80.5837 1804 42.4735
80.701 1815 42.6028
80.8183 1713 41.3884
80.9357 1717 41.4367
81.053 1746 41.7852
81.1704 1705 41.2916
81.2877 1755 41.8927
81.4051 1762 41.9762
81.5225 1719 41.4608
81.6399 1760 41.9524
81.7573 1778 42.1663
81.8747 1623 40.2865
81.9922 1628 40.3485
82.1096 1623 40.2865
82.227 1584 39.7995
82.3444 1579 39.7366
82.4619 1598 39.975
82.5793 1676 40.939
82.6967 1687 41.0731
82.8142 1626 40.3237
82.9316 1734 41.6413
83.049 1837 42.8602
83.1664 1750 41.833
83.2838 1682 41.0122
83.4012 1693 41.1461
83.5186 1652 40.6448
83.636 1709 41.3401
83.7534 1735 41.6533
83.8708 1823 42.6966
83.9881 1831 42.7902
84.1055 1797 42.391
84.2228 1825 42.72
84.3401 1763 41.9881
84.4575 1798 42.4028
84.5747 1754 41.8808
84.692 1811 42.5558
84.8093 1751 41.845
84.9265 1659 40.7308
85.0437 1768 42.0476
85.1609 1772 42.0951
85.2781 1789 42.2966
85.3952 1711 41.3642
85.5123 1670 40.8656
85.6294 1601 40.0125
85.7465 1627 40.3361
85.8636 1593 39.9124
85.9806 1594 39.9249
86.0976 1627 40.3361
86.2145 1660 40.7431
86.3315 1805 42.4853
86.4484 1756 41.9047
86.5652 1829 42.7668
86.682 1797 42.391
86.7988 1754 41.8808
86.9156 1710 41.3521
87.0323 1675 40.9268
87.149 1627 40.3361
87.2657 1662 40.7676
87.3823 1672 40.8901
87.4988 1806 42.4971
87.6154 1697 41.1947
87.7318 1604 40.05
87.8483 1557 39.4588
87.9647 1392 37.3095
88.081 1304 36.1109
88.1973 1218 34.8999
88.3136 1143 33.8083
88.4298 1091 33.0303
88.546 1020 31.9374
88.6621 988 31.4325
88.7781 993 31.5119
88.8942 0 1
89.0101 0 1
89.126 0 1
89.2419 0 1
89.3577 0 1
89.4734 0 1
89.5891 0 1
89.7047 0 1
89.8203 0 1
89.9358 0 1
92.3269 0 1
92.4424 0 1
92.558 0 1
92.6736 0 1
92.7893 0 1
92.905 0 1
93.0208 0 1
93.1366 0 1
93.2525 0 1
93.3685 0 1
93.4845 0 1
93.6005 1395 37.3497
93.7167 1511 38.8716
93.8328 1507 38.8201
93.949 1626 40.3237
94.0653 1696 41.1825
94.1816 1777 42.1545
94.2979 1740 41.7133
94.4143 1672 40.8901
94.5307 1757 41.9166
94.6472 1753 41.8688
94.7637 1678 40.9634
94.8803 1637 40.4599
94.9969 1663 40.7799
95.1135 1704 41.2795
95.2302 1741 41.7253
95.3469 1753 41.8688
95.4637 1691 41.1218
95.5805 1804 42.4735
95.6973 1822 42.6849
95.8142 1759 41.9404
95.9311 1854 43.0581
96.048 1795 42.3674
96.1649 1818 42.638
96.2819 1793 42.3438
96.3989 1707 41.3159
96.516 1747 41.7971
96.633 1837 42.8602
96.7501 1884 43.4051
96.8673 1901 43.6005
96.9844 1855 43.0697
97.1016 1806 42.4971
97.2188 1781 42.2019
97.336 1776 42.1426
97.4532 1798 42.4028
97.5704 1806 42.4971
97.6877 1788 42.2847
97.805 1832 42.8019
97.9223 1793 42.3438
98.0396 1875 43.3013
98.1569 1903 43.6234
98.2743 1793 42.3438
98.3916 1775 42.1307
98.509 1773 42.107
98.6264 1694 41.1582
98.7438 1670 40.8656
98.8612 1710 41.3521
98.9786 1810 42.5441
99.096 1865 43.1856
99.2134 1848 42.9884
99.3308 1961 44.2832
99.4482 1928 43.909
99.5656 1928 43.909
99.6831 1928 43.909
99.8005 1931 43.9431
99.9179 1877 43.3244
100.035 1948 44.1362
100.153 1950 44.1588
100.27 1961 44.2832
100.388 1995 44.6654
100.505 1927 43.8976
100.622 1933 43.9659
100.74 1898 43.566
100.857 1797 42.391
100.975 1806 42.4971
101.092 1825 42.72
101.209 1907 43.6692
101.327 1915 43.7607
101.444 1926 43.8862
101.561 2023 44.9778
101.679 2000 44.7214
101.796 1915 43.7607
101.913 1940 44.0454
102.03 1801 42.4382
102.148 1743 41.7493
102.265 1801 42.4382
102.382 1822 42.6849
102.499 1927 43.8976
102.616 1958 44.2493
102.733 1928 43.909
102.851 2024 44.9889
102.968 2059 45.3762
103.085 2099 45.8148
103.202 1981 44.5084
103.319 1927 43.8976
103.436 1903 43.6234
103.552 1960 44.2719
103.669 2036 45.1221
103.786 2142 46.2817
103.903 2118 46.0217
104.02 2146 46.3249
104.137 2072 45.5192
104.253 1898 43.566
104.37 1918 43.795
104.487 1921 43.8292
104.603 1939 44.0341
104.72 1979 44.486
104.836 1884 43.4051
104.953 1854 43.0581
105.069 1865 43.1856
105.186 1733 41.6293
105.302 1636 40.4475
105.418 1504 38.7814
105.535 1351 36.756
105.651 1272 35.6651
105.767 1140 33.7639
105.883 1134 33.6749
105.999 1020 31.9374
106.115 0 1
106.231 0 1
106.347 0 1
106.463 0 1
106.579 0 1
106.694 0 1
106.81 0 1
106.926 0 1
107.041 0 1
107.157 0 1
109.576 0 1
109.692 0 1
109.807 0 1
109.923 0 1
110.039 0 1
110.155 0 1
110.27 0 1
110.386 0 1
110.502 0 1
110.618 1029 32.078
110.735 1122 33.4963
110.851 1287 35.8748
110.967 1363 36.9188
111.083 1519 38.9744
111.199 1664 40.7922
111.316 1711 41.3642
111.432 1769 42.0595
111.549 1918 43.795
111.665 1881 43.3705
111.782 1937 44.0114
111.898 1972 44.4072
112.015 1900 43.589
112.132 1803 42.4617
112.248 1854 43.0581
112.365 1811 42.5558
112.482 1888 43.4511
112.599 1836 42.8486
112.716 1874 43.2897
112.832 1882 43.382
112.949 1791 42.3202
113.066 1792 42.332
113.183 1706 41.3038
113.3 1762 41.9762
113.417 1819 42.6497
113.534 1715 41.4126
113.652 1815 42.6028
113.769 1818 42.638
113.886 1789 42.2966
114.003 1719 41.4608
114.12 1641 40.5093
114.238 1612 40.1497
114.355 1546 39.3192
114.472 1711 41.3642
114.589 1620 40.2492
114.707 1703 41.2674
114.824 1694 41.1582
114.942 1690 41.1096
115.059 1731 41.6053
115.176 1857 43.0929
115.294 1882 43.382
115.411 1747 41.7971
115.529 1780 42.19
115.646 1681 41
115.764 1651 40.6325
115.881 1686 41.0609
115.999 1596 39.95
116.116 1659 40.7308
116.234 1723 41.509
116.351 1684 41.0366
116.469 1690 41.1096
116.586 1574 39.6737
116.704 1610 40.1248
116.821 1652 40.6448
116.939 1653 40.6571
117.056 1660 40.7431
117.174 1699 41.2189
117.291 1671 40.8779
117.409 1634 40.4228
117.526 1598 39.975
117.644 1559 39.4842
117.761 1493 38.6394
117.879 1516 38.9358
117.996 1498 38.704
118.114 1609 40.1123
118.231 1591 39.8873
118.349 1569 39.6106
118.466 1544 39.2938
118.584 1599 39.9875
118.701 1648 40.5956
118.819 1710 41.3521
118.936 1699 41.2189
119.053 1635 40.4351
119.171 1585 39.8121
119.288 1568 39.598
119.405 1535 39.1791
119.523 1556 39.4462
119.64 1546 39.3192
119.757 1568 39.598
119.875 1528 39.0896
119.992 1595 39.9375
120.109 1546 39.3192
120.226 1528 39.0896
120.343 1507 38.8201
120.46 1499 38.7169
120.578 1525 39.0512
120.695 1552 39.3954
120.812 1471 38.3536
120.929 1601 40.0125
121.046 1544 39.2938
121.163 1448 38.0526
121.279 1499 38.7169
121.396 1377 37.108
121.513 1354 36.7967
121.63 1375 37.081
121.747 1296 36
121.863 1359 36.8646
121.98 1389 37.2693
122.097 1321 36.3456
122.213 1320 36.3318
122.33 1179 34.3366
122.446 1197 34.5977
122.563 1141 33.7787
122.679 1119 33.4515
122.795 1025 32.0156
122.912 1016 31.8748
123.028 921 30.348
123.144 881 29.6816
123.26 873 29.5466
123.377 0 1
123.493 0 1
123.609 0 1
123.725 0 1
123.84 0 1
123.956 0 1
124.072 0 1
124.188 0 1
124.303 0 1
124.419 0 1
126.852 0 1
126.968 0 1
127.083 0 1
127.199 0 1
127.315 0 1
127.431 0 1
127.547 0 1
127.663 0 1
127.779 0 1
127.895 0 1
128.011 0 1
128.127 0 1
128.243 0 1
128.359 1725 41.5331
128.476 1740 41.7133
128.592 1640 40.4969
128.708 1747 41.7971
128.825 1815 42.6028
128.941 1762 41.9762
129.058 1748 41.8091
129.174 1779 42.1782
129.291 1802 42.45
129.408 1816 42.6146
129.524 1836 42.8486
129.641 1831 42.7902
129.758 1786 42.2611
129.875 1874 43.2897
129.992 1883 43.3935
130.108 1903 43.6234
130.225 1876 43.3128
130.342 1841 42.9069
130.459 1890 43.4741
130.576 1850 43.0116
130.693 1965 44.3283
130.81 1986 44.5646
130.928 1946 44.1135
131.045 2061 45.3982
131.162 2137 46.2277
131.279 2392 48.9081
131.396 2478 49.7795
131.513 2659 51.5655
131.631 2503 50.03
131.748 2555 50.547
131.865 2650 51.4782
131.983 2633 51.3128
132.1 2634 51.3225
132.217 2676 51.7301
132.335 2728 52.2303
132.452 2865 53.5257
132.57 2820 53.1037
132.687 2821 53.1131
132.804 3036 55.0999
132.922 2930 54.1295
133.039 2977 54.5619
133.157 3040 55.1362
133.274 3056 55.2811
133.392 3071 55.4166
133.509 3040 55.1362
133.627 3070 55.4076
133.744 3096 55.6417
133.862 3055 55.2721
133.979 3095 55.6327
134.097 2969 54.4885
134.214 2794 52.8583
134.332 2543 50.4282
134.449 2445 49.4469
134.567 2763 52.5642
134.684 2865 53.5257
134.802 2954 54.3507
134.919 3152 56.1427
135.037 3035 55.0908
135.154 3066 55.3715
135.272 2951 54.3231
135.389 2950 54.3139
135.507 2908 53.9259
135.624 2932 54.1479
135.742 2902 53.8702
135.859 3002 54.7905
135.977 2962 54.4243
136.094 3123 55.8838
136.211 3168 56.285
136.329 3010 54.8635
136.446 3030 55.0454
136.564 2976 54.5527
136.681 3011 54.8726
136.798 3002 54.7905
136.915 2979 54.5802
137.033 2926 54.0925
137.15 2929 54.1202
137.267 2845 53.3385
137.384 2848 53.3667
137.502 2809 53
137.619 2829 53.1883
137.736 2866 53.535
137.853 2521 50.2096
137.97 2599 50.9804
138.087 2422 49.2138
138.204 2523 50.2295
138.321 2608 51.0686
138.438 2878 53.647
138.555 2974 54.5344
138.672 2806 52.9717
138.788 2838 53.2729
138.905 2761 52.5452
139.022 2737 52.3163
139.139 2704 52
139.255 2536 50.3587
139.372 2449 49.4874
139.488 2247 47.4025
139.605 2198 46.8828
139.721 2238 47.3075
139.838 2137 46.2277
139.954 1922 43.8406
140.071 1858 43.1045
140.187 1767 42.0357
140.303 1657 40.7063
140.419 1577 39.7115
140.535 1560 39.4968
140.652 1463 38.2492
140.768 0 1
140.884 0 1
141 0 1
141.115 0 1
141.231 0 1
141.347 0 1
141.463 0 1
141.578 0 1
141.694 0 1
144.104 0 1
144.219 0 1
144.335 0 1
144.45 0 1
144.566 0 1
144.682 0 1
144.798 0 1
144.914 0 1
145.03 0 1
145.146 4714 68.6586
145.262 5119 71.5472
145.378 5310 72.8697
145.494 5399 73.4779
145.61 5541 74.4379
145.726 5584 74.7262
145.842 6086 78.0128
145.959 6198 78.7274
146.075 6369 79.806
146.192 6453 80.3306
146.308 6520 80.7465
146.425 6758 82.2071
146.541 6753 82.1766
146.658 6979 83.5404
146.774 6442 80.2621
146.891 5995 77.4274
147.008 5451 73.8309
147.125 6003 77.479
147.241 6797 82.4439
147.358 7156 84.5931
147.475 6783 82.359
147.592 6692 81.8046
147.709 6985 83.5763
147.826 7274 85.2877
147.943 7401 86.0291
148.06 7272 85.276
148.177 7226 85.0059
148.294 7366 85.8254
148.411 7394 85.9884
148.528 7437 86.238
148.645 7495 86.5737
148.762 7518 86.7064
148.88 7559 86.9425
148.997 7515 86.6891
149.114 7387 85.9477
149.231 7480 86.487
149.349 7525 86.7468
149.466 7487 86.5275
149.583 7432 86.209
149.701 7278 85.3112
149.818 7490 86.5448
149.935 7536 86.8101
150.053 7472 86.4407
150.17 7681 87.6413
150.287 8245 90.802
150.405 8173 90.4046
150.522 8068 89.822
150.64 7562 86.9598
150.757 7486 86.5217
150.875 7904 88.9044
150.992 8307 91.1427
151.11 7951 89.1684
151.227 7910 88.9382
151.344 8315 91.1866
151.462 8953 94.6203
151.579 9100 95.3939
151.697 9383 96.8659
151.814 9362 96.7574
151.932 9746 98.7218
152.049 9848 99.2371
152.167 9902 99.5088
152.284 10265 101.316
152.402 10364 101.804
152.519 10281 101.395
152.636 10414 102.049
152.754 10583 102.874
152.871 10551 102.718
152.989 10429 102.122
153.106 10267 101.326
153.223 9427 97.0927
153.341 8779 93.6963
153.458 8396 91.6297
153.575 8331 91.2743
153.693 8807 93.8456
153.81 9847 99.2321
153.927 10163 100.812
154.044 10401 101.985
154.162 10092 100.459
154.279 9734 98.661
154.396 9663 98.3006
154.513 9864 99.3177
154.63 10423 102.093
154.747 10398 101.971
154.864 10222 101.104
154.981 10530 102.616
155.098 11154 105.612
155.215 11398 106.761
155.332 11562 107.527
155.449 11848 108.849
155.566 12054 109.791
155.683 12489 111.754
155.8 12899 113.574
155.917 13025 114.127
156.033 13361 115.59
156.15 0 1
156.267 0 1
156.383 0 1
156.5 0 1
156.617 0 1
156.733 0 1
156.85 0 1
156.966 0 1
157.082 0 1
157.199 0 1
157.315 0 1
157.431 0 1
157.547 0 1
157.664 0 1
157.78 0 1
157.896 0 1
158.012 0 1
158.128 0 1
158.244 0 1
158.359 0 1
158.475 0 1
158.591 0 1
158.706 0 1
