
6.15755 0 1
6.2731 0 1
6.3887 0 1
6.50437 0 1
6.62009 0 1
6.73587 0 1
6.8517 0 1
6.96759 0 1
7.08353 0 1
7.19952 0 1
7.31557 0 1
7.43166 0 1
7.54781 0 1
7.664 0 1
7.78024 0 1
7.89653 0 1
8.01286 0 1
8.12924 0 1
8.24567 0 1
8.36213 0 1
8.47864 0 1
8.59519 0 1
8.71178 0 1
8.82841 0 1
8.94508 0 1
9.06179 0 1
9.17853 0 1
9.29531 0 1
9.41212 0 1
9.52897 0 1
9.64584 0 1
9.76276 0 1
9.8797 0 1
9.99667 0 1
10.1137 0 1
10.2307 0 1
10.3478 0 1
10.4648 0 1
10.5819 0 1
10.6991 0 1
10.8162 0 1
10.9334 0 1
11.0506 0 1
11.1678 0 1
11.285 0 1
11.4023 0 1
11.5196 0 1
11.6369 0 1
11.7542 0 1
11.8715 0 1
11.9888 0 1
12.1062 0 1
12.2235 0 1
12.3409 0 1
12.4582 0 1
12.5756 0 1
12.693 0 1
12.8104 0 1
12.9278 0 1
13.0452 0 1
13.1626 0 1
13.28 0 1
13.3974 0 1
13.5149 0 1
13.6323 0 1
13.7497 0 1
13.8671 0 1
13.9845 0 1
14.1019 0 1
14.2193 0 1
14.3367 0 1
14.4541 0 1
14.5714 0 1
14.6888 0 1
14.8062 0 1
14.9235 0 1
15.0408 1749 41.821
15.1581 1997 44.6878
15.2755 2070 45.4973
15.3927 1953 44.1928
15.51 2018 44.9222
15.6273 2043 45.1996
15.7445 2081 45.618
15.8617 2027 45.0222
15.9789 1997 44.6878
16.0961 2021 44.9555
16.2132 1969 44.3734
16.3304 2005 44.7772
16.4475 2073 45.5302
16.5646 2219 47.1063
16.6816 2272 47.6655
16.7986 2376 48.7442
16.9156 2430 49.295
17.0326 2392 48.9081
17.1496 2377 48.7545
17.2665 2372 48.7032
17.3833 2396 48.949
17.5002 2427 49.2646
17.617 2283 47.7807
17.7338 2211 47.0213
17.8505 2134 46.1952
17.9672 2039 45.1553
18.0839 2102 45.8476
18.2005 2175 46.6369
18.3171 2197 46.8722
18.4337 2243 47.3603
18.5502 2310 48.0625
18.6666 2366 48.6415
18.7831 2401 49
18.8994 2427 49.2646
19.0158 2334 48.3115
19.1321 2271 47.655
19.2483 2230 47.2229
19.3645 2078 45.5851
19.4806 1958 44.2493
19.5967 1815 42.6028
19.7128 1750 41.833
19.8288 1581 39.7618
19.9447 1430 37.8153
20.0606 0 1
20.1764 0 1
20.2922 0 1
20.4079 0 1
20.5236 0 1
20.6392 0 1
20.7548 0 1
20.8702 0 1
23.3078 0 1
23.4233 0 1
23.539 0 1
23.6547 0 1
23.7704 0 1
23.8862 0 1
24.0021 0 1
24.118 0 1
24.234 0 1
24.35 0 1
24.4661 987 31.4166
24.5822 1172 34.2345
24.6984 1283 35.819
24.8146 1442 37.9737
24.9309 1656 40.694
25.0472 1801 42.4382
25.1636 1854 43.0581
25.28 2113 45.9674
25.3965 2128 46.1303
25.513 2406 49.051
25.6296 2405 49.0408
25.7462 2642 51.4004
25.8628 2568 50.6754
25.9795 2623 51.2152
26.0962 2574 50.7346
26.213 2455 49.548
26.3298 2244 47.3709
26.4466 2227 47.1911
26.5635 2179 46.6798
26.6804 2164 46.5188
26.7973 2383 48.816
26.9143 2280 47.7493
27.0313 2352 48.4974
27.1483 2323 48.1975
27.2653 2337 48.3425
27.3824 2344 48.4149
27.4996 2469 49.689
27.6167 2503 50.03
27.7339 2306 48.0208
27.8511 2331 48.2804
27.9683 2198 46.8828
28.0855 2218 47.0956
28.2028 2145 46.3141
28.3201 2124 46.0869
28.4374 2078 45.5851
28.5547 2096 45.7821
28.6721 2142 46.2817
28.7894 2323 48.1975
28.9068 2394 48.9285
29.0242 2439 49.3862
29.1416 2538 50.3786
29.259 2504 50.04
29.3764 2587 50.8626
29.4939 2534 50.3389
29.6113 2447 49.4672
29.7288 2232 47.244
29.8463 2240 47.3286
29.9638 2137 46.2277
30.0812 2086 45.6727
30.1987 2057 45.3542
30.3162 2133 46.1844
30.4337 2168 46.5618
30.5512 2225 47.1699
30.6687 2298 47.9375
30.7862 2387 48.8569
30.9037 2371 48.6929
31.0212 2384 48.8262
31.1387 2327 48.239
31.2562 2366 48.6415
31.3737 2295 47.9062
31.4912 2244 47.3709
31.6087 2171 46.594
31.7262 2029 45.0444
31.8436 2066 45.4533
31.9611 2007 44.7996
32.0785 1968 44.3621
32.1959 2111 45.9456
32.3134 2206 46.9681
32.4308 2264 47.5815
32.5482 2307 48.0312
32.6655 2390 48.8876
32.7829 2423 49.224
32.9002 2313 48.0937
33.0176 2412 49.1121
33.1349 2327 48.239
33.2522 2422 49.2138
33.3694 2258 47.5184
33.4867 2146 46.3249
33.6039 2007 44.7996
33.7211 1948 44.1362
33.8383 1924 43.8634
33.9554 1970 44.3847
34.0725 1978 44.4747
34.1896 2123 46.076
34.3067 2156 46.4327
34.4237 2202 46.9255
34.5407 2252 47.4552
34.6577 2282 47.7703
34.7746 2294 47.8957
34.8915 2186 46.7547
35.0084 2266 47.6025
35.1252 2247 47.4025
35.242 2075 45.5522
35.3587 2084 45.6508
35.4755 2120 46.0435
35.5921 1874 43.2897
35.7088 1913 43.7379
35.8254 1888 43.4511
35.9419 1956 44.2267
36.0584 2021 44.9555
36.1749 2035 45.111
36.2913 2079 45.5961
36.4077 2135 46.2061
36.524 2094 45.7602
36.6403 2009 44.8219
36.7565 1892 43.4971
36.8727 1824 42.7083
36.9889 1667 40.8289
37.1049 1492 38.6264
37.221 0 1
37.3369 0 1
37.4529 0 1
37.5687 0 1
37.6845 0 1
37.8003 0 1
37.916 0 1
38.0316 0 1
38.1472 0 1
40.5851 0 1
40.7008 0 1
40.8164 0 1
40.9322 0 1
41.048 0 1
41.1639 0 1
41.2798 0 1
41.3958 0 1
41.5118 0 1
41.6279 0 1
41.744 1057 32.5115
41.8602 1198 34.6121
41.9765 1282 35.805
42.0928 1301 36.0694
42.2091 1305 36.1248
42.3255 1314 36.2491
42.4419 1310 36.1939
42.5584 1380 37.1484
42.675 1464 38.2623
42.7915 1652 40.6448
42.9081 1700 41.2311
43.0248 1795 42.3674
43.1415 1799 42.4146
43.2582 1751 41.845
43.375 1856 43.0813
43.4918 1815 42.6028
43.6087 1939 44.0341
43.7256 1834 42.8252
43.8425 1774 42.1189
43.9595 1781 42.2019
44.0765 1812 42.5676
44.1935 1618 40.2244
44.3106 1566 39.5727
44.4277 1537 39.2046
44.5448 1604 40.05
44.6619 1603 40.0375
44.7791 1603 40.0375
44.8963 1725 41.5331
45.0136 1827 42.7434
45.1308 1908 43.6807
45.2481 1927 43.8976
45.3654 1868 43.2204
45.4827 1997 44.6878
45.6001 1955 44.2154
45.7174 1905 43.6463
45.8348 1646 40.5709
45.9522 1582 39.7744
46.0697 1528 39.0896
46.1871 1549 39.3573
46.3046 1552 39.3954
46.422 1656 40.694
46.5395 1703 41.2674
46.657 1853 43.0465
46.7745 1875 43.3013
46.892 1917 43.7836
47.0096 1914 43.7493
47.1271 1884 43.4051
47.2446 1964 44.317
47.3622 1938 44.0227
47.4797 1819 42.6497
47.5973 1801 42.4382
47.7149 1746 41.7852
47.8324 1765 42.0119
47.95 1662 40.7676
48.0675 1655 40.6817
48.1851 1562 39.5221
48.3027 1634 40.4228
48.4202 1651 40.6325
48.5378 1821 42.6732
48.6554 1930 43.9318
48.7729 1917 43.7836
48.8904 1944 44.0908
49.008 2010 44.833
49.1255 1859 43.1161
49.243 1832 42.8019
49.3605 1735 41.6533
49.478 1596 39.95
49.5955 1456 38.1576
49.713 1491 38.6135
49.8304 1502 38.7556
49.9479 1652 40.6448
50.0653 1715 41.4126
50.1827 1788 42.2847
50.3001 1722 41.497
50.4175 1818 42.638
50.5348 1898 43.566
50.6521 1894 43.5201
50.7694 1971 44.3959
50.8867 1910 43.7035
51.004 1875 43.3013
51.1212 1896 43.5431
51.2384 1900 43.589
51.3556 1790 42.3084
51.4727 1731 41.6053
51.5899 1649 40.6079
51.707 1609 40.1123
51.824 1779 42.1782
51.9411 1924 43.8634
52.0581 2053 45.31
52.175 2232 47.244
52.2919 2259 47.5289
52.4088 2275 47.697
52.5257 2290 47.8539
52.6425 2325 48.2183
52.7593 2372 48.7032
52.876 2314 48.1041
52.9927 2177 46.6583
53.1094 2031 45.0666
53.226 1893 43.5086
53.3426 1960 44.2719
53.4591 1883 43.3935
53.5756 1905 43.6463
53.692 1995 44.6654
53.8084 1955 44.2154
53.9248 1889 43.4626
54.0411 1851 43.0232
54.1573 1715 41.4126
54.2735 0 1
54.3896 0 1
54.5057 0 1
54.6217 0 1
54.7377 0 1
54.8537 0 1
54.9695 0 1
55.0853 0 1
55.2011 0 1
55.3168 0 1
55.4324 0 1
57.824 0 1
57.9396 0 1
58.0553 0 1
58.1711 0 1
58.2869 0 1
58.4028 0 1
58.5187 0 1
58.6347 0 1
58.7508 0 1
58.8669 0 1
58.983 1513 38.8973
59.0992 1813 42.5793
59.2155 1886 43.4281
59.3318 2056 45.3431
59.4482 2149 46.3573
59.5646 2205 46.9574
59.681 2208 46.9894
59.7975 2195 46.8508
59.9141 2276 47.7074
60.0306 2195 46.8508
60.1473 2195 46.8508
60.2639 2004 44.7661
60.3807 2018 44.9222
60.4974 2129 46.1411
60.6142 2173 46.6154
60.731 2335 48.3218
60.8479 2411 49.1019
60.9648 2427 49.2646
61.0818 2456 49.558
61.1987 2508 50.0799
61.3158 2362 48.6004
61.4328 2260 47.5395
61.5499 2212 47.0319
61.667 2001 44.7325
61.7841 1896 43.5431
61.9013 1837 42.8602
62.0185 1930 43.9318
62.1357 2049 45.2659
62.253 2108 45.913
62.3702 2272 47.6655
62.4875 2217 47.085
62.6049 2318 48.1456
62.7222 2425 49.2443
62.8396 2339 48.3632
62.9569 2330 48.2701
63.0743 2320 48.1664
63.1918 2304 48
63.3092 2351 48.4871
63.4267 2323 48.1975
63.5441 2197 46.8722
63.6616 2033 45.0888
63.7791 2008 44.8107
63.8966 1960 44.2719
64.0142 2008 44.8107
64.1317 2005 44.7772
64.2492 2210 47.0106
64.3668 2249 47.4236
64.4843 2356 48.5386
64.6019 2288 47.833
64.7195 2371 48.6929
64.837 2392 48.9081
64.9546 2289 47.8435
65.0722 2210 47.0106
65.1898 2066 45.4533
65.3074 1899 43.5775
65.4249 1869 43.2319
65.5425 1714 41.4005
65.6601 1795 42.3674
65.7777 1828 42.7551
65.8952 1957 44.238
66.0128 2176 46.6476
66.1304 2183 46.7226
66.2479 2232 47.244
66.3655 2340 48.3735
66.483 2232 47.244
66.6005 2395 48.9387
66.718 2249 47.4236
66.8355 2340 48.3735
66.953 2205 46.9574
67.0705 2103 45.8585
67.1879 2215 47.0638
67.3054 2055 45.3321
67.4228 1899 43.5775
67.5402 1827 42.7434
67.6576 1834 42.8252
67.7749 1993 44.643
67.8923 2092 45.7384
68.0096 2178 46.669
68.1269 2387 48.8569
68.2442 2320 48.1664
68.3614 2283 47.7807
68.4787 2240 47.3286
68.5958 2250 47.4342
68.713 2104 45.8694
68.8302 2008 44.8107
68.9473 1844 42.9418
69.0643 1783 42.2256
69.1814 1703 41.2674
69.2984 1593 39.9124
69.4154 1886 43.4281
69.5323 1950 44.1588
69.6492 2089 45.7056
69.7661 2084 45.6508
69.8829 2081 45.618
69.9997 2030 45.0555
70.1165 2029 45.0444
70.2332 1988 44.587
70.3499 1884 43.4051
70.4665 1874 43.2897
70.5831 1783 42.2256
70.6996 1644 40.5463
70.8161 1527 39.0768
70.9326 1489 38.5876
71.049 1201 34.6554
71.1653 1074 32.7719
71.2817 955 30.9031
71.3979 907 30.1164
71.5141 859 29.3087
71.6303 792 28.1425
71.7464 760 27.5681
71.8624 0 1
71.9784 0 1
72.0944 0 1
72.2102 0 1
72.3261 0 1
72.4418 0 1
72.5575 0 1
72.6732 0 1
75.1054 0 1
75.2209 0 1
75.3365 0 1
75.4521 0 1
75.5678 0 1
75.6835 0 1
75.7993 0 1
75.9151 0 1
76.031 0 1
76.147 1436 37.8946
76.263 1407 37.51
76.3791 1483 38.5097
76.4952 1455 38.1445
76.6113 1500 38.7298
76.7276 1597 39.9625
76.8438 1794 42.3556
76.9601 1891 43.4856
77.0765 1906 43.6578
77.1929 2044 45.2106
77.3093 2024 44.9889
77.4258 1885 43.4166
77.5423 1891 43.4856
77.6589 1879 43.3474
77.7755 1677 40.9512
77.8921 1610 40.1248
78.0088 1430 37.8153
78.1256 1325 36.4005
78.2423 1312 36.2215
78.3591 1429 37.8021
78.4759 1594 39.9249
78.5928 1759 41.9404
78.7097 1781 42.2019
78.8266 1931 43.9431
78.9436 1939 44.0341
79.0606 1946 44.1135
79.1776 1916 43.7721
79.2946 2039 45.1553
79.4117 2018 44.9222
79.5288 1891 43.4856
79.6459 1968 44.3621
79.7631 1948 44.1362
79.8802 1881 43.3705
79.9974 1702 41.2553
80.1147 1554 39.4208
80.2319 1622 40.2741
80.3491 1688 41.0853
80.4664 1732 41.6173
80.5837 1932 43.9545
80.701 1954 44.2041
80.8183 2029 45.0444
80.9357 2002 44.7437
81.053 2001 44.7325
81.1704 2050 45.2769
81.2877 2084 45.6508
81.4051 1957 44.238
81.5225 1710 41.3521
81.6399 1698 41.2068
81.7573 1476 38.4187
81.8747 1399 37.4032
81.9922 1419 37.6696
82.1096 1491 38.6135
82.227 1770 42.0714
82.3444 1824 42.7083
82.4619 1875 43.3013
82.5793 1969 44.3734
82.6967 1998 44.699
82.8142 1980 44.4972
82.9316 2072 45.5192
83.049 2106 45.8912
83.1664 2146 46.3249
83.2838 1984 44.5421
83.4012 2029 45.0444
83.5186 1937 44.0114
83.636 1892 43.4971
83.7534 1635 40.4351
83.8708 1591 39.8873
83.9881 1638 40.4722
84.1055 1703 41.2674
84.2228 1808 42.5206
84.3401 1995 44.6654
84.4575 2009 44.8219
84.5747 2031 45.0666
84.692 2051 45.288
84.8093 2127 46.1194
84.9265 2080 45.607
85.0437 1895 43.5316
85.1609 1751 41.845
85.2781 1531 39.128
85.3952 1470 38.3406
85.5123 1427 37.7757
85.6294 1474 38.3927
85.7465 1598 39.975
85.8636 1821 42.6732
85.9806 1840 42.8952
86.0976 1938 44.0227
86.2145 2032 45.0777
86.3315 2042 45.1885
86.4484 2124 46.0869
86.5652 2159 46.465
86.682 2033 45.0888
86.7988 2098 45.8039
86.9156 2024 44.9889
87.0323 2032 45.0777
87.149 1938 44.0227
87.2657 1769 42.0595
87.3823 1598 39.975
87.4988 1475 38.4057
87.6154 1405 37.4833
87.7318 1524 39.0384
87.8483 1515 38.923
87.9647 1671 40.8779
88.081 1601 40.0125
88.1973 1692 41.1339
88.3136 1590 39.8748
88.4298 1533 39.1535
88.546 1365 36.9459
88.6621 1151 33.9264
88.7781 894 29.8998
88.8942 0 1
89.0101 0 1
89.126 0 1
89.2419 0 1
89.3577 0 1
89.4734 0 1
89.5891 0 1
89.7047 0 1
89.8203 0 1
89.9358 0 1
92.3269 0 1
92.4424 0 1
92.558 0 1
92.6736 0 1
92.7893 0 1
92.905 0 1
93.0208 0 1
93.1366 0 1
93.2525 0 1
93.3685 0 1
93.4845 0 1
93.6005 1580 39.7492
93.7167 1653 40.6571
93.8328 1718 41.4488
93.949 1784 42.2374
94.0653 1820 42.6615
94.1816 1852 43.0349
94.2979 1703 41.2674
94.4143 1629 40.3609
94.5307 1496 38.6782
94.6472 1464 38.2623
94.7637 1528 39.0896
94.8803 1668 40.8412
94.9969 1787 42.2729
95.1135 1887 43.4396
95.2302 1970 44.3847
95.3469 2065 45.4423
95.4637 2021 44.9555
95.5805 2095 45.7712
95.6973 2151 46.3789
95.8142 2150 46.3681
95.9311 2127 46.1194
96.048 2032 45.0777
96.1649 2089 45.7056
96.2819 1997 44.6878
96.3989 1934 43.9773
96.516 1845 42.9535
96.633 1698 41.2068
96.7501 1709 41.3401
96.8673 1755 41.8927
96.9844 1853 43.0465
97.1016 1990 44.6094
97.2188 2072 45.5192
97.336 2093 45.7493
97.4532 2129 46.1411
97.5704 2145 46.3141
97.6877 2161 46.4866
97.805 2042 45.1885
97.9223 1854 43.0581
98.0396 1756 41.9047
98.1569 1581 39.7618
98.2743 1521 39
98.3916 1458 38.1838
98.509 1650 40.6202
98.6264 1829 42.7668
98.7438 1885 43.4166
98.8612 1989 44.5982
98.9786 2091 45.7275
99.096 2127 46.1194
99.2134 2218 47.0956
99.3308 2169 46.5725
99.4482 2176 46.6476
99.5656 2229 47.2123
99.6831 2172 46.6047
99.8005 2178 46.669
99.9179 2215 47.0638
100.035 2196 46.8615
100.153 1891 43.4856
100.27 1787 42.2729
100.388 1811 42.5558
100.505 1922 43.8406
100.622 2085 45.6618
100.74 2143 46.2925
100.857 2301 47.9687
100.975 2302 47.9792
101.092 2148 46.3465
101.209 2241 47.3392
101.327 2177 46.6583
101.444 2090 45.7165
101.561 1964 44.317
101.679 1779 42.1782
101.796 1613 40.1622
101.913 1521 39
102.03 1641 40.5093
102.148 1843 42.9302
102.265 1990 44.6094
102.382 2085 45.6618
102.499 2265 47.592
102.616 2233 47.2546
102.733 2280 47.7493
102.851 2401 49
102.968 2245 47.3814
103.085 2336 48.3322
103.202 2316 48.1248
103.319 2368 48.6621
103.436 2187 46.7654
103.552 2255 47.4868
103.669 2010 44.833
103.786 1929 43.9204
103.903 1836 42.8486
104.02 2002 44.7437
104.137 2138 46.2385
104.253 2133 46.1844
104.37 2378 48.7647
104.487 2343 48.4045
104.603 2256 47.4974
104.72 2333 48.3011
104.836 2363 48.6107
104.953 2036 45.1221
105.069 1900 43.589
105.186 1712 41.3763
105.302 1459 38.1969
105.418 1459 38.1969
105.535 1435 37.8814
105.651 1404 37.47
105.767 1520 38.9872
105.883 1500 38.7298
105.999 1397 37.3765
106.115 0 1
106.231 0 1
106.347 0 1
106.463 0 1
106.579 0 1
106.694 0 1
106.81 0 1
106.926 0 1
107.041 0 1
107.157 0 1
109.576 0 1
109.692 0 1
109.807 0 1
109.923 0 1
110.039 0 1
110.155 0 1
110.27 0 1
110.386 0 1
110.502 0 1
110.618 992 31.496
110.735 1306 36.1386
110.851 1539 39.2301
110.967 1701 41.2432
111.083 1852 43.0349
111.199 1942 44.0681
111.316 2028 45.0333
111.432 2062 45.4093
111.549 2189 46.7868
111.665 2190 46.7974
111.782 2166 46.5403
111.898 2148 46.3465
112.015 2093 45.7493
112.132 1983 44.5309
112.248 1894 43.5201
112.365 1834 42.8252
112.482 1819 42.6497
112.599 1911 43.715
112.716 2059 45.3762
112.832 2181 46.7012
112.949 2174 46.6262
113.066 2148 46.3465
113.183 2232 47.244
113.3 2208 46.9894
113.417 2094 45.7602
113.534 2033 45.0888
113.652 1771 42.0833
113.769 1629 40.3609
113.886 1600 40
114.003 1497 38.6911
114.12 1656 40.694
114.238 1764 42
114.355 1943 44.0795
114.472 1966 44.3396
114.589 2130 46.1519
114.707 2117 46.0109
114.824 2156 46.4327
114.942 2168 46.5618
115.059 2211 47.0213
115.176 2217 47.085
115.294 2130 46.1519
115.411 2093 45.7493
115.529 2068 45.4753
115.646 2029 45.0444
115.764 2053 45.31
115.881 1793 42.3438
115.999 1769 42.0595
116.116 1830 42.7785
116.234 1950 44.1588
116.351 2065 45.4423
116.469 2162 46.4973
116.586 2152 46.3897
116.704 2185 46.744
116.821 2168 46.5618
116.939 2253 47.4658
117.056 2172 46.6047
117.174 1980 44.4972
117.291 1752 41.8569
117.409 1640 40.4969
117.526 1582 39.7744
117.644 1584 39.7995
117.761 1715 41.4126
117.879 1819 42.6497
117.996 1914 43.7493
118.114 2069 45.4863
118.231 2036 45.1221
118.349 2105 45.8803
118.466 2121 46.0543
118.584 2118 46.0217
118.701 2139 46.2493
118.819 2112 45.9565
118.936 2144 46.3033
119.053 2075 45.5522
119.171 2028 45.0333
119.288 1996 44.6766
119.405 1908 43.6807
119.523 1734 41.6413
119.64 1786 42.2611
119.757 1847 42.9767
119.875 1875 43.3013
119.992 2125 46.0977
120.109 2062 45.4093
120.226 2050 45.2769
120.343 2062 45.4093
120.46 2095 45.7712
120.578 2081 45.618
120.695 2041 45.1774
120.812 1914 43.7493
120.929 1772 42.0951
121.046 1632 40.398
121.163 1506 38.8072
121.279 1406 37.4967
121.396 1449 38.0657
121.513 1598 39.975
121.63 1657 40.7063
121.747 1687 41.0731
121.863 1625 40.3113
121.98 1631 40.3856
122.097 1653 40.6571
122.213 1723 41.509
122.33 1648 40.5956
122.446 1586 39.8246
122.563 1516 38.9358
122.679 1392 37.3095
122.795 1344 36.6606
122.912 1237 35.171
123.028 1096 33.1059
123.144 944 30.7246
123.26 854 29.2233
123.377 0 1
123.493 0 1
123.609 0 1
123.725 0 1
123.84 0 1
123.956 0 1
124.072 0 1
124.188 0 1
124.303 0 1
124.419 0 1
126.852 0 1
126.968 0 1
127.083 0 1
127.199 0 1
127.315 0 1
127.431 0 1
127.547 0 1
127.663 0 1
127.779 0 1
127.895 0 1
128.011 0 1
128.127 0 1
128.243 0 1
128.359 1962 44.2945
128.476 1960 44.2719
128.592 1902 43.6119
128.708 1964 44.317
128.825 2065 45.4423
128.941 2062 45.4093
129.058 2098 45.8039
129.174 2263 47.571
129.291 2314 48.1041
129.408 2333 48.3011
129.524 2299 47.9479
129.641 2273 47.676
129.758 2192 46.8188
129.875 2032 45.0777
129.992 1878 43.3359
130.108 1728 41.5692
130.225 1538 39.2173
130.342 1644 40.5463
130.459 1791 42.3202
130.576 1922 43.8406
130.693 1941 44.0568
130.81 2012 44.8553
130.928 2108 45.913
131.045 2167 46.551
131.162 2208 46.9894
131.279 2322 48.1871
131.396 2284 47.7912
131.513 2158 46.4543
131.631 2237 47.2969
131.748 2110 45.9347
131.865 2074 45.5412
131.983 2097 45.793
132.1 2031 45.0666
132.217 1977 44.4635
132.335 2016 44.8999
132.452 2111 45.9456
132.57 2184 46.7333
132.687 2309 48.0521
132.804 2281 47.7598
132.922 2272 47.6655
133.039 2260 47.5395
133.157 2279 47.7389
133.274 2245 47.3814
133.392 2125 46.0977
133.509 1979 44.486
133.627 1849 43
133.744 1711 41.3642
133.862 1669 40.8534
133.979 1757 41.9166
134.097 1876 43.3128
134.214 1999 44.7102
134.332 2065 45.4423
134.449 2097 45.793
134.567 2209 47
134.684 2219 47.1063
134.802 2199 46.8935
134.919 2190 46.7974
135.037 2298 47.9375
135.154 2228 47.2017
135.272 2206 46.9681
135.389 2231 47.2335
135.507 2155 46.422
135.624 2096 45.7821
135.742 2050 45.2769
135.859 1996 44.6766
135.977 2149 46.3573
136.094 2109 45.9239
136.211 2167 46.551
136.329 2261 47.55
136.446 2351 48.4871
136.564 2272 47.6655
136.681 2335 48.3218
136.798 2343 48.4045
136.915 2230 47.2229
137.033 2238 47.3075
137.15 2026 45.0111
137.267 1843 42.9302
137.384 1851 43.0232
137.502 1668 40.8412
137.619 1674 40.9145
137.736 1852 43.0349
137.853 1973 44.4185
137.97 2042 45.1885
138.087 2081 45.618
138.204 2177 46.6583
138.321 2240 47.3286
138.438 2178 46.669
138.555 2205 46.9574
138.672 2226 47.1805
138.788 2084 45.6508
138.905 2052 45.299
139.022 2023 44.9778
139.139 1828 42.7551
139.255 1670 40.8656
139.372 1683 41.0244
139.488 1500 38.7298
139.605 1519 38.9744
139.721 1579 39.7366
139.838 1449 38.0657
139.954 1497 38.6911
140.071 1445 38.0132
140.187 1330 36.4692
140.303 1286 35.8608
140.419 1166 34.1467
140.535 1119 33.4515
140.652 990 31.4643
140.768 0 1
140.884 0 1
141 0 1
141.115 0 1
141.231 0 1
141.347 0 1
141.463 0 1
141.578 0 1
141.694 0 1
144.104 0 1
144.219 0 1
144.335 0 1
144.45 0 1
144.566 0 1
144.682 0 1
144.798 0 1
144.914 0 1
145.03 0 1
145.146 1540 39.2428
145.262 1779 42.1782
145.378 1808 42.5206
145.494 1781 42.2019
145.61 1749 41.821
145.726 1794 42.3556
145.842 1695 41.1704
145.959 1511 38.8716
146.075 1520 38.9872
146.192 1434 37.8682
146.308 1367 36.973
146.425 1374 37.0675
146.541 1582 39.7744
146.658 1517 38.9487
146.774 1589 39.8623
146.891 1625 40.3113
147.008 1627 40.3361
147.125 1708 41.328
147.241 1703 41.2674
147.358 1786 42.2611
147.475 1736 41.6653
147.592 1721 41.4849
147.709 1659 40.7308
147.826 1627 40.3361
147.943 1603 40.0375
148.06 1539 39.2301
148.177 1571 39.6358
148.294 1559 39.4842
148.411 1518 38.9615
148.528 1588 39.8497
148.645 1719 41.4608
148.762 1776 42.1426
148.88 1779 42.1782
148.997 1801 42.4382
149.114 1791 42.3202
149.231 1816 42.6146
149.349 1802 42.45
149.466 1754 41.8808
149.583 1563 39.5348
149.701 1493 38.6394
149.818 1444 38
149.935 1353 36.7831
150.053 1459 38.1969
150.17 1441 37.9605
150.287 1491 38.6135
150.405 1563 39.5348
150.522 1581 39.7618
150.64 1625 40.3113
150.757 1689 41.0974
150.875 1623 40.2865
150.992 1624 40.2989
151.11 1689 41.0974
151.227 1605 40.0625
151.344 1637 40.4599
151.462 1598 39.975
151.579 1538 39.2173
151.697 1529 39.1024
151.814 1472 38.3667
151.932 1539 39.2301
152.049 1572 39.6485
152.167 1621 40.2616
152.284 1665 40.8044
152.402 1712 41.3763
152.519 1689 41.0974
152.636 1716 41.4246
152.754 1771 42.0833
152.871 1737 41.6773
152.989 1571 39.6358
153.106 1670 40.8656
153.223 1514 38.9102
153.341 1434 37.8682
153.458 1330 36.4692
153.575 1276 35.7211
153.693 1353 36.7831
153.81 1376 37.0945
153.927 1438 37.921
154.044 1351 36.756
154.162 1497 38.6911
154.279 1554 39.4208
154.396 1614 40.1746
154.513 1604 40.05
154.63 1672 40.8901
154.747 1578 39.724
154.864 1566 39.5727
154.981 1554 39.4208
155.098 1529 39.1024
155.215 1428 37.7889
155.332 1329 36.4555
155.449 1378 37.1214
155.566 1374 37.0675
155.683 1472 38.3667
155.8 1440 37.9473
155.917 1459 38.1969
156.033 1441 37.9605
156.15 0 1
156.267 0 1
156.383 0 1
156.5 0 1
156.617 0 1
156.733 0 1
156.85 0 1
156.966 0 1
157.082 0 1
157.199 0 1
157.315 0 1
157.431 0 1
157.547 0 1
157.664 0 1
157.78 0 1
157.896 0 1
158.012 0 1
158.128 0 1
158.244 0 1
158.359 0 1
158.475 0 1
158.591 0 1
158.706 0 1
