
6.15755 0 1
6.2731 0 1
6.3887 0 1
6.50437 0 1
6.62009 0 1
6.73587 0 1
6.8517 0 1
6.96759 0 1
7.08353 0 1
7.19952 0 1
7.31557 0 1
7.43166 0 1
7.54781 0 1
7.664 0 1
7.78024 0 1
7.89653 0 1
8.01286 0 1
8.12924 0 1
8.24567 0 1
8.36213 0 1
8.47864 0 1
8.59519 0 1
8.71178 0 1
8.82841 0 1
8.94508 0 1
9.06179 0 1
9.17853 0 1
9.29531 0 1
9.41212 0 1
9.52897 0 1
9.64584 0 1
9.76276 0 1
9.8797 0 1
9.99667 0 1
10.1137 0 1
10.2307 0 1
10.3478 0 1
10.4648 0 1
10.5819 0 1
10.6991 0 1
10.8162 0 1
10.9334 0 1
11.0506 0 1
11.1678 0 1
11.285 0 1
11.4023 0 1
11.5196 0 1
11.6369 0 1
11.7542 0 1
11.8715 0 1
11.9888 0 1
12.1062 0 1
12.2235 0 1
12.3409 0 1
12.4582 0 1
12.5756 0 1
12.693 0 1
12.8104 0 1
12.9278 0 1
13.0452 0 1
13.1626 0 1
13.28 0 1
13.3974 0 1
13.5149 0 1
13.6323 0 1
13.7497 0 1
13.8671 0 1
13.9845 0 1
14.1019 0 1
14.2193 0 1
14.3367 0 1
14.4541 0 1
14.5714 0 1
14.6888 0 1
14.8062 0 1
14.9235 0 1
15.0408 0 0
15.1581 0 0
15.2755 0 0
15.3927 0 0
15.51 0 0
15.6273 0 0
15.7445 0 0
15.8617 0 0
15.9789 0 0
16.0961 0 0
16.2132 0 0
16.3304 0 0
16.4475 0 0
16.5646 0 0
16.6816 0 0
16.7986 0 0
16.9156 0 0
17.0326 0 0
17.1496 0 0
17.2665 0 0
17.3833 0 0
17.5002 0 0
17.617 0 0
17.7338 0 0
17.8505 0 0
17.9672 0 0
18.0839 0 0
18.2005 0 0
18.3171 0 0
18.4337 0 0
18.5502 0 0
18.6666 0 0
18.7831 0 0
18.8994 0 0
19.0158 0 0
19.1321 0 0
19.2483 0 0
19.3645 0 0
19.4806 0 0
19.5967 0 0
19.7128 0 0
19.8288 0 0
19.9447 0 0
20.0606 0 1
20.1764 0 1
20.2922 0 1
20.4079 0 1
20.5236 0 1
20.6392 0 1
20.7548 0 1
20.8702 0 1
23.3078 0 1
23.4233 0 1
23.539 0 1
23.6547 0 1
23.7704 0 1
23.8862 0 1
24.0021 0 1
24.118 0 1
24.234 0 1
24.35 0 1
24.4661 1762 41.9762
24.5822 1728 41.5692
24.6984 1838 42.8719
24.8146 1794 42.3556
24.9309 1744 41.7612
25.0472 1712 41.3763
25.1636 1652 40.6448
25.28 1692 41.1339
25.3965 1689 41.0974
25.513 1705 41.2916
25.6296 1734 41.6413
25.7462 1836 42.8486
25.8628 1919 43.8064
25.9795 1965 44.3283
26.0962 2057 45.3542
26.213 2002 44.7437
26.3298 2042 45.1885
26.4466 1981 44.5084
26.5635 1917 43.7836
26.6804 1843 42.9302
26.7973 1808 42.5206
26.9143 1768 42.0476
27.0313 1873 43.2782
27.1483 1786 42.2611
27.2653 1905 43.6463
27.3824 1984 44.5421
27.4996 2011 44.8442
27.6167 2023 44.9778
27.7339 1991 44.6206
27.8511 1912 43.7264
27.9683 1846 42.9651
28.0855 1849 43
28.2028 1824 42.7083
28.3201 1809 42.5323
28.4374 1828 42.7551
28.5547 1682 41.0122
28.6721 1736 41.6653
28.7894 1624 40.2989
28.9068 1628 40.3485
29.0242 1626 40.3237
29.1416 1723 41.509
29.259 1859 43.1161
29.3764 1791 42.3202
29.4939 1901 43.6005
29.6113 1908 43.6807
29.7288 2027 45.0222
29.8463 2094 45.7602
29.9638 2023 44.9778
30.0812 1840 42.8952
30.1987 1811 42.5558
30.3162 1767 42.0357
30.4337 1650 40.6202
30.5512 1791 42.3202
30.6687 1902 43.6119
30.7862 1925 43.8748
30.9037 1994 44.6542
31.0212 1931 43.9431
31.1387 1945 44.1022
31.2562 2033 45.0888
31.3737 1927 43.8976
31.4912 1877 43.3244
31.6087 1923 43.852
31.7262 1859 43.1161
31.8436 1903 43.6234
31.9611 1751 41.845
32.0785 1734 41.6413
32.1959 1732 41.6173
32.3134 1638 40.4722
32.4308 1648 40.5956
32.5482 1743 41.7493
32.6655 1810 42.5441
32.7829 1819 42.6497
32.9002 1885 43.4166
33.0176 1979 44.486
33.1349 2015 44.8888
33.2522 1962 44.2945
33.3694 2020 44.9444
33.4867 1956 44.2267
33.6039 1956 44.2267
33.7211 1921 43.8292
33.8383 1887 43.4396
33.9554 1731 41.6053
34.0725 1760 41.9524
34.1896 1740 41.7133
34.3067 1851 43.0232
34.4237 1839 42.8836
34.5407 1878 43.3359
34.6577 1950 44.1588
34.7746 1927 43.8976
34.8915 1928 43.909
35.0084 1995 44.6654
35.1252 1865 43.1856
35.242 1906 43.6578
35.3587 1940 44.0454
35.4755 1744 41.7612
35.5921 1728 41.5692
35.7088 1715 41.4126
35.8254 1689 41.0974
35.9419 1663 40.7799
36.0584 1593 39.9124
36.1749 1652 40.6448
36.2913 1687 41.0731
36.4077 1649 40.6079
36.524 1758 41.9285
36.6403 1830 42.7785
36.7565 1896 43.5431
36.8727 1882 43.382
36.9889 1910 43.7035
37.1049 1879 43.3474
37.221 0 1
37.3369 0 1
37.4529 0 1
37.5687 0 1
37.6845 0 1
37.8003 0 1
37.916 0 1
38.0316 0 1
38.1472 0 1
40.5851 0 1
40.7008 0 1
40.8164 0 1
40.9322 0 1
41.048 0 1
41.1639 0 1
41.2798 0 1
41.3958 0 1
41.5118 0 1
41.6279 0 1
41.744 1481 38.4838
41.8602 1582 39.7744
41.9765 1600 40
42.0928 1625 40.3113
42.2091 1668 40.8412
42.3255 1721 41.4849
42.4419 1695 41.1704
42.5584 1624 40.2989
42.675 1495 38.6652
42.7915 1465 38.2753
42.9081 1451 38.092
43.0248 1503 38.7685
43.1415 1606 40.0749
43.2582 1584 39.7995
43.375 1628 40.3485
43.4918 1741 41.7253
43.6087 1661 40.7554
43.7256 1611 40.1373
43.8425 1576 39.6989
43.9595 1593 39.9124
44.0765 1512 38.8844
44.1935 1595 39.9375
44.3106 1496 38.6782
44.4277 1460 38.2099
44.5448 1436 37.8946
44.6619 1303 36.0971
44.7791 1214 34.8425
44.8963 1178 34.322
45.0136 1230 35.0714
45.1308 1292 35.9444
45.2481 1309 36.1801
45.3654 1345 36.6742
45.4827 1446 38.0263
45.6001 1416 37.6298
45.7174 1423 37.7227
45.8348 1382 37.1753
45.9522 1406 37.4967
46.0697 1410 37.55
46.1871 1287 35.8748
46.3046 1241 35.2278
46.422 1167 34.1614
46.5395 1252 35.3836
46.657 1238 35.1852
46.7745 1278 35.7491
46.892 1233 35.1141
47.0096 1353 36.7831
47.1271 1340 36.606
47.2446 1354 36.7967
47.3622 1268 35.609
47.4797 1263 35.5387
47.5973 1201 34.6554
47.7149 1101 33.1813
47.8324 1103 33.2114
47.95 1098 33.1361
48.0675 1165 34.1321
48.1851 1051 32.4191
48.3027 1016 31.8748
48.4202 880 29.6648
48.5378 953 30.8707
48.6554 977 31.257
48.7729 1065 32.6343
48.8904 1023 31.9844
49.008 1150 33.9116
49.1255 1178 34.322
49.243 1172 34.2345
49.3605 1141 33.7787
49.478 1226 35.0143
49.5955 1145 33.8378
49.713 1072 32.7414
49.8304 1024 32
49.9479 994 31.5278
50.0653 1054 32.4654
50.1827 1134 33.6749
50.3001 1263 35.5387
50.4175 1227 35.0286
50.5348 1273 35.6791
50.6521 1302 36.0832
50.7694 1285 35.8469
50.8867 1393 37.3229
51.004 1369 37
51.1212 1357 36.8375
51.2384 1395 37.3497
51.3556 1312 36.2215
51.4727 1342 36.6333
51.5899 1322 36.3593
51.707 1253 35.3977
51.824 1211 34.7994
51.9411 1232 35.0999
52.0581 1313 36.2353
52.175 1347 36.7015
52.2919 1382 37.1753
52.4088 1499 38.7169
52.5257 1521 39
52.6425 1546 39.3192
52.7593 1635 40.4351
52.876 1559 39.4842
52.9927 1612 40.1497
53.1094 1619 40.2368
53.226 1638 40.4722
53.3426 1451 38.092
53.4591 1359 36.8646
53.5756 1338 36.5787
53.692 1405 37.4833
53.8084 1493 38.6394
53.9248 1584 39.7995
54.0411 1622 40.2741
54.1573 1708 41.328
54.2735 0 1
54.3896 0 1
54.5057 0 1
54.6217 0 1
54.7377 0 1
54.8537 0 1
54.9695 0 1
55.0853 0 1
55.2011 0 1
55.3168 0 1
55.4324 0 1
57.824 0 1
57.9396 0 1
58.0553 0 1
58.1711 0 1
58.2869 0 1
58.4028 0 1
58.5187 0 1
58.6347 0 1
58.7508 0 1
58.8669 0 1
58.983 1664 40.7922
59.0992 1852 43.0349
59.2155 2018 44.9222
59.3318 2088 45.6946
59.4482 2072 45.5192
59.5646 2009 44.8219
59.681 2054 45.3211
59.7975 1936 44
59.9141 2046 45.2327
60.0306 1918 43.795
60.1473 1749 41.821
60.2639 1763 41.9881
60.3807 1759 41.9404
60.4974 1680 40.9878
60.6142 1644 40.5463
60.731 1595 39.9375
60.8479 1664 40.7922
60.9648 1709 41.3401
61.0818 1844 42.9418
61.1987 1878 43.3359
61.3158 1869 43.2319
61.4328 1919 43.8064
61.5499 1894 43.5201
61.667 1863 43.1625
61.7841 1775 42.1307
61.9013 1600 40
62.0185 1594 39.9249
62.1357 1565 39.5601
62.253 1594 39.9249
62.3702 1703 41.2674
62.4875 1854 43.0581
62.6049 1901 43.6005
62.7222 1873 43.2782
62.8396 1815 42.6028
62.9569 1841 42.9069
63.0743 1896 43.5431
63.1918 1893 43.5086
63.3092 1855 43.0697
63.4267 1752 41.8569
63.5441 1721 41.4849
63.6616 1642 40.5216
63.7791 1661 40.7554
63.8966 1550 39.37
64.0142 1514 38.9102
64.1317 1462 38.2361
64.2492 1461 38.223
64.3668 1525 39.0512
64.4843 1619 40.2368
64.6019 1652 40.6448
64.7195 1719 41.4608
64.837 1767 42.0357
64.9546 1844 42.9418
65.0722 1794 42.3556
65.1898 1755 41.8927
65.3074 1664 40.7922
65.4249 1553 39.4081
65.5425 1534 39.1663
65.6601 1401 37.4299
65.7777 1439 37.9342
65.8952 1505 38.7943
66.0128 1649 40.6079
66.1304 1721 41.4849
66.2479 1756 41.9047
66.3655 1722 41.497
66.483 1760 41.9524
66.6005 1821 42.6732
66.718 1867 43.2088
66.8355 1835 42.8369
66.953 1761 41.9643
67.0705 1645 40.5586
67.1879 1666 40.8167
67.3054 1591 39.8873
67.4228 1619 40.2368
67.5402 1486 38.5487
67.6576 1439 37.9342
67.7749 1382 37.1753
67.8923 1387 37.2424
68.0096 1474 38.3927
68.1269 1500 38.7298
68.2442 1664 40.7922
68.3614 1689 41.0974
68.4787 1700 41.2311
68.5958 1652 40.6448
68.713 1790 42.3084
68.8302 1737 41.6773
68.9473 1743 41.7493
69.0643 1535 39.1791
69.1814 1517 38.9487
69.2984 1442 37.9737
69.4154 1495 38.6652
69.5323 1531 39.128
69.6492 1597 39.9625
69.7661 1798 42.4028
69.8829 1887 43.4396
69.9997 1878 43.3359
70.1165 1928 43.909
70.2332 1950 44.1588
70.3499 1857 43.0929
70.4665 1813 42.5793
70.5831 1918 43.795
70.6996 1884 43.4051
70.8161 1718 41.4488
70.9326 1662 40.7676
71.049 1625 40.3113
71.1653 1452 38.1051
71.2817 1405 37.4833
71.3979 1413 37.5899
71.5141 1289 35.9026
71.6303 1294 35.9722
71.7464 1249 35.3412
71.8624 0 1
71.9784 0 1
72.0944 0 1
72.2102 0 1
72.3261 0 1
72.4418 0 1
72.5575 0 1
72.6732 0 1
75.1054 0 1
75.2209 0 1
75.3365 0 1
75.4521 0 1
75.5678 0 1
75.6835 0 1
75.7993 0 1
75.9151 0 1
76.031 0 1
76.147 1490 38.6005
76.263 1622 40.2741
76.3791 1637 40.4599
76.4952 1598 39.975
76.6113 1456 38.1576
76.7276 1391 37.2961
76.8438 1403 37.4566
76.9601 1379 37.1349
77.0765 1444 38
77.1929 1645 40.5586
77.3093 1708 41.328
77.4258 1769 42.0595
77.5423 1818 42.638
77.6589 1754 41.8808
77.7755 1796 42.3792
77.8921 1720 41.4729
78.0088 1689 41.0974
78.1256 1458 38.1838
78.2423 1385 37.2156
78.3591 1343 36.647
78.4759 1382 37.1753
78.5928 1487 38.5616
78.7097 1666 40.8167
78.8266 1729 41.5812
78.9436 1756 41.9047
79.0606 1892 43.4971
79.1776 1832 42.8019
79.2946 1875 43.3013
79.4117 1785 42.2493
79.5288 1796 42.3792
79.6459 1799 42.4146
79.7631 1808 42.5206
79.8802 1719 41.4608
79.9974 1599 39.9875
80.1147 1477 38.4318
80.2319 1474 38.3927
80.3491 1375 37.081
80.4664 1336 36.5513
80.5837 1401 37.4299
80.701 1434 37.8682
80.8183 1549 39.3573
80.9357 1625 40.3113
81.053 1658 40.7185
81.1704 1712 41.3763
81.2877 1686 41.0609
81.4051 1640 40.4969
81.5225 1609 40.1123
81.6399 1506 38.8072
81.7573 1433 37.855
81.8747 1280 35.7771
81.9922 1268 35.609
82.1096 1264 35.5528
82.227 1431 37.8286
82.3444 1538 39.2173
82.4619 1575 39.6863
82.5793 1710 41.3521
82.6967 1604 40.05
82.8142 1586 39.8246
82.9316 1727 41.5572
83.049 1798 42.4028
83.1664 1650 40.6202
83.2838 1608 40.0999
83.4012 1565 39.5601
83.5186 1546 39.3192
83.636 1440 37.9473
83.7534 1419 37.6696
83.8708 1322 36.3593
83.9881 1173 34.2491
84.1055 1185 34.4238
84.2228 1233 35.1141
84.3401 1344 36.6606
84.4575 1444 38
84.5747 1519 38.9744
84.692 1648 40.5956
84.8093 1558 39.4715
84.9265 1617 40.2119
85.0437 1602 40.025
85.1609 1508 38.833
85.2781 1403 37.4566
85.3952 1361 36.8917
85.5123 1223 34.9714
85.6294 1282 35.805
85.7465 1452 38.1051
85.8636 1416 37.6298
85.9806 1612 40.1497
86.0976 1673 40.9023
86.2145 1732 41.6173
86.3315 1722 41.497
86.4484 1852 43.0349
86.5652 1865 43.1856
86.682 1882 43.382
86.7988 1814 42.5911
86.9156 1820 42.6615
87.0323 1747 41.7971
87.149 1609 40.1123
87.2657 1550 39.37
87.3823 1529 39.1024
87.4988 1481 38.4838
87.6154 1447 38.0395
87.7318 1440 37.9473
87.8483 1447 38.0395
87.9647 1602 40.025
88.081 1785 42.2493
88.1973 1838 42.8719
88.3136 1821 42.6732
88.4298 1815 42.6028
88.546 1793 42.3438
88.6621 1744 41.7612
88.7781 1521 39
88.8942 0 1
89.0101 0 1
89.126 0 1
89.2419 0 1
89.3577 0 1
89.4734 0 1
89.5891 0 1
89.7047 0 1
89.8203 0 1
89.9358 0 1
92.3269 0 1
92.4424 0 1
92.558 0 1
92.6736 0 1
92.7893 0 1
92.905 0 1
93.0208 0 1
93.1366 0 1
93.2525 0 1
93.3685 0 1
93.4845 0 1
93.6005 1753 41.8688
93.7167 1836 42.8486
93.8328 1781 42.2019
93.949 1784 42.2374
94.0653 1754 41.8808
94.1816 1711 41.3642
94.2979 1614 40.1746
94.4143 1502 38.7556
94.5307 1423 37.7227
94.6472 1465 38.2753
94.7637 1496 38.6782
94.8803 1686 41.0609
94.9969 1688 41.0853
95.1135 1850 43.0116
95.2302 1903 43.6234
95.3469 1964 44.317
95.4637 1943 44.0795
95.5805 1961 44.2832
95.6973 2030 45.0555
95.8142 2059 45.3762
95.9311 2014 44.8776
96.048 1999 44.7102
96.1649 1872 43.2666
96.2819 1946 44.1135
96.3989 1864 43.1741
96.516 1769 42.0595
96.633 1587 39.8372
96.7501 1562 39.5221
96.8673 1564 39.5474
96.9844 1638 40.4722
97.1016 1847 42.9767
97.2188 1794 42.3556
97.336 1986 44.5646
97.4532 1998 44.699
97.5704 2030 45.0555
97.6877 1896 43.5431
97.805 1887 43.4396
97.9223 1754 41.8808
98.0396 1681 41
98.1569 1585 39.8121
98.2743 1587 39.8372
98.3916 1556 39.4462
98.509 1725 41.5331
98.6264 1820 42.6615
98.7438 1925 43.8748
98.8612 2048 45.2548
98.9786 2167 46.551
99.096 2047 45.2438
99.2134 2188 46.7761
99.3308 2165 46.5296
99.4482 2183 46.7226
99.5656 2193 46.8295
99.6831 2161 46.4866
99.8005 2030 45.0555
99.9179 2131 46.1628
100.035 1882 43.382
100.153 1823 42.6966
100.27 1750 41.833
100.388 1700 41.2311
100.505 1762 41.9762
100.622 1913 43.7379
100.74 2009 44.8219
100.857 2092 45.7384
100.975 2087 45.6837
101.092 2129 46.1411
101.209 2173 46.6154
101.327 2077 45.5741
101.444 2028 45.0333
101.561 1830 42.7785
101.679 1779 42.1782
101.796 1726 41.5452
101.913 1684 41.0366
102.03 1776 42.1426
102.148 1924 43.8634
102.265 2138 46.2385
102.382 2002 44.7437
102.499 2238 47.3075
102.616 2239 47.3181
102.733 2257 47.5079
102.851 2299 47.9479
102.968 2352 48.4974
103.085 2310 48.0625
103.202 2205 46.9574
103.319 2247 47.4025
103.436 2242 47.3498
103.552 2074 45.5412
103.669 2038 45.1442
103.786 1846 42.9651
103.903 1833 42.8135
104.02 1971 44.3959
104.137 2019 44.9333
104.253 2218 47.0956
104.37 2187 46.7654
104.487 2373 48.7134
104.603 2318 48.1456
104.72 2327 48.239
104.836 2254 47.4763
104.953 2062 45.4093
105.069 2025 45
105.186 1911 43.715
105.302 1866 43.1972
105.418 1840 42.8952
105.535 1938 44.0227
105.651 2115 45.9891
105.767 2147 46.3357
105.883 2320 48.1664
105.999 2363 48.6107
106.115 0 1
106.231 0 1
106.347 0 1
106.463 0 1
106.579 0 1
106.694 0 1
106.81 0 1
106.926 0 1
107.041 0 1
107.157 0 1
109.576 0 1
109.692 0 1
109.807 0 1
109.923 0 1
110.039 0 1
110.155 0 1
110.27 0 1
110.386 0 1
110.502 0 1
110.618 1816 42.6146
110.735 2063 45.4203
110.851 2234 47.2652
110.967 2265 47.592
111.083 2299 47.9479
111.199 2304 48
111.316 2387 48.8569
111.432 2316 48.1248
111.549 2369 48.6724
111.665 2365 48.6313
111.782 2231 47.2335
111.898 2271 47.655
112.015 2207 46.9787
112.132 2075 45.5522
112.248 1887 43.4396
112.365 1899 43.5775
112.482 1816 42.6146
112.599 1893 43.5086
112.716 2098 45.8039
112.832 2144 46.3033
112.949 2281 47.7598
113.066 2244 47.3709
113.183 2295 47.9062
113.3 2204 46.9468
113.417 2104 45.8694
113.534 2091 45.7275
113.652 1895 43.5316
113.769 1831 42.7902
113.886 1718 41.4488
114.003 1762 41.9762
114.12 1764 42
114.238 2060 45.3872
114.355 2121 46.0543
114.472 2341 48.3839
114.589 2214 47.0532
114.707 2288 47.833
114.824 2366 48.6415
114.942 2390 48.8876
115.059 2325 48.2183
115.176 2339 48.3632
115.294 2236 47.2864
115.411 2202 46.9255
115.529 2252 47.4552
115.646 2063 45.4203
115.764 2004 44.7661
115.881 1866 43.1972
115.999 1838 42.8719
116.116 1873 43.2782
116.234 1929 43.9204
116.351 2106 45.8912
116.469 2203 46.9361
116.586 2163 46.5081
116.704 2217 47.085
116.821 2203 46.9361
116.939 2109 45.9239
117.056 1943 44.0795
117.174 1815 42.6028
117.291 1717 41.4367
117.409 1677 40.9512
117.526 1629 40.3609
117.644 1717 41.4367
117.761 1782 42.2137
117.879 2036 45.1221
117.996 2073 45.5302
118.114 2119 46.0326
118.231 2104 45.8694
118.349 2094 45.7602
118.466 2300 47.9583
118.584 2220 47.1169
118.701 2237 47.2969
118.819 2244 47.3709
118.936 2111 45.9456
119.053 2124 46.0869
119.171 2111 45.9456
119.288 1928 43.909
119.405 1736 41.6653
119.523 1641 40.5093
119.64 1766 42.0238
119.757 1830 42.7785
119.875 1878 43.3359
119.992 2062 45.4093
120.109 1981 44.5084
120.226 1978 44.4747
120.343 2014 44.8776
120.46 2065 45.4423
120.578 1994 44.6542
120.695 1862 43.1509
120.812 1796 42.3792
120.929 1729 41.5812
121.046 1640 40.4969
121.163 1599 39.9875
121.279 1649 40.6079
121.396 1776 42.1426
121.513 1826 42.7317
121.63 1860 43.1277
121.747 1952 44.1814
121.863 2013 44.8665
121.98 2101 45.8367
122.097 2035 45.111
122.213 2129 46.1411
122.33 2091 45.7275
122.446 2038 45.1442
122.563 2037 45.1331
122.679 1959 44.2606
122.795 1974 44.4297
122.912 1853 43.0465
123.028 1833 42.8135
123.144 1657 40.7063
123.26 1619 40.2368
123.377 0 1
123.493 0 1
123.609 0 1
123.725 0 1
123.84 0 1
123.956 0 1
124.072 0 1
124.188 0 1
124.303 0 1
124.419 0 1
126.852 0 1
126.968 0 1
127.083 0 1
127.199 0 1
127.315 0 1
127.431 0 1
127.547 0 1
127.663 0 1
127.779 0 1
127.895 0 1
128.011 0 1
128.127 0 1
128.243 0 1
128.359 1834 42.8252
128.476 1834 42.8252
128.592 1808 42.5206
128.708 1851 43.0232
128.825 1866 43.1972
128.941 2065 45.4423
129.058 2052 45.299
129.174 2107 45.9021
129.291 2091 45.7275
129.408 2067 45.4643
129.524 2100 45.8258
129.641 1939 44.0341
129.758 1802 42.45
129.875 1666 40.8167
129.992 1736 41.6653
130.108 1713 41.3884
130.225 1718 41.4488
130.342 1769 42.0595
130.459 1827 42.7434
130.576 1974 44.4297
130.693 1972 44.4072
130.81 2146 46.3249
130.928 2083 45.6399
131.045 2090 45.7165
131.162 2062 45.4093
131.279 2137 46.2277
131.396 2173 46.6154
131.513 2072 45.5192
131.631 2055 45.3321
131.748 1967 44.3509
131.865 1851 43.0232
131.983 1866 43.1972
132.1 1866 43.1972
132.217 1832 42.8019
132.335 1873 43.2782
132.452 1990 44.6094
132.57 2092 45.7384
132.687 2090 45.7165
132.804 2215 47.0638
132.922 2123 46.076
133.039 2039 45.1553
133.157 1898 43.566
133.274 1848 42.9884
133.392 1679 40.9756
133.509 1694 41.1582
133.627 1709 41.3401
133.744 1725 41.5331
133.862 1863 43.1625
133.979 1874 43.2897
134.097 1863 43.1625
134.214 2037 45.1331
134.332 2034 45.0999
134.449 2022 44.9667
134.567 2169 46.5725
134.684 2089 45.7056
134.802 2110 45.9347
134.919 2124 46.0869
135.037 2212 47.0319
135.154 2084 45.6508
135.272 2017 44.911
135.389 1950 44.1588
135.507 1922 43.8406
135.624 1725 41.5331
135.742 1884 43.4051
135.859 1909 43.6921
135.977 1898 43.566
136.094 2095 45.7712
136.211 2085 45.6618
136.329 2126 46.1086
136.446 2114 45.9783
136.564 2159 46.465
136.681 2010 44.833
136.798 1863 43.1625
136.915 1819 42.6497
137.033 1752 41.8569
137.15 1668 40.8412
137.267 1634 40.4228
137.384 1660 40.7431
137.502 1689 41.0974
137.619 1896 43.5431
137.736 1942 44.0681
137.853 2017 44.911
137.97 2047 45.2438
138.087 1909 43.6921
138.204 2106 45.8912
138.321 2070 45.4973
138.438 2174 46.6262
138.555 2109 45.9239
138.672 2087 45.6837
138.788 2072 45.5192
138.905 2075 45.5522
139.022 2016 44.8999
139.139 1905 43.6463
139.255 1872 43.2666
139.372 1847 42.9767
139.488 2044 45.2106
139.605 2070 45.4973
139.721 2171 46.594
139.838 2148 46.3465
139.954 2125 46.0977
140.071 2099 45.8148
140.187 2130 46.1519
140.303 2012 44.8553
140.419 1987 44.5758
140.535 1848 42.9884
140.652 1760 41.9524
140.768 0 1
140.884 0 1
141 0 1
141.115 0 1
141.231 0 1
141.347 0 1
141.463 0 1
141.578 0 1
141.694 0 1
144.104 0 1
144.219 0 1
144.335 0 1
144.45 0 1
144.566 0 1
144.682 0 1
144.798 0 1
144.914 0 1
145.03 0 1
145.146 1816 42.6146
145.262 1801 42.4382
145.378 1685 41.0488
145.494 1543 39.281
145.61 1568 39.598
145.726 1478 38.4448
145.842 1501 38.7427
145.959 1471 38.3536
146.075 1568 39.598
146.192 1608 40.0999
146.308 1761 41.9643
146.425 1691 41.1218
146.541 1778 42.1663
146.658 1748 41.8091
146.774 1854 43.0581
146.891 1821 42.6732
147.008 1807 42.5088
147.125 1834 42.8252
147.241 1884 43.4051
147.358 1848 42.9884
147.475 1776 42.1426
147.592 1784 42.2374
147.709 1779 42.1782
147.826 1622 40.2741
147.943 1661 40.7554
148.06 1728 41.5692
148.177 1734 41.6413
148.294 1805 42.4853
148.411 1808 42.5206
148.528 1794 42.3556
148.645 1856 43.0813
148.762 1848 42.9884
148.88 1768 42.0476
148.997 1630 40.3733
149.114 1619 40.2368
149.231 1540 39.2428
149.349 1548 39.3446
149.466 1435 37.8814
149.583 1481 38.4838
149.701 1525 39.0512
149.818 1603 40.0375
149.935 1568 39.598
150.053 1656 40.694
150.17 1649 40.6079
150.287 1588 39.8497
150.405 1775 42.1307
150.522 1741 41.7253
150.64 1838 42.8719
150.757 1821 42.6732
150.875 1710 41.3521
150.992 1762 41.9762
151.11 1784 42.2374
151.227 1726 41.5452
151.344 1617 40.2119
151.462 1556 39.4462
151.579 1587 39.8372
151.697 1510 38.8587
151.814 1676 40.939
151.932 1709 41.3401
152.049 1808 42.5206
152.167 1707 41.3159
152.284 1819 42.6497
152.402 1701 41.2432
152.519 1720 41.4729
152.636 1633 40.4104
152.754 1556 39.4462
152.871 1604 40.05
152.989 1476 38.4187
153.106 1456 38.1576
153.223 1333 36.5103
153.341 1531 39.128
153.458 1585 39.8121
153.575 1542 39.2683
153.693 1669 40.8534
153.81 1632 40.398
153.927 1724 41.5211
154.044 1820 42.6615
154.162 1838 42.8719
154.279 1726 41.5452
154.396 1836 42.8486
154.513 1807 42.5088
154.63 1836 42.8486
154.747 1852 43.0349
154.864 1833 42.8135
154.981 1682 41.0122
155.098 1682 41.0122
155.215 1673 40.9023
155.332 1672 40.8901
155.449 1796 42.3792
155.566 1865 43.1856
155.683 1862 43.1509
155.8 1891 43.4856
155.917 1857 43.0929
156.033 1818 42.638
156.15 0 1
156.267 0 1
156.383 0 1
156.5 0 1
156.617 0 1
156.733 0 1
156.85 0 1
156.966 0 1
157.082 0 1
157.199 0 1
157.315 0 1
157.431 0 1
157.547 0 1
157.664 0 1
157.78 0 1
157.896 0 1
158.012 0 1
158.128 0 1
158.244 0 1
158.359 0 1
158.475 0 1
158.591 0 1
158.706 0 1
