
6.15755 0 1
6.2731 0 1
6.3887 0 1
6.50437 0 1
6.62009 0 1
6.73587 0 1
6.8517 0 1
6.96759 0 1
7.08353 0 1
7.19952 0 1
7.31557 0 1
7.43166 0 1
7.54781 0 1
7.664 0 1
7.78024 0 1
7.89653 0 1
8.01286 0 1
8.12924 0 1
8.24567 0 1
8.36213 0 1
8.47864 0 1
8.59519 0 1
8.71178 0 1
8.82841 0 1
8.94508 0 1
9.06179 0 1
9.17853 0 1
9.29531 0 1
9.41212 0 1
9.52897 0 1
9.64584 0 1
9.76276 0 1
9.8797 0 1
9.99667 0 1
10.1137 0 1
10.2307 0 1
10.3478 0 1
10.4648 0 1
10.5819 0 1
10.6991 0 1
10.8162 0 1
10.9334 0 1
11.0506 0 1
11.1678 0 1
11.285 0 1
11.4023 0 1
11.5196 0 1
11.6369 0 1
11.7542 0 1
11.8715 0 1
11.9888 0 1
12.1062 0 1
12.2235 0 1
12.3409 0 1
12.4582 0 1
12.5756 0 1
12.693 0 1
12.8104 0 1
12.9278 0 1
13.0452 0 1
13.1626 0 1
13.28 0 1
13.3974 0 1
13.5149 0 1
13.6323 0 1
13.7497 0 1
13.8671 0 1
13.9845 0 1
14.1019 0 1
14.2193 0 1
14.3367 0 1
14.4541 0 1
14.5714 0 1
14.6888 0 1
14.8062 0 1
14.9235 0 1
15.0408 0 0
15.1581 0 0
15.2755 0 0
15.3927 0 0
15.51 0 0
15.6273 0 0
15.7445 0 0
15.8617 0 0
15.9789 0 0
16.0961 0 0
16.2132 0 0
16.3304 0 0
16.4475 0 0
16.5646 0 0
16.6816 0 0
16.7986 0 0
16.9156 0 0
17.0326 0 0
17.1496 0 0
17.2665 0 0
17.3833 0 0
17.5002 0 0
17.617 0 0
17.7338 0 0
17.8505 0 0
17.9672 0 0
18.0839 0 0
18.2005 0 0
18.3171 0 0
18.4337 0 0
18.5502 0 0
18.6666 0 0
18.7831 0 0
18.8994 0 0
19.0158 0 0
19.1321 0 0
19.2483 0 0
19.3645 0 0
19.4806 0 0
19.5967 0 0
19.7128 0 0
19.8288 0 0
19.9447 0 0
20.0606 0 1
20.1764 0 1
20.2922 0 1
20.4079 0 1
20.5236 0 1
20.6392 0 1
20.7548 0 1
20.8702 0 1
23.3078 0 1
23.4233 0 1
23.539 0 1
23.6547 0 1
23.7704 0 1
23.8862 0 1
24.0021 0 1
24.118 0 1
24.234 0 1
24.35 0 1
24.4661 60175 245.306
24.5822 60476 245.919
24.6984 59636 244.205
24.8146 59472 243.869
24.9309 59252 243.417
25.0472 57683 240.173
25.1636 56789 238.304
25.28 56317 237.312
25.3965 57159 239.079
25.513 58720 242.322
25.6296 61128 247.241
25.7462 64119 253.217
25.8628 65749 256.416
25.9795 67493 259.794
26.0962 67791 260.367
26.213 67791 260.367
26.3298 67071 258.981
26.4466 66924 258.697
26.5635 66369 257.622
26.6804 62964 250.926
26.7973 60892 246.763
26.9143 60938 246.856
27.0313 61473 247.937
27.1483 64460 253.89
27.2653 65900 256.71
27.3824 67054 258.948
27.4996 67727 260.244
27.6167 66251 257.393
27.7339 65277 255.494
27.8511 64406 253.783
27.9683 63650 252.29
28.0855 62452 249.904
28.2028 61218 247.423
28.3201 61547 248.087
28.4374 59125 243.156
28.5547 58105 241.05
28.6721 56478 237.651
28.7894 55151 234.843
28.9068 55935 236.506
29.0242 57543 239.881
29.1416 59045 242.992
29.259 60332 245.626
29.3764 62682 250.364
29.4939 64940 254.833
29.6113 66330 257.546
29.7288 66479 257.835
29.8463 66685 258.234
29.9638 66771 258.401
30.0812 64538 254.043
30.1987 62178 249.355
30.3162 59474 243.873
30.4337 58493 241.853
30.5512 60461 245.888
30.6687 63299 251.593
30.7862 63917 252.818
30.9037 66257 257.404
31.0212 67195 259.22
31.1387 67262 259.349
31.2562 66163 257.222
31.3737 65120 255.186
31.4912 64600 254.165
31.6087 63923 252.83
31.7262 63112 251.221
31.8436 61577 248.147
31.9611 60438 245.841
32.0785 59254 243.421
32.1959 57187 239.138
32.3134 56051 236.751
32.4308 56371 237.426
32.5482 57465 239.719
32.6655 59205 243.321
32.7829 61162 247.31
32.9002 63627 252.244
33.0176 65097 255.141
33.1349 66174 257.243
33.2522 65934 256.776
33.3694 67029 258.9
33.4867 67334 259.488
33.6039 66911 258.672
33.7211 65406 255.746
33.8383 62742 250.484
33.9554 59491 243.908
34.0725 57325 239.426
34.1896 59182 243.274
34.3067 61630 248.254
34.4237 63126 251.249
34.5407 65285 255.509
34.6577 65868 256.648
34.7746 66096 257.091
34.8915 66223 257.338
35.0084 65384 255.703
35.1252 64079 253.138
35.242 63037 251.072
35.3587 62210 249.419
35.4755 61856 248.709
35.5921 60468 245.902
35.7088 59086 243.076
35.8254 57277 239.326
35.9419 55602 235.801
36.0584 54174 232.753
36.1749 54641 233.754
36.2913 55697 236.002
36.4077 56939 238.619
36.524 58821 242.53
36.6403 59922 244.79
36.7565 62923 250.845
36.8727 63996 252.974
36.9889 64215 253.407
37.1049 63771 252.529
37.221 0 1
37.3369 0 1
37.4529 0 1
37.5687 0 1
37.6845 0 1
37.8003 0 1
37.916 0 1
38.0316 0 1
38.1472 0 1
40.5851 0 1
40.7008 0 1
40.8164 0 1
40.9322 0 1
41.048 0 1
41.1639 0 1
41.2798 0 1
41.3958 0 1
41.5118 0 1
41.6279 0 1
41.744 47930 218.929
41.8602 51753 227.493
41.9765 53620 231.56
42.0928 55023 234.57
42.2091 55484 235.55
42.3255 55754 236.123
42.4419 55352 235.27
42.5584 53703 231.739
42.675 50302 224.281
42.7915 48009 219.11
42.9081 47342 217.582
43.0248 49377 222.209
43.1415 51511 226.96
43.2582 52854 229.9
43.375 53964 232.302
43.4918 55154 234.849
43.6087 54716 233.915
43.7256 54102 232.598
43.8425 52879 229.954
43.9595 51869 227.748
44.0765 50781 225.346
44.1935 50197 224.047
44.3106 49026 221.418
44.4277 47757 218.534
44.5448 45582 213.499
44.6619 43143 207.709
44.7791 41152 202.86
44.8963 40872 202.168
45.0136 41127 202.798
45.1308 41890 204.67
45.2481 42600 206.398
45.3654 44275 210.416
45.4827 46458 215.541
45.6001 45872 214.177
45.7174 46535 215.72
45.8348 45924 214.299
45.9522 45801 214.012
46.0697 44628 211.253
46.1871 41812 204.48
46.3046 39255 198.129
46.422 37382 193.344
46.5395 38056 195.079
46.657 39659 199.146
46.7745 40899 202.235
46.892 41067 202.65
47.0096 42002 204.944
47.1271 41659 204.105
47.2446 41362 203.376
47.3622 40530 201.321
47.4797 39755 199.387
47.5973 38978 197.428
47.7149 37425 193.455
47.8324 36703 191.58
47.95 35647 188.804
48.0675 35235 187.71
48.1851 32503 180.286
48.3027 31153 176.502
48.4202 30413 174.393
48.5378 31084 176.307
48.6554 31587 177.727
48.7729 32658 180.715
48.8904 34447 185.599
49.008 36346 190.646
49.1255 37171 192.798
49.243 37950 194.808
49.3605 37919 194.728
49.478 37651 194.039
49.5955 36798 191.828
49.713 33970 184.31
49.8304 32871 181.304
49.9479 32143 179.285
50.0653 33176 182.143
50.1827 36804 191.844
50.3001 38159 195.343
50.4175 40158 200.395
50.5348 41336 203.313
50.6521 42093 205.166
50.7694 43201 207.849
50.8867 43429 208.396
51.004 43244 207.952
51.1212 43689 209.019
51.2384 43532 208.643
51.3556 43316 208.125
51.4727 42985 207.328
51.5899 42346 205.781
51.707 41057 202.625
51.824 39968 199.92
51.9411 39763 199.407
52.0581 41077 202.675
52.175 43169 207.772
52.2919 45273 212.775
52.4088 48089 219.292
52.5257 50271 224.212
52.6425 51304 226.504
52.7593 51161 226.188
52.876 51871 227.752
52.9927 52205 228.484
53.1094 52680 229.521
53.226 50651 225.058
53.3426 47682 218.362
53.4591 45774 213.949
53.5756 44592 211.168
53.692 46796 216.324
53.8084 49494 222.472
53.9248 51649 227.264
54.0411 53439 231.169
54.1573 54801 234.096
54.2735 0 1
54.3896 0 1
54.5057 0 1
54.6217 0 1
54.7377 0 1
54.8537 0 1
54.9695 0 1
55.0853 0 1
55.2011 0 1
55.3168 0 1
55.4324 0 1
57.824 0 1
57.9396 0 1
58.0553 0 1
58.1711 0 1
58.2869 0 1
58.4028 0 1
58.5187 0 1
58.6347 0 1
58.7508 0 1
58.8669 0 1
58.983 56197 237.059
59.0992 60414 245.793
59.2155 62883 250.765
59.3318 64798 254.555
59.4482 65122 255.19
59.5646 65827 256.568
59.681 65812 256.538
59.7975 64874 254.704
59.9141 63854 252.693
60.0306 62266 249.532
60.1473 60587 246.144
60.2639 58862 242.615
60.3807 55681 235.968
60.4974 53608 231.534
60.6142 52661 229.48
60.731 53335 230.944
60.8479 53420 231.128
60.9648 55559 235.71
61.0818 57511 239.815
61.1987 59770 244.479
61.3158 60507 245.982
61.4328 60715 246.404
61.5499 60220 245.398
61.667 59409 243.74
61.7841 57465 239.719
61.9013 54675 233.827
62.0185 51921 227.862
62.1357 52119 228.296
62.253 53033 230.289
62.3702 55301 235.162
62.4875 57380 239.541
62.6049 59249 243.411
62.7222 61509 248.01
62.8396 60700 246.374
62.9569 61606 248.206
63.0743 61421 247.833
63.1918 61125 247.235
63.3092 60241 245.44
63.4267 58436 241.735
63.5441 57706 240.221
63.6616 55556 235.703
63.7791 53552 231.413
63.8966 50659 225.076
64.0142 48914 221.165
64.1317 48163 219.461
64.2492 47671 218.337
64.3668 49799 223.157
64.4843 50901 225.612
64.6019 53659 231.644
64.7195 55232 235.015
64.837 56237 237.143
64.9546 56234 237.137
65.0722 56103 236.861
65.1898 55088 234.708
65.3074 54331 233.09
65.4249 50639 225.031
65.5425 48104 219.326
65.6601 46376 215.351
65.7777 47449 217.828
65.8952 49578 222.661
66.0128 52232 228.543
66.1304 54309 233.043
66.2479 56161 236.983
66.3655 56678 238.071
66.483 57736 240.283
66.6005 58005 240.842
66.718 57966 240.761
66.8355 57376 239.533
66.953 56569 237.842
67.0705 55582 235.758
67.1879 54195 232.798
67.3054 52759 229.693
67.4228 50914 225.641
67.5402 47867 218.785
67.6576 45889 214.217
67.7749 45180 212.556
67.8923 45601 213.544
68.0096 47495 217.933
68.1269 49927 223.444
68.2442 53095 230.424
68.3614 54978 234.474
68.4787 55782 236.182
68.5958 55136 234.811
68.713 56012 236.669
68.8302 55747 236.108
68.9473 54094 232.581
69.0643 50903 225.617
69.1814 48365 219.92
69.2984 46863 216.479
69.4154 48011 219.114
69.5323 50964 225.752
69.6492 53710 231.754
69.7661 55790 236.199
69.8829 58591 242.056
69.9997 59729 244.395
70.1165 60508 245.984
70.2332 60893 246.765
70.3499 60684 246.341
70.4665 60207 245.371
70.5831 59269 243.452
70.6996 58369 241.597
70.8161 56688 238.092
70.9326 55389 235.349
71.049 52964 230.139
71.1653 50039 223.694
71.2817 46456 215.537
71.3979 44312 210.504
71.5141 44490 210.927
71.6303 44171 210.169
71.7464 41130 202.805
71.8624 0 1
71.9784 0 1
72.0944 0 1
72.2102 0 1
72.3261 0 1
72.4418 0 1
72.5575 0 1
72.6732 0 1
75.1054 0 1
75.2209 0 1
75.3365 0 1
75.4521 0 1
75.5678 0 1
75.6835 0 1
75.7993 0 1
75.9151 0 1
76.031 0 1
76.147 48797 220.9
76.263 52490 229.107
76.3791 52804 229.791
76.4952 50870 225.544
76.6113 47687 218.374
76.7276 44993 212.116
76.8438 45209 212.624
76.9601 46964 216.712
77.0765 48559 220.361
77.1929 51507 226.952
77.3093 55164 234.87
77.4258 56114 236.884
77.5423 56425 237.539
77.6589 56679 238.074
77.7755 56335 237.35
77.8921 54728 233.94
78.0088 51645 227.255
78.1256 47903 218.868
78.2423 45371 213.005
78.3591 43738 209.136
78.4759 44676 211.367
78.5928 48503 220.234
78.7097 51461 226.85
78.8266 53544 231.396
78.9436 56754 238.231
79.0606 57203 239.171
79.1776 58104 241.048
79.2946 58115 241.071
79.4117 58069 240.975
79.5288 58156 241.156
79.6459 57743 240.298
79.7631 55371 235.31
79.8802 54047 232.48
79.9974 52151 228.366
80.1147 50013 223.636
80.2319 46270 215.105
80.3491 43337 208.175
80.4664 43347 208.199
80.5837 44527 211.014
80.701 46465 215.557
80.8183 49264 221.955
80.9357 52094 228.241
81.053 52898 229.996
81.1704 52970 230.152
81.2877 53303 230.874
81.4051 53694 231.72
81.5225 52248 228.578
81.6399 48345 219.875
81.7573 46060 214.616
81.8747 42265 205.585
81.9922 40723 201.799
82.1096 41687 204.174
82.227 44681 211.379
82.3444 47514 217.977
82.4619 50198 224.049
82.5793 52823 229.833
82.6967 51865 227.739
82.8142 52755 229.685
82.9316 53694 231.72
83.049 52986 230.187
83.1664 52165 228.397
83.2838 51406 226.729
83.4012 49997 223.6
83.5186 48680 220.635
83.636 46927 216.626
83.7534 44367 210.635
83.8708 41463 203.625
83.9881 38799 196.975
84.1055 39245 198.104
84.2228 40510 201.271
84.3401 42475 206.095
84.4575 44844 211.764
84.5747 48264 219.691
84.692 49589 222.686
84.8093 50144 223.929
84.9265 49860 223.294
85.0437 50051 223.721
85.1609 47954 218.984
85.2781 44080 209.952
85.3952 41539 203.811
85.5123 39831 199.577
85.6294 39632 199.078
85.7465 43043 207.468
85.8636 46994 216.781
85.9806 49754 223.056
86.0976 52230 228.539
86.2145 54507 233.467
86.3315 54959 234.433
86.4484 57349 239.477
86.5652 57593 239.985
86.682 57958 240.745
86.7988 57273 239.318
86.9156 56544 237.79
87.0323 55333 235.23
87.149 53862 232.082
87.2657 52177 228.423
87.3823 49241 221.903
87.4988 46653 215.993
87.6154 44946 212.005
87.7318 46752 216.222
87.8483 48983 221.321
87.9647 52111 228.278
88.081 56074 236.799
88.1973 57578 239.954
88.3136 57997 240.826
88.4298 57633 240.069
88.546 57181 239.125
88.6621 55273 235.102
88.7781 51644 227.253
88.8942 0 1
89.0101 0 1
89.126 0 1
89.2419 0 1
89.3577 0 1
89.4734 0 1
89.5891 0 1
89.7047 0 1
89.8203 0 1
89.9358 0 1
92.3269 0 1
92.4424 0 1
92.558 0 1
92.6736 0 1
92.7893 0 1
92.905 0 1
93.0208 0 1
93.1366 0 1
93.2525 0 1
93.3685 0 1
93.4845 0 1
93.6005 56745 238.212
93.7167 57558 239.912
93.8328 58244 241.338
93.949 57798 240.412
94.0653 56906 238.55
94.1816 54364 233.161
94.2979 51751 227.488
94.4143 48831 220.977
94.5307 47325 217.543
94.6472 46919 216.608
94.7637 47893 218.845
94.8803 52145 228.353
94.9969 55382 235.334
95.1135 57439 239.664
95.2302 59803 244.547
95.3469 60245 245.449
95.4637 62031 249.06
95.5805 63358 251.71
95.6973 63857 252.699
95.8142 64327 253.628
95.9311 63052 251.102
96.048 62745 250.49
96.1649 60634 246.24
96.2819 59204 243.319
96.3989 57205 239.176
96.516 54964 234.444
96.633 51321 226.541
96.7501 49698 222.93
96.8673 50227 224.114
96.9844 52424 228.963
97.1016 55416 235.406
97.2188 58750 242.384
97.336 60726 246.426
97.4532 62539 250.078
97.5704 62366 249.732
97.6877 60757 246.489
97.805 59298 243.512
97.9223 55254 235.062
98.0396 52250 228.583
98.1569 50246 224.156
98.2743 48821 220.955
98.3916 49984 223.571
98.509 53396 231.076
98.6264 57862 240.545
98.7438 60791 246.558
98.8612 62705 250.41
98.9786 64622 254.209
99.096 66247 257.385
99.2134 67367 259.552
99.3308 68478 261.683
99.4482 68271 261.287
99.5656 68031 260.828
99.6831 67193 259.216
99.8005 65268 255.476
99.9179 63875 252.735
100.035 61502 247.996
100.153 58660 242.198
100.27 54877 234.258
100.388 55056 234.64
100.505 56141 236.941
100.622 60355 245.673
100.74 64344 253.661
100.857 66688 258.24
100.975 67621 260.04
101.092 68657 262.025
101.209 68356 261.45
101.327 67493 259.794
101.444 64544 254.055
101.561 60227 245.412
101.679 56563 237.83
101.796 54481 233.412
101.913 53633 231.588
102.03 56692 238.101
102.148 62173 249.345
102.265 70726 265.944
102.382 64400 253.772
102.499 71596 267.574
102.616 72559 269.368
102.733 74671 273.26
102.851 75513 274.796
102.968 75892 275.485
103.085 75208 274.241
103.202 74375 272.718
103.319 73146 270.455
103.436 70678 265.853
103.552 68518 261.759
103.669 64670 254.303
103.786 60821 246.619
103.903 60272 245.504
104.02 62278 249.556
104.137 66392 257.666
104.253 72471 269.204
104.37 71491 267.378
104.487 75263 274.341
104.603 75191 274.21
104.72 74915 273.706
104.836 73538 271.179
104.953 69472 263.575
105.069 64389 253.75
105.186 60974 246.929
105.302 59177 243.263
105.418 59677 244.289
105.535 63734 252.456
105.651 69195 263.049
105.767 73338 270.81
105.883 76725 276.993
105.999 77942 279.181
106.115 0 1
106.231 0 1
106.347 0 1
106.463 0 1
106.579 0 1
106.694 0 1
106.81 0 1
106.926 0 1
107.041 0 1
107.157 0 1
109.576 0 1
109.692 0 1
109.807 0 1
109.923 0 1
110.039 0 1
110.155 0 1
110.27 0 1
110.386 0 1
110.502 0 1
110.618 61025 247.032
110.735 67584 259.969
110.851 70986 266.432
110.967 73384 270.895
111.083 75034 273.923
111.199 76299 276.223
111.316 77249 277.937
111.432 77232 277.906
111.549 77151 277.761
111.665 76259 276.15
111.782 74879 273.64
111.898 72868 269.941
112.015 70367 265.268
112.132 67983 260.735
112.248 63000 250.998
112.365 60486 245.939
112.482 60859 246.696
112.599 61983 248.964
112.716 67214 259.257
112.832 70686 265.868
112.949 72073 268.464
113.066 72303 268.892
113.183 72169 268.643
113.3 71251 266.929
113.417 68739 262.181
113.534 64195 253.367
113.652 60382 245.727
113.769 56896 238.529
113.886 55880 236.39
114.003 54948 234.41
114.12 59995 244.939
114.238 64836 254.629
114.355 67766 260.319
114.472 73068 270.311
114.589 67586 259.973
114.707 72288 268.864
114.824 73395 270.915
114.942 73504 271.116
115.059 74129 272.266
115.176 73536 271.175
115.294 72794 269.804
115.411 71200 266.833
115.529 68336 261.412
115.646 66155 257.206
115.764 62626 250.252
115.881 58711 242.304
115.999 58152 241.147
116.116 59828 244.598
116.234 63219 251.434
116.351 66572 258.016
116.469 68590 261.897
116.586 69003 262.684
116.704 69009 262.696
116.821 68300 261.343
116.939 66787 258.432
117.056 63183 251.362
117.174 59722 244.381
117.291 56100 236.854
117.409 53612 231.543
117.526 52969 230.15
117.644 55857 236.341
117.761 59540 244.008
117.879 63556 252.103
117.996 65234 255.409
118.114 68038 260.841
118.231 69047 262.768
118.349 69127 262.92
118.466 70322 265.183
118.584 71117 266.678
118.701 70756 266
118.819 70488 265.496
118.936 68319 261.379
119.053 66828 258.511
119.171 64888 254.731
119.288 62264 249.528
119.405 58911 242.716
119.523 56424 237.537
119.64 56249 237.169
119.757 58093 241.025
119.875 61238 247.463
119.992 63565 252.121
120.109 65686 256.293
120.226 65287 255.513
120.343 65742 256.402
120.46 64906 254.767
120.578 64434 253.839
120.695 60729 246.433
120.812 57087 238.929
120.929 54708 233.897
121.046 53122 230.482
121.163 51382 226.676
121.279 52705 229.576
121.396 56195 237.055
121.513 60596 246.163
121.63 62762 250.523
121.747 64702 254.366
121.863 65696 256.312
121.98 66647 258.161
122.097 67760 260.308
122.213 67804 260.392
122.33 68027 260.82
122.446 66736 258.333
122.563 65876 256.663
122.679 64345 253.663
122.795 62646 250.292
122.912 61583 248.159
123.028 58717 242.316
123.144 55473 235.527
123.26 53071 230.371
123.377 0 1
123.493 0 1
123.609 0 1
123.725 0 1
123.84 0 1
123.956 0 1
124.072 0 1
124.188 0 1
124.303 0 1
124.419 0 1
126.852 0 1
126.968 0 1
127.083 0 1
127.199 0 1
127.315 0 1
127.431 0 1
127.547 0 1
127.663 0 1
127.779 0 1
127.895 0 1
128.011 0 1
128.127 0 1
128.243 0 1
128.359 59945 244.837
128.476 57786 240.387
128.592 57864 240.549
128.708 59909 244.763
128.825 62592 250.184
128.941 66386 257.655
129.058 67451 259.713
129.174 67775 260.336
129.291 67940 260.653
129.408 67139 259.112
129.524 64655 254.273
129.641 61760 248.516
129.758 58260 241.371
129.875 55815 236.252
129.992 54149 232.699
130.108 53195 230.64
130.225 55242 235.036
130.342 57962 240.753
130.459 60821 246.619
130.576 65049 255.047
130.693 66077 257.054
130.81 66212 257.317
130.928 67155 259.143
131.045 67856 260.492
131.162 68609 261.933
131.279 68791 262.28
131.396 68749 262.2
131.513 67907 260.59
131.631 65977 256.86
131.748 64581 254.128
131.865 61305 247.598
131.983 58765 242.415
132.1 58039 240.913
132.217 59319 243.555
132.335 61928 248.853
132.452 64773 254.505
132.57 66912 258.674
132.687 64944 254.841
132.804 68835 262.364
132.922 66335 257.556
133.039 65132 255.21
133.157 62207 249.413
133.274 58577 242.027
133.392 56214 237.095
133.509 53782 231.909
133.627 52682 229.526
133.744 53615 231.549
133.862 56091 236.835
133.979 60240 245.438
134.097 61990 248.978
134.214 64541 254.049
134.332 63695 252.379
134.449 65934 256.776
134.567 65953 256.813
134.684 66871 258.594
134.802 67622 260.042
134.919 67738 260.265
135.037 66878 258.608
135.154 65618 256.16
135.272 63980 252.943
135.389 62558 250.116
135.507 59287 243.489
135.624 57032 238.814
135.742 57756 240.325
135.859 60386 245.736
135.977 63403 251.8
136.094 65559 256.045
136.211 66222 257.336
136.329 66686 258.236
136.446 66203 257.299
136.564 65760 256.437
136.681 63137 251.271
136.798 60101 245.155
136.915 57594 239.987
137.033 54950 234.414
137.15 52744 229.661
137.267 51963 227.954
137.384 53161 230.567
137.502 56305 237.287
137.619 59095 243.095
137.736 60486 245.939
137.853 61255 247.497
137.97 63740 252.468
138.087 63082 251.161
138.204 65154 255.253
138.321 65970 256.846
138.438 66557 257.986
138.555 67674 260.142
138.672 66946 258.739
138.788 65955 256.817
138.905 64953 254.859
139.022 63257 251.509
139.139 60555 246.079
139.255 58721 242.324
139.372 59591 244.113
139.488 61682 248.359
139.605 65432 255.797
139.721 67310 259.442
139.838 67792 260.369
139.954 68220 261.19
140.071 66848 258.55
140.187 66928 258.704
140.303 64489 253.947
140.419 61501 247.994
140.535 57968 240.765
140.652 55982 236.605
140.768 0 1
140.884 0 1
141 0 1
141.115 0 1
141.231 0 1
141.347 0 1
141.463 0 1
141.578 0 1
141.694 0 1
144.104 0 1
144.219 0 1
144.335 0 1
144.45 0 1
144.566 0 1
144.682 0 1
144.798 0 1
144.914 0 1
145.03 0 1
145.146 56301 237.278
145.262 55959 236.557
145.378 53317 230.905
145.494 51495 226.925
145.61 49304 222.045
145.726 47704 218.412
145.842 46608 215.889
145.959 45871 214.175
146.075 47768 218.559
146.192 50808 225.406
146.308 51201 226.276
146.425 52736 229.643
146.541 53672 231.672
146.658 54734 233.953
146.774 55396 235.364
146.891 56263 237.198
147.008 56203 237.072
147.125 57605 240.01
147.241 57070 238.893
147.358 56783 238.292
147.475 55802 236.224
147.592 53838 232.03
147.709 52201 228.475
147.826 49966 223.531
147.943 49525 222.542
148.06 49809 223.179
148.177 52958 230.126
148.294 55038 234.602
148.411 56407 237.502
148.528 56094 236.842
148.645 55067 234.664
148.762 55520 235.627
148.88 54919 234.348
148.997 51664 227.297
149.114 50867 225.537
149.231 47743 218.502
149.349 46788 216.305
149.466 43673 208.981
149.583 43838 209.375
149.701 44866 211.816
149.818 47111 217.051
149.935 48764 220.826
150.053 49929 223.448
150.17 50458 224.629
150.287 51481 226.894
150.405 52907 230.015
150.522 53399 231.082
150.64 53773 231.89
150.757 54761 234.011
150.875 54510 233.474
150.992 54049 232.484
151.11 53421 231.13
151.227 51644 227.253
151.344 49715 222.969
151.462 47058 216.929
151.579 47351 217.603
151.697 48358 219.905
151.814 51088 226.027
151.932 53774 231.892
152.049 54272 232.964
152.167 53866 232.09
152.284 54997 234.514
152.402 54258 232.933
152.519 52699 229.563
152.636 50243 224.15
152.754 47846 218.737
152.871 46383 215.367
152.989 45424 213.129
153.106 43793 209.268
153.223 43486 208.533
153.341 45202 212.608
153.458 47190 217.233
153.575 48191 219.524
153.693 49164 221.73
153.81 51108 226.071
153.927 52204 228.482
154.044 53413 231.113
154.162 54136 232.671
154.279 55187 234.919
154.396 56134 236.926
154.513 56543 237.788
154.63 56449 237.59
154.747 56119 236.894
154.864 54698 233.876
154.981 52916 230.035
155.098 50608 224.962
155.215 50822 225.437
155.332 53163 230.571
155.449 54916 234.342
155.566 56412 237.512
155.683 57513 239.819
155.8 57278 239.328
155.917 57283 239.339
156.033 56792 238.311
156.15 0 1
156.267 0 1
156.383 0 1
156.5 0 1
156.617 0 1
156.733 0 1
156.85 0 1
156.966 0 1
157.082 0 1
157.199 0 1
157.315 0 1
157.431 0 1
157.547 0 1
157.664 0 1
157.78 0 1
157.896 0 1
158.012 0 1
158.128 0 1
158.244 0 1
158.359 0 1
158.475 0 1
158.591 0 1
158.706 0 1
