
6.15755 0 1
6.2731 0 1
6.3887 0 1
6.50437 0 1
6.62009 0 1
6.73587 0 1
6.8517 0 1
6.96759 0 1
7.08353 0 1
7.19952 0 1
7.31557 0 1
7.43166 0 1
7.54781 0 1
7.664 0 1
7.78024 0 1
7.89653 0 1
8.01286 0 1
8.12924 0 1
8.24567 0 1
8.36213 0 1
8.47864 0 1
8.59519 0 1
8.71178 0 1
8.82841 0 1
8.94508 0 1
9.06179 0 1
9.17853 0 1
9.29531 0 1
9.41212 0 1
9.52897 0 1
9.64584 0 1
9.76276 0 1
9.8797 0 1
9.99667 0 1
10.1137 0 1
10.2307 0 1
10.3478 0 1
10.4648 0 1
10.5819 0 1
10.6991 0 1
10.8162 0 1
10.9334 0 1
11.0506 0 1
11.1678 0 1
11.285 0 1
11.4023 0 1
11.5196 0 1
11.6369 0 1
11.7542 0 1
11.8715 0 1
11.9888 0 1
12.1062 0 1
12.2235 0 1
12.3409 0 1
12.4582 0 1
12.5756 0 1
12.693 0 1
12.8104 0 1
12.9278 0 1
13.0452 0 1
13.1626 0 1
13.28 0 1
13.3974 0 1
13.5149 0 1
13.6323 0 1
13.7497 0 1
13.8671 0 1
13.9845 0 1
14.1019 0 1
14.2193 0 1
14.3367 0 1
14.4541 0 1
14.5714 0 1
14.6888 0 1
14.8062 0 1
14.9235 0 1
15.0408 23825 154.353
15.1581 24854 157.652
15.2755 26079 161.49
15.3927 26681 163.343
15.51 26558 162.966
15.6273 26654 163.261
15.7445 25995 161.23
15.8617 25307 159.082
15.9789 24637 156.962
16.0961 23678 153.877
16.2132 23304 152.656
16.3304 23285 152.594
16.4475 23243 152.457
16.5646 23697 153.938
16.6816 23891 154.567
16.7986 23956 154.777
16.9156 23778 154.201
17.0326 23353 152.817
17.1496 22676 150.586
17.2665 22638 150.459
17.3833 22238 149.124
17.5002 22916 151.38
17.617 22594 150.313
17.7338 22996 151.644
17.8505 23022 151.73
17.9672 23479 153.229
18.0839 23817 154.328
18.2005 24572 156.755
18.3171 25029 158.206
18.4337 25191 158.717
18.5502 25695 160.297
18.6666 25514 159.731
18.7831 25501 159.69
18.8994 25376 159.298
19.0158 24364 156.09
19.1321 23580 153.558
19.2483 22401 149.67
19.3645 20967 144.8
19.4806 19321 139
19.5967 17927 133.892
19.7128 15929 126.21
19.8288 15075 122.78
19.9447 13745 117.239
20.0606 0 1
20.1764 0 1
20.2922 0 1
20.4079 0 1
20.5236 0 1
20.6392 0 1
20.7548 0 1
20.8702 0 1
23.3078 0 1
23.4233 0 1
23.539 0 1
23.6547 0 1
23.7704 0 1
23.8862 0 1
24.0021 0 1
24.118 0 1
24.234 0 1
24.35 0 1
24.4661 10701 103.446
24.5822 11700 108.167
24.6984 12714 112.756
24.8146 13421 115.849
24.9309 14208 119.197
25.0472 15529 124.615
25.1636 16589 128.798
25.28 18275 135.185
25.3965 19412 139.327
25.513 21306 145.966
25.6296 22746 150.818
25.7462 23712 153.987
25.8628 24609 156.873
25.9795 25303 159.069
26.0962 25327 159.145
26.213 25372 159.286
26.3298 24656 157.022
26.4466 24101 155.245
26.5635 23645 153.769
26.6804 23534 153.408
26.7973 23686 153.903
26.9143 24435 156.317
27.0313 24528 156.614
27.1483 25019 158.174
27.2653 25104 158.442
27.3824 25464 159.574
27.4996 25144 158.569
27.6167 24708 157.188
27.7339 24523 156.598
27.8511 23362 152.846
27.9683 22682 150.605
28.0855 22211 149.034
28.2028 21140 145.396
28.3201 20004 141.435
28.4374 18830 137.222
28.5547 18943 137.634
28.6721 19328 139.025
28.7894 20528 143.276
28.9068 21288 145.904
29.0242 22390 149.633
29.1416 22728 150.758
29.259 22598 150.326
29.3764 23018 151.717
29.4939 23077 151.911
29.6113 23334 152.755
29.7288 23571 153.528
29.8463 23029 151.753
29.9638 22642 150.473
30.0812 22853 151.172
30.1987 22678 150.592
30.3162 22487 149.957
30.4337 23542 153.434
30.5512 23679 153.88
30.6687 23901 154.599
30.7862 24005 154.935
30.9037 24348 156.038
31.0212 24556 156.704
31.1387 24130 155.338
31.2562 23497 153.287
31.3737 23200 152.315
31.4912 22904 151.341
31.6087 22090 148.627
31.7262 21043 145.062
31.8436 19792 140.684
31.9611 18830 137.222
32.0785 18647 136.554
32.1959 19375 139.194
32.3134 20428 142.927
32.4308 21660 147.173
32.5482 22439 149.797
32.6655 22084 148.607
32.7829 22341 149.469
32.9002 22076 148.58
33.0176 22465 149.883
33.1349 22695 150.649
33.2522 23322 152.715
33.3694 22852 151.169
33.4867 22621 150.403
33.6039 22062 148.533
33.7211 21978 148.25
33.8383 21902 147.993
33.9554 22359 149.529
34.0725 23221 152.384
34.1896 23494 153.278
34.3067 23592 153.597
34.4237 23875 154.515
34.5407 23896 154.583
34.6577 24274 155.801
34.7746 23929 154.69
34.8915 23534 153.408
35.0084 22949 151.489
35.1252 22472 149.907
35.242 21973 148.233
35.3587 21297 145.935
35.4755 20186 142.077
35.5921 18687 136.7
35.7088 17932 133.91
35.8254 18057 134.376
35.9419 18433 135.768
36.0584 19281 138.856
36.1749 20065 141.651
36.2913 20453 143.014
36.4077 20332 142.59
36.524 19895 141.05
36.6403 19732 140.471
36.7565 19546 139.807
36.8727 19045 138.004
36.9889 18208 134.937
37.1049 17202 131.156
37.221 0 1
37.3369 0 1
37.4529 0 1
37.5687 0 1
37.6845 0 1
37.8003 0 1
37.916 0 1
38.0316 0 1
38.1472 0 1
40.5851 0 1
40.7008 0 1
40.8164 0 1
40.9322 0 1
41.048 0 1
41.1639 0 1
41.2798 0 1
41.3958 0 1
41.5118 0 1
41.6279 0 1
41.744 10291 101.445
41.8602 11518 107.322
41.9765 12711 112.743
42.0928 13732 117.184
42.2091 14445 120.187
42.3255 15402 124.105
42.4419 15610 124.94
42.5584 16007 126.519
42.675 16949 130.188
42.7915 18494 135.993
42.9081 19918 141.131
43.0248 20783 144.163
43.1415 20924 144.651
43.2582 21432 146.397
43.375 21980 148.257
43.4918 22313 149.375
43.6087 22172 148.903
43.7256 21614 147.017
43.8425 21781 147.584
43.9595 21452 146.465
44.0765 21107 145.282
44.1935 20536 143.304
44.3106 19624 140.086
44.4277 18161 134.763
44.5448 17052 130.583
44.6619 17417 131.973
44.7791 18126 134.633
44.8963 18927 137.575
45.0136 20177 142.046
45.1308 20596 143.513
45.2481 20428 142.927
45.3654 21138 145.389
45.4827 21141 145.399
45.6001 21240 145.739
45.7174 21373 146.195
45.8348 21435 146.407
45.9522 21253 145.784
46.0697 20886 144.52
46.1871 21091 145.227
46.3046 21496 146.615
46.422 22123 148.738
46.5395 22684 150.612
46.657 23633 153.73
46.7745 23799 154.269
46.892 24246 155.711
47.0096 24454 156.378
47.1271 24568 156.742
47.2446 24571 156.751
47.3622 24279 155.817
47.4797 23962 154.797
47.5973 23274 152.558
47.7149 22904 151.341
47.8324 21758 147.506
47.95 20382 142.766
48.0675 18650 136.565
48.1851 18713 136.795
48.3027 19002 137.848
48.4202 20421 142.902
48.5378 21626 147.058
48.6554 22392 149.64
48.7729 22724 150.745
48.8904 22952 151.499
49.008 22848 151.156
49.1255 23098 151.98
49.243 23319 152.706
49.3605 22806 151.017
49.478 22569 150.23
49.5955 22800 150.997
49.713 22835 151.113
49.8304 23178 152.243
49.9479 24032 155.023
50.0653 24906 157.816
50.1827 25936 161.047
50.3001 26219 161.923
50.4175 26263 162.059
50.5348 26642 163.224
50.6521 26540 162.911
50.7694 26898 164.006
50.8867 26577 163.025
51.004 26444 162.616
51.1212 25690 160.281
51.2384 24892 157.772
51.3556 23387 152.928
51.4727 21837 147.773
51.5899 20451 143.007
51.707 20348 142.646
51.824 21558 146.826
51.9411 23248 152.473
52.0581 24730 157.258
52.175 25260 158.934
52.2919 24961 157.991
52.4088 25217 158.799
52.5257 25267 158.956
52.6425 25341 159.189
52.7593 25716 160.362
52.876 25767 160.521
52.9927 25841 160.751
53.1094 25213 158.786
53.226 25225 158.824
53.3426 24696 157.15
53.4591 24894 157.778
53.5756 25169 158.647
53.692 25596 159.987
53.8084 25232 158.846
53.9248 24686 157.118
54.0411 23931 154.696
54.1573 22278 149.258
54.2735 0 1
54.3896 0 1
54.5057 0 1
54.6217 0 1
54.7377 0 1
54.8537 0 1
54.9695 0 1
55.0853 0 1
55.2011 0 1
55.3168 0 1
55.4324 0 1
57.824 0 1
57.9396 0 1
58.0553 0 1
58.1711 0 1
58.2869 0 1
58.4028 0 1
58.5187 0 1
58.6347 0 1
58.7508 0 1
58.8669 0 1
58.983 20170 142.021
59.0992 23479 153.229
59.2155 26333 162.274
59.3318 28706 169.428
59.4482 31763 178.222
59.5646 33978 184.331
59.681 35535 188.507
59.7975 36027 189.808
59.9141 35920 189.526
60.0306 35773 189.138
60.1473 34864 186.719
60.2639 32895 181.37
60.3807 31729 178.126
60.4974 31967 178.793
60.6142 33981 184.339
60.731 36923 192.154
60.8479 39624 199.058
60.9648 41142 202.835
61.0818 42248 205.543
61.1987 42348 205.786
61.3158 42965 207.28
61.4328 42380 205.864
61.5499 43026 207.427
61.667 42856 207.017
61.7841 42372 205.845
61.9013 42201 205.429
62.0185 42206 205.441
62.1357 43461 208.473
62.253 43859 209.425
62.3702 45364 212.988
62.4875 46137 214.795
62.6049 47060 216.933
62.7222 47518 217.986
62.8396 48489 220.202
62.9569 49109 221.606
63.0743 49241 221.903
63.1918 48457 220.13
63.3092 46575 215.812
63.4267 44982 212.09
63.5441 43086 207.572
63.6616 39860 199.65
63.7791 35716 188.987
63.8966 34544 185.86
64.0142 34561 185.906
64.1317 37092 192.593
64.2492 40097 200.242
64.3668 43141 207.704
64.4843 44740 211.518
64.6019 45009 212.153
64.7195 45674 213.715
64.837 46153 214.832
64.9546 46339 215.265
65.0722 46168 214.867
65.1898 45663 213.689
65.3074 45610 213.565
65.4249 45012 212.16
65.5425 44189 210.212
65.6601 45079 212.318
65.7777 46012 214.504
65.8952 46761 216.243
66.0128 47884 218.824
66.1304 49390 222.239
66.2479 49872 223.32
66.3655 50766 225.313
66.483 51355 226.616
66.6005 51376 226.663
66.718 51075 225.998
66.8355 49766 223.083
66.953 48098 219.313
67.0705 46085 214.674
67.1879 42788 206.853
67.3054 38750 196.85
67.4228 34876 186.751
67.5402 33760 183.739
67.6576 34899 186.813
67.7749 38224 195.51
67.8923 41417 203.512
68.0096 44875 211.837
68.1269 46045 214.581
68.2442 46853 216.456
68.3614 47439 217.805
68.4787 47469 217.874
68.5958 47307 217.502
68.713 47348 217.596
68.8302 47112 217.053
68.9473 46054 214.602
69.0643 45635 213.624
69.1814 44831 211.733
69.2984 44867 211.818
69.4154 45445 213.178
69.5323 46195 214.93
69.6492 47094 217.012
69.7661 47617 218.213
69.8829 48563 220.37
69.9997 48880 221.088
70.1165 48298 219.768
70.2332 47735 218.483
70.3499 46472 215.574
70.4665 44529 211.019
70.5831 41872 204.626
70.6996 38986 197.449
70.8161 34986 187.045
70.9326 30148 173.632
71.049 24457 156.387
71.1653 19873 140.972
71.2817 18391 135.613
71.3979 17870 133.679
71.5141 17772 133.312
71.6303 17497 132.276
71.7464 16335 127.808
71.8624 0 1
71.9784 0 1
72.0944 0 1
72.2102 0 1
72.3261 0 1
72.4418 0 1
72.5575 0 1
72.6732 0 1
75.1054 0 1
75.2209 0 1
75.3365 0 1
75.4521 0 1
75.5678 0 1
75.6835 0 1
75.7993 0 1
75.9151 0 1
76.031 0 1
76.147 24111 155.277
76.263 25003 158.123
76.3791 24187 155.522
76.4952 23996 154.906
76.6113 26190 161.833
76.7276 29453 171.619
76.8438 33319 182.535
76.9601 37545 193.765
77.0765 39945 199.862
77.1929 41143 202.837
77.3093 41593 203.944
77.4258 42157 205.322
77.5423 42110 205.207
77.6589 42566 206.315
77.7755 41643 204.066
77.8921 41559 203.86
78.0088 40707 201.76
78.1256 40126 200.315
78.2423 40377 200.94
78.3591 40338 200.843
78.4759 41228 203.047
78.5928 41677 204.149
78.7097 42765 206.797
78.8266 43227 207.911
78.9436 46187 214.912
79.0606 45793 213.993
79.1776 45995 214.464
79.2946 46492 215.62
79.4117 46483 215.599
79.5288 45208 212.622
79.6459 43079 207.555
79.7631 40506 201.261
79.8802 37367 193.305
79.9974 33039 181.766
80.1147 29816 172.673
80.2319 29905 172.931
80.3491 32911 181.414
80.4664 36433 190.874
80.5837 39528 198.816
80.701 41300 203.224
80.8183 42426 205.976
80.9357 43288 208.058
81.053 44051 209.883
81.1704 44215 210.274
81.2877 44322 210.528
81.4051 43625 208.866
81.5225 43928 209.59
81.6399 42250 205.548
81.7573 42507 206.172
81.8747 41466 203.632
81.9922 41802 204.455
82.1096 42332 205.747
82.227 43411 208.353
82.3444 43743 209.148
82.4619 46335 215.256
82.5793 46782 216.291
82.6967 47556 218.073
82.8142 47950 218.975
82.9316 48468 220.154
83.049 48003 219.096
83.1664 46521 215.687
83.2838 44629 211.256
83.4012 42001 204.941
83.5186 38545 196.329
83.636 34512 185.774
83.7534 30663 175.109
83.8708 29861 172.803
83.9881 31739 178.154
84.1055 35087 187.315
84.2228 39740 199.349
84.3401 42570 206.325
84.4575 44522 211.002
84.5747 45843 214.11
84.692 45946 214.35
84.8093 46103 214.716
84.9265 44943 211.998
85.0437 44679 211.374
85.1609 44259 210.378
85.2781 43385 208.291
85.3952 42561 206.303
85.5123 42483 206.114
85.6294 42745 206.749
85.7465 43994 209.747
85.8636 44391 210.692
85.9806 45384 213.035
86.0976 47163 217.17
86.2145 47927 218.922
86.3315 49475 222.43
86.4484 47750 218.518
86.5652 48552 220.345
86.682 47917 218.9
86.7988 46766 216.254
86.9156 44248 210.352
87.0323 41751 204.331
87.149 37614 193.943
87.2657 32970 181.576
87.3823 30082 173.442
87.4988 30955 175.94
87.6154 33128 182.011
87.7318 36472 190.976
87.8483 38815 197.015
87.9647 39123 197.795
88.081 39111 197.765
88.1973 38726 196.789
88.3136 36850 191.964
88.4298 33719 183.627
88.546 29807 172.647
88.6621 24938 157.918
88.7781 21725 147.394
88.8942 0 1
89.0101 0 1
89.126 0 1
89.2419 0 1
89.3577 0 1
89.4734 0 1
89.5891 0 1
89.7047 0 1
89.8203 0 1
89.9358 0 1
92.3269 0 1
92.4424 0 1
92.558 0 1
92.6736 0 1
92.7893 0 1
92.905 0 1
93.0208 0 1
93.1366 0 1
93.2525 0 1
93.3685 0 1
93.4845 0 1
93.6005 31010 176.097
93.7167 34438 185.575
93.8328 37041 192.46
93.949 39420 198.545
94.0653 41869 204.619
94.1816 43660 208.95
94.2979 44316 210.514
94.4143 45220 212.65
94.5307 45496 213.298
94.6472 45439 213.164
94.7637 45975 214.418
94.8803 46276 215.119
94.9969 47644 218.275
95.1135 48398 219.995
95.2302 49770 223.092
95.3469 50704 225.175
95.4637 51649 227.264
95.5805 51389 226.691
95.6973 50918 225.65
95.8142 49519 222.529
95.9311 47432 217.789
96.048 45747 213.885
96.1649 42574 206.335
96.2819 39981 199.952
96.3989 37198 192.868
96.516 35870 189.394
96.633 36135 190.092
96.7501 37535 193.74
96.8673 40496 201.236
96.9844 43414 208.36
97.1016 45601 213.544
97.2188 47307 217.502
97.336 47814 218.664
97.4532 47733 218.479
97.5704 47594 218.16
97.6877 46796 216.324
97.805 46213 214.972
97.9223 45589 213.516
98.0396 44823 211.714
98.1569 44646 211.296
98.2743 44963 212.045
98.3916 45374 213.012
98.509 46963 216.709
98.6264 47921 218.909
98.7438 49363 222.178
98.8612 50328 224.339
98.9786 51454 226.835
99.096 52362 228.827
99.2134 52671 229.502
99.3308 51753 227.493
99.4482 50895 225.599
99.5656 48759 220.814
99.6831 45899 214.241
99.8005 43375 208.267
99.9179 40620 201.544
100.035 39000 197.484
100.153 38988 197.454
100.27 40992 202.465
100.388 42979 207.314
100.505 44925 211.955
100.622 46626 215.931
100.74 48188 219.518
100.857 48715 220.715
100.975 48092 219.299
101.092 48592 220.436
101.209 48068 219.244
101.327 47446 217.821
101.444 46897 216.557
101.561 46126 214.77
101.679 45736 213.86
101.796 45666 213.696
101.913 46283 215.135
102.03 47210 217.279
102.148 49043 221.457
102.265 51290 226.473
102.382 50610 224.967
102.499 52212 228.499
102.616 53039 230.302
102.733 52998 230.213
102.851 52413 228.939
102.968 51635 227.233
103.085 49747 223.04
103.202 46929 216.631
103.319 44316 210.514
103.436 41547 203.831
103.552 39648 199.118
103.669 39164 197.899
103.786 40041 200.102
103.903 42842 206.983
104.02 44909 211.917
104.137 46792 216.315
104.253 47731 218.474
104.37 47751 218.52
104.487 47780 218.586
104.603 46886 216.532
104.72 45902 214.248
104.836 44477 210.896
104.953 43209 207.868
105.069 41547 203.831
105.186 40177 200.442
105.302 38969 197.406
105.418 38758 196.871
105.535 37365 193.3
105.651 36272 190.452
105.767 33875 184.052
105.883 31116 176.397
105.999 27491 165.804
106.115 0 1
106.231 0 1
106.347 0 1
106.463 0 1
106.579 0 1
106.694 0 1
106.81 0 1
106.926 0 1
107.041 0 1
107.157 0 1
109.576 0 1
109.692 0 1
109.807 0 1
109.923 0 1
110.039 0 1
110.155 0 1
110.27 0 1
110.386 0 1
110.502 0 1
110.618 22578 150.26
110.735 27243 165.055
110.851 30834 175.596
110.967 34994 187.067
111.083 38738 196.82
111.199 41554 203.848
111.316 43468 208.49
111.432 45513 213.338
111.549 46581 215.826
111.665 46501 215.641
111.782 45588 213.513
111.898 43244 207.952
112.015 41152 202.86
112.132 37310 193.158
112.248 34474 185.672
112.365 35086 187.313
112.482 38098 195.187
112.599 40615 201.532
112.716 43191 207.824
112.832 43403 208.334
112.949 44117 210.04
113.066 44173 210.174
113.183 44532 211.026
113.3 43495 208.555
113.417 43142 207.707
113.534 41494 203.701
113.652 40949 202.359
113.769 39504 198.756
113.886 39789 199.472
114.003 39716 199.289
114.12 41112 202.761
114.238 42789 206.855
114.355 44246 210.347
114.472 45856 214.14
114.589 46513 215.669
114.707 46945 216.668
114.824 46914 216.596
114.942 47723 218.456
115.059 47376 217.66
115.176 46912 216.592
115.294 44609 211.208
115.411 42968 207.287
115.529 41085 202.694
115.646 38170 195.371
115.764 35070 187.27
115.881 34325 185.27
115.999 36378 190.73
116.116 39549 198.869
116.234 41243 203.084
116.351 41888 204.666
116.469 42094 205.168
116.586 42204 205.436
116.704 42389 205.886
116.821 42254 205.558
116.939 41436 203.558
117.056 40732 201.822
117.174 39608 199.018
117.291 38416 196
117.409 37986 194.9
117.526 38207 195.466
117.644 39180 197.939
117.761 40288 200.719
117.879 42079 205.132
117.996 43176 207.788
118.114 44162 210.148
118.231 44633 211.265
118.349 44958 212.033
118.466 45008 212.151
118.584 45185 212.568
118.701 45249 212.718
118.819 43100 207.605
118.936 41388 203.44
119.053 39681 199.201
119.171 37712 194.196
119.288 35052 187.222
119.405 33269 182.398
119.523 33600 183.303
119.64 35468 188.329
119.757 38186 195.412
119.875 39425 198.557
119.992 39697 199.241
120.109 39580 198.947
120.226 39712 199.279
120.343 39861 199.652
120.46 39405 198.507
120.578 39110 197.762
120.695 38048 195.059
120.812 37008 192.375
120.929 36010 189.763
121.046 35116 187.393
121.163 34952 186.955
121.279 35123 187.411
121.396 36319 190.575
121.513 37254 193.013
121.63 38095 195.179
121.747 38014 194.972
121.863 37878 194.623
121.98 37958 194.828
122.097 37581 193.858
122.213 36733 191.659
122.33 35362 188.048
122.446 33965 184.296
122.563 31221 176.695
122.679 28656 169.281
122.795 25430 159.468
122.912 21810 147.682
123.028 19183 138.503
123.144 17753 133.24
123.26 17304 131.545
123.377 0 1
123.493 0 1
123.609 0 1
123.725 0 1
123.84 0 1
123.956 0 1
124.072 0 1
124.188 0 1
124.303 0 1
124.419 0 1
126.852 0 1
126.968 0 1
127.083 0 1
127.199 0 1
127.315 0 1
127.431 0 1
127.547 0 1
127.663 0 1
127.779 0 1
127.895 0 1
128.011 0 1
128.127 0 1
128.243 0 1
128.359 37925 194.743
128.476 36646 191.431
128.592 37131 192.694
128.708 39055 197.623
128.825 41905 204.707
128.941 43414 208.36
129.058 43900 209.523
129.174 44521 211
129.291 44240 210.333
129.408 44316 210.514
129.524 44548 211.064
129.641 43951 209.645
129.758 42054 205.071
129.875 40904 202.247
129.992 39768 199.419
130.108 39569 198.92
130.225 38832 197.058
130.342 41341 203.325
130.459 42963 207.275
130.576 46143 214.809
130.693 45981 214.432
130.81 46228 215.007
130.928 46540 215.731
131.045 46405 215.418
131.162 46660 216.009
131.279 47073 216.963
131.396 47061 216.935
131.513 46231 215.014
131.631 45384 213.035
131.748 43479 208.516
131.865 41676 204.147
131.983 39074 197.671
132.1 38272 195.632
132.217 39839 199.597
132.335 41962 204.846
132.452 44180 210.19
132.57 44255 210.369
132.687 43720 209.093
132.804 44925 211.955
132.922 44609 211.208
133.039 44107 210.017
133.157 43876 209.466
133.274 42578 206.344
133.392 41192 202.958
133.509 40242 200.604
133.627 39624 199.058
133.744 39262 198.146
133.862 41116 202.771
133.979 43070 207.533
134.097 44967 212.054
134.214 45588 213.513
134.332 46144 214.812
134.449 45480 213.26
134.567 45759 213.914
134.684 46459 215.543
134.802 46446 215.513
134.919 47034 216.873
135.037 46572 215.805
135.154 44892 211.877
135.272 43506 208.581
135.389 41830 204.524
135.507 39983 199.957
135.624 38578 196.413
135.742 39698 199.244
135.859 41235 203.064
135.977 43165 207.762
136.094 44237 210.326
136.211 44604 211.197
136.329 44214 210.271
136.446 43819 209.33
136.564 43785 209.249
136.681 43789 209.258
136.798 42696 206.63
136.915 41328 203.293
137.033 40008 200.02
137.15 39236 198.081
137.267 38701 196.726
137.384 39162 197.894
137.502 40267 200.666
137.619 42101 205.185
137.736 43622 208.859
137.853 42862 207.031
137.97 44601 211.189
138.087 43145 207.714
138.204 43791 209.263
138.321 43987 209.731
138.438 44361 210.621
138.555 44205 210.25
138.672 42961 207.27
138.788 41544 203.823
138.905 39313 198.275
139.022 37283 193.088
139.139 34718 186.328
139.255 32621 180.613
139.372 32482 180.228
139.488 32239 179.552
139.605 32652 180.699
139.721 32118 179.215
139.838 30316 174.115
139.954 28196 167.917
140.071 25528 159.775
140.187 23781 154.211
140.303 22123 148.738
140.419 21029 145.014
140.535 19831 140.823
140.652 17904 133.806
140.768 0 1
140.884 0 1
141 0 1
141.115 0 1
141.231 0 1
141.347 0 1
141.463 0 1
141.578 0 1
141.694 0 1
144.104 0 1
144.219 0 1
144.335 0 1
144.45 0 1
144.566 0 1
144.682 0 1
144.798 0 1
144.914 0 1
145.03 0 1
145.146 30592 174.906
145.262 32435 180.097
145.378 33019 181.711
145.494 33152 182.077
145.61 32502 180.283
145.726 31536 177.584
145.842 30990 176.04
145.959 30216 173.828
146.075 29520 171.814
146.192 30134 173.591
146.308 31007 176.088
146.425 32203 179.452
146.541 33299 182.48
146.658 34042 184.505
146.774 33475 182.962
146.891 33700 183.576
147.008 34064 184.564
147.125 33610 183.33
147.241 34409 185.497
147.358 34916 186.858
147.475 34960 186.976
147.592 34080 184.608
147.709 32928 181.461
147.826 31621 177.823
147.943 30671 175.131
148.06 29487 171.718
148.177 30168 173.689
148.294 31568 177.674
148.411 32964 181.56
148.528 33747 183.704
148.645 33762 183.744
148.762 33490 183.003
148.88 33530 183.112
148.997 34015 184.432
149.114 32667 180.74
149.231 32928 181.461
149.349 32172 179.366
149.466 30698 175.208
149.583 30035 173.306
149.701 29520 171.814
149.818 28972 170.212
149.935 29883 172.867
150.053 31221 176.695
150.17 32260 179.611
150.287 32640 180.665
150.405 32801 181.11
150.522 32794 181.091
150.64 33029 181.739
150.757 32981 181.607
150.875 33891 184.095
150.992 34592 185.989
151.11 33944 184.239
151.227 33236 182.307
151.344 32741 180.945
151.462 31518 177.533
151.579 29948 173.055
151.697 29409 171.491
151.814 29891 172.89
151.932 31065 176.253
152.049 32124 179.232
152.167 32735 180.928
152.284 32780 181.052
152.402 32816 181.152
152.519 32260 179.611
152.636 32246 179.572
152.754 31817 178.373
152.871 31685 178.003
152.989 29994 173.188
153.106 28969 170.203
153.223 28654 169.275
153.341 27916 167.081
153.458 28071 167.544
153.575 28916 170.047
153.693 30091 173.468
153.81 30476 174.574
153.927 30914 175.824
154.044 31199 176.632
154.162 30565 174.828
154.279 31215 176.678
154.396 32101 179.168
154.513 32454 180.15
154.63 32508 180.3
154.747 32115 179.207
154.864 31430 177.285
154.981 30175 173.71
155.098 29217 170.93
155.215 28497 168.811
155.332 27850 166.883
155.449 28482 168.766
155.566 29482 171.703
155.683 29974 173.13
155.8 29602 172.052
155.917 29187 170.842
156.033 28082 167.577
156.15 0 1
156.267 0 1
156.383 0 1
156.5 0 1
156.617 0 1
156.733 0 1
156.85 0 1
156.966 0 1
157.082 0 1
157.199 0 1
157.315 0 1
157.431 0 1
157.547 0 1
157.664 0 1
157.78 0 1
157.896 0 1
158.012 0 1
158.128 0 1
158.244 0 1
158.359 0 1
158.475 0 1
158.591 0 1
158.706 0 1
