
6.15755 0 1
6.2731 0 1
6.3887 0 1
6.50437 0 1
6.62009 0 1
6.73587 0 1
6.8517 0 1
6.96759 0 1
7.08353 0 1
7.19952 0 1
7.31557 0 1
7.43166 0 1
7.54781 0 1
7.664 0 1
7.78024 0 1
7.89653 0 1
8.01286 0 1
8.12924 0 1
8.24567 0 1
8.36213 0 1
8.47864 0 1
8.59519 0 1
8.71178 0 1
8.82841 0 1
8.94508 0 1
9.06179 0 1
9.17853 0 1
9.29531 0 1
9.41212 0 1
9.52897 0 1
9.64584 0 1
9.76276 0 1
9.8797 0 1
9.99667 0 1
10.1137 0 1
10.2307 0 1
10.3478 0 1
10.4648 0 1
10.5819 0 1
10.6991 0 1
10.8162 0 1
10.9334 0 1
11.0506 0 1
11.1678 0 1
11.285 0 1
11.4023 0 1
11.5196 0 1
11.6369 0 1
11.7542 0 1
11.8715 0 1
11.9888 0 1
12.1062 0 1
12.2235 0 1
12.3409 0 1
12.4582 0 1
12.5756 0 1
12.693 0 1
12.8104 0 1
12.9278 0 1
13.0452 0 1
13.1626 0 1
13.28 0 1
13.3974 0 1
13.5149 0 1
13.6323 0 1
13.7497 0 1
13.8671 0 1
13.9845 0 1
14.1019 0 1
14.2193 0 1
14.3367 0 1
14.4541 0 1
14.5714 0 1
14.6888 0 1
14.8062 0 1
14.9235 0 1
15.0408 0 0
15.1581 0 0
15.2755 0 0
15.3927 0 0
15.51 0 0
15.6273 0 0
15.7445 0 0
15.8617 0 0
15.9789 0 0
16.0961 0 0
16.2132 0 0
16.3304 0 0
16.4475 0 0
16.5646 0 0
16.6816 0 0
16.7986 0 0
16.9156 0 0
17.0326 0 0
17.1496 0 0
17.2665 0 0
17.3833 0 0
17.5002 0 0
17.617 0 0
17.7338 0 0
17.8505 0 0
17.9672 0 0
18.0839 0 0
18.2005 0 0
18.3171 0 0
18.4337 0 0
18.5502 0 0
18.6666 0 0
18.7831 0 0
18.8994 0 0
19.0158 0 0
19.1321 0 0
19.2483 0 0
19.3645 0 0
19.4806 0 0
19.5967 0 0
19.7128 0 0
19.8288 0 0
19.9447 0 0
20.0606 0 1
20.1764 0 1
20.2922 0 1
20.4079 0 1
20.5236 0 1
20.6392 0 1
20.7548 0 1
20.8702 0 1
23.3078 0 1
23.4233 0 1
23.539 0 1
23.6547 0 1
23.7704 0 1
23.8862 0 1
24.0021 0 1
24.118 0 1
24.234 0 1
24.35 0 1
24.4661 1980 44.4972
24.5822 1988 44.587
24.6984 1962 44.2945
24.8146 1963 44.3058
24.9309 1801 42.4382
25.0472 1800 42.4264
25.1636 1754 41.8808
25.28 1867 43.2088
25.3965 2016 44.8999
25.513 2073 45.5302
25.6296 2264 47.5815
25.7462 2438 49.3761
25.8628 2430 49.295
25.9795 2484 49.8397
26.0962 2537 50.3686
26.213 2446 49.4571
26.3298 2561 50.6063
26.4466 2477 49.7695
26.5635 2494 49.94
26.6804 2404 49.0306
26.7973 2418 49.1732
26.9143 2445 49.4469
27.0313 2462 49.6185
27.1483 2452 49.5177
27.2653 2386 48.8467
27.3824 2487 49.8698
27.4996 2411 49.1019
27.6167 2428 49.2747
27.7339 2310 48.0625
27.8511 2192 46.8188
27.9683 2090 45.7165
28.0855 2100 45.8258
28.2028 2035 45.111
28.3201 1911 43.715
28.4374 1788 42.2847
28.5547 1638 40.4722
28.6721 1649 40.6079
28.7894 1666 40.8167
28.9068 1905 43.6463
29.0242 1887 43.4396
29.1416 1997 44.6878
29.259 2207 46.9787
29.3764 2310 48.0625
29.4939 2332 48.2908
29.6113 2292 47.8748
29.7288 2337 48.3425
29.8463 2397 48.9592
29.9638 2390 48.8876
30.0812 2320 48.1664
30.1987 2423 49.224
30.3162 2449 49.4874
30.4337 2373 48.7134
30.5512 2430 49.295
30.6687 2402 49.0102
30.7862 2423 49.224
30.9037 2341 48.3839
31.0212 2373 48.7134
31.1387 2308 48.0416
31.2562 2289 47.8435
31.3737 2169 46.5725
31.4912 2180 46.6905
31.6087 2094 45.7602
31.7262 2024 44.9889
31.8436 1893 43.5086
31.9611 1731 41.6053
32.0785 1633 40.4104
32.1959 1570 39.6232
32.3134 1564 39.5474
32.4308 1692 41.1339
32.5482 1748 41.8091
32.6655 2113 45.9674
32.7829 2156 46.4327
32.9002 2242 47.3498
33.0176 2318 48.1456
33.1349 2326 48.2286
33.2522 2347 48.4458
33.3694 2179 46.6798
33.4867 2266 47.6025
33.6039 2325 48.2183
33.7211 2309 48.0521
33.8383 2266 47.6025
33.9554 2234 47.2652
34.0725 2279 47.7389
34.1896 2349 48.4665
34.3067 2294 47.8957
34.4237 2284 47.7912
34.5407 2307 48.0312
34.6577 2287 47.8226
34.7746 2247 47.4025
34.8915 2206 46.9681
35.0084 2232 47.244
35.1252 2067 45.4643
35.242 2029 45.0444
35.3587 1955 44.2154
35.4755 1948 44.1362
35.5921 1817 42.6263
35.7088 1601 40.0125
35.8254 1481 38.4838
35.9419 1388 37.2559
36.0584 1469 38.3275
36.1749 1678 40.9634
36.2913 1711 41.3642
36.4077 1883 43.3935
36.524 2074 45.5412
36.6403 2109 45.9239
36.7565 2101 45.8367
36.8727 2193 46.8295
36.9889 2212 47.0319
37.1049 2226 47.1805
37.221 0 1
37.3369 0 1
37.4529 0 1
37.5687 0 1
37.6845 0 1
37.8003 0 1
37.916 0 1
38.0316 0 1
38.1472 0 1
40.5851 0 1
40.7008 0 1
40.8164 0 1
40.9322 0 1
41.048 0 1
41.1639 0 1
41.2798 0 1
41.3958 0 1
41.5118 0 1
41.6279 0 1
41.744 1601 40.0125
41.8602 1638 40.4722
41.9765 1829 42.7668
42.0928 1811 42.5558
42.2091 1886 43.4281
42.3255 1884 43.4051
42.4419 1860 43.1277
42.5584 1815 42.6028
42.675 1912 43.7264
42.7915 1862 43.1509
42.9081 1704 41.2795
43.0248 1751 41.845
43.1415 1764 42
43.2582 1790 42.3084
43.375 1776 42.1426
43.4918 1759 41.9404
43.6087 1631 40.3856
43.7256 1601 40.0125
43.8425 1556 39.4462
43.9595 1555 39.4335
44.0765 1489 38.5876
44.1935 1416 37.6298
44.3106 1249 35.3412
44.4277 1233 35.1141
44.5448 1146 33.8526
44.6619 1037 32.2025
44.7791 929 30.4795
44.8963 1029 32.078
45.0136 985 31.3847
45.1308 1145 33.8378
45.2481 1142 33.7935
45.3654 1294 35.9722
45.4827 1361 36.8917
45.6001 1355 36.8103
45.7174 1329 36.4555
45.8348 1287 35.8748
45.9522 1296 36
46.0697 1269 35.623
46.1871 1242 35.242
46.3046 1238 35.1852
46.422 1211 34.7994
46.5395 1216 34.8712
46.657 1211 34.7994
46.7745 1219 34.9142
46.892 1135 33.6898
47.0096 1164 34.1174
47.1271 1158 34.0294
47.2446 1106 33.2566
47.3622 1098 33.1361
47.4797 1097 33.121
47.5973 963 31.0322
47.7149 956 30.9192
47.8324 954 30.8869
47.95 884 29.7321
48.0675 805 28.3725
48.1851 712 26.6833
48.3027 706 26.5707
48.4202 711 26.6646
48.5378 710 26.6458
48.6554 723 26.8887
48.7729 803 28.3373
48.8904 902 30.0333
49.008 939 30.6431
49.1255 1003 31.6702
49.243 940 30.6594
49.3605 980 31.305
49.478 988 31.4325
49.5955 962 31.0161
49.713 1003 31.6702
49.8304 966 31.0805
49.9479 966 31.0805
50.0653 1010 31.7805
50.1827 1097 33.121
50.3001 1137 33.7194
50.4175 1052 32.4345
50.5348 1046 32.3419
50.6521 1123 33.5112
50.7694 1134 33.6749
50.8867 1100 33.1662
51.004 1191 34.5109
51.1212 1115 33.3916
51.2384 1052 32.4345
51.3556 1111 33.3317
51.4727 998 31.5911
51.5899 986 31.4006
51.707 834 28.8791
51.824 846 29.0861
51.9411 939 30.6431
52.0581 964 31.0483
52.175 1127 33.5708
52.2919 1338 36.5787
52.4088 1445 38.0132
52.5257 1548 39.3446
52.6425 1586 39.8246
52.7593 1610 40.1248
52.876 1591 39.8873
52.9927 1676 40.939
53.1094 1741 41.7253
53.226 1661 40.7554
53.3426 1667 40.8289
53.4591 1787 42.2729
53.5756 1742 41.7373
53.692 1757 41.9166
53.8084 1708 41.328
53.9248 1800 42.4264
54.0411 1885 43.4166
54.1573 1867 43.2088
54.2735 0 1
54.3896 0 1
54.5057 0 1
54.6217 0 1
54.7377 0 1
54.8537 0 1
54.9695 0 1
55.0853 0 1
55.2011 0 1
55.3168 0 1
55.4324 0 1
57.824 0 1
57.9396 0 1
58.0553 0 1
58.1711 0 1
58.2869 0 1
58.4028 0 1
58.5187 0 1
58.6347 0 1
58.7508 0 1
58.8669 0 1
58.983 2121 46.0543
59.0992 2121 46.0543
59.2155 2209 47
59.3318 2243 47.3603
59.4482 2213 47.0425
59.5646 2296 47.9166
59.681 2241 47.3392
59.7975 2081 45.618
59.9141 2010 44.833
60.0306 1900 43.589
60.1473 1652 40.6448
60.2639 1448 38.0526
60.3807 1376 37.0945
60.4974 1236 35.1568
60.6142 1277 35.7351
60.731 1312 36.2215
60.8479 1505 38.7943
60.9648 1619 40.2368
61.0818 1806 42.4971
61.1987 1952 44.1814
61.3158 1910 43.7035
61.4328 1983 44.5309
61.5499 1947 44.1248
61.667 1925 43.8748
61.7841 1880 43.359
61.9013 1960 44.2719
62.0185 1975 44.441
62.1357 1968 44.3621
62.253 1881 43.3705
62.3702 1940 44.0454
62.4875 1879 43.3474
62.6049 1925 43.8748
62.7222 1910 43.7035
62.8396 1964 44.317
62.9569 1980 44.4972
63.0743 1942 44.0681
63.1918 1976 44.4522
63.3092 1819 42.6497
63.4267 1843 42.9302
63.5441 1667 40.8289
63.6616 1485 38.5357
63.7791 1394 37.3363
63.8966 1134 33.6749
64.0142 1074 32.7719
64.1317 1038 32.218
64.2492 1162 34.0881
64.3668 1296 36
64.4843 1422 37.7094
64.6019 1669 40.8534
64.7195 1687 41.0731
64.837 1771 42.0833
64.9546 1730 41.5933
65.0722 1717 41.4367
65.1898 1748 41.8091
65.3074 1734 41.6413
65.4249 1776 42.1426
65.5425 1736 41.6653
65.6601 1744 41.7612
65.7777 1726 41.5452
65.8952 1819 42.6497
66.0128 1745 41.7732
66.1304 1763 41.9881
66.2479 1871 43.2551
66.3655 1858 43.1045
66.483 1776 42.1426
66.6005 1862 43.1509
66.718 1814 42.5911
66.8355 1753 41.8688
66.953 1789 42.2966
67.0705 1697 41.1947
67.1879 1537 39.2046
67.3054 1394 37.3363
67.4228 1207 34.7419
67.5402 1029 32.078
67.6576 931 30.5123
67.7749 951 30.8383
67.8923 1064 32.619
68.0096 1237 35.171
68.1269 1428 37.7889
68.2442 1616 40.1995
68.3614 1646 40.5709
68.4787 1803 42.4617
68.5958 1769 42.0595
68.713 1727 41.5572
68.8302 1739 41.7013
68.9473 1802 42.45
69.0643 1737 41.6773
69.1814 1796 42.3792
69.2984 1779 42.1782
69.4154 1801 42.4382
69.5323 1845 42.9535
69.6492 1910 43.7035
69.7661 1959 44.2606
69.8829 1895 43.5316
69.9997 1929 43.9204
70.1165 2016 44.8999
70.2332 1966 44.3396
70.3499 1969 44.3734
70.4665 1956 44.2267
70.5831 1927 43.8976
70.6996 1927 43.8976
70.8161 1798 42.4028
70.9326 1717 41.4367
71.049 1429 37.8021
71.1653 1204 34.6987
71.2817 1028 32.0624
71.3979 909 30.1496
71.5141 1000 31.6228
71.6303 1086 32.9545
71.7464 1078 32.8329
71.8624 0 1
71.9784 0 1
72.0944 0 1
72.2102 0 1
72.3261 0 1
72.4418 0 1
72.5575 0 1
72.6732 0 1
75.1054 0 1
75.2209 0 1
75.3365 0 1
75.4521 0 1
75.5678 0 1
75.6835 0 1
75.7993 0 1
75.9151 0 1
76.031 0 1
76.147 1586 39.8246
76.263 1655 40.6817
76.3791 1601 40.0125
76.4952 1351 36.756
76.6113 1169 34.1906
76.7276 958 30.9516
76.8438 1049 32.3883
76.9601 1178 34.322
77.0765 1417 37.6431
77.1929 1642 40.5216
77.3093 1804 42.4735
77.4258 1923 43.852
77.5423 1954 44.2041
77.6589 2010 44.833
77.7755 1909 43.6921
77.8921 1884 43.4051
78.0088 1925 43.8748
78.1256 1877 43.3244
78.2423 1906 43.6578
78.3591 1895 43.5316
78.4759 1884 43.4051
78.5928 1867 43.2088
78.7097 1863 43.1625
78.8266 1860 43.1277
78.9436 1976 44.4522
79.0606 1925 43.8748
79.1776 1894 43.5201
79.2946 2021 44.9555
79.4117 1928 43.909
79.5288 1972 44.4072
79.6459 1900 43.589
79.7631 1711 41.3642
79.8802 1677 40.9512
79.9974 1578 39.724
80.1147 1322 36.3593
80.2319 1042 32.28
80.3491 858 29.2916
80.4664 928 30.4631
80.5837 982 31.3369
80.701 1222 34.9571
80.8183 1444 38
80.9357 1581 39.7618
81.053 1719 41.4608
81.1704 1719 41.4608
81.2877 1703 41.2674
81.4051 1644 40.5463
81.5225 1665 40.8044
81.6399 1616 40.1995
81.7573 1656 40.694
81.8747 1566 39.5727
81.9922 1702 41.2553
82.1096 1637 40.4599
82.227 1696 41.1825
82.3444 1701 41.2432
82.4619 1698 41.2068
82.5793 1742 41.7373
82.6967 1637 40.4599
82.8142 1709 41.3401
82.9316 1702 41.2553
83.049 1720 41.4729
83.1664 1619 40.2368
83.2838 1588 39.8497
83.4012 1527 39.0768
83.5186 1458 38.1838
83.636 1352 36.7696
83.7534 1165 34.1321
83.8708 919 30.315
83.9881 770 27.7489
84.1055 747 27.3313
84.2228 833 28.8617
84.3401 1033 32.1403
84.4575 1162 34.0881
84.5747 1401 37.4299
84.692 1510 38.8587
84.8093 1530 39.1152
84.9265 1586 39.8246
85.0437 1556 39.4462
85.1609 1535 39.1791
85.2781 1490 38.6005
85.3952 1566 39.5727
85.5123 1539 39.2301
85.6294 1563 39.5348
85.7465 1584 39.7995
85.8636 1592 39.8999
85.9806 1673 40.9023
86.0976 1676 40.939
86.2145 1828 42.7551
86.3315 1796 42.3792
86.4484 1778 42.1663
86.5652 1857 43.0929
86.682 1848 42.9884
86.7988 1833 42.8135
86.9156 1741 41.7253
87.0323 1679 40.9756
87.149 1635 40.4351
87.2657 1512 38.8844
87.3823 1278 35.7491
87.4988 1075 32.7872
87.6154 819 28.6182
87.7318 989 31.4484
87.8483 1127 33.5708
87.9647 1377 37.108
88.081 1647 40.5832
88.1973 1900 43.589
88.3136 1921 43.8292
88.4298 1882 43.382
88.546 1943 44.0795
88.6621 1925 43.8748
88.7781 1872 43.2666
88.8942 0 1
89.0101 0 1
89.126 0 1
89.2419 0 1
89.3577 0 1
89.4734 0 1
89.5891 0 1
89.7047 0 1
89.8203 0 1
89.9358 0 1
92.3269 0 1
92.4424 0 1
92.558 0 1
92.6736 0 1
92.7893 0 1
92.905 0 1
93.0208 0 1
93.1366 0 1
93.2525 0 1
93.3685 0 1
93.4845 0 1
93.6005 1741 41.7253
93.7167 1878 43.3359
93.8328 1876 43.3128
93.949 1771 42.0833
94.0653 1893 43.5086
94.1816 1947 44.1248
94.2979 1888 43.4511
94.4143 1883 43.3935
94.5307 1895 43.5316
94.6472 1826 42.7317
94.7637 1941 44.0568
94.8803 1884 43.4051
94.9969 1910 43.7035
95.1135 1945 44.1022
95.2302 1931 43.9431
95.3469 1952 44.1814
95.4637 1981 44.5084
95.5805 2013 44.8665
95.6973 1985 44.5533
95.8142 2075 45.5522
95.9311 1982 44.5197
96.048 1930 43.9318
96.1649 1944 44.0908
96.2819 1799 42.4146
96.3989 1700 41.2311
96.516 1573 39.6611
96.633 1320 36.3318
96.7501 1119 33.4515
96.8673 1016 31.8748
96.9844 1043 32.2955
97.1016 1189 34.4819
97.2188 1426 37.7624
97.336 1708 41.328
97.4532 1799 42.4146
97.5704 1856 43.0813
97.6877 1873 43.2782
97.805 1939 44.0341
97.9223 1825 42.72
98.0396 1827 42.7434
98.1569 1820 42.6615
98.2743 1730 41.5933
98.3916 1845 42.9535
98.509 1843 42.9302
98.6264 1916 43.7721
98.7438 1868 43.2204
98.8612 1871 43.2551
98.9786 1985 44.5533
99.096 2016 44.8999
99.2134 1947 44.1248
99.3308 2011 44.8442
99.4482 2008 44.8107
99.5656 2008 44.8107
99.6831 1920 43.8178
99.8005 1866 43.1972
99.9179 1830 42.7785
100.035 1701 41.2432
100.153 1521 39
100.27 1293 35.9583
100.388 1040 32.249
100.505 1112 33.3467
100.622 1233 35.1141
100.74 1421 37.6962
100.857 1683 41.0244
100.975 1802 42.45
101.092 1891 43.4856
101.209 1832 42.8019
101.327 1895 43.5316
101.444 1820 42.6615
101.561 1856 43.0813
101.679 1888 43.4511
101.796 1879 43.3474
101.913 1813 42.5793
102.03 1929 43.9204
102.148 1881 43.3705
102.265 1901 43.6005
102.382 2088 45.6946
102.499 1990 44.6094
102.616 2089 45.7056
102.733 2052 45.299
102.851 2114 45.9783
102.968 2067 45.4643
103.085 2073 45.5302
103.202 2056 45.3431
103.319 1961 44.2832
103.436 1896 43.5431
103.552 1869 43.2319
103.669 1715 41.4126
103.786 1408 37.5233
103.903 1201 34.6554
104.02 1158 34.0294
104.137 1348 36.7151
104.253 1601 40.0125
104.37 1922 43.8406
104.487 2007 44.7996
104.603 2111 45.9456
104.72 1989 44.5982
104.836 1999 44.7102
104.953 2016 44.8999
105.069 2052 45.299
105.186 2149 46.3573
105.302 2075 45.5522
105.418 2137 46.2277
105.535 2164 46.5188
105.651 2111 45.9456
105.767 2219 47.1063
105.883 2349 48.4665
105.999 2339 48.3632
106.115 0 1
106.231 0 1
106.347 0 1
106.463 0 1
106.579 0 1
106.694 0 1
106.81 0 1
106.926 0 1
107.041 0 1
107.157 0 1
109.576 0 1
109.692 0 1
109.807 0 1
109.923 0 1
110.039 0 1
110.155 0 1
110.27 0 1
110.386 0 1
110.502 0 1
110.618 2060 45.3872
110.735 2169 46.5725
110.851 2231 47.2335
110.967 2137 46.2277
111.083 2240 47.3286
111.199 2330 48.2701
111.316 2250 47.4342
111.432 2269 47.634
111.549 2293 47.8853
111.665 2292 47.8748
111.782 2213 47.0425
111.898 2149 46.3573
112.015 1984 44.5421
112.132 1840 42.8952
112.248 1777 42.1545
112.365 1413 37.5899
112.482 1256 35.4401
112.599 1318 36.3043
112.716 1411 37.5633
112.832 1679 40.9756
112.949 1965 44.3283
113.066 1966 44.3396
113.183 2013 44.8665
113.3 1956 44.2267
113.417 2060 45.3872
113.534 2081 45.618
113.652 2011 44.8442
113.769 2069 45.4863
113.886 2108 45.913
114.003 2088 45.6946
114.12 2143 46.2925
114.238 2097 45.793
114.355 2089 45.7056
114.472 2203 46.9361
114.589 2319 48.156
114.707 2276 47.7074
114.824 2305 48.0104
114.942 2391 48.8979
115.059 2335 48.3218
115.176 2397 48.9592
115.294 2290 47.8539
115.411 2254 47.4763
115.529 2164 46.5188
115.646 2084 45.6508
115.764 2044 45.2106
115.881 1709 41.3401
115.999 1517 38.9487
116.116 1456 38.1576
116.234 1571 39.6358
116.351 1718 41.4488
116.469 2102 45.8476
116.586 2281 47.7598
116.704 2296 47.9166
116.821 2239 47.3181
116.939 2201 46.9148
117.056 2242 47.3498
117.174 2246 47.392
117.291 2276 47.7074
117.409 2175 46.6369
117.526 2322 48.1871
117.644 2288 47.833
117.761 2317 48.1352
117.879 2385 48.8365
117.996 2332 48.2908
118.114 2335 48.3218
118.231 2440 49.3964
118.349 2506 50.06
118.466 2399 48.9796
118.584 2497 49.97
118.701 2613 51.1175
118.819 2459 49.5883
118.936 2430 49.295
119.053 2330 48.2701
119.171 2231 47.2335
119.288 2185 46.744
119.405 1931 43.9431
119.523 1766 42.0238
119.64 1540 39.2428
119.757 1490 38.6005
119.875 1654 40.6694
119.992 1777 42.1545
120.109 2089 45.7056
120.226 2223 47.1487
120.343 2266 47.6025
120.46 2265 47.592
120.578 2298 47.9375
120.695 2245 47.3814
120.812 2203 46.9361
120.929 2284 47.7912
121.046 2275 47.697
121.163 2354 48.518
121.279 2313 48.0937
121.396 2294 47.8957
121.513 2291 47.8644
121.63 2350 48.4768
121.747 2377 48.7545
121.863 2282 47.7703
121.98 2431 49.3052
122.097 2475 49.7494
122.213 2434 49.3356
122.33 2467 49.6689
122.446 2368 48.6621
122.563 2411 49.1019
122.679 2231 47.2335
122.795 2304 48
122.912 2208 46.9894
123.028 2051 45.288
123.144 1824 42.7083
123.26 1690 41.1096
123.377 0 1
123.493 0 1
123.609 0 1
123.725 0 1
123.84 0 1
123.956 0 1
124.072 0 1
124.188 0 1
124.303 0 1
124.419 0 1
126.852 0 1
126.968 0 1
127.083 0 1
127.199 0 1
127.315 0 1
127.431 0 1
127.547 0 1
127.663 0 1
127.779 0 1
127.895 0 1
128.011 0 1
128.127 0 1
128.243 0 1
128.359 2113 45.9674
128.476 2013 44.8665
128.592 1826 42.7317
128.708 1785 42.2493
128.825 1878 43.3359
128.941 2067 45.4643
129.058 2176 46.6476
129.174 2304 48
129.291 2507 50.07
129.408 2295 47.9062
129.524 2323 48.1975
129.641 2489 49.8899
129.758 2445 49.4469
129.875 2485 49.8498
129.992 2504 50.04
130.108 2334 48.3115
130.225 2324 48.2079
130.342 2334 48.3115
130.459 2340 48.3735
130.576 2421 49.2037
130.693 2420 49.1935
130.81 2577 50.7642
130.928 2474 49.7393
131.045 2527 50.2693
131.162 2611 51.0979
131.279 2548 50.4777
131.396 2525 50.2494
131.513 2460 49.5984
131.631 2416 49.1528
131.748 2283 47.7807
131.865 2253 47.4658
131.983 2163 46.5081
132.1 1884 43.4051
132.217 1840 42.8952
132.335 1938 44.0227
132.452 2163 46.5081
132.57 2264 47.5815
132.687 2477 49.7695
132.804 2516 50.1597
132.922 2465 49.6488
133.039 2513 50.1298
133.157 2503 50.03
133.274 2572 50.7149
133.392 2495 49.95
133.509 2458 49.5782
133.627 2395 48.9387
133.744 2415 49.1426
133.862 2428 49.2747
133.979 2484 49.8397
134.097 2445 49.4469
134.214 2370 48.6826
134.332 2504 50.04
134.449 2512 50.1199
134.567 2569 50.6853
134.684 2496 49.96
134.802 2508 50.0799
134.919 2571 50.705
135.037 2424 49.2341
135.154 2389 48.8774
135.272 2320 48.1664
135.389 2345 48.4252
135.507 2239 47.3181
135.624 1900 43.589
135.742 1827 42.7434
135.859 1774 42.1189
135.977 1985 44.5533
136.094 2121 46.0543
136.211 2427 49.2646
136.329 2509 50.0899
136.446 2504 50.04
136.564 2490 49.8999
136.681 2400 48.9898
136.798 2549 50.4876
136.915 2548 50.4777
137.033 2467 49.6689
137.15 2447 49.4672
137.267 2438 49.3761
137.384 2355 48.5283
137.502 2298 47.9375
137.619 2368 48.6621
137.736 2373 48.7134
137.853 2343 48.4045
137.97 2418 49.1732
138.087 2317 48.1352
138.204 2405 49.0408
138.321 2450 49.4975
138.438 2504 50.04
138.555 2496 49.96
138.672 2533 50.3289
138.788 2397 48.9592
138.905 2287 47.8226
139.022 2312 48.0833
139.139 2202 46.9255
139.255 1987 44.5758
139.372 1872 43.2666
139.488 1923 43.852
139.605 2021 44.9555
139.721 2317 48.1352
139.838 2461 49.6085
139.954 2445 49.4469
140.071 2411 49.1019
140.187 2501 50.01
140.303 2513 50.1298
140.419 2522 50.2195
140.535 2491 49.9099
140.652 2349 48.4665
140.768 0 1
140.884 0 1
141 0 1
141.115 0 1
141.231 0 1
141.347 0 1
141.463 0 1
141.578 0 1
141.694 0 1
144.104 0 1
144.219 0 1
144.335 0 1
144.45 0 1
144.566 0 1
144.682 0 1
144.798 0 1
144.914 0 1
145.03 0 1
145.146 1851 43.0232
145.262 2022 44.9667
145.378 2024 44.9889
145.494 2045 45.2217
145.61 2093 45.7493
145.726 2012 44.8553
145.842 2016 44.8999
145.959 1985 44.5533
146.075 2037 45.1331
146.192 1907 43.6692
146.308 1766 42.0238
146.425 1938 44.0227
146.541 1916 43.7721
146.658 2022 44.9667
146.774 2135 46.2061
146.891 2072 45.5192
147.008 2175 46.6369
147.125 2097 45.793
147.241 2092 45.7384
147.358 2128 46.1303
147.475 2124 46.0869
147.592 2171 46.594
147.709 2111 45.9456
147.826 2069 45.4863
147.943 1980 44.4972
148.06 1925 43.8748
148.177 1753 41.8688
148.294 1791 42.3202
148.411 1872 43.2666
148.528 2010 44.833
148.645 2080 45.607
148.762 2119 46.0326
148.88 2097 45.793
148.997 2179 46.6798
149.114 2288 47.833
149.231 2177 46.6583
149.349 2171 46.594
149.466 2274 47.6865
149.583 2174 46.6262
149.701 1994 44.6542
149.818 2030 45.0555
149.935 2021 44.9555
150.053 2033 45.0888
150.17 1957 44.238
150.287 1965 44.3283
150.405 2097 45.793
150.522 2123 46.076
150.64 2246 47.392
150.757 2173 46.6154
150.875 2201 46.9148
150.992 2162 46.4973
151.11 2263 47.571
151.227 2220 47.1169
151.344 2197 46.8722
151.462 2102 45.8476
151.579 2032 45.0777
151.697 2008 44.8107
151.814 1893 43.5086
151.932 1804 42.4735
152.049 1907 43.6692
152.167 1978 44.4747
152.284 2123 46.076
152.402 2180 46.6905
152.519 2188 46.7761
152.636 2171 46.594
152.754 2143 46.2925
152.871 2172 46.6047
152.989 2181 46.7012
153.106 2119 46.0326
153.223 2119 46.0326
153.341 2054 45.3211
153.458 2024 44.9889
153.575 1924 43.8634
153.693 2014 44.8776
153.81 2127 46.1194
153.927 2038 45.1442
154.044 2127 46.1194
154.162 2165 46.5296
154.279 2300 47.9583
154.396 2342 48.3942
154.513 2227 47.1911
154.63 2366 48.6415
154.747 2352 48.4974
154.864 2381 48.7955
154.981 2355 48.5283
155.098 2340 48.3735
155.215 2227 47.1911
155.332 2163 46.5081
155.449 2121 46.0543
155.566 2129 46.1411
155.683 2172 46.6047
155.8 2307 48.0312
155.917 2332 48.2908
156.033 2336 48.3322
156.15 0 1
156.267 0 1
156.383 0 1
156.5 0 1
156.617 0 1
156.733 0 1
156.85 0 1
156.966 0 1
157.082 0 1
157.199 0 1
157.315 0 1
157.431 0 1
157.547 0 1
157.664 0 1
157.78 0 1
157.896 0 1
158.012 0 1
158.128 0 1
158.244 0 1
158.359 0 1
158.475 0 1
158.591 0 1
158.706 0 1
