
6.15755 0 1
6.2731 0 1
6.3887 0 1
6.50437 0 1
6.62009 0 1
6.73587 0 1
6.8517 0 1
6.96759 0 1
7.08353 0 1
7.19952 0 1
7.31557 0 1
7.43166 0 1
7.54781 0 1
7.664 0 1
7.78024 0 1
7.89653 0 1
8.01286 0 1
8.12924 0 1
8.24567 0 1
8.36213 0 1
8.47864 0 1
8.59519 0 1
8.71178 0 1
8.82841 0 1
8.94508 0 1
9.06179 0 1
9.17853 0 1
9.29531 0 1
9.41212 0 1
9.52897 0 1
9.64584 0 1
9.76276 0 1
9.8797 0 1
9.99667 0 1
10.1137 0 1
10.2307 0 1
10.3478 0 1
10.4648 0 1
10.5819 0 1
10.6991 0 1
10.8162 0 1
10.9334 0 1
11.0506 0 1
11.1678 0 1
11.285 0 1
11.4023 0 1
11.5196 0 1
11.6369 0 1
11.7542 0 1
11.8715 0 1
11.9888 0 1
12.1062 0 1
12.2235 0 1
12.3409 0 1
12.4582 0 1
12.5756 0 1
12.693 0 1
12.8104 0 1
12.9278 0 1
13.0452 0 1
13.1626 0 1
13.28 0 1
13.3974 0 1
13.5149 0 1
13.6323 0 1
13.7497 0 1
13.8671 0 1
13.9845 0 1
14.1019 0 1
14.2193 0 1
14.3367 0 1
14.4541 0 1
14.5714 0 1
14.6888 0 1
14.8062 0 1
14.9235 0 1
15.0408 21095 145.241
15.1581 22301 149.335
15.2755 23395 152.954
15.3927 23326 152.729
15.51 22920 151.394
15.6273 22616 150.386
15.7445 22252 149.171
15.8617 22635 150.449
15.9789 22970 151.559
16.0961 22906 151.347
16.2132 22809 151.026
16.3304 22989 151.621
16.4475 23159 152.181
16.5646 23296 152.63
16.6816 23445 153.118
16.7986 23779 154.204
16.9156 23806 154.292
17.0326 24253 155.734
17.1496 24513 156.566
17.2665 24587 156.802
17.3833 24729 157.255
17.5002 24625 156.924
17.617 24708 157.188
17.7338 24811 157.515
17.8505 24181 155.502
17.9672 24198 155.557
18.0839 23908 154.622
18.2005 24032 155.023
18.3171 24415 156.253
18.4337 25262 158.94
18.5502 25617 160.053
18.6666 25922 161.003
18.7831 26086 161.512
18.8994 25703 160.322
19.0158 24986 158.07
19.1321 24147 155.393
19.2483 23515 153.346
19.3645 22661 150.536
19.4806 22334 149.446
19.5967 21459 146.489
19.7128 20360 142.688
19.8288 18936 137.608
19.9447 16091 126.85
20.0606 0 1
20.1764 0 1
20.2922 0 1
20.4079 0 1
20.5236 0 1
20.6392 0 1
20.7548 0 1
20.8702 0 1
23.3078 0 1
23.4233 0 1
23.539 0 1
23.6547 0 1
23.7704 0 1
23.8862 0 1
24.0021 0 1
24.118 0 1
24.234 0 1
24.35 0 1
24.4661 12182 110.372
24.5822 13842 117.652
24.6984 16168 127.153
24.8146 18213 134.956
24.9309 19413 139.331
25.0472 20666 143.757
25.1636 21949 148.152
25.28 22963 151.535
25.3965 23714 153.994
25.513 24859 157.667
25.6296 25729 160.403
25.7462 26187 161.824
25.8628 26733 163.502
25.9795 27289 165.194
26.0962 27904 167.045
26.213 28377 168.455
26.3298 28329 168.312
26.4466 27884 166.985
26.5635 27866 166.931
26.6804 27606 166.151
26.7973 27684 166.385
26.9143 27508 165.855
27.0313 28038 167.446
27.1483 29222 170.944
27.2653 29626 172.122
27.3824 29767 172.531
27.4996 29672 172.256
27.6167 29893 172.896
27.7339 28909 170.026
27.8511 28309 168.253
27.9683 28086 167.589
28.0855 28039 167.448
28.2028 28372 168.44
28.3201 28258 168.101
28.4374 27937 167.144
28.5547 27604 166.145
28.6721 26763 163.594
28.7894 26287 162.133
28.9068 25830 160.717
29.0242 25646 160.144
29.1416 25709 160.34
29.259 25852 160.786
29.3764 25983 161.192
29.4939 26759 163.582
29.6113 27176 164.851
29.7288 27659 166.31
29.8463 27746 166.571
29.9638 27857 166.904
30.0812 27651 166.286
30.1987 27638 166.247
30.3162 27573 166.051
30.4337 27917 167.084
30.5512 28908 170.024
30.6687 29280 171.114
30.7862 29688 172.302
30.9037 30225 173.853
31.0212 30304 174.08
31.1387 29953 173.069
31.2562 29410 171.493
31.3737 29123 170.655
31.4912 28733 169.508
31.6087 28721 169.473
31.7262 28571 169.03
31.8436 28677 169.343
31.9611 28606 169.133
32.0785 27665 166.328
32.1959 27298 165.221
32.3134 26388 162.444
32.4308 26050 161.4
32.5482 25706 160.331
32.6655 25799 160.621
32.7829 26230 161.957
32.9002 26438 162.598
33.0176 26783 163.655
33.1349 27338 165.342
33.2522 28131 167.723
33.3694 28010 167.362
33.4867 28258 168.101
33.6039 28197 167.92
33.7211 28242 168.054
33.8383 28249 168.074
33.9554 27891 167.006
34.0725 28637 169.225
34.1896 28605 169.13
34.3067 29322 171.237
34.4237 29940 173.032
34.5407 30337 174.175
34.6577 30137 173.6
34.7746 30656 175.089
34.8915 30214 173.822
35.0084 29761 172.514
35.1252 28876 169.929
35.242 29078 170.523
35.3587 29439 171.578
35.4755 29682 172.285
35.5921 29223 170.947
35.7088 28673 169.331
35.8254 27786 166.691
35.9419 26566 162.991
36.0584 25120 158.493
36.1749 23658 153.812
36.2913 22941 151.463
36.4077 22600 150.333
36.524 21791 147.618
36.6403 21402 146.294
36.7565 21539 146.762
36.8727 21220 145.671
36.9889 21009 144.945
37.1049 19458 139.492
37.221 0 1
37.3369 0 1
37.4529 0 1
37.5687 0 1
37.6845 0 1
37.8003 0 1
37.916 0 1
38.0316 0 1
38.1472 0 1
40.5851 0 1
40.7008 0 1
40.8164 0 1
40.9322 0 1
41.048 0 1
41.1639 0 1
41.2798 0 1
41.3958 0 1
41.5118 0 1
41.6279 0 1
41.744 12639 112.423
41.8602 14260 119.415
41.9765 16054 126.704
42.0928 17837 133.555
42.2091 19663 140.225
42.3255 20976 144.831
42.4419 22551 150.17
42.5584 23518 153.356
42.675 24134 155.351
42.7915 24699 157.159
42.9081 25023 158.187
43.0248 26172 161.778
43.1415 27213 164.964
43.2582 28533 168.917
43.375 29379 171.403
43.4918 30279 174.009
43.6087 29933 173.012
43.7256 29841 172.745
43.8425 29483 171.706
43.9595 28828 169.788
44.0765 28627 169.195
44.1935 28748 169.552
44.3106 29348 171.313
44.4277 29197 170.871
44.5448 28442 168.648
44.6619 27281 165.17
44.7791 26220 161.926
44.8963 24554 156.697
45.0136 23298 152.637
45.1308 22954 151.506
45.2481 22828 151.089
45.3654 22749 150.828
45.4827 23212 152.355
45.6001 24475 156.445
45.7174 26214 161.907
45.8348 27387 165.49
45.9522 28412 168.559
46.0697 28471 168.734
46.1871 29231 170.971
46.3046 29213 170.918
46.422 29230 170.968
46.5395 29188 170.845
46.657 29784 172.58
46.7745 30819 175.553
46.892 31231 176.723
47.0096 31820 178.382
47.1271 32439 180.108
47.2446 32329 179.803
47.3622 32061 179.056
47.4797 31638 177.871
47.5973 31640 177.876
47.7149 30840 175.613
47.8324 31096 176.341
47.95 31436 177.302
48.0675 30338 174.178
48.1851 30311 174.101
48.3027 28673 169.331
48.4202 26575 163.018
48.5378 24363 156.087
48.6554 22922 151.4
48.7729 22901 151.331
48.8904 22918 151.387
49.008 23635 153.737
49.1255 24760 157.353
49.243 26818 163.762
49.3605 28501 168.822
49.478 29733 172.433
49.5955 30534 174.74
49.713 30726 175.288
49.8304 30704 175.226
49.9479 30615 174.971
50.0653 30281 174.014
50.1827 31070 176.267
50.3001 31622 177.826
50.4175 32775 181.039
50.5348 33533 183.12
50.6521 33602 183.308
50.7694 33989 184.361
50.8867 33305 182.497
51.004 33286 182.445
51.1212 32487 180.242
51.2384 32203 179.452
51.3556 32473 180.203
51.4727 32515 180.319
51.5899 32902 181.389
51.707 31020 176.125
51.824 29836 172.731
51.9411 27771 166.646
52.0581 25181 158.685
52.175 24218 155.621
52.2919 23603 153.633
52.4088 23620 153.688
52.5257 24056 155.1
52.6425 25488 159.65
52.7593 26907 164.034
52.876 28424 168.594
52.9927 29163 170.772
53.1094 29216 170.927
53.226 29721 172.398
53.3426 29190 170.851
53.4591 27906 167.051
53.5756 27137 164.733
53.692 25910 160.966
53.8084 25759 160.496
53.9248 24966 158.006
54.0411 24099 155.239
54.1573 23061 151.858
54.2735 0 1
54.3896 0 1
54.5057 0 1
54.6217 0 1
54.7377 0 1
54.8537 0 1
54.9695 0 1
55.0853 0 1
55.2011 0 1
55.3168 0 1
55.4324 0 1
57.824 0 1
57.9396 0 1
58.0553 0 1
58.1711 0 1
58.2869 0 1
58.4028 0 1
58.5187 0 1
58.6347 0 1
58.7508 0 1
58.8669 0 1
58.983 25953 161.099
59.0992 29398 171.458
59.2155 32493 180.258
59.3318 34954 186.96
59.4482 36785 191.794
59.5646 38558 196.362
59.681 38819 197.025
59.7975 39538 198.842
59.9141 40642 201.599
60.0306 41265 203.138
60.1473 42139 205.278
60.2639 42784 206.843
60.3807 42075 205.122
60.4974 40783 201.948
60.6142 38289 195.676
60.731 34989 187.053
60.8479 31878 178.544
60.9648 29543 171.881
61.0818 28749 169.555
61.1987 29496 171.744
61.3158 31327 176.994
61.4328 34388 185.44
61.5499 38265 195.614
61.667 42243 205.531
61.7841 43735 209.129
61.9013 44988 212.104
62.0185 45200 212.603
62.1357 45507 213.324
62.253 44647 211.298
62.3702 45543 213.408
62.4875 46376 215.351
62.6049 47064 216.942
62.7222 48082 219.276
62.8396 49210 221.833
62.9569 49338 222.122
63.0743 49156 221.712
63.1918 49002 221.364
63.3092 48413 220.03
63.4267 47528 218.009
63.5441 47002 216.799
63.6616 47426 217.775
63.7791 47141 217.12
63.8966 45906 214.257
64.0142 43990 209.738
64.1317 40656 201.633
64.2492 36265 190.434
64.3668 32535 180.375
64.4843 30084 173.447
64.6019 29259 171.053
64.7195 29165 170.778
64.837 30671 175.131
64.9546 34292 185.181
65.0722 38520 196.265
65.1898 42184 205.387
65.3074 45396 213.063
65.4249 47200 217.256
65.5425 47874 218.801
65.6601 47714 218.435
65.7777 47560 218.083
65.8952 47258 217.389
66.0128 47519 217.989
66.1304 49092 221.567
66.2479 49446 222.365
66.3655 50934 225.686
66.483 50982 225.792
66.6005 51604 227.165
66.718 51438 226.799
66.8355 51131 226.122
66.953 50281 224.234
67.0705 49549 222.596
67.1879 49183 221.772
67.3054 49351 222.151
67.4228 49250 221.923
67.5402 48103 219.324
67.6576 44888 211.868
67.7749 41706 204.22
67.8923 36819 191.883
68.0096 32235 179.541
68.1269 29885 172.873
68.2442 28515 168.864
68.3614 29230 170.968
68.4787 30633 175.023
68.5958 34828 186.623
68.713 39081 197.689
68.8302 44481 210.905
68.9473 47770 218.563
69.0643 50551 224.835
69.1814 51250 226.385
69.2984 50540 224.811
69.4154 49006 221.373
69.5323 47190 217.233
69.6492 47064 216.942
69.7661 46891 216.543
69.8829 47550 218.06
69.9997 47673 218.341
70.1165 47795 218.621
70.2332 47319 217.529
70.3499 46172 214.877
70.4665 44202 210.243
70.5831 42266 205.587
70.6996 40404 201.007
70.8161 38270 195.627
70.9326 36693 191.554
71.049 34973 187.011
71.1653 33621 183.36
71.2817 30774 175.425
71.3979 26766 163.603
71.5141 22902 151.334
71.6303 18132 134.655
71.7464 12778 113.04
71.8624 0 1
71.9784 0 1
72.0944 0 1
72.2102 0 1
72.3261 0 1
72.4418 0 1
72.5575 0 1
72.6732 0 1
75.1054 0 1
75.2209 0 1
75.3365 0 1
75.4521 0 1
75.5678 0 1
75.6835 0 1
75.7993 0 1
75.9151 0 1
76.031 0 1
76.147 36126 190.068
76.263 39268 198.162
76.3791 41259 203.123
76.4952 40580 201.445
76.6113 39146 197.853
76.7276 36953 192.232
76.8438 34237 185.032
76.9601 30552 174.791
77.0765 27821 166.796
77.1929 26575 163.018
77.3093 26682 163.346
77.4258 28050 167.481
77.5423 31846 178.454
77.6589 37718 194.211
77.7755 44017 209.802
77.8921 49499 222.484
78.0088 52778 229.735
78.1256 54919 234.348
78.2423 55098 234.73
78.3591 53577 231.467
78.4759 52889 229.976
78.5928 52974 230.161
78.7097 53230 230.716
78.8266 53452 231.197
78.9436 57699 240.206
79.0606 56938 238.617
79.1776 57839 240.497
79.2946 58403 241.667
79.4117 58830 242.549
79.5288 58618 242.112
79.6459 58104 241.048
79.7631 56884 238.504
79.8802 56977 238.699
79.9974 57914 240.653
80.1147 58345 241.547
80.2319 56249 237.169
80.3491 52435 228.987
80.4664 47150 217.141
80.5837 40688 201.713
80.701 34987 187.048
80.8183 31136 176.454
80.9357 30514 174.683
81.053 30549 174.783
81.1704 33278 182.423
81.2877 38582 196.423
81.4051 47218 217.297
81.5225 56097 236.848
81.6399 59418 243.758
81.7573 63755 252.498
81.8747 62965 250.928
81.9922 63744 252.476
82.1096 62699 250.398
82.227 61446 247.883
82.3444 60763 246.502
82.4619 62512 250.024
82.5793 64123 253.225
82.6967 65687 256.295
82.8142 66504 257.884
82.9316 67392 259.6
83.049 67595 259.99
83.1664 66940 258.728
83.2838 66300 257.488
83.4012 65612 256.148
83.5186 64988 254.927
83.636 65077 255.102
83.7534 64872 254.7
83.8708 62149 249.297
83.9881 57370 239.52
84.1055 51255 226.396
84.2228 46528 215.704
84.3401 39655 199.136
84.4575 34768 186.462
84.5747 32644 180.677
84.692 32813 181.144
84.8093 37113 192.647
84.9265 44200 210.238
85.0437 52641 229.436
85.1609 60352 245.666
85.2781 66935 258.718
85.3952 70930 266.327
85.5123 72395 269.063
85.6294 71648 267.671
85.7465 70122 264.806
85.8636 68753 262.208
85.9806 68843 262.379
86.0976 70979 266.419
86.2145 72385 269.045
86.3315 75404 274.598
86.4484 73455 271.026
86.5652 75255 274.326
86.682 73391 270.908
86.7988 71332 267.081
86.9156 69005 262.688
87.0323 67328 259.476
87.149 65964 256.835
87.2657 65526 255.98
87.3823 64876 254.708
87.4988 61374 247.738
87.6154 55336 235.236
87.7318 48924 221.188
87.8483 41650 204.083
87.9647 34137 184.762
88.081 28721 169.473
88.1973 26754 163.567
88.3136 26289 162.139
88.4298 28636 169.222
88.546 33255 182.36
88.6621 38470 196.138
88.7781 42386 205.879
88.8942 0 1
89.0101 0 1
89.126 0 1
89.2419 0 1
89.3577 0 1
89.4734 0 1
89.5891 0 1
89.7047 0 1
89.8203 0 1
89.9358 0 1
92.3269 0 1
92.4424 0 1
92.558 0 1
92.6736 0 1
92.7893 0 1
92.905 0 1
93.0208 0 1
93.1366 0 1
93.2525 0 1
93.3685 0 1
93.4845 0 1
93.6005 30882 175.733
93.7167 33415 182.798
93.8328 37620 193.959
93.949 46604 215.88
94.0653 56482 237.659
94.1816 65100 255.147
94.2979 72876 269.956
94.4143 77545 278.469
94.5307 81613 285.68
94.6472 83903 289.66
94.7637 84881 291.343
94.8803 84047 289.909
94.9969 83451 288.879
95.1135 83537 289.028
95.2302 86067 293.372
95.3469 87309 295.481
95.4637 88896 298.154
95.5805 89175 298.622
95.6973 89095 298.488
95.8142 88422 297.358
95.9311 87146 295.205
96.048 87104 295.134
96.1649 86019 293.29
96.2819 85485 292.378
96.3989 83766 289.424
96.516 81101 284.782
96.633 76016 275.71
96.7501 68881 262.452
96.8673 61394 247.778
96.9844 54717 233.917
97.1016 48550 220.341
97.2188 43775 209.225
97.336 41854 204.583
97.4532 44356 210.609
97.5704 50802 225.393
97.6877 60634 246.24
97.805 70690 265.876
97.9223 79490 281.94
98.0396 86215 293.624
98.1569 89495 299.157
98.2743 90876 301.456
98.3916 89464 299.105
98.509 88235 297.044
98.6264 86900 294.788
98.7438 88066 296.759
98.8612 89808 299.68
98.9786 91728 302.866
99.096 93548 305.856
99.2134 93845 306.341
99.3308 93505 305.786
99.4482 93578 305.905
99.5656 92671 304.419
99.6831 91120 301.861
99.8005 90831 301.382
99.9179 89039 298.394
100.035 88849 298.075
100.153 86005 293.266
100.27 79729 282.363
100.388 70313 265.166
100.505 61560 248.113
100.622 54398 233.234
100.74 48640 220.545
100.857 45529 213.375
100.975 45864 214.159
101.092 49990 223.584
101.209 58564 242
101.327 69789 264.176
101.444 80530 283.778
101.561 88235 297.044
101.679 92556 304.23
101.796 94085 306.733
101.913 93685 306.08
102.03 91754 302.909
102.148 90608 301.012
102.265 91619 302.686
102.382 89864 299.773
102.499 93390 305.598
102.616 94898 308.055
102.733 95961 309.776
102.851 95583 309.165
102.968 96095 309.992
103.085 95218 308.574
103.202 93875 306.39
103.319 92517 304.166
103.436 91203 301.998
103.552 90752 301.251
103.669 89204 298.67
103.786 85562 292.51
103.903 77796 278.919
104.02 68837 262.368
104.137 60207 245.371
104.253 53259 230.779
104.37 48370 219.932
104.487 47773 218.57
104.603 47915 218.895
104.72 52632 229.417
104.836 58516 241.901
104.953 65180 255.304
105.069 70449 265.422
105.186 73776 271.617
105.302 73889 271.825
105.418 72717 269.661
105.535 69704 264.015
105.651 65026 255.002
105.767 59960 244.867
105.883 55361 235.289
105.999 51235 226.351
106.115 0 1
106.231 0 1
106.347 0 1
106.463 0 1
106.579 0 1
106.694 0 1
106.81 0 1
106.926 0 1
107.041 0 1
107.157 0 1
109.576 0 1
109.692 0 1
109.807 0 1
109.923 0 1
110.039 0 1
110.155 0 1
110.27 0 1
110.386 0 1
110.502 0 1
110.618 53947 232.265
110.735 58680 242.24
110.851 60803 246.583
110.967 63745 252.478
111.083 68643 261.998
111.199 73695 271.468
111.316 77984 279.256
111.432 80781 284.22
111.549 82784 287.722
111.665 83798 289.479
111.782 84803 291.21
111.898 84468 290.634
112.015 83590 289.119
112.132 82973 288.05
112.248 82427 287.101
112.365 82946 288.003
112.482 80175 283.152
112.599 71542 267.473
112.716 62559 250.118
112.832 54777 234.045
112.949 49115 221.619
113.066 45165 212.521
113.183 43858 209.423
113.3 44684 211.386
113.417 48295 219.761
113.534 57429 239.643
113.652 68186 261.124
113.769 75612 274.976
113.886 81035 284.666
114.003 83394 288.78
114.12 84045 289.905
114.238 82990 288.08
114.355 80409 283.565
114.472 79428 281.83
114.589 79761 282.42
114.707 81564 285.594
114.824 82951 288.012
114.942 83627 289.183
115.059 83432 288.846
115.176 83578 289.099
115.294 82852 287.84
115.411 81570 285.605
115.529 80343 283.448
115.646 77876 279.063
115.764 77176 277.806
115.881 76710 276.966
115.999 76868 277.251
116.116 72448 269.162
116.234 65588 256.102
116.351 57309 239.393
116.469 50916 225.646
116.586 45852 214.131
116.704 43024 207.422
116.821 42985 207.328
116.939 43982 209.719
117.056 49243 221.908
117.174 57380 239.541
117.291 66127 257.152
117.409 71619 267.617
117.526 75021 273.9
117.644 76843 277.206
117.761 77627 278.616
117.879 75563 274.887
117.996 72751 269.724
118.114 72700 269.629
118.231 73423 270.967
118.349 76425 276.451
118.466 76838 277.197
118.584 76740 277.02
118.701 76566 276.706
118.819 76244 276.123
118.936 74343 272.659
119.053 73802 271.665
119.171 72390 269.054
119.288 70946 266.357
119.405 69887 264.361
119.523 69480 263.591
119.64 68890 262.469
119.757 66642 258.151
119.875 61128 247.241
119.992 54300 233.024
120.109 48792 220.889
120.226 44502 210.955
120.343 41628 204.029
120.46 40849 202.111
120.578 41287 203.192
120.695 43055 207.497
120.812 48478 220.177
120.929 55306 235.172
121.046 59477 243.879
121.163 61544 248.081
121.279 63361 251.716
121.396 63187 251.37
121.513 62177 249.353
121.63 59890 244.724
121.747 57142 239.044
121.863 57077 238.908
121.98 57495 239.781
122.097 57174 239.111
122.213 56903 238.543
122.33 55334 235.232
122.446 53762 231.866
122.563 51582 227.117
122.679 48759 220.814
122.795 45784 213.972
122.912 42629 206.468
123.028 39876 199.69
123.144 37382 193.344
123.26 35073 187.278
123.377 0 1
123.493 0 1
123.609 0 1
123.725 0 1
123.84 0 1
123.956 0 1
124.072 0 1
124.188 0 1
124.303 0 1
124.419 0 1
126.852 0 1
126.968 0 1
127.083 0 1
127.199 0 1
127.315 0 1
127.431 0 1
127.547 0 1
127.663 0 1
127.779 0 1
127.895 0 1
128.011 0 1
128.127 0 1
128.243 0 1
128.359 65593 256.111
128.476 66508 257.891
128.592 67462 259.734
128.708 68836 262.366
128.825 68850 262.393
128.941 66302 257.492
129.058 61076 247.136
129.174 56708 238.134
129.291 52105 228.265
129.408 49539 222.574
129.524 48243 219.643
129.641 46950 216.679
129.758 48237 219.629
129.875 52353 228.808
129.992 58313 241.481
130.108 63389 251.772
130.225 67721 260.233
130.342 70871 266.216
130.459 70593 265.693
130.576 72339 268.959
130.693 69296 263.241
130.81 69426 263.488
130.928 70517 265.55
131.045 72439 269.145
131.162 73730 271.533
131.279 75477 274.731
131.396 73946 271.93
131.513 74693 273.3
131.631 73776 271.617
131.748 71897 268.136
131.865 71060 266.571
131.983 69369 263.38
132.1 69102 262.873
132.217 69431 263.498
132.335 69461 263.555
132.452 67757 260.302
132.57 64082 253.144
132.687 59132 243.171
132.804 56370 237.424
132.922 52375 228.856
133.039 50325 224.332
133.157 49398 222.257
133.274 48653 220.574
133.392 50405 224.511
133.509 54829 234.156
133.627 59660 244.254
133.744 63566 252.123
133.862 67495 259.798
133.979 68798 262.294
134.097 68995 262.669
134.214 68592 261.901
134.332 66826 258.507
134.449 67297 259.417
134.567 69618 263.852
134.684 71011 266.479
134.802 72113 268.539
134.919 71573 267.531
135.037 71621 267.621
135.154 71056 266.563
135.272 70492 265.503
135.389 69408 263.454
135.507 67919 260.613
135.624 67417 259.648
135.742 66849 258.552
135.859 67374 259.565
135.977 67251 259.328
136.094 65592 256.109
136.211 62275 249.55
136.329 58531 241.932
136.446 55714 236.038
136.564 52570 229.281
136.681 51136 226.133
136.798 49886 223.352
136.915 49092 221.567
137.033 49884 223.347
137.15 53185 230.619
137.267 57398 239.579
137.384 60184 245.324
137.502 63083 251.163
137.619 64376 253.724
137.736 65419 255.771
137.853 62279 249.558
137.97 63746 252.48
138.087 62627 250.254
138.204 64915 254.784
138.321 65439 255.81
138.438 64731 254.423
138.555 65189 255.321
138.672 63358 251.71
138.788 62287 249.574
138.905 59963 244.873
139.022 58218 241.284
139.139 55251 235.055
139.255 52161 228.388
139.372 50595 224.933
139.488 48911 221.158
139.605 47161 217.166
139.721 45039 212.224
139.838 41792 204.431
139.954 38288 195.673
140.071 34141 184.773
140.187 30918 175.835
140.303 28004 167.344
140.419 25550 159.844
140.535 23359 152.837
140.652 21459 146.489
140.768 0 1
140.884 0 1
141 0 1
141.115 0 1
141.231 0 1
141.347 0 1
141.463 0 1
141.578 0 1
141.694 0 1
144.104 0 1
144.219 0 1
144.335 0 1
144.45 0 1
144.566 0 1
144.682 0 1
144.798 0 1
144.914 0 1
145.03 0 1
145.146 39800 199.499
145.262 40213 200.532
145.378 39973 199.932
145.494 39707 199.266
145.61 39102 197.742
145.726 38652 196.601
145.842 38882 197.185
145.959 39642 199.103
146.075 41222 203.032
146.192 42941 207.222
146.308 44190 210.214
146.425 45029 212.2
146.541 45760 213.916
146.658 45145 212.474
146.774 44293 210.459
146.891 44863 211.809
147.008 46805 216.345
147.125 47000 216.795
147.241 48070 219.249
147.358 48963 221.276
147.475 48892 221.115
147.592 48565 220.375
147.709 47958 218.993
147.826 47178 217.205
147.943 46369 215.335
148.06 45664 213.691
148.177 45024 212.189
148.294 45100 212.368
148.411 45969 214.404
148.528 46412 215.434
148.645 45514 213.34
148.762 45023 212.186
148.88 44082 209.957
148.997 43661 208.952
149.114 41231 203.054
149.231 40928 202.307
149.349 40815 202.027
149.466 39020 197.535
149.583 39187 197.957
149.701 39823 199.557
149.818 40499 201.244
149.935 41854 204.583
150.053 42559 206.298
150.17 43683 209.005
150.287 44160 210.143
150.405 43519 208.612
150.522 43603 208.813
150.64 44209 210.259
150.757 45278 212.786
150.875 46155 214.837
150.992 46897 216.557
151.11 47129 217.092
151.227 46805 216.345
151.344 45661 213.684
151.462 46046 214.583
151.579 44045 209.869
151.697 44056 209.895
151.814 43293 208.07
151.932 43279 208.036
152.049 43134 207.687
152.167 44267 210.397
152.284 43778 209.232
152.402 43099 207.603
152.519 42157 205.322
152.636 41529 203.787
152.754 40672 201.673
152.871 39567 198.915
152.989 38626 196.535
153.106 38507 196.232
153.223 37931 194.759
153.341 38497 196.207
153.458 38942 197.337
153.575 38993 197.466
153.693 40205 200.512
153.81 40653 201.626
153.927 40444 201.107
154.044 39606 199.013
154.162 39891 199.727
154.279 40970 202.41
154.396 42268 205.592
154.513 42788 206.853
154.63 43297 208.079
154.747 43570 208.734
154.864 42778 206.828
154.981 41764 204.362
155.098 41340 203.322
155.215 40301 200.751
155.332 40090 200.225
155.449 39517 198.789
155.566 39233 198.073
155.683 39471 198.673
155.8 38874 197.165
155.917 38185 195.41
156.033 37428 193.463
156.15 0 1
156.267 0 1
156.383 0 1
156.5 0 1
156.617 0 1
156.733 0 1
156.85 0 1
156.966 0 1
157.082 0 1
157.199 0 1
157.315 0 1
157.431 0 1
157.547 0 1
157.664 0 1
157.78 0 1
157.896 0 1
158.012 0 1
158.128 0 1
158.244 0 1
158.359 0 1
158.475 0 1
158.591 0 1
158.706 0 1
