
6.15755 0 1
6.2731 0 1
6.3887 0 1
6.50437 0 1
6.62009 0 1
6.73587 0 1
6.8517 0 1
6.96759 0 1
7.08353 0 1
7.19952 0 1
7.31557 0 1
7.43166 0 1
7.54781 0 1
7.664 0 1
7.78024 0 1
7.89653 0 1
8.01286 0 1
8.12924 0 1
8.24567 0 1
8.36213 0 1
8.47864 0 1
8.59519 0 1
8.71178 0 1
8.82841 0 1
8.94508 0 1
9.06179 0 1
9.17853 0 1
9.29531 0 1
9.41212 0 1
9.52897 0 1
9.64584 0 1
9.76276 0 1
9.8797 0 1
9.99667 0 1
10.1137 0 1
10.2307 0 1
10.3478 0 1
10.4648 0 1
10.5819 0 1
10.6991 0 1
10.8162 0 1
10.9334 0 1
11.0506 0 1
11.1678 0 1
11.285 0 1
11.4023 0 1
11.5196 0 1
11.6369 0 1
11.7542 0 1
11.8715 0 1
11.9888 0 1
12.1062 0 1
12.2235 0 1
12.3409 0 1
12.4582 0 1
12.5756 0 1
12.693 0 1
12.8104 0 1
12.9278 0 1
13.0452 0 1
13.1626 0 1
13.28 0 1
13.3974 0 1
13.5149 0 1
13.6323 0 1
13.7497 0 1
13.8671 0 1
13.9845 0 1
14.1019 0 1
14.2193 0 1
14.3367 0 1
14.4541 0 1
14.5714 0 1
14.6888 0 1
14.8062 0 1
14.9235 0 1
15.0408 0 0
15.1581 0 0
15.2755 0 0
15.3927 0 0
15.51 0 0
15.6273 0 0
15.7445 0 0
15.8617 0 0
15.9789 0 0
16.0961 0 0
16.2132 0 0
16.3304 0 0
16.4475 0 0
16.5646 0 0
16.6816 0 0
16.7986 0 0
16.9156 0 0
17.0326 0 0
17.1496 0 0
17.2665 0 0
17.3833 0 0
17.5002 0 0
17.617 0 0
17.7338 0 0
17.8505 0 0
17.9672 0 0
18.0839 0 0
18.2005 0 0
18.3171 0 0
18.4337 0 0
18.5502 0 0
18.6666 0 0
18.7831 0 0
18.8994 0 0
19.0158 0 0
19.1321 0 0
19.2483 0 0
19.3645 0 0
19.4806 0 0
19.5967 0 0
19.7128 0 0
19.8288 0 0
19.9447 0 0
20.0606 0 1
20.1764 0 1
20.2922 0 1
20.4079 0 1
20.5236 0 1
20.6392 0 1
20.7548 0 1
20.8702 0 1
23.3078 0 1
23.4233 0 1
23.539 0 1
23.6547 0 1
23.7704 0 1
23.8862 0 1
24.0021 0 1
24.118 0 1
24.234 0 1
24.35 0 1
24.4661 157238 396.532
24.5822 179337 423.482
24.6984 190407 436.357
24.8146 194856 441.425
24.9309 196649 443.451
25.0472 195645 442.318
25.1636 194501 441.023
25.28 191679 437.812
25.3965 190910 436.932
25.513 189578 435.406
25.6296 190039 435.935
25.7462 189400 435.201
25.8628 185888 431.147
25.9795 185406 430.588
26.0962 182277 426.939
26.213 179826 424.059
26.3298 175364 418.765
26.4466 174580 417.828
26.5635 171650 414.307
26.6804 169512 411.718
26.7973 165465 406.774
26.9143 164643 405.762
27.0313 161578 401.968
27.1483 161137 401.419
27.2653 159746 399.682
27.3824 156483 395.579
27.4996 150490 387.93
27.6167 141224 375.798
27.7339 114514 338.399
27.8511 83538 289.029
27.9683 85824 292.957
28.0855 112238 335.019
28.2028 133582 365.489
28.3201 137649 371.011
28.4374 143052 378.222
28.5547 140917 375.389
28.6721 140905 375.373
28.7894 138476 372.124
28.9068 136885 369.98
29.0242 134864 367.238
29.1416 134685 366.995
29.259 132199 363.592
29.3764 131329 362.393
29.4939 128482 358.444
29.6113 127758 357.433
29.7288 127066 356.463
29.8463 125157 353.775
29.9638 124341 352.62
30.0812 122375 349.821
30.1987 121510 348.583
30.3162 119170 345.21
30.4337 117409 342.65
30.5512 115945 340.507
30.6687 114747 338.743
30.7862 115456 339.788
30.9037 111282 333.59
31.0212 108580 329.515
31.1387 102970 320.889
31.2562 86598 294.275
31.3737 63641 252.272
31.4912 60730 246.435
31.6087 79569 282.08
31.7262 91988 303.295
31.8436 95885 309.653
31.9611 95835 309.572
32.0785 93807 306.279
32.1959 92702 304.47
32.3134 90242 300.403
32.4308 87866 296.422
32.5482 86416 293.966
32.6655 84493 290.677
32.7829 82085 286.505
32.9002 80673 284.03
33.0176 79108 281.261
33.1349 77277 277.987
33.2522 75256 274.328
33.3694 74090 272.195
33.4867 71919 268.177
33.6039 71379 267.168
33.7211 69591 263.801
33.8383 68596 261.908
33.9554 67380 259.577
34.0725 65889 256.689
34.1896 65356 255.648
34.3067 66279 257.447
34.4237 68956 262.595
34.5407 71766 267.892
34.6577 73067 270.309
34.7746 72067 268.453
34.8915 67959 260.689
35.0084 54226 232.865
35.1252 44580 211.14
35.242 52332 228.762
35.3587 70547 265.607
35.4755 81460 285.412
35.5921 86950 294.873
35.7088 89278 298.794
35.8254 91550 302.572
35.9419 92537 304.199
36.0584 93323 305.488
36.1749 94818 307.925
36.2913 95954 309.764
36.4077 97821 312.763
36.524 98570 313.959
36.6403 100851 317.57
36.7565 102320 319.875
36.8727 103162 321.188
36.9889 105172 324.302
37.1049 104378 323.076
37.221 0 1
37.3369 0 1
37.4529 0 1
37.5687 0 1
37.6845 0 1
37.8003 0 1
37.916 0 1
38.0316 0 1
38.1472 0 1
40.5851 0 1
40.7008 0 1
40.8164 0 1
40.9322 0 1
41.048 0 1
41.1639 0 1
41.2798 0 1
41.3958 0 1
41.5118 0 1
41.6279 0 1
41.744 106557 326.431
41.8602 109337 330.661
41.9765 110311 332.131
42.0928 110878 332.983
42.2091 111136 333.371
42.3255 112187 334.943
42.4419 113087 336.284
42.5584 114458 338.316
42.675 115004 339.122
42.7915 116367 341.126
42.9081 116520 341.35
43.0248 118855 344.754
43.1415 119093 345.099
43.2582 119906 346.274
43.375 120248 346.768
43.4918 120943 347.769
43.6087 117985 343.489
43.7256 111933 334.564
43.8425 88940 298.228
43.9595 60905 246.789
44.0765 68374 261.484
44.1935 96058 309.932
44.3106 111957 334.6
44.4277 116066 340.685
44.5448 115676 340.112
44.6619 115345 339.625
44.7791 114887 338.95
44.8963 113882 337.464
45.0136 112488 335.392
45.1308 111457 333.852
45.2481 109179 330.422
45.3654 109323 330.64
45.4827 108471 329.349
45.6001 106732 326.699
45.7174 105999 325.575
45.8348 104209 322.814
45.9522 102347 319.917
46.0697 100976 317.767
46.1871 98813 314.345
46.3046 96506 310.654
46.422 95482 309.002
46.5395 94629 307.618
46.657 94277 307.046
46.7745 92229 303.692
46.892 90769 301.279
47.0096 89867 299.778
47.1271 88763 297.931
47.2446 87340 295.533
47.3622 81577 285.617
47.4797 63037 251.072
47.5973 44614 211.22
47.7149 50189 224.029
47.8324 65967 256.84
47.95 75230 274.281
48.0675 77698 278.744
48.1851 77901 279.108
48.3027 77405 278.218
48.4202 76862 277.24
48.5378 77142 277.744
48.6554 76210 276.062
48.7729 75767 275.258
48.8904 76259 276.15
49.008 76868 277.251
49.1255 77505 278.397
49.243 77895 279.097
49.3605 77870 279.052
49.478 77984 279.256
49.5955 78497 280.173
49.713 79802 282.492
49.8304 79918 282.698
49.9479 82312 286.901
50.0653 83381 288.758
50.1827 85967 293.201
50.3001 86673 294.403
50.4175 87379 295.599
50.5348 87985 296.623
50.6521 90703 301.169
50.7694 91358 302.255
50.8867 86952 294.876
51.004 73580 271.256
51.1212 57393 239.568
51.2384 55421 235.417
51.3556 69795 264.187
51.4727 87063 295.064
51.5899 94905 308.067
51.707 97885 312.866
51.824 98719 314.196
51.9411 100053 316.312
52.0581 100186 316.522
52.175 100732 317.383
52.2919 101021 317.838
52.4088 101837 319.119
52.5257 103707 322.036
52.6425 103722 322.059
52.7593 103923 322.371
52.876 105036 324.093
52.9927 105070 324.145
53.1094 104067 322.594
53.226 105232 324.395
53.3426 106545 326.412
53.4591 107781 328.3
53.5756 109149 330.377
53.692 109693 331.199
53.8084 108775 329.811
53.9248 109593 331.048
54.0411 107215 327.437
54.1573 105004 324.043
54.2735 0 1
54.3896 0 1
54.5057 0 1
54.6217 0 1
54.7377 0 1
54.8537 0 1
54.9695 0 1
55.0853 0 1
55.2011 0 1
55.3168 0 1
55.4324 0 1
57.824 0 1
57.9396 0 1
58.0553 0 1
58.1711 0 1
58.2869 0 1
58.4028 0 1
58.5187 0 1
58.6347 0 1
58.7508 0 1
58.8669 0 1
58.983 99770 315.864
59.0992 99681 315.723
59.2155 98941 314.549
59.3318 100083 316.359
59.4482 101488 318.572
59.5646 99789 315.894
59.681 95465 308.974
59.7975 85924 293.128
59.9141 72768 269.755
60.0306 65162 255.268
60.1473 69447 263.528
60.2639 78269 279.766
60.3807 85605 292.583
60.4974 89464 299.105
60.6142 89556 299.259
60.731 89004 298.335
60.8479 89925 299.875
60.9648 88782 297.963
61.0818 88604 297.664
61.1987 86167 293.542
61.3158 85867 293.031
61.4328 83311 288.636
61.5499 82973 288.05
61.667 82168 286.65
61.7841 82029 286.407
61.9013 83203 288.449
62.0185 83095 288.262
62.1357 82491 287.212
62.253 80704 284.084
62.3702 78780 280.678
62.4875 76502 276.59
62.6049 77941 279.179
62.7222 80676 284.035
62.8396 80984 284.577
62.9569 81214 284.981
63.0743 79609 282.151
63.1918 78016 279.313
63.3092 71943 268.222
63.4267 61505 248.002
63.5441 51532 227.007
63.6616 49870 223.316
63.7791 56707 238.132
63.8966 64530 254.028
64.0142 68215 261.18
64.1317 69904 264.394
64.2492 69668 263.947
64.3668 70048 264.666
64.4843 69613 263.843
64.6019 69738 264.08
64.7195 68384 261.503
64.837 67568 259.938
64.9546 66214 257.321
65.0722 65379 255.693
65.1898 65201 255.345
65.3074 66117 257.132
65.4249 65874 256.659
65.5425 67231 259.289
65.6601 66303 257.494
65.7777 65281 255.501
65.8952 63226 251.448
66.0128 61288 247.564
66.1304 63144 251.285
66.2479 67248 259.322
66.3655 69053 262.779
66.483 69646 263.905
66.6005 69983 264.543
66.718 69628 263.871
66.8355 68323 261.387
66.953 64898 254.751
67.0705 57752 240.316
67.1879 48521 220.275
67.3054 45254 212.73
67.4228 48430 220.068
67.5402 55306 235.172
67.6576 60522 246.012
67.7749 61521 248.034
67.8923 64129 253.237
68.0096 64361 253.695
68.1269 65226 255.394
68.2442 65687 256.295
68.3614 65738 256.394
68.4787 64867 254.69
68.5958 65669 256.26
68.713 65310 255.558
68.8302 66416 257.713
68.9473 67352 259.523
69.0643 68714 262.134
69.1814 69269 263.19
69.2984 69280 263.211
69.4154 68114 260.987
69.5323 65089 255.125
69.6492 66383 257.649
69.7661 70795 266.073
69.8829 74011 272.05
69.9997 76521 276.624
70.1165 76850 277.218
70.2332 75155 274.144
70.3499 73386 270.899
70.4665 75176 274.182
70.5831 75567 274.895
70.6996 74006 272.04
70.8161 69193 263.046
70.9326 63626 252.242
71.049 60767 246.51
71.1653 60834 246.645
71.2817 64173 253.324
71.3979 67742 260.273
71.5141 68720 262.145
71.6303 67987 260.743
71.7464 63070 251.137
71.8624 0 1
71.9784 0 1
72.0944 0 1
72.2102 0 1
72.3261 0 1
72.4418 0 1
72.5575 0 1
72.6732 0 1
75.1054 0 1
75.2209 0 1
75.3365 0 1
75.4521 0 1
75.5678 0 1
75.6835 0 1
75.7993 0 1
75.9151 0 1
76.031 0 1
76.147 72421 269.112
76.263 76377 276.364
76.3791 76005 275.69
76.4952 75270 274.354
76.6113 76029 275.734
76.7276 77256 277.95
76.8438 77675 278.702
76.9601 78699 280.533
77.0765 79081 281.213
77.1929 79482 281.926
77.3093 80541 283.797
77.4258 80686 284.053
77.5423 81206 284.967
77.6589 81248 285.04
77.7755 81262 285.065
77.8921 82146 286.611
78.0088 83663 289.246
78.1256 82958 288.024
78.2423 80127 283.067
78.3591 77451 278.3
78.4759 75845 275.4
78.5928 78441 280.073
78.7097 83820 289.517
78.8266 91359 302.257
78.9436 86215 293.624
79.0606 90269 300.448
79.1776 88043 296.72
79.2946 84921 291.412
79.4117 80697 284.072
79.5288 80352 283.464
79.6459 85307 292.074
79.7631 88254 297.076
79.8802 86980 294.924
79.9974 86391 293.923
80.1147 85891 293.072
80.2319 86359 293.869
80.3491 84765 291.144
80.4664 84610 290.878
80.5837 84689 291.014
80.701 84637 290.924
80.8183 83841 289.553
80.9357 85235 291.95
81.053 86798 294.615
81.1704 86847 294.698
81.2877 87257 295.393
81.4051 86925 294.83
81.5225 90157 300.262
81.6399 87812 296.331
81.7573 88866 298.104
81.8747 84782 291.173
81.9922 82670 287.524
82.1096 83298 288.614
82.227 85431 292.286
82.3444 89895 299.825
82.4619 93727 306.149
82.5793 92950 304.877
82.6967 96694 310.957
82.8142 92786 304.608
82.9316 88463 297.427
83.049 82351 286.969
83.1664 78057 279.387
83.2838 79746 282.393
83.4012 86070 293.377
83.5186 89428 299.045
83.636 89346 298.908
83.7534 89295 298.823
83.8708 88941 298.23
83.9881 88396 297.315
84.1055 88249 297.067
84.2228 86782 294.588
84.3401 86498 294.105
84.4575 87382 295.604
84.5747 88870 298.111
84.692 90759 301.262
84.8093 92784 304.605
84.9265 93130 305.172
85.0437 94073 306.713
85.1609 95511 309.049
85.2781 94580 307.539
85.3952 92284 303.783
85.5123 91812 303.005
85.6294 91999 303.313
85.7465 95340 308.772
85.8636 99940 316.133
85.9806 104132 322.695
86.0976 106441 326.253
86.2145 108432 329.29
86.3315 105553 324.889
86.4484 109482 330.881
86.5652 105188 324.327
86.682 102423 320.036
86.7988 98540 313.911
86.9156 99450 315.357
87.0323 105281 324.47
87.149 108729 329.741
87.2657 109030 330.197
87.3823 108831 329.895
87.4988 107809 328.343
87.6154 108248 329.011
87.7318 107972 328.591
87.8483 107320 327.597
87.9647 107778 328.296
88.081 109748 331.282
88.1973 113203 336.457
88.3136 115176 339.376
88.4298 116103 340.739
88.546 116468 341.274
88.6621 116969 342.007
88.7781 114857 338.906
88.8942 0 1
89.0101 0 1
89.126 0 1
89.2419 0 1
89.3577 0 1
89.4734 0 1
89.5891 0 1
89.7047 0 1
89.8203 0 1
89.9358 0 1
92.3269 0 1
92.4424 0 1
92.558 0 1
92.6736 0 1
92.7893 0 1
92.905 0 1
93.0208 0 1
93.1366 0 1
93.2525 0 1
93.3685 0 1
93.4845 0 1
93.6005 112623 335.594
93.7167 115445 339.772
93.8328 116891 341.893
93.949 117615 342.95
94.0653 117973 343.472
94.1816 118143 343.719
94.2979 117056 342.134
94.4143 115042 339.178
94.5307 114109 337.8
94.6472 114414 338.251
94.7637 116622 341.5
94.8803 122666 350.237
94.9969 124895 353.405
95.1135 126929 356.271
95.2302 126826 356.126
95.3469 128140 357.966
95.4637 126169 355.203
95.5805 124892 353.401
95.6973 121408 348.437
95.8142 118669 344.484
95.9311 114052 337.716
96.048 110315 332.137
96.1649 109813 331.38
96.2819 114214 337.956
96.3989 121043 347.912
96.516 125921 354.853
96.633 125956 354.903
96.7501 126336 355.438
96.8673 123856 351.932
96.9844 122505 350.007
97.1016 121422 348.457
97.2188 121622 348.743
97.336 124255 352.498
97.4532 125049 353.623
97.5704 126276 355.353
97.6877 126590 355.795
97.805 127332 356.836
97.9223 124507 352.855
98.0396 122977 350.681
98.1569 123682 351.685
98.2743 123695 351.703
98.3916 126213 355.265
98.509 130271 360.931
98.6264 133680 365.623
98.7438 136282 369.164
98.8612 136363 369.274
98.9786 137951 371.418
99.096 136163 369.003
99.2134 133786 365.768
99.3308 131697 362.901
99.4482 132822 364.448
99.5656 130577 361.354
99.6831 125336 354.028
99.8005 121387 348.406
99.9179 122613 350.161
100.035 129322 359.614
100.153 133354 365.177
100.27 134559 366.823
100.388 131567 362.722
100.505 130488 361.231
100.622 128958 359.107
100.74 128780 358.859
100.857 129581 359.974
100.975 131845 363.105
101.092 132987 364.674
101.209 134119 366.223
101.327 134562 366.827
101.444 132922 364.585
101.561 131647 362.832
101.679 131630 362.808
101.796 131754 362.979
101.913 134000 366.06
102.03 138471 372.117
102.148 142743 377.813
102.265 152949 391.087
102.382 140861 375.315
102.499 147897 384.574
102.616 146790 383.132
102.733 143509 378.826
102.851 142733 377.8
102.968 143781 379.185
103.085 141757 376.506
103.202 136164 369.004
103.319 131157 362.156
103.436 129070 359.263
103.552 135023 367.455
103.669 141386 376.013
103.786 144174 379.703
103.903 144136 379.652
104.02 142071 376.923
104.137 140661 375.048
104.253 143452 378.751
104.37 139469 373.455
104.487 145685 381.687
104.603 146236 382.408
104.72 146009 382.111
104.836 146071 382.192
104.953 144400 380
105.069 143423 378.712
105.186 144736 380.442
105.302 147629 384.225
105.418 150996 388.582
105.535 156323 395.377
105.651 159269 399.085
105.767 160971 401.212
105.883 161794 402.236
105.999 160832 401.039
106.115 0 1
106.231 0 1
106.347 0 1
106.463 0 1
106.579 0 1
106.694 0 1
106.81 0 1
106.926 0 1
107.041 0 1
107.157 0 1
109.576 0 1
109.692 0 1
109.807 0 1
109.923 0 1
110.039 0 1
110.155 0 1
110.27 0 1
110.386 0 1
110.502 0 1
110.618 149443 386.579
110.735 153926 392.334
110.851 155838 394.763
110.967 156059 395.043
111.083 154411 392.952
111.199 150048 387.36
111.316 148437 385.275
111.432 149329 386.431
111.549 147432 383.969
111.665 143238 378.468
111.782 137105 370.277
111.898 131071 362.037
112.015 130043 360.615
112.132 134186 366.314
112.248 140857 375.309
112.365 145307 381.192
112.482 144102 379.608
112.599 137808 371.225
112.716 138523 372.187
112.832 138903 372.697
112.949 138992 372.816
113.066 139126 372.996
113.183 137787 371.197
113.3 134040 366.115
113.417 132105 363.463
113.534 133678 365.62
113.652 133214 364.985
113.769 134695 367.008
113.886 136199 369.051
114.003 138765 372.512
114.12 142078 376.932
114.238 142671 377.718
114.355 144791 380.514
114.472 143842 379.265
114.589 141271 375.86
114.707 137593 370.935
114.824 134901 367.289
114.942 135487 368.086
115.059 137402 370.678
115.176 135626 368.274
115.294 131628 362.806
115.411 127598 357.209
115.529 123622 351.599
115.646 122640 350.2
115.764 129345 359.646
115.881 133795 365.78
115.999 137009 370.147
116.116 136494 369.451
116.234 134758 367.094
116.351 133864 365.874
116.469 134293 366.46
116.586 135057 367.501
116.704 135779 368.482
116.821 134567 366.834
116.939 133599 365.512
117.056 133472 365.338
117.174 134153 366.269
117.291 136225 369.087
117.409 138003 371.488
117.526 140376 374.668
117.644 144848 380.589
117.761 147360 383.875
117.879 149028 386.041
117.996 148415 385.247
118.114 148615 385.506
118.231 147088 383.521
118.349 141364 375.984
118.466 140330 374.606
118.584 142092 376.951
118.701 142490 377.478
118.819 139164 373.047
118.936 135179 367.667
119.053 130693 361.515
119.171 126851 356.161
119.288 126863 356.178
119.405 130986 361.92
119.523 135053 367.496
119.64 141182 375.742
119.757 140430 374.74
119.875 139634 373.676
119.992 137242 370.462
120.109 138060 371.564
120.226 138396 372.016
120.343 138692 372.414
120.46 139007 372.836
120.578 137387 370.658
120.695 137266 370.494
120.812 138788 372.543
120.929 140624 374.999
121.046 141908 376.707
121.163 143784 379.189
121.279 146082 382.207
121.396 148273 385.062
121.513 150172 387.52
121.63 152651 390.706
121.747 150704 388.206
121.863 149695 386.904
121.98 145603 381.58
122.097 140130 374.339
122.213 140614 374.985
122.33 142414 377.378
122.446 142096 376.956
122.563 140180 374.406
122.679 136326 369.224
122.795 131798 363.04
122.912 128962 359.113
123.028 126731 355.993
123.144 128270 358.148
123.26 133452 365.311
123.377 0 1
123.493 0 1
123.609 0 1
123.725 0 1
123.84 0 1
123.956 0 1
124.072 0 1
124.188 0 1
124.303 0 1
124.419 0 1
126.852 0 1
126.968 0 1
127.083 0 1
127.199 0 1
127.315 0 1
127.431 0 1
127.547 0 1
127.663 0 1
127.779 0 1
127.895 0 1
128.011 0 1
128.127 0 1
128.243 0 1
128.359 143401 378.683
128.476 149158 386.21
128.592 155794 394.707
128.708 162065 402.573
128.825 162471 403.077
128.941 161062 401.325
129.058 160159 400.199
129.174 161421 401.772
129.291 160556 400.694
129.408 161017 401.269
129.524 159831 399.789
129.641 161082 401.35
129.758 163084 403.837
129.875 165652 407.004
129.992 167542 409.319
130.108 169017 411.117
130.225 170443 412.847
130.342 172403 415.214
130.459 168457 410.435
130.576 175880 419.38
130.693 169241 411.389
130.81 164441 405.513
130.928 157252 396.55
131.045 154853 393.514
131.162 158066 397.575
131.279 161865 402.324
131.396 163327 404.137
131.513 157238 396.532
131.631 152878 390.996
131.748 149068 386.093
131.865 145387 381.296
131.983 147062 383.487
132.1 153116 391.3
132.217 159276 399.094
132.335 162342 402.917
132.452 160902 401.126
132.57 160329 400.411
132.687 154027 392.463
132.804 163733 404.639
132.922 158875 398.591
133.039 160492 400.615
133.157 160539 400.673
133.274 162177 402.712
133.392 164779 405.93
133.509 166577 408.138
133.627 168881 410.951
133.744 169441 411.632
133.862 169828 412.102
133.979 171652 414.309
134.097 171561 414.199
134.214 171729 414.402
134.332 162570 403.2
134.449 158034 397.535
134.567 154190 392.67
134.684 156757 395.925
134.802 160464 400.58
134.919 161761 402.195
135.037 159605 399.506
135.154 154631 393.231
135.272 150636 388.119
135.389 145304 381.188
135.507 144001 379.475
135.624 147125 383.569
135.742 153732 392.087
135.859 160702 400.877
135.977 164252 405.28
136.094 164356 405.408
136.211 161967 402.451
136.329 160373 400.466
136.446 160491 400.613
136.564 161747 402.178
136.681 163731 404.637
136.798 162109 402.628
136.915 165012 406.217
137.033 166754 408.355
137.15 169289 411.447
137.267 170343 412.726
137.384 171376 413.976
137.502 170490 412.904
137.619 170169 412.515
137.736 171618 414.268
137.853 166721 408.315
137.97 161519 401.894
138.087 160946 401.181
138.204 153674 392.013
138.321 155705 394.595
138.438 160156 400.195
138.555 162296 402.86
138.672 162048 402.552
138.788 157237 396.531
138.905 153941 392.353
139.022 149751 386.977
139.139 147956 384.65
139.255 150076 387.396
139.372 154796 393.441
139.488 161810 402.256
139.605 166504 408.049
139.721 167544 409.321
139.838 166259 407.749
139.954 164798 405.953
140.071 160545 400.681
140.187 162636 403.282
140.303 161225 401.528
140.419 161600 401.995
140.535 161002 401.251
140.652 160848 401.059
140.768 0 1
140.884 0 1
141 0 1
141.115 0 1
141.231 0 1
141.347 0 1
141.463 0 1
141.578 0 1
141.694 0 1
144.104 0 1
144.219 0 1
144.335 0 1
144.45 0 1
144.566 0 1
144.682 0 1
144.798 0 1
144.914 0 1
145.03 0 1
145.146 144451 380.067
145.262 146923 383.305
145.378 147504 384.062
145.494 148554 385.427
145.61 149030 386.044
145.726 150908 388.469
145.842 152621 390.667
145.959 154111 392.57
146.075 154199 392.682
146.192 154667 393.277
146.308 154282 392.787
146.425 152204 390.133
146.541 148126 384.871
146.658 140330 374.606
146.774 135210 367.709
146.891 134856 367.227
147.008 138928 372.73
147.125 142715 377.776
147.241 142868 377.979
147.358 139387 373.346
147.475 136127 368.954
147.592 132065 363.407
147.709 129949 360.484
147.826 131072 362.039
147.943 138502 372.159
148.06 141266 375.854
148.177 145590 381.563
148.294 144996 380.783
148.411 143688 379.062
148.528 143535 378.86
148.645 141323 375.93
148.762 139555 373.571
148.88 139166 373.05
148.997 133381 365.214
149.114 143291 378.538
149.231 140172 374.396
149.349 141696 376.425
149.466 140732 375.143
149.583 142635 377.67
149.701 143567 378.902
149.818 144792 380.515
149.935 144663 380.346
150.053 143033 378.197
150.17 138076 371.586
150.287 131406 362.5
150.405 126612 355.826
150.522 127515 357.092
150.64 131388 362.475
150.757 133967 366.015
150.875 135530 368.144
150.992 132439 363.922
151.11 125561 354.346
151.227 124715 353.15
151.344 124002 352.139
151.462 127376 356.898
151.579 134223 366.365
151.697 139061 372.909
151.814 141603 376.302
151.932 139495 373.49
152.049 139853 373.969
152.167 138973 372.791
152.284 137885 371.329
152.402 137316 370.562
152.519 136399 369.322
152.636 136317 369.211
152.754 137267 370.496
152.871 137513 370.827
152.989 138575 372.257
153.106 140543 374.891
153.223 141322 375.928
153.341 142257 377.17
153.458 143513 378.831
153.575 143701 379.079
153.693 141663 376.381
153.81 136031 368.824
153.927 128803 358.891
154.044 126223 355.279
154.162 129023 359.198
154.279 133403 365.244
154.396 138792 372.548
154.513 139996 374.16
154.63 138463 372.106
154.747 134283 366.446
154.864 131688 362.888
154.981 132904 364.56
155.098 135877 368.615
155.215 140195 374.426
155.332 143962 379.423
155.449 143907 379.351
155.566 144384 379.979
155.683 142270 377.187
155.8 141769 376.522
155.917 141303 375.903
156.033 141776 376.532
156.15 0 1
156.267 0 1
156.383 0 1
156.5 0 1
156.617 0 1
156.733 0 1
156.85 0 1
156.966 0 1
157.082 0 1
157.199 0 1
157.315 0 1
157.431 0 1
157.547 0 1
157.664 0 1
157.78 0 1
157.896 0 1
158.012 0 1
158.128 0 1
158.244 0 1
158.359 0 1
158.475 0 1
158.591 0 1
158.706 0 1
