
6.15755 0 1
6.2731 0 1
6.3887 0 1
6.50437 0 1
6.62009 0 1
6.73587 0 1
6.8517 0 1
6.96759 0 1
7.08353 0 1
7.19952 0 1
7.31557 0 1
7.43166 0 1
7.54781 0 1
7.664 0 1
7.78024 0 1
7.89653 0 1
8.01286 0 1
8.12924 0 1
8.24567 0 1
8.36213 0 1
8.47864 0 1
8.59519 0 1
8.71178 0 1
8.82841 0 1
8.94508 0 1
9.06179 0 1
9.17853 0 1
9.29531 0 1
9.41212 0 1
9.52897 0 1
9.64584 0 1
9.76276 0 1
9.8797 0 1
9.99667 0 1
10.1137 0 1
10.2307 0 1
10.3478 0 1
10.4648 0 1
10.5819 0 1
10.6991 0 1
10.8162 0 1
10.9334 0 1
11.0506 0 1
11.1678 0 1
11.285 0 1
11.4023 0 1
11.5196 0 1
11.6369 0 1
11.7542 0 1
11.8715 0 1
11.9888 0 1
12.1062 0 1
12.2235 0 1
12.3409 0 1
12.4582 0 1
12.5756 0 1
12.693 0 1
12.8104 0 1
12.9278 0 1
13.0452 0 1
13.1626 0 1
13.28 0 1
13.3974 0 1
13.5149 0 1
13.6323 0 1
13.7497 0 1
13.8671 0 1
13.9845 0 1
14.1019 0 1
14.2193 0 1
14.3367 0 1
14.4541 0 1
14.5714 0 1
14.6888 0 1
14.8062 0 1
14.9235 0 1
15.0408 0 0
15.1581 0 0
15.2755 0 0
15.3927 0 0
15.51 0 0
15.6273 0 0
15.7445 0 0
15.8617 0 0
15.9789 0 0
16.0961 0 0
16.2132 0 0
16.3304 0 0
16.4475 0 0
16.5646 0 0
16.6816 0 0
16.7986 0 0
16.9156 0 0
17.0326 0 0
17.1496 0 0
17.2665 0 0
17.3833 0 0
17.5002 0 0
17.617 0 0
17.7338 0 0
17.8505 0 0
17.9672 0 0
18.0839 0 0
18.2005 0 0
18.3171 0 0
18.4337 0 0
18.5502 0 0
18.6666 0 0
18.7831 0 0
18.8994 0 0
19.0158 0 0
19.1321 0 0
19.2483 0 0
19.3645 0 0
19.4806 0 0
19.5967 0 0
19.7128 0 0
19.8288 0 0
19.9447 0 0
20.0606 0 1
20.1764 0 1
20.2922 0 1
20.4079 0 1
20.5236 0 1
20.6392 0 1
20.7548 0 1
20.8702 0 1
23.3078 0 1
23.4233 0 1
23.539 0 1
23.6547 0 1
23.7704 0 1
23.8862 0 1
24.0021 0 1
24.118 0 1
24.234 0 1
24.35 0 1
24.4661 11258 106.104
24.5822 12675 112.583
24.6984 14236 119.315
24.8146 15851 125.901
24.9309 17522 132.371
25.0472 18977 137.757
25.1636 20956 144.762
25.28 22618 150.393
25.3965 23605 153.639
25.513 25006 158.133
25.6296 26113 161.595
25.7462 26717 163.453
25.8628 27289 165.194
25.9795 27073 164.539
26.0962 26996 164.305
26.213 26567 162.994
26.3298 25917 160.988
26.4466 25305 159.075
26.5635 25049 158.269
26.6804 25181 158.685
26.7973 25594 159.981
26.9143 25792 160.599
27.0313 25902 160.941
27.1483 26778 163.64
27.2653 27405 165.545
27.3824 27485 165.786
27.4996 27697 166.424
27.6167 27159 164.8
27.7339 26388 162.444
27.8511 25619 160.059
27.9683 25022 158.183
28.0855 24183 155.509
28.2028 23849 154.431
28.3201 23959 154.787
28.4374 24052 155.087
28.5547 25029 158.206
28.6721 25490 159.656
28.7894 25589 159.966
28.9068 26362 162.364
29.0242 26405 162.496
29.1416 25896 160.922
29.259 26081 161.496
29.3764 25548 159.837
29.4939 25197 158.736
29.6113 25124 158.506
29.7288 25084 158.379
29.8463 24805 157.496
29.9638 24589 156.809
30.0812 24074 155.158
30.1987 24175 155.483
30.3162 24773 157.394
30.4337 25433 159.477
30.5512 25847 160.77
30.6687 26452 162.641
30.7862 27015 164.362
30.9037 27212 164.961
31.0212 27378 165.463
31.1387 27149 164.77
31.2562 26669 163.306
31.3737 25955 161.106
31.4912 25383 159.32
31.6087 25240 158.871
31.7262 24282 155.827
31.8436 24075 155.161
31.9611 24645 156.987
32.0785 25194 158.726
32.1959 25670 160.219
32.3134 25952 161.096
32.4308 26061 161.434
32.5482 26194 161.846
32.6655 25962 161.127
32.7829 26046 161.388
32.9002 25569 159.903
33.0176 25439 159.496
33.1349 25465 159.578
33.2522 25317 159.113
33.3694 24877 157.724
33.4867 24432 156.307
33.6039 24299 155.881
33.7211 24091 155.213
33.8383 23931 154.696
33.9554 24638 156.965
34.0725 25249 158.899
34.1896 25818 160.68
34.3067 26857 163.881
34.4237 26829 163.796
34.5407 27269 165.133
34.6577 27671 166.346
34.7746 27338 165.342
34.8915 26792 163.683
35.0084 26045 161.385
35.1252 25734 160.418
35.242 25088 158.392
35.3587 24590 156.812
35.4755 24076 155.164
35.5921 23886 154.551
35.7088 24404 156.218
35.8254 24639 156.968
35.9419 25293 159.038
36.0584 25436 159.487
36.1749 25070 158.335
36.2913 24417 156.259
36.4077 23392 152.944
36.524 22650 150.499
36.6403 21547 146.789
36.7565 20557 143.377
36.8727 19677 140.275
36.9889 18134 134.663
37.1049 16657 129.062
37.221 0 1
37.3369 0 1
37.4529 0 1
37.5687 0 1
37.6845 0 1
37.8003 0 1
37.916 0 1
38.0316 0 1
38.1472 0 1
40.5851 0 1
40.7008 0 1
40.8164 0 1
40.9322 0 1
41.048 0 1
41.1639 0 1
41.2798 0 1
41.3958 0 1
41.5118 0 1
41.6279 0 1
41.744 13940 118.068
41.8602 15258 123.523
41.9765 16655 129.054
42.0928 17464 132.151
42.2091 18016 134.224
42.3255 18625 136.473
42.4419 18860 137.332
42.5584 19523 139.725
42.675 20307 142.503
42.7915 21157 145.454
42.9081 22127 148.751
43.0248 23108 152.013
43.1415 23441 153.105
43.2582 24292 155.859
43.375 24630 156.939
43.4918 24942 157.93
43.6087 24985 158.066
43.7256 25041 158.243
43.8425 25033 158.218
43.9595 24678 157.092
44.0765 24366 156.096
44.1935 23944 154.738
44.3106 23509 153.326
44.4277 23260 152.512
44.5448 23708 153.974
44.6619 24004 154.932
44.7791 24838 157.601
44.8963 24810 157.512
45.0136 25427 159.458
45.1308 24900 157.797
45.2481 24853 157.648
45.3654 25324 159.135
45.4827 24696 157.15
45.6001 24571 156.751
45.7174 24495 156.509
45.8348 23803 154.282
45.9522 23312 152.683
46.0697 23059 151.852
46.1871 23032 151.763
46.3046 23074 151.901
46.422 24101 155.245
46.5395 24879 157.731
46.657 25917 160.988
46.7745 26750 163.554
46.892 27764 166.625
47.0096 28423 168.591
47.1271 28939 170.115
47.2446 28812 169.741
47.3622 28508 168.843
47.4797 28018 167.386
47.5973 27841 166.856
47.7149 27606 166.151
47.8324 26731 163.496
47.95 25775 160.546
48.0675 26074 161.474
48.1851 26246 162.006
48.3027 27183 164.873
48.4202 27564 166.024
48.5378 27801 166.736
48.6554 27555 165.997
48.7729 27594 166.114
48.8904 27694 166.415
49.008 27589 166.099
49.1255 27355 165.393
49.243 26572 163.009
49.3605 25697 160.303
49.478 24776 157.404
49.5955 24378 156.135
49.713 24284 155.833
49.8304 24798 157.474
49.9479 26219 161.923
50.0653 27018 164.372
50.1827 27961 167.215
50.3001 29548 171.895
50.4175 30657 175.091
50.5348 31166 176.539
50.6521 31804 178.337
50.7694 31910 178.634
50.8867 31798 178.32
51.004 31781 178.272
51.1212 31513 177.519
51.2384 31173 176.559
51.3556 29630 172.134
51.4727 28736 169.517
51.5899 28471 168.734
51.707 28939 170.115
51.824 29944 173.043
51.9411 30578 174.866
52.0581 30778 175.437
52.175 30641 175.046
52.2919 30380 174.299
52.4088 30191 173.756
52.5257 30244 173.908
52.6425 30033 173.3
52.7593 29144 170.716
52.876 28545 168.953
52.9927 27243 165.055
53.1094 26454 162.647
53.226 25612 160.037
53.3426 24855 157.655
53.4591 25032 158.215
53.5756 25364 159.261
53.692 25306 159.079
53.8084 25179 158.679
53.9248 24733 157.267
54.0411 24019 154.981
54.1573 22553 150.177
54.2735 0 1
54.3896 0 1
54.5057 0 1
54.6217 0 1
54.7377 0 1
54.8537 0 1
54.9695 0 1
55.0853 0 1
55.2011 0 1
55.3168 0 1
55.4324 0 1
57.824 0 1
57.9396 0 1
58.0553 0 1
58.1711 0 1
58.2869 0 1
58.4028 0 1
58.5187 0 1
58.6347 0 1
58.7508 0 1
58.8669 0 1
58.983 28395 168.508
59.0992 32638 180.66
59.2155 35972 189.663
59.3318 38970 197.408
59.4482 42247 205.541
59.5646 44055 209.893
59.681 46063 214.623
59.7975 46413 215.437
59.9141 46900 216.564
60.0306 45868 214.168
60.1473 44828 211.726
60.2639 44279 210.426
60.3807 43845 209.392
60.4974 45222 212.655
60.6142 46449 215.52
60.731 47963 219.005
60.8479 48372 219.936
60.9648 48293 219.757
61.0818 48566 220.377
61.1987 49486 222.454
61.3158 49051 221.475
61.4328 47697 218.396
61.5499 46290 215.151
61.667 44542 211.05
61.7841 42593 206.381
61.9013 41810 204.475
62.0185 42392 205.893
62.1357 43565 208.722
62.253 46195 214.93
62.3702 48415 220.034
62.4875 50801 225.391
62.6049 52627 229.406
62.7222 54825 234.147
62.8396 56110 236.875
62.9569 57375 239.531
63.0743 58310 241.475
63.1918 57733 240.277
63.3092 57490 239.771
63.4267 55809 236.239
63.5441 53798 231.944
63.6616 51035 225.909
63.7791 49014 221.391
63.8966 48318 219.814
64.0142 49002 221.364
64.1317 50161 223.967
64.2492 51625 227.211
64.3668 51380 226.672
64.4843 51962 227.952
64.6019 51482 226.896
64.7195 52430 228.976
64.837 52509 229.148
64.9546 51759 227.506
65.0722 50518 224.762
65.1898 48075 219.26
65.3074 45422 213.124
65.4249 43950 209.643
65.5425 42626 206.461
65.6601 43403 208.334
65.7777 46556 215.768
65.8952 49127 221.646
66.0128 52013 228.064
66.1304 53824 232
66.2479 55971 236.582
66.3655 57644 240.092
66.483 59661 244.256
66.6005 59932 244.81
66.718 60355 245.673
66.8355 59562 244.053
66.953 58858 242.607
67.0705 57571 239.94
67.1879 54619 233.707
67.3054 51564 227.077
67.4228 49457 222.389
67.5402 48323 219.825
67.6576 47827 218.694
67.7749 49023 221.411
67.8923 50642 225.038
68.0096 51850 227.706
68.1269 52513 229.157
68.2442 53184 230.617
68.3614 53445 231.182
68.4787 53425 231.138
68.5958 53020 230.261
68.713 51554 227.055
68.8302 49051 221.475
68.9473 46118 214.751
69.0643 43209 207.868
69.1814 41458 203.612
69.2984 41557 203.855
69.4154 43497 208.559
69.5323 46279 215.126
69.6492 48797 220.9
69.7661 51557 227.062
69.8829 53251 230.762
69.9997 53481 231.26
70.1165 52648 229.452
70.2332 51654 227.275
70.3499 49568 222.639
70.4665 47265 217.405
70.5831 44848 211.773
70.6996 42129 205.254
70.8161 39109 197.76
70.9326 35178 187.558
71.049 31087 176.315
71.1653 27318 165.282
71.2817 25695 160.297
71.3979 24641 156.975
71.5141 23328 152.735
71.6303 22773 150.907
71.7464 20786 144.174
71.8624 0 1
71.9784 0 1
72.0944 0 1
72.2102 0 1
72.3261 0 1
72.4418 0 1
72.5575 0 1
72.6732 0 1
75.1054 0 1
75.2209 0 1
75.3365 0 1
75.4521 0 1
75.5678 0 1
75.6835 0 1
75.7993 0 1
75.9151 0 1
76.031 0 1
76.147 36273 190.455
76.263 38423 196.018
76.3791 38335 195.793
76.4952 37375 193.326
76.6113 37622 193.964
76.7276 38350 195.832
76.8438 40111 200.277
76.9601 42554 206.286
77.0765 43897 209.516
77.1929 45622 213.593
77.3093 46410 215.43
77.4258 47374 217.656
77.5423 47082 216.984
77.6589 46853 216.456
77.7755 44173 210.174
77.8921 41726 204.269
78.0088 38479 196.161
78.1256 36337 190.623
78.2423 35334 187.973
78.3591 36899 192.091
78.4759 39748 199.369
78.5928 42986 207.331
78.7097 46012 214.504
78.8266 49478 222.437
78.9436 50005 223.618
79.0606 52199 228.471
79.1776 53704 231.741
79.2946 53805 231.959
79.4117 54941 234.395
79.5288 54272 232.964
79.6459 53172 230.591
79.7631 51642 227.249
79.8802 49045 221.461
79.9974 46262 215.086
80.1147 43185 207.81
80.2319 41767 204.37
80.3491 41984 204.9
80.4664 42902 207.128
80.5837 44827 211.724
80.701 45938 214.332
80.8183 46993 216.779
80.9357 48365 219.92
81.053 49040 221.45
81.1704 49300 222.036
81.2877 49017 221.398
81.4051 48250 219.659
81.5225 45954 214.369
81.6399 42364 205.825
81.7573 39099 197.735
81.8747 37486 193.613
81.9922 37251 193.005
82.1096 39243 198.098
82.227 42788 206.853
82.3444 46951 216.682
82.4619 50781 225.346
82.5793 52836 229.861
82.6967 54622 233.713
82.8142 55791 236.201
82.9316 56553 237.809
83.049 56350 237.382
83.1664 56188 237.04
83.2838 54857 234.216
83.4012 52681 229.523
83.5186 50092 223.812
83.636 47589 218.149
83.7534 45178 212.551
83.8708 42536 206.243
83.9881 42139 205.278
84.1055 42686 206.606
84.2228 44144 210.105
84.3401 45860 214.149
84.4575 48549 220.338
84.5747 50600 224.944
84.692 52193 228.458
84.8093 51996 228.026
84.9265 51240 226.363
85.0437 48885 221.1
85.1609 45504 213.317
85.2781 42274 205.606
85.3952 38584 196.428
85.5123 36960 192.25
85.6294 37403 193.399
85.7465 40472 201.177
85.8636 44851 211.781
85.9806 48188 219.518
86.0976 51428 226.777
86.2145 53520 231.344
86.3315 54381 233.197
86.4484 56378 237.441
86.5652 55901 236.434
86.682 56055 236.759
86.7988 55285 235.128
86.9156 53968 232.31
87.0323 51964 227.956
87.149 49730 223.002
87.2657 47356 217.614
87.3823 42698 206.635
87.4988 39014 197.52
87.6154 37031 192.434
87.7318 36650 191.442
87.8483 36578 191.254
87.9647 37805 194.435
88.081 37453 193.528
88.1973 37852 194.556
88.3136 36643 191.424
88.4298 34847 186.674
88.546 31747 178.177
88.6621 28215 167.973
88.7781 23239 152.443
88.8942 0 1
89.0101 0 1
89.126 0 1
89.2419 0 1
89.3577 0 1
89.4734 0 1
89.5891 0 1
89.7047 0 1
89.8203 0 1
89.9358 0 1
92.3269 0 1
92.4424 0 1
92.558 0 1
92.6736 0 1
92.7893 0 1
92.905 0 1
93.0208 0 1
93.1366 0 1
93.2525 0 1
93.3685 0 1
93.4845 0 1
93.6005 39685 199.211
93.7167 42487 206.124
93.8328 45428 213.138
93.949 46893 216.548
94.0653 48080 219.272
94.1816 48924 221.188
94.2979 47861 218.772
94.4143 46040 214.569
94.5307 42642 206.499
94.6472 39555 198.884
94.7637 38214 195.484
94.8803 39660 199.148
94.9969 44035 209.845
95.1135 47825 218.689
95.2302 51312 226.522
95.3469 54585 233.634
95.4637 57832 240.483
95.5805 58922 242.739
95.6973 59880 244.704
95.8142 59269 243.452
95.9311 59217 243.345
96.048 58733 242.349
96.1649 56324 237.327
96.2819 54040 232.465
96.3989 52364 228.832
96.516 49941 223.475
96.633 47004 216.804
96.7501 44364 210.628
96.8673 43466 208.485
96.9844 43818 209.327
97.1016 45176 212.546
97.2188 47731 218.474
97.336 50641 225.036
97.4532 53980 232.336
97.5704 55278 235.113
97.6877 55613 235.824
97.805 54160 232.723
97.9223 52719 229.606
98.0396 49215 221.845
98.1569 44695 211.412
98.2743 40912 202.267
98.3916 38223 195.507
98.509 38852 197.109
98.6264 43097 207.598
98.7438 48314 219.804
98.8612 52764 229.704
98.9786 56050 236.749
99.096 59924 244.794
99.2134 61692 248.379
99.3308 62680 250.36
99.4482 62521 250.042
99.5656 62397 249.794
99.6831 62371 249.742
99.8005 60020 244.99
99.9179 57591 239.981
100.035 54912 234.333
100.153 51742 227.469
100.27 48896 221.124
100.388 46375 215.349
100.505 46389 215.381
100.622 47105 217.037
100.74 49395 222.25
100.857 51655 227.277
100.975 54212 232.835
101.092 56861 238.455
101.209 57582 239.962
101.327 57293 239.36
101.444 56316 237.31
101.561 54418 233.277
101.679 49620 222.755
101.796 44655 211.317
101.913 40896 202.228
102.03 39730 199.324
102.148 43226 207.909
102.265 47140 217.117
102.382 55128 234.794
102.499 58616 242.107
102.616 61653 248.3
102.733 62920 250.839
102.851 63691 252.371
102.968 63776 252.539
103.085 64185 253.348
103.202 63928 252.84
103.319 61678 248.351
103.436 58932 242.759
103.552 56059 236.768
103.669 53440 231.171
103.786 50348 224.384
103.903 47843 218.73
104.02 47460 217.853
104.137 48093 219.301
104.253 50827 225.448
104.37 52474 229.072
104.487 55203 234.953
104.603 56649 238.011
104.72 56213 237.093
104.836 53716 231.767
104.953 49331 222.106
105.069 44583 211.147
105.186 39744 199.359
105.302 35569 188.597
105.418 31714 178.084
105.535 29109 170.614
105.651 29815 172.67
105.767 31305 176.932
105.883 33106 181.951
105.999 33552 183.172
106.115 0 1
106.231 0 1
106.347 0 1
106.463 0 1
106.579 0 1
106.694 0 1
106.81 0 1
106.926 0 1
107.041 0 1
107.157 0 1
109.576 0 1
109.692 0 1
109.807 0 1
109.923 0 1
110.039 0 1
110.155 0 1
110.27 0 1
110.386 0 1
110.502 0 1
110.618 21679 147.238
110.735 26550 162.942
110.851 33663 183.475
110.967 40505 201.259
111.083 44418 210.756
111.199 48519 220.27
111.316 51495 226.925
111.432 52956 230.122
111.549 53820 231.991
111.665 54693 233.865
111.782 55054 234.636
111.898 53893 232.149
112.015 51633 227.229
112.132 49450 222.374
112.248 46986 216.763
112.365 44206 210.252
112.482 42490 206.131
112.599 42080 205.134
112.716 43218 207.889
112.832 43749 209.163
112.949 45566 213.462
113.066 47735 218.483
113.183 49208 221.829
113.3 50070 223.763
113.417 50654 225.064
113.534 50497 224.715
113.652 49538 222.571
113.769 47483 217.906
113.886 42251 205.55
114.003 37864 194.587
114.12 34960 186.976
114.238 34967 186.995
114.355 39661 199.151
114.472 47173 217.193
114.589 48577 220.402
114.707 53142 230.525
114.824 55150 234.84
114.942 55771 236.159
115.059 56395 237.476
115.176 56433 237.556
115.294 55815 236.252
115.411 54962 234.44
115.529 52819 229.824
115.646 50077 223.779
115.764 47479 217.897
115.881 45086 212.335
115.999 42465 206.07
116.116 41256 203.116
116.234 41425 203.531
116.351 42265 205.585
116.469 43755 209.177
116.586 45440 213.167
116.704 47134 217.104
116.821 48270 219.704
116.939 48733 220.756
117.056 48566 220.377
117.174 47977 219.037
117.291 47306 217.499
117.409 44033 209.84
117.526 39707 199.266
117.644 35352 188.021
117.761 33693 183.557
117.879 36648 191.437
117.996 41654 204.093
118.114 46833 216.409
118.231 50142 223.924
118.349 51800 227.596
118.466 52743 229.658
118.584 53274 230.812
118.701 53151 230.545
118.819 53541 231.389
118.936 52247 228.576
119.053 51322 226.544
119.171 49532 222.558
119.288 47095 217.014
119.405 45166 212.523
119.523 42634 206.48
119.64 40537 201.338
119.757 39988 199.97
119.875 39972 199.93
119.992 40694 201.728
120.109 41430 203.544
120.226 42357 205.808
120.343 43903 209.53
120.46 44993 212.116
120.578 45421 213.122
120.695 44918 211.939
120.812 45064 212.283
120.929 44508 210.969
121.046 42096 205.173
121.163 38220 195.499
121.279 33815 183.889
121.396 31138 176.46
121.513 31014 176.108
121.63 33970 184.31
121.747 36906 192.109
121.863 39014 197.52
121.98 39783 199.457
122.097 40053 200.132
122.213 39568 198.917
122.33 38726 196.789
122.446 37958 194.828
122.563 36628 191.384
122.679 35043 187.198
122.795 33265 182.387
122.912 30167 173.686
123.028 27334 165.33
123.144 24771 157.388
123.26 22251 149.168
123.377 0 1
123.493 0 1
123.609 0 1
123.725 0 1
123.84 0 1
123.956 0 1
124.072 0 1
124.188 0 1
124.303 0 1
124.419 0 1
126.852 0 1
126.968 0 1
127.083 0 1
127.199 0 1
127.315 0 1
127.431 0 1
127.547 0 1
127.663 0 1
127.779 0 1
127.895 0 1
128.011 0 1
128.127 0 1
128.243 0 1
128.359 48729 220.746
128.476 48586 220.422
128.592 48192 219.527
128.708 46371 215.339
128.825 45470 213.237
128.941 45945 214.348
129.058 46645 215.975
129.174 47665 218.323
129.291 48397 219.993
129.408 49515 222.52
129.524 51209 226.294
129.641 51385 226.683
129.758 51321 226.541
129.875 51394 226.702
129.992 51818 227.636
130.108 50706 225.18
130.225 46614 215.903
130.342 42651 206.521
130.459 39902 199.755
130.576 39404 198.504
130.693 43712 209.074
130.81 48875 221.077
130.928 52331 228.76
131.045 54515 233.484
131.162 56056 236.761
131.279 57095 238.946
131.396 57246 239.261
131.513 57946 240.72
131.631 56670 238.055
131.748 55372 235.313
131.865 54926 234.363
131.983 52853 229.898
132.1 50619 224.987
132.217 49378 222.212
132.335 48791 220.887
132.452 48187 219.515
132.57 49136 221.666
132.687 49770 223.092
132.804 49504 222.495
132.922 50125 223.886
133.039 51324 226.548
133.157 51444 226.813
133.274 52199 228.471
133.392 52931 230.067
133.509 52482 229.09
133.627 52773 229.724
133.744 49329 222.101
133.862 45195 212.591
133.979 41825 204.512
134.097 41012 202.514
134.214 43254 207.976
134.332 48384 219.964
134.449 51955 227.936
134.567 54192 232.792
134.684 55350 235.266
134.802 56180 237.023
134.919 56878 238.491
135.037 56781 238.288
135.154 56382 237.449
135.272 56242 237.154
135.389 55388 235.347
135.507 53833 232.019
135.624 52735 229.641
135.742 51040 225.92
135.859 50216 224.089
135.977 49657 222.839
136.094 49646 222.814
136.211 50085 223.797
136.329 50324 224.33
136.446 50975 225.776
136.564 51206 226.287
136.681 51689 227.352
136.798 52338 228.775
136.915 53151 230.545
137.033 53037 230.298
137.15 53091 230.415
137.267 52092 228.237
137.384 48629 220.52
137.502 44398 210.708
137.619 42001 204.941
137.736 40291 200.726
137.853 41714 204.24
137.97 45825 214.068
138.087 51315 226.528
138.204 51828 227.658
138.321 53221 230.697
138.438 53770 231.884
138.555 54314 233.054
138.672 54089 232.57
138.788 52973 230.159
138.905 49905 223.394
139.022 47150 217.141
139.139 44329 210.545
139.255 42293 205.653
139.372 39827 199.567
139.488 37776 194.36
139.605 35635 188.772
139.721 34393 185.453
139.838 33874 184.049
139.954 32832 181.196
140.071 31955 178.76
140.187 29630 172.134
140.303 28523 168.888
140.419 27159 164.8
140.535 25664 160.2
140.652 24584 156.793
140.768 0 1
140.884 0 1
141 0 1
141.115 0 1
141.231 0 1
141.347 0 1
141.463 0 1
141.578 0 1
141.694 0 1
144.104 0 1
144.219 0 1
144.335 0 1
144.45 0 1
144.566 0 1
144.682 0 1
144.798 0 1
144.914 0 1
145.03 0 1
145.146 36915 192.133
145.262 38167 195.364
145.378 39549 198.869
145.494 40358 200.893
145.61 41325 203.286
145.726 41506 203.73
145.842 42190 205.402
145.959 42238 205.519
146.075 41064 202.643
146.192 39041 197.588
146.308 36150 190.132
146.425 34360 185.365
146.541 32695 180.818
146.658 34351 185.34
146.774 37637 194.003
146.891 39556 198.887
147.008 41211 203.005
147.125 42056 205.076
147.241 43267 208.007
147.358 43738 209.136
147.475 44131 210.074
147.592 44191 210.217
147.709 43247 207.959
147.826 42645 206.507
147.943 42240 205.524
148.06 41865 204.609
148.177 40700 201.742
148.294 40538 201.341
148.411 40575 201.432
148.528 40394 200.983
148.645 40316 200.788
148.762 40872 202.168
148.88 40718 201.787
148.997 41708 204.225
149.114 40207 200.517
149.231 41677 204.149
149.349 41511 203.742
149.466 41103 202.739
149.583 41719 204.252
149.701 41326 203.288
149.818 39785 199.462
149.935 37750 194.294
150.053 35268 187.798
150.17 33665 183.48
150.287 34223 184.995
150.405 36539 191.152
150.522 38915 197.269
150.64 40230 200.574
150.757 41301 203.226
150.875 41936 204.783
150.992 42890 207.099
151.11 42745 206.749
151.227 42759 206.782
151.344 42209 205.448
151.462 41472 203.647
151.579 41635 204.047
151.697 40952 202.366
151.814 39987 199.967
151.932 39868 199.67
152.049 39652 199.128
152.167 39225 198.053
152.284 39199 197.987
152.402 39568 198.917
152.519 39125 197.8
152.636 39499 198.744
152.754 39410 198.52
152.871 39285 198.204
152.989 39383 198.452
153.106 40077 200.192
153.223 39984 199.96
153.341 39435 198.582
153.458 37288 193.101
153.575 35148 187.478
153.693 32973 181.585
153.81 32218 179.494
153.927 33820 183.902
154.044 36057 189.887
154.162 37228 192.946
154.279 38732 196.804
154.396 39363 198.401
154.513 40227 200.567
154.63 40954 202.371
154.747 40668 201.663
154.864 40473 201.179
154.981 38877 197.173
155.098 38715 196.761
155.215 38615 196.507
155.332 37836 194.515
155.449 37569 193.827
155.566 36689 191.544
155.683 36768 191.75
155.8 36113 190.034
155.917 35938 189.573
156.033 34721 186.336
156.15 0 1
156.267 0 1
156.383 0 1
156.5 0 1
156.617 0 1
156.733 0 1
156.85 0 1
156.966 0 1
157.082 0 1
157.199 0 1
157.315 0 1
157.431 0 1
157.547 0 1
157.664 0 1
157.78 0 1
157.896 0 1
158.012 0 1
158.128 0 1
158.244 0 1
158.359 0 1
158.475 0 1
158.591 0 1
158.706 0 1
