
6.15755 0 1
6.2731 0 1
6.3887 0 1
6.50437 0 1
6.62009 0 1
6.73587 0 1
6.8517 0 1
6.96759 0 1
7.08353 0 1
7.19952 0 1
7.31557 0 1
7.43166 0 1
7.54781 0 1
7.664 0 1
7.78024 0 1
7.89653 0 1
8.01286 0 1
8.12924 0 1
8.24567 0 1
8.36213 0 1
8.47864 0 1
8.59519 0 1
8.71178 0 1
8.82841 0 1
8.94508 0 1
9.06179 0 1
9.17853 0 1
9.29531 0 1
9.41212 0 1
9.52897 0 1
9.64584 0 1
9.76276 0 1
9.8797 0 1
9.99667 0 1
10.1137 0 1
10.2307 0 1
10.3478 0 1
10.4648 0 1
10.5819 0 1
10.6991 0 1
10.8162 0 1
10.9334 0 1
11.0506 0 1
11.1678 0 1
11.285 0 1
11.4023 0 1
11.5196 0 1
11.6369 0 1
11.7542 0 1
11.8715 0 1
11.9888 0 1
12.1062 0 1
12.2235 0 1
12.3409 0 1
12.4582 0 1
12.5756 0 1
12.693 0 1
12.8104 0 1
12.9278 0 1
13.0452 0 1
13.1626 0 1
13.28 0 1
13.3974 0 1
13.5149 0 1
13.6323 0 1
13.7497 0 1
13.8671 0 1
13.9845 0 1
14.1019 0 1
14.2193 0 1
14.3367 0 1
14.4541 0 1
14.5714 0 1
14.6888 0 1
14.8062 0 1
14.9235 0 1
15.0408 1498 38.704
15.1581 1604 40.05
15.2755 1542 39.2683
15.3927 1532 39.1408
15.51 1643 40.5339
15.6273 1593 39.9124
15.7445 1559 39.4842
15.8617 1512 38.8844
15.9789 1535 39.1791
16.0961 1460 38.2099
16.2132 1490 38.6005
16.3304 1571 39.6358
16.4475 1622 40.2741
16.5646 1653 40.6571
16.6816 1697 41.1947
16.7986 1898 43.566
16.9156 2003 44.7549
17.0326 2065 45.4423
17.1496 2181 46.7012
17.2665 2138 46.2385
17.3833 2167 46.551
17.5002 2163 46.5081
17.617 2089 45.7056
17.7338 2223 47.1487
17.8505 2157 46.4435
17.9672 2263 47.571
18.0839 2307 48.0312
18.2005 2258 47.5184
18.3171 2412 49.1121
18.4337 2343 48.4045
18.5502 2347 48.4458
18.6666 2316 48.1248
18.7831 2275 47.697
18.8994 2307 48.0312
19.0158 2203 46.9361
19.1321 2164 46.5188
19.2483 2010 44.833
19.3645 2026 45.0111
19.4806 2008 44.8107
19.5967 1938 44.0227
19.7128 1799 42.4146
19.8288 1654 40.6694
19.9447 1257 35.4542
20.0606 0 1
20.1764 0 1
20.2922 0 1
20.4079 0 1
20.5236 0 1
20.6392 0 1
20.7548 0 1
20.8702 0 1
23.3078 0 1
23.4233 0 1
23.539 0 1
23.6547 0 1
23.7704 0 1
23.8862 0 1
24.0021 0 1
24.118 0 1
24.234 0 1
24.35 0 1
24.4661 2056 45.3431
24.5822 2008 44.8107
24.6984 1994 44.6542
24.8146 1977 44.4635
24.9309 1900 43.589
25.0472 1789 42.2966
25.1636 1617 40.2119
25.28 1577 39.7115
25.3965 1715 41.4126
25.513 1807 42.5088
25.6296 1946 44.1135
25.7462 2192 46.8188
25.8628 2384 48.8262
25.9795 2470 49.6991
26.0962 2393 48.9183
26.213 2426 49.2544
26.3298 2383 48.816
26.4466 2409 49.0816
26.5635 2407 49.0612
26.6804 2357 48.5489
26.7973 2347 48.4458
26.9143 2375 48.734
27.0313 2377 48.7545
27.1483 2413 49.1223
27.2653 2356 48.5386
27.3824 2330 48.2701
27.4996 2207 46.9787
27.6167 2290 47.8539
27.7339 2319 48.156
27.8511 2177 46.6583
27.9683 2217 47.085
28.0855 2175 46.6369
28.2028 2180 46.6905
28.3201 2105 45.8803
28.4374 2072 45.5192
28.5547 1768 42.0476
28.6721 1623 40.2865
28.7894 1533 39.1535
28.9068 1531 39.128
29.0242 1555 39.4335
29.1416 1725 41.5331
29.259 1927 43.8976
29.3764 2111 45.9456
29.4939 2165 46.5296
29.6113 2253 47.4658
29.7288 2342 48.3942
29.8463 2268 47.6235
29.9638 2258 47.5184
30.0812 2257 47.5079
30.1987 2306 48.0208
30.3162 2223 47.1487
30.4337 2248 47.4131
30.5512 2199 46.8935
30.6687 2268 47.6235
30.7862 2222 47.1381
30.9037 2289 47.8435
31.0212 2187 46.7654
31.1387 2184 46.7333
31.2562 2170 46.5833
31.3737 2093 45.7493
31.4912 2051 45.288
31.6087 2158 46.4543
31.7262 2088 45.6946
31.8436 2065 45.4423
31.9611 2001 44.7325
32.0785 1913 43.7379
32.1959 1695 41.1704
32.3134 1470 38.3406
32.4308 1621 40.2616
32.5482 1645 40.5586
32.6655 1615 40.1871
32.7829 1902 43.6119
32.9002 2033 45.0888
33.0176 2130 46.1519
33.1349 2154 46.4112
33.2522 2252 47.4552
33.3694 2113 45.9674
33.4867 2162 46.4973
33.6039 2174 46.6262
33.7211 2232 47.244
33.8383 2200 46.9042
33.9554 2195 46.8508
34.0725 2218 47.0956
34.1896 2178 46.669
34.3067 2129 46.1411
34.4237 2078 45.5851
34.5407 2195 46.8508
34.6577 2118 46.0217
34.7746 2079 45.5961
34.8915 2160 46.4758
35.0084 2123 46.076
35.1252 2230 47.2229
35.242 2119 46.0326
35.3587 2016 44.8999
35.4755 2124 46.0869
35.5921 2029 45.0444
35.7088 1922 43.8406
35.8254 1753 41.8688
35.9419 1463 38.2492
36.0584 1409 37.5366
36.1749 1485 38.5357
36.2913 1497 38.6911
36.4077 1555 39.4335
36.524 1775 42.1307
36.6403 1965 44.3283
36.7565 2084 45.6508
36.8727 1994 44.6542
36.9889 2115 45.9891
37.1049 2080 45.607
37.221 0 1
37.3369 0 1
37.4529 0 1
37.5687 0 1
37.6845 0 1
37.8003 0 1
37.916 0 1
38.0316 0 1
38.1472 0 1
40.5851 0 1
40.7008 0 1
40.8164 0 1
40.9322 0 1
41.048 0 1
41.1639 0 1
41.2798 0 1
41.3958 0 1
41.5118 0 1
41.6279 0 1
41.744 1379 37.1349
41.8602 1556 39.4462
41.9765 1652 40.6448
42.0928 1695 41.1704
42.2091 1728 41.5692
42.3255 1781 42.2019
42.4419 1784 42.2374
42.5584 1740 41.7133
42.675 1710 41.3521
42.7915 1712 41.3763
42.9081 1646 40.5709
43.0248 1595 39.9375
43.1415 1573 39.6611
43.2582 1574 39.6737
43.375 1505 38.7943
43.4918 1606 40.0749
43.6087 1616 40.1995
43.7256 1504 38.7814
43.8425 1580 39.7492
43.9595 1462 38.2361
44.0765 1503 38.7685
44.1935 1445 38.0132
44.3106 1451 38.092
44.4277 1328 36.4417
44.5448 1317 36.2905
44.6619 1152 33.9411
44.7791 1017 31.8904
44.8963 951 30.8383
45.0136 977 31.257
45.1308 913 30.2159
45.2481 1070 32.7109
45.3654 1096 33.1059
45.4827 1218 34.8999
45.6001 1271 35.6511
45.7174 1195 34.5688
45.8348 1271 35.6511
45.9522 1243 35.2562
46.0697 1258 35.4683
46.1871 1151 33.9264
46.3046 1252 35.3836
46.422 1209 34.7707
46.5395 1146 33.8526
46.657 1043 32.2955
46.7745 1140 33.7639
46.892 1117 33.4215
47.0096 1115 33.3916
47.1271 1098 33.1361
47.2446 1083 32.909
47.3622 1082 32.8938
47.4797 1141 33.7787
47.5973 1055 32.4808
47.7149 1014 31.8434
47.8324 1063 32.6037
47.95 1056 32.4962
48.0675 948 30.7896
48.1851 899 29.9833
48.3027 807 28.4077
48.4202 742 27.2397
48.5378 737 27.1477
48.6554 734 27.0924
48.7729 712 26.6833
48.8904 838 28.9482
49.008 915 30.249
49.1255 945 30.7409
49.243 916 30.2655
49.3605 941 30.6757
49.478 939 30.6431
49.5955 986 31.4006
49.713 939 30.6431
49.8304 958 30.9516
49.9479 1028 32.0624
50.0653 950 30.8221
50.1827 951 30.8383
50.3001 990 31.4643
50.4175 1002 31.6544
50.5348 1079 32.8481
50.6521 1018 31.9061
50.7694 1100 33.1662
50.8867 1163 34.1028
51.004 1162 34.0881
51.1212 1214 34.8425
51.2384 1172 34.2345
51.3556 1176 34.2929
51.4727 1164 34.1174
51.5899 1226 35.0143
51.707 1108 33.2866
51.824 971 31.1609
51.9411 932 30.5287
52.0581 988 31.4325
52.175 1013 31.8277
52.2919 1086 32.9545
52.4088 1244 35.2704
52.5257 1394 37.3363
52.6425 1404 37.47
52.7593 1500 38.7298
52.876 1473 38.3797
52.9927 1563 39.5348
53.1094 1659 40.7308
53.226 1666 40.8167
53.3426 1613 40.1622
53.4591 1570 39.6232
53.5756 1469 38.3275
53.692 1461 38.223
53.8084 1504 38.7814
53.9248 1538 39.2173
54.0411 1655 40.6817
54.1573 1816 42.6146
54.2735 0 1
54.3896 0 1
54.5057 0 1
54.6217 0 1
54.7377 0 1
54.8537 0 1
54.9695 0 1
55.0853 0 1
55.2011 0 1
55.3168 0 1
55.4324 0 1
57.824 0 1
57.9396 0 1
58.0553 0 1
58.1711 0 1
58.2869 0 1
58.4028 0 1
58.5187 0 1
58.6347 0 1
58.7508 0 1
58.8669 0 1
58.983 1642 40.5216
59.0992 1784 42.2374
59.2155 1878 43.3359
59.3318 2003 44.7549
59.4482 1985 44.5533
59.5646 2036 45.1221
59.681 2067 45.4643
59.7975 2016 44.8999
59.9141 1982 44.5197
60.0306 1926 43.8862
60.1473 1876 43.3128
60.2639 1837 42.8602
60.3807 1687 41.0731
60.4974 1608 40.0999
60.6142 1513 38.8973
60.731 1550 39.37
60.8479 1493 38.6394
60.9648 1585 39.8121
61.0818 1679 40.9756
61.1987 1760 41.9524
61.3158 1809 42.5323
61.4328 1797 42.391
61.5499 1779 42.1782
61.667 1843 42.9302
61.7841 1813 42.5793
61.9013 1815 42.6028
62.0185 1755 41.8927
62.1357 1700 41.2311
62.253 1648 40.5956
62.3702 1691 41.1218
62.4875 1688 41.0853
62.6049 1768 42.0476
62.7222 1751 41.845
62.8396 1787 42.2729
62.9569 1877 43.3244
63.0743 1888 43.4511
63.1918 1809 42.5323
63.3092 1808 42.5206
63.4267 1781 42.2019
63.5441 1760 41.9524
63.6616 1688 41.0853
63.7791 1602 40.025
63.8966 1518 38.9615
64.0142 1413 37.5899
64.1317 1379 37.1349
64.2492 1376 37.0945
64.3668 1418 37.6563
64.4843 1399 37.4032
64.6019 1459 38.1969
64.7195 1530 39.1152
64.837 1558 39.4715
64.9546 1758 41.9285
65.0722 1715 41.4126
65.1898 1610 40.1248
65.3074 1610 40.1248
65.4249 1586 39.8246
65.5425 1566 39.5727
65.6601 1525 39.0512
65.7777 1465 38.2753
65.8952 1487 38.5616
66.0128 1519 38.9744
66.1304 1551 39.3827
66.2479 1656 40.694
66.3655 1676 40.939
66.483 1697 41.1947
66.6005 1642 40.5216
66.718 1725 41.5331
66.8355 1735 41.6533
66.953 1693 41.1461
67.0705 1675 40.9268
67.1879 1673 40.9023
67.3054 1544 39.2938
67.4228 1514 38.9102
67.5402 1482 38.4968
67.6576 1395 37.3497
67.7749 1291 35.9305
67.8923 1324 36.3868
68.0096 1415 37.6165
68.1269 1396 37.3631
68.2442 1500 38.7298
68.3614 1566 39.5727
68.4787 1650 40.6202
68.5958 1635 40.4351
68.713 1787 42.2729
68.8302 1756 41.9047
68.9473 1646 40.5709
69.0643 1646 40.5709
69.1814 1586 39.8246
69.2984 1580 39.7492
69.4154 1554 39.4208
69.5323 1611 40.1373
69.6492 1657 40.7063
69.7661 1704 41.2795
69.8829 1793 42.3438
69.9997 1914 43.7493
70.1165 1880 43.359
70.2332 1985 44.5533
70.3499 1869 43.2319
70.4665 1898 43.566
70.5831 1919 43.8064
70.6996 1844 42.9418
70.8161 1846 42.9651
70.9326 1772 42.0951
71.049 1716 41.4246
71.1653 1665 40.8044
71.2817 1601 40.0125
71.3979 1453 38.1182
71.5141 1413 37.5899
71.6303 1317 36.2905
71.7464 1155 33.9853
71.8624 0 1
71.9784 0 1
72.0944 0 1
72.2102 0 1
72.3261 0 1
72.4418 0 1
72.5575 0 1
72.6732 0 1
75.1054 0 1
75.2209 0 1
75.3365 0 1
75.4521 0 1
75.5678 0 1
75.6835 0 1
75.7993 0 1
75.9151 0 1
76.031 0 1
76.147 1623 40.2865
76.263 1695 41.1704
76.3791 1793 42.3438
76.4952 1706 41.3038
76.6113 1593 39.9124
76.7276 1547 39.3319
76.8438 1486 38.5487
76.9601 1472 38.3667
77.0765 1518 38.9615
77.1929 1646 40.5709
77.3093 1759 41.9404
77.4258 1855 43.0697
77.5423 1843 42.9302
77.6589 1883 43.3935
77.7755 1985 44.5533
77.8921 1842 42.9185
78.0088 1704 41.2795
78.1256 1561 39.5095
78.2423 1488 38.5746
78.3591 1395 37.3497
78.4759 1404 37.47
78.5928 1537 39.2046
78.7097 1632 40.398
78.8266 1638 40.4722
78.9436 1847 42.9767
79.0606 1821 42.6732
79.1776 1833 42.8135
79.2946 1889 43.4626
79.4117 1934 43.9773
79.5288 1823 42.6966
79.6459 1863 43.1625
79.7631 1783 42.2256
79.8802 1721 41.4849
79.9974 1574 39.6737
80.1147 1625 40.3113
80.2319 1525 39.0512
80.3491 1390 37.2827
80.4664 1370 37.0135
80.5837 1394 37.3363
80.701 1408 37.5233
80.8183 1521 39
80.9357 1597 39.9625
81.053 1662 40.7676
81.1704 1717 41.4367
81.2877 1644 40.5463
81.4051 1553 39.4081
81.5225 1631 40.3856
81.6399 1631 40.3856
81.7573 1416 37.6298
81.8747 1287 35.8748
81.9922 1167 34.1614
82.1096 1226 35.0143
82.227 1257 35.4542
82.3444 1405 37.4833
82.4619 1535 39.1791
82.5793 1601 40.0125
82.6967 1625 40.3113
82.8142 1636 40.4475
82.9316 1683 41.0244
83.049 1597 39.9625
83.1664 1615 40.1871
83.2838 1566 39.5727
83.4012 1571 39.6358
83.5186 1473 38.3797
83.636 1423 37.7227
83.7534 1347 36.7015
83.8708 1248 35.327
83.9881 1180 34.3511
84.1055 1139 33.7491
84.2228 1150 33.9116
84.3401 1287 35.8748
84.4575 1374 37.0675
84.5747 1401 37.4299
84.692 1530 39.1152
84.8093 1472 38.3667
84.9265 1501 38.7427
85.0437 1549 39.3573
85.1609 1483 38.5097
85.2781 1346 36.6879
85.3952 1200 34.641
85.5123 1152 33.9411
85.6294 1141 33.7787
85.7465 1188 34.4674
85.8636 1217 34.8855
85.9806 1575 39.6863
86.0976 1623 40.2865
86.2145 1681 41
86.3315 1758 41.9285
86.4484 1674 40.9145
86.5652 1827 42.7434
86.682 1838 42.8719
86.7988 1846 42.9651
86.9156 1762 41.9762
87.0323 1672 40.8901
87.149 1764 42
87.2657 1631 40.3856
87.3823 1572 39.6485
87.4988 1482 38.4968
87.6154 1405 37.4833
87.7318 1442 37.9737
87.8483 1500 38.7298
87.9647 1606 40.0749
88.081 1750 41.833
88.1973 1809 42.5323
88.3136 1819 42.6497
88.4298 1871 43.2551
88.546 1748 41.8091
88.6621 1854 43.0581
88.7781 1673 40.9023
88.8942 0 1
89.0101 0 1
89.126 0 1
89.2419 0 1
89.3577 0 1
89.4734 0 1
89.5891 0 1
89.7047 0 1
89.8203 0 1
89.9358 0 1
92.3269 0 1
92.4424 0 1
92.558 0 1
92.6736 0 1
92.7893 0 1
92.905 0 1
93.0208 0 1
93.1366 0 1
93.2525 0 1
93.3685 0 1
93.4845 0 1
93.6005 1742 41.7373
93.7167 1853 43.0465
93.8328 1827 42.7434
93.949 1849 43
94.0653 1847 42.9767
94.1816 1813 42.5793
94.2979 1677 40.9512
94.4143 1567 39.5854
94.5307 1426 37.7624
94.6472 1338 36.5787
94.7637 1320 36.3318
94.8803 1424 37.7359
94.9969 1636 40.4475
95.1135 1818 42.638
95.2302 1975 44.441
95.3469 1865 43.1856
95.4637 1840 42.8952
95.5805 2017 44.911
95.6973 1992 44.6318
95.8142 1988 44.587
95.9311 1993 44.643
96.048 1857 43.0929
96.1649 1842 42.9185
96.2819 1809 42.5323
96.3989 1715 41.4126
96.516 1693 41.1461
96.633 1597 39.9625
96.7501 1570 39.6232
96.8673 1612 40.1497
96.9844 1678 40.9634
97.1016 1691 41.1218
97.2188 1725 41.5331
97.336 1814 42.5911
97.4532 1780 42.19
97.5704 1824 42.7083
97.6877 1867 43.2088
97.805 1727 41.5572
97.9223 1691 41.1218
98.0396 1483 38.5097
98.1569 1303 36.0971
98.2743 1222 34.9571
98.3916 1270 35.6371
98.509 1293 35.9583
98.6264 1602 40.025
98.7438 1717 41.4367
98.8612 1759 41.9404
98.9786 1848 42.9884
99.096 1922 43.8406
99.2134 1954 44.2041
99.3308 1924 43.8634
99.4482 1972 44.4072
99.5656 1910 43.7035
99.6831 1843 42.9302
99.8005 1790 42.3084
99.9179 1760 41.9524
100.035 1633 40.4104
100.153 1650 40.6202
100.27 1664 40.7922
100.388 1556 39.4462
100.505 1625 40.3113
100.622 1646 40.5709
100.74 1755 41.8927
100.857 1801 42.4382
100.975 1800 42.4264
101.092 1774 42.1189
101.209 1860 43.1277
101.327 1827 42.7434
101.444 1747 41.7971
101.561 1649 40.6079
101.679 1497 38.6911
101.796 1313 36.2353
101.913 1218 34.8999
102.03 1300 36.0555
102.148 1608 40.0999
102.265 1767 42.0357
102.382 1893 43.5086
102.499 1903 43.6234
102.616 2051 45.288
102.733 2043 45.1996
102.851 2036 45.1221
102.968 2068 45.4753
103.085 2041 45.1774
103.202 1956 44.2267
103.319 1999 44.7102
103.436 1842 42.9185
103.552 1825 42.72
103.669 1795 42.3674
103.786 1739 41.7013
103.903 1794 42.3556
104.02 1859 43.1161
104.137 1854 43.0581
104.253 1931 43.9431
104.37 1936 44
104.487 2014 44.8776
104.603 2068 45.4753
104.72 1989 44.5982
104.836 1976 44.4522
104.953 1939 44.0341
105.069 1634 40.4228
105.186 1516 38.9358
105.302 1382 37.1753
105.418 1372 37.0405
105.535 1525 39.0512
105.651 1874 43.2897
105.767 2119 46.0326
105.883 2255 47.4868
105.999 2225 47.1699
106.115 0 1
106.231 0 1
106.347 0 1
106.463 0 1
106.579 0 1
106.694 0 1
106.81 0 1
106.926 0 1
107.041 0 1
107.157 0 1
109.576 0 1
109.692 0 1
109.807 0 1
109.923 0 1
110.039 0 1
110.155 0 1
110.27 0 1
110.386 0 1
110.502 0 1
110.618 1544 39.2938
110.735 1848 42.9884
110.851 2040 45.1664
110.967 2100 45.8258
111.083 2191 46.8081
111.199 2193 46.8295
111.316 2166 46.5403
111.432 2146 46.3249
111.549 2174 46.6262
111.665 2232 47.244
111.782 2096 45.7821
111.898 2046 45.2327
112.015 1912 43.7264
112.132 1928 43.909
112.248 1940 44.0454
112.365 1949 44.1475
112.482 1776 42.1426
112.599 1923 43.852
112.716 1876 43.3128
112.832 1975 44.441
112.949 1997 44.6878
113.066 1932 43.9545
113.183 1983 44.5309
113.3 1934 43.9773
113.417 1938 44.0227
113.534 1897 43.5546
113.652 1653 40.6571
113.769 1448 38.0526
113.886 1338 36.5787
114.003 1256 35.4401
114.12 1411 37.5633
114.238 1793 42.3438
114.355 1988 44.587
114.472 2104 45.8694
114.589 2119 46.0326
114.707 2132 46.1736
114.824 2258 47.5184
114.942 2299 47.9479
115.059 2213 47.0425
115.176 2224 47.1593
115.294 2158 46.4543
115.411 2116 46
115.529 2090 45.7165
115.646 2067 45.4643
115.764 2073 45.5302
115.881 2096 45.7821
115.999 2059 45.3762
116.116 2026 45.0111
116.234 2150 46.3681
116.351 2075 45.5522
116.469 2141 46.2709
116.586 2097 45.793
116.704 2111 45.9456
116.821 2136 46.2169
116.939 2063 45.4203
117.056 2092 45.7384
117.174 1889 43.4626
117.291 1673 40.9023
117.409 1475 38.4057
117.526 1466 38.2884
117.644 1415 37.6165
117.761 1643 40.5339
117.879 1940 44.0454
117.996 2174 46.6262
118.114 2194 46.8402
118.231 2336 48.3322
118.349 2397 48.9592
118.466 2248 47.4131
118.584 2321 48.1768
118.701 2273 47.676
118.819 2359 48.5695
118.936 2146 46.3249
119.053 2216 47.0744
119.171 2201 46.9148
119.288 2167 46.551
119.405 2081 45.618
119.523 2050 45.2769
119.64 2153 46.4004
119.757 2117 46.0109
119.875 2109 45.9239
119.992 2043 45.1996
120.109 2143 46.2925
120.226 2123 46.076
120.343 2109 45.9239
120.46 2047 45.2438
120.578 2146 46.3249
120.695 2078 45.5851
120.812 1842 42.9185
120.929 1726 41.5452
121.046 1575 39.6863
121.163 1367 36.973
121.279 1389 37.2693
121.396 1443 37.9868
121.513 1777 42.1545
121.63 2028 45.0333
121.747 2098 45.8039
121.863 2246 47.392
121.98 2210 47.0106
122.097 2278 47.7284
122.213 2317 48.1352
122.33 2224 47.1593
122.446 2205 46.9574
122.563 2136 46.2169
122.679 2130 46.1519
122.795 2194 46.8402
122.912 2072 45.5192
123.028 2015 44.8888
123.144 1986 44.5646
123.26 2038 45.1442
123.377 0 1
123.493 0 1
123.609 0 1
123.725 0 1
123.84 0 1
123.956 0 1
124.072 0 1
124.188 0 1
124.303 0 1
124.419 0 1
126.852 0 1
126.968 0 1
127.083 0 1
127.199 0 1
127.315 0 1
127.431 0 1
127.547 0 1
127.663 0 1
127.779 0 1
127.895 0 1
128.011 0 1
128.127 0 1
128.243 0 1
128.359 2269 47.634
128.476 2265 47.592
128.592 2354 48.518
128.708 2203 46.9361
128.825 2276 47.7074
128.941 2272 47.6655
129.058 2262 47.5605
129.174 2361 48.5901
129.291 2307 48.0312
129.408 2265 47.592
129.524 2204 46.9468
129.641 2257 47.5079
129.758 2109 45.9239
129.875 1828 42.7551
129.992 1687 41.0731
130.108 1548 39.3446
130.225 1494 38.6523
130.342 1636 40.4475
130.459 1833 42.8135
130.576 2227 47.1911
130.693 2298 47.9375
130.81 2406 49.051
130.928 2497 49.97
131.045 2483 49.8297
131.162 2509 50.0899
131.279 2565 50.6458
131.396 2497 49.97
131.513 2491 49.9099
131.631 2429 49.2849
131.748 2489 49.8899
131.865 2434 49.3356
131.983 2394 48.9285
132.1 2429 49.2849
132.217 2410 49.0918
132.335 2379 48.775
132.452 2455 49.548
132.57 2487 49.8698
132.687 2373 48.7134
132.804 2441 49.4065
132.922 2387 48.8569
133.039 2438 49.3761
133.157 2375 48.734
133.274 2180 46.6905
133.392 1930 43.9318
133.509 1724 41.5211
133.627 1582 39.7744
133.744 1397 37.3765
133.862 1417 37.6431
133.979 1801 42.4382
134.097 2009 44.8219
134.214 2290 47.8539
134.332 2407 49.0612
134.449 2348 48.4562
134.567 2465 49.6488
134.684 2369 48.6724
134.802 2520 50.1996
134.919 2481 49.8096
135.037 2526 50.2593
135.154 2403 49.0204
135.272 2394 48.9285
135.389 2462 49.6185
135.507 2414 49.1325
135.624 2441 49.4065
135.742 2414 49.1325
135.859 2404 49.0306
135.977 2423 49.224
136.094 2494 49.94
136.211 2415 49.1426
136.329 2411 49.1019
136.446 2428 49.2747
136.564 2434 49.3356
136.681 2429 49.2849
136.798 2468 49.679
136.915 2157 46.4435
137.033 1847 42.9767
137.15 1705 41.2916
137.267 1526 39.064
137.384 1462 38.2361
137.502 1528 39.0896
137.619 1806 42.4971
137.736 2102 45.8476
137.853 2202 46.9255
137.97 2356 48.5386
138.087 2397 48.9592
138.204 2470 49.6991
138.321 2385 48.8365
138.438 2428 49.2747
138.555 2533 50.3289
138.672 2478 49.7795
138.788 2487 49.8698
138.905 2506 50.06
139.022 2536 50.3587
139.139 2519 50.1896
139.255 2506 50.06
139.372 2503 50.03
139.488 2432 49.3153
139.605 2445 49.4469
139.721 2479 49.7896
139.838 2397 48.9592
139.954 2437 49.366
140.071 2333 48.3011
140.187 2434 49.3356
140.303 2350 48.4768
140.419 2384 48.8262
140.535 2253 47.4658
140.652 1975 44.441
140.768 0 1
140.884 0 1
141 0 1
141.115 0 1
141.231 0 1
141.347 0 1
141.463 0 1
141.578 0 1
141.694 0 1
144.104 0 1
144.219 0 1
144.335 0 1
144.45 0 1
144.566 0 1
144.682 0 1
144.798 0 1
144.914 0 1
145.03 0 1
145.146 1641 40.5093
145.262 1795 42.3674
145.378 1811 42.5558
145.494 1882 43.382
145.61 1854 43.0581
145.726 1658 40.7185
145.842 1481 38.4838
145.959 1348 36.7151
146.075 1329 36.4555
146.192 1226 35.0143
146.308 1223 34.9714
146.425 1277 35.7351
146.541 1469 38.3275
146.658 1576 39.6989
146.774 1690 41.1096
146.891 1771 42.0833
147.008 1934 43.9773
147.125 1994 44.6542
147.241 2035 45.111
147.358 2024 44.9889
147.475 2032 45.0777
147.592 2044 45.2106
147.709 2085 45.6618
147.826 2083 45.6399
147.943 2047 45.2438
148.06 2130 46.1519
148.177 2076 45.5631
148.294 2117 46.0109
148.411 2180 46.6905
148.528 2108 45.913
148.645 2091 45.7275
148.762 2063 45.4203
148.88 2062 45.4093
148.997 2024 44.9889
149.114 2119 46.0326
149.231 2044 45.2106
149.349 2023 44.9778
149.466 1992 44.6318
149.583 1828 42.7551
149.701 1686 41.0609
149.818 1490 38.6005
149.935 1352 36.7696
150.053 1286 35.8608
150.17 1340 36.606
150.287 1431 37.8286
150.405 1646 40.5709
150.522 1712 41.3763
150.64 1880 43.359
150.757 2018 44.9222
150.875 2032 45.0777
150.992 2043 45.1996
151.11 2113 45.9674
151.227 2151 46.3789
151.344 2140 46.2601
151.462 2170 46.5833
151.579 2176 46.6476
151.697 2245 47.3814
151.814 2181 46.7012
151.932 2137 46.2277
152.049 2185 46.744
152.167 2150 46.3681
152.284 2148 46.3465
152.402 2075 45.5522
152.519 2077 45.5741
152.636 2059 45.3762
152.754 2188 46.7761
152.871 2118 46.0217
152.989 1986 44.5646
153.106 1899 43.5775
153.223 1814 42.5911
153.341 1586 39.8246
153.458 1493 38.6394
153.575 1285 35.8469
153.693 1353 36.7831
153.81 1468 38.3145
153.927 1588 39.8497
154.044 1662 40.7676
154.162 1727 41.5572
154.279 2001 44.7325
154.396 2076 45.5631
154.513 2084 45.6508
154.63 2141 46.2709
154.747 2221 47.1275
154.864 2260 47.5395
154.981 2229 47.2123
155.098 2245 47.3814
155.215 2163 46.5081
155.332 2164 46.5188
155.449 2117 46.0109
155.566 2166 46.5403
155.683 2236 47.2864
155.8 2095 45.7712
155.917 2207 46.9787
156.033 2232 47.244
156.15 0 1
156.267 0 1
156.383 0 1
156.5 0 1
156.617 0 1
156.733 0 1
156.85 0 1
156.966 0 1
157.082 0 1
157.199 0 1
157.315 0 1
157.431 0 1
157.547 0 1
157.664 0 1
157.78 0 1
157.896 0 1
158.012 0 1
158.128 0 1
158.244 0 1
158.359 0 1
158.475 0 1
158.591 0 1
158.706 0 1
