
6.15755 0 1
6.2731 0 1
6.3887 0 1
6.50437 0 1
6.62009 0 1
6.73587 0 1
6.8517 0 1
6.96759 0 1
7.08353 0 1
7.19952 0 1
7.31557 0 1
7.43166 0 1
7.54781 0 1
7.664 0 1
7.78024 0 1
7.89653 0 1
8.01286 0 1
8.12924 0 1
8.24567 0 1
8.36213 0 1
8.47864 0 1
8.59519 0 1
8.71178 0 1
8.82841 0 1
8.94508 0 1
9.06179 0 1
9.17853 0 1
9.29531 0 1
9.41212 0 1
9.52897 0 1
9.64584 0 1
9.76276 0 1
9.8797 0 1
9.99667 0 1
10.1137 0 1
10.2307 0 1
10.3478 0 1
10.4648 0 1
10.5819 0 1
10.6991 0 1
10.8162 0 1
10.9334 0 1
11.0506 0 1
11.1678 0 1
11.285 0 1
11.4023 0 1
11.5196 0 1
11.6369 0 1
11.7542 0 1
11.8715 0 1
11.9888 0 1
12.1062 0 1
12.2235 0 1
12.3409 0 1
12.4582 0 1
12.5756 0 1
12.693 0 1
12.8104 0 1
12.9278 0 1
13.0452 0 1
13.1626 0 1
13.28 0 1
13.3974 0 1
13.5149 0 1
13.6323 0 1
13.7497 0 1
13.8671 0 1
13.9845 0 1
14.1019 0 1
14.2193 0 1
14.3367 0 1
14.4541 0 1
14.5714 0 1
14.6888 0 1
14.8062 0 1
14.9235 0 1
15.0408 0 0
15.1581 0 0
15.2755 0 0
15.3927 0 0
15.51 0 0
15.6273 0 0
15.7445 0 0
15.8617 0 0
15.9789 0 0
16.0961 0 0
16.2132 0 0
16.3304 0 0
16.4475 0 0
16.5646 0 0
16.6816 0 0
16.7986 0 0
16.9156 0 0
17.0326 0 0
17.1496 0 0
17.2665 0 0
17.3833 0 0
17.5002 0 0
17.617 0 0
17.7338 0 0
17.8505 0 0
17.9672 0 0
18.0839 0 0
18.2005 0 0
18.3171 0 0
18.4337 0 0
18.5502 0 0
18.6666 0 0
18.7831 0 0
18.8994 0 0
19.0158 0 0
19.1321 0 0
19.2483 0 0
19.3645 0 0
19.4806 0 0
19.5967 0 0
19.7128 0 0
19.8288 0 0
19.9447 0 0
20.0606 0 1
20.1764 0 1
20.2922 0 1
20.4079 0 1
20.5236 0 1
20.6392 0 1
20.7548 0 1
20.8702 0 1
23.3078 0 1
23.4233 0 1
23.539 0 1
23.6547 0 1
23.7704 0 1
23.8862 0 1
24.0021 0 1
24.118 0 1
24.234 0 1
24.35 0 1
24.4661 9535 97.6473
24.5822 9608 98.0204
24.6984 9334 96.6126
24.8146 9292 96.395
24.9309 9319 96.535
25.0472 9017 94.9579
25.1636 9124 95.5196
25.28 9117 95.483
25.3965 9515 97.5449
25.513 9481 97.3704
25.6296 9933 99.6644
25.7462 9893 99.4636
25.8628 9906 99.5289
25.9795 9980 99.8999
26.0962 9959 99.7948
26.213 9918 99.5892
26.3298 9532 97.632
26.4466 9101 95.3992
26.5635 9094 95.3625
26.6804 8874 94.2019
26.7973 9143 95.619
26.9143 9184 95.8332
27.0313 9574 97.8468
27.1483 9894 99.4686
27.2653 9951 99.7547
27.3824 9958 99.7898
27.4996 10073 100.364
27.6167 9786 98.9242
27.7339 9885 99.4233
27.8511 9595 97.9541
27.9683 9550 97.7241
28.0855 9485 97.391
28.2028 9119 95.4935
28.3201 8541 92.4175
28.4374 8577 92.6121
28.5547 8259 90.879
28.6721 8118 90.0999
28.7894 8395 91.6242
28.9068 8260 90.8845
29.0242 8580 92.6283
29.1416 8668 93.1021
29.259 8751 93.5468
29.3764 8798 93.7977
29.4939 8706 93.3059
29.6113 8417 91.7442
29.7288 8471 92.038
29.8463 8347 91.3619
29.9638 8199 90.5483
30.0812 7863 88.6736
30.1987 8275 90.967
30.3162 8272 90.9505
30.4337 8538 92.4013
30.5512 8824 93.9361
30.6687 9146 95.6347
30.7862 9147 95.6399
30.9037 9312 96.4987
31.0212 9677 98.3717
31.1387 9324 96.5609
31.2562 9330 96.5919
31.3737 9196 95.8958
31.4912 8895 94.3133
31.6087 8927 94.4828
31.7262 8736 93.4666
31.8436 8557 92.5041
31.9611 8273 90.956
32.0785 7955 89.1908
32.1959 7991 89.3924
32.3134 8143 90.2386
32.4308 8093 89.9611
32.5482 8084 89.9111
32.6655 7989 89.3812
32.7829 8353 91.3947
32.9002 8296 91.0824
33.0176 8315 91.1866
33.1349 8288 91.0385
33.2522 8368 91.4768
33.3694 8208 90.598
33.4867 8187 90.482
33.6039 8027 89.5935
33.7211 7865 88.6848
33.8383 7976 89.3085
33.9554 8093 89.9611
34.0725 8421 91.766
34.1896 8666 93.0914
34.3067 8655 93.0323
34.4237 9153 95.6713
34.5407 9144 95.6243
34.6577 9261 96.2341
34.7746 9239 96.1197
34.8915 9039 95.0737
35.0084 8939 94.5463
35.1252 9024 94.9947
35.242 8834 93.9894
35.3587 8764 93.6162
35.4755 8491 92.1466
35.5921 8245 90.802
35.7088 7969 89.2693
35.8254 7580 87.0632
35.9419 7842 88.5551
36.0584 7637 87.3899
36.1749 7662 87.5329
36.2913 7579 87.0575
36.4077 7774 88.1703
36.524 7761 88.0965
36.6403 8001 89.4483
36.7565 8109 90.05
36.8727 8076 89.8666
36.9889 7853 88.6172
37.1049 7703 87.7667
37.221 0 1
37.3369 0 1
37.4529 0 1
37.5687 0 1
37.6845 0 1
37.8003 0 1
37.916 0 1
38.0316 0 1
38.1472 0 1
40.5851 0 1
40.7008 0 1
40.8164 0 1
40.9322 0 1
41.048 0 1
41.1639 0 1
41.2798 0 1
41.3958 0 1
41.5118 0 1
41.6279 0 1
41.744 6471 80.4425
41.8602 6664 81.6333
41.9765 6711 81.9207
42.0928 6724 82
42.2091 6688 81.7802
42.3255 6589 81.1727
42.4419 6481 80.5047
42.5584 6309 79.4292
42.675 6220 78.867
42.7915 6851 82.7708
42.9081 6878 82.9337
43.0248 7122 84.3919
43.1415 7264 85.2291
43.2582 7568 86.9943
43.375 7615 87.264
43.4918 7672 87.59
43.6087 7517 86.7006
43.7256 7471 86.4349
43.8425 7237 85.0706
43.9595 7312 85.5102
44.0765 7114 84.3445
44.1935 7094 84.2259
44.3106 6782 82.3529
44.4277 6442 80.2621
44.5448 6123 78.2496
44.6619 5967 77.2464
44.7791 5884 76.7072
44.8963 5880 76.6812
45.0136 6031 77.6595
45.1308 5992 77.408
45.2481 5999 77.4532
45.3654 5897 76.7919
45.4827 5986 77.3692
45.6001 5942 77.0844
45.7174 5983 77.3499
45.8348 5775 75.9934
45.9522 5633 75.0533
46.0697 5476 74
46.1871 5400 73.4847
46.3046 5527 74.3438
46.422 5580 74.6994
46.5395 6016 77.5629
46.657 6071 77.9166
46.7745 6200 78.7401
46.892 6302 79.3851
47.0096 6288 79.2969
47.1271 6158 78.4729
47.2446 6257 79.1012
47.3622 6125 78.2624
47.4797 5977 77.3111
47.5973 5808 76.2102
47.7149 5817 76.2693
47.8324 5614 74.9266
47.95 5289 72.7255
48.0675 5081 71.2811
48.1851 4658 68.2495
48.3027 4744 68.8767
48.4202 4571 67.6092
48.5378 4801 69.2892
48.6554 4731 68.7823
48.7729 4807 69.3325
48.8904 4991 70.647
49.008 4954 70.3847
49.1255 5186 72.0139
49.243 5031 70.9295
49.3605 4901 70.0071
49.478 4749 68.913
49.5955 4640 68.1175
49.713 4637 68.0955
49.8304 4866 69.7567
49.9479 5174 71.9305
50.0653 5551 74.505
50.1827 5916 76.9155
50.3001 5958 77.1881
50.4175 6349 79.6806
50.5348 6320 79.4984
50.6521 6735 82.067
50.7694 6909 83.1204
50.8867 6865 82.8553
51.004 7173 84.6936
51.1212 7252 85.1587
51.2384 7317 85.5395
51.3556 7008 83.7138
51.4727 6862 82.8372
51.5899 6513 80.7032
51.707 6352 79.6994
51.824 6273 79.2023
51.9411 6245 79.0253
52.0581 6430 80.1873
52.175 6711 81.9207
52.2919 6728 82.0244
52.4088 6796 82.4379
52.5257 6889 83
52.6425 7042 83.9166
52.7593 7042 83.9166
52.876 7155 84.5872
52.9927 6756 82.1949
53.1094 6679 81.7251
53.226 6590 81.1788
53.3426 6832 82.6559
53.4591 7173 84.6936
53.5756 7599 87.1722
53.692 8018 89.5433
53.8084 8174 90.4102
53.9248 8547 92.45
54.0411 8899 94.3345
54.1573 9073 95.2523
54.2735 0 1
54.3896 0 1
54.5057 0 1
54.6217 0 1
54.7377 0 1
54.8537 0 1
54.9695 0 1
55.0853 0 1
55.2011 0 1
55.3168 0 1
55.4324 0 1
57.824 0 1
57.9396 0 1
58.0553 0 1
58.1711 0 1
58.2869 0 1
58.4028 0 1
58.5187 0 1
58.6347 0 1
58.7508 0 1
58.8669 0 1
58.983 9705 98.514
59.0992 10387 101.917
59.2155 10516 102.548
59.3318 10752 103.692
59.4482 10979 104.781
59.5646 11218 105.915
59.681 11087 105.295
59.7975 10751 103.687
59.9141 10364 101.804
60.0306 9838 99.1867
60.1473 9203 95.9323
60.2639 8845 94.0479
60.3807 8293 91.0659
60.4974 8250 90.8295
60.6142 8090 89.9444
60.731 7923 89.0112
60.8479 8214 90.6311
60.9648 8365 91.4604
61.0818 8627 92.8816
61.1987 8710 93.3274
61.3158 8739 93.4826
61.4328 8355 91.4057
61.5499 8269 90.934
61.667 7827 88.4703
61.7841 7812 88.3855
61.9013 7852 88.6115
62.0185 8058 89.7664
62.1357 8421 91.766
62.253 8920 94.4458
62.3702 9228 96.0625
62.4875 9660 98.2853
62.6049 9717 98.5748
62.7222 10179 100.891
62.8396 10326 101.617
62.9569 10479 102.367
63.0743 10499 102.465
63.1918 10466 102.303
63.3092 10266 101.321
63.4267 9766 98.8231
63.5441 9325 96.566
63.6616 8704 93.2952
63.7791 8022 89.5656
63.8966 7740 87.9773
64.0142 7611 87.241
64.1317 7566 86.9828
64.2492 7505 86.6314
64.3668 7597 87.1608
64.4843 7614 87.2582
64.6019 7892 88.8369
64.7195 8080 89.8888
64.837 8066 89.8109
64.9546 7959 89.2132
65.0722 7587 87.1034
65.1898 7349 85.7263
65.3074 7221 84.9765
65.4249 7048 83.9524
65.5425 7314 85.5219
65.6601 7689 87.6869
65.7777 8144 90.2441
65.8952 8479 92.0815
66.0128 8844 94.0425
66.1304 9224 96.0417
66.2479 9687 98.4226
66.3655 10047 100.235
66.483 10093 100.464
66.6005 10293 101.454
66.718 10131 100.653
66.8355 10012 100.06
66.953 9748 98.732
67.0705 9324 96.5609
67.1879 8762 93.6056
67.3054 8013 89.5154
67.4228 7439 86.2496
67.5402 7122 84.3919
67.6576 6996 83.6421
67.7749 7018 83.7735
67.8923 7487 86.5275
68.0096 7200 84.8528
68.1269 7778 88.193
68.2442 8147 90.2607
68.3614 8242 90.7855
68.4787 8349 91.3729
68.5958 8182 90.4544
68.713 7865 88.6848
68.8302 7641 87.4128
68.9473 7397 86.0058
69.0643 7106 84.2971
69.1814 7373 85.8662
69.2984 7977 89.3141
69.4154 8265 90.912
69.5323 8861 94.1329
69.6492 9299 96.4313
69.7661 9757 98.7775
69.8829 10215 101.069
69.9997 10510 102.518
70.1165 10732 103.595
70.2332 10768 103.769
70.3499 10903 104.417
70.4665 10753 103.697
70.5831 9985 99.925
70.6996 9637 98.1682
70.8161 8808 93.8509
70.9326 8551 92.4716
71.049 7930 89.0505
71.1653 7456 86.3481
71.2817 7189 84.788
71.3979 6876 82.9216
71.5141 7231 85.0353
71.6303 7258 85.1939
71.7464 7140 84.4985
71.8624 0 1
71.9784 0 1
72.0944 0 1
72.2102 0 1
72.3261 0 1
72.4418 0 1
72.5575 0 1
72.6732 0 1
75.1054 0 1
75.2209 0 1
75.3365 0 1
75.4521 0 1
75.5678 0 1
75.6835 0 1
75.7993 0 1
75.9151 0 1
76.031 0 1
76.147 8411 91.7115
76.263 8631 92.9032
76.3791 8402 91.6624
76.4952 7551 86.8965
76.6113 7645 87.4357
76.7276 7539 86.8274
76.8438 7734 87.9432
76.9601 8129 90.161
77.0765 8617 92.8278
77.1929 8747 93.5254
77.3093 9170 95.7601
77.4258 9480 97.3653
77.5423 9361 96.7523
77.6589 8933 94.5145
77.7755 8256 90.8625
77.8921 7846 88.5776
78.0088 7685 87.6641
78.1256 7466 86.406
78.2423 7625 87.3212
78.3591 8008 89.4874
78.4759 8660 93.0591
78.5928 9152 95.6661
78.7097 9645 98.209
78.8266 10843 104.13
78.9436 10131 100.653
79.0606 10929 104.542
79.1776 10859 104.207
79.2946 10868 104.25
79.4117 10757 103.716
79.5288 10740 103.634
79.6459 10278 101.38
79.7631 9677 98.3717
79.8802 9105 95.4201
79.9974 8369 91.4822
80.1147 7730 87.9204
80.2319 7273 85.2819
80.3491 7147 84.5399
80.4664 7447 86.296
80.5837 7659 87.5157
80.701 7994 89.4092
80.8183 7989 89.3812
80.9357 8210 90.6091
81.053 8915 94.4193
81.1704 8740 93.488
81.2877 8440 91.8695
81.4051 7870 88.713
81.5225 7302 85.4517
81.6399 7175 84.7054
81.7573 6911 83.1324
81.8747 6594 81.2034
81.9922 7162 84.6286
82.1096 7874 88.7356
82.227 8266 90.9175
82.3444 8954 94.6256
82.4619 9502 97.4782
82.5793 9560 97.7753
82.6967 10256 101.272
82.8142 10081 100.404
82.9316 10293 101.454
83.049 10072 100.359
83.1664 9762 98.8028
83.2838 9075 95.2628
83.4012 8684 93.188
83.5186 8230 90.7193
83.636 7604 87.2009
83.7534 6873 82.9036
83.8708 6546 80.9074
83.9881 6627 81.4064
84.1055 6644 81.5107
84.2228 6754 82.1827
84.3401 7182 84.7467
84.4575 7506 86.6372
84.5747 8130 90.1665
84.692 8507 92.2334
84.8093 8366 91.4658
84.9265 7979 89.3252
85.0437 7223 84.9882
85.1609 6940 83.3067
85.2781 6731 82.0427
85.3952 6735 82.067
85.5123 6909 83.1204
85.6294 7435 86.2264
85.7465 7854 88.6228
85.8636 8584 92.6499
85.9806 9119 95.4935
86.0976 9756 98.7725
86.2145 10240 101.193
86.3315 9978 99.8899
86.4484 11188 105.773
86.5652 10998 104.871
86.682 10688 103.383
86.7988 10569 102.806
86.9156 10078 100.389
87.0323 9373 96.8143
87.149 9017 94.9579
87.2657 8077 89.8721
87.3823 7660 87.5214
87.4988 7455 86.3423
87.6154 7645 87.4357
87.7318 7971 89.2805
87.8483 8276 90.9725
87.9647 8759 93.5895
88.081 9225 96.0469
88.1973 9737 98.6762
88.3136 10027 100.135
88.4298 9571 97.8315
88.546 8678 93.1558
88.6621 8033 89.627
88.7781 7467 86.4118
88.8942 0 1
89.0101 0 1
89.126 0 1
89.2419 0 1
89.3577 0 1
89.4734 0 1
89.5891 0 1
89.7047 0 1
89.8203 0 1
89.9358 0 1
92.3269 0 1
92.4424 0 1
92.558 0 1
92.6736 0 1
92.7893 0 1
92.905 0 1
93.0208 0 1
93.1366 0 1
93.2525 0 1
93.3685 0 1
93.4845 0 1
93.6005 13957 118.14
93.7167 14757 121.478
93.8328 15393 124.069
93.949 15701 125.304
94.0653 15338 123.847
94.1816 15353 123.907
94.2979 15334 123.831
94.4143 15667 125.168
94.5307 16164 127.138
94.6472 17126 130.866
94.7637 18893 137.452
94.8803 21173 145.509
94.9969 22695 150.649
95.1135 24513 156.566
95.2302 26083 161.502
95.3469 27207 164.945
95.4637 28706 169.428
95.5805 29421 171.526
95.6973 30148 173.632
95.8142 31673 177.969
95.9311 31575 177.694
96.048 31085 176.309
96.1649 30886 175.744
96.2819 29870 172.829
96.3989 28819 169.762
96.516 27812 166.769
96.633 26388 162.444
96.7501 26319 162.231
96.8673 27554 165.994
96.9844 29893 172.896
97.1016 32431 180.086
97.2188 33479 182.973
97.336 34951 186.952
97.4532 35067 187.262
97.5704 34692 186.258
97.6877 32982 181.609
97.805 30649 175.069
97.9223 28629 169.201
98.0396 27122 164.688
98.1569 25961 161.124
98.2743 26089 161.521
98.3916 27028 164.402
98.509 29720 172.395
98.6264 31484 177.437
98.7438 32470 180.194
98.8612 34041 184.502
98.9786 35154 187.494
99.096 35812 189.241
99.2134 35970 189.658
99.3308 36606 191.327
99.4482 36491 191.026
99.5656 36425 190.853
99.6831 35217 187.662
99.8005 34119 184.713
99.9179 32969 181.574
100.035 31222 176.697
100.153 28588 169.08
100.27 27243 165.055
100.388 27982 167.278
100.505 29700 172.337
100.622 32407 180.019
100.74 33363 182.655
100.857 33977 184.329
100.975 34060 184.554
101.092 33954 184.266
101.209 33143 182.052
101.327 31262 176.811
101.444 28612 169.151
101.561 26620 163.156
101.679 25281 159
101.796 24388 156.167
101.913 24475 156.445
102.03 26503 162.797
102.148 28017 167.383
102.265 30431 174.445
102.382 29145 170.719
102.499 30963 175.963
102.616 30807 175.519
102.733 31206 176.652
102.851 30299 174.066
102.968 30067 173.398
103.085 28925 170.074
103.202 27298 165.221
103.319 25479 159.621
103.436 23669 153.847
103.552 21861 147.855
103.669 19578 139.921
103.786 17790 133.379
103.903 17184 131.088
104.02 17530 132.401
104.137 17736 133.177
104.253 18139 134.681
104.37 17021 130.465
104.487 17065 130.633
104.603 16368 127.937
104.72 15274 123.588
104.836 13654 116.85
104.953 12120 110.091
105.069 11215 105.901
105.186 10369 101.828
105.302 10184 100.916
105.418 10442 102.186
105.535 11207 105.863
105.651 11870 108.95
105.767 12281 110.82
105.883 13192 114.856
105.999 13315 115.391
106.115 0 1
106.231 0 1
106.347 0 1
106.463 0 1
106.579 0 1
106.694 0 1
106.81 0 1
106.926 0 1
107.041 0 1
107.157 0 1
109.576 0 1
109.692 0 1
109.807 0 1
109.923 0 1
110.039 0 1
110.155 0 1
110.27 0 1
110.386 0 1
110.502 0 1
110.618 9383 96.8659
110.735 10217 101.079
110.851 11194 105.802
110.967 11859 108.899
111.083 12071 109.868
111.199 12447 111.566
111.316 12392 111.319
111.432 12376 111.247
111.549 12356 111.158
111.665 11551 107.476
111.782 11075 105.238
111.898 10757 103.716
112.015 9972 99.8599
112.132 9323 96.5557
112.248 9052 95.142
112.365 8438 91.8586
112.482 8568 92.5635
112.599 8605 92.7631
112.716 9050 95.1315
112.832 9169 95.7549
112.949 9220 96.0208
113.066 9407 96.9897
113.183 9087 95.3258
113.3 8706 93.3059
113.417 8194 90.5207
113.534 7835 88.5155
113.652 7825 88.459
113.769 7555 86.9195
113.886 7517 86.7006
114.003 8030 89.6103
114.12 8943 94.5674
114.238 9565 97.8008
114.355 10122 100.608
114.472 10664 103.267
114.589 10845 104.139
114.707 10965 104.714
114.824 11175 105.712
114.942 11206 105.858
115.059 11224 105.943
115.176 11007 104.914
115.294 10819 104.014
115.411 10202 101.005
115.529 9789 98.9394
115.646 9405 96.9794
115.764 8768 93.6376
115.881 8434 91.8368
115.999 8274 90.9615
116.116 8451 91.9293
116.234 8781 93.707
116.351 8893 94.3027
116.469 9224 96.0417
116.586 9291 96.3898
116.704 9327 96.5764
116.821 9065 95.2103
116.939 8612 92.8009
117.056 8283 91.011
117.174 8118 90.0999
117.291 8034 89.6326
117.409 8166 90.3659
117.526 8220 90.6642
117.644 9227 96.0573
117.761 9669 98.3311
117.879 10372 101.843
117.996 10872 104.269
118.114 11484 107.163
118.231 11757 108.43
118.349 11791 108.586
118.466 11748 108.388
118.584 11896 109.069
118.701 11881 109
118.819 11365 106.607
118.936 11243 106.033
119.053 10926 104.528
119.171 10396 101.961
119.288 9741 98.6965
119.405 9327 96.5764
119.523 8758 93.5842
119.64 8920 94.4458
119.757 9073 95.2523
119.875 9215 95.9948
119.992 9337 96.6282
120.109 9255 96.2029
120.226 9616 98.0612
120.343 9698 98.4784
120.46 9316 96.5194
120.578 8985 94.7892
120.695 8612 92.8009
120.812 8313 91.1757
120.929 8368 91.4768
121.046 8493 92.1575
121.163 8646 92.9839
121.279 9020 94.9737
121.396 9541 97.678
121.513 10354 101.755
121.63 10980 104.785
121.747 11259 106.108
121.863 11360 106.583
121.98 11780 108.536
122.097 11712 108.222
122.213 11700 108.167
122.33 11694 108.139
122.446 11589 107.652
122.563 11251 106.071
122.679 11064 105.186
122.795 10642 103.16
122.912 10281 101.395
123.028 9826 99.1262
123.144 9189 95.8593
123.26 8720 93.3809
123.377 0 1
123.493 0 1
123.609 0 1
123.725 0 1
123.84 0 1
123.956 0 1
124.072 0 1
124.188 0 1
124.303 0 1
124.419 0 1
126.852 0 1
126.968 0 1
127.083 0 1
127.199 0 1
127.315 0 1
127.431 0 1
127.547 0 1
127.663 0 1
127.779 0 1
127.895 0 1
128.011 0 1
128.127 0 1
128.243 0 1
128.359 10985 104.809
128.476 10416 102.059
128.592 10297 101.474
128.708 10159 100.792
128.825 10729 103.581
128.941 10971 104.743
129.058 11112 105.413
129.174 11039 105.067
129.291 10803 103.937
129.408 10637 103.136
129.524 10362 101.794
129.641 9881 99.4032
129.758 9925 99.6243
129.875 9731 98.6458
129.992 9738 98.6813
130.108 9994 99.97
130.225 10307 101.523
130.342 10981 104.79
130.459 11063 105.181
130.576 11952 109.325
130.693 12172 110.327
130.81 12197 110.44
130.928 12421 111.45
131.045 12539 111.978
131.162 12362 111.185
131.279 12464 111.642
131.396 12090 109.955
131.513 11831 108.77
131.631 11635 107.866
131.748 11568 107.555
131.865 10954 104.661
131.983 10357 101.769
132.1 10151 100.752
132.217 10080 100.399
132.335 10536 102.645
132.452 10646 103.179
132.57 10734 103.605
132.687 10324 101.607
132.804 10754 103.701
132.922 10474 102.343
133.039 10358 101.774
133.157 10016 100.08
133.274 9905 99.5239
133.392 9741 98.6965
133.509 9724 98.6103
133.627 9737 98.6762
133.744 9958 99.7898
133.862 10393 101.946
133.979 10863 104.226
134.097 11189 105.778
134.214 11877 108.982
134.332 11853 108.871
134.449 12053 109.786
134.567 12067 109.85
134.684 12343 111.099
134.802 12226 110.571
134.919 12329 111.036
135.037 12219 110.54
135.154 12029 109.677
135.272 11628 107.833
135.389 11371 106.635
135.507 10900 104.403
135.624 10626 103.082
135.742 10325 101.612
135.859 10507 102.504
135.977 10890 104.355
136.094 11067 105.2
136.211 10948 104.633
136.329 10949 104.637
136.446 10796 103.904
136.564 10717 103.523
136.681 10723 103.552
136.798 10167 100.832
136.915 10199 100.99
137.033 9894 99.4686
137.15 9764 98.813
137.267 9897 99.4837
137.384 10138 100.688
137.502 10819 104.014
137.619 11138 105.537
137.736 11511 107.289
137.853 11602 107.713
137.97 11741 108.356
138.087 12458 111.615
138.204 12242 110.644
138.321 12399 111.351
138.438 12644 112.446
138.555 12631 112.388
138.672 12588 112.196
138.788 12327 111.027
138.905 12028 109.672
139.022 11764 108.462
139.139 11499 107.233
139.255 11061 105.171
139.372 10934 104.566
139.488 10745 103.658
139.605 11200 105.83
139.721 11371 106.635
139.838 11360 106.583
139.954 11411 106.822
140.071 10997 104.867
140.187 11134 105.518
140.303 10710 103.489
140.419 10430 102.127
140.535 10017 100.085
140.652 9828 99.1363
140.768 0 1
140.884 0 1
141 0 1
141.115 0 1
141.231 0 1
141.347 0 1
141.463 0 1
141.578 0 1
141.694 0 1
144.104 0 1
144.219 0 1
144.335 0 1
144.45 0 1
144.566 0 1
144.682 0 1
144.798 0 1
144.914 0 1
145.03 0 1
145.146 10530 102.616
145.262 10459 102.269
145.378 10281 101.395
145.494 10246 101.223
145.61 9960 99.7998
145.726 9919 99.5942
145.842 9672 98.3463
145.959 9672 98.3463
146.075 9900 99.4987
146.192 10442 102.186
146.308 10479 102.367
146.425 10939 104.59
146.541 11042 105.081
146.658 11314 106.367
146.774 11148 105.584
146.891 11609 107.745
147.008 11723 108.273
147.125 11736 108.333
147.241 11749 108.393
147.358 11700 108.167
147.475 11320 106.395
147.592 11230 105.972
147.709 10741 103.639
147.826 10470 102.323
147.943 10240 101.193
148.06 10075 100.374
148.177 10359 101.779
148.294 10606 102.985
148.411 10655 103.223
148.528 10663 103.262
148.645 10465 102.299
148.762 10431 102.132
148.88 10402 101.99
148.997 9702 98.4987
149.114 10468 102.313
149.231 9806 99.0252
149.349 9671 98.3412
149.466 9407 96.9897
149.583 9505 97.4936
149.701 9558 97.765
149.818 10071 100.354
149.935 10241 101.198
150.053 10503 102.484
150.17 10636 103.131
150.287 10726 103.566
150.405 11143 105.56
150.522 11295 106.278
150.64 11342 106.499
150.757 11639 107.884
150.875 11431 106.916
150.992 11649 107.931
151.11 11193 105.797
151.227 10984 104.805
151.344 10799 103.918
151.462 10326 101.617
151.579 10276 101.371
151.697 10098 100.489
151.814 10340 101.686
151.932 10628 103.092
152.049 11023 104.99
152.167 10932 104.556
152.284 10685 103.368
152.402 10763 103.745
152.519 10763 103.745
152.636 10588 102.898
152.754 10362 101.794
152.871 10142 100.707
152.989 9949 99.7447
153.106 9987 99.935
153.223 9998 99.99
153.341 9907 99.5339
153.458 10320 101.587
153.575 10719 103.533
153.693 11039 105.067
153.81 11323 106.41
153.927 11549 107.466
154.044 11892 109.05
154.162 12091 109.959
154.279 12235 110.612
154.396 12475 111.692
154.513 12444 111.553
154.63 12439 111.53
154.747 12411 111.405
154.864 12031 109.686
154.981 11713 108.227
155.098 11450 107.005
155.215 11016 104.957
155.332 11055 105.143
155.449 11127 105.485
155.566 11552 107.48
155.683 11586 107.638
155.8 11453 107.019
155.917 11198 105.821
156.033 11365 106.607
156.15 0 1
156.267 0 1
156.383 0 1
156.5 0 1
156.617 0 1
156.733 0 1
156.85 0 1
156.966 0 1
157.082 0 1
157.199 0 1
157.315 0 1
157.431 0 1
157.547 0 1
157.664 0 1
157.78 0 1
157.896 0 1
158.012 0 1
158.128 0 1
158.244 0 1
158.359 0 1
158.475 0 1
158.591 0 1
158.706 0 1
