
6.15755 0 1
6.2731 0 1
6.3887 0 1
6.50437 0 1
6.62009 0 1
6.73587 0 1
6.8517 0 1
6.96759 0 1
7.08353 0 1
7.19952 0 1
7.31557 0 1
7.43166 0 1
7.54781 0 1
7.664 0 1
7.78024 0 1
7.89653 0 1
8.01286 0 1
8.12924 0 1
8.24567 0 1
8.36213 0 1
8.47864 0 1
8.59519 0 1
8.71178 0 1
8.82841 0 1
8.94508 0 1
9.06179 0 1
9.17853 0 1
9.29531 0 1
9.41212 0 1
9.52897 0 1
9.64584 0 1
9.76276 0 1
9.8797 0 1
9.99667 0 1
10.1137 0 1
10.2307 0 1
10.3478 0 1
10.4648 0 1
10.5819 0 1
10.6991 0 1
10.8162 0 1
10.9334 0 1
11.0506 0 1
11.1678 0 1
11.285 0 1
11.4023 0 1
11.5196 0 1
11.6369 0 1
11.7542 0 1
11.8715 0 1
11.9888 0 1
12.1062 0 1
12.2235 0 1
12.3409 0 1
12.4582 0 1
12.5756 0 1
12.693 0 1
12.8104 0 1
12.9278 0 1
13.0452 0 1
13.1626 0 1
13.28 0 1
13.3974 0 1
13.5149 0 1
13.6323 0 1
13.7497 0 1
13.8671 0 1
13.9845 0 1
14.1019 0 1
14.2193 0 1
14.3367 0 1
14.4541 0 1
14.5714 0 1
14.6888 0 1
14.8062 0 1
14.9235 0 1
15.0408 2897 53.8238
15.1581 3060 55.3173
15.2755 3094 55.6237
15.3927 3052 55.2449
15.51 3059 55.3082
15.6273 2941 54.231
15.7445 2830 53.1977
15.8617 2682 51.788
15.9789 2673 51.7011
16.0961 2614 51.1273
16.2132 2681 51.7784
16.3304 2629 51.2738
16.4475 2564 50.636
16.5646 2561 50.6063
16.6816 2619 51.1762
16.7986 2438 49.3761
16.9156 2511 50.1099
17.0326 2464 49.6387
17.1496 2501 50.01
17.2665 2449 49.4874
17.3833 2411 49.1019
17.5002 2405 49.0408
17.617 2478 49.7795
17.7338 2419 49.1833
17.8505 2481 49.8096
17.9672 2430 49.295
18.0839 2393 48.9183
18.2005 2488 49.8799
18.3171 2342 48.3942
18.4337 2411 49.1019
18.5502 2555 50.547
18.6666 2519 50.1896
18.7831 2510 50.0999
18.8994 2451 49.5076
19.0158 2338 48.3529
19.1321 2186 46.7547
19.2483 2165 46.5296
19.3645 1921 43.8292
19.4806 1859 43.1161
19.5967 1866 43.1972
19.7128 1933 43.9659
19.8288 1845 42.9535
19.9447 1652 40.6448
20.0606 0 1
20.1764 0 1
20.2922 0 1
20.4079 0 1
20.5236 0 1
20.6392 0 1
20.7548 0 1
20.8702 0 1
23.3078 0 1
23.4233 0 1
23.539 0 1
23.6547 0 1
23.7704 0 1
23.8862 0 1
24.0021 0 1
24.118 0 1
24.234 0 1
24.35 0 1
24.4661 1047 32.3574
24.5822 1183 34.3948
24.6984 1365 36.9459
24.8146 1652 40.6448
24.9309 1821 42.6732
25.0472 2005 44.7772
25.1636 2137 46.2277
25.28 2291 47.8644
25.3965 2406 49.051
25.513 2673 51.7011
25.6296 2701 51.9711
25.7462 2688 51.8459
25.8628 2736 52.3068
25.9795 2592 50.9117
26.0962 2641 51.3907
26.213 2529 50.2892
26.3298 2400 48.9898
26.4466 2377 48.7545
26.5635 2224 47.1593
26.6804 2141 46.2709
26.7973 2041 45.1774
26.9143 2064 45.4313
27.0313 2085 45.6618
27.1483 2282 47.7703
27.2653 2174 46.6262
27.3824 2391 48.8979
27.4996 2272 47.6655
27.6167 2247 47.4025
27.7339 2161 46.4866
27.8511 2070 45.4973
27.9683 2010 44.833
28.0855 2120 46.0435
28.2028 2251 47.4447
28.3201 2286 47.8121
28.4374 2435 49.3457
28.5547 2420 49.1935
28.6721 2445 49.4469
28.7894 2483 49.8297
28.9068 2389 48.8774
29.0242 2344 48.4149
29.1416 2253 47.4658
29.259 2248 47.4131
29.3764 2275 47.697
29.4939 2295 47.9062
29.6113 2173 46.6154
29.7288 2238 47.3075
29.8463 2146 46.3249
29.9638 2158 46.4543
30.0812 1992 44.6318
30.1987 2003 44.7549
30.3162 2006 44.7884
30.4337 2077 45.5741
30.5512 2087 45.6837
30.6687 2223 47.1487
30.7862 2307 48.0312
30.9037 2358 48.5592
31.0212 2408 49.0714
31.1387 2281 47.7598
31.2562 2297 47.927
31.3737 2145 46.3141
31.4912 2143 46.2925
31.6087 2219 47.1063
31.7262 2274 47.6865
31.8436 2327 48.239
31.9611 2264 47.5815
32.0785 2271 47.655
32.1959 2262 47.5605
32.3134 2223 47.1487
32.4308 2184 46.7333
32.5482 2070 45.4973
32.6655 2064 45.4313
32.7829 1979 44.486
32.9002 2026 45.0111
33.0176 2008 44.8107
33.1349 1888 43.4511
33.2522 1992 44.6318
33.3694 1916 43.7721
33.4867 1918 43.795
33.6039 1900 43.589
33.7211 1930 43.9318
33.8383 1848 42.9884
33.9554 1869 43.2319
34.0725 2014 44.8776
34.1896 2022 44.9667
34.3067 2133 46.1844
34.4237 2092 45.7384
34.5407 2180 46.6905
34.6577 2219 47.1063
34.7746 2046 45.2327
34.8915 2080 45.607
35.0084 1902 43.6119
35.1252 1754 41.8808
35.242 1892 43.4971
35.3587 1929 43.9204
35.4755 2051 45.288
35.5921 2082 45.6289
35.7088 1995 44.6654
35.8254 2007 44.7996
35.9419 2023 44.9778
36.0584 1973 44.4185
36.1749 1845 42.9535
36.2913 1901 43.6005
36.4077 1815 42.6028
36.524 1753 41.8688
36.6403 1677 40.9512
36.7565 1627 40.3361
36.8727 1492 38.6264
36.9889 1440 37.9473
37.1049 1249 35.3412
37.221 0 1
37.3369 0 1
37.4529 0 1
37.5687 0 1
37.6845 0 1
37.8003 0 1
37.916 0 1
38.0316 0 1
38.1472 0 1
40.5851 0 1
40.7008 0 1
40.8164 0 1
40.9322 0 1
41.048 0 1
41.1639 0 1
41.2798 0 1
41.3958 0 1
41.5118 0 1
41.6279 0 1
41.744 977 31.257
41.8602 1071 32.7261
41.9765 1247 35.3129
42.0928 1299 36.0416
42.2091 1360 36.8782
42.3255 1432 37.8418
42.4419 1494 38.6523
42.5584 1583 39.7869
42.675 1535 39.1791
42.7915 1531 39.128
42.9081 1540 39.2428
43.0248 1578 39.724
43.1415 1587 39.8372
43.2582 1680 40.9878
43.375 1591 39.8873
43.4918 1662 40.7676
43.6087 1595 39.9375
43.7256 1591 39.8873
43.8425 1566 39.5727
43.9595 1470 38.3406
44.0765 1384 37.2022
44.1935 1488 38.5746
44.3106 1620 40.2492
44.4277 1609 40.1123
44.5448 1693 41.1461
44.6619 1614 40.1746
44.7791 1694 41.1582
44.8963 1666 40.8167
45.0136 1725 41.5331
45.1308 1682 41.0122
45.2481 1716 41.4246
45.3654 1722 41.497
45.4827 1729 41.5812
45.6001 1728 41.5692
45.7174 1765 42.0119
45.8348 1695 41.1704
45.9522 1728 41.5692
46.0697 1666 40.8167
46.1871 1622 40.2741
46.3046 1560 39.4968
46.422 1558 39.4715
46.5395 1557 39.4588
46.657 1648 40.5956
46.7745 1660 40.7431
46.892 1630 40.3733
47.0096 1728 41.5692
47.1271 1813 42.5793
47.2446 1704 41.2795
47.3622 1598 39.975
47.4797 1602 40.025
47.5973 1534 39.1663
47.7149 1581 39.7618
47.8324 1621 40.2616
47.95 1671 40.8779
48.0675 1717 41.4367
48.1851 1708 41.328
48.3027 1680 40.9878
48.4202 1664 40.7922
48.5378 1635 40.4351
48.6554 1711 41.3642
48.7729 1692 41.1339
48.8904 1732 41.6173
49.008 1761 41.9643
49.1255 1675 40.9268
49.243 1652 40.6448
49.3605 1658 40.7185
49.478 1597 39.9625
49.5955 1521 39
49.713 1480 38.4708
49.8304 1510 38.8587
49.9479 1394 37.3363
50.0653 1464 38.2623
50.1827 1533 39.1535
50.3001 1551 39.3827
50.4175 1615 40.1871
50.5348 1615 40.1871
50.6521 1654 40.6694
50.7694 1598 39.975
50.8867 1571 39.6358
51.004 1520 38.9872
51.1212 1459 38.1969
51.2384 1528 39.0896
51.3556 1571 39.6358
51.4727 1661 40.7554
51.5899 1641 40.5093
51.707 1716 41.4246
51.824 1684 41.0366
51.9411 1654 40.6694
52.0581 1659 40.7308
52.175 1614 40.1746
52.2919 1607 40.0874
52.4088 1614 40.1746
52.5257 1638 40.4722
52.6425 1562 39.5221
52.7593 1603 40.0375
52.876 1626 40.3237
52.9927 1651 40.6325
53.1094 1605 40.0625
53.226 1615 40.1871
53.3426 1525 39.0512
53.4591 1494 38.6523
53.5756 1391 37.2961
53.692 1331 36.4829
53.8084 1280 35.7771
53.9248 1279 35.7631
54.0411 1181 34.3657
54.1573 1087 32.9697
54.2735 0 1
54.3896 0 1
54.5057 0 1
54.6217 0 1
54.7377 0 1
54.8537 0 1
54.9695 0 1
55.0853 0 1
55.2011 0 1
55.3168 0 1
55.4324 0 1
57.824 0 1
57.9396 0 1
58.0553 0 1
58.1711 0 1
58.2869 0 1
58.4028 0 1
58.5187 0 1
58.6347 0 1
58.7508 0 1
58.8669 0 1
58.983 2470 49.6991
59.0992 3113 55.7943
59.2155 3452 58.7537
59.3318 3805 61.6847
59.4482 4142 64.3584
59.5646 4279 65.4141
59.681 4510 67.1565
59.7975 4465 66.8207
59.9141 4431 66.5658
60.0306 4493 67.0298
60.1473 4590 67.7495
60.2639 4627 68.0221
60.3807 4664 68.2935
60.4974 4772 69.0797
60.6142 4784 69.1665
60.731 4559 67.5204
60.8479 4565 67.5648
60.9648 4540 67.3795
61.0818 4456 66.7533
61.1987 4334 65.8331
61.3158 4095 63.9922
61.4328 4068 63.7809
61.5499 3891 62.3779
61.667 3630 60.2495
61.7841 3406 58.3609
61.9013 3138 56.0179
62.0185 3108 55.7494
62.1357 2978 54.5711
62.253 2878 53.647
62.3702 2920 54.037
62.4875 2901 53.8609
62.6049 2965 54.4518
62.7222 3015 54.909
62.8396 3023 54.9818
62.9569 3009 54.8544
63.0743 2988 54.6626
63.1918 2876 53.6284
63.3092 2827 53.1695
63.4267 2725 52.2015
63.5441 2561 50.6063
63.6616 2673 51.7011
63.7791 2620 51.1859
63.8966 2524 50.2394
64.0142 2432 49.3153
64.1317 2233 47.2546
64.2492 2191 46.8081
64.3668 2055 45.3321
64.4843 2014 44.8776
64.6019 1991 44.6206
64.7195 1933 43.9659
64.837 1853 43.0465
64.9546 1874 43.2897
65.0722 2034 45.0999
65.1898 1991 44.6206
65.3074 1919 43.8064
65.4249 1910 43.7035
65.5425 1866 43.1972
65.6601 1790 42.3084
65.7777 1840 42.8952
65.8952 1795 42.3674
66.0128 1759 41.9404
66.1304 1822 42.6849
66.2479 1818 42.638
66.3655 1861 43.1393
66.483 1836 42.8486
66.6005 1937 44.0114
66.718 1982 44.5197
66.8355 1890 43.4741
66.953 1857 43.0929
67.0705 1756 41.9047
67.1879 1803 42.4617
67.3054 1804 42.4735
67.4228 1961 44.2832
67.5402 1951 44.1701
67.6576 1938 44.0227
67.7749 1972 44.4072
67.8923 1923 43.852
68.0096 1868 43.2204
68.1269 1938 44.0227
68.2442 1898 43.566
68.3614 1865 43.1856
68.4787 1876 43.3128
68.5958 1905 43.6463
68.713 1845 42.9535
68.8302 1819 42.6497
68.9473 1847 42.9767
69.0643 1901 43.6005
69.1814 1843 42.9302
69.2984 1829 42.7668
69.4154 1666 40.8167
69.5323 1667 40.8289
69.6492 1676 40.939
69.7661 1693 41.1461
69.8829 1772 42.0951
69.9997 1864 43.1741
70.1165 1785 42.2493
70.2332 1813 42.5793
70.3499 1784 42.2374
70.4665 1703 41.2674
70.5831 1593 39.9124
70.6996 1369 37
70.8161 1242 35.242
70.9326 1252 35.3836
71.049 1142 33.7935
71.1653 1141 33.7787
71.2817 1063 32.6037
71.3979 973 31.1929
71.5141 942 30.692
71.6303 893 29.8831
71.7464 688 26.2298
71.8624 0 1
71.9784 0 1
72.0944 0 1
72.2102 0 1
72.3261 0 1
72.4418 0 1
72.5575 0 1
72.6732 0 1
75.1054 0 1
75.2209 0 1
75.3365 0 1
75.4521 0 1
75.5678 0 1
75.6835 0 1
75.7993 0 1
75.9151 0 1
76.031 0 1
76.147 1156 34
76.263 1296 36
76.3791 1390 37.2827
76.4952 1469 38.3275
76.6113 1572 39.6485
76.7276 1625 40.3113
76.8438 1716 41.4246
76.9601 1663 40.7799
77.0765 1575 39.6863
77.1929 1549 39.3573
77.3093 1585 39.8121
77.4258 1611 40.1373
77.5423 1619 40.2368
77.6589 1589 39.8623
77.7755 1608 40.0999
77.8921 1639 40.4846
78.0088 1655 40.6817
78.1256 1549 39.3573
78.2423 1646 40.5709
78.3591 1569 39.6106
78.4759 1445 38.0132
78.5928 1426 37.7624
78.7097 1383 37.1887
78.8266 1412 37.5766
78.9436 1533 39.1535
79.0606 1490 38.6005
79.1776 1493 38.6394
79.2946 1585 39.8121
79.4117 1784 42.2374
79.5288 1639 40.4846
79.6459 1643 40.5339
79.7631 1729 41.5812
79.8802 1567 39.5854
79.9974 1685 41.0488
80.1147 1620 40.2492
80.2319 1703 41.2674
80.3491 1681 41
80.4664 1724 41.5211
80.5837 1686 41.0609
80.701 1641 40.5093
80.8183 1705 41.2916
80.9357 1592 39.8999
81.053 1705 41.2916
81.1704 1695 41.1704
81.2877 1615 40.1871
81.4051 1661 40.7554
81.5225 1761 41.9643
81.6399 1769 42.0595
81.7573 1710 41.3521
81.8747 1617 40.2119
81.9922 1547 39.3319
82.1096 1494 38.6523
82.227 1601 40.0125
82.3444 1485 38.5357
82.4619 1531 39.128
82.5793 1612 40.1497
82.6967 1612 40.1497
82.8142 1660 40.7431
82.9316 1692 41.1339
83.049 1736 41.6653
83.1664 1697 41.1947
83.2838 1730 41.5933
83.4012 1700 41.2311
83.5186 1633 40.4104
83.636 1667 40.8289
83.7534 1620 40.2492
83.8708 1681 41
83.9881 1720 41.4729
84.1055 1841 42.9069
84.2228 1748 41.8091
84.3401 1754 41.8808
84.4575 1697 41.1947
84.5747 1707 41.3159
84.692 1705 41.2916
84.8093 1722 41.497
84.9265 1738 41.6893
85.0437 1719 41.4608
85.1609 1708 41.328
85.2781 1745 41.7732
85.3952 1742 41.7373
85.5123 1633 40.4104
85.6294 1551 39.3827
85.7465 1538 39.2173
85.8636 1537 39.2046
85.9806 1575 39.6863
86.0976 1662 40.7676
86.2145 1610 40.1248
86.3315 1696 41.1825
86.4484 1614 40.1746
86.5652 1763 41.9881
86.682 1835 42.8369
86.7988 1866 43.1972
86.9156 1754 41.8808
87.0323 1756 41.9047
87.149 1706 41.3038
87.2657 1685 41.0488
87.3823 1710 41.3521
87.4988 1641 40.5093
87.6154 1640 40.4969
87.7318 1586 39.8246
87.8483 1502 38.7556
87.9647 1399 37.4032
88.081 1236 35.1568
88.1973 1206 34.7275
88.3136 1150 33.9116
88.4298 1079 32.8481
88.546 1038 32.218
88.6621 973 31.1929
88.7781 940 30.6594
88.8942 0 1
89.0101 0 1
89.126 0 1
89.2419 0 1
89.3577 0 1
89.4734 0 1
89.5891 0 1
89.7047 0 1
89.8203 0 1
89.9358 0 1
92.3269 0 1
92.4424 0 1
92.558 0 1
92.6736 0 1
92.7893 0 1
92.905 0 1
93.0208 0 1
93.1366 0 1
93.2525 0 1
93.3685 0 1
93.4845 0 1
93.6005 1363 36.9188
93.7167 1488 38.5746
93.8328 1571 39.6358
93.949 1677 40.9512
94.0653 1644 40.5463
94.1816 1671 40.8779
94.2979 1796 42.3792
94.4143 1743 41.7493
94.5307 1692 41.1339
94.6472 1640 40.4969
94.7637 1633 40.4104
94.8803 1556 39.4462
94.9969 1670 40.8656
95.1135 1685 41.0488
95.2302 1666 40.8167
95.3469 1721 41.4849
95.4637 1780 42.19
95.5805 1776 42.1426
95.6973 1771 42.0833
95.8142 1772 42.0951
95.9311 1863 43.1625
96.048 1796 42.3792
96.1649 1778 42.1663
96.2819 1755 41.8927
96.3989 1763 41.9881
96.516 1841 42.9069
96.633 1857 43.0929
96.7501 1859 43.1161
96.8673 1807 42.5088
96.9844 1772 42.0951
97.1016 1885 43.4166
97.2188 1842 42.9185
97.336 1722 41.497
97.4532 1759 41.9404
97.5704 1833 42.8135
97.6877 1821 42.6732
97.805 1778 42.1663
97.9223 1788 42.2847
98.0396 1907 43.6692
98.1569 1832 42.8019
98.2743 1779 42.1782
98.3916 1769 42.0595
98.509 1731 41.6053
98.6264 1705 41.2916
98.7438 1719 41.4608
98.8612 1739 41.7013
98.9786 1754 41.8808
99.096 1858 43.1045
99.2134 1958 44.2493
99.3308 2011 44.8442
99.4482 1942 44.0681
99.5656 1943 44.0795
99.6831 1934 43.9773
99.8005 1842 42.9185
99.9179 1848 42.9884
100.035 1899 43.5775
100.153 1921 43.8292
100.27 1873 43.2782
100.388 1884 43.4051
100.505 2011 44.8442
100.622 1906 43.6578
100.74 1895 43.5316
100.857 1874 43.2897
100.975 1782 42.2137
101.092 1872 43.2666
101.209 1941 44.0568
101.327 1986 44.5646
101.444 1843 42.9302
101.561 1869 43.2319
101.679 1954 44.2041
101.796 1941 44.0568
101.913 1919 43.8064
102.03 1783 42.2256
102.148 1882 43.382
102.265 1897 43.5546
102.382 1948 44.1362
102.499 1909 43.6921
102.616 1962 44.2945
102.733 1978 44.4747
102.851 2043 45.1996
102.968 2106 45.8912
103.085 2064 45.4313
103.202 2045 45.2217
103.319 2061 45.3982
103.436 1951 44.1701
103.552 1943 44.0795
103.669 1915 43.7607
103.786 2018 44.9222
103.903 2044 45.2106
104.02 2048 45.2548
104.137 1972 44.4072
104.253 1967 44.3509
104.37 1990 44.6094
104.487 1937 44.0114
104.603 1955 44.2154
104.72 2005 44.7772
104.836 1850 43.0116
104.953 1838 42.8719
105.069 1724 41.5211
105.186 1671 40.8779
105.302 1641 40.5093
105.418 1525 39.0512
105.535 1404 37.47
105.651 1340 36.606
105.767 1227 35.0286
105.883 1147 33.8674
105.999 1084 32.9242
106.115 0 1
106.231 0 1
106.347 0 1
106.463 0 1
106.579 0 1
106.694 0 1
106.81 0 1
106.926 0 1
107.041 0 1
107.157 0 1
109.576 0 1
109.692 0 1
109.807 0 1
109.923 0 1
110.039 0 1
110.155 0 1
110.27 0 1
110.386 0 1
110.502 0 1
110.618 1084 32.9242
110.735 1185 34.4238
110.851 1328 36.4417
110.967 1425 37.7492
111.083 1521 39
111.199 1644 40.5463
111.316 1708 41.328
111.432 1810 42.5441
111.549 1861 43.1393
111.665 1825 42.72
111.782 1896 43.5431
111.898 1826 42.7317
112.015 1860 43.1277
112.132 1826 42.7317
112.248 1854 43.0581
112.365 1866 43.1972
112.482 1904 43.6348
112.599 1789 42.2966
112.716 1895 43.5316
112.832 1891 43.4856
112.949 1858 43.1045
113.066 1747 41.7971
113.183 1824 42.7083
113.3 1789 42.2966
113.417 1801 42.4382
113.534 1719 41.4608
113.652 1730 41.5933
113.769 1669 40.8534
113.886 1688 41.0853
114.003 1654 40.6694
114.12 1644 40.5463
114.238 1803 42.4617
114.355 1789 42.2966
114.472 1706 41.3038
114.589 1619 40.2368
114.707 1680 40.9878
114.824 1728 41.5692
114.942 1718 41.4488
115.059 1836 42.8486
115.176 1785 42.2493
115.294 1758 41.9285
115.411 1718 41.4488
115.529 1802 42.45
115.646 1794 42.3556
115.764 1672 40.8901
115.881 1654 40.6694
115.999 1696 41.1825
116.116 1725 41.5331
116.234 1762 41.9762
116.351 1765 42.0119
116.469 1683 41.0244
116.586 1567 39.5854
116.704 1536 39.1918
116.821 1600 40
116.939 1565 39.5601
117.056 1608 40.0999
117.174 1588 39.8497
117.291 1558 39.4715
117.409 1567 39.5854
117.526 1501 38.7427
117.644 1550 39.37
117.761 1686 41.0609
117.879 1677 40.9512
117.996 1618 40.2244
118.114 1634 40.4228
118.231 1526 39.064
118.349 1461 38.223
118.466 1650 40.6202
118.584 1664 40.7922
118.701 1680 40.9878
118.819 1691 41.1218
118.936 1658 40.7185
119.053 1571 39.6358
119.171 1648 40.5956
119.288 1550 39.37
119.405 1629 40.3609
119.523 1489 38.5876
119.64 1549 39.3573
119.757 1627 40.3361
119.875 1619 40.2368
119.992 1587 39.8372
120.109 1586 39.8246
120.226 1589 39.8623
120.343 1550 39.37
120.46 1583 39.7869
120.578 1526 39.064
120.695 1473 38.3797
120.812 1459 38.1969
120.929 1504 38.7814
121.046 1464 38.2623
121.163 1462 38.2361
121.279 1454 38.1314
121.396 1526 39.064
121.513 1478 38.4448
121.63 1459 38.1969
121.747 1363 36.9188
121.863 1327 36.428
121.98 1277 35.7351
122.097 1316 36.2767
122.213 1289 35.9026
122.33 1245 35.2846
122.446 1181 34.3657
122.563 1074 32.7719
122.679 1136 33.7046
122.795 969 31.1288
122.912 990 31.4643
123.028 918 30.2985
123.144 905 30.0832
123.26 821 28.6531
123.377 0 1
123.493 0 1
123.609 0 1
123.725 0 1
123.84 0 1
123.956 0 1
124.072 0 1
124.188 0 1
124.303 0 1
124.419 0 1
126.852 0 1
126.968 0 1
127.083 0 1
127.199 0 1
127.315 0 1
127.431 0 1
127.547 0 1
127.663 0 1
127.779 0 1
127.895 0 1
128.011 0 1
128.127 0 1
128.243 0 1
128.359 1573 39.6611
128.476 1786 42.2611
128.592 1814 42.5911
128.708 1765 42.0119
128.825 1836 42.8486
128.941 1911 43.715
129.058 1791 42.3202
129.174 1807 42.5088
129.291 1779 42.1782
129.408 1804 42.4735
129.524 1796 42.3792
129.641 1818 42.638
129.758 1790 42.3084
129.875 1712 41.3763
129.992 1719 41.4608
130.108 1785 42.2493
130.225 1928 43.909
130.342 2013 44.8665
130.459 2212 47.0319
130.576 2491 49.9099
130.693 2645 51.4296
130.81 3011 54.8726
130.928 3340 57.7927
131.045 3773 61.4248
131.162 4914 70.0999
131.279 5817 76.2693
131.396 5659 75.2263
131.513 5224 72.2772
131.631 5923 76.961
131.748 7349 85.7263
131.865 9125 95.5249
131.983 10336 101.666
132.1 11264 106.132
132.217 11984 109.471
132.335 12624 112.357
132.452 13402 115.767
132.57 13740 117.218
132.687 14106 118.769
132.804 14850 121.861
132.922 15174 123.183
133.039 14990 122.434
133.157 14975 122.372
133.274 14327 119.695
133.392 13916 117.966
133.509 13222 114.987
133.627 12458 111.615
133.744 11960 109.362
133.862 11170 105.688
133.979 10502 102.479
134.097 9841 99.2018
134.214 9313 96.5039
134.332 8449 91.9184
134.449 7374 85.872
134.567 6472 80.4487
134.684 5956 77.1751
134.802 5842 76.433
134.919 5876 76.6551
135.037 5282 72.6774
135.154 4333 65.8255
135.272 4182 64.6684
135.389 4777 69.1158
135.507 4899 69.9929
135.624 4968 70.484
135.742 5088 71.3302
135.859 5064 71.1618
135.977 4950 70.3562
136.094 5026 70.8943
136.211 4884 69.8856
136.329 4915 70.1071
136.446 4876 69.8284
136.564 4647 68.1689
136.681 4723 68.7241
136.798 4631 68.0515
136.915 4541 67.3869
137.033 4377 66.1589
137.15 4466 66.8281
137.267 4215 64.923
137.384 4404 66.3626
137.502 4303 65.5973
137.619 4292 65.5134
137.736 4440 66.6333
137.853 4035 63.5216
137.97 4114 64.1405
138.087 3886 62.3378
138.204 3853 62.0725
138.321 3844 62
138.438 4043 63.5846
138.555 4283 65.4446
138.672 4093 63.9766
138.788 3932 62.7057
138.905 3528 59.397
139.022 3597 59.975
139.139 3728 61.0574
139.255 3765 61.3596
139.372 3646 60.3821
139.488 3639 60.3241
139.605 3469 58.8982
139.721 3231 56.8419
139.838 2882 53.6843
139.954 2749 52.4309
140.071 2591 50.9019
140.187 2439 49.3862
140.303 2420 49.1935
140.419 2261 47.55
140.535 2116 46
140.652 2066 45.4533
140.768 0 1
140.884 0 1
141 0 1
141.115 0 1
141.231 0 1
141.347 0 1
141.463 0 1
141.578 0 1
141.694 0 1
144.104 0 1
144.219 0 1
144.335 0 1
144.45 0 1
144.566 0 1
144.682 0 1
144.798 0 1
144.914 0 1
145.03 0 1
145.146 4607 67.8749
145.262 4949 70.3491
145.378 4922 70.157
145.494 5094 71.3723
145.61 4940 70.2851
145.726 5059 71.1266
145.842 5097 71.3933
145.959 4956 70.3989
146.075 4837 69.5485
146.192 4638 68.1029
146.308 4349 65.9469
146.425 4348 65.9394
146.541 4468 66.8431
146.658 4486 66.9776
146.774 4937 70.2638
146.891 5054 71.0915
147.008 5147 71.7426
147.125 4917 70.1213
147.241 5055 71.0985
147.358 5170 71.9027
147.475 5301 72.808
147.592 4671 68.3447
147.709 4542 67.3944
147.826 4346 65.9242
147.943 4559 67.5204
148.06 4707 68.6076
148.177 4734 68.8041
148.294 4830 69.4982
148.411 4837 69.5485
148.528 4948 70.342
148.645 4905 70.0357
148.762 4843 69.5917
148.88 4727 68.7532
148.997 4628 68.0294
149.114 4633 68.0661
149.231 4565 67.5648
149.349 4656 68.2349
149.466 4557 67.5056
149.583 4430 66.5582
149.701 4340 65.8787
149.818 4192 64.7457
149.935 4056 63.6867
150.053 3975 63.0476
150.17 3850 62.0484
150.287 4080 63.8749
150.405 4216 64.9307
150.522 4362 66.0454
150.64 4264 65.2993
150.757 4299 65.5668
150.875 4313 65.6734
150.992 4364 66.0606
151.11 4282 65.437
151.227 4171 64.5833
151.344 3825 61.8466
151.462 3755 61.2781
151.579 3793 61.5873
151.697 4133 64.2884
151.814 4455 66.7458
151.932 4421 66.4906
152.049 4316 65.6963
152.167 4429 66.5507
152.284 4276 65.3911
152.402 4291 65.5057
152.519 4280 65.4217
152.636 4297 65.5515
152.754 4392 66.2722
152.871 4273 65.3682
152.989 4113 64.1327
153.106 4193 64.7534
153.223 3938 62.7535
153.341 3823 61.8304
153.458 3694 60.7783
153.575 3365 58.0086
153.693 3492 59.0931
153.81 3595 59.9583
153.927 3570 59.7495
154.044 3608 60.0666
154.162 3616 60.1332
154.279 3484 59.0254
154.396 3456 58.7878
154.513 3532 59.4306
154.63 3542 59.5147
154.747 3550 59.5819
154.864 3237 56.8946
154.981 3094 55.6237
155.098 3030 55.0454
155.215 3176 56.356
155.332 3379 58.1292
155.449 3426 58.532
155.566 3444 58.6856
155.683 3545 59.5399
155.8 3391 58.2323
155.917 3481 59
156.033 3441 58.66
156.15 0 1
156.267 0 1
156.383 0 1
156.5 0 1
156.617 0 1
156.733 0 1
156.85 0 1
156.966 0 1
157.082 0 1
157.199 0 1
157.315 0 1
157.431 0 1
157.547 0 1
157.664 0 1
157.78 0 1
157.896 0 1
158.012 0 1
158.128 0 1
158.244 0 1
158.359 0 1
158.475 0 1
158.591 0 1
158.706 0 1
