
6.15755 0 1
6.2731 0 1
6.3887 0 1
6.50437 0 1
6.62009 0 1
6.73587 0 1
6.8517 0 1
6.96759 0 1
7.08353 0 1
7.19952 0 1
7.31557 0 1
7.43166 0 1
7.54781 0 1
7.664 0 1
7.78024 0 1
7.89653 0 1
8.01286 0 1
8.12924 0 1
8.24567 0 1
8.36213 0 1
8.47864 0 1
8.59519 0 1
8.71178 0 1
8.82841 0 1
8.94508 0 1
9.06179 0 1
9.17853 0 1
9.29531 0 1
9.41212 0 1
9.52897 0 1
9.64584 0 1
9.76276 0 1
9.8797 0 1
9.99667 0 1
10.1137 0 1
10.2307 0 1
10.3478 0 1
10.4648 0 1
10.5819 0 1
10.6991 0 1
10.8162 0 1
10.9334 0 1
11.0506 0 1
11.1678 0 1
11.285 0 1
11.4023 0 1
11.5196 0 1
11.6369 0 1
11.7542 0 1
11.8715 0 1
11.9888 0 1
12.1062 0 1
12.2235 0 1
12.3409 0 1
12.4582 0 1
12.5756 0 1
12.693 0 1
12.8104 0 1
12.9278 0 1
13.0452 0 1
13.1626 0 1
13.28 0 1
13.3974 0 1
13.5149 0 1
13.6323 0 1
13.7497 0 1
13.8671 0 1
13.9845 0 1
14.1019 0 1
14.2193 0 1
14.3367 0 1
14.4541 0 1
14.5714 0 1
14.6888 0 1
14.8062 0 1
14.9235 0 1
15.0408 0 0
15.1581 0 0
15.2755 0 0
15.3927 0 0
15.51 0 0
15.6273 0 0
15.7445 0 0
15.8617 0 0
15.9789 0 0
16.0961 0 0
16.2132 0 0
16.3304 0 0
16.4475 0 0
16.5646 0 0
16.6816 0 0
16.7986 0 0
16.9156 0 0
17.0326 0 0
17.1496 0 0
17.2665 0 0
17.3833 0 0
17.5002 0 0
17.617 0 0
17.7338 0 0
17.8505 0 0
17.9672 0 0
18.0839 0 0
18.2005 0 0
18.3171 0 0
18.4337 0 0
18.5502 0 0
18.6666 0 0
18.7831 0 0
18.8994 0 0
19.0158 0 0
19.1321 0 0
19.2483 0 0
19.3645 0 0
19.4806 0 0
19.5967 0 0
19.7128 0 0
19.8288 0 0
19.9447 0 0
20.0606 0 1
20.1764 0 1
20.2922 0 1
20.4079 0 1
20.5236 0 1
20.6392 0 1
20.7548 0 1
20.8702 0 1
23.3078 0 1
23.4233 0 1
23.539 0 1
23.6547 0 1
23.7704 0 1
23.8862 0 1
24.0021 0 1
24.118 0 1
24.234 0 1
24.35 0 1
24.4661 287 16.9411
24.5822 330 18.1659
24.6984 290 17.0294
24.8146 287 16.9411
24.9309 284 16.8523
25.0472 296 17.2047
25.1636 303 17.4069
25.28 297 17.2337
25.3965 312 17.6635
25.513 312 17.6635
25.6296 316 17.7764
25.7462 333 18.2483
25.8628 318 17.8326
25.9795 312 17.6635
26.0962 312 17.6635
26.213 332 18.2209
26.3298 337 18.3576
26.4466 292 17.088
26.5635 342 18.4932
26.6804 291 17.0587
26.7973 311 17.6352
26.9143 311 17.6352
27.0313 296 17.2047
27.1483 263 16.2173
27.2653 265 16.2788
27.3824 301 17.3494
27.4996 303 17.4069
27.6167 271 16.4621
27.7339 281 16.7631
27.8511 268 16.3707
27.9683 307 17.5214
28.0855 260 16.1245
28.2028 259 16.0935
28.3201 310 17.6068
28.4374 249 15.7797
28.5547 264 16.2481
28.6721 279 16.7033
28.7894 256 16
28.9068 276 16.6132
29.0242 338 18.3848
29.1416 327 18.0831
29.259 295 17.1756
29.3764 299 17.2916
29.4939 315 17.7482
29.6113 306 17.4929
29.7288 309 17.5784
29.8463 325 18.0278
29.9638 244 15.6205
30.0812 261 16.1555
30.1987 283 16.8226
30.3162 280 16.7332
30.4337 263 16.2173
30.5512 247 15.7162
30.6687 274 16.5529
30.7862 256 16
30.9037 260 16.1245
31.0212 298 17.2627
31.1387 308 17.5499
31.2562 276 16.6132
31.3737 250 15.8114
31.4912 245 15.6525
31.6087 263 16.2173
31.7262 248 15.748
31.8436 251 15.843
31.9611 247 15.7162
32.0785 256 16
32.1959 303 17.4069
32.3134 297 17.2337
32.4308 274 16.5529
32.5482 264 16.2481
32.6655 290 17.0294
32.7829 303 17.4069
32.9002 266 16.3095
33.0176 285 16.8819
33.1349 285 16.8819
33.2522 300 17.3205
33.3694 279 16.7033
33.4867 277 16.6433
33.6039 276 16.6132
33.7211 313 17.6918
33.8383 286 16.9115
33.9554 263 16.2173
34.0725 247 15.7162
34.1896 250 15.8114
34.3067 243 15.5885
34.4237 209 14.4568
34.5407 252 15.8745
34.6577 238 15.4272
34.7746 281 16.7631
34.8915 257 16.0312
35.0084 250 15.8114
35.1252 267 16.3401
35.242 265 16.2788
35.3587 255 15.9687
35.4755 250 15.8114
35.5921 282 16.7929
35.7088 276 16.6132
35.8254 265 16.2788
35.9419 252 15.8745
36.0584 275 16.5831
36.1749 247 15.7162
36.2913 291 17.0587
36.4077 298 17.2627
36.524 293 17.1172
36.6403 270 16.4317
36.7565 315 17.7482
36.8727 280 16.7332
36.9889 273 16.5227
37.1049 279 16.7033
37.221 0 1
37.3369 0 1
37.4529 0 1
37.5687 0 1
37.6845 0 1
37.8003 0 1
37.916 0 1
38.0316 0 1
38.1472 0 1
40.5851 0 1
40.7008 0 1
40.8164 0 1
40.9322 0 1
41.048 0 1
41.1639 0 1
41.2798 0 1
41.3958 0 1
41.5118 0 1
41.6279 0 1
41.744 190 13.784
41.8602 245 15.6525
41.9765 243 15.5885
42.0928 236 15.3623
42.2091 248 15.748
42.3255 218 14.7648
42.4419 220 14.8324
42.5584 245 15.6525
42.675 213 14.5945
42.7915 230 15.1658
42.9081 227 15.0665
43.0248 196 14
43.1415 196 14
43.2582 201 14.1774
43.375 216 14.6969
43.4918 197 14.0357
43.6087 218 14.7648
43.7256 196 14
43.8425 209 14.4568
43.9595 203 14.2478
44.0765 198 14.0712
44.1935 199 14.1067
44.3106 216 14.6969
44.4277 196 14
44.5448 216 14.6969
44.6619 249 15.7797
44.7791 212 14.5602
44.8963 224 14.9666
45.0136 208 14.4222
45.1308 210 14.4914
45.2481 186 13.6382
45.3654 225 15
45.4827 202 14.2127
45.6001 202 14.2127
45.7174 219 14.7986
45.8348 197 14.0357
45.9522 167 12.9228
46.0697 183 13.5277
46.1871 186 13.6382
46.3046 188 13.7113
46.422 191 13.8203
46.5395 187 13.6748
46.657 155 12.4499
46.7745 164 12.8062
46.892 152 12.3288
47.0096 168 12.9615
47.1271 154 12.4097
47.2446 170 13.0384
47.3622 169 13
47.4797 135 11.619
47.5973 135 11.619
47.7149 153 12.3693
47.8324 155 12.4499
47.95 149 12.2066
48.0675 153 12.3693
48.1851 174 13.1909
48.3027 158 12.5698
48.4202 158 12.5698
48.5378 158 12.5698
48.6554 158 12.5698
48.7729 129 11.3578
48.8904 152 12.3288
49.008 175 13.2288
49.1255 158 12.5698
49.243 160 12.6491
49.3605 142 11.9164
49.478 141 11.8743
49.5955 152 12.3288
49.713 185 13.6015
49.8304 171 13.0767
49.9479 169 13
50.0653 136 11.6619
50.1827 158 12.5698
50.3001 132 11.4891
50.4175 128 11.3137
50.5348 145 12.0416
50.6521 159 12.6095
50.7694 145 12.0416
50.8867 173 13.1529
51.004 154 12.4097
51.1212 176 13.2665
51.2384 190 13.784
51.3556 184 13.5647
51.4727 184 13.5647
51.5899 205 14.3178
51.707 192 13.8564
51.824 177 13.3041
51.9411 181 13.4536
52.0581 221 14.8661
52.175 196 14
52.2919 207 14.3875
52.4088 223 14.9332
52.5257 183 13.5277
52.6425 204 14.2829
52.7593 194 13.9284
52.876 192 13.8564
52.9927 181 13.4536
53.1094 212 14.5602
53.226 246 15.6844
53.3426 230 15.1658
53.4591 221 14.8661
53.5756 214 14.6287
53.692 222 14.8997
53.8084 180 13.4164
53.9248 183 13.5277
54.0411 192 13.8564
54.1573 175 13.2288
54.2735 0 1
54.3896 0 1
54.5057 0 1
54.6217 0 1
54.7377 0 1
54.8537 0 1
54.9695 0 1
55.0853 0 1
55.2011 0 1
55.3168 0 1
55.4324 0 1
57.824 0 1
57.9396 0 1
58.0553 0 1
58.1711 0 1
58.2869 0 1
58.4028 0 1
58.5187 0 1
58.6347 0 1
58.7508 0 1
58.8669 0 1
58.983 208 14.4222
59.0992 224 14.9666
59.2155 178 13.3417
59.3318 202 14.2127
59.4482 204 14.2829
59.5646 227 15.0665
59.681 243 15.5885
59.7975 219 14.7986
59.9141 230 15.1658
60.0306 232 15.2315
60.1473 235 15.3297
60.2639 228 15.0997
60.3807 217 14.7309
60.4974 240 15.4919
60.6142 241 15.5242
60.731 225 15
60.8479 236 15.3623
60.9648 228 15.0997
61.0818 228 15.0997
61.1987 221 14.8661
61.3158 216 14.6969
61.4328 214 14.6287
61.5499 212 14.5602
61.667 236 15.3623
61.7841 257 16.0312
61.9013 238 15.4272
62.0185 222 14.8997
62.1357 222 14.8997
62.253 227 15.0665
62.3702 195 13.9642
62.4875 202 14.2127
62.6049 175 13.2288
62.7222 192 13.8564
62.8396 195 13.9642
62.9569 184 13.5647
63.0743 193 13.8924
63.1918 214 14.6287
63.3092 203 14.2478
63.4267 180 13.4164
63.5441 186 13.6382
63.6616 190 13.784
63.7791 224 14.9666
63.8966 234 15.2971
64.0142 220 14.8324
64.1317 191 13.8203
64.2492 205 14.3178
64.3668 202 14.2127
64.4843 219 14.7986
64.6019 170 13.0384
64.7195 200 14.1421
64.837 192 13.8564
64.9546 210 14.4914
65.0722 231 15.1987
65.1898 187 13.6748
65.3074 166 12.8841
65.4249 194 13.9284
65.5425 197 14.0357
65.6601 179 13.3791
65.7777 195 13.9642
65.8952 213 14.5945
66.0128 175 13.2288
66.1304 187 13.6748
66.2479 141 11.8743
66.3655 152 12.3288
66.483 157 12.53
66.6005 171 13.0767
66.718 189 13.7477
66.8355 149 12.2066
66.953 164 12.8062
67.0705 180 13.4164
67.1879 171 13.0767
67.3054 185 13.6015
67.4228 181 13.4536
67.5402 160 12.6491
67.6576 190 13.784
67.7749 153 12.3693
67.8923 175 13.2288
68.0096 178 13.3417
68.1269 165 12.8452
68.2442 170 13.0384
68.3614 189 13.7477
68.4787 157 12.53
68.5958 170 13.0384
68.713 153 12.3693
68.8302 176 13.2665
68.9473 180 13.4164
69.0643 152 12.3288
69.1814 153 12.3693
69.2984 163 12.7671
69.4154 171 13.0767
69.5323 168 12.9615
69.6492 160 12.6491
69.7661 187 13.6748
69.8829 180 13.4164
69.9997 134 11.5758
70.1165 120 10.9545
70.2332 148 12.1655
70.3499 148 12.1655
70.4665 138 11.7473
70.5831 145 12.0416
70.6996 190 13.784
70.8161 176 13.2665
70.9326 150 12.2474
71.049 162 12.7279
71.1653 169 13
71.2817 148 12.1655
71.3979 149 12.2066
71.5141 142 11.9164
71.6303 155 12.4499
71.7464 140 11.8322
71.8624 0 1
71.9784 0 1
72.0944 0 1
72.2102 0 1
72.3261 0 1
72.4418 0 1
72.5575 0 1
72.6732 0 1
75.1054 0 1
75.2209 0 1
75.3365 0 1
75.4521 0 1
75.5678 0 1
75.6835 0 1
75.7993 0 1
75.9151 0 1
76.031 0 1
76.147 112 10.583
76.263 126 11.225
76.3791 129 11.3578
76.4952 111 10.5357
76.6113 123 11.0905
76.7276 123 11.0905
76.8438 129 11.3578
76.9601 133 11.5326
77.0765 116 10.7703
77.1929 121 11
77.3093 113 10.6301
77.4258 123 11.0905
77.5423 127 11.2694
77.6589 123 11.0905
77.7755 119 10.9087
77.8921 124 11.1355
78.0088 105 10.247
78.1256 101 10.0499
78.2423 103 10.1489
78.3591 119 10.9087
78.4759 124 11.1355
78.5928 83 9.11043
78.7097 90 9.48683
78.8266 119 10.9087
78.9436 104 10.198
79.0606 88 9.38083
79.1776 75 8.66025
79.2946 69 8.30662
79.4117 79 8.88819
79.5288 70 8.3666
79.6459 85 9.21954
79.7631 100 10
79.8802 75 8.66025
79.9974 94 9.69536
80.1147 87 9.32738
80.2319 87 9.32738
80.3491 73 8.544
80.4664 82 9.05539
80.5837 66 8.12404
80.701 64 8
80.8183 78 8.83176
80.9357 66 8.12404
81.053 68 8.24621
81.1704 61 7.81025
81.2877 54 7.34847
81.4051 54 7.34847
81.5225 56 7.48331
81.6399 56 7.48331
81.7573 62 7.87401
81.8747 56 7.48331
81.9922 59 7.68115
82.1096 45 6.7082
82.227 41 6.40312
82.3444 51 7.14143
82.4619 46 6.78233
82.5793 43 6.55744
82.6967 40 6.32456
82.8142 52 7.2111
82.9316 37 6.08276
83.049 39 6.245
83.1664 39 6.245
83.2838 37 6.08276
83.4012 39 6.245
83.5186 27 5.19615
83.636 36 6
83.7534 22 4.69042
83.8708 35 5.91608
83.9881 28 5.2915
84.1055 33 5.74456
84.2228 18 4.24264
84.3401 24 4.89898
84.4575 20 4.47214
84.5747 25 5
84.692 33 5.74456
84.8093 28 5.2915
84.9265 22 4.69042
85.0437 13 3.60555
85.1609 24 4.89898
85.2781 15 3.87298
85.3952 27 5.19615
85.5123 16 4
85.6294 16 4
85.7465 17 4.12311
85.8636 16 4
85.9806 21 4.58258
86.0976 16 4
86.2145 17 4.12311
86.3315 14 3.74166
86.4484 25 5
86.5652 24 4.89898
86.682 38 6.16441
86.7988 28 5.2915
86.9156 30 5.47723
87.0323 24 4.89898
87.149 38 6.16441
87.2657 32 5.65685
87.3823 28 5.2915
87.4988 38 6.16441
87.6154 43 6.55744
87.7318 41 6.40312
87.8483 33 5.74456
87.9647 36 6
88.081 46 6.78233
88.1973 58 7.61577
88.3136 46 6.78233
88.4298 48 6.9282
88.546 49 7
88.6621 48 6.9282
88.7781 48 6.9282
88.8942 0 1
89.0101 0 1
89.126 0 1
89.2419 0 1
89.3577 0 1
89.4734 0 1
89.5891 0 1
89.7047 0 1
89.8203 0 1
89.9358 0 1
92.3269 0 1
92.4424 0 1
92.558 0 1
92.6736 0 1
92.7893 0 1
92.905 0 1
93.0208 0 1
93.1366 0 1
93.2525 0 1
93.3685 0 1
93.4845 0 1
93.6005 91 9.53939
93.7167 84 9.16515
93.8328 78 8.83176
93.949 103 10.1489
94.0653 81 9
94.1816 90 9.48683
94.2979 86 9.27362
94.4143 86 9.27362
94.5307 75 8.66025
94.6472 66 8.12404
94.7637 86 9.27362
94.8803 62 7.87401
94.9969 67 8.18535
95.1135 70 8.3666
95.2302 65 8.06226
95.3469 53 7.28011
95.4637 51 7.14143
95.5805 47 6.85565
95.6973 53 7.28011
95.8142 71 8.42615
95.9311 67 8.18535
96.048 84 9.16515
96.1649 67 8.18535
96.2819 74 8.60233
96.3989 94 9.69536
96.516 86 9.27362
96.633 85 9.21954
96.7501 101 10.0499
96.8673 79 8.88819
96.9844 101 10.0499
97.1016 110 10.4881
97.2188 94 9.69536
97.336 91 9.53939
97.4532 107 10.3441
97.5704 93 9.64365
97.6877 109 10.4403
97.805 123 11.0905
97.9223 128 11.3137
98.0396 106 10.2956
98.1569 110 10.4881
98.2743 115 10.7238
98.3916 130 11.4018
98.509 142 11.9164
98.6264 114 10.6771
98.7438 141 11.8743
98.8612 119 10.9087
98.9786 100 10
99.096 74 8.60233
99.2134 84 9.16515
99.3308 136 11.6619
99.4482 158 12.5698
99.5656 140 11.8322
99.6831 152 12.3288
99.8005 133 11.5326
99.9179 165 12.8452
100.035 163 12.7671
100.153 153 12.3693
100.27 128 11.3137
100.388 170 13.0384
100.505 172 13.1149
100.622 167 12.9228
100.74 164 12.8062
100.857 164 12.8062
100.975 167 12.9228
101.092 159 12.6095
101.209 168 12.9615
101.327 168 12.9615
101.444 188 13.7113
101.561 173 13.1529
101.679 171 13.0767
101.796 166 12.8841
101.913 183 13.5277
102.03 169 13
102.148 171 13.0767
102.265 183 13.5277
102.382 177 13.3041
102.499 169 13
102.616 139 11.7898
102.733 126 11.225
102.851 135 11.619
102.968 174 13.1909
103.085 179 13.3791
103.202 186 13.6382
103.319 172 13.1149
103.436 178 13.3417
103.552 212 14.5602
103.669 165 12.8452
103.786 195 13.9642
103.903 202 14.2127
104.02 179 13.3791
104.137 190 13.784
104.253 181 13.4536
104.37 204 14.2829
104.487 168 12.9615
104.603 175 13.2288
104.72 182 13.4907
104.836 215 14.6629
104.953 200 14.1421
105.069 195 13.9642
105.186 172 13.1149
105.302 189 13.7477
105.418 201 14.1774
105.535 206 14.3527
105.651 199 14.1067
105.767 200 14.1421
105.883 144 12
105.999 145 12.0416
106.115 0 1
106.231 0 1
106.347 0 1
106.463 0 1
106.579 0 1
106.694 0 1
106.81 0 1
106.926 0 1
107.041 0 1
107.157 0 1
109.576 0 1
109.692 0 1
109.807 0 1
109.923 0 1
110.039 0 1
110.155 0 1
110.27 0 1
110.386 0 1
110.502 0 1
110.618 138 11.7473
110.735 159 12.6095
110.851 146 12.083
110.967 154 12.4097
111.083 135 11.619
111.199 116 10.7703
111.316 121 11
111.432 127 11.2694
111.549 134 11.5758
111.665 139 11.7898
111.782 145 12.0416
111.898 130 11.4018
112.015 145 12.0416
112.132 107 10.3441
112.248 142 11.9164
112.365 136 11.6619
112.482 142 11.9164
112.599 122 11.0454
112.716 130 11.4018
112.832 118 10.8628
112.949 128 11.3137
113.066 120 10.9545
113.183 134 11.5758
113.3 129 11.3578
113.417 115 10.7238
113.534 108 10.3923
113.652 120 10.9545
113.769 126 11.225
113.886 115 10.7238
114.003 126 11.225
114.12 100 10
114.238 111 10.5357
114.355 121 11
114.472 93 9.64365
114.589 96 9.79796
114.707 92 9.59166
114.824 105 10.247
114.942 91 9.53939
115.059 100 10
115.176 95 9.74679
115.294 106 10.2956
115.411 92 9.59166
115.529 117 10.8167
115.646 103 10.1489
115.764 118 10.8628
115.881 97 9.84886
115.999 121 11
116.116 97 9.84886
116.234 95 9.74679
116.351 104 10.198
116.469 95 9.74679
116.586 110 10.4881
116.704 108 10.3923
116.821 103 10.1489
116.939 107 10.3441
117.056 109 10.4403
117.174 96 9.79796
117.291 96 9.79796
117.409 119 10.9087
117.526 133 11.5326
117.644 109 10.4403
117.761 97 9.84886
117.879 83 9.11043
117.996 63 7.93725
118.114 81 9
118.231 88 9.38083
118.349 94 9.69536
118.466 98 9.89949
118.584 95 9.74679
118.701 85 9.21954
118.819 107 10.3441
118.936 99 9.94987
119.053 103 10.1489
119.171 97 9.84886
119.288 108 10.3923
119.405 93 9.64365
119.523 76 8.7178
119.64 94 9.69536
119.757 102 10.0995
119.875 96 9.79796
119.992 87 9.32738
120.109 99 9.94987
120.226 128 11.3137
120.343 118 10.8628
120.46 113 10.6301
120.578 103 10.1489
120.695 117 10.8167
120.812 98 9.89949
120.929 121 11
121.046 105 10.247
121.163 120 10.9545
121.279 105 10.247
121.396 105 10.247
121.513 97 9.84886
121.63 84 9.16515
121.747 87 9.32738
121.863 70 8.3666
121.98 92 9.59166
122.097 99 9.94987
122.213 111 10.5357
122.33 95 9.74679
122.446 108 10.3923
122.563 110 10.4881
122.679 109 10.4403
122.795 111 10.5357
122.912 125 11.1803
123.028 129 11.3578
123.144 106 10.2956
123.26 107 10.3441
123.377 0 1
123.493 0 1
123.609 0 1
123.725 0 1
123.84 0 1
123.956 0 1
124.072 0 1
124.188 0 1
124.303 0 1
124.419 0 1
126.852 0 1
126.968 0 1
127.083 0 1
127.199 0 1
127.315 0 1
127.431 0 1
127.547 0 1
127.663 0 1
127.779 0 1
127.895 0 1
128.011 0 1
128.127 0 1
128.243 0 1
128.359 146 12.083
128.476 155 12.4499
128.592 151 12.2882
128.708 171 13.0767
128.825 150 12.2474
128.941 145 12.0416
129.058 169 13
129.174 141 11.8743
129.291 145 12.0416
129.408 153 12.3693
129.524 155 12.4499
129.641 173 13.1529
129.758 151 12.2882
129.875 169 13
129.992 150 12.2474
130.108 163 12.7671
130.225 142 11.9164
130.342 155 12.4499
130.459 106 10.2956
130.576 134 11.5758
130.693 107 10.3441
130.81 93 9.64365
130.928 114 10.6771
131.045 111 10.5357
131.162 161 12.6886
131.279 162 12.7279
131.396 151 12.2882
131.513 163 12.7671
131.631 164 12.8062
131.748 160 12.6491
131.865 164 12.8062
131.983 165 12.8452
132.1 171 13.0767
132.217 148 12.1655
132.335 155 12.4499
132.452 182 13.4907
132.57 154 12.4097
132.687 144 12
132.804 152 12.3288
132.922 168 12.9615
133.039 158 12.5698
133.157 171 13.0767
133.274 179 13.3791
133.392 163 12.7671
133.509 178 13.3417
133.627 167 12.9228
133.744 151 12.2882
133.862 160 12.6491
133.979 137 11.7047
134.097 138 11.7473
134.214 123 11.0905
134.332 137 11.7047
134.449 121 11
134.567 133 11.5326
134.684 151 12.2882
134.802 198 14.0712
134.919 180 13.4164
135.037 161 12.6886
135.154 170 13.0384
135.272 182 13.4907
135.389 166 12.8841
135.507 190 13.784
135.624 182 13.4907
135.742 172 13.1149
135.859 167 12.9228
135.977 177 13.3041
136.094 180 13.4164
136.211 162 12.7279
136.329 199 14.1067
136.446 178 13.3417
136.564 167 12.9228
136.681 194 13.9284
136.798 195 13.9642
136.915 168 12.9615
137.033 188 13.7113
137.15 192 13.8564
137.267 179 13.3791
137.384 184 13.5647
137.502 163 12.7671
137.619 145 12.0416
137.736 142 11.9164
137.853 142 11.9164
137.97 123 11.0905
138.087 133 11.5326
138.204 146 12.083
138.321 166 12.8841
138.438 190 13.784
138.555 200 14.1421
138.672 189 13.7477
138.788 176 13.2665
138.905 195 13.9642
139.022 202 14.2127
139.139 198 14.0712
139.255 203 14.2478
139.372 202 14.2127
139.488 199 14.1067
139.605 202 14.2127
139.721 183 13.5277
139.838 220 14.8324
139.954 183 13.5277
140.071 189 13.7477
140.187 197 14.0357
140.303 209 14.4568
140.419 197 14.0357
140.535 195 13.9642
140.652 188 13.7113
140.768 0 1
140.884 0 1
141 0 1
141.115 0 1
141.231 0 1
141.347 0 1
141.463 0 1
141.578 0 1
141.694 0 1
144.104 0 1
144.219 0 1
144.335 0 1
144.45 0 1
144.566 0 1
144.682 0 1
144.798 0 1
144.914 0 1
145.03 0 1
145.146 212 14.5602
145.262 195 13.9642
145.378 183 13.5277
145.494 217 14.7309
145.61 177 13.3041
145.726 185 13.6015
145.842 176 13.2665
145.959 181 13.4536
146.075 173 13.1529
146.192 159 12.6095
146.308 147 12.1244
146.425 144 12
146.541 143 11.9583
146.658 171 13.0767
146.774 128 11.3137
146.891 168 12.9615
147.008 168 12.9615
147.125 186 13.6382
147.241 158 12.5698
147.358 213 14.5945
147.475 201 14.1774
147.592 200 14.1421
147.709 154 12.4097
147.826 167 12.9228
147.943 179 13.3791
148.06 184 13.5647
148.177 197 14.0357
148.294 182 13.4907
148.411 194 13.9284
148.528 187 13.6748
148.645 186 13.6382
148.762 176 13.2665
148.88 209 14.4568
148.997 189 13.7477
149.114 193 13.8924
149.231 215 14.6629
149.349 191 13.8203
149.466 183 13.5277
149.583 195 13.9642
149.701 180 13.4164
149.818 159 12.6095
149.935 171 13.0767
150.053 163 12.7671
150.17 142 11.9164
150.287 165 12.8452
150.405 186 13.6382
150.522 161 12.6886
150.64 155 12.4499
150.757 181 13.4536
150.875 186 13.6382
150.992 173 13.1529
151.11 183 13.5277
151.227 179 13.3791
151.344 169 13
151.462 202 14.2127
151.579 181 13.4536
151.697 192 13.8564
151.814 196 14
151.932 189 13.7477
152.049 206 14.3527
152.167 200 14.1421
152.284 189 13.7477
152.402 174 13.1909
152.519 188 13.7113
152.636 212 14.5602
152.754 199 14.1067
152.871 193 13.8924
152.989 191 13.8203
153.106 170 13.0384
153.223 177 13.3041
153.341 191 13.8203
153.458 171 13.0767
153.575 168 12.9615
153.693 149 12.2066
153.81 154 12.4097
153.927 162 12.7279
154.044 171 13.0767
154.162 200 14.1421
154.279 170 13.0384
154.396 194 13.9284
154.513 182 13.4907
154.63 193 13.8924
154.747 194 13.9284
154.864 218 14.7648
154.981 222 14.8997
155.098 197 14.0357
155.215 188 13.7113
155.332 223 14.9332
155.449 210 14.4914
155.566 213 14.5945
155.683 192 13.8564
155.8 200 14.1421
155.917 198 14.0712
156.033 222 14.8997
156.15 0 1
156.267 0 1
156.383 0 1
156.5 0 1
156.617 0 1
156.733 0 1
156.85 0 1
156.966 0 1
157.082 0 1
157.199 0 1
157.315 0 1
157.431 0 1
157.547 0 1
157.664 0 1
157.78 0 1
157.896 0 1
158.012 0 1
158.128 0 1
158.244 0 1
158.359 0 1
158.475 0 1
158.591 0 1
158.706 0 1
