
6.15755 0 1
6.2731 0 1
6.3887 0 1
6.50437 0 1
6.62009 0 1
6.73587 0 1
6.8517 0 1
6.96759 0 1
7.08353 0 1
7.19952 0 1
7.31557 0 1
7.43166 0 1
7.54781 0 1
7.664 0 1
7.78024 0 1
7.89653 0 1
8.01286 0 1
8.12924 0 1
8.24567 0 1
8.36213 0 1
8.47864 0 1
8.59519 0 1
8.71178 0 1
8.82841 0 1
8.94508 0 1
9.06179 0 1
9.17853 0 1
9.29531 0 1
9.41212 0 1
9.52897 0 1
9.64584 0 1
9.76276 0 1
9.8797 0 1
9.99667 0 1
10.1137 0 1
10.2307 0 1
10.3478 0 1
10.4648 0 1
10.5819 0 1
10.6991 0 1
10.8162 0 1
10.9334 0 1
11.0506 0 1
11.1678 0 1
11.285 0 1
11.4023 0 1
11.5196 0 1
11.6369 0 1
11.7542 0 1
11.8715 0 1
11.9888 0 1
12.1062 0 1
12.2235 0 1
12.3409 0 1
12.4582 0 1
12.5756 0 1
12.693 0 1
12.8104 0 1
12.9278 0 1
13.0452 0 1
13.1626 0 1
13.28 0 1
13.3974 0 1
13.5149 0 1
13.6323 0 1
13.7497 0 1
13.8671 0 1
13.9845 0 1
14.1019 0 1
14.2193 0 1
14.3367 0 1
14.4541 0 1
14.5714 0 1
14.6888 0 1
14.8062 0 1
14.9235 0 1
15.0408 803 28.3373
15.1581 846 29.0861
15.2755 865 29.4109
15.3927 898 29.9666
15.51 867 29.4449
15.6273 881 29.6816
15.7445 846 29.0861
15.8617 889 29.8161
15.9789 889 29.8161
16.0961 831 28.8271
16.2132 857 29.2746
16.3304 872 29.5296
16.4475 953 30.8707
16.5646 968 31.1127
16.6816 952 30.8545
16.7986 994 31.5278
16.9156 964 31.0483
17.0326 1006 31.7175
17.1496 1030 32.0936
17.2665 1083 32.909
17.3833 989 31.4484
17.5002 1009 31.7648
17.617 949 30.8058
17.7338 966 31.0805
17.8505 903 30.05
17.9672 861 29.3428
18.0839 863 29.3769
18.2005 864 29.3939
18.3171 874 29.5635
18.4337 947 30.7734
18.5502 974 31.209
18.6666 1024 32
18.7831 1005 31.7017
18.8994 1013 31.8277
19.0158 989 31.4484
19.1321 939 30.6431
19.2483 918 30.2985
19.3645 861 29.3428
19.4806 800 28.2843
19.5967 704 26.533
19.7128 673 25.9422
19.8288 655 25.593
19.9447 567 23.8118
20.0606 0 1
20.1764 0 1
20.2922 0 1
20.4079 0 1
20.5236 0 1
20.6392 0 1
20.7548 0 1
20.8702 0 1
23.3078 0 1
23.4233 0 1
23.539 0 1
23.6547 0 1
23.7704 0 1
23.8862 0 1
24.0021 0 1
24.118 0 1
24.234 0 1
24.35 0 1
24.4661 368 19.1833
24.5822 459 21.4243
24.6984 521 22.8254
24.8146 571 23.8956
24.9309 640 25.2982
25.0472 596 24.4131
25.1636 706 26.5707
25.28 873 29.5466
25.3965 880 29.6648
25.513 935 30.5778
25.6296 1043 32.2955
25.7462 1022 31.9687
25.8628 1038 32.218
25.9795 1046 32.3419
26.0962 1046 32.3419
26.213 989 31.4484
26.3298 1028 32.0624
26.4466 868 29.4618
26.5635 896 29.9333
26.6804 871 29.5127
26.7973 910 30.1662
26.9143 927 30.4467
27.0313 990 31.4643
27.1483 980 31.305
27.2653 999 31.607
27.3824 1016 31.8748
27.4996 1000 31.6228
27.6167 910 30.1662
27.7339 991 31.4802
27.8511 998 31.5911
27.9683 883 29.7153
28.0855 924 30.3974
28.2028 947 30.7734
28.3201 908 30.133
28.4374 837 28.931
28.5547 868 29.4618
28.6721 865 29.4109
28.7894 898 29.9666
28.9068 916 30.2655
29.0242 1003 31.6702
29.1416 1006 31.7175
29.259 1023 31.9844
29.3764 1040 32.249
29.4939 1005 31.7017
29.6113 1009 31.7648
29.7288 939 30.6431
29.8463 905 30.0832
29.9638 844 29.0517
30.0812 837 28.931
30.1987 796 28.2135
30.3162 852 29.189
30.4337 922 30.3645
30.5512 906 30.0998
30.6687 971 31.1609
30.7862 912 30.1993
30.9037 979 31.289
31.0212 1007 31.7333
31.1387 999 31.607
31.2562 946 30.7571
31.3737 952 30.8545
31.4912 956 30.9192
31.6087 871 29.5127
31.7262 865 29.4109
31.8436 793 28.1603
31.9611 785 28.0179
32.0785 812 28.4956
32.1959 770 27.7489
32.3134 880 29.6648
32.4308 905 30.0832
32.5482 991 31.4802
32.6655 976 31.241
32.7829 1007 31.7333
32.9002 966 31.0805
33.0176 988 31.4325
33.1349 936 30.5941
33.2522 976 31.241
33.3694 914 30.2324
33.4867 855 29.2404
33.6039 855 29.2404
33.7211 757 27.5136
33.8383 787 28.0535
33.9554 803 28.3373
34.0725 875 29.5804
34.1896 882 29.6985
34.3067 847 29.1033
34.4237 930 30.4959
34.5407 960 30.9839
34.6577 877 29.6142
34.7746 940 30.6594
34.8915 927 30.4467
35.0084 928 30.4631
35.1252 829 28.7924
35.242 807 28.4077
35.3587 812 28.4956
35.4755 791 28.1247
35.5921 799 28.2666
35.7088 757 27.5136
35.8254 751 27.4044
35.9419 777 27.8747
36.0584 801 28.3019
36.1749 858 29.2916
36.2913 843 29.0345
36.4077 830 28.8097
36.524 851 29.1719
36.6403 841 29
36.7565 780 27.9285
36.8727 752 27.4226
36.9889 728 26.9815
37.1049 613 24.7588
37.221 0 1
37.3369 0 1
37.4529 0 1
37.5687 0 1
37.6845 0 1
37.8003 0 1
37.916 0 1
38.0316 0 1
38.1472 0 1
40.5851 0 1
40.7008 0 1
40.8164 0 1
40.9322 0 1
41.048 0 1
41.1639 0 1
41.2798 0 1
41.3958 0 1
41.5118 0 1
41.6279 0 1
41.744 425 20.6155
41.8602 432 20.7846
41.9765 510 22.5832
42.0928 580 24.0832
42.2091 584 24.1661
42.3255 529 23
42.4419 511 22.6053
42.5584 522 22.8473
42.675 538 23.1948
42.7915 656 25.6125
42.9081 705 26.5518
43.0248 743 27.258
43.1415 737 27.1477
43.2582 719 26.8142
43.375 746 27.313
43.4918 792 28.1425
43.6087 768 27.7128
43.7256 757 27.5136
43.8425 794 28.178
43.9595 801 28.3019
44.0765 702 26.4953
44.1935 706 26.5707
44.3106 698 26.4197
44.4277 687 26.2107
44.5448 642 25.3377
44.6619 621 24.9199
44.7791 664 25.7682
44.8963 672 25.923
45.0136 699 26.4386
45.1308 801 28.3019
45.2481 803 28.3373
45.3654 821 28.6531
45.4827 786 28.0357
45.6001 807 28.4077
45.7174 779 27.9106
45.8348 736 27.1293
45.9522 677 26.0192
46.0697 639 25.2784
46.1871 603 24.5561
46.3046 613 24.7588
46.422 661 25.7099
46.5395 760 27.5681
46.657 763 27.6225
46.7745 717 26.7769
46.892 732 27.0555
47.0096 772 27.7849
47.1271 825 28.7228
47.2446 764 27.6405
47.3622 795 28.1957
47.4797 753 27.4408
47.5973 737 27.1477
47.7149 759 27.55
47.8324 737 27.1477
47.95 697 26.4008
48.0675 692 26.3059
48.1851 648 25.4558
48.3027 627 25.04
48.4202 624 24.98
48.5378 721 26.8514
48.6554 778 27.8927
48.7729 732 27.0555
48.8904 820 28.6356
49.008 792 28.1425
49.1255 741 27.2213
49.243 781 27.9464
49.3605 727 26.9629
49.478 695 26.3629
49.5955 631 25.1197
49.713 628 25.0599
49.8304 613 24.7588
49.9479 660 25.6905
50.0653 738 27.1662
50.1827 728 26.9815
50.3001 691 26.2869
50.4175 730 27.0185
50.5348 795 28.1957
50.6521 782 27.9643
50.7694 792 28.1425
50.8867 805 28.3725
51.004 776 27.8568
51.1212 774 27.8209
51.2384 734 27.0924
51.3556 699 26.4386
51.4727 679 26.0576
51.5899 627 25.04
51.707 615 24.7992
51.824 652 25.5343
51.9411 700 26.4575
52.0581 744 27.2764
52.175 797 28.2312
52.2919 799 28.2666
52.4088 786 28.0357
52.5257 818 28.6007
52.6425 773 27.8029
52.7593 811 28.4781
52.876 731 27.037
52.9927 726 26.9444
53.1094 691 26.2869
53.226 611 24.7184
53.3426 588 24.2487
53.4591 648 25.4558
53.5756 546 23.3666
53.692 662 25.7294
53.8084 615 24.7992
53.9248 556 23.5797
54.0411 524 22.891
54.1573 541 23.2594
54.2735 0 1
54.3896 0 1
54.5057 0 1
54.6217 0 1
54.7377 0 1
54.8537 0 1
54.9695 0 1
55.0853 0 1
55.2011 0 1
55.3168 0 1
55.4324 0 1
57.824 0 1
57.9396 0 1
58.0553 0 1
58.1711 0 1
58.2869 0 1
58.4028 0 1
58.5187 0 1
58.6347 0 1
58.7508 0 1
58.8669 0 1
58.983 522 22.8473
59.0992 663 25.7488
59.2155 655 25.593
59.3318 755 27.4773
59.4482 808 28.4253
59.5646 845 29.0689
59.681 884 29.7321
59.7975 900 30
59.9141 911 30.1828
60.0306 859 29.3087
60.1473 822 28.6705
60.2639 832 28.8444
60.3807 815 28.5482
60.4974 788 28.0713
60.6142 823 28.688
60.731 899 29.9833
60.8479 953 30.8707
60.9648 991 31.4802
61.0818 930 30.4959
61.1987 1075 32.7872
61.3158 973 31.1929
61.4328 907 30.1164
61.5499 922 30.3645
61.667 835 28.8964
61.7841 825 28.7228
61.9013 750 27.3861
62.0185 773 27.8029
62.1357 821 28.6531
62.253 910 30.1662
62.3702 952 30.8545
62.4875 939 30.6431
62.6049 995 31.5436
62.7222 963 31.0322
62.8396 1009 31.7648
62.9569 1035 32.1714
63.0743 1043 32.2955
63.1918 991 31.4802
63.3092 938 30.6268
63.4267 961 31
63.5441 929 30.4795
63.6616 884 29.7321
63.7791 854 29.2233
63.8966 787 28.0535
64.0142 755 27.4773
64.1317 832 28.8444
64.2492 827 28.7576
64.3668 916 30.2655
64.4843 975 31.225
64.6019 916 30.2655
64.7195 969 31.1288
64.837 999 31.607
64.9546 1033 32.1403
65.0722 959 30.9677
65.1898 891 29.8496
65.3074 810 28.4605
65.4249 801 28.3019
65.5425 778 27.8927
65.6601 784 28
65.7777 823 28.688
65.8952 895 29.9166
66.0128 926 30.4302
66.1304 930 30.4959
66.2479 949 30.8058
66.3655 936 30.5941
66.483 1027 32.0468
66.6005 971 31.1609
66.718 954 30.8869
66.8355 982 31.3369
66.953 985 31.3847
67.0705 972 31.1769
67.1879 918 30.2985
67.3054 924 30.3974
67.4228 828 28.775
67.5402 760 27.5681
67.6576 813 28.5132
67.7749 823 28.688
67.8923 882 29.6985
68.0096 932 30.5287
68.1269 959 30.9677
68.2442 1032 32.1248
68.3614 1018 31.9061
68.4787 1025 32.0156
68.5958 1095 33.0908
68.713 981 31.3209
68.8302 912 30.1993
68.9473 946 30.7571
69.0643 852 29.189
69.1814 812 28.4956
69.2984 832 28.8444
69.4154 895 29.9166
69.5323 998 31.5911
69.6492 1056 32.4962
69.7661 1013 31.8277
69.8829 1157 34.0147
69.9997 1115 33.3916
70.1165 1056 32.4962
70.2332 1138 33.7343
70.3499 1028 32.0624
70.4665 1015 31.8591
70.5831 930 30.4959
70.6996 896 29.9333
70.8161 862 29.3598
70.9326 826 28.7402
71.049 772 27.7849
71.1653 556 23.5797
71.2817 452 21.2603
71.3979 465 21.5639
71.5141 452 21.2603
71.6303 421 20.5183
71.7464 403 20.0749
71.8624 0 1
71.9784 0 1
72.0944 0 1
72.2102 0 1
72.3261 0 1
72.4418 0 1
72.5575 0 1
72.6732 0 1
75.1054 0 1
75.2209 0 1
75.3365 0 1
75.4521 0 1
75.5678 0 1
75.6835 0 1
75.7993 0 1
75.9151 0 1
76.031 0 1
76.147 655 25.593
76.263 694 26.3439
76.3791 671 25.9037
76.4952 692 26.3059
76.6113 685 26.1725
76.7276 693 26.3249
76.8438 754 27.4591
76.9601 878 29.6311
77.0765 927 30.4467
77.1929 926 30.4302
77.3093 925 30.4138
77.4258 959 30.9677
77.5423 900 30
77.6589 861 29.3428
77.7755 795 28.1957
77.8921 727 26.9629
78.0088 689 26.2488
78.1256 696 26.3818
78.2423 651 25.5147
78.3591 656 25.6125
78.4759 724 26.9072
78.5928 776 27.8568
78.7097 825 28.7228
78.8266 777 27.8747
78.9436 857 29.2746
79.0606 855 29.2404
79.1776 873 29.5466
79.2946 911 30.1828
79.4117 862 29.3598
79.5288 854 29.2233
79.6459 845 29.0689
79.7631 865 29.4109
79.8802 808 28.4253
79.9974 723 26.8887
80.1147 703 26.5141
80.2319 612 24.7386
80.3491 654 25.5734
80.4664 677 26.0192
80.5837 742 27.2397
80.701 846 29.0861
80.8183 861 29.3428
80.9357 845 29.0689
81.053 926 30.4302
81.1704 871 29.5127
81.2877 920 30.3315
81.4051 894 29.8998
81.5225 831 28.8271
81.6399 701 26.4764
81.7573 632 25.1396
81.8747 660 25.6905
81.9922 621 24.9199
82.1096 711 26.6646
82.227 758 27.5318
82.3444 784 28
82.4619 873 29.5466
82.5793 875 29.5804
82.6967 903 30.05
82.8142 864 29.3939
82.9316 914 30.2324
83.049 905 30.0832
83.1664 924 30.3974
83.2838 833 28.8617
83.4012 847 29.1033
83.5186 899 29.9833
83.636 804 28.3549
83.7534 753 27.4408
83.8708 695 26.3629
83.9881 665 25.7876
84.1055 669 25.865
84.2228 778 27.8927
84.3401 801 28.3019
84.4575 892 29.8664
84.5747 924 30.3974
84.692 921 30.348
84.8093 922 30.3645
84.9265 886 29.7658
85.0437 876 29.5973
85.1609 851 29.1719
85.2781 721 26.8514
85.3952 674 25.9615
85.5123 668 25.8457
85.6294 671 25.9037
85.7465 765 27.6586
85.8636 812 28.4956
85.9806 854 29.2233
86.0976 887 29.7825
86.2145 834 28.8791
86.3315 913 30.2159
86.4484 898 29.9666
86.5652 949 30.8058
86.682 998 31.5911
86.7988 972 31.1769
86.9156 920 30.3315
87.0323 906 30.0998
87.149 876 29.5973
87.2657 820 28.6356
87.3823 725 26.9258
87.4988 628 25.0599
87.6154 568 23.8328
87.7318 574 23.9583
87.8483 646 25.4165
87.9647 691 26.2869
88.081 676 26
88.1973 741 27.2213
88.3136 712 26.6833
88.4298 600 24.4949
88.546 649 25.4755
88.6621 480 21.9089
88.7781 421 20.5183
88.8942 0 1
89.0101 0 1
89.126 0 1
89.2419 0 1
89.3577 0 1
89.4734 0 1
89.5891 0 1
89.7047 0 1
89.8203 0 1
89.9358 0 1
92.3269 0 1
92.4424 0 1
92.558 0 1
92.6736 0 1
92.7893 0 1
92.905 0 1
93.0208 0 1
93.1366 0 1
93.2525 0 1
93.3685 0 1
93.4845 0 1
93.6005 636 25.219
93.7167 675 25.9808
93.8328 721 26.8514
93.949 703 26.5141
94.0653 713 26.7021
94.1816 806 28.3901
94.2979 752 27.4226
94.4143 722 26.8701
94.5307 670 25.8844
94.6472 726 26.9444
94.7637 695 26.3629
94.8803 700 26.4575
94.9969 799 28.2666
95.1135 770 27.7489
95.2302 813 28.5132
95.3469 781 27.9464
95.4637 888 29.7993
95.5805 892 29.8664
95.6973 931 30.5123
95.8142 886 29.7658
95.9311 870 29.4958
96.048 867 29.4449
96.1649 830 28.8097
96.2819 814 28.5307
96.3989 856 29.2575
96.516 771 27.7669
96.633 744 27.2764
96.7501 652 25.5343
96.8673 676 26
96.9844 732 27.0555
97.1016 770 27.7489
97.2188 811 28.4781
97.336 877 29.6142
97.4532 912 30.1993
97.5704 873 29.5466
97.6877 914 30.2324
97.805 848 29.1204
97.9223 902 30.0333
98.0396 726 26.9444
98.1569 724 26.9072
98.2743 675 25.9808
98.3916 632 25.1396
98.509 690 26.2679
98.6264 715 26.7395
98.7438 792 28.1425
98.8612 872 29.5296
98.9786 931 30.5123
99.096 952 30.8545
99.2134 907 30.1164
99.3308 948 30.7896
99.4482 918 30.2985
99.5656 921 30.348
99.6831 977 31.257
99.8005 886 29.7658
99.9179 896 29.9333
100.035 906 30.0998
100.153 836 28.9137
100.27 762 27.6043
100.388 738 27.1662
100.505 757 27.5136
100.622 844 29.0517
100.74 876 29.5973
100.857 923 30.3809
100.975 921 30.348
101.092 956 30.9192
101.209 982 31.3369
101.327 977 31.257
101.444 982 31.3369
101.561 833 28.8617
101.679 737 27.1477
101.796 759 27.55
101.913 679 26.0576
102.03 729 27
102.148 800 28.2843
102.265 885 29.7489
102.382 937 30.6105
102.499 952 30.8545
102.616 999 31.607
102.733 966 31.0805
102.851 1002 31.6544
102.968 944 30.7246
103.085 1050 32.4037
103.202 1071 32.7261
103.319 913 30.2159
103.436 886 29.7658
103.552 903 30.05
103.669 809 28.4429
103.786 748 27.3496
103.903 794 28.178
104.02 807 28.4077
104.137 839 28.9655
104.253 923 30.3809
104.37 1026 32.0312
104.487 1008 31.749
104.603 1004 31.686
104.72 962 31.0161
104.836 947 30.7734
104.953 882 29.6985
105.069 852 29.189
105.186 728 26.9815
105.302 656 25.6125
105.418 655 25.593
105.535 624 24.98
105.651 638 25.2587
105.767 652 25.5343
105.883 659 25.671
105.999 609 24.6779
106.115 0 1
106.231 0 1
106.347 0 1
106.463 0 1
106.579 0 1
106.694 0 1
106.81 0 1
106.926 0 1
107.041 0 1
107.157 0 1
109.576 0 1
109.692 0 1
109.807 0 1
109.923 0 1
110.039 0 1
110.155 0 1
110.27 0 1
110.386 0 1
110.502 0 1
110.618 404 20.0998
110.735 490 22.1359
110.851 567 23.8118
110.967 634 25.1794
111.083 747 27.3313
111.199 775 27.8388
111.316 876 29.5973
111.432 881 29.6816
111.549 921 30.348
111.665 894 29.8998
111.782 901 30.0167
111.898 907 30.1164
112.015 874 29.5635
112.132 866 29.4279
112.248 742 27.2397
112.365 766 27.6767
112.482 685 26.1725
112.599 766 27.6767
112.716 851 29.1719
112.832 858 29.2916
112.949 879 29.6479
113.066 858 29.2916
113.183 974 31.209
113.3 904 30.0666
113.417 942 30.692
113.534 844 29.0517
113.652 774 27.8209
113.769 719 26.8142
113.886 719 26.8142
114.003 680 26.0768
114.12 686 26.1916
114.238 790 28.1069
114.355 782 27.9643
114.472 788 28.0713
114.589 936 30.5941
114.707 872 29.5296
114.824 898 29.9666
114.942 960 30.9839
115.059 976 31.241
115.176 986 31.4006
115.294 843 29.0345
115.411 864 29.3939
115.529 901 30.0167
115.646 831 28.8271
115.764 876 29.5973
115.881 767 27.6948
115.999 707 26.5895
116.116 715 26.7395
116.234 759 27.55
116.351 823 28.688
116.469 878 29.6311
116.586 909 30.1496
116.704 903 30.05
116.821 908 30.133
116.939 941 30.6757
117.056 919 30.315
117.174 796 28.2135
117.291 747 27.3313
117.409 724 26.9072
117.526 664 25.7682
117.644 695 26.3629
117.761 713 26.7021
117.879 786 28.0357
117.996 811 28.4781
118.114 803 28.3373
118.231 942 30.692
118.349 911 30.1828
118.466 928 30.4631
118.584 868 29.4618
118.701 895 29.9166
118.819 852 29.189
118.936 845 29.0689
119.053 905 30.0832
119.171 874 29.5635
119.288 799 28.2666
119.405 776 27.8568
119.523 687 26.2107
119.64 669 25.865
119.757 715 26.7395
119.875 730 27.0185
119.992 808 28.4253
120.109 845 29.0689
120.226 887 29.7825
120.343 883 29.7153
120.46 866 29.4279
120.578 914 30.2324
120.695 874 29.5635
120.812 837 28.931
120.929 753 27.4408
121.046 708 26.6083
121.163 701 26.4764
121.279 630 25.0998
121.396 651 25.5147
121.513 718 26.7955
121.63 715 26.7395
121.747 700 26.4575
121.863 786 28.0357
121.98 746 27.313
122.097 796 28.2135
122.213 727 26.9629
122.33 723 26.8887
122.446 663 25.7488
122.563 647 25.4362
122.679 638 25.2587
122.795 648 25.4558
122.912 507 22.5167
123.028 423 20.567
123.144 429 20.7123
123.26 393 19.8242
123.377 0 1
123.493 0 1
123.609 0 1
123.725 0 1
123.84 0 1
123.956 0 1
124.072 0 1
124.188 0 1
124.303 0 1
124.419 0 1
126.852 0 1
126.968 0 1
127.083 0 1
127.199 0 1
127.315 0 1
127.431 0 1
127.547 0 1
127.663 0 1
127.779 0 1
127.895 0 1
128.011 0 1
128.127 0 1
128.243 0 1
128.359 885 29.7489
128.476 948 30.7896
128.592 938 30.6268
128.708 899 29.9833
128.825 898 29.9666
128.941 948 30.7896
129.058 983 31.3528
129.174 1074 32.7719
129.291 1102 33.1964
129.408 1106 33.2566
129.524 1073 32.7567
129.641 1120 33.4664
129.758 1094 33.0757
129.875 987 31.4166
129.992 935 30.5778
130.108 875 29.5804
130.225 797 28.2312
130.342 843 29.0345
130.459 894 29.8998
130.576 888 29.7993
130.693 947 30.7734
130.81 1010 31.7805
130.928 1052 32.4345
131.045 1071 32.7261
131.162 1067 32.665
131.279 1046 32.3419
131.396 1061 32.573
131.513 1135 33.6898
131.631 1070 32.7109
131.748 1033 32.1403
131.865 1038 32.218
131.983 988 31.4325
132.1 953 30.8707
132.217 927 30.4467
132.335 922 30.3645
132.452 918 30.2985
132.57 980 31.305
132.687 1094 33.0757
132.804 1055 32.4808
132.922 1007 31.7333
133.039 1121 33.4813
133.157 1129 33.6006
133.274 1088 32.9848
133.392 1054 32.4654
133.509 945 30.7409
133.627 923 30.3809
133.744 895 29.9166
133.862 754 27.4591
133.979 880 29.6648
134.097 899 29.9833
134.214 965 31.0644
134.332 1027 32.0468
134.449 1057 32.5115
134.567 1096 33.1059
134.684 1018 31.9061
134.802 1095 33.0908
134.919 1096 33.1059
135.037 1033 32.1403
135.154 1067 32.665
135.272 1047 32.3574
135.389 1031 32.1092
135.507 1028 32.0624
135.624 990 31.4643
135.742 928 30.4631
135.859 884 29.7321
135.977 912 30.1993
136.094 956 30.9192
136.211 1070 32.7109
136.329 1053 32.45
136.446 1090 33.0151
136.564 1134 33.6749
136.681 1095 33.0908
136.798 1076 32.8024
136.915 1139 33.7491
137.033 1050 32.4037
137.15 936 30.5941
137.267 909 30.1496
137.384 807 28.4077
137.502 833 28.8617
137.619 822 28.6705
137.736 898 29.9666
137.853 877 29.6142
137.97 966 31.0805
138.087 953 30.8707
138.204 1032 32.1248
138.321 1063 32.6037
138.438 997 31.5753
138.555 1044 32.311
138.672 1023 31.9844
138.788 948 30.7896
138.905 951 30.8383
139.022 907 30.1164
139.139 878 29.6311
139.255 774 27.8209
139.372 722 26.8701
139.488 674 25.9615
139.605 648 25.4558
139.721 615 24.7992
139.838 641 25.318
139.954 614 24.779
140.071 628 25.0599
140.187 582 24.1247
140.303 540 23.2379
140.419 513 22.6495
140.535 452 21.2603
140.652 433 20.8087
140.768 0 1
140.884 0 1
141 0 1
141.115 0 1
141.231 0 1
141.347 0 1
141.463 0 1
141.578 0 1
141.694 0 1
144.104 0 1
144.219 0 1
144.335 0 1
144.45 0 1
144.566 0 1
144.682 0 1
144.798 0 1
144.914 0 1
145.03 0 1
145.146 706 26.5707
145.262 758 27.5318
145.378 745 27.2947
145.494 777 27.8747
145.61 735 27.1109
145.726 744 27.2764
145.842 675 25.9808
145.959 666 25.807
146.075 598 24.454
146.192 618 24.8596
146.308 575 23.9792
146.425 603 24.5561
146.541 607 24.6374
146.658 659 25.671
146.774 646 25.4165
146.891 644 25.3772
147.008 712 26.6833
147.125 739 27.1846
147.241 747 27.3313
147.358 715 26.7395
147.475 760 27.5681
147.592 667 25.8263
147.709 743 27.258
147.826 666 25.807
147.943 701 26.4764
148.06 673 25.9422
148.177 656 25.6125
148.294 615 24.7992
148.411 658 25.6515
148.528 635 25.1992
148.645 685 26.1725
148.762 725 26.9258
148.88 767 27.6948
148.997 753 27.4408
149.114 741 27.2213
149.231 714 26.7208
149.349 708 26.6083
149.466 659 25.671
149.583 690 26.2679
149.701 639 25.2784
149.818 566 23.7908
149.935 581 24.1039
150.053 575 23.9792
150.17 626 25.02
150.287 616 24.8193
150.405 664 25.7682
150.522 681 26.096
150.64 733 27.074
150.757 680 26.0768
150.875 644 25.3772
150.992 744 27.2764
151.11 747 27.3313
151.227 662 25.7294
151.344 678 26.0384
151.462 639 25.2784
151.579 664 25.7682
151.697 603 24.5561
151.814 621 24.9199
151.932 581 24.1039
152.049 611 24.7184
152.167 642 25.3377
152.284 654 25.5734
152.402 688 26.2298
152.519 653 25.5539
152.636 708 26.6083
152.754 681 26.096
152.871 704 26.533
152.989 680 26.0768
153.106 651 25.5147
153.223 613 24.7588
153.341 591 24.3105
153.458 507 22.5167
153.575 543 23.3024
153.693 562 23.7065
153.81 608 24.6577
153.927 616 24.8193
154.044 621 24.9199
154.162 635 25.1992
154.279 625 25
154.396 668 25.8457
154.513 607 24.6374
154.63 643 25.3574
154.747 659 25.671
154.864 650 25.4951
154.981 663 25.7488
155.098 602 24.5357
155.215 620 24.8998
155.332 603 24.5561
155.449 558 23.622
155.566 567 23.8118
155.683 579 24.0624
155.8 635 25.1992
155.917 624 24.98
156.033 618 24.8596
156.15 0 1
156.267 0 1
156.383 0 1
156.5 0 1
156.617 0 1
156.733 0 1
156.85 0 1
156.966 0 1
157.082 0 1
157.199 0 1
157.315 0 1
157.431 0 1
157.547 0 1
157.664 0 1
157.78 0 1
157.896 0 1
158.012 0 1
158.128 0 1
158.244 0 1
158.359 0 1
158.475 0 1
158.591 0 1
158.706 0 1
