
6.15755 0 1
6.2731 0 1
6.3887 0 1
6.50437 0 1
6.62009 0 1
6.73587 0 1
6.8517 0 1
6.96759 0 1
7.08353 0 1
7.19952 0 1
7.31557 0 1
7.43166 0 1
7.54781 0 1
7.664 0 1
7.78024 0 1
7.89653 0 1
8.01286 0 1
8.12924 0 1
8.24567 0 1
8.36213 0 1
8.47864 0 1
8.59519 0 1
8.71178 0 1
8.82841 0 1
8.94508 0 1
9.06179 0 1
9.17853 0 1
9.29531 0 1
9.41212 0 1
9.52897 0 1
9.64584 0 1
9.76276 0 1
9.8797 0 1
9.99667 0 1
10.1137 0 1
10.2307 0 1
10.3478 0 1
10.4648 0 1
10.5819 0 1
10.6991 0 1
10.8162 0 1
10.9334 0 1
11.0506 0 1
11.1678 0 1
11.285 0 1
11.4023 0 1
11.5196 0 1
11.6369 0 1
11.7542 0 1
11.8715 0 1
11.9888 0 1
12.1062 0 1
12.2235 0 1
12.3409 0 1
12.4582 0 1
12.5756 0 1
12.693 0 1
12.8104 0 1
12.9278 0 1
13.0452 0 1
13.1626 0 1
13.28 0 1
13.3974 0 1
13.5149 0 1
13.6323 0 1
13.7497 0 1
13.8671 0 1
13.9845 0 1
14.1019 0 1
14.2193 0 1
14.3367 0 1
14.4541 0 1
14.5714 0 1
14.6888 0 1
14.8062 0 1
14.9235 0 1
15.0408 8714 93.3488
15.1581 9014 94.9421
15.2755 9332 96.6023
15.3927 9359 96.7419
15.51 9339 96.6385
15.6273 9431 97.1133
15.7445 9190 95.8645
15.8617 9052 95.142
15.9789 8922 94.4563
16.0961 8942 94.5621
16.2132 8624 92.8655
16.3304 8919 94.4405
16.4475 8896 94.3186
16.5646 9075 95.2628
16.6816 9220 96.0208
16.7986 9408 96.9948
16.9156 9257 96.2133
17.0326 9218 96.0104
17.1496 9139 95.5981
17.2665 9236 96.1041
17.3833 9134 95.572
17.5002 8716 93.3595
17.617 8564 92.5419
17.7338 8550 92.4662
17.8505 8892 94.2974
17.9672 9091 95.3467
18.0839 9546 97.7036
18.2005 9835 99.1716
18.3171 9900 99.4987
18.4337 10034 100.17
18.5502 10239 101.188
18.6666 10385 101.907
18.7831 10600 102.956
18.8994 10187 100.931
19.0158 10011 100.055
19.1321 9740 98.6914
19.2483 9466 97.2934
19.3645 9022 94.9842
19.4806 8747 93.5254
19.5967 8566 92.5527
19.7128 8277 90.978
19.8288 8242 90.7855
19.9447 7312 85.5102
20.0606 0 1
20.1764 0 1
20.2922 0 1
20.4079 0 1
20.5236 0 1
20.6392 0 1
20.7548 0 1
20.8702 0 1
23.3078 0 1
23.4233 0 1
23.539 0 1
23.6547 0 1
23.7704 0 1
23.8862 0 1
24.0021 0 1
24.118 0 1
24.234 0 1
24.35 0 1
24.4661 8701 93.2792
24.5822 8425 91.7878
24.6984 8462 91.9891
24.8146 8261 90.89
24.9309 8543 92.4284
25.0472 8589 92.6769
25.1636 8965 94.6837
25.28 9163 95.7236
25.3965 9556 97.7548
25.513 9548 97.7139
25.6296 9809 99.0404
25.7462 9945 99.7246
25.8628 9853 99.2623
25.9795 9656 98.2649
26.0962 9538 97.6627
26.213 9066 95.2155
26.3298 8925 94.4722
26.4466 8693 93.2363
26.5635 8624 92.8655
26.6804 9122 95.5092
26.7973 9140 95.6033
26.9143 9346 96.6747
27.0313 9606 98.0102
27.1483 9574 97.8468
27.2653 9867 99.3328
27.3824 10020 100.1
27.4996 9911 99.554
27.6167 9875 99.373
27.7339 9601 97.9847
27.8511 9449 97.206
27.9683 9159 95.7027
28.0855 9068 95.226
28.2028 8751 93.5468
28.3201 8389 91.5915
28.4374 8294 91.0714
28.5547 8242 90.7855
28.6721 8605 92.7631
28.7894 8808 93.8509
28.9068 9015 94.9474
29.0242 9149 95.6504
29.1416 9132 95.5615
29.259 9166 95.7392
29.3764 9080 95.289
29.4939 9023 94.9895
29.6113 8786 93.7337
29.7288 8571 92.5797
29.8463 8442 91.8804
29.9638 8146 90.2552
30.0812 8070 89.8332
30.1987 8373 91.5041
30.3162 8769 93.6429
30.4337 8737 93.4719
30.5512 9128 95.5406
30.6687 9130 95.551
30.7862 9374 96.8194
30.9037 9382 96.8607
31.0212 9546 97.7036
31.1387 9536 97.6524
31.2562 9374 96.8194
31.3737 9173 95.7758
31.4912 9132 95.5615
31.6087 9018 94.9632
31.7262 8778 93.691
31.8436 8558 92.5095
31.9611 8235 90.7469
32.0785 8135 90.1942
32.1959 8118 90.0999
32.3134 8435 91.8423
32.4308 8653 93.0215
32.5482 8576 92.6067
32.6655 8934 94.5198
32.7829 8944 94.5727
32.9002 8966 94.689
33.0176 9040 95.0789
33.1349 9010 94.921
33.2522 8765 93.6216
33.3694 8577 92.6121
33.4867 8235 90.7469
33.6039 8135 90.1942
33.7211 7951 89.1684
33.8383 8023 89.5712
33.9554 8368 91.4768
34.0725 8554 92.4878
34.1896 8719 93.3756
34.3067 8732 93.4452
34.4237 8998 94.8578
34.5407 9074 95.2575
34.6577 9089 95.3362
34.7746 9305 96.4624
34.8915 9172 95.7706
35.0084 8977 94.747
35.1252 8617 92.8278
35.242 8862 94.1382
35.3587 8656 93.0376
35.4755 8275 90.967
35.5921 8041 89.6716
35.7088 7700 87.7496
35.8254 7755 88.0625
35.9419 7850 88.6002
36.0584 7961 89.2244
36.1749 8322 91.225
36.2913 8460 91.9783
36.4077 8566 92.5527
36.524 8589 92.6769
36.6403 8711 93.3327
36.7565 8632 92.9086
36.8727 8545 92.4392
36.9889 8384 91.5642
37.1049 7936 89.0842
37.221 0 1
37.3369 0 1
37.4529 0 1
37.5687 0 1
37.6845 0 1
37.8003 0 1
37.916 0 1
38.0316 0 1
38.1472 0 1
40.5851 0 1
40.7008 0 1
40.8164 0 1
40.9322 0 1
41.048 0 1
41.1639 0 1
41.2798 0 1
41.3958 0 1
41.5118 0 1
41.6279 0 1
41.744 6714 81.939
41.8602 7286 85.3581
41.9765 7346 85.7088
42.0928 7473 86.4465
42.2091 7263 85.2232
42.3255 7292 85.3932
42.4419 6898 83.0542
42.5584 6605 81.2712
42.675 6425 80.1561
42.7915 6472 80.4487
42.9081 6792 82.4136
43.0248 6891 83.012
43.1415 7052 83.9762
43.2582 7116 84.3564
43.375 7275 85.2936
43.4918 7238 85.0764
43.6087 7377 85.8895
43.7256 7173 84.6936
43.8425 7226 85.0059
43.9595 7170 84.6759
44.0765 6996 83.6421
44.1935 6719 81.9695
44.3106 6481 80.5047
44.4277 6278 79.2338
44.5448 5827 76.3348
44.6619 5677 75.3459
44.7791 5521 74.3034
44.8963 5421 73.6274
45.0136 5501 74.1687
45.1308 5826 76.3282
45.2481 5825 76.3217
45.3654 5772 75.9737
45.4827 5719 75.6241
45.6001 5791 76.0986
45.7174 5858 76.5376
45.8348 5724 75.6571
45.9522 5480 74.027
46.0697 5271 72.6017
46.1871 5215 72.215
46.3046 4927 70.1926
46.422 5063 71.1548
46.5395 5331 73.0137
46.657 5298 72.7874
46.7745 5573 74.6525
46.892 5485 74.0608
47.0096 5630 75.0333
47.1271 5529 74.3572
47.2446 5719 75.6241
47.3622 5594 74.793
47.4797 5397 73.4643
47.5973 5319 72.9315
47.7149 5201 72.118
47.8324 5118 71.5402
47.95 5040 70.993
48.0675 4946 70.3278
48.1851 4582 67.6905
48.3027 4386 66.2269
48.4202 4524 67.2607
48.5378 4547 67.4314
48.6554 4722 68.7168
48.7729 4973 70.5195
48.8904 4985 70.6045
49.008 4997 70.6895
49.1255 5095 71.3793
49.243 5179 71.9653
49.3605 4994 70.6682
49.478 5011 70.7884
49.5955 4868 69.7711
49.713 4820 69.4262
49.8304 4661 68.2715
49.9479 4704 68.5857
50.0653 4822 69.4406
50.1827 5187 72.0208
50.3001 5390 73.4166
50.4175 5465 73.9256
50.5348 5576 74.6726
50.6521 5903 76.831
50.7694 5928 76.9935
50.8867 5970 77.2658
51.004 6184 78.6384
51.1212 6088 78.0256
51.2384 6166 78.5239
51.3556 6231 78.9367
51.4727 6267 79.1644
51.5899 6129 78.2879
51.707 5970 77.2658
51.824 5768 75.9474
51.9411 6037 77.6981
52.0581 6068 77.8974
52.175 6471 80.4425
52.2919 6762 82.2314
52.4088 7080 84.1427
52.5257 7225 85
52.6425 7375 85.8778
52.7593 7349 85.7263
52.876 7597 87.1608
52.9927 7637 87.3899
53.1094 7445 86.2844
53.226 7274 85.2877
53.3426 6822 82.5954
53.4591 6786 82.3772
53.5756 7045 83.9345
53.692 7337 85.6563
53.8084 7793 88.278
53.9248 8014 89.5209
54.0411 8097 89.9833
54.1573 8270 90.9395
54.2735 0 1
54.3896 0 1
54.5057 0 1
54.6217 0 1
54.7377 0 1
54.8537 0 1
54.9695 0 1
55.0853 0 1
55.2011 0 1
55.3168 0 1
55.4324 0 1
57.824 0 1
57.9396 0 1
58.0553 0 1
58.1711 0 1
58.2869 0 1
58.4028 0 1
58.5187 0 1
58.6347 0 1
58.7508 0 1
58.8669 0 1
58.983 8974 94.7312
59.0992 10007 100.035
59.2155 10195 100.97
59.3318 10371 101.838
59.4482 10666 103.276
59.5646 10526 102.596
59.681 10553 102.728
59.7975 10490 102.421
59.9141 10609 103
60.0306 10624 103.073
60.1473 10293 101.454
60.2639 9911 99.554
60.3807 9590 97.9285
60.4974 9367 96.7833
60.6142 8907 94.3769
60.731 8986 94.7945
60.8479 8982 94.7734
60.9648 9162 95.7183
61.0818 9555 97.7497
61.1987 9753 98.7573
61.3158 9968 99.8399
61.4328 9903 99.5138
61.5499 10043 100.215
61.667 9963 99.8148
61.7841 9669 98.3311
61.9013 9259 96.2237
62.0185 8876 94.2125
62.1357 8571 92.5797
62.253 8575 92.6013
62.3702 8843 94.0372
62.4875 9172 95.7706
62.6049 9299 96.4313
62.7222 9539 97.6678
62.8396 9654 98.2548
62.9569 9628 98.1224
63.0743 9840 99.1968
63.1918 9980 99.8999
63.3092 9775 98.8686
63.4267 9657 98.27
63.5441 9561 97.7804
63.6616 9199 95.9114
63.7791 9137 95.5877
63.8966 8801 93.8136
64.0142 8589 92.6769
64.1317 8191 90.5041
64.2492 8110 90.0555
64.3668 8153 90.294
64.4843 8121 90.1166
64.6019 8592 92.693
64.7195 8747 93.5254
64.837 8993 94.8314
64.9546 9420 97.0567
65.0722 9376 96.8297
65.1898 9309 96.4832
65.3074 9480 97.3653
65.4249 9154 95.6765
65.5425 8583 92.6445
65.6601 8337 91.3072
65.7777 8015 89.5265
65.8952 7901 88.8876
66.0128 8415 91.7333
66.1304 8730 93.4345
66.2479 9073 95.2523
66.3655 9149 95.6504
66.483 9363 96.7626
66.6005 9548 97.7139
66.718 9467 97.2985
66.8355 9685 98.4124
66.953 9639 98.1784
67.0705 9535 97.6473
67.1879 9390 96.902
67.3054 9356 96.7264
67.4228 9549 97.719
67.5402 9136 95.5824
67.6576 8726 93.4131
67.7749 8206 90.587
67.8923 8247 90.813
68.0096 8290 91.0494
68.1269 8528 92.3472
68.2442 8918 94.4352
68.3614 9131 95.5563
68.4787 9612 98.0408
68.5958 9844 99.2169
68.713 10012 100.06
68.8302 9909 99.544
68.9473 10020 100.1
69.0643 9986 99.93
69.1814 9403 96.9691
69.2984 9040 95.0789
69.4154 8605 92.7631
69.5323 8453 91.9402
69.6492 8761 93.6002
69.7661 9373 96.8143
69.8829 9497 97.4526
69.9997 9948 99.7397
70.1165 10020 100.1
70.2332 10219 101.089
70.3499 10184 100.916
70.4665 10374 101.853
70.5831 10363 101.799
70.6996 10507 102.504
70.8161 10266 101.321
70.9326 10308 101.528
71.049 10010 100.05
71.1653 9948 99.7397
71.2817 9563 97.7906
71.3979 8911 94.3981
71.5141 8343 91.34
71.6303 7994 89.4092
71.7464 7622 87.3041
71.8624 0 1
71.9784 0 1
72.0944 0 1
72.2102 0 1
72.3261 0 1
72.4418 0 1
72.5575 0 1
72.6732 0 1
75.1054 0 1
75.2209 0 1
75.3365 0 1
75.4521 0 1
75.5678 0 1
75.6835 0 1
75.7993 0 1
75.9151 0 1
76.031 0 1
76.147 9321 96.5453
76.263 9828 99.1363
76.3791 9966 99.8299
76.4952 9463 97.278
76.6113 9137 95.5877
76.7276 8839 94.016
76.8438 8684 93.188
76.9601 8760 93.5949
77.0765 8905 94.3663
77.1929 9134 95.572
77.3093 9737 98.6762
77.4258 9931 99.6544
77.5423 10168 100.837
77.6589 10358 101.774
77.7755 10266 101.321
77.8921 10373 101.848
78.0088 10073 100.364
78.1256 9454 97.2317
78.2423 9124 95.5196
78.3591 8551 92.4716
78.4759 8210 90.6091
78.5928 8450 91.9239
78.7097 8957 94.6414
78.8266 9116 95.4777
78.9436 9961 99.8048
79.0606 10044 100.22
79.1776 9951 99.7547
79.2946 10277 101.376
79.4117 10411 102.034
79.5288 10260 101.292
79.6459 10378 101.872
79.7631 10210 101.045
79.8802 10420 102.078
79.9974 10038 100.19
80.1147 9956 99.7798
80.2319 9477 97.3499
80.3491 8979 94.7576
80.4664 8633 92.9139
80.5837 8695 93.247
80.701 8944 94.5727
80.8183 9362 96.7574
80.9357 9697 98.4733
81.053 9733 98.656
81.1704 9933 99.6644
81.2877 10220 101.094
81.4051 10500 102.47
81.5225 10732 103.595
81.6399 10295 101.464
81.7573 10116 100.578
81.8747 9134 95.572
81.9922 8746 93.5201
82.1096 8278 90.9835
82.227 8417 91.7442
82.3444 9187 95.8488
82.4619 9436 97.1391
82.5793 9872 99.3579
82.6967 9967 99.8349
82.8142 10323 101.602
82.9316 10113 100.563
83.049 10510 102.518
83.1664 10209 101.04
83.2838 10377 101.868
83.4012 10449 102.22
83.5186 10342 101.696
83.636 10391 101.936
83.7534 10178 100.886
83.8708 9783 98.909
83.9881 9056 95.163
84.1055 8594 92.7038
84.2228 8865 94.1541
84.3401 8823 93.9308
84.4575 9095 95.3677
84.5747 9693 98.453
84.692 10044 100.22
84.8093 10389 101.926
84.9265 10639 103.146
85.0437 10966 104.719
85.1609 10772 103.788
85.2781 10506 102.499
85.3952 9979 99.8949
85.5123 9435 97.1339
85.6294 8751 93.5468
85.7465 8574 92.5959
85.8636 8912 94.4034
85.9806 9505 97.4936
86.0976 10009 100.045
86.2145 10536 102.645
86.3315 10632 103.112
86.4484 10898 104.393
86.5652 10982 104.795
86.682 10926 104.528
86.7988 11158 105.631
86.9156 10954 104.661
87.0323 10980 104.785
87.149 11104 105.376
87.2657 11050 105.119
87.3823 10481 102.377
87.4988 10420 102.078
87.6154 9669 98.3311
87.7318 9305 96.4624
87.8483 9283 96.3483
87.9647 9738 98.6813
88.081 10021 100.105
88.1973 10384 101.902
88.3136 10616 103.034
88.4298 11279 106.203
88.546 11159 105.636
88.6621 11485 107.168
88.7781 11170 105.688
88.8942 0 1
89.0101 0 1
89.126 0 1
89.2419 0 1
89.3577 0 1
89.4734 0 1
89.5891 0 1
89.7047 0 1
89.8203 0 1
89.9358 0 1
92.3269 0 1
92.4424 0 1
92.558 0 1
92.6736 0 1
92.7893 0 1
92.905 0 1
93.0208 0 1
93.1366 0 1
93.2525 0 1
93.3685 0 1
93.4845 0 1
93.6005 10116 100.578
93.7167 10385 101.907
93.8328 10606 102.985
93.949 10621 103.058
94.0653 10616 103.034
94.1816 10181 100.901
94.2979 9800 98.9949
94.4143 9303 96.4521
94.5307 8720 93.3809
94.6472 8692 93.2309
94.7637 8895 94.3133
94.8803 9237 96.1093
94.9969 9633 98.1478
95.1135 10194 100.965
95.2302 10130 100.648
95.3469 10365 101.809
95.4637 10633 103.116
95.5805 10883 104.322
95.6973 10775 103.803
95.8142 10836 104.096
95.9311 10870 104.259
96.048 10699 103.436
96.1649 10683 103.359
96.2819 10538 102.655
96.3989 10379 101.877
96.516 10006 100.03
96.633 9406 96.9845
96.7501 9223 96.0365
96.8673 9066 95.2155
96.9844 9164 95.7288
97.1016 9407 96.9897
97.2188 9630 98.1326
97.336 10141 100.703
97.4532 10346 101.715
97.5704 10737 103.619
97.6877 10930 104.547
97.805 10724 103.557
97.9223 10140 100.698
98.0396 9697 98.4733
98.1569 9257 96.2133
98.2743 8770 93.6483
98.3916 8331 91.2743
98.509 8762 93.6056
98.6264 9269 96.2756
98.7438 9525 97.5961
98.8612 10109 100.544
98.9786 10220 101.094
99.096 10143 100.712
99.2134 10223 101.109
99.3308 10635 103.126
99.4482 10425 102.103
99.5656 10280 101.39
99.6831 10303 101.504
99.8005 10136 100.678
99.9179 10111 100.553
100.035 9879 99.3932
100.153 9572 97.8366
100.27 9195 95.8906
100.388 8852 94.0851
100.505 8794 93.7763
100.622 8914 94.414
100.74 9343 96.6592
100.857 9617 98.0663
100.975 9936 99.6795
101.092 10299 101.484
101.209 10492 102.43
101.327 10827 104.053
101.444 10764 103.75
101.561 10199 100.99
101.679 9726 98.6205
101.796 9192 95.8749
101.913 8686 93.1987
102.03 8693 93.2363
102.148 9138 95.5929
102.265 8981 94.7681
102.382 10674 103.315
102.499 10441 102.181
102.616 10593 102.922
102.733 10705 103.465
102.851 10848 104.154
102.968 11062 105.176
103.085 10966 104.719
103.202 10918 104.489
103.319 10897 104.389
103.436 10810 103.971
103.552 10586 102.888
103.669 10385 101.907
103.786 9903 99.5138
103.903 9419 97.0515
104.02 9517 97.5551
104.137 9455 97.2368
104.253 9872 99.3579
104.37 10294 101.459
104.487 10654 103.218
104.603 11112 105.413
104.72 11379 106.672
104.836 11316 106.377
104.953 11278 106.198
105.069 10848 104.154
105.186 10105 100.524
105.302 9317 96.5246
105.418 9154 95.6765
105.535 9361 96.7523
105.651 9867 99.3328
105.767 10283 101.405
105.883 10669 103.291
105.999 10835 104.091
106.115 0 1
106.231 0 1
106.347 0 1
106.463 0 1
106.579 0 1
106.694 0 1
106.81 0 1
106.926 0 1
107.041 0 1
107.157 0 1
109.576 0 1
109.692 0 1
109.807 0 1
109.923 0 1
110.039 0 1
110.155 0 1
110.27 0 1
110.386 0 1
110.502 0 1
110.618 8117 90.0944
110.735 8760 93.5949
110.851 9349 96.6902
110.967 9531 97.6268
111.083 9890 99.4485
111.199 10050 100.25
111.316 10046 100.23
111.432 10202 101.005
111.549 10118 100.588
111.665 10095 100.474
111.782 9964 99.8198
111.898 9793 98.9596
112.015 9614 98.051
112.132 9428 97.0979
112.248 9240 96.1249
112.365 8521 92.3093
112.482 8738 93.4773
112.599 8094 89.9667
112.716 8271 90.945
112.832 8402 91.6624
112.949 8755 93.5682
113.066 9015 94.9474
113.183 9142 95.6138
113.3 9420 97.0567
113.417 9364 96.7678
113.534 9361 96.7523
113.652 9072 95.247
113.769 8331 91.2743
113.886 7988 89.3756
114.003 7521 86.7237
114.12 7041 83.9107
114.238 7713 87.8237
114.355 8004 89.4651
114.472 8539 92.4067
114.589 8299 91.0988
114.707 8678 93.1558
114.824 8562 92.5311
114.942 8453 91.9402
115.059 8564 92.5419
115.176 8443 91.8858
115.294 8290 91.0494
115.411 8149 90.2718
115.529 8055 89.7497
115.646 7841 88.5494
115.764 7445 86.2844
115.881 7191 84.7998
115.999 6877 82.9277
116.116 6764 82.2435
116.234 6668 81.6578
116.351 6957 83.4086
116.469 6955 83.3966
116.586 7248 85.1352
116.704 7247 85.1293
116.821 7504 86.6256
116.939 7715 87.8351
117.056 7709 87.8009
117.174 7500 86.6025
117.291 7210 84.9117
117.409 6694 81.8169
117.526 6299 79.3662
117.644 6038 77.7046
117.761 6161 78.492
117.879 6599 81.2342
117.996 6832 82.6559
118.114 7191 84.7998
118.231 7459 86.3655
118.349 7304 85.4634
118.466 7294 85.4049
118.584 7638 87.3957
118.701 7537 86.8159
118.819 7568 86.9943
118.936 7396 86
119.053 7381 85.9127
119.171 7270 85.2643
119.288 7350 85.7321
119.405 7038 83.8928
119.523 6838 82.6922
119.64 6542 80.8826
119.757 6331 79.5676
119.875 6728 82.0244
119.992 6800 82.4621
120.109 7115 84.3505
120.226 7312 85.5102
120.343 7599 87.1722
120.46 7863 88.6736
120.578 8029 89.6047
120.695 8108 90.0444
120.812 8099 89.9944
120.929 7835 88.5155
121.046 7431 86.2032
121.163 7176 84.7113
121.279 6856 82.801
121.396 6923 83.2046
121.513 7189 84.788
121.63 7637 87.3899
121.747 8006 89.4763
121.863 8338 91.3126
121.98 8375 91.515
122.097 8741 93.4933
122.213 8754 93.5628
122.33 8826 93.9468
122.446 8648 92.9946
122.563 8748 93.5307
122.679 8752 93.5521
122.795 8720 93.3809
122.912 8673 93.1289
123.028 8464 92
123.144 8254 90.8515
123.26 7868 88.7017
123.377 0 1
123.493 0 1
123.609 0 1
123.725 0 1
123.84 0 1
123.956 0 1
124.072 0 1
124.188 0 1
124.303 0 1
124.419 0 1
126.852 0 1
126.968 0 1
127.083 0 1
127.199 0 1
127.315 0 1
127.431 0 1
127.547 0 1
127.663 0 1
127.779 0 1
127.895 0 1
128.011 0 1
128.127 0 1
128.243 0 1
128.359 10092 100.459
128.476 9728 98.6306
128.592 9370 96.7988
128.708 9032 95.0368
128.825 8812 93.8723
128.941 8859 94.1223
129.058 9302 96.4469
129.174 9535 97.6473
129.291 9840 99.1968
129.408 9930 99.6494
129.524 10157 100.782
129.641 10160 100.797
129.758 10217 101.079
129.875 10113 100.563
129.992 9977 99.8849
130.108 9346 96.6747
130.225 8979 94.7576
130.342 8500 92.1954
130.459 8543 92.4284
130.576 8821 93.9202
130.693 9272 96.2912
130.81 9543 97.6883
130.928 9731 98.6458
131.045 10038 100.19
131.162 9945 99.7246
131.279 10317 101.573
131.396 10113 100.563
131.513 10093 100.464
131.631 10117 100.583
131.748 9859 99.2925
131.865 9680 98.387
131.983 9422 97.067
132.1 9158 95.6974
132.217 8962 94.6678
132.335 8495 92.1683
132.452 8799 93.803
132.57 8823 93.9308
132.687 8770 93.6483
132.804 9456 97.242
132.922 9649 98.2293
133.039 9707 98.5241
133.157 9859 99.2925
133.274 9977 99.8849
133.392 9899 99.4937
133.509 9524 97.591
133.627 9157 95.6922
133.744 8690 93.2202
133.862 8272 90.9505
133.979 8137 90.2053
134.097 8251 90.835
134.214 8924 94.4669
134.332 8914 94.414
134.449 9058 95.1735
134.567 9276 96.312
134.684 9339 96.6385
134.802 9382 96.8607
134.919 9297 96.421
135.037 9283 96.3483
135.154 8985 94.7892
135.272 8687 93.2041
135.389 8676 93.145
135.507 8478 92.0761
135.624 8207 90.5925
135.742 7751 88.0398
135.859 7490 86.5448
135.977 7464 86.3944
136.094 7327 85.5979
136.211 7513 86.6776
136.329 7614 87.2582
136.446 7773 88.1646
136.564 7936 89.0842
136.681 7893 88.8426
136.798 7898 88.8707
136.915 8136 90.1998
137.033 7884 88.7919
137.15 7725 87.892
137.267 7370 85.8487
137.384 7146 84.534
137.502 6947 83.3487
137.619 6702 81.8657
137.736 7125 84.4097
137.853 7413 86.0988
137.97 7818 88.4195
138.087 8105 90.0278
138.204 8333 91.2853
138.321 8334 91.2907
138.438 8634 92.9193
138.555 8697 93.2577
138.672 8822 93.9255
138.788 8696 93.2523
138.905 8635 92.9247
139.022 8491 92.1466
139.139 8367 91.4713
139.255 8448 91.913
139.372 8216 90.6422
139.488 8075 89.861
139.605 8028 89.5991
139.721 8191 90.5041
139.838 8503 92.2117
139.954 8868 94.1701
140.071 8978 94.7523
140.187 9614 98.051
140.303 9542 97.6832
140.419 9667 98.3209
140.535 9630 98.1326
140.652 9699 98.4835
140.768 0 1
140.884 0 1
141 0 1
141.115 0 1
141.231 0 1
141.347 0 1
141.463 0 1
141.578 0 1
141.694 0 1
144.104 0 1
144.219 0 1
144.335 0 1
144.45 0 1
144.566 0 1
144.682 0 1
144.798 0 1
144.914 0 1
145.03 0 1
145.146 14510 120.457
145.262 15804 125.714
145.378 16883 129.935
145.494 17739 133.188
145.61 18435 135.776
145.726 19094 138.181
145.842 19539 139.782
145.959 19309 138.957
146.075 18893 137.452
146.192 18483 135.952
146.308 18357 135.488
146.425 19401 139.287
146.541 20630 143.631
146.658 22240 149.131
146.774 23650 153.786
146.891 24642 156.978
147.008 25650 160.156
147.125 26497 162.779
147.241 27162 164.809
147.358 27983 167.281
147.475 27663 166.322
147.592 27776 166.661
147.709 27099 164.618
147.826 27026 164.396
147.943 26651 163.251
148.06 25413 159.415
148.177 24959 157.984
148.294 24762 157.359
148.411 24662 157.041
148.528 25328 159.148
148.645 25749 160.465
148.762 26435 162.588
148.88 27061 164.502
148.997 28383 168.473
149.114 26009 161.273
149.231 27077 164.551
149.349 26653 163.257
149.466 26643 163.227
149.583 24669 157.064
149.701 23122 152.059
149.818 22091 148.63
149.935 21439 146.421
150.053 21596 146.956
150.17 22916 151.38
150.287 23829 154.366
150.405 24500 156.525
150.522 24826 157.563
150.64 25288 159.022
150.757 25981 161.186
150.875 26366 162.376
150.992 26111 161.589
151.11 26724 163.475
151.227 26041 161.372
151.344 25612 160.037
151.462 25529 159.778
151.579 24853 157.648
151.697 24575 156.764
151.814 24286 155.84
151.932 24178 155.493
152.049 24351 156.048
152.167 24935 157.908
152.284 26295 162.157
152.402 27107 164.642
152.519 28052 167.487
152.636 28371 168.437
152.754 28795 169.691
152.871 28764 169.6
152.989 28642 169.239
153.106 27520 165.892
153.223 26106 161.574
153.341 25066 158.322
153.458 23774 154.188
153.575 23782 154.214
153.693 24780 157.417
153.81 25741 160.44
153.927 27083 164.569
154.044 28028 167.416
154.162 28451 168.674
154.279 29412 171.499
154.396 30446 174.488
154.513 30753 175.365
154.63 31380 177.144
154.747 31407 177.22
154.864 31259 176.802
154.981 30739 175.325
155.098 30481 174.588
155.215 30421 174.416
155.332 29285 171.129
155.449 29334 171.272
155.566 29228 170.962
155.683 29807 172.647
155.8 30702 175.22
155.917 32116 179.209
156.033 33104 181.945
156.15 0 1
156.267 0 1
156.383 0 1
156.5 0 1
156.617 0 1
156.733 0 1
156.85 0 1
156.966 0 1
157.082 0 1
157.199 0 1
157.315 0 1
157.431 0 1
157.547 0 1
157.664 0 1
157.78 0 1
157.896 0 1
158.012 0 1
158.128 0 1
158.244 0 1
158.359 0 1
158.475 0 1
158.591 0 1
158.706 0 1
