
6.15755 0 1
6.2731 0 1
6.3887 0 1
6.50437 0 1
6.62009 0 1
6.73587 0 1
6.8517 0 1
6.96759 0 1
7.08353 0 1
7.19952 0 1
7.31557 0 1
7.43166 0 1
7.54781 0 1
7.664 0 1
7.78024 0 1
7.89653 0 1
8.01286 0 1
8.12924 0 1
8.24567 0 1
8.36213 0 1
8.47864 0 1
8.59519 0 1
8.71178 0 1
8.82841 0 1
8.94508 0 1
9.06179 0 1
9.17853 0 1
9.29531 0 1
9.41212 0 1
9.52897 0 1
9.64584 0 1
9.76276 0 1
9.8797 0 1
9.99667 0 1
10.1137 0 1
10.2307 0 1
10.3478 0 1
10.4648 0 1
10.5819 0 1
10.6991 0 1
10.8162 0 1
10.9334 0 1
11.0506 0 1
11.1678 0 1
11.285 0 1
11.4023 0 1
11.5196 0 1
11.6369 0 1
11.7542 0 1
11.8715 0 1
11.9888 0 1
12.1062 0 1
12.2235 0 1
12.3409 0 1
12.4582 0 1
12.5756 0 1
12.693 0 1
12.8104 0 1
12.9278 0 1
13.0452 0 1
13.1626 0 1
13.28 0 1
13.3974 0 1
13.5149 0 1
13.6323 0 1
13.7497 0 1
13.8671 0 1
13.9845 0 1
14.1019 0 1
14.2193 0 1
14.3367 0 1
14.4541 0 1
14.5714 0 1
14.6888 0 1
14.8062 0 1
14.9235 0 1
15.0408 0 0
15.1581 0 0
15.2755 0 0
15.3927 0 0
15.51 0 0
15.6273 0 0
15.7445 0 0
15.8617 0 0
15.9789 0 0
16.0961 0 0
16.2132 0 0
16.3304 0 0
16.4475 0 0
16.5646 0 0
16.6816 0 0
16.7986 0 0
16.9156 0 0
17.0326 0 0
17.1496 0 0
17.2665 0 0
17.3833 0 0
17.5002 0 0
17.617 0 0
17.7338 0 0
17.8505 0 0
17.9672 0 0
18.0839 0 0
18.2005 0 0
18.3171 0 0
18.4337 0 0
18.5502 0 0
18.6666 0 0
18.7831 0 0
18.8994 0 0
19.0158 0 0
19.1321 0 0
19.2483 0 0
19.3645 0 0
19.4806 0 0
19.5967 0 0
19.7128 0 0
19.8288 0 0
19.9447 0 0
20.0606 0 1
20.1764 0 1
20.2922 0 1
20.4079 0 1
20.5236 0 1
20.6392 0 1
20.7548 0 1
20.8702 0 1
23.3078 0 1
23.4233 0 1
23.539 0 1
23.6547 0 1
23.7704 0 1
23.8862 0 1
24.0021 0 1
24.118 0 1
24.234 0 1
24.35 0 1
24.4661 1331 36.4829
24.5822 1357 36.8375
24.6984 1275 35.7071
24.8146 1263 35.5387
24.9309 1372 37.0405
25.0472 1237 35.171
25.1636 1297 36.0139
25.28 1272 35.6651
25.3965 1284 35.8329
25.513 1319 36.318
25.6296 1280 35.7771
25.7462 1289 35.9026
25.8628 1296 36
25.9795 1388 37.2559
26.0962 1331 36.4829
26.213 1393 37.3229
26.3298 1334 36.524
26.4466 1296 36
26.5635 1322 36.3593
26.6804 1250 35.3553
26.7973 1243 35.2562
26.9143 1243 35.2562
27.0313 1320 36.3318
27.1483 1455 38.1445
27.2653 1378 37.1214
27.3824 1440 37.9473
27.4996 1422 37.7094
27.6167 1393 37.3229
27.7339 1365 36.9459
27.8511 1315 36.2629
27.9683 1379 37.1349
28.0855 1294 35.9722
28.2028 1297 36.0139
28.3201 1263 35.5387
28.4374 1248 35.327
28.5547 1223 34.9714
28.6721 1268 35.609
28.7894 1206 34.7275
28.9068 1188 34.4674
29.0242 1167 34.1614
29.1416 1155 33.9853
29.259 1208 34.7563
29.3764 1140 33.7639
29.4939 1250 35.3553
29.6113 1287 35.8748
29.7288 1185 34.4238
29.8463 1216 34.8712
29.9638 1194 34.5543
30.0812 1081 32.8786
30.1987 1192 34.5254
30.3162 1188 34.4674
30.4337 1216 34.8712
30.5512 1201 34.6554
30.6687 1317 36.2905
30.7862 1353 36.7831
30.9037 1255 35.426
31.0212 1375 37.081
31.1387 1273 35.6791
31.2562 1336 36.5513
31.3737 1282 35.805
31.4912 1275 35.7071
31.6087 1323 36.3731
31.7262 1268 35.609
31.8436 1285 35.8469
31.9611 1186 34.4384
32.0785 1269 35.623
32.1959 1202 34.6699
32.3134 1147 33.8674
32.4308 1088 32.9848
32.5482 1193 34.5398
32.6655 1168 34.176
32.7829 1193 34.5398
32.9002 1165 34.1321
33.0176 1163 34.1028
33.1349 1115 33.3916
33.2522 1217 34.8855
33.3694 1278 35.7491
33.4867 1206 34.7275
33.6039 1190 34.4964
33.7211 1139 33.7491
33.8383 1094 33.0757
33.9554 1142 33.7935
34.0725 1127 33.5708
34.1896 1234 35.1283
34.3067 1247 35.3129
34.4237 1261 35.5106
34.5407 1243 35.2562
34.6577 1362 36.9053
34.7746 1273 35.6791
34.8915 1292 35.9444
35.0084 1309 36.1801
35.1252 1283 35.819
35.242 1220 34.9285
35.3587 1241 35.2278
35.4755 1256 35.4401
35.5921 1235 35.1426
35.7088 1147 33.8674
35.8254 1113 33.3617
35.9419 1108 33.2866
36.0584 1045 32.3265
36.1749 1152 33.9411
36.2913 1112 33.3467
36.4077 1166 34.1467
36.524 1095 33.0908
36.6403 1119 33.4515
36.7565 1129 33.6006
36.8727 1127 33.5708
36.9889 1268 35.609
37.1049 1160 34.0588
37.221 0 1
37.3369 0 1
37.4529 0 1
37.5687 0 1
37.6845 0 1
37.8003 0 1
37.916 0 1
38.0316 0 1
38.1472 0 1
40.5851 0 1
40.7008 0 1
40.8164 0 1
40.9322 0 1
41.048 0 1
41.1639 0 1
41.2798 0 1
41.3958 0 1
41.5118 0 1
41.6279 0 1
41.744 805 28.3725
41.8602 839 28.9655
41.9765 864 29.3939
42.0928 922 30.3645
42.2091 953 30.8707
42.3255 901 30.0167
42.4419 881 29.6816
42.5584 935 30.5778
42.675 822 28.6705
42.7915 804 28.3549
42.9081 913 30.2159
43.0248 976 31.241
43.1415 937 30.6105
43.2582 947 30.7734
43.375 926 30.4302
43.4918 906 30.0998
43.6087 935 30.5778
43.7256 920 30.3315
43.8425 914 30.2324
43.9595 910 30.1662
44.0765 913 30.2159
44.1935 825 28.7228
44.3106 845 29.0689
44.4277 822 28.6705
44.5448 790 28.1069
44.6619 714 26.7208
44.7791 670 25.8844
44.8963 629 25.0799
45.0136 666 25.807
45.1308 641 25.318
45.2481 643 25.3574
45.3654 671 25.9037
45.4827 658 25.6515
45.6001 684 26.1534
45.7174 666 25.807
45.8348 691 26.2869
45.9522 692 26.3059
46.0697 659 25.671
46.1871 644 25.3772
46.3046 622 24.9399
46.422 624 24.98
46.5395 638 25.2587
46.657 660 25.6905
46.7745 718 26.7955
46.892 644 25.3772
47.0096 704 26.533
47.1271 677 26.0192
47.2446 699 26.4386
47.3622 634 25.1794
47.4797 628 25.0599
47.5973 632 25.1396
47.7149 613 24.7588
47.8324 568 23.8328
47.95 587 24.2281
48.0675 454 21.3073
48.1851 489 22.1133
48.3027 457 21.3776
48.4202 441 21
48.5378 452 21.2603
48.6554 480 21.9089
48.7729 418 20.445
48.8904 453 21.2838
49.008 525 22.9129
49.1255 520 22.8035
49.243 557 23.6008
49.3605 479 21.8861
49.478 520 22.8035
49.5955 517 22.7376
49.713 444 21.0713
49.8304 463 21.5174
49.9479 470 21.6795
50.0653 544 23.3238
50.1827 554 23.5372
50.3001 599 24.4745
50.4175 621 24.9199
50.5348 616 24.8193
50.6521 664 25.7682
50.7694 659 25.671
50.8867 715 26.7395
51.004 687 26.2107
51.1212 654 25.5734
51.2384 747 27.3313
51.3556 680 26.0768
51.4727 690 26.2679
51.5899 613 24.7588
51.707 654 25.5734
51.824 611 24.7184
51.9411 653 25.5539
52.0581 633 25.1595
52.175 631 25.1197
52.2919 670 25.8844
52.4088 731 27.037
52.5257 757 27.5136
52.6425 766 27.6767
52.7593 868 29.4618
52.876 815 28.5482
52.9927 846 29.0861
53.1094 870 29.4958
53.226 832 28.8444
53.3426 866 29.4279
53.4591 835 28.8964
53.5756 897 29.95
53.692 948 30.7896
53.8084 975 31.225
53.9248 967 31.0966
54.0411 1058 32.5269
54.1573 1064 32.619
54.2735 0 1
54.3896 0 1
54.5057 0 1
54.6217 0 1
54.7377 0 1
54.8537 0 1
54.9695 0 1
55.0853 0 1
55.2011 0 1
55.3168 0 1
55.4324 0 1
57.824 0 1
57.9396 0 1
58.0553 0 1
58.1711 0 1
58.2869 0 1
58.4028 0 1
58.5187 0 1
58.6347 0 1
58.7508 0 1
58.8669 0 1
58.983 1163 34.1028
59.0992 1127 33.5708
59.2155 1228 35.0428
59.3318 1226 35.0143
59.4482 1221 34.9428
59.5646 1297 36.0139
59.681 1219 34.9142
59.7975 1212 34.8138
59.9141 1158 34.0294
60.0306 1082 32.8938
60.1473 1069 32.6956
60.2639 1023 31.9844
60.3807 904 30.0666
60.4974 807 28.4077
60.6142 841 29
60.731 892 29.8664
60.8479 868 29.4618
60.9648 854 29.2233
61.0818 960 30.9839
61.1987 937 30.6105
61.3158 977 31.257
61.4328 1008 31.749
61.5499 995 31.5436
61.667 945 30.7409
61.7841 918 30.2985
61.9013 938 30.6268
62.0185 983 31.3528
62.1357 1012 31.8119
62.253 1006 31.7175
62.3702 993 31.5119
62.4875 1117 33.4215
62.6049 1144 33.8231
62.7222 1204 34.6987
62.8396 1147 33.8674
62.9569 1173 34.2491
63.0743 1232 35.0999
63.1918 1122 33.4963
63.3092 1089 33
63.4267 1153 33.9559
63.5441 1058 32.5269
63.6616 983 31.3528
63.7791 960 30.9839
63.8966 862 29.3598
64.0142 854 29.2233
64.1317 795 28.1957
64.2492 829 28.7924
64.3668 853 29.2062
64.4843 877 29.6142
64.6019 966 31.0805
64.7195 968 31.1127
64.837 999 31.607
64.9546 1050 32.4037
65.0722 997 31.5753
65.1898 1002 31.6544
65.3074 994 31.5278
65.4249 965 31.0644
65.5425 920 30.3315
65.6601 993 31.5119
65.7777 1048 32.3728
65.8952 1069 32.6956
66.0128 1108 33.2866
66.1304 1195 34.5688
66.2479 1221 34.9428
66.3655 1210 34.7851
66.483 1169 34.1906
66.6005 1263 35.5387
66.718 1212 34.8138
66.8355 1222 34.9571
66.953 1139 33.7491
67.0705 1113 33.3617
67.1879 1078 32.8329
67.3054 1056 32.4962
67.4228 933 30.545
67.5402 845 29.0689
67.6576 819 28.6182
67.7749 812 28.4956
67.8923 784 28
68.0096 775 27.8388
68.1269 881 29.6816
68.2442 923 30.3809
68.3614 987 31.4166
68.4787 1035 32.1714
68.5958 1065 32.6343
68.713 996 31.5595
68.8302 947 30.7734
68.9473 913 30.2159
69.0643 971 31.1609
69.1814 915 30.249
69.2984 986 31.4006
69.4154 997 31.5753
69.5323 1053 32.45
69.6492 1069 32.6956
69.7661 1138 33.7343
69.8829 1147 33.8674
69.9997 1191 34.5109
70.1165 1199 34.6266
70.2332 1227 35.0286
70.3499 1232 35.0999
70.4665 1220 34.9285
70.5831 1188 34.4674
70.6996 1052 32.4345
70.8161 996 31.5595
70.9326 908 30.133
71.049 854 29.2233
71.1653 822 28.6705
71.2817 752 27.4226
71.3979 755 27.4773
71.5141 734 27.0924
71.6303 717 26.7769
71.7464 734 27.0924
71.8624 0 1
71.9784 0 1
72.0944 0 1
72.2102 0 1
72.3261 0 1
72.4418 0 1
72.5575 0 1
72.6732 0 1
75.1054 0 1
75.2209 0 1
75.3365 0 1
75.4521 0 1
75.5678 0 1
75.6835 0 1
75.7993 0 1
75.9151 0 1
76.031 0 1
76.147 902 30.0333
76.263 972 31.1769
76.3791 917 30.282
76.4952 807 28.4077
76.6113 805 28.3725
76.7276 703 26.5141
76.8438 789 28.0891
76.9601 784 28
77.0765 827 28.7576
77.1929 930 30.4959
77.3093 1011 31.7962
77.4258 1073 32.7567
77.5423 1068 32.6803
77.6589 1048 32.3728
77.7755 996 31.5595
77.8921 981 31.3209
78.0088 943 30.7083
78.1256 977 31.257
78.2423 962 31.0161
78.3591 932 30.5287
78.4759 975 31.225
78.5928 1059 32.5423
78.7097 1049 32.3883
78.8266 1114 33.3766
78.9436 1205 34.7131
79.0606 1164 34.1174
79.1776 1245 35.2846
79.2946 1260 35.4965
79.4117 1196 34.5832
79.5288 1153 33.9559
79.6459 1118 33.4365
79.7631 1024 32
79.8802 941 30.6757
79.9974 848 29.1204
80.1147 717 26.7769
80.2319 687 26.2107
80.3491 721 26.8514
80.4664 673 25.9422
80.5837 708 26.6083
80.701 724 26.9072
80.8183 794 28.178
80.9357 806 28.3901
81.053 904 30.0666
81.1704 978 31.273
81.2877 858 29.2916
81.4051 839 28.9655
81.5225 851 29.1719
81.6399 822 28.6705
81.7573 802 28.3196
81.8747 783 27.9821
81.9922 773 27.8029
82.1096 802 28.3196
82.227 891 29.8496
82.3444 934 30.5614
82.4619 953 30.8707
82.5793 968 31.1127
82.6967 986 31.4006
82.8142 941 30.6757
82.9316 1052 32.4345
83.049 938 30.6268
83.1664 1007 31.7333
83.2838 897 29.95
83.4012 791 28.1247
83.5186 742 27.2397
83.636 711 26.6646
83.7534 627 25.04
83.8708 632 25.1396
83.9881 577 24.0208
84.1055 541 23.2594
84.2228 597 24.4336
84.3401 643 25.3574
84.4575 672 25.923
84.5747 798 28.2489
84.692 823 28.688
84.8093 783 27.9821
84.9265 801 28.3019
85.0437 784 28
85.1609 748 27.3496
85.2781 781 27.9464
85.3952 778 27.8927
85.5123 738 27.1662
85.6294 779 27.9106
85.7465 804 28.3549
85.8636 888 29.7993
85.9806 900 30
86.0976 1001 31.6386
86.2145 996 31.5595
86.3315 1096 33.1059
86.4484 1067 32.665
86.5652 1114 33.3766
86.682 1122 33.4963
86.7988 1076 32.8024
86.9156 990 31.4643
87.0323 916 30.2655
87.149 869 29.4788
87.2657 829 28.7924
87.3823 674 25.9615
87.4988 624 24.98
87.6154 708 26.6083
87.7318 759 27.55
87.8483 737 27.1477
87.9647 866 29.4279
88.081 913 30.2159
88.1973 950 30.8221
88.3136 1069 32.6956
88.4298 1090 33.0151
88.546 1011 31.7962
88.6621 997 31.5753
88.7781 933 30.545
88.8942 0 1
89.0101 0 1
89.126 0 1
89.2419 0 1
89.3577 0 1
89.4734 0 1
89.5891 0 1
89.7047 0 1
89.8203 0 1
89.9358 0 1
92.3269 0 1
92.4424 0 1
92.558 0 1
92.6736 0 1
92.7893 0 1
92.905 0 1
93.0208 0 1
93.1366 0 1
93.2525 0 1
93.3685 0 1
93.4845 0 1
93.6005 987 31.4166
93.7167 1007 31.7333
93.8328 1080 32.8634
93.949 985 31.3847
94.0653 952 30.8545
94.1816 975 31.225
94.2979 936 30.5941
94.4143 929 30.4795
94.5307 969 31.1288
94.6472 945 30.7409
94.7637 982 31.3369
94.8803 1055 32.4808
94.9969 1168 34.176
95.1135 1185 34.4238
95.2302 1127 33.5708
95.3469 1212 34.8138
95.4637 1246 35.2987
95.5805 1180 34.3511
95.6973 1261 35.5106
95.8142 1198 34.6121
95.9311 1196 34.5832
96.048 1088 32.9848
96.1649 1073 32.7567
96.2819 983 31.3528
96.3989 885 29.7489
96.516 780 27.9285
96.633 760 27.5681
96.7501 723 26.8887
96.8673 749 27.3679
96.9844 809 28.4429
97.1016 866 29.4279
97.2188 908 30.133
97.336 1025 32.0156
97.4532 1011 31.7962
97.5704 1045 32.3265
97.6877 1042 32.28
97.805 968 31.1127
97.9223 1000 31.6228
98.0396 953 30.8707
98.1569 942 30.692
98.2743 930 30.4959
98.3916 945 30.7409
98.509 1080 32.8634
98.6264 1069 32.6956
98.7438 1149 33.8969
98.8612 1197 34.5977
98.9786 1235 35.1426
99.096 1281 35.7911
99.2134 1220 34.9285
99.3308 1271 35.6511
99.4482 1197 34.5977
99.5656 1194 34.5543
99.6831 1139 33.7491
99.8005 1098 33.1361
99.9179 988 31.4325
100.035 877 29.6142
100.153 847 29.1033
100.27 791 28.1247
100.388 735 27.1109
100.505 884 29.7321
100.622 888 29.7993
100.74 898 29.9666
100.857 1037 32.2025
100.975 1078 32.8329
101.092 1055 32.4808
101.209 1049 32.3883
101.327 1035 32.1714
101.444 1041 32.2645
101.561 1020 31.9374
101.679 967 31.0966
101.796 997 31.5753
101.913 1005 31.7017
102.03 1093 33.0606
102.148 1078 32.8329
102.265 1127 33.5708
102.382 1228 35.0428
102.499 1288 35.8887
102.616 1288 35.8887
102.733 1341 36.6197
102.851 1283 35.819
102.968 1267 35.5949
103.085 1277 35.7351
103.202 1206 34.7275
103.319 1150 33.9116
103.436 1082 32.8938
103.552 960 30.9839
103.669 886 29.7658
103.786 804 28.3549
103.903 816 28.5657
104.02 837 28.931
104.137 899 29.9833
104.253 1017 31.8904
104.37 1090 33.0151
104.487 1110 33.3167
104.603 1100 33.1662
104.72 1113 33.3617
104.836 1064 32.619
104.953 1125 33.541
105.069 1030 32.0936
105.186 1141 33.7787
105.302 1119 33.4515
105.418 1173 34.2491
105.535 1151 33.9264
105.651 1231 35.0856
105.767 1333 36.5103
105.883 1399 37.4032
105.999 1400 37.4166
106.115 0 1
106.231 0 1
106.347 0 1
106.463 0 1
106.579 0 1
106.694 0 1
106.81 0 1
106.926 0 1
107.041 0 1
107.157 0 1
109.576 0 1
109.692 0 1
109.807 0 1
109.923 0 1
110.039 0 1
110.155 0 1
110.27 0 1
110.386 0 1
110.502 0 1
110.618 1102 33.1964
110.735 1139 33.7491
110.851 1313 36.2353
110.967 1280 35.7771
111.083 1321 36.3456
111.199 1361 36.8917
111.316 1440 37.9473
111.432 1343 36.647
111.549 1248 35.327
111.665 1310 36.1939
111.782 1207 34.7419
111.898 1145 33.8378
112.015 1094 33.0757
112.132 1030 32.0936
112.248 935 30.5778
112.365 878 29.6311
112.482 790 28.1069
112.599 878 29.6311
112.716 948 30.7896
112.832 992 31.496
112.949 969 31.1288
113.066 1043 32.2955
113.183 1053 32.45
113.3 1024 32
113.417 1022 31.9687
113.534 1020 31.9374
113.652 1002 31.6544
113.769 1066 32.6497
113.886 1048 32.3728
114.003 1075 32.7872
114.12 1107 33.2716
114.238 1162 34.0881
114.355 1247 35.3129
114.472 1257 35.4542
114.589 1287 35.8748
114.707 1298 36.0278
114.824 1334 36.524
114.942 1315 36.2629
115.059 1356 36.8239
115.176 1208 34.7563
115.294 1276 35.7211
115.411 1157 34.0147
115.529 1178 34.322
115.646 1087 32.9697
115.764 997 31.5753
115.881 891 29.8496
115.999 879 29.6479
116.116 926 30.4302
116.234 1012 31.8119
116.351 1031 32.1092
116.469 1081 32.8786
116.586 1136 33.7046
116.704 1162 34.0881
116.821 1129 33.6006
116.939 1051 32.4191
117.056 1119 33.4515
117.174 1110 33.3167
117.291 1105 33.2415
117.409 1141 33.7787
117.526 1167 34.1614
117.644 1163 34.1028
117.761 1249 35.3412
117.879 1358 36.8511
117.996 1345 36.6742
118.114 1358 36.8511
118.231 1424 37.7359
118.349 1431 37.8286
118.466 1485 38.5357
118.584 1408 37.5233
118.701 1426 37.7624
118.819 1386 37.229
118.936 1282 35.805
119.053 1229 35.0571
119.171 1193 34.5398
119.288 1146 33.8526
119.405 1046 32.3419
119.523 958 30.9516
119.64 893 29.8831
119.757 998 31.5911
119.875 1016 31.8748
119.992 1104 33.2265
120.109 1082 32.8938
120.226 1099 33.1512
120.343 1052 32.4345
120.46 1074 32.7719
120.578 1003 31.6702
120.695 1058 32.5269
120.812 1134 33.6749
120.929 1138 33.7343
121.046 1113 33.3617
121.163 1112 33.3467
121.279 1218 34.8999
121.396 1297 36.0139
121.513 1282 35.805
121.63 1305 36.1248
121.747 1360 36.8782
121.863 1403 37.4566
121.98 1340 36.606
122.097 1432 37.8418
122.213 1448 38.0526
122.33 1396 37.3631
122.446 1322 36.3593
122.563 1346 36.6879
122.679 1235 35.1426
122.795 1246 35.2987
122.912 1083 32.909
123.028 1119 33.4515
123.144 1030 32.0936
123.26 908 30.133
123.377 0 1
123.493 0 1
123.609 0 1
123.725 0 1
123.84 0 1
123.956 0 1
124.072 0 1
124.188 0 1
124.303 0 1
124.419 0 1
126.852 0 1
126.968 0 1
127.083 0 1
127.199 0 1
127.315 0 1
127.431 0 1
127.547 0 1
127.663 0 1
127.779 0 1
127.895 0 1
128.011 0 1
128.127 0 1
128.243 0 1
128.359 1193 34.5398
128.476 1018 31.9061
128.592 1048 32.3728
128.708 1019 31.9218
128.825 1167 34.1614
128.941 1153 33.9559
129.058 1189 34.4819
129.174 1150 33.9116
129.291 1148 33.8821
129.408 1181 34.3657
129.524 1140 33.7639
129.641 1161 34.0735
129.758 1174 34.2637
129.875 1215 34.8569
129.992 1210 34.7851
130.108 1265 35.5668
130.225 1340 36.606
130.342 1328 36.4417
130.459 1304 36.1109
130.576 1383 37.1887
130.693 1360 36.8782
130.81 1397 37.3765
130.928 1401 37.4299
131.045 1386 37.229
131.162 1509 38.8458
131.279 1415 37.6165
131.396 1411 37.5633
131.513 1346 36.6879
131.631 1352 36.7696
131.748 1246 35.2987
131.865 1135 33.6898
131.983 1067 32.665
132.1 1027 32.0468
132.217 1092 33.0454
132.335 1129 33.6006
132.452 1111 33.3317
132.57 1204 34.6987
132.687 1185 34.4238
132.804 1139 33.7491
132.922 1184 34.4093
133.039 1135 33.6898
133.157 1158 34.0294
133.274 1171 34.2199
133.392 1131 33.6303
133.509 1256 35.4401
133.627 1254 35.4119
133.744 1225 35
133.862 1283 35.819
133.979 1332 36.4966
134.097 1333 36.5103
134.214 1324 36.3868
134.332 1365 36.9459
134.449 1411 37.5633
134.567 1373 37.054
134.684 1473 38.3797
134.802 1419 37.6696
134.919 1462 38.2361
135.037 1404 37.47
135.154 1419 37.6696
135.272 1359 36.8646
135.389 1269 35.623
135.507 1156 34
135.624 1071 32.7261
135.742 1117 33.4215
135.859 1136 33.7046
135.977 1133 33.6601
136.094 1224 34.9857
136.211 1257 35.4542
136.329 1233 35.1141
136.446 1194 34.5543
136.564 1179 34.3366
136.681 1214 34.8425
136.798 1194 34.5543
136.915 1181 34.3657
137.033 1232 35.0999
137.15 1236 35.1568
137.267 1259 35.4824
137.384 1340 36.606
137.502 1335 36.5377
137.619 1305 36.1248
137.736 1334 36.524
137.853 1316 36.2767
137.97 1339 36.5923
138.087 1321 36.3456
138.204 1366 36.9594
138.321 1317 36.2905
138.438 1397 37.3765
138.555 1358 36.8511
138.672 1437 37.9078
138.788 1323 36.3731
138.905 1311 36.2077
139.022 1272 35.6651
139.139 1197 34.5977
139.255 1092 33.0454
139.372 1196 34.5832
139.488 1119 33.4515
139.605 1207 34.7419
139.721 1219 34.9142
139.838 1214 34.8425
139.954 1210 34.7851
140.071 1189 34.4819
140.187 1188 34.4674
140.303 1146 33.8526
140.419 1134 33.6749
140.535 1127 33.5708
140.652 1195 34.5688
140.768 0 1
140.884 0 1
141 0 1
141.115 0 1
141.231 0 1
141.347 0 1
141.463 0 1
141.578 0 1
141.694 0 1
144.104 0 1
144.219 0 1
144.335 0 1
144.45 0 1
144.566 0 1
144.682 0 1
144.798 0 1
144.914 0 1
145.03 0 1
145.146 879 29.6479
145.262 925 30.4138
145.378 888 29.7993
145.494 909 30.1496
145.61 893 29.8831
145.726 974 31.209
145.842 925 30.4138
145.959 981 31.3209
146.075 1007 31.7333
146.192 956 30.9192
146.308 952 30.8545
146.425 1018 31.9061
146.541 1026 32.0312
146.658 1026 32.0312
146.774 1047 32.3574
146.891 1038 32.218
147.008 1059 32.5423
147.125 1110 33.3167
147.241 1058 32.5269
147.358 1071 32.7261
147.475 1131 33.6303
147.592 1044 32.311
147.709 1085 32.9393
147.826 1040 32.249
147.943 997 31.5753
148.06 978 31.273
148.177 900 30
148.294 912 30.1993
148.411 945 30.7409
148.528 954 30.8869
148.645 1023 31.9844
148.762 1023 31.9844
148.88 1052 32.4345
148.997 952 30.8545
149.114 1007 31.7333
149.231 991 31.4802
149.349 995 31.5436
149.466 1022 31.9687
149.583 965 31.0644
149.701 1010 31.7805
149.818 988 31.4325
149.935 1003 31.6702
150.053 1021 31.9531
150.17 1072 32.7414
150.287 1065 32.6343
150.405 1044 32.311
150.522 1130 33.6155
150.64 1089 33
150.757 1070 32.7109
150.875 1178 34.322
150.992 1137 33.7194
151.11 1149 33.8969
151.227 1116 33.4066
151.344 1087 32.9697
151.462 1086 32.9545
151.579 1054 32.4654
151.697 961 31
151.814 937 30.6105
151.932 956 30.9192
152.049 914 30.2324
152.167 1022 31.9687
152.284 1050 32.4037
152.402 1013 31.8277
152.519 1011 31.7962
152.636 1082 32.8938
152.754 1092 33.0454
152.871 1038 32.218
152.989 1065 32.6343
153.106 1058 32.5269
153.223 1051 32.4191
153.341 1057 32.5115
153.458 1012 31.8119
153.575 1082 32.8938
153.693 1091 33.0303
153.81 1124 33.5261
153.927 1181 34.3657
154.044 1084 32.9242
154.162 1182 34.3802
154.279 1164 34.1174
154.396 1117 33.4215
154.513 1165 34.1321
154.63 1269 35.623
154.747 1232 35.0999
154.864 1298 36.0278
154.981 1273 35.6791
155.098 1236 35.1568
155.215 1293 35.9583
155.332 1132 33.6452
155.449 1086 32.9545
155.566 1106 33.2566
155.683 1150 33.9116
155.8 1176 34.2929
155.917 1223 34.9714
156.033 1143 33.8083
156.15 0 1
156.267 0 1
156.383 0 1
156.5 0 1
156.617 0 1
156.733 0 1
156.85 0 1
156.966 0 1
157.082 0 1
157.199 0 1
157.315 0 1
157.431 0 1
157.547 0 1
157.664 0 1
157.78 0 1
157.896 0 1
158.012 0 1
158.128 0 1
158.244 0 1
158.359 0 1
158.475 0 1
158.591 0 1
158.706 0 1
