
6.15755 0 1
6.2731 0 1
6.3887 0 1
6.50437 0 1
6.62009 0 1
6.73587 0 1
6.8517 0 1
6.96759 0 1
7.08353 0 1
7.19952 0 1
7.31557 0 1
7.43166 0 1
7.54781 0 1
7.664 0 1
7.78024 0 1
7.89653 0 1
8.01286 0 1
8.12924 0 1
8.24567 0 1
8.36213 0 1
8.47864 0 1
8.59519 0 1
8.71178 0 1
8.82841 0 1
8.94508 0 1
9.06179 0 1
9.17853 0 1
9.29531 0 1
9.41212 0 1
9.52897 0 1
9.64584 0 1
9.76276 0 1
9.8797 0 1
9.99667 0 1
10.1137 0 1
10.2307 0 1
10.3478 0 1
10.4648 0 1
10.5819 0 1
10.6991 0 1
10.8162 0 1
10.9334 0 1
11.0506 0 1
11.1678 0 1
11.285 0 1
11.4023 0 1
11.5196 0 1
11.6369 0 1
11.7542 0 1
11.8715 0 1
11.9888 0 1
12.1062 0 1
12.2235 0 1
12.3409 0 1
12.4582 0 1
12.5756 0 1
12.693 0 1
12.8104 0 1
12.9278 0 1
13.0452 0 1
13.1626 0 1
13.28 0 1
13.3974 0 1
13.5149 0 1
13.6323 0 1
13.7497 0 1
13.8671 0 1
13.9845 0 1
14.1019 0 1
14.2193 0 1
14.3367 0 1
14.4541 0 1
14.5714 0 1
14.6888 0 1
14.8062 0 1
14.9235 0 1
15.0408 9028 95.0158
15.1581 9499 97.4628
15.2755 9286 96.3639
15.3927 9460 97.2625
15.51 9616 98.0612
15.6273 9598 97.9694
15.7445 9634 98.1529
15.8617 9242 96.1353
15.9789 9249 96.1717
16.0961 9310 96.4883
16.2132 8794 93.7763
16.3304 9086 95.3205
16.4475 9321 96.5453
16.5646 9316 96.5194
16.6816 9707 98.5241
16.7986 9656 98.2649
16.9156 9611 98.0357
17.0326 9662 98.2955
17.1496 9631 98.1377
17.2665 9424 97.0773
17.3833 9262 96.2393
17.5002 9168 95.7497
17.617 8974 94.7312
17.7338 8770 93.6483
17.8505 9042 95.0894
17.9672 9358 96.7368
18.0839 9752 98.7522
18.2005 10038 100.19
18.3171 10322 101.597
18.4337 10480 102.372
18.5502 10666 103.276
18.6666 10850 104.163
18.7831 10585 102.883
18.8994 10633 103.116
19.0158 10371 101.838
19.1321 10220 101.094
19.2483 9744 98.7117
19.3645 9527 97.6064
19.4806 9129 95.5458
19.5967 8723 93.397
19.7128 8524 92.3255
19.8288 8652 93.0161
19.9447 7672 87.59
20.0606 0 1
20.1764 0 1
20.2922 0 1
20.4079 0 1
20.5236 0 1
20.6392 0 1
20.7548 0 1
20.8702 0 1
23.3078 0 1
23.4233 0 1
23.539 0 1
23.6547 0 1
23.7704 0 1
23.8862 0 1
24.0021 0 1
24.118 0 1
24.234 0 1
24.35 0 1
24.4661 8991 94.8209
24.5822 8864 94.1488
24.6984 8740 93.488
24.8146 8586 92.6607
24.9309 8694 93.2416
25.0472 8960 94.6573
25.1636 9198 95.9062
25.28 9632 98.1428
25.3965 9779 98.8888
25.513 9936 99.6795
25.6296 10158 100.787
25.7462 10241 101.198
25.8628 10235 101.168
25.9795 10047 100.235
26.0962 9815 99.0707
26.213 9470 97.3139
26.3298 9184 95.8332
26.4466 9144 95.6243
26.5635 9105 95.4201
26.6804 9301 96.4417
26.7973 9747 98.7269
26.9143 9532 97.632
27.0313 9766 98.8231
27.1483 10231 101.148
27.2653 10329 101.632
27.3824 10244 101.213
27.4996 10212 101.054
27.6167 10099 100.494
27.7339 9937 99.6845
27.8511 9929 99.6444
27.9683 9563 97.7906
28.0855 9318 96.5298
28.2028 9083 95.3048
28.3201 8660 93.0591
28.4374 8770 93.6483
28.5547 8751 93.5468
28.6721 8611 92.7955
28.7894 9094 95.3625
28.9068 9473 97.3293
29.0242 9556 97.7548
29.1416 9753 98.7573
29.259 9691 98.4429
29.3764 9493 97.432
29.4939 9355 96.7212
29.6113 9395 96.9278
29.7288 8915 94.4193
29.8463 8703 93.2899
29.9638 8602 92.747
30.0812 8492 92.152
30.1987 8894 94.308
30.3162 9141 95.6086
30.4337 9121 95.5039
30.5512 9291 96.3898
30.6687 9398 96.9433
30.7862 9834 99.1665
30.9037 9619 98.0765
31.0212 9943 99.7146
31.1387 9987 99.935
31.2562 9881 99.4032
31.3737 9403 96.9691
31.4912 9429 97.103
31.6087 9336 96.623
31.7262 9071 95.2418
31.8436 8868 94.1701
31.9611 8431 91.8205
32.0785 8409 91.7006
32.1959 8506 92.228
32.3134 8835 93.9947
32.4308 8978 94.7523
32.5482 9414 97.0258
32.6655 9269 96.2756
32.7829 9453 97.2265
32.9002 9487 97.4012
33.0176 9156 95.687
33.1349 9294 96.4054
33.2522 9319 96.535
33.3694 8821 93.9202
33.4867 8752 93.5521
33.6039 8468 92.0217
33.7211 8257 90.868
33.8383 8392 91.6079
33.9554 8540 92.4121
34.0725 8841 94.0266
34.1896 9123 95.5144
34.3067 9267 96.2653
34.4237 9332 96.6023
34.5407 9430 97.1082
34.6577 9466 97.2934
34.7746 9544 97.6934
34.8915 9589 97.9234
35.0084 9468 97.3036
35.1252 9130 95.551
35.242 9026 95.0053
35.3587 9024 94.9947
35.4755 8665 93.086
35.5921 8280 90.9945
35.7088 8072 89.8443
35.8254 7842 88.5551
35.9419 8045 89.6939
36.0584 8176 90.4212
36.1749 8561 92.5257
36.2913 8721 93.3863
36.4077 8939 94.5463
36.524 8882 94.2444
36.6403 8919 94.4405
36.7565 8901 94.3451
36.8727 8953 94.6203
36.9889 8523 92.3201
37.1049 8349 91.3729
37.221 0 1
37.3369 0 1
37.4529 0 1
37.5687 0 1
37.6845 0 1
37.8003 0 1
37.916 0 1
38.0316 0 1
38.1472 0 1
40.5851 0 1
40.7008 0 1
40.8164 0 1
40.9322 0 1
41.048 0 1
41.1639 0 1
41.2798 0 1
41.3958 0 1
41.5118 0 1
41.6279 0 1
41.744 7214 84.9353
41.8602 7521 86.7237
41.9765 7679 87.6299
42.0928 7697 87.7325
42.2091 7670 87.5785
42.3255 7569 87
42.4419 7173 84.6936
42.5584 6931 83.2526
42.675 6974 83.5105
42.7915 6817 82.5651
42.9081 6997 83.6481
43.0248 7187 84.7762
43.1415 7452 86.325
43.2582 7416 86.1162
43.375 7652 87.4757
43.4918 7589 87.1149
43.6087 7895 88.8538
43.7256 7513 86.6776
43.8425 7470 86.4292
43.9595 7186 84.7703
44.0765 7330 85.6154
44.1935 6948 83.3547
44.3106 6759 82.2131
44.4277 6450 80.3119
44.5448 6027 77.6338
44.6619 5945 77.1038
44.7791 5809 76.2168
44.8963 5863 76.5702
45.0136 6027 77.6338
45.1308 5913 76.896
45.2481 6189 78.6702
45.3654 6335 79.5927
45.4827 6108 78.1537
45.6001 6145 78.3901
45.7174 6111 78.1729
45.8348 6084 78
45.9522 5812 76.2365
46.0697 5483 74.0473
46.1871 5411 73.5595
46.3046 5075 71.239
46.422 5175 71.9375
46.5395 5516 74.2698
46.657 5687 75.4122
46.7745 5837 76.4003
46.892 5749 75.8222
47.0096 5586 74.7395
47.1271 5855 76.518
47.2446 5862 76.5637
47.3622 5755 75.8617
47.4797 5814 76.2496
47.5973 5725 75.6637
47.7149 5572 74.6458
47.8324 5349 73.1369
47.95 5210 72.1803
48.0675 4944 70.3136
48.1851 4810 69.3542
48.3027 4744 68.8767
48.4202 4577 67.6535
48.5378 4634 68.0735
48.6554 4883 69.8785
48.7729 5082 71.2881
48.8904 5144 71.7217
49.008 5379 73.3417
49.1255 5273 72.6154
49.243 5465 73.9256
49.3605 5329 73
49.478 5140 71.6938
49.5955 4928 70.1997
49.713 4878 69.8427
49.8304 4955 70.3918
49.9479 4878 69.8427
50.0653 5196 72.0833
50.1827 5297 72.7805
50.3001 5571 74.6391
50.4175 5916 76.9155
50.5348 5861 76.5572
50.6521 6117 78.2113
50.7694 6266 79.1581
50.8867 6392 79.95
51.004 6431 80.1935
51.1212 6307 79.4166
51.2384 6526 80.7837
51.3556 6267 79.1644
51.4727 6418 80.1124
51.5899 6344 79.6492
51.707 6168 78.5366
51.824 6158 78.4729
51.9411 6135 78.3262
52.0581 6544 80.895
52.175 6807 82.5045
52.2919 6915 83.1565
52.4088 7261 85.2115
52.5257 7517 86.7006
52.6425 7573 87.023
52.7593 7784 88.227
52.876 7956 89.1964
52.9927 8004 89.4651
53.1094 7880 88.7694
53.226 7440 86.2554
53.3426 7268 85.2526
53.4591 6980 83.5464
53.5756 7165 84.6463
53.692 7643 87.4243
53.8084 8136 90.1998
53.9248 8291 91.0549
54.0411 8662 93.0699
54.1573 8732 93.4452
54.2735 0 1
54.3896 0 1
54.5057 0 1
54.6217 0 1
54.7377 0 1
54.8537 0 1
54.9695 0 1
55.0853 0 1
55.2011 0 1
55.3168 0 1
55.4324 0 1
57.824 0 1
57.9396 0 1
58.0553 0 1
58.1711 0 1
58.2869 0 1
58.4028 0 1
58.5187 0 1
58.6347 0 1
58.7508 0 1
58.8669 0 1
58.983 9306 96.4676
59.0992 10331 101.642
59.2155 10463 102.289
59.3318 10893 104.37
59.4482 10935 104.571
59.5646 11050 105.119
59.681 11061 105.171
59.7975 11045 105.095
59.9141 11120 105.451
60.0306 11055 105.143
60.1473 10825 104.043
60.2639 10308 101.528
60.3807 10186 100.926
60.4974 9630 98.1326
60.6142 9425 97.0824
60.731 9232 96.0833
60.8479 9458 97.2522
60.9648 9703 98.5038
61.0818 9845 99.222
61.1987 10047 100.235
61.3158 10360 101.784
61.4328 10684 103.363
61.5499 10667 103.281
61.667 10434 102.147
61.7841 10214 101.064
61.9013 9733 98.656
62.0185 9307 96.4728
62.1357 9007 94.9052
62.253 8916 94.4246
62.3702 9231 96.0781
62.4875 9600 97.9796
62.6049 9688 98.4276
62.7222 9997 99.985
62.8396 10180 100.896
62.9569 10184 100.916
63.0743 10254 101.262
63.1918 10122 100.608
63.3092 10199 100.99
63.4267 9930 99.6494
63.5441 9764 98.813
63.6616 9632 98.1428
63.7791 9557 97.7599
63.8966 9219 96.0156
64.0142 8937 94.5357
64.1317 8416 91.7388
64.2492 8289 91.0439
64.3668 8541 92.4175
64.4843 8607 92.7739
64.6019 8970 94.7101
64.7195 9402 96.9639
64.837 9440 97.1597
64.9546 9723 98.6053
65.0722 9788 98.9343
65.1898 9656 98.2649
65.3074 9731 98.6458
65.4249 9218 96.0104
65.5425 8980 94.7629
65.6601 8438 91.8586
65.7777 8369 91.4822
65.8952 8438 91.8586
66.0128 8697 93.2577
66.1304 9077 95.2733
66.2479 9465 97.2882
66.3655 9577 97.8621
66.483 9705 98.514
66.6005 9852 99.2572
66.718 9960 99.7998
66.8355 10102 100.509
66.953 10126 100.628
67.0705 9934 99.6695
67.1879 10107 100.534
67.3054 9922 99.6092
67.4228 9866 99.3277
67.5402 9433 97.1236
67.6576 9020 94.9737
67.7749 8645 92.9785
67.8923 8569 92.5689
68.0096 8611 92.7955
68.1269 8874 94.2019
68.2442 9183 95.828
68.3614 9575 97.8519
68.4787 9890 99.4485
68.5958 10218 101.084
68.713 10338 101.676
68.8302 10457 102.259
68.9473 10552 102.723
69.0643 10293 101.454
69.1814 9878 99.3881
69.2984 9350 96.6954
69.4154 8942 94.5621
69.5323 8693 93.2363
69.6492 9202 95.9271
69.7661 9708 98.5292
69.8829 9822 99.106
69.9997 10337 101.671
70.1165 10468 102.313
70.2332 10811 103.976
70.3499 10693 103.407
70.4665 10774 103.798
70.5831 11072 105.224
70.6996 10788 103.865
70.8161 10789 103.87
70.9326 10710 103.489
71.049 10627 103.087
71.1653 10354 101.755
71.2817 9870 99.3479
71.3979 9296 96.4158
71.5141 8677 93.1504
71.6303 8510 92.2497
71.7464 8034 89.6326
71.8624 0 1
71.9784 0 1
72.0944 0 1
72.2102 0 1
72.3261 0 1
72.4418 0 1
72.5575 0 1
72.6732 0 1
75.1054 0 1
75.2209 0 1
75.3365 0 1
75.4521 0 1
75.5678 0 1
75.6835 0 1
75.7993 0 1
75.9151 0 1
76.031 0 1
76.147 9547 97.7088
76.263 10208 101.035
76.3791 10326 101.617
76.4952 10166 100.827
76.6113 9902 99.5088
76.7276 9269 96.2756
76.8438 8979 94.7576
76.9601 9285 96.3587
77.0765 9300 96.4365
77.1929 9715 98.5647
77.3093 10139 100.693
77.4258 10396 101.961
77.5423 10526 102.596
77.6589 10710 103.489
77.7755 10956 104.671
77.8921 10809 103.966
78.0088 10522 102.577
78.1256 9845 99.222
78.2423 9413 97.0206
78.3591 8778 93.691
78.4759 8640 92.9516
78.5928 8977 94.747
78.7097 9414 97.0258
78.8266 9750 98.7421
78.9436 10426 102.108
79.0606 10661 103.252
79.1776 10568 102.801
79.2946 10826 104.048
79.4117 10991 104.838
79.5288 10952 104.652
79.6459 10686 103.373
79.7631 10722 103.547
79.8802 10667 103.281
79.9974 10563 102.776
80.1147 10322 101.597
80.2319 10072 100.359
80.3491 9419 97.0515
80.4664 9196 95.8958
80.5837 8976 94.7418
80.701 9380 96.8504
80.8183 9810 99.0454
80.9357 10077 100.384
81.053 10546 102.694
81.1704 10580 102.859
81.2877 10651 103.204
81.4051 10859 104.207
81.5225 11136 105.527
81.6399 10660 103.247
81.7573 10441 102.181
81.8747 9637 98.1682
81.9922 8977 94.747
82.1096 8716 93.3595
82.227 8913 94.4087
82.3444 9268 96.2705
82.4619 9859 99.2925
82.5793 10540 102.665
82.6967 10393 101.946
82.8142 10480 102.372
82.9316 10793 103.889
83.049 10821 104.024
83.1664 11035 105.048
83.2838 10673 103.31
83.4012 11011 104.933
83.5186 10766 103.759
83.636 10697 103.426
83.7534 10505 102.494
83.8708 10216 101.074
83.9881 9541 97.678
84.1055 9195 95.8906
84.2228 9131 95.5563
84.3401 9268 96.2705
84.4575 9621 98.0867
84.5747 10040 100.2
84.692 10551 102.718
84.8093 11007 104.914
84.9265 11106 105.385
85.0437 11627 107.829
85.1609 11300 106.301
85.2781 10806 103.952
85.3952 10205 101.02
85.5123 9676 98.3667
85.6294 8993 94.8314
85.7465 8889 94.2815
85.8636 9168 95.7497
85.9806 10047 100.235
86.0976 10408 102.02
86.2145 11004 104.9
86.3315 11060 105.167
86.4484 11425 106.888
86.5652 11617 107.782
86.682 11567 107.55
86.7988 11661 107.986
86.9156 11491 107.196
87.0323 11568 107.555
87.149 11475 107.121
87.2657 11435 106.935
87.3823 11313 106.363
87.4988 10595 102.932
87.6154 10170 100.846
87.7318 9707 98.5241
87.8483 9875 99.373
87.9647 9879 99.3932
88.081 10574 102.83
88.1973 10889 104.35
88.3136 11175 105.712
88.4298 11568 107.555
88.546 11782 108.545
88.6621 11836 108.793
88.7781 11742 108.361
88.8942 0 1
89.0101 0 1
89.126 0 1
89.2419 0 1
89.3577 0 1
89.4734 0 1
89.5891 0 1
89.7047 0 1
89.8203 0 1
89.9358 0 1
92.3269 0 1
92.4424 0 1
92.558 0 1
92.6736 0 1
92.7893 0 1
92.905 0 1
93.0208 0 1
93.1366 0 1
93.2525 0 1
93.3685 0 1
93.4845 0 1
93.6005 10755 103.706
93.7167 10883 104.322
93.8328 10988 104.824
93.949 11412 106.827
94.0653 11167 105.674
94.1816 10693 103.407
94.2979 10275 101.366
94.4143 9690 98.4378
94.5307 9231 96.0781
94.6472 9087 95.3258
94.7637 9210 95.9687
94.8803 9627 98.1173
94.9969 10156 100.777
95.1135 10519 102.562
95.2302 10725 103.562
95.3469 10796 103.904
95.4637 11052 105.128
95.5805 11245 106.042
95.6973 11285 106.231
95.8142 11341 106.494
95.9311 11429 106.907
96.048 11391 106.729
96.1649 11202 105.84
96.2819 10974 104.757
96.3989 10863 104.226
96.516 10399 101.975
96.633 9987 99.935
96.7501 9394 96.9226
96.8673 9459 97.2574
96.9844 9686 98.4175
97.1016 9814 99.0656
97.2188 9981 99.905
97.336 10685 103.368
97.4532 10784 103.846
97.5704 11244 106.038
97.6877 11298 106.292
97.805 11243 106.033
97.9223 10884 104.326
98.0396 10054 100.27
98.1569 9616 98.0612
98.2743 9146 95.6347
98.3916 8797 93.7923
98.509 9126 95.5301
98.6264 9560 97.7753
98.7438 10105 100.524
98.8612 10335 101.661
98.9786 10603 102.971
99.096 10717 103.523
99.2134 10793 103.889
99.3308 10961 104.695
99.4482 10985 104.809
99.5656 10917 104.484
99.6831 10756 103.711
99.8005 10637 103.136
99.9179 10635 103.126
100.035 10292 101.449
100.153 10011 100.055
100.27 9805 99.0202
100.388 9082 95.2995
100.505 9195 95.8906
100.622 9533 97.6371
100.74 9636 98.1631
100.857 10253 101.257
100.975 10492 102.43
101.092 10711 103.494
101.209 11082 105.271
101.327 11424 106.883
101.444 11388 106.715
101.561 10942 104.604
101.679 10072 100.359
101.796 9505 97.4936
101.913 9027 95.0105
102.03 8963 94.6731
102.148 9581 97.8826
102.265 9581 97.8826
102.382 11357 106.569
102.499 10902 104.413
102.616 11098 105.347
102.733 11265 106.137
102.851 11328 106.433
102.968 11816 108.701
103.085 11581 107.615
103.202 11676 108.056
103.319 11358 106.574
103.436 11454 107.023
103.552 11071 105.219
103.669 10875 104.283
103.786 10298 101.479
103.903 9928 99.6393
104.02 9944 99.7196
104.137 10043 100.215
104.253 10313 101.553
104.37 10873 104.274
104.487 11462 107.061
104.603 11702 108.176
104.72 11764 108.462
104.836 12028 109.672
104.953 11825 108.743
105.069 11304 106.32
105.186 10339 101.681
105.302 9821 99.101
105.418 9373 96.8143
105.535 9591 97.9337
105.651 10156 100.777
105.767 10630 103.102
105.883 11122 105.461
105.999 11230 105.972
106.115 0 1
106.231 0 1
106.347 0 1
106.463 0 1
106.579 0 1
106.694 0 1
106.81 0 1
106.926 0 1
107.041 0 1
107.157 0 1
109.576 0 1
109.692 0 1
109.807 0 1
109.923 0 1
110.039 0 1
110.155 0 1
110.27 0 1
110.386 0 1
110.502 0 1
110.618 8541 92.4175
110.735 9466 97.2934
110.851 9671 98.3412
110.967 10057 100.285
111.083 10142 100.707
111.199 10300 101.489
111.316 10633 103.116
111.432 10568 102.801
111.549 10564 102.781
111.665 10714 103.508
111.782 10392 101.941
111.898 10269 101.336
112.015 9971 99.8549
112.132 9978 99.8899
112.248 9507 97.5038
112.365 8880 94.2338
112.482 8942 94.5621
112.599 8423 91.7769
112.716 8901 94.3451
112.832 8957 94.6414
112.949 9147 95.6399
113.066 9479 97.3602
113.183 9598 97.9694
113.3 9795 98.9697
113.417 9805 99.0202
113.534 9901 99.5038
113.652 9361 96.7523
113.769 8828 93.9574
113.886 8123 90.1277
114.003 7840 88.5438
114.12 7766 88.1249
114.238 7939 89.1011
114.355 8440 91.8695
114.472 8829 93.9628
114.589 8788 93.7443
114.707 8973 94.7259
114.824 9002 94.8789
114.942 8974 94.7312
115.059 9054 95.1525
115.176 8888 94.2762
115.294 8579 92.6229
115.411 8547 92.45
115.529 8450 91.9239
115.646 8205 90.5815
115.764 7987 89.37
115.881 7536 86.8101
115.999 7239 85.0823
116.116 6949 83.3607
116.234 7010 83.7257
116.351 7254 85.1704
116.469 7368 85.8371
116.586 7628 87.3384
116.704 7624 87.3155
116.821 7804 88.3403
116.939 7905 88.9101
117.056 7890 88.8257
117.174 7871 88.7187
117.291 7482 86.4986
117.409 6841 82.7103
117.526 6605 81.2712
117.644 6446 80.287
117.761 6585 81.148
117.879 6929 83.2406
117.996 7171 84.6818
118.114 7371 85.8545
118.231 7658 87.51
118.349 7631 87.3556
118.466 7629 87.3441
118.584 7896 88.8594
118.701 7877 88.7525
118.819 7830 88.4873
118.936 7801 88.3233
119.053 7691 87.6983
119.171 7492 86.5563
119.288 7752 88.0454
119.405 7369 85.8429
119.523 7241 85.0941
119.64 6954 83.3906
119.757 6922 83.1986
119.875 6957 83.4086
119.992 7175 84.7054
120.109 7531 86.7813
120.226 7714 87.8294
120.343 8001 89.4483
120.46 8292 91.0604
120.578 8383 91.5587
120.695 8342 91.3345
120.812 8439 91.864
120.929 8211 90.6146
121.046 7874 88.7356
121.163 7530 86.7756
121.279 7195 84.8233
121.396 7054 83.9881
121.513 7762 88.1022
121.63 8087 89.9277
121.747 8279 90.989
121.863 8604 92.7577
121.98 8961 94.6626
122.097 8889 94.2815
122.213 9044 95.0999
122.33 9283 96.3483
122.446 9331 96.5971
122.563 9292 96.395
122.679 9250 96.1769
122.795 9226 96.0521
122.912 9140 95.6033
123.028 8826 93.9468
123.144 8613 92.8062
123.26 8245 90.802
123.377 0 1
123.493 0 1
123.609 0 1
123.725 0 1
123.84 0 1
123.956 0 1
124.072 0 1
124.188 0 1
124.303 0 1
124.419 0 1
126.852 0 1
126.968 0 1
127.083 0 1
127.199 0 1
127.315 0 1
127.431 0 1
127.547 0 1
127.663 0 1
127.779 0 1
127.895 0 1
128.011 0 1
128.127 0 1
128.243 0 1
128.359 10570 102.811
128.476 10361 101.789
128.592 9918 99.5892
128.708 9449 97.206
128.825 9395 96.9278
128.941 9597 97.9643
129.058 9882 99.4082
129.174 9970 99.8499
129.291 10282 101.4
129.408 10704 103.46
129.524 10521 102.572
129.641 10881 104.312
129.758 10888 104.346
129.875 10715 103.513
129.992 10332 101.646
130.108 9675 98.3616
130.225 9251 96.1821
130.342 8954 94.6256
130.459 8866 94.1594
130.576 9204 95.9375
130.693 9720 98.5901
130.81 9998 99.99
130.928 10380 101.882
131.045 10303 101.504
131.162 10519 102.562
131.279 10547 102.699
131.396 10665 103.271
131.513 10614 103.024
131.631 10422 102.088
131.748 10339 101.681
131.865 10156 100.777
131.983 9795 98.9697
132.1 9593 97.9439
132.217 9415 97.0309
132.335 9191 95.8697
132.452 9072 95.247
132.57 9240 96.1249
132.687 9283 96.3483
132.804 10152 100.757
132.922 10177 100.881
133.039 10128 100.638
133.157 10260 101.292
133.274 10310 101.538
133.392 10391 101.936
133.509 10045 100.225
133.627 9326 96.5712
133.744 9028 95.0158
133.862 8732 93.4452
133.979 8409 91.7006
134.097 8841 94.0266
134.214 9215 95.9948
134.332 9369 96.7936
134.449 9673 98.3514
134.567 9594 97.949
134.684 9839 99.1917
134.802 9961 99.8048
134.919 9786 98.9242
135.037 9732 98.6509
135.154 9478 97.355
135.272 9234 96.0937
135.389 9160 95.7079
135.507 8917 94.4299
135.624 8603 92.7524
135.742 8247 90.813
135.859 7736 87.9545
135.977 7887 88.8088
136.094 7857 88.6397
136.211 7900 88.8819
136.329 8052 89.7329
136.446 8273 90.956
136.564 8367 91.4713
136.681 8329 91.2634
136.798 8485 92.1141
136.915 8441 91.8749
137.033 8324 91.236
137.15 8037 89.6493
137.267 7651 87.47
137.384 7336 85.6505
137.502 7066 84.0595
137.619 7175 84.7054
137.736 7471 86.4349
137.853 7536 86.8101
137.97 8000 89.4427
138.087 8459 91.9728
138.204 8714 93.3488
138.321 8698 93.2631
138.438 8989 94.8103
138.555 9170 95.7601
138.672 9074 95.2575
138.788 9155 95.6818
138.905 9094 95.3625
139.022 8963 94.6731
139.139 8914 94.414
139.255 8690 93.2202
139.372 8611 92.7955
139.488 8330 91.2688
139.605 8493 92.1575
139.721 8771 93.6536
139.838 8865 94.1541
139.954 9165 95.734
140.071 9333 96.6075
140.187 9939 99.6945
140.303 10017 100.085
140.419 10025 100.125
140.535 10151 100.752
140.652 10133 100.663
140.768 0 1
140.884 0 1
141 0 1
141.115 0 1
141.231 0 1
141.347 0 1
141.463 0 1
141.578 0 1
141.694 0 1
144.104 0 1
144.219 0 1
144.335 0 1
144.45 0 1
144.566 0 1
144.682 0 1
144.798 0 1
144.914 0 1
145.03 0 1
145.146 15778 125.611
145.262 17278 131.446
145.378 18367 135.525
145.494 18978 137.761
145.61 19860 140.926
145.726 20512 143.22
145.842 20923 144.648
145.959 20551 143.356
146.075 20382 142.766
146.192 19909 141.099
146.308 19575 139.911
146.425 20475 143.091
146.541 22361 149.536
146.658 23403 152.98
146.774 24405 156.221
146.891 26288 162.136
147.008 26529 162.877
147.125 27728 166.517
147.241 28326 168.303
147.358 29006 170.311
147.475 28327 168.306
147.592 28437 168.633
147.709 28126 167.708
147.826 27851 166.886
147.943 27038 164.432
148.06 26304 162.185
148.177 25561 159.878
148.294 24958 157.981
148.411 25387 159.333
148.528 25567 159.897
148.645 26420 162.542
148.762 27080 164.56
148.88 27336 165.336
148.997 28997 170.285
149.114 26182 161.809
149.231 27641 166.256
149.349 26909 164.04
149.466 27052 164.475
149.583 25011 158.149
149.701 23412 153.01
149.818 22462 149.873
149.935 21813 147.692
150.053 22062 148.533
150.17 23002 151.664
150.287 23984 154.868
150.405 24740 157.29
150.522 25394 159.355
150.64 25875 160.857
150.757 26346 162.315
150.875 26754 163.567
150.992 26412 162.518
151.11 27150 164.773
151.227 26405 162.496
151.344 25815 160.67
151.462 25987 161.205
151.579 25277 158.987
151.697 24921 157.864
151.814 24556 156.704
151.932 24272 155.795
152.049 25043 158.25
152.167 25249 158.899
152.284 26570 163.003
152.402 27661 166.316
152.519 28244 168.06
152.636 28669 169.319
152.754 29176 170.81
152.871 29384 171.418
152.989 29008 170.317
153.106 28229 168.015
153.223 26587 163.055
153.341 25272 158.972
153.458 24334 155.994
153.575 24005 154.935
153.693 24943 157.934
153.81 26177 161.793
153.927 27424 165.602
154.044 28297 168.217
154.162 28864 169.894
154.279 29689 172.305
154.396 30491 174.617
154.513 31495 177.468
154.63 31863 178.502
154.747 31617 177.812
154.864 31516 177.527
154.981 31177 176.57
155.098 31307 176.938
155.215 30822 175.562
155.332 30098 173.488
155.449 29897 172.907
155.566 29598 172.041
155.683 30321 174.129
155.8 31620 177.82
155.917 32238 179.549
156.033 34077 184.6
156.15 0 1
156.267 0 1
156.383 0 1
156.5 0 1
156.617 0 1
156.733 0 1
156.85 0 1
156.966 0 1
157.082 0 1
157.199 0 1
157.315 0 1
157.431 0 1
157.547 0 1
157.664 0 1
157.78 0 1
157.896 0 1
158.012 0 1
158.128 0 1
158.244 0 1
158.359 0 1
158.475 0 1
158.591 0 1
158.706 0 1
