
6.15755 0 1
6.2731 0 1
6.3887 0 1
6.50437 0 1
6.62009 0 1
6.73587 0 1
6.8517 0 1
6.96759 0 1
7.08353 0 1
7.19952 0 1
7.31557 0 1
7.43166 0 1
7.54781 0 1
7.664 0 1
7.78024 0 1
7.89653 0 1
8.01286 0 1
8.12924 0 1
8.24567 0 1
8.36213 0 1
8.47864 0 1
8.59519 0 1
8.71178 0 1
8.82841 0 1
8.94508 0 1
9.06179 0 1
9.17853 0 1
9.29531 0 1
9.41212 0 1
9.52897 0 1
9.64584 0 1
9.76276 0 1
9.8797 0 1
9.99667 0 1
10.1137 0 1
10.2307 0 1
10.3478 0 1
10.4648 0 1
10.5819 0 1
10.6991 0 1
10.8162 0 1
10.9334 0 1
11.0506 0 1
11.1678 0 1
11.285 0 1
11.4023 0 1
11.5196 0 1
11.6369 0 1
11.7542 0 1
11.8715 0 1
11.9888 0 1
12.1062 0 1
12.2235 0 1
12.3409 0 1
12.4582 0 1
12.5756 0 1
12.693 0 1
12.8104 0 1
12.9278 0 1
13.0452 0 1
13.1626 0 1
13.28 0 1
13.3974 0 1
13.5149 0 1
13.6323 0 1
13.7497 0 1
13.8671 0 1
13.9845 0 1
14.1019 0 1
14.2193 0 1
14.3367 0 1
14.4541 0 1
14.5714 0 1
14.6888 0 1
14.8062 0 1
14.9235 0 1
15.0408 1679 40.9756
15.1581 1756 41.9047
15.2755 1803 42.4617
15.3927 1818 42.638
15.51 1800 42.4264
15.6273 1727 41.5572
15.7445 1722 41.497
15.8617 1781 42.2019
15.9789 1704 41.2795
16.0961 1629 40.3609
16.2132 1717 41.4367
16.3304 1772 42.0951
16.4475 1865 43.1856
16.5646 1968 44.3621
16.6816 1933 43.9659
16.7986 2115 45.9891
16.9156 2226 47.1805
17.0326 2337 48.3425
17.1496 2418 49.1732
17.2665 2378 48.7647
17.3833 2375 48.734
17.5002 2344 48.4149
17.617 2406 49.051
17.7338 2425 49.2443
17.8505 2427 49.2646
17.9672 2418 49.1732
18.0839 2482 49.8197
18.2005 2529 50.2892
18.3171 2571 50.705
18.4337 2604 51.0294
18.5502 2603 51.0196
18.6666 2603 51.0196
18.7831 2619 51.1762
18.8994 2582 50.8134
19.0158 2536 50.3587
19.1321 2536 50.3587
19.2483 2407 49.0612
19.3645 2349 48.4665
19.4806 2285 47.8017
19.5967 2191 46.8081
19.7128 2112 45.9565
19.8288 1740 41.7133
19.9447 1574 39.6737
20.0606 0 1
20.1764 0 1
20.2922 0 1
20.4079 0 1
20.5236 0 1
20.6392 0 1
20.7548 0 1
20.8702 0 1
23.3078 0 1
23.4233 0 1
23.539 0 1
23.6547 0 1
23.7704 0 1
23.8862 0 1
24.0021 0 1
24.118 0 1
24.234 0 1
24.35 0 1
24.4661 2220 47.1169
24.5822 2270 47.6445
24.6984 2282 47.7703
24.8146 2303 47.9896
24.9309 2147 46.3357
25.0472 1961 44.2832
25.1636 1889 43.4626
25.28 1929 43.9204
25.3965 1963 44.3058
25.513 2059 45.3762
25.6296 2324 48.2079
25.7462 2449 49.4874
25.8628 2675 51.7204
25.9795 2659 51.5655
26.0962 2707 52.0288
26.213 2718 52.1344
26.3298 2614 51.1273
26.4466 2674 51.7107
26.5635 2715 52.1057
26.6804 2654 51.517
26.7973 2667 51.643
26.9143 2652 51.4976
27.0313 2655 51.5267
27.1483 2727 52.2207
27.2653 2789 52.811
27.3824 2783 52.7541
27.4996 2627 51.2543
27.6167 2587 50.8626
27.7339 2570 50.6952
27.8511 2580 50.7937
27.9683 2525 50.2494
28.0855 2466 49.6588
28.2028 2509 50.0899
28.3201 2316 48.1248
28.4374 2196 46.8615
28.5547 2026 45.0111
28.6721 1946 44.1135
28.7894 1813 42.5793
28.9068 1867 43.2088
29.0242 1905 43.6463
29.1416 2029 45.0444
29.259 2264 47.5815
29.3764 2373 48.7134
29.4939 2561 50.6063
29.6113 2521 50.2096
29.7288 2563 50.6261
29.8463 2554 50.5371
29.9638 2557 50.5668
30.0812 2621 51.1957
30.1987 2564 50.636
30.3162 2530 50.2991
30.4337 2671 51.6817
30.5512 2596 50.951
30.6687 2490 49.8999
30.7862 2512 50.1199
30.9037 2471 49.7092
31.0212 2603 51.0196
31.1387 2559 50.5866
31.2562 2483 49.8297
31.3737 2393 48.9183
31.4912 2495 49.95
31.6087 2436 49.3559
31.7262 2485 49.8498
31.8436 2402 49.0102
31.9611 2256 47.4974
32.0785 2138 46.2385
32.1959 1923 43.852
32.3134 1801 42.4382
32.4308 1818 42.638
32.5482 1864 43.1741
32.6655 1887 43.4396
32.7829 2097 45.793
32.9002 2399 48.9796
33.0176 2367 48.6518
33.1349 2403 49.0204
33.2522 2499 49.99
33.3694 2372 48.7032
33.4867 2519 50.1896
33.6039 2504 50.04
33.7211 2508 50.0799
33.8383 2552 50.5173
33.9554 2522 50.2195
34.0725 2606 51.049
34.1896 2541 50.4083
34.3067 2406 49.051
34.4237 2485 49.8498
34.5407 2513 50.1298
34.6577 2522 50.2195
34.7746 2575 50.7445
34.8915 2474 49.7393
35.0084 2504 50.04
35.1252 2513 50.1298
35.242 2428 49.2747
35.3587 2505 50.05
35.4755 2415 49.1426
35.5921 2392 48.9081
35.7088 2231 47.2335
35.8254 2051 45.288
35.9419 1809 42.5323
36.0584 1774 42.1189
36.1749 1815 42.6028
36.2913 1835 42.8369
36.4077 1908 43.6807
36.524 2006 44.7884
36.6403 2180 46.6905
36.7565 2352 48.4974
36.8727 2410 49.0918
36.9889 2484 49.8397
37.1049 2478 49.7795
37.221 0 1
37.3369 0 1
37.4529 0 1
37.5687 0 1
37.6845 0 1
37.8003 0 1
37.916 0 1
38.0316 0 1
38.1472 0 1
40.5851 0 1
40.7008 0 1
40.8164 0 1
40.9322 0 1
41.048 0 1
41.1639 0 1
41.2798 0 1
41.3958 0 1
41.5118 0 1
41.6279 0 1
41.744 1590 39.8748
41.8602 1773 42.107
41.9765 1976 44.4522
42.0928 2004 44.7661
42.2091 1995 44.6654
42.3255 2041 45.1774
42.4419 2005 44.7772
42.5584 2052 45.299
42.675 2034 45.0999
42.7915 2022 44.9667
42.9081 1959 44.2606
43.0248 1864 43.1741
43.1415 1892 43.4971
43.2582 1968 44.3621
43.375 1898 43.566
43.4918 1909 43.6921
43.6087 1906 43.6578
43.7256 1894 43.5201
43.8425 1789 42.2966
43.9595 1837 42.8602
44.0765 1764 42
44.1935 1802 42.45
44.3106 1694 41.1582
44.4277 1637 40.4599
44.5448 1608 40.0999
44.6619 1417 37.6431
44.7791 1261 35.5106
44.8963 1165 34.1321
45.0136 1183 34.3948
45.1308 1200 34.641
45.2481 1181 34.3657
45.3654 1336 36.5513
45.4827 1462 38.2361
45.6001 1465 38.2753
45.7174 1491 38.6135
45.8348 1503 38.7685
45.9522 1452 38.1051
46.0697 1475 38.4057
46.1871 1451 38.092
46.3046 1462 38.2361
46.422 1457 38.1707
46.5395 1335 36.5377
46.657 1347 36.7015
46.7745 1367 36.973
46.892 1329 36.4555
47.0096 1332 36.4966
47.1271 1397 37.3765
47.2446 1439 37.9342
47.3622 1288 35.8887
47.4797 1313 36.2353
47.5973 1308 36.1663
47.7149 1340 36.606
47.8324 1311 36.2077
47.95 1256 35.4401
48.0675 1198 34.6121
48.1851 1081 32.8786
48.3027 946 30.7571
48.4202 840 28.9828
48.5378 830 28.8097
48.6554 834 28.8791
48.7729 878 29.6311
48.8904 1049 32.3883
49.008 1081 32.8786
49.1255 1171 34.2199
49.243 1101 33.1813
49.3605 1143 33.8083
49.478 1131 33.6303
49.5955 1150 33.9116
49.713 1137 33.7194
49.8304 1121 33.4813
49.9479 1120 33.4664
50.0653 1156 34
50.1827 1093 33.0606
50.3001 1225 35
50.4175 1252 35.3836
50.5348 1241 35.2278
50.6521 1330 36.4692
50.7694 1331 36.4829
50.8867 1383 37.1887
51.004 1530 39.1152
51.1212 1426 37.7624
51.2384 1432 37.8418
51.3556 1452 38.1051
51.4727 1472 38.3667
51.5899 1441 37.9605
51.707 1323 36.3731
51.824 1255 35.426
51.9411 1213 34.8281
52.0581 1263 35.5387
52.175 1249 35.3412
52.2919 1339 36.5923
52.4088 1565 39.5601
52.5257 1717 41.4367
52.6425 1791 42.3202
52.7593 1835 42.8369
52.876 1877 43.3244
52.9927 1876 43.3128
53.1094 1877 43.3244
53.226 1950 44.1588
53.3426 1984 44.5421
53.4591 1884 43.4051
53.5756 1813 42.5793
53.692 1903 43.6234
53.8084 1923 43.852
53.9248 2005 44.7772
54.0411 2025 45
54.1573 2148 46.3465
54.2735 0 1
54.3896 0 1
54.5057 0 1
54.6217 0 1
54.7377 0 1
54.8537 0 1
54.9695 0 1
55.0853 0 1
55.2011 0 1
55.3168 0 1
55.4324 0 1
57.824 0 1
57.9396 0 1
58.0553 0 1
58.1711 0 1
58.2869 0 1
58.4028 0 1
58.5187 0 1
58.6347 0 1
58.7508 0 1
58.8669 0 1
58.983 1995 44.6654
59.0992 2250 47.4342
59.2155 2279 47.7389
59.3318 2384 48.8262
59.4482 2453 49.5278
59.5646 2518 50.1797
59.681 2543 50.4282
59.7975 2482 49.8197
59.9141 2457 49.5681
60.0306 2354 48.518
60.1473 2289 47.8435
60.2639 2213 47.0425
60.3807 2077 45.5741
60.4974 1990 44.6094
60.6142 1942 44.0681
60.731 1817 42.6263
60.8479 1791 42.3202
60.9648 1859 43.1161
61.0818 2022 44.9667
61.1987 2058 45.3652
61.3158 2113 45.9674
61.4328 2244 47.3709
61.5499 2161 46.4866
61.667 2171 46.594
61.7841 2157 46.4435
61.9013 2070 45.4973
62.0185 2034 45.0999
62.1357 2040 45.1664
62.253 1942 44.0681
62.3702 2050 45.2769
62.4875 2025 45
62.6049 2115 45.9891
62.7222 2198 46.8828
62.8396 2252 47.4552
62.9569 2189 46.7868
63.0743 2206 46.9681
63.1918 2283 47.7807
63.3092 2204 46.9468
63.4267 2221 47.1275
63.5441 2059 45.3762
63.6616 1990 44.6094
63.7791 1910 43.7035
63.8966 1840 42.8952
64.0142 1765 42.0119
64.1317 1651 40.6325
64.2492 1602 40.025
64.3668 1641 40.5093
64.4843 1670 40.8656
64.6019 1735 41.6533
64.7195 1761 41.9643
64.837 1927 43.8976
64.9546 1923 43.852
65.0722 1903 43.6234
65.1898 1903 43.6234
65.3074 2064 45.4313
65.4249 1756 41.9047
65.5425 1813 42.5793
65.6601 1800 42.4264
65.7777 1763 41.9881
65.8952 1775 42.1307
66.0128 1936 44
66.1304 1932 43.9545
66.2479 2043 45.1996
66.3655 2101 45.8367
66.483 2124 46.0869
66.6005 2108 45.913
66.718 2172 46.6047
66.8355 2128 46.1303
66.953 2064 45.4313
67.0705 2031 45.0666
67.1879 2038 45.1442
67.3054 1976 44.4522
67.4228 1809 42.5323
67.5402 1764 42
67.6576 1571 39.6358
67.7749 1613 40.1622
67.8923 1604 40.05
68.0096 1578 39.724
68.1269 1674 40.9145
68.2442 1734 41.6413
68.3614 1911 43.715
68.4787 2017 44.911
68.5958 1993 44.643
68.713 2076 45.5631
68.8302 2020 44.9444
68.9473 1996 44.6766
69.0643 2015 44.8888
69.1814 1982 44.5197
69.2984 2004 44.7661
69.4154 1899 43.5775
69.5323 1940 44.0454
69.6492 2027 45.0222
69.7661 2048 45.2548
69.8829 2112 45.9565
69.9997 2294 47.8957
70.1165 2229 47.2123
70.2332 2437 49.366
70.3499 2315 48.1144
70.4665 2278 47.7284
70.5831 2421 49.2037
70.6996 2356 48.5386
70.8161 2241 47.3392
70.9326 2221 47.1275
71.049 2077 45.5741
71.1653 1990 44.6094
71.2817 1901 43.6005
71.3979 1856 43.0813
71.5141 1782 42.2137
71.6303 1516 38.9358
71.7464 1308 36.1663
71.8624 0 1
71.9784 0 1
72.0944 0 1
72.2102 0 1
72.3261 0 1
72.4418 0 1
72.5575 0 1
72.6732 0 1
75.1054 0 1
75.2209 0 1
75.3365 0 1
75.4521 0 1
75.5678 0 1
75.6835 0 1
75.7993 0 1
75.9151 0 1
76.031 0 1
76.147 1881 43.3705
76.263 2042 45.1885
76.3791 2172 46.6047
76.4952 2111 45.9456
76.6113 1934 43.9773
76.7276 1835 42.8369
76.8438 1772 42.0951
76.9601 1759 41.9404
77.0765 1789 42.2966
77.1929 1882 43.382
77.3093 2132 46.1736
77.4258 2089 45.7056
77.5423 2260 47.5395
77.6589 2185 46.744
77.7755 2179 46.6798
77.8921 2195 46.8508
78.0088 2108 45.913
78.1256 2015 44.8888
78.2423 1803 42.4617
78.3591 1709 41.3401
78.4759 1766 42.0238
78.5928 1905 43.6463
78.7097 1915 43.7607
78.8266 1983 44.5309
78.9436 2257 47.5079
79.0606 2325 48.2183
79.1776 2346 48.4355
79.2946 2349 48.4665
79.4117 2341 48.3839
79.5288 2286 47.8121
79.6459 2339 48.3632
79.7631 2241 47.3392
79.8802 2028 45.0333
79.9974 2024 44.9889
80.1147 1987 44.5758
80.2319 1780 42.19
80.3491 1640 40.4969
80.4664 1544 39.2938
80.5837 1658 40.7185
80.701 1657 40.7063
80.8183 1776 42.1426
80.9357 1827 42.7434
81.053 2049 45.2659
81.1704 1948 44.1362
81.2877 1988 44.587
81.4051 1991 44.6206
81.5225 1873 43.2782
81.6399 1944 44.0908
81.7573 1785 42.2493
81.8747 1532 39.1408
81.9922 1563 39.5348
82.1096 1601 40.0125
82.227 1606 40.0749
82.3444 1677 40.9512
82.4619 1893 43.5086
82.5793 2073 45.5302
82.6967 1961 44.2832
82.8142 1994 44.6542
82.9316 2047 45.2438
83.049 1991 44.6206
83.1664 1966 44.3396
83.2838 1902 43.6119
83.4012 1918 43.795
83.5186 1817 42.6263
83.636 1699 41.2189
83.7534 1654 40.6694
83.8708 1537 39.2046
83.9881 1505 38.7943
84.1055 1399 37.4032
84.2228 1493 38.6394
84.3401 1473 38.3797
84.4575 1586 39.8246
84.5747 1745 41.7732
84.692 1796 42.3792
84.8093 1808 42.5206
84.9265 1799 42.4146
85.0437 1839 42.8836
85.1609 1748 41.8091
85.2781 1741 41.7253
85.3952 1506 38.8072
85.5123 1465 38.2753
85.6294 1343 36.647
85.7465 1493 38.6394
85.8636 1584 39.7995
85.9806 1827 42.7434
86.0976 2043 45.1996
86.2145 2139 46.2493
86.3315 2151 46.3789
86.4484 2179 46.6798
86.5652 2181 46.7012
86.682 2286 47.8121
86.7988 2227 47.1911
86.9156 2201 46.9148
87.0323 2072 45.5192
87.149 1996 44.6766
87.2657 1908 43.6807
87.3823 1881 43.3705
87.4988 1819 42.6497
87.6154 1740 41.7133
87.7318 1791 42.3202
87.8483 1876 43.3128
87.9647 1952 44.1814
88.081 2017 44.911
88.1973 2120 46.0435
88.3136 2204 46.9468
88.4298 2267 47.613
88.546 2174 46.6262
88.6621 2196 46.8615
88.7781 1973 44.4185
88.8942 0 1
89.0101 0 1
89.126 0 1
89.2419 0 1
89.3577 0 1
89.4734 0 1
89.5891 0 1
89.7047 0 1
89.8203 0 1
89.9358 0 1
92.3269 0 1
92.4424 0 1
92.558 0 1
92.6736 0 1
92.7893 0 1
92.905 0 1
93.0208 0 1
93.1366 0 1
93.2525 0 1
93.3685 0 1
93.4845 0 1
93.6005 2084 45.6508
93.7167 2172 46.6047
93.8328 2255 47.4868
93.949 2233 47.2546
94.0653 2233 47.2546
94.1816 2037 45.1331
94.2979 1971 44.3959
94.4143 1814 42.5911
94.5307 1759 41.9404
94.6472 1638 40.4722
94.7637 1642 40.5216
94.8803 1779 42.1782
94.9969 1988 44.587
95.1135 2118 46.0217
95.2302 2243 47.3603
95.3469 2283 47.7807
95.4637 2341 48.3839
95.5805 2436 49.3559
95.6973 2399 48.9796
95.8142 2347 48.4458
95.9311 2399 48.9796
96.048 2375 48.734
96.1649 2273 47.676
96.2819 2188 46.7761
96.3989 2068 45.4753
96.516 2011 44.8442
96.633 1906 43.6578
96.7501 1866 43.1972
96.8673 1959 44.2606
96.9844 1924 43.8634
97.1016 2004 44.7661
97.2188 2153 46.4004
97.336 2160 46.4758
97.4532 2199 46.8935
97.5704 2293 47.8853
97.6877 2159 46.465
97.805 2116 46
97.9223 1894 43.5201
98.0396 1875 43.3013
98.1569 1639 40.4846
98.2743 1497 38.6911
98.3916 1554 39.4208
98.509 1671 40.8779
98.6264 1938 44.0227
98.7438 2033 45.0888
98.8612 2186 46.7547
98.9786 2263 47.571
99.096 2289 47.8435
99.2134 2308 48.0416
99.3308 2429 49.2849
99.4482 2373 48.7134
99.5656 2338 48.3529
99.6831 2251 47.4447
99.8005 2219 47.1063
99.9179 2080 45.607
100.035 1998 44.699
100.153 1974 44.4297
100.27 1880 43.359
100.388 1884 43.4051
100.505 1921 43.8292
100.622 1952 44.1814
100.74 2128 46.1303
100.857 2199 46.8935
100.975 2222 47.1381
101.092 2109 45.9239
101.209 2224 47.1593
101.327 2140 46.2601
101.444 2117 46.0109
101.561 1980 44.4972
101.679 1728 41.5692
101.796 1594 39.9249
101.913 1570 39.6232
102.03 1694 41.1582
102.148 1953 44.1928
102.265 2100 45.8258
102.382 2370 48.6826
102.499 2316 48.1248
102.616 2449 49.4874
102.733 2517 50.1697
102.851 2474 49.7393
102.968 2461 49.6085
103.085 2478 49.7795
103.202 2392 48.9081
103.319 2393 48.9183
103.436 2275 47.697
103.552 2206 46.9681
103.669 2177 46.6583
103.786 2174 46.6262
103.903 2122 46.0652
104.02 2145 46.3141
104.137 2219 47.1063
104.253 2264 47.5815
104.37 2309 48.0521
104.487 2442 49.4166
104.603 2450 49.4975
104.72 2427 49.2646
104.836 2332 48.2908
104.953 2244 47.3709
105.069 2118 46.0217
105.186 1762 41.9762
105.302 1655 40.6817
105.418 1731 41.6053
105.535 1876 43.3128
105.651 2312 48.0833
105.767 2536 50.3587
105.883 2636 51.342
105.999 2680 51.7687
106.115 0 1
106.231 0 1
106.347 0 1
106.463 0 1
106.579 0 1
106.694 0 1
106.81 0 1
106.926 0 1
107.041 0 1
107.157 0 1
109.576 0 1
109.692 0 1
109.807 0 1
109.923 0 1
110.039 0 1
110.155 0 1
110.27 0 1
110.386 0 1
110.502 0 1
110.618 1874 43.2897
110.735 2281 47.7598
110.851 2406 49.051
110.967 2612 51.1077
111.083 2620 51.1859
111.199 2616 51.1468
111.316 2643 51.4101
111.432 2744 52.3832
111.549 2583 50.8232
111.665 2685 51.817
111.782 2436 49.3559
111.898 2380 48.7852
112.015 2314 48.1041
112.132 2289 47.8435
112.248 2222 47.1381
112.365 2274 47.6865
112.482 2206 46.9681
112.599 2381 48.7955
112.716 2333 48.3011
112.832 2311 48.0729
112.949 2324 48.2079
113.066 2411 49.1019
113.183 2356 48.5386
113.3 2387 48.8569
113.417 2338 48.3529
113.534 2270 47.6445
113.652 2058 45.3652
113.769 1718 41.4488
113.886 1650 40.6202
114.003 1585 39.8121
114.12 1811 42.5558
114.238 2131 46.1628
114.355 2314 48.1041
114.472 2511 50.1099
114.589 2595 50.9411
114.707 2626 51.2445
114.824 2707 52.0288
114.942 2746 52.4023
115.059 2694 51.9038
115.176 2680 51.7687
115.294 2609 51.0784
115.411 2548 50.4777
115.529 2429 49.2849
115.646 2434 49.3356
115.764 2432 49.3153
115.881 2280 47.7493
115.999 2405 49.0408
116.116 2392 48.9081
116.234 2432 49.3153
116.351 2403 49.0204
116.469 2474 49.7393
116.586 2495 49.95
116.704 2574 50.7346
116.821 2439 49.3862
116.939 2422 49.2138
117.056 2505 50.05
117.174 2317 48.1352
117.291 2006 44.7884
117.409 1822 42.6849
117.526 1737 41.6773
117.644 1795 42.3674
117.761 2045 45.2217
117.879 2372 48.7032
117.996 2585 50.8429
118.114 2741 52.3546
118.231 2811 53.0189
118.349 2797 52.8867
118.466 2825 53.1507
118.584 2878 53.647
118.701 2717 52.1249
118.819 2715 52.1057
118.936 2741 52.3546
119.053 2477 49.7695
119.171 2552 50.5173
119.288 2410 49.0918
119.405 2425 49.2443
119.523 2513 50.1298
119.64 2495 49.95
119.757 2502 50.02
119.875 2373 48.7134
119.992 2469 49.689
120.109 2452 49.5177
120.226 2477 49.7695
120.343 2461 49.6085
120.46 2514 50.1398
120.578 2482 49.8197
120.695 2312 48.0833
120.812 2145 46.3141
120.929 2072 45.5192
121.046 1728 41.5692
121.163 1670 40.8656
121.279 1732 41.6173
121.396 1855 43.0697
121.513 2089 45.7056
121.63 2518 50.1797
121.747 2577 50.7642
121.863 2755 52.4881
121.98 2717 52.1249
122.097 2734 52.2877
122.213 2758 52.5167
122.33 2716 52.1153
122.446 2669 51.6624
122.563 2607 51.0588
122.679 2635 51.3323
122.795 2488 49.8799
122.912 2478 49.7795
123.028 2529 50.2892
123.144 2325 48.2183
123.26 2418 49.1732
123.377 0 1
123.493 0 1
123.609 0 1
123.725 0 1
123.84 0 1
123.956 0 1
124.072 0 1
124.188 0 1
124.303 0 1
124.419 0 1
126.852 0 1
126.968 0 1
127.083 0 1
127.199 0 1
127.315 0 1
127.431 0 1
127.547 0 1
127.663 0 1
127.779 0 1
127.895 0 1
128.011 0 1
128.127 0 1
128.243 0 1
128.359 2662 51.5946
128.476 2614 51.1273
128.592 2626 51.2445
128.708 2688 51.8459
128.825 2725 52.2015
128.941 2704 52
129.058 2656 51.5364
129.174 2677 51.7397
129.291 2777 52.6972
129.408 2628 51.264
129.524 2605 51.0392
129.641 2674 51.7107
129.758 2397 48.9592
129.875 2176 46.6476
129.992 2045 45.2217
130.108 1903 43.6234
130.225 1806 42.4971
130.342 1941 44.0568
130.459 2272 47.6655
130.576 2713 52.0865
130.693 2773 52.6593
130.81 3003 54.7996
130.928 2869 53.563
131.045 3006 54.827
131.162 3030 55.0454
131.279 3045 55.1815
131.396 3017 54.9272
131.513 2909 53.9351
131.631 2891 53.768
131.748 2896 53.8145
131.865 2810 53.0094
131.983 2937 54.1941
132.1 2833 53.2259
132.217 2941 54.231
132.335 2875 53.619
132.452 2978 54.5711
132.57 2753 52.469
132.687 2869 53.563
132.804 2845 53.3385
132.922 2906 53.9073
133.039 2819 53.0943
133.157 2887 53.7308
133.274 2681 51.7784
133.392 2324 48.2079
133.509 2139 46.2493
133.627 1946 44.1135
133.744 1849 43
133.862 1929 43.9204
133.979 2246 47.392
134.097 2506 50.06
134.214 2702 51.9808
134.332 2897 53.8238
134.449 2897 53.8238
134.567 2972 54.5161
134.684 3053 55.254
134.802 2994 54.7175
134.919 3044 55.1725
135.037 3019 54.9454
135.154 2906 53.9073
135.272 2918 54.0185
135.389 2850 53.3854
135.507 2943 54.2494
135.624 2897 53.8238
135.742 2986 54.6443
135.859 2961 54.4151
135.977 2782 52.7447
136.094 2813 53.0377
136.211 2872 53.591
136.329 2883 53.6936
136.446 2861 53.4883
136.564 2814 53.0471
136.681 2747 52.4118
136.798 2769 52.6213
136.915 2619 51.1762
137.033 2310 48.0625
137.15 2133 46.1844
137.267 1902 43.6119
137.384 1928 43.909
137.502 1888 43.4511
137.619 2282 47.7703
137.736 2521 50.2096
137.853 2647 51.449
137.97 2797 52.8867
138.087 2888 53.7401
138.204 2790 52.8205
138.321 3006 54.827
138.438 3016 54.9181
138.555 3027 55.0182
138.672 3042 55.1543
138.788 2951 54.3231
138.905 2922 54.0555
139.022 2976 54.5527
139.139 3018 54.9363
139.255 2854 53.4228
139.372 2850 53.3854
139.488 2925 54.0833
139.605 2773 52.6593
139.721 2955 54.3599
139.838 2920 54.037
139.954 2842 53.3104
140.071 2831 53.2071
140.187 2887 53.7308
140.303 2869 53.563
140.419 2669 51.6624
140.535 2525 50.2494
140.652 2304 48
140.768 0 1
140.884 0 1
141 0 1
141.115 0 1
141.231 0 1
141.347 0 1
141.463 0 1
141.578 0 1
141.694 0 1
144.104 0 1
144.219 0 1
144.335 0 1
144.45 0 1
144.566 0 1
144.682 0 1
144.798 0 1
144.914 0 1
145.03 0 1
145.146 1960 44.2719
145.262 2225 47.1699
145.378 2203 46.9361
145.494 2277 47.7179
145.61 2105 45.8803
145.726 2030 45.0555
145.842 1973 44.4185
145.959 1791 42.3202
146.075 1700 41.2311
146.192 1629 40.3609
146.308 1700 41.2311
146.425 1742 41.7373
146.541 1892 43.4971
146.658 2010 44.833
146.774 2179 46.6798
146.891 2225 47.1699
147.008 2308 48.0416
147.125 2348 48.4562
147.241 2437 49.366
147.358 2483 49.8297
147.475 2535 50.3488
147.592 2430 49.295
147.709 2516 50.1597
147.826 2537 50.3686
147.943 2585 50.8429
148.06 2464 49.6387
148.177 2510 50.0999
148.294 2476 49.7594
148.411 2446 49.4571
148.528 2455 49.548
148.645 2494 49.94
148.762 2471 49.7092
148.88 2429 49.2849
148.997 2402 49.0102
149.114 2473 49.7293
149.231 2424 49.2341
149.349 2414 49.1325
149.466 2490 49.8999
149.583 2143 46.2925
149.701 2006 44.7884
149.818 1826 42.7317
149.935 1652 40.6448
150.053 1658 40.7185
150.17 1741 41.7253
150.287 1942 44.0681
150.405 1982 44.5197
150.522 2175 46.6369
150.64 2382 48.8057
150.757 2357 48.5489
150.875 2441 49.4065
150.992 2668 51.6527
151.11 2627 51.2543
151.227 2635 51.3323
151.344 2568 50.6754
151.462 2493 49.93
151.579 2624 51.225
151.697 2636 51.342
151.814 2562 50.6162
151.932 2567 50.6656
152.049 2575 50.7445
152.167 2601 51
152.284 2560 50.5964
152.402 2567 50.6656
152.519 2466 49.6588
152.636 2653 51.5073
152.754 2616 51.1468
152.871 2528 50.2792
152.989 2517 50.1697
153.106 2391 48.8979
153.223 2263 47.571
153.341 1971 44.3959
153.458 1878 43.3359
153.575 1791 42.3202
153.693 1756 41.9047
153.81 1957 44.238
153.927 2041 45.1774
154.044 2117 46.0109
154.162 2314 48.1041
154.279 2480 49.7996
154.396 2596 50.951
154.513 2627 51.2543
154.63 2752 52.4595
154.747 2692 51.8845
154.864 2715 52.1057
154.981 2729 52.2398
155.098 2799 52.9056
155.215 2817 53.0754
155.332 2794 52.8583
155.449 2779 52.7162
155.566 2688 51.8459
155.683 2676 51.7301
155.8 2613 51.1175
155.917 2720 52.1536
156.033 2674 51.7107
156.15 0 1
156.267 0 1
156.383 0 1
156.5 0 1
156.617 0 1
156.733 0 1
156.85 0 1
156.966 0 1
157.082 0 1
157.199 0 1
157.315 0 1
157.431 0 1
157.547 0 1
157.664 0 1
157.78 0 1
157.896 0 1
158.012 0 1
158.128 0 1
158.244 0 1
158.359 0 1
158.475 0 1
158.591 0 1
158.706 0 1
