
6.15755 0 1
6.2731 0 1
6.3887 0 1
6.50437 0 1
6.62009 0 1
6.73587 0 1
6.8517 0 1
6.96759 0 1
7.08353 0 1
7.19952 0 1
7.31557 0 1
7.43166 0 1
7.54781 0 1
7.664 0 1
7.78024 0 1
7.89653 0 1
8.01286 0 1
8.12924 0 1
8.24567 0 1
8.36213 0 1
8.47864 0 1
8.59519 0 1
8.71178 0 1
8.82841 0 1
8.94508 0 1
9.06179 0 1
9.17853 0 1
9.29531 0 1
9.41212 0 1
9.52897 0 1
9.64584 0 1
9.76276 0 1
9.8797 0 1
9.99667 0 1
10.1137 0 1
10.2307 0 1
10.3478 0 1
10.4648 0 1
10.5819 0 1
10.6991 0 1
10.8162 0 1
10.9334 0 1
11.0506 0 1
11.1678 0 1
11.285 0 1
11.4023 0 1
11.5196 0 1
11.6369 0 1
11.7542 0 1
11.8715 0 1
11.9888 0 1
12.1062 0 1
12.2235 0 1
12.3409 0 1
12.4582 0 1
12.5756 0 1
12.693 0 1
12.8104 0 1
12.9278 0 1
13.0452 0 1
13.1626 0 1
13.28 0 1
13.3974 0 1
13.5149 0 1
13.6323 0 1
13.7497 0 1
13.8671 0 1
13.9845 0 1
14.1019 0 1
14.2193 0 1
14.3367 0 1
14.4541 0 1
14.5714 0 1
14.6888 0 1
14.8062 0 1
14.9235 0 1
15.0408 0 0
15.1581 0 0
15.2755 0 0
15.3927 0 0
15.51 0 0
15.6273 0 0
15.7445 0 0
15.8617 0 0
15.9789 0 0
16.0961 0 0
16.2132 0 0
16.3304 0 0
16.4475 0 0
16.5646 0 0
16.6816 0 0
16.7986 0 0
16.9156 0 0
17.0326 0 0
17.1496 0 0
17.2665 0 0
17.3833 0 0
17.5002 0 0
17.617 0 0
17.7338 0 0
17.8505 0 0
17.9672 0 0
18.0839 0 0
18.2005 0 0
18.3171 0 0
18.4337 0 0
18.5502 0 0
18.6666 0 0
18.7831 0 0
18.8994 0 0
19.0158 0 0
19.1321 0 0
19.2483 0 0
19.3645 0 0
19.4806 0 0
19.5967 0 0
19.7128 0 0
19.8288 0 0
19.9447 0 0
20.0606 0 1
20.1764 0 1
20.2922 0 1
20.4079 0 1
20.5236 0 1
20.6392 0 1
20.7548 0 1
20.8702 0 1
23.3078 0 1
23.4233 0 1
23.539 0 1
23.6547 0 1
23.7704 0 1
23.8862 0 1
24.0021 0 1
24.118 0 1
24.234 0 1
24.35 0 1
24.4661 1112 33.3467
24.5822 1201 34.6554
24.6984 1097 33.121
24.8146 1125 33.541
24.9309 1063 32.6037
25.0472 1136 33.7046
25.1636 1052 32.4345
25.28 1068 32.6803
25.3965 1100 33.1662
25.513 1105 33.2415
25.6296 1159 34.0441
25.7462 1243 35.2562
25.8628 1295 35.9861
25.9795 1286 35.8608
26.0962 1273 35.6791
26.213 1343 36.647
26.3298 1266 35.5809
26.4466 1211 34.7994
26.5635 1156 34
26.6804 1179 34.3366
26.7973 1202 34.6699
26.9143 1145 33.8378
27.0313 1248 35.327
27.1483 1292 35.9444
27.2653 1354 36.7967
27.3824 1302 36.0832
27.4996 1287 35.8748
27.6167 1229 35.0571
27.7339 1370 37.0135
27.8511 1292 35.9444
27.9683 1272 35.6651
28.0855 1165 34.1321
28.2028 1188 34.4674
28.3201 1150 33.9116
28.4374 1130 33.6155
28.5547 1057 32.5115
28.6721 1050 32.4037
28.7894 974 31.209
28.9068 1146 33.8526
29.0242 1063 32.6037
29.1416 1067 32.665
29.259 1121 33.4813
29.3764 1176 34.2929
29.4939 1164 34.1174
29.6113 1231 35.0856
29.7288 1210 34.7851
29.8463 1175 34.2783
29.9638 1152 33.9411
30.0812 1201 34.6554
30.1987 1107 33.2716
30.3162 1036 32.187
30.4337 1130 33.6155
30.5512 1148 33.8821
30.6687 1143 33.8083
30.7862 1243 35.2562
30.9037 1220 34.9285
31.0212 1201 34.6554
31.1387 1210 34.7851
31.2562 1159 34.0441
31.3737 1212 34.8138
31.4912 1155 33.9853
31.6087 1130 33.6155
31.7262 1095 33.0908
31.8436 1072 32.7414
31.9611 1112 33.3467
32.0785 1054 32.4654
32.1959 996 31.5595
32.3134 1016 31.8748
32.4308 972 31.1769
32.5482 949 30.8058
32.6655 1103 33.2114
32.7829 1123 33.5112
32.9002 1154 33.9706
33.0176 1107 33.2716
33.1349 1174 34.2637
33.2522 1211 34.7994
33.3694 1199 34.6266
33.4867 1152 33.9411
33.6039 1071 32.7261
33.7211 1091 33.0303
33.8383 1082 32.8938
33.9554 1073 32.7567
34.0725 1020 31.9374
34.1896 1119 33.4515
34.3067 1120 33.4664
34.4237 1172 34.2345
34.5407 1186 34.4384
34.6577 1181 34.3657
34.7746 1191 34.5109
34.8915 1138 33.7343
35.0084 1144 33.8231
35.1252 1193 34.5398
35.242 1133 33.6601
35.3587 1066 32.6497
35.4755 1051 32.4191
35.5921 1039 32.2335
35.7088 1006 31.7175
35.8254 953 30.8707
35.9419 970 31.1448
36.0584 979 31.289
36.1749 968 31.1127
36.2913 995 31.5436
36.4077 995 31.5436
36.524 1067 32.665
36.6403 1124 33.5261
36.7565 1098 33.1361
36.8727 1122 33.4963
36.9889 1136 33.7046
37.1049 1024 32
37.221 0 1
37.3369 0 1
37.4529 0 1
37.5687 0 1
37.6845 0 1
37.8003 0 1
37.916 0 1
38.0316 0 1
38.1472 0 1
40.5851 0 1
40.7008 0 1
40.8164 0 1
40.9322 0 1
41.048 0 1
41.1639 0 1
41.2798 0 1
41.3958 0 1
41.5118 0 1
41.6279 0 1
41.744 800 28.2843
41.8602 860 29.3258
41.9765 841 29
42.0928 931 30.5123
42.2091 840 28.9828
42.3255 850 29.1548
42.4419 865 29.4109
42.5584 870 29.4958
42.675 773 27.8029
42.7915 797 28.2312
42.9081 786 28.0357
43.0248 798 28.2489
43.1415 838 28.9482
43.2582 853 29.2062
43.375 881 29.6816
43.4918 873 29.5466
43.6087 837 28.931
43.7256 865 29.4109
43.8425 849 29.1376
43.9595 831 28.8271
44.0765 765 27.6586
44.1935 806 28.3901
44.3106 753 27.4408
44.4277 718 26.7955
44.5448 648 25.4558
44.6619 678 26.0384
44.7791 671 25.9037
44.8963 634 25.1794
45.0136 649 25.4755
45.1308 605 24.5967
45.2481 612 24.7386
45.3654 672 25.923
45.4827 649 25.4755
45.6001 614 24.779
45.7174 661 25.7099
45.8348 649 25.4755
45.9522 657 25.632
46.0697 605 24.5967
46.1871 585 24.1868
46.3046 542 23.2809
46.422 553 23.516
46.5395 621 24.9199
46.657 612 24.7386
46.7745 637 25.2389
46.892 659 25.671
47.0096 632 25.1396
47.1271 719 26.8142
47.2446 656 25.6125
47.3622 628 25.0599
47.4797 626 25.02
47.5973 634 25.1794
47.7149 588 24.2487
47.8324 559 23.6432
47.95 567 23.8118
48.0675 520 22.8035
48.1851 468 21.6333
48.3027 472 21.7256
48.4202 473 21.7486
48.5378 495 22.2486
48.6554 453 21.2838
48.7729 492 22.1811
48.8904 533 23.0868
49.008 495 22.2486
49.1255 562 23.7065
49.243 535 23.1301
49.3605 506 22.4944
49.478 504 22.4499
49.5955 505 22.4722
49.713 470 21.6795
49.8304 432 20.7846
49.9479 445 21.095
50.0653 449 21.1896
50.1827 511 22.6053
50.3001 579 24.0624
50.4175 572 23.9165
50.5348 612 24.7386
50.6521 643 25.3574
50.7694 642 25.3377
50.8867 652 25.5343
51.004 681 26.096
51.1212 622 24.9399
51.2384 706 26.5707
51.3556 643 25.3574
51.4727 618 24.8596
51.5899 612 24.7386
51.707 612 24.7386
51.824 617 24.8395
51.9411 609 24.6779
52.0581 613 24.7588
52.175 632 25.1396
52.2919 706 26.5707
52.4088 740 27.2029
52.5257 687 26.2107
52.6425 786 28.0357
52.7593 810 28.4605
52.876 840 28.9828
52.9927 828 28.775
53.1094 781 27.9464
53.226 707 26.5895
53.3426 712 26.6833
53.4591 736 27.1293
53.5756 793 28.1603
53.692 840 28.9828
53.8084 826 28.7402
53.9248 899 29.9833
54.0411 980 31.305
54.1573 974 31.209
54.2735 0 1
54.3896 0 1
54.5057 0 1
54.6217 0 1
54.7377 0 1
54.8537 0 1
54.9695 0 1
55.0853 0 1
55.2011 0 1
55.3168 0 1
55.4324 0 1
57.824 0 1
57.9396 0 1
58.0553 0 1
58.1711 0 1
58.2869 0 1
58.4028 0 1
58.5187 0 1
58.6347 0 1
58.7508 0 1
58.8669 0 1
58.983 1016 31.8748
59.0992 1112 33.3467
59.2155 1124 33.5261
59.3318 1143 33.8083
59.4482 1155 33.9853
59.5646 1204 34.6987
59.681 1136 33.7046
59.7975 1183 34.3948
59.9141 1120 33.4664
60.0306 1042 32.28
60.1473 970 31.1448
60.2639 898 29.9666
60.3807 956 30.9192
60.4974 859 29.3087
60.6142 847 29.1033
60.731 877 29.6142
60.8479 929 30.4795
60.9648 933 30.545
61.0818 980 31.305
61.1987 972 31.1769
61.3158 1011 31.7962
61.4328 973 31.1929
61.5499 932 30.5287
61.667 939 30.6431
61.7841 859 29.3087
61.9013 852 29.189
62.0185 808 28.4253
62.1357 871 29.5127
62.253 904 30.0666
62.3702 1030 32.0936
62.4875 1023 31.9844
62.6049 1063 32.6037
62.7222 1096 33.1059
62.8396 1132 33.6452
62.9569 1112 33.3467
63.0743 1159 34.0441
63.1918 1114 33.3766
63.3092 1140 33.7639
63.4267 1157 34.0147
63.5441 1089 33
63.6616 1063 32.6037
63.7791 968 31.1127
63.8966 858 29.2916
64.0142 899 29.9833
64.1317 880 29.6648
64.2492 855 29.2404
64.3668 960 30.9839
64.4843 973 31.1929
64.6019 1018 31.9061
64.7195 1024 32
64.837 1098 33.1361
64.9546 1032 32.1248
65.0722 1001 31.6386
65.1898 969 31.1288
65.3074 877 29.6142
65.4249 864 29.3939
65.5425 848 29.1204
65.6601 796 28.2135
65.7777 877 29.6142
65.8952 952 30.8545
66.0128 1048 32.3728
66.1304 1048 32.3728
66.2479 1095 33.0908
66.3655 1125 33.541
66.483 1179 34.3366
66.6005 1124 33.5261
66.718 1161 34.0735
66.8355 1126 33.5559
66.953 1097 33.121
67.0705 1100 33.1662
67.1879 1022 31.9687
67.3054 972 31.1769
67.4228 919 30.315
67.5402 820 28.6356
67.6576 808 28.4253
67.7749 785 28.0179
67.8923 813 28.5132
68.0096 864 29.3939
68.1269 897 29.95
68.2442 944 30.7246
68.3614 930 30.4959
68.4787 934 30.5614
68.5958 926 30.4302
68.713 958 30.9516
68.8302 881 29.6816
68.9473 811 28.4781
69.0643 762 27.6043
69.1814 723 26.8887
69.2984 784 28
69.4154 821 28.6531
69.5323 924 30.3974
69.6492 983 31.3528
69.7661 1036 32.187
69.8829 1049 32.3883
69.9997 1066 32.6497
70.1165 1074 32.7719
70.2332 1133 33.6601
70.3499 1133 33.6601
70.4665 1098 33.1361
70.5831 1114 33.3766
70.6996 1034 32.1559
70.8161 998 31.5911
70.9326 914 30.2324
71.049 913 30.2159
71.1653 811 28.4781
71.2817 748 27.3496
71.3979 730 27.0185
71.5141 761 27.5862
71.6303 777 27.8747
71.7464 736 27.1293
71.8624 0 1
71.9784 0 1
72.0944 0 1
72.2102 0 1
72.3261 0 1
72.4418 0 1
72.5575 0 1
72.6732 0 1
75.1054 0 1
75.2209 0 1
75.3365 0 1
75.4521 0 1
75.5678 0 1
75.6835 0 1
75.7993 0 1
75.9151 0 1
76.031 0 1
76.147 872 29.5296
76.263 958 30.9516
76.3791 938 30.6268
76.4952 879 29.6479
76.6113 752 27.4226
76.7276 723 26.8887
76.8438 820 28.6356
76.9601 815 28.5482
77.0765 902 30.0333
77.1929 933 30.545
77.3093 946 30.7571
77.4258 1038 32.218
77.5423 990 31.4643
77.6589 941 30.6757
77.7755 884 29.7321
77.8921 797 28.2312
78.0088 747 27.3313
78.1256 734 27.0924
78.2423 709 26.6271
78.3591 661 25.7099
78.4759 852 29.189
78.5928 877 29.6142
78.7097 880 29.6648
78.8266 956 30.9192
78.9436 1025 32.0156
79.0606 1045 32.3265
79.1776 1036 32.187
79.2946 1031 32.1092
79.4117 1044 32.311
79.5288 1036 32.187
79.6459 1041 32.2645
79.7631 940 30.6594
79.8802 952 30.8545
79.9974 843 29.0345
80.1147 802 28.3196
80.2319 764 27.6405
80.3491 692 26.3059
80.4664 718 26.7955
80.5837 764 27.6405
80.701 780 27.9285
80.8183 842 29.0172
80.9357 862 29.3598
81.053 903 30.05
81.1704 863 29.3769
81.2877 847 29.1033
81.4051 823 28.688
81.5225 732 27.0555
81.6399 670 25.8844
81.7573 643 25.3574
81.8747 627 25.04
81.9922 613 24.7588
82.1096 764 27.6405
82.227 794 28.178
82.3444 849 29.1376
82.4619 879 29.6479
82.5793 889 29.8161
82.6967 916 30.2655
82.8142 975 31.225
82.9316 900 30
83.049 941 30.6757
83.1664 906 30.0998
83.2838 844 29.0517
83.4012 779 27.9106
83.5186 841 29
83.636 742 27.2397
83.7534 689 26.2488
83.8708 614 24.779
83.9881 640 25.2982
84.1055 654 25.5734
84.2228 712 26.6833
84.3401 675 25.9808
84.4575 733 27.074
84.5747 813 28.5132
84.692 856 29.2575
84.8093 757 27.5136
84.9265 709 26.6271
85.0437 747 27.3313
85.1609 663 25.7488
85.2781 610 24.6982
85.3952 585 24.1868
85.5123 588 24.2487
85.6294 631 25.1197
85.7465 792 28.1425
85.8636 796 28.2135
85.9806 871 29.5127
86.0976 969 31.1288
86.2145 957 30.9354
86.3315 1032 32.1248
86.4484 934 30.5614
86.5652 992 31.496
86.682 953 30.8707
86.7988 975 31.225
86.9156 983 31.3528
87.0323 892 29.8664
87.149 896 29.9333
87.2657 863 29.3769
87.3823 807 28.4077
87.4988 758 27.5318
87.6154 799 28.2666
87.7318 860 29.3258
87.8483 865 29.4109
87.9647 919 30.315
88.081 997 31.5753
88.1973 1013 31.8277
88.3136 1020 31.9374
88.4298 1020 31.9374
88.546 881 29.6816
88.6621 803 28.3373
88.7781 736 27.1293
88.8942 0 1
89.0101 0 1
89.126 0 1
89.2419 0 1
89.3577 0 1
89.4734 0 1
89.5891 0 1
89.7047 0 1
89.8203 0 1
89.9358 0 1
92.3269 0 1
92.4424 0 1
92.558 0 1
92.6736 0 1
92.7893 0 1
92.905 0 1
93.0208 0 1
93.1366 0 1
93.2525 0 1
93.3685 0 1
93.4845 0 1
93.6005 962 31.0161
93.7167 1027 32.0468
93.8328 998 31.5911
93.949 887 29.7825
94.0653 863 29.3769
94.1816 754 27.4591
94.2979 760 27.5681
94.4143 708 26.6083
94.5307 737 27.1477
94.6472 774 27.8209
94.7637 832 28.8444
94.8803 894 29.8998
94.9969 1011 31.7962
95.1135 1091 33.0303
95.2302 1084 32.9242
95.3469 1075 32.7872
95.4637 1072 32.7414
95.5805 1121 33.4813
95.6973 1155 33.9853
95.8142 1120 33.4664
95.9311 1123 33.5112
96.048 1000 31.6228
96.1649 1020 31.9374
96.2819 980 31.305
96.3989 987 31.4166
96.516 920 30.3315
96.633 863 29.3769
96.7501 831 28.8271
96.8673 837 28.931
96.9844 933 30.545
97.1016 953 30.8707
97.2188 1055 32.4808
97.336 1039 32.2335
97.4532 1004 31.686
97.5704 996 31.5595
97.6877 955 30.9031
97.805 887 29.7825
97.9223 788 28.0713
98.0396 769 27.7308
98.1569 711 26.6646
98.2743 738 27.1662
98.3916 766 27.6767
98.509 862 29.3598
98.6264 946 30.7571
98.7438 1023 31.9844
98.8612 1061 32.573
98.9786 1101 33.1813
99.096 1157 34.0147
99.2134 1109 33.3017
99.3308 1051 32.4191
99.4482 1145 33.8378
99.5656 1159 34.0441
99.6831 1100 33.1662
99.8005 1019 31.9218
99.9179 998 31.5911
100.035 987 31.4166
100.153 922 30.3645
100.27 865 29.4109
100.388 898 29.9666
100.505 913 30.2159
100.622 960 30.9839
100.74 1028 32.0624
100.857 997 31.5753
100.975 1031 32.1092
101.092 1059 32.5423
101.209 1049 32.3883
101.327 959 30.9677
101.444 895 29.9166
101.561 868 29.4618
101.679 760 27.5681
101.796 764 27.6405
101.913 777 27.8747
102.03 902 30.0333
102.148 1027 32.0468
102.265 1037 32.2025
102.382 1144 33.8231
102.499 1226 35.0143
102.616 1161 34.0735
102.733 1176 34.2929
102.851 1171 34.2199
102.968 1291 35.9305
103.085 1206 34.7275
103.202 1150 33.9116
103.319 1185 34.4238
103.436 1141 33.7787
103.552 1011 31.7962
103.669 965 31.0644
103.786 983 31.3528
103.903 918 30.2985
104.02 1069 32.6956
104.137 1060 32.5576
104.253 1108 33.2866
104.37 1149 33.8969
104.487 1142 33.7935
104.603 1107 33.2716
104.72 1031 32.1092
104.836 1026 32.0312
104.953 859 29.3087
105.069 784 28
105.186 822 28.6705
105.302 811 28.4781
105.418 930 30.4959
105.535 1016 31.8748
105.651 1195 34.5688
105.767 1270 35.6371
105.883 1276 35.7211
105.999 1348 36.7151
106.115 0 1
106.231 0 1
106.347 0 1
106.463 0 1
106.579 0 1
106.694 0 1
106.81 0 1
106.926 0 1
107.041 0 1
107.157 0 1
109.576 0 1
109.692 0 1
109.807 0 1
109.923 0 1
110.039 0 1
110.155 0 1
110.27 0 1
110.386 0 1
110.502 0 1
110.618 923 30.3809
110.735 1088 32.9848
110.851 1188 34.4674
110.967 1234 35.1283
111.083 1190 34.4964
111.199 1199 34.6266
111.316 1263 35.5387
111.432 1329 36.4555
111.549 1265 35.5668
111.665 1282 35.805
111.782 1119 33.4515
111.898 1178 34.322
112.015 1124 33.5261
112.132 1061 32.573
112.248 1023 31.9844
112.365 1031 32.1092
112.482 994 31.5278
112.599 1008 31.749
112.716 1076 32.8024
112.832 1040 32.249
112.949 1098 33.1361
113.066 1085 32.9393
113.183 1125 33.541
113.3 1015 31.8591
113.417 900 30
113.534 859 29.3087
113.652 811 28.4781
113.769 771 27.7669
113.886 743 27.258
114.003 819 28.6182
114.12 905 30.0832
114.238 1028 32.0624
114.355 1132 33.6452
114.472 1075 32.7872
114.589 1172 34.2345
114.707 1197 34.5977
114.824 1261 35.5106
114.942 1186 34.4384
115.059 1283 35.819
115.176 1185 34.4238
115.294 1154 33.9706
115.411 1169 34.1906
115.529 1109 33.3017
115.646 1049 32.3883
115.764 1031 32.1092
115.881 995 31.5436
115.999 998 31.5911
116.116 1045 32.3265
116.234 1071 32.7261
116.351 1064 32.619
116.469 1121 33.4813
116.586 1068 32.6803
116.704 1076 32.8024
116.821 1036 32.187
116.939 1034 32.1559
117.056 937 30.6105
117.174 878 29.6311
117.291 846 29.0861
117.409 815 28.5482
117.526 848 29.1204
117.644 972 31.1769
117.761 1083 32.909
117.879 1194 34.5543
117.996 1175 34.2783
118.114 1215 34.8569
118.231 1290 35.9166
118.349 1274 35.6931
118.466 1309 36.1801
118.584 1296 36
118.701 1267 35.5949
118.819 1274 35.6931
118.936 1298 36.0278
119.053 1135 33.6898
119.171 1151 33.9264
119.288 1082 32.8938
119.405 1103 33.2114
119.523 1028 32.0624
119.64 1073 32.7567
119.757 1068 32.6803
119.875 1036 32.187
119.992 1120 33.4664
120.109 1113 33.3617
120.226 1096 33.1059
120.343 1139 33.7491
120.46 1078 32.8329
120.578 991 31.4802
120.695 967 31.0966
120.812 866 29.4279
120.929 883 29.7153
121.046 879 29.6479
121.163 840 28.9828
121.279 968 31.1127
121.396 1060 32.5576
121.513 1171 34.2199
121.63 1177 34.3074
121.747 1227 35.0286
121.863 1264 35.5528
121.98 1313 36.2353
122.097 1308 36.1663
122.213 1208 34.7563
122.33 1225 35
122.446 1180 34.3511
122.563 1180 34.3511
122.679 1139 33.7491
122.795 1133 33.6601
122.912 1107 33.2716
123.028 1040 32.249
123.144 1039 32.2335
123.26 934 30.5614
123.377 0 1
123.493 0 1
123.609 0 1
123.725 0 1
123.84 0 1
123.956 0 1
124.072 0 1
124.188 0 1
124.303 0 1
124.419 0 1
126.852 0 1
126.968 0 1
127.083 0 1
127.199 0 1
127.315 0 1
127.431 0 1
127.547 0 1
127.663 0 1
127.779 0 1
127.895 0 1
128.011 0 1
128.127 0 1
128.243 0 1
128.359 1155 33.9853
128.476 1151 33.9264
128.592 1177 34.3074
128.708 1178 34.322
128.825 1233 35.1141
128.941 1203 34.6843
129.058 1116 33.4066
129.174 1232 35.0999
129.291 1197 34.5977
129.408 1157 34.0147
129.524 1105 33.2415
129.641 1029 32.078
129.758 975 31.225
129.875 990 31.4643
129.992 889 29.8161
130.108 945 30.7409
130.225 955 30.9031
130.342 1082 32.8938
130.459 1168 34.176
130.576 1264 35.5528
130.693 1205 34.7131
130.81 1290 35.9166
130.928 1243 35.2562
131.045 1383 37.1887
131.162 1259 35.4824
131.279 1284 35.8329
131.396 1295 35.9861
131.513 1238 35.1852
131.631 1291 35.9305
131.748 1229 35.0571
131.865 1150 33.9116
131.983 1260 35.4965
132.1 1164 34.1174
132.217 1235 35.1426
132.335 1201 34.6554
132.452 1214 34.8425
132.57 1249 35.3412
132.687 1218 34.8999
132.804 1248 35.327
132.922 1190 34.4964
133.039 1154 33.9706
133.157 1056 32.4962
133.274 997 31.5753
133.392 964 31.0483
133.509 937 30.6105
133.627 938 30.6268
133.744 986 31.4006
133.862 1106 33.2566
133.979 1090 33.0151
134.097 1203 34.6843
134.214 1245 35.2846
134.332 1320 36.3318
134.449 1244 35.2704
134.567 1295 35.9861
134.684 1333 36.5103
134.802 1352 36.7696
134.919 1313 36.2353
135.037 1358 36.8511
135.154 1281 35.7911
135.272 1227 35.0286
135.389 1192 34.5254
135.507 1181 34.3657
135.624 1206 34.7275
135.742 1202 34.6699
135.859 1243 35.2562
135.977 1206 34.7275
136.094 1254 35.4119
136.211 1203 34.6843
136.329 1245 35.2846
136.446 1262 35.5246
136.564 1215 34.8569
136.681 1171 34.2199
136.798 1084 32.9242
136.915 1037 32.2025
137.033 962 31.0161
137.15 983 31.3528
137.267 957 30.9354
137.384 1020 31.9374
137.502 1030 32.0936
137.619 1097 33.121
137.736 1158 34.0294
137.853 1214 34.8425
137.97 1280 35.7771
138.087 1217 34.8855
138.204 1285 35.8469
138.321 1287 35.8748
138.438 1310 36.1939
138.555 1283 35.819
138.672 1282 35.805
138.788 1239 35.1994
138.905 1223 34.9714
139.022 1273 35.6791
139.139 1195 34.5688
139.255 1241 35.2278
139.372 1200 34.641
139.488 1271 35.6511
139.605 1244 35.2704
139.721 1315 36.2629
139.838 1324 36.3868
139.954 1214 34.8425
140.071 1228 35.0428
140.187 1158 34.0294
140.303 1053 32.45
140.419 1037 32.2025
140.535 1056 32.4962
140.652 988 31.4325
140.768 0 1
140.884 0 1
141 0 1
141.115 0 1
141.231 0 1
141.347 0 1
141.463 0 1
141.578 0 1
141.694 0 1
144.104 0 1
144.219 0 1
144.335 0 1
144.45 0 1
144.566 0 1
144.682 0 1
144.798 0 1
144.914 0 1
145.03 0 1
145.146 869 29.4788
145.262 917 30.282
145.378 854 29.2233
145.494 816 28.5657
145.61 762 27.6043
145.726 795 28.1957
145.842 700 26.4575
145.959 845 29.0689
146.075 716 26.7582
146.192 696 26.3818
146.308 776 27.8568
146.425 874 29.5635
146.541 933 30.545
146.658 910 30.1662
146.774 961 31
146.891 932 30.5287
147.008 1028 32.0624
147.125 989 31.4484
147.241 1053 32.45
147.358 1049 32.3883
147.475 1032 32.1248
147.592 1080 32.8634
147.709 975 31.225
147.826 1002 31.6544
147.943 994 31.5278
148.06 1014 31.8434
148.177 941 30.6757
148.294 1020 31.9374
148.411 956 30.9192
148.528 997 31.5753
148.645 1014 31.8434
148.762 1006 31.7175
148.88 1021 31.9531
148.997 1028 32.0624
149.114 1004 31.686
149.231 951 30.8383
149.349 899 29.9833
149.466 912 30.1993
149.583 854 29.2233
149.701 830 28.8097
149.818 778 27.8927
149.935 767 27.6948
150.053 873 29.5466
150.17 899 29.9833
150.287 917 30.282
150.405 941 30.6757
150.522 934 30.5614
150.64 963 31.0322
150.757 972 31.1769
150.875 967 31.0966
150.992 1048 32.3728
151.11 1009 31.7648
151.227 1092 33.0454
151.344 1049 32.3883
151.462 998 31.5911
151.579 1013 31.8277
151.697 992 31.496
151.814 1014 31.8434
151.932 1015 31.8591
152.049 1053 32.45
152.167 1026 32.0312
152.284 1009 31.7648
152.402 1025 32.0156
152.519 1000 31.6228
152.636 1037 32.2025
152.754 947 30.7734
152.871 932 30.5287
152.989 1002 31.6544
153.106 891 29.8496
153.223 935 30.5778
153.341 844 29.0517
153.458 816 28.5657
153.575 857 29.2746
153.693 903 30.05
153.81 902 30.0333
153.927 959 30.9677
154.044 1066 32.6497
154.162 1070 32.7109
154.279 1101 33.1813
154.396 1097 33.121
154.513 1074 32.7719
154.63 1123 33.5112
154.747 1182 34.3802
154.864 1218 34.8999
154.981 1211 34.7994
155.098 1158 34.0294
155.215 1097 33.121
155.332 1121 33.4813
155.449 1088 32.9848
155.566 1081 32.8786
155.683 1071 32.7261
155.8 1100 33.1662
155.917 1113 33.3617
156.033 1137 33.7194
156.15 0 1
156.267 0 1
156.383 0 1
156.5 0 1
156.617 0 1
156.733 0 1
156.85 0 1
156.966 0 1
157.082 0 1
157.199 0 1
157.315 0 1
157.431 0 1
157.547 0 1
157.664 0 1
157.78 0 1
157.896 0 1
158.012 0 1
158.128 0 1
158.244 0 1
158.359 0 1
158.475 0 1
158.591 0 1
158.706 0 1
