
6.15755 0 1
6.2731 0 1
6.3887 0 1
6.50437 0 1
6.62009 0 1
6.73587 0 1
6.8517 0 1
6.96759 0 1
7.08353 0 1
7.19952 0 1
7.31557 0 1
7.43166 0 1
7.54781 0 1
7.664 0 1
7.78024 0 1
7.89653 0 1
8.01286 0 1
8.12924 0 1
8.24567 0 1
8.36213 0 1
8.47864 0 1
8.59519 0 1
8.71178 0 1
8.82841 0 1
8.94508 0 1
9.06179 0 1
9.17853 0 1
9.29531 0 1
9.41212 0 1
9.52897 0 1
9.64584 0 1
9.76276 0 1
9.8797 0 1
9.99667 0 1
10.1137 0 1
10.2307 0 1
10.3478 0 1
10.4648 0 1
10.5819 0 1
10.6991 0 1
10.8162 0 1
10.9334 0 1
11.0506 0 1
11.1678 0 1
11.285 0 1
11.4023 0 1
11.5196 0 1
11.6369 0 1
11.7542 0 1
11.8715 0 1
11.9888 0 1
12.1062 0 1
12.2235 0 1
12.3409 0 1
12.4582 0 1
12.5756 0 1
12.693 0 1
12.8104 0 1
12.9278 0 1
13.0452 0 1
13.1626 0 1
13.28 0 1
13.3974 0 1
13.5149 0 1
13.6323 0 1
13.7497 0 1
13.8671 0 1
13.9845 0 1
14.1019 0 1
14.2193 0 1
14.3367 0 1
14.4541 0 1
14.5714 0 1
14.6888 0 1
14.8062 0 1
14.9235 0 1
15.0408 960 30.9839
15.1581 1041 32.2645
15.2755 1063 32.6037
15.3927 1097 33.121
15.51 1115 33.3916
15.6273 1058 32.5269
15.7445 1005 31.7017
15.8617 1024 32
15.9789 942 30.692
16.0961 1024 32
16.2132 943 30.7083
16.3304 973 31.1929
16.4475 960 30.9839
16.5646 944 30.7246
16.6816 935 30.5778
16.7986 947 30.7734
16.9156 883 29.7153
17.0326 847 29.1033
17.1496 852 29.189
17.2665 919 30.315
17.3833 864 29.3939
17.5002 835 28.8964
17.617 900 30
17.7338 863 29.3769
17.8505 843 29.0345
17.9672 817 28.5832
18.0839 795 28.1957
18.2005 864 29.3939
18.3171 851 29.1719
18.4337 896 29.9333
18.5502 860 29.3258
18.6666 853 29.2062
18.7831 902 30.0333
18.8994 888 29.7993
19.0158 852 29.189
19.1321 869 29.4788
19.2483 768 27.7128
19.3645 726 26.9444
19.4806 695 26.3629
19.5967 740 27.2029
19.7128 634 25.1794
19.8288 645 25.3969
19.9447 573 23.9374
20.0606 0 1
20.1764 0 1
20.2922 0 1
20.4079 0 1
20.5236 0 1
20.6392 0 1
20.7548 0 1
20.8702 0 1
23.3078 0 1
23.4233 0 1
23.539 0 1
23.6547 0 1
23.7704 0 1
23.8862 0 1
24.0021 0 1
24.118 0 1
24.234 0 1
24.35 0 1
24.4661 362 19.0263
24.5822 468 21.6333
24.6984 531 23.0434
24.8146 595 24.3926
24.9309 691 26.2869
25.0472 795 28.1957
25.1636 869 29.4788
25.28 903 30.05
25.3965 960 30.9839
25.513 954 30.8869
25.6296 960 30.9839
25.7462 936 30.5941
25.8628 1076 32.8024
25.9795 929 30.4795
26.0962 975 31.225
26.213 940 30.6594
26.3298 937 30.6105
26.4466 836 28.9137
26.5635 787 28.0535
26.6804 780 27.9285
26.7973 756 27.4955
26.9143 766 27.6767
27.0313 776 27.8568
27.1483 769 27.7308
27.2653 801 28.3019
27.3824 790 28.1069
27.4996 816 28.5657
27.6167 880 29.6648
27.7339 872 29.5296
27.8511 771 27.7669
27.9683 882 29.6985
28.0855 828 28.775
28.2028 838 28.9482
28.3201 862 29.3598
28.4374 901 30.0167
28.5547 892 29.8664
28.6721 931 30.5123
28.7894 878 29.6311
28.9068 863 29.3769
29.0242 853 29.2062
29.1416 826 28.7402
29.259 886 29.7658
29.3764 891 29.8496
29.4939 799 28.2666
29.6113 803 28.3373
29.7288 744 27.2764
29.8463 740 27.2029
29.9638 760 27.5681
30.0812 735 27.1109
30.1987 727 26.9629
30.3162 761 27.5862
30.4337 746 27.313
30.5512 792 28.1425
30.6687 790 28.1069
30.7862 803 28.3373
30.9037 789 28.0891
31.0212 858 29.2916
31.1387 875 29.5804
31.2562 845 29.0689
31.3737 854 29.2233
31.4912 866 29.4279
31.6087 843 29.0345
31.7262 844 29.0517
31.8436 802 28.3196
31.9611 800 28.2843
32.0785 792 28.1425
32.1959 850 29.1548
32.3134 811 28.4781
32.4308 816 28.5657
32.5482 721 26.8514
32.6655 795 28.1957
32.7829 755 27.4773
32.9002 722 26.8701
33.0176 694 26.3439
33.1349 696 26.3818
33.2522 717 26.7769
33.3694 637 25.2389
33.4867 656 25.6125
33.6039 680 26.0768
33.7211 714 26.7208
33.8383 709 26.6271
33.9554 692 26.3059
34.0725 734 27.0924
34.1896 723 26.8887
34.3067 672 25.923
34.4237 670 25.8844
34.5407 794 28.178
34.6577 799 28.2666
34.7746 819 28.6182
34.8915 802 28.3196
35.0084 757 27.5136
35.1252 723 26.8887
35.242 770 27.7489
35.3587 772 27.7849
35.4755 743 27.258
35.5921 722 26.8701
35.7088 725 26.9258
35.8254 752 27.4226
35.9419 770 27.7489
36.0584 726 26.9444
36.1749 683 26.1343
36.2913 701 26.4764
36.4077 658 25.6515
36.524 570 23.8747
36.6403 543 23.3024
36.7565 561 23.6854
36.8727 529 23
36.9889 472 21.7256
37.1049 401 20.025
37.221 0 1
37.3369 0 1
37.4529 0 1
37.5687 0 1
37.6845 0 1
37.8003 0 1
37.916 0 1
38.0316 0 1
38.1472 0 1
40.5851 0 1
40.7008 0 1
40.8164 0 1
40.9322 0 1
41.048 0 1
41.1639 0 1
41.2798 0 1
41.3958 0 1
41.5118 0 1
41.6279 0 1
41.744 340 18.4391
41.8602 376 19.3907
41.9765 487 22.0681
42.0928 499 22.3383
42.2091 492 22.1811
42.3255 486 22.0454
42.4419 506 22.4944
42.5584 543 23.3024
42.675 577 24.0208
42.7915 591 24.3105
42.9081 577 24.0208
43.0248 560 23.6643
43.1415 517 22.7376
43.2582 582 24.1247
43.375 548 23.4094
43.4918 605 24.5967
43.6087 585 24.1868
43.7256 526 22.9347
43.8425 545 23.3452
43.9595 556 23.5797
44.0765 561 23.6854
44.1935 545 23.3452
44.3106 530 23.0217
44.4277 522 22.8473
44.5448 569 23.8537
44.6619 577 24.0208
44.7791 542 23.2809
44.8963 531 23.0434
45.0136 612 24.7386
45.1308 645 25.3969
45.2481 618 24.8596
45.3654 549 23.4307
45.4827 560 23.6643
45.6001 566 23.7908
45.7174 535 23.1301
45.8348 522 22.8473
45.9522 495 22.2486
46.0697 525 22.9129
46.1871 529 23
46.3046 577 24.0208
46.422 579 24.0624
46.5395 540 23.2379
46.657 528 22.9783
46.7745 498 22.3159
46.892 483 21.9773
47.0096 530 23.0217
47.1271 571 23.8956
47.2446 569 23.8537
47.3622 547 23.388
47.4797 514 22.6716
47.5973 525 22.9129
47.7149 559 23.6432
47.8324 521 22.8254
47.95 544 23.3238
48.0675 518 22.7596
48.1851 541 23.2594
48.3027 541 23.2594
48.4202 607 24.6374
48.5378 567 23.8118
48.6554 584 24.1661
48.7729 579 24.0624
48.8904 584 24.1661
49.008 566 23.7908
49.1255 527 22.9565
49.243 508 22.5389
49.3605 513 22.6495
49.478 522 22.8473
49.5955 464 21.5407
49.713 502 22.4054
49.8304 533 23.0868
49.9479 500 22.3607
50.0653 469 21.6564
50.1827 465 21.5639
50.3001 474 21.7715
50.4175 498 22.3159
50.5348 559 23.6432
50.6521 542 23.2809
50.7694 520 22.8035
50.8867 513 22.6495
51.004 507 22.5167
51.1212 489 22.1133
51.2384 542 23.2809
51.3556 514 22.6716
51.4727 565 23.7697
51.5899 521 22.8254
51.707 577 24.0208
51.824 563 23.7276
51.9411 583 24.1454
52.0581 550 23.4521
52.175 554 23.5372
52.2919 517 22.7376
52.4088 510 22.5832
52.5257 546 23.3666
52.6425 534 23.1084
52.7593 461 21.4709
52.876 437 20.9045
52.9927 465 21.5639
53.1094 444 21.0713
53.226 485 22.0227
53.3426 423 20.567
53.4591 502 22.4054
53.5756 497 22.2935
53.692 438 20.9284
53.8084 393 19.8242
53.9248 377 19.4165
54.0411 299 17.2916
54.1573 310 17.6068
54.2735 0 1
54.3896 0 1
54.5057 0 1
54.6217 0 1
54.7377 0 1
54.8537 0 1
54.9695 0 1
55.0853 0 1
55.2011 0 1
55.3168 0 1
55.4324 0 1
57.824 0 1
57.9396 0 1
58.0553 0 1
58.1711 0 1
58.2869 0 1
58.4028 0 1
58.5187 0 1
58.6347 0 1
58.7508 0 1
58.8669 0 1
58.983 483 21.9773
59.0992 520 22.8035
59.2155 561 23.6854
59.3318 658 25.6515
59.4482 701 26.4764
59.5646 744 27.2764
59.681 788 28.0713
59.7975 791 28.1247
59.9141 860 29.3258
60.0306 759 27.55
60.1473 843 29.0345
60.2639 814 28.5307
60.3807 848 29.1204
60.4974 797 28.2312
60.6142 826 28.7402
60.731 838 28.9482
60.8479 796 28.2135
60.9648 789 28.0891
61.0818 812 28.4956
61.1987 716 26.7582
61.3158 739 27.1846
61.4328 750 27.3861
61.5499 715 26.7395
61.667 671 25.9037
61.7841 713 26.7021
61.9013 709 26.6271
62.0185 746 27.313
62.1357 718 26.7955
62.253 707 26.5895
62.3702 661 25.7099
62.4875 696 26.3818
62.6049 684 26.1534
62.7222 693 26.3249
62.8396 697 26.4008
62.9569 654 25.5734
63.0743 671 25.9037
63.1918 678 26.0384
63.3092 637 25.2389
63.4267 650 25.4951
63.5441 695 26.3629
63.6616 657 25.632
63.7791 658 25.6515
63.8966 663 25.7488
64.0142 651 25.5147
64.1317 706 26.5707
64.2492 656 25.6125
64.3668 644 25.3772
64.4843 637 25.2389
64.6019 643 25.3574
64.7195 620 24.8998
64.837 633 25.1595
64.9546 548 23.4094
65.0722 603 24.5561
65.1898 575 23.9792
65.3074 573 23.9374
65.4249 566 23.7908
65.5425 572 23.9165
65.6601 585 24.1868
65.7777 604 24.5764
65.8952 652 25.5343
66.0128 630 25.0998
66.1304 621 24.9199
66.2479 648 25.4558
66.3655 600 24.4949
66.483 653 25.5539
66.6005 645 25.3969
66.718 634 25.1794
66.8355 582 24.1247
66.953 570 23.8747
67.0705 623 24.96
67.1879 631 25.1197
67.3054 672 25.923
67.4228 638 25.2587
67.5402 637 25.2389
67.6576 624 24.98
67.7749 637 25.2389
67.8923 647 25.4362
68.0096 696 26.3818
68.1269 615 24.7992
68.2442 590 24.2899
68.3614 631 25.1197
68.4787 555 23.5584
68.5958 561 23.6854
68.713 574 23.9583
68.8302 611 24.7184
68.9473 574 23.9583
69.0643 553 23.516
69.1814 577 24.0208
69.2984 568 23.8328
69.4154 604 24.5764
69.5323 593 24.3516
69.6492 613 24.7588
69.7661 571 23.8956
69.8829 566 23.7908
69.9997 618 24.8596
70.1165 625 25
70.2332 552 23.4947
70.3499 552 23.4947
70.4665 535 23.1301
70.5831 493 22.2036
70.6996 469 21.6564
70.8161 454 21.3073
70.9326 429 20.7123
71.049 387 19.6723
71.1653 356 18.868
71.2817 364 19.0788
71.3979 310 17.6068
71.5141 275 16.5831
71.6303 250 15.8114
71.7464 240 15.4919
71.8624 0 1
71.9784 0 1
72.0944 0 1
72.2102 0 1
72.3261 0 1
72.4418 0 1
72.5575 0 1
72.6732 0 1
75.1054 0 1
75.2209 0 1
75.3365 0 1
75.4521 0 1
75.5678 0 1
75.6835 0 1
75.7993 0 1
75.9151 0 1
76.031 0 1
76.147 367 19.1572
76.263 432 20.7846
76.3791 493 22.2036
76.4952 511 22.6053
76.6113 527 22.9565
76.7276 567 23.8118
76.8438 505 22.4722
76.9601 542 23.2809
77.0765 574 23.9583
77.1929 547 23.388
77.3093 535 23.1301
77.4258 500 22.3607
77.5423 528 22.9783
77.6589 453 21.2838
77.7755 479 21.8861
77.8921 473 21.7486
78.0088 484 22
78.1256 422 20.5426
78.2423 470 21.6795
78.3591 519 22.7816
78.4759 508 22.5389
78.5928 484 22
78.7097 517 22.7376
78.8266 535 23.1301
78.9436 529 23
79.0606 526 22.9347
79.1776 496 22.2711
79.2946 523 22.8692
79.4117 508 22.5389
79.5288 550 23.4521
79.6459 562 23.7065
79.7631 536 23.1517
79.8802 547 23.388
79.9974 524 22.891
80.1147 564 23.7487
80.2319 572 23.9165
80.3491 587 24.2281
80.4664 553 23.516
80.5837 526 22.9347
80.701 558 23.622
80.8183 564 23.7487
80.9357 552 23.4947
81.053 573 23.9374
81.1704 526 22.9347
81.2877 577 24.0208
81.4051 497 22.2935
81.5225 492 22.1811
81.6399 451 21.2368
81.7573 442 21.0238
81.8747 484 22
81.9922 492 22.1811
82.1096 481 21.9317
82.227 508 22.5389
82.3444 570 23.8747
82.4619 550 23.4521
82.5793 562 23.7065
82.6967 548 23.4094
82.8142 588 24.2487
82.9316 569 23.8537
83.049 520 22.8035
83.1664 558 23.622
83.2838 562 23.7065
83.4012 492 22.1811
83.5186 564 23.7487
83.636 561 23.6854
83.7534 566 23.7908
83.8708 597 24.4336
83.9881 568 23.8328
84.1055 581 24.1039
84.2228 599 24.4745
84.3401 564 23.7487
84.4575 557 23.6008
84.5747 555 23.5584
84.692 565 23.7697
84.8093 566 23.7908
84.9265 537 23.1733
85.0437 531 23.0434
85.1609 532 23.0651
85.2781 518 22.7596
85.3952 458 21.4009
85.5123 491 22.1585
85.6294 586 24.2074
85.7465 514 22.6716
85.8636 566 23.7908
85.9806 548 23.4094
86.0976 559 23.6432
86.2145 555 23.5584
86.3315 569 23.8537
86.4484 574 23.9583
86.5652 568 23.8328
86.682 554 23.5372
86.7988 532 23.0651
86.9156 566 23.7908
87.0323 578 24.0416
87.149 588 24.2487
87.2657 569 23.8537
87.3823 591 24.3105
87.4988 556 23.5797
87.6154 562 23.7065
87.7318 548 23.4094
87.8483 565 23.7697
87.9647 465 21.5639
88.081 484 22
88.1973 386 19.6469
88.3136 336 18.3303
88.4298 345 18.5742
88.546 340 18.4391
88.6621 302 17.3781
88.7781 273 16.5227
88.8942 0 1
89.0101 0 1
89.126 0 1
89.2419 0 1
89.3577 0 1
89.4734 0 1
89.5891 0 1
89.7047 0 1
89.8203 0 1
89.9358 0 1
92.3269 0 1
92.4424 0 1
92.558 0 1
92.6736 0 1
92.7893 0 1
92.905 0 1
93.0208 0 1
93.1366 0 1
93.2525 0 1
93.3685 0 1
93.4845 0 1
93.6005 479 21.8861
93.7167 549 23.4307
93.8328 507 22.5167
93.949 559 23.6432
94.0653 540 23.2379
94.1816 505 22.4722
94.2979 529 23
94.4143 538 23.1948
94.5307 499 22.3383
94.6472 504 22.4499
94.7637 552 23.4947
94.8803 548 23.4094
94.9969 543 23.3024
95.1135 623 24.96
95.2302 601 24.5153
95.3469 633 25.1595
95.4637 597 24.4336
95.5805 589 24.2693
95.6973 618 24.8596
95.8142 580 24.0832
95.9311 565 23.7697
96.048 576 24
96.1649 567 23.8118
96.2819 545 23.3452
96.3989 552 23.4947
96.516 556 23.5797
96.633 616 24.8193
96.7501 636 25.219
96.8673 624 24.98
96.9844 645 25.3969
97.1016 569 23.8537
97.2188 650 25.4951
97.336 602 24.5357
97.4532 611 24.7184
97.5704 596 24.4131
97.6877 588 24.2487
97.805 579 24.0624
97.9223 536 23.1517
98.0396 517 22.7376
98.1569 555 23.5584
98.2743 559 23.6432
98.3916 571 23.8956
98.509 587 24.2281
98.6264 616 24.8193
98.7438 653 25.5539
98.8612 604 24.5764
98.9786 617 24.8395
99.096 647 25.4362
99.2134 634 25.1794
99.3308 629 25.0799
99.4482 653 25.5539
99.5656 619 24.8797
99.6831 615 24.7992
99.8005 649 25.4755
99.9179 622 24.9399
100.035 705 26.5518
100.153 654 25.5734
100.27 693 26.3249
100.388 700 26.4575
100.505 627 25.04
100.622 668 25.8457
100.74 643 25.3574
100.857 604 24.5764
100.975 549 23.4307
101.092 631 25.1197
101.209 615 24.7992
101.327 653 25.5539
101.444 644 25.3772
101.561 595 24.3926
101.679 578 24.0416
101.796 575 23.9792
101.913 641 25.318
102.03 653 25.5539
102.148 637 25.2389
102.265 727 26.9629
102.382 716 26.7582
102.499 668 25.8457
102.616 677 26.0192
102.733 698 26.4197
102.851 677 26.0192
102.968 669 25.865
103.085 727 26.9629
103.202 721 26.8514
103.319 640 25.2982
103.436 730 27.0185
103.552 711 26.6646
103.669 745 27.2947
103.786 745 27.2947
103.903 756 27.4955
104.02 836 28.9137
104.137 756 27.4955
104.253 769 27.7308
104.37 776 27.8568
104.487 765 27.6586
104.603 722 26.8701
104.72 756 27.4955
104.836 667 25.8263
104.953 705 26.5518
105.069 652 25.5343
105.186 573 23.9374
105.302 571 23.8956
105.418 552 23.4947
105.535 497 22.2935
105.651 505 22.4722
105.767 472 21.7256
105.883 458 21.4009
105.999 362 19.0263
106.115 0 1
106.231 0 1
106.347 0 1
106.463 0 1
106.579 0 1
106.694 0 1
106.81 0 1
106.926 0 1
107.041 0 1
107.157 0 1
109.576 0 1
109.692 0 1
109.807 0 1
109.923 0 1
110.039 0 1
110.155 0 1
110.27 0 1
110.386 0 1
110.502 0 1
110.618 310 17.6068
110.735 386 19.6469
110.851 517 22.7376
110.967 552 23.4947
111.083 593 24.3516
111.199 642 25.3377
111.316 640 25.2982
111.432 674 25.9615
111.549 696 26.3818
111.665 717 26.7769
111.782 664 25.7682
111.898 670 25.8844
112.015 644 25.3772
112.132 611 24.7184
112.248 692 26.3059
112.365 661 25.7099
112.482 660 25.6905
112.599 649 25.4755
112.716 722 26.8701
112.832 611 24.7184
112.949 657 25.632
113.066 639 25.2784
113.183 627 25.04
113.3 683 26.1343
113.417 678 26.0384
113.534 624 24.98
113.652 604 24.5764
113.769 593 24.3516
113.886 593 24.3516
114.003 568 23.8328
114.12 549 23.4307
114.238 545 23.3452
114.355 513 22.6495
114.472 584 24.1661
114.589 595 24.3926
114.707 604 24.5764
114.824 609 24.6779
114.942 621 24.9199
115.059 601 24.5153
115.176 615 24.7992
115.294 646 25.4165
115.411 591 24.3105
115.529 577 24.0208
115.646 574 23.9583
115.764 566 23.7908
115.881 574 23.9583
115.999 600 24.4949
116.116 602 24.5357
116.234 582 24.1247
116.351 576 24
116.469 558 23.622
116.586 563 23.7276
116.704 552 23.4947
116.821 577 24.0208
116.939 542 23.2809
117.056 598 24.454
117.174 611 24.7184
117.291 569 23.8537
117.409 526 22.9347
117.526 523 22.8692
117.644 457 21.3776
117.761 482 21.9545
117.879 515 22.6936
117.996 520 22.8035
118.114 531 23.0434
118.231 534 23.1084
118.349 548 23.4094
118.466 509 22.561
118.584 577 24.0208
118.701 573 23.9374
118.819 567 23.8118
118.936 560 23.6643
119.053 549 23.4307
119.171 499 22.3383
119.288 553 23.516
119.405 499 22.3383
119.523 495 22.2486
119.64 506 22.4944
119.757 523 22.8692
119.875 593 24.3516
119.992 527 22.9565
120.109 547 23.388
120.226 497 22.2935
120.343 504 22.4499
120.46 488 22.0907
120.578 499 22.3383
120.695 508 22.5389
120.812 484 22
120.929 530 23.0217
121.046 578 24.0416
121.163 485 22.0227
121.279 470 21.6795
121.396 438 20.9284
121.513 460 21.4476
121.63 436 20.8806
121.747 445 21.095
121.863 420 20.4939
121.98 476 21.8174
122.097 468 21.6333
122.213 427 20.664
122.33 438 20.9284
122.446 439 20.9523
122.563 388 19.6977
122.679 397 19.9249
122.795 353 18.7883
122.912 317 17.8045
123.028 304 17.4356
123.144 271 16.4621
123.26 240 15.4919
123.377 0 1
123.493 0 1
123.609 0 1
123.725 0 1
123.84 0 1
123.956 0 1
124.072 0 1
124.188 0 1
124.303 0 1
124.419 0 1
126.852 0 1
126.968 0 1
127.083 0 1
127.199 0 1
127.315 0 1
127.431 0 1
127.547 0 1
127.663 0 1
127.779 0 1
127.895 0 1
128.011 0 1
128.127 0 1
128.243 0 1
128.359 520 22.8035
128.476 504 22.4499
128.592 540 23.2379
128.708 557 23.6008
128.825 556 23.5797
128.941 582 24.1247
129.058 577 24.0208
129.174 642 25.3377
129.291 600 24.4949
129.408 583 24.1454
129.524 587 24.2281
129.641 570 23.8747
129.758 609 24.6779
129.875 619 24.8797
129.992 594 24.3721
130.108 625 25
130.225 665 25.7876
130.342 607 24.6374
130.459 577 24.0208
130.576 545 23.3452
130.693 533 23.0868
130.81 525 22.9129
130.928 571 23.8956
131.045 596 24.4131
131.162 669 25.865
131.279 717 26.7769
131.396 758 27.5318
131.513 741 27.2213
131.631 728 26.9815
131.748 784 28
131.865 750 27.3861
131.983 811 28.4781
132.1 817 28.5832
132.217 879 29.6479
132.335 896 29.9333
132.452 940 30.6594
132.57 1015 31.8591
132.687 971 31.1609
132.804 1104 33.2265
132.922 997 31.5753
133.039 1035 32.1714
133.157 1077 32.8177
133.274 1096 33.1059
133.392 1120 33.4664
133.509 1072 32.7414
133.627 1033 32.1403
133.744 1046 32.3419
133.862 1058 32.5269
133.979 1059 32.5423
134.097 946 30.7571
134.214 934 30.5614
134.332 891 29.8496
134.449 966 31.0805
134.567 973 31.1929
134.684 1119 33.4515
134.802 1101 33.1813
134.919 1180 34.3511
135.037 1139 33.7491
135.154 1086 32.9545
135.272 1179 34.3366
135.389 1064 32.619
135.507 1095 33.0908
135.624 1137 33.7194
135.742 1120 33.4664
135.859 1081 32.8786
135.977 1195 34.5688
136.094 1181 34.3657
136.211 1175 34.2783
136.329 1206 34.7275
136.446 1207 34.7419
136.564 1183 34.3948
136.681 1190 34.4964
136.798 1165 34.1321
136.915 1166 34.1467
137.033 1175 34.2783
137.15 1113 33.3617
137.267 1225 35
137.384 1128 33.5857
137.502 1102 33.1964
137.619 1026 32.0312
137.736 1086 32.9545
137.853 933 30.545
137.97 953 30.8707
138.087 889 29.8161
138.204 1030 32.0936
138.321 1115 33.3916
138.438 1268 35.609
138.555 1229 35.0571
138.672 1239 35.1994
138.788 1277 35.7351
138.905 1239 35.1994
139.022 1166 34.1467
139.139 1012 31.8119
139.255 999 31.607
139.372 1060 32.5576
139.488 948 30.7896
139.605 949 30.8058
139.721 976 31.241
139.838 911 30.1828
139.954 914 30.2324
140.071 884 29.7321
140.187 843 29.0345
140.303 749 27.3679
140.419 741 27.2213
140.535 703 26.5141
140.652 717 26.7769
140.768 0 1
140.884 0 1
141 0 1
141.115 0 1
141.231 0 1
141.347 0 1
141.463 0 1
141.578 0 1
141.694 0 1
144.104 0 1
144.219 0 1
144.335 0 1
144.45 0 1
144.566 0 1
144.682 0 1
144.798 0 1
144.914 0 1
145.03 0 1
145.146 1762 41.9762
145.262 1841 42.9069
145.378 1911 43.715
145.494 1902 43.6119
145.61 2073 45.5302
145.726 2018 44.9222
145.842 1968 44.3621
145.959 2012 44.8553
146.075 2032 45.0777
146.192 2015 44.8888
146.308 2004 44.7661
146.425 1899 43.5775
146.541 1625 40.3113
146.658 1293 35.9583
146.774 1187 34.4529
146.891 1442 37.9737
147.008 1801 42.4382
147.125 1925 43.8748
147.241 2085 45.6618
147.358 2108 45.913
147.475 2093 45.7493
147.592 2067 45.4643
147.709 1962 44.2945
147.826 1979 44.486
147.943 1880 43.359
148.06 1773 42.107
148.177 1794 42.3556
148.294 1839 42.8836
148.411 1908 43.6807
148.528 1799 42.4146
148.645 1734 41.6413
148.762 1808 42.5206
148.88 1804 42.4735
148.997 1944 44.0908
149.114 1849 43
149.231 1823 42.6966
149.349 1857 43.0929
149.466 1754 41.8808
149.583 1822 42.6849
149.701 1753 41.8688
149.818 1796 42.3792
149.935 1832 42.8019
150.053 1665 40.8044
150.17 1527 39.0768
150.287 1267 35.5949
150.405 1150 33.9116
150.522 1236 35.1568
150.64 1458 38.1838
150.757 1575 39.6863
150.875 1647 40.5832
150.992 1727 41.5572
151.11 1708 41.328
151.227 1806 42.4971
151.344 1687 41.0731
151.462 1667 40.8289
151.579 1637 40.4599
151.697 1607 40.0874
151.814 1628 40.3485
151.932 1668 40.8412
152.049 1720 41.4729
152.167 1638 40.4722
152.284 1721 41.4849
152.402 1766 42.0238
152.519 1692 41.1339
152.636 1723 41.509
152.754 1710 41.3521
152.871 1800 42.4264
152.989 1781 42.2019
153.106 1806 42.4971
153.223 1708 41.328
153.341 1808 42.5206
153.458 1813 42.5793
153.575 1709 41.3401
153.693 1554 39.4208
153.81 1330 36.4692
153.927 1191 34.5109
154.044 1193 34.5398
154.162 1448 38.0526
154.279 1611 40.1373
154.396 1644 40.5463
154.513 1622 40.2741
154.63 1727 41.5572
154.747 1684 41.0366
154.864 1631 40.3856
154.981 1551 39.3827
155.098 1532 39.1408
155.215 1552 39.3954
155.332 1465 38.2753
155.449 1613 40.1622
155.566 1508 38.833
155.683 1553 39.4081
155.8 1568 39.598
155.917 1590 39.8748
156.033 1599 39.9875
156.15 0 1
156.267 0 1
156.383 0 1
156.5 0 1
156.617 0 1
156.733 0 1
156.85 0 1
156.966 0 1
157.082 0 1
157.199 0 1
157.315 0 1
157.431 0 1
157.547 0 1
157.664 0 1
157.78 0 1
157.896 0 1
158.012 0 1
158.128 0 1
158.244 0 1
158.359 0 1
158.475 0 1
158.591 0 1
158.706 0 1
