
6.15755 0 1
6.2731 0 1
6.3887 0 1
6.50437 0 1
6.62009 0 1
6.73587 0 1
6.8517 0 1
6.96759 0 1
7.08353 0 1
7.19952 0 1
7.31557 0 1
7.43166 0 1
7.54781 0 1
7.664 0 1
7.78024 0 1
7.89653 0 1
8.01286 0 1
8.12924 0 1
8.24567 0 1
8.36213 0 1
8.47864 0 1
8.59519 0 1
8.71178 0 1
8.82841 0 1
8.94508 0 1
9.06179 0 1
9.17853 0 1
9.29531 0 1
9.41212 0 1
9.52897 0 1
9.64584 0 1
9.76276 0 1
9.8797 0 1
9.99667 0 1
10.1137 0 1
10.2307 0 1
10.3478 0 1
10.4648 0 1
10.5819 0 1
10.6991 0 1
10.8162 0 1
10.9334 0 1
11.0506 0 1
11.1678 0 1
11.285 0 1
11.4023 0 1
11.5196 0 1
11.6369 0 1
11.7542 0 1
11.8715 0 1
11.9888 0 1
12.1062 0 1
12.2235 0 1
12.3409 0 1
12.4582 0 1
12.5756 0 1
12.693 0 1
12.8104 0 1
12.9278 0 1
13.0452 0 1
13.1626 0 1
13.28 0 1
13.3974 0 1
13.5149 0 1
13.6323 0 1
13.7497 0 1
13.8671 0 1
13.9845 0 1
14.1019 0 1
14.2193 0 1
14.3367 0 1
14.4541 0 1
14.5714 0 1
14.6888 0 1
14.8062 0 1
14.9235 0 1
15.0408 227325 476.786
15.1581 238333 488.194
15.2755 245175 495.151
15.3927 244940 494.914
15.51 245669 495.65
15.6273 243637 493.596
15.7445 244749 494.721
15.8617 243935 493.898
15.9789 244341 494.309
16.0961 249338 499.338
16.2132 252953 502.944
16.3304 260960 510.842
16.4475 269370 519.009
16.5646 278722 527.941
16.6816 288114 536.763
16.7986 294323 542.515
16.9156 303254 550.685
17.0326 310205 556.961
17.1496 316795 562.845
17.2665 321982 567.435
17.3833 327226 572.037
17.5002 330243 574.668
17.617 333918 577.856
17.7338 335549 579.266
17.8505 337062 580.57
17.9672 335202 578.966
18.0839 318305 564.185
18.2005 307038 554.11
18.3171 307122 554.186
18.4337 318955 564.761
18.5502 331742 575.97
18.6666 340108 583.188
18.7831 345256 587.585
18.8994 344890 587.273
19.0158 338388 581.711
19.1321 332173 576.345
19.2483 324766 569.882
19.3645 318488 564.347
19.4806 314797 561.068
19.5967 308795 555.693
19.7128 305398 552.628
19.8288 296286 544.322
19.9447 270111 519.722
20.0606 0 1
20.1764 0 1
20.2922 0 1
20.4079 0 1
20.5236 0 1
20.6392 0 1
20.7548 0 1
20.8702 0 1
23.3078 0 1
23.4233 0 1
23.539 0 1
23.6547 0 1
23.7704 0 1
23.8862 0 1
24.0021 0 1
24.118 0 1
24.234 0 1
24.35 0 1
24.4661 307453 554.484
24.5822 308696 555.604
24.6984 309727 556.531
24.8146 306010 553.182
24.9309 303307 550.733
25.0472 302670 550.155
25.1636 303790 551.171
25.28 309383 556.222
25.3965 317860 563.791
25.513 329064 573.641
25.6296 342180 584.962
25.7462 348826 590.615
25.8628 355391 596.147
25.9795 360420 600.35
26.0962 364976 604.132
26.213 364158 603.455
26.3298 366567 605.448
26.4466 363771 603.134
26.5635 357168 597.635
26.6804 346293 588.467
26.7973 326335 571.257
26.9143 319900 565.597
27.0313 332906 576.98
27.1483 346665 588.783
27.2653 353290 594.382
27.3824 355648 596.362
27.4996 354023 594.998
27.6167 345424 587.728
27.7339 339884 582.996
27.8511 333477 577.475
27.9683 328546 573.189
28.0855 322444 567.842
28.2028 318925 564.734
28.3201 310086 556.854
28.4374 310461 557.19
28.5547 305786 552.979
28.6721 304451 551.771
28.7894 303182 550.62
28.9068 309024 555.899
29.0242 315453 561.652
29.1416 323548 568.813
29.259 332259 576.419
29.3764 337185 580.676
29.4939 344143 586.637
29.6113 350810 592.292
29.7288 353080 594.205
29.8463 353146 594.261
29.9638 351375 592.769
30.0812 347871 589.806
30.1987 335111 578.888
30.3162 314721 561
30.4337 299749 547.493
30.5512 304942 552.216
30.6687 316409 562.502
30.7862 333363 577.376
30.9037 336636 580.203
31.0212 340630 583.635
31.1387 340085 583.168
31.2562 334845 578.658
31.3737 329419 573.95
31.4912 323725 568.968
31.6087 318229 564.118
31.7262 312824 559.307
31.8436 307669 554.679
31.9611 303637 551.033
32.0785 298993 546.803
32.1959 296740 544.738
32.3134 292976 541.273
32.4308 297626 545.551
32.5482 303802 551.182
32.6655 311977 558.549
32.7829 320110 565.783
32.9002 325757 570.751
33.0176 333520 577.512
33.1349 341369 584.268
33.2522 345927 588.156
33.3694 342110 584.902
33.4867 344486 586.929
33.6039 343256 585.881
33.7211 340983 583.937
33.8383 331223 575.52
33.9554 311465 558.09
34.0725 291938 540.313
34.1896 285732 534.539
34.3067 295060 543.194
34.4237 308617 555.533
34.5407 318177 564.072
34.6577 323760 568.999
34.7746 324256 569.435
34.8915 322484 567.877
35.0084 318758 564.587
35.1252 313298 559.73
35.242 310013 556.788
35.3587 302720 550.2
35.4755 299815 547.554
35.5921 297636 545.56
35.7088 291050 539.491
35.8254 288260 536.899
35.9419 284310 533.207
36.0584 280577 529.695
36.1749 281840 530.886
36.2913 287969 536.627
36.4077 293558 541.81
36.524 300352 548.044
36.6403 306571 553.689
36.7565 315557 561.745
36.8727 322116 567.553
36.9889 324091 569.29
37.1049 322194 567.621
37.221 0 1
37.3369 0 1
37.4529 0 1
37.5687 0 1
37.6845 0 1
37.8003 0 1
37.916 0 1
38.0316 0 1
38.1472 0 1
40.5851 0 1
40.7008 0 1
40.8164 0 1
40.9322 0 1
41.048 0 1
41.1639 0 1
41.2798 0 1
41.3958 0 1
41.5118 0 1
41.6279 0 1
41.744 232187 481.858
41.8602 252067 502.063
41.9765 264326 514.126
42.0928 270899 520.48
42.2091 274076 523.523
42.3255 275936 525.296
42.4419 273067 522.558
42.5584 273026 522.519
42.675 266831 516.557
42.7915 251173 501.172
42.9081 234404 484.153
43.0248 225202 474.555
43.1415 231203 480.836
43.2582 239692 489.583
43.375 249067 499.066
43.4918 253037 503.028
43.6087 257265 507.213
43.7256 254059 504.043
43.8425 250709 500.708
43.9595 244931 494.905
44.0765 241786 491.717
44.1935 235353 485.132
44.3106 229770 479.343
44.4277 223511 472.769
44.5448 217019 465.853
44.6619 209894 458.142
44.7791 202670 450.189
44.8963 196400 443.17
45.0136 193496 439.882
45.1308 194402 440.91
45.2481 198661 445.714
45.3654 201080 448.419
45.4827 205804 453.656
45.6001 209878 458.124
45.7174 213923 462.518
45.8348 212760 461.259
45.9522 212610 461.097
46.0697 209356 457.554
46.1871 206713 454.657
46.3046 199311 446.443
46.422 184399 429.417
46.5395 173060 416.005
46.657 169306 411.468
46.7745 175994 419.516
46.892 182865 427.627
47.0096 188168 433.783
47.1271 192503 438.752
47.2446 192377 438.608
47.3622 190891 436.911
47.4797 188524 434.194
47.5973 185201 430.35
47.7149 182031 426.651
47.8324 177586 421.41
47.95 174443 417.664
48.0675 169150 411.278
48.1851 165838 407.232
48.3027 161050 401.31
48.4202 157491 396.851
48.5378 154253 392.751
48.6554 154758 393.393
48.7729 159055 398.817
48.8904 163685 404.58
49.008 169265 411.418
49.1255 174486 417.715
49.243 180616 424.989
49.3605 183477 428.342
49.478 184918 430.021
49.5955 185848 431.101
49.713 183700 428.602
49.8304 175921 419.429
49.9479 164969 406.164
50.0653 155922 394.87
50.1827 154204 392.688
50.3001 162546 403.17
50.4175 174545 417.786
50.5348 182009 426.625
50.6521 192937 439.246
50.7694 197287 444.17
50.8867 202078 449.531
51.004 203954 451.613
51.1212 205127 452.909
51.2384 207224 455.219
51.3556 207157 455.145
51.4727 207052 455.03
51.5899 205933 453.798
51.707 204873 452.629
51.824 202582 450.091
51.9411 200115 447.342
52.0581 198213 445.211
52.175 202804 450.338
52.2919 210624 458.938
52.4088 217851 466.745
52.5257 229229 478.779
52.6425 238838 488.711
52.7593 247593 497.587
52.876 251644 501.641
52.9927 254187 504.17
53.1094 258380 508.311
53.226 260128 510.027
53.3426 258988 508.909
53.4591 251099 501.098
53.5756 235021 484.79
53.692 219630 468.647
53.8084 215733 464.471
53.9248 224136 473.43
54.0411 240050 489.949
54.1573 251834 501.831
54.2735 0 1
54.3896 0 1
54.5057 0 1
54.6217 0 1
54.7377 0 1
54.8537 0 1
54.9695 0 1
55.0853 0 1
55.2011 0 1
55.3168 0 1
55.4324 0 1
57.824 0 1
57.9396 0 1
58.0553 0 1
58.1711 0 1
58.2869 0 1
58.4028 0 1
58.5187 0 1
58.6347 0 1
58.7508 0 1
58.8669 0 1
58.983 253686 503.673
59.0992 273199 522.684
59.2155 290149 538.655
59.3318 305195 552.445
59.4482 316734 562.791
59.5646 324458 569.612
59.681 327907 572.632
59.7975 327403 572.191
59.9141 324392 569.554
60.0306 321645 567.138
60.1473 314924 561.181
60.2639 308660 555.572
60.3807 303473 550.884
60.4974 291812 540.196
60.6142 283418 532.37
60.731 274482 523.91
60.8479 270284 519.888
60.9648 272252 521.778
61.0818 278485 527.717
61.1987 286540 535.294
61.3158 299473 547.241
61.4328 309964 556.744
61.5499 315293 561.51
61.667 317949 563.87
61.7841 315812 561.972
61.9013 310802 557.496
62.0185 300200 547.905
62.1357 283403 532.356
62.253 265613 515.377
62.3702 255719 505.687
62.4875 260284 510.18
62.6049 273319 522.799
62.7222 284099 533.009
62.8396 300680 548.343
62.9569 306989 554.066
63.0743 311493 558.116
63.1918 314388 560.703
63.3092 314767 561.041
63.4267 309721 556.526
63.5441 305314 552.552
63.6616 302564 550.058
63.7791 294998 543.137
63.8966 288346 536.979
64.0142 278672 527.894
64.1317 268063 517.748
64.2492 256427 506.386
64.3668 251214 501.213
64.4843 253415 503.403
64.6019 260574 510.464
64.7195 268966 518.619
64.837 281030 530.123
64.9546 293096 541.383
65.0722 301212 548.828
65.1898 300524 548.201
65.3074 308013 554.989
65.4249 298666 546.503
65.5425 295526 543.623
65.6601 280189 529.329
65.7777 261367 511.241
65.8952 243908 493.87
66.0128 239163 489.043
66.1304 247714 497.709
66.2479 263997 513.806
66.3655 277796 527.064
66.483 288827 537.426
66.6005 298763 546.592
66.718 305244 552.489
66.8355 305996 553.169
66.953 306827 553.92
67.0705 303386 550.805
67.1879 301614 549.194
67.3054 294572 542.745
67.4228 292149 540.508
67.5402 283644 532.582
67.6576 274326 523.761
67.7749 260392 510.286
67.8923 252478 502.472
68.0096 244108 494.073
68.1269 247070 497.061
68.2442 253867 503.852
68.3614 264116 513.922
68.4787 276159 525.508
68.5958 295036 543.172
68.713 303764 551.148
68.8302 308282 555.231
68.9473 309784 556.582
69.0643 310729 557.431
69.1814 307288 554.336
69.2984 296102 544.153
69.4154 277575 526.854
69.5323 257017 506.968
69.6492 248850 498.849
69.7661 255918 505.883
69.8829 271372 520.934
69.9997 290515 538.994
70.1165 303635 551.031
70.2332 315515 561.707
70.3499 319842 565.546
70.4665 325824 570.81
70.5831 327152 571.972
70.6996 326056 571.013
70.8161 325197 570.26
70.9326 318638 564.48
71.049 311588 558.201
71.1653 303284 550.712
71.2817 295627 543.716
71.3979 282701 531.696
71.5141 263991 513.801
71.6303 246543 496.531
71.7464 227300 476.76
71.8624 0 1
71.9784 0 1
72.0944 0 1
72.2102 0 1
72.3261 0 1
72.4418 0 1
72.5575 0 1
72.6732 0 1
75.1054 0 1
75.2209 0 1
75.3365 0 1
75.4521 0 1
75.5678 0 1
75.6835 0 1
75.7993 0 1
75.9151 0 1
76.031 0 1
76.147 291883 540.262
76.263 304158 551.505
76.3791 303512 550.919
76.4952 294976 543.117
76.6113 284493 533.379
76.7276 268945 518.599
76.8438 258215 508.149
76.9601 258545 508.473
77.0765 266947 516.669
77.1929 278648 527.871
77.3093 297185 545.147
77.4258 315833 561.99
77.5423 325927 570.9
77.6589 328054 572.76
77.7755 327850 572.582
77.8921 326352 571.272
78.0088 319281 565.05
78.1256 298482 546.335
78.2423 273842 523.299
78.3591 253591 503.578
78.4759 241609 491.537
78.5928 243358 493.313
78.7097 264504 514.3
78.8266 280601 529.718
78.9436 309274 556.124
79.0606 313134 559.584
79.1776 318541 564.394
79.2946 324372 569.537
79.4117 328911 573.508
79.5288 328111 572.81
79.6459 326325 571.249
79.7631 321014 566.581
79.8802 315229 561.453
79.9974 308535 555.459
80.1147 300637 548.304
80.2319 286868 535.601
80.3491 270040 519.654
80.4664 254400 504.381
80.5837 251223 501.222
80.701 260420 510.314
80.8183 274899 524.308
80.9357 295322 543.435
81.053 310439 557.171
81.1704 320619 566.232
81.2877 323466 568.741
81.4051 324736 569.856
81.5225 326104 571.055
81.6399 313885 560.254
81.7573 309830 556.624
81.8747 279023 528.226
81.9922 260319 510.215
82.1096 246047 496.031
82.227 246455 496.442
82.3444 264125 513.931
82.4619 289085 537.666
82.5793 307349 554.391
82.6967 308459 555.391
82.8142 318109 564.012
82.9316 324810 569.921
83.049 328426 573.085
83.1664 327401 572.19
83.2838 326938 571.785
83.4012 324465 569.618
83.5186 318091 563.996
83.636 312784 559.271
83.7534 303207 550.642
83.8708 293174 541.455
83.9881 274443 523.873
84.1055 255514 505.484
84.2228 257048 506.999
84.3401 261111 510.99
84.4575 276406 525.743
84.5747 294924 543.069
84.692 316797 562.847
84.8093 331599 575.846
84.9265 335113 578.889
85.0437 336924 580.452
85.1609 333584 577.567
85.2781 321751 567.231
85.3952 297335 545.284
85.5123 276202 525.549
85.6294 257782 507.722
85.7465 252234 502.229
85.8636 263021 512.856
85.9806 286272 535.044
86.0976 308077 555.047
86.2145 321143 566.695
86.3315 332663 576.769
86.4484 343070 585.722
86.5652 347146 589.191
86.682 350071 591.668
86.7988 352203 593.467
86.9156 349572 591.246
87.0323 346374 588.535
87.149 338688 581.969
87.2657 333153 577.194
87.3823 322757 568.117
87.4988 307954 554.936
87.6154 286463 535.222
87.7318 275672 525.045
87.8483 277370 526.659
87.9647 292329 540.675
88.081 310418 557.152
88.1973 335221 578.983
88.3136 349109 590.854
88.4298 352090 593.372
88.546 353223 594.326
88.6621 348649 590.465
88.7781 340457 583.487
88.8942 0 1
89.0101 0 1
89.126 0 1
89.2419 0 1
89.3577 0 1
89.4734 0 1
89.5891 0 1
89.7047 0 1
89.8203 0 1
89.9358 0 1
92.3269 0 1
92.4424 0 1
92.558 0 1
92.6736 0 1
92.7893 0 1
92.905 0 1
93.0208 0 1
93.1366 0 1
93.2525 0 1
93.3685 0 1
93.4845 0 1
93.6005 333929 577.866
93.7167 337391 580.854
93.8328 335987 579.644
93.949 330371 574.779
94.0653 319644 565.371
94.1816 301403 549.002
94.2979 284581 533.461
94.4143 272625 522.135
94.5307 267191 516.905
94.6472 271946 521.484
94.7637 287752 536.425
94.8803 304340 551.67
94.9969 318828 564.649
95.1135 329689 574.186
95.2302 335623 579.33
95.3469 342469 585.209
95.4637 346718 588.828
95.5805 350481 592.014
95.6973 354225 595.168
95.8142 355081 595.887
95.9311 350267 591.834
96.048 343906 586.435
96.1649 337872 581.268
96.2819 327765 572.508
96.3989 312328 558.863
96.516 295064 543.198
96.633 277568 526.847
96.7501 273947 523.399
96.8673 283590 532.532
96.9844 298605 546.448
97.1016 319621 565.35
97.2188 336508 580.093
97.336 348544 590.376
97.4532 348380 590.237
97.5704 346227 588.411
97.6877 338730 582.005
97.805 322471 567.865
97.9223 301491 549.082
98.0396 281799 530.847
98.1569 271027 520.603
98.2743 266751 516.479
98.3916 272433 521.951
98.509 290437 538.922
98.6264 306617 553.73
98.7438 319398 565.153
98.8612 330157 574.593
98.9786 337117 580.618
99.096 339466 582.637
99.2134 344141 586.635
99.3308 344946 587.321
99.4482 345370 587.682
99.5656 340401 583.439
99.6831 334299 578.186
99.8005 327363 572.156
99.9179 319966 565.655
100.035 303876 551.249
100.153 285858 534.657
100.27 270466 520.063
100.388 269724 519.35
100.505 283575 532.518
100.622 304147 551.495
100.74 325416 570.452
100.857 338395 581.717
100.975 342705 585.41
101.092 340808 583.788
101.209 340779 583.763
101.327 332860 576.94
101.444 318779 564.605
101.561 296865 544.853
101.679 281649 530.706
101.796 271401 520.962
101.913 268126 517.809
102.03 282338 531.355
102.148 304044 551.402
102.265 296338 544.369
102.382 357338 597.778
102.499 343552 586.133
102.616 351871 593.187
102.733 355549 596.279
102.851 356706 597.249
102.968 365367 604.456
103.085 360983 600.819
103.202 356892 597.404
103.319 351262 592.674
103.436 342376 585.129
103.552 328929 573.523
103.669 308450 555.383
103.786 291140 539.574
103.903 288813 537.413
104.02 302921 550.383
104.137 327158 571.977
104.253 349063 590.816
104.37 363092 602.571
104.487 370123 608.377
104.603 369408 607.789
104.72 363114 602.589
104.836 353328 594.414
104.953 332174 576.345
105.069 312250 558.793
105.186 296002 544.061
105.302 285682 534.492
105.418 291395 539.81
105.535 309512 556.338
105.651 328328 572.999
105.767 342135 584.923
105.883 353142 594.258
105.999 359117 599.264
106.115 0 1
106.231 0 1
106.347 0 1
106.463 0 1
106.579 0 1
106.694 0 1
106.81 0 1
106.926 0 1
107.041 0 1
107.157 0 1
109.576 0 1
109.692 0 1
109.807 0 1
109.923 0 1
110.039 0 1
110.155 0 1
110.27 0 1
110.386 0 1
110.502 0 1
110.618 277746 527.016
110.735 298028 545.919
110.851 306439 553.569
110.967 314688 560.971
111.083 319872 565.572
111.199 324892 569.993
111.316 327167 571.985
111.432 329416 573.948
111.549 323567 568.829
111.665 319192 564.971
111.782 312241 558.785
111.898 300629 548.296
112.015 285843 534.643
112.132 265936 515.69
112.248 247669 497.664
112.365 247319 497.312
112.482 267743 517.439
112.599 275607 524.983
112.716 294596 542.767
112.832 301178 548.797
112.949 299415 547.188
113.066 298430 546.287
113.183 291705 540.097
113.3 281360 530.434
113.417 263744 513.56
113.534 245952 495.935
113.652 234514 484.266
113.769 225602 474.976
113.886 220494 469.568
114.003 228675 478.2
114.12 241774 491.705
114.238 251494 501.492
114.355 257468 507.413
114.472 265183 514.959
114.589 260459 510.352
114.707 266269 516.013
114.824 264938 514.721
114.942 267042 516.761
115.059 262500 512.348
115.176 258665 508.591
115.294 251657 501.654
115.411 242390 492.331
115.529 232441 482.121
115.646 217243 466.093
115.764 200253 447.496
115.881 193600 440
115.999 199583 446.747
116.116 212157 460.605
116.234 223924 473.206
116.351 228211 477.714
116.469 227225 476.681
116.586 226525 475.946
116.704 224359 473.665
116.821 220268 469.327
116.939 208923 457.081
117.056 197540 444.455
117.174 187078 432.525
117.291 179140 423.249
117.409 174019 417.156
117.526 176567 420.199
117.644 186438 431.785
117.761 195056 441.651
117.879 203559 451.175
117.996 206517 454.441
118.114 212987 461.505
118.231 218218 467.138
118.349 216364 465.149
118.466 219125 468.108
118.584 221873 471.034
118.701 220868 469.966
118.819 218016 466.922
118.936 214779 463.443
119.053 210974 459.319
119.171 203973 451.634
119.288 194326 440.824
119.405 183335 428.176
119.523 182656 427.383
119.64 191568 437.685
119.757 205291 453.09
119.875 217032 465.867
119.992 223920 473.202
120.109 226414 475.83
120.226 227942 477.433
120.343 228201 477.704
120.46 227154 476.607
120.578 219490 468.498
120.695 210459 458.758
120.812 201931 449.367
120.929 195846 442.545
121.046 190644 436.628
121.163 191016 437.054
121.279 200875 448.191
121.396 212160 460.608
121.513 223481 472.738
121.63 231315 480.952
121.747 237965 487.817
121.863 244224 494.19
121.98 250745 500.744
122.097 253095 503.085
122.213 255054 505.029
122.33 257484 507.429
122.446 257397 507.343
122.563 256062 506.026
122.679 254074 504.058
122.795 248022 498.018
122.912 242944 492.893
123.028 230047 479.632
123.144 217870 466.765
123.26 214888 463.56
123.377 0 1
123.493 0 1
123.609 0 1
123.725 0 1
123.84 0 1
123.956 0 1
124.072 0 1
124.188 0 1
124.303 0 1
124.419 0 1
126.852 0 1
126.968 0 1
127.083 0 1
127.199 0 1
127.315 0 1
127.431 0 1
127.547 0 1
127.663 0 1
127.779 0 1
127.895 0 1
128.011 0 1
128.127 0 1
128.243 0 1
128.359 261523 511.393
128.476 254560 504.539
128.592 260326 510.222
128.708 275651 525.025
128.825 294181 542.385
128.941 304771 552.061
129.058 305968 553.144
129.174 306978 554.056
129.291 305454 552.679
129.408 302233 549.757
129.524 289163 537.739
129.641 274585 524.009
129.758 262624 512.469
129.875 250995 500.994
129.992 242728 492.674
130.108 239110 488.989
130.225 244572 494.542
130.342 255226 505.199
130.459 262983 512.819
130.576 264402 514.2
130.693 269376 519.014
130.81 273765 523.226
130.928 275441 524.825
131.045 277065 526.37
131.162 278711 527.931
131.279 281369 530.442
131.396 277371 526.66
131.513 274753 524.169
131.631 267246 516.958
131.748 256954 506.906
131.865 244463 494.432
131.983 231280 480.916
132.1 233476 483.194
132.217 244429 494.398
132.335 258781 508.705
132.452 264667 514.458
132.57 266531 516.266
132.687 259054 508.973
132.804 272020 521.555
132.922 259994 509.896
133.039 249064 499.063
133.157 237789 487.636
133.274 226943 476.385
133.392 218497 467.437
133.509 208521 456.641
133.627 204670 452.405
133.744 205996 453.868
133.862 213036 461.558
133.979 216633 465.439
134.097 220489 469.563
134.214 225887 475.276
134.332 220563 469.641
134.449 225072 474.418
134.567 225085 474.431
134.684 225567 474.939
134.802 225602 474.976
134.919 224171 473.467
135.037 220978 470.083
135.154 212767 461.267
135.272 204668 452.402
135.389 197239 444.116
135.507 184361 429.373
135.624 182161 426.803
135.742 187000 432.435
135.859 194566 441.096
135.977 201971 449.412
136.094 204021 451.687
136.211 202637 450.152
136.329 199371 446.51
136.446 197955 444.921
136.564 192485 438.731
136.681 182615 427.335
136.798 178583 422.591
136.915 170960 413.473
137.033 164977 406.174
137.15 160946 401.181
137.267 158336 397.915
137.384 161714 402.137
137.502 166391 407.911
137.619 169826 412.1
137.736 177135 420.874
137.853 176192 419.752
137.97 181532 426.066
138.087 187492 433.003
138.204 189796 435.656
138.321 192218 438.427
138.438 198192 445.188
138.555 199761 446.946
138.672 200446 447.712
138.788 198068 445.048
138.905 194933 441.512
139.022 189158 434.923
139.139 183826 428.749
139.255 184080 429.045
139.372 194811 441.374
139.488 208313 456.413
139.605 218468 467.406
139.721 221846 471.005
139.838 225443 474.808
139.954 225900 475.289
140.071 222952 472.178
140.187 226770 476.204
140.303 217165 466.01
140.419 210688 459.008
140.535 205734 453.579
140.652 197783 444.728
140.768 0 1
140.884 0 1
141 0 1
141.115 0 1
141.231 0 1
141.347 0 1
141.463 0 1
141.578 0 1
141.694 0 1
144.104 0 1
144.219 0 1
144.335 0 1
144.45 0 1
144.566 0 1
144.682 0 1
144.798 0 1
144.914 0 1
145.03 0 1
145.146 193379 439.749
145.262 193194 439.538
145.378 187688 433.23
145.494 180917 425.343
145.61 174036 417.176
145.726 167679 409.486
145.842 164083 405.072
145.959 160645 400.805
146.075 161012 401.263
146.192 163250 404.042
146.308 164397 405.459
146.425 166084 407.534
146.541 166976 408.627
146.658 167060 408.73
146.774 166785 408.393
146.891 168260 410.195
147.008 167320 409.048
147.125 168927 411.007
147.241 167132 408.818
147.358 165773 407.152
147.475 162112 402.631
147.592 156732 395.894
147.709 149491 386.641
147.826 143151 378.353
147.943 144626 380.297
148.06 147837 384.496
148.177 154429 392.975
148.294 157382 396.714
148.411 158059 397.566
148.528 156193 395.213
148.645 154951 393.638
148.762 152943 391.079
148.88 148962 385.956
148.997 149520 386.678
149.114 132062 363.403
149.231 134151 366.266
149.349 129848 360.344
149.466 128420 358.357
149.583 125293 353.968
149.701 125973 354.927
149.818 129143 359.365
149.935 131535 362.678
150.053 133120 364.856
150.17 134707 367.025
150.287 136871 369.961
150.405 137968 371.44
150.522 139077 372.93
150.64 141698 376.428
150.757 142324 377.259
150.875 144704 380.4
150.992 143356 378.624
151.11 144059 379.551
151.227 138943 372.751
151.344 134417 366.629
151.462 131912 363.197
151.579 133394 365.231
151.697 140459 374.779
151.814 148098 384.835
151.932 152711 390.783
152.049 154772 393.411
152.167 155097 393.824
152.284 155191 393.943
152.402 153995 392.422
152.519 150437 387.862
152.636 148065 384.792
152.754 145602 381.578
152.871 142627 377.66
152.989 140446 374.761
153.106 137853 371.286
153.223 137789 371.199
153.341 140938 375.417
153.458 143787 379.193
153.575 147164 383.62
153.693 148707 385.625
153.81 150966 388.543
153.927 154379 392.911
154.044 157092 396.348
154.162 159385 399.231
154.279 163508 404.361
154.396 167464 409.224
154.513 171237 413.808
154.63 174061 417.206
154.747 172674 415.541
154.864 169795 412.062
154.981 164511 405.6
155.098 163679 404.573
155.215 166345 407.854
155.332 174494 417.725
155.449 181063 425.515
155.566 184526 429.565
155.683 186321 431.649
155.8 186972 432.403
155.917 188298 433.933
156.033 187813 433.374
156.15 0 1
156.267 0 1
156.383 0 1
156.5 0 1
156.617 0 1
156.733 0 1
156.85 0 1
156.966 0 1
157.082 0 1
157.199 0 1
157.315 0 1
157.431 0 1
157.547 0 1
157.664 0 1
157.78 0 1
157.896 0 1
158.012 0 1
158.128 0 1
158.244 0 1
158.359 0 1
158.475 0 1
158.591 0 1
158.706 0 1
