
6.15755 0 1
6.2731 0 1
6.3887 0 1
6.50437 0 1
6.62009 0 1
6.73587 0 1
6.8517 0 1
6.96759 0 1
7.08353 0 1
7.19952 0 1
7.31557 0 1
7.43166 0 1
7.54781 0 1
7.664 0 1
7.78024 0 1
7.89653 0 1
8.01286 0 1
8.12924 0 1
8.24567 0 1
8.36213 0 1
8.47864 0 1
8.59519 0 1
8.71178 0 1
8.82841 0 1
8.94508 0 1
9.06179 0 1
9.17853 0 1
9.29531 0 1
9.41212 0 1
9.52897 0 1
9.64584 0 1
9.76276 0 1
9.8797 0 1
9.99667 0 1
10.1137 0 1
10.2307 0 1
10.3478 0 1
10.4648 0 1
10.5819 0 1
10.6991 0 1
10.8162 0 1
10.9334 0 1
11.0506 0 1
11.1678 0 1
11.285 0 1
11.4023 0 1
11.5196 0 1
11.6369 0 1
11.7542 0 1
11.8715 0 1
11.9888 0 1
12.1062 0 1
12.2235 0 1
12.3409 0 1
12.4582 0 1
12.5756 0 1
12.693 0 1
12.8104 0 1
12.9278 0 1
13.0452 0 1
13.1626 0 1
13.28 0 1
13.3974 0 1
13.5149 0 1
13.6323 0 1
13.7497 0 1
13.8671 0 1
13.9845 0 1
14.1019 0 1
14.2193 0 1
14.3367 0 1
14.4541 0 1
14.5714 0 1
14.6888 0 1
14.8062 0 1
14.9235 0 1
15.0408 1183 34.3948
15.1581 1304 36.1109
15.2755 1341 36.6197
15.3927 1330 36.4692
15.51 1272 35.6651
15.6273 1281 35.7911
15.7445 1249 35.3412
15.8617 1300 36.0555
15.9789 1158 34.0294
16.0961 1245 35.2846
16.2132 1178 34.322
16.3304 1234 35.1283
16.4475 1288 35.8887
16.5646 1242 35.242
16.6816 1259 35.4824
16.7986 1244 35.2704
16.9156 1268 35.609
17.0326 1362 36.9053
17.1496 1347 36.7015
17.2665 1338 36.5787
17.3833 1333 36.5103
17.5002 1393 37.3229
17.617 1363 36.9188
17.7338 1367 36.973
17.8505 1456 38.1576
17.9672 1497 38.6911
18.0839 1545 39.3065
18.2005 1538 39.2173
18.3171 1624 40.2989
18.4337 1574 39.6737
18.5502 1660 40.7431
18.6666 1642 40.5216
18.7831 1597 39.9625
18.8994 1567 39.5854
19.0158 1515 38.923
19.1321 1443 37.9868
19.2483 1463 38.2492
19.3645 1389 37.2693
19.4806 1341 36.6197
19.5967 1299 36.0416
19.7128 1318 36.3043
19.8288 1269 35.623
19.9447 1174 34.2637
20.0606 0 1
20.1764 0 1
20.2922 0 1
20.4079 0 1
20.5236 0 1
20.6392 0 1
20.7548 0 1
20.8702 0 1
23.3078 0 1
23.4233 0 1
23.539 0 1
23.6547 0 1
23.7704 0 1
23.8862 0 1
24.0021 0 1
24.118 0 1
24.234 0 1
24.35 0 1
24.4661 1307 36.1525
24.5822 1230 35.0714
24.6984 1219 34.9142
24.8146 1250 35.3553
24.9309 1254 35.4119
25.0472 1280 35.7771
25.1636 1285 35.8469
25.28 1257 35.4542
25.3965 1331 36.4829
25.513 1278 35.7491
25.6296 1421 37.6962
25.7462 1389 37.2693
25.8628 1384 37.2022
25.9795 1463 38.2492
26.0962 1485 38.5357
26.213 1477 38.4318
26.3298 1495 38.6652
26.4466 1502 38.7556
26.5635 1487 38.5616
26.6804 1602 40.025
26.7973 1566 39.5727
26.9143 1526 39.064
27.0313 1484 38.5227
27.1483 1573 39.6611
27.2653 1600 40
27.3824 1615 40.1871
27.4996 1511 38.8716
27.6167 1490 38.6005
27.7339 1413 37.5899
27.8511 1344 36.6606
27.9683 1270 35.6371
28.0855 1210 34.7851
28.2028 1260 35.4965
28.3201 1233 35.1141
28.4374 1204 34.6987
28.5547 1264 35.5528
28.6721 1249 35.3412
28.7894 1281 35.7911
28.9068 1341 36.6197
29.0242 1311 36.2077
29.1416 1273 35.6791
29.259 1294 35.9722
29.3764 1354 36.7967
29.4939 1369 37
29.6113 1343 36.647
29.7288 1420 37.6829
29.8463 1392 37.3095
29.9638 1415 37.6165
30.0812 1403 37.4566
30.1987 1511 38.8716
30.3162 1460 38.2099
30.4337 1492 38.6264
30.5512 1521 39
30.6687 1488 38.5746
30.7862 1466 38.2884
30.9037 1537 39.2046
31.0212 1435 37.8814
31.1387 1403 37.4566
31.2562 1352 36.7696
31.3737 1348 36.7151
31.4912 1258 35.4683
31.6087 1193 34.5398
31.7262 1141 33.7787
31.8436 1224 34.9857
31.9611 1236 35.1568
32.0785 1244 35.2704
32.1959 1180 34.3511
32.3134 1306 36.1386
32.4308 1203 34.6843
32.5482 1322 36.3593
32.6655 1335 36.5377
32.7829 1252 35.3836
32.9002 1232 35.0999
33.0176 1281 35.7911
33.1349 1263 35.5387
33.2522 1346 36.6879
33.3694 1325 36.4005
33.4867 1330 36.4692
33.6039 1352 36.7696
33.7211 1370 37.0135
33.8383 1446 38.0263
33.9554 1367 36.973
34.0725 1420 37.6829
34.1896 1413 37.5899
34.3067 1417 37.6431
34.4237 1359 36.8646
34.5407 1383 37.1887
34.6577 1413 37.5899
34.7746 1303 36.0971
34.8915 1233 35.1141
35.0084 1195 34.5688
35.1252 1160 34.0588
35.242 1176 34.2929
35.3587 1103 33.2114
35.4755 1155 33.9853
35.5921 1121 33.4813
35.7088 1099 33.1512
35.8254 1181 34.3657
35.9419 1202 34.6699
36.0584 1214 34.8425
36.1749 1207 34.7419
36.2913 1233 35.1141
36.4077 1240 35.2136
36.524 1292 35.9444
36.6403 1202 34.6699
36.7565 1219 34.9142
36.8727 1256 35.4401
36.9889 1232 35.0999
37.1049 1226 35.0143
37.221 0 1
37.3369 0 1
37.4529 0 1
37.5687 0 1
37.6845 0 1
37.8003 0 1
37.916 0 1
38.0316 0 1
38.1472 0 1
40.5851 0 1
40.7008 0 1
40.8164 0 1
40.9322 0 1
41.048 0 1
41.1639 0 1
41.2798 0 1
41.3958 0 1
41.5118 0 1
41.6279 0 1
41.744 966 31.0805
41.8602 1027 32.0468
41.9765 1144 33.8231
42.0928 1091 33.0303
42.2091 1131 33.6303
42.3255 1139 33.7491
42.4419 1185 34.4238
42.5584 1173 34.2491
42.675 1120 33.4664
42.7915 1191 34.5109
42.9081 1186 34.4384
43.0248 1208 34.7563
43.1415 1235 35.1426
43.2582 1184 34.4093
43.375 1223 34.9714
43.4918 1204 34.6987
43.6087 1245 35.2846
43.7256 1251 35.3695
43.8425 1210 34.7851
43.9595 1101 33.1813
44.0765 1054 32.4654
44.1935 1076 32.8024
44.3106 1055 32.4808
44.4277 1069 32.6956
44.5448 1029 32.078
44.6619 1043 32.2955
44.7791 1004 31.686
44.8963 1005 31.7017
45.0136 977 31.257
45.1308 957 30.9354
45.2481 989 31.4484
45.3654 980 31.305
45.4827 958 30.9516
45.6001 923 30.3809
45.7174 956 30.9192
45.8348 896 29.9333
45.9522 897 29.95
46.0697 805 28.3725
46.1871 858 29.2916
46.3046 816 28.5657
46.422 814 28.5307
46.5395 859 29.3087
46.657 816 28.5657
46.7745 820 28.6356
46.892 842 29.0172
47.0096 818 28.6007
47.1271 788 28.0713
47.2446 844 29.0517
47.3622 798 28.2489
47.4797 784 28
47.5973 746 27.313
47.7149 698 26.4197
47.8324 763 27.6225
47.95 760 27.5681
48.0675 747 27.3313
48.1851 672 25.923
48.3027 684 26.1534
48.4202 658 25.6515
48.5378 664 25.7682
48.6554 642 25.3377
48.7729 652 25.5343
48.8904 689 26.2488
49.008 679 26.0576
49.1255 707 26.5895
49.243 680 26.0768
49.3605 679 26.0576
49.478 680 26.0768
49.5955 636 25.219
49.713 674 25.9615
49.8304 699 26.4386
49.9479 667 25.8263
50.0653 676 26
50.1827 736 27.1293
50.3001 806 28.3901
50.4175 750 27.3861
50.5348 754 27.4591
50.6521 791 28.1247
50.7694 787 28.0535
50.8867 805 28.3725
51.004 767 27.6948
51.1212 785 28.0179
51.2384 831 28.8271
51.3556 874 29.5635
51.4727 922 30.3645
51.5899 909 30.1496
51.707 905 30.0832
51.824 883 29.7153
51.9411 869 29.4788
52.0581 889 29.8161
52.175 909 30.1496
52.2919 897 29.95
52.4088 907 30.1164
52.5257 866 29.4279
52.6425 891 29.8496
52.7593 939 30.6431
52.876 911 30.1828
52.9927 898 29.9666
53.1094 911 30.1828
53.226 915 30.249
53.3426 972 31.1769
53.4591 969 31.1288
53.5756 950 30.8221
53.692 1031 32.1092
53.8084 1063 32.6037
53.9248 1057 32.5115
54.0411 1091 33.0303
54.1573 1085 32.9393
54.2735 0 1
54.3896 0 1
54.5057 0 1
54.6217 0 1
54.7377 0 1
54.8537 0 1
54.9695 0 1
55.0853 0 1
55.2011 0 1
55.3168 0 1
55.4324 0 1
57.824 0 1
57.9396 0 1
58.0553 0 1
58.1711 0 1
58.2869 0 1
58.4028 0 1
58.5187 0 1
58.6347 0 1
58.7508 0 1
58.8669 0 1
58.983 1191 34.5109
59.0992 1356 36.8239
59.2155 1219 34.9142
59.3318 1319 36.318
59.4482 1338 36.5787
59.5646 1366 36.9594
59.681 1364 36.9324
59.7975 1449 38.0657
59.9141 1408 37.5233
60.0306 1345 36.6742
60.1473 1372 37.0405
60.2639 1308 36.1663
60.3807 1261 35.5106
60.4974 1182 34.3802
60.6142 1200 34.641
60.731 1129 33.6006
60.8479 1058 32.5269
60.9648 1101 33.1813
61.0818 1068 32.6803
61.1987 1052 32.4345
61.3158 1137 33.7194
61.4328 1105 33.2415
61.5499 1110 33.3167
61.667 1125 33.541
61.7841 1068 32.6803
61.9013 1151 33.9264
62.0185 1170 34.2053
62.1357 1149 33.8969
62.253 1150 33.9116
62.3702 1206 34.7275
62.4875 1145 33.8378
62.6049 1227 35.0286
62.7222 1229 35.0571
62.8396 1248 35.327
62.9569 1283 35.819
63.0743 1359 36.8646
63.1918 1342 36.6333
63.3092 1389 37.2693
63.4267 1328 36.4417
63.5441 1302 36.0832
63.6616 1284 35.8329
63.7791 1247 35.3129
63.8966 1236 35.1568
64.0142 1170 34.2053
64.1317 1080 32.8634
64.2492 1015 31.8591
64.3668 1048 32.3728
64.4843 987 31.4166
64.6019 952 30.8545
64.7195 976 31.241
64.837 974 31.209
64.9546 1043 32.2955
65.0722 1029 32.078
65.1898 1045 32.3265
65.3074 1068 32.6803
65.4249 1081 32.8786
65.5425 1063 32.6037
65.6601 1094 33.0757
65.7777 1179 34.3366
65.8952 1120 33.4664
66.0128 1132 33.6452
66.1304 1092 33.0454
66.2479 1177 34.3074
66.3655 1249 35.3412
66.483 1237 35.171
66.6005 1323 36.3731
66.718 1334 36.524
66.8355 1311 36.2077
66.953 1306 36.1386
67.0705 1348 36.7151
67.1879 1247 35.3129
67.3054 1201 34.6554
67.4228 1219 34.9142
67.5402 1152 33.9411
67.6576 1034 32.1559
67.7749 959 30.9677
67.8923 924 30.3974
68.0096 984 31.3688
68.1269 959 30.9677
68.2442 908 30.133
68.3614 962 31.0161
68.4787 931 30.5123
68.5958 1009 31.7648
68.713 1016 31.8748
68.8302 1066 32.6497
68.9473 1080 32.8634
69.0643 1122 33.4963
69.1814 1070 32.7109
69.2984 1073 32.7567
69.4154 1189 34.4819
69.5323 1115 33.3916
69.6492 1191 34.5109
69.7661 1225 35
69.8829 1321 36.3456
69.9997 1318 36.3043
70.1165 1352 36.7696
70.2332 1400 37.4166
70.3499 1382 37.1753
70.4665 1418 37.6563
70.5831 1365 36.9459
70.6996 1361 36.8917
70.8161 1284 35.8329
70.9326 1286 35.8608
71.049 1125 33.541
71.1653 979 31.289
71.2817 1034 32.1559
71.3979 992 31.496
71.5141 923 30.3809
71.6303 917 30.282
71.7464 941 30.6757
71.8624 0 1
71.9784 0 1
72.0944 0 1
72.2102 0 1
72.3261 0 1
72.4418 0 1
72.5575 0 1
72.6732 0 1
75.1054 0 1
75.2209 0 1
75.3365 0 1
75.4521 0 1
75.5678 0 1
75.6835 0 1
75.7993 0 1
75.9151 0 1
76.031 0 1
76.147 1260 35.4965
76.263 1190 34.4964
76.3791 1090 33.0151
76.4952 1048 32.3728
76.6113 1041 32.2645
76.7276 1014 31.8434
76.8438 1086 32.9545
76.9601 1090 33.0151
77.0765 1014 31.8434
77.1929 1033 32.1403
77.3093 1066 32.6497
77.4258 992 31.496
77.5423 1077 32.8177
77.6589 1126 33.5559
77.7755 1099 33.1512
77.8921 1059 32.5423
78.0088 1047 32.3574
78.1256 1059 32.5423
78.2423 1095 33.0908
78.3591 1131 33.6303
78.4759 1196 34.5832
78.5928 1252 35.3836
78.7097 1276 35.7211
78.8266 1322 36.3593
78.9436 1397 37.3765
79.0606 1407 37.51
79.1776 1399 37.4032
79.2946 1377 37.108
79.4117 1360 36.8782
79.5288 1388 37.2559
79.6459 1316 36.2767
79.7631 1265 35.5668
79.8802 1197 34.5977
79.9974 1133 33.6601
80.1147 1081 32.8786
80.2319 1060 32.5576
80.3491 1017 31.8904
80.4664 1013 31.8277
80.5837 1069 32.6956
80.701 1054 32.4654
80.8183 1051 32.4191
80.9357 1041 32.2645
81.053 1095 33.0908
81.1704 1068 32.6803
81.2877 1103 33.2114
81.4051 1129 33.6006
81.5225 1059 32.5423
81.6399 1041 32.2645
81.7573 1105 33.2415
81.8747 1132 33.6452
81.9922 1090 33.0151
82.1096 1115 33.3916
82.227 1221 34.9428
82.3444 1213 34.8281
82.4619 1378 37.1214
82.5793 1385 37.2156
82.6967 1391 37.2961
82.8142 1387 37.2424
82.9316 1403 37.4566
83.049 1421 37.6962
83.1664 1381 37.1618
83.2838 1322 36.3593
83.4012 1272 35.6651
83.5186 1164 34.1174
83.636 1084 32.9242
83.7534 1076 32.8024
83.8708 1093 33.0606
83.9881 1100 33.1662
84.1055 1013 31.8277
84.2228 1078 32.8329
84.3401 1092 33.0454
84.4575 1078 32.8329
84.5747 1164 34.1174
84.692 1172 34.2345
84.8093 1169 34.1906
84.9265 1165 34.1321
85.0437 1154 33.9706
85.1609 1070 32.7109
85.2781 1093 33.0606
85.3952 1119 33.4515
85.5123 1150 33.9116
85.6294 1180 34.3511
85.7465 1304 36.1109
85.8636 1369 37
85.9806 1411 37.5633
86.0976 1536 39.1918
86.2145 1415 37.6165
86.3315 1536 39.1918
86.4484 1432 37.8418
86.5652 1620 40.2492
86.682 1518 38.9615
86.7988 1501 38.7427
86.9156 1463 38.2492
87.0323 1317 36.2905
87.149 1265 35.5668
87.2657 1222 34.9571
87.3823 1166 34.1467
87.4988 1145 33.8378
87.6154 1201 34.6554
87.7318 1187 34.4529
87.8483 1239 35.1994
87.9647 1160 34.0588
88.081 1140 33.7639
88.1973 1199 34.6266
88.3136 1286 35.8608
88.4298 1219 34.9142
88.546 1207 34.7419
88.6621 1153 33.9559
88.7781 1102 33.1964
88.8942 0 1
89.0101 0 1
89.126 0 1
89.2419 0 1
89.3577 0 1
89.4734 0 1
89.5891 0 1
89.7047 0 1
89.8203 0 1
89.9358 0 1
92.3269 0 1
92.4424 0 1
92.558 0 1
92.6736 0 1
92.7893 0 1
92.905 0 1
93.0208 0 1
93.1366 0 1
93.2525 0 1
93.3685 0 1
93.4845 0 1
93.6005 1148 33.8821
93.7167 1112 33.3467
93.8328 1135 33.6898
93.949 1143 33.8083
94.0653 1089 33
94.1816 1085 32.9393
94.2979 1146 33.8526
94.4143 1174 34.2637
94.5307 1204 34.6987
94.6472 1242 35.242
94.7637 1354 36.7967
94.8803 1412 37.5766
94.9969 1435 37.8814
95.1135 1468 38.3145
95.2302 1392 37.3095
95.3469 1401 37.4299
95.4637 1412 37.5766
95.5805 1476 38.4187
95.6973 1461 38.223
95.8142 1430 37.8153
95.9311 1307 36.1525
96.048 1349 36.7287
96.1649 1243 35.2562
96.2819 1295 35.9861
96.3989 1202 34.6699
96.516 1216 34.8712
96.633 1184 34.4093
96.7501 1149 33.8969
96.8673 1135 33.6898
96.9844 1123 33.5112
97.1016 1177 34.3074
97.2188 1176 34.2929
97.336 1192 34.5254
97.4532 1192 34.5254
97.5704 1165 34.1321
97.6877 1130 33.6155
97.805 1091 33.0303
97.9223 1071 32.7261
98.0396 1193 34.5398
98.1569 1209 34.7707
98.2743 1220 34.9285
98.3916 1157 34.0147
98.509 1272 35.6651
98.6264 1394 37.3363
98.7438 1463 38.2492
98.8612 1425 37.7492
98.9786 1434 37.8682
99.096 1397 37.3765
99.2134 1461 38.223
99.3308 1498 38.704
99.4482 1409 37.5366
99.5656 1350 36.7423
99.6831 1361 36.8917
99.8005 1201 34.6554
99.9179 1196 34.5832
100.035 1152 33.9411
100.153 1159 34.0441
100.27 1115 33.3916
100.388 1111 33.3317
100.505 1043 32.2955
100.622 1086 32.9545
100.74 1015 31.8591
100.857 1106 33.2566
100.975 1240 35.2136
101.092 1174 34.2637
101.209 1117 33.4215
101.327 1108 33.2866
101.444 1027 32.0468
101.561 1053 32.45
101.679 1092 33.0454
101.796 1200 34.641
101.913 1217 34.8855
102.03 1292 35.9444
102.148 1375 37.081
102.265 1436 37.8946
102.382 1626 40.3237
102.499 1394 37.3363
102.616 1452 38.1051
102.733 1460 38.2099
102.851 1502 38.7556
102.968 1551 39.3827
103.085 1507 38.8201
103.202 1279 35.7631
103.319 1281 35.7911
103.436 1333 36.5103
103.552 1304 36.1109
103.669 1340 36.606
103.786 1312 36.2215
103.903 1219 34.9142
104.02 1249 35.3412
104.137 1235 35.1426
104.253 1258 35.4683
104.37 1235 35.1426
104.487 1236 35.1568
104.603 1215 34.8569
104.72 1151 33.9264
104.836 1242 35.242
104.953 1191 34.5109
105.069 1116 33.4066
105.186 1200 34.641
105.302 1268 35.609
105.418 1448 38.0526
105.535 1441 37.9605
105.651 1443 37.9868
105.767 1540 39.2428
105.883 1513 38.8973
105.999 1456 38.1576
106.115 0 1
106.231 0 1
106.347 0 1
106.463 0 1
106.579 0 1
106.694 0 1
106.81 0 1
106.926 0 1
107.041 0 1
107.157 0 1
109.576 0 1
109.692 0 1
109.807 0 1
109.923 0 1
110.039 0 1
110.155 0 1
110.27 0 1
110.386 0 1
110.502 0 1
110.618 1256 35.4401
110.735 1361 36.8917
110.851 1356 36.8239
110.967 1342 36.6333
111.083 1245 35.2846
111.199 1285 35.8469
111.316 1359 36.8646
111.432 1383 37.1887
111.549 1330 36.4692
111.665 1291 35.9305
111.782 1246 35.2987
111.898 1262 35.5246
112.015 1184 34.4093
112.132 1164 34.1174
112.248 1097 33.121
112.365 1069 32.6956
112.482 1031 32.1092
112.599 1002 31.6544
112.716 1025 32.0156
112.832 978 31.273
112.949 1022 31.9687
113.066 997 31.5753
113.183 942 30.692
113.3 973 31.1929
113.417 921 30.348
113.534 931 30.5123
113.652 957 30.9354
113.769 1007 31.7333
113.886 951 30.8383
114.003 1059 32.5423
114.12 1083 32.909
114.238 1099 33.1512
114.355 1103 33.2114
114.472 1091 33.0303
114.589 980 31.305
114.707 994 31.5278
114.824 1078 32.8329
114.942 1158 34.0294
115.059 1102 33.1964
115.176 1042 32.28
115.294 1001 31.6386
115.411 986 31.4006
115.529 969 31.1288
115.646 905 30.0832
115.764 949 30.8058
115.881 934 30.5614
115.999 891 29.8496
116.116 802 28.3196
116.234 811 28.4781
116.351 813 28.5132
116.469 759 27.55
116.586 767 27.6948
116.704 732 27.0555
116.821 749 27.3679
116.939 754 27.4591
117.056 796 28.2135
117.174 743 27.258
117.291 779 27.9106
117.409 791 28.1247
117.526 832 28.8444
117.644 837 28.931
117.761 861 29.3428
117.879 912 30.1993
117.996 902 30.0333
118.114 830 28.8097
118.231 789 28.0891
118.349 886 29.7658
118.466 849 29.1376
118.584 964 31.0483
118.701 912 30.1993
118.819 938 30.6268
118.936 941 30.6757
119.053 903 30.05
119.171 902 30.0333
119.288 894 29.8998
119.405 891 29.8496
119.523 908 30.133
119.64 828 28.775
119.757 836 28.9137
119.875 931 30.5123
119.992 800 28.2843
120.109 802 28.3196
120.226 770 27.7489
120.343 798 28.2489
120.46 786 28.0357
120.578 802 28.3196
120.695 848 29.1204
120.812 851 29.1719
120.929 864 29.3939
121.046 908 30.133
121.163 985 31.3847
121.279 959 30.9677
121.396 933 30.545
121.513 937 30.6105
121.63 1056 32.4962
121.747 971 31.1609
121.863 881 29.6816
121.98 924 30.3974
122.097 900 30
122.213 1021 31.9531
122.33 1089 33
122.446 1141 33.7787
122.563 1015 31.8591
122.679 1126 33.5559
122.795 1054 32.4654
122.912 1080 32.8634
123.028 1093 33.0606
123.144 1048 32.3728
123.26 1047 32.3574
123.377 0 1
123.493 0 1
123.609 0 1
123.725 0 1
123.84 0 1
123.956 0 1
124.072 0 1
124.188 0 1
124.303 0 1
124.419 0 1
126.852 0 1
126.968 0 1
127.083 0 1
127.199 0 1
127.315 0 1
127.431 0 1
127.547 0 1
127.663 0 1
127.779 0 1
127.895 0 1
128.011 0 1
128.127 0 1
128.243 0 1
128.359 1295 35.9861
128.476 1204 34.6987
128.592 1207 34.7419
128.708 1181 34.3657
128.825 1176 34.2929
128.941 1088 32.9848
129.058 1149 33.8969
129.174 1136 33.7046
129.291 1120 33.4664
129.408 1067 32.665
129.524 1163 34.1028
129.641 1040 32.249
129.758 1076 32.8024
129.875 1056 32.4962
129.992 1076 32.8024
130.108 1084 32.9242
130.225 1088 32.9848
130.342 1076 32.8024
130.459 1136 33.7046
130.576 1048 32.3728
130.693 991 31.4802
130.81 908 30.133
130.928 814 28.5307
131.045 951 30.8383
131.162 1115 33.3916
131.279 1091 33.0303
131.396 1155 33.9853
131.513 1138 33.7343
131.631 1063 32.6037
131.748 1046 32.3419
131.865 1180 34.3511
131.983 1064 32.619
132.1 1090 33.0151
132.217 1082 32.8938
132.335 997 31.5753
132.452 982 31.3369
132.57 960 30.9839
132.687 949 30.8058
132.804 1015 31.8591
132.922 937 30.6105
133.039 977 31.257
133.157 970 31.1448
133.274 925 30.4138
133.392 900 30
133.509 898 29.9666
133.627 972 31.1769
133.744 902 30.0333
133.862 934 30.5614
133.979 906 30.0998
134.097 914 30.2324
134.214 802 28.3196
134.332 681 26.096
134.449 660 25.6905
134.567 699 26.4386
134.684 839 28.9655
134.802 891 29.8496
134.919 884 29.7321
135.037 907 30.1164
135.154 881 29.6816
135.272 865 29.4109
135.389 861 29.3428
135.507 846 29.0861
135.624 807 28.4077
135.742 830 28.8097
135.859 767 27.6948
135.977 786 28.0357
136.094 756 27.4955
136.211 787 28.0535
136.329 752 27.4226
136.446 743 27.258
136.564 721 26.8514
136.681 693 26.3249
136.798 720 26.8328
136.915 682 26.1151
137.033 688 26.2298
137.15 699 26.4386
137.267 754 27.4591
137.384 720 26.8328
137.502 714 26.7208
137.619 660 25.6905
137.736 623 24.96
137.853 561 23.6854
137.97 508 22.5389
138.087 493 22.2036
138.204 666 25.807
138.321 718 26.7955
138.438 754 27.4591
138.555 799 28.2666
138.672 760 27.5681
138.788 830 28.8097
138.905 830 28.8097
139.022 840 28.9828
139.139 870 29.4958
139.255 853 29.2062
139.372 882 29.6985
139.488 812 28.4956
139.605 821 28.6531
139.721 859 29.3087
139.838 870 29.4958
139.954 900 30
140.071 848 29.1204
140.187 926 30.4302
140.303 827 28.7576
140.419 818 28.6007
140.535 809 28.4429
140.652 843 29.0345
140.768 0 1
140.884 0 1
141 0 1
141.115 0 1
141.231 0 1
141.347 0 1
141.463 0 1
141.578 0 1
141.694 0 1
144.104 0 1
144.219 0 1
144.335 0 1
144.45 0 1
144.566 0 1
144.682 0 1
144.798 0 1
144.914 0 1
145.03 0 1
145.146 711 26.6646
145.262 720 26.8328
145.378 713 26.7021
145.494 698 26.4197
145.61 737 27.1477
145.726 659 25.671
145.842 689 26.2488
145.959 706 26.5707
146.075 724 26.9072
146.192 654 25.5734
146.308 662 25.7294
146.425 654 25.5734
146.541 570 23.8747
146.658 520 22.8035
146.774 450 21.2132
146.891 537 23.1733
147.008 574 23.9583
147.125 649 25.4755
147.241 623 24.96
147.358 607 24.6374
147.475 586 24.2074
147.592 602 24.5357
147.709 560 23.6643
147.826 576 24
147.943 573 23.9374
148.06 532 23.0651
148.177 579 24.0624
148.294 539 23.2164
148.411 570 23.8747
148.528 581 24.1039
148.645 543 23.3024
148.762 507 22.5167
148.88 472 21.7256
148.997 527 22.9565
149.114 494 22.2261
149.231 498 22.3159
149.349 481 21.9317
149.466 522 22.8473
149.583 499 22.3383
149.701 479 21.8861
149.818 512 22.6274
149.935 453 21.2838
150.053 447 21.1424
150.17 424 20.5913
150.287 391 19.7737
150.405 401 20.025
150.522 444 21.0713
150.64 503 22.4277
150.757 507 22.5167
150.875 477 21.8403
150.992 499 22.3383
151.11 496 22.2711
151.227 500 22.3607
151.344 484 22
151.462 465 21.5639
151.579 452 21.2603
151.697 534 23.1084
151.814 493 22.2036
151.932 545 23.3452
152.049 479 21.8861
152.167 506 22.4944
152.284 463 21.5174
152.402 460 21.4476
152.519 474 21.7715
152.636 455 21.3307
152.754 435 20.8567
152.871 470 21.6795
152.989 499 22.3383
153.106 500 22.3607
153.223 456 21.3542
153.341 473 21.7486
153.458 489 22.1133
153.575 471 21.7025
153.693 477 21.8403
153.81 442 21.0238
153.927 429 20.7123
154.044 471 21.7025
154.162 460 21.4476
154.279 510 22.5832
154.396 532 23.0651
154.513 604 24.5764
154.63 565 23.7697
154.747 590 24.2899
154.864 598 24.454
154.981 517 22.7376
155.098 625 25
155.215 565 23.7697
155.332 539 23.2164
155.449 550 23.4521
155.566 559 23.6432
155.683 533 23.0868
155.8 573 23.9374
155.917 539 23.2164
156.033 509 22.561
156.15 0 1
156.267 0 1
156.383 0 1
156.5 0 1
156.617 0 1
156.733 0 1
156.85 0 1
156.966 0 1
157.082 0 1
157.199 0 1
157.315 0 1
157.431 0 1
157.547 0 1
157.664 0 1
157.78 0 1
157.896 0 1
158.012 0 1
158.128 0 1
158.244 0 1
158.359 0 1
158.475 0 1
158.591 0 1
158.706 0 1
