
6.15755 0 1
6.2731 0 1
6.3887 0 1
6.50437 0 1
6.62009 0 1
6.73587 0 1
6.8517 0 1
6.96759 0 1
7.08353 0 1
7.19952 0 1
7.31557 0 1
7.43166 0 1
7.54781 0 1
7.664 0 1
7.78024 0 1
7.89653 0 1
8.01286 0 1
8.12924 0 1
8.24567 0 1
8.36213 0 1
8.47864 0 1
8.59519 0 1
8.71178 0 1
8.82841 0 1
8.94508 0 1
9.06179 0 1
9.17853 0 1
9.29531 0 1
9.41212 0 1
9.52897 0 1
9.64584 0 1
9.76276 0 1
9.8797 0 1
9.99667 0 1
10.1137 0 1
10.2307 0 1
10.3478 0 1
10.4648 0 1
10.5819 0 1
10.6991 0 1
10.8162 0 1
10.9334 0 1
11.0506 0 1
11.1678 0 1
11.285 0 1
11.4023 0 1
11.5196 0 1
11.6369 0 1
11.7542 0 1
11.8715 0 1
11.9888 0 1
12.1062 0 1
12.2235 0 1
12.3409 0 1
12.4582 0 1
12.5756 0 1
12.693 0 1
12.8104 0 1
12.9278 0 1
13.0452 0 1
13.1626 0 1
13.28 0 1
13.3974 0 1
13.5149 0 1
13.6323 0 1
13.7497 0 1
13.8671 0 1
13.9845 0 1
14.1019 0 1
14.2193 0 1
14.3367 0 1
14.4541 0 1
14.5714 0 1
14.6888 0 1
14.8062 0 1
14.9235 0 1
15.0408 0 0
15.1581 0 0
15.2755 0 0
15.3927 0 0
15.51 0 0
15.6273 0 0
15.7445 0 0
15.8617 0 0
15.9789 0 0
16.0961 0 0
16.2132 0 0
16.3304 0 0
16.4475 0 0
16.5646 0 0
16.6816 0 0
16.7986 0 0
16.9156 0 0
17.0326 0 0
17.1496 0 0
17.2665 0 0
17.3833 0 0
17.5002 0 0
17.617 0 0
17.7338 0 0
17.8505 0 0
17.9672 0 0
18.0839 0 0
18.2005 0 0
18.3171 0 0
18.4337 0 0
18.5502 0 0
18.6666 0 0
18.7831 0 0
18.8994 0 0
19.0158 0 0
19.1321 0 0
19.2483 0 0
19.3645 0 0
19.4806 0 0
19.5967 0 0
19.7128 0 0
19.8288 0 0
19.9447 0 0
20.0606 0 1
20.1764 0 1
20.2922 0 1
20.4079 0 1
20.5236 0 1
20.6392 0 1
20.7548 0 1
20.8702 0 1
23.3078 0 1
23.4233 0 1
23.539 0 1
23.6547 0 1
23.7704 0 1
23.8862 0 1
24.0021 0 1
24.118 0 1
24.234 0 1
24.35 0 1
24.4661 1238 35.1852
24.5822 1377 37.108
24.6984 1520 38.9872
24.8146 1747 41.7971
24.9309 1947 44.1248
25.0472 2226 47.1805
25.1636 2418 49.1732
25.28 2556 50.5569
25.3965 2510 50.0999
25.513 2673 51.7011
25.6296 2635 51.3323
25.7462 2660 51.5752
25.8628 2641 51.3907
25.9795 2606 51.049
26.0962 2743 52.3737
26.213 2682 51.788
26.3298 2776 52.6878
26.4466 2712 52.0769
26.5635 2676 51.7301
26.6804 2743 52.3737
26.7973 2583 50.8232
26.9143 2601 51
27.0313 2537 50.3686
27.1483 2498 49.98
27.2653 2455 49.548
27.3824 2371 48.6929
27.4996 2261 47.55
27.6167 2228 47.2017
27.7339 2145 46.3141
27.8511 2292 47.8748
27.9683 2478 49.7795
28.0855 2493 49.93
28.2028 2532 50.319
28.3201 2485 49.8498
28.4374 2485 49.8498
28.5547 2432 49.3153
28.6721 2488 49.8799
28.7894 2494 49.94
28.9068 2475 49.7494
29.0242 2606 51.049
29.1416 2435 49.3457
29.259 2656 51.5364
29.3764 2541 50.4083
29.4939 2481 49.8096
29.6113 2401 49
29.7288 2464 49.6387
29.8463 2381 48.7955
29.9638 2445 49.4469
30.0812 2399 48.9796
30.1987 2445 49.4469
30.3162 2448 49.4773
30.4337 2416 49.1528
30.5512 2419 49.1833
30.6687 2438 49.3761
30.7862 2493 49.93
30.9037 2388 48.8672
31.0212 2222 47.1381
31.1387 2274 47.6865
31.2562 2314 48.1041
31.3737 2436 49.3559
31.4912 2553 50.5272
31.6087 2589 50.8822
31.7262 2499 49.99
31.8436 2516 50.1597
31.9611 2536 50.3587
32.0785 2429 49.2849
32.1959 2445 49.4469
32.3134 2467 49.6689
32.4308 2449 49.4874
32.5482 2477 49.7695
32.6655 2296 47.9166
32.7829 2252 47.4552
32.9002 2302 47.9792
33.0176 2229 47.2123
33.1349 2121 46.0543
33.2522 2216 47.0744
33.3694 2103 45.8585
33.4867 2181 46.7012
33.6039 2223 47.1487
33.7211 2242 47.3498
33.8383 2350 48.4768
33.9554 2342 48.3942
34.0725 2376 48.7442
34.1896 2510 50.0999
34.3067 2412 49.1121
34.4237 2495 49.95
34.5407 2218 47.0956
34.6577 2246 47.392
34.7746 2173 46.6154
34.8915 2222 47.1381
35.0084 2433 49.3254
35.1252 2415 49.1426
35.242 2533 50.3289
35.3587 2533 50.3289
35.4755 2476 49.7594
35.5921 2446 49.4571
35.7088 2437 49.366
35.8254 2247 47.4025
35.9419 2155 46.422
36.0584 2178 46.669
36.1749 2126 46.1086
36.2913 2017 44.911
36.4077 2010 44.833
36.524 1915 43.7607
36.6403 1694 41.1582
36.7565 1632 40.398
36.8727 1469 38.3275
36.9889 1416 37.6298
37.1049 1424 37.7359
37.221 0 1
37.3369 0 1
37.4529 0 1
37.5687 0 1
37.6845 0 1
37.8003 0 1
37.916 0 1
38.0316 0 1
38.1472 0 1
40.5851 0 1
40.7008 0 1
40.8164 0 1
40.9322 0 1
41.048 0 1
41.1639 0 1
41.2798 0 1
41.3958 0 1
41.5118 0 1
41.6279 0 1
41.744 1869 43.2319
41.8602 2377 48.7545
41.9765 2936 54.1849
42.0928 3029 55.0364
42.2091 3143 56.0625
42.3255 3177 56.3649
42.4419 3237 56.8946
42.5584 3282 57.2887
42.675 3331 57.7148
42.7915 3211 56.6657
42.9081 3328 57.6888
43.0248 3524 59.3633
43.1415 3459 58.8133
43.2582 3257 57.0701
43.375 3070 55.4076
43.4918 3169 56.2939
43.6087 3116 55.8211
43.7256 3275 57.2276
43.8425 3240 56.921
43.9595 3378 58.1206
44.0765 3252 57.0263
44.1935 3175 56.3471
44.3106 3081 55.5068
44.4277 3100 55.6776
44.5448 2887 53.7308
44.6619 2803 52.9434
44.7791 2656 51.5364
44.8963 2530 50.2991
45.0136 2457 49.5681
45.1308 2292 47.8748
45.2481 2184 46.7333
45.3654 2035 45.111
45.4827 2042 45.1885
45.6001 2008 44.8107
45.7174 1970 44.3847
45.8348 2069 45.4863
45.9522 1852 43.0349
46.0697 2062 45.4093
46.1871 1907 43.6692
46.3046 2051 45.288
46.422 2111 45.9456
46.5395 2082 45.6289
46.657 2178 46.669
46.7745 2012 44.8553
46.892 1962 44.2945
47.0096 1858 43.1045
47.1271 1907 43.6692
47.2446 1967 44.3509
47.3622 2136 46.2169
47.4797 2091 45.7275
47.5973 2143 46.2925
47.7149 2123 46.076
47.8324 2084 45.6508
47.95 2080 45.607
48.0675 1999 44.7102
48.1851 1873 43.2782
48.3027 1995 44.6654
48.4202 1917 43.7836
48.5378 1937 44.0114
48.6554 1847 42.9767
48.7729 1816 42.6146
48.8904 1855 43.0697
49.008 1802 42.45
49.1255 1778 42.1663
49.243 1748 41.8091
49.3605 1837 42.8602
49.478 1805 42.4853
49.5955 1877 43.3244
49.713 1981 44.5084
49.8304 1949 44.1475
49.9479 2014 44.8776
50.0653 2090 45.7165
50.1827 2011 44.8442
50.3001 1905 43.6463
50.4175 1630 40.3733
50.5348 1583 39.7869
50.6521 1716 41.4246
50.7694 1823 42.6966
50.8867 2038 45.1442
51.004 1983 44.5309
51.1212 2061 45.3982
51.2384 2068 45.4753
51.3556 2033 45.0888
51.4727 1912 43.7264
51.5899 2058 45.3652
51.707 2072 45.5192
51.824 1950 44.1588
51.9411 1919 43.8064
52.0581 1886 43.4281
52.175 1865 43.1856
52.2919 1872 43.2666
52.4088 1842 42.9185
52.5257 1817 42.6263
52.6425 1742 41.7373
52.7593 1809 42.5323
52.876 1898 43.566
52.9927 1808 42.5206
53.1094 1808 42.5206
53.226 1914 43.7493
53.3426 1863 43.1625
53.4591 1757 41.9166
53.5756 1620 40.2492
53.692 1401 37.4299
53.8084 1278 35.7491
53.9248 1144 33.8231
54.0411 1039 32.2335
54.1573 981 31.3209
54.2735 0 1
54.3896 0 1
54.5057 0 1
54.6217 0 1
54.7377 0 1
54.8537 0 1
54.9695 0 1
55.0853 0 1
55.2011 0 1
55.3168 0 1
55.4324 0 1
57.824 0 1
57.9396 0 1
58.0553 0 1
58.1711 0 1
58.2869 0 1
58.4028 0 1
58.5187 0 1
58.6347 0 1
58.7508 0 1
58.8669 0 1
58.983 1576 39.6989
59.0992 1691 41.1218
59.2155 1700 41.2311
59.3318 1816 42.6146
59.4482 2032 45.0777
59.5646 2109 45.9239
59.681 2229 47.2123
59.7975 2286 47.8121
59.9141 2340 48.3735
60.0306 2351 48.4871
60.1473 2302 47.9792
60.2639 2447 49.4672
60.3807 2334 48.3115
60.4974 2434 49.3356
60.6142 2389 48.8774
60.731 2379 48.775
60.8479 2373 48.7134
60.9648 2393 48.9183
61.0818 2390 48.8876
61.1987 2338 48.3529
61.3158 2242 47.3498
61.4328 2351 48.4871
61.5499 2233 47.2546
61.667 2235 47.2758
61.7841 2262 47.5605
61.9013 2287 47.8226
62.0185 2410 49.0918
62.1357 2291 47.8644
62.253 2340 48.3735
62.3702 2248 47.4131
62.4875 2203 46.9361
62.6049 2060 45.3872
62.7222 2044 45.2106
62.8396 2234 47.2652
62.9569 2351 48.4871
63.0743 2405 49.0408
63.1918 2524 50.2394
63.3092 2448 49.4773
63.4267 2434 49.3356
63.5441 2513 50.1298
63.6616 2503 50.03
63.7791 2393 48.9183
63.8966 2357 48.5489
64.0142 2381 48.7955
64.1317 2380 48.7852
64.2492 2486 49.8598
64.3668 2387 48.8569
64.4843 2435 49.3457
64.6019 2343 48.4045
64.7195 2326 48.2286
64.837 2290 47.8539
64.9546 2222 47.1381
65.0722 2197 46.8722
65.1898 2305 48.0104
65.3074 2209 47
65.4249 2278 47.7284
65.5425 2234 47.2652
65.6601 2264 47.5815
65.7777 2322 48.1871
65.8952 2353 48.5077
66.0128 2209 47
66.1304 1986 44.5646
66.2479 1853 43.0465
66.3655 2008 44.8107
66.483 2190 46.7974
66.6005 2355 48.5283
66.718 2473 49.7293
66.8355 2339 48.3632
66.953 2454 49.5379
67.0705 2427 49.2646
67.1879 2411 49.1019
67.3054 2359 48.5695
67.4228 2432 49.3153
67.5402 2315 48.1144
67.6576 2517 50.1697
67.7749 2240 47.3286
67.8923 2310 48.0625
68.0096 2381 48.7955
68.1269 2377 48.7545
68.2442 2307 48.0312
68.3614 2177 46.6583
68.4787 2209 47
68.5958 2259 47.5289
68.713 2082 45.6289
68.8302 2087 45.6837
68.9473 2153 46.4004
69.0643 2176 46.6476
69.1814 2145 46.3141
69.2984 2139 46.2493
69.4154 2252 47.4552
69.5323 2143 46.2925
69.6492 2057 45.3542
69.7661 1860 43.1277
69.8829 1692 41.1339
69.9997 1859 43.1161
70.1165 1954 44.2041
70.2332 1953 44.1928
70.3499 1829 42.7668
70.4665 1724 41.5211
70.5831 1595 39.9375
70.6996 1558 39.4715
70.8161 1476 38.4187
70.9326 1444 38
71.049 1320 36.3318
71.1653 1338 36.5787
71.2817 1284 35.8329
71.3979 1203 34.6843
71.5141 1242 35.242
71.6303 1089 33
71.7464 1054 32.4654
71.8624 0 1
71.9784 0 1
72.0944 0 1
72.2102 0 1
72.3261 0 1
72.4418 0 1
72.5575 0 1
72.6732 0 1
75.1054 0 1
75.2209 0 1
75.3365 0 1
75.4521 0 1
75.5678 0 1
75.6835 0 1
75.7993 0 1
75.9151 0 1
76.031 0 1
76.147 1750 41.833
76.263 2084 45.6508
76.3791 2023 44.9778
76.4952 2053 45.31
76.6113 2061 45.3982
76.7276 2116 46
76.8438 2131 46.1628
76.9601 2104 45.8694
77.0765 2214 47.0532
77.1929 2234 47.2652
77.3093 2172 46.6047
77.4258 2145 46.3141
77.5423 2071 45.5082
77.6589 2067 45.4643
77.7755 2003 44.7549
77.8921 1990 44.6094
78.0088 2107 45.9021
78.1256 2022 44.9667
78.2423 2127 46.1194
78.3591 2133 46.1844
78.4759 2178 46.669
78.5928 2113 45.9674
78.7097 1906 43.6578
78.8266 1701 41.2432
78.9436 1451 38.092
79.0606 1645 40.5586
79.1776 1823 42.6966
79.2946 2126 46.1086
79.4117 2176 46.6476
79.5288 2253 47.4658
79.6459 2331 48.2804
79.7631 2208 46.9894
79.8802 2321 48.1768
79.9974 2195 46.8508
80.1147 2322 48.1871
80.2319 2263 47.571
80.3491 2162 46.4973
80.4664 2251 47.4447
80.5837 2289 47.8435
80.701 2288 47.833
80.8183 2311 48.0729
80.9357 2353 48.5077
81.053 2254 47.4763
81.1704 2313 48.0937
81.2877 2192 46.8188
81.4051 2230 47.2229
81.5225 2340 48.3735
81.6399 2186 46.7547
81.7573 2195 46.8508
81.8747 2364 48.621
81.9922 2450 49.4975
82.1096 2659 51.5655
82.227 2596 50.951
82.3444 2411 49.1019
82.4619 2212 47.0319
82.5793 2082 45.6289
82.6967 2207 46.9787
82.8142 2688 51.8459
82.9316 3184 56.4269
83.049 3406 58.3609
83.1664 3637 60.3075
83.2838 3681 60.6712
83.4012 3798 61.6279
83.5186 3977 63.0635
83.636 3993 63.1902
83.7534 4107 64.0859
83.8708 4106 64.0781
83.9881 3990 63.1664
84.1055 4123 64.2106
84.2228 4253 65.215
84.3401 4236 65.0846
84.4575 4286 65.4675
84.5747 4201 64.8151
84.692 4168 64.56
84.8093 4196 64.7765
84.9265 4233 65.0615
85.0437 4178 64.6375
85.1609 4112 64.1249
85.2781 3970 63.0079
85.3952 4017 63.3798
85.5123 4135 64.304
85.6294 4014 63.3561
85.7465 4008 63.3088
85.8636 3815 61.7657
85.9806 3136 56
86.0976 2675 51.7204
86.2145 2693 51.8941
86.3315 3026 55.0091
86.4484 3589 59.9083
86.5652 3887 62.3458
86.682 4126 64.2339
86.7988 4060 63.7181
86.9156 3934 62.7216
87.0323 4116 64.1561
87.149 3997 63.2218
87.2657 4062 63.7338
87.3823 3987 63.1427
87.4988 3885 62.3298
87.6154 3641 60.3407
87.7318 3162 56.2317
87.8483 3076 55.4617
87.9647 2911 53.9537
88.081 2897 53.8238
88.1973 2883 53.6936
88.3136 2572 50.7149
88.4298 2562 50.6162
88.546 2416 49.1528
88.6621 2341 48.3839
88.7781 2298 47.9375
88.8942 0 1
89.0101 0 1
89.126 0 1
89.2419 0 1
89.3577 0 1
89.4734 0 1
89.5891 0 1
89.7047 0 1
89.8203 0 1
89.9358 0 1
92.3269 0 1
92.4424 0 1
92.558 0 1
92.6736 0 1
92.7893 0 1
92.905 0 1
93.0208 0 1
93.1366 0 1
93.2525 0 1
93.3685 0 1
93.4845 0 1
93.6005 4234 65.0692
93.7167 4215 64.923
93.8328 4181 64.6607
93.949 4174 64.6065
94.0653 4258 65.2534
94.1816 4203 64.8305
94.2979 4125 64.2262
94.4143 4224 64.9923
94.5307 4255 65.2304
94.6472 4131 64.2729
94.7637 4005 63.2851
94.8803 3659 60.4897
94.9969 3167 56.2761
95.1135 2944 54.2586
95.2302 3095 55.6327
95.3469 3607 60.0583
95.4637 4076 63.8436
95.5805 4186 64.6993
95.6973 4274 65.3758
95.8142 4289 65.4905
95.9311 4288 65.4828
96.048 4206 64.8537
96.1649 4335 65.8407
96.2819 4363 66.053
96.3989 4496 67.0522
96.516 4346 65.9242
96.633 4301 65.582
96.7501 4339 65.8711
96.8673 4351 65.9621
96.9844 4458 66.7683
97.1016 4623 67.9926
97.2188 4486 66.9776
97.336 4450 66.7083
97.4532 4334 65.8331
97.5704 4333 65.8255
97.6877 4140 64.3428
97.805 4235 65.0769
97.9223 4246 65.1613
98.0396 4325 65.7647
98.1569 4203 64.8305
98.2743 3888 62.3538
98.3916 3751 61.2454
98.509 3116 55.8211
98.6264 2857 53.4509
98.7438 2901 53.8609
98.8612 3208 56.6392
98.9786 3426 58.532
99.096 3638 60.3158
99.2134 3594 59.95
99.3308 3493 59.1016
99.4482 3379 58.1292
99.5656 3386 58.1893
99.6831 3309 57.5239
99.8005 3125 55.9017
99.9179 3116 55.8211
100.035 2944 54.2586
100.153 2864 53.5164
100.27 2956 54.3691
100.388 2974 54.5344
100.505 2935 54.1756
100.622 3017 54.9272
100.74 3016 54.9181
100.857 2956 54.3691
100.975 2991 54.69
101.092 2918 54.0185
101.209 2924 54.074
101.327 2861 53.4883
101.444 2912 53.963
101.561 2951 54.3231
101.679 2948 54.2955
101.796 2896 53.8145
101.913 2853 53.4135
102.03 2526 50.2593
102.148 2321 48.1768
102.265 2064 45.4313
102.382 2348 48.4562
102.499 2525 50.2494
102.616 2686 51.8266
102.733 2742 52.3641
102.851 2705 52.0096
102.968 2795 52.8678
103.085 2672 51.6914
103.202 2627 51.2543
103.319 2732 52.2685
103.436 2659 51.5655
103.552 2722 52.1728
103.669 2636 51.342
103.786 2591 50.9019
103.903 2664 51.614
104.02 2722 52.1728
104.137 2734 52.2877
104.253 2900 53.8516
104.37 2660 51.5752
104.487 2650 51.4782
104.603 2586 50.8527
104.72 2561 50.6063
104.836 2289 47.8435
104.953 2110 45.9347
105.069 1871 43.2551
105.186 1727 41.5572
105.302 1634 40.4228
105.418 1484 38.5227
105.535 1355 36.8103
105.651 1241 35.2278
105.767 1009 31.7648
105.883 871 29.5127
105.999 793 28.1603
106.115 0 1
106.231 0 1
106.347 0 1
106.463 0 1
106.579 0 1
106.694 0 1
106.81 0 1
106.926 0 1
107.041 0 1
107.157 0 1
109.576 0 1
109.692 0 1
109.807 0 1
109.923 0 1
110.039 0 1
110.155 0 1
110.27 0 1
110.386 0 1
110.502 0 1
110.618 2606 51.049
110.735 2796 52.8772
110.851 2580 50.7937
110.967 2382 48.8057
111.083 2195 46.8508
111.199 2490 49.8999
111.316 2751 52.45
111.432 2946 54.2771
111.549 3007 54.8361
111.665 2967 54.4702
111.782 2830 53.1977
111.898 2900 53.8516
112.015 2907 53.9166
112.132 2882 53.6843
112.248 2991 54.69
112.365 2871 53.5817
112.482 2839 53.2823
112.599 3107 55.7405
112.716 3066 55.3715
112.832 3189 56.4712
112.949 3125 55.9017
113.066 3324 57.6541
113.183 3262 57.1139
113.3 3272 57.2014
113.417 3225 56.7891
113.534 3326 57.6715
113.652 3283 57.2975
113.769 3212 56.6745
113.886 3156 56.1783
114.003 3052 55.2449
114.12 3227 56.8067
114.238 3195 56.5243
114.355 2898 53.8331
114.472 2515 50.1498
114.589 2465 49.6488
114.707 2575 50.7445
114.824 2743 52.3737
114.942 3051 55.2359
115.059 3042 55.1543
115.176 3120 55.857
115.294 3053 55.254
115.411 3013 54.8908
115.529 2972 54.5161
115.646 3010 54.8635
115.764 2925 54.0833
115.881 3014 54.8999
115.999 3048 55.2087
116.116 2986 54.6443
116.234 3068 55.3895
116.351 3267 57.1577
116.469 3196 56.5332
116.586 3358 57.9483
116.704 3383 58.1636
116.821 3369 58.0431
116.939 3369 58.0431
117.056 3285 57.3149
117.174 3225 56.7891
117.291 3252 57.0263
117.409 3293 57.3847
117.526 3217 56.7186
117.644 3224 56.7803
117.761 3199 56.5597
117.879 3125 55.9017
117.996 2939 54.2125
118.114 2574 50.7346
118.231 2491 49.9099
118.349 2690 51.8652
118.466 2890 53.7587
118.584 3013 54.8908
118.701 2971 54.5069
118.819 3011 54.8726
118.936 2976 54.5527
119.053 2969 54.4885
119.171 2956 54.3691
119.288 2875 53.619
119.405 2969 54.4885
119.523 2918 54.0185
119.64 2847 53.3573
119.757 2875 53.619
119.875 2886 53.7215
119.992 2908 53.9259
120.109 2992 54.6992
120.226 3076 55.4617
120.343 3097 55.6507
120.46 3108 55.7494
120.578 3102 55.6956
120.695 3116 55.8211
120.812 2951 54.3231
120.929 2963 54.4334
121.046 2955 54.3599
121.163 3028 55.0273
121.279 2977 54.5619
121.396 3048 55.2087
121.513 2846 53.3479
121.63 2644 51.4198
121.747 2346 48.4355
121.863 2175 46.6369
121.98 1986 44.5646
122.097 2016 44.8999
122.213 2137 46.2277
122.33 2140 46.2601
122.446 2102 45.8476
122.563 2023 44.9778
122.679 1936 44
122.795 1906 43.6578
122.912 1857 43.0929
123.028 1884 43.4051
123.144 1818 42.638
123.26 1791 42.3202
123.377 0 1
123.493 0 1
123.609 0 1
123.725 0 1
123.84 0 1
123.956 0 1
124.072 0 1
124.188 0 1
124.303 0 1
124.419 0 1
126.852 0 1
126.968 0 1
127.083 0 1
127.199 0 1
127.315 0 1
127.431 0 1
127.547 0 1
127.663 0 1
127.779 0 1
127.895 0 1
128.011 0 1
128.127 0 1
128.243 0 1
128.359 3414 58.4294
128.476 3476 58.9576
128.592 3437 58.6259
128.708 3539 59.4895
128.825 3514 59.279
128.941 3515 59.2874
129.058 3574 59.7829
129.174 3615 60.1249
129.291 3742 61.1719
129.408 3702 60.8441
129.524 3979 63.0793
129.641 3961 62.9365
129.758 4001 63.2535
129.875 4018 63.3877
129.992 4090 63.9531
130.108 4131 64.2729
130.225 4084 63.9062
130.342 4108 64.0937
130.459 3927 62.6658
130.576 4082 63.8905
130.693 3763 61.3433
130.81 3577 59.808
130.928 3666 60.5475
131.045 3741 61.1637
131.162 3924 62.6418
131.279 4067 63.773
131.396 3916 62.578
131.513 3895 62.4099
131.631 3911 62.538
131.748 3968 62.9921
131.865 3843 61.9919
131.983 3830 61.887
132.1 3791 61.5711
132.217 3804 61.6766
132.335 3862 62.145
132.452 3822 61.8223
132.57 3810 61.7252
132.687 3628 60.2329
132.804 3940 62.7694
132.922 3977 63.0635
133.039 3857 62.1048
133.157 4058 63.7024
133.274 4193 64.7534
133.392 4154 64.4515
133.509 4172 64.591
133.627 4322 65.7419
133.744 4397 66.3099
133.862 4391 66.2646
133.979 4300 65.5744
134.097 4417 66.4605
134.214 4128 64.2495
134.332 3939 62.7615
134.449 4034 63.5138
134.567 4082 63.8905
134.684 4092 63.9687
134.802 4222 64.9769
134.919 4219 64.9538
135.037 4299 65.5668
135.154 4276 65.3911
135.272 4213 64.9076
135.389 4219 64.9538
135.507 4095 63.9922
135.624 4064 63.7495
135.742 4034 63.5138
135.859 4059 63.7103
135.977 3824 61.8385
136.094 4012 63.3404
136.211 3997 63.2218
136.329 3869 62.2013
136.446 4041 63.5689
136.564 3988 63.1506
136.681 4138 64.3273
136.798 4159 64.4903
136.915 4168 64.56
137.033 3988 63.1506
137.15 4249 65.1844
137.267 4153 64.4438
137.384 4171 64.5833
137.502 4180 64.6529
137.619 4226 65.0077
137.736 4140 64.3428
137.853 3922 62.6259
137.97 3921 62.6179
138.087 3805 61.6847
138.204 3846 62.0161
138.321 3971 63.0159
138.438 4063 63.7417
138.555 4103 64.0547
138.672 4106 64.0781
138.788 4006 63.293
138.905 3984 63.1189
139.022 3794 61.5955
139.139 3713 60.9344
139.255 3507 59.2199
139.372 3375 58.0948
139.488 3209 56.648
139.605 3120 55.857
139.721 3124 55.8928
139.838 3043 55.1634
139.954 2994 54.7175
140.071 2805 52.9623
140.187 2844 53.3292
140.303 2732 52.2685
140.419 2748 52.4214
140.535 2854 53.4228
140.652 2938 54.2033
140.768 0 1
140.884 0 1
141 0 1
141.115 0 1
141.231 0 1
141.347 0 1
141.463 0 1
141.578 0 1
141.694 0 1
144.104 0 1
144.219 0 1
144.335 0 1
144.45 0 1
144.566 0 1
144.682 0 1
144.798 0 1
144.914 0 1
145.03 0 1
145.146 8264 90.9065
145.262 8711 93.3327
145.378 8723 93.397
145.494 8664 93.0806
145.61 8620 92.844
145.726 8774 93.6696
145.842 8726 93.4131
145.959 8759 93.5895
146.075 9049 95.1262
146.192 8877 94.2178
146.308 8637 92.9355
146.425 8578 92.6175
146.541 7962 89.23
146.658 6994 83.6301
146.774 6032 77.666
146.891 5591 74.773
147.008 6387 79.9187
147.125 7589 87.1149
147.241 8380 91.5423
147.358 8534 92.3797
147.475 8596 92.7146
147.592 8651 93.0108
147.709 8780 93.7017
147.826 8739 93.4826
147.943 8685 93.1933
148.06 8771 93.6536
148.177 8520 92.3038
148.294 8760 93.5949
148.411 8615 92.817
148.528 8691 93.2255
148.645 8770 93.6483
148.762 8950 94.6044
148.88 8848 94.0638
148.997 8530 92.358
149.114 9137 95.5877
149.231 8906 94.3716
149.349 9006 94.8999
149.466 8967 94.6942
149.583 8899 94.3345
149.701 8781 93.707
149.818 9024 94.9947
149.935 9071 95.2418
150.053 8912 94.4034
150.17 8587 92.6661
150.287 7609 87.2296
150.405 6427 80.1686
150.522 5836 76.3937
150.64 6349 79.6806
150.757 7483 86.5043
150.875 8393 91.6133
150.992 8766 93.6269
151.11 8410 91.7061
151.227 8642 92.9624
151.344 8479 92.0815
151.462 8504 92.2171
151.579 8626 92.8763
151.697 8652 93.0161
151.814 8736 93.4666
151.932 8732 93.4452
152.049 8883 94.2497
152.167 8769 93.6429
152.284 8764 93.6162
152.402 8776 93.6803
152.519 8912 94.4034
152.636 9116 95.4777
152.754 8737 93.4719
152.871 9186 95.8436
152.989 9089 95.3362
153.106 9091 95.3467
153.223 9227 96.0573
153.341 9311 96.4935
153.458 9169 95.7549
153.575 9200 95.9166
153.693 9355 96.7212
153.81 8811 93.8669
153.927 7736 87.9545
154.044 6884 82.9699
154.162 6198 78.7274
154.279 6706 81.8902
154.396 7797 88.3006
154.513 8680 93.1665
154.63 9073 95.2523
154.747 9162 95.7183
154.864 8896 94.3186
154.981 8944 94.5727
155.098 8816 93.8936
155.215 8653 93.0215
155.332 8558 92.5095
155.449 8413 91.7224
155.566 8305 91.1318
155.683 7885 88.7975
155.8 7887 88.8088
155.917 7648 87.4528
156.033 7654 87.4871
156.15 0 1
156.267 0 1
156.383 0 1
156.5 0 1
156.617 0 1
156.733 0 1
156.85 0 1
156.966 0 1
157.082 0 1
157.199 0 1
157.315 0 1
157.431 0 1
157.547 0 1
157.664 0 1
157.78 0 1
157.896 0 1
158.012 0 1
158.128 0 1
158.244 0 1
158.359 0 1
158.475 0 1
158.591 0 1
158.706 0 1
