
6.15755 0 1
6.2731 0 1
6.3887 0 1
6.50437 0 1
6.62009 0 1
6.73587 0 1
6.8517 0 1
6.96759 0 1
7.08353 0 1
7.19952 0 1
7.31557 0 1
7.43166 0 1
7.54781 0 1
7.664 0 1
7.78024 0 1
7.89653 0 1
8.01286 0 1
8.12924 0 1
8.24567 0 1
8.36213 0 1
8.47864 0 1
8.59519 0 1
8.71178 0 1
8.82841 0 1
8.94508 0 1
9.06179 0 1
9.17853 0 1
9.29531 0 1
9.41212 0 1
9.52897 0 1
9.64584 0 1
9.76276 0 1
9.8797 0 1
9.99667 0 1
10.1137 0 1
10.2307 0 1
10.3478 0 1
10.4648 0 1
10.5819 0 1
10.6991 0 1
10.8162 0 1
10.9334 0 1
11.0506 0 1
11.1678 0 1
11.285 0 1
11.4023 0 1
11.5196 0 1
11.6369 0 1
11.7542 0 1
11.8715 0 1
11.9888 0 1
12.1062 0 1
12.2235 0 1
12.3409 0 1
12.4582 0 1
12.5756 0 1
12.693 0 1
12.8104 0 1
12.9278 0 1
13.0452 0 1
13.1626 0 1
13.28 0 1
13.3974 0 1
13.5149 0 1
13.6323 0 1
13.7497 0 1
13.8671 0 1
13.9845 0 1
14.1019 0 1
14.2193 0 1
14.3367 0 1
14.4541 0 1
14.5714 0 1
14.6888 0 1
14.8062 0 1
14.9235 0 1
15.0408 0 0
15.1581 0 0
15.2755 0 0
15.3927 0 0
15.51 0 0
15.6273 0 0
15.7445 0 0
15.8617 0 0
15.9789 0 0
16.0961 0 0
16.2132 0 0
16.3304 0 0
16.4475 0 0
16.5646 0 0
16.6816 0 0
16.7986 0 0
16.9156 0 0
17.0326 0 0
17.1496 0 0
17.2665 0 0
17.3833 0 0
17.5002 0 0
17.617 0 0
17.7338 0 0
17.8505 0 0
17.9672 0 0
18.0839 0 0
18.2005 0 0
18.3171 0 0
18.4337 0 0
18.5502 0 0
18.6666 0 0
18.7831 0 0
18.8994 0 0
19.0158 0 0
19.1321 0 0
19.2483 0 0
19.3645 0 0
19.4806 0 0
19.5967 0 0
19.7128 0 0
19.8288 0 0
19.9447 0 0
20.0606 0 1
20.1764 0 1
20.2922 0 1
20.4079 0 1
20.5236 0 1
20.6392 0 1
20.7548 0 1
20.8702 0 1
23.3078 0 1
23.4233 0 1
23.539 0 1
23.6547 0 1
23.7704 0 1
23.8862 0 1
24.0021 0 1
24.118 0 1
24.234 0 1
24.35 0 1
24.4661 1072 32.7414
24.5822 1169 34.1906
24.6984 1095 33.0908
24.8146 1087 32.9697
24.9309 1118 33.4365
25.0472 1088 32.9848
25.1636 1056 32.4962
25.28 1057 32.5115
25.3965 1066 32.6497
25.513 1074 32.7719
25.6296 1117 33.4215
25.7462 1124 33.5261
25.8628 1244 35.2704
25.9795 1174 34.2637
26.0962 1221 34.9428
26.213 1252 35.3836
26.3298 1185 34.4238
26.4466 1212 34.8138
26.5635 1223 34.9714
26.6804 1143 33.8083
26.7973 1153 33.9559
26.9143 1166 34.1467
27.0313 1188 34.4674
27.1483 1247 35.3129
27.2653 1213 34.8281
27.3824 1267 35.5949
27.4996 1250 35.3553
27.6167 1175 34.2783
27.7339 1228 35.0428
27.8511 1187 34.4529
27.9683 1127 33.5708
28.0855 1109 33.3017
28.2028 1133 33.6601
28.3201 1045 32.3265
28.4374 1086 32.9545
28.5547 1029 32.078
28.6721 1000 31.6228
28.7894 1012 31.8119
28.9068 1037 32.2025
29.0242 1015 31.8591
29.1416 1037 32.2025
29.259 1006 31.7175
29.3764 1010 31.7805
29.4939 1092 33.0454
29.6113 1040 32.249
29.7288 1068 32.6803
29.8463 1086 32.9545
29.9638 1123 33.5112
30.0812 1057 32.5115
30.1987 1041 32.2645
30.3162 1044 32.311
30.4337 1114 33.3766
30.5512 1095 33.0908
30.6687 1144 33.8231
30.7862 1174 34.2637
30.9037 1140 33.7639
31.0212 1188 34.4674
31.1387 1207 34.7419
31.2562 1072 32.7414
31.3737 1148 33.8821
31.4912 1117 33.4215
31.6087 1148 33.8821
31.7262 1105 33.2415
31.8436 1059 32.5423
31.9611 1019 31.9218
32.0785 1007 31.7333
32.1959 1004 31.686
32.3134 1020 31.9374
32.4308 1012 31.8119
32.5482 898 29.9666
32.6655 986 31.4006
32.7829 986 31.4006
32.9002 985 31.3847
33.0176 1033 32.1403
33.1349 1047 32.3574
33.2522 1107 33.2716
33.3694 1094 33.0757
33.4867 1117 33.4215
33.6039 1123 33.5112
33.7211 1065 32.6343
33.8383 1033 32.1403
33.9554 1030 32.0936
34.0725 1095 33.0908
34.1896 1038 32.218
34.3067 1152 33.9411
34.4237 1122 33.4963
34.5407 1120 33.4664
34.6577 1091 33.0303
34.7746 1136 33.7046
34.8915 1125 33.541
35.0084 1116 33.4066
35.1252 1115 33.3916
35.242 1124 33.5261
35.3587 1117 33.4215
35.4755 1081 32.8786
35.5921 1097 33.121
35.7088 941 30.6757
35.8254 971 31.1609
35.9419 959 30.9677
36.0584 928 30.4631
36.1749 899 29.9833
36.2913 887 29.7825
36.4077 906 30.0998
36.524 929 30.4795
36.6403 1013 31.8277
36.7565 987 31.4166
36.8727 980 31.305
36.9889 1010 31.7805
37.1049 1009 31.7648
37.221 0 1
37.3369 0 1
37.4529 0 1
37.5687 0 1
37.6845 0 1
37.8003 0 1
37.916 0 1
38.0316 0 1
38.1472 0 1
40.5851 0 1
40.7008 0 1
40.8164 0 1
40.9322 0 1
41.048 0 1
41.1639 0 1
41.2798 0 1
41.3958 0 1
41.5118 0 1
41.6279 0 1
41.744 722 26.8701
41.8602 762 27.6043
41.9765 789 28.0891
42.0928 789 28.0891
42.2091 888 29.7993
42.3255 882 29.6985
42.4419 821 28.6531
42.5584 832 28.8444
42.675 774 27.8209
42.7915 814 28.5307
42.9081 775 27.8388
43.0248 876 29.5973
43.1415 783 27.9821
43.2582 839 28.9655
43.375 837 28.931
43.4918 827 28.7576
43.6087 793 28.1603
43.7256 830 28.8097
43.8425 783 27.9821
43.9595 765 27.6586
44.0765 763 27.6225
44.1935 792 28.1425
44.3106 728 26.9815
44.4277 744 27.2764
44.5448 683 26.1343
44.6619 623 24.96
44.7791 594 24.3721
44.8963 556 23.5797
45.0136 574 23.9583
45.1308 529 23
45.2481 525 22.9129
45.3654 559 23.6432
45.4827 589 24.2693
45.6001 575 23.9792
45.7174 629 25.0799
45.8348 626 25.02
45.9522 623 24.96
46.0697 575 23.9792
46.1871 535 23.1301
46.3046 589 24.2693
46.422 553 23.516
46.5395 539 23.2164
46.657 547 23.388
46.7745 526 22.9347
46.892 567 23.8118
47.0096 568 23.8328
47.1271 602 24.5357
47.2446 616 24.8193
47.3622 564 23.7487
47.4797 569 23.8537
47.5973 594 24.3721
47.7149 562 23.7065
47.8324 470 21.6795
47.95 478 21.8632
48.0675 453 21.2838
48.1851 436 20.8806
48.3027 409 20.2237
48.4202 427 20.664
48.5378 400 20
48.6554 383 19.5704
48.7729 380 19.4936
48.8904 459 21.4243
49.008 433 20.8087
49.1255 456 21.3542
49.243 431 20.7605
49.3605 461 21.4709
49.478 465 21.5639
49.5955 479 21.8861
49.713 461 21.4709
49.8304 470 21.6795
49.9479 468 21.6333
50.0653 495 22.2486
50.1827 502 22.4054
50.3001 534 23.1084
50.4175 527 22.9565
50.5348 536 23.1517
50.6521 589 24.2693
50.7694 613 24.7588
50.8867 607 24.6374
51.004 611 24.7184
51.1212 624 24.98
51.2384 604 24.5764
51.3556 627 25.04
51.4727 578 24.0416
51.5899 590 24.2899
51.707 579 24.0624
51.824 559 23.6432
51.9411 537 23.1733
52.0581 557 23.6008
52.175 586 24.2074
52.2919 602 24.5357
52.4088 645 25.3969
52.5257 698 26.4197
52.6425 625 25
52.7593 721 26.8514
52.876 722 26.8701
52.9927 790 28.1069
53.1094 750 27.3861
53.226 780 27.9285
53.3426 793 28.1603
53.4591 765 27.6586
53.5756 802 28.3196
53.692 818 28.6007
53.8084 831 28.8271
53.9248 840 28.9828
54.0411 973 31.1929
54.1573 937 30.6105
54.2735 0 1
54.3896 0 1
54.5057 0 1
54.6217 0 1
54.7377 0 1
54.8537 0 1
54.9695 0 1
55.0853 0 1
55.2011 0 1
55.3168 0 1
55.4324 0 1
57.824 0 1
57.9396 0 1
58.0553 0 1
58.1711 0 1
58.2869 0 1
58.4028 0 1
58.5187 0 1
58.6347 0 1
58.7508 0 1
58.8669 0 1
58.983 943 30.7083
59.0992 1030 32.0936
59.2155 1074 32.7719
59.3318 1114 33.3766
59.4482 1099 33.1512
59.5646 1133 33.6601
59.681 1121 33.4813
59.7975 1123 33.5112
59.9141 1028 32.0624
60.0306 1030 32.0936
60.1473 944 30.7246
60.2639 888 29.7993
60.3807 793 28.1603
60.4974 803 28.3373
60.6142 801 28.3019
60.731 721 26.8514
60.8479 738 27.1662
60.9648 754 27.4591
61.0818 853 29.2062
61.1987 880 29.6648
61.3158 891 29.8496
61.4328 865 29.4109
61.5499 847 29.1033
61.667 875 29.5804
61.7841 921 30.348
61.9013 897 29.95
62.0185 871 29.5127
62.1357 879 29.6479
62.253 871 29.5127
62.3702 916 30.2655
62.4875 990 31.4643
62.6049 1030 32.0936
62.7222 1004 31.686
62.8396 1076 32.8024
62.9569 1087 32.9697
63.0743 1088 32.9848
63.1918 1053 32.45
63.3092 1075 32.7872
63.4267 1037 32.2025
63.5441 958 30.9516
63.6616 917 30.282
63.7791 922 30.3645
63.8966 875 29.5804
64.0142 735 27.1109
64.1317 741 27.2213
64.2492 720 26.8328
64.3668 733 27.074
64.4843 795 28.1957
64.6019 874 29.5635
64.7195 864 29.3939
64.837 952 30.8545
64.9546 925 30.4138
65.0722 911 30.1828
65.1898 932 30.5287
65.3074 959 30.9677
65.4249 875 29.5804
65.5425 940 30.6594
65.6601 884 29.7321
65.7777 889 29.8161
65.8952 899 29.9833
66.0128 965 31.0644
66.1304 975 31.225
66.2479 1021 31.9531
66.3655 1029 32.078
66.483 1067 32.665
66.6005 1076 32.8024
66.718 1092 33.0454
66.8355 1056 32.4962
66.953 1025 32.0156
67.0705 985 31.3847
67.1879 917 30.282
67.3054 854 29.2233
67.4228 796 28.2135
67.5402 693 26.3249
67.6576 705 26.5518
67.7749 719 26.8142
67.8923 691 26.2869
68.0096 699 26.4386
68.1269 733 27.074
68.2442 845 29.0689
68.3614 862 29.3598
68.4787 869 29.4788
68.5958 848 29.1204
68.713 811 28.4781
68.8302 819 28.6182
68.9473 886 29.7658
69.0643 791 28.1247
69.1814 831 28.8271
69.2984 831 28.8271
69.4154 837 28.931
69.5323 863 29.3769
69.6492 959 30.9677
69.7661 981 31.3209
69.8829 1016 31.8748
69.9997 1060 32.5576
70.1165 1033 32.1403
70.2332 1081 32.8786
70.3499 995 31.5436
70.4665 1067 32.665
70.5831 975 31.225
70.6996 994 31.5278
70.8161 920 30.3315
70.9326 828 28.775
71.049 786 28.0357
71.1653 739 27.1846
71.2817 666 25.807
71.3979 623 24.96
71.5141 609 24.6779
71.6303 633 25.1595
71.7464 643 25.3574
71.8624 0 1
71.9784 0 1
72.0944 0 1
72.2102 0 1
72.3261 0 1
72.4418 0 1
72.5575 0 1
72.6732 0 1
75.1054 0 1
75.2209 0 1
75.3365 0 1
75.4521 0 1
75.5678 0 1
75.6835 0 1
75.7993 0 1
75.9151 0 1
76.031 0 1
76.147 890 29.8329
76.263 854 29.2233
76.3791 871 29.5127
76.4952 763 27.6225
76.6113 699 26.4386
76.7276 725 26.9258
76.8438 662 25.7294
76.9601 710 26.6458
77.0765 740 27.2029
77.1929 801 28.3019
77.3093 875 29.5804
77.4258 889 29.8161
77.5423 923 30.3809
77.6589 899 29.9833
77.7755 959 30.9677
77.8921 933 30.545
78.0088 806 28.3901
78.1256 913 30.2159
78.2423 837 28.931
78.3591 820 28.6356
78.4759 843 29.0345
78.5928 870 29.4958
78.7097 941 30.6757
78.8266 952 30.8545
78.9436 1043 32.2955
79.0606 1011 31.7962
79.1776 1075 32.7872
79.2946 1023 31.9844
79.4117 1124 33.5261
79.5288 1080 32.8634
79.6459 1049 32.3883
79.7631 953 30.8707
79.8802 857 29.2746
79.9974 815 28.5482
80.1147 698 26.4197
80.2319 615 24.7992
80.3491 595 24.3926
80.4664 631 25.1197
80.5837 667 25.8263
80.701 690 26.2679
80.8183 730 27.0185
80.9357 789 28.0891
81.053 832 28.8444
81.1704 813 28.5132
81.2877 840 28.9828
81.4051 743 27.258
81.5225 781 27.9464
81.6399 771 27.7669
81.7573 709 26.6271
81.8747 716 26.7582
81.9922 706 26.5707
82.1096 753 27.4408
82.227 778 27.8927
82.3444 883 29.7153
82.4619 857 29.2746
82.5793 883 29.7153
82.6967 877 29.6142
82.8142 955 30.9031
82.9316 912 30.1993
83.049 877 29.6142
83.1664 847 29.1033
83.2838 849 29.1376
83.4012 768 27.7128
83.5186 686 26.1916
83.636 618 24.8596
83.7534 609 24.6779
83.8708 524 22.891
83.9881 510 22.5832
84.1055 513 22.6495
84.2228 525 22.9129
84.3401 591 24.3105
84.4575 627 25.04
84.5747 749 27.3679
84.692 748 27.3496
84.8093 701 26.4764
84.9265 742 27.2397
85.0437 734 27.0924
85.1609 686 26.1916
85.2781 707 26.5895
85.3952 659 25.671
85.5123 686 26.1916
85.6294 727 26.9629
85.7465 765 27.6586
85.8636 791 28.1247
85.9806 830 28.8097
86.0976 836 28.9137
86.2145 867 29.4449
86.3315 959 30.9677
86.4484 912 30.1993
86.5652 977 31.257
86.682 1051 32.4191
86.7988 981 31.3209
86.9156 924 30.3974
87.0323 867 29.4449
87.149 832 28.8444
87.2657 808 28.4253
87.3823 632 25.1396
87.4988 634 25.1794
87.6154 617 24.8395
87.7318 686 26.1916
87.8483 694 26.3439
87.9647 760 27.5681
88.081 869 29.4788
88.1973 909 30.1496
88.3136 952 30.8545
88.4298 896 29.9333
88.546 878 29.6311
88.6621 873 29.5466
88.7781 832 28.8444
88.8942 0 1
89.0101 0 1
89.126 0 1
89.2419 0 1
89.3577 0 1
89.4734 0 1
89.5891 0 1
89.7047 0 1
89.8203 0 1
89.9358 0 1
92.3269 0 1
92.4424 0 1
92.558 0 1
92.6736 0 1
92.7893 0 1
92.905 0 1
93.0208 0 1
93.1366 0 1
93.2525 0 1
93.3685 0 1
93.4845 0 1
93.6005 918 30.2985
93.7167 878 29.6311
93.8328 965 31.0644
93.949 856 29.2575
94.0653 846 29.0861
94.1816 858 29.2916
94.2979 814 28.5307
94.4143 799 28.2666
94.5307 785 28.0179
94.6472 917 30.282
94.7637 842 29.0172
94.8803 933 30.545
94.9969 1014 31.8434
95.1135 993 31.5119
95.2302 1095 33.0908
95.3469 1107 33.2716
95.4637 1083 32.909
95.5805 1103 33.2114
95.6973 1122 33.4963
95.8142 1092 33.0454
95.9311 1070 32.7109
96.048 996 31.5595
96.1649 959 30.9677
96.2819 942 30.692
96.3989 831 28.8271
96.516 722 26.8701
96.633 703 26.5141
96.7501 670 25.8844
96.8673 732 27.0555
96.9844 698 26.4197
97.1016 759 27.55
97.2188 924 30.3974
97.336 873 29.5466
97.4532 979 31.289
97.5704 968 31.1127
97.6877 936 30.5941
97.805 761 27.5862
97.9223 814 28.5307
98.0396 771 27.7669
98.1569 792 28.1425
98.2743 746 27.313
98.3916 868 29.4618
98.509 919 30.315
98.6264 922 30.3645
98.7438 963 31.0322
98.8612 1140 33.7639
98.9786 1057 32.5115
99.096 1114 33.3766
99.2134 1097 33.121
99.3308 1125 33.541
99.4482 1088 32.9848
99.5656 1005 31.7017
99.6831 951 30.8383
99.8005 951 30.8383
99.9179 902 30.0333
100.035 826 28.7402
100.153 847 29.1033
100.27 749 27.3679
100.388 692 26.3059
100.505 732 27.0555
100.622 813 28.5132
100.74 879 29.6479
100.857 918 30.2985
100.975 945 30.7409
101.092 913 30.2159
101.209 876 29.5973
101.327 836 28.9137
101.444 860 29.3258
101.561 825 28.7228
101.679 850 29.1548
101.796 847 29.1033
101.913 935 30.5778
102.03 968 31.1127
102.148 1019 31.9218
102.265 1093 33.0606
102.382 1132 33.6452
102.499 1137 33.7194
102.616 1171 34.2199
102.733 1165 34.1321
102.851 1137 33.7194
102.968 1164 34.1174
103.085 1168 34.176
103.202 1067 32.665
103.319 1009 31.7648
103.436 996 31.5595
103.552 921 30.348
103.669 799 28.2666
103.786 718 26.7955
103.903 753 27.4408
104.02 763 27.6225
104.137 890 29.8329
104.253 943 30.7083
104.37 1042 32.28
104.487 1032 32.1248
104.603 1016 31.8748
104.72 1034 32.1559
104.836 981 31.3209
104.953 843 29.0345
105.069 969 31.1288
105.186 936 30.5941
105.302 952 30.8545
105.418 935 30.5778
105.535 1087 32.9697
105.651 1058 32.5269
105.767 1278 35.7491
105.883 1331 36.4829
105.999 1243 35.2562
106.115 0 1
106.231 0 1
106.347 0 1
106.463 0 1
106.579 0 1
106.694 0 1
106.81 0 1
106.926 0 1
107.041 0 1
107.157 0 1
109.576 0 1
109.692 0 1
109.807 0 1
109.923 0 1
110.039 0 1
110.155 0 1
110.27 0 1
110.386 0 1
110.502 0 1
110.618 1007 31.7333
110.735 1199 34.6266
110.851 1180 34.3511
110.967 1197 34.5977
111.083 1197 34.5977
111.199 1210 34.7851
111.316 1266 35.5809
111.432 1286 35.8608
111.549 1271 35.6511
111.665 1216 34.8712
111.782 1132 33.6452
111.898 1048 32.3728
112.015 997 31.5753
112.132 914 30.2324
112.248 759 27.55
112.365 790 28.1069
112.482 770 27.7489
112.599 846 29.0861
112.716 901 30.0167
112.832 955 30.9031
112.949 952 30.8545
113.066 973 31.1929
113.183 966 31.0805
113.3 935 30.5778
113.417 877 29.6142
113.534 816 28.5657
113.652 878 29.6311
113.769 870 29.4958
113.886 892 29.8664
114.003 882 29.6985
114.12 1016 31.8748
114.238 1104 33.2265
114.355 1159 34.0441
114.472 1126 33.5559
114.589 1148 33.8821
114.707 1126 33.5559
114.824 1180 34.3511
114.942 1276 35.7211
115.059 1179 34.3366
115.176 1162 34.0881
115.294 1188 34.4674
115.411 1100 33.1662
115.529 1053 32.45
115.646 959 30.9677
115.764 932 30.5287
115.881 782 27.9643
115.999 847 29.1033
116.116 894 29.8998
116.234 890 29.8329
116.351 974 31.209
116.469 927 30.4467
116.586 1067 32.665
116.704 991 31.4802
116.821 1023 31.9844
116.939 898 29.9666
117.056 830 28.8097
117.174 878 29.6311
117.291 934 30.5614
117.409 925 30.4138
117.526 978 31.273
117.644 1014 31.8434
117.761 1130 33.6155
117.879 1261 35.5106
117.996 1202 34.6699
118.114 1165 34.1321
118.231 1215 34.8569
118.349 1290 35.9166
118.466 1290 35.9166
118.584 1194 34.5543
118.701 1253 35.3977
118.819 1199 34.6266
118.936 1174 34.2637
119.053 1124 33.5261
119.171 1088 32.9848
119.288 1067 32.665
119.405 921 30.348
119.523 854 29.2233
119.64 881 29.6816
119.757 887 29.7825
119.875 949 30.8058
119.992 925 30.4138
120.109 1024 32
120.226 961 31
120.343 1002 31.6544
120.46 997 31.5753
120.578 938 30.6268
120.695 904 30.0666
120.812 945 30.7409
120.929 931 30.5123
121.046 904 30.0666
121.163 1016 31.8748
121.279 1041 32.2645
121.396 1077 32.8177
121.513 1155 33.9853
121.63 1267 35.5949
121.747 1255 35.426
121.863 1265 35.5668
121.98 1244 35.2704
122.097 1277 35.7351
122.213 1274 35.6931
122.33 1261 35.5106
122.446 1182 34.3802
122.563 1141 33.7787
122.679 1093 33.0606
122.795 1043 32.2955
122.912 1059 32.5423
123.028 942 30.692
123.144 888 29.7993
123.26 855 29.2404
123.377 0 1
123.493 0 1
123.609 0 1
123.725 0 1
123.84 0 1
123.956 0 1
124.072 0 1
124.188 0 1
124.303 0 1
124.419 0 1
126.852 0 1
126.968 0 1
127.083 0 1
127.199 0 1
127.315 0 1
127.431 0 1
127.547 0 1
127.663 0 1
127.779 0 1
127.895 0 1
128.011 0 1
128.127 0 1
128.243 0 1
128.359 1087 32.9697
128.476 951 30.8383
128.592 974 31.209
128.708 1010 31.7805
128.825 1037 32.2025
128.941 1120 33.4664
129.058 1056 32.4962
129.174 1147 33.8674
129.291 1129 33.6006
129.408 1119 33.4515
129.524 1070 32.7109
129.641 995 31.5436
129.758 1024 32
129.875 1081 32.8786
129.992 1022 31.9687
130.108 1028 32.0624
130.225 1137 33.7194
130.342 1198 34.6121
130.459 1247 35.3129
130.576 1368 36.9865
130.693 1294 35.9722
130.81 1326 36.4143
130.928 1294 35.9722
131.045 1320 36.3318
131.162 1305 36.1248
131.279 1328 36.4417
131.396 1232 35.0999
131.513 1237 35.171
131.631 1198 34.6121
131.748 1172 34.2345
131.865 1134 33.6749
131.983 1043 32.2955
132.1 1056 32.4962
132.217 1041 32.2645
132.335 1117 33.4215
132.452 1133 33.6601
132.57 1107 33.2716
132.687 1069 32.6956
132.804 1103 33.2114
132.922 1100 33.1662
133.039 1107 33.2716
133.157 1074 32.7719
133.274 997 31.5753
133.392 1031 32.1092
133.509 1096 33.1059
133.627 1079 32.8481
133.744 1120 33.4664
133.862 1171 34.2199
133.979 1226 35.0143
134.097 1280 35.7771
134.214 1242 35.242
134.332 1257 35.4542
134.449 1266 35.5809
134.567 1233 35.1141
134.684 1242 35.242
134.802 1295 35.9861
134.919 1228 35.0428
135.037 1235 35.1426
135.154 1163 34.1028
135.272 1197 34.5977
135.389 1125 33.541
135.507 1057 32.5115
135.624 981 31.3209
135.742 1059 32.5423
135.859 1080 32.8634
135.977 1130 33.6155
136.094 1135 33.6898
136.211 1087 32.9697
136.329 1113 33.3617
136.446 1089 33
136.564 1021 31.9531
136.681 1049 32.3883
136.798 1048 32.3728
136.915 1024 32
137.033 1052 32.4345
137.15 1054 32.4654
137.267 1057 32.5115
137.384 1019 31.9218
137.502 1117 33.4215
137.619 1229 35.0571
137.736 1220 34.9285
137.853 1195 34.5688
137.97 1303 36.0971
138.087 1176 34.2929
138.204 1301 36.0694
138.321 1280 35.7771
138.438 1262 35.5246
138.555 1276 35.7211
138.672 1173 34.2491
138.788 1224 34.9857
138.905 1223 34.9714
139.022 1138 33.7343
139.139 1076 32.8024
139.255 1035 32.1714
139.372 1074 32.7719
139.488 1110 33.3167
139.605 1122 33.4963
139.721 1030 32.0936
139.838 1175 34.2783
139.954 1129 33.6006
140.071 1064 32.619
140.187 1108 33.2866
140.303 1059 32.5423
140.419 1056 32.4962
140.535 1031 32.1092
140.652 1028 32.0624
140.768 0 1
140.884 0 1
141 0 1
141.115 0 1
141.231 0 1
141.347 0 1
141.463 0 1
141.578 0 1
141.694 0 1
144.104 0 1
144.219 0 1
144.335 0 1
144.45 0 1
144.566 0 1
144.682 0 1
144.798 0 1
144.914 0 1
145.03 0 1
145.146 844 29.0517
145.262 853 29.2062
145.378 837 28.931
145.494 852 29.189
145.61 842 29.0172
145.726 857 29.2746
145.842 790 28.1069
145.959 846 29.0861
146.075 842 29.0172
146.192 835 28.8964
146.308 877 29.6142
146.425 891 29.8496
146.541 962 31.0161
146.658 953 30.8707
146.774 947 30.7734
146.891 927 30.4467
147.008 1005 31.7017
147.125 958 30.9516
147.241 1029 32.078
147.358 1069 32.6956
147.475 1040 32.249
147.592 1034 32.1559
147.709 984 31.3688
147.826 970 31.1448
147.943 901 30.0167
148.06 885 29.7489
148.177 849 29.1376
148.294 849 29.1376
148.411 940 30.6594
148.528 971 31.1609
148.645 909 30.1496
148.762 963 31.0322
148.88 932 30.5287
148.997 927 30.4467
149.114 908 30.133
149.231 885 29.7489
149.349 795 28.1957
149.466 863 29.3769
149.583 850 29.1548
149.701 844 29.0517
149.818 898 29.9666
149.935 863 29.3769
150.053 904 30.0666
150.17 884 29.7321
150.287 938 30.6268
150.405 937 30.6105
150.522 970 31.1448
150.64 1024 32
150.757 1067 32.665
150.875 937 30.6105
150.992 1010 31.7805
151.11 1029 32.078
151.227 1005 31.7017
151.344 1054 32.4654
151.462 991 31.4802
151.579 982 31.3369
151.697 914 30.2324
151.814 877 29.6142
151.932 816 28.5657
152.049 976 31.241
152.167 989 31.4484
152.284 966 31.0805
152.402 1004 31.686
152.519 1023 31.9844
152.636 895 29.9166
152.754 980 31.305
152.871 928 30.4631
152.989 947 30.7734
153.106 914 30.2324
153.223 953 30.8707
153.341 951 30.8383
153.458 936 30.5941
153.575 965 31.0644
153.693 940 30.6594
153.81 991 31.4802
153.927 1017 31.8904
154.044 1014 31.8434
154.162 1100 33.1662
154.279 1087 32.9697
154.396 1101 33.1813
154.513 1125 33.541
154.63 1165 34.1321
154.747 1234 35.1283
154.864 1126 33.5559
154.981 1182 34.3802
155.098 1162 34.0881
155.215 1107 33.2716
155.332 1066 32.6497
155.449 1058 32.5269
155.566 1036 32.187
155.683 1131 33.6303
155.8 1144 33.8231
155.917 1101 33.1813
156.033 1043 32.2955
156.15 0 1
156.267 0 1
156.383 0 1
156.5 0 1
156.617 0 1
156.733 0 1
156.85 0 1
156.966 0 1
157.082 0 1
157.199 0 1
157.315 0 1
157.431 0 1
157.547 0 1
157.664 0 1
157.78 0 1
157.896 0 1
158.012 0 1
158.128 0 1
158.244 0 1
158.359 0 1
158.475 0 1
158.591 0 1
158.706 0 1
