
6.15755 0 1
6.2731 0 1
6.3887 0 1
6.50437 0 1
6.62009 0 1
6.73587 0 1
6.8517 0 1
6.96759 0 1
7.08353 0 1
7.19952 0 1
7.31557 0 1
7.43166 0 1
7.54781 0 1
7.664 0 1
7.78024 0 1
7.89653 0 1
8.01286 0 1
8.12924 0 1
8.24567 0 1
8.36213 0 1
8.47864 0 1
8.59519 0 1
8.71178 0 1
8.82841 0 1
8.94508 0 1
9.06179 0 1
9.17853 0 1
9.29531 0 1
9.41212 0 1
9.52897 0 1
9.64584 0 1
9.76276 0 1
9.8797 0 1
9.99667 0 1
10.1137 0 1
10.2307 0 1
10.3478 0 1
10.4648 0 1
10.5819 0 1
10.6991 0 1
10.8162 0 1
10.9334 0 1
11.0506 0 1
11.1678 0 1
11.285 0 1
11.4023 0 1
11.5196 0 1
11.6369 0 1
11.7542 0 1
11.8715 0 1
11.9888 0 1
12.1062 0 1
12.2235 0 1
12.3409 0 1
12.4582 0 1
12.5756 0 1
12.693 0 1
12.8104 0 1
12.9278 0 1
13.0452 0 1
13.1626 0 1
13.28 0 1
13.3974 0 1
13.5149 0 1
13.6323 0 1
13.7497 0 1
13.8671 0 1
13.9845 0 1
14.1019 0 1
14.2193 0 1
14.3367 0 1
14.4541 0 1
14.5714 0 1
14.6888 0 1
14.8062 0 1
14.9235 0 1
15.0408 0 0
15.1581 0 0
15.2755 0 0
15.3927 0 0
15.51 0 0
15.6273 0 0
15.7445 0 0
15.8617 0 0
15.9789 0 0
16.0961 0 0
16.2132 0 0
16.3304 0 0
16.4475 0 0
16.5646 0 0
16.6816 0 0
16.7986 0 0
16.9156 0 0
17.0326 0 0
17.1496 0 0
17.2665 0 0
17.3833 0 0
17.5002 0 0
17.617 0 0
17.7338 0 0
17.8505 0 0
17.9672 0 0
18.0839 0 0
18.2005 0 0
18.3171 0 0
18.4337 0 0
18.5502 0 0
18.6666 0 0
18.7831 0 0
18.8994 0 0
19.0158 0 0
19.1321 0 0
19.2483 0 0
19.3645 0 0
19.4806 0 0
19.5967 0 0
19.7128 0 0
19.8288 0 0
19.9447 0 0
20.0606 0 1
20.1764 0 1
20.2922 0 1
20.4079 0 1
20.5236 0 1
20.6392 0 1
20.7548 0 1
20.8702 0 1
23.3078 0 1
23.4233 0 1
23.539 0 1
23.6547 0 1
23.7704 0 1
23.8862 0 1
24.0021 0 1
24.118 0 1
24.234 0 1
24.35 0 1
24.4661 1412 37.5766
24.5822 1462 38.2361
24.6984 1445 38.0132
24.8146 1484 38.5227
24.9309 1447 38.0395
25.0472 1511 38.8716
25.1636 1443 37.9868
25.28 1461 38.223
25.3965 1465 38.2753
25.513 1499 38.7169
25.6296 1484 38.5227
25.7462 1528 39.0896
25.8628 1485 38.5357
25.9795 1582 39.7744
26.0962 1439 37.9342
26.213 1616 40.1995
26.3298 1508 38.833
26.4466 1468 38.3145
26.5635 1439 37.9342
26.6804 1376 37.0945
26.7973 1363 36.9188
26.9143 1322 36.3593
27.0313 1401 37.4299
27.1483 1414 37.6032
27.2653 1464 38.2623
27.3824 1548 39.3446
27.4996 1542 39.2683
27.6167 1529 39.1024
27.7339 1446 38.0263
27.8511 1475 38.4057
27.9683 1465 38.2753
28.0855 1506 38.8072
28.2028 1499 38.7169
28.3201 1379 37.1349
28.4374 1465 38.2753
28.5547 1349 36.7287
28.6721 1386 37.229
28.7894 1387 37.2424
28.9068 1441 37.9605
29.0242 1364 36.9324
29.1416 1413 37.5899
29.259 1359 36.8646
29.3764 1384 37.2022
29.4939 1454 38.1314
29.6113 1408 37.5233
29.7288 1393 37.3229
29.8463 1363 36.9188
29.9638 1363 36.9188
30.0812 1312 36.2215
30.1987 1177 34.3074
30.3162 1203 34.6843
30.4337 1282 35.805
30.5512 1313 36.2353
30.6687 1347 36.7015
30.7862 1398 37.3898
30.9037 1469 38.3275
31.0212 1506 38.8072
31.1387 1502 38.7556
31.2562 1456 38.1576
31.3737 1431 37.8286
31.4912 1434 37.8682
31.6087 1420 37.6829
31.7262 1445 38.0132
31.8436 1453 38.1182
31.9611 1440 37.9473
32.0785 1320 36.3318
32.1959 1335 36.5377
32.3134 1395 37.3497
32.4308 1334 36.524
32.5482 1321 36.3456
32.6655 1396 37.3631
32.7829 1367 36.973
32.9002 1359 36.8646
33.0176 1358 36.8511
33.1349 1410 37.55
33.2522 1377 37.108
33.3694 1367 36.973
33.4867 1373 37.054
33.6039 1392 37.3095
33.7211 1279 35.7631
33.8383 1204 34.6987
33.9554 1149 33.8969
34.0725 1201 34.6554
34.1896 1276 35.7211
34.3067 1284 35.8329
34.4237 1358 36.8511
34.5407 1418 37.6563
34.6577 1407 37.51
34.7746 1413 37.5899
34.8915 1376 37.0945
35.0084 1418 37.6563
35.1252 1334 36.524
35.242 1427 37.7757
35.3587 1462 38.2361
35.4755 1359 36.8646
35.5921 1354 36.7967
35.7088 1239 35.1994
35.8254 1297 36.0139
35.9419 1345 36.6742
36.0584 1299 36.0416
36.1749 1253 35.3977
36.2913 1299 36.0416
36.4077 1310 36.1939
36.524 1297 36.0139
36.6403 1320 36.3318
36.7565 1346 36.6879
36.8727 1419 37.6696
36.9889 1329 36.4555
37.1049 1333 36.5103
37.221 0 1
37.3369 0 1
37.4529 0 1
37.5687 0 1
37.6845 0 1
37.8003 0 1
37.916 0 1
38.0316 0 1
38.1472 0 1
40.5851 0 1
40.7008 0 1
40.8164 0 1
40.9322 0 1
41.048 0 1
41.1639 0 1
41.2798 0 1
41.3958 0 1
41.5118 0 1
41.6279 0 1
41.744 994 31.5278
41.8602 1036 32.187
41.9765 1033 32.1403
42.0928 1093 33.0606
42.2091 1071 32.7261
42.3255 1074 32.7719
42.4419 981 31.3209
42.5584 943 30.7083
42.675 874 29.5635
42.7915 817 28.5832
42.9081 892 29.8664
43.0248 948 30.7896
43.1415 998 31.5911
43.2582 987 31.4166
43.375 1019 31.9218
43.4918 1029 32.078
43.6087 1067 32.665
43.7256 1030 32.0936
43.8425 1041 32.2645
43.9595 963 31.0322
44.0765 1002 31.6544
44.1935 982 31.3369
44.3106 982 31.3369
44.4277 955 30.9031
44.5448 919 30.315
44.6619 858 29.2916
44.7791 808 28.4253
44.8963 800 28.2843
45.0136 829 28.7924
45.1308 806 28.3901
45.2481 745 27.2947
45.3654 785 28.0179
45.4827 777 27.8747
45.6001 813 28.5132
45.7174 798 28.2489
45.8348 802 28.3196
45.9522 740 27.2029
46.0697 685 26.1725
46.1871 602 24.5357
46.3046 620 24.8998
46.422 577 24.0208
46.5395 631 25.1197
46.657 609 24.6779
46.7745 740 27.2029
46.892 733 27.074
47.0096 743 27.258
47.1271 752 27.4226
47.2446 715 26.7395
47.3622 754 27.4591
47.4797 761 27.5862
47.5973 683 26.1343
47.7149 656 25.6125
47.8324 695 26.3629
47.95 651 25.5147
48.0675 585 24.1868
48.1851 608 24.6577
48.3027 565 23.7697
48.4202 613 24.7588
48.5378 534 23.1084
48.6554 624 24.98
48.7729 591 24.3105
48.8904 607 24.6374
49.008 610 24.6982
49.1255 592 24.3311
49.243 599 24.4745
49.3605 583 24.1454
49.478 576 24
49.5955 495 22.2486
49.713 477 21.8403
49.8304 481 21.9317
49.9479 457 21.3776
50.0653 497 22.2935
50.1827 595 24.3926
50.3001 710 26.6458
50.4175 665 25.7876
50.5348 699 26.4386
50.6521 685 26.1725
50.7694 732 27.0555
50.8867 743 27.258
51.004 758 27.5318
51.1212 737 27.1477
51.2384 812 28.4956
51.3556 816 28.5657
51.4727 817 28.5832
51.5899 827 28.7576
51.707 788 28.0713
51.824 774 27.8209
51.9411 782 27.9643
52.0581 825 28.7228
52.175 876 29.5973
52.2919 865 29.4109
52.4088 908 30.133
52.5257 866 29.4279
52.6425 914 30.2324
52.7593 966 31.0805
52.876 970 31.1448
52.9927 987 31.4166
53.1094 932 30.5287
53.226 864 29.3939
53.3426 814 28.5307
53.4591 734 27.0924
53.5756 791 28.1247
53.692 916 30.2655
53.8084 1026 32.0312
53.9248 1093 33.0606
54.0411 1158 34.0294
54.1573 1180 34.3511
54.2735 0 1
54.3896 0 1
54.5057 0 1
54.6217 0 1
54.7377 0 1
54.8537 0 1
54.9695 0 1
55.0853 0 1
55.2011 0 1
55.3168 0 1
55.4324 0 1
57.824 0 1
57.9396 0 1
58.0553 0 1
58.1711 0 1
58.2869 0 1
58.4028 0 1
58.5187 0 1
58.6347 0 1
58.7508 0 1
58.8669 0 1
58.983 1175 34.2783
59.0992 1206 34.7275
59.2155 1376 37.0945
59.3318 1273 35.6791
59.4482 1374 37.0675
59.5646 1363 36.9188
59.681 1320 36.3318
59.7975 1351 36.756
59.9141 1358 36.8511
60.0306 1306 36.1386
60.1473 1242 35.242
60.2639 1183 34.3948
60.3807 1219 34.9142
60.4974 1150 33.9116
60.6142 1066 32.6497
60.731 1131 33.6303
60.8479 1126 33.5559
60.9648 1113 33.3617
61.0818 1084 32.9242
61.1987 1128 33.5857
61.3158 1172 34.2345
61.4328 1125 33.541
61.5499 1160 34.0588
61.667 1009 31.7648
61.7841 956 30.9192
61.9013 882 29.6985
62.0185 870 29.4958
62.1357 904 30.0666
62.253 1078 32.8329
62.3702 1118 33.4365
62.4875 1171 34.2199
62.6049 1312 36.2215
62.7222 1281 35.7911
62.8396 1306 36.1386
62.9569 1328 36.4417
63.0743 1363 36.9188
63.1918 1358 36.8511
63.3092 1347 36.7015
63.4267 1352 36.7696
63.5441 1223 34.9714
63.6616 1239 35.1994
63.7791 1197 34.5977
63.8966 1121 33.4813
64.0142 1154 33.9706
64.1317 1162 34.0881
64.2492 1192 34.5254
64.3668 1168 34.176
64.4843 1154 33.9706
64.6019 1148 33.8821
64.7195 1233 35.1141
64.837 1248 35.327
64.9546 1280 35.7771
65.0722 1174 34.2637
65.1898 1161 34.0735
65.3074 990 31.4643
65.4249 899 29.9833
65.5425 858 29.2916
65.6601 889 29.8161
65.7777 1049 32.3883
65.8952 1099 33.1512
66.0128 1194 34.5543
66.1304 1302 36.0832
66.2479 1339 36.5923
66.3655 1331 36.4829
66.483 1382 37.1753
66.6005 1424 37.7359
66.718 1414 37.6032
66.8355 1307 36.1525
66.953 1367 36.973
67.0705 1281 35.7911
67.1879 1293 35.9583
67.3054 1196 34.5832
67.4228 1170 34.2053
67.5402 1190 34.4964
67.6576 1130 33.6155
67.7749 1107 33.2716
67.8923 1064 32.619
68.0096 1068 32.6803
68.1269 1122 33.4963
68.2442 1154 33.9706
68.3614 1148 33.8821
68.4787 1137 33.7194
68.5958 1150 33.9116
68.713 1066 32.6497
68.8302 1062 32.5883
68.9473 949 30.8058
69.0643 819 28.6182
69.1814 744 27.2764
69.2984 838 28.9482
69.4154 954 30.8869
69.5323 1064 32.619
69.6492 1197 34.5977
69.7661 1230 35.0714
69.8829 1247 35.3129
69.9997 1275 35.7071
70.1165 1272 35.6651
70.2332 1266 35.5809
70.3499 1312 36.2215
70.4665 1290 35.9166
70.5831 1265 35.5668
70.6996 1214 34.8425
70.8161 1242 35.242
70.9326 1105 33.2415
71.049 1123 33.5112
71.1653 1043 32.2955
71.2817 1075 32.7872
71.3979 1062 32.5883
71.5141 1030 32.0936
71.6303 982 31.3369
71.7464 939 30.6431
71.8624 0 1
71.9784 0 1
72.0944 0 1
72.2102 0 1
72.3261 0 1
72.4418 0 1
72.5575 0 1
72.6732 0 1
75.1054 0 1
75.2209 0 1
75.3365 0 1
75.4521 0 1
75.5678 0 1
75.6835 0 1
75.7993 0 1
75.9151 0 1
76.031 0 1
76.147 1059 32.5423
76.263 1190 34.4964
76.3791 1143 33.8083
76.4952 1102 33.1964
76.6113 1054 32.4654
76.7276 1094 33.0757
76.8438 991 31.4802
76.9601 1055 32.4808
77.0765 1107 33.2716
77.1929 1115 33.3916
77.3093 1180 34.3511
77.4258 1071 32.7261
77.5423 1177 34.3074
77.6589 1112 33.3467
77.7755 1038 32.218
77.8921 902 30.0333
78.0088 787 28.0535
78.1256 751 27.4044
78.2423 690 26.2679
78.3591 753 27.4408
78.4759 948 30.7896
78.5928 1105 33.2415
78.7097 1063 32.6037
78.8266 1176 34.2929
78.9436 1299 36.0416
79.0606 1253 35.3977
79.1776 1278 35.7491
79.2946 1249 35.3412
79.4117 1244 35.2704
79.5288 1235 35.1426
79.6459 1158 34.0294
79.7631 1172 34.2345
79.8802 1063 32.6037
79.9974 1016 31.8748
80.1147 1000 31.6228
80.2319 926 30.4302
80.3491 911 30.1828
80.4664 914 30.2324
80.5837 965 31.0644
80.701 994 31.5278
80.8183 988 31.4325
80.9357 986 31.4006
81.053 1037 32.2025
81.1704 966 31.0805
81.2877 1003 31.6702
81.4051 958 30.9516
81.5225 861 29.3428
81.6399 741 27.2213
81.7573 683 26.1343
81.8747 709 26.6271
81.9922 675 25.9808
82.1096 785 28.0179
82.227 961 31
82.3444 977 31.257
82.4619 1084 32.9242
82.5793 1072 32.7414
82.6967 1065 32.6343
82.8142 1061 32.573
82.9316 1119 33.4515
83.049 1055 32.4808
83.1664 1040 32.249
83.2838 987 31.4166
83.4012 948 30.7896
83.5186 936 30.5941
83.636 851 29.1719
83.7534 832 28.8444
83.8708 725 26.9258
83.9881 790 28.1069
84.1055 830 28.8097
84.2228 855 29.2404
84.3401 808 28.4253
84.4575 847 29.1033
84.5747 874 29.5635
84.692 988 31.4325
84.8093 946 30.7571
84.9265 895 29.9166
85.0437 774 27.8209
85.1609 721 26.8514
85.2781 683 26.1343
85.3952 595 24.3926
85.5123 680 26.0768
85.6294 711 26.6646
85.7465 841 29
85.8636 985 31.3847
85.9806 1060 32.5576
86.0976 1130 33.6155
86.2145 1114 33.3766
86.3315 1218 34.8999
86.4484 1161 34.0735
86.5652 1214 34.8425
86.682 1245 35.2846
86.7988 1181 34.3657
86.9156 1136 33.7046
87.0323 1075 32.7872
87.149 1004 31.686
87.2657 1041 32.2645
87.3823 1012 31.8119
87.4988 959 30.9677
87.6154 955 30.9031
87.7318 979 31.289
87.8483 1038 32.218
87.9647 1056 32.4962
88.081 1160 34.0588
88.1973 1136 33.7046
88.3136 1143 33.8083
88.4298 1137 33.7194
88.546 1033 32.1403
88.6621 905 30.0832
88.7781 828 28.775
88.8942 0 1
89.0101 0 1
89.126 0 1
89.2419 0 1
89.3577 0 1
89.4734 0 1
89.5891 0 1
89.7047 0 1
89.8203 0 1
89.9358 0 1
92.3269 0 1
92.4424 0 1
92.558 0 1
92.6736 0 1
92.7893 0 1
92.905 0 1
93.0208 0 1
93.1366 0 1
93.2525 0 1
93.3685 0 1
93.4845 0 1
93.6005 1141 33.7787
93.7167 1198 34.6121
93.8328 1099 33.1512
93.949 1139 33.7491
94.0653 1026 32.0312
94.1816 892 29.8664
94.2979 818 28.6007
94.4143 812 28.4956
94.5307 795 28.1957
94.6472 892 29.8664
94.7637 925 30.4138
94.8803 1060 32.5576
94.9969 1117 33.4215
95.1135 1190 34.4964
95.2302 1264 35.5528
95.3469 1295 35.9861
95.4637 1317 36.2905
95.5805 1322 36.3593
95.6973 1403 37.4566
95.8142 1303 36.0971
95.9311 1296 36
96.048 1318 36.3043
96.1649 1203 34.6843
96.2819 1162 34.0881
96.3989 1128 33.5857
96.516 1041 32.2645
96.633 1025 32.0156
96.7501 1055 32.4808
96.8673 1024 32
96.9844 1142 33.7935
97.1016 1113 33.3617
97.2188 1215 34.8569
97.336 1197 34.5977
97.4532 1267 35.5949
97.5704 1250 35.3553
97.6877 1088 32.9848
97.805 982 31.3369
97.9223 904 30.0666
98.0396 870 29.4958
98.1569 806 28.3901
98.2743 850 29.1548
98.3916 859 29.3087
98.509 1062 32.5883
98.6264 1142 33.7935
98.7438 1182 34.3802
98.8612 1249 35.3412
98.9786 1347 36.7015
99.096 1320 36.3318
99.2134 1375 37.081
99.3308 1373 37.054
99.4482 1331 36.4829
99.5656 1292 35.9444
99.6831 1274 35.6931
99.8005 1221 34.9428
99.9179 1097 33.121
100.035 1121 33.4813
100.153 1111 33.3317
100.27 1042 32.28
100.388 1059 32.5423
100.505 1120 33.4664
100.622 1174 34.2637
100.74 1185 34.4238
100.857 1253 35.3977
100.975 1215 34.8569
101.092 1219 34.9142
101.209 1190 34.4964
101.327 1116 33.4066
101.444 949 30.8058
101.561 919 30.315
101.679 797 28.2312
101.796 837 28.931
101.913 936 30.5941
102.03 1085 32.9393
102.148 1132 33.6452
102.265 1247 35.3129
102.382 1415 37.6165
102.499 1355 36.8103
102.616 1474 38.3927
102.733 1425 37.7492
102.851 1448 38.0526
102.968 1500 38.7298
103.085 1473 38.3797
103.202 1377 37.108
103.319 1284 35.8329
103.436 1315 36.2629
103.552 1186 34.4384
103.669 1157 34.0147
103.786 1124 33.5261
103.903 1146 33.8526
104.02 1153 33.9559
104.137 1225 35
104.253 1269 35.623
104.37 1303 36.0971
104.487 1342 36.6333
104.603 1326 36.4143
104.72 1275 35.7071
104.836 1178 34.322
104.953 1056 32.4962
105.069 963 31.0322
105.186 954 30.8869
105.302 965 31.0644
105.418 1062 32.5883
105.535 1197 34.5977
105.651 1313 36.2353
105.767 1483 38.5097
105.883 1475 38.4057
105.999 1553 39.4081
106.115 0 1
106.231 0 1
106.347 0 1
106.463 0 1
106.579 0 1
106.694 0 1
106.81 0 1
106.926 0 1
107.041 0 1
107.157 0 1
109.576 0 1
109.692 0 1
109.807 0 1
109.923 0 1
110.039 0 1
110.155 0 1
110.27 0 1
110.386 0 1
110.502 0 1
110.618 1140 33.7639
110.735 1353 36.7831
110.851 1471 38.3536
110.967 1411 37.5633
111.083 1437 37.9078
111.199 1490 38.6005
111.316 1483 38.5097
111.432 1550 39.37
111.549 1555 39.4335
111.665 1408 37.5233
111.782 1410 37.55
111.898 1348 36.7151
112.015 1229 35.0571
112.132 1230 35.0714
112.248 1130 33.6155
112.365 1072 32.7414
112.482 1150 33.9116
112.599 1242 35.242
112.716 1194 34.5543
112.832 1200 34.641
112.949 1250 35.3553
113.066 1228 35.0428
113.183 1241 35.2278
113.3 1184 34.4093
113.417 1110 33.3167
113.534 1110 33.3167
113.652 984 31.3688
113.769 880 29.6648
113.886 896 29.9333
114.003 958 30.9516
114.12 1007 31.7333
114.238 1284 35.8329
114.355 1366 36.9594
114.472 1344 36.6606
114.589 1429 37.8021
114.707 1371 37.027
114.824 1466 38.2884
114.942 1461 38.223
115.059 1477 38.4318
115.176 1436 37.8946
115.294 1368 36.9865
115.411 1349 36.7287
115.529 1219 34.9142
115.646 1243 35.2562
115.764 1225 35
115.881 1160 34.0588
115.999 1128 33.5857
116.116 1157 34.0147
116.234 1253 35.3977
116.351 1268 35.609
116.469 1346 36.6879
116.586 1321 36.3456
116.704 1327 36.428
116.821 1279 35.7631
116.939 1233 35.1141
117.056 1126 33.5559
117.174 1098 33.1361
117.291 981 31.3209
117.409 986 31.4006
117.526 1052 32.4345
117.644 1099 33.1512
117.761 1249 35.3412
117.879 1369 37
117.996 1374 37.0675
118.114 1427 37.7757
118.231 1481 38.4838
118.349 1538 39.2173
118.466 1519 38.9744
118.584 1553 39.4081
118.701 1567 39.5854
118.819 1463 38.2492
118.936 1511 38.8716
119.053 1440 37.9473
119.171 1346 36.6879
119.288 1303 36.0971
119.405 1217 34.8855
119.523 1229 35.0571
119.64 1188 34.4674
119.757 1252 35.3836
119.875 1312 36.2215
119.992 1295 35.9861
120.109 1312 36.2215
120.226 1312 36.2215
120.343 1253 35.3977
120.46 1246 35.2987
120.578 1250 35.3553
120.695 1214 34.8425
120.812 1152 33.9411
120.929 1025 32.0156
121.046 1032 32.1248
121.163 1051 32.4191
121.279 1071 32.7261
121.396 1163 34.1028
121.513 1306 36.1386
121.63 1429 37.8021
121.747 1373 37.054
121.863 1463 38.2492
121.98 1551 39.3827
122.097 1488 38.5746
122.213 1534 39.1663
122.33 1573 39.6611
122.446 1422 37.7094
122.563 1409 37.5366
122.679 1356 36.8239
122.795 1388 37.2559
122.912 1300 36.0555
123.028 1282 35.805
123.144 1188 34.4674
123.26 1207 34.7419
123.377 0 1
123.493 0 1
123.609 0 1
123.725 0 1
123.84 0 1
123.956 0 1
124.072 0 1
124.188 0 1
124.303 0 1
124.419 0 1
126.852 0 1
126.968 0 1
127.083 0 1
127.199 0 1
127.315 0 1
127.431 0 1
127.547 0 1
127.663 0 1
127.779 0 1
127.895 0 1
128.011 0 1
128.127 0 1
128.243 0 1
128.359 1293 35.9583
128.476 1292 35.9444
128.592 1282 35.805
128.708 1328 36.4417
128.825 1406 37.4967
128.941 1419 37.6696
129.058 1433 37.855
129.174 1350 36.7423
129.291 1426 37.7624
129.408 1371 37.027
129.524 1384 37.2022
129.641 1354 36.7967
129.758 1237 35.171
129.875 1203 34.6843
129.992 1163 34.1028
130.108 1106 33.2566
130.225 1214 34.8425
130.342 1335 36.5377
130.459 1341 36.6197
130.576 1481 38.4838
130.693 1555 39.4335
130.81 1515 38.923
130.928 1559 39.4842
131.045 1568 39.598
131.162 1541 39.2556
131.279 1650 40.6202
131.396 1590 39.8748
131.513 1521 39
131.631 1537 39.2046
131.748 1473 38.3797
131.865 1414 37.6032
131.983 1353 36.7831
132.1 1315 36.2629
132.217 1300 36.0555
132.335 1464 38.2623
132.452 1506 38.8072
132.57 1477 38.4318
132.687 1403 37.4566
132.804 1457 38.1707
132.922 1404 37.47
133.039 1367 36.973
133.157 1391 37.2961
133.274 1343 36.647
133.392 1289 35.9026
133.509 1214 34.8425
133.627 1193 34.5398
133.744 1252 35.3836
133.862 1191 34.5109
133.979 1374 37.0675
134.097 1343 36.647
134.214 1468 38.3145
134.332 1595 39.9375
134.449 1528 39.0896
134.567 1569 39.6106
134.684 1577 39.7115
134.802 1506 38.8072
134.919 1562 39.5221
135.037 1534 39.1663
135.154 1512 38.8844
135.272 1557 39.4588
135.389 1439 37.9342
135.507 1418 37.6563
135.624 1305 36.1248
135.742 1366 36.9594
135.859 1344 36.6606
135.977 1461 38.223
136.094 1450 38.0789
136.211 1471 38.3536
136.329 1486 38.5487
136.446 1396 37.3631
136.564 1392 37.3095
136.681 1488 38.5746
136.798 1394 37.3363
136.915 1281 35.7911
137.033 1279 35.7631
137.15 1248 35.327
137.267 1237 35.171
137.384 1204 34.6987
137.502 1278 35.7491
137.619 1352 36.7696
137.736 1443 37.9868
137.853 1441 37.9605
137.97 1454 38.1314
138.087 1443 37.9868
138.204 1474 38.3927
138.321 1499 38.7169
138.438 1477 38.4318
138.555 1607 40.0874
138.672 1579 39.7366
138.788 1524 39.0384
138.905 1473 38.3797
139.022 1427 37.7757
139.139 1404 37.47
139.255 1297 36.0139
139.372 1326 36.4143
139.488 1453 38.1182
139.605 1441 37.9605
139.721 1497 38.6911
139.838 1463 38.2492
139.954 1435 37.8814
140.071 1445 38.0132
140.187 1489 38.5876
140.303 1413 37.5899
140.419 1377 37.108
140.535 1445 38.0132
140.652 1309 36.1801
140.768 0 1
140.884 0 1
141 0 1
141.115 0 1
141.231 0 1
141.347 0 1
141.463 0 1
141.578 0 1
141.694 0 1
144.104 0 1
144.219 0 1
144.335 0 1
144.45 0 1
144.566 0 1
144.682 0 1
144.798 0 1
144.914 0 1
145.03 0 1
145.146 997 31.5753
145.262 1081 32.8786
145.378 1057 32.5115
145.494 1107 33.2716
145.61 1046 32.3419
145.726 1054 32.4654
145.842 1040 32.249
145.959 1088 32.9848
146.075 976 31.241
146.192 904 30.0666
146.308 953 30.8707
146.425 953 30.8707
146.541 1087 32.9697
146.658 1085 32.9393
146.774 1145 33.8378
146.891 1130 33.6155
147.008 1142 33.7935
147.125 1138 33.7343
147.241 1242 35.242
147.358 1161 34.0735
147.475 1248 35.327
147.592 1177 34.3074
147.709 1130 33.6155
147.826 1163 34.1028
147.943 1141 33.7787
148.06 1114 33.3766
148.177 1089 33
148.294 1072 32.7414
148.411 1114 33.3766
148.528 1148 33.8821
148.645 1219 34.9142
148.762 1173 34.2491
148.88 1151 33.9264
148.997 1103 33.2114
149.114 1217 34.8855
149.231 1110 33.3167
149.349 1139 33.7491
149.466 1194 34.5543
149.583 1160 34.0588
149.701 1097 33.121
149.818 1112 33.3467
149.935 987 31.4166
150.053 992 31.496
150.17 938 30.6268
150.287 1048 32.3728
150.405 1003 31.6702
150.522 1159 34.0441
150.64 1168 34.176
150.757 1239 35.1994
150.875 1215 34.8569
150.992 1298 36.0278
151.11 1290 35.9166
151.227 1284 35.8329
151.344 1244 35.2704
151.462 1234 35.1283
151.579 1198 34.6121
151.697 1149 33.8969
151.814 1048 32.3728
151.932 1021 31.9531
152.049 1140 33.7639
152.167 1129 33.6006
152.284 1211 34.7994
152.402 1198 34.6121
152.519 1195 34.5688
152.636 1200 34.641
152.754 1158 34.0294
152.871 1219 34.9142
152.989 1130 33.6155
153.106 1166 34.1467
153.223 1146 33.8526
153.341 1166 34.1467
153.458 1083 32.909
153.575 1137 33.7194
153.693 1113 33.3617
153.81 1171 34.2199
153.927 1086 32.9545
154.044 1164 34.1174
154.162 1225 35
154.279 1346 36.6879
154.396 1283 35.819
154.513 1398 37.3898
154.63 1287 35.8748
154.747 1398 37.3898
154.864 1432 37.8418
154.981 1366 36.9594
155.098 1410 37.55
155.215 1307 36.1525
155.332 1265 35.5668
155.449 1267 35.5949
155.566 1253 35.3977
155.683 1327 36.428
155.8 1312 36.2215
155.917 1319 36.318
156.033 1320 36.3318
156.15 0 1
156.267 0 1
156.383 0 1
156.5 0 1
156.617 0 1
156.733 0 1
156.85 0 1
156.966 0 1
157.082 0 1
157.199 0 1
157.315 0 1
157.431 0 1
157.547 0 1
157.664 0 1
157.78 0 1
157.896 0 1
158.012 0 1
158.128 0 1
158.244 0 1
158.359 0 1
158.475 0 1
158.591 0 1
158.706 0 1
