
6.15755 0 1
6.2731 0 1
6.3887 0 1
6.50437 0 1
6.62009 0 1
6.73587 0 1
6.8517 0 1
6.96759 0 1
7.08353 0 1
7.19952 0 1
7.31557 0 1
7.43166 0 1
7.54781 0 1
7.664 0 1
7.78024 0 1
7.89653 0 1
8.01286 0 1
8.12924 0 1
8.24567 0 1
8.36213 0 1
8.47864 0 1
8.59519 0 1
8.71178 0 1
8.82841 0 1
8.94508 0 1
9.06179 0 1
9.17853 0 1
9.29531 0 1
9.41212 0 1
9.52897 0 1
9.64584 0 1
9.76276 0 1
9.8797 0 1
9.99667 0 1
10.1137 0 1
10.2307 0 1
10.3478 0 1
10.4648 0 1
10.5819 0 1
10.6991 0 1
10.8162 0 1
10.9334 0 1
11.0506 0 1
11.1678 0 1
11.285 0 1
11.4023 0 1
11.5196 0 1
11.6369 0 1
11.7542 0 1
11.8715 0 1
11.9888 0 1
12.1062 0 1
12.2235 0 1
12.3409 0 1
12.4582 0 1
12.5756 0 1
12.693 0 1
12.8104 0 1
12.9278 0 1
13.0452 0 1
13.1626 0 1
13.28 0 1
13.3974 0 1
13.5149 0 1
13.6323 0 1
13.7497 0 1
13.8671 0 1
13.9845 0 1
14.1019 0 1
14.2193 0 1
14.3367 0 1
14.4541 0 1
14.5714 0 1
14.6888 0 1
14.8062 0 1
14.9235 0 1
15.0408 547 23.388
15.1581 655 25.593
15.2755 673 25.9422
15.3927 682 26.1151
15.51 696 26.3818
15.6273 716 26.7582
15.7445 707 26.5895
15.8617 722 26.8701
15.9789 633 25.1595
16.0961 647 25.4362
16.2132 626 25.02
16.3304 582 24.1247
16.4475 627 25.04
16.5646 664 25.7682
16.6816 611 24.7184
16.7986 644 25.3772
16.9156 577 24.0208
17.0326 667 25.8263
17.1496 632 25.1396
17.2665 600 24.4949
17.3833 624 24.98
17.5002 613 24.7588
17.617 629 25.0799
17.7338 645 25.3969
17.8505 647 25.4362
17.9672 594 24.3721
18.0839 684 26.1534
18.2005 733 27.074
18.3171 749 27.3679
18.4337 730 27.0185
18.5502 700 26.4575
18.6666 761 27.5862
18.7831 752 27.4226
18.8994 779 27.9106
19.0158 725 26.9258
19.1321 716 26.7582
19.2483 679 26.0576
19.3645 668 25.8457
19.4806 629 25.0799
19.5967 648 25.4558
19.7128 616 24.8193
19.8288 629 25.0799
19.9447 555 23.5584
20.0606 0 1
20.1764 0 1
20.2922 0 1
20.4079 0 1
20.5236 0 1
20.6392 0 1
20.7548 0 1
20.8702 0 1
23.3078 0 1
23.4233 0 1
23.539 0 1
23.6547 0 1
23.7704 0 1
23.8862 0 1
24.0021 0 1
24.118 0 1
24.234 0 1
24.35 0 1
24.4661 638 25.2587
24.5822 632 25.1396
24.6984 676 26
24.8146 645 25.3969
24.9309 641 25.318
25.0472 650 25.4951
25.1636 681 26.096
25.28 718 26.7955
25.3965 665 25.7876
25.513 718 26.7955
25.6296 702 26.4953
25.7462 728 26.9815
25.8628 716 26.7582
25.9795 737 27.1477
26.0962 732 27.0555
26.213 695 26.3629
26.3298 689 26.2488
26.4466 712 26.6833
26.5635 673 25.9422
26.6804 688 26.2298
26.7973 701 26.4764
26.9143 683 26.1343
27.0313 669 25.865
27.1483 691 26.2869
27.2653 670 25.8844
27.3824 646 25.4165
27.4996 686 26.1916
27.6167 649 25.4755
27.7339 628 25.0599
27.8511 677 26.0192
27.9683 649 25.4755
28.0855 663 25.7488
28.2028 687 26.2107
28.3201 650 25.4951
28.4374 653 25.5539
28.5547 642 25.3377
28.6721 638 25.2587
28.7894 627 25.04
28.9068 632 25.1396
29.0242 655 25.593
29.1416 672 25.923
29.259 638 25.2587
29.3764 657 25.632
29.4939 633 25.1595
29.6113 588 24.2487
29.7288 623 24.96
29.8463 587 24.2281
29.9638 605 24.5967
30.0812 590 24.2899
30.1987 577 24.0208
30.3162 636 25.219
30.4337 616 24.8193
30.5512 592 24.3311
30.6687 603 24.5561
30.7862 652 25.5343
30.9037 660 25.6905
31.0212 694 26.3439
31.1387 652 25.5343
31.2562 588 24.2487
31.3737 668 25.8457
31.4912 653 25.5539
31.6087 701 26.4764
31.7262 676 26
31.8436 643 25.3574
31.9611 641 25.318
32.0785 644 25.3772
32.1959 620 24.8998
32.3134 606 24.6171
32.4308 650 25.4951
32.5482 609 24.6779
32.6655 635 25.1992
32.7829 627 25.04
32.9002 612 24.7386
33.0176 582 24.1247
33.1349 606 24.6171
33.2522 582 24.1247
33.3694 596 24.4131
33.4867 534 23.1084
33.6039 566 23.7908
33.7211 596 24.4131
33.8383 575 23.9792
33.9554 585 24.1868
34.0725 626 25.02
34.1896 624 24.98
34.3067 604 24.5764
34.4237 621 24.9199
34.5407 664 25.7682
34.6577 683 26.1343
34.7746 732 27.0555
34.8915 641 25.318
35.0084 719 26.8142
35.1252 691 26.2869
35.242 683 26.1343
35.3587 690 26.2679
35.4755 617 24.8395
35.5921 663 25.7488
35.7088 634 25.1794
35.8254 618 24.8596
35.9419 579 24.0624
36.0584 617 24.8395
36.1749 603 24.5561
36.2913 600 24.4949
36.4077 600 24.4949
36.524 539 23.2164
36.6403 517 22.7376
36.7565 507 22.5167
36.8727 565 23.7697
36.9889 510 22.5832
37.1049 509 22.561
37.221 0 1
37.3369 0 1
37.4529 0 1
37.5687 0 1
37.6845 0 1
37.8003 0 1
37.916 0 1
38.0316 0 1
38.1472 0 1
40.5851 0 1
40.7008 0 1
40.8164 0 1
40.9322 0 1
41.048 0 1
41.1639 0 1
41.2798 0 1
41.3958 0 1
41.5118 0 1
41.6279 0 1
41.744 452 21.2603
41.8602 458 21.4009
41.9765 417 20.4206
42.0928 434 20.8327
42.2091 431 20.7605
42.3255 430 20.7364
42.4419 404 20.0998
42.5584 445 21.095
42.675 445 21.095
42.7915 443 21.0476
42.9081 493 22.2036
43.0248 489 22.1133
43.1415 459 21.4243
43.2582 457 21.3776
43.375 453 21.2838
43.4918 525 22.9129
43.6087 524 22.891
43.7256 505 22.4722
43.8425 486 22.0454
43.9595 481 21.9317
44.0765 469 21.6564
44.1935 494 22.2261
44.3106 446 21.1187
44.4277 414 20.347
44.5448 443 21.0476
44.6619 407 20.1742
44.7791 410 20.2485
44.8963 397 19.9249
45.0136 402 20.0499
45.1308 380 19.4936
45.2481 363 19.0526
45.3654 381 19.5192
45.4827 372 19.2873
45.6001 357 18.8944
45.7174 365 19.105
45.8348 341 18.4662
45.9522 321 17.9165
46.0697 320 17.8885
46.1871 315 17.7482
46.3046 366 19.1311
46.422 364 19.0788
46.5395 347 18.6279
46.657 348 18.6548
46.7745 312 17.6635
46.892 303 17.4069
47.0096 341 18.4662
47.1271 361 19
47.2446 379 19.4679
47.3622 348 18.6548
47.4797 323 17.9722
47.5973 299 17.2916
47.7149 336 18.3303
47.8324 332 18.2209
47.95 322 17.9444
48.0675 318 17.8326
48.1851 273 16.5227
48.3027 296 17.2047
48.4202 283 16.8226
48.5378 330 18.1659
48.6554 309 17.5784
48.7729 316 17.7764
48.8904 309 17.5784
49.008 301 17.3494
49.1255 314 17.72
49.243 286 16.9115
49.3605 236 15.3623
49.478 249 15.7797
49.5955 284 16.8523
49.713 283 16.8226
49.8304 299 17.2916
49.9479 345 18.5742
50.0653 303 17.4069
50.1827 291 17.0587
50.3001 284 16.8523
50.4175 299 17.2916
50.5348 314 17.72
50.6521 355 18.8414
50.7694 376 19.3907
50.8867 346 18.6011
51.004 395 19.8746
51.1212 400 20
51.2384 374 19.3391
51.3556 367 19.1572
51.4727 359 18.9473
51.5899 316 17.7764
51.707 394 19.8494
51.824 390 19.7484
51.9411 361 19
52.0581 413 20.3224
52.175 448 21.166
52.2919 400 20
52.4088 411 20.2731
52.5257 425 20.6155
52.6425 388 19.6977
52.7593 416 20.3961
52.876 442 21.0238
52.9927 417 20.4206
53.1094 428 20.6882
53.226 382 19.5448
53.3426 453 21.2838
53.4591 430 20.7364
53.5756 449 21.1896
53.692 459 21.4243
53.8084 404 20.0998
53.9248 358 18.9209
54.0411 382 19.5448
54.1573 487 22.0681
54.2735 0 1
54.3896 0 1
54.5057 0 1
54.6217 0 1
54.7377 0 1
54.8537 0 1
54.9695 0 1
55.0853 0 1
55.2011 0 1
55.3168 0 1
55.4324 0 1
57.824 0 1
57.9396 0 1
58.0553 0 1
58.1711 0 1
58.2869 0 1
58.4028 0 1
58.5187 0 1
58.6347 0 1
58.7508 0 1
58.8669 0 1
58.983 459 21.4243
59.0992 473 21.7486
59.2155 491 22.1585
59.3318 503 22.4277
59.4482 558 23.622
59.5646 604 24.5764
59.681 595 24.3926
59.7975 521 22.8254
59.9141 505 22.4722
60.0306 553 23.516
60.1473 537 23.1733
60.2639 536 23.1517
60.3807 480 21.9089
60.4974 488 22.0907
60.6142 555 23.5584
60.731 536 23.1517
60.8479 528 22.9783
60.9648 545 23.3452
61.0818 506 22.4944
61.1987 497 22.2935
61.3158 474 21.7715
61.4328 430 20.7364
61.5499 433 20.8087
61.667 421 20.5183
61.7841 429 20.7123
61.9013 441 21
62.0185 442 21.0238
62.1357 461 21.4709
62.253 438 20.9284
62.3702 438 20.9284
62.4875 383 19.5704
62.6049 438 20.9284
62.7222 450 21.2132
62.8396 498 22.3159
62.9569 562 23.7065
63.0743 511 22.6053
63.1918 509 22.561
63.3092 525 22.9129
63.4267 478 21.8632
63.5441 483 21.9773
63.6616 448 21.166
63.7791 430 20.7364
63.8966 437 20.9045
64.0142 477 21.8403
64.1317 436 20.8806
64.2492 445 21.095
64.3668 493 22.2036
64.4843 477 21.8403
64.6019 463 21.5174
64.7195 491 22.1585
64.837 467 21.6102
64.9546 415 20.3715
65.0722 440 20.9762
65.1898 410 20.2485
65.3074 381 19.5192
65.4249 386 19.6469
65.5425 463 21.5174
65.6601 460 21.4476
65.7777 426 20.6398
65.8952 400 20
66.0128 405 20.1246
66.1304 381 19.5192
66.2479 388 19.6977
66.3655 463 21.5174
66.483 484 22
66.6005 464 21.5407
66.718 486 22.0454
66.8355 497 22.2935
66.953 479 21.8861
67.0705 496 22.2711
67.1879 492 22.1811
67.3054 457 21.3776
67.4228 458 21.4009
67.5402 438 20.9284
67.6576 464 21.5407
67.7749 489 22.1133
67.8923 498 22.3159
68.0096 460 21.4476
68.1269 463 21.5174
68.2442 433 20.8087
68.3614 448 21.166
68.4787 462 21.4942
68.5958 441 21
68.713 441 21
68.8302 437 20.9045
68.9473 420 20.4939
69.0643 430 20.7364
69.1814 458 21.4009
69.2984 493 22.2036
69.4154 501 22.383
69.5323 484 22
69.6492 415 20.3715
69.7661 382 19.5448
69.8829 442 21.0238
69.9997 439 20.9523
70.1165 533 23.0868
70.2332 517 22.7376
70.3499 570 23.8747
70.4665 523 22.8692
70.5831 546 23.3666
70.6996 487 22.0681
70.8161 475 21.7945
70.9326 472 21.7256
71.049 514 22.6716
71.1653 492 22.1811
71.2817 484 22
71.3979 521 22.8254
71.5141 502 22.4054
71.6303 505 22.4722
71.7464 498 22.3159
71.8624 0 1
71.9784 0 1
72.0944 0 1
72.2102 0 1
72.3261 0 1
72.4418 0 1
72.5575 0 1
72.6732 0 1
75.1054 0 1
75.2209 0 1
75.3365 0 1
75.4521 0 1
75.5678 0 1
75.6835 0 1
75.7993 0 1
75.9151 0 1
76.031 0 1
76.147 521 22.8254
76.263 507 22.5167
76.3791 492 22.1811
76.4952 475 21.7945
76.6113 518 22.7596
76.7276 505 22.4722
76.8438 539 23.2164
76.9601 505 22.4722
77.0765 523 22.8692
77.1929 535 23.1301
77.3093 481 21.9317
77.4258 489 22.1133
77.5423 500 22.3607
77.6589 449 21.1896
77.7755 419 20.4695
77.8921 463 21.5174
78.0088 450 21.2132
78.1256 465 21.5639
78.2423 485 22.0227
78.3591 480 21.9089
78.4759 515 22.6936
78.5928 464 21.5407
78.7097 368 19.1833
78.8266 329 18.1384
78.9436 424 20.5913
79.0606 466 21.587
79.1776 564 23.7487
79.2946 527 22.9565
79.4117 499 22.3383
79.5288 512 22.6274
79.6459 543 23.3024
79.7631 511 22.6053
79.8802 500 22.3607
79.9974 451 21.2368
80.1147 479 21.8861
80.2319 455 21.3307
80.3491 441 21
80.4664 496 22.2711
80.5837 504 22.4499
80.701 483 21.9773
80.8183 513 22.6495
80.9357 537 23.1733
81.053 531 23.0434
81.1704 458 21.4009
81.2877 446 21.1187
81.4051 457 21.3776
81.5225 382 19.5448
81.6399 409 20.2237
81.7573 453 21.2838
81.8747 445 21.095
81.9922 479 21.8861
82.1096 491 22.1585
82.227 469 21.6564
82.3444 358 18.9209
82.4619 328 18.1108
82.5793 370 19.2354
82.6967 442 21.0238
82.8142 482 21.9545
82.9316 516 22.7156
83.049 445 21.095
83.1664 494 22.2261
83.2838 470 21.6795
83.4012 432 20.7846
83.5186 468 21.6333
83.636 441 21
83.7534 463 21.5174
83.8708 448 21.166
83.9881 462 21.4942
84.1055 471 21.7025
84.2228 488 22.0907
84.3401 460 21.4476
84.4575 448 21.166
84.5747 515 22.6936
84.692 471 21.7025
84.8093 474 21.7715
84.9265 423 20.567
85.0437 403 20.0749
85.1609 403 20.0749
85.2781 420 20.4939
85.3952 469 21.6564
85.5123 496 22.2711
85.6294 503 22.4277
85.7465 512 22.6274
85.8636 448 21.166
85.9806 419 20.4695
86.0976 420 20.4939
86.2145 457 21.3776
86.3315 523 22.8692
86.4484 503 22.4277
86.5652 596 24.4131
86.682 546 23.3666
86.7988 531 23.0434
86.9156 574 23.9583
87.0323 586 24.2074
87.149 558 23.622
87.2657 590 24.2899
87.3823 577 24.0208
87.4988 553 23.516
87.6154 571 23.8956
87.7318 584 24.1661
87.8483 618 24.8596
87.9647 625 25
88.081 622 24.9399
88.1973 608 24.6577
88.3136 604 24.5764
88.4298 587 24.2281
88.546 513 22.6495
88.6621 490 22.1359
88.7781 541 23.2594
88.8942 0 1
89.0101 0 1
89.126 0 1
89.2419 0 1
89.3577 0 1
89.4734 0 1
89.5891 0 1
89.7047 0 1
89.8203 0 1
89.9358 0 1
92.3269 0 1
92.4424 0 1
92.558 0 1
92.6736 0 1
92.7893 0 1
92.905 0 1
93.0208 0 1
93.1366 0 1
93.2525 0 1
93.3685 0 1
93.4845 0 1
93.6005 629 25.0799
93.7167 657 25.632
93.8328 684 26.1534
93.949 577 24.0208
94.0653 601 24.5153
94.1816 563 23.7276
94.2979 564 23.7487
94.4143 584 24.1661
94.5307 580 24.0832
94.6472 599 24.4745
94.7637 597 24.4336
94.8803 621 24.9199
94.9969 590 24.2899
95.1135 566 23.7908
95.2302 546 23.3666
95.3469 594 24.3721
95.4637 634 25.1794
95.5805 605 24.5967
95.6973 758 27.5318
95.8142 733 27.074
95.9311 676 26
96.048 706 26.5707
96.1649 698 26.4197
96.2819 695 26.3629
96.3989 666 25.807
96.516 652 25.5343
96.633 679 26.0576
96.7501 660 25.6905
96.8673 752 27.4226
96.9844 715 26.7395
97.1016 762 27.6043
97.2188 741 27.2213
97.336 723 26.8887
97.4532 719 26.8142
97.5704 667 25.8263
97.6877 602 24.5357
97.805 599 24.4745
97.9223 568 23.8328
98.0396 644 25.3772
98.1569 604 24.5764
98.2743 649 25.4755
98.3916 664 25.7682
98.509 646 25.4165
98.6264 624 24.98
98.7438 635 25.1992
98.8612 619 24.8797
98.9786 621 24.9199
99.096 647 25.4362
99.2134 655 25.593
99.3308 743 27.258
99.4482 757 27.5136
99.5656 678 26.0384
99.6831 725 26.9258
99.8005 713 26.7021
99.9179 710 26.6458
100.035 698 26.4197
100.153 689 26.2488
100.27 658 25.6515
100.388 714 26.7208
100.505 678 26.0384
100.622 728 26.9815
100.74 764 27.6405
100.857 768 27.7128
100.975 761 27.5862
101.092 749 27.3679
101.209 667 25.8263
101.327 686 26.1916
101.444 659 25.671
101.561 653 25.5539
101.679 702 26.4953
101.796 705 26.5518
101.913 724 26.9072
102.03 732 27.0555
102.148 764 27.6405
102.265 685 26.1725
102.382 692 26.3059
102.499 703 26.5141
102.616 710 26.6458
102.733 753 27.4408
102.851 776 27.8568
102.968 782 27.9643
103.085 762 27.6043
103.202 811 28.4781
103.319 825 28.7228
103.436 764 27.6405
103.552 745 27.2947
103.669 757 27.5136
103.786 752 27.4226
103.903 786 28.0357
104.02 817 28.5832
104.137 769 27.7308
104.253 902 30.0333
104.37 903 30.05
104.487 891 29.8496
104.603 900 30
104.72 831 28.8271
104.836 805 28.3725
104.953 792 28.1425
105.069 773 27.8029
105.186 776 27.8568
105.302 796 28.2135
105.418 866 29.4279
105.535 915 30.249
105.651 857 29.2746
105.767 814 28.5307
105.883 825 28.7228
105.999 784 28
106.115 0 1
106.231 0 1
106.347 0 1
106.463 0 1
106.579 0 1
106.694 0 1
106.81 0 1
106.926 0 1
107.041 0 1
107.157 0 1
109.576 0 1
109.692 0 1
109.807 0 1
109.923 0 1
110.039 0 1
110.155 0 1
110.27 0 1
110.386 0 1
110.502 0 1
110.618 863 29.3769
110.735 876 29.5973
110.851 852 29.189
110.967 827 28.7576
111.083 805 28.3725
111.199 872 29.5296
111.316 928 30.4631
111.432 881 29.6816
111.549 946 30.7571
111.665 852 29.189
111.782 886 29.7658
111.898 877 29.6142
112.015 876 29.5973
112.132 818 28.6007
112.248 854 29.2233
112.365 811 28.4781
112.482 781 27.9464
112.599 967 31.0966
112.716 933 30.545
112.832 899 29.9833
112.949 931 30.5123
113.066 928 30.4631
113.183 896 29.9333
113.3 920 30.3315
113.417 869 29.4788
113.534 838 28.9482
113.652 800 28.2843
113.769 839 28.9655
113.886 831 28.8271
114.003 830 28.8097
114.12 866 29.4279
114.238 820 28.6356
114.355 809 28.4429
114.472 786 28.0357
114.589 794 28.178
114.707 825 28.7228
114.824 922 30.3645
114.942 920 30.3315
115.059 871 29.5127
115.176 895 29.9166
115.294 862 29.3598
115.411 850 29.1548
115.529 870 29.4958
115.646 880 29.6648
115.764 907 30.1164
115.881 875 29.5804
115.999 861 29.3428
116.116 856 29.2575
116.234 923 30.3809
116.351 962 31.0161
116.469 971 31.1609
116.586 952 30.8545
116.704 989 31.4484
116.821 987 31.4166
116.939 1020 31.9374
117.056 984 31.3688
117.174 951 30.8383
117.291 874 29.5635
117.409 891 29.8496
117.526 935 30.5778
117.644 956 30.9192
117.761 931 30.5123
117.879 970 31.1448
117.996 943 30.7083
118.114 851 29.1719
118.231 948 30.7896
118.349 896 29.9333
118.466 929 30.4795
118.584 968 31.1127
118.701 994 31.5278
118.819 936 30.5941
118.936 943 30.7083
119.053 924 30.3974
119.171 922 30.3645
119.288 915 30.249
119.405 902 30.0333
119.523 855 29.2404
119.64 917 30.282
119.757 967 31.0966
119.875 971 31.1609
119.992 974 31.209
120.109 1006 31.7175
120.226 978 31.273
120.343 991 31.4802
120.46 1035 32.1714
120.578 928 30.4631
120.695 1005 31.7017
120.812 949 30.8058
120.929 949 30.8058
121.046 1003 31.6702
121.163 988 31.4325
121.279 950 30.8221
121.396 1009 31.7648
121.513 972 31.1769
121.63 963 31.0322
121.747 955 30.9031
121.863 873 29.5466
121.98 871 29.5127
122.097 938 30.6268
122.213 930 30.4959
122.33 956 30.9192
122.446 963 31.0322
122.563 973 31.1929
122.679 950 30.8221
122.795 973 31.1929
122.912 885 29.7489
123.028 862 29.3598
123.144 867 29.4449
123.26 845 29.0689
123.377 0 1
123.493 0 1
123.609 0 1
123.725 0 1
123.84 0 1
123.956 0 1
124.072 0 1
124.188 0 1
124.303 0 1
124.419 0 1
126.852 0 1
126.968 0 1
127.083 0 1
127.199 0 1
127.315 0 1
127.431 0 1
127.547 0 1
127.663 0 1
127.779 0 1
127.895 0 1
128.011 0 1
128.127 0 1
128.243 0 1
128.359 1122 33.4963
128.476 1056 32.4962
128.592 1011 31.7962
128.708 1065 32.6343
128.825 1087 32.9697
128.941 1081 32.8786
129.058 1105 33.2415
129.174 1122 33.4963
129.291 1118 33.4365
129.408 1110 33.3167
129.524 1160 34.0588
129.641 1136 33.7046
129.758 1184 34.4093
129.875 1176 34.2929
129.992 1175 34.2783
130.108 1154 33.9706
130.225 1161 34.0735
130.342 1212 34.8138
130.459 1169 34.1906
130.576 1237 35.171
130.693 1208 34.7563
130.81 1159 34.0441
130.928 1193 34.5398
131.045 1161 34.0735
131.162 1177 34.3074
131.279 1253 35.3977
131.396 1198 34.6121
131.513 1211 34.7994
131.631 1202 34.6699
131.748 1169 34.1906
131.865 1184 34.4093
131.983 1230 35.0714
132.1 1125 33.541
132.217 1158 34.0294
132.335 1187 34.4529
132.452 1154 33.9706
132.57 1129 33.6006
132.687 1203 34.6843
132.804 1200 34.641
132.922 1159 34.0441
133.039 1223 34.9714
133.157 1205 34.7131
133.274 1177 34.3074
133.392 1215 34.8569
133.509 1243 35.2562
133.627 1218 34.8999
133.744 1291 35.9305
133.862 1258 35.4683
133.979 1342 36.6333
134.097 1342 36.6333
134.214 1315 36.2629
134.332 1326 36.4143
134.449 1229 35.0571
134.567 1262 35.5246
134.684 1373 37.054
134.802 1357 36.8375
134.919 1307 36.1525
135.037 1352 36.7696
135.154 1330 36.4692
135.272 1332 36.4966
135.389 1315 36.2629
135.507 1230 35.0714
135.624 1235 35.1426
135.742 1234 35.1283
135.859 1234 35.1283
135.977 1225 35
136.094 1227 35.0286
136.211 1177 34.3074
136.329 1273 35.6791
136.446 1190 34.4964
136.564 1209 34.7707
136.681 1266 35.5809
136.798 1260 35.4965
136.915 1234 35.1283
137.033 1244 35.2704
137.15 1215 34.8569
137.267 1194 34.5543
137.384 1266 35.5809
137.502 1268 35.609
137.619 1320 36.3318
137.736 1344 36.6606
137.853 1293 35.9583
137.97 1289 35.9026
138.087 1340 36.606
138.204 1348 36.7151
138.321 1335 36.5377
138.438 1414 37.6032
138.555 1430 37.8153
138.672 1459 38.1969
138.788 1431 37.8286
138.905 1489 38.5876
139.022 1406 37.4967
139.139 1404 37.47
139.255 1325 36.4005
139.372 1262 35.5246
139.488 1351 36.756
139.605 1312 36.2215
139.721 1374 37.0675
139.838 1277 35.7351
139.954 1307 36.1525
140.071 1313 36.2353
140.187 1308 36.1663
140.303 1315 36.2629
140.419 1286 35.8608
140.535 1319 36.318
140.652 1304 36.1109
140.768 0 1
140.884 0 1
141 0 1
141.115 0 1
141.231 0 1
141.347 0 1
141.463 0 1
141.578 0 1
141.694 0 1
144.104 0 1
144.219 0 1
144.335 0 1
144.45 0 1
144.566 0 1
144.682 0 1
144.798 0 1
144.914 0 1
145.03 0 1
145.146 1024 32
145.262 1156 34
145.378 1110 33.3167
145.494 1109 33.3017
145.61 1208 34.7563
145.726 1167 34.1614
145.842 1199 34.6266
145.959 1202 34.6699
146.075 1132 33.6452
146.192 1215 34.8569
146.308 1084 32.9242
146.425 1204 34.6987
146.541 1149 33.8969
146.658 1122 33.4963
146.774 1130 33.6155
146.891 1015 31.8591
147.008 1054 32.4654
147.125 1022 31.9687
147.241 1130 33.6155
147.358 1132 33.6452
147.475 1160 34.0588
147.592 1155 33.9853
147.709 1183 34.3948
147.826 1196 34.5832
147.943 1204 34.6987
148.06 1201 34.6554
148.177 1223 34.9714
148.294 1197 34.5977
148.411 1242 35.242
148.528 1189 34.4819
148.645 1247 35.3129
148.762 1226 35.0143
148.88 1321 36.3456
148.997 1256 35.4401
149.114 1336 36.5513
149.231 1277 35.7351
149.349 1275 35.7071
149.466 1347 36.7015
149.583 1317 36.2905
149.701 1333 36.5103
149.818 1320 36.3318
149.935 1319 36.318
150.053 1252 35.3836
150.17 1267 35.5949
150.287 1304 36.1109
150.405 1254 35.4119
150.522 1310 36.1939
150.64 1242 35.242
150.757 1145 33.8378
150.875 1152 33.9411
150.992 1095 33.0908
151.11 1133 33.6601
151.227 1157 34.0147
151.344 1071 32.7261
151.462 1060 32.5576
151.579 1042 32.28
151.697 1008 31.749
151.814 1033 32.1403
151.932 1041 32.2645
152.049 1118 33.4365
152.167 1023 31.9844
152.284 1105 33.2415
152.402 1135 33.6898
152.519 1129 33.6006
152.636 1122 33.4963
152.754 1162 34.0881
152.871 1211 34.7994
152.989 1196 34.5832
153.106 1188 34.4674
153.223 1207 34.7419
153.341 1258 35.4683
153.458 1297 36.0139
153.575 1245 35.2846
153.693 1324 36.3868
153.81 1316 36.2767
153.927 1333 36.5103
154.044 1360 36.8782
154.162 1271 35.6511
154.279 1372 37.0405
154.396 1280 35.7771
154.513 1292 35.9444
154.63 1333 36.5103
154.747 1297 36.0139
154.864 1378 37.1214
154.981 1359 36.8646
155.098 1325 36.4005
155.215 1299 36.0416
155.332 1216 34.8712
155.449 1242 35.242
155.566 1199 34.6266
155.683 1169 34.1906
155.8 1055 32.4808
155.917 1037 32.2025
156.033 1006 31.7175
156.15 0 1
156.267 0 1
156.383 0 1
156.5 0 1
156.617 0 1
156.733 0 1
156.85 0 1
156.966 0 1
157.082 0 1
157.199 0 1
157.315 0 1
157.431 0 1
157.547 0 1
157.664 0 1
157.78 0 1
157.896 0 1
158.012 0 1
158.128 0 1
158.244 0 1
158.359 0 1
158.475 0 1
158.591 0 1
158.706 0 1
