
6.15755 0 1
6.2731 0 1
6.3887 0 1
6.50437 0 1
6.62009 0 1
6.73587 0 1
6.8517 0 1
6.96759 0 1
7.08353 0 1
7.19952 0 1
7.31557 0 1
7.43166 0 1
7.54781 0 1
7.664 0 1
7.78024 0 1
7.89653 0 1
8.01286 0 1
8.12924 0 1
8.24567 0 1
8.36213 0 1
8.47864 0 1
8.59519 0 1
8.71178 0 1
8.82841 0 1
8.94508 0 1
9.06179 0 1
9.17853 0 1
9.29531 0 1
9.41212 0 1
9.52897 0 1
9.64584 0 1
9.76276 0 1
9.8797 0 1
9.99667 0 1
10.1137 0 1
10.2307 0 1
10.3478 0 1
10.4648 0 1
10.5819 0 1
10.6991 0 1
10.8162 0 1
10.9334 0 1
11.0506 0 1
11.1678 0 1
11.285 0 1
11.4023 0 1
11.5196 0 1
11.6369 0 1
11.7542 0 1
11.8715 0 1
11.9888 0 1
12.1062 0 1
12.2235 0 1
12.3409 0 1
12.4582 0 1
12.5756 0 1
12.693 0 1
12.8104 0 1
12.9278 0 1
13.0452 0 1
13.1626 0 1
13.28 0 1
13.3974 0 1
13.5149 0 1
13.6323 0 1
13.7497 0 1
13.8671 0 1
13.9845 0 1
14.1019 0 1
14.2193 0 1
14.3367 0 1
14.4541 0 1
14.5714 0 1
14.6888 0 1
14.8062 0 1
14.9235 0 1
15.0408 0 0
15.1581 0 0
15.2755 0 0
15.3927 0 0
15.51 0 0
15.6273 0 0
15.7445 0 0
15.8617 0 0
15.9789 0 0
16.0961 0 0
16.2132 0 0
16.3304 0 0
16.4475 0 0
16.5646 0 0
16.6816 0 0
16.7986 0 0
16.9156 0 0
17.0326 0 0
17.1496 0 0
17.2665 0 0
17.3833 0 0
17.5002 0 0
17.617 0 0
17.7338 0 0
17.8505 0 0
17.9672 0 0
18.0839 0 0
18.2005 0 0
18.3171 0 0
18.4337 0 0
18.5502 0 0
18.6666 0 0
18.7831 0 0
18.8994 0 0
19.0158 0 0
19.1321 0 0
19.2483 0 0
19.3645 0 0
19.4806 0 0
19.5967 0 0
19.7128 0 0
19.8288 0 0
19.9447 0 0
20.0606 0 1
20.1764 0 1
20.2922 0 1
20.4079 0 1
20.5236 0 1
20.6392 0 1
20.7548 0 1
20.8702 0 1
23.3078 0 1
23.4233 0 1
23.539 0 1
23.6547 0 1
23.7704 0 1
23.8862 0 1
24.0021 0 1
24.118 0 1
24.234 0 1
24.35 0 1
24.4661 371978 609.9
24.5822 377714 614.584
24.6984 381746 617.856
24.8146 388017 622.91
24.9309 395913 629.216
25.0472 404984 636.384
25.1636 417574 646.2
25.28 431042 656.538
25.3965 445628 667.554
25.513 459201 677.644
25.6296 472642 687.49
25.7462 484620 696.147
25.8628 485736 696.948
25.9795 488509 698.934
26.0962 489676 699.769
26.213 493755 702.677
26.3298 484659 696.175
26.4466 488343 698.815
26.5635 482432 694.573
26.6804 475137 689.302
26.7973 463032 680.465
26.9143 449499 670.447
27.0313 436525 660.7
27.1483 432802 657.877
27.2653 432595 657.72
27.3824 429569 655.415
27.4996 420250 648.267
27.6167 410116 640.403
27.7339 389921 624.437
27.8511 370431 608.63
27.9683 360155 600.129
28.0855 350134 591.721
28.2028 350093 591.687
28.3201 338903 582.154
28.4374 346111 588.312
28.5547 346723 588.832
28.6721 352668 593.859
28.7894 355935 596.603
28.9068 360296 600.247
29.0242 360728 600.606
29.1416 362414 602.008
29.259 362566 602.135
29.3764 362752 602.289
29.4939 356052 596.701
29.6113 354965 595.789
29.7288 352001 593.297
29.8463 347805 589.75
29.9638 345747 588.003
30.0812 341996 584.804
30.1987 338511 581.817
30.3162 330048 574.498
30.4337 320198 565.86
30.5512 309317 556.163
30.6687 304591 551.898
30.7862 309677 556.486
30.9037 306800 553.895
31.0212 310319 557.063
31.1387 306850 553.94
31.2562 297294 545.247
31.3737 289544 538.093
31.4912 282230 531.253
31.6087 277945 527.205
31.7262 274597 524.02
31.8436 275356 524.744
31.9611 280298 529.432
32.0785 285109 533.956
32.1959 291516 539.922
32.3134 298518 546.368
32.4308 303444 550.858
32.5482 310997 557.671
32.6655 316185 562.303
32.7829 316596 562.669
32.9002 320931 566.508
33.0176 317640 563.596
33.1349 319313 565.078
33.2522 317952 563.872
33.3694 319948 565.639
33.4867 318092 563.996
33.6039 318743 564.573
33.7211 318167 564.063
33.8383 316914 562.951
33.9554 311963 558.536
34.0725 304111 551.463
34.1896 295886 543.954
34.3067 290278 538.775
34.4237 290333 538.826
34.5407 292042 540.409
34.6577 293396 541.66
34.7746 292325 540.671
34.8915 288530 537.15
35.0084 276859 526.174
35.1252 272522 522.036
35.242 266210 515.955
35.3587 266798 516.525
35.4755 265314 515.086
35.5921 268933 518.588
35.7088 274986 524.391
35.8254 279516 528.693
35.9419 287562 536.248
36.0584 292914 541.215
36.1749 299363 547.141
36.2913 303195 550.631
36.4077 307397 554.434
36.524 309171 556.031
36.6403 308943 555.826
36.7565 307247 554.299
36.8727 308185 555.144
36.9889 304964 552.235
37.1049 301171 548.79
37.221 0 1
37.3369 0 1
37.4529 0 1
37.5687 0 1
37.6845 0 1
37.8003 0 1
37.916 0 1
38.0316 0 1
38.1472 0 1
40.5851 0 1
40.7008 0 1
40.8164 0 1
40.9322 0 1
41.048 0 1
41.1639 0 1
41.2798 0 1
41.3958 0 1
41.5118 0 1
41.6279 0 1
41.744 244315 494.282
41.8602 250361 500.361
41.9765 252433 502.427
42.0928 252410 502.404
42.2091 253700 503.686
42.3255 252643 502.636
42.4419 252274 502.269
42.5584 252325 502.32
42.675 250992 500.991
42.7915 247722 497.717
42.9081 238306 488.166
43.0248 232421 482.101
43.1415 227773 477.256
43.2582 229018 478.558
43.375 232520 482.203
43.4918 236587 486.402
43.6087 230539 480.145
43.7256 222682 471.892
43.8425 215000 463.681
43.9595 207920 455.982
44.0765 204044 451.712
44.1935 203546 451.161
44.3106 202354 449.838
44.4277 205265 453.062
44.5448 208408 456.517
44.6619 212340 460.804
44.7791 216309 465.09
44.8963 217227 466.076
45.0136 219090 468.071
45.1308 218606 467.553
45.2481 216589 465.391
45.3654 215747 464.486
45.4827 213334 461.881
45.6001 210870 459.206
45.7174 209336 457.533
45.8348 207427 455.442
45.9522 205851 453.708
46.0697 204265 451.957
46.1871 201610 449.01
46.3046 199386 446.527
46.422 193169 439.51
46.5395 185532 430.734
46.657 178921 422.991
46.7745 175820 419.309
46.892 174693 417.963
47.0096 176523 420.146
47.1271 177809 421.674
47.2446 173678 416.747
47.3622 166779 408.386
47.4797 159863 399.829
47.5973 155968 394.928
47.7149 152948 391.086
47.8324 151668 389.446
47.95 152870 390.986
48.0675 155726 394.621
48.1851 158597 398.242
48.3027 162151 402.68
48.4202 163996 404.964
48.5378 166421 407.947
48.6554 166953 408.599
48.7729 166301 407.8
48.8904 166779 408.386
49.008 168002 409.88
49.1255 169117 411.238
49.243 170143 412.484
49.3605 170571 413.002
49.478 172084 414.83
49.5955 174584 417.833
49.713 176450 420.06
49.8304 176888 420.581
49.9479 175535 418.969
50.0653 171472 414.092
50.1827 168126 410.032
50.3001 165912 407.323
50.4175 168453 410.43
50.5348 171740 414.415
50.6521 182870 427.633
50.7694 185898 431.159
50.8867 185751 430.988
51.004 184186 429.169
51.1212 184889 429.987
51.2384 189237 435.014
51.3556 194104 440.572
51.4727 200787 448.093
51.5899 210299 458.584
51.707 218808 467.769
51.824 226626 476.053
51.9411 232812 482.506
52.0581 235690 485.479
52.175 240336 490.241
52.2919 241561 491.489
52.4088 245252 495.229
52.5257 248241 498.238
52.6425 248246 498.243
52.7593 251186 501.185
52.876 252596 502.589
52.9927 255521 505.491
53.1094 256366 506.326
53.226 259478 509.39
53.3426 262516 512.363
53.4591 264055 513.863
53.5756 261825 511.688
53.692 255713 505.681
53.8084 245725 495.707
53.9248 240173 490.074
54.0411 240144 490.045
54.1573 246071 496.055
54.2735 0 1
54.3896 0 1
54.5057 0 1
54.6217 0 1
54.7377 0 1
54.8537 0 1
54.9695 0 1
55.0853 0 1
55.2011 0 1
55.3168 0 1
55.4324 0 1
57.824 0 1
57.9396 0 1
58.0553 0 1
58.1711 0 1
58.2869 0 1
58.4028 0 1
58.5187 0 1
58.6347 0 1
58.7508 0 1
58.8669 0 1
58.983 287102 535.819
59.0992 285587 534.403
59.2155 286093 534.877
59.3318 288073 536.724
59.4482 292129 540.49
59.5646 290669 539.137
59.681 291056 539.496
59.7975 290411 538.898
59.9141 290392 538.88
60.0306 295309 543.423
60.1473 303191 550.628
60.2639 308051 555.023
60.3807 311932 558.509
60.4974 314658 560.944
60.6142 313311 559.742
60.731 312241 558.785
60.8479 313657 560.051
60.9648 311543 558.16
61.0818 312038 558.604
61.1987 306983 554.06
61.3158 307946 554.929
61.4328 306123 553.284
61.5499 304381 551.707
61.667 305152 552.406
61.7841 304518 551.831
61.9013 303197 550.633
62.0185 301608 549.188
62.1357 295080 543.213
62.253 289030 537.615
62.3702 278270 527.513
62.4875 269525 519.158
62.6049 267313 517.023
62.7222 272411 521.93
62.8396 274785 524.199
62.9569 273995 523.445
63.0743 271871 521.413
63.1918 268971 518.624
63.3092 266073 515.823
63.4267 271402 520.963
63.5441 276052 525.407
63.6616 283032 532.008
63.7791 286057 534.843
63.8966 290348 538.839
64.0142 290120 538.628
64.1317 290161 538.666
64.2492 289234 537.805
64.3668 287306 536.009
64.4843 286797 535.534
64.6019 285733 534.54
64.7195 284143 533.051
64.837 284133 533.041
64.9546 284015 532.931
65.0722 282116 531.146
65.1898 279260 528.451
65.3074 285256 534.094
65.4249 278735 527.954
65.5425 279985 529.136
65.6601 278719 527.938
65.7777 275582 524.959
65.8952 266048 515.798
66.0128 254749 504.727
66.1304 245695 495.676
66.2479 242999 492.949
66.3655 247755 497.75
66.483 254530 504.51
66.6005 256666 506.622
66.718 256063 506.027
66.8355 253160 503.15
66.953 256181 506.143
67.0705 261429 511.301
67.1879 269180 518.826
67.3054 275746 525.115
67.4228 276698 526.021
67.5402 277632 526.908
67.6576 280227 529.365
67.7749 274790 524.204
67.8923 281816 530.863
68.0096 279184 528.379
68.1269 278037 527.292
68.2442 279290 528.479
68.3614 278885 528.096
68.4787 278947 528.154
68.5958 280732 529.841
68.713 280168 529.309
68.8302 280783 529.89
68.9473 283113 532.084
69.0643 281999 531.036
69.1814 283119 532.089
69.2984 283544 532.488
69.4154 284790 533.657
69.5323 279310 528.498
69.6492 270438 520.037
69.7661 258204 508.138
69.8829 249748 499.748
69.9997 253859 503.844
70.1165 260065 509.966
70.2332 266149 515.896
70.3499 264043 513.851
70.4665 263584 513.404
70.5831 263271 513.099
70.6996 271095 520.668
70.8161 277935 527.195
70.9326 284422 533.312
71.049 286019 534.807
71.1653 285612 534.427
71.2817 281779 530.829
71.3979 277940 527.2
71.5141 273780 523.24
71.6303 268577 518.244
71.7464 247585 497.579
71.8624 0 1
71.9784 0 1
72.0944 0 1
72.2102 0 1
72.3261 0 1
72.4418 0 1
72.5575 0 1
72.6732 0 1
75.1054 0 1
75.2209 0 1
75.3365 0 1
75.4521 0 1
75.5678 0 1
75.6835 0 1
75.7993 0 1
75.9151 0 1
76.031 0 1
76.147 247157 497.149
76.263 269781 519.404
76.3791 277059 526.364
76.4952 275444 524.828
76.6113 278303 527.544
76.7276 280031 529.18
76.8438 275995 525.352
76.9601 276848 526.163
77.0765 276872 526.186
77.1929 277574 526.853
77.3093 277087 526.391
77.4258 274013 523.463
77.5423 275323 524.712
77.6589 275173 524.569
77.7755 274590 524.013
77.8921 273297 522.778
78.0088 274750 524.166
78.1256 273570 523.039
78.2423 271921 521.46
78.3591 271470 521.028
78.4759 269556 519.188
78.5928 264856 514.642
78.7097 252901 502.893
78.8266 241213 491.134
78.9436 202221 449.69
79.0606 205688 453.528
79.1776 213891 462.484
79.2946 232659 482.347
79.4117 242774 492.721
79.5288 251618 501.615
79.6459 257702 507.644
79.7631 263240 513.069
79.8802 261872 511.734
79.9974 262583 512.429
80.1147 261106 510.985
80.2319 259995 509.897
80.3491 258375 508.306
80.4664 257999 507.936
80.5837 256710 506.666
80.701 255604 505.573
80.8183 254247 504.229
80.9357 254953 504.929
81.053 253016 503.007
81.1704 250892 500.891
81.2877 252116 502.112
81.4051 250390 500.39
81.5225 252712 502.705
81.6399 243734 493.694
81.7573 248536 498.534
81.8747 244187 494.153
81.9922 244080 494.045
82.1096 244793 494.766
82.227 241212 491.133
82.3444 236128 485.93
82.4619 222841 472.06
82.5793 196308 443.067
82.6967 188450 434.108
82.8142 188974 434.711
82.9316 202587 450.097
83.049 215373 464.083
83.1664 222789 472.005
83.2838 230060 479.646
83.4012 232225 481.897
83.5186 230341 479.939
83.636 228991 478.53
83.7534 229326 478.88
83.8708 228486 478.002
83.9881 226838 476.275
84.1055 226009 475.404
84.2228 223123 472.359
84.3401 225332 474.691
84.4575 224681 474.005
84.5747 224200 473.498
84.692 225631 475.006
84.8093 224893 474.229
84.9265 223907 473.188
85.0437 224181 473.478
85.1609 224461 473.773
85.2781 224225 473.524
85.3952 225562 474.934
85.5123 225659 475.036
85.6294 226600 476.025
85.7465 227818 477.303
85.8636 226270 475.678
85.9806 221423 470.556
86.0976 205386 453.195
86.2145 180926 425.354
86.3315 163969 404.931
86.4484 189122 434.882
86.5652 208177 456.264
86.682 224359 473.665
86.7988 229536 479.099
86.9156 233038 482.74
87.0323 231475 481.118
87.149 232707 482.397
87.2657 232194 481.865
87.3823 232589 482.275
87.4988 230412 480.012
87.6154 231144 480.774
87.7318 231070 480.697
87.8483 230698 480.31
87.9647 232098 481.766
88.081 231649 481.299
88.1973 232634 482.321
88.3136 232297 481.972
88.4298 231432 481.074
88.546 230275 479.87
88.6621 227061 476.509
88.7781 223595 472.858
88.8942 0 1
89.0101 0 1
89.126 0 1
89.2419 0 1
89.3577 0 1
89.4734 0 1
89.5891 0 1
89.7047 0 1
89.8203 0 1
89.9358 0 1
92.3269 0 1
92.4424 0 1
92.558 0 1
92.6736 0 1
92.7893 0 1
92.905 0 1
93.0208 0 1
93.1366 0 1
93.2525 0 1
93.3685 0 1
93.4845 0 1
93.6005 178493 422.484
93.7167 180221 424.524
93.8328 179422 423.582
93.949 176968 420.676
94.0653 175456 418.875
94.1816 172169 414.933
94.2979 170709 413.169
94.4143 168449 410.425
94.5307 167105 408.785
94.6472 164831 405.994
94.7637 162186 402.723
94.8803 163609 404.486
94.9969 159709 399.636
95.1135 156137 395.142
95.2302 148438 385.277
95.3469 131913 363.198
95.4637 109670 331.165
95.5805 108606 329.554
95.6973 132485 363.985
95.8142 148651 385.553
95.9311 151198 388.842
96.048 148781 385.721
96.1649 146399 382.621
96.2819 143641 379
96.3989 140651 375.035
96.516 138135 371.665
96.633 135189 367.681
96.7501 132070 363.414
96.8673 130106 360.702
96.9844 126380 355.5
97.1016 124167 352.373
97.2188 120740 347.477
97.336 119226 345.291
97.4532 116855 341.841
97.5704 113797 337.338
97.6877 110779 332.835
97.805 107272 327.524
97.9223 104168 322.751
98.0396 100245 316.615
98.1569 97088 311.589
98.2743 93991 306.58
98.3916 91410 302.341
98.509 89164 298.603
98.6264 86437 294.002
98.7438 83616 289.164
98.8612 79090 281.229
98.9786 70150 264.858
99.096 53728 231.793
99.2134 50698 225.162
99.3308 64212 253.401
99.4482 68667 262.044
99.5656 68044 260.852
99.6831 65235 255.411
99.8005 62936 250.87
99.9179 61091 247.166
100.035 59719 244.375
100.153 58269 241.39
100.27 57798 240.412
100.388 57317 239.41
100.505 57271 239.314
100.622 58481 241.828
100.74 59257 243.428
100.857 60727 246.428
100.975 62863 250.725
101.092 65033 255.016
101.209 66979 258.803
101.327 70301 265.143
101.444 72298 268.883
101.561 74508 272.962
101.679 78479 280.141
101.796 80219 283.23
101.913 83778 289.444
102.03 87274 295.422
102.148 91383 302.296
102.265 98497 313.842
102.382 91473 302.445
102.499 90011 300.018
102.616 70886 266.244
102.733 67136 259.106
102.851 96270 310.274
102.968 113262 336.544
103.085 118126 343.695
103.202 121016 347.874
103.319 123235 351.048
103.436 125842 354.742
103.552 129455 359.799
103.669 129902 360.419
103.786 133740 365.705
103.903 136115 368.938
104.02 139542 373.553
104.137 142032 376.871
104.253 147889 384.563
104.37 144288 379.853
104.487 151347 389.033
104.603 154579 393.165
104.72 156799 395.979
104.836 159136 398.919
104.953 162168 402.701
105.069 163911 404.859
105.186 167019 408.68
105.302 168488 410.473
105.418 169920 412.214
105.535 172161 414.923
105.651 174474 417.701
105.767 173382 416.392
105.883 158719 398.396
105.999 125488 354.243
106.115 0 1
106.231 0 1
106.347 0 1
106.463 0 1
106.579 0 1
106.694 0 1
106.81 0 1
106.926 0 1
107.041 0 1
107.157 0 1
109.576 0 1
109.692 0 1
109.807 0 1
109.923 0 1
110.039 0 1
110.155 0 1
110.27 0 1
110.386 0 1
110.502 0 1
110.618 163518 404.374
110.735 166444 407.975
110.851 160657 400.82
110.967 145285 381.163
111.083 125511 354.275
111.199 118300 343.948
111.316 137404 370.68
111.432 163177 403.952
111.549 172222 414.996
111.665 175071 418.415
111.782 174233 417.412
111.898 171718 414.389
112.015 170136 412.475
112.132 168302 410.246
112.248 165843 407.238
112.365 166539 408.092
112.482 164571 405.674
112.599 158038 397.54
112.716 159378 399.222
112.832 158087 397.602
112.949 155987 394.952
113.066 153954 392.37
113.183 152155 390.071
113.3 149803 387.044
113.417 148374 385.193
113.534 146747 383.076
113.652 144230 379.776
113.769 143331 378.591
113.886 141426 376.066
114.003 138793 372.549
114.12 136485 369.439
114.238 134453 366.678
114.355 130312 360.988
114.472 118358 344.032
114.589 100078 316.351
114.707 88408 297.335
114.824 90685 301.14
114.942 105468 324.758
115.059 118553 344.315
115.176 122649 350.213
115.294 123065 350.806
115.411 121160 348.08
115.529 119187 345.235
115.646 116610 341.482
115.764 116171 340.839
115.881 113790 337.328
115.999 111533 333.966
116.116 110042 331.726
116.234 108792 329.836
116.351 106853 326.884
116.469 105472 324.765
116.586 103997 322.486
116.704 103277 321.367
116.821 100656 317.263
116.939 100161 316.482
117.056 98333 313.581
117.174 96372 310.438
117.291 95486 309.008
117.409 94836 307.955
117.526 93823 306.305
117.644 93456 305.706
117.761 90359 300.598
117.879 89969 299.948
117.996 86905 294.797
118.114 86060 293.36
118.231 81247 285.039
118.349 70881 266.235
118.466 68214 261.178
118.584 73127 270.42
118.701 80452 283.641
118.819 84160 290.103
118.936 83633 289.194
119.053 83118 288.302
119.171 82043 286.431
119.288 80630 283.954
119.405 80315 283.399
119.523 78572 280.307
119.64 79193 281.413
119.757 77733 278.806
119.875 76503 276.592
119.992 75977 275.639
120.109 75424 274.634
120.226 75138 274.113
120.343 75498 274.769
120.46 74910 273.697
120.578 74368 272.705
120.695 74406 272.775
120.812 74791 273.479
120.929 74521 272.985
121.046 74518 272.98
121.163 74332 272.639
121.279 72670 269.574
121.396 67474 259.758
121.513 59929 244.804
121.63 56263 237.198
121.747 57521 239.835
121.863 66058 257.018
121.98 72049 268.419
122.097 71736 267.836
122.213 69456 263.545
122.33 69514 263.655
122.446 73371 270.871
122.563 75641 275.029
122.679 76554 276.684
122.795 76977 277.447
122.912 77622 278.607
123.028 77509 278.404
123.144 77413 278.232
123.26 77837 278.993
123.377 0 1
123.493 0 1
123.609 0 1
123.725 0 1
123.84 0 1
123.956 0 1
124.072 0 1
124.188 0 1
124.303 0 1
124.419 0 1
126.852 0 1
126.968 0 1
127.083 0 1
127.199 0 1
127.315 0 1
127.431 0 1
127.547 0 1
127.663 0 1
127.779 0 1
127.895 0 1
128.011 0 1
128.127 0 1
128.243 0 1
128.359 112673 335.668
128.476 113671 337.151
128.592 114229 337.978
128.708 116308 341.04
128.825 116357 341.111
128.941 117947 343.434
129.058 118904 344.825
129.174 119734 346.026
129.291 120269 346.798
129.408 122146 349.494
129.524 122740 350.343
129.641 124284 352.539
129.758 125348 354.045
129.875 125754 354.618
129.992 125655 354.478
130.108 121456 348.505
130.225 111939 334.573
130.342 98719 314.196
130.459 77922 279.145
130.576 67319 259.459
130.693 67167 259.166
130.81 89650 299.416
130.928 117389 342.621
131.045 130946 361.865
131.162 136681 369.704
131.279 137601 370.946
131.396 137975 371.45
131.513 140104 374.305
131.631 141651 376.366
131.748 143314 378.568
131.865 143043 378.21
131.983 143344 378.608
132.1 144689 380.38
132.217 145689 381.692
132.335 146901 383.277
132.452 146697 383.01
132.57 147462 384.008
132.687 143217 378.44
132.804 153431 391.703
132.922 149321 386.421
133.039 149573 386.747
133.157 151296 388.968
133.274 151647 389.419
133.392 152354 390.326
133.509 149517 386.674
133.627 146149 382.294
133.744 137260 370.486
133.862 123798 351.849
133.979 108554 329.475
134.097 94056 306.686
134.214 86666 294.391
134.332 87716 296.169
134.449 112532 335.458
134.567 141490 376.152
134.684 156951 396.17
134.802 161607 402.004
134.919 163542 404.403
135.037 165130 406.362
135.154 166841 408.462
135.272 167445 409.2
135.389 167453 409.21
135.507 169206 411.347
135.624 170326 412.706
135.742 170920 413.425
135.859 171559 414.197
135.977 171972 414.695
136.094 172787 415.677
136.211 172243 415.022
136.329 174410 417.624
136.446 175064 418.407
136.564 175993 419.515
136.681 179227 423.352
136.798 176173 419.73
136.915 178897 422.962
137.033 177452 421.251
137.15 173668 416.735
137.267 166794 408.404
137.384 156131 395.134
137.502 141397 376.028
137.619 127515 357.092
137.736 116927 341.946
137.853 108404 329.248
137.97 108901 330.002
138.087 127968 357.726
138.204 152864 390.978
138.321 176129 419.677
138.438 188205 433.826
138.555 191381 437.471
138.672 194185 440.664
138.788 193625 440.028
138.905 195886 442.59
139.022 196352 443.116
139.139 197175 444.044
139.255 198716 445.776
139.372 198610 445.657
139.488 198367 445.384
139.605 199804 446.994
139.721 199698 446.876
139.838 199903 447.105
139.954 200752 448.054
140.071 198760 445.825
140.187 202286 449.762
140.303 200773 448.077
140.419 201786 449.206
140.535 200563 447.843
140.652 198370 445.387
140.768 0 1
140.884 0 1
141 0 1
141.115 0 1
141.231 0 1
141.347 0 1
141.463 0 1
141.578 0 1
141.694 0 1
144.104 0 1
144.219 0 1
144.335 0 1
144.45 0 1
144.566 0 1
144.682 0 1
144.798 0 1
144.914 0 1
145.03 0 1
145.146 193307 439.667
145.262 195650 442.323
145.378 196082 442.811
145.494 193407 439.781
145.61 191155 437.213
145.726 186745 432.14
145.842 179845 424.081
145.959 169246 411.395
146.075 159783 399.729
146.192 148857 385.82
146.308 141496 376.16
146.425 136296 369.183
146.541 135981 368.756
146.658 139985 374.146
146.774 148527 385.392
146.891 163402 404.23
147.008 180979 425.416
147.125 193781 440.206
147.241 198306 445.316
147.358 198860 445.937
147.475 199626 446.795
147.592 199312 446.444
147.709 199715 446.895
147.826 197871 444.827
147.943 199378 446.518
148.06 196681 443.487
148.177 198436 445.462
148.294 197495 444.404
148.411 197004 443.851
148.528 198484 445.515
148.645 196963 443.805
148.762 196453 443.23
148.88 195602 442.269
148.997 188908 434.635
149.114 200458 447.725
149.231 191280 437.356
149.349 186327 431.656
149.466 177127 420.865
149.583 168926 411.006
149.701 160979 401.222
149.818 153652 391.985
149.935 147255 383.738
150.053 143144 378.344
150.17 143407 378.691
150.287 149267 386.351
150.405 156488 395.586
150.522 167812 409.649
150.64 179833 424.067
150.757 191154 437.212
150.875 198507 445.541
150.992 202732 450.258
151.11 198740 445.803
151.227 201053 448.389
151.344 201730 449.144
151.462 201113 448.456
151.579 203728 451.362
151.697 203452 451.057
151.814 204485 452.2
151.932 203253 450.836
152.049 204647 452.379
152.167 203964 451.624
152.284 205011 452.781
152.402 205376 453.184
152.519 203791 451.432
152.636 202225 449.694
152.754 199543 446.702
152.871 195743 442.429
152.989 187964 433.548
153.106 182351 427.026
153.223 173226 416.204
153.341 166128 407.588
153.458 159015 398.767
153.575 154938 393.622
153.693 153481 391.767
153.81 156097 395.091
153.927 161761 402.195
154.044 171574 414.215
154.162 182928 427.701
154.279 193630 440.034
154.396 201968 449.409
154.513 209532 457.747
154.63 213328 461.874
154.747 213854 462.444
154.864 213775 462.358
154.981 214464 463.103
155.098 214039 462.643
155.215 214481 463.121
155.332 215135 463.826
155.449 213933 462.529
155.566 214849 463.518
155.683 214991 463.671
155.8 215665 464.397
155.917 216080 464.844
156.033 217632 466.51
156.15 0 1
156.267 0 1
156.383 0 1
156.5 0 1
156.617 0 1
156.733 0 1
156.85 0 1
156.966 0 1
157.082 0 1
157.199 0 1
157.315 0 1
157.431 0 1
157.547 0 1
157.664 0 1
157.78 0 1
157.896 0 1
158.012 0 1
158.128 0 1
158.244 0 1
158.359 0 1
158.475 0 1
158.591 0 1
158.706 0 1
