
6.15755 0 1
6.2731 0 1
6.3887 0 1
6.50437 0 1
6.62009 0 1
6.73587 0 1
6.8517 0 1
6.96759 0 1
7.08353 0 1
7.19952 0 1
7.31557 0 1
7.43166 0 1
7.54781 0 1
7.664 0 1
7.78024 0 1
7.89653 0 1
8.01286 0 1
8.12924 0 1
8.24567 0 1
8.36213 0 1
8.47864 0 1
8.59519 0 1
8.71178 0 1
8.82841 0 1
8.94508 0 1
9.06179 0 1
9.17853 0 1
9.29531 0 1
9.41212 0 1
9.52897 0 1
9.64584 0 1
9.76276 0 1
9.8797 0 1
9.99667 0 1
10.1137 0 1
10.2307 0 1
10.3478 0 1
10.4648 0 1
10.5819 0 1
10.6991 0 1
10.8162 0 1
10.9334 0 1
11.0506 0 1
11.1678 0 1
11.285 0 1
11.4023 0 1
11.5196 0 1
11.6369 0 1
11.7542 0 1
11.8715 0 1
11.9888 0 1
12.1062 0 1
12.2235 0 1
12.3409 0 1
12.4582 0 1
12.5756 0 1
12.693 0 1
12.8104 0 1
12.9278 0 1
13.0452 0 1
13.1626 0 1
13.28 0 1
13.3974 0 1
13.5149 0 1
13.6323 0 1
13.7497 0 1
13.8671 0 1
13.9845 0 1
14.1019 0 1
14.2193 0 1
14.3367 0 1
14.4541 0 1
14.5714 0 1
14.6888 0 1
14.8062 0 1
14.9235 0 1
15.0408 0 0
15.1581 0 0
15.2755 0 0
15.3927 0 0
15.51 0 0
15.6273 0 0
15.7445 0 0
15.8617 0 0
15.9789 0 0
16.0961 0 0
16.2132 0 0
16.3304 0 0
16.4475 0 0
16.5646 0 0
16.6816 0 0
16.7986 0 0
16.9156 0 0
17.0326 0 0
17.1496 0 0
17.2665 0 0
17.3833 0 0
17.5002 0 0
17.617 0 0
17.7338 0 0
17.8505 0 0
17.9672 0 0
18.0839 0 0
18.2005 0 0
18.3171 0 0
18.4337 0 0
18.5502 0 0
18.6666 0 0
18.7831 0 0
18.8994 0 0
19.0158 0 0
19.1321 0 0
19.2483 0 0
19.3645 0 0
19.4806 0 0
19.5967 0 0
19.7128 0 0
19.8288 0 0
19.9447 0 0
20.0606 0 1
20.1764 0 1
20.2922 0 1
20.4079 0 1
20.5236 0 1
20.6392 0 1
20.7548 0 1
20.8702 0 1
23.3078 0 1
23.4233 0 1
23.539 0 1
23.6547 0 1
23.7704 0 1
23.8862 0 1
24.0021 0 1
24.118 0 1
24.234 0 1
24.35 0 1
24.4661 1605 40.0625
24.5822 1557 39.4588
24.6984 1591 39.8873
24.8146 1552 39.3954
24.9309 1521 39
25.0472 1604 40.05
25.1636 1669 40.8534
25.28 1541 39.2556
25.3965 1610 40.1248
25.513 1659 40.7308
25.6296 1599 39.9875
25.7462 1670 40.8656
25.8628 1671 40.8779
25.9795 1638 40.4722
26.0962 1615 40.1871
26.213 1642 40.5216
26.3298 1662 40.7676
26.4466 1652 40.6448
26.5635 1486 38.5487
26.6804 1441 37.9605
26.7973 1388 37.2559
26.9143 1453 38.1182
27.0313 1532 39.1408
27.1483 1495 38.6652
27.2653 1557 39.4588
27.3824 1569 39.6106
27.4996 1668 40.8412
27.6167 1567 39.5854
27.7339 1697 41.1947
27.8511 1583 39.7869
27.9683 1713 41.3884
28.0855 1610 40.1248
28.2028 1549 39.3573
28.3201 1576 39.6989
28.4374 1585 39.8121
28.5547 1549 39.3573
28.6721 1467 38.3014
28.7894 1536 39.1918
28.9068 1486 38.5487
29.0242 1482 38.4968
29.1416 1594 39.9249
29.259 1477 38.4318
29.3764 1466 38.2884
29.4939 1545 39.3065
29.6113 1515 38.923
29.7288 1619 40.2368
29.8463 1478 38.4448
29.9638 1421 37.6962
30.0812 1405 37.4833
30.1987 1393 37.3229
30.3162 1338 36.5787
30.4337 1307 36.1525
30.5512 1410 37.55
30.6687 1442 37.9737
30.7862 1459 38.1969
30.9037 1563 39.5348
31.0212 1584 39.7995
31.1387 1616 40.1995
31.2562 1563 39.5348
31.3737 1621 40.2616
31.4912 1560 39.4968
31.6087 1539 39.2301
31.7262 1571 39.6358
31.8436 1521 39
31.9611 1571 39.6358
32.0785 1432 37.8418
32.1959 1429 37.8021
32.3134 1470 38.3406
32.4308 1467 38.3014
32.5482 1465 38.2753
32.6655 1427 37.7757
32.7829 1460 38.2099
32.9002 1515 38.923
33.0176 1436 37.8946
33.1349 1517 38.9487
33.2522 1525 39.0512
33.3694 1497 38.6911
33.4867 1408 37.5233
33.6039 1451 38.092
33.7211 1348 36.7151
33.8383 1318 36.3043
33.9554 1252 35.3836
34.0725 1257 35.4542
34.1896 1276 35.7211
34.3067 1447 38.0395
34.4237 1539 39.2301
34.5407 1453 38.1182
34.6577 1536 39.1918
34.7746 1580 39.7492
34.8915 1526 39.064
35.0084 1619 40.2368
35.1252 1542 39.2683
35.242 1462 38.2361
35.3587 1461 38.223
35.4755 1505 38.7943
35.5921 1465 38.2753
35.7088 1425 37.7492
35.8254 1361 36.8917
35.9419 1414 37.6032
36.0584 1319 36.318
36.1749 1278 35.7491
36.2913 1436 37.8946
36.4077 1433 37.855
36.524 1416 37.6298
36.6403 1386 37.229
36.7565 1466 38.2884
36.8727 1444 38
36.9889 1450 38.0789
37.1049 1464 38.2623
37.221 0 1
37.3369 0 1
37.4529 0 1
37.5687 0 1
37.6845 0 1
37.8003 0 1
37.916 0 1
38.0316 0 1
38.1472 0 1
40.5851 0 1
40.7008 0 1
40.8164 0 1
40.9322 0 1
41.048 0 1
41.1639 0 1
41.2798 0 1
41.3958 0 1
41.5118 0 1
41.6279 0 1
41.744 1112 33.3467
41.8602 1160 34.0588
41.9765 1154 33.9706
42.0928 1236 35.1568
42.2091 1221 34.9428
42.3255 1209 34.7707
42.4419 1093 33.0606
42.5584 997 31.5753
42.675 960 30.9839
42.7915 972 31.1769
42.9081 1005 31.7017
43.0248 975 31.225
43.1415 1078 32.8329
43.2582 1151 33.9264
43.375 1174 34.2637
43.4918 1246 35.2987
43.6087 1127 33.5708
43.7256 1158 34.0294
43.8425 1108 33.2866
43.9595 1101 33.1813
44.0765 1071 32.7261
44.1935 1132 33.6452
44.3106 1055 32.4808
44.4277 966 31.0805
44.5448 1035 32.1714
44.6619 931 30.5123
44.7791 886 29.7658
44.8963 882 29.6985
45.0136 867 29.4449
45.1308 907 30.1164
45.2481 883 29.7153
45.3654 849 29.1376
45.4827 843 29.0345
45.6001 910 30.1662
45.7174 895 29.9166
45.8348 903 30.05
45.9522 844 29.0517
46.0697 745 27.2947
46.1871 685 26.1725
46.3046 693 26.3249
46.422 662 25.7294
46.5395 705 26.5518
46.657 750 27.3861
46.7745 806 28.3901
46.892 799 28.2666
47.0096 818 28.6007
47.1271 795 28.1957
47.2446 809 28.4429
47.3622 802 28.3196
47.4797 772 27.7849
47.5973 747 27.3313
47.7149 785 28.0179
47.8324 720 26.8328
47.95 697 26.4008
48.0675 680 26.0768
48.1851 660 25.6905
48.3027 660 25.6905
48.4202 619 24.8797
48.5378 631 25.1197
48.6554 559 23.6432
48.7729 689 26.2488
48.8904 702 26.4953
49.008 668 25.8457
49.1255 668 25.8457
49.243 649 25.4755
49.3605 690 26.2679
49.478 672 25.923
49.5955 584 24.1661
49.713 547 23.388
49.8304 514 22.6716
49.9479 559 23.6432
50.0653 588 24.2487
50.1827 685 26.1725
50.3001 739 27.1846
50.4175 762 27.6043
50.5348 811 28.4781
50.6521 798 28.2489
50.7694 844 29.0517
50.8867 816 28.5657
51.004 915 30.249
51.1212 897 29.95
51.2384 907 30.1164
51.3556 943 30.7083
51.4727 930 30.4959
51.5899 853 29.2062
51.707 811 28.4781
51.824 899 29.9833
51.9411 901 30.0167
52.0581 888 29.7993
52.175 935 30.5778
52.2919 912 30.1993
52.4088 985 31.3847
52.5257 1022 31.9687
52.6425 1053 32.45
52.7593 1126 33.5559
52.876 1095 33.0908
52.9927 1130 33.6155
53.1094 1013 31.8277
53.226 1001 31.6386
53.3426 856 29.2575
53.4591 824 28.7054
53.5756 892 29.8664
53.692 988 31.4325
53.8084 1207 34.7419
53.9248 1301 36.0694
54.0411 1291 35.9305
54.1573 1283 35.819
54.2735 0 1
54.3896 0 1
54.5057 0 1
54.6217 0 1
54.7377 0 1
54.8537 0 1
54.9695 0 1
55.0853 0 1
55.2011 0 1
55.3168 0 1
55.4324 0 1
57.824 0 1
57.9396 0 1
58.0553 0 1
58.1711 0 1
58.2869 0 1
58.4028 0 1
58.5187 0 1
58.6347 0 1
58.7508 0 1
58.8669 0 1
58.983 1300 36.0555
59.0992 1438 37.921
59.2155 1458 38.1838
59.3318 1553 39.4081
59.4482 1563 39.5348
59.5646 1567 39.5854
59.681 1573 39.6611
59.7975 1514 38.9102
59.9141 1470 38.3406
60.0306 1481 38.4838
60.1473 1446 38.0263
60.2639 1374 37.0675
60.3807 1323 36.3731
60.4974 1250 35.3553
60.6142 1233 35.1141
60.731 1229 35.0571
60.8479 1244 35.2704
60.9648 1247 35.3129
61.0818 1270 35.6371
61.1987 1256 35.4401
61.3158 1344 36.6606
61.4328 1296 36
61.5499 1243 35.2562
61.667 1162 34.0881
61.7841 1032 32.1248
61.9013 1024 32
62.0185 964 31.0483
62.1357 1030 32.0936
62.253 1116 33.4066
62.3702 1248 35.327
62.4875 1390 37.2827
62.6049 1416 37.6298
62.7222 1444 38
62.8396 1371 37.027
62.9569 1493 38.6394
63.0743 1493 38.6394
63.1918 1418 37.6563
63.3092 1500 38.7298
63.4267 1495 38.6652
63.5441 1410 37.55
63.6616 1405 37.4833
63.7791 1327 36.428
63.8966 1321 36.3456
64.0142 1285 35.8469
64.1317 1295 35.9861
64.2492 1232 35.0999
64.3668 1254 35.4119
64.4843 1344 36.6606
64.6019 1357 36.8375
64.7195 1311 36.2077
64.837 1383 37.1887
64.9546 1379 37.1349
65.0722 1303 36.0971
65.1898 1286 35.8608
65.3074 1113 33.3617
65.4249 952 30.8545
65.5425 921 30.348
65.6601 963 31.0322
65.7777 1109 33.3017
65.8952 1216 34.8712
66.0128 1385 37.2156
66.1304 1408 37.5233
66.2479 1449 38.0657
66.3655 1510 38.8587
66.483 1495 38.6652
66.6005 1504 38.7814
66.718 1474 38.3927
66.8355 1454 38.1314
66.953 1409 37.5366
67.0705 1403 37.4566
67.1879 1319 36.318
67.3054 1291 35.9305
67.4228 1207 34.7419
67.5402 1235 35.1426
67.6576 1217 34.8855
67.7749 1116 33.4066
67.8923 1250 35.3553
68.0096 1141 33.7787
68.1269 1228 35.0428
68.2442 1224 34.9857
68.3614 1211 34.7994
68.4787 1271 35.6511
68.5958 1246 35.2987
68.713 1274 35.6931
68.8302 1106 33.2566
68.9473 1010 31.7805
69.0643 937 30.6105
69.1814 879 29.6479
69.2984 944 30.7246
69.4154 1017 31.8904
69.5323 1181 34.3657
69.6492 1218 34.8999
69.7661 1388 37.2559
69.8829 1389 37.2693
69.9997 1388 37.2559
70.1165 1430 37.8153
70.2332 1436 37.8946
70.3499 1436 37.8946
70.4665 1416 37.6298
70.5831 1478 38.4448
70.6996 1358 36.8511
70.8161 1300 36.0555
70.9326 1233 35.1141
71.049 1243 35.2562
71.1653 1203 34.6843
71.2817 1146 33.8526
71.3979 1151 33.9264
71.5141 1175 34.2783
71.6303 1119 33.4515
71.7464 1091 33.0303
71.8624 0 1
71.9784 0 1
72.0944 0 1
72.2102 0 1
72.3261 0 1
72.4418 0 1
72.5575 0 1
72.6732 0 1
75.1054 0 1
75.2209 0 1
75.3365 0 1
75.4521 0 1
75.5678 0 1
75.6835 0 1
75.7993 0 1
75.9151 0 1
76.031 0 1
76.147 1227 35.0286
76.263 1251 35.3695
76.3791 1223 34.9714
76.4952 1253 35.3977
76.6113 1141 33.7787
76.7276 1123 33.5112
76.8438 1216 34.8712
76.9601 1140 33.7639
77.0765 1250 35.3553
77.1929 1212 34.8138
77.3093 1200 34.641
77.4258 1249 35.3412
77.5423 1258 35.4683
77.6589 1284 35.8329
77.7755 1178 34.322
77.8921 984 31.3688
78.0088 917 30.282
78.1256 841 29
78.2423 756 27.4955
78.3591 869 29.4788
78.4759 1045 32.3265
78.5928 1211 34.7994
78.7097 1282 35.805
78.8266 1261 35.5106
78.9436 1427 37.7757
79.0606 1404 37.47
79.1776 1431 37.8286
79.2946 1476 38.4187
79.4117 1405 37.4833
79.5288 1380 37.1484
79.6459 1351 36.756
79.7631 1192 34.5254
79.8802 1214 34.8425
79.9974 1126 33.5559
80.1147 1072 32.7414
80.2319 1096 33.1059
80.3491 1013 31.8277
80.4664 1123 33.5112
80.5837 1090 33.0151
80.701 1126 33.5559
80.8183 1116 33.4066
80.9357 1166 34.1467
81.053 1111 33.3317
81.1704 1168 34.176
81.2877 1135 33.6898
81.4051 1113 33.3617
81.5225 947 30.7734
81.6399 877 29.6142
81.7573 755 27.4773
81.8747 706 26.5707
81.9922 790 28.1069
82.1096 849 29.1376
82.227 1062 32.5883
82.3444 1107 33.2716
82.4619 1224 34.9857
82.5793 1224 34.9857
82.6967 1190 34.4964
82.8142 1192 34.5254
82.9316 1256 35.4401
83.049 1184 34.4093
83.1664 1234 35.1283
83.2838 1144 33.8231
83.4012 1110 33.3167
83.5186 1057 32.5115
83.636 1016 31.8748
83.7534 919 30.315
83.8708 889 29.8161
83.9881 918 30.2985
84.1055 873 29.5466
84.2228 850 29.1548
84.3401 993 31.5119
84.4575 984 31.3688
84.5747 1070 32.7109
84.692 1104 33.2265
84.8093 1083 32.909
84.9265 1033 32.1403
85.0437 946 30.7571
85.1609 800 28.2843
85.2781 734 27.0924
85.3952 673 25.9422
85.5123 731 27.037
85.6294 812 28.4956
85.7465 956 30.9192
85.8636 1115 33.3916
85.9806 1203 34.6843
86.0976 1210 34.7851
86.2145 1295 35.9861
86.3315 1333 36.5103
86.4484 1348 36.7151
86.5652 1390 37.2827
86.682 1326 36.4143
86.7988 1360 36.8782
86.9156 1255 35.426
87.0323 1253 35.3977
87.149 1201 34.6554
87.2657 1169 34.1906
87.3823 1090 33.0151
87.4988 1087 32.9697
87.6154 1091 33.0303
87.7318 1163 34.1028
87.8483 1219 34.9142
87.9647 1251 35.3695
88.081 1241 35.2278
88.1973 1295 35.9861
88.3136 1318 36.3043
88.4298 1295 35.9861
88.546 1213 34.8281
88.6621 1024 32
88.7781 878 29.6311
88.8942 0 1
89.0101 0 1
89.126 0 1
89.2419 0 1
89.3577 0 1
89.4734 0 1
89.5891 0 1
89.7047 0 1
89.8203 0 1
89.9358 0 1
92.3269 0 1
92.4424 0 1
92.558 0 1
92.6736 0 1
92.7893 0 1
92.905 0 1
93.0208 0 1
93.1366 0 1
93.2525 0 1
93.3685 0 1
93.4845 0 1
93.6005 1240 35.2136
93.7167 1285 35.8469
93.8328 1209 34.7707
93.949 1204 34.6987
94.0653 1160 34.0588
94.1816 1012 31.8119
94.2979 925 30.4138
94.4143 914 30.2324
94.5307 823 28.688
94.6472 930 30.4959
94.7637 1064 32.619
94.8803 1201 34.6554
94.9969 1324 36.3868
95.1135 1349 36.7287
95.2302 1435 37.8814
95.3469 1467 38.3014
95.4637 1445 38.0132
95.5805 1392 37.3095
95.6973 1516 38.9358
95.8142 1523 39.0256
95.9311 1440 37.9473
96.048 1440 37.9473
96.1649 1398 37.3898
96.2819 1315 36.2629
96.3989 1270 35.6371
96.516 1178 34.322
96.633 1202 34.6699
96.7501 1093 33.0606
96.8673 1152 33.9411
96.9844 1253 35.3977
97.1016 1255 35.426
97.2188 1316 36.2767
97.336 1309 36.1801
97.4532 1351 36.756
97.5704 1323 36.3731
97.6877 1173 34.2491
97.805 1109 33.3017
97.9223 953 30.8707
98.0396 911 30.1828
98.1569 861 29.3428
98.2743 922 30.3645
98.3916 1011 31.7962
98.509 1101 33.1813
98.6264 1300 36.0555
98.7438 1309 36.1801
98.8612 1368 36.9865
98.9786 1463 38.2492
99.096 1549 39.3573
99.2134 1467 38.3014
99.3308 1454 38.1314
99.4482 1563 39.5348
99.5656 1459 38.1969
99.6831 1443 37.9868
99.8005 1389 37.2693
99.9179 1276 35.7211
100.035 1238 35.1852
100.153 1182 34.3802
100.27 1113 33.3617
100.388 1206 34.7275
100.505 1239 35.1994
100.622 1326 36.4143
100.74 1296 36
100.857 1323 36.3731
100.975 1350 36.7423
101.092 1285 35.8469
101.209 1309 36.1801
101.327 1254 35.4119
101.444 1117 33.4215
101.561 1002 31.6544
101.679 951 30.8383
101.796 920 30.3315
101.913 978 31.273
102.03 1112 33.3467
102.148 1253 35.3977
102.265 1316 36.2767
102.382 1467 38.3014
102.499 1576 39.6989
102.616 1595 39.9375
102.733 1686 41.0609
102.851 1622 40.2741
102.968 1614 40.1746
103.085 1619 40.2368
103.202 1501 38.7427
103.319 1468 38.3145
103.436 1421 37.6962
103.552 1319 36.318
103.669 1252 35.3836
103.786 1265 35.5668
103.903 1253 35.3977
104.02 1379 37.1349
104.137 1343 36.647
104.253 1323 36.3731
104.37 1480 38.4708
104.487 1447 38.0395
104.603 1567 39.5854
104.72 1422 37.7094
104.836 1282 35.805
104.953 1160 34.0588
105.069 1054 32.4654
105.186 990 31.4643
105.302 1035 32.1714
105.418 1138 33.7343
105.535 1343 36.647
105.651 1516 38.9358
105.767 1643 40.5339
105.883 1753 41.8688
105.999 1763 41.9881
106.115 0 1
106.231 0 1
106.347 0 1
106.463 0 1
106.579 0 1
106.694 0 1
106.81 0 1
106.926 0 1
107.041 0 1
107.157 0 1
109.576 0 1
109.692 0 1
109.807 0 1
109.923 0 1
110.039 0 1
110.155 0 1
110.27 0 1
110.386 0 1
110.502 0 1
110.618 1280 35.7771
110.735 1417 37.6431
110.851 1484 38.5227
110.967 1665 40.8044
111.083 1597 39.9625
111.199 1680 40.9878
111.316 1677 40.9512
111.432 1664 40.7922
111.549 1642 40.5216
111.665 1591 39.8873
111.782 1504 38.7814
111.898 1516 38.9358
112.015 1426 37.7624
112.132 1364 36.9324
112.248 1266 35.5809
112.365 1283 35.819
112.482 1262 35.5246
112.599 1346 36.6879
112.716 1442 37.9737
112.832 1385 37.2156
112.949 1456 38.1576
113.066 1429 37.8021
113.183 1408 37.5233
113.3 1339 36.5923
113.417 1165 34.1321
113.534 1084 32.9242
113.652 1105 33.2415
113.769 1036 32.187
113.886 954 30.8869
114.003 1097 33.121
114.12 1282 35.805
114.238 1321 36.3456
114.355 1511 38.8716
114.472 1520 38.9872
114.589 1547 39.3319
114.707 1596 39.95
114.824 1583 39.7869
114.942 1564 39.5474
115.059 1649 40.6079
115.176 1502 38.7556
115.294 1590 39.8748
115.411 1543 39.281
115.529 1518 38.9615
115.646 1403 37.4566
115.764 1371 37.027
115.881 1280 35.7771
115.999 1258 35.4683
116.116 1311 36.2077
116.234 1408 37.5233
116.351 1416 37.6298
116.469 1411 37.5633
116.586 1522 39.0128
116.704 1391 37.2961
116.821 1475 38.4057
116.939 1377 37.108
117.056 1279 35.7631
117.174 1268 35.609
117.291 1121 33.4813
117.409 1063 32.6037
117.526 1083 32.909
117.644 1206 34.7275
117.761 1398 37.3898
117.879 1560 39.4968
117.996 1631 40.3856
118.114 1631 40.3856
118.231 1638 40.4722
118.349 1622 40.2741
118.466 1637 40.4599
118.584 1657 40.7063
118.701 1672 40.8901
118.819 1731 41.6053
118.936 1622 40.2741
119.053 1566 39.5727
119.171 1482 38.4968
119.288 1505 38.7943
119.405 1346 36.6879
119.523 1351 36.756
119.64 1345 36.6742
119.757 1419 37.6696
119.875 1376 37.0945
119.992 1471 38.3536
120.109 1450 38.0789
120.226 1454 38.1314
120.343 1538 39.2173
120.46 1496 38.6782
120.578 1283 35.819
120.695 1317 36.2905
120.812 1173 34.2491
120.929 1126 33.5559
121.046 1199 34.6266
121.163 1176 34.2929
121.279 1142 33.7935
121.396 1350 36.7423
121.513 1422 37.7094
121.63 1519 38.9744
121.747 1557 39.4588
121.863 1600 40
121.98 1576 39.6989
122.097 1630 40.3733
122.213 1658 40.7185
122.33 1657 40.7063
122.446 1739 41.7013
122.563 1602 40.025
122.679 1547 39.3319
122.795 1495 38.6652
122.912 1430 37.8153
123.028 1442 37.9737
123.144 1323 36.3731
123.26 1249 35.3412
123.377 0 1
123.493 0 1
123.609 0 1
123.725 0 1
123.84 0 1
123.956 0 1
124.072 0 1
124.188 0 1
124.303 0 1
124.419 0 1
126.852 0 1
126.968 0 1
127.083 0 1
127.199 0 1
127.315 0 1
127.431 0 1
127.547 0 1
127.663 0 1
127.779 0 1
127.895 0 1
128.011 0 1
128.127 0 1
128.243 0 1
128.359 1549 39.3573
128.476 1434 37.8682
128.592 1489 38.5876
128.708 1456 38.1576
128.825 1511 38.8716
128.941 1504 38.7814
129.058 1610 40.1248
129.174 1599 39.9875
129.291 1621 40.2616
129.408 1609 40.1123
129.524 1532 39.1408
129.641 1478 38.4448
129.758 1402 37.4433
129.875 1354 36.7967
129.992 1302 36.0832
130.108 1241 35.2278
130.225 1343 36.647
130.342 1420 37.6829
130.459 1456 38.1576
130.576 1701 41.2432
130.693 1672 40.8901
130.81 1720 41.4729
130.928 1688 41.0853
131.045 1759 41.9404
131.162 1767 42.0357
131.279 1809 42.5323
131.396 1789 42.2966
131.513 1639 40.4846
131.631 1720 41.4729
131.748 1606 40.0749
131.865 1598 39.975
131.983 1529 39.1024
132.1 1451 38.092
132.217 1501 38.7427
132.335 1542 39.2683
132.452 1610 40.1248
132.57 1562 39.5221
132.687 1624 40.2989
132.804 1654 40.6694
132.922 1642 40.5216
133.039 1555 39.4335
133.157 1563 39.5348
133.274 1430 37.8153
133.392 1444 38
133.509 1332 36.4966
133.627 1325 36.4005
133.744 1296 36
133.862 1425 37.7492
133.979 1452 38.1051
134.097 1593 39.9124
134.214 1588 39.8497
134.332 1665 40.8044
134.449 1710 41.3521
134.567 1724 41.5211
134.684 1780 42.19
134.802 1828 42.7551
134.919 1718 41.4488
135.037 1797 42.391
135.154 1689 41.0974
135.272 1668 40.8412
135.389 1626 40.3237
135.507 1574 39.6737
135.624 1479 38.4578
135.742 1483 38.5097
135.859 1541 39.2556
135.977 1576 39.6989
136.094 1648 40.5956
136.211 1624 40.2989
136.329 1645 40.5586
136.446 1579 39.7366
136.564 1564 39.5474
136.681 1604 40.05
136.798 1560 39.4968
136.915 1503 38.7685
137.033 1466 38.2884
137.15 1468 38.3145
137.267 1278 35.7491
137.384 1307 36.1525
137.502 1408 37.5233
137.619 1455 38.1445
137.736 1509 38.8458
137.853 1601 40.0125
137.97 1706 41.3038
138.087 1595 39.9375
138.204 1744 41.7612
138.321 1642 40.5216
138.438 1737 41.6773
138.555 1765 42.0119
138.672 1675 40.9268
138.788 1735 41.6533
138.905 1615 40.1871
139.022 1669 40.8534
139.139 1650 40.6202
139.255 1492 38.6264
139.372 1513 38.8973
139.488 1534 39.1663
139.605 1562 39.5221
139.721 1613 40.1622
139.838 1550 39.37
139.954 1639 40.4846
140.071 1607 40.0874
140.187 1513 38.8973
140.303 1582 39.7744
140.419 1470 38.3406
140.535 1466 38.2884
140.652 1456 38.1576
140.768 0 1
140.884 0 1
141 0 1
141.115 0 1
141.231 0 1
141.347 0 1
141.463 0 1
141.578 0 1
141.694 0 1
144.104 0 1
144.219 0 1
144.335 0 1
144.45 0 1
144.566 0 1
144.682 0 1
144.798 0 1
144.914 0 1
145.03 0 1
145.146 1140 33.7639
145.262 1190 34.4964
145.378 1269 35.623
145.494 1201 34.6554
145.61 1232 35.0999
145.726 1235 35.1426
145.842 1216 34.8712
145.959 1164 34.1174
146.075 1088 32.9848
146.192 1105 33.2415
146.308 1115 33.3916
146.425 1099 33.1512
146.541 1152 33.9411
146.658 1210 34.7851
146.774 1293 35.9583
146.891 1293 35.9583
147.008 1327 36.428
147.125 1303 36.0971
147.241 1377 37.108
147.358 1409 37.5366
147.475 1363 36.9188
147.592 1342 36.6333
147.709 1405 37.4833
147.826 1303 36.0971
147.943 1249 35.3412
148.06 1264 35.5528
148.177 1209 34.7707
148.294 1257 35.4542
148.411 1164 34.1174
148.528 1367 36.973
148.645 1333 36.5103
148.762 1391 37.2961
148.88 1296 36
148.997 1323 36.3731
149.114 1316 36.2767
149.231 1336 36.5513
149.349 1283 35.819
149.466 1293 35.9583
149.583 1273 35.6791
149.701 1286 35.8608
149.818 1221 34.9428
149.935 1129 33.6006
150.053 1156 34
150.17 1165 34.1321
150.287 1215 34.8569
150.405 1250 35.3553
150.522 1238 35.1852
150.64 1286 35.8608
150.757 1381 37.1618
150.875 1401 37.4299
150.992 1445 38.0132
151.11 1411 37.5633
151.227 1451 38.092
151.344 1389 37.2693
151.462 1384 37.2022
151.579 1385 37.2156
151.697 1345 36.6742
151.814 1261 35.5106
151.932 1237 35.171
152.049 1270 35.6371
152.167 1319 36.318
152.284 1360 36.8782
152.402 1403 37.4566
152.519 1391 37.2961
152.636 1326 36.4143
152.754 1316 36.2767
152.871 1389 37.2693
152.989 1334 36.524
153.106 1413 37.5899
153.223 1314 36.2491
153.341 1320 36.3318
153.458 1277 35.7351
153.575 1293 35.9583
153.693 1240 35.2136
153.81 1318 36.3043
153.927 1252 35.3836
154.044 1382 37.1753
154.162 1357 36.8375
154.279 1421 37.6962
154.396 1543 39.281
154.513 1493 38.6394
154.63 1569 39.6106
154.747 1544 39.2938
154.864 1503 38.7685
154.981 1534 39.1663
155.098 1441 37.9605
155.215 1460 38.2099
155.332 1457 38.1707
155.449 1413 37.5899
155.566 1392 37.3095
155.683 1436 37.8946
155.8 1420 37.6829
155.917 1456 38.1576
156.033 1423 37.7227
156.15 0 1
156.267 0 1
156.383 0 1
156.5 0 1
156.617 0 1
156.733 0 1
156.85 0 1
156.966 0 1
157.082 0 1
157.199 0 1
157.315 0 1
157.431 0 1
157.547 0 1
157.664 0 1
157.78 0 1
157.896 0 1
158.012 0 1
158.128 0 1
158.244 0 1
158.359 0 1
158.475 0 1
158.591 0 1
158.706 0 1
