
6.15755 0 1
6.2731 0 1
6.3887 0 1
6.50437 0 1
6.62009 0 1
6.73587 0 1
6.8517 0 1
6.96759 0 1
7.08353 0 1
7.19952 0 1
7.31557 0 1
7.43166 0 1
7.54781 0 1
7.664 0 1
7.78024 0 1
7.89653 0 1
8.01286 0 1
8.12924 0 1
8.24567 0 1
8.36213 0 1
8.47864 0 1
8.59519 0 1
8.71178 0 1
8.82841 0 1
8.94508 0 1
9.06179 0 1
9.17853 0 1
9.29531 0 1
9.41212 0 1
9.52897 0 1
9.64584 0 1
9.76276 0 1
9.8797 0 1
9.99667 0 1
10.1137 0 1
10.2307 0 1
10.3478 0 1
10.4648 0 1
10.5819 0 1
10.6991 0 1
10.8162 0 1
10.9334 0 1
11.0506 0 1
11.1678 0 1
11.285 0 1
11.4023 0 1
11.5196 0 1
11.6369 0 1
11.7542 0 1
11.8715 0 1
11.9888 0 1
12.1062 0 1
12.2235 0 1
12.3409 0 1
12.4582 0 1
12.5756 0 1
12.693 0 1
12.8104 0 1
12.9278 0 1
13.0452 0 1
13.1626 0 1
13.28 0 1
13.3974 0 1
13.5149 0 1
13.6323 0 1
13.7497 0 1
13.8671 0 1
13.9845 0 1
14.1019 0 1
14.2193 0 1
14.3367 0 1
14.4541 0 1
14.5714 0 1
14.6888 0 1
14.8062 0 1
14.9235 0 1
15.0408 0 0
15.1581 0 0
15.2755 0 0
15.3927 0 0
15.51 0 0
15.6273 0 0
15.7445 0 0
15.8617 0 0
15.9789 0 0
16.0961 0 0
16.2132 0 0
16.3304 0 0
16.4475 0 0
16.5646 0 0
16.6816 0 0
16.7986 0 0
16.9156 0 0
17.0326 0 0
17.1496 0 0
17.2665 0 0
17.3833 0 0
17.5002 0 0
17.617 0 0
17.7338 0 0
17.8505 0 0
17.9672 0 0
18.0839 0 0
18.2005 0 0
18.3171 0 0
18.4337 0 0
18.5502 0 0
18.6666 0 0
18.7831 0 0
18.8994 0 0
19.0158 0 0
19.1321 0 0
19.2483 0 0
19.3645 0 0
19.4806 0 0
19.5967 0 0
19.7128 0 0
19.8288 0 0
19.9447 0 0
20.0606 0 1
20.1764 0 1
20.2922 0 1
20.4079 0 1
20.5236 0 1
20.6392 0 1
20.7548 0 1
20.8702 0 1
23.3078 0 1
23.4233 0 1
23.539 0 1
23.6547 0 1
23.7704 0 1
23.8862 0 1
24.0021 0 1
24.118 0 1
24.234 0 1
24.35 0 1
24.4661 12734 112.845
24.5822 12796 113.119
24.6984 12908 113.613
24.8146 12979 113.925
24.9309 13033 114.162
25.0472 13254 115.126
25.1636 13408 115.793
25.28 13713 117.103
25.3965 14356 119.817
25.513 13988 118.271
25.6296 14422 120.092
25.7462 14469 120.287
25.8628 14509 120.453
25.9795 14357 119.821
26.0962 14365 119.854
26.213 14552 120.632
26.3298 13949 118.106
26.4466 14005 118.343
26.5635 13945 118.089
26.6804 13632 116.756
26.7973 13378 115.663
26.9143 12914 113.64
27.0313 12513 111.862
27.1483 12501 111.808
27.2653 12557 112.058
27.3824 12518 111.884
27.4996 12179 110.359
27.6167 11832 108.775
27.7339 11331 106.447
27.8511 10962 104.7
27.9683 10753 103.697
28.0855 10375 101.858
28.2028 10402 101.99
28.3201 10408 102.02
28.4374 10556 102.742
28.5547 10674 103.315
28.6721 10873 104.274
28.7894 11268 106.151
28.9068 11553 107.485
29.0242 11709 108.208
29.1416 11865 108.927
29.259 11921 109.183
29.3764 11821 108.724
29.4939 11933 109.238
29.6113 12045 109.75
29.7288 11808 108.665
29.8463 12012 109.599
29.9638 11842 108.821
30.0812 11897 109.073
30.1987 12083 109.923
30.3162 11699 108.162
30.4337 11299 106.297
30.5512 10904 104.422
30.6687 10770 103.779
30.7862 11046 105.1
30.9037 11000 104.881
31.0212 11164 105.66
31.1387 11082 105.271
31.2562 10771 103.783
31.3737 10519 102.562
31.4912 10169 100.841
31.6087 9929 99.6444
31.7262 9964 99.8198
31.8436 10046 100.23
31.9611 10147 100.732
32.0785 10256 101.272
32.1959 10585 102.883
32.3134 10881 104.312
32.4308 10968 104.728
32.5482 11308 106.339
32.6655 11384 106.696
32.7829 11632 107.852
32.9002 11652 107.944
33.0176 11566 107.545
33.1349 11665 108.005
33.2522 11514 107.303
33.3694 11324 106.414
33.4867 11366 106.611
33.6039 11592 107.666
33.7211 11679 108.069
33.8383 11432 106.921
33.9554 11418 106.855
34.0725 11072 105.224
34.1896 10606 102.985
34.3067 10593 102.922
34.4237 10476 102.352
34.5407 10507 102.504
34.6577 10540 102.665
34.7746 10585 102.883
34.8915 10561 102.767
35.0084 10128 100.638
35.1252 9864 99.3177
35.242 9650 98.2344
35.3587 9773 98.8585
35.4755 9629 98.1275
35.5921 9646 98.2141
35.7088 9882 99.4082
35.8254 10010 100.05
35.9419 10197 100.98
36.0584 10729 103.581
36.1749 10864 104.231
36.2913 10921 104.504
36.4077 11120 105.451
36.524 10993 104.848
36.6403 11099 105.352
36.7565 11188 105.773
36.8727 11164 105.66
36.9889 11007 104.914
37.1049 10901 104.408
37.221 0 1
37.3369 0 1
37.4529 0 1
37.5687 0 1
37.6845 0 1
37.8003 0 1
37.916 0 1
38.0316 0 1
38.1472 0 1
40.5851 0 1
40.7008 0 1
40.8164 0 1
40.9322 0 1
41.048 0 1
41.1639 0 1
41.2798 0 1
41.3958 0 1
41.5118 0 1
41.6279 0 1
41.744 9075 95.2628
41.8602 9297 96.421
41.9765 9231 96.0781
42.0928 9396 96.933
42.2091 9403 96.9691
42.3255 9390 96.902
42.4419 9382 96.8607
42.5584 9385 96.8762
42.675 9273 96.2964
42.7915 9068 95.226
42.9081 8847 94.0585
43.0248 8776 93.6803
43.1415 8551 92.4716
43.2582 8609 92.7847
43.375 8667 93.0967
43.4918 8839 94.016
43.6087 8493 92.1575
43.7256 8318 91.2031
43.8425 8070 89.8332
43.9595 7808 88.3629
44.0765 7727 87.9034
44.1935 7600 87.178
44.3106 7546 86.8677
44.4277 7715 87.8351
44.5448 7622 87.3041
44.6619 7874 88.7356
44.7791 7951 89.1684
44.8963 8129 90.161
45.0136 8275 90.967
45.1308 8013 89.5154
45.2481 8142 90.233
45.3654 7900 88.8819
45.4827 7938 89.0955
45.6001 7996 89.4204
45.7174 7740 87.9773
45.8348 7770 88.1476
45.9522 7653 87.4814
46.0697 7618 87.2812
46.1871 7429 86.1916
46.3046 7384 85.9302
46.422 7117 84.3623
46.5395 6952 83.3787
46.657 6675 81.7007
46.7745 6507 80.666
46.892 6461 80.3803
47.0096 6648 81.5353
47.1271 6480 80.4984
47.2446 6386 79.9125
47.3622 6221 78.8733
47.4797 5905 76.844
47.5973 5829 76.3479
47.7149 5732 75.71
47.8324 5670 75.2994
47.95 5848 76.4722
48.0675 5892 76.7594
48.1851 5949 77.1298
48.3027 5991 77.4016
48.4202 6211 78.8099
48.5378 6269 79.177
48.6554 6271 79.1896
48.7729 6138 78.3454
48.8904 6366 79.7872
49.008 6288 79.2969
49.1255 6170 78.5493
49.243 6191 78.6829
49.3605 6421 80.1311
49.478 6546 80.9074
49.5955 6542 80.8826
49.713 6556 80.9691
49.8304 6487 80.5419
49.9479 6577 81.0987
50.0653 6408 80.05
50.1827 6194 78.702
50.3001 6210 78.8036
50.4175 6351 79.6932
50.5348 6306 79.4103
50.6521 6897 83.0482
50.7694 6888 82.994
50.8867 6998 83.654
51.004 7054 83.9881
51.1212 6849 82.7587
51.2384 6957 83.4086
51.3556 7214 84.9353
51.4727 7600 87.178
51.5899 7812 88.3855
51.707 8074 89.8554
51.824 8505 92.2226
51.9411 8675 93.1397
52.0581 8735 93.4612
52.175 8976 94.7418
52.2919 8970 94.7101
52.4088 9084 95.31
52.5257 9266 96.2601
52.6425 9167 95.7445
52.7593 9085 95.3153
52.876 9280 96.3328
52.9927 9405 96.9794
53.1094 9530 97.6217
53.226 9602 97.9898
53.3426 9750 98.7421
53.4591 9668 98.326
53.5756 9535 97.6473
53.692 9560 97.7753
53.8084 8863 94.1435
53.9248 8863 94.1435
54.0411 8746 93.5201
54.1573 9143 95.619
54.2735 0 1
54.3896 0 1
54.5057 0 1
54.6217 0 1
54.7377 0 1
54.8537 0 1
54.9695 0 1
55.0853 0 1
55.2011 0 1
55.3168 0 1
55.4324 0 1
57.824 0 1
57.9396 0 1
58.0553 0 1
58.1711 0 1
58.2869 0 1
58.4028 0 1
58.5187 0 1
58.6347 0 1
58.7508 0 1
58.8669 0 1
58.983 10455 102.25
59.0992 10498 102.46
59.2155 10357 101.769
59.3318 10520 102.567
59.4482 10649 103.194
59.5646 10562 102.772
59.681 10696 103.421
59.7975 10481 102.377
59.9141 10435 102.152
60.0306 10682 103.354
60.1473 10875 104.283
60.2639 11098 105.347
60.3807 11483 107.159
60.4974 11435 106.935
60.6142 11326 106.424
60.731 11159 105.636
60.8479 11540 107.424
60.9648 11310 106.348
61.0818 11331 106.447
61.1987 11072 105.224
61.3158 11110 105.404
61.4328 11145 105.57
61.5499 10860 104.211
61.667 11022 104.986
61.7841 10909 104.446
61.9013 10889 104.35
62.0185 10850 104.163
62.1357 10567 102.796
62.253 10552 102.723
62.3702 10039 100.195
62.4875 9866 99.3277
62.6049 9677 98.3717
62.7222 9751 98.7472
62.8396 9962 99.8098
62.9569 9981 99.905
63.0743 9676 98.3667
63.1918 9765 98.818
63.3092 9619 98.0765
63.4267 9781 98.8989
63.5441 10076 100.379
63.6616 10204 101.015
63.7791 10172 100.856
63.8966 10400 101.98
64.0142 10527 102.601
64.1317 10524 102.587
64.2492 10437 102.162
64.3668 10319 101.582
64.4843 10150 100.747
64.6019 10444 102.196
64.7195 10338 101.676
64.837 10289 101.435
64.9546 10324 101.607
65.0722 10010 100.05
65.1898 10115 100.573
65.3074 10307 101.523
65.4249 10059 100.295
65.5425 10125 100.623
65.6601 10092 100.459
65.7777 9892 99.4585
65.8952 9632 98.1428
66.0128 9318 96.5298
66.1304 8772 93.659
66.2479 8801 93.8136
66.3655 9022 94.9842
66.483 9152 95.6661
66.6005 9313 96.5039
66.718 9311 96.4935
66.8355 8955 94.6309
66.953 9395 96.9278
67.0705 9325 96.566
67.1879 9632 98.1428
67.3054 9973 99.8649
67.4228 10242 101.203
67.5402 9952 99.7597
67.6576 10191 100.95
67.7749 10012 100.06
67.8923 10192 100.955
68.0096 10043 100.215
68.1269 10032 100.16
68.2442 10232 101.153
68.3614 9942 99.7096
68.4787 10217 101.079
68.5958 9995 99.975
68.713 10141 100.703
68.8302 10180 100.896
68.9473 10239 101.188
69.0643 10089 100.444
69.1814 10115 100.573
69.2984 10207 101.03
69.4154 10121 100.603
69.5323 10047 100.235
69.6492 9730 98.6408
69.7661 9342 96.654
69.8829 9044 95.0999
69.9997 9104 95.4149
70.1165 9314 96.5091
70.2332 9604 98
70.3499 9477 97.3499
70.4665 9313 96.5039
70.5831 9450 97.2111
70.6996 9720 98.5901
70.8161 10033 100.165
70.9326 10178 100.886
71.049 10263 101.306
71.1653 10183 100.911
71.2817 10114 100.568
71.3979 9865 99.3227
71.5141 9836 99.1766
71.6303 9465 97.2882
71.7464 8991 94.8209
71.8624 0 1
71.9784 0 1
72.0944 0 1
72.2102 0 1
72.3261 0 1
72.4418 0 1
72.5575 0 1
72.6732 0 1
75.1054 0 1
75.2209 0 1
75.3365 0 1
75.4521 0 1
75.5678 0 1
75.6835 0 1
75.7993 0 1
75.9151 0 1
76.031 0 1
76.147 8983 94.7787
76.263 9670 98.3362
76.3791 9923 99.6143
76.4952 9851 99.2522
76.6113 10206 101.025
76.7276 10075 100.374
76.8438 10015 100.075
76.9601 10124 100.618
77.0765 10162 100.807
77.1929 9848 99.2371
77.3093 9962 99.8098
77.4258 9976 99.8799
77.5423 9865 99.3227
77.6589 9868 99.3378
77.7755 9688 98.4276
77.8921 9956 99.7798
78.0088 9731 98.6458
78.1256 9830 99.1464
78.2423 9688 98.4276
78.3591 9772 98.8534
78.4759 9616 98.0612
78.5928 9529 97.6166
78.7097 9273 96.2964
78.8266 8837 94.0053
78.9436 7475 86.4581
79.0606 7497 86.5852
79.1776 7694 87.7154
79.2946 8449 91.9184
79.4117 8623 92.8601
79.5288 9003 94.8841
79.6459 9246 96.1561
79.7631 9294 96.4054
79.8802 9513 97.5346
79.9974 9377 96.8349
80.1147 9346 96.6747
80.2319 9421 97.0618
80.3491 9238 96.1145
80.4664 9282 96.3431
80.5837 9258 96.2185
80.701 9178 95.8019
80.8183 9131 95.5563
80.9357 9148 95.6452
81.053 9212 95.9792
81.1704 9206 95.9479
81.2877 9161 95.7131
81.4051 8974 94.7312
81.5225 9020 94.9737
81.6399 8535 92.3851
81.7573 8814 93.8829
81.8747 8796 93.787
81.9922 8718 93.3702
82.1096 8719 93.3756
82.227 8690 93.2202
82.3444 8536 92.3905
82.4619 8039 89.6605
82.5793 6953 83.3847
82.6967 6741 82.1036
82.8142 6843 82.7224
82.9316 7255 85.1763
83.049 7756 88.0682
83.1664 8093 89.9611
83.2838 8150 90.2774
83.4012 8218 90.6532
83.5186 8269 90.934
83.636 8296 91.0824
83.7534 8117 90.0944
83.8708 7997 89.4259
83.9881 8089 89.9389
84.1055 8042 89.6772
84.2228 7908 88.9269
84.3401 8045 89.6939
84.4575 8109 90.05
84.5747 7977 89.3141
84.692 8029 89.6047
84.8093 7885 88.7975
84.9265 8036 89.6437
85.0437 7953 89.1796
85.1609 8056 89.7552
85.2781 8001 89.4483
85.3952 7993 89.4036
85.5123 8091 89.95
85.6294 7988 89.3756
85.7465 7959 89.2132
85.8636 7958 89.2076
85.9806 7856 88.6341
86.0976 7434 86.2206
86.2145 6542 80.8826
86.3315 5942 77.0844
86.4484 6670 81.6701
86.5652 7389 85.9593
86.682 7908 88.9269
86.7988 8033 89.627
86.9156 8393 91.6133
87.0323 8276 90.9725
87.149 8252 90.8405
87.2657 8181 90.4489
87.3823 8127 90.1499
87.4988 8056 89.7552
87.6154 8153 90.294
87.7318 7875 88.7412
87.8483 8139 90.2164
87.9647 8042 89.6772
88.081 8093 89.9611
88.1973 8426 91.7932
88.3136 8192 90.5097
88.4298 8328 91.2579
88.546 8121 90.1166
88.6621 7878 88.7581
88.7781 7947 89.1459
88.8942 0 1
89.0101 0 1
89.126 0 1
89.2419 0 1
89.3577 0 1
89.4734 0 1
89.5891 0 1
89.7047 0 1
89.8203 0 1
89.9358 0 1
92.3269 0 1
92.4424 0 1
92.558 0 1
92.6736 0 1
92.7893 0 1
92.905 0 1
93.0208 0 1
93.1366 0 1
93.2525 0 1
93.3685 0 1
93.4845 0 1
93.6005 6172 78.5621
93.7167 6127 78.2752
93.8328 6208 78.7909
93.949 6001 77.4661
94.0653 5982 77.3434
94.1816 5925 76.974
94.2979 5930 77.0065
94.4143 5746 75.8024
94.5307 5893 76.7659
94.6472 5802 76.1709
94.7637 5536 74.4043
94.8803 5680 75.3658
94.9969 5466 73.9324
95.1135 5340 73.0753
95.2302 5068 71.1899
95.3469 4657 68.2422
95.4637 3821 61.8142
95.5805 3754 61.2699
95.6973 4571 67.6092
95.8142 5107 71.4633
95.9311 5193 72.0625
96.048 5121 71.5612
96.1649 5071 71.211
96.2819 4794 69.2387
96.3989 4863 69.7352
96.516 4674 68.3667
96.633 4594 67.7791
96.7501 4483 66.9552
96.8673 4476 66.9029
96.9844 4270 65.3452
97.1016 4193 64.7534
97.2188 4065 63.7574
97.336 4031 63.4902
97.4532 4109 64.1015
97.5704 3929 62.6817
97.6877 3802 61.6604
97.805 3760 61.3188
97.9223 3587 59.8916
98.0396 3448 58.7197
98.1569 3351 57.8878
98.2743 3342 57.81
98.3916 3105 55.7225
98.509 3199 56.5597
98.6264 3107 55.7405
98.7438 2994 54.7175
98.8612 2832 53.2165
98.9786 2562 50.6162
99.096 2088 45.6946
99.2134 1947 44.1248
99.3308 2284 47.7912
99.4482 2569 50.6853
99.5656 2562 50.6162
99.6831 2352 48.4974
99.8005 2315 48.1144
99.9179 2183 46.7226
100.035 2219 47.1063
100.153 2208 46.9894
100.27 2122 46.0652
100.388 2080 45.607
100.505 2156 46.4327
100.622 2152 46.3897
100.74 2181 46.7012
100.857 2236 47.2864
100.975 2296 47.9166
101.092 2404 49.0306
101.209 2447 49.4672
101.327 2472 49.7192
101.444 2626 51.2445
101.561 2716 52.1153
101.679 2862 53.4977
101.796 2932 54.1479
101.913 2904 53.8888
102.03 3023 54.9818
102.148 3171 56.3116
102.265 3573 59.7746
102.382 3271 57.1927
102.499 3263 57.1227
102.616 2832 53.2165
102.733 2421 49.2037
102.851 3309 57.5239
102.968 4001 63.2535
103.085 4134 64.2962
103.202 4288 65.4828
103.319 4265 65.307
103.436 4343 65.9014
103.552 4425 66.5207
103.669 4438 66.6183
103.786 4576 67.6461
103.903 4787 69.1881
104.02 4828 69.4838
104.137 4927 70.1926
104.253 5112 71.4983
104.37 5088 71.3302
104.487 5304 72.8286
104.603 5353 73.1642
104.72 5388 73.403
104.836 5621 74.9733
104.953 5614 74.9266
105.069 5707 75.5447
105.186 5506 74.2024
105.302 5904 76.8375
105.418 5831 76.361
105.535 5912 76.8895
105.651 6063 77.8653
105.767 5967 77.2464
105.883 5537 74.411
105.999 4471 66.8655
106.115 0 1
106.231 0 1
106.347 0 1
106.463 0 1
106.579 0 1
106.694 0 1
106.81 0 1
106.926 0 1
107.041 0 1
107.157 0 1
109.576 0 1
109.692 0 1
109.807 0 1
109.923 0 1
110.039 0 1
110.155 0 1
110.27 0 1
110.386 0 1
110.502 0 1
110.618 6079 77.9679
110.735 6058 77.8332
110.851 5794 76.1183
110.967 5300 72.8011
111.083 4582 67.6905
111.199 4385 66.2193
111.316 4959 70.4202
111.432 5849 76.4788
111.549 6265 79.1518
111.665 6390 79.9375
111.782 6325 79.5299
111.898 6151 78.4283
112.015 6189 78.6702
112.132 6174 78.5748
112.248 6115 78.1985
112.365 5953 77.1557
112.482 5946 77.1103
112.599 5790 76.092
112.716 5674 75.326
112.832 5611 74.9066
112.949 5537 74.411
113.066 5718 75.6175
113.183 5534 74.3909
113.3 5536 74.4043
113.417 5321 72.9452
113.534 5430 73.6885
113.652 5312 72.8835
113.769 5190 72.0417
113.886 5034 70.9507
114.003 5104 71.4423
114.12 4923 70.1641
114.238 4950 70.3562
114.355 4906 70.0428
114.472 4341 65.8863
114.589 3723 61.0164
114.707 3394 58.258
114.824 3328 57.6888
114.942 4012 63.3404
115.059 4486 66.9776
115.176 4661 68.2715
115.294 4621 67.9779
115.411 4456 66.7533
115.529 4430 66.5582
115.646 4420 66.4831
115.764 4231 65.0461
115.881 4184 64.6838
115.999 4207 64.8614
116.116 4189 64.7225
116.234 4070 63.7966
116.351 3991 63.1744
116.469 3986 63.1348
116.586 3863 62.153
116.704 3800 61.6441
116.821 3772 61.4166
116.939 3750 61.2372
117.056 3725 61.0328
117.174 3653 60.4401
117.291 3638 60.3158
117.409 3596 59.9667
117.526 3490 59.0762
117.644 3471 58.9152
117.761 3485 59.0339
117.879 3383 58.1636
117.996 3340 57.7927
118.114 3336 57.7581
118.231 3182 56.4092
118.349 2698 51.9423
118.466 2581 50.8035
118.584 2835 53.2447
118.701 3111 55.7763
118.819 3185 56.4358
118.936 3323 57.6455
119.053 3172 56.3205
119.171 3120 55.857
119.288 3178 56.3738
119.405 3092 55.6058
119.523 2962 54.4243
119.64 3009 54.8544
119.757 2944 54.2586
119.875 2961 54.4151
119.992 2952 54.3323
120.109 2913 53.9722
120.226 2982 54.6077
120.343 2933 54.1572
120.46 2865 53.5257
120.578 2924 54.074
120.695 2854 53.4228
120.812 2885 53.7122
120.929 2907 53.9166
121.046 2900 53.8516
121.163 2879 53.6563
121.279 2930 54.1295
121.396 2754 52.4786
121.513 2383 48.816
121.63 2265 47.592
121.747 2249 47.4236
121.863 2562 50.6162
121.98 2837 53.2635
122.097 2806 52.9717
122.213 2746 52.4023
122.33 2681 51.7784
122.446 2786 52.7826
122.563 3013 54.8908
122.679 2934 54.1664
122.795 2960 54.4059
122.912 2944 54.2586
123.028 3017 54.9272
123.144 2980 54.5894
123.26 2980 54.5894
123.377 0 1
123.493 0 1
123.609 0 1
123.725 0 1
123.84 0 1
123.956 0 1
124.072 0 1
124.188 0 1
124.303 0 1
124.419 0 1
126.852 0 1
126.968 0 1
127.083 0 1
127.199 0 1
127.315 0 1
127.431 0 1
127.547 0 1
127.663 0 1
127.779 0 1
127.895 0 1
128.011 0 1
128.127 0 1
128.243 0 1
128.359 4150 64.4205
128.476 4295 65.5362
128.592 4342 65.8939
128.708 4340 65.8787
128.825 4453 66.7308
128.941 4434 66.5883
129.058 4487 66.9851
129.174 4572 67.6166
129.291 4562 67.5426
129.408 4601 67.8307
129.524 4735 68.8113
129.641 4656 68.2349
129.758 4700 68.5565
129.875 4819 69.419
129.992 4672 68.352
130.108 4496 67.0522
130.225 4282 65.437
130.342 3801 61.6523
130.459 3060 55.3173
130.576 2687 51.8363
130.693 2644 51.4198
130.81 3356 57.931
130.928 4373 66.1287
131.045 4997 70.6895
131.162 5209 72.1734
131.279 5091 71.3512
131.396 5106 71.4563
131.513 5367 73.2598
131.631 5423 73.641
131.748 5382 73.3621
131.865 5346 73.1163
131.983 5351 73.1505
132.1 5333 73.0274
132.217 5504 74.1889
132.335 5510 74.2294
132.452 5420 73.6206
132.57 5482 74.0405
132.687 5434 73.7157
132.804 5879 76.6746
132.922 5547 74.4782
133.039 5563 74.5855
133.157 5626 75.0067
133.274 5503 74.1822
133.392 5802 76.1709
133.509 5711 75.5712
133.627 5550 74.4983
133.744 5138 71.6798
133.862 4744 68.8767
133.979 4157 64.4748
134.097 3623 60.1914
134.214 3412 58.4123
134.332 3368 58.0345
134.449 4113 64.1327
134.567 5419 73.6139
134.684 5841 76.4264
134.802 6083 77.9936
134.919 6178 78.6003
135.037 6151 78.4283
135.154 6186 78.6511
135.272 6232 78.943
135.389 6280 79.2465
135.507 6324 79.5236
135.624 6452 80.3243
135.742 6430 80.1873
135.859 6497 80.604
135.977 6283 79.2654
136.094 6335 79.5927
136.211 6402 80.0125
136.329 6618 81.3511
136.446 6371 79.8185
136.564 6550 80.9321
136.681 6662 81.6211
136.798 6686 81.768
136.915 6731 82.0427
137.033 6591 81.185
137.15 6372 79.8248
137.267 6236 78.9683
137.384 5776 76
137.502 5301 72.808
137.619 4937 70.2638
137.736 4571 67.6092
137.853 4209 64.8768
137.97 4238 65.0999
138.087 4836 69.5414
138.204 5586 74.7395
138.321 6537 80.8517
138.438 7182 84.7467
138.555 7056 84
138.672 7272 85.276
138.788 7284 85.3464
138.905 7282 85.3346
139.022 7168 84.664
139.139 7341 85.6796
139.255 7346 85.7088
139.372 7412 86.093
139.488 7341 85.6796
139.605 7394 85.9884
139.721 7343 85.6913
139.838 7442 86.267
139.954 7589 87.1149
140.071 7316 85.5336
140.187 7389 85.9593
140.303 7270 85.2643
140.419 7396 86
140.535 7330 85.6154
140.652 7179 84.729
140.768 0 1
140.884 0 1
141 0 1
141.115 0 1
141.231 0 1
141.347 0 1
141.463 0 1
141.578 0 1
141.694 0 1
144.104 0 1
144.219 0 1
144.335 0 1
144.45 0 1
144.566 0 1
144.682 0 1
144.798 0 1
144.914 0 1
145.03 0 1
145.146 7209 84.9058
145.262 7303 85.4576
145.378 7311 85.5044
145.494 7273 85.2819
145.61 7195 84.8233
145.726 7131 84.4452
145.842 6699 81.8474
145.959 6263 79.1391
146.075 5969 77.2593
146.192 5592 74.7797
146.308 5585 74.7329
146.425 5192 72.0555
146.541 5114 71.5122
146.658 5430 73.6885
146.774 5727 75.6769
146.891 6240 78.9937
147.008 6763 82.2375
147.125 7437 86.238
147.241 7542 86.8447
147.358 7522 86.7295
147.475 7693 87.7097
147.592 7465 86.4002
147.709 7581 87.0689
147.826 7551 86.8965
147.943 7657 87.5043
148.06 7401 86.0291
148.177 7449 86.3076
148.294 7646 87.4414
148.411 7433 86.2148
148.528 7504 86.6256
148.645 7260 85.2056
148.762 7505 86.6314
148.88 7410 86.0814
148.997 7105 84.2912
149.114 7544 86.8562
149.231 7232 85.0412
149.349 7043 83.9226
149.466 6787 82.3833
149.583 6435 80.2185
149.701 6066 77.8845
149.818 5855 76.518
149.935 5497 74.1418
150.053 5484 74.054
150.17 5512 74.2428
150.287 5686 75.4056
150.405 5874 76.642
150.522 6414 80.0875
150.64 6690 81.7924
150.757 7249 85.1411
150.875 7529 86.7698
150.992 7627 87.3327
151.11 7435 86.2264
151.227 7710 87.8066
151.344 7654 87.4871
151.462 7668 87.5671
151.579 7807 88.3572
151.697 7603 87.1952
151.814 7731 87.9261
151.932 7741 87.983
152.049 7848 88.5889
152.167 7713 87.8237
152.284 7891 88.8313
152.402 7618 87.2812
152.519 7755 88.0625
152.636 7531 86.7813
152.754 7579 87.0575
152.871 7380 85.9069
152.989 7117 84.3623
153.106 6918 83.1745
153.223 6612 81.3142
153.341 6315 79.467
153.458 5913 76.896
153.575 5827 76.3348
153.693 5835 76.3872
153.81 5914 76.9025
153.927 6221 78.8733
154.044 6479 80.4922
154.162 6900 83.0662
154.279 7369 85.8429
154.396 7855 88.6284
154.513 7902 88.8932
154.63 8139 90.2164
154.747 8213 90.6256
154.864 7985 89.3588
154.981 8040 89.666
155.098 8034 89.6326
155.215 8086 89.9222
155.332 8077 89.8721
155.449 8056 89.7552
155.566 8104 90.0222
155.683 8022 89.5656
155.8 8211 90.6146
155.917 8141 90.2275
156.033 8083 89.9055
156.15 0 1
156.267 0 1
156.383 0 1
156.5 0 1
156.617 0 1
156.733 0 1
156.85 0 1
156.966 0 1
157.082 0 1
157.199 0 1
157.315 0 1
157.431 0 1
157.547 0 1
157.664 0 1
157.78 0 1
157.896 0 1
158.012 0 1
158.128 0 1
158.244 0 1
158.359 0 1
158.475 0 1
158.591 0 1
158.706 0 1
