
6.15755 0 1
6.2731 0 1
6.3887 0 1
6.50437 0 1
6.62009 0 1
6.73587 0 1
6.8517 0 1
6.96759 0 1
7.08353 0 1
7.19952 0 1
7.31557 0 1
7.43166 0 1
7.54781 0 1
7.664 0 1
7.78024 0 1
7.89653 0 1
8.01286 0 1
8.12924 0 1
8.24567 0 1
8.36213 0 1
8.47864 0 1
8.59519 0 1
8.71178 0 1
8.82841 0 1
8.94508 0 1
9.06179 0 1
9.17853 0 1
9.29531 0 1
9.41212 0 1
9.52897 0 1
9.64584 0 1
9.76276 0 1
9.8797 0 1
9.99667 0 1
10.1137 0 1
10.2307 0 1
10.3478 0 1
10.4648 0 1
10.5819 0 1
10.6991 0 1
10.8162 0 1
10.9334 0 1
11.0506 0 1
11.1678 0 1
11.285 0 1
11.4023 0 1
11.5196 0 1
11.6369 0 1
11.7542 0 1
11.8715 0 1
11.9888 0 1
12.1062 0 1
12.2235 0 1
12.3409 0 1
12.4582 0 1
12.5756 0 1
12.693 0 1
12.8104 0 1
12.9278 0 1
13.0452 0 1
13.1626 0 1
13.28 0 1
13.3974 0 1
13.5149 0 1
13.6323 0 1
13.7497 0 1
13.8671 0 1
13.9845 0 1
14.1019 0 1
14.2193 0 1
14.3367 0 1
14.4541 0 1
14.5714 0 1
14.6888 0 1
14.8062 0 1
14.9235 0 1
15.0408 7998 89.4315
15.1581 8620 92.844
15.2755 8938 94.541
15.3927 9230 96.0729
15.51 9014 94.9421
15.6273 8888 94.2762
15.7445 8764 93.6162
15.8617 8564 92.5419
15.9789 8483 92.1032
16.0961 8488 92.1303
16.2132 8091 89.95
16.3304 8120 90.111
16.4475 7971 89.2805
16.5646 7878 88.7581
16.6816 7422 86.151
16.7986 7327 85.5979
16.9156 7247 85.1293
17.0326 7264 85.2291
17.1496 7161 84.6227
17.2665 6973 83.5045
17.3833 7123 84.3979
17.5002 6986 83.5823
17.617 7126 84.4156
17.7338 7159 84.6109
17.8505 7433 86.2148
17.9672 7604 87.2009
18.0839 7623 87.3098
18.2005 7788 88.2496
18.3171 7922 89.0056
18.4337 7950 89.1628
18.5502 8184 90.4655
18.6666 8182 90.4544
18.7831 8478 92.0761
18.8994 8379 91.5369
19.0158 8113 90.0722
19.1321 7711 87.8123
19.2483 7509 86.6545
19.3645 6980 83.5464
19.4806 6716 81.9512
19.5967 6506 80.6598
19.7128 6098 78.0897
19.8288 5606 74.8732
19.9447 5136 71.6659
20.0606 0 1
20.1764 0 1
20.2922 0 1
20.4079 0 1
20.5236 0 1
20.6392 0 1
20.7548 0 1
20.8702 0 1
23.3078 0 1
23.4233 0 1
23.539 0 1
23.6547 0 1
23.7704 0 1
23.8862 0 1
24.0021 0 1
24.118 0 1
24.234 0 1
24.35 0 1
24.4661 3611 60.0916
24.5822 4090 63.9531
24.6984 4445 66.6708
24.8146 5062 71.1477
24.9309 5647 75.1465
25.0472 6249 79.0506
25.1636 6662 81.6211
25.28 7237 85.0706
25.3965 7455 86.3423
25.513 7945 89.1347
25.6296 8109 90.05
25.7462 8350 91.3783
25.8628 8071 89.8387
25.9795 8398 91.6406
26.0962 8425 91.7878
26.213 8397 91.6351
26.3298 8222 90.6752
26.4466 8154 90.2995
26.5635 8248 90.8185
26.6804 8378 91.5314
26.7973 8454 91.9456
26.9143 8584 92.6499
27.0313 8224 90.6863
27.1483 8342 91.3345
27.2653 8524 92.3255
27.3824 8748 93.5307
27.4996 8941 94.5569
27.6167 8856 94.1063
27.7339 8633 92.9139
27.8511 8534 92.3797
27.9683 8184 90.4655
28.0855 8244 90.7965
28.2028 8216 90.6422
28.3201 8134 90.1887
28.4374 8262 90.8955
28.5547 8286 91.0275
28.6721 8376 91.5205
28.7894 8488 92.1303
28.9068 8628 92.887
29.0242 8365 91.4604
29.1416 8186 90.4765
29.259 8142 90.233
29.3764 8254 90.8515
29.4939 8097 89.9833
29.6113 7929 89.0449
29.7288 7941 89.1123
29.8463 8224 90.6863
29.9638 8301 91.1098
30.0812 8363 91.4494
30.1987 8337 91.3072
30.3162 8493 92.1575
30.4337 8412 91.717
30.5512 8476 92.0652
30.6687 8459 91.9728
30.7862 8727 93.4184
30.9037 8880 94.2338
31.0212 9003 94.8841
31.1387 9057 95.1683
31.2562 8894 94.308
31.3737 8623 92.8601
31.4912 8734 93.4559
31.6087 8383 91.5587
31.7262 8538 92.4013
31.8436 8372 91.4986
31.9611 8421 91.766
32.0785 8484 92.1086
32.1959 8527 92.3418
32.3134 8633 92.9139
32.4308 8823 93.9308
32.5482 8575 92.6013
32.6655 8629 92.8924
32.7829 8307 91.1427
32.9002 8323 91.2305
33.0176 8201 90.5594
33.1349 8150 90.2774
33.2522 8281 91
33.3694 8079 89.8833
33.4867 8204 90.5759
33.6039 8516 92.2822
33.7211 8557 92.5041
33.8383 8614 92.8116
33.9554 8610 92.7901
34.0725 8522 92.3147
34.1896 8428 91.8041
34.3067 8478 92.0761
34.4237 8629 92.8924
34.5407 9033 95.0421
34.6577 9062 95.1945
34.7746 9255 96.2029
34.8915 9188 95.8541
35.0084 9047 95.1157
35.1252 8788 93.7443
35.242 8693 93.2363
35.3587 8546 92.4446
35.4755 8735 93.4612
35.5921 8554 92.4878
35.7088 8605 92.7631
35.8254 8629 92.8924
35.9419 8489 92.1358
36.0584 8488 92.1303
36.1749 8483 92.1032
36.2913 8301 91.1098
36.4077 7977 89.3141
36.524 7578 87.0517
36.6403 7046 83.9405
36.7565 6426 80.1623
36.8727 6076 77.9487
36.9889 5618 74.9533
37.1049 5124 71.5821
37.221 0 1
37.3369 0 1
37.4529 0 1
37.5687 0 1
37.6845 0 1
37.8003 0 1
37.916 0 1
38.0316 0 1
38.1472 0 1
40.5851 0 1
40.7008 0 1
40.8164 0 1
40.9322 0 1
41.048 0 1
41.1639 0 1
41.2798 0 1
41.3958 0 1
41.5118 0 1
41.6279 0 1
41.744 4594 67.7791
41.8602 5437 73.736
41.9765 6067 77.8909
42.0928 7035 83.8749
42.2091 7523 86.7352
42.3255 8039 89.6605
42.4419 8493 92.1575
42.5584 8798 93.7977
42.675 9293 96.4002
42.7915 9177 95.7967
42.9081 9378 96.8401
43.0248 9271 96.286
43.1415 9711 98.5444
43.2582 10125 100.623
43.375 10912 104.461
43.4918 11306 106.33
43.6087 11707 108.199
43.7256 11661 107.986
43.8425 11748 108.388
43.9595 12031 109.686
44.0765 12078 109.9
44.1935 12258 110.716
44.3106 12450 111.58
44.4277 12617 112.325
44.5448 12387 111.297
44.6619 12235 110.612
44.7791 12527 111.924
44.8963 12652 112.481
45.0136 12687 112.637
45.1308 12662 112.526
45.2481 12581 112.165
45.3654 12479 111.709
45.4827 12420 111.445
45.6001 12118 110.082
45.7174 12080 109.909
45.8348 11878 108.986
45.9522 11770 108.49
46.0697 11528 107.369
46.1871 11179 105.731
46.3046 10960 104.69
46.422 10450 102.225
46.5395 10032 100.16
46.657 10228 101.134
46.7745 10341 101.691
46.892 10814 103.99
47.0096 11334 106.461
47.1271 11205 105.854
47.2446 11374 106.649
47.3622 10946 104.623
47.4797 10715 103.513
47.5973 10550 102.713
47.7149 10517 102.552
47.8324 10204 101.015
47.95 10157 100.782
48.0675 10159 100.792
48.1851 9776 98.8737
48.3027 9592 97.9388
48.4202 9667 98.3209
48.5378 9409 97
48.6554 9170 95.7601
48.7729 9264 96.2497
48.8904 9279 96.3276
49.008 9207 95.9531
49.1255 9033 95.0421
49.243 8923 94.4616
49.3605 9119 95.4935
49.478 8797 93.7923
49.5955 8852 94.0851
49.713 8787 93.739
49.8304 8920 94.4458
49.9479 8741 93.4933
50.0653 8668 93.1021
50.1827 8961 94.6626
50.3001 9265 96.2549
50.4175 9509 97.5141
50.5348 9902 99.5088
50.6521 10308 101.528
50.7694 10549 102.708
50.8867 10492 102.43
51.004 10362 101.794
51.1212 10454 102.245
51.2384 10504 102.489
51.3556 10254 101.262
51.4727 10118 100.588
51.5899 9942 99.7096
51.707 10052 100.26
51.824 9844 99.2169
51.9411 9943 99.7146
52.0581 9617 98.0663
52.175 9635 98.158
52.2919 9514 97.5397
52.4088 9575 97.8519
52.5257 9557 97.7599
52.6425 9275 96.3068
52.7593 9225 96.0469
52.876 9012 94.9316
52.9927 8980 94.7629
53.1094 8967 94.6942
53.226 8881 94.2391
53.3426 8577 92.6121
53.4591 8236 90.7524
53.5756 7788 88.2496
53.692 7351 85.738
53.8084 7371 85.8545
53.9248 7077 84.1249
54.0411 6460 80.3741
54.1573 6044 77.7432
54.2735 0 1
54.3896 0 1
54.5057 0 1
54.6217 0 1
54.7377 0 1
54.8537 0 1
54.9695 0 1
55.0853 0 1
55.2011 0 1
55.3168 0 1
55.4324 0 1
57.824 0 1
57.9396 0 1
58.0553 0 1
58.1711 0 1
58.2869 0 1
58.4028 0 1
58.5187 0 1
58.6347 0 1
58.7508 0 1
58.8669 0 1
58.983 8094 89.9667
59.0992 9140 95.6033
59.2155 10237 101.178
59.3318 11053 105.133
59.4482 12156 110.254
59.5646 12858 113.393
59.681 13331 115.46
59.7975 13482 116.112
59.9141 13522 116.284
60.0306 13510 116.233
60.1473 13550 116.404
60.2639 13331 115.46
60.3807 13484 116.121
60.4974 13385 115.694
60.6142 13152 114.682
60.731 13171 114.765
60.8479 13152 114.682
60.9648 12664 112.534
61.0818 12748 112.907
61.1987 12975 113.908
61.3158 13116 114.525
61.4328 12797 113.124
61.5499 12934 113.728
61.667 12665 112.539
61.7841 12982 113.939
61.9013 12736 112.854
62.0185 12653 112.486
62.1357 12461 111.629
62.253 12637 112.414
62.3702 13386 115.698
62.4875 13886 117.839
62.6049 14126 118.853
62.7222 14673 121.132
62.8396 15137 123.033
62.9569 15565 124.76
63.0743 15607 124.928
63.1918 15546 124.684
63.3092 15349 123.891
63.4267 15569 124.776
63.5441 14748 121.441
63.6616 14482 120.341
63.7791 14178 119.071
63.8966 14408 120.033
64.0142 14210 119.206
64.1317 13985 118.258
64.2492 13661 116.88
64.3668 13133 114.599
64.4843 13044 114.21
64.6019 13024 114.123
64.7195 13300 115.326
64.837 13154 114.691
64.9546 13123 114.556
65.0722 13137 114.617
65.1898 13323 115.425
65.3074 12999 114.013
65.4249 12904 113.596
65.5425 12598 112.241
65.6601 12499 111.799
65.7777 12803 113.15
65.8952 13136 114.612
66.0128 13974 118.212
66.1304 14304 119.599
66.2479 15080 122.801
66.3655 15361 123.94
66.483 16004 126.507
66.6005 16096 126.87
66.718 16016 126.554
66.8355 16408 128.094
66.953 15954 126.309
67.0705 15691 125.264
67.1879 15012 122.523
67.3054 14781 121.577
67.4228 14500 120.416
67.5402 14168 119.029
67.6576 13954 118.127
67.7749 13953 118.123
67.8923 13623 116.718
68.0096 13514 116.25
68.1269 13314 115.386
68.2442 13621 116.709
68.3614 13489 116.142
68.4787 13592 116.585
68.5958 13767 117.333
68.713 13600 116.619
68.8302 13389 115.711
68.9473 13401 115.763
69.0643 12891 113.539
69.1814 12626 112.365
69.2984 12159 110.268
69.4154 12287 110.847
69.5323 12773 113.018
69.6492 13233 115.035
69.7661 13982 118.246
69.8829 14453 120.221
69.9997 14366 119.858
70.1165 14303 119.595
70.2332 14271 119.461
70.3499 13684 116.979
70.4665 12866 113.428
70.5831 12095 109.977
70.6996 10971 104.743
70.8161 9910 99.549
70.9326 9129 95.5458
71.049 8339 91.3181
71.1653 7843 88.5607
71.2817 7175 84.7054
71.3979 6678 81.719
71.5141 6398 79.9875
71.6303 5983 77.3499
71.7464 5247 72.4362
71.8624 0 1
71.9784 0 1
72.0944 0 1
72.2102 0 1
72.3261 0 1
72.4418 0 1
72.5575 0 1
72.6732 0 1
75.1054 0 1
75.2209 0 1
75.3365 0 1
75.4521 0 1
75.5678 0 1
75.6835 0 1
75.7993 0 1
75.9151 0 1
76.031 0 1
76.147 11154 105.612
76.263 11856 108.885
76.3791 12145 110.204
76.4952 12122 110.1
76.6113 12129 110.132
76.7276 12404 111.373
76.8438 12306 110.932
76.9601 12529 111.933
77.0765 12780 113.049
77.1929 12952 113.807
77.3093 13158 114.708
77.4258 13745 117.239
77.5423 13560 116.447
77.6589 13811 117.52
77.7755 13805 117.495
77.8921 13448 115.966
78.0088 12830 113.27
78.1256 12297 110.892
78.2423 12033 109.695
78.3591 11865 108.927
78.4759 12532 111.946
78.5928 13436 115.914
78.7097 14314 119.641
78.8266 14835 121.799
78.9436 15300 123.693
79.0606 15486 124.443
79.1776 16103 126.898
79.2946 16565 128.705
79.4117 16816 129.677
79.5288 17086 130.713
79.6459 17109 130.801
79.7631 16283 127.605
79.8802 15786 125.642
79.9974 14894 122.041
80.1147 14783 121.585
80.2319 14599 120.826
80.3491 14763 121.503
80.4664 14883 121.996
80.5837 14875 121.963
80.701 14682 121.169
80.8183 14593 120.801
80.9357 14707 121.272
81.053 15112 122.931
81.1704 15538 124.652
81.2877 15534 124.635
81.4051 15469 124.374
81.5225 15188 123.24
81.6399 14893 122.037
81.7573 13828 117.593
81.8747 13666 116.902
81.9922 13141 114.634
82.1096 13623 116.718
82.227 14528 120.532
82.3444 15802 125.706
82.4619 16863 129.858
82.5793 17267 131.404
82.6967 17539 132.435
82.8142 17762 133.274
82.9316 18657 136.591
83.049 18528 136.118
83.1664 18775 137.022
83.2838 18343 135.436
83.4012 17759 133.263
83.5186 16952 130.2
83.636 16289 127.628
83.7534 16456 128.281
83.8708 16398 128.055
83.9881 16175 127.181
84.1055 16254 127.491
84.2228 16280 127.593
84.3401 16429 128.176
84.4575 16501 128.456
84.5747 16765 129.48
84.692 17343 131.693
84.8093 17752 133.237
84.9265 17264 131.393
85.0437 16916 130.062
85.1609 16564 128.701
85.2781 15619 124.976
85.3952 14877 121.971
85.5123 14132 118.878
85.6294 14285 119.52
85.7465 15173 123.179
85.8636 16293 127.644
85.9806 17114 130.82
86.0976 18219 134.978
86.2145 18368 135.529
86.3315 18783 137.051
86.4484 19424 139.37
86.5652 19566 139.879
86.682 19559 139.853
86.7988 19683 140.296
86.9156 19545 139.803
87.0323 18768 136.996
87.149 18036 134.298
87.2657 17710 133.079
87.3823 17213 131.198
87.4988 16472 128.343
87.6154 15920 126.174
87.7318 15209 123.325
87.8483 14190 119.122
87.9647 13512 116.241
88.081 12525 111.915
88.1973 12011 109.595
88.3136 11544 107.443
88.4298 10765 103.755
88.546 9681 98.3921
88.6621 8764 93.6162
88.7781 7932 89.0618
88.8942 0 1
89.0101 0 1
89.126 0 1
89.2419 0 1
89.3577 0 1
89.4734 0 1
89.5891 0 1
89.7047 0 1
89.8203 0 1
89.9358 0 1
92.3269 0 1
92.4424 0 1
92.558 0 1
92.6736 0 1
92.7893 0 1
92.905 0 1
93.0208 0 1
93.1366 0 1
93.2525 0 1
93.3685 0 1
93.4845 0 1
93.6005 15606 124.924
93.7167 17585 132.608
93.8328 18714 136.799
93.949 19712 140.399
94.0653 20274 142.387
94.1816 19925 141.156
94.2979 20082 141.711
94.4143 19299 138.921
94.5307 18408 135.676
94.6472 17521 132.367
94.7637 17234 131.278
94.8803 17565 132.533
94.9969 18812 137.157
95.1135 19934 141.188
95.2302 20892 144.541
95.3469 21905 148.003
95.4637 22667 150.556
95.5805 23017 151.714
95.6973 23408 152.997
95.8142 23939 154.722
95.9311 23577 153.548
96.048 23798 154.266
96.1649 23465 153.183
96.2819 22921 151.397
96.3989 22247 149.154
96.516 21752 147.486
96.633 21896 147.973
96.7501 21451 146.462
96.8673 21887 147.943
96.9844 21554 146.813
97.1016 21378 146.212
97.2188 21680 147.241
97.336 21928 148.081
97.4532 22454 149.847
97.5704 22701 150.669
97.6877 23167 152.207
97.805 23228 152.407
97.9223 22393 149.643
98.0396 21327 146.038
98.1569 20117 141.834
98.2743 18936 137.608
98.3916 18375 135.554
98.509 18425 135.739
98.6264 19880 140.996
98.7438 20776 144.139
98.8612 22043 148.469
98.9786 23084 151.934
99.096 24338 156.006
99.2134 24496 156.512
99.3308 25540 159.812
99.4482 25807 160.646
99.5656 25851 160.782
99.6831 25959 161.118
99.8005 25473 159.603
99.9179 24822 157.55
100.035 23825 154.353
100.153 23591 153.594
100.27 23700 153.948
100.388 23050 151.822
100.505 22932 151.433
100.622 22634 150.446
100.74 22780 150.93
100.857 22590 150.3
100.975 22517 150.057
101.092 23751 154.114
101.209 24239 155.689
101.327 24217 155.618
101.444 24026 155.003
101.561 23331 152.745
101.679 21956 148.176
101.796 20286 142.429
101.913 19436 139.413
102.03 19235 138.69
102.148 19783 140.652
102.265 21074 145.169
102.382 22785 150.947
102.499 24068 155.139
102.616 24976 158.038
102.733 25656 160.175
102.851 26257 162.04
102.968 26365 162.373
103.085 26550 162.942
103.202 26610 163.126
103.319 26347 162.318
103.436 25530 159.781
103.552 24785 157.433
103.669 24391 156.176
103.786 23874 154.512
103.903 23267 152.535
104.02 23150 152.151
104.137 22979 151.588
104.253 22624 150.413
104.37 23198 152.309
104.487 23137 152.109
104.603 23057 151.845
104.72 23121 152.056
104.836 22732 150.771
104.953 20871 144.468
105.069 19174 138.47
105.186 17412 131.955
105.302 15670 125.18
105.418 14180 119.08
105.535 12827 113.256
105.651 11691 108.125
105.767 11566 107.545
105.883 11116 105.432
105.999 10982 104.795
106.115 0 1
106.231 0 1
106.347 0 1
106.463 0 1
106.579 0 1
106.694 0 1
106.81 0 1
106.926 0 1
107.041 0 1
107.157 0 1
109.576 0 1
109.692 0 1
109.807 0 1
109.923 0 1
110.039 0 1
110.155 0 1
110.27 0 1
110.386 0 1
110.502 0 1
110.618 10792 103.885
110.735 13006 114.044
110.851 15320 123.774
110.967 17652 132.861
111.083 19676 140.271
111.199 21509 146.659
111.316 22369 149.563
111.432 22840 151.129
111.549 23190 152.283
111.665 23114 152.033
111.782 23325 152.725
111.898 23145 152.135
112.015 22724 150.745
112.132 21962 148.196
112.248 21434 146.404
112.365 21747 147.469
112.482 21050 145.086
112.599 21750 147.479
112.716 20806 144.243
112.832 21026 145.003
112.949 20919 144.634
113.066 21212 145.643
113.183 21401 146.291
113.3 21816 147.702
113.417 21889 147.949
113.534 21804 147.662
113.652 21148 145.424
113.769 20157 141.975
113.886 18789 137.073
114.003 17329 131.64
114.12 17156 130.981
114.238 17621 132.744
114.355 18858 137.324
114.472 19550 139.821
114.589 22567 150.223
114.707 22964 151.539
114.824 23390 152.938
114.942 23462 153.173
115.059 23760 154.143
115.176 23941 154.729
115.294 23726 154.032
115.411 23634 153.734
115.529 22825 151.079
115.646 22707 150.688
115.764 21763 147.523
115.881 21359 146.147
115.999 21057 145.11
116.116 20736 144
116.234 20393 142.804
116.351 20375 142.741
116.469 20283 142.418
116.586 20097 141.764
116.704 20479 143.105
116.821 20701 143.878
116.939 21543 146.775
117.056 21158 145.458
117.174 20612 143.569
117.291 19961 141.283
117.409 18521 136.092
117.526 17674 132.944
117.644 17140 130.92
117.761 16887 129.95
117.879 17281 131.457
117.996 18240 135.056
118.114 19934 141.188
118.231 21702 147.316
118.349 21873 147.895
118.466 22286 149.285
118.584 22399 149.663
118.701 22339 149.462
118.819 22556 150.187
118.936 21944 148.135
119.053 21630 147.071
119.171 21290 145.911
119.288 21016 144.969
119.405 20306 142.499
119.523 19877 140.986
119.64 19550 139.821
119.757 19234 138.687
119.875 18651 136.569
119.992 18671 136.642
120.109 18624 136.47
120.226 18459 135.864
120.343 18608 136.411
120.46 19000 137.84
120.578 18960 137.695
120.695 19236 138.694
120.812 18853 137.306
120.929 18004 134.179
121.046 16920 130.077
121.163 15991 126.456
121.279 15176 123.191
121.396 14376 119.9
121.513 14549 120.619
121.63 14545 120.603
121.747 15163 123.138
121.863 15579 124.816
121.98 16093 126.858
122.097 15947 126.281
122.213 15164 123.142
122.33 14744 121.425
122.446 13863 117.741
122.563 13116 114.525
122.679 12449 111.575
122.795 11652 107.944
122.912 10727 103.571
123.028 10059 100.295
123.144 9457 97.2471
123.26 8691 93.2255
123.377 0 1
123.493 0 1
123.609 0 1
123.725 0 1
123.84 0 1
123.956 0 1
124.072 0 1
124.188 0 1
124.303 0 1
124.419 0 1
126.852 0 1
126.968 0 1
127.083 0 1
127.199 0 1
127.315 0 1
127.431 0 1
127.547 0 1
127.663 0 1
127.779 0 1
127.895 0 1
128.011 0 1
128.127 0 1
128.243 0 1
128.359 19475 139.553
128.476 19543 139.796
128.592 19655 140.196
128.708 19033 137.96
128.825 18940 137.623
128.941 18631 136.495
129.058 18449 135.827
129.174 18588 136.338
129.291 18373 135.547
129.408 19026 137.935
129.524 18802 137.12
129.641 19390 139.248
129.758 19147 138.373
129.875 18847 137.284
129.992 18359 135.495
130.108 17890 133.754
130.225 17160 130.996
130.342 16199 127.275
130.459 15563 124.752
130.576 15958 126.325
130.693 16300 127.671
130.81 17694 133.019
130.928 18866 137.354
131.045 19365 139.158
131.162 19881 141
131.279 20298 142.471
131.396 20083 141.715
131.513 20032 141.534
131.631 19923 141.149
131.748 19858 140.918
131.865 19727 140.453
131.983 19295 138.906
132.1 19242 138.716
132.217 19038 137.978
132.335 18695 136.73
132.452 18717 136.81
132.57 18575 136.29
132.687 18571 136.275
132.804 18483 135.952
132.922 18472 135.912
133.039 18750 136.931
133.157 18795 137.095
133.274 18947 137.648
133.392 18718 136.814
133.509 18833 137.233
133.627 18247 135.081
133.744 18205 134.926
133.862 17264 131.393
133.979 16740 129.383
134.097 16022 126.578
134.214 16789 129.572
134.332 17467 132.163
134.449 19265 138.798
134.567 20358 142.681
134.684 20874 144.478
134.802 21197 145.592
134.919 21377 146.209
135.037 21270 145.842
135.154 21095 145.241
135.272 21309 145.976
135.389 21144 145.41
135.507 21515 146.68
135.624 21607 146.993
135.742 21391 146.257
135.859 21231 145.709
135.977 21013 144.959
136.094 20846 144.381
136.211 21138 145.389
136.329 20843 144.371
136.446 20644 143.68
136.564 20774 144.132
136.681 20761 144.087
136.798 20806 144.243
136.915 20977 144.834
137.033 21075 145.172
137.15 20740 144.014
137.267 20080 141.704
137.384 19389 139.244
137.502 18659 136.598
137.619 17347 131.708
137.736 17168 131.027
137.853 16645 129.016
137.97 18165 134.778
138.087 19128 138.304
138.204 20196 142.113
138.321 20753 144.059
138.438 20925 144.655
138.555 21453 146.468
138.672 20844 144.375
138.788 20256 142.324
138.905 19475 139.553
139.022 18771 137.007
139.139 17790 133.379
139.255 17150 130.958
139.372 16615 128.899
139.488 15552 124.708
139.605 14354 119.808
139.721 13568 116.482
139.838 12646 112.454
139.954 12180 110.363
140.071 11718 108.25
140.187 10860 104.211
140.303 10462 102.284
140.419 9876 99.3781
140.535 9315 96.5142
140.652 8849 94.0691
140.768 0 1
140.884 0 1
141 0 1
141.115 0 1
141.231 0 1
141.347 0 1
141.463 0 1
141.578 0 1
141.694 0 1
144.104 0 1
144.219 0 1
144.335 0 1
144.45 0 1
144.566 0 1
144.682 0 1
144.798 0 1
144.914 0 1
145.03 0 1
145.146 15064 122.735
145.262 15527 124.607
145.378 15438 124.25
145.494 15752 125.507
145.61 16135 127.024
145.726 15719 125.375
145.842 15837 125.845
145.959 15987 126.44
146.075 15528 124.611
146.192 15233 123.422
146.308 14784 121.589
146.425 14193 119.134
146.541 13749 117.256
146.658 13540 116.362
146.774 13796 117.456
146.891 14528 120.532
147.008 15534 124.635
147.125 15854 125.913
147.241 16290 127.632
147.358 16472 128.343
147.475 16590 128.802
147.592 16383 127.996
147.709 16261 127.519
147.826 16222 127.366
147.943 16117 126.953
148.06 16291 127.636
148.177 16379 127.98
148.294 16508 128.483
148.411 16577 128.752
148.528 16165 127.142
148.645 16014 126.546
148.762 16041 126.653
148.88 15655 125.12
148.997 16100 126.886
149.114 15401 124.101
149.231 15677 125.208
149.349 15959 126.329
149.466 15558 124.732
149.583 16016 126.554
149.701 15571 124.784
149.818 15354 123.911
149.935 14991 122.438
150.053 14413 120.054
150.17 14067 118.604
150.287 13958 118.144
150.405 13811 117.52
150.522 14318 119.658
150.64 15209 123.325
150.757 15720 125.379
150.875 16306 127.695
150.992 16425 128.16
151.11 16562 128.693
151.227 16012 126.539
151.344 15975 126.392
151.462 15763 125.551
151.579 16167 127.15
151.697 16480 128.374
151.814 16241 127.44
151.932 16187 127.228
152.049 15995 126.471
152.167 16143 127.055
152.284 16011 126.535
152.402 15558 124.732
152.519 15538 124.652
152.636 15361 123.94
152.754 15375 123.996
152.871 15369 123.972
152.989 15131 123.008
153.106 15239 123.446
153.223 15228 123.402
153.341 15246 123.475
153.458 15037 122.625
153.575 14468 120.283
153.693 13911 117.945
153.81 13477 116.09
153.927 13154 114.691
154.044 13448 115.966
154.162 14322 119.675
154.279 14616 120.897
154.396 15273 123.584
154.513 15693 125.272
154.63 15975 126.392
154.747 15642 125.068
154.864 15400 124.097
154.981 15307 123.721
155.098 15365 123.956
155.215 15222 123.377
155.332 15455 124.318
155.449 15376 124
155.566 15072 122.768
155.683 14734 121.384
155.8 14405 120.021
155.917 14088 118.693
156.033 13751 117.265
156.15 0 1
156.267 0 1
156.383 0 1
156.5 0 1
156.617 0 1
156.733 0 1
156.85 0 1
156.966 0 1
157.082 0 1
157.199 0 1
157.315 0 1
157.431 0 1
157.547 0 1
157.664 0 1
157.78 0 1
157.896 0 1
158.012 0 1
158.128 0 1
158.244 0 1
158.359 0 1
158.475 0 1
158.591 0 1
158.706 0 1
