
6.15755 0 1
6.2731 0 1
6.3887 0 1
6.50437 0 1
6.62009 0 1
6.73587 0 1
6.8517 0 1
6.96759 0 1
7.08353 0 1
7.19952 0 1
7.31557 0 1
7.43166 0 1
7.54781 0 1
7.664 0 1
7.78024 0 1
7.89653 0 1
8.01286 0 1
8.12924 0 1
8.24567 0 1
8.36213 0 1
8.47864 0 1
8.59519 0 1
8.71178 0 1
8.82841 0 1
8.94508 0 1
9.06179 0 1
9.17853 0 1
9.29531 0 1
9.41212 0 1
9.52897 0 1
9.64584 0 1
9.76276 0 1
9.8797 0 1
9.99667 0 1
10.1137 0 1
10.2307 0 1
10.3478 0 1
10.4648 0 1
10.5819 0 1
10.6991 0 1
10.8162 0 1
10.9334 0 1
11.0506 0 1
11.1678 0 1
11.285 0 1
11.4023 0 1
11.5196 0 1
11.6369 0 1
11.7542 0 1
11.8715 0 1
11.9888 0 1
12.1062 0 1
12.2235 0 1
12.3409 0 1
12.4582 0 1
12.5756 0 1
12.693 0 1
12.8104 0 1
12.9278 0 1
13.0452 0 1
13.1626 0 1
13.28 0 1
13.3974 0 1
13.5149 0 1
13.6323 0 1
13.7497 0 1
13.8671 0 1
13.9845 0 1
14.1019 0 1
14.2193 0 1
14.3367 0 1
14.4541 0 1
14.5714 0 1
14.6888 0 1
14.8062 0 1
14.9235 0 1
15.0408 1022 31.9687
15.1581 1046 32.3419
15.2755 1048 32.3728
15.3927 1135 33.6898
15.51 1048 32.3728
15.6273 1066 32.6497
15.7445 997 31.5753
15.8617 926 30.4302
15.9789 942 30.692
16.0961 955 30.9031
16.2132 922 30.3645
16.3304 928 30.4631
16.4475 910 30.1662
16.5646 940 30.6594
16.6816 941 30.6757
16.7986 867 29.4449
16.9156 911 30.1828
17.0326 896 29.9333
17.1496 899 29.9833
17.2665 811 28.4781
17.3833 876 29.5973
17.5002 875 29.5804
17.617 882 29.6985
17.7338 916 30.2655
17.8505 905 30.0832
17.9672 824 28.7054
18.0839 783 27.9821
18.2005 794 28.178
18.3171 819 28.6182
18.4337 826 28.7402
18.5502 872 29.5296
18.6666 869 29.4788
18.7831 901 30.0167
18.8994 868 29.4618
19.0158 833 28.8617
19.1321 784 28
19.2483 734 27.0924
19.3645 744 27.2764
19.4806 702 26.4953
19.5967 652 25.5343
19.7128 630 25.0998
19.8288 670 25.8844
19.9447 543 23.3024
20.0606 0 1
20.1764 0 1
20.2922 0 1
20.4079 0 1
20.5236 0 1
20.6392 0 1
20.7548 0 1
20.8702 0 1
23.3078 0 1
23.4233 0 1
23.539 0 1
23.6547 0 1
23.7704 0 1
23.8862 0 1
24.0021 0 1
24.118 0 1
24.234 0 1
24.35 0 1
24.4661 638 25.2587
24.5822 654 25.5734
24.6984 758 27.5318
24.8146 886 29.7658
24.9309 860 29.3258
25.0472 844 29.0517
25.1636 886 29.7658
25.28 879 29.6479
25.3965 933 30.545
25.513 867 29.4449
25.6296 899 29.9833
25.7462 916 30.2655
25.8628 962 31.0161
25.9795 970 31.1448
26.0962 872 29.5296
26.213 912 30.1993
26.3298 909 30.1496
26.4466 862 29.3598
26.5635 809 28.4429
26.6804 732 27.0555
26.7973 695 26.3629
26.9143 775 27.8388
27.0313 733 27.074
27.1483 783 27.9821
27.2653 762 27.6043
27.3824 790 28.1069
27.4996 773 27.8029
27.6167 753 27.4408
27.7339 752 27.4226
27.8511 753 27.4408
27.9683 781 27.9464
28.0855 769 27.7308
28.2028 695 26.3629
28.3201 846 29.0861
28.4374 880 29.6648
28.5547 805 28.3725
28.6721 821 28.6531
28.7894 792 28.1425
28.9068 715 26.7395
29.0242 853 29.2062
29.1416 806 28.3901
29.259 787 28.0535
29.3764 787 28.0535
29.4939 726 26.9444
29.6113 766 27.6767
29.7288 784 28
29.8463 720 26.8328
29.9638 790 28.1069
30.0812 707 26.5895
30.1987 694 26.3439
30.3162 660 25.6905
30.4337 661 25.7099
30.5512 704 26.533
30.6687 755 27.4773
30.7862 770 27.7489
30.9037 811 28.4781
31.0212 780 27.9285
31.1387 811 28.4781
31.2562 752 27.4226
31.3737 813 28.5132
31.4912 729 27
31.6087 701 26.4764
31.7262 780 27.9285
31.8436 772 27.7849
31.9611 778 27.8927
32.0785 787 28.0535
32.1959 775 27.8388
32.3134 782 27.9643
32.4308 682 26.1151
32.5482 696 26.3818
32.6655 688 26.2298
32.7829 765 27.6586
32.9002 717 26.7769
33.0176 664 25.7682
33.1349 702 26.4953
33.2522 667 25.8263
33.3694 684 26.1534
33.4867 744 27.2764
33.6039 671 25.9037
33.7211 649 25.4755
33.8383 649 25.4755
33.9554 637 25.2389
34.0725 720 26.8328
34.1896 693 26.3249
34.3067 713 26.7021
34.4237 687 26.2107
34.5407 712 26.6833
34.6577 660 25.6905
34.7746 734 27.0924
34.8915 687 26.2107
35.0084 665 25.7876
35.1252 648 25.4558
35.242 587 24.2281
35.3587 620 24.8998
35.4755 659 25.671
35.5921 683 26.1343
35.7088 662 25.7294
35.8254 667 25.8263
35.9419 670 25.8844
36.0584 655 25.593
36.1749 698 26.4197
36.2913 652 25.5343
36.4077 649 25.4755
36.524 639 25.2784
36.6403 600 24.4949
36.7565 615 24.7992
36.8727 580 24.0832
36.9889 526 22.9347
37.1049 421 20.5183
37.221 0 1
37.3369 0 1
37.4529 0 1
37.5687 0 1
37.6845 0 1
37.8003 0 1
37.916 0 1
38.0316 0 1
38.1472 0 1
40.5851 0 1
40.7008 0 1
40.8164 0 1
40.9322 0 1
41.048 0 1
41.1639 0 1
41.2798 0 1
41.3958 0 1
41.5118 0 1
41.6279 0 1
41.744 306 17.4929
41.8602 367 19.1572
41.9765 420 20.4939
42.0928 478 21.8632
42.2091 486 22.0454
42.3255 492 22.1811
42.4419 548 23.4094
42.5584 512 22.6274
42.675 538 23.1948
42.7915 536 23.1517
42.9081 530 23.0217
43.0248 618 24.8596
43.1415 583 24.1454
43.2582 550 23.4521
43.375 590 24.2899
43.4918 564 23.7487
43.6087 550 23.4521
43.7256 550 23.4521
43.8425 562 23.7065
43.9595 502 22.4054
44.0765 511 22.6053
44.1935 487 22.0681
44.3106 485 22.0227
44.4277 557 23.6008
44.5448 547 23.388
44.6619 550 23.4521
44.7791 545 23.3452
44.8963 571 23.8956
45.0136 513 22.6495
45.1308 614 24.779
45.2481 550 23.4521
45.3654 605 24.5967
45.4827 563 23.7276
45.6001 568 23.8328
45.7174 607 24.6374
45.8348 584 24.1661
45.9522 596 24.4131
46.0697 547 23.388
46.1871 540 23.2379
46.3046 487 22.0681
46.422 542 23.2809
46.5395 540 23.2379
46.657 584 24.1661
46.7745 529 23
46.892 548 23.4094
47.0096 532 23.0651
47.1271 538 23.1948
47.2446 541 23.2594
47.3622 545 23.3452
47.4797 535 23.1301
47.5973 517 22.7376
47.7149 492 22.1811
47.8324 505 22.4722
47.95 506 22.4944
48.0675 556 23.5797
48.1851 598 24.454
48.3027 552 23.4947
48.4202 554 23.5372
48.5378 558 23.622
48.6554 577 24.0208
48.7729 587 24.2281
48.8904 632 25.1396
49.008 597 24.4336
49.1255 680 26.0768
49.243 640 25.2982
49.3605 617 24.8395
49.478 598 24.454
49.5955 588 24.2487
49.713 561 23.6854
49.8304 541 23.2594
49.9479 517 22.7376
50.0653 526 22.9347
50.1827 616 24.8193
50.3001 619 24.8797
50.4175 573 23.9374
50.5348 592 24.3311
50.6521 556 23.5797
50.7694 590 24.2899
50.8867 573 23.9374
51.004 544 23.3238
51.1212 512 22.6274
51.2384 505 22.4722
51.3556 545 23.3452
51.4727 537 23.1733
51.5899 585 24.1868
51.707 601 24.5153
51.824 635 25.1992
51.9411 671 25.9037
52.0581 662 25.7294
52.175 823 28.688
52.2919 805 28.3725
52.4088 778 27.8927
52.5257 781 27.9464
52.6425 731 27.037
52.7593 787 28.0535
52.876 779 27.9106
52.9927 758 27.5318
53.1094 689 26.2488
53.226 709 26.6271
53.3426 738 27.1662
53.4591 892 29.8664
53.5756 1233 35.1141
53.692 1826 42.7317
53.8084 2607 51.0588
53.9248 3556 59.6322
54.0411 4391 66.2646
54.1573 4876 69.8284
54.2735 0 1
54.3896 0 1
54.5057 0 1
54.6217 0 1
54.7377 0 1
54.8537 0 1
54.9695 0 1
55.0853 0 1
55.2011 0 1
55.3168 0 1
55.4324 0 1
57.824 0 1
57.9396 0 1
58.0553 0 1
58.1711 0 1
58.2869 0 1
58.4028 0 1
58.5187 0 1
58.6347 0 1
58.7508 0 1
58.8669 0 1
58.983 3469 58.8982
59.0992 4167 64.5523
59.2155 4365 66.0681
59.3318 4544 67.4092
59.4482 4872 69.7997
59.5646 5068 71.1899
59.681 5095 71.3793
59.7975 5026 70.8943
59.9141 4565 67.5648
60.0306 3765 61.3596
60.1473 3022 54.9727
60.2639 2474 49.7393
60.3807 1919 43.8064
60.4974 1868 43.2204
60.6142 1944 44.0908
60.731 1911 43.715
60.8479 1715 41.4126
60.9648 1672 40.8901
61.0818 1534 39.1663
61.1987 1428 37.7889
61.3158 1340 36.606
61.4328 1338 36.5787
61.5499 1151 33.9264
61.667 1033 32.1403
61.7841 1004 31.686
61.9013 996 31.5595
62.0185 878 29.6311
62.1357 856 29.2575
62.253 849 29.1376
62.3702 933 30.545
62.4875 870 29.4958
62.6049 833 28.8617
62.7222 794 28.178
62.8396 776 27.8568
62.9569 748 27.3496
63.0743 734 27.0924
63.1918 761 27.5862
63.3092 695 26.3629
63.4267 683 26.1343
63.5441 656 25.6125
63.6616 622 24.9399
63.7791 606 24.6171
63.8966 643 25.3574
64.0142 581 24.1039
64.1317 604 24.5764
64.2492 589 24.2693
64.3668 601 24.5153
64.4843 631 25.1197
64.6019 563 23.7276
64.7195 631 25.1197
64.837 640 25.2982
64.9546 681 26.096
65.0722 659 25.671
65.1898 614 24.779
65.3074 629 25.0799
65.4249 604 24.5764
65.5425 614 24.779
65.6601 589 24.2693
65.7777 630 25.0998
65.8952 606 24.6171
66.0128 610 24.6982
66.1304 615 24.7992
66.2479 624 24.98
66.3655 591 24.3105
66.483 630 25.0998
66.6005 616 24.8193
66.718 600 24.4949
66.8355 651 25.5147
66.953 643 25.3574
67.0705 582 24.1247
67.1879 603 24.5561
67.3054 532 23.0651
67.4228 573 23.9374
67.5402 584 24.1661
67.6576 605 24.5967
67.7749 619 24.8797
67.8923 594 24.3721
68.0096 609 24.6779
68.1269 581 24.1039
68.2442 562 23.7065
68.3614 556 23.5797
68.4787 595 24.3926
68.5958 594 24.3721
68.713 588 24.2487
68.8302 622 24.9399
68.9473 595 24.3926
69.0643 665 25.7876
69.1814 582 24.1247
69.2984 586 24.2074
69.4154 601 24.5153
69.5323 571 23.8956
69.6492 591 24.3105
69.7661 621 24.9199
69.8829 588 24.2487
69.9997 593 24.3516
70.1165 564 23.7487
70.2332 571 23.8956
70.3499 578 24.0416
70.4665 542 23.2809
70.5831 529 23
70.6996 504 22.4499
70.8161 479 21.8861
70.9326 386 19.6469
71.049 376 19.3907
71.1653 299 17.2916
71.2817 279 16.7033
71.3979 269 16.4012
71.5141 267 16.3401
71.6303 235 15.3297
71.7464 190 13.784
71.8624 0 1
71.9784 0 1
72.0944 0 1
72.2102 0 1
72.3261 0 1
72.4418 0 1
72.5575 0 1
72.6732 0 1
75.1054 0 1
75.2209 0 1
75.3365 0 1
75.4521 0 1
75.5678 0 1
75.6835 0 1
75.7993 0 1
75.9151 0 1
76.031 0 1
76.147 348 18.6548
76.263 420 20.4939
76.3791 424 20.5913
76.4952 410 20.2485
76.6113 446 21.1187
76.7276 456 21.3542
76.8438 453 21.2838
76.9601 465 21.5639
77.0765 513 22.6495
77.1929 492 22.1811
77.3093 479 21.8861
77.4258 500 22.3607
77.5423 500 22.3607
77.6589 501 22.383
77.7755 528 22.9783
77.8921 566 23.7908
78.0088 500 22.3607
78.1256 522 22.8473
78.2423 466 21.587
78.3591 465 21.5639
78.4759 481 21.9317
78.5928 521 22.8254
78.7097 474 21.7715
78.8266 490 22.1359
78.9436 497 22.2935
79.0606 480 21.9089
79.1776 531 23.0434
79.2946 550 23.4521
79.4117 494 22.2261
79.5288 497 22.2935
79.6459 495 22.2486
79.7631 549 23.4307
79.8802 539 23.2164
79.9974 516 22.7156
80.1147 535 23.1301
80.2319 469 21.6564
80.3491 519 22.7816
80.4664 498 22.3159
80.5837 514 22.6716
80.701 478 21.8632
80.8183 524 22.891
80.9357 493 22.2036
81.053 543 23.3024
81.1704 554 23.5372
81.2877 512 22.6274
81.4051 532 23.0651
81.5225 554 23.5372
81.6399 521 22.8254
81.7573 574 23.9583
81.8747 512 22.6274
81.9922 482 21.9545
82.1096 474 21.7715
82.227 510 22.5832
82.3444 482 21.9545
82.4619 537 23.1733
82.5793 487 22.0681
82.6967 485 22.0227
82.8142 485 22.0227
82.9316 568 23.8328
83.049 516 22.7156
83.1664 493 22.2036
83.2838 535 23.1301
83.4012 520 22.8035
83.5186 545 23.3452
83.636 517 22.7376
83.7534 507 22.5167
83.8708 492 22.1811
83.9881 509 22.561
84.1055 475 21.7945
84.2228 513 22.6495
84.3401 501 22.383
84.4575 534 23.1084
84.5747 502 22.4054
84.692 515 22.6936
84.8093 530 23.0217
84.9265 530 23.0217
85.0437 553 23.516
85.1609 556 23.5797
85.2781 510 22.5832
85.3952 583 24.1454
85.5123 524 22.891
85.6294 532 23.0651
85.7465 530 23.0217
85.8636 504 22.4499
85.9806 528 22.9783
86.0976 465 21.5639
86.2145 507 22.5167
86.3315 529 23
86.4484 539 23.2164
86.5652 549 23.4307
86.682 520 22.8035
86.7988 505 22.4722
86.9156 532 23.0651
87.0323 587 24.2281
87.149 545 23.3452
87.2657 536 23.1517
87.3823 528 22.9783
87.4988 487 22.0681
87.6154 451 21.2368
87.7318 440 20.9762
87.8483 447 21.1424
87.9647 420 20.4939
88.081 407 20.1742
88.1973 413 20.3224
88.3136 354 18.8149
88.4298 335 18.303
88.546 320 17.8885
88.6621 346 18.6011
88.7781 304 17.4356
88.8942 0 1
89.0101 0 1
89.126 0 1
89.2419 0 1
89.3577 0 1
89.4734 0 1
89.5891 0 1
89.7047 0 1
89.8203 0 1
89.9358 0 1
92.3269 0 1
92.4424 0 1
92.558 0 1
92.6736 0 1
92.7893 0 1
92.905 0 1
93.0208 0 1
93.1366 0 1
93.2525 0 1
93.3685 0 1
93.4845 0 1
93.6005 405 20.1246
93.7167 406 20.1494
93.8328 483 21.9773
93.949 482 21.9545
94.0653 502 22.4054
94.1816 543 23.3024
94.2979 574 23.9583
94.4143 532 23.0651
94.5307 544 23.3238
94.6472 502 22.4054
94.7637 538 23.1948
94.8803 576 24
94.9969 496 22.2711
95.1135 526 22.9347
95.2302 512 22.6274
95.3469 528 22.9783
95.4637 565 23.7697
95.5805 557 23.6008
95.6973 522 22.8473
95.8142 544 23.3238
95.9311 509 22.561
96.048 572 23.9165
96.1649 529 23
96.2819 522 22.8473
96.3989 519 22.7816
96.516 539 23.2164
96.633 537 23.1733
96.7501 530 23.0217
96.8673 510 22.5832
96.9844 495 22.2486
97.1016 506 22.4944
97.2188 471 21.7025
97.336 520 22.8035
97.4532 526 22.9347
97.5704 546 23.3666
97.6877 541 23.2594
97.805 551 23.4734
97.9223 572 23.9165
98.0396 581 24.1039
98.1569 594 24.3721
98.2743 573 23.9374
98.3916 639 25.2784
98.509 591 24.3105
98.6264 520 22.8035
98.7438 514 22.6716
98.8612 533 23.0868
98.9786 592 24.3311
99.096 559 23.6432
99.2134 565 23.7697
99.3308 624 24.98
99.4482 600 24.4949
99.5656 558 23.622
99.6831 573 23.9374
99.8005 644 25.3772
99.9179 592 24.3311
100.035 571 23.8956
100.153 555 23.5584
100.27 504 22.4499
100.388 536 23.1517
100.505 546 23.3666
100.622 546 23.3666
100.74 560 23.6643
100.857 601 24.5153
100.975 561 23.6854
101.092 579 24.0624
101.209 595 24.3926
101.327 604 24.5764
101.444 698 26.4197
101.561 723 26.8887
101.679 729 27
101.796 691 26.2869
101.913 691 26.2869
102.03 694 26.3439
102.148 630 25.0998
102.265 637 25.2389
102.382 634 25.1794
102.499 588 24.2487
102.616 622 24.9399
102.733 665 25.7876
102.851 694 26.3439
102.968 623 24.96
103.085 679 26.0576
103.202 729 27
103.319 702 26.4953
103.436 710 26.6458
103.552 682 26.1151
103.669 719 26.8142
103.786 690 26.2679
103.903 695 26.3629
104.02 743 27.258
104.137 787 28.0535
104.253 777 27.8747
104.37 851 29.1719
104.487 869 29.4788
104.603 856 29.2575
104.72 887 29.7825
104.836 971 31.1609
104.953 934 30.5614
105.069 972 31.1769
105.186 1044 32.311
105.302 959 30.9677
105.418 899 29.9833
105.535 805 28.3725
105.651 792 28.1425
105.767 715 26.7395
105.883 671 25.9037
105.999 666 25.807
106.115 0 1
106.231 0 1
106.347 0 1
106.463 0 1
106.579 0 1
106.694 0 1
106.81 0 1
106.926 0 1
107.041 0 1
107.157 0 1
109.576 0 1
109.692 0 1
109.807 0 1
109.923 0 1
110.039 0 1
110.155 0 1
110.27 0 1
110.386 0 1
110.502 0 1
110.618 466 21.587
110.735 535 23.1301
110.851 584 24.1661
110.967 606 24.6171
111.083 572 23.9165
111.199 672 25.923
111.316 796 28.2135
111.432 797 28.2312
111.549 835 28.8964
111.665 834 28.8791
111.782 968 31.1127
111.898 1049 32.3883
112.015 1015 31.8591
112.132 1044 32.311
112.248 1065 32.6343
112.365 949 30.8058
112.482 862 29.3598
112.599 768 27.7128
112.716 824 28.7054
112.832 912 30.1993
112.949 1146 33.8526
113.066 1356 36.8239
113.183 1512 38.8844
113.3 1605 40.0625
113.417 1682 41.0122
113.534 1713 41.3884
113.652 1828 42.7551
113.769 1866 43.1972
113.886 1968 44.3621
114.003 1940 44.0454
114.12 1951 44.1701
114.238 1940 44.0454
114.355 1811 42.5558
114.472 1743 41.7493
114.589 1384 37.2022
114.707 1421 37.6962
114.824 1567 39.5854
114.942 1607 40.0874
115.059 1686 41.0609
115.176 1733 41.6293
115.294 1522 39.0128
115.411 1514 38.9102
115.529 1367 36.973
115.646 1113 33.3617
115.764 878 29.6311
115.881 813 28.5132
115.999 643 25.3574
116.116 531 23.0434
116.234 513 22.6495
116.351 508 22.5389
116.469 495 22.2486
116.586 504 22.4499
116.704 478 21.8632
116.821 460 21.4476
116.939 494 22.2261
117.056 501 22.383
117.174 496 22.2711
117.291 552 23.4947
117.409 535 23.1301
117.526 529 23
117.644 551 23.4734
117.761 502 22.4054
117.879 478 21.8632
117.996 447 21.1424
118.114 469 21.6564
118.231 454 21.3073
118.349 452 21.2603
118.466 512 22.6274
118.584 490 22.1359
118.701 517 22.7376
118.819 527 22.9565
118.936 463 21.5174
119.053 495 22.2486
119.171 487 22.0681
119.288 465 21.5639
119.405 449 21.1896
119.523 479 21.8861
119.64 433 20.8087
119.757 439 20.9523
119.875 454 21.3073
119.992 470 21.6795
120.109 445 21.095
120.226 488 22.0907
120.343 518 22.7596
120.46 448 21.166
120.578 448 21.166
120.695 467 21.6102
120.812 454 21.3073
120.929 451 21.2368
121.046 440 20.9762
121.163 504 22.4499
121.279 501 22.383
121.396 452 21.2603
121.513 493 22.2036
121.63 421 20.5183
121.747 395 19.8746
121.863 428 20.6882
121.98 405 20.1246
122.097 421 20.5183
122.213 411 20.2731
122.33 401 20.025
122.446 351 18.735
122.563 376 19.3907
122.679 343 18.5203
122.795 326 18.0555
122.912 313 17.6918
123.028 303 17.4069
123.144 262 16.1864
123.26 233 15.2643
123.377 0 1
123.493 0 1
123.609 0 1
123.725 0 1
123.84 0 1
123.956 0 1
124.072 0 1
124.188 0 1
124.303 0 1
124.419 0 1
126.852 0 1
126.968 0 1
127.083 0 1
127.199 0 1
127.315 0 1
127.431 0 1
127.547 0 1
127.663 0 1
127.779 0 1
127.895 0 1
128.011 0 1
128.127 0 1
128.243 0 1
128.359 478 21.8632
128.476 537 23.1733
128.592 490 22.1359
128.708 487 22.0681
128.825 494 22.2261
128.941 475 21.7945
129.058 491 22.1585
129.174 530 23.0217
129.291 503 22.4277
129.408 545 23.3452
129.524 546 23.3666
129.641 559 23.6432
129.758 543 23.3024
129.875 525 22.9129
129.992 534 23.1084
130.108 608 24.6577
130.225 563 23.7276
130.342 600 24.4949
130.459 631 25.1197
130.576 600 24.4949
130.693 598 24.454
130.81 547 23.388
130.928 541 23.2594
131.045 590 24.2899
131.162 653 25.5539
131.279 730 27.0185
131.396 672 25.923
131.513 770 27.7489
131.631 842 29.0172
131.748 831 28.8271
131.865 868 29.4618
131.983 906 30.0998
132.1 897 29.95
132.217 876 29.5973
132.335 988 31.4325
132.452 945 30.7409
132.57 1037 32.2025
132.687 1177 34.3074
132.804 1175 34.2783
132.922 1282 35.805
133.039 1252 35.3836
133.157 1268 35.609
133.274 1380 37.1484
133.392 1372 37.0405
133.509 1341 36.6197
133.627 1267 35.5949
133.744 1286 35.8608
133.862 1369 37
133.979 1286 35.8608
134.097 1168 34.176
134.214 1157 34.0147
134.332 988 31.4325
134.449 1108 33.2866
134.567 1168 34.176
134.684 1259 35.4824
134.802 1266 35.5809
134.919 1214 34.8425
135.037 1350 36.7423
135.154 1257 35.4542
135.272 1264 35.5528
135.389 1283 35.819
135.507 1322 36.3593
135.624 1323 36.3731
135.742 1180 34.3511
135.859 1173 34.2491
135.977 1240 35.2136
136.094 1226 35.0143
136.211 1304 36.1109
136.329 1311 36.2077
136.446 1289 35.9026
136.564 1312 36.2215
136.681 1283 35.819
136.798 1360 36.8782
136.915 1291 35.9305
137.033 1314 36.2491
137.15 1308 36.1663
137.267 1268 35.609
137.384 1257 35.4542
137.502 1264 35.5528
137.619 1174 34.2637
137.736 1142 33.7935
137.853 975 31.225
137.97 1056 32.4962
138.087 1014 31.8434
138.204 1046 32.3419
138.321 1117 33.4215
138.438 1235 35.1426
138.555 1210 34.7851
138.672 1152 33.9411
138.788 1279 35.7631
138.905 1255 35.426
139.022 1274 35.6931
139.139 1106 33.2566
139.255 1035 32.1714
139.372 955 30.9031
139.488 937 30.6105
139.605 839 28.9655
139.721 813 28.5132
139.838 817 28.5832
139.954 797 28.2312
140.071 814 28.5307
140.187 777 27.8747
140.303 687 26.2107
140.419 677 26.0192
140.535 644 25.3772
140.652 678 26.0384
140.768 0 1
140.884 0 1
141 0 1
141.115 0 1
141.231 0 1
141.347 0 1
141.463 0 1
141.578 0 1
141.694 0 1
144.104 0 1
144.219 0 1
144.335 0 1
144.45 0 1
144.566 0 1
144.682 0 1
144.798 0 1
144.914 0 1
145.03 0 1
145.146 995 31.5436
145.262 1009 31.7648
145.378 1067 32.665
145.494 1061 32.573
145.61 1094 33.0757
145.726 1114 33.3766
145.842 1127 33.5708
145.959 1118 33.4365
146.075 1118 33.4365
146.192 1196 34.5832
146.308 1092 33.0454
146.425 1078 32.8329
146.541 1046 32.3419
146.658 992 31.496
146.774 1028 32.0624
146.891 1077 32.8177
147.008 1068 32.6803
147.125 1071 32.7261
147.241 1099 33.1512
147.358 1119 33.4515
147.475 1162 34.0881
147.592 1157 34.0147
147.709 1176 34.2929
147.826 1132 33.6452
147.943 1140 33.7639
148.06 1112 33.3467
148.177 1091 33.0303
148.294 1047 32.3574
148.411 1084 32.9242
148.528 1167 34.1614
148.645 1103 33.2114
148.762 1183 34.3948
148.88 1151 33.9264
148.997 1180 34.3511
149.114 1127 33.5708
149.231 1147 33.8674
149.349 1155 33.9853
149.466 1181 34.3657
149.583 1159 34.0441
149.701 1210 34.7851
149.818 1170 34.2053
149.935 1201 34.6554
150.053 1106 33.2566
150.17 1122 33.4963
150.287 1068 32.6803
150.405 1008 31.749
150.522 1002 31.6544
150.64 1113 33.3617
150.757 1118 33.4365
150.875 1133 33.6601
150.992 1115 33.3916
151.11 1100 33.1662
151.227 1075 32.7872
151.344 1081 32.8786
151.462 1109 33.3017
151.579 1117 33.4215
151.697 1087 32.9697
151.814 1128 33.5857
151.932 1106 33.2566
152.049 1212 34.8138
152.167 1204 34.6987
152.284 1212 34.8138
152.402 1229 35.0571
152.519 1148 33.8821
152.636 1170 34.2053
152.754 1201 34.6554
152.871 1246 35.2987
152.989 1252 35.3836
153.106 1217 34.8855
153.223 1252 35.3836
153.341 1199 34.6266
153.458 1245 35.2846
153.575 1237 35.171
153.693 1216 34.8712
153.81 1116 33.4066
153.927 1129 33.6006
154.044 1083 32.909
154.162 1186 34.4384
154.279 1332 36.4966
154.396 1416 37.6298
154.513 1438 37.921
154.63 1357 36.8375
154.747 1585 39.8121
154.864 1626 40.3237
154.981 1714 41.4005
155.098 1850 43.0116
155.215 2128 46.1303
155.332 2242 47.3498
155.449 2478 49.7795
155.566 2704 52
155.683 2767 52.6023
155.8 2884 53.7029
155.917 3013 54.8908
156.033 3239 56.9122
156.15 0 1
156.267 0 1
156.383 0 1
156.5 0 1
156.617 0 1
156.733 0 1
156.85 0 1
156.966 0 1
157.082 0 1
157.199 0 1
157.315 0 1
157.431 0 1
157.547 0 1
157.664 0 1
157.78 0 1
157.896 0 1
158.012 0 1
158.128 0 1
158.244 0 1
158.359 0 1
158.475 0 1
158.591 0 1
158.706 0 1
