
6.15755 0 1
6.2731 0 1
6.3887 0 1
6.50437 0 1
6.62009 0 1
6.73587 0 1
6.8517 0 1
6.96759 0 1
7.08353 0 1
7.19952 0 1
7.31557 0 1
7.43166 0 1
7.54781 0 1
7.664 0 1
7.78024 0 1
7.89653 0 1
8.01286 0 1
8.12924 0 1
8.24567 0 1
8.36213 0 1
8.47864 0 1
8.59519 0 1
8.71178 0 1
8.82841 0 1
8.94508 0 1
9.06179 0 1
9.17853 0 1
9.29531 0 1
9.41212 0 1
9.52897 0 1
9.64584 0 1
9.76276 0 1
9.8797 0 1
9.99667 0 1
10.1137 0 1
10.2307 0 1
10.3478 0 1
10.4648 0 1
10.5819 0 1
10.6991 0 1
10.8162 0 1
10.9334 0 1
11.0506 0 1
11.1678 0 1
11.285 0 1
11.4023 0 1
11.5196 0 1
11.6369 0 1
11.7542 0 1
11.8715 0 1
11.9888 0 1
12.1062 0 1
12.2235 0 1
12.3409 0 1
12.4582 0 1
12.5756 0 1
12.693 0 1
12.8104 0 1
12.9278 0 1
13.0452 0 1
13.1626 0 1
13.28 0 1
13.3974 0 1
13.5149 0 1
13.6323 0 1
13.7497 0 1
13.8671 0 1
13.9845 0 1
14.1019 0 1
14.2193 0 1
14.3367 0 1
14.4541 0 1
14.5714 0 1
14.6888 0 1
14.8062 0 1
14.9235 0 1
15.0408 0 0
15.1581 0 0
15.2755 0 0
15.3927 0 0
15.51 0 0
15.6273 0 0
15.7445 0 0
15.8617 0 0
15.9789 0 0
16.0961 0 0
16.2132 0 0
16.3304 0 0
16.4475 0 0
16.5646 0 0
16.6816 0 0
16.7986 0 0
16.9156 0 0
17.0326 0 0
17.1496 0 0
17.2665 0 0
17.3833 0 0
17.5002 0 0
17.617 0 0
17.7338 0 0
17.8505 0 0
17.9672 0 0
18.0839 0 0
18.2005 0 0
18.3171 0 0
18.4337 0 0
18.5502 0 0
18.6666 0 0
18.7831 0 0
18.8994 0 0
19.0158 0 0
19.1321 0 0
19.2483 0 0
19.3645 0 0
19.4806 0 0
19.5967 0 0
19.7128 0 0
19.8288 0 0
19.9447 0 0
20.0606 0 1
20.1764 0 1
20.2922 0 1
20.4079 0 1
20.5236 0 1
20.6392 0 1
20.7548 0 1
20.8702 0 1
23.3078 0 1
23.4233 0 1
23.539 0 1
23.6547 0 1
23.7704 0 1
23.8862 0 1
24.0021 0 1
24.118 0 1
24.234 0 1
24.35 0 1
24.4661 1595 39.9375
24.5822 1650 40.6202
24.6984 1627 40.3361
24.8146 1619 40.2368
24.9309 1552 39.3954
25.0472 1616 40.1995
25.1636 1551 39.3827
25.28 1641 40.5093
25.3965 1612 40.1497
25.513 1654 40.6694
25.6296 1629 40.3609
25.7462 1692 41.1339
25.8628 1696 41.1825
25.9795 1741 41.7253
26.0962 1723 41.509
26.213 1715 41.4126
26.3298 1637 40.4599
26.4466 1559 39.4842
26.5635 1565 39.5601
26.6804 1442 37.9737
26.7973 1446 38.0263
26.9143 1486 38.5487
27.0313 1549 39.3573
27.1483 1527 39.0768
27.2653 1660 40.7431
27.3824 1605 40.0625
27.4996 1740 41.7133
27.6167 1770 42.0714
27.7339 1662 40.7676
27.8511 1706 41.3038
27.9683 1693 41.1461
28.0855 1638 40.4722
28.2028 1603 40.0375
28.3201 1596 39.95
28.4374 1570 39.6232
28.5547 1565 39.5601
28.6721 1481 38.4838
28.7894 1560 39.4968
28.9068 1533 39.1535
29.0242 1575 39.6863
29.1416 1577 39.7115
29.259 1605 40.0625
29.3764 1599 39.9875
29.4939 1561 39.5095
29.6113 1624 40.2989
29.7288 1499 38.7169
29.8463 1564 39.5474
29.9638 1506 38.8072
30.0812 1464 38.2623
30.1987 1368 36.9865
30.3162 1352 36.7696
30.4337 1352 36.7696
30.5512 1407 37.51
30.6687 1536 39.1918
30.7862 1550 39.37
30.9037 1546 39.3192
31.0212 1637 40.4599
31.1387 1649 40.6079
31.2562 1566 39.5727
31.3737 1586 39.8246
31.4912 1580 39.7492
31.6087 1545 39.3065
31.7262 1593 39.9124
31.8436 1488 38.5746
31.9611 1583 39.7869
32.0785 1524 39.0384
32.1959 1455 38.1445
32.3134 1448 38.0526
32.4308 1568 39.598
32.5482 1513 38.8973
32.6655 1471 38.3536
32.7829 1447 38.0395
32.9002 1488 38.5746
33.0176 1513 38.8973
33.1349 1487 38.5616
33.2522 1572 39.6485
33.3694 1518 38.9615
33.4867 1571 39.6358
33.6039 1520 38.9872
33.7211 1300 36.0555
33.8383 1404 37.47
33.9554 1308 36.1663
34.0725 1279 35.7631
34.1896 1376 37.0945
34.3067 1399 37.4032
34.4237 1402 37.4433
34.5407 1527 39.0768
34.6577 1640 40.4969
34.7746 1499 38.7169
34.8915 1558 39.4715
35.0084 1583 39.7869
35.1252 1551 39.3827
35.242 1542 39.2683
35.3587 1609 40.1123
35.4755 1604 40.05
35.5921 1401 37.4299
35.7088 1501 38.7427
35.8254 1453 38.1182
35.9419 1434 37.8682
36.0584 1342 36.6333
36.1749 1461 38.223
36.2913 1472 38.3667
36.4077 1435 37.8814
36.524 1411 37.5633
36.6403 1375 37.081
36.7565 1571 39.6358
36.8727 1479 38.4578
36.9889 1468 38.3145
37.1049 1444 38
37.221 0 1
37.3369 0 1
37.4529 0 1
37.5687 0 1
37.6845 0 1
37.8003 0 1
37.916 0 1
38.0316 0 1
38.1472 0 1
40.5851 0 1
40.7008 0 1
40.8164 0 1
40.9322 0 1
41.048 0 1
41.1639 0 1
41.2798 0 1
41.3958 0 1
41.5118 0 1
41.6279 0 1
41.744 1129 33.6006
41.8602 1173 34.2491
41.9765 1227 35.0286
42.0928 1171 34.2199
42.2091 1234 35.1283
42.3255 1198 34.6121
42.4419 1220 34.9285
42.5584 1025 32.0156
42.675 952 30.8545
42.7915 925 30.4138
42.9081 943 30.7083
43.0248 1032 32.1248
43.1415 1105 33.2415
43.2582 1129 33.6006
43.375 1175 34.2783
43.4918 1199 34.6266
43.6087 1220 34.9285
43.7256 1070 32.7109
43.8425 1122 33.4963
43.9595 1118 33.4365
44.0765 1219 34.9142
44.1935 1078 32.8329
44.3106 1088 32.9848
44.4277 1017 31.8904
44.5448 993 31.5119
44.6619 923 30.3809
44.7791 874 29.5635
44.8963 890 29.8329
45.0136 902 30.0333
45.1308 936 30.5941
45.2481 905 30.0832
45.3654 829 28.7924
45.4827 887 29.7825
45.6001 906 30.0998
45.7174 895 29.9166
45.8348 869 29.4788
45.9522 927 30.4467
46.0697 829 28.7924
46.1871 676 26
46.3046 691 26.2869
46.422 707 26.5895
46.5395 704 26.533
46.657 771 27.7669
46.7745 767 27.6948
46.892 811 28.4781
47.0096 847 29.1033
47.1271 850 29.1548
47.2446 877 29.6142
47.3622 808 28.4253
47.4797 795 28.1957
47.5973 789 28.0891
47.7149 802 28.3196
47.8324 746 27.313
47.95 739 27.1846
48.0675 703 26.5141
48.1851 730 27.0185
48.3027 664 25.7682
48.4202 673 25.9422
48.5378 644 25.3772
48.6554 638 25.2587
48.7729 656 25.6125
48.8904 660 25.6905
49.008 630 25.0998
49.1255 657 25.632
49.243 716 26.7582
49.3605 700 26.4575
49.478 686 26.1916
49.5955 559 23.6432
49.713 518 22.7596
49.8304 502 22.4054
49.9479 546 23.3666
50.0653 577 24.0208
50.1827 695 26.3629
50.3001 734 27.0924
50.4175 838 28.9482
50.5348 769 27.7308
50.6521 814 28.5307
50.7694 830 28.8097
50.8867 812 28.4956
51.004 887 29.7825
51.1212 908 30.133
51.2384 965 31.0644
51.3556 890 29.8329
51.4727 914 30.2324
51.5899 867 29.4449
51.707 873 29.5466
51.824 896 29.9333
51.9411 903 30.05
52.0581 924 30.3974
52.175 909 30.1496
52.2919 966 31.0805
52.4088 932 30.5287
52.5257 971 31.1609
52.6425 1064 32.619
52.7593 1051 32.4191
52.876 1125 33.541
52.9927 1122 33.4963
53.1094 1014 31.8434
53.226 966 31.0805
53.3426 918 30.2985
53.4591 806 28.3901
53.5756 924 30.3974
53.692 1066 32.6497
53.8084 1184 34.4093
53.9248 1271 35.6511
54.0411 1237 35.171
54.1573 1309 36.1801
54.2735 0 1
54.3896 0 1
54.5057 0 1
54.6217 0 1
54.7377 0 1
54.8537 0 1
54.9695 0 1
55.0853 0 1
55.2011 0 1
55.3168 0 1
55.4324 0 1
57.824 0 1
57.9396 0 1
58.0553 0 1
58.1711 0 1
58.2869 0 1
58.4028 0 1
58.5187 0 1
58.6347 0 1
58.7508 0 1
58.8669 0 1
58.983 1359 36.8646
59.0992 1452 38.1051
59.2155 1558 39.4715
59.3318 1574 39.6737
59.4482 1623 40.2865
59.5646 1581 39.7618
59.681 1588 39.8497
59.7975 1535 39.1791
59.9141 1518 38.9615
60.0306 1452 38.1051
60.1473 1396 37.3631
60.2639 1287 35.8748
60.3807 1345 36.6742
60.4974 1260 35.4965
60.6142 1273 35.6791
60.731 1323 36.3731
60.8479 1255 35.426
60.9648 1294 35.9722
61.0818 1284 35.8329
61.1987 1321 36.3456
61.3158 1317 36.2905
61.4328 1368 36.9865
61.5499 1278 35.7491
61.667 1145 33.8378
61.7841 1042 32.28
61.9013 1025 32.0156
62.0185 933 30.545
62.1357 1059 32.5423
62.253 1142 33.7935
62.3702 1327 36.428
62.4875 1405 37.4833
62.6049 1400 37.4166
62.7222 1395 37.3497
62.8396 1498 38.704
62.9569 1453 38.1182
63.0743 1512 38.8844
63.1918 1502 38.7556
63.3092 1515 38.923
63.4267 1459 38.1969
63.5441 1411 37.5633
63.6616 1302 36.0832
63.7791 1360 36.8782
63.8966 1274 35.6931
64.0142 1240 35.2136
64.1317 1264 35.5528
64.2492 1243 35.2562
64.3668 1411 37.5633
64.4843 1243 35.2562
64.6019 1360 36.8782
64.7195 1339 36.5923
64.837 1405 37.4833
64.9546 1399 37.4032
65.0722 1338 36.5787
65.1898 1243 35.2562
65.3074 1121 33.4813
65.4249 1008 31.749
65.5425 956 30.9192
65.6601 978 31.273
65.7777 1123 33.5112
65.8952 1257 35.4542
66.0128 1304 36.1109
66.1304 1412 37.5766
66.2479 1527 39.0768
66.3655 1470 38.3406
66.483 1533 39.1535
66.6005 1561 39.5095
66.718 1505 38.7943
66.8355 1400 37.4166
66.953 1454 38.1314
67.0705 1423 37.7227
67.1879 1438 37.921
67.3054 1337 36.565
67.4228 1248 35.327
67.5402 1238 35.1852
67.6576 1183 34.3948
67.7749 1217 34.8855
67.8923 1173 34.2491
68.0096 1225 35
68.1269 1183 34.3948
68.2442 1229 35.0571
68.3614 1324 36.3868
68.4787 1241 35.2278
68.5958 1291 35.9305
68.713 1286 35.8608
68.8302 1134 33.6749
68.9473 1029 32.078
69.0643 930 30.4959
69.1814 814 28.5307
69.2984 897 29.95
69.4154 1029 32.078
69.5323 1202 34.6699
69.6492 1301 36.0694
69.7661 1334 36.524
69.8829 1504 38.7814
69.9997 1402 37.4433
70.1165 1492 38.6264
70.2332 1494 38.6523
70.3499 1547 39.3319
70.4665 1508 38.833
70.5831 1464 38.2623
70.6996 1369 37
70.8161 1285 35.8469
70.9326 1370 37.0135
71.049 1244 35.2704
71.1653 1257 35.4542
71.2817 1160 34.0588
71.3979 1137 33.7194
71.5141 1141 33.7787
71.6303 1091 33.0303
71.7464 1061 32.573
71.8624 0 1
71.9784 0 1
72.0944 0 1
72.2102 0 1
72.3261 0 1
72.4418 0 1
72.5575 0 1
72.6732 0 1
75.1054 0 1
75.2209 0 1
75.3365 0 1
75.4521 0 1
75.5678 0 1
75.6835 0 1
75.7993 0 1
75.9151 0 1
76.031 0 1
76.147 1260 35.4965
76.263 1219 34.9142
76.3791 1201 34.6554
76.4952 1181 34.3657
76.6113 1199 34.6266
76.7276 1171 34.2199
76.8438 1194 34.5543
76.9601 1222 34.9571
77.0765 1254 35.4119
77.1929 1252 35.3836
77.3093 1266 35.5809
77.4258 1350 36.7423
77.5423 1338 36.5787
77.6589 1261 35.5106
77.7755 1163 34.1028
77.8921 1026 32.0312
78.0088 941 30.6757
78.1256 861 29.3428
78.2423 827 28.7576
78.3591 867 29.4449
78.4759 986 31.4006
78.5928 1219 34.9142
78.7097 1321 36.3456
78.8266 1347 36.7015
78.9436 1435 37.8814
79.0606 1411 37.5633
79.1776 1479 38.4578
79.2946 1357 36.8375
79.4117 1381 37.1618
79.5288 1369 37
79.6459 1349 36.7287
79.7631 1338 36.5787
79.8802 1182 34.3802
79.9974 1172 34.2345
80.1147 1122 33.4963
80.2319 1116 33.4066
80.3491 1052 32.4345
80.4664 1025 32.0156
80.5837 1119 33.4515
80.701 1102 33.1964
80.8183 1123 33.5112
80.9357 1173 34.2491
81.053 1078 32.8329
81.1704 1215 34.8569
81.2877 1153 33.9559
81.4051 1130 33.6155
81.5225 992 31.496
81.6399 880 29.6648
81.7573 710 26.6458
81.8747 732 27.0555
81.9922 763 27.6225
82.1096 948 30.7896
82.227 1043 32.2955
82.3444 1161 34.0735
82.4619 1278 35.7491
82.5793 1234 35.1283
82.6967 1235 35.1426
82.8142 1213 34.8281
82.9316 1238 35.1852
83.049 1202 34.6699
83.1664 1216 34.8712
83.2838 1051 32.4191
83.4012 1106 33.2566
83.5186 1021 31.9531
83.636 1041 32.2645
83.7534 923 30.3809
83.8708 925 30.4138
83.9881 967 31.0966
84.1055 862 29.3598
84.2228 937 30.6105
84.3401 891 29.8496
84.4575 1015 31.8591
84.5747 1093 33.0606
84.692 1080 32.8634
84.8093 1107 33.2716
84.9265 1047 32.3574
85.0437 890 29.8329
85.1609 805 28.3725
85.2781 693 26.3249
85.3952 720 26.8328
85.5123 743 27.258
85.6294 822 28.6705
85.7465 1002 31.6544
85.8636 1110 33.3167
85.9806 1226 35.0143
86.0976 1205 34.7131
86.2145 1329 36.4555
86.3315 1329 36.4555
86.4484 1296 36
86.5652 1367 36.973
86.682 1460 38.2099
86.7988 1346 36.6879
86.9156 1315 36.2629
87.0323 1192 34.5254
87.149 1190 34.4964
87.2657 1132 33.6452
87.3823 1102 33.1964
87.4988 1051 32.4191
87.6154 1154 33.9706
87.7318 1128 33.5857
87.8483 1177 34.3074
87.9647 1217 34.8855
88.081 1293 35.9583
88.1973 1332 36.4966
88.3136 1355 36.8103
88.4298 1331 36.4829
88.546 1166 34.1467
88.6621 1028 32.0624
88.7781 904 30.0666
88.8942 0 1
89.0101 0 1
89.126 0 1
89.2419 0 1
89.3577 0 1
89.4734 0 1
89.5891 0 1
89.7047 0 1
89.8203 0 1
89.9358 0 1
92.3269 0 1
92.4424 0 1
92.558 0 1
92.6736 0 1
92.7893 0 1
92.905 0 1
93.0208 0 1
93.1366 0 1
93.2525 0 1
93.3685 0 1
93.4845 0 1
93.6005 1220 34.9285
93.7167 1258 35.4683
93.8328 1320 36.3318
93.949 1247 35.3129
94.0653 1162 34.0881
94.1816 1067 32.665
94.2979 949 30.8058
94.4143 913 30.2159
94.5307 899 29.9833
94.6472 901 30.0167
94.7637 1074 32.7719
94.8803 1151 33.9264
94.9969 1325 36.4005
95.1135 1416 37.6298
95.2302 1428 37.7889
95.3469 1437 37.9078
95.4637 1478 38.4448
95.5805 1569 39.6106
95.6973 1533 39.1535
95.8142 1506 38.8072
95.9311 1424 37.7359
96.048 1408 37.5233
96.1649 1319 36.318
96.2819 1351 36.756
96.3989 1226 35.0143
96.516 1145 33.8378
96.633 1191 34.5109
96.7501 1127 33.5708
96.8673 1158 34.0294
96.9844 1201 34.6554
97.1016 1346 36.6879
97.2188 1325 36.4005
97.336 1360 36.8782
97.4532 1384 37.2022
97.5704 1345 36.6742
97.6877 1202 34.6699
97.805 1163 34.1028
97.9223 995 31.5436
98.0396 928 30.4631
98.1569 898 29.9666
98.2743 911 30.1828
98.3916 1004 31.686
98.509 1104 33.2265
98.6264 1329 36.4555
98.7438 1318 36.3043
98.8612 1434 37.8682
98.9786 1539 39.2301
99.096 1598 39.975
99.2134 1531 39.128
99.3308 1632 40.398
99.4482 1533 39.1535
99.5656 1558 39.4715
99.6831 1480 38.4708
99.8005 1468 38.3145
99.9179 1281 35.7911
100.035 1329 36.4555
100.153 1246 35.2987
100.27 1182 34.3802
100.388 1180 34.3511
100.505 1205 34.7131
100.622 1289 35.9026
100.74 1343 36.647
100.857 1345 36.6742
100.975 1319 36.318
101.092 1364 36.9324
101.209 1275 35.7071
101.327 1260 35.4965
101.444 1073 32.7567
101.561 1021 31.9531
101.679 954 30.8869
101.796 952 30.8545
101.913 1065 32.6343
102.03 1161 34.0735
102.148 1268 35.609
102.265 1370 37.0135
102.382 1511 38.8716
102.499 1558 39.4715
102.616 1519 38.9744
102.733 1532 39.1408
102.851 1551 39.3827
102.968 1653 40.6571
103.085 1636 40.4475
103.202 1609 40.1123
103.319 1507 38.8201
103.436 1466 38.2884
103.552 1329 36.4555
103.669 1281 35.7911
103.786 1218 34.8999
103.903 1355 36.8103
104.02 1340 36.606
104.137 1366 36.9594
104.253 1436 37.8946
104.37 1482 38.4968
104.487 1480 38.4708
104.603 1520 38.9872
104.72 1442 37.9737
104.836 1382 37.1753
104.953 1190 34.4964
105.069 1123 33.5112
105.186 1088 32.9848
105.302 1038 32.218
105.418 1192 34.5254
105.535 1403 37.4566
105.651 1503 38.7685
105.767 1616 40.1995
105.883 1718 41.4488
105.999 1761 41.9643
106.115 0 1
106.231 0 1
106.347 0 1
106.463 0 1
106.579 0 1
106.694 0 1
106.81 0 1
106.926 0 1
107.041 0 1
107.157 0 1
109.576 0 1
109.692 0 1
109.807 0 1
109.923 0 1
110.039 0 1
110.155 0 1
110.27 0 1
110.386 0 1
110.502 0 1
110.618 1303 36.0971
110.735 1516 38.9358
110.851 1575 39.6863
110.967 1603 40.0375
111.083 1633 40.4104
111.199 1565 39.5601
111.316 1646 40.5709
111.432 1676 40.939
111.549 1739 41.7013
111.665 1605 40.0625
111.782 1553 39.4081
111.898 1512 38.8844
112.015 1510 38.8587
112.132 1444 38
112.248 1330 36.4692
112.365 1381 37.1618
112.482 1270 35.6371
112.599 1350 36.7423
112.716 1410 37.55
112.832 1374 37.0675
112.949 1478 38.4448
113.066 1439 37.9342
113.183 1447 38.0395
113.3 1340 36.606
113.417 1239 35.1994
113.534 1122 33.4963
113.652 999 31.607
113.769 1015 31.8591
113.886 1031 32.1092
114.003 1125 33.541
114.12 1252 35.3836
114.238 1435 37.8814
114.355 1497 38.6911
114.472 1552 39.3954
114.589 1615 40.1871
114.707 1575 39.6863
114.824 1692 41.1339
114.942 1579 39.7366
115.059 1653 40.6571
115.176 1637 40.4599
115.294 1542 39.2683
115.411 1546 39.3192
115.529 1530 39.1152
115.646 1380 37.1484
115.764 1257 35.4542
115.881 1251 35.3695
115.999 1324 36.3868
116.116 1294 35.9722
116.234 1414 37.6032
116.351 1414 37.6032
116.469 1517 38.9487
116.586 1482 38.4968
116.704 1450 38.0789
116.821 1454 38.1314
116.939 1430 37.8153
117.056 1296 36
117.174 1166 34.1467
117.291 1129 33.6006
117.409 1073 32.7567
117.526 1143 33.8083
117.644 1286 35.8608
117.761 1439 37.9342
117.879 1538 39.2173
117.996 1509 38.8458
118.114 1538 39.2173
118.231 1746 41.7852
118.349 1687 41.0731
118.466 1700 41.2311
118.584 1729 41.5812
118.701 1747 41.7971
118.819 1695 41.1704
118.936 1652 40.6448
119.053 1514 38.9102
119.171 1496 38.6782
119.288 1450 38.0789
119.405 1432 37.8418
119.523 1339 36.5923
119.64 1338 36.5787
119.757 1395 37.3497
119.875 1441 37.9605
119.992 1484 38.5227
120.109 1538 39.2173
120.226 1456 38.1576
120.343 1453 38.1182
120.46 1372 37.0405
120.578 1392 37.3095
120.695 1255 35.426
120.812 1197 34.5977
120.929 1167 34.1614
121.046 1113 33.3617
121.163 1129 33.6006
121.279 1285 35.8469
121.396 1383 37.1887
121.513 1458 38.1838
121.63 1564 39.5474
121.747 1641 40.5093
121.863 1647 40.5832
121.98 1614 40.1746
122.097 1660 40.7431
122.213 1704 41.2795
122.33 1697 41.1947
122.446 1678 40.9634
122.563 1533 39.1535
122.679 1521 39
122.795 1596 39.95
122.912 1456 38.1576
123.028 1421 37.6962
123.144 1308 36.1663
123.26 1346 36.6879
123.377 0 1
123.493 0 1
123.609 0 1
123.725 0 1
123.84 0 1
123.956 0 1
124.072 0 1
124.188 0 1
124.303 0 1
124.419 0 1
126.852 0 1
126.968 0 1
127.083 0 1
127.199 0 1
127.315 0 1
127.431 0 1
127.547 0 1
127.663 0 1
127.779 0 1
127.895 0 1
128.011 0 1
128.127 0 1
128.243 0 1
128.359 1553 39.4081
128.476 1410 37.55
128.592 1509 38.8458
128.708 1488 38.5746
128.825 1566 39.5727
128.941 1571 39.6358
129.058 1614 40.1746
129.174 1737 41.6773
129.291 1644 40.5463
129.408 1583 39.7869
129.524 1590 39.8748
129.641 1521 39
129.758 1329 36.4555
129.875 1360 36.8782
129.992 1306 36.1386
130.108 1303 36.0971
130.225 1381 37.1618
130.342 1405 37.4833
130.459 1478 38.4448
130.576 1755 41.8927
130.693 1733 41.6293
130.81 1785 42.2493
130.928 1852 43.0349
131.045 1812 42.5676
131.162 1794 42.3556
131.279 1778 42.1663
131.396 1793 42.3438
131.513 1709 41.3401
131.631 1708 41.328
131.748 1642 40.5216
131.865 1600 40
131.983 1501 38.7427
132.1 1499 38.7169
132.217 1499 38.7169
132.335 1585 39.8121
132.452 1676 40.939
132.57 1651 40.6325
132.687 1667 40.8289
132.804 1619 40.2368
132.922 1664 40.7922
133.039 1568 39.598
133.157 1519 38.9744
133.274 1475 38.4057
133.392 1409 37.5366
133.509 1414 37.6032
133.627 1309 36.1801
133.744 1322 36.3593
133.862 1438 37.921
133.979 1567 39.5854
134.097 1602 40.025
134.214 1609 40.1123
134.332 1698 41.2068
134.449 1774 42.1189
134.567 1716 41.4246
134.684 1734 41.6413
134.802 1831 42.7902
134.919 1825 42.72
135.037 1702 41.2553
135.154 1658 40.7185
135.272 1724 41.5211
135.389 1676 40.939
135.507 1596 39.95
135.624 1552 39.3954
135.742 1501 38.7427
135.859 1550 39.37
135.977 1664 40.7922
136.094 1624 40.2989
136.211 1653 40.6571
136.329 1674 40.9145
136.446 1628 40.3485
136.564 1679 40.9756
136.681 1573 39.6611
136.798 1621 40.2616
136.915 1435 37.8814
137.033 1505 38.7943
137.15 1438 37.921
137.267 1325 36.4005
137.384 1314 36.2491
137.502 1451 38.092
137.619 1496 38.6782
137.736 1608 40.0999
137.853 1701 41.2432
137.97 1695 41.1704
138.087 1687 41.0731
138.204 1677 40.9512
138.321 1686 41.0609
138.438 1746 41.7852
138.555 1758 41.9285
138.672 1765 42.0119
138.788 1654 40.6694
138.905 1678 40.9634
139.022 1655 40.6817
139.139 1528 39.0896
139.255 1491 38.6135
139.372 1546 39.3192
139.488 1577 39.7115
139.605 1631 40.3856
139.721 1660 40.7431
139.838 1688 41.0853
139.954 1657 40.7063
140.071 1595 39.9375
140.187 1570 39.6232
140.303 1572 39.6485
140.419 1545 39.3065
140.535 1493 38.6394
140.652 1422 37.7094
140.768 0 1
140.884 0 1
141 0 1
141.115 0 1
141.231 0 1
141.347 0 1
141.463 0 1
141.578 0 1
141.694 0 1
144.104 0 1
144.219 0 1
144.335 0 1
144.45 0 1
144.566 0 1
144.682 0 1
144.798 0 1
144.914 0 1
145.03 0 1
145.146 1118 33.4365
145.262 1238 35.1852
145.378 1234 35.1283
145.494 1239 35.1994
145.61 1201 34.6554
145.726 1184 34.4093
145.842 1139 33.7491
145.959 1175 34.2783
146.075 1122 33.4963
146.192 1094 33.0757
146.308 1150 33.9116
146.425 1125 33.541
146.541 1239 35.1994
146.658 1244 35.2704
146.774 1251 35.3695
146.891 1339 36.5923
147.008 1370 37.0135
147.125 1299 36.0416
147.241 1331 36.4829
147.358 1346 36.6879
147.475 1356 36.8239
147.592 1474 38.3927
147.709 1374 37.0675
147.826 1401 37.4299
147.943 1316 36.2767
148.06 1245 35.2846
148.177 1146 33.8526
148.294 1217 34.8855
148.411 1296 36
148.528 1324 36.3868
148.645 1401 37.4299
148.762 1322 36.3593
148.88 1268 35.609
148.997 1296 36
149.114 1309 36.1801
149.231 1301 36.0694
149.349 1260 35.4965
149.466 1310 36.1939
149.583 1316 36.2767
149.701 1233 35.1141
149.818 1177 34.3074
149.935 1196 34.5832
150.053 1122 33.4963
150.17 1148 33.8821
150.287 1155 33.9853
150.405 1146 33.8526
150.522 1291 35.9305
150.64 1371 37.027
150.757 1406 37.4967
150.875 1339 36.5923
150.992 1403 37.4566
151.11 1538 39.2173
151.227 1436 37.8946
151.344 1424 37.7359
151.462 1434 37.8682
151.579 1416 37.6298
151.697 1406 37.4967
151.814 1306 36.1386
151.932 1233 35.1141
152.049 1342 36.6333
152.167 1351 36.756
152.284 1338 36.5787
152.402 1438 37.921
152.519 1349 36.7287
152.636 1382 37.1753
152.754 1361 36.8917
152.871 1413 37.5899
152.989 1394 37.3363
153.106 1402 37.4433
153.223 1308 36.1663
153.341 1267 35.5949
153.458 1307 36.1525
153.575 1252 35.3836
153.693 1207 34.7419
153.81 1292 35.9444
153.927 1249 35.3412
154.044 1303 36.0971
154.162 1385 37.2156
154.279 1401 37.4299
154.396 1497 38.6911
154.513 1494 38.6523
154.63 1544 39.2938
154.747 1580 39.7492
154.864 1624 40.2989
154.981 1537 39.2046
155.098 1558 39.4715
155.215 1498 38.704
155.332 1494 38.6523
155.449 1394 37.3363
155.566 1430 37.8153
155.683 1461 38.223
155.8 1547 39.3319
155.917 1496 38.6782
156.033 1608 40.0999
156.15 0 1
156.267 0 1
156.383 0 1
156.5 0 1
156.617 0 1
156.733 0 1
156.85 0 1
156.966 0 1
157.082 0 1
157.199 0 1
157.315 0 1
157.431 0 1
157.547 0 1
157.664 0 1
157.78 0 1
157.896 0 1
158.012 0 1
158.128 0 1
158.244 0 1
158.359 0 1
158.475 0 1
158.591 0 1
158.706 0 1
