
6.15755 0 1
6.2731 0 1
6.3887 0 1
6.50437 0 1
6.62009 0 1
6.73587 0 1
6.8517 0 1
6.96759 0 1
7.08353 0 1
7.19952 0 1
7.31557 0 1
7.43166 0 1
7.54781 0 1
7.664 0 1
7.78024 0 1
7.89653 0 1
8.01286 0 1
8.12924 0 1
8.24567 0 1
8.36213 0 1
8.47864 0 1
8.59519 0 1
8.71178 0 1
8.82841 0 1
8.94508 0 1
9.06179 0 1
9.17853 0 1
9.29531 0 1
9.41212 0 1
9.52897 0 1
9.64584 0 1
9.76276 0 1
9.8797 0 1
9.99667 0 1
10.1137 0 1
10.2307 0 1
10.3478 0 1
10.4648 0 1
10.5819 0 1
10.6991 0 1
10.8162 0 1
10.9334 0 1
11.0506 0 1
11.1678 0 1
11.285 0 1
11.4023 0 1
11.5196 0 1
11.6369 0 1
11.7542 0 1
11.8715 0 1
11.9888 0 1
12.1062 0 1
12.2235 0 1
12.3409 0 1
12.4582 0 1
12.5756 0 1
12.693 0 1
12.8104 0 1
12.9278 0 1
13.0452 0 1
13.1626 0 1
13.28 0 1
13.3974 0 1
13.5149 0 1
13.6323 0 1
13.7497 0 1
13.8671 0 1
13.9845 0 1
14.1019 0 1
14.2193 0 1
14.3367 0 1
14.4541 0 1
14.5714 0 1
14.6888 0 1
14.8062 0 1
14.9235 0 1
15.0408 1351 36.756
15.1581 1378 37.1214
15.2755 1472 38.3667
15.3927 1530 39.1152
15.51 1512 38.8844
15.6273 1498 38.704
15.7445 1451 38.092
15.8617 1455 38.1445
15.9789 1452 38.1051
16.0961 1469 38.3275
16.2132 1450 38.0789
16.3304 1526 39.064
16.4475 1539 39.2301
16.5646 1636 40.4475
16.6816 1625 40.3113
16.7986 1735 41.6533
16.9156 1727 41.5572
17.0326 1759 41.9404
17.1496 1783 42.2256
17.2665 1736 41.6653
17.3833 1758 41.9285
17.5002 1719 41.4608
17.617 1635 40.4351
17.7338 1542 39.2683
17.8505 1499 38.7169
17.9672 1535 39.1791
18.0839 1521 39
18.2005 1553 39.4081
18.3171 1560 39.4968
18.4337 1690 41.1096
18.5502 1707 41.3159
18.6666 1707 41.3159
18.7831 1670 40.8656
18.8994 1698 41.2068
19.0158 1665 40.8044
19.1321 1527 39.0768
19.2483 1554 39.4208
19.3645 1489 38.5876
19.4806 1379 37.1349
19.5967 1287 35.8748
19.7128 1208 34.7563
19.8288 1098 33.1361
19.9447 1072 32.7414
20.0606 0 1
20.1764 0 1
20.2922 0 1
20.4079 0 1
20.5236 0 1
20.6392 0 1
20.7548 0 1
20.8702 0 1
23.3078 0 1
23.4233 0 1
23.539 0 1
23.6547 0 1
23.7704 0 1
23.8862 0 1
24.0021 0 1
24.118 0 1
24.234 0 1
24.35 0 1
24.4661 694 26.3439
24.5822 861 29.3428
24.6984 994 31.5278
24.8146 1053 32.45
24.9309 1111 33.3317
25.0472 1226 35.0143
25.1636 1372 37.0405
25.28 1452 38.1051
25.3965 1550 39.37
25.513 1606 40.0749
25.6296 1755 41.8927
25.7462 1836 42.8486
25.8628 1881 43.3705
25.9795 1862 43.1509
26.0962 1966 44.3396
26.213 1798 42.4028
26.3298 1707 41.3159
26.4466 1611 40.1373
26.5635 1535 39.1791
26.6804 1588 39.8497
26.7973 1638 40.4722
26.9143 1634 40.4228
27.0313 1623 40.2865
27.1483 1690 41.1096
27.2653 1700 41.2311
27.3824 1817 42.6263
27.4996 1787 42.2729
27.6167 1792 42.332
27.7339 1711 41.3642
27.8511 1673 40.9023
27.9683 1556 39.4462
28.0855 1663 40.7799
28.2028 1547 39.3319
28.3201 1549 39.3573
28.4374 1449 38.0657
28.5547 1441 37.9605
28.6721 1523 39.0256
28.7894 1492 38.6264
28.9068 1629 40.3609
29.0242 1850 43.0116
29.1416 1808 42.5206
29.259 1817 42.6263
29.3764 1841 42.9069
29.4939 1768 42.0476
29.6113 1723 41.509
29.7288 1713 41.3884
29.8463 1558 39.4715
29.9638 1504 38.7814
30.0812 1423 37.7227
30.1987 1488 38.5746
30.3162 1481 38.4838
30.4337 1555 39.4335
30.5512 1605 40.0625
30.6687 1594 39.9249
30.7862 1599 39.9875
30.9037 1672 40.8901
31.0212 1611 40.1373
31.1387 1753 41.8688
31.2562 1632 40.398
31.3737 1622 40.2741
31.4912 1644 40.5463
31.6087 1627 40.3361
31.7262 1442 37.9737
31.8436 1528 39.0896
31.9611 1406 37.4967
32.0785 1478 38.4448
32.1959 1438 37.921
32.3134 1472 38.3667
32.4308 1574 39.6737
32.5482 1621 40.2616
32.6655 1711 41.3642
32.7829 1777 42.1545
32.9002 1640 40.4969
33.0176 1667 40.8289
33.1349 1813 42.5793
33.2522 1684 41.0366
33.3694 1610 40.1248
33.4867 1575 39.6863
33.6039 1448 38.0526
33.7211 1395 37.3497
33.8383 1366 36.9594
33.9554 1404 37.47
34.0725 1484 38.5227
34.1896 1514 38.9102
34.3067 1578 39.724
34.4237 1538 39.2173
34.5407 1576 39.6989
34.6577 1691 41.1218
34.7746 1595 39.9375
34.8915 1634 40.4228
35.0084 1535 39.1791
35.1252 1532 39.1408
35.242 1408 37.5233
35.3587 1467 38.3014
35.4755 1493 38.6394
35.5921 1439 37.9342
35.7088 1385 37.2156
35.8254 1336 36.5513
35.9419 1402 37.4433
36.0584 1493 38.6394
36.1749 1461 38.223
36.2913 1559 39.4842
36.4077 1530 39.1152
36.524 1514 38.9102
36.6403 1447 38.0395
36.7565 1359 36.8646
36.8727 1289 35.9026
36.9889 1260 35.4965
37.1049 1074 32.7719
37.221 0 1
37.3369 0 1
37.4529 0 1
37.5687 0 1
37.6845 0 1
37.8003 0 1
37.916 0 1
38.0316 0 1
38.1472 0 1
40.5851 0 1
40.7008 0 1
40.8164 0 1
40.9322 0 1
41.048 0 1
41.1639 0 1
41.2798 0 1
41.3958 0 1
41.5118 0 1
41.6279 0 1
41.744 799 28.2666
41.8602 861 29.3428
41.9765 973 31.1929
42.0928 1006 31.7175
42.2091 979 31.289
42.3255 985 31.3847
42.4419 919 30.315
42.5584 956 30.9192
42.675 983 31.3528
42.7915 1152 33.9411
42.9081 1254 35.4119
43.0248 1269 35.623
43.1415 1278 35.7491
43.2582 1243 35.2562
43.375 1286 35.8608
43.4918 1369 37
43.6087 1390 37.2827
43.7256 1275 35.7071
43.8425 1356 36.8239
43.9595 1247 35.3129
44.0765 1288 35.8887
44.1935 1214 34.8425
44.3106 1213 34.8281
44.4277 1159 34.0441
44.5448 1157 34.0147
44.6619 1116 33.4066
44.7791 1139 33.7491
44.8963 1206 34.7275
45.0136 1268 35.609
45.1308 1421 37.6962
45.2481 1362 36.9053
45.3654 1446 38.0263
45.4827 1307 36.1525
45.6001 1294 35.9722
45.7174 1265 35.5668
45.8348 1279 35.7631
45.9522 1196 34.5832
46.0697 1110 33.3167
46.1871 1064 32.619
46.3046 1167 34.1614
46.422 1157 34.0147
46.5395 1257 35.4542
46.657 1283 35.819
46.7745 1320 36.3318
46.892 1310 36.1939
47.0096 1342 36.6333
47.1271 1422 37.7094
47.2446 1349 36.7287
47.3622 1405 37.4833
47.4797 1330 36.4692
47.5973 1274 35.6931
47.7149 1296 36
47.8324 1249 35.3412
47.95 1185 34.4238
48.0675 1120 33.4664
48.1851 1090 33.0151
48.3027 1154 33.9706
48.4202 1248 35.327
48.5378 1296 36
48.6554 1364 36.9324
48.7729 1344 36.6606
48.8904 1422 37.7094
49.008 1390 37.2827
49.1255 1361 36.8917
49.243 1332 36.4966
49.3605 1247 35.3129
49.478 1201 34.6554
49.5955 1088 32.9848
49.713 1121 33.4813
49.8304 1029 32.078
49.9479 1193 34.5398
50.0653 1199 34.6266
50.1827 1242 35.242
50.3001 1366 36.9594
50.4175 1292 35.9444
50.5348 1355 36.8103
50.6521 1441 37.9605
50.7694 1462 38.2361
50.8867 1440 37.9473
51.004 1466 38.2884
51.1212 1367 36.973
51.2384 1452 38.1051
51.3556 1372 37.0405
51.4727 1311 36.2077
51.5899 1211 34.7994
51.707 1240 35.2136
51.824 1326 36.4143
51.9411 1446 38.0263
52.0581 1552 39.3954
52.175 1651 40.6325
52.2919 1810 42.5441
52.4088 1816 42.6146
52.5257 1809 42.5323
52.6425 1788 42.2847
52.7593 1899 43.5775
52.876 1853 43.0465
52.9927 1800 42.4264
53.1094 1690 41.1096
53.226 1605 40.0625
53.3426 1591 39.8873
53.4591 1555 39.4335
53.5756 1566 39.5727
53.692 1597 39.9625
53.8084 1591 39.8873
53.9248 1589 39.8623
54.0411 1568 39.598
54.1573 1487 38.5616
54.2735 0 1
54.3896 0 1
54.5057 0 1
54.6217 0 1
54.7377 0 1
54.8537 0 1
54.9695 0 1
55.0853 0 1
55.2011 0 1
55.3168 0 1
55.4324 0 1
57.824 0 1
57.9396 0 1
58.0553 0 1
58.1711 0 1
58.2869 0 1
58.4028 0 1
58.5187 0 1
58.6347 0 1
58.7508 0 1
58.8669 0 1
58.983 1125 33.541
59.0992 1401 37.4299
59.2155 1385 37.2156
59.3318 1472 38.3667
59.4482 1543 39.281
59.5646 1613 40.1622
59.681 1671 40.8779
59.7975 1607 40.0874
59.9141 1636 40.4475
60.0306 1595 39.9375
60.1473 1518 38.9615
60.2639 1403 37.4566
60.3807 1462 38.2361
60.4974 1506 38.8072
60.6142 1488 38.5746
60.731 1685 41.0488
60.8479 1767 42.0357
60.9648 1814 42.5911
61.0818 1783 42.2256
61.1987 1717 41.4367
61.3158 1738 41.6893
61.4328 1694 41.1582
61.5499 1609 40.1123
61.667 1451 38.092
61.7841 1393 37.3229
61.9013 1357 36.8375
62.0185 1324 36.3868
62.1357 1468 38.3145
62.253 1479 38.4578
62.3702 1638 40.4722
62.4875 1643 40.5339
62.6049 1714 41.4005
62.7222 1685 41.0488
62.8396 1697 41.1947
62.9569 1786 42.2611
63.0743 1764 42
63.1918 1657 40.7063
63.3092 1681 41
63.4267 1582 39.7744
63.5441 1601 40.0125
63.6616 1538 39.2173
63.7791 1460 38.2099
63.8966 1324 36.3868
64.0142 1372 37.0405
64.1317 1426 37.7624
64.2492 1505 38.7943
64.3668 1670 40.8656
64.4843 1720 41.4729
64.6019 1711 41.3642
64.7195 1638 40.4722
64.837 1790 42.3084
64.9546 1724 41.5211
65.0722 1647 40.5832
65.1898 1519 38.9744
65.3074 1418 37.6563
65.4249 1310 36.1939
65.5425 1250 35.3553
65.6601 1269 35.623
65.7777 1386 37.229
65.8952 1427 37.7757
66.0128 1570 39.6232
66.1304 1616 40.1995
66.2479 1715 41.4126
66.3655 1646 40.5709
66.483 1732 41.6173
66.6005 1680 40.9878
66.718 1620 40.2492
66.8355 1578 39.724
66.953 1623 40.2865
67.0705 1577 39.7115
67.1879 1582 39.7744
67.3054 1395 37.3497
67.4228 1348 36.7151
67.5402 1230 35.0714
67.6576 1318 36.3043
67.7749 1421 37.6962
67.8923 1467 38.3014
68.0096 1520 38.9872
68.1269 1574 39.6737
68.2442 1627 40.3361
68.3614 1662 40.7676
68.4787 1662 40.7676
68.5958 1707 41.3159
68.713 1594 39.9249
68.8302 1527 39.0768
68.9473 1393 37.3229
69.0643 1246 35.2987
69.1814 1237 35.171
69.2984 1258 35.4683
69.4154 1264 35.5528
69.5323 1395 37.3497
69.6492 1508 38.833
69.7661 1525 39.0512
69.8829 1603 40.0375
69.9997 1509 38.8458
70.1165 1544 39.2938
70.2332 1528 39.0896
70.3499 1436 37.8946
70.4665 1352 36.7696
70.5831 1296 36
70.6996 1134 33.6749
70.8161 1079 32.8481
70.9326 1031 32.1092
71.049 895 29.9166
71.1653 771 27.7669
71.2817 675 25.9808
71.3979 589 24.2693
71.5141 598 24.454
71.6303 578 24.0416
71.7464 545 23.3452
71.8624 0 1
71.9784 0 1
72.0944 0 1
72.2102 0 1
72.3261 0 1
72.4418 0 1
72.5575 0 1
72.6732 0 1
75.1054 0 1
75.2209 0 1
75.3365 0 1
75.4521 0 1
75.5678 0 1
75.6835 0 1
75.7993 0 1
75.9151 0 1
76.031 0 1
76.147 996 31.5595
76.263 1025 32.0156
76.3791 983 31.3528
76.4952 989 31.4484
76.6113 1046 32.3419
76.7276 1150 33.9116
76.8438 1217 34.8855
76.9601 1350 36.7423
77.0765 1397 37.3765
77.1929 1381 37.1618
77.3093 1474 38.3927
77.4258 1528 39.0896
77.5423 1409 37.5366
77.6589 1371 37.027
77.7755 1305 36.1248
77.8921 1239 35.1994
78.0088 1059 32.5423
78.1256 1033 32.1403
78.2423 969 31.1288
78.3591 1058 32.5269
78.4759 1107 33.2716
78.5928 1267 35.5949
78.7097 1285 35.8469
78.8266 1325 36.4005
78.9436 1437 37.9078
79.0606 1501 38.7427
79.1776 1463 38.2492
79.2946 1394 37.3363
79.4117 1530 39.1152
79.5288 1453 38.1182
79.6459 1398 37.3898
79.7631 1349 36.7287
79.8802 1287 35.8748
79.9974 1281 35.7911
80.1147 1183 34.3948
80.2319 1138 33.7343
80.3491 1154 33.9706
80.4664 1171 34.2199
80.5837 1329 36.4555
80.701 1403 37.4566
80.8183 1445 38.0132
80.9357 1433 37.855
81.053 1499 38.7169
81.1704 1509 38.8458
81.2877 1468 38.3145
81.4051 1453 38.1182
81.5225 1311 36.2077
81.6399 1188 34.4674
81.7573 1102 33.1964
81.8747 1132 33.6452
81.9922 1009 31.7648
82.1096 1135 33.6898
82.227 1260 35.4965
82.3444 1310 36.1939
82.4619 1403 37.4566
82.5793 1458 38.1838
82.6967 1452 38.1051
82.8142 1499 38.7169
82.9316 1491 38.6135
83.049 1496 38.6782
83.1664 1520 38.9872
83.2838 1460 38.2099
83.4012 1476 38.4187
83.5186 1341 36.6197
83.636 1292 35.9444
83.7534 1233 35.1141
83.8708 1122 33.4963
83.9881 1139 33.7491
84.1055 1195 34.5688
84.2228 1260 35.4965
84.3401 1377 37.108
84.4575 1527 39.0768
84.5747 1472 38.3667
84.692 1512 38.8844
84.8093 1552 39.3954
84.9265 1492 38.6264
85.0437 1415 37.6165
85.1609 1375 37.081
85.2781 1171 34.2199
85.3952 1087 32.9697
85.5123 1079 32.8481
85.6294 1064 32.619
85.7465 1256 35.4401
85.8636 1278 35.7491
85.9806 1282 35.805
86.0976 1442 37.9737
86.2145 1496 38.6782
86.3315 1389 37.2693
86.4484 1582 39.7744
86.5652 1606 40.0749
86.682 1571 39.6358
86.7988 1496 38.6782
86.9156 1411 37.5633
87.0323 1436 37.8946
87.149 1422 37.7094
87.2657 1271 35.6511
87.3823 1222 34.9571
87.4988 1029 32.078
87.6154 985 31.3847
87.7318 1047 32.3574
87.8483 1080 32.8634
87.9647 1091 33.0303
88.081 1215 34.8569
88.1973 1142 33.7935
88.3136 1200 34.641
88.4298 1079 32.8481
88.546 1008 31.749
88.6621 897 29.95
88.7781 714 26.7208
88.8942 0 1
89.0101 0 1
89.126 0 1
89.2419 0 1
89.3577 0 1
89.4734 0 1
89.5891 0 1
89.7047 0 1
89.8203 0 1
89.9358 0 1
92.3269 0 1
92.4424 0 1
92.558 0 1
92.6736 0 1
92.7893 0 1
92.905 0 1
93.0208 0 1
93.1366 0 1
93.2525 0 1
93.3685 0 1
93.4845 0 1
93.6005 1138 33.7343
93.7167 1163 34.1028
93.8328 1269 35.623
93.949 1262 35.5246
94.0653 1315 36.2629
94.1816 1319 36.318
94.2979 1325 36.4005
94.4143 1216 34.8712
94.5307 1182 34.3802
94.6472 1096 33.1059
94.7637 1134 33.6749
94.8803 1188 34.4674
94.9969 1317 36.2905
95.1135 1355 36.8103
95.2302 1417 37.6431
95.3469 1464 38.2623
95.4637 1510 38.8587
95.5805 1599 39.9875
95.6973 1604 40.05
95.8142 1618 40.2244
95.9311 1578 39.724
96.048 1525 39.0512
96.1649 1483 38.5097
96.2819 1474 38.3927
96.3989 1370 37.0135
96.516 1409 37.5366
96.633 1299 36.0416
96.7501 1187 34.4529
96.8673 1249 35.3412
96.9844 1213 34.8281
97.1016 1403 37.4566
97.2188 1419 37.6696
97.336 1565 39.5601
97.4532 1598 39.975
97.5704 1600 40
97.6877 1504 38.7814
97.805 1599 39.9875
97.9223 1459 38.1969
98.0396 1339 36.5923
98.1569 1219 34.9142
98.2743 1073 32.7567
98.3916 1088 32.9848
98.509 1111 33.3317
98.6264 1318 36.3043
98.7438 1380 37.1484
98.8612 1500 38.7298
98.9786 1550 39.37
99.096 1628 40.3485
99.2134 1615 40.1871
99.3308 1598 39.975
99.4482 1551 39.3827
99.5656 1578 39.724
99.6831 1649 40.6079
99.8005 1487 38.5616
99.9179 1526 39.064
100.035 1490 38.6005
100.153 1440 37.9473
100.27 1316 36.2767
100.388 1264 35.5528
100.505 1232 35.0999
100.622 1414 37.6032
100.74 1538 39.2173
100.857 1596 39.95
100.975 1570 39.6232
101.092 1701 41.2432
101.209 1649 40.6079
101.327 1640 40.4969
101.444 1618 40.2244
101.561 1430 37.8153
101.679 1378 37.1214
101.796 1250 35.3553
101.913 1155 33.9853
102.03 1157 34.0147
102.148 1372 37.0405
102.265 1502 38.7556
102.382 1620 40.2492
102.499 1601 40.0125
102.616 1700 41.2311
102.733 1648 40.5956
102.851 1676 40.939
102.968 1680 40.9878
103.085 1647 40.5832
103.202 1710 41.3521
103.319 1641 40.5093
103.436 1688 41.0853
103.552 1628 40.3485
103.669 1492 38.6264
103.786 1424 37.7359
103.903 1408 37.5233
104.02 1357 36.8375
104.137 1519 38.9744
104.253 1587 39.8372
104.37 1768 42.0476
104.487 1732 41.6173
104.603 1776 42.1426
104.72 1756 41.9047
104.836 1711 41.3642
104.953 1542 39.2683
105.069 1352 36.7696
105.186 1232 35.0999
105.302 1154 33.9706
105.418 1051 32.4191
105.535 1140 33.7639
105.651 1159 34.0441
105.767 1162 34.0881
105.883 1063 32.6037
105.999 1009 31.7648
106.115 0 1
106.231 0 1
106.347 0 1
106.463 0 1
106.579 0 1
106.694 0 1
106.81 0 1
106.926 0 1
107.041 0 1
107.157 0 1
109.576 0 1
109.692 0 1
109.807 0 1
109.923 0 1
110.039 0 1
110.155 0 1
110.27 0 1
110.386 0 1
110.502 0 1
110.618 711 26.6646
110.735 965 31.0644
110.851 1114 33.3766
110.967 1184 34.4093
111.083 1324 36.3868
111.199 1407 37.51
111.316 1444 38
111.432 1566 39.5727
111.549 1558 39.4715
111.665 1644 40.5463
111.782 1569 39.6106
111.898 1576 39.6989
112.015 1543 39.281
112.132 1573 39.6611
112.248 1364 36.9324
112.365 1353 36.7831
112.482 1278 35.7491
112.599 1412 37.5766
112.716 1479 38.4578
112.832 1535 39.1791
112.949 1598 39.975
113.066 1639 40.4846
113.183 1600 40
113.3 1672 40.8901
113.417 1627 40.3361
113.534 1514 38.9102
113.652 1382 37.1753
113.769 1264 35.5528
113.886 1302 36.0832
114.003 1114 33.3766
114.12 1198 34.6121
114.238 1311 36.2077
114.355 1456 38.1576
114.472 1381 37.1618
114.589 1556 39.4462
114.707 1611 40.1373
114.824 1658 40.7185
114.942 1641 40.5093
115.059 1689 41.0974
115.176 1739 41.7013
115.294 1684 41.0366
115.411 1645 40.5586
115.529 1603 40.0375
115.646 1593 39.9124
115.764 1395 37.3497
115.881 1399 37.4032
115.999 1366 36.9594
116.116 1352 36.7696
116.234 1478 38.4448
116.351 1525 39.0512
116.469 1644 40.5463
116.586 1651 40.6325
116.704 1645 40.5586
116.821 1542 39.2683
116.939 1571 39.6358
117.056 1711 41.3642
117.174 1520 38.9872
117.291 1388 37.2559
117.409 1355 36.8103
117.526 1240 35.2136
117.644 1162 34.0881
117.761 1242 35.242
117.879 1341 36.6197
117.996 1411 37.5633
118.114 1524 39.0384
118.231 1599 39.9875
118.349 1615 40.1871
118.466 1581 39.7618
118.584 1572 39.6485
118.701 1592 39.8999
118.819 1609 40.1123
118.936 1590 39.8748
119.053 1517 38.9487
119.171 1527 39.0768
119.288 1503 38.7685
119.405 1419 37.6696
119.523 1275 35.7071
119.64 1234 35.1283
119.757 1323 36.3731
119.875 1356 36.8239
119.992 1481 38.4838
120.109 1526 39.064
120.226 1556 39.4462
120.343 1446 38.0263
120.46 1561 39.5095
120.578 1535 39.1791
120.695 1606 40.0749
120.812 1491 38.6135
120.929 1339 36.5923
121.046 1206 34.7275
121.163 1077 32.8177
121.279 1106 33.2566
121.396 1191 34.5109
121.513 1166 34.1467
121.63 1264 35.5528
121.747 1201 34.6554
121.863 1205 34.7131
121.98 1249 35.3412
122.097 1287 35.8748
122.213 1245 35.2846
122.33 1220 34.9285
122.446 1186 34.4384
122.563 1058 32.5269
122.679 1126 33.5559
122.795 940 30.6594
122.912 913 30.2159
123.028 789 28.0891
123.144 664 25.7682
123.26 618 24.8596
123.377 0 1
123.493 0 1
123.609 0 1
123.725 0 1
123.84 0 1
123.956 0 1
124.072 0 1
124.188 0 1
124.303 0 1
124.419 0 1
126.852 0 1
126.968 0 1
127.083 0 1
127.199 0 1
127.315 0 1
127.431 0 1
127.547 0 1
127.663 0 1
127.779 0 1
127.895 0 1
128.011 0 1
128.127 0 1
128.243 0 1
128.359 1409 37.5366
128.476 1398 37.3898
128.592 1376 37.0945
128.708 1319 36.318
128.825 1353 36.7831
128.941 1523 39.0256
129.058 1535 39.1791
129.174 1658 40.7185
129.291 1614 40.1746
129.408 1750 41.833
129.524 1617 40.2119
129.641 1637 40.4599
129.758 1563 39.5348
129.875 1489 38.5876
129.992 1437 37.9078
130.108 1324 36.3868
130.225 1176 34.2929
130.342 1212 34.8138
130.459 1253 35.3977
130.576 1365 36.9459
130.693 1476 38.4187
130.81 1601 40.0125
130.928 1516 38.9358
131.045 1590 39.8748
131.162 1663 40.7799
131.279 1615 40.1871
131.396 1595 39.9375
131.513 1676 40.939
131.631 1581 39.7618
131.748 1597 39.9625
131.865 1584 39.7995
131.983 1492 38.6264
132.1 1508 38.833
132.217 1422 37.7094
132.335 1434 37.8682
132.452 1507 38.8201
132.57 1515 38.923
132.687 1714 41.4005
132.804 1679 40.9756
132.922 1614 40.1746
133.039 1662 40.7676
133.157 1649 40.6079
133.274 1593 39.9124
133.392 1599 39.9875
133.509 1476 38.4187
133.627 1438 37.921
133.744 1292 35.9444
133.862 1291 35.9305
133.979 1246 35.2987
134.097 1330 36.4692
134.214 1387 37.2424
134.332 1537 39.2046
134.449 1529 39.1024
134.567 1582 39.7744
134.684 1680 40.9878
134.802 1677 40.9512
134.919 1631 40.3856
135.037 1720 41.4729
135.154 1613 40.1622
135.272 1604 40.05
135.389 1654 40.6694
135.507 1625 40.3113
135.624 1462 38.2361
135.742 1389 37.2693
135.859 1392 37.3095
135.977 1463 38.2492
136.094 1503 38.7685
136.211 1586 39.8246
136.329 1630 40.3733
136.446 1740 41.7133
136.564 1731 41.6053
136.681 1655 40.6817
136.798 1720 41.4729
136.915 1605 40.0625
137.033 1627 40.3361
137.15 1511 38.8716
137.267 1451 38.092
137.384 1318 36.3043
137.502 1350 36.7423
137.619 1257 35.4542
137.736 1367 36.973
137.853 1391 37.2961
137.97 1502 38.7556
138.087 1575 39.6863
138.204 1546 39.3192
138.321 1529 39.1024
138.438 1628 40.3485
138.555 1636 40.4475
138.672 1666 40.8167
138.788 1545 39.3065
138.905 1473 38.3797
139.022 1407 37.51
139.139 1292 35.9444
139.255 1250 35.3553
139.372 1221 34.9428
139.488 1183 34.3948
139.605 1062 32.5883
139.721 1128 33.5857
139.838 1067 32.665
139.954 1111 33.3317
140.071 1082 32.8938
140.187 1008 31.749
140.303 888 29.7993
140.419 827 28.7576
140.535 863 29.3769
140.652 777 27.8747
140.768 0 1
140.884 0 1
141 0 1
141.115 0 1
141.231 0 1
141.347 0 1
141.463 0 1
141.578 0 1
141.694 0 1
144.104 0 1
144.219 0 1
144.335 0 1
144.45 0 1
144.566 0 1
144.682 0 1
144.798 0 1
144.914 0 1
145.03 0 1
145.146 1156 34
145.262 1286 35.8608
145.378 1308 36.1663
145.494 1299 36.0416
145.61 1332 36.4966
145.726 1297 36.0139
145.842 1224 34.9857
145.959 1125 33.541
146.075 1036 32.187
146.192 1012 31.8119
146.308 1001 31.6386
146.425 1007 31.7333
146.541 1087 32.9697
146.658 1175 34.2783
146.774 1208 34.7563
146.891 1183 34.3948
147.008 1202 34.6699
147.125 1205 34.7131
147.241 1280 35.7771
147.358 1263 35.5387
147.475 1267 35.5949
147.592 1236 35.1568
147.709 1255 35.426
147.826 1230 35.0714
147.943 1185 34.4238
148.06 1229 35.0571
148.177 1133 33.6601
148.294 1121 33.4813
148.411 1113 33.3617
148.528 1239 35.1994
148.645 1271 35.6511
148.762 1257 35.4542
148.88 1276 35.7211
148.997 1321 36.3456
149.114 1250 35.3553
149.231 1285 35.8469
149.349 1314 36.2491
149.466 1265 35.5668
149.583 1187 34.4529
149.701 1088 32.9848
149.818 1066 32.6497
149.935 1024 32
150.053 1006 31.7175
150.17 1042 32.28
150.287 1114 33.3766
150.405 1173 34.2491
150.522 1132 33.6452
150.64 1199 34.6266
150.757 1230 35.0714
150.875 1251 35.3695
150.992 1316 36.2767
151.11 1244 35.2704
151.227 1235 35.1426
151.344 1293 35.9583
151.462 1192 34.5254
151.579 1161 34.0735
151.697 1220 34.9285
151.814 1091 33.0303
151.932 1077 32.8177
152.049 1057 32.5115
152.167 1139 33.7491
152.284 1131 33.6303
152.402 1165 34.1321
152.519 1283 35.819
152.636 1167 34.1614
152.754 1243 35.2562
152.871 1234 35.1283
152.989 1225 35
153.106 1151 33.9264
153.223 1106 33.2566
153.341 999 31.607
153.458 993 31.5119
153.575 922 30.3645
153.693 967 31.0966
153.81 933 30.545
153.927 1071 32.7261
154.044 1081 32.8786
154.162 1106 33.2566
154.279 1085 32.9393
154.396 1112 33.3467
154.513 1179 34.3366
154.63 1130 33.6155
154.747 1172 34.2345
154.864 1093 33.0606
154.981 1144 33.8231
155.098 1057 32.5115
155.215 1046 32.3419
155.332 993 31.5119
155.449 953 30.8707
155.566 959 30.9677
155.683 1027 32.0468
155.8 1016 31.8748
155.917 984 31.3688
156.033 1100 33.1662
156.15 0 1
156.267 0 1
156.383 0 1
156.5 0 1
156.617 0 1
156.733 0 1
156.85 0 1
156.966 0 1
157.082 0 1
157.199 0 1
157.315 0 1
157.431 0 1
157.547 0 1
157.664 0 1
157.78 0 1
157.896 0 1
158.012 0 1
158.128 0 1
158.244 0 1
158.359 0 1
158.475 0 1
158.591 0 1
158.706 0 1
