
6.15755 0 1
6.2731 0 1
6.3887 0 1
6.50437 0 1
6.62009 0 1
6.73587 0 1
6.8517 0 1
6.96759 0 1
7.08353 0 1
7.19952 0 1
7.31557 0 1
7.43166 0 1
7.54781 0 1
7.664 0 1
7.78024 0 1
7.89653 0 1
8.01286 0 1
8.12924 0 1
8.24567 0 1
8.36213 0 1
8.47864 0 1
8.59519 0 1
8.71178 0 1
8.82841 0 1
8.94508 0 1
9.06179 0 1
9.17853 0 1
9.29531 0 1
9.41212 0 1
9.52897 0 1
9.64584 0 1
9.76276 0 1
9.8797 0 1
9.99667 0 1
10.1137 0 1
10.2307 0 1
10.3478 0 1
10.4648 0 1
10.5819 0 1
10.6991 0 1
10.8162 0 1
10.9334 0 1
11.0506 0 1
11.1678 0 1
11.285 0 1
11.4023 0 1
11.5196 0 1
11.6369 0 1
11.7542 0 1
11.8715 0 1
11.9888 0 1
12.1062 0 1
12.2235 0 1
12.3409 0 1
12.4582 0 1
12.5756 0 1
12.693 0 1
12.8104 0 1
12.9278 0 1
13.0452 0 1
13.1626 0 1
13.28 0 1
13.3974 0 1
13.5149 0 1
13.6323 0 1
13.7497 0 1
13.8671 0 1
13.9845 0 1
14.1019 0 1
14.2193 0 1
14.3367 0 1
14.4541 0 1
14.5714 0 1
14.6888 0 1
14.8062 0 1
14.9235 0 1
15.0408 0 0
15.1581 0 0
15.2755 0 0
15.3927 0 0
15.51 0 0
15.6273 0 0
15.7445 0 0
15.8617 0 0
15.9789 0 0
16.0961 0 0
16.2132 0 0
16.3304 0 0
16.4475 0 0
16.5646 0 0
16.6816 0 0
16.7986 0 0
16.9156 0 0
17.0326 0 0
17.1496 0 0
17.2665 0 0
17.3833 0 0
17.5002 0 0
17.617 0 0
17.7338 0 0
17.8505 0 0
17.9672 0 0
18.0839 0 0
18.2005 0 0
18.3171 0 0
18.4337 0 0
18.5502 0 0
18.6666 0 0
18.7831 0 0
18.8994 0 0
19.0158 0 0
19.1321 0 0
19.2483 0 0
19.3645 0 0
19.4806 0 0
19.5967 0 0
19.7128 0 0
19.8288 0 0
19.9447 0 0
20.0606 0 1
20.1764 0 1
20.2922 0 1
20.4079 0 1
20.5236 0 1
20.6392 0 1
20.7548 0 1
20.8702 0 1
23.3078 0 1
23.4233 0 1
23.539 0 1
23.6547 0 1
23.7704 0 1
23.8862 0 1
24.0021 0 1
24.118 0 1
24.234 0 1
24.35 0 1
24.4661 1812 42.5676
24.5822 1804 42.4735
24.6984 1855 43.0697
24.8146 1903 43.6234
24.9309 1953 44.1928
25.0472 1984 44.5421
25.1636 1997 44.6878
25.28 1914 43.7493
25.3965 1956 44.2267
25.513 2002 44.7437
25.6296 1956 44.2267
25.7462 2014 44.8776
25.8628 2049 45.2659
25.9795 1988 44.587
26.0962 2018 44.9222
26.213 2103 45.8585
26.3298 1996 44.6766
26.4466 1934 43.9773
26.5635 1776 42.1426
26.6804 1620 40.2492
26.7973 1636 40.4475
26.9143 1659 40.7308
27.0313 1764 42
27.1483 1837 42.8602
27.2653 1967 44.3509
27.3824 2058 45.3652
27.4996 1877 43.3244
27.6167 1936 44
27.7339 2020 44.9444
27.8511 1995 44.6654
27.9683 2000 44.7214
28.0855 1963 44.3058
28.2028 1887 43.4396
28.3201 1834 42.8252
28.4374 1939 44.0341
28.5547 1872 43.2666
28.6721 1919 43.8064
28.7894 1940 44.0454
28.9068 1972 44.4072
29.0242 2017 44.911
29.1416 1984 44.5421
29.259 1948 44.1362
29.3764 1941 44.0568
29.4939 1934 43.9773
29.6113 1983 44.5309
29.7288 1880 43.359
29.8463 1886 43.4281
29.9638 1884 43.4051
30.0812 1726 41.5452
30.1987 1612 40.1497
30.3162 1541 39.2556
30.4337 1641 40.5093
30.5512 1696 41.1825
30.6687 1761 41.9643
30.7862 1849 43
30.9037 1926 43.8862
31.0212 2046 45.2327
31.1387 2122 46.0652
31.2562 1977 44.4635
31.3737 1955 44.2154
31.4912 1865 43.1856
31.6087 1919 43.8064
31.7262 1953 44.1928
31.8436 1876 43.3128
31.9611 1829 42.7668
32.0785 2004 44.7661
32.1959 1948 44.1362
32.3134 1932 43.9545
32.4308 2021 44.9555
32.5482 1972 44.4072
32.6655 2006 44.7884
32.7829 2023 44.9778
32.9002 1970 44.3847
33.0176 1947 44.1248
33.1349 1983 44.5309
33.2522 1982 44.5197
33.3694 1870 43.2435
33.4867 1988 44.587
33.6039 1884 43.4051
33.7211 1754 41.8808
33.8383 1601 40.0125
33.9554 1572 39.6485
34.0725 1562 39.5221
34.1896 1706 41.3038
34.3067 1813 42.5793
34.4237 1873 43.2782
34.5407 2032 45.0777
34.6577 2001 44.7325
34.7746 2047 45.2438
34.8915 1995 44.6654
35.0084 1984 44.5421
35.1252 1949 44.1475
35.242 1960 44.2719
35.3587 2054 45.3211
35.4755 1880 43.359
35.5921 1916 43.7721
35.7088 1985 44.5533
35.8254 1999 44.7102
35.9419 1984 44.5421
36.0584 2072 45.5192
36.1749 1930 43.9318
36.2913 1945 44.1022
36.4077 2010 44.833
36.524 1966 44.3396
36.6403 2076 45.5631
36.7565 1955 44.2154
36.8727 2020 44.9444
36.9889 2045 45.2217
37.1049 1998 44.699
37.221 0 1
37.3369 0 1
37.4529 0 1
37.5687 0 1
37.6845 0 1
37.8003 0 1
37.916 0 1
38.0316 0 1
38.1472 0 1
40.5851 0 1
40.7008 0 1
40.8164 0 1
40.9322 0 1
41.048 0 1
41.1639 0 1
41.2798 0 1
41.3958 0 1
41.5118 0 1
41.6279 0 1
41.744 1561 39.5095
41.8602 1762 41.9762
41.9765 1785 42.2493
42.0928 1773 42.107
42.2091 1764 42
42.3255 1771 42.0833
42.4419 1652 40.6448
42.5584 1497 38.6911
42.675 1369 37
42.7915 1346 36.6879
42.9081 1432 37.8418
43.0248 1560 39.4968
43.1415 1591 39.8873
43.2582 1743 41.7493
43.375 1809 42.5323
43.4918 1784 42.2374
43.6087 1797 42.391
43.7256 1719 41.4608
43.8425 1699 41.2189
43.9595 1752 41.8569
44.0765 1706 41.3038
44.1935 1701 41.2432
44.3106 1591 39.8873
44.4277 1545 39.3065
44.5448 1545 39.3065
44.6619 1576 39.6989
44.7791 1526 39.064
44.8963 1573 39.6611
45.0136 1571 39.6358
45.1308 1534 39.1663
45.2481 1609 40.1123
45.3654 1589 39.8623
45.4827 1576 39.6989
45.6001 1581 39.7618
45.7174 1569 39.6106
45.8348 1490 38.6005
45.9522 1461 38.223
46.0697 1443 37.9868
46.1871 1274 35.6931
46.3046 1252 35.3836
46.422 1220 34.9285
46.5395 1296 36
46.657 1390 37.2827
46.7745 1412 37.5766
46.892 1484 38.5227
47.0096 1481 38.4838
47.1271 1477 38.4318
47.2446 1423 37.7227
47.3622 1433 37.855
47.4797 1474 38.3927
47.5973 1364 36.9324
47.7149 1323 36.3731
47.8324 1366 36.9594
47.95 1265 35.5668
48.0675 1257 35.4542
48.1851 1203 34.6843
48.3027 1272 35.6651
48.4202 1323 36.3731
48.5378 1343 36.647
48.6554 1412 37.5766
48.7729 1280 35.7771
48.8904 1419 37.6696
49.008 1380 37.1484
49.1255 1405 37.4833
49.243 1380 37.1484
49.3605 1356 36.8239
49.478 1389 37.2693
49.5955 1317 36.2905
49.713 1213 34.8281
49.8304 1132 33.6452
49.9479 1141 33.7787
50.0653 1294 35.9722
50.1827 1334 36.524
50.3001 1520 38.9872
50.4175 1593 39.9124
50.5348 1703 41.2674
50.6521 1669 40.8534
50.7694 1712 41.3763
50.8867 1799 42.4146
51.004 1867 43.2088
51.1212 1869 43.2319
51.2384 1811 42.5558
51.3556 1846 42.9651
51.4727 1759 41.9404
51.5899 1870 43.2435
51.707 1818 42.638
51.824 1946 44.1135
51.9411 2052 45.299
52.0581 2029 45.0444
52.175 2082 45.6289
52.2919 2076 45.5631
52.4088 2240 47.3286
52.5257 2257 47.5079
52.6425 2206 46.9681
52.7593 2325 48.2183
52.876 2269 47.634
52.9927 2325 48.2183
53.1094 2271 47.655
53.226 2063 45.4203
53.3426 1875 43.3013
53.4591 1868 43.2204
53.5756 1913 43.7379
53.692 1965 44.3283
53.8084 2255 47.4868
53.9248 2420 49.1935
54.0411 2546 50.4579
54.1573 2634 51.3225
54.2735 0 1
54.3896 0 1
54.5057 0 1
54.6217 0 1
54.7377 0 1
54.8537 0 1
54.9695 0 1
55.0853 0 1
55.2011 0 1
55.3168 0 1
55.4324 0 1
57.824 0 1
57.9396 0 1
58.0553 0 1
58.1711 0 1
58.2869 0 1
58.4028 0 1
58.5187 0 1
58.6347 0 1
58.7508 0 1
58.8669 0 1
58.983 3165 56.2583
59.0992 3323 57.6455
59.2155 3531 59.4222
59.3318 3501 59.1692
59.4482 3604 60.0333
59.5646 3588 59.8999
59.681 3547 59.5567
59.7975 3501 59.1692
59.9141 3439 58.643
60.0306 3303 57.4717
60.1473 3198 56.5509
60.2639 3235 56.8771
60.3807 3185 56.4358
60.4974 3289 57.3498
60.6142 3250 57.0088
60.731 3434 58.6003
60.8479 3485 59.0339
60.9648 3508 59.2284
61.0818 3615 60.1249
61.1987 3614 60.1166
61.3158 3646 60.3821
61.4328 3598 59.9833
61.5499 3525 59.3717
61.667 3359 57.9569
61.7841 3129 55.9375
61.9013 2931 54.1387
62.0185 2806 52.9717
62.1357 2817 53.0754
62.253 3007 54.8361
62.3702 3320 57.6194
62.4875 3526 59.3801
62.6049 3735 61.1146
62.7222 3887 62.3458
62.8396 3898 62.434
62.9569 3957 62.9047
63.0743 3954 62.8808
63.1918 3824 61.8385
63.3092 3774 61.4329
63.4267 3878 62.2736
63.5441 3632 60.2661
63.6616 3450 58.7367
63.7791 3496 59.127
63.8966 3490 59.0762
64.0142 3479 58.983
64.1317 3588 59.8999
64.2492 3764 61.3514
64.3668 3885 62.3298
64.4843 3859 62.1208
64.6019 3862 62.145
64.7195 3894 62.4019
64.837 4116 64.1561
64.9546 4000 63.2456
65.0722 3923 62.6339
65.1898 3773 61.4248
65.3074 3599 59.9917
65.4249 3294 57.3934
65.5425 2987 54.6535
65.6601 2949 54.3047
65.7777 3094 55.6237
65.8952 3380 58.1378
66.0128 3707 60.8851
66.1304 3998 63.2297
66.2479 4115 64.1483
66.3655 4112 64.1249
66.483 4190 64.7302
66.6005 4279 65.4141
66.718 4311 65.6582
66.8355 4265 65.307
66.953 4201 64.8151
67.0705 4011 63.3325
67.1879 3859 62.1208
67.3054 3882 62.3057
67.4228 3615 60.1249
67.5402 3738 61.1392
67.6576 3829 61.8789
67.7749 3973 63.0317
67.8923 4016 63.3719
68.0096 4193 64.7534
68.1269 4334 65.8331
68.2442 4501 67.0895
68.3614 4436 66.6033
68.4787 4534 67.335
68.5958 4635 68.0808
68.713 4502 67.0969
68.8302 4476 66.9029
68.9473 4305 65.6125
69.0643 3732 61.0901
69.1814 3606 60.05
69.2984 3332 57.7235
69.4154 3546 59.5483
69.5323 3783 61.5061
69.6492 4229 65.0308
69.7661 4592 67.7643
69.8829 4870 69.7854
69.9997 4900 70
70.1165 4956 70.3989
70.2332 5021 70.859
70.3499 5078 71.2601
70.4665 4971 70.5053
70.5831 4973 70.5195
70.6996 4876 69.8284
70.8161 4591 67.7569
70.9326 4437 66.6108
71.049 4318 65.7115
71.1653 4234 65.0692
71.2817 4138 64.3273
71.3979 4295 65.5362
71.5141 4334 65.8331
71.6303 4274 65.3758
71.7464 4237 65.0922
71.8624 0 1
71.9784 0 1
72.0944 0 1
72.2102 0 1
72.3261 0 1
72.4418 0 1
72.5575 0 1
72.6732 0 1
75.1054 0 1
75.2209 0 1
75.3365 0 1
75.4521 0 1
75.5678 0 1
75.6835 0 1
75.7993 0 1
75.9151 0 1
76.031 0 1
76.147 4369 66.0984
76.263 4574 67.6314
76.3791 4606 67.8675
76.4952 4370 66.106
76.6113 4506 67.1267
76.7276 4595 67.7864
76.8438 4564 67.5574
76.9601 4915 70.1071
77.0765 5174 71.9305
77.1929 5392 73.4302
77.3093 5460 73.8918
77.4258 5354 73.171
77.5423 5191 72.0486
77.6589 5427 73.6682
77.7755 5330 73.0068
77.8921 5101 71.4213
78.0088 4592 67.7643
78.1256 4212 64.8999
78.2423 3915 62.57
78.3591 3595 59.9583
78.4759 3972 63.0238
78.5928 4238 65.0999
78.7097 4698 68.542
78.8266 5319 72.9315
78.9436 5070 71.2039
79.0606 5453 73.8444
79.1776 5403 73.5051
79.2946 5434 73.7157
79.4117 5229 72.3118
79.5288 5359 73.2052
79.6459 5380 73.3485
79.7631 5015 70.8167
79.8802 4818 69.4118
79.9974 4694 68.5128
80.1147 4379 66.174
80.2319 4311 65.6582
80.3491 4464 66.8132
80.4664 4734 68.8041
80.5837 4839 69.5629
80.701 4956 70.3989
80.8183 5282 72.6774
80.9357 5227 72.298
81.053 5196 72.0833
81.1704 5273 72.6154
81.2877 5139 71.6868
81.4051 5144 71.7217
81.5225 5013 70.8025
81.6399 4772 69.0797
81.7573 4338 65.8635
81.8747 3986 63.1348
81.9922 3806 61.6928
82.1096 3709 60.9016
82.227 4030 63.4823
82.3444 4432 66.5733
82.4619 4813 69.3758
82.5793 4789 69.2026
82.6967 5108 71.4703
82.8142 5004 70.739
82.9316 5116 71.5262
83.049 5207 72.1595
83.1664 4899 69.9929
83.2838 4799 69.2748
83.4012 4822 69.4406
83.5186 4645 68.1542
83.636 4345 65.9166
83.7534 4183 64.6761
83.8708 4005 63.2851
83.9881 3873 62.2334
84.1055 4139 64.3351
84.2228 4391 66.2646
84.3401 4580 67.6757
84.4575 4893 69.95
84.5747 4807 69.3325
84.692 5120 71.5542
84.8093 5053 71.0845
84.9265 5066 71.1758
85.0437 5055 71.0985
85.1609 4567 67.5796
85.2781 4323 65.7495
85.3952 3981 63.0952
85.5123 3799 61.636
85.6294 3770 61.4003
85.7465 3919 62.6019
85.8636 4344 65.909
85.9806 4630 68.0441
86.0976 4895 69.9643
86.2145 5180 71.9722
86.3315 5249 72.45
86.4484 5576 74.6726
86.5652 5555 74.5319
86.682 5559 74.5587
86.7988 5347 73.1232
86.9156 5462 73.9053
87.0323 5329 73
87.149 5245 72.4224
87.2657 4957 70.406
87.3823 4565 67.5648
87.4988 4575 67.6387
87.6154 4669 68.3301
87.7318 4932 70.2282
87.8483 5421 73.6274
87.9647 5633 75.0533
88.081 5767 75.9408
88.1973 5813 76.243
88.3136 5845 76.4526
88.4298 5950 77.1362
88.546 5793 76.1118
88.6621 5554 74.5252
88.7781 5263 72.5465
88.8942 0 1
89.0101 0 1
89.126 0 1
89.2419 0 1
89.3577 0 1
89.4734 0 1
89.5891 0 1
89.7047 0 1
89.8203 0 1
89.9358 0 1
92.3269 0 1
92.4424 0 1
92.558 0 1
92.6736 0 1
92.7893 0 1
92.905 0 1
93.0208 0 1
93.1366 0 1
93.2525 0 1
93.3685 0 1
93.4845 0 1
93.6005 5805 76.1906
93.7167 5749 75.8222
93.8328 5794 76.1183
93.949 5800 76.1577
94.0653 5703 75.5182
94.1816 5572 74.6458
94.2979 5261 72.5328
94.4143 4987 70.6187
94.5307 4697 68.5347
94.6472 4622 67.9853
94.7637 4473 66.8805
94.8803 4674 68.3667
94.9969 5173 71.9236
95.1135 5182 71.9861
95.2302 5359 73.2052
95.3469 5798 76.1446
95.4637 5650 75.1665
95.5805 5872 76.629
95.6973 6019 77.5822
95.8142 6034 77.6788
95.9311 5946 77.1103
96.048 5850 76.4853
96.1649 5808 76.2102
96.2819 5659 75.2263
96.3989 5297 72.7805
96.516 5059 71.1266
96.633 4772 69.0797
96.7501 4721 68.7095
96.8673 4884 69.8856
96.9844 5220 72.2496
97.1016 5514 74.2563
97.2188 5945 77.1038
97.336 6102 78.1153
97.4532 5961 77.2075
97.5704 6087 78.0192
97.6877 5900 76.8115
97.805 6034 77.6788
97.9223 5707 75.5447
98.0396 5350 73.1437
98.1569 5228 72.3049
98.2743 4837 69.5485
98.3916 4760 68.9928
98.509 4859 69.7065
98.6264 5002 70.7248
98.7438 5314 72.8972
98.8612 5426 73.6614
98.9786 5999 77.4532
99.096 6094 78.0641
99.2134 6329 79.555
99.3308 6309 79.4292
99.4482 6463 80.3928
99.5656 6409 80.0562
99.6831 6189 78.6702
99.8005 6089 78.032
99.9179 5883 76.7007
100.035 5691 75.4387
100.153 5269 72.5879
100.27 4956 70.3989
100.388 4875 69.8212
100.505 5341 73.0821
100.622 5748 75.8156
100.74 6130 78.2943
100.857 6340 79.6241
100.975 6392 79.95
101.092 6386 79.9125
101.209 6484 80.5233
101.327 6461 80.3803
101.444 6241 79
101.561 6063 77.8653
101.679 5706 75.5381
101.796 5325 72.9726
101.913 5104 71.4423
102.03 5163 71.854
102.148 5282 72.6774
102.265 5875 76.6485
102.382 5543 74.4513
102.499 6243 79.0127
102.616 6388 79.925
102.733 6735 82.067
102.851 6735 82.067
102.968 6773 82.2982
103.085 6849 82.7587
103.202 6664 81.6333
103.319 6390 79.9375
103.436 6244 79.019
103.552 6007 77.5048
103.669 5683 75.3857
103.786 5204 72.1388
103.903 5243 72.4086
104.02 5633 75.0533
104.137 6260 79.1202
104.253 6641 81.4923
104.37 6687 81.7741
104.487 6909 83.1204
104.603 7004 83.6899
104.72 6874 82.9096
104.836 6951 83.3727
104.953 6749 82.1523
105.069 6503 80.6412
105.186 6104 78.1281
105.302 5691 75.4387
105.418 5634 75.06
105.535 5703 75.5182
105.651 5883 76.7007
105.767 6277 79.2275
105.883 6438 80.2371
105.999 6763 82.2375
106.115 0 1
106.231 0 1
106.347 0 1
106.463 0 1
106.579 0 1
106.694 0 1
106.81 0 1
106.926 0 1
107.041 0 1
107.157 0 1
109.576 0 1
109.692 0 1
109.807 0 1
109.923 0 1
110.039 0 1
110.155 0 1
110.27 0 1
110.386 0 1
110.502 0 1
110.618 5460 73.8918
110.735 5841 76.4264
110.851 6042 77.7303
110.967 6186 78.6511
111.083 6307 79.4166
111.199 6581 81.1234
111.316 6630 81.4248
111.432 6629 81.4187
111.549 6739 82.0914
111.665 6600 81.2404
111.782 6428 80.1748
111.898 6178 78.6003
112.015 5946 77.1103
112.132 5405 73.5187
112.248 4973 70.5195
112.365 4843 69.5917
112.482 5232 72.3326
112.599 5431 73.6953
112.716 6070 77.9102
112.832 6253 79.0759
112.949 6210 78.8036
113.066 6188 78.6638
113.183 6094 78.0641
113.3 6112 78.1793
113.417 6165 78.5175
113.534 5944 77.0973
113.652 5694 75.4586
113.769 5364 73.2393
113.886 4939 70.278
114.003 4976 70.5408
114.12 4856 69.685
114.238 5105 71.4493
114.355 5312 72.8835
114.472 5486 74.0675
114.589 5690 75.4321
114.707 5663 75.2529
114.824 5736 75.7364
114.942 5836 76.3937
115.059 5893 76.7659
115.176 5994 77.4209
115.294 5849 76.4788
115.411 5756 75.8683
115.529 5532 74.3774
115.646 5242 72.4017
115.764 4751 68.9275
115.881 4485 66.9701
115.999 4623 67.9926
116.116 4968 70.484
116.234 5277 72.643
116.351 5808 76.2102
116.469 6016 77.5629
116.586 5963 77.2205
116.704 5969 77.2593
116.821 6089 78.032
116.939 6000 77.4597
117.056 5964 77.2269
117.174 5769 75.9539
117.291 5662 75.2463
117.409 5349 73.1369
117.526 5148 71.7496
117.644 4948 70.342
117.761 5090 71.3442
117.879 5177 71.9514
117.996 5377 73.328
118.114 5576 74.6726
118.231 5673 75.3193
118.349 5858 76.5376
118.466 5898 76.7984
118.584 6030 77.6531
118.701 6021 77.5951
118.819 6076 77.9487
118.936 5987 77.3757
119.053 5786 76.0658
119.171 5618 74.9533
119.288 5182 71.9861
119.405 4706 68.6003
119.523 4363 66.053
119.64 4640 68.1175
119.757 4888 69.9142
119.875 5414 73.5799
119.992 5747 75.809
120.109 5867 76.5963
120.226 5896 76.7854
120.343 5866 76.5898
120.46 5959 77.1946
120.578 6067 77.8909
120.695 5844 76.4461
120.812 5869 76.6094
120.929 5695 75.4652
121.046 5459 73.885
121.163 5240 72.3878
121.279 5088 71.3302
121.396 4927 70.1926
121.513 4993 70.6612
121.63 5306 72.8423
121.747 5342 73.089
121.863 5594 74.793
121.98 5564 74.5922
122.097 5722 75.6439
122.213 5761 75.9013
122.33 5886 76.7203
122.446 5790 76.092
122.563 5827 76.3348
122.679 5776 76
122.795 5652 75.1798
122.912 5586 74.7395
123.028 5120 71.5542
123.144 4663 68.2862
123.26 4395 66.2948
123.377 0 1
123.493 0 1
123.609 0 1
123.725 0 1
123.84 0 1
123.956 0 1
124.072 0 1
124.188 0 1
124.303 0 1
124.419 0 1
126.852 0 1
126.968 0 1
127.083 0 1
127.199 0 1
127.315 0 1
127.431 0 1
127.547 0 1
127.663 0 1
127.779 0 1
127.895 0 1
128.011 0 1
128.127 0 1
128.243 0 1
128.359 5202 72.1249
128.476 4787 69.1881
128.592 4963 70.4486
128.708 5334 73.0342
128.825 6061 77.8524
128.941 6476 80.4736
129.058 6384 79.8999
129.174 6687 81.7741
129.291 6556 80.9691
129.408 6380 79.8749
129.524 6615 81.3327
129.641 6591 81.185
129.758 6402 80.0125
129.875 6248 79.0443
129.992 6089 78.032
130.108 6076 77.9487
130.225 5818 76.2758
130.342 5705 75.5315
130.459 5543 74.4513
130.576 6004 77.4855
130.693 6050 77.7817
130.81 6084 78
130.928 6179 78.6066
131.045 6272 79.196
131.162 6346 79.6618
131.279 6316 79.4733
131.396 6462 80.3866
131.513 6395 79.9687
131.631 6239 78.9873
131.748 6013 77.5435
131.865 5518 74.2832
131.983 4739 68.8404
132.1 4688 68.469
132.217 5079 71.2671
132.335 5722 75.6439
132.452 6130 78.2943
132.57 6317 79.4796
132.687 6095 78.0705
132.804 6575 81.0864
132.922 6341 79.6304
133.039 6441 80.2558
133.157 6403 80.0187
133.274 6365 79.781
133.392 6097 78.0833
133.509 6138 78.3454
133.627 5958 77.1881
133.744 5736 75.7364
133.862 5623 74.9867
133.979 5603 74.8532
134.097 5525 74.3303
134.214 5817 76.2693
134.332 5854 76.5114
134.449 5967 77.2464
134.567 6144 78.3837
134.684 6326 79.5362
134.802 6315 79.467
134.919 6230 78.9303
135.037 6181 78.6193
135.154 6149 78.4156
135.272 6071 77.9166
135.389 5453 73.8444
135.507 4990 70.6399
135.624 4639 68.1102
135.742 4664 68.2935
135.859 5282 72.6774
135.977 5577 74.6793
136.094 6090 78.0385
136.211 6084 78
136.329 6271 79.1896
136.446 6314 79.4607
136.564 6246 79.0316
136.681 6268 79.1707
136.798 6194 78.702
136.915 6149 78.4156
137.033 6132 78.3071
137.15 6183 78.6321
137.267 5897 76.7919
137.384 5878 76.6681
137.502 5600 74.8331
137.619 5441 73.7631
137.736 5688 75.4188
137.853 5603 74.8532
137.97 5725 75.6637
138.087 6263 79.1391
138.204 5936 77.0454
138.321 6045 77.7496
138.438 6130 78.2943
138.555 6200 78.7401
138.672 6133 78.3135
138.788 6076 77.9487
138.905 6050 77.7817
139.022 5722 75.6439
139.139 5170 71.9027
139.255 4787 69.1881
139.372 4732 68.7895
139.488 5188 72.0278
139.605 5530 74.364
139.721 5928 76.9935
139.838 6284 79.2717
139.954 6297 79.3536
140.071 5975 77.2981
140.187 6362 79.7621
140.303 6145 78.3901
140.419 6099 78.0961
140.535 6093 78.0577
140.652 6059 77.8396
140.768 0 1
140.884 0 1
141 0 1
141.115 0 1
141.231 0 1
141.347 0 1
141.463 0 1
141.578 0 1
141.694 0 1
144.104 0 1
144.219 0 1
144.335 0 1
144.45 0 1
144.566 0 1
144.682 0 1
144.798 0 1
144.914 0 1
145.03 0 1
145.146 5286 72.7049
145.262 5391 73.4234
145.378 5366 73.253
145.494 5505 74.1957
145.61 5386 73.3894
145.726 5260 72.5259
145.842 5445 73.7902
145.959 5099 71.4073
146.075 5048 71.0493
146.192 4991 70.647
146.308 4824 69.455
146.425 4903 70.0214
146.541 4898 69.9857
146.658 5028 70.9084
146.774 5152 71.7774
146.891 5256 72.4983
147.008 5134 71.6519
147.125 5183 71.9931
147.241 5167 71.8818
147.358 5031 70.9295
147.475 4988 70.6258
147.592 4764 69.0217
147.709 4363 66.053
147.826 4043 63.5846
147.943 3909 62.522
148.06 4188 64.7148
148.177 4677 68.3886
148.294 4894 69.9571
148.411 5110 71.4843
148.528 4946 70.3278
148.645 5028 70.9084
148.762 5086 71.3162
148.88 5155 71.7983
148.997 4842 69.5845
149.114 5285 72.698
149.231 5099 71.4073
149.349 4969 70.4911
149.466 4830 69.4982
149.583 4901 70.0071
149.701 4627 68.0221
149.818 4568 67.587
149.935 4677 68.3886
150.053 4588 67.7348
150.17 4479 66.9253
150.287 4614 67.9264
150.405 4923 70.1641
150.522 4801 69.2892
150.64 4921 70.1498
150.757 4836 69.5414
150.875 4781 69.1448
150.992 4716 68.6731
151.11 4417 66.4605
151.227 4402 66.3476
151.344 4128 64.2495
151.462 3768 61.384
151.579 3714 60.9426
151.697 4008 63.3088
151.814 4466 66.8281
151.932 4701 68.5638
152.049 4895 69.9643
152.167 4871 69.7925
152.284 4939 70.278
152.402 4944 70.3136
152.519 4796 69.2532
152.636 4957 70.406
152.754 4952 70.3704
152.871 4861 69.7209
152.989 4931 70.2211
153.106 4804 69.3109
153.223 4834 69.527
153.341 4586 67.72
153.458 4656 68.2349
153.575 4488 66.9925
153.693 4556 67.4981
153.81 4687 68.4617
153.927 4627 68.0221
154.044 4666 68.3081
154.162 4855 69.6778
154.279 4867 69.7639
154.396 4913 70.0928
154.513 5029 70.9154
154.63 4910 70.0714
154.747 4793 69.2315
154.864 4606 67.8675
154.981 4249 65.1844
155.098 4077 63.8514
155.215 3990 63.1664
155.332 4197 64.7843
155.449 4509 67.1491
155.566 4845 69.606
155.683 5063 71.1548
155.8 4926 70.1855
155.917 4946 70.3278
156.033 4892 69.9428
156.15 0 1
156.267 0 1
156.383 0 1
156.5 0 1
156.617 0 1
156.733 0 1
156.85 0 1
156.966 0 1
157.082 0 1
157.199 0 1
157.315 0 1
157.431 0 1
157.547 0 1
157.664 0 1
157.78 0 1
157.896 0 1
158.012 0 1
158.128 0 1
158.244 0 1
158.359 0 1
158.475 0 1
158.591 0 1
158.706 0 1
