
6.15755 0 1
6.2731 0 1
6.3887 0 1
6.50437 0 1
6.62009 0 1
6.73587 0 1
6.8517 0 1
6.96759 0 1
7.08353 0 1
7.19952 0 1
7.31557 0 1
7.43166 0 1
7.54781 0 1
7.664 0 1
7.78024 0 1
7.89653 0 1
8.01286 0 1
8.12924 0 1
8.24567 0 1
8.36213 0 1
8.47864 0 1
8.59519 0 1
8.71178 0 1
8.82841 0 1
8.94508 0 1
9.06179 0 1
9.17853 0 1
9.29531 0 1
9.41212 0 1
9.52897 0 1
9.64584 0 1
9.76276 0 1
9.8797 0 1
9.99667 0 1
10.1137 0 1
10.2307 0 1
10.3478 0 1
10.4648 0 1
10.5819 0 1
10.6991 0 1
10.8162 0 1
10.9334 0 1
11.0506 0 1
11.1678 0 1
11.285 0 1
11.4023 0 1
11.5196 0 1
11.6369 0 1
11.7542 0 1
11.8715 0 1
11.9888 0 1
12.1062 0 1
12.2235 0 1
12.3409 0 1
12.4582 0 1
12.5756 0 1
12.693 0 1
12.8104 0 1
12.9278 0 1
13.0452 0 1
13.1626 0 1
13.28 0 1
13.3974 0 1
13.5149 0 1
13.6323 0 1
13.7497 0 1
13.8671 0 1
13.9845 0 1
14.1019 0 1
14.2193 0 1
14.3367 0 1
14.4541 0 1
14.5714 0 1
14.6888 0 1
14.8062 0 1
14.9235 0 1
15.0408 11458 107.042
15.1581 11600 107.703
15.2755 12319 110.991
15.3927 12069 109.859
15.51 12182 110.372
15.6273 12294 110.878
15.7445 12364 111.194
15.8617 12009 109.586
15.9789 11932 109.234
16.0961 12307 110.937
16.2132 12319 110.991
16.3304 12859 113.398
16.4475 13325 115.434
16.5646 13853 117.699
16.6816 14256 119.398
16.7986 14465 120.271
16.9156 14972 122.36
17.0326 15232 123.418
17.1496 15727 125.407
17.2665 16228 127.389
17.3833 16145 127.063
17.5002 16501 128.456
17.617 16827 129.719
17.7338 16684 129.167
17.8505 16803 129.626
17.9672 16727 129.333
18.0839 16024 126.586
18.2005 15312 123.742
18.3171 15110 122.923
18.4337 16086 126.831
18.5502 16629 128.953
18.6666 16898 129.992
18.7831 17110 130.805
18.8994 17333 131.655
19.0158 16974 130.284
19.1321 16507 128.48
19.2483 16105 126.905
19.3645 15825 125.797
19.4806 15677 125.208
19.5967 15289 123.649
19.7128 15184 123.223
19.8288 14678 121.153
19.9447 13605 116.64
20.0606 0 1
20.1764 0 1
20.2922 0 1
20.4079 0 1
20.5236 0 1
20.6392 0 1
20.7548 0 1
20.8702 0 1
23.3078 0 1
23.4233 0 1
23.539 0 1
23.6547 0 1
23.7704 0 1
23.8862 0 1
24.0021 0 1
24.118 0 1
24.234 0 1
24.35 0 1
24.4661 15322 123.782
24.5822 15474 124.395
24.6984 15365 123.956
24.8146 15184 123.223
24.9309 15077 122.788
25.0472 14711 121.289
25.1636 15087 122.829
25.28 15359 123.931
25.3965 15684 125.236
25.513 16082 126.815
25.6296 17154 130.973
25.7462 17561 132.518
25.8628 17612 132.71
25.9795 17848 133.596
26.0962 18067 134.414
26.213 17807 133.443
26.3298 18158 134.752
26.4466 18121 134.614
26.5635 17796 133.402
26.6804 17316 131.59
26.7973 16176 127.185
26.9143 15857 125.925
27.0313 16220 127.358
27.1483 17284 131.469
27.2653 17591 132.631
27.3824 17521 132.367
27.4996 17719 133.113
27.6167 16992 130.353
27.7339 16880 129.923
27.8511 16512 128.499
27.9683 16397 128.051
28.0855 15870 125.976
28.2028 16130 127.004
28.3201 15472 124.386
28.4374 15502 124.507
28.5547 15195 123.268
28.6721 15192 123.256
28.7894 14963 122.323
28.9068 15427 124.205
29.0242 15682 125.228
29.1416 16107 126.913
29.259 16175 127.181
29.3764 16715 129.287
29.4939 17082 130.698
29.6113 17273 131.427
29.7288 17619 132.737
29.8463 17398 131.901
29.9638 17557 132.503
30.0812 17379 131.829
30.1987 16837 129.757
30.3162 15387 124.044
30.4337 14910 122.107
30.5512 15113 122.935
30.6687 15478 124.411
30.7862 16667 129.101
30.9037 16882 129.931
31.0212 17069 130.648
31.1387 16792 129.584
31.2562 16520 128.53
31.3737 16206 127.303
31.4912 16147 127.071
31.6087 15642 125.068
31.7262 15509 124.535
31.8436 15364 123.952
31.9611 15357 123.923
32.0785 14790 121.614
32.1959 14959 122.307
32.3134 14787 121.602
32.4308 14617 120.901
32.5482 14896 122.049
32.6655 15424 124.193
32.7829 15567 124.768
32.9002 16038 126.641
33.0176 16496 128.437
33.1349 17010 130.422
33.2522 17104 130.782
33.3694 16689 129.186
33.4867 17028 130.491
33.6039 16915 130.058
33.7211 16869 129.881
33.8383 16539 128.604
33.9554 15557 124.728
34.0725 14502 120.424
34.1896 14078 118.651
34.3067 14691 121.206
34.4237 15141 123.049
34.5407 15631 125.024
34.6577 16106 126.909
34.7746 16018 126.562
34.8915 15901 126.099
35.0084 15890 126.056
35.1252 15409 124.133
35.242 15301 123.697
35.3587 15118 122.955
35.4755 14812 121.705
35.5921 14869 121.939
35.7088 14316 119.649
35.8254 14309 119.62
35.9419 14151 118.958
36.0584 13991 118.284
36.1749 13969 118.191
36.2913 14561 120.669
36.4077 14418 120.075
36.524 14671 121.124
36.6403 15016 122.54
36.7565 15393 124.069
36.8727 15941 126.258
36.9889 16204 127.295
37.1049 15950 126.293
37.221 0 1
37.3369 0 1
37.4529 0 1
37.5687 0 1
37.6845 0 1
37.8003 0 1
37.916 0 1
38.0316 0 1
38.1472 0 1
40.5851 0 1
40.7008 0 1
40.8164 0 1
40.9322 0 1
41.048 0 1
41.1639 0 1
41.2798 0 1
41.3958 0 1
41.5118 0 1
41.6279 0 1
41.744 11325 106.419
41.8602 12568 112.107
41.9765 12892 113.543
42.0928 13437 115.918
42.2091 13474 116.078
42.3255 13656 116.859
42.4419 13484 116.121
42.5584 13324 115.43
42.675 13286 115.265
42.7915 12541 111.987
42.9081 11620 107.796
43.0248 11181 105.74
43.1415 11398 106.761
43.2582 11945 109.293
43.375 12202 110.463
43.4918 12595 112.227
43.6087 12867 113.433
43.7256 12648 112.463
43.8425 12373 111.234
43.9595 12174 110.336
44.0765 11972 109.417
44.1935 11640 107.889
44.3106 11347 106.522
44.4277 10918 104.489
44.5448 10746 103.663
44.6619 10199 100.99
44.7791 10077 100.384
44.8963 9815 99.0707
45.0136 9423 97.0721
45.1308 9702 98.4987
45.2481 9991 99.955
45.3654 10046 100.23
45.4827 10095 100.474
45.6001 10305 101.514
45.7174 10536 102.645
45.8348 10478 102.362
45.9522 10360 101.784
46.0697 10272 101.351
46.1871 10197 100.98
46.3046 9860 99.2975
46.422 9158 95.6974
46.5395 8679 93.1612
46.657 8278 90.9835
46.7745 8717 93.3649
46.892 9202 95.9271
47.0096 9270 96.2808
47.1271 9690 98.4378
47.2446 9458 97.2522
47.3622 9421 97.0618
47.4797 9593 97.9439
47.5973 9131 95.5563
47.7149 9055 95.1578
47.8324 8866 94.1594
47.95 8553 92.4824
48.0675 8433 91.8314
48.1851 8189 90.4931
48.3027 7887 88.8088
48.4202 7883 88.7863
48.5378 7827 88.4703
48.6554 7867 88.6961
48.7729 7987 89.37
48.8904 8178 90.4323
49.008 8173 90.4046
49.1255 8699 93.2684
49.243 9007 94.9052
49.3605 9203 95.9323
49.478 9182 95.8228
49.5955 9359 96.7419
49.713 9170 95.7601
49.8304 8851 94.0798
49.9479 8374 91.5096
50.0653 7879 88.7637
50.1827 7654 87.4871
50.3001 7989 89.3812
50.4175 8737 93.4719
50.5348 9016 94.9526
50.6521 9596 97.9592
50.7694 9759 98.7877
50.8867 9928 99.6393
51.004 10159 100.792
51.1212 10319 101.582
51.2384 10429 102.122
51.3556 10511 102.523
51.4727 10496 102.45
51.5899 10231 101.148
51.707 10208 101.035
51.824 10121 100.603
51.9411 9925 99.6243
52.0581 9704 98.5089
52.175 10296 101.469
52.2919 10363 101.799
52.4088 10732 103.595
52.5257 11625 107.819
52.6425 12050 109.772
52.7593 12202 110.463
52.876 12620 112.339
52.9927 12533 111.951
53.1094 12800 113.137
53.226 12787 113.08
53.3426 12732 112.836
53.4591 12313 110.964
53.5756 11718 108.25
53.692 10766 103.759
53.8084 10859 104.207
53.9248 11147 105.579
54.0411 11857 108.89
54.1573 12411 111.405
54.2735 0 1
54.3896 0 1
54.5057 0 1
54.6217 0 1
54.7377 0 1
54.8537 0 1
54.9695 0 1
55.0853 0 1
55.2011 0 1
55.3168 0 1
55.4324 0 1
57.824 0 1
57.9396 0 1
58.0553 0 1
58.1711 0 1
58.2869 0 1
58.4028 0 1
58.5187 0 1
58.6347 0 1
58.7508 0 1
58.8669 0 1
58.983 12391 111.315
59.0992 13436 115.914
59.2155 14300 119.583
59.3318 14923 122.16
59.4482 15727 125.407
59.5646 15932 126.222
59.681 16169 127.157
59.7975 16099 126.882
59.9141 16120 126.965
60.0306 15933 126.226
60.1473 15773 125.591
60.2639 15173 123.179
60.3807 14931 122.192
60.4974 14445 120.187
60.6142 14294 119.558
60.731 13467 116.047
60.8479 13331 115.46
60.9648 13403 115.771
61.0818 13978 118.229
61.1987 14189 119.118
61.3158 14920 122.147
61.4328 15017 122.544
61.5499 15581 124.824
61.667 15454 124.314
61.7841 15623 124.992
61.9013 15483 124.431
62.0185 14816 121.721
62.1357 13694 117.021
62.253 13143 114.643
62.3702 12506 111.83
62.4875 12887 113.521
62.6049 13385 115.694
62.7222 13889 117.852
62.8396 14830 121.778
62.9569 15048 122.67
63.0743 15279 123.608
63.1918 15209 123.325
63.3092 15386 124.04
63.4267 15647 125.088
63.5441 15135 123.024
63.6616 14981 122.397
63.7791 14556 120.648
63.8966 14507 120.445
64.0142 13898 117.89
64.1317 13401 115.763
64.2492 12553 112.04
64.3668 12463 111.638
64.4843 12489 111.754
64.6019 12860 113.402
64.7195 13525 116.297
64.837 13810 117.516
64.9546 14528 120.532
65.0722 14798 121.647
65.1898 14913 122.119
65.3074 15215 123.349
65.4249 14779 121.569
65.5425 14689 121.198
65.6601 13918 117.975
65.7777 12916 113.649
65.8952 12131 110.141
66.0128 11741 108.356
66.1304 12116 110.073
66.2479 13272 115.204
66.3655 13548 116.396
66.483 14360 119.833
66.6005 14763 121.503
66.718 15074 122.776
66.8355 15248 123.483
66.953 14999 122.47
67.0705 14968 122.344
67.1879 14991 122.438
67.3054 14771 121.536
67.4228 14456 120.233
67.5402 14136 118.895
67.6576 13642 116.799
67.7749 12798 113.128
67.8923 12567 112.103
68.0096 12168 110.309
68.1269 12217 110.531
68.2442 12552 112.036
68.3614 13014 114.079
68.4787 13919 117.979
68.5958 14607 120.859
68.713 15253 123.503
68.8302 15205 123.309
68.9473 15398 124.089
69.0643 15597 124.888
69.1814 15087 122.829
69.2984 14482 120.341
69.4154 13713 117.103
69.5323 12821 113.23
69.6492 12135 110.159
69.7661 12688 112.641
69.8829 13478 116.095
69.9997 14090 118.701
70.1165 15120 122.963
70.2332 15442 124.266
70.3499 15872 125.984
70.4665 16170 127.161
70.5831 16211 127.322
70.6996 16169 127.157
70.8161 15862 125.944
70.9326 15792 125.666
71.049 15540 124.66
71.1653 15352 123.903
71.2817 14557 120.652
71.3979 13831 117.605
71.5141 13045 114.215
71.6303 12321 111
71.7464 11156 105.622
71.8624 0 1
71.9784 0 1
72.0944 0 1
72.2102 0 1
72.3261 0 1
72.4418 0 1
72.5575 0 1
72.6732 0 1
75.1054 0 1
75.2209 0 1
75.3365 0 1
75.4521 0 1
75.5678 0 1
75.6835 0 1
75.7993 0 1
75.9151 0 1
76.031 0 1
76.147 14507 120.445
76.263 14850 121.861
76.3791 15152 123.093
76.4952 14552 120.632
76.6113 13959 118.148
76.7276 13095 114.433
76.8438 12666 112.543
76.9601 13054 114.254
77.0765 13229 115.017
77.1929 13899 117.894
77.3093 14722 121.334
77.4258 15471 124.382
77.5423 16285 127.613
77.6589 16134 127.02
77.7755 16338 127.82
77.8921 16010 126.531
78.0088 15505 124.519
78.1256 14864 121.918
78.2423 13580 116.533
78.3591 12692 112.659
78.4759 11902 109.096
78.5928 12041 109.731
78.7097 13246 115.091
78.8266 14092 118.71
78.9436 15281 123.616
79.0606 15476 124.403
79.1776 15547 124.688
79.2946 16278 127.585
79.4117 16231 127.401
79.5288 16301 127.675
79.6459 16063 126.74
79.7631 15920 126.174
79.8802 15637 125.048
79.9974 15225 123.39
80.1147 14849 121.856
80.2319 14350 119.791
80.3491 13469 116.056
80.4664 12402 111.364
80.5837 12467 111.656
80.701 12979 113.925
80.8183 13771 117.35
80.9357 14780 121.573
81.053 15473 124.391
81.1704 15895 126.075
81.2877 16162 127.13
81.4051 16091 126.85
81.5225 16350 127.867
81.6399 15295 123.673
81.7573 15188 123.24
81.8747 13503 116.202
81.9922 12697 112.681
82.1096 12100 110
82.227 12321 111
82.3444 13227 115.009
82.4619 14547 120.611
82.5793 15258 123.523
82.6967 15461 124.342
82.8142 15883 126.028
82.9316 15856 125.921
83.049 16206 127.303
83.1664 16268 127.546
83.2838 16252 127.483
83.4012 16135 127.024
83.5186 15736 125.443
83.636 15490 124.459
83.7534 14858 121.893
83.8708 14421 120.087
83.9881 13399 115.754
84.1055 12612 112.303
84.2228 12756 112.942
84.3401 13069 114.32
84.4575 14121 118.832
84.5747 14747 121.437
84.692 15773 125.591
84.8093 16573 128.736
84.9265 16523 128.542
85.0437 16816 129.677
85.1609 16346 127.851
85.2781 15894 126.071
85.3952 14496 120.399
85.5123 13603 116.632
85.6294 12657 112.503
85.7465 12548 112.018
85.8636 13054 114.254
85.9806 14359 119.829
86.0976 15267 123.56
86.2145 16088 126.838
86.3315 16520 128.53
86.4484 17048 130.568
86.5652 17079 130.687
86.682 17352 131.727
86.7988 17327 131.632
86.9156 17239 131.297
87.0323 17014 130.438
87.149 16933 130.127
87.2657 16333 127.801
87.3823 15861 125.94
87.4988 15335 123.835
87.6154 13960 118.152
87.7318 13517 116.263
87.8483 13793 117.444
87.9647 14676 121.145
88.081 15548 124.692
88.1973 16689 129.186
88.3136 17181 131.076
88.4298 17358 131.75
88.546 17460 132.136
88.6621 17203 131.16
88.7781 16880 129.923
88.8942 0 1
89.0101 0 1
89.126 0 1
89.2419 0 1
89.3577 0 1
89.4734 0 1
89.5891 0 1
89.7047 0 1
89.8203 0 1
89.9358 0 1
92.3269 0 1
92.4424 0 1
92.558 0 1
92.6736 0 1
92.7893 0 1
92.905 0 1
93.0208 0 1
93.1366 0 1
93.2525 0 1
93.3685 0 1
93.4845 0 1
93.6005 16486 128.398
93.7167 16463 128.308
93.8328 16464 128.312
93.949 16158 127.114
94.0653 15784 125.634
94.1816 14818 121.729
94.2979 13993 118.292
94.4143 13338 115.49
94.5307 13126 114.569
94.6472 13420 115.845
94.7637 14156 118.979
94.8803 15065 122.74
94.9969 15663 125.152
95.1135 16218 127.35
95.2302 16788 129.569
95.3469 16939 130.15
95.4637 17217 131.214
95.5805 17031 130.503
95.6973 17679 132.962
95.8142 17609 132.699
95.9311 17532 132.408
96.048 17084 130.706
96.1649 16633 128.969
96.2819 16030 126.61
96.3989 15405 124.117
96.516 14509 120.453
96.633 13711 117.094
96.7501 13731 117.179
96.8673 14120 118.828
96.9844 15004 122.491
97.1016 16275 127.574
97.2188 16860 129.846
97.336 17300 131.529
97.4532 17370 131.795
97.5704 17091 130.733
97.6877 16856 129.831
97.805 15837 125.845
97.9223 14782 121.581
98.0396 13927 118.013
98.1569 13281 115.243
98.2743 13053 114.25
98.3916 13607 116.649
98.509 14532 120.549
98.6264 15419 124.173
98.7438 15824 125.793
98.8612 16358 127.898
98.9786 16786 129.561
99.096 16904 130.015
99.2134 17399 131.905
99.3308 17131 130.885
99.4482 17310 131.567
99.5656 16799 129.611
99.6831 16773 129.511
99.8005 16320 127.75
99.9179 15915 126.155
100.035 14821 121.742
100.153 14187 119.109
100.27 13362 115.594
100.388 13435 115.909
100.505 14304 119.599
100.622 15304 123.709
100.74 16120 126.965
100.857 17184 131.088
100.975 17246 131.324
101.092 17109 130.801
101.209 16995 130.365
101.327 16436 128.203
101.444 15554 124.716
101.561 14497 120.403
101.679 14022 118.415
101.796 13484 116.121
101.913 13352 115.551
102.03 14106 118.769
102.148 15384 124.032
102.265 14870 121.943
102.382 17724 133.132
102.499 16896 129.985
102.616 17705 133.06
102.733 17570 132.552
102.851 17679 132.962
102.968 17969 134.048
103.085 18031 134.28
103.202 17740 133.192
103.319 17391 131.875
103.436 17188 131.103
103.552 16129 127
103.669 15265 123.552
103.786 14368 119.867
103.903 14408 120.033
104.02 15549 124.696
104.137 16746 129.406
104.253 17521 132.367
104.37 17898 133.783
104.487 18457 135.857
104.603 18474 135.919
104.72 17864 133.656
104.836 17623 132.752
104.953 16367 127.934
105.069 15561 124.744
105.186 14759 121.487
105.302 14220 119.248
105.418 14678 121.153
105.535 15698 125.292
105.651 16604 128.857
105.767 17077 130.679
105.883 17532 132.408
105.999 17924 133.881
106.115 0 1
106.231 0 1
106.347 0 1
106.463 0 1
106.579 0 1
106.694 0 1
106.81 0 1
106.926 0 1
107.041 0 1
107.157 0 1
109.576 0 1
109.692 0 1
109.807 0 1
109.923 0 1
110.039 0 1
110.155 0 1
110.27 0 1
110.386 0 1
110.502 0 1
110.618 13827 117.588
110.735 14851 121.865
110.851 15122 122.972
110.967 15825 125.797
111.083 16125 126.984
111.199 16042 126.657
111.316 16127 126.992
111.432 16366 127.93
111.549 16215 127.338
111.665 15791 125.662
111.782 15327 123.802
111.898 14970 122.352
112.015 14484 120.349
112.132 13279 115.235
112.248 12316 110.977
112.365 12649 112.468
112.482 13309 115.365
112.599 13920 117.983
112.716 14776 121.557
112.832 14969 122.348
112.949 14959 122.307
113.066 14860 121.902
113.183 14607 120.859
113.3 14132 118.878
113.417 13108 114.49
113.534 12174 110.336
113.652 11663 107.995
113.769 11031 105.029
113.886 10954 104.661
114.003 11724 108.277
114.12 12156 110.254
114.238 12696 112.677
114.355 12951 113.802
114.472 13214 114.952
114.589 13112 114.508
114.707 13432 115.897
114.824 13461 116.022
114.942 13135 114.608
115.059 13145 114.652
115.176 12919 113.662
115.294 12832 113.278
115.411 12207 110.485
115.529 11505 107.261
115.646 10685 103.368
115.764 9838 99.1867
115.881 9733 98.656
115.999 10017 100.085
116.116 10786 103.856
116.234 11351 106.541
116.351 11507 107.271
116.469 11557 107.503
116.586 11295 106.278
116.704 11251 106.071
116.821 10859 104.207
116.939 10322 101.597
117.056 9640 98.1835
117.174 9314 96.5091
117.291 9078 95.2785
117.409 8602 92.747
117.526 9000 94.8683
117.644 9554 97.7446
117.761 9716 98.5698
117.879 10418 102.069
117.996 10312 101.548
118.114 10625 103.078
118.231 10890 104.355
118.349 10777 103.812
118.466 11012 104.938
118.584 11185 105.759
118.701 10962 104.7
118.819 10875 104.283
118.936 10858 104.202
119.053 10695 103.417
119.171 10199 100.99
119.288 9854 99.2673
119.405 9263 96.2445
119.523 9323 96.5557
119.64 9878 99.3881
119.757 10293 101.454
119.875 10881 104.312
119.992 11300 106.301
120.109 11272 106.17
120.226 11318 106.386
120.343 11460 107.051
120.46 11161 105.646
120.578 10941 104.599
120.695 10437 102.162
120.812 10007 100.035
120.929 9686 98.4175
121.046 9650 98.2344
121.163 9564 97.7957
121.279 10030 100.15
121.396 10800 103.923
121.513 11215 105.901
121.63 11397 106.757
121.747 12090 109.955
121.863 12205 110.476
121.98 12568 112.107
122.097 12532 111.946
122.213 12754 112.934
122.33 13037 114.18
122.446 12824 113.243
122.563 12797 113.124
122.679 12652 112.481
122.795 12197 110.44
122.912 12262 110.734
123.028 11306 106.33
123.144 10901 104.408
123.26 10696 103.421
123.377 0 1
123.493 0 1
123.609 0 1
123.725 0 1
123.84 0 1
123.956 0 1
124.072 0 1
124.188 0 1
124.303 0 1
124.419 0 1
126.852 0 1
126.968 0 1
127.083 0 1
127.199 0 1
127.315 0 1
127.431 0 1
127.547 0 1
127.663 0 1
127.779 0 1
127.895 0 1
128.011 0 1
128.127 0 1
128.243 0 1
128.359 13037 114.18
128.476 12778 113.04
128.592 13081 114.372
128.708 13989 118.275
128.825 14929 122.184
128.941 15302 123.701
129.058 15443 124.27
129.174 15300 123.693
129.291 15308 123.726
129.408 14995 122.454
129.524 14423 120.096
129.641 13581 116.538
129.758 12980 113.93
129.875 12417 111.432
129.992 11992 109.508
130.108 12001 109.549
130.225 12592 112.214
130.342 12611 112.299
130.459 12883 113.503
130.576 13094 114.429
130.693 13763 117.316
130.81 13731 117.179
130.928 13619 116.7
131.045 13931 118.03
131.162 13816 117.541
131.279 14030 118.448
131.396 13740 117.218
131.513 13675 116.94
131.631 13368 115.62
131.748 12835 113.292
131.865 12000 109.545
131.983 11620 107.796
132.1 11690 108.12
132.217 12588 112.196
132.335 12711 112.743
132.452 13375 115.65
132.57 13498 116.181
132.687 12823 113.239
132.804 13551 116.409
132.922 12810 113.181
133.039 12532 111.946
133.157 11605 107.727
133.274 11270 106.16
133.392 10834 104.087
133.509 10189 100.941
133.627 10248 101.232
133.744 10217 101.079
133.862 10741 103.639
133.979 10889 104.35
134.097 10935 104.571
134.214 11267 106.146
134.332 11064 105.186
134.449 11144 105.565
134.567 11085 105.285
134.684 11225 105.948
134.802 11410 106.818
134.919 11129 105.494
135.037 11078 105.252
135.154 10633 103.116
135.272 10229 101.139
135.389 9837 99.1817
135.507 9287 96.3691
135.624 9115 95.4725
135.742 9452 97.2214
135.859 9805 99.0202
135.977 10075 100.374
136.094 10046 100.23
136.211 10081 100.404
136.329 9914 99.5691
136.446 9877 99.3831
136.564 9664 98.3056
136.681 9023 94.9895
136.798 8933 94.5145
136.915 8522 92.3147
137.033 8116 90.0888
137.15 8078 89.8777
137.267 7947 89.1459
137.384 8182 90.4544
137.502 8381 91.5478
137.619 8415 91.7333
137.736 8732 93.4452
137.853 8862 94.1382
137.97 9119 95.4935
138.087 9423 97.0721
138.204 9274 96.3016
138.321 9547 97.7088
138.438 9941 99.7046
138.555 10083 100.414
138.672 9953 99.7647
138.788 9895 99.4736
138.905 9378 96.8401
139.022 9334 96.6126
139.139 9248 96.1665
139.255 9142 95.6138
139.372 9732 98.6509
139.488 10515 102.543
139.605 10879 104.302
139.721 11093 105.323
139.838 11181 105.74
139.954 11310 106.348
140.071 11080 105.262
140.187 11155 105.617
140.303 10836 104.096
140.419 10491 102.426
140.535 10158 100.787
140.652 9944 99.7196
140.768 0 1
140.884 0 1
141 0 1
141.115 0 1
141.231 0 1
141.347 0 1
141.463 0 1
141.578 0 1
141.694 0 1
144.104 0 1
144.219 0 1
144.335 0 1
144.45 0 1
144.566 0 1
144.682 0 1
144.798 0 1
144.914 0 1
145.03 0 1
145.146 9585 97.903
145.262 9596 97.9592
145.378 9125 95.5249
145.494 8935 94.5251
145.61 8675 93.1397
145.726 8244 90.7965
145.842 8005 89.4707
145.959 8027 89.5935
146.075 7942 89.1179
146.192 8094 89.9667
146.308 8234 90.7414
146.425 8238 90.7634
146.541 8268 90.9285
146.658 8157 90.3161
146.774 8094 89.9667
146.891 8409 91.7006
147.008 8207 90.5925
147.125 8359 91.4276
147.241 8449 91.9184
147.358 8261 90.89
147.475 8110 90.0555
147.592 7747 88.017
147.709 7446 86.2902
147.826 7218 84.9588
147.943 7141 84.5044
148.06 7554 86.9138
148.177 7741 87.983
148.294 7876 88.7468
148.411 7765 88.1192
148.528 7752 88.0454
148.645 7701 87.7553
148.762 7464 86.3944
148.88 7310 85.4985
148.997 7422 86.151
149.114 6518 80.7341
149.231 6561 81
149.349 6400 80
149.466 6381 79.8812
149.583 6216 78.8416
149.701 6209 78.7972
149.818 6517 80.7279
149.935 6497 80.604
150.053 6629 81.4187
150.17 6608 81.2896
150.287 6830 82.6438
150.405 6841 82.7103
150.522 6977 83.5284
150.64 6926 83.2226
150.757 7097 84.2437
150.875 7241 85.0941
150.992 7168 84.664
151.11 7195 84.8233
151.227 7038 83.8928
151.344 6699 81.8474
151.462 6561 81
151.579 6639 81.4801
151.697 6905 83.0963
151.814 7501 86.6083
151.932 7716 87.8408
152.049 7751 88.0398
152.167 7676 87.6128
152.284 7804 88.3403
152.402 7644 87.43
152.519 7646 87.4414
152.636 7356 85.7671
152.754 7196 84.8292
152.871 7112 84.3327
152.989 7012 83.7377
153.106 6867 82.8674
153.223 6814 82.547
153.341 6926 83.2226
153.458 7232 85.0412
153.575 7210 84.9117
153.693 7531 86.7813
153.81 7625 87.3212
153.927 7671 87.5842
154.044 7906 88.9157
154.162 7972 89.2861
154.279 8195 90.5262
154.396 8211 90.6146
154.513 8578 92.6175
154.63 8745 93.5147
154.747 8496 92.1737
154.864 8353 91.3947
154.981 8059 89.7719
155.098 8187 90.482
155.215 8271 90.945
155.332 8913 94.4087
155.449 9066 95.2155
155.566 9166 95.7392
155.683 9450 97.2111
155.8 9273 96.2964
155.917 9513 97.5346
156.033 9108 95.4358
156.15 0 1
156.267 0 1
156.383 0 1
156.5 0 1
156.617 0 1
156.733 0 1
156.85 0 1
156.966 0 1
157.082 0 1
157.199 0 1
157.315 0 1
157.431 0 1
157.547 0 1
157.664 0 1
157.78 0 1
157.896 0 1
158.012 0 1
158.128 0 1
158.244 0 1
158.359 0 1
158.475 0 1
158.591 0 1
158.706 0 1
