
6.15755 0 1
6.2731 0 1
6.3887 0 1
6.50437 0 1
6.62009 0 1
6.73587 0 1
6.8517 0 1
6.96759 0 1
7.08353 0 1
7.19952 0 1
7.31557 0 1
7.43166 0 1
7.54781 0 1
7.664 0 1
7.78024 0 1
7.89653 0 1
8.01286 0 1
8.12924 0 1
8.24567 0 1
8.36213 0 1
8.47864 0 1
8.59519 0 1
8.71178 0 1
8.82841 0 1
8.94508 0 1
9.06179 0 1
9.17853 0 1
9.29531 0 1
9.41212 0 1
9.52897 0 1
9.64584 0 1
9.76276 0 1
9.8797 0 1
9.99667 0 1
10.1137 0 1
10.2307 0 1
10.3478 0 1
10.4648 0 1
10.5819 0 1
10.6991 0 1
10.8162 0 1
10.9334 0 1
11.0506 0 1
11.1678 0 1
11.285 0 1
11.4023 0 1
11.5196 0 1
11.6369 0 1
11.7542 0 1
11.8715 0 1
11.9888 0 1
12.1062 0 1
12.2235 0 1
12.3409 0 1
12.4582 0 1
12.5756 0 1
12.693 0 1
12.8104 0 1
12.9278 0 1
13.0452 0 1
13.1626 0 1
13.28 0 1
13.3974 0 1
13.5149 0 1
13.6323 0 1
13.7497 0 1
13.8671 0 1
13.9845 0 1
14.1019 0 1
14.2193 0 1
14.3367 0 1
14.4541 0 1
14.5714 0 1
14.6888 0 1
14.8062 0 1
14.9235 0 1
15.0408 864 29.3939
15.1581 899 29.9833
15.2755 915 30.249
15.3927 975 31.225
15.51 928 30.4631
15.6273 956 30.9192
15.7445 920 30.3315
15.8617 954 30.8869
15.9789 893 29.8831
16.0961 888 29.7993
16.2132 888 29.7993
16.3304 907 30.1164
16.4475 954 30.8869
16.5646 972 31.1769
16.6816 987 31.4166
16.7986 1098 33.1361
16.9156 1041 32.2645
17.0326 1043 32.2955
17.1496 1096 33.1059
17.2665 1067 32.665
17.3833 1117 33.4215
17.5002 1021 31.9531
17.617 984 31.3688
17.7338 982 31.3369
17.8505 932 30.5287
17.9672 873 29.5466
18.0839 929 30.4795
18.2005 941 30.6757
18.3171 989 31.4484
18.4337 949 30.8058
18.5502 1053 32.45
18.6666 1000 31.6228
18.7831 1128 33.5857
18.8994 1070 32.7109
19.0158 1038 32.218
19.1321 986 31.4006
19.2483 996 31.5595
19.3645 923 30.3809
19.4806 825 28.7228
19.5967 811 28.4781
19.7128 747 27.3313
19.8288 627 25.04
19.9447 630 25.0998
20.0606 0 1
20.1764 0 1
20.2922 0 1
20.4079 0 1
20.5236 0 1
20.6392 0 1
20.7548 0 1
20.8702 0 1
23.3078 0 1
23.4233 0 1
23.539 0 1
23.6547 0 1
23.7704 0 1
23.8862 0 1
24.0021 0 1
24.118 0 1
24.234 0 1
24.35 0 1
24.4661 409 20.2237
24.5822 489 22.1133
24.6984 561 23.6854
24.8146 609 24.6779
24.9309 652 25.5343
25.0472 702 26.4953
25.1636 736 27.1293
25.28 823 28.688
25.3965 920 30.3315
25.513 934 30.5614
25.6296 1005 31.7017
25.7462 1095 33.0908
25.8628 1027 32.0468
25.9795 1184 34.4093
26.0962 1058 32.5269
26.213 1141 33.7787
26.3298 1017 31.8904
26.4466 903 30.05
26.5635 961 31
26.6804 916 30.2655
26.7973 959 30.9677
26.9143 975 31.225
27.0313 946 30.7571
27.1483 1073 32.7567
27.2653 1098 33.1361
27.3824 1050 32.4037
27.4996 1069 32.6956
27.6167 1075 32.7872
27.7339 1044 32.311
27.8511 981 31.3209
27.9683 974 31.209
28.0855 903 30.05
28.2028 944 30.7246
28.3201 877 29.6142
28.4374 868 29.4618
28.5547 857 29.2746
28.6721 841 29
28.7894 950 30.8221
28.9068 972 31.1769
29.0242 1046 32.3419
29.1416 1042 32.28
29.259 1142 33.7935
29.3764 1075 32.7872
29.4939 1018 31.9061
29.6113 1059 32.5423
29.7288 1060 32.5576
29.8463 994 31.5278
29.9638 876 29.5973
30.0812 906 30.0998
30.1987 865 29.4109
30.3162 933 30.545
30.4337 953 30.8707
30.5512 978 31.273
30.6687 1004 31.686
30.7862 972 31.1769
30.9037 997 31.5753
31.0212 965 31.0644
31.1387 1010 31.7805
31.2562 1000 31.6228
31.3737 1000 31.6228
31.4912 966 31.0805
31.6087 954 30.8869
31.7262 908 30.133
31.8436 846 29.0861
31.9611 832 28.8444
32.0785 807 28.4077
32.1959 839 28.9655
32.3134 870 29.4958
32.4308 931 30.5123
32.5482 960 30.9839
32.6655 942 30.692
32.7829 1033 32.1403
32.9002 1042 32.28
33.0176 1027 32.0468
33.1349 1050 32.4037
33.2522 993 31.5119
33.3694 926 30.4302
33.4867 896 29.9333
33.6039 869 29.4788
33.7211 850 29.1548
33.8383 848 29.1204
33.9554 784 28
34.0725 869 29.4788
34.1896 955 30.9031
34.3067 944 30.7246
34.4237 968 31.1127
34.5407 953 30.8707
34.6577 888 29.7993
34.7746 907 30.1164
34.8915 927 30.4467
35.0084 884 29.7321
35.1252 875 29.5804
35.242 848 29.1204
35.3587 834 28.8791
35.4755 832 28.8444
35.5921 816 28.5657
35.7088 806 28.3901
35.8254 768 27.7128
35.9419 812 28.4956
36.0584 818 28.6007
36.1749 825 28.7228
36.2913 877 29.6142
36.4077 943 30.7083
36.524 852 29.189
36.6403 820 28.6356
36.7565 829 28.7924
36.8727 773 27.8029
36.9889 794 28.178
37.1049 665 25.7876
37.221 0 1
37.3369 0 1
37.4529 0 1
37.5687 0 1
37.6845 0 1
37.8003 0 1
37.916 0 1
38.0316 0 1
38.1472 0 1
40.5851 0 1
40.7008 0 1
40.8164 0 1
40.9322 0 1
41.048 0 1
41.1639 0 1
41.2798 0 1
41.3958 0 1
41.5118 0 1
41.6279 0 1
41.744 492 22.1811
41.8602 505 22.4722
41.9765 550 23.4521
42.0928 576 24
42.2091 574 23.9583
42.3255 523 22.8692
42.4419 512 22.6274
42.5584 547 23.388
42.675 595 24.3926
42.7915 668 25.8457
42.9081 701 26.4764
43.0248 724 26.9072
43.1415 743 27.258
43.2582 757 27.5136
43.375 828 28.775
43.4918 779 27.9106
43.6087 834 28.8791
43.7256 759 27.55
43.8425 783 27.9821
43.9595 756 27.4955
44.0765 746 27.313
44.1935 667 25.8263
44.3106 675 25.9808
44.4277 697 26.4008
44.5448 582 24.1247
44.6619 668 25.8457
44.7791 685 26.1725
44.8963 730 27.0185
45.0136 749 27.3679
45.1308 833 28.8617
45.2481 834 28.8791
45.3654 828 28.775
45.4827 855 29.2404
45.6001 831 28.8271
45.7174 776 27.8568
45.8348 763 27.6225
45.9522 651 25.5147
46.0697 667 25.8263
46.1871 607 24.6374
46.3046 622 24.9399
46.422 691 26.2869
46.5395 740 27.2029
46.657 796 28.2135
46.7745 790 28.1069
46.892 767 27.6948
47.0096 772 27.7849
47.1271 870 29.4958
47.2446 833 28.8617
47.3622 773 27.8029
47.4797 815 28.5482
47.5973 758 27.5318
47.7149 759 27.55
47.8324 694 26.3439
47.95 687 26.2107
48.0675 639 25.2784
48.1851 677 26.0192
48.3027 659 25.671
48.4202 665 25.7876
48.5378 726 26.9444
48.6554 811 28.4781
48.7729 793 28.1603
48.8904 816 28.5657
49.008 803 28.3373
49.1255 803 28.3373
49.243 792 28.1425
49.3605 715 26.7395
49.478 692 26.3059
49.5955 641 25.318
49.713 615 24.7992
49.8304 649 25.4755
49.9479 709 26.6271
50.0653 681 26.096
50.1827 759 27.55
50.3001 803 28.3373
50.4175 728 26.9815
50.5348 807 28.4077
50.6521 804 28.3549
50.7694 831 28.8271
50.8867 790 28.1069
51.004 796 28.2135
51.1212 790 28.1069
51.2384 764 27.6405
51.3556 686 26.1916
51.4727 675 25.9808
51.5899 635 25.1992
51.707 617 24.8395
51.824 640 25.2982
51.9411 722 26.8701
52.0581 748 27.3496
52.175 800 28.2843
52.2919 804 28.3549
52.4088 814 28.5307
52.5257 799 28.2666
52.6425 831 28.8271
52.7593 786 28.0357
52.876 743 27.258
52.9927 677 26.0192
53.1094 655 25.593
53.226 662 25.7294
53.3426 632 25.1396
53.4591 581 24.1039
53.5756 669 25.865
53.692 645 25.3969
53.8084 606 24.6171
53.9248 548 23.4094
54.0411 590 24.2899
54.1573 580 24.0832
54.2735 0 1
54.3896 0 1
54.5057 0 1
54.6217 0 1
54.7377 0 1
54.8537 0 1
54.9695 0 1
55.0853 0 1
55.2011 0 1
55.3168 0 1
55.4324 0 1
57.824 0 1
57.9396 0 1
58.0553 0 1
58.1711 0 1
58.2869 0 1
58.4028 0 1
58.5187 0 1
58.6347 0 1
58.7508 0 1
58.8669 0 1
58.983 539 23.2164
59.0992 632 25.1396
59.2155 678 26.0384
59.3318 769 27.7308
59.4482 842 29.0172
59.5646 878 29.6311
59.681 910 30.1662
59.7975 927 30.4467
59.9141 928 30.4631
60.0306 903 30.05
60.1473 875 29.5804
60.2639 855 29.2404
60.3807 823 28.688
60.4974 792 28.1425
60.6142 894 29.8998
60.731 951 30.8383
60.8479 997 31.5753
60.9648 985 31.3847
61.0818 997 31.5753
61.1987 1053 32.45
61.3158 976 31.241
61.4328 998 31.5911
61.5499 958 30.9516
61.667 818 28.6007
61.7841 872 29.5296
61.9013 761 27.5862
62.0185 771 27.7669
62.1357 838 28.9482
62.253 892 29.8664
62.3702 958 30.9516
62.4875 964 31.0483
62.6049 961 31
62.7222 976 31.241
62.8396 1021 31.9531
62.9569 1043 32.2955
63.0743 1038 32.218
63.1918 1044 32.311
63.3092 996 31.5595
63.4267 1015 31.8591
63.5441 936 30.5941
63.6616 899 29.9833
63.7791 855 29.2404
63.8966 810 28.4605
64.0142 872 29.5296
64.1317 856 29.2575
64.2492 910 30.1662
64.3668 949 30.8058
64.4843 983 31.3528
64.6019 1012 31.8119
64.7195 1003 31.6702
64.837 1023 31.9844
64.9546 1039 32.2335
65.0722 969 31.1288
65.1898 930 30.4959
65.3074 810 28.4605
65.4249 787 28.0535
65.5425 704 26.533
65.6601 750 27.3861
65.7777 749 27.3679
65.8952 861 29.3428
66.0128 962 31.0161
66.1304 933 30.545
66.2479 1052 32.4345
66.3655 1020 31.9374
66.483 1025 32.0156
66.6005 1081 32.8786
66.718 1050 32.4037
66.8355 1047 32.3574
66.953 993 31.5119
67.0705 901 30.0167
67.1879 961 31
67.3054 951 30.8383
67.4228 806 28.3901
67.5402 792 28.1425
67.6576 809 28.4429
67.7749 829 28.7924
67.8923 905 30.0832
68.0096 938 30.6268
68.1269 1041 32.2645
68.2442 1067 32.665
68.3614 1049 32.3883
68.4787 1055 32.4808
68.5958 1081 32.8786
68.713 1007 31.7333
68.8302 1007 31.7333
68.9473 928 30.4631
69.0643 881 29.6816
69.1814 813 28.5132
69.2984 912 30.1993
69.4154 957 30.9354
69.5323 1010 31.7805
69.6492 1079 32.8481
69.7661 1103 33.2114
69.8829 1080 32.8634
69.9997 1136 33.7046
70.1165 1130 33.6155
70.2332 1069 32.6956
70.3499 1055 32.4808
70.4665 1051 32.4191
70.5831 954 30.8869
70.6996 948 30.7896
70.8161 863 29.3769
70.9326 794 28.178
71.049 647 25.4362
71.1653 543 23.3024
71.2817 486 22.0454
71.3979 414 20.347
71.5141 443 21.0476
71.6303 451 21.2368
71.7464 405 20.1246
71.8624 0 1
71.9784 0 1
72.0944 0 1
72.2102 0 1
72.3261 0 1
72.4418 0 1
72.5575 0 1
72.6732 0 1
75.1054 0 1
75.2209 0 1
75.3365 0 1
75.4521 0 1
75.5678 0 1
75.6835 0 1
75.7993 0 1
75.9151 0 1
76.031 0 1
76.147 749 27.3679
76.263 762 27.6043
76.3791 768 27.7128
76.4952 780 27.9285
76.6113 784 28
76.7276 784 28
76.8438 862 29.3598
76.9601 911 30.1828
77.0765 966 31.0805
77.1929 1046 32.3419
77.3093 970 31.1448
77.4258 997 31.5753
77.5423 940 30.6594
77.6589 971 31.1609
77.7755 921 30.348
77.8921 756 27.4955
78.0088 752 27.4226
78.1256 717 26.7769
78.2423 651 25.5147
78.3591 693 26.3249
78.4759 789 28.0891
78.5928 862 29.3598
78.7097 871 29.5127
78.8266 830 28.8097
78.9436 915 30.249
79.0606 900 30
79.1776 863 29.3769
79.2946 948 30.7896
79.4117 949 30.8058
79.5288 928 30.4631
79.6459 921 30.348
79.7631 885 29.7489
79.8802 845 29.0689
79.9974 770 27.7489
80.1147 715 26.7395
80.2319 693 26.3249
80.3491 683 26.1343
80.4664 717 26.7769
80.5837 780 27.9285
80.701 894 29.8998
80.8183 892 29.8664
80.9357 890 29.8329
81.053 903 30.05
81.1704 928 30.4631
81.2877 915 30.249
81.4051 862 29.3598
81.5225 820 28.6356
81.6399 794 28.178
81.7573 741 27.2213
81.8747 661 25.7099
81.9922 655 25.593
82.1096 731 27.037
82.227 813 28.5132
82.3444 862 29.3598
82.4619 833 28.8617
82.5793 907 30.1164
82.6967 906 30.0998
82.8142 867 29.4449
82.9316 885 29.7489
83.049 921 30.348
83.1664 914 30.2324
83.2838 900 30
83.4012 892 29.8664
83.5186 820 28.6356
83.636 815 28.5482
83.7534 789 28.0891
83.8708 665 25.7876
83.9881 650 25.4951
84.1055 654 25.5734
84.2228 755 27.4773
84.3401 822 28.6705
84.4575 936 30.5941
84.5747 946 30.7571
84.692 939 30.6431
84.8093 896 29.9333
84.9265 993 31.5119
85.0437 887 29.7825
85.1609 812 28.4956
85.2781 719 26.8142
85.3952 682 26.1151
85.5123 657 25.632
85.6294 634 25.1794
85.7465 763 27.6225
85.8636 821 28.6531
85.9806 868 29.4618
86.0976 877 29.6142
86.2145 946 30.7571
86.3315 917 30.282
86.4484 943 30.7083
86.5652 978 31.273
86.682 962 31.0161
86.7988 983 31.3528
86.9156 929 30.4795
87.0323 874 29.5635
87.149 839 28.9655
87.2657 797 28.2312
87.3823 729 27
87.4988 625 25
87.6154 650 25.4951
87.7318 657 25.632
87.8483 721 26.8514
87.9647 727 26.9629
88.081 775 27.8388
88.1973 755 27.4773
88.3136 666 25.807
88.4298 628 25.0599
88.546 651 25.5147
88.6621 516 22.7156
88.7781 434 20.8327
88.8942 0 1
89.0101 0 1
89.126 0 1
89.2419 0 1
89.3577 0 1
89.4734 0 1
89.5891 0 1
89.7047 0 1
89.8203 0 1
89.9358 0 1
92.3269 0 1
92.4424 0 1
92.558 0 1
92.6736 0 1
92.7893 0 1
92.905 0 1
93.0208 0 1
93.1366 0 1
93.2525 0 1
93.3685 0 1
93.4845 0 1
93.6005 675 25.9808
93.7167 634 25.1794
93.8328 747 27.3313
93.949 743 27.258
94.0653 806 28.3901
94.1816 852 29.189
94.2979 795 28.1957
94.4143 728 26.9815
94.5307 686 26.1916
94.6472 739 27.1846
94.7637 695 26.3629
94.8803 733 27.074
94.9969 708 26.6083
95.1135 840 28.9828
95.2302 877 29.6142
95.3469 884 29.7321
95.4637 969 31.1288
95.5805 915 30.249
95.6973 930 30.4959
95.8142 886 29.7658
95.9311 929 30.4795
96.048 924 30.3974
96.1649 928 30.4631
96.2819 860 29.3258
96.3989 878 29.6311
96.516 829 28.7924
96.633 788 28.0713
96.7501 714 26.7208
96.8673 719 26.8142
96.9844 709 26.6271
97.1016 703 26.5141
97.2188 869 29.4788
97.336 878 29.6311
97.4532 895 29.9166
97.5704 958 30.9516
97.6877 927 30.4467
97.805 921 30.348
97.9223 856 29.2575
98.0396 783 27.9821
98.1569 733 27.074
98.2743 637 25.2389
98.3916 645 25.3969
98.509 707 26.5895
98.6264 770 27.7489
98.7438 876 29.5973
98.8612 883 29.7153
98.9786 877 29.6142
99.096 913 30.2159
99.2134 900 30
99.3308 939 30.6431
99.4482 972 31.1769
99.5656 955 30.9031
99.6831 947 30.7734
99.8005 915 30.249
99.9179 894 29.8998
100.035 912 30.1993
100.153 830 28.8097
100.27 810 28.4605
100.388 700 26.4575
100.505 751 27.4044
100.622 770 27.7489
100.74 919 30.315
100.857 936 30.5941
100.975 952 30.8545
101.092 1043 32.2955
101.209 945 30.7409
101.327 946 30.7571
101.444 981 31.3209
101.561 851 29.1719
101.679 790 28.1069
101.796 780 27.9285
101.913 710 26.6458
102.03 724 26.9072
102.148 840 28.9828
102.265 821 28.6531
102.382 902 30.0333
102.499 928 30.4631
102.616 916 30.2655
102.733 1030 32.0936
102.851 1025 32.0156
102.968 1053 32.45
103.085 1020 31.9374
103.202 1032 32.1248
103.319 994 31.5278
103.436 940 30.6594
103.552 957 30.9354
103.669 878 29.6311
103.786 789 28.0891
103.903 859 29.3087
104.02 778 27.8927
104.137 852 29.189
104.253 962 31.0161
104.37 997 31.5753
104.487 1053 32.45
104.603 1002 31.6544
104.72 1063 32.6037
104.836 981 31.3209
104.953 942 30.692
105.069 884 29.7321
105.186 719 26.8142
105.302 633 25.1595
105.418 686 26.1916
105.535 654 25.5734
105.651 661 25.7099
105.767 695 26.3629
105.883 671 25.9037
105.999 617 24.8395
106.115 0 1
106.231 0 1
106.347 0 1
106.463 0 1
106.579 0 1
106.694 0 1
106.81 0 1
106.926 0 1
107.041 0 1
107.157 0 1
109.576 0 1
109.692 0 1
109.807 0 1
109.923 0 1
110.039 0 1
110.155 0 1
110.27 0 1
110.386 0 1
110.502 0 1
110.618 391 19.7737
110.735 503 22.4277
110.851 619 24.8797
110.967 644 25.3772
111.083 728 26.9815
111.199 872 29.5296
111.316 898 29.9666
111.432 929 30.4795
111.549 899 29.9833
111.665 926 30.4302
111.782 909 30.1496
111.898 945 30.7409
112.015 937 30.6105
112.132 871 29.5127
112.248 811 28.4781
112.365 718 26.7955
112.482 670 25.8844
112.599 824 28.7054
112.716 818 28.6007
112.832 892 29.8664
112.949 936 30.5941
113.066 956 30.9192
113.183 945 30.7409
113.3 979 31.289
113.417 911 30.1828
113.534 876 29.5973
113.652 772 27.7849
113.769 734 27.0924
113.886 694 26.3439
114.003 701 26.4764
114.12 659 25.671
114.238 792 28.1425
114.355 820 28.6356
114.472 806 28.3901
114.589 974 31.209
114.707 891 29.8496
114.824 905 30.0832
114.942 950 30.8221
115.059 978 31.273
115.176 958 30.9516
115.294 942 30.692
115.411 901 30.0167
115.529 863 29.3769
115.646 859 29.3087
115.764 806 28.3901
115.881 790 28.1069
115.999 747 27.3313
116.116 723 26.8887
116.234 804 28.3549
116.351 811 28.4781
116.469 928 30.4631
116.586 897 29.95
116.704 933 30.545
116.821 874 29.5635
116.939 960 30.9839
117.056 892 29.8664
117.174 877 29.6142
117.291 717 26.7769
117.409 707 26.5895
117.526 674 25.9615
117.644 648 25.4558
117.761 774 27.8209
117.879 814 28.5307
117.996 829 28.7924
118.114 876 29.5973
118.231 869 29.4788
118.349 933 30.545
118.466 893 29.8831
118.584 922 30.3645
118.701 938 30.6268
118.819 880 29.6648
118.936 868 29.4618
119.053 945 30.7409
119.171 846 29.0861
119.288 883 29.7153
119.405 785 28.0179
119.523 745 27.2947
119.64 732 27.0555
119.757 691 26.2869
119.875 797 28.2312
119.992 805 28.3725
120.109 866 29.4279
120.226 855 29.2404
120.343 866 29.4279
120.46 872 29.5296
120.578 850 29.1548
120.695 939 30.6431
120.812 847 29.1033
120.929 755 27.4773
121.046 713 26.7021
121.163 671 25.9037
121.279 647 25.4362
121.396 676 26
121.513 699 26.4386
121.63 737 27.1477
121.747 764 27.6405
121.863 762 27.6043
121.98 747 27.3313
122.097 737 27.1477
122.213 748 27.3496
122.33 796 28.2135
122.446 706 26.5707
122.563 668 25.8457
122.679 686 26.1916
122.795 635 25.1992
122.912 571 23.8956
123.028 471 21.7025
123.144 427 20.664
123.26 412 20.2978
123.377 0 1
123.493 0 1
123.609 0 1
123.725 0 1
123.84 0 1
123.956 0 1
124.072 0 1
124.188 0 1
124.303 0 1
124.419 0 1
126.852 0 1
126.968 0 1
127.083 0 1
127.199 0 1
127.315 0 1
127.431 0 1
127.547 0 1
127.663 0 1
127.779 0 1
127.895 0 1
128.011 0 1
128.127 0 1
128.243 0 1
128.359 930 30.4959
128.476 954 30.8869
128.592 921 30.348
128.708 913 30.2159
128.825 962 31.0161
128.941 961 31
129.058 1031 32.1092
129.174 1067 32.665
129.291 1121 33.4813
129.408 1114 33.3766
129.524 1130 33.6155
129.641 1134 33.6749
129.758 1155 33.9853
129.875 988 31.4325
129.992 977 31.257
130.108 924 30.3974
130.225 863 29.3769
130.342 811 28.4781
130.459 880 29.6648
130.576 925 30.4138
130.693 1000 31.6228
130.81 1066 32.6497
130.928 1089 33
131.045 1111 33.3317
131.162 1092 33.0454
131.279 1156 34
131.396 1144 33.8231
131.513 1135 33.6898
131.631 1068 32.6803
131.748 1078 32.8329
131.865 1033 32.1403
131.983 1018 31.9061
132.1 1035 32.1714
132.217 939 30.6431
132.335 899 29.9833
132.452 984 31.3688
132.57 1092 33.0454
132.687 1103 33.2114
132.804 1108 33.2866
132.922 1173 34.2491
133.039 1114 33.3766
133.157 1095 33.0908
133.274 1096 33.1059
133.392 1051 32.4191
133.509 972 31.1769
133.627 887 29.7825
133.744 873 29.5466
133.862 859 29.3087
133.979 870 29.4958
134.097 880 29.6648
134.214 960 30.9839
134.332 998 31.5911
134.449 1037 32.2025
134.567 1139 33.7491
134.684 1063 32.6037
134.802 1062 32.5883
134.919 1063 32.6037
135.037 1134 33.6749
135.154 1148 33.8821
135.272 1104 33.2265
135.389 1054 32.4654
135.507 1023 31.9844
135.624 942 30.692
135.742 924 30.3974
135.859 982 31.3369
135.977 922 30.3645
136.094 990 31.4643
136.211 1071 32.7261
136.329 1107 33.2716
136.446 1123 33.5112
136.564 1138 33.7343
136.681 1178 34.322
136.798 1093 33.0606
136.915 1104 33.2265
137.033 1083 32.909
137.15 973 31.1929
137.267 934 30.5614
137.384 947 30.7734
137.502 870 29.4958
137.619 884 29.7321
137.736 949 30.8058
137.853 962 31.0161
137.97 1014 31.8434
138.087 1002 31.6544
138.204 1014 31.8434
138.321 1099 33.1512
138.438 1091 33.0303
138.555 1110 33.3167
138.672 1064 32.619
138.788 1007 31.7333
138.905 996 31.5595
139.022 920 30.3315
139.139 887 29.7825
139.255 850 29.1548
139.372 734 27.0924
139.488 702 26.4953
139.605 752 27.4226
139.721 719 26.8142
139.838 696 26.3818
139.954 748 27.3496
140.071 682 26.1151
140.187 664 25.7682
140.303 563 23.7276
140.419 581 24.1039
140.535 522 22.8473
140.652 459 21.4243
140.768 0 1
140.884 0 1
141 0 1
141.115 0 1
141.231 0 1
141.347 0 1
141.463 0 1
141.578 0 1
141.694 0 1
144.104 0 1
144.219 0 1
144.335 0 1
144.45 0 1
144.566 0 1
144.682 0 1
144.798 0 1
144.914 0 1
145.03 0 1
145.146 686 26.1916
145.262 749 27.3679
145.378 789 28.0891
145.494 842 29.0172
145.61 817 28.5832
145.726 777 27.8747
145.842 724 26.9072
145.959 668 25.8457
146.075 634 25.1794
146.192 602 24.5357
146.308 618 24.8596
146.425 637 25.2389
146.541 605 24.5967
146.658 667 25.8263
146.774 741 27.2213
146.891 707 26.5895
147.008 738 27.1662
147.125 742 27.2397
147.241 725 26.9258
147.358 737 27.1477
147.475 729 27
147.592 718 26.7955
147.709 693 26.3249
147.826 715 26.7395
147.943 664 25.7682
148.06 683 26.1343
148.177 615 24.7992
148.294 607 24.6374
148.411 672 25.923
148.528 694 26.3439
148.645 658 25.6515
148.762 739 27.1846
148.88 759 27.55
148.997 771 27.7669
149.114 709 26.6271
149.231 781 27.9464
149.349 684 26.1534
149.466 710 26.6458
149.583 691 26.2869
149.701 679 26.0576
149.818 578 24.0416
149.935 584 24.1661
150.053 600 24.4949
150.17 632 25.1396
150.287 624 24.98
150.405 640 25.2982
150.522 659 25.671
150.64 695 26.3629
150.757 673 25.9422
150.875 681 26.096
150.992 771 27.7669
151.11 754 27.4591
151.227 667 25.8263
151.344 694 26.3439
151.462 630 25.0998
151.579 662 25.7294
151.697 660 25.6905
151.814 598 24.454
151.932 600 24.4949
152.049 634 25.1794
152.167 666 25.807
152.284 654 25.5734
152.402 675 25.9808
152.519 669 25.865
152.636 703 26.5141
152.754 721 26.8514
152.871 657 25.632
152.989 630 25.0998
153.106 656 25.6125
153.223 631 25.1197
153.341 624 24.98
153.458 572 23.9165
153.575 535 23.1301
153.693 562 23.7065
153.81 612 24.7386
153.927 645 25.3969
154.044 625 25
154.162 616 24.8193
154.279 640 25.2982
154.396 698 26.4197
154.513 669 25.865
154.63 644 25.3772
154.747 671 25.9037
154.864 612 24.7386
154.981 641 25.318
155.098 640 25.2982
155.215 612 24.7386
155.332 587 24.2281
155.449 530 23.0217
155.566 557 23.6008
155.683 548 23.4094
155.8 601 24.5153
155.917 600 24.4949
156.033 607 24.6374
156.15 0 1
156.267 0 1
156.383 0 1
156.5 0 1
156.617 0 1
156.733 0 1
156.85 0 1
156.966 0 1
157.082 0 1
157.199 0 1
157.315 0 1
157.431 0 1
157.547 0 1
157.664 0 1
157.78 0 1
157.896 0 1
158.012 0 1
158.128 0 1
158.244 0 1
158.359 0 1
158.475 0 1
158.591 0 1
158.706 0 1
