
6.15755 0 1
6.2731 0 1
6.3887 0 1
6.50437 0 1
6.62009 0 1
6.73587 0 1
6.8517 0 1
6.96759 0 1
7.08353 0 1
7.19952 0 1
7.31557 0 1
7.43166 0 1
7.54781 0 1
7.664 0 1
7.78024 0 1
7.89653 0 1
8.01286 0 1
8.12924 0 1
8.24567 0 1
8.36213 0 1
8.47864 0 1
8.59519 0 1
8.71178 0 1
8.82841 0 1
8.94508 0 1
9.06179 0 1
9.17853 0 1
9.29531 0 1
9.41212 0 1
9.52897 0 1
9.64584 0 1
9.76276 0 1
9.8797 0 1
9.99667 0 1
10.1137 0 1
10.2307 0 1
10.3478 0 1
10.4648 0 1
10.5819 0 1
10.6991 0 1
10.8162 0 1
10.9334 0 1
11.0506 0 1
11.1678 0 1
11.285 0 1
11.4023 0 1
11.5196 0 1
11.6369 0 1
11.7542 0 1
11.8715 0 1
11.9888 0 1
12.1062 0 1
12.2235 0 1
12.3409 0 1
12.4582 0 1
12.5756 0 1
12.693 0 1
12.8104 0 1
12.9278 0 1
13.0452 0 1
13.1626 0 1
13.28 0 1
13.3974 0 1
13.5149 0 1
13.6323 0 1
13.7497 0 1
13.8671 0 1
13.9845 0 1
14.1019 0 1
14.2193 0 1
14.3367 0 1
14.4541 0 1
14.5714 0 1
14.6888 0 1
14.8062 0 1
14.9235 0 1
15.0408 18789 137.073
15.1581 19565 139.875
15.2755 20444 142.983
15.3927 21442 146.431
15.51 22052 148.499
15.6273 21791 147.618
15.7445 21136 145.382
15.8617 20172 142.028
15.9789 18817 137.175
16.0961 19151 138.387
16.2132 19869 140.957
16.3304 21015 144.966
16.4475 22337 149.456
16.5646 22703 150.675
16.6816 22694 150.645
16.7986 22514 150.047
16.9156 22567 150.223
17.0326 22223 149.074
17.1496 22192 148.97
17.2665 22315 149.382
17.3833 22285 149.282
17.5002 22481 149.937
17.617 22349 149.496
17.7338 22043 148.469
17.8505 22114 148.708
17.9672 21375 146.202
18.0839 21392 146.26
18.2005 21416 146.342
18.3171 21688 147.268
18.4337 22537 150.123
18.5502 23415 153.02
18.6666 23970 154.822
18.7831 23965 154.806
18.8994 23678 153.877
19.0158 23548 153.454
19.1321 22561 150.203
19.2483 21358 146.144
19.3645 20442 142.976
19.4806 19223 138.647
19.5967 18794 137.091
19.7128 19251 138.748
19.8288 20097 141.764
19.9447 19244 138.723
20.0606 0 1
20.1764 0 1
20.2922 0 1
20.4079 0 1
20.5236 0 1
20.6392 0 1
20.7548 0 1
20.8702 0 1
23.3078 0 1
23.4233 0 1
23.539 0 1
23.6547 0 1
23.7704 0 1
23.8862 0 1
24.0021 0 1
24.118 0 1
24.234 0 1
24.35 0 1
24.4661 19972 141.322
24.5822 18983 137.779
24.6984 18796 137.099
24.8146 19698 140.35
24.9309 20983 144.855
25.0472 22783 150.94
25.1636 23404 152.984
25.28 23514 153.343
25.3965 23686 153.903
25.513 24057 155.103
25.6296 24054 155.094
25.7462 24518 156.582
25.8628 24804 157.493
25.9795 24615 156.892
26.0962 24500 156.525
26.213 23687 153.906
26.3298 23390 152.938
26.4466 22942 151.466
26.5635 22272 149.238
26.6804 22360 149.533
26.7973 22418 149.726
26.9143 22280 149.265
27.0313 22444 149.813
27.1483 23349 152.804
27.2653 23775 154.191
27.3824 24363 156.087
27.4996 24350 156.045
27.6167 23524 153.375
27.7339 22949 151.489
27.8511 22093 148.637
27.9683 21245 145.757
28.0855 20169 142.018
28.2028 19141 138.351
28.3201 19051 138.025
28.4374 19947 141.234
28.5547 20976 144.831
28.6721 22893 151.304
28.7894 23284 152.591
28.9068 23215 152.365
29.0242 23066 151.875
29.1416 23074 151.901
29.259 23057 151.845
29.3764 22837 151.119
29.4939 22775 150.914
29.6113 22273 149.241
29.7288 21893 147.963
29.8463 21867 147.875
29.9638 20899 144.565
30.0812 20923 144.648
30.1987 20620 143.597
30.3162 20872 144.471
30.4337 20887 144.523
30.5512 21308 145.973
30.6687 21627 147.061
30.7862 22050 148.492
30.9037 22259 149.195
31.0212 22985 151.608
31.1387 22499 149.997
31.2562 22280 149.265
31.3737 21678 147.235
31.4912 20791 144.191
31.6087 19579 139.925
31.7262 18509 136.048
31.8436 18068 134.417
31.9611 19203 138.575
32.0785 20463 143.049
32.1959 21692 147.282
32.3134 22334 149.446
32.4308 22320 149.399
32.5482 22059 148.523
32.6655 22020 148.391
32.7829 22023 148.401
32.9002 22358 149.526
33.0176 22055 148.509
33.1349 21846 147.804
33.2522 22154 148.842
33.3694 21230 145.705
33.4867 20770 144.118
33.6039 20203 142.137
33.7211 19923 141.149
33.8383 19825 140.801
33.9554 20163 141.996
34.0725 20068 141.662
34.1896 20301 142.482
34.3067 20523 143.259
34.4237 20877 144.489
34.5407 21176 145.52
34.6577 21616 147.024
34.7746 21085 145.207
34.8915 21196 145.588
35.0084 20667 143.76
35.1252 20473 143.084
35.242 19649 140.175
35.3587 18123 134.622
35.4755 17234 131.278
35.5921 17447 132.087
35.7088 18163 134.77
35.8254 19518 139.707
35.9419 20746 144.035
36.0584 21089 145.221
36.1749 21410 146.322
36.2913 21152 145.437
36.4077 21060 145.121
36.524 21187 145.558
36.6403 21229 145.702
36.7565 21216 145.657
36.8727 21037 145.041
36.9889 20510 143.213
37.1049 19871 140.965
37.221 0 1
37.3369 0 1
37.4529 0 1
37.5687 0 1
37.6845 0 1
37.8003 0 1
37.916 0 1
38.0316 0 1
38.1472 0 1
40.5851 0 1
40.7008 0 1
40.8164 0 1
40.9322 0 1
41.048 0 1
41.1639 0 1
41.2798 0 1
41.3958 0 1
41.5118 0 1
41.6279 0 1
41.744 15825 125.797
41.8602 17168 131.027
41.9765 17411 131.951
42.0928 17228 131.255
42.2091 16889 129.958
42.3255 16428 128.172
42.4419 15898 126.087
42.5584 15341 123.859
42.675 15112 122.931
42.7915 15007 122.503
42.9081 15348 123.887
43.0248 15636 125.044
43.1415 15730 125.419
43.2582 15693 125.272
43.375 15578 124.812
43.4918 15489 124.455
43.6087 15735 125.439
43.7256 15561 124.744
43.8425 15338 123.847
43.9595 14648 121.029
44.0765 14263 119.428
44.1935 13506 116.215
44.3106 12460 111.624
44.4277 11564 107.536
44.5448 11741 108.356
44.6619 12134 110.154
44.7791 13049 114.232
44.8963 13063 114.293
45.0136 13278 115.23
45.1308 13005 114.039
45.2481 12816 113.208
45.3654 12515 111.87
45.4827 12396 111.337
45.6001 12273 110.784
45.7174 12082 109.918
45.8348 11744 108.37
45.9522 11539 107.42
46.0697 11212 105.887
46.1871 10748 103.673
46.3046 10861 104.216
46.422 10597 102.942
46.5395 10864 104.231
46.657 11020 104.976
46.7745 11085 105.285
46.892 10792 103.885
47.0096 10899 104.398
47.1271 10753 103.697
47.2446 10809 103.966
47.3622 10689 103.388
47.4797 10306 101.518
47.5973 10161 100.802
47.7149 9578 97.8673
47.8324 9040 95.0789
47.95 8449 91.9184
48.0675 8113 90.0722
48.1851 8546 92.4446
48.3027 9070 95.2365
48.4202 9701 98.4937
48.5378 9949 99.7447
48.6554 9721 98.5951
48.7729 9977 99.8849
48.8904 9999 99.995
49.008 9914 99.5691
49.1255 9933 99.6644
49.243 9797 98.9798
49.3605 9622 98.0918
49.478 9432 97.1185
49.5955 9540 97.6729
49.713 9547 97.7088
49.8304 9528 97.6115
49.9479 9912 99.559
50.0653 10263 101.306
50.1827 10687 103.378
50.3001 11364 106.602
50.4175 11253 106.08
50.5348 11617 107.782
50.6521 12261 110.729
50.7694 12391 111.315
50.8867 12759 112.956
51.004 12864 113.42
51.1212 12937 113.741
51.2384 12724 112.801
51.3556 12464 111.642
51.4727 12031 109.686
51.5899 12167 110.304
51.707 13265 115.174
51.824 14786 121.598
51.9411 16189 127.236
52.0581 16786 129.561
52.175 17324 131.621
52.2919 17892 133.761
52.4088 18248 135.085
52.5257 18657 136.591
52.6425 18904 137.492
52.7593 18956 137.681
52.876 18925 137.568
52.9927 18344 135.44
53.1094 18466 135.89
53.226 18159 134.755
53.3426 18420 135.72
53.4591 18588 136.338
53.5756 19288 138.881
53.692 20074 141.683
53.8084 20491 143.147
53.9248 21322 146.021
54.0411 21822 147.723
54.1573 22122 148.735
54.2735 0 1
54.3896 0 1
54.5057 0 1
54.6217 0 1
54.7377 0 1
54.8537 0 1
54.9695 0 1
55.0853 0 1
55.2011 0 1
55.3168 0 1
55.4324 0 1
57.824 0 1
57.9396 0 1
58.0553 0 1
58.1711 0 1
58.2869 0 1
58.4028 0 1
58.5187 0 1
58.6347 0 1
58.7508 0 1
58.8669 0 1
58.983 21596 146.956
59.0992 23349 152.804
59.2155 23719 154.01
59.3318 24028 155.01
59.4482 24022 154.99
59.5646 23867 154.489
59.681 24096 155.229
59.7975 23587 153.581
59.9141 23154 152.164
60.0306 22214 149.044
60.1473 21462 146.499
60.2639 20428 142.927
60.3807 20391 142.797
60.4974 20871 144.468
60.6142 22376 149.586
60.731 23551 153.463
60.8479 23920 154.661
60.9648 24442 156.339
61.0818 24684 157.111
61.1987 24192 155.538
61.3158 23748 154.104
61.4328 23991 154.89
61.5499 23181 152.253
61.667 22327 149.422
61.7841 21391 146.257
61.9013 21048 145.079
62.0185 20569 143.419
62.1357 21103 145.269
62.253 21208 145.63
62.3702 21841 147.787
62.4875 22261 149.201
62.6049 22263 149.208
62.7222 22249 149.161
62.8396 22806 151.017
62.9569 22693 150.642
63.0743 22599 150.33
63.1918 22291 149.302
63.3092 22362 149.539
63.4267 21846 147.804
63.5441 20881 144.503
63.6616 19925 141.156
63.7791 18777 137.029
63.8966 18252 135.1
64.0142 18636 136.514
64.1317 19750 140.535
64.2492 21076 145.176
64.3668 21517 146.687
64.4843 21753 147.489
64.6019 21708 147.336
64.7195 21629 147.068
64.837 21417 146.345
64.9546 21200 145.602
65.0722 20631 143.635
65.1898 19642 140.15
65.3074 19422 139.363
65.4249 18480 135.941
65.5425 18606 136.404
65.6601 18463 135.879
65.7777 18800 137.113
65.8952 19283 138.863
66.0128 20221 142.201
66.1304 20438 142.962
66.2479 20946 144.727
66.3655 21356 146.137
66.483 21476 146.547
66.6005 22357 149.523
66.718 22489 149.963
66.8355 22825 151.079
66.953 22651 150.502
67.0705 21871 147.888
67.1879 21792 147.621
67.3054 21090 145.224
67.4228 19909 141.099
67.5402 19819 140.78
67.6576 20791 144.191
67.7749 21927 148.078
67.8923 24483 156.47
68.0096 26118 161.611
68.1269 26659 163.276
68.2442 27067 164.521
68.3614 27260 165.106
68.4787 27502 165.837
68.5958 27757 166.604
68.713 27501 165.834
68.8302 26651 163.251
68.9473 25856 160.798
69.0643 25061 158.307
69.1814 24978 158.044
69.2984 24868 157.696
69.4154 25808 160.649
69.5323 26563 162.982
69.6492 27787 166.694
69.7661 28731 169.502
69.8829 28796 169.694
69.9997 29567 171.951
70.1165 30079 173.433
70.2332 30219 173.836
70.3499 30108 173.517
70.4665 30618 174.98
70.5831 30396 174.344
70.6996 29707 172.357
70.8161 28687 169.372
70.9326 27882 166.979
71.049 26242 161.994
71.1653 24485 156.477
71.2817 23987 154.877
71.3979 24150 155.403
71.5141 25507 159.709
71.6303 26623 163.166
71.7464 26457 162.656
71.8624 0 1
71.9784 0 1
72.0944 0 1
72.2102 0 1
72.3261 0 1
72.4418 0 1
72.5575 0 1
72.6732 0 1
75.1054 0 1
75.2209 0 1
75.3365 0 1
75.4521 0 1
75.5678 0 1
75.6835 0 1
75.7993 0 1
75.9151 0 1
76.031 0 1
76.147 18733 136.869
76.263 19228 138.665
76.3791 18716 136.806
76.4952 17936 133.925
76.6113 18524 136.103
76.7276 19545 139.803
76.8438 21126 145.348
76.9601 22219 149.06
77.0765 22149 148.825
77.1929 22183 148.94
77.3093 21609 147
77.4258 21604 146.983
77.5423 21563 146.843
77.6589 20733 143.99
77.7755 19552 139.828
77.8921 18729 136.854
78.0088 17877 133.705
78.1256 17873 133.69
78.2423 17505 132.306
78.3591 17784 133.357
78.4759 18780 137.04
78.5928 19405 139.302
78.7097 19368 139.169
78.8266 19349 139.101
78.9436 20366 142.709
79.0606 19896 141.053
79.1776 20127 141.87
79.2946 20162 141.993
79.4117 20191 142.095
79.5288 20346 142.639
79.6459 19870 140.961
79.7631 18894 137.455
79.8802 18380 135.573
79.9974 17473 132.185
80.1147 16771 129.503
80.2319 16849 129.804
80.3491 18079 134.458
80.4664 19828 140.812
80.5837 20761 144.087
80.701 20534 143.297
80.8183 20595 143.51
80.9357 20395 142.811
81.053 20289 142.439
81.1704 20374 142.738
81.2877 20172 142.028
81.4051 19352 139.111
81.5225 18347 135.451
81.6399 17348 131.712
81.7573 17180 131.072
81.8747 16370 127.945
81.9922 16840 129.769
82.1096 18036 134.298
82.227 18753 136.942
82.3444 18952 137.666
82.4619 19390 139.248
82.5793 19752 140.542
82.6967 19249 138.741
82.8142 19772 140.613
82.9316 19825 140.801
83.049 20111 141.813
83.1664 20209 142.158
83.2838 19791 140.68
83.4012 19540 139.786
83.5186 18797 137.102
83.636 17739 133.188
83.7534 16369 127.941
83.8708 16486 128.398
83.9881 17749 133.225
84.1055 19359 139.137
84.2228 21072 145.162
84.3401 21687 147.265
84.4575 21782 147.587
84.5747 21741 147.448
84.692 21801 147.652
84.8093 21660 147.173
84.9265 21150 145.43
85.0437 19859 140.922
85.1609 18813 137.16
85.2781 18157 134.748
85.3952 18401 135.65
85.5123 18074 134.44
85.6294 19168 138.449
85.7465 20286 142.429
85.8636 21308 145.973
85.9806 21215 145.654
86.0976 21521 146.7
86.2145 22008 148.351
86.3315 22309 149.362
86.4484 22844 151.142
86.5652 23227 152.404
86.682 23433 153.078
86.7988 24172 155.473
86.9156 23641 153.756
87.0323 23610 153.655
87.149 22469 149.897
87.2657 21737 147.435
87.3823 20854 144.409
87.4988 21539 146.762
87.6154 23436 153.088
87.7318 26144 161.691
87.8483 27931 167.126
87.9647 28506 168.837
88.081 28901 170.003
88.1973 29199 170.877
88.3136 29579 171.985
88.4298 29653 172.2
88.546 29195 170.865
88.6621 27403 165.539
88.7781 26527 162.871
88.8942 0 1
89.0101 0 1
89.126 0 1
89.2419 0 1
89.3577 0 1
89.4734 0 1
89.5891 0 1
89.7047 0 1
89.8203 0 1
89.9358 0 1
92.3269 0 1
92.4424 0 1
92.558 0 1
92.6736 0 1
92.7893 0 1
92.905 0 1
93.0208 0 1
93.1366 0 1
93.2525 0 1
93.3685 0 1
93.4845 0 1
93.6005 35632 188.764
93.7167 35621 188.735
93.8328 35278 187.824
93.949 33170 182.126
94.0653 31492 177.46
94.1816 30520 174.7
94.2979 29871 172.832
94.4143 30378 174.293
94.5307 31112 176.386
94.6472 33026 181.731
94.7637 34906 186.831
94.8803 35177 187.555
94.9969 36297 190.518
95.1135 36741 191.679
95.2302 37136 192.707
95.3469 37271 193.057
95.4637 38002 194.941
95.5805 38251 195.579
95.6973 38932 197.312
95.8142 38475 196.15
95.9311 38118 195.238
96.048 37472 193.577
96.1649 36221 190.318
96.2819 33943 184.236
96.3989 31801 178.328
96.516 31391 177.175
96.633 32838 181.213
96.7501 35422 188.207
96.8673 38085 195.154
96.9844 39160 197.889
97.1016 39725 199.311
97.2188 39002 197.489
97.336 39006 197.499
97.4532 38013 194.969
97.5704 36553 191.188
97.6877 33756 183.728
97.805 31449 177.339
97.9223 29118 170.64
98.0396 28124 167.702
98.1569 27974 167.254
98.2743 28600 169.115
98.3916 30505 174.657
98.509 31301 176.921
98.6264 32050 179.025
98.7438 31832 178.415
98.8612 32007 178.905
98.9786 31962 178.779
99.096 31176 176.567
99.2134 31291 176.893
99.3308 30871 175.701
99.4482 30518 174.694
99.5656 29970 173.118
99.6831 29210 170.909
99.8005 27701 166.436
99.9179 26090 161.524
100.035 24196 155.551
100.153 23659 153.815
100.27 24828 157.569
100.388 26668 163.303
100.505 28130 167.72
100.622 28128 167.714
100.74 28343 168.354
100.857 28036 167.44
100.975 28143 167.759
101.092 27496 165.819
101.209 27304 165.239
101.327 25739 160.434
101.444 23448 153.127
101.561 21916 148.041
101.679 21448 146.451
101.796 21397 146.277
101.913 21973 148.233
102.03 23937 154.716
102.148 25166 158.638
102.265 23520 153.362
102.382 27183 164.873
102.499 25846 160.767
102.616 25703 160.322
102.733 25916 160.984
102.851 25958 161.115
102.968 26171 161.775
103.085 25760 160.499
103.202 25236 158.858
103.319 24682 157.105
103.436 23073 151.898
103.552 21649 147.136
103.669 20482 143.115
103.786 21410 146.322
103.903 22629 150.429
104.02 24454 156.378
104.137 24781 157.42
104.253 24815 157.528
104.37 24384 156.154
104.487 24715 157.21
104.603 24193 155.541
104.72 23468 153.193
104.836 22423 149.743
104.953 20777 144.142
105.069 19080 138.13
105.186 18474 135.919
105.302 18242 135.063
105.418 19586 139.95
105.535 20536 143.304
105.651 21307 145.969
105.767 21319 146.01
105.883 21482 146.567
105.999 21521 146.7
106.115 0 1
106.231 0 1
106.347 0 1
106.463 0 1
106.579 0 1
106.694 0 1
106.81 0 1
106.926 0 1
107.041 0 1
107.157 0 1
109.576 0 1
109.692 0 1
109.807 0 1
109.923 0 1
110.039 0 1
110.155 0 1
110.27 0 1
110.386 0 1
110.502 0 1
110.618 16726 129.329
110.735 18113 134.585
110.851 18890 137.441
110.967 19170 138.456
111.083 19349 139.101
111.199 19381 139.216
111.316 19758 140.563
111.432 20100 141.774
111.549 20120 141.845
111.665 20116 141.831
111.782 19590 139.964
111.898 19310 138.96
112.015 18422 135.728
112.132 17403 131.92
112.248 16405 128.082
112.365 16458 128.289
112.482 17928 133.895
112.599 18961 137.699
112.716 19930 141.174
112.832 19895 141.05
112.949 19738 140.492
113.066 19538 139.778
113.183 19792 140.684
113.3 19496 139.628
113.417 19103 138.214
113.534 17332 131.651
113.652 16099 126.882
113.769 15363 123.948
113.886 14442 120.175
114.003 14744 121.425
114.12 16076 126.791
114.238 17045 130.557
114.355 17721 133.12
114.472 17902 133.798
114.589 17818 133.484
114.707 18232 135.026
114.824 18043 134.324
114.942 18308 135.307
115.059 18143 134.696
115.176 17798 133.409
115.294 17605 132.684
115.411 17120 130.843
115.529 16522 128.538
115.646 15754 125.515
115.764 14624 120.93
115.881 14012 118.372
115.999 14493 120.387
116.116 15494 124.475
116.234 16359 127.902
116.351 16921 130.081
116.469 16565 128.705
116.586 16657 129.062
116.704 16454 128.273
116.821 16466 128.32
116.939 16451 128.261
117.056 15801 125.702
117.174 14572 120.715
117.291 13481 116.108
117.409 12826 113.252
117.526 12232 110.598
117.644 12901 113.583
117.761 13946 118.093
117.879 15213 123.341
117.996 15819 125.774
118.114 16096 126.87
118.231 16121 126.969
118.349 16742 129.391
118.466 16736 129.368
118.584 16999 130.38
118.701 16961 130.234
118.819 16765 129.48
118.936 16772 129.507
119.053 16403 128.074
119.171 16181 127.205
119.288 15531 124.623
119.405 14695 121.223
119.523 14705 121.264
119.64 14901 122.07
119.757 16050 126.689
119.875 17169 131.031
119.992 17969 134.048
120.109 18376 135.558
120.226 18177 134.822
120.343 18827 137.212
120.46 19038 137.978
120.578 19083 138.141
120.695 18694 136.726
120.812 17750 133.229
120.929 16423 128.152
121.046 15614 124.956
121.163 14946 122.254
121.279 14621 120.917
121.396 15819 125.774
121.513 17322 131.613
121.63 18744 136.909
121.747 19809 140.744
121.863 20224 142.211
121.98 20597 143.517
122.097 20951 144.745
122.213 20993 144.89
122.33 21245 145.757
122.446 21470 146.526
122.563 20951 144.745
122.679 20997 144.903
122.795 20265 142.355
122.912 20426 142.92
123.028 19442 139.435
123.144 18338 135.418
123.26 17542 132.446
123.377 0 1
123.493 0 1
123.609 0 1
123.725 0 1
123.84 0 1
123.956 0 1
124.072 0 1
124.188 0 1
124.303 0 1
124.419 0 1
126.852 0 1
126.968 0 1
127.083 0 1
127.199 0 1
127.315 0 1
127.431 0 1
127.547 0 1
127.663 0 1
127.779 0 1
127.895 0 1
128.011 0 1
128.127 0 1
128.243 0 1
128.359 22028 148.418
128.476 21112 145.3
128.592 19670 140.25
128.708 19404 139.298
128.825 20175 142.039
128.941 21489 146.591
129.058 22871 151.232
129.174 23132 152.092
129.291 23490 153.264
129.408 23523 153.372
129.524 23256 152.499
129.641 23483 153.242
129.758 22814 151.043
129.875 21783 147.591
129.992 19908 141.096
130.108 18703 136.759
130.225 17423 131.996
130.342 16780 129.538
130.459 17561 132.518
130.576 18473 135.915
130.693 19526 139.735
130.81 20709 143.906
130.928 21277 145.866
131.045 21552 146.806
131.162 21686 147.262
131.279 21707 147.333
131.396 21618 147.031
131.513 21411 146.325
131.631 21117 145.317
131.748 20395 142.811
131.865 19963 141.29
131.983 19299 138.921
132.1 18165 134.778
132.217 17621 132.744
132.335 17421 131.989
132.452 17970 134.052
132.57 19512 139.685
132.687 19541 139.789
132.804 20426 142.92
132.922 19983 141.361
133.039 19782 140.648
133.157 19661 140.218
133.274 19161 138.423
133.392 18576 136.294
133.509 17095 130.748
133.627 15842 125.865
133.744 14578 120.739
133.862 14010 118.364
133.979 13989 118.275
134.097 14755 121.47
134.214 15833 125.829
134.332 15836 125.841
134.449 16706 129.252
134.567 17019 130.457
134.684 17431 132.027
134.802 17094 130.744
134.919 17028 130.491
135.037 17173 131.046
135.154 16511 128.495
135.272 16000 126.491
135.389 15987 126.44
135.507 15487 124.447
135.624 14546 120.607
135.742 13431 115.892
135.859 13415 115.823
135.977 13617 116.692
136.094 14153 118.966
136.211 14878 121.975
136.329 15040 122.638
136.446 15039 122.634
136.564 15178 123.199
136.681 14993 122.446
136.798 15109 122.919
136.915 14886 122.008
137.033 14499 120.412
137.15 13289 115.278
137.267 12655 112.494
137.384 11796 108.609
137.502 11216 105.906
137.619 11479 107.14
137.736 12263 110.738
137.853 12918 113.657
137.97 13735 117.196
138.087 14509 120.453
138.204 15216 123.353
138.321 15498 124.491
138.438 15669 125.176
138.555 15802 125.706
138.672 15950 126.293
138.788 15684 125.236
138.905 15764 125.555
139.022 15405 124.117
139.139 15594 124.876
139.255 15008 122.507
139.372 14500 120.416
139.488 14227 119.277
139.605 14706 121.268
139.721 15272 123.58
139.838 16465 128.316
139.954 17103 130.778
140.071 16593 128.814
140.187 17370 131.795
140.303 17297 131.518
140.419 17424 132
140.535 17618 132.733
140.652 16866 129.869
140.768 0 1
140.884 0 1
141 0 1
141.115 0 1
141.231 0 1
141.347 0 1
141.463 0 1
141.578 0 1
141.694 0 1
144.104 0 1
144.219 0 1
144.335 0 1
144.45 0 1
144.566 0 1
144.682 0 1
144.798 0 1
144.914 0 1
145.03 0 1
145.146 14560 120.665
145.262 15117 122.951
145.378 14849 121.856
145.494 14900 122.066
145.61 14672 121.128
145.726 14686 121.186
145.842 13998 118.313
145.959 13163 114.73
146.075 12315 110.973
146.192 11499 107.233
146.308 10822 104.029
146.425 11226 105.953
146.541 11402 106.78
146.658 11788 108.573
146.774 12059 109.813
146.891 12433 111.503
147.008 12986 113.956
147.125 13016 114.088
147.241 13017 114.092
147.358 13180 114.804
147.475 12889 113.53
147.592 12748 112.907
147.709 12460 111.624
147.826 11959 109.357
147.943 11979 109.449
148.06 11248 106.057
148.177 10944 104.614
148.294 10709 103.484
148.411 10865 104.235
148.528 11155 105.617
148.645 11525 107.355
148.762 11670 108.028
148.88 11681 108.079
148.997 11859 108.899
149.114 10905 104.427
149.231 11141 105.551
149.349 11207 105.863
149.466 11143 105.56
149.583 10286 101.42
149.701 9647 98.2191
149.818 9238 96.1145
149.935 8969 94.7048
150.053 9094 95.3625
150.17 9301 96.4417
150.287 9811 99.0505
150.405 10162 100.807
150.522 10536 102.645
150.64 10922 104.508
150.757 11094 105.328
150.875 11154 105.612
150.992 11114 105.423
151.11 11601 107.708
151.227 11347 106.522
151.344 11077 105.247
151.462 11243 106.033
151.579 10797 103.909
151.697 10542 102.674
151.814 10058 100.29
151.932 10097 100.484
152.049 10412 102.039
152.167 10903 104.417
152.284 11396 106.752
152.402 12023 109.649
152.519 11637 107.875
152.636 11883 109.009
152.754 12038 109.718
152.871 11840 108.812
152.989 11960 109.362
153.106 11670 108.028
153.223 10772 103.788
153.341 10280 101.39
153.458 10026 100.13
153.575 9743 98.7066
153.693 10157 100.782
153.81 10443 102.191
153.927 11167 105.674
154.044 11660 107.981
154.162 11771 108.494
154.279 12437 111.521
154.396 12934 113.728
154.513 13311 115.373
154.63 13568 116.482
154.747 13770 117.346
154.864 13768 117.337
154.981 13788 117.422
155.098 13680 116.962
155.215 13440 115.931
155.332 13182 114.813
155.449 13097 114.442
155.566 13234 115.039
155.683 13938 118.059
155.8 14364 119.85
155.917 14860 121.902
156.033 15242 123.458
156.15 0 1
156.267 0 1
156.383 0 1
156.5 0 1
156.617 0 1
156.733 0 1
156.85 0 1
156.966 0 1
157.082 0 1
157.199 0 1
157.315 0 1
157.431 0 1
157.547 0 1
157.664 0 1
157.78 0 1
157.896 0 1
158.012 0 1
158.128 0 1
158.244 0 1
158.359 0 1
158.475 0 1
158.591 0 1
158.706 0 1
