
6.15755 0 1
6.2731 0 1
6.3887 0 1
6.50437 0 1
6.62009 0 1
6.73587 0 1
6.8517 0 1
6.96759 0 1
7.08353 0 1
7.19952 0 1
7.31557 0 1
7.43166 0 1
7.54781 0 1
7.664 0 1
7.78024 0 1
7.89653 0 1
8.01286 0 1
8.12924 0 1
8.24567 0 1
8.36213 0 1
8.47864 0 1
8.59519 0 1
8.71178 0 1
8.82841 0 1
8.94508 0 1
9.06179 0 1
9.17853 0 1
9.29531 0 1
9.41212 0 1
9.52897 0 1
9.64584 0 1
9.76276 0 1
9.8797 0 1
9.99667 0 1
10.1137 0 1
10.2307 0 1
10.3478 0 1
10.4648 0 1
10.5819 0 1
10.6991 0 1
10.8162 0 1
10.9334 0 1
11.0506 0 1
11.1678 0 1
11.285 0 1
11.4023 0 1
11.5196 0 1
11.6369 0 1
11.7542 0 1
11.8715 0 1
11.9888 0 1
12.1062 0 1
12.2235 0 1
12.3409 0 1
12.4582 0 1
12.5756 0 1
12.693 0 1
12.8104 0 1
12.9278 0 1
13.0452 0 1
13.1626 0 1
13.28 0 1
13.3974 0 1
13.5149 0 1
13.6323 0 1
13.7497 0 1
13.8671 0 1
13.9845 0 1
14.1019 0 1
14.2193 0 1
14.3367 0 1
14.4541 0 1
14.5714 0 1
14.6888 0 1
14.8062 0 1
14.9235 0 1
15.0408 0 0
15.1581 0 0
15.2755 0 0
15.3927 0 0
15.51 0 0
15.6273 0 0
15.7445 0 0
15.8617 0 0
15.9789 0 0
16.0961 0 0
16.2132 0 0
16.3304 0 0
16.4475 0 0
16.5646 0 0
16.6816 0 0
16.7986 0 0
16.9156 0 0
17.0326 0 0
17.1496 0 0
17.2665 0 0
17.3833 0 0
17.5002 0 0
17.617 0 0
17.7338 0 0
17.8505 0 0
17.9672 0 0
18.0839 0 0
18.2005 0 0
18.3171 0 0
18.4337 0 0
18.5502 0 0
18.6666 0 0
18.7831 0 0
18.8994 0 0
19.0158 0 0
19.1321 0 0
19.2483 0 0
19.3645 0 0
19.4806 0 0
19.5967 0 0
19.7128 0 0
19.8288 0 0
19.9447 0 0
20.0606 0 1
20.1764 0 1
20.2922 0 1
20.4079 0 1
20.5236 0 1
20.6392 0 1
20.7548 0 1
20.8702 0 1
23.3078 0 1
23.4233 0 1
23.539 0 1
23.6547 0 1
23.7704 0 1
23.8862 0 1
24.0021 0 1
24.118 0 1
24.234 0 1
24.35 0 1
24.4661 12360 111.176
24.5822 12139 110.177
24.6984 12278 110.806
24.8146 12152 110.236
24.9309 12170 110.318
25.0472 12117 110.077
25.1636 12149 110.223
25.28 12577 112.147
25.3965 13122 114.551
25.513 13289 115.278
25.6296 13777 117.375
25.7462 14095 118.722
25.8628 14502 120.424
25.9795 14344 119.766
26.0962 14340 119.75
26.213 14516 120.482
26.3298 13796 117.456
26.4466 13461 116.022
26.5635 13190 114.848
26.6804 12430 111.49
26.7973 12582 112.17
26.9143 12701 112.699
27.0313 13182 114.813
27.1483 13409 115.797
27.2653 13752 117.269
27.3824 13916 117.966
27.4996 13990 118.279
27.6167 13786 117.414
27.7339 13601 116.623
27.8511 13371 115.633
27.9683 13034 114.167
28.0855 12805 113.159
28.2028 12416 111.427
28.3201 12487 111.745
28.4374 11892 109.05
28.5547 11944 109.289
28.6721 11820 108.72
28.7894 12190 110.408
28.9068 12509 111.844
29.0242 13062 114.289
29.1416 13473 116.073
29.259 13417 115.832
29.3764 13943 118.08
29.4939 13872 117.779
29.6113 13908 117.932
29.7288 13747 117.248
29.8463 13403 115.771
29.9638 12681 112.61
30.0812 12236 110.616
30.1987 11807 108.66
30.3162 11744 108.37
30.4337 12176 110.345
30.5512 12828 113.261
30.6687 12894 113.552
30.7862 12809 113.177
30.9037 13223 114.991
31.0212 13677 116.949
31.1387 13739 117.213
31.2562 13208 114.926
31.3737 13298 115.317
31.4912 13108 114.49
31.6087 12860 113.402
31.7262 12574 112.134
31.8436 12211 110.503
31.9611 12150 110.227
32.0785 12105 110.023
32.1959 11888 109.032
32.3134 12078 109.9
32.4308 12573 112.129
32.5482 12873 113.459
32.6655 13285 115.261
32.7829 13551 116.409
32.9002 13809 117.512
33.0176 13666 116.902
33.1349 13808 117.507
33.2522 13825 117.58
33.3694 13892 117.864
33.4867 13243 115.078
33.6039 12789 113.088
33.7211 12016 109.618
33.8383 11361 106.588
33.9554 11403 106.785
34.0725 11568 107.555
34.1896 12342 111.095
34.3067 12491 111.763
34.4237 13043 114.206
34.5407 13144 114.647
34.6577 13432 115.897
34.7746 13594 116.593
34.8915 13470 116.06
35.0084 13212 114.943
35.1252 12938 113.745
35.242 12931 113.715
35.3587 12685 112.628
35.4755 12299 110.901
35.5921 12120 110.091
35.7088 11894 109.06
35.8254 11833 108.78
35.9419 11705 108.19
36.0584 12011 109.595
36.1749 12269 110.766
36.2913 12714 112.756
36.4077 13197 114.878
36.524 13365 115.607
36.6403 13473 116.073
36.7565 13552 116.413
36.8727 13531 116.323
36.9889 13771 117.35
37.1049 13186 114.83
37.221 0 1
37.3369 0 1
37.4529 0 1
37.5687 0 1
37.6845 0 1
37.8003 0 1
37.916 0 1
38.0316 0 1
38.1472 0 1
40.5851 0 1
40.7008 0 1
40.8164 0 1
40.9322 0 1
41.048 0 1
41.1639 0 1
41.2798 0 1
41.3958 0 1
41.5118 0 1
41.6279 0 1
41.744 10540 102.665
41.8602 11011 104.933
41.9765 11149 105.589
42.0928 11106 105.385
42.2091 11152 105.603
42.3255 10581 102.864
42.4419 9912 99.559
42.5584 9349 96.6902
42.675 8980 94.7629
42.7915 9251 96.1821
42.9081 9819 99.0909
43.0248 10175 100.871
43.1415 10390 101.931
43.2582 10572 102.82
43.375 10621 103.058
43.4918 10770 103.779
43.6087 10761 103.735
43.7256 10670 103.296
43.8425 10343 101.701
43.9595 10217 101.079
44.0765 9761 98.7978
44.1935 9588 97.9183
44.3106 9461 97.2677
44.4277 8971 94.7154
44.5448 8690 93.2202
44.6619 8398 91.6406
44.7791 8667 93.0967
44.8963 8805 93.835
45.0136 8905 94.3663
45.1308 9343 96.6592
45.2481 9485 97.391
45.3654 9605 98.0051
45.4827 9705 98.514
45.6001 9402 96.9639
45.7174 9499 97.4628
45.8348 8959 94.652
45.9522 8254 90.8515
46.0697 7708 87.7952
46.1871 7183 84.7526
46.3046 7053 83.9821
46.422 7466 86.406
46.5395 7940 89.1067
46.657 8132 90.1776
46.7745 8380 91.5423
46.892 8297 91.0879
47.0096 8454 91.9456
47.1271 8332 91.2798
47.2446 8296 91.0824
47.3622 8186 90.4765
47.4797 8022 89.5656
47.5973 7479 86.4812
47.7149 7525 86.7468
47.8324 7243 85.1058
47.95 6805 82.4924
48.0675 6852 82.7768
48.1851 6143 78.3773
48.3027 6539 80.8641
48.4202 6647 81.5291
48.5378 6771 82.2861
48.6554 6994 83.6301
48.7729 7227 85.0118
48.8904 7470 86.4292
49.008 7258 85.1939
49.1255 7393 85.9826
49.243 7104 84.2852
49.3605 6798 82.45
49.478 6262 79.1328
49.5955 5861 76.5572
49.713 5570 74.6324
49.8304 5744 75.7892
49.9479 6251 79.0633
50.0653 6684 81.7557
50.1827 7133 84.4571
50.3001 7381 85.9127
50.4175 7754 88.0568
50.5348 7741 87.983
50.6521 7813 88.3912
50.7694 8111 90.0611
50.8867 8216 90.6422
51.004 8352 91.3893
51.1212 8175 90.4157
51.2384 8216 90.6422
51.3556 8051 89.7274
51.4727 7935 89.0786
51.5899 7884 88.7919
51.707 7864 88.6792
51.824 8131 90.1721
51.9411 8562 92.5311
52.0581 9193 95.8801
52.175 9667 98.3209
52.2919 10231 101.148
52.4088 10085 100.424
52.5257 10388 101.922
52.6425 10606 102.985
52.7593 10665 103.271
52.876 10360 101.784
52.9927 9679 98.3819
53.1094 9184 95.8332
53.226 8511 92.2551
53.3426 8169 90.3825
53.4591 8288 91.0385
53.5756 9330 96.5919
53.692 10233 101.158
53.8084 10883 104.322
53.9248 11289 106.25
54.0411 11651 107.94
54.1573 11557 107.503
54.2735 0 1
54.3896 0 1
54.5057 0 1
54.6217 0 1
54.7377 0 1
54.8537 0 1
54.9695 0 1
55.0853 0 1
55.2011 0 1
55.3168 0 1
55.4324 0 1
57.824 0 1
57.9396 0 1
58.0553 0 1
58.1711 0 1
58.2869 0 1
58.4028 0 1
58.5187 0 1
58.6347 0 1
58.7508 0 1
58.8669 0 1
58.983 12714 112.756
59.0992 13435 115.909
59.2155 13958 118.144
59.3318 14324 119.683
59.4482 13941 118.072
59.5646 13793 117.444
59.681 13825 117.58
59.7975 13671 116.923
59.9141 13343 115.512
60.0306 12869 113.442
60.1473 12481 111.718
60.2639 12059 109.813
60.3807 11934 109.243
60.4974 11757 108.43
60.6142 12067 109.85
60.731 12596 112.232
60.8479 13014 114.079
60.9648 12923 113.679
61.0818 13351 115.547
61.1987 13224 114.996
61.3158 12920 113.666
61.4328 12277 110.802
61.5499 11550 107.471
61.667 10524 102.587
61.7841 10064 100.319
61.9013 9659 98.2802
62.0185 9976 99.8799
62.1357 10630 103.102
62.253 11141 105.551
62.3702 11880 108.995
62.4875 12162 110.281
62.6049 12385 111.288
62.7222 12691 112.654
62.8396 12569 112.112
62.9569 12669 112.557
63.0743 12800 113.137
63.1918 12595 112.227
63.3092 12271 110.775
63.4267 11985 109.476
63.5441 11562 107.527
63.6616 11068 105.205
63.7791 10665 103.271
63.8966 10315 101.563
64.0142 10561 102.767
64.1317 10988 104.824
64.2492 11319 106.391
64.3668 11676 108.056
64.4843 12004 109.563
64.6019 12003 109.558
64.7195 11995 109.522
64.837 11616 107.778
64.9546 11487 107.177
65.0722 10463 102.289
65.1898 9923 99.6143
65.3074 9271 96.286
65.4249 8659 93.0537
65.5425 8697 93.2577
65.6601 9134 95.572
65.7777 10168 100.837
65.8952 10549 102.708
66.0128 10982 104.795
66.1304 11427 106.897
66.2479 11476 107.126
66.3655 11812 108.683
66.483 11982 109.462
66.6005 12003 109.558
66.718 11853 108.871
66.8355 11875 108.972
66.953 11501 107.243
67.0705 11396 106.752
67.1879 10812 103.981
67.3054 10255 101.267
67.4228 10214 101.064
67.5402 9808 99.0353
67.6576 10425 102.103
67.7749 10658 103.238
67.8923 11360 106.583
68.0096 11797 108.614
68.1269 11990 109.499
68.2442 12308 110.941
68.3614 12525 111.915
68.4787 12364 111.194
68.5958 11864 108.922
68.713 11581 107.615
68.8302 10774 103.798
68.9473 10294 101.459
69.0643 9843 99.2119
69.1814 10137 100.683
69.2984 10923 104.513
69.4154 12093 109.968
69.5323 12883 113.503
69.6492 13784 117.405
69.7661 14279 119.495
69.8829 15065 122.74
69.9997 15524 124.595
70.1165 15841 125.861
70.2332 16544 128.623
70.3499 16444 128.234
70.4665 16619 128.915
70.5831 16405 128.082
70.6996 16178 127.193
70.8161 15895 126.075
70.9326 15158 123.118
71.049 14568 120.698
71.1653 14367 119.862
71.2817 14259 119.411
71.3979 14773 121.544
71.5141 15471 124.382
71.6303 16005 126.511
71.7464 15080 122.801
71.8624 0 1
71.9784 0 1
72.0944 0 1
72.2102 0 1
72.3261 0 1
72.4418 0 1
72.5575 0 1
72.6732 0 1
75.1054 0 1
75.2209 0 1
75.3365 0 1
75.4521 0 1
75.5678 0 1
75.6835 0 1
75.7993 0 1
75.9151 0 1
76.031 0 1
76.147 15661 125.144
76.263 16280 127.593
76.3791 15662 125.148
76.4952 14914 122.123
76.6113 14753 121.462
76.7276 15178 123.199
76.8438 16152 127.091
76.9601 16432 128.187
77.0765 16781 129.541
77.1929 16806 129.638
77.3093 16678 129.143
77.4258 16207 127.307
77.5423 15613 124.952
77.6589 14336 119.733
77.7755 12674 112.579
77.8921 11517 107.317
78.0088 10528 102.606
78.1256 9717 98.5748
78.2423 9670 98.3362
78.3591 10872 104.269
78.4759 11635 107.866
78.5928 12310 110.95
78.7097 12801 113.142
78.8266 12948 113.789
78.9436 13509 116.228
79.0606 13268 115.187
79.1776 13267 115.182
79.2946 13358 115.577
79.4117 13112 114.508
79.5288 12972 113.895
79.6459 12864 113.42
79.7631 11873 108.963
79.8802 11503 107.252
79.9974 10763 103.745
80.1147 10081 100.404
80.2319 9821 99.101
80.3491 10262 101.302
80.4664 10695 103.417
80.5837 11481 107.149
80.701 11514 107.303
80.8183 11616 107.778
80.9357 11623 107.81
81.053 11517 107.317
81.1704 11475 107.121
81.2877 10854 104.183
81.4051 9946 99.7296
81.5225 9096 95.373
81.6399 8005 89.4707
81.7573 7843 88.5607
81.8747 7717 87.8465
81.9922 8474 92.0543
82.1096 9530 97.6217
82.227 9791 98.9495
82.3444 10330 101.637
82.4619 10780 103.827
82.5793 11138 105.537
82.6967 11096 105.338
82.8142 11373 106.644
82.9316 11359 106.579
83.049 11258 106.104
83.1664 11057 105.152
83.2838 11013 104.943
83.4012 10751 103.687
83.5186 10110 100.548
83.636 9527 97.6064
83.7534 9251 96.1821
83.8708 9005 94.8947
83.9881 9405 96.9794
84.1055 10060 100.3
84.2228 10763 103.745
84.3401 11437 106.944
84.4575 11450 107.005
84.5747 11697 108.153
84.692 11567 107.55
84.8093 11414 106.836
84.9265 10499 102.465
85.0437 9444 97.1802
85.1609 8978 94.7523
85.2781 8246 90.8075
85.3952 8203 90.5704
85.5123 8743 93.504
85.6294 9826 99.1262
85.7465 10825 104.043
85.8636 11538 107.415
85.9806 12224 110.562
86.0976 12747 112.903
86.2145 13232 115.03
86.3315 13469 116.056
86.4484 13912 117.949
86.5652 13980 118.237
86.682 14186 119.105
86.7988 13946 118.093
86.9156 13797 117.461
87.0323 13486 116.129
87.149 12967 113.873
87.2657 12345 111.108
87.3823 12003 109.558
87.4988 12075 109.886
87.6154 12994 113.991
87.7318 14126 118.853
87.8483 14474 120.308
87.9647 14733 121.38
88.081 14855 121.881
88.1973 14965 122.332
88.3136 14967 122.34
88.4298 13699 117.043
88.546 12529 111.933
88.6621 11397 106.757
88.7781 10683 103.359
88.8942 0 1
89.0101 0 1
89.126 0 1
89.2419 0 1
89.3577 0 1
89.4734 0 1
89.5891 0 1
89.7047 0 1
89.8203 0 1
89.9358 0 1
92.3269 0 1
92.4424 0 1
92.558 0 1
92.6736 0 1
92.7893 0 1
92.905 0 1
93.0208 0 1
93.1366 0 1
93.2525 0 1
93.3685 0 1
93.4845 0 1
93.6005 13738 117.209
93.7167 13412 115.81
93.8328 12885 113.512
93.949 12210 110.499
94.0653 11135 105.523
94.1816 10321 101.592
94.2979 9681 98.3921
94.4143 9280 96.3328
94.5307 9509 97.5141
94.6472 10192 100.955
94.7637 11142 105.556
94.8803 11714 108.231
94.9969 12414 111.418
95.1135 12576 112.143
95.2302 13091 114.416
95.3469 12906 113.605
95.4637 13535 116.34
95.5805 13644 116.808
95.6973 13680 116.962
95.8142 13693 117.017
95.9311 13633 116.76
96.048 13227 115.009
96.1649 12707 112.725
96.2819 12273 110.784
96.3989 11647 107.921
96.516 11389 106.719
96.633 11177 105.721
96.7501 11968 109.398
96.8673 12308 110.941
96.9844 13057 114.267
97.1016 13181 114.809
97.2188 13382 115.681
97.336 13163 114.73
97.4532 12829 113.265
97.5704 12004 109.563
97.6877 11194 105.802
97.805 10240 101.193
97.9223 9380 96.8504
98.0396 8983 94.7787
98.1569 9217 96.0052
98.2743 9522 97.5807
98.3916 10425 102.103
98.509 11676 108.056
98.6264 11856 108.885
98.7438 12583 112.174
98.8612 12788 113.084
98.9786 13184 114.822
99.096 13517 116.263
99.2134 13556 116.43
99.3308 13692 117.013
99.4482 13699 117.043
99.5656 13429 115.884
99.6831 13164 114.734
99.8005 12860 113.402
99.9179 12164 110.291
100.035 11758 108.434
100.153 11547 107.457
100.27 11801 108.632
100.388 12528 111.929
100.505 13058 114.272
100.622 13444 115.948
100.74 13464 116.034
100.857 13383 115.685
100.975 13243 115.078
101.092 12890 113.534
101.209 12032 109.69
101.327 10726 103.566
101.444 10075 100.374
101.561 9523 97.5859
101.679 9139 95.5981
101.796 9332 96.6023
101.913 10318 101.578
102.03 11320 106.395
102.148 12143 110.195
102.265 13811 117.52
102.382 12405 111.378
102.499 13570 116.49
102.616 13882 117.822
102.733 14113 118.798
102.851 14222 119.256
102.968 14270 119.457
103.085 14132 118.878
103.202 13934 118.042
103.319 13637 116.778
103.436 13187 114.835
103.552 12449 111.575
103.669 12056 109.8
103.786 12390 111.31
103.903 13177 114.791
104.02 13693 117.017
104.137 14472 120.3
104.253 14688 121.194
104.37 14056 118.558
104.487 14374 119.892
104.603 13868 117.762
104.72 12996 114
104.836 12034 109.7
104.953 10845 104.139
105.069 10448 102.215
105.186 9910 99.549
105.302 10525 102.591
105.418 11384 106.696
105.535 12617 112.325
105.651 13289 115.278
105.767 13727 117.162
105.883 14607 120.859
105.999 14802 121.663
106.115 0 1
106.231 0 1
106.347 0 1
106.463 0 1
106.579 0 1
106.694 0 1
106.81 0 1
106.926 0 1
107.041 0 1
107.157 0 1
109.576 0 1
109.692 0 1
109.807 0 1
109.923 0 1
110.039 0 1
110.155 0 1
110.27 0 1
110.386 0 1
110.502 0 1
110.618 12173 110.331
110.735 12952 113.807
110.851 13596 116.602
110.967 14112 118.794
111.083 14399 119.996
111.199 14604 120.847
111.316 14956 122.295
111.432 14999 122.47
111.549 14975 122.372
111.665 14792 121.622
111.782 14195 119.143
111.898 14014 118.381
112.015 13469 116.056
112.132 12759 112.956
112.248 12532 111.946
112.365 13200 114.891
112.482 13986 118.262
112.599 13741 117.222
112.716 14257 119.403
112.832 14213 119.218
112.949 14130 118.87
113.066 14044 118.507
113.183 13716 117.115
113.3 12266 110.752
113.417 11372 106.64
113.534 10569 102.806
113.652 9776 98.8737
113.769 9573 97.8417
113.886 10246 101.223
114.003 10798 103.913
114.12 11750 108.397
114.238 12392 111.319
114.355 13088 114.403
114.472 14200 119.164
114.589 12915 113.644
114.707 13960 118.152
114.824 14191 119.126
114.942 14460 120.25
115.059 14381 119.921
115.176 14243 119.344
115.294 14116 118.811
115.411 14156 118.979
115.529 13720 117.132
115.646 12874 113.464
115.764 12687 112.637
115.881 12890 113.534
115.999 13417 115.832
116.116 14098 118.735
116.234 14077 118.647
116.351 14367 119.862
116.469 14384 119.933
116.586 14404 120.017
116.704 14091 118.706
116.821 13188 114.839
116.939 12320 110.995
117.056 11208 105.868
117.174 10857 104.197
117.291 10141 100.703
117.409 10098 100.489
117.526 10750 103.682
117.644 11686 108.102
117.761 12235 110.612
117.879 12969 113.882
117.996 13282 115.248
118.114 13750 117.26
118.231 14122 118.836
118.349 14308 119.616
118.466 14455 120.229
118.584 14671 121.124
118.701 14776 121.557
118.819 14402 120.008
118.936 14224 119.264
119.053 14271 119.461
119.171 13450 115.974
119.288 13105 114.477
119.405 12772 113.013
119.523 12967 113.873
119.64 13494 116.164
119.757 13830 117.601
119.875 14232 119.298
119.992 14150 118.954
120.109 14082 118.668
120.226 14298 119.574
120.343 14002 118.33
120.46 13323 115.425
120.578 12363 111.189
120.695 11644 107.907
120.812 11043 105.086
120.929 10562 102.772
121.046 10073 100.364
121.163 10466 102.303
121.279 11288 106.245
121.396 12081 109.914
121.513 12731 112.832
121.63 13079 114.363
121.747 13615 116.683
121.863 13794 117.448
121.98 13977 118.224
122.097 14437 120.154
122.213 14458 120.241
122.33 14588 120.781
122.446 14583 120.76
122.563 14441 120.171
122.679 14257 119.403
122.795 13874 117.788
122.912 13515 116.254
123.028 12944 113.772
123.144 12811 113.186
123.26 12736 112.854
123.377 0 1
123.493 0 1
123.609 0 1
123.725 0 1
123.84 0 1
123.956 0 1
124.072 0 1
124.188 0 1
124.303 0 1
124.419 0 1
126.852 0 1
126.968 0 1
127.083 0 1
127.199 0 1
127.315 0 1
127.431 0 1
127.547 0 1
127.663 0 1
127.779 0 1
127.895 0 1
128.011 0 1
128.127 0 1
128.243 0 1
128.359 15021 122.56
128.476 15412 124.145
128.592 16138 127.035
128.708 16538 128.6
128.825 17055 130.595
128.941 17113 130.817
129.058 17087 130.717
129.174 16966 130.254
129.291 16591 128.806
129.408 16016 126.554
129.524 14767 121.52
129.641 13807 117.503
129.758 13240 115.065
129.875 12652 112.481
129.992 12382 111.274
130.108 12813 113.195
130.225 13571 116.495
130.342 14291 119.545
130.459 14753 121.462
130.576 15741 125.463
130.693 15929 126.21
130.81 15920 126.174
130.928 16367 127.934
131.045 16486 128.398
131.162 16984 130.323
131.279 16975 130.288
131.396 16807 129.642
131.513 16725 129.325
131.631 16588 128.794
131.748 16145 127.063
131.865 15448 124.29
131.983 15900 126.095
132.1 16173 127.173
132.217 16679 129.147
132.335 16793 129.588
132.452 16852 129.815
132.57 16922 130.085
132.687 16281 127.597
132.804 17407 131.936
132.922 16186 127.224
133.039 15054 122.695
133.157 14288 119.532
133.274 13559 116.443
133.392 13021 114.11
133.509 12494 111.777
133.627 12860 113.402
133.744 13251 115.113
133.862 13861 117.733
133.979 14514 120.474
134.097 14838 121.811
134.214 15314 123.75
134.332 15482 124.427
134.449 15872 125.984
134.567 16271 127.558
134.684 16498 128.445
134.802 16506 128.476
134.919 16717 129.294
135.037 16342 127.836
135.154 16423 128.152
135.272 15993 126.463
135.389 15728 125.411
135.507 15605 124.92
135.624 15514 124.555
135.742 15955 126.313
135.859 16592 128.81
135.977 16762 129.468
136.094 16660 129.074
136.211 16851 129.811
136.329 16787 129.565
136.446 16367 127.934
136.564 15564 124.756
136.681 15072 122.768
136.798 14237 119.319
136.915 13599 116.615
137.033 12879 113.486
137.15 12646 112.454
137.267 12738 112.863
137.384 13241 115.07
137.502 13806 117.499
137.619 14048 118.524
137.736 14545 120.603
137.853 14816 121.721
137.97 15570 124.78
138.087 15143 123.057
138.204 15885 126.036
138.321 16336 127.812
138.438 16823 129.704
138.555 16823 129.704
138.672 16476 128.359
138.788 16440 128.219
138.905 16241 127.44
139.022 15901 126.099
139.139 15903 126.107
139.255 15951 126.297
139.372 16272 127.562
139.488 16757 129.449
139.605 16936 130.138
139.721 16798 129.607
139.838 17068 130.645
139.954 17007 130.411
140.071 16630 128.957
140.187 16519 128.526
140.303 15590 124.86
140.419 14744 121.425
140.535 13956 118.136
140.652 13424 115.862
140.768 0 1
140.884 0 1
141 0 1
141.115 0 1
141.231 0 1
141.347 0 1
141.463 0 1
141.578 0 1
141.694 0 1
144.104 0 1
144.219 0 1
144.335 0 1
144.45 0 1
144.566 0 1
144.682 0 1
144.798 0 1
144.914 0 1
145.03 0 1
145.146 15865 125.956
145.262 15219 123.365
145.378 14669 121.116
145.494 14046 118.516
145.61 13481 116.108
145.726 13055 114.258
145.842 12821 113.23
145.959 13156 114.7
146.075 13395 115.737
146.192 13792 117.439
146.308 14199 119.16
146.425 14577 120.735
146.541 14766 121.515
146.658 15340 123.855
146.774 15170 123.167
146.891 15451 124.302
147.008 15636 125.044
147.125 16105 126.905
147.241 15892 126.063
147.358 15920 126.174
147.475 15511 124.543
147.592 15194 123.264
147.709 14857 121.889
147.826 14933 122.201
147.943 15197 123.276
148.06 15512 124.547
148.177 16095 126.866
148.294 15977 126.4
148.411 15997 126.479
148.528 15957 126.321
148.645 16050 126.689
148.762 15660 125.14
148.88 15026 122.581
148.997 14196 119.147
149.114 14150 118.954
149.231 13262 115.161
149.349 12959 113.838
149.466 12084 109.927
149.583 12491 111.763
149.701 12672 112.57
149.818 12995 113.996
149.935 13364 115.603
150.053 13448 115.966
150.17 13822 117.567
150.287 14284 119.516
150.405 14596 120.814
150.522 14727 121.355
150.64 15122 122.972
150.757 15427 124.205
150.875 15318 123.766
150.992 15194 123.264
151.11 14793 121.626
151.227 14456 120.233
151.344 14160 118.996
151.462 14025 118.427
151.579 14661 121.083
151.697 15108 122.915
151.814 15360 123.935
151.932 15563 124.752
152.049 15596 124.884
152.167 15397 124.085
152.284 15532 124.627
152.402 15318 123.766
152.519 14732 121.375
152.636 14147 118.941
152.754 13918 117.975
152.871 13173 114.774
152.989 12764 112.978
153.106 12285 110.838
153.223 12141 110.186
153.341 12836 113.296
153.458 12862 113.411
153.575 13311 115.373
153.693 13448 115.966
153.81 13901 117.903
153.927 14201 119.168
154.044 14609 120.868
154.162 14704 121.26
154.279 15004 122.491
154.396 15287 123.641
154.513 15633 125.032
154.63 15457 124.326
154.747 15263 123.544
154.864 15013 122.528
154.981 14681 121.165
155.098 14519 120.495
155.215 14727 121.355
155.332 15177 123.195
155.449 15706 125.324
155.566 15658 125.132
155.683 15776 125.603
155.8 15775 125.599
155.917 15678 125.212
156.033 15534 124.635
156.15 0 1
156.267 0 1
156.383 0 1
156.5 0 1
156.617 0 1
156.733 0 1
156.85 0 1
156.966 0 1
157.082 0 1
157.199 0 1
157.315 0 1
157.431 0 1
157.547 0 1
157.664 0 1
157.78 0 1
157.896 0 1
158.012 0 1
158.128 0 1
158.244 0 1
158.359 0 1
158.475 0 1
158.591 0 1
158.706 0 1
