
6.15755 0 1
6.2731 0 1
6.3887 0 1
6.50437 0 1
6.62009 0 1
6.73587 0 1
6.8517 0 1
6.96759 0 1
7.08353 0 1
7.19952 0 1
7.31557 0 1
7.43166 0 1
7.54781 0 1
7.664 0 1
7.78024 0 1
7.89653 0 1
8.01286 0 1
8.12924 0 1
8.24567 0 1
8.36213 0 1
8.47864 0 1
8.59519 0 1
8.71178 0 1
8.82841 0 1
8.94508 0 1
9.06179 0 1
9.17853 0 1
9.29531 0 1
9.41212 0 1
9.52897 0 1
9.64584 0 1
9.76276 0 1
9.8797 0 1
9.99667 0 1
10.1137 0 1
10.2307 0 1
10.3478 0 1
10.4648 0 1
10.5819 0 1
10.6991 0 1
10.8162 0 1
10.9334 0 1
11.0506 0 1
11.1678 0 1
11.285 0 1
11.4023 0 1
11.5196 0 1
11.6369 0 1
11.7542 0 1
11.8715 0 1
11.9888 0 1
12.1062 0 1
12.2235 0 1
12.3409 0 1
12.4582 0 1
12.5756 0 1
12.693 0 1
12.8104 0 1
12.9278 0 1
13.0452 0 1
13.1626 0 1
13.28 0 1
13.3974 0 1
13.5149 0 1
13.6323 0 1
13.7497 0 1
13.8671 0 1
13.9845 0 1
14.1019 0 1
14.2193 0 1
14.3367 0 1
14.4541 0 1
14.5714 0 1
14.6888 0 1
14.8062 0 1
14.9235 0 1
15.0408 809 28.4429
15.1581 806 28.3901
15.2755 871 29.5127
15.3927 843 29.0345
15.51 875 29.5804
15.6273 887 29.7825
15.7445 832 28.8444
15.8617 866 29.4279
15.9789 839 28.9655
16.0961 828 28.775
16.2132 785 28.0179
16.3304 782 27.9643
16.4475 757 27.5136
16.5646 775 27.8388
16.6816 768 27.7128
16.7986 831 28.8271
16.9156 783 27.9821
17.0326 781 27.9464
17.1496 730 27.0185
17.2665 775 27.8388
17.3833 784 28
17.5002 781 27.9464
17.617 760 27.5681
17.7338 749 27.3679
17.8505 781 27.9464
17.9672 795 28.1957
18.0839 810 28.4605
18.2005 804 28.3549
18.3171 721 26.8514
18.4337 742 27.2397
18.5502 779 27.9106
18.6666 780 27.9285
18.7831 757 27.5136
18.8994 737 27.1477
19.0158 694 26.3439
19.1321 706 26.5707
19.2483 722 26.8701
19.3645 691 26.2869
19.4806 749 27.3679
19.5967 641 25.318
19.7128 591 24.3105
19.8288 549 23.4307
19.9447 483 21.9773
20.0606 0 1
20.1764 0 1
20.2922 0 1
20.4079 0 1
20.5236 0 1
20.6392 0 1
20.7548 0 1
20.8702 0 1
23.3078 0 1
23.4233 0 1
23.539 0 1
23.6547 0 1
23.7704 0 1
23.8862 0 1
24.0021 0 1
24.118 0 1
24.234 0 1
24.35 0 1
24.4661 341 18.4662
24.5822 394 19.8494
24.6984 419 20.4695
24.8146 483 21.9773
24.9309 539 23.2164
25.0472 601 24.5153
25.1636 669 25.865
25.28 784 28
25.3965 820 28.6356
25.513 764 27.6405
25.6296 800 28.2843
25.7462 810 28.4605
25.8628 855 29.2404
25.9795 809 28.4429
26.0962 816 28.5657
26.213 864 29.3939
26.3298 783 27.9821
26.4466 757 27.5136
26.5635 802 28.3196
26.6804 710 26.6458
26.7973 727 26.9629
26.9143 661 25.7099
27.0313 691 26.2869
27.1483 680 26.0768
27.2653 677 26.0192
27.3824 772 27.7849
27.4996 725 26.9258
27.6167 682 26.1151
27.7339 750 27.3861
27.8511 752 27.4226
27.9683 756 27.4955
28.0855 785 28.0179
28.2028 765 27.6586
28.3201 724 26.9072
28.4374 691 26.2869
28.5547 661 25.7099
28.6721 641 25.318
28.7894 751 27.4044
28.9068 730 27.0185
29.0242 742 27.2397
29.1416 790 28.1069
29.259 789 28.0891
29.3764 734 27.0924
29.4939 730 27.0185
29.6113 723 26.8887
29.7288 748 27.3496
29.8463 778 27.8927
29.9638 756 27.4955
30.0812 724 26.9072
30.1987 676 26
30.3162 648 25.4558
30.4337 602 24.5357
30.5512 649 25.4755
30.6687 721 26.8514
30.7862 693 26.3249
30.9037 741 27.2213
31.0212 728 26.9815
31.1387 731 27.037
31.2562 737 27.1477
31.3737 760 27.5681
31.4912 741 27.2213
31.6087 762 27.6043
31.7262 718 26.7955
31.8436 741 27.2213
31.9611 689 26.2488
32.0785 633 25.1595
32.1959 648 25.4558
32.3134 611 24.7184
32.4308 675 25.9808
32.5482 705 26.5518
32.6655 663 25.7488
32.7829 752 27.4226
32.9002 718 26.7955
33.0176 628 25.0599
33.1349 662 25.7294
33.2522 696 26.3818
33.3694 629 25.0799
33.4867 704 26.533
33.6039 707 26.5895
33.7211 720 26.8328
33.8383 644 25.3772
33.9554 659 25.671
34.0725 612 24.7386
34.1896 577 24.0208
34.3067 614 24.779
34.4237 675 25.9808
34.5407 675 25.9808
34.6577 673 25.9422
34.7746 731 27.037
34.8915 693 26.3249
35.0084 675 25.9808
35.1252 718 26.7955
35.242 674 25.9615
35.3587 697 26.4008
35.4755 634 25.1794
35.5921 608 24.6577
35.7088 577 24.0208
35.8254 581 24.1039
35.9419 622 24.9399
36.0584 593 24.3516
36.1749 616 24.8193
36.2913 616 24.8193
36.4077 621 24.9199
36.524 596 24.4131
36.6403 555 23.5584
36.7565 487 22.0681
36.8727 493 22.2036
36.9889 458 21.4009
37.1049 454 21.3073
37.221 0 1
37.3369 0 1
37.4529 0 1
37.5687 0 1
37.6845 0 1
37.8003 0 1
37.916 0 1
38.0316 0 1
38.1472 0 1
40.5851 0 1
40.7008 0 1
40.8164 0 1
40.9322 0 1
41.048 0 1
41.1639 0 1
41.2798 0 1
41.3958 0 1
41.5118 0 1
41.6279 0 1
41.744 267 16.3401
41.8602 316 17.7764
41.9765 390 19.7484
42.0928 448 21.166
42.2091 458 21.4009
42.3255 508 22.5389
42.4419 475 21.7945
42.5584 525 22.9129
42.675 500 22.3607
42.7915 466 21.587
42.9081 471 21.7025
43.0248 462 21.4942
43.1415 447 21.1424
43.2582 493 22.2036
43.375 516 22.7156
43.4918 551 23.4734
43.6087 534 23.1084
43.7256 558 23.622
43.8425 541 23.2594
43.9595 572 23.9165
44.0765 521 22.8254
44.1935 567 23.8118
44.3106 558 23.622
44.4277 521 22.8254
44.5448 478 21.8632
44.6619 485 22.0227
44.7791 510 22.5832
44.8963 497 22.2935
45.0136 569 23.8537
45.1308 539 23.2164
45.2481 591 24.3105
45.3654 538 23.1948
45.4827 568 23.8328
45.6001 563 23.7276
45.7174 603 24.5561
45.8348 600 24.4949
45.9522 561 23.6854
46.0697 569 23.8537
46.1871 552 23.4947
46.3046 532 23.0651
46.422 504 22.4499
46.5395 471 21.7025
46.657 470 21.6795
46.7745 477 21.8403
46.892 497 22.2935
47.0096 566 23.7908
47.1271 549 23.4307
47.2446 536 23.1517
47.3622 519 22.7816
47.4797 521 22.8254
47.5973 564 23.7487
47.7149 554 23.5372
47.8324 571 23.8956
47.95 490 22.1359
48.0675 464 21.5407
48.1851 422 20.5426
48.3027 470 21.6795
48.4202 432 20.7846
48.5378 516 22.7156
48.6554 496 22.2711
48.7729 508 22.5389
48.8904 510 22.5832
49.008 512 22.6274
49.1255 518 22.7596
49.243 501 22.383
49.3605 531 23.0434
49.478 510 22.5832
49.5955 462 21.4942
49.713 448 21.166
49.8304 460 21.4476
49.9479 430 20.7364
50.0653 397 19.9249
50.1827 419 20.4695
50.3001 462 21.4942
50.4175 449 21.1896
50.5348 472 21.7256
50.6521 445 21.095
50.7694 465 21.5639
50.8867 483 21.9773
51.004 498 22.3159
51.1212 457 21.3776
51.2384 465 21.5639
51.3556 415 20.3715
51.4727 419 20.4695
51.5899 413 20.3224
51.707 440 20.9762
51.824 472 21.7256
51.9411 502 22.4054
52.0581 474 21.7715
52.175 455 21.3307
52.2919 504 22.4499
52.4088 492 22.1811
52.5257 438 20.9284
52.6425 482 21.9545
52.7593 445 21.095
52.876 461 21.4709
52.9927 478 21.8632
53.1094 491 22.1585
53.226 462 21.4942
53.3426 444 21.0713
53.4591 467 21.6102
53.5756 379 19.4679
53.692 353 18.7883
53.8084 365 19.105
53.9248 360 18.9737
54.0411 347 18.6279
54.1573 312 17.6635
54.2735 0 1
54.3896 0 1
54.5057 0 1
54.6217 0 1
54.7377 0 1
54.8537 0 1
54.9695 0 1
55.0853 0 1
55.2011 0 1
55.3168 0 1
55.4324 0 1
57.824 0 1
57.9396 0 1
58.0553 0 1
58.1711 0 1
58.2869 0 1
58.4028 0 1
58.5187 0 1
58.6347 0 1
58.7508 0 1
58.8669 0 1
58.983 465 21.5639
59.0992 621 24.9199
59.2155 731 27.037
59.3318 773 27.8029
59.4482 860 29.3258
59.5646 920 30.3315
59.681 970 31.1448
59.7975 1027 32.0468
59.9141 998 31.5911
60.0306 972 31.1769
60.1473 997 31.5753
60.2639 928 30.4631
60.3807 960 30.9839
60.4974 940 30.6594
60.6142 978 31.273
60.731 942 30.692
60.8479 953 30.8707
60.9648 947 30.7734
61.0818 910 30.1662
61.1987 884 29.7321
61.3158 828 28.775
61.4328 842 29.0172
61.5499 874 29.5635
61.667 789 28.0891
61.7841 820 28.6356
61.9013 722 26.8701
62.0185 791 28.1247
62.1357 652 25.5343
62.253 653 25.5539
62.3702 655 25.593
62.4875 636 25.219
62.6049 637 25.2389
62.7222 616 24.8193
62.8396 623 24.96
62.9569 612 24.7386
63.0743 641 25.318
63.1918 591 24.3105
63.3092 631 25.1197
63.4267 580 24.0832
63.5441 521 22.8254
63.6616 532 23.0651
63.7791 505 22.4722
63.8966 505 22.4722
64.0142 478 21.8632
64.1317 541 23.2594
64.2492 513 22.6495
64.3668 512 22.6274
64.4843 529 23
64.6019 523 22.8692
64.7195 506 22.4944
64.837 517 22.7376
64.9546 579 24.0624
65.0722 486 22.0454
65.1898 527 22.9565
65.3074 542 23.2809
65.4249 533 23.0868
65.5425 459 21.4243
65.6601 495 22.2486
65.7777 451 21.2368
65.8952 433 20.8087
66.0128 462 21.4942
66.1304 467 21.6102
66.2479 485 22.0227
66.3655 537 23.1733
66.483 515 22.6936
66.6005 534 23.1084
66.718 526 22.9347
66.8355 544 23.3238
66.953 527 22.9565
67.0705 510 22.5832
67.1879 513 22.6495
67.3054 462 21.4942
67.4228 444 21.0713
67.5402 491 22.1585
67.6576 507 22.5167
67.7749 514 22.6716
67.8923 507 22.5167
68.0096 490 22.1359
68.1269 515 22.6936
68.2442 506 22.4944
68.3614 539 23.2164
68.4787 487 22.0681
68.5958 489 22.1133
68.713 536 23.1517
68.8302 552 23.4947
68.9473 476 21.8174
69.0643 493 22.2036
69.1814 482 21.9545
69.2984 462 21.4942
69.4154 466 21.587
69.5323 431 20.7605
69.6492 446 21.1187
69.7661 449 21.1896
69.8829 521 22.8254
69.9997 513 22.6495
70.1165 492 22.1811
70.2332 481 21.9317
70.3499 433 20.8087
70.4665 454 21.3073
70.5831 431 20.7605
70.6996 402 20.0499
70.8161 339 18.412
70.9326 299 17.2916
71.049 278 16.6733
71.1653 262 16.1864
71.2817 290 17.0294
71.3979 268 16.3707
71.5141 240 15.4919
71.6303 209 14.4568
71.7464 173 13.1529
71.8624 0 1
71.9784 0 1
72.0944 0 1
72.2102 0 1
72.3261 0 1
72.4418 0 1
72.5575 0 1
72.6732 0 1
75.1054 0 1
75.2209 0 1
75.3365 0 1
75.4521 0 1
75.5678 0 1
75.6835 0 1
75.7993 0 1
75.9151 0 1
76.031 0 1
76.147 293 17.1172
76.263 346 18.6011
76.3791 340 18.4391
76.4952 394 19.8494
76.6113 363 19.0526
76.7276 382 19.5448
76.8438 419 20.4695
76.9601 454 21.3073
77.0765 411 20.2731
77.1929 437 20.9045
77.3093 419 20.4695
77.4258 409 20.2237
77.5423 432 20.7846
77.6589 453 21.2838
77.7755 480 21.9089
77.8921 419 20.4695
78.0088 399 19.975
78.1256 386 19.6469
78.2423 389 19.7231
78.3591 405 20.1246
78.4759 359 18.9473
78.5928 389 19.7231
78.7097 405 20.1246
78.8266 398 19.9499
78.9436 424 20.5913
79.0606 434 20.8327
79.1776 439 20.9523
79.2946 399 19.975
79.4117 466 21.587
79.5288 425 20.6155
79.6459 402 20.0499
79.7631 387 19.6723
79.8802 393 19.8242
79.9974 406 20.1494
80.1147 438 20.9284
80.2319 428 20.6882
80.3491 471 21.7025
80.4664 450 21.2132
80.5837 466 21.587
80.701 432 20.7846
80.8183 423 20.567
80.9357 461 21.4709
81.053 430 20.7364
81.1704 405 20.1246
81.2877 455 21.3307
81.4051 472 21.7256
81.5225 474 21.7715
81.6399 455 21.3307
81.7573 461 21.4709
81.8747 406 20.1494
81.9922 398 19.9499
82.1096 432 20.7846
82.227 394 19.8494
82.3444 380 19.4936
82.4619 407 20.1742
82.5793 418 20.445
82.6967 449 21.1896
82.8142 449 21.1896
82.9316 507 22.5167
83.049 457 21.3776
83.1664 433 20.8087
83.2838 417 20.4206
83.4012 421 20.5183
83.5186 441 21
83.636 409 20.2237
83.7534 449 21.1896
83.8708 486 22.0454
83.9881 432 20.7846
84.1055 448 21.166
84.2228 480 21.9089
84.3401 433 20.8087
84.4575 427 20.664
84.5747 436 20.8806
84.692 445 21.095
84.8093 426 20.6398
84.9265 450 21.2132
85.0437 483 21.9773
85.1609 451 21.2368
85.2781 474 21.7715
85.3952 444 21.0713
85.5123 400 20
85.6294 416 20.3961
85.7465 424 20.5913
85.8636 446 21.1187
85.9806 403 20.0749
86.0976 474 21.7715
86.2145 453 21.2838
86.3315 474 21.7715
86.4484 482 21.9545
86.5652 463 21.5174
86.682 485 22.0227
86.7988 447 21.1424
86.9156 435 20.8567
87.0323 462 21.4942
87.149 453 21.2838
87.2657 401 20.025
87.3823 403 20.0749
87.4988 462 21.4942
87.6154 444 21.0713
87.7318 427 20.664
87.8483 383 19.5704
87.9647 431 20.7605
88.081 341 18.4662
88.1973 355 18.8414
88.3136 292 17.088
88.4298 304 17.4356
88.546 287 16.9411
88.6621 247 15.7162
88.7781 235 15.3297
88.8942 0 1
89.0101 0 1
89.126 0 1
89.2419 0 1
89.3577 0 1
89.4734 0 1
89.5891 0 1
89.7047 0 1
89.8203 0 1
89.9358 0 1
92.3269 0 1
92.4424 0 1
92.558 0 1
92.6736 0 1
92.7893 0 1
92.905 0 1
93.0208 0 1
93.1366 0 1
93.2525 0 1
93.3685 0 1
93.4845 0 1
93.6005 348 18.6548
93.7167 375 19.3649
93.8328 360 18.9737
93.949 468 21.6333
94.0653 459 21.4243
94.1816 477 21.8403
94.2979 460 21.4476
94.4143 429 20.7123
94.5307 431 20.7605
94.6472 417 20.4206
94.7637 395 19.8746
94.8803 436 20.8806
94.9969 460 21.4476
95.1135 433 20.8087
95.2302 492 22.1811
95.3469 434 20.8327
95.4637 502 22.4054
95.5805 539 23.2164
95.6973 491 22.1585
95.8142 463 21.5174
95.9311 466 21.587
96.048 433 20.8087
96.1649 400 20
96.2819 437 20.9045
96.3989 465 21.5639
96.516 473 21.7486
96.633 497 22.2935
96.7501 485 22.0227
96.8673 490 22.1359
96.9844 470 21.6795
97.1016 480 21.9089
97.2188 455 21.3307
97.336 482 21.9545
97.4532 443 21.0476
97.5704 501 22.383
97.6877 418 20.445
97.805 451 21.2368
97.9223 500 22.3607
98.0396 478 21.8632
98.1569 447 21.1424
98.2743 481 21.9317
98.3916 444 21.0713
98.509 422 20.5426
98.6264 424 20.5913
98.7438 442 21.0238
98.8612 469 21.6564
98.9786 478 21.8632
99.096 511 22.6053
99.2134 523 22.8692
99.3308 498 22.3159
99.4482 502 22.4054
99.5656 506 22.4944
99.6831 499 22.3383
99.8005 452 21.2603
99.9179 485 22.0227
100.035 530 23.0217
100.153 530 23.0217
100.27 495 22.2486
100.388 449 21.1896
100.505 493 22.2036
100.622 490 22.1359
100.74 463 21.5174
100.857 506 22.4944
100.975 483 21.9773
101.092 477 21.8403
101.209 507 22.5167
101.327 484 22
101.444 492 22.1811
101.561 524 22.891
101.679 498 22.3159
101.796 451 21.2368
101.913 515 22.6936
102.03 453 21.2838
102.148 486 22.0454
102.265 477 21.8403
102.382 532 23.0651
102.499 530 23.0217
102.616 535 23.1301
102.733 542 23.2809
102.851 565 23.7697
102.968 534 23.1084
103.085 546 23.3666
103.202 478 21.8632
103.319 479 21.8861
103.436 501 22.383
103.552 558 23.622
103.669 555 23.5584
103.786 518 22.7596
103.903 529 23
104.02 546 23.3666
104.137 511 22.6053
104.253 549 23.4307
104.37 527 22.9565
104.487 523 22.8692
104.603 486 22.0454
104.72 523 22.8692
104.836 520 22.8035
104.953 495 22.2486
105.069 507 22.5167
105.186 458 21.4009
105.302 447 21.1424
105.418 423 20.567
105.535 393 19.8242
105.651 321 17.9165
105.767 305 17.4642
105.883 288 16.9706
105.999 291 17.0587
106.115 0 1
106.231 0 1
106.347 0 1
106.463 0 1
106.579 0 1
106.694 0 1
106.81 0 1
106.926 0 1
107.041 0 1
107.157 0 1
109.576 0 1
109.692 0 1
109.807 0 1
109.923 0 1
110.039 0 1
110.155 0 1
110.27 0 1
110.386 0 1
110.502 0 1
110.618 235 15.3297
110.735 301 17.3494
110.851 377 19.4165
110.967 325 18.0278
111.083 433 20.8087
111.199 458 21.4009
111.316 457 21.3776
111.432 505 22.4722
111.549 513 22.6495
111.665 530 23.0217
111.782 541 23.2594
111.898 511 22.6053
112.015 469 21.6564
112.132 500 22.3607
112.248 498 22.3159
112.365 557 23.6008
112.482 492 22.1811
112.599 511 22.6053
112.716 513 22.6495
112.832 518 22.7596
112.949 480 21.9089
113.066 456 21.3542
113.183 507 22.5167
113.3 508 22.5389
113.417 498 22.3159
113.534 431 20.7605
113.652 466 21.587
113.769 465 21.5639
113.886 440 20.9762
114.003 486 22.0454
114.12 430 20.7364
114.238 482 21.9545
114.355 441 21
114.472 474 21.7715
114.589 486 22.0454
114.707 449 21.1896
114.824 481 21.9317
114.942 492 22.1811
115.059 527 22.9565
115.176 549 23.4307
115.294 462 21.4942
115.411 486 22.0454
115.529 424 20.5913
115.646 456 21.3542
115.764 475 21.7945
115.881 492 22.1811
115.999 475 21.7945
116.116 493 22.2036
116.234 536 23.1517
116.351 456 21.3542
116.469 432 20.7846
116.586 448 21.166
116.704 474 21.7715
116.821 464 21.5407
116.939 456 21.3542
117.056 435 20.8567
117.174 457 21.3776
117.291 538 23.1948
117.409 435 20.8567
117.526 434 20.8327
117.644 425 20.6155
117.761 449 21.1896
117.879 418 20.445
117.996 441 21
118.114 398 19.9499
118.231 482 21.9545
118.349 455 21.3307
118.466 458 21.4009
118.584 508 22.5389
118.701 534 23.1084
118.819 442 21.0238
118.936 488 22.0907
119.053 441 21
119.171 396 19.8997
119.288 394 19.8494
119.405 458 21.4009
119.523 497 22.2935
119.64 480 21.9089
119.757 461 21.4709
119.875 448 21.166
119.992 463 21.5174
120.109 433 20.8087
120.226 404 20.0998
120.343 398 19.9499
120.46 429 20.7123
120.578 416 20.3961
120.695 456 21.3542
120.812 435 20.8567
120.929 451 21.2368
121.046 433 20.8087
121.163 411 20.2731
121.279 412 20.2978
121.396 417 20.4206
121.513 407 20.1742
121.63 406 20.1494
121.747 394 19.8494
121.863 335 18.303
121.98 335 18.303
122.097 364 19.0788
122.213 360 18.9737
122.33 380 19.4936
122.446 358 18.9209
122.563 339 18.412
122.679 300 17.3205
122.795 255 15.9687
122.912 255 15.9687
123.028 242 15.5563
123.144 224 14.9666
123.26 241 15.5242
123.377 0 1
123.493 0 1
123.609 0 1
123.725 0 1
123.84 0 1
123.956 0 1
124.072 0 1
124.188 0 1
124.303 0 1
124.419 0 1
126.852 0 1
126.968 0 1
127.083 0 1
127.199 0 1
127.315 0 1
127.431 0 1
127.547 0 1
127.663 0 1
127.779 0 1
127.895 0 1
128.011 0 1
128.127 0 1
128.243 0 1
128.359 485 22.0227
128.476 474 21.7715
128.592 484 22
128.708 467 21.6102
128.825 571 23.8956
128.941 543 23.3024
129.058 537 23.1733
129.174 513 22.6495
129.291 476 21.8174
129.408 486 22.0454
129.524 497 22.2935
129.641 520 22.8035
129.758 478 21.8632
129.875 480 21.9089
129.992 497 22.2935
130.108 530 23.0217
130.225 520 22.8035
130.342 517 22.7376
130.459 485 22.0227
130.576 479 21.8861
130.693 495 22.2486
130.81 475 21.7945
130.928 500 22.3607
131.045 537 23.1733
131.162 593 24.3516
131.279 620 24.8998
131.396 658 25.6515
131.513 669 25.865
131.631 703 26.5141
131.748 686 26.1916
131.865 681 26.096
131.983 694 26.3439
132.1 689 26.2488
132.217 756 27.4955
132.335 835 28.8964
132.452 863 29.3769
132.57 806 28.3901
132.687 890 29.8329
132.804 867 29.4449
132.922 866 29.4279
133.039 897 29.95
133.157 823 28.688
133.274 912 30.1993
133.392 909 30.1496
133.509 840 28.9828
133.627 867 29.4449
133.744 877 29.6142
133.862 826 28.7402
133.979 837 28.931
134.097 856 29.2575
134.214 812 28.4956
134.332 743 27.258
134.449 780 27.9285
134.567 803 28.3373
134.684 853 29.2062
134.802 890 29.8329
134.919 883 29.7153
135.037 953 30.8707
135.154 889 29.8161
135.272 929 30.4795
135.389 822 28.6705
135.507 851 29.1719
135.624 851 29.1719
135.742 859 29.3087
135.859 881 29.6816
135.977 960 30.9839
136.094 943 30.7083
136.211 916 30.2655
136.329 867 29.4449
136.446 857 29.2746
136.564 958 30.9516
136.681 949 30.8058
136.798 876 29.5973
136.915 874 29.5635
137.033 936 30.5941
137.15 889 29.8161
137.267 894 29.8998
137.384 883 29.7153
137.502 869 29.4788
137.619 850 29.1548
137.736 833 28.8617
137.853 768 27.7128
137.97 766 27.6767
138.087 795 28.1957
138.204 865 29.4109
138.321 861 29.3428
138.438 827 28.7576
138.555 853 29.2062
138.672 893 29.8831
138.788 918 30.2985
138.905 897 29.95
139.022 785 28.0179
139.139 786 28.0357
139.255 722 26.8701
139.372 692 26.3059
139.488 703 26.5141
139.605 664 25.7682
139.721 666 25.807
139.838 667 25.8263
139.954 637 25.2389
140.071 612 24.7386
140.187 493 22.2036
140.303 492 22.1811
140.419 509 22.561
140.535 516 22.7156
140.652 517 22.7376
140.768 0 1
140.884 0 1
141 0 1
141.115 0 1
141.231 0 1
141.347 0 1
141.463 0 1
141.578 0 1
141.694 0 1
144.104 0 1
144.219 0 1
144.335 0 1
144.45 0 1
144.566 0 1
144.682 0 1
144.798 0 1
144.914 0 1
145.03 0 1
145.146 1342 36.6333
145.262 1437 37.9078
145.378 1430 37.8153
145.494 1501 38.7427
145.61 1511 38.8716
145.726 1610 40.1248
145.842 1627 40.3361
145.959 1851 43.0232
146.075 1729 41.5812
146.192 1716 41.4246
146.308 1774 42.1189
146.425 1778 42.1663
146.541 1712 41.3763
146.658 1609 40.1123
146.774 1602 40.025
146.891 1467 38.3014
147.008 1597 39.9625
147.125 1638 40.4722
147.241 1750 41.833
147.358 1812 42.5676
147.475 1862 43.1509
147.592 1929 43.9204
147.709 1909 43.6921
147.826 1947 44.1248
147.943 1779 42.1782
148.06 1697 41.1947
148.177 1667 40.8289
148.294 1759 41.9404
148.411 1748 41.8091
148.528 1711 41.3642
148.645 1736 41.6653
148.762 1760 41.9524
148.88 1774 42.1189
148.997 1818 42.638
149.114 1721 41.4849
149.231 1705 41.2916
149.349 1725 41.5331
149.466 1685 41.0488
149.583 1702 41.2553
149.701 1692 41.1339
149.818 1624 40.2989
149.935 1574 39.6737
150.053 1607 40.0874
150.17 1445 38.0132
150.287 1475 38.4057
150.405 1459 38.1969
150.522 1412 37.5766
150.64 1321 36.3456
150.757 1323 36.3731
150.875 1431 37.8286
150.992 1363 36.9188
151.11 1388 37.2559
151.227 1441 37.9605
151.344 1494 38.6523
151.462 1399 37.4032
151.579 1366 36.9594
151.697 1322 36.3593
151.814 1356 36.8239
151.932 1329 36.4555
152.049 1363 36.9188
152.167 1325 36.4005
152.284 1352 36.7696
152.402 1358 36.8511
152.519 1341 36.6197
152.636 1364 36.9324
152.754 1370 37.0135
152.871 1303 36.0971
152.989 1400 37.4166
153.106 1426 37.7624
153.223 1370 37.0135
153.341 1389 37.2693
153.458 1313 36.2353
153.575 1320 36.3318
153.693 1191 34.5109
153.81 1219 34.9142
153.927 1218 34.8999
154.044 1190 34.4964
154.162 1210 34.7851
154.279 1147 33.8674
154.396 1126 33.5559
154.513 1172 34.2345
154.63 1167 34.1614
154.747 1264 35.5528
154.864 1243 35.2562
154.981 1178 34.322
155.098 1211 34.7994
155.215 1097 33.121
155.332 1121 33.4813
155.449 1206 34.7275
155.566 1154 33.9706
155.683 1158 34.0294
155.8 1234 35.1283
155.917 1209 34.7707
156.033 1263 35.5387
156.15 0 1
156.267 0 1
156.383 0 1
156.5 0 1
156.617 0 1
156.733 0 1
156.85 0 1
156.966 0 1
157.082 0 1
157.199 0 1
157.315 0 1
157.431 0 1
157.547 0 1
157.664 0 1
157.78 0 1
157.896 0 1
158.012 0 1
158.128 0 1
158.244 0 1
158.359 0 1
158.475 0 1
158.591 0 1
158.706 0 1
