
6.15755 0 1
6.2731 0 1
6.3887 0 1
6.50437 0 1
6.62009 0 1
6.73587 0 1
6.8517 0 1
6.96759 0 1
7.08353 0 1
7.19952 0 1
7.31557 0 1
7.43166 0 1
7.54781 0 1
7.664 0 1
7.78024 0 1
7.89653 0 1
8.01286 0 1
8.12924 0 1
8.24567 0 1
8.36213 0 1
8.47864 0 1
8.59519 0 1
8.71178 0 1
8.82841 0 1
8.94508 0 1
9.06179 0 1
9.17853 0 1
9.29531 0 1
9.41212 0 1
9.52897 0 1
9.64584 0 1
9.76276 0 1
9.8797 0 1
9.99667 0 1
10.1137 0 1
10.2307 0 1
10.3478 0 1
10.4648 0 1
10.5819 0 1
10.6991 0 1
10.8162 0 1
10.9334 0 1
11.0506 0 1
11.1678 0 1
11.285 0 1
11.4023 0 1
11.5196 0 1
11.6369 0 1
11.7542 0 1
11.8715 0 1
11.9888 0 1
12.1062 0 1
12.2235 0 1
12.3409 0 1
12.4582 0 1
12.5756 0 1
12.693 0 1
12.8104 0 1
12.9278 0 1
13.0452 0 1
13.1626 0 1
13.28 0 1
13.3974 0 1
13.5149 0 1
13.6323 0 1
13.7497 0 1
13.8671 0 1
13.9845 0 1
14.1019 0 1
14.2193 0 1
14.3367 0 1
14.4541 0 1
14.5714 0 1
14.6888 0 1
14.8062 0 1
14.9235 0 1
15.0408 1655 40.6817
15.1581 1836 42.8486
15.2755 1862 43.1509
15.3927 1945 44.1022
15.51 1914 43.7493
15.6273 1877 43.3244
15.7445 1848 42.9884
15.8617 1907 43.6692
15.9789 1863 43.1625
16.0961 1916 43.7721
16.2132 1889 43.4626
16.3304 1938 44.0227
16.4475 1986 44.5646
16.5646 2051 45.288
16.6816 2088 45.6946
16.7986 2206 46.9681
16.9156 2184 46.7333
17.0326 2204 46.9468
17.1496 2168 46.5618
17.2665 2216 47.0744
17.3833 2179 46.6798
17.5002 2140 46.2601
17.617 1999 44.7102
17.7338 1991 44.6206
17.8505 1961 44.2832
17.9672 1910 43.7035
18.0839 1905 43.6463
18.2005 2062 45.4093
18.3171 2069 45.4863
18.4337 2119 46.0326
18.5502 2168 46.5618
18.6666 2140 46.2601
18.7831 2271 47.655
18.8994 2225 47.1699
19.0158 2248 47.4131
19.1321 2184 46.7333
19.2483 1984 44.5421
19.3645 1992 44.6318
19.4806 1735 41.6533
19.5967 1638 40.4722
19.7128 1539 39.2301
19.8288 1470 38.3406
19.9447 1287 35.8748
20.0606 0 1
20.1764 0 1
20.2922 0 1
20.4079 0 1
20.5236 0 1
20.6392 0 1
20.7548 0 1
20.8702 0 1
23.3078 0 1
23.4233 0 1
23.539 0 1
23.6547 0 1
23.7704 0 1
23.8862 0 1
24.0021 0 1
24.118 0 1
24.234 0 1
24.35 0 1
24.4661 869 29.4788
24.5822 1053 32.45
24.6984 1208 34.7563
24.8146 1281 35.7911
24.9309 1417 37.6431
25.0472 1591 39.8873
25.1636 1722 41.497
25.28 1880 43.359
25.3965 1967 44.3509
25.513 2160 46.4758
25.6296 2225 47.1699
25.7462 2342 48.3942
25.8628 2398 48.9694
25.9795 2407 49.0612
26.0962 2457 49.5681
26.213 2251 47.4447
26.3298 2064 45.4313
26.4466 2071 45.5082
26.5635 1999 44.7102
26.6804 2017 44.911
26.7973 2057 45.3542
26.9143 2133 46.1844
27.0313 2223 47.1487
27.1483 2177 46.6583
27.2653 2261 47.55
27.3824 2283 47.7807
27.4996 2312 48.0833
27.6167 2217 47.085
27.7339 2229 47.2123
27.8511 2146 46.3249
27.9683 2113 45.9674
28.0855 2062 45.4093
28.2028 2006 44.7884
28.3201 1872 43.2666
28.4374 1885 43.4166
28.5547 1883 43.3935
28.6721 2014 44.8776
28.7894 2075 45.5522
28.9068 2188 46.7761
29.0242 2240 47.3286
29.1416 2416 49.1528
29.259 2356 48.5386
29.3764 2327 48.239
29.4939 2313 48.0937
29.6113 2320 48.1664
29.7288 2070 45.4973
29.8463 2092 45.7384
29.9638 1967 44.3509
30.0812 1917 43.7836
30.1987 1894 43.5201
30.3162 2004 44.7661
30.4337 1984 44.5421
30.5512 2099 45.8148
30.6687 2140 46.2601
30.7862 2135 46.2061
30.9037 2213 47.0425
31.0212 2269 47.634
31.1387 2095 45.7712
31.2562 2130 46.1519
31.3737 2103 45.8585
31.4912 2052 45.299
31.6087 2025 45
31.7262 1968 44.3621
31.8436 1876 43.3128
31.9611 1868 43.2204
32.0785 1812 42.5676
32.1959 1950 44.1588
32.3134 1969 44.3734
32.4308 2049 45.2659
32.5482 2163 46.5081
32.6655 2160 46.4758
32.7829 2209 47
32.9002 2246 47.392
33.0176 2201 46.9148
33.1349 2228 47.2017
33.2522 2229 47.2123
33.3694 2036 45.1221
33.4867 1999 44.7102
33.6039 1887 43.4396
33.7211 1890 43.4741
33.8383 1886 43.4281
33.9554 1865 43.1856
34.0725 1958 44.2493
34.1896 1966 44.3396
34.3067 2019 44.9333
34.4237 2031 45.0666
34.5407 2064 45.4313
34.6577 2071 45.5082
34.7746 2198 46.8828
34.8915 2114 45.9783
35.0084 2063 45.4203
35.1252 2007 44.7996
35.242 1978 44.4747
35.3587 1877 43.3244
35.4755 1914 43.7493
35.5921 1832 42.8019
35.7088 1811 42.5558
35.8254 1851 43.0232
35.9419 1801 42.4382
36.0584 1906 43.6578
36.1749 1920 43.8178
36.2913 1988 44.587
36.4077 1977 44.4635
36.524 1825 42.72
36.6403 1919 43.8064
36.7565 1820 42.6615
36.8727 1722 41.497
36.9889 1493 38.6394
37.1049 1355 36.8103
37.221 0 1
37.3369 0 1
37.4529 0 1
37.5687 0 1
37.6845 0 1
37.8003 0 1
37.916 0 1
38.0316 0 1
38.1472 0 1
40.5851 0 1
40.7008 0 1
40.8164 0 1
40.9322 0 1
41.048 0 1
41.1639 0 1
41.2798 0 1
41.3958 0 1
41.5118 0 1
41.6279 0 1
41.744 995 31.5436
41.8602 1110 33.3167
41.9765 1267 35.5949
42.0928 1261 35.5106
42.2091 1219 34.9142
42.3255 1226 35.0143
42.4419 1278 35.7491
42.5584 1219 34.9142
42.675 1303 36.0971
42.7915 1474 38.3927
42.9081 1608 40.0999
43.0248 1608 40.0999
43.1415 1691 41.1218
43.2582 1765 42.0119
43.375 1680 40.9878
43.4918 1836 42.8486
43.6087 1780 42.19
43.7256 1751 41.845
43.8425 1707 41.3159
43.9595 1708 41.328
44.0765 1616 40.1995
44.1935 1537 39.2046
44.3106 1550 39.37
44.4277 1538 39.2173
44.5448 1483 38.5097
44.6619 1480 38.4708
44.7791 1572 39.6485
44.8963 1634 40.4228
45.0136 1663 40.7799
45.1308 1792 42.332
45.2481 1763 41.9881
45.3654 1811 42.5558
45.4827 1741 41.7253
45.6001 1762 41.9762
45.7174 1673 40.9023
45.8348 1682 41.0122
45.9522 1515 38.923
46.0697 1477 38.4318
46.1871 1423 37.7227
46.3046 1495 38.6652
46.422 1643 40.5339
46.5395 1648 40.5956
46.657 1718 41.4488
46.7745 1824 42.7083
46.892 1730 41.5933
47.0096 1689 41.0974
47.1271 1752 41.8569
47.2446 1770 42.0714
47.3622 1721 41.4849
47.4797 1833 42.8135
47.5973 1778 42.1663
47.7149 1691 41.1218
47.8324 1590 39.8748
47.95 1562 39.5221
48.0675 1573 39.6611
48.1851 1530 39.1152
48.3027 1568 39.598
48.4202 1623 40.2865
48.5378 1782 42.2137
48.6554 1920 43.8178
48.7729 1811 42.5558
48.8904 1854 43.0581
49.008 1828 42.7551
49.1255 1737 41.6773
49.243 1750 41.833
49.3605 1620 40.2492
49.478 1448 38.0526
49.5955 1466 38.2884
49.713 1361 36.8917
49.8304 1466 38.2884
49.9479 1520 38.9872
50.0653 1696 41.1825
50.1827 1689 41.0974
50.3001 1698 41.2068
50.4175 1829 42.7668
50.5348 1830 42.7785
50.6521 1829 42.7668
50.7694 1890 43.4741
50.8867 1910 43.7035
51.004 1892 43.4971
51.1212 1853 43.0465
51.2384 1766 42.0238
51.3556 1786 42.2611
51.4727 1717 41.4367
51.5899 1649 40.6079
51.707 1718 41.4488
51.824 1711 41.3642
51.9411 1902 43.6119
52.0581 2078 45.5851
52.175 2099 45.8148
52.2919 2175 46.6369
52.4088 2255 47.4868
52.5257 2312 48.0833
52.6425 2349 48.4665
52.7593 2303 47.9896
52.876 2269 47.634
52.9927 2109 45.9239
53.1094 2050 45.2769
53.226 1874 43.2897
53.3426 1755 41.8927
53.4591 1843 42.9302
53.5756 1900 43.589
53.692 1952 44.1814
53.8084 1870 43.2435
53.9248 1804 42.4735
54.0411 1811 42.5558
54.1573 1676 40.939
54.2735 0 1
54.3896 0 1
54.5057 0 1
54.6217 0 1
54.7377 0 1
54.8537 0 1
54.9695 0 1
55.0853 0 1
55.2011 0 1
55.3168 0 1
55.4324 0 1
57.824 0 1
57.9396 0 1
58.0553 0 1
58.1711 0 1
58.2869 0 1
58.4028 0 1
58.5187 0 1
58.6347 0 1
58.7508 0 1
58.8669 0 1
58.983 1411 37.5633
59.0992 1536 39.1918
59.2155 1725 41.5331
59.3318 1855 43.0697
59.4482 1988 44.587
59.5646 2036 45.1221
59.681 2134 46.1952
59.7975 2128 46.1303
59.9141 2098 45.8039
60.0306 2014 44.8776
60.1473 1930 43.9318
60.2639 1895 43.5316
60.3807 1824 42.7083
60.4974 1968 44.3621
60.6142 2062 45.4093
60.731 2100 45.8258
60.8479 2230 47.2229
60.9648 2245 47.3814
61.0818 2334 48.3115
61.1987 2286 47.8121
61.3158 2244 47.3709
61.4328 2118 46.0217
61.5499 2073 45.5302
61.667 1882 43.382
61.7841 1782 42.2137
61.9013 1694 41.1582
62.0185 1741 41.7253
62.1357 1820 42.6615
62.253 1970 44.3847
62.3702 2114 45.9783
62.4875 2090 45.7165
62.6049 2138 46.2385
62.7222 2215 47.0638
62.8396 2225 47.1699
62.9569 2233 47.2546
63.0743 2159 46.465
63.1918 2238 47.3075
63.3092 2103 45.8585
63.4267 2166 46.5403
63.5441 2030 45.0555
63.6616 1971 44.3959
63.7791 1903 43.6234
63.8966 1833 42.8135
64.0142 1890 43.4741
64.1317 1940 44.0454
64.2492 2027 45.0222
64.3668 2060 45.3872
64.4843 2235 47.2758
64.6019 2137 46.2277
64.7195 2293 47.8853
64.837 2240 47.3286
64.9546 2275 47.697
65.0722 2099 45.8148
65.1898 1951 44.1701
65.3074 1783 42.2256
65.4249 1717 41.4367
65.5425 1566 39.5727
65.6601 1644 40.5463
65.7777 1892 43.4971
65.8952 1878 43.3359
66.0128 1975 44.441
66.1304 2138 46.2385
66.2479 2152 46.3897
66.3655 2148 46.3465
66.483 2265 47.592
66.6005 2254 47.4763
66.718 2184 46.7333
66.8355 2200 46.9042
66.953 2118 46.0217
67.0705 2117 46.0109
67.1879 2056 45.3431
67.3054 1913 43.7379
67.4228 1852 43.0349
67.5402 1791 42.3202
67.6576 1780 42.19
67.7749 1741 41.7253
67.8923 1964 44.317
68.0096 2104 45.8694
68.1269 2172 46.6047
68.2442 2155 46.422
68.3614 2061 45.3982
68.4787 2165 46.5296
68.5958 2062 45.4093
68.713 2057 45.3542
68.8302 1906 43.6578
68.9473 1765 42.0119
69.0643 1659 40.7308
69.1814 1602 40.025
69.2984 1599 39.9875
69.4154 1630 40.3733
69.5323 1912 43.7264
69.6492 1964 44.317
69.7661 2137 46.2277
69.8829 2084 45.6508
69.9997 2018 44.9222
70.1165 1934 43.9773
70.2332 1967 44.3509
70.3499 1847 42.9767
70.4665 1781 42.2019
70.5831 1618 40.2244
70.6996 1645 40.5586
70.8161 1459 38.1969
70.9326 1360 36.8782
71.049 1173 34.2491
71.1653 970 31.1448
71.2817 860 29.3258
71.3979 867 29.4449
71.5141 740 27.2029
71.6303 796 28.2135
71.7464 687 26.2107
71.8624 0 1
71.9784 0 1
72.0944 0 1
72.2102 0 1
72.3261 0 1
72.4418 0 1
72.5575 0 1
72.6732 0 1
75.1054 0 1
75.2209 0 1
75.3365 0 1
75.4521 0 1
75.5678 0 1
75.6835 0 1
75.7993 0 1
75.9151 0 1
76.031 0 1
76.147 1318 36.3043
76.263 1372 37.0405
76.3791 1333 36.5103
76.4952 1380 37.1484
76.6113 1480 38.4708
76.7276 1478 38.4448
76.8438 1643 40.5339
76.9601 1750 41.833
77.0765 1817 42.6263
77.1929 1902 43.6119
77.3093 1917 43.7836
77.4258 1858 43.1045
77.5423 1929 43.9204
77.6589 1714 41.4005
77.7755 1631 40.3856
77.8921 1473 38.3797
78.0088 1297 36.0139
78.1256 1363 36.9188
78.2423 1331 36.4829
78.3591 1368 36.9865
78.4759 1524 39.0384
78.5928 1640 40.4969
78.7097 1822 42.6849
78.8266 1792 42.332
78.9436 1805 42.4853
79.0606 1805 42.4853
79.1776 1843 42.9302
79.2946 1919 43.8064
79.4117 1941 44.0568
79.5288 1894 43.5201
79.6459 1924 43.8634
79.7631 1834 42.8252
79.8802 1785 42.2493
79.9974 1700 41.2311
80.1147 1522 39.0128
80.2319 1465 38.2753
80.3491 1565 39.5601
80.4664 1676 40.939
80.5837 1801 42.4382
80.701 1957 44.238
80.8183 1931 43.9431
80.9357 1895 43.5316
81.053 2065 45.4423
81.1704 1980 44.4972
81.2877 1997 44.6878
81.4051 1834 42.8252
81.5225 1662 40.7676
81.6399 1589 39.8623
81.7573 1447 38.0395
81.8747 1314 36.2491
81.9922 1353 36.7831
82.1096 1532 39.1408
82.227 1782 42.2137
82.3444 1830 42.7785
82.4619 1851 43.0232
82.5793 1852 43.0349
82.6967 1941 44.0568
82.8142 1939 44.0341
82.9316 1974 44.4297
83.049 1951 44.1701
83.1664 1997 44.6878
83.2838 1916 43.7721
83.4012 1994 44.6542
83.5186 1864 43.1741
83.636 1797 42.391
83.7534 1638 40.4722
83.8708 1599 39.9875
83.9881 1564 39.5474
84.1055 1638 40.4722
84.2228 1744 41.7612
84.3401 1802 42.45
84.4575 1964 44.317
84.5747 1974 44.4297
84.692 1974 44.4297
84.8093 1986 44.5646
84.9265 1949 44.1475
85.0437 1808 42.5206
85.1609 1698 41.2068
85.2781 1573 39.6611
85.3952 1460 38.2099
85.5123 1396 37.3631
85.6294 1427 37.7757
85.7465 1572 39.6485
85.8636 1714 41.4005
85.9806 1860 43.1277
86.0976 1882 43.382
86.2145 1951 44.1701
86.3315 1991 44.6206
86.4484 2075 45.5522
86.5652 1929 43.9204
86.682 2052 45.299
86.7988 2023 44.9778
86.9156 1914 43.7493
87.0323 1982 44.5197
87.149 1876 43.3128
87.2657 1664 40.7922
87.3823 1574 39.6737
87.4988 1365 36.9459
87.6154 1312 36.2215
87.7318 1384 37.2022
87.8483 1527 39.0768
87.9647 1519 38.9744
88.081 1597 39.9625
88.1973 1522 39.0128
88.3136 1462 38.2361
88.4298 1375 37.081
88.546 1292 35.9444
88.6621 1053 32.45
88.7781 829 28.7924
88.8942 0 1
89.0101 0 1
89.126 0 1
89.2419 0 1
89.3577 0 1
89.4734 0 1
89.5891 0 1
89.7047 0 1
89.8203 0 1
89.9358 0 1
92.3269 0 1
92.4424 0 1
92.558 0 1
92.6736 0 1
92.7893 0 1
92.905 0 1
93.0208 0 1
93.1366 0 1
93.2525 0 1
93.3685 0 1
93.4845 0 1
93.6005 1502 38.7556
93.7167 1597 39.9625
93.8328 1650 40.6202
93.949 1729 41.5812
94.0653 1714 41.4005
94.1816 1690 41.1096
94.2979 1656 40.694
94.4143 1587 39.8372
94.5307 1502 38.7556
94.6472 1390 37.2827
94.7637 1433 37.855
94.8803 1664 40.7922
94.9969 1742 41.7373
95.1135 1859 43.1161
95.2302 1933 43.9659
95.3469 1978 44.4747
95.4637 2008 44.8107
95.5805 2023 44.9778
95.6973 2052 45.299
95.8142 2074 45.5412
95.9311 2058 45.3652
96.048 2041 45.1774
96.1649 1924 43.8634
96.2819 1962 44.2945
96.3989 1955 44.2154
96.516 1726 41.5452
96.633 1675 40.9268
96.7501 1594 39.9249
96.8673 1661 40.7554
96.9844 1703 41.2674
97.1016 1845 42.9535
97.2188 2010 44.833
97.336 2082 45.6289
97.4532 2048 45.2548
97.5704 2023 44.9778
97.6877 1977 44.4635
97.805 2018 44.9222
97.9223 1835 42.8369
98.0396 1689 41.0974
98.1569 1533 39.1535
98.2743 1493 38.6394
98.3916 1499 38.7169
98.509 1527 39.0768
98.6264 1758 41.9285
98.7438 1863 43.1625
98.8612 1907 43.6692
98.9786 2104 45.8694
99.096 2104 45.8694
99.2134 2069 45.4863
99.3308 2187 46.7654
99.4482 2173 46.6154
99.5656 2177 46.6583
99.6831 2125 46.0977
99.8005 2122 46.0652
99.9179 2087 45.6837
100.035 1961 44.2832
100.153 1865 43.1856
100.27 1705 41.2916
100.388 1774 42.1189
100.505 1769 42.0595
100.622 1935 43.9886
100.74 2065 45.4423
100.857 2136 46.2169
100.975 2058 45.3652
101.092 2175 46.6369
101.209 2203 46.9361
101.327 2208 46.9894
101.444 2095 45.7712
101.561 1951 44.1701
101.679 1706 41.3038
101.796 1614 40.1746
101.913 1532 39.1408
102.03 1644 40.5463
102.148 1719 41.4608
102.265 1823 42.6966
102.382 2058 45.3652
102.499 2136 46.2169
102.616 2081 45.618
102.733 2213 47.0425
102.851 2258 47.5184
102.968 2294 47.8957
103.085 2252 47.4552
103.202 2200 46.9042
103.319 2240 47.3286
103.436 2250 47.4342
103.552 2158 46.4543
103.669 2080 45.607
103.786 1874 43.2897
103.903 1781 42.2019
104.02 1850 43.0116
104.137 2043 45.1996
104.253 2234 47.2652
104.37 2303 47.9896
104.487 2365 48.6313
104.603 2396 48.949
104.72 2255 47.4868
104.836 2207 46.9787
104.953 1944 44.0908
105.069 1762 41.9762
105.186 1585 39.8121
105.302 1400 37.4166
105.418 1389 37.2693
105.535 1366 36.9594
105.651 1384 37.2022
105.767 1384 37.2022
105.883 1402 37.4433
105.999 1358 36.8511
106.115 0 1
106.231 0 1
106.347 0 1
106.463 0 1
106.579 0 1
106.694 0 1
106.81 0 1
106.926 0 1
107.041 0 1
107.157 0 1
109.576 0 1
109.692 0 1
109.807 0 1
109.923 0 1
110.039 0 1
110.155 0 1
110.27 0 1
110.386 0 1
110.502 0 1
110.618 889 29.8161
110.735 1195 34.5688
110.851 1409 37.5366
110.967 1628 40.3485
111.083 1802 42.45
111.199 1859 43.1161
111.316 1939 44.0341
111.432 1995 44.6654
111.549 1998 44.699
111.665 2124 46.0869
111.782 2099 45.8148
111.898 1977 44.4635
112.015 2033 45.0888
112.132 1979 44.486
112.248 1875 43.3013
112.365 1686 41.0609
112.482 1754 41.8808
112.599 1890 43.4741
112.716 2038 45.1442
112.832 2157 46.4435
112.949 2100 45.8258
113.066 2062 45.4093
113.183 2124 46.0869
113.3 2071 45.5082
113.417 2042 45.1885
113.534 1939 44.0341
113.652 1728 41.5692
113.769 1522 39.0128
113.886 1542 39.2683
114.003 1474 38.3927
114.12 1610 40.1248
114.238 1737 41.6773
114.355 1848 42.9884
114.472 1903 43.6234
114.589 2115 45.9891
114.707 2051 45.288
114.824 2088 45.6946
114.942 2102 45.8476
115.059 2127 46.1194
115.176 2143 46.2925
115.294 2033 45.0888
115.411 2088 45.6946
115.529 2095 45.7712
115.646 2036 45.1221
115.764 1855 43.0697
115.881 1819 42.6497
115.999 1758 41.9285
116.116 1879 43.3474
116.234 1965 44.3283
116.351 2021 44.9555
116.469 2106 45.8912
116.586 2113 45.9674
116.704 2114 45.9783
116.821 2155 46.422
116.939 2176 46.6476
117.056 2001 44.7325
117.174 1839 42.8836
117.291 1786 42.2611
117.409 1575 39.6863
117.526 1533 39.1535
117.644 1492 38.6264
117.761 1727 41.5572
117.879 1794 42.3556
117.996 1860 43.1277
118.114 1921 43.8292
118.231 2019 44.9333
118.349 2080 45.607
118.466 2025 45
118.584 2120 46.0435
118.701 2126 46.1086
118.819 2002 44.7437
118.936 2094 45.7602
119.053 1943 44.0795
119.171 1997 44.6878
119.288 1813 42.5793
119.405 1824 42.7083
119.523 1633 40.4104
119.64 1667 40.8289
119.757 1704 41.2795
119.875 1755 41.8927
119.992 1915 43.7607
120.109 1990 44.6094
120.226 1999 44.7102
120.343 2013 44.8665
120.46 2074 45.5412
120.578 2047 45.2438
120.695 1910 43.7035
120.812 1812 42.5676
120.929 1704 41.2795
121.046 1544 39.2938
121.163 1418 37.6563
121.279 1463 38.2492
121.396 1366 36.9594
121.513 1521 39
121.63 1502 38.7556
121.747 1676 40.939
121.863 1596 39.95
121.98 1630 40.3733
122.097 1616 40.1995
122.213 1573 39.6611
122.33 1566 39.5727
122.446 1463 38.2492
122.563 1484 38.5227
122.679 1370 37.0135
122.795 1305 36.1248
122.912 1159 34.0441
123.028 973 31.1929
123.144 921 30.348
123.26 799 28.2666
123.377 0 1
123.493 0 1
123.609 0 1
123.725 0 1
123.84 0 1
123.956 0 1
124.072 0 1
124.188 0 1
124.303 0 1
124.419 0 1
126.852 0 1
126.968 0 1
127.083 0 1
127.199 0 1
127.315 0 1
127.431 0 1
127.547 0 1
127.663 0 1
127.779 0 1
127.895 0 1
128.011 0 1
128.127 0 1
128.243 0 1
128.359 1873 43.2782
128.476 1901 43.6005
128.592 1857 43.0929
128.708 1759 41.9404
128.825 1966 44.3396
128.941 1931 43.9431
129.058 2049 45.2659
129.174 2148 46.3465
129.291 2204 46.9468
129.408 2171 46.594
129.524 2137 46.2277
129.641 2073 45.5302
129.758 2104 45.8694
129.875 1897 43.5546
129.992 1772 42.0951
130.108 1702 41.2553
130.225 1576 39.6989
130.342 1631 40.3856
130.459 1647 40.5832
130.576 1836 42.8486
130.693 1875 43.3013
130.81 2018 44.9222
130.928 2097 45.793
131.045 2170 46.5833
131.162 2151 46.3789
131.279 2095 45.7712
131.396 2163 46.5081
131.513 2114 45.9783
131.631 2128 46.1303
131.748 2039 45.1553
131.865 2076 45.5631
131.983 2096 45.7821
132.1 1888 43.4511
132.217 1882 43.382
132.335 1874 43.2897
132.452 2017 44.911
132.57 2016 44.8999
132.687 2120 46.0435
132.804 2155 46.422
132.922 2163 46.5081
133.039 2188 46.7761
133.157 2263 47.571
133.274 2206 46.9681
133.392 1983 44.5309
133.509 1865 43.1856
133.627 1738 41.6893
133.744 1693 41.1461
133.862 1689 41.0974
133.979 1761 41.9643
134.097 1790 42.3084
134.214 2034 45.0999
134.332 2070 45.4973
134.449 2026 45.0111
134.567 2070 45.4973
134.684 2188 46.7761
134.802 2218 47.0956
134.919 2175 46.6369
135.037 2213 47.0425
135.154 2225 47.1699
135.272 2145 46.3141
135.389 2165 46.5296
135.507 2030 45.0555
135.624 1989 44.5982
135.742 1939 44.0341
135.859 1928 43.909
135.977 1945 44.1022
136.094 2031 45.0666
136.211 2077 45.5741
136.329 2186 46.7547
136.446 2232 47.244
136.564 2168 46.5618
136.681 2263 47.571
136.798 2244 47.3709
136.915 2186 46.7547
137.033 2074 45.5412
137.15 1776 42.1426
137.267 1796 42.3792
137.384 1673 40.9023
137.502 1672 40.8901
137.619 1711 41.3642
137.736 1806 42.4971
137.853 1833 42.8135
137.97 1924 43.8634
138.087 2019 44.9333
138.204 2107 45.9021
138.321 2092 45.7384
138.438 2172 46.6047
138.555 2112 45.9565
138.672 2209 47
138.788 2011 44.8442
138.905 1924 43.8634
139.022 1860 43.1277
139.139 1705 41.2916
139.255 1688 41.0853
139.372 1540 39.2428
139.488 1435 37.8814
139.605 1474 38.3927
139.721 1483 38.5097
139.838 1388 37.2559
139.954 1395 37.3497
140.071 1311 36.2077
140.187 1257 35.4542
140.303 1122 33.4963
140.419 1077 32.8177
140.535 1108 33.2866
140.652 946 30.7571
140.768 0 1
140.884 0 1
141 0 1
141.115 0 1
141.231 0 1
141.347 0 1
141.463 0 1
141.578 0 1
141.694 0 1
144.104 0 1
144.219 0 1
144.335 0 1
144.45 0 1
144.566 0 1
144.682 0 1
144.798 0 1
144.914 0 1
145.03 0 1
145.146 1560 39.4968
145.262 1679 40.9756
145.378 1786 42.2611
145.494 1807 42.5088
145.61 1724 41.5211
145.726 1661 40.7554
145.842 1521 39
145.959 1534 39.1663
146.075 1408 37.5233
146.192 1331 36.4829
146.308 1357 36.8375
146.425 1404 37.47
146.541 1517 38.9487
146.658 1569 39.6106
146.774 1559 39.4842
146.891 1636 40.4475
147.008 1611 40.1373
147.125 1621 40.2616
147.241 1667 40.8289
147.358 1723 41.509
147.475 1702 41.2553
147.592 1675 40.9268
147.709 1653 40.6571
147.826 1589 39.8623
147.943 1543 39.281
148.06 1546 39.3192
148.177 1462 38.2361
148.294 1453 38.1182
148.411 1516 38.9358
148.528 1571 39.6358
148.645 1616 40.1995
148.762 1712 41.3763
148.88 1706 41.3038
148.997 1770 42.0714
149.114 1682 41.0122
149.231 1690 41.1096
149.349 1685 41.0488
149.466 1709 41.3401
149.583 1558 39.4715
149.701 1446 38.0263
149.818 1325 36.4005
149.935 1374 37.0675
150.053 1315 36.2629
150.17 1413 37.5899
150.287 1416 37.6298
150.405 1459 38.1969
150.522 1540 39.2428
150.64 1575 39.6863
150.757 1580 39.7492
150.875 1667 40.8289
150.992 1563 39.5348
151.11 1677 40.9512
151.227 1646 40.5709
151.344 1657 40.7063
151.462 1534 39.1663
151.579 1528 39.0896
151.697 1481 38.4838
151.814 1410 37.55
151.932 1445 38.0132
152.049 1470 38.3406
152.167 1500 38.7298
152.284 1584 39.7995
152.402 1644 40.5463
152.519 1571 39.6358
152.636 1637 40.4599
152.754 1627 40.3361
152.871 1696 41.1825
152.989 1587 39.8372
153.106 1466 38.2884
153.223 1470 38.3406
153.341 1414 37.6032
153.458 1334 36.524
153.575 1291 35.9305
153.693 1251 35.3695
153.81 1371 37.027
153.927 1373 37.054
154.044 1469 38.3275
154.162 1495 38.6652
154.279 1452 38.1051
154.396 1446 38.0263
154.513 1647 40.5832
154.63 1597 39.9625
154.747 1549 39.3573
154.864 1577 39.7115
154.981 1444 38
155.098 1412 37.5766
155.215 1417 37.6431
155.332 1437 37.9078
155.449 1416 37.6298
155.566 1377 37.108
155.683 1347 36.7015
155.8 1389 37.2693
155.917 1420 37.6829
156.033 1404 37.47
156.15 0 1
156.267 0 1
156.383 0 1
156.5 0 1
156.617 0 1
156.733 0 1
156.85 0 1
156.966 0 1
157.082 0 1
157.199 0 1
157.315 0 1
157.431 0 1
157.547 0 1
157.664 0 1
157.78 0 1
157.896 0 1
158.012 0 1
158.128 0 1
158.244 0 1
158.359 0 1
158.475 0 1
158.591 0 1
158.706 0 1
