
6.15755 0 1
6.2731 0 1
6.3887 0 1
6.50437 0 1
6.62009 0 1
6.73587 0 1
6.8517 0 1
6.96759 0 1
7.08353 0 1
7.19952 0 1
7.31557 0 1
7.43166 0 1
7.54781 0 1
7.664 0 1
7.78024 0 1
7.89653 0 1
8.01286 0 1
8.12924 0 1
8.24567 0 1
8.36213 0 1
8.47864 0 1
8.59519 0 1
8.71178 0 1
8.82841 0 1
8.94508 0 1
9.06179 0 1
9.17853 0 1
9.29531 0 1
9.41212 0 1
9.52897 0 1
9.64584 0 1
9.76276 0 1
9.8797 0 1
9.99667 0 1
10.1137 0 1
10.2307 0 1
10.3478 0 1
10.4648 0 1
10.5819 0 1
10.6991 0 1
10.8162 0 1
10.9334 0 1
11.0506 0 1
11.1678 0 1
11.285 0 1
11.4023 0 1
11.5196 0 1
11.6369 0 1
11.7542 0 1
11.8715 0 1
11.9888 0 1
12.1062 0 1
12.2235 0 1
12.3409 0 1
12.4582 0 1
12.5756 0 1
12.693 0 1
12.8104 0 1
12.9278 0 1
13.0452 0 1
13.1626 0 1
13.28 0 1
13.3974 0 1
13.5149 0 1
13.6323 0 1
13.7497 0 1
13.8671 0 1
13.9845 0 1
14.1019 0 1
14.2193 0 1
14.3367 0 1
14.4541 0 1
14.5714 0 1
14.6888 0 1
14.8062 0 1
14.9235 0 1
15.0408 0 0
15.1581 0 0
15.2755 2 1.41421
15.3927 0 0
15.51 2 1.41421
15.6273 0 0
15.7445 0 0
15.8617 1 1
15.9789 0 0
16.0961 1 1
16.2132 1 1
16.3304 2 1.41421
16.4475 2 1.41421
16.5646 0 0
16.6816 1 1
16.7986 1 1
16.9156 0 0
17.0326 1 1
17.1496 0 0
17.2665 0 0
17.3833 0 0
17.5002 0 0
17.617 0 0
17.7338 0 0
17.8505 0 0
17.9672 0 0
18.0839 2 1.41421
18.2005 0 0
18.3171 0 0
18.4337 0 0
18.5502 1 1
18.6666 0 0
18.7831 0 0
18.8994 0 0
19.0158 1 1
19.1321 0 0
19.2483 0 0
19.3645 0 0
19.4806 0 0
19.5967 0 0
19.7128 0 0
19.8288 1 1
19.9447 0 0
20.0606 0 1
20.1764 0 1
20.2922 0 1
20.4079 0 1
20.5236 0 1
20.6392 0 1
20.7548 0 1
20.8702 0 1
23.3078 0 1
23.4233 0 1
23.539 0 1
23.6547 0 1
23.7704 0 1
23.8862 0 1
24.0021 0 1
24.118 0 1
24.234 0 1
24.35 0 1
24.4661 142754 377.828
24.5822 166742 408.341
24.6984 176943 420.646
24.8146 182020 426.638
24.9309 185085 430.215
25.0472 184805 429.89
25.1636 183687 428.587
25.28 183525 428.398
25.3965 182304 426.971
25.513 181519 426.05
25.6296 181641 426.194
25.7462 182150 426.79
25.8628 179162 423.275
25.9795 177831 421.7
26.0962 175281 418.666
26.213 174451 417.673
26.3298 170887 413.385
26.4466 170229 412.588
26.5635 167678 409.485
26.6804 165286 406.554
26.7973 162618 403.259
26.9143 160848 401.059
27.0313 158838 398.545
27.1483 158333 397.911
27.2653 155691 394.577
27.3824 151976 389.841
27.4996 146552 382.821
27.6167 135549 368.17
27.7339 108472 329.351
27.8511 76329 276.277
27.9683 76311 276.244
28.0855 101853 319.144
28.2028 122602 350.146
28.3201 125543 354.32
28.4374 128075 357.876
28.5547 125186 353.816
28.6721 123183 350.974
28.7894 120456 347.068
28.9068 117607 342.939
29.0242 114677 338.64
29.1416 112587 335.54
29.259 109521 330.94
29.3764 107605 328.032
29.4939 105098 324.188
29.6113 103329 321.448
29.7288 101189 318.102
29.8463 99130 314.849
29.9638 98223 313.405
30.0812 96863 311.228
30.1987 95033 308.274
30.3162 93452 305.699
30.4337 91139 301.892
30.5512 89663 299.438
30.6687 88890 298.144
30.7862 89040 298.396
30.9037 86862 294.724
31.0212 84035 289.888
31.1387 79092 281.233
31.2562 66569 258.01
31.3737 49229 221.876
31.4912 46438 215.495
31.6087 60961 246.903
31.7262 71382 267.174
31.8436 74306 272.591
31.9611 74059 272.138
32.0785 73122 270.411
32.1959 71523 267.438
32.3134 69347 263.338
32.4308 67865 260.509
32.5482 66292 257.472
32.6655 64432 253.835
32.7829 62907 250.813
32.9002 61866 248.729
33.0176 60584 246.138
33.1349 59231 243.374
33.2522 57363 239.506
33.3694 56264 237.2
33.4867 54450 233.345
33.6039 53305 230.879
33.7211 51820 227.64
33.8383 51627 227.216
33.9554 51697 227.37
34.0725 50945 225.71
34.1896 51755 227.497
34.3067 53191 230.632
34.4237 55831 236.286
34.5407 57684 240.175
34.6577 60327 245.616
34.7746 59608 244.147
34.8915 56468 237.63
35.0084 43693 209.029
35.1252 35472 188.34
35.242 42358 205.811
35.3587 58309 241.473
35.4755 67480 259.769
35.5921 71514 267.421
35.7088 74189 272.377
35.8254 75920 275.536
35.9419 77025 277.534
36.0584 78610 280.375
36.1749 78942 280.966
36.2913 80668 284.021
36.4077 81282 285.1
36.524 82340 286.949
36.6403 83718 289.341
36.7565 84598 290.857
36.8727 85586 292.551
36.9889 86811 294.637
37.1049 86537 294.172
37.221 0 1
37.3369 0 1
37.4529 0 1
37.5687 0 1
37.6845 0 1
37.8003 0 1
37.916 0 1
38.0316 0 1
38.1472 0 1
40.5851 0 1
40.7008 0 1
40.8164 0 1
40.9322 0 1
41.048 0 1
41.1639 0 1
41.2798 0 1
41.3958 0 1
41.5118 0 1
41.6279 0 1
41.744 83275 288.574
41.8602 85488 292.383
41.9765 86612 294.299
42.0928 86945 294.864
42.2091 86632 294.333
42.3255 88152 296.904
42.4419 89384 298.972
42.5584 90004 300.007
42.675 90303 300.505
42.7915 91039 301.727
42.9081 90865 301.438
43.0248 92670 304.417
43.1415 92740 304.532
43.2582 92773 304.587
43.375 92514 304.161
43.4918 93190 305.27
43.6087 90969 301.611
43.7256 86577 294.24
43.8425 69953 264.486
43.9595 45664 213.691
44.0765 50970 225.765
44.1935 72325 268.933
44.3106 85084 291.692
44.4277 89052 298.416
44.5448 88373 297.276
44.6619 88221 297.02
44.7791 87388 295.615
44.8963 86805 294.627
45.0136 85977 293.218
45.1308 84868 291.321
45.2481 83482 288.933
45.3654 82533 287.286
45.4827 82282 286.848
45.6001 81126 284.826
45.7174 80527 283.773
45.8348 78710 280.553
45.9522 77584 278.539
46.0697 76598 276.763
46.1871 74052 272.125
46.3046 72407 269.085
46.422 71732 267.828
46.5395 71638 267.653
46.657 70604 265.714
46.7745 69320 263.287
46.892 68117 260.992
47.0096 67018 258.878
47.1271 65939 256.786
47.2446 64806 254.57
47.3622 60631 246.234
47.4797 47193 217.239
47.5973 32227 179.519
47.7149 36475 190.984
47.8324 48794 220.894
47.95 56153 236.966
48.0675 58067 240.971
48.1851 58312 241.479
48.3027 57898 240.62
48.4202 58132 241.106
48.5378 57108 238.973
48.6554 57563 239.923
48.7729 57113 238.983
48.8904 57103 238.962
49.008 57568 239.933
49.1255 58644 242.165
49.243 58327 241.51
49.3605 59028 242.957
49.478 58620 242.116
49.5955 58912 242.718
49.713 58653 242.184
49.8304 60211 245.379
49.9479 61917 248.831
50.0653 63052 251.102
50.1827 64723 254.407
50.3001 65070 255.088
50.4175 65667 256.256
50.5348 65636 256.195
50.6521 68107 260.973
50.7694 69009 262.696
50.8867 65305 255.548
51.004 55016 234.555
51.1212 42368 205.835
51.2384 40203 200.507
51.3556 51879 227.77
51.4727 65315 255.568
51.5899 71490 267.376
51.707 74036 272.096
51.824 74418 272.797
51.9411 75118 274.077
52.0581 75909 275.516
52.175 76608 276.782
52.2919 76442 276.481
52.4088 77858 279.03
52.5257 79273 281.555
52.6425 79733 282.37
52.7593 80528 283.775
52.876 80296 283.365
52.9927 80787 284.231
53.1094 80211 283.215
53.226 80975 284.561
53.3426 81661 285.764
53.4591 83168 288.389
53.5756 84428 290.565
53.692 85238 291.955
53.8084 84422 290.555
53.9248 84017 289.857
54.0411 81950 286.269
54.1573 80736 284.141
54.2735 0 1
54.3896 0 1
54.5057 0 1
54.6217 0 1
54.7377 0 1
54.8537 0 1
54.9695 0 1
55.0853 0 1
55.2011 0 1
55.3168 0 1
55.4324 0 1
57.824 0 1
57.9396 0 1
58.0553 0 1
58.1711 0 1
58.2869 0 1
58.4028 0 1
58.5187 0 1
58.6347 0 1
58.7508 0 1
58.8669 0 1
58.983 80535 283.787
59.0992 79805 282.498
59.2155 79630 282.188
59.3318 80661 284.009
59.4482 81613 285.68
59.5646 80280 283.337
59.681 77427 278.257
59.7975 69623 263.862
59.9141 58972 242.842
60.0306 52334 228.766
60.1473 55312 235.185
60.2639 63640 252.27
60.3807 69349 263.342
60.4974 72846 269.9
60.6142 73233 270.616
60.731 72976 270.141
60.8479 73615 271.321
60.9648 73675 271.431
61.0818 72716 269.659
61.1987 70656 265.812
61.3158 69995 264.566
61.4328 68521 261.765
61.5499 67951 260.674
61.667 67102 259.041
61.7841 67372 259.561
61.9013 67920 260.615
62.0185 68442 261.614
62.1357 67495 259.798
62.253 66477 257.831
62.3702 64497 253.963
62.4875 62753 250.505
62.6049 63055 251.108
62.7222 65229 255.4
62.8396 65846 256.605
62.9569 66307 257.501
63.0743 65503 255.936
63.1918 63222 251.44
63.3092 58380 241.62
63.4267 50100 223.83
63.5441 41984 204.9
63.6616 41012 202.514
63.7791 46374 215.346
63.8966 53117 230.471
64.0142 56444 237.579
64.1317 57780 240.375
64.2492 57432 239.65
64.3668 57793 240.402
64.4843 57507 239.806
64.6019 57323 239.422
64.7195 56031 236.709
64.837 54830 234.158
64.9546 54512 233.478
65.0722 53878 232.116
65.1898 53282 230.829
65.3074 54239 232.893
65.4249 54048 232.482
65.5425 55001 234.523
65.6601 54035 232.454
65.7777 53400 231.084
65.8952 50884 225.575
66.0128 48764 220.826
66.1304 50600 224.944
66.2479 54414 233.268
66.3655 56124 236.905
66.483 56421 237.531
66.6005 56113 236.882
66.718 55720 236.051
66.8355 55142 234.823
66.953 53258 230.777
67.0705 46730 216.171
67.1879 39468 198.666
67.3054 36771 191.758
67.4228 39716 199.289
67.5402 45639 213.633
67.6576 49897 223.376
67.7749 51520 226.98
67.8923 53211 230.675
68.0096 53536 231.378
68.1269 53683 231.696
68.2442 54092 232.577
68.3614 53494 231.288
68.4787 53558 231.426
68.5958 53294 230.855
68.713 53842 232.039
68.8302 54412 233.264
68.9473 55982 236.605
69.0643 57357 239.493
69.1814 57837 240.493
69.2984 57021 238.791
69.4154 55579 235.752
69.5323 52708 229.582
69.6492 54024 232.431
69.7661 57862 240.545
69.8829 60903 246.785
69.9997 63013 251.024
70.1165 63034 251.066
70.2332 61072 247.127
70.3499 59712 244.36
70.4665 61496 247.984
70.5831 62271 249.542
70.6996 60889 246.757
70.8161 56787 238.3
70.9326 52678 229.517
71.049 50544 224.82
71.1653 50539 224.809
71.2817 53644 231.612
71.3979 56863 238.46
71.5141 57412 239.608
71.6303 56308 237.293
71.7464 51783 227.559
71.8624 0 1
71.9784 0 1
72.0944 0 1
72.2102 0 1
72.3261 0 1
72.4418 0 1
72.5575 0 1
72.6732 0 1
75.1054 0 1
75.2209 0 1
75.3365 0 1
75.4521 0 1
75.5678 0 1
75.6835 0 1
75.7993 0 1
75.9151 0 1
76.031 0 1
76.147 58284 241.421
76.263 62109 249.217
76.3791 62647 250.294
76.4952 61498 247.988
76.6113 62302 249.604
76.7276 63511 252.014
76.8438 63182 251.36
76.9601 63681 252.351
77.0765 64448 253.866
77.1929 63924 252.832
77.3093 64354 253.681
77.4258 64305 253.584
77.5423 65356 255.648
77.6589 65324 255.586
77.7755 65421 255.775
77.8921 66200 257.294
78.0088 67412 259.638
78.1256 67277 259.378
78.2423 64707 254.376
78.3591 61562 248.117
78.4759 60611 246.193
78.5928 62173 249.345
78.7097 66510 257.895
78.8266 73544 271.19
78.9436 69065 262.802
79.0606 72495 269.249
79.1776 70319 265.177
79.2946 67448 259.708
79.4117 64025 253.032
79.5288 64460 253.89
79.6459 68342 261.423
79.7631 70942 266.349
79.8802 70738 265.966
79.9974 70217 264.985
80.1147 70577 265.663
80.2319 70571 265.652
80.3491 69505 263.638
80.4664 69325 263.296
80.5837 69466 263.564
80.701 68833 262.36
80.8183 68971 262.623
80.9357 69193 263.046
81.053 70145 264.849
81.1704 69599 263.816
81.2877 70297 265.136
81.4051 71160 266.758
81.5225 73024 270.23
81.6399 71317 267.052
81.7573 72298 268.883
81.8747 68781 262.261
81.9922 66603 258.076
82.1096 66605 258.079
82.227 67986 260.741
82.3444 71390 267.189
82.4619 75384 274.561
82.5793 75084 274.015
82.6967 78576 280.314
82.8142 75061 273.973
82.9316 71199 266.831
83.049 65904 256.718
83.1664 62803 250.605
83.2838 64298 253.571
83.4012 70000 264.575
83.5186 72888 269.978
83.636 73399 270.922
83.7534 72714 269.655
83.8708 72730 269.685
83.9881 73327 270.79
84.1055 73187 270.531
84.2228 71347 267.109
84.3401 71586 267.556
84.4575 71884 268.112
84.5747 73074 270.322
84.692 74648 273.218
84.8093 75336 274.474
84.9265 76228 276.094
85.0437 77113 277.692
85.1609 78220 279.678
85.2781 76956 277.409
85.3952 75523 274.814
85.5123 74483 272.916
85.6294 75007 273.874
85.7465 77360 278.137
85.8636 82324 286.922
85.9806 85961 293.191
86.0976 87727 296.187
86.2145 88735 297.884
86.3315 85839 292.983
86.4484 89958 299.93
86.5652 85299 292.06
86.682 83783 289.453
86.7988 80406 283.56
86.9156 82397 287.049
87.0323 86479 294.073
87.149 89656 299.426
87.2657 89749 299.581
87.3823 90123 300.205
87.4988 90452 300.752
87.6154 90962 301.599
87.7318 90336 300.559
87.8483 90603 301.003
87.9647 90954 301.586
88.081 92104 303.486
88.1973 93853 306.354
88.3136 95576 309.154
88.4298 96706 310.976
88.546 97102 311.612
88.6621 97622 312.445
88.7781 95833 309.569
88.8942 0 1
89.0101 0 1
89.126 0 1
89.2419 0 1
89.3577 0 1
89.4734 0 1
89.5891 0 1
89.7047 0 1
89.8203 0 1
89.9358 0 1
92.3269 0 1
92.4424 0 1
92.558 0 1
92.6736 0 1
92.7893 0 1
92.905 0 1
93.0208 0 1
93.1366 0 1
93.2525 0 1
93.3685 0 1
93.4845 0 1
93.6005 94985 308.196
93.7167 97168 311.718
93.8328 98946 314.557
93.949 98815 314.349
94.0653 99057 314.733
94.1816 98667 314.113
94.2979 97679 312.536
94.4143 95644 309.264
94.5307 95567 309.139
94.6472 95594 309.183
94.7637 96921 311.321
94.8803 102214 319.709
94.9969 104194 322.791
95.1135 106583 326.471
95.2302 106906 326.965
95.3469 107499 327.87
95.4637 106623 326.532
95.5805 104517 323.291
95.6973 101994 319.365
95.8142 99327 315.162
95.9311 95834 309.571
96.048 92922 304.831
96.1649 92236 303.704
96.2819 96634 310.86
96.3989 101985 319.351
96.516 106132 325.779
96.633 107494 327.863
96.7501 106729 326.694
96.8673 105916 325.447
96.9844 104888 323.864
97.1016 104892 323.87
97.2188 104372 323.067
97.336 106830 326.849
97.4532 106571 326.452
97.5704 107727 328.218
97.6877 107196 327.408
97.805 107360 327.658
97.9223 105906 325.432
98.0396 104128 322.689
98.1569 103401 321.56
98.2743 103933 322.386
98.3916 105482 324.78
98.509 110255 332.047
98.6264 113064 336.25
98.7438 114841 338.882
98.8612 115815 340.316
98.9786 116754 341.693
99.096 114691 338.661
99.2134 112747 335.778
99.3308 111417 333.792
99.4482 111463 333.861
99.5656 110371 332.221
99.6831 105374 324.614
99.8005 102884 320.755
99.9179 104744 323.642
100.035 111029 333.21
100.153 113367 336.7
100.27 114005 337.646
100.388 112640 335.619
100.505 112461 335.352
100.622 111120 333.347
100.74 111508 333.928
100.857 111848 334.437
100.975 112607 335.57
101.092 114087 337.768
101.209 114227 337.975
101.327 114264 338.03
101.444 113077 336.269
101.561 111144 333.383
101.679 111050 333.242
101.796 110999 333.165
101.913 112718 335.735
102.03 117674 343.036
102.148 121480 348.54
102.265 130002 360.558
102.382 119217 345.278
102.499 126027 355.003
102.616 124192 352.409
102.733 121934 349.19
102.851 120907 347.717
102.968 122009 349.298
103.085 119646 345.899
103.202 114691 338.661
103.319 110786 332.845
103.436 109987 331.643
103.552 114652 338.603
103.669 120359 346.928
103.786 123544 351.488
103.903 123498 351.423
104.02 122561 350.087
104.137 121072 347.954
104.253 124336 352.613
104.37 119869 346.221
104.487 124279 352.532
104.603 125410 354.133
104.72 124235 352.47
104.836 123157 350.937
104.953 121814 349.019
105.069 120752 347.494
105.186 122142 349.488
105.302 123913 352.013
105.418 128020 357.799
105.535 132581 364.117
105.651 134508 366.753
105.767 135989 368.767
105.883 137753 371.151
105.999 136045 368.843
106.115 0 1
106.231 0 1
106.347 0 1
106.463 0 1
106.579 0 1
106.694 0 1
106.81 0 1
106.926 0 1
107.041 0 1
107.157 0 1
109.576 0 1
109.692 0 1
109.807 0 1
109.923 0 1
110.039 0 1
110.155 0 1
110.27 0 1
110.386 0 1
110.502 0 1
110.618 125217 353.86
110.735 128688 358.731
110.851 130152 360.766
110.967 130414 361.129
111.083 128768 358.843
111.199 125604 354.407
111.316 123748 351.778
111.432 123698 351.707
111.549 122487 349.981
111.665 119187 345.235
111.782 113942 337.553
111.898 109036 330.206
112.015 108404 329.248
112.132 111956 334.598
112.248 117449 342.708
112.365 121349 348.352
112.482 120649 347.346
112.599 115904 340.447
112.716 116554 341.4
112.832 116779 341.729
112.949 115617 340.025
113.066 116707 341.624
113.183 114386 338.21
113.3 111883 334.489
113.417 109918 331.539
113.534 110229 332.008
113.652 109642 331.122
113.769 111088 333.299
113.886 111820 334.395
114.003 115648 340.071
114.12 117391 342.624
114.238 118100 343.657
114.355 119422 345.575
114.472 118239 343.859
114.589 117314 342.511
114.707 113795 337.335
114.824 111380 333.736
114.942 111462 333.859
115.059 113757 337.279
115.176 111870 334.47
115.294 109615 331.082
115.411 105266 324.447
115.529 102082 319.503
115.646 101693 318.893
115.764 106254 325.966
115.881 112259 335.051
115.999 113153 336.382
116.116 113394 336.74
116.234 112055 334.746
116.351 111482 333.889
116.469 112448 335.333
116.586 113017 336.18
116.704 114786 338.801
116.821 111663 334.16
116.939 111719 334.244
117.056 110507 332.426
117.174 111012 333.185
117.291 111875 334.477
117.409 113623 337.08
117.526 116151 340.809
117.644 121037 347.904
117.761 122127 349.467
117.879 123350 351.212
117.996 122476 349.966
118.114 123181 350.972
118.231 121984 349.262
118.349 116200 340.881
118.466 116511 341.337
118.584 116968 342.006
118.701 118523 344.272
118.819 116336 341.081
118.936 111898 334.512
119.053 108806 329.858
119.171 105584 324.937
119.288 104892 323.87
119.405 108005 328.641
119.523 112114 334.834
119.64 117681 343.047
119.757 117320 342.52
119.875 116016 340.611
119.992 114975 339.08
120.109 114675 338.637
120.226 115484 339.829
120.343 116217 340.906
120.46 116106 340.743
120.578 113939 337.549
120.695 113767 337.294
120.812 115589 339.984
120.929 115426 339.744
121.046 117249 342.416
121.163 118896 344.813
121.279 121411 348.441
121.396 123975 352.101
121.513 124964 353.502
121.63 126922 356.261
121.747 124793 353.261
121.863 123939 352.05
121.98 121063 347.941
122.097 115585 339.978
122.213 116489 341.305
122.33 118177 343.769
122.446 118288 343.93
122.563 116110 340.749
122.679 112664 335.655
122.795 109278 330.572
122.912 106941 327.018
123.028 105442 324.718
123.144 107195 327.406
123.26 111551 333.993
123.377 0 1
123.493 0 1
123.609 0 1
123.725 0 1
123.84 0 1
123.956 0 1
124.072 0 1
124.188 0 1
124.303 0 1
124.419 0 1
126.852 0 1
126.968 0 1
127.083 0 1
127.199 0 1
127.315 0 1
127.431 0 1
127.547 0 1
127.663 0 1
127.779 0 1
127.895 0 1
128.011 0 1
128.127 0 1
128.243 0 1
128.359 119565 345.782
128.476 124711 353.144
128.592 130128 360.733
128.708 135687 368.357
128.825 136213 369.07
128.941 136231 369.095
129.058 134385 366.586
129.174 134166 366.287
129.291 134522 366.772
129.408 134105 366.203
129.524 133916 365.945
129.641 134360 366.551
129.758 136343 369.247
129.875 138046 371.545
129.992 138924 372.725
130.108 139937 374.082
130.225 141145 375.693
130.342 142811 377.903
130.459 139394 373.355
130.576 145546 381.505
130.693 139777 373.868
130.81 136155 368.992
130.928 129523 359.893
131.045 126972 356.331
131.162 129747 360.204
131.279 132934 364.601
131.396 133250 365.034
131.513 129837 360.329
131.631 124807 353.28
131.748 122860 350.514
131.865 119021 344.994
131.983 120209 346.712
132.1 126100 355.106
132.217 132419 363.894
132.335 134167 366.288
132.452 133680 365.623
132.57 132469 363.963
132.687 127717 357.375
132.804 135635 368.287
132.922 132179 363.564
133.039 132103 363.46
133.157 132336 363.78
133.274 133452 365.311
133.392 135535 368.151
133.509 135981 368.756
133.627 138046 371.545
133.744 139273 373.193
133.862 138888 372.677
133.979 140336 374.614
134.097 139010 372.84
134.214 141008 375.51
134.332 132586 364.124
134.449 129906 360.425
134.567 126024 354.999
134.684 127527 357.109
134.802 130171 360.792
134.919 131201 362.217
135.037 130424 361.143
135.154 126078 355.075
135.272 123865 351.945
135.389 118391 344.08
135.507 117694 343.066
135.624 120013 346.429
135.742 125354 354.054
135.859 132477 363.974
135.977 134732 367.059
136.094 135110 367.573
136.211 133521 365.405
136.329 133676 365.617
136.446 132782 364.393
136.564 133497 365.372
136.681 135136 367.608
136.798 133166 364.919
136.915 136310 369.202
137.033 137394 370.667
137.15 138604 372.296
137.267 139526 373.532
137.384 140075 374.266
137.502 139996 374.16
137.619 140339 374.618
137.736 141099 375.631
137.853 135644 368.299
137.97 130499 361.246
138.087 131098 362.075
138.204 125844 354.745
138.321 126937 356.282
138.438 131065 362.029
138.555 132424 363.901
138.672 132024 363.351
138.788 128322 358.221
138.905 124572 352.948
139.022 121919 349.169
139.139 120299 346.841
139.255 122747 350.353
139.372 128096 357.905
139.488 134159 366.277
139.605 136875 369.966
139.721 137462 370.759
139.838 136302 369.191
139.954 135610 368.253
140.071 132265 363.683
140.187 134149 366.264
140.303 133298 365.1
140.419 133782 365.762
140.535 132682 364.255
140.652 133076 364.796
140.768 0 1
140.884 0 1
141 0 1
141.115 0 1
141.231 0 1
141.347 0 1
141.463 0 1
141.578 0 1
141.694 0 1
144.104 0 1
144.219 0 1
144.335 0 1
144.45 0 1
144.566 0 1
144.682 0 1
144.798 0 1
144.914 0 1
145.03 0 1
145.146 116684 341.59
145.262 118626 344.421
145.378 119365 345.492
145.494 120152 346.629
145.61 120835 347.613
145.726 120950 347.779
145.842 121426 348.462
145.959 123489 351.41
146.075 123313 351.16
146.192 123696 351.704
146.308 123372 351.244
146.425 122020 349.314
146.541 118408 344.105
146.658 111764 334.311
146.774 107292 327.555
146.891 106614 326.518
147.008 109474 330.869
147.125 112517 335.436
147.241 112844 335.923
147.358 109846 331.43
147.475 106594 326.487
147.592 104063 322.588
147.709 102758 320.559
147.826 104733 323.625
147.943 110108 331.825
148.06 112980 336.125
148.177 115644 340.065
148.294 115637 340.054
148.411 114530 338.423
148.528 113597 337.042
148.645 111548 333.988
148.762 111640 334.126
148.88 110541 332.477
148.997 106904 326.962
149.114 114887 338.95
149.231 111361 333.708
149.349 112201 334.964
149.466 111957 334.6
149.583 112753 335.787
149.701 113232 336.5
149.818 114336 338.136
149.935 113957 337.575
150.053 112644 335.625
150.17 109356 330.69
150.287 103591 321.856
150.405 100063 316.327
150.522 99329 315.165
150.64 102979 320.903
150.757 105453 324.735
150.875 106397 326.186
150.992 103763 322.123
151.11 99280 315.087
151.227 98021 313.083
151.344 98008 313.062
151.462 100890 317.632
151.579 106515 326.366
151.697 110760 332.806
151.814 111766 334.314
151.932 110706 332.725
152.049 110406 332.274
152.167 109416 330.781
152.284 109098 330.3
152.402 108711 329.714
152.519 107582 327.997
152.636 108001 328.635
152.754 109293 330.595
152.871 108693 329.686
152.989 108946 330.07
153.106 110937 333.072
153.223 111782 334.338
153.341 111863 334.459
153.458 112586 335.538
153.575 112584 335.535
153.693 111616 334.09
153.81 106455 326.274
153.927 100816 317.515
154.044 98525 313.887
154.162 100692 317.32
154.279 103985 322.467
154.396 108486 329.372
154.513 110359 332.203
154.63 108798 329.845
154.747 105579 324.929
154.864 103182 321.22
154.981 104618 323.447
155.098 107133 327.312
155.215 111082 333.29
155.332 113629 337.089
155.449 113907 337.501
155.566 113077 336.269
155.683 111688 334.198
155.8 111590 334.051
155.917 111956 334.598
156.033 111969 334.618
156.15 0 1
156.267 0 1
156.383 0 1
156.5 0 1
156.617 0 1
156.733 0 1
156.85 0 1
156.966 0 1
157.082 0 1
157.199 0 1
157.315 0 1
157.431 0 1
157.547 0 1
157.664 0 1
157.78 0 1
157.896 0 1
158.012 0 1
158.128 0 1
158.244 0 1
158.359 0 1
158.475 0 1
158.591 0 1
158.706 0 1
