
6.15755 0 1
6.2731 0 1
6.3887 0 1
6.50437 0 1
6.62009 0 1
6.73587 0 1
6.8517 0 1
6.96759 0 1
7.08353 0 1
7.19952 0 1
7.31557 0 1
7.43166 0 1
7.54781 0 1
7.664 0 1
7.78024 0 1
7.89653 0 1
8.01286 0 1
8.12924 0 1
8.24567 0 1
8.36213 0 1
8.47864 0 1
8.59519 0 1
8.71178 0 1
8.82841 0 1
8.94508 0 1
9.06179 0 1
9.17853 0 1
9.29531 0 1
9.41212 0 1
9.52897 0 1
9.64584 0 1
9.76276 0 1
9.8797 0 1
9.99667 0 1
10.1137 0 1
10.2307 0 1
10.3478 0 1
10.4648 0 1
10.5819 0 1
10.6991 0 1
10.8162 0 1
10.9334 0 1
11.0506 0 1
11.1678 0 1
11.285 0 1
11.4023 0 1
11.5196 0 1
11.6369 0 1
11.7542 0 1
11.8715 0 1
11.9888 0 1
12.1062 0 1
12.2235 0 1
12.3409 0 1
12.4582 0 1
12.5756 0 1
12.693 0 1
12.8104 0 1
12.9278 0 1
13.0452 0 1
13.1626 0 1
13.28 0 1
13.3974 0 1
13.5149 0 1
13.6323 0 1
13.7497 0 1
13.8671 0 1
13.9845 0 1
14.1019 0 1
14.2193 0 1
14.3367 0 1
14.4541 0 1
14.5714 0 1
14.6888 0 1
14.8062 0 1
14.9235 0 1
15.0408 0 0
15.1581 0 0
15.2755 0 0
15.3927 0 0
15.51 0 0
15.6273 0 0
15.7445 0 0
15.8617 0 0
15.9789 0 0
16.0961 0 0
16.2132 0 0
16.3304 0 0
16.4475 0 0
16.5646 0 0
16.6816 0 0
16.7986 0 0
16.9156 0 0
17.0326 0 0
17.1496 0 0
17.2665 0 0
17.3833 0 0
17.5002 0 0
17.617 0 0
17.7338 0 0
17.8505 0 0
17.9672 0 0
18.0839 0 0
18.2005 0 0
18.3171 0 0
18.4337 0 0
18.5502 0 0
18.6666 0 0
18.7831 0 0
18.8994 0 0
19.0158 0 0
19.1321 0 0
19.2483 0 0
19.3645 0 0
19.4806 0 0
19.5967 0 0
19.7128 0 0
19.8288 0 0
19.9447 0 0
20.0606 0 1
20.1764 0 1
20.2922 0 1
20.4079 0 1
20.5236 0 1
20.6392 0 1
20.7548 0 1
20.8702 0 1
23.3078 0 1
23.4233 0 1
23.539 0 1
23.6547 0 1
23.7704 0 1
23.8862 0 1
24.0021 0 1
24.118 0 1
24.234 0 1
24.35 0 1
24.4661 12276 110.797
24.5822 12597 112.236
24.6984 12200 110.454
24.8146 12302 110.914
24.9309 12361 111.18
25.0472 12049 109.768
25.1636 11930 109.225
25.28 12027 109.668
25.3965 12115 110.068
25.513 12328 111.032
25.6296 12529 111.933
25.7462 13023 114.118
25.8628 13274 115.213
25.9795 13632 116.756
26.0962 13627 116.735
26.213 13819 117.554
26.3298 13620 116.705
26.4466 13648 116.825
26.5635 13415 115.823
26.6804 12908 113.613
26.7973 12623 112.352
26.9143 12701 112.699
27.0313 13307 115.356
27.1483 13767 117.333
27.2653 13797 117.461
27.3824 14157 118.983
27.4996 14158 118.987
27.6167 13901 117.903
27.7339 13928 118.017
27.8511 13666 116.902
27.9683 13405 115.78
28.0855 12987 113.961
28.2028 13035 114.171
28.3201 12743 112.885
28.4374 12574 112.134
28.5547 12253 110.693
28.6721 11927 109.211
28.7894 11791 108.586
28.9068 11652 107.944
29.0242 11973 109.421
29.1416 11935 109.247
29.259 12112 110.055
29.3764 12195 110.431
29.4939 12652 112.481
29.6113 12775 113.027
29.7288 13122 114.551
29.8463 13278 115.23
29.9638 13095 114.433
30.0812 12742 112.88
30.1987 12521 111.897
30.3162 12202 110.463
30.4337 12149 110.223
30.5512 12642 112.437
30.6687 13070 114.324
30.7862 13282 115.248
30.9037 13795 117.452
31.0212 13726 117.158
31.1387 14030 118.448
31.2562 13716 117.115
31.3737 13563 116.46
31.4912 13385 115.694
31.6087 13294 115.3
31.7262 13037 114.18
31.8436 12807 113.168
31.9611 12395 111.333
32.0785 12496 111.786
32.1959 11972 109.417
32.3134 11531 107.382
32.4308 11469 107.093
32.5482 11791 108.586
32.6655 11870 108.95
32.7829 11982 109.462
32.9002 12238 110.625
33.0176 12494 111.777
33.1349 12441 111.539
33.2522 12688 112.641
33.3694 13098 114.446
33.4867 13282 115.248
33.6039 13249 115.104
33.7211 12878 113.481
33.8383 12735 112.849
33.9554 12216 110.526
34.0725 12159 110.268
34.1896 12602 112.259
34.3067 12774 113.022
34.4237 13338 115.49
34.5407 13739 117.213
34.6577 13805 117.495
34.7746 13818 117.55
34.8915 13713 117.103
35.0084 13525 116.297
35.1252 13554 116.422
35.242 13171 114.765
35.3587 12977 113.917
35.4755 13132 114.595
35.5921 12685 112.628
35.7088 12416 111.427
35.8254 12125 110.114
35.9419 11870 108.95
36.0584 11501 107.243
36.1749 11376 106.658
36.2913 11437 106.944
36.4077 11416 106.846
36.524 11863 108.917
36.6403 11920 109.179
36.7565 12073 109.877
36.8727 12523 111.906
36.9889 12504 111.821
37.1049 12571 112.12
37.221 0 1
37.3369 0 1
37.4529 0 1
37.5687 0 1
37.6845 0 1
37.8003 0 1
37.916 0 1
38.0316 0 1
38.1472 0 1
40.5851 0 1
40.7008 0 1
40.8164 0 1
40.9322 0 1
41.048 0 1
41.1639 0 1
41.2798 0 1
41.3958 0 1
41.5118 0 1
41.6279 0 1
41.744 9515 97.5449
41.8602 10143 100.712
41.9765 10577 102.845
42.0928 10767 103.764
42.2091 11224 105.943
42.3255 11438 106.949
42.4419 11509 107.28
42.5584 11154 105.612
42.675 10862 104.221
42.7915 10594 102.927
42.9081 10380 101.882
43.0248 11157 105.627
43.1415 11461 107.056
43.2582 11524 107.35
43.375 11914 109.151
43.4918 12238 110.625
43.6087 11855 108.881
43.7256 11665 108.005
43.8425 11644 107.907
43.9595 11430 106.911
44.0765 11511 107.289
44.1935 11077 105.247
44.3106 10667 103.281
44.4277 10516 102.548
44.5448 10156 100.777
44.6619 9670 98.3362
44.7791 9227 96.0573
44.8963 8861 94.1329
45.0136 8933 94.5145
45.1308 8990 94.8156
45.2481 8914 94.414
45.3654 9193 95.8801
45.4827 9504 97.4885
45.6001 9493 97.432
45.7174 9591 97.9337
45.8348 9959 99.7948
45.9522 9500 97.4679
46.0697 9614 98.051
46.1871 9151 95.6609
46.3046 8769 93.6429
46.422 8496 92.1737
46.5395 8692 93.2309
46.657 9235 96.0989
46.7745 9421 97.0618
46.892 9452 97.2214
47.0096 9709 98.5343
47.1271 9608 98.0204
47.2446 9422 97.067
47.3622 9322 96.5505
47.4797 9302 96.4469
47.5973 9064 95.205
47.7149 8843 94.0372
47.8324 8520 92.3038
47.95 8136 90.1998
48.0675 8096 89.9778
48.1851 7805 88.3459
48.3027 7232 85.0412
48.4202 6938 83.2947
48.5378 6906 83.1023
48.6554 6836 82.6801
48.7729 6936 83.2827
48.8904 7041 83.9107
49.008 7476 86.4639
49.1255 7714 87.8294
49.243 7734 87.9432
49.3605 7807 88.3572
49.478 7994 89.4092
49.5955 7834 88.5099
49.713 7524 86.741
49.8304 7224 84.9941
49.9479 7305 85.4693
50.0653 7588 87.1091
50.1827 8259 90.879
50.3001 8625 92.8709
50.4175 9003 94.8841
50.5348 9243 96.1405
50.6521 9659 98.2802
50.7694 9828 99.1363
50.8867 10044 100.22
51.004 9959 99.7948
51.1212 10019 100.095
51.2384 10358 101.774
51.3556 10279 101.385
51.4727 10060 100.3
51.5899 9632 98.1428
51.707 9555 97.7497
51.824 9245 96.1509
51.9411 9090 95.3415
52.0581 9086 95.3205
52.175 9336 96.623
52.2919 9471 97.3191
52.4088 9951 99.7547
52.5257 10420 102.078
52.6425 10678 103.334
52.7593 10935 104.571
52.876 11052 105.128
52.9927 11357 106.569
53.1094 11731 108.31
53.226 11659 107.977
53.3426 11320 106.395
53.4591 11099 105.352
53.5756 11173 105.702
53.692 11781 108.54
53.8084 12561 112.076
53.9248 13161 114.721
54.0411 13893 117.869
54.1573 14135 118.891
54.2735 0 1
54.3896 0 1
54.5057 0 1
54.6217 0 1
54.7377 0 1
54.8537 0 1
54.9695 0 1
55.0853 0 1
55.2011 0 1
55.3168 0 1
55.4324 0 1
57.824 0 1
57.9396 0 1
58.0553 0 1
58.1711 0 1
58.2869 0 1
58.4028 0 1
58.5187 0 1
58.6347 0 1
58.7508 0 1
58.8669 0 1
58.983 15091 122.845
59.0992 16226 127.381
59.2155 16879 129.919
59.3318 17665 132.91
59.4482 18016 134.224
59.5646 17767 133.293
59.681 17681 132.97
59.7975 17855 133.623
59.9141 17233 131.275
60.0306 16896 129.985
60.1473 16255 127.495
60.2639 15411 124.141
60.3807 14524 120.516
60.4974 13913 117.953
60.6142 13090 114.412
60.731 12847 113.345
60.8479 12710 112.739
60.9648 12842 113.323
61.0818 13511 116.237
61.1987 14050 118.533
61.3158 14247 119.361
61.4328 14296 119.566
61.5499 14280 119.499
61.667 14415 120.062
61.7841 13863 117.741
61.9013 13547 116.392
62.0185 13026 114.132
62.1357 13073 114.337
62.253 13384 115.689
62.3702 13973 118.207
62.4875 14862 121.91
62.6049 15272 123.58
62.7222 15961 126.337
62.8396 16163 127.134
62.9569 16233 127.409
63.0743 16414 128.117
63.1918 15893 126.067
63.3092 15552 124.708
63.4267 15333 123.826
63.5441 14624 120.93
63.6616 14171 119.042
63.7791 13425 115.866
63.8966 12534 111.955
64.0142 11891 109.046
64.1317 11373 106.644
64.2492 10920 104.499
64.3668 11105 105.38
64.4843 11299 106.297
64.6019 11543 107.438
64.7195 12456 111.606
64.837 12876 113.472
64.9546 12999 114.013
65.0722 12729 112.823
65.1898 13176 114.787
65.3074 12990 113.974
65.4249 12610 112.294
65.5425 12067 109.85
65.6601 11986 109.481
65.7777 12266 110.752
65.8952 12850 113.358
66.0128 13755 117.282
66.1304 14476 120.316
66.2479 14947 122.258
66.3655 15435 124.238
66.483 15851 125.901
66.6005 15795 125.678
66.718 15753 125.511
66.8355 15835 125.837
66.953 15576 124.804
67.0705 14957 122.299
67.1879 14311 119.629
67.3054 14075 118.638
67.4228 13069 114.32
67.5402 12345 111.108
67.6576 11644 107.907
67.7749 11379 106.672
67.8923 10950 104.642
68.0096 11141 105.551
68.1269 11893 109.055
68.2442 12541 111.987
68.3614 13498 116.181
68.4787 13606 116.645
68.5958 13855 117.707
68.713 14145 118.933
68.8302 14111 118.79
68.9473 14228 119.281
69.0643 13545 116.383
69.1814 13385 115.694
69.2984 12868 113.437
69.4154 12934 113.728
69.5323 13814 117.533
69.6492 14945 122.25
69.7661 15760 125.539
69.8829 16804 129.63
69.9997 17415 131.966
70.1165 17753 133.24
70.2332 17698 133.034
70.3499 17825 133.51
70.4665 17591 132.631
70.5831 16964 130.246
70.6996 16593 128.814
70.8161 15740 125.459
70.9326 15160 123.126
71.049 14443 120.179
71.1653 13498 116.181
71.2817 12657 112.503
71.3979 11888 109.032
71.5141 11121 105.456
71.6303 11083 105.276
71.7464 10179 100.891
71.8624 0 1
71.9784 0 1
72.0944 0 1
72.2102 0 1
72.3261 0 1
72.4418 0 1
72.5575 0 1
72.6732 0 1
75.1054 0 1
75.2209 0 1
75.3365 0 1
75.4521 0 1
75.5678 0 1
75.6835 0 1
75.7993 0 1
75.9151 0 1
76.031 0 1
76.147 13869 117.767
76.263 14621 120.917
76.3791 14536 120.565
76.4952 13986 118.262
76.6113 13410 115.802
76.7276 12032 109.69
76.8438 11760 108.444
76.9601 11737 108.337
77.0765 11817 108.706
77.1929 12796 113.119
77.3093 13887 117.843
77.4258 14868 121.934
77.5423 15182 123.215
77.6589 14887 122.012
77.7755 14907 122.094
77.8921 14677 121.149
78.0088 14395 119.979
78.1256 13547 116.392
78.2423 13054 114.254
78.3591 12507 111.835
78.4759 12874 113.464
78.5928 13638 116.782
78.7097 15050 122.678
78.8266 15927 126.202
78.9436 16740 129.383
79.0606 16891 129.965
79.1776 17283 131.465
79.2946 17382 131.841
79.4117 17411 131.951
79.5288 17289 131.488
79.6459 16960 130.231
79.7631 15771 125.583
79.8802 15266 123.556
79.9974 14336 119.733
80.1147 13928 118.017
80.2319 12935 113.732
80.3491 11797 108.614
80.4664 11252 106.075
80.5837 11193 105.797
80.701 11321 106.4
80.8183 11666 108.009
80.9357 12921 113.671
81.053 13690 117.004
81.1704 13755 117.282
81.2877 13680 116.962
81.4051 13624 116.722
81.5225 13662 116.885
81.6399 12899 113.574
81.7573 12631 112.388
81.8747 11810 108.674
81.9922 11350 106.536
82.1096 11574 107.583
82.227 12485 111.736
82.3444 13411 115.806
82.4619 14644 121.012
82.5793 15323 123.786
82.6967 14883 121.996
82.8142 15347 123.883
82.9316 15169 123.162
83.049 15133 123.016
83.1664 14998 122.466
83.2838 14472 120.3
83.4012 13723 117.145
83.5186 13221 114.983
83.636 12359 111.171
83.7534 12097 109.986
83.8708 11231 105.976
83.9881 10506 102.499
84.1055 9582 97.8877
84.2228 9800 98.9949
84.3401 9981 99.905
84.4575 10683 103.359
84.5747 11783 108.55
84.692 12290 110.86
84.8093 12979 113.925
84.9265 12568 112.107
85.0437 12616 112.321
85.1609 12335 111.063
85.2781 11972 109.417
85.3952 11442 106.967
85.5123 11140 105.546
85.6294 11229 105.967
85.7465 11640 107.889
85.8636 12780 113.049
85.9806 13698 117.038
86.0976 14939 122.225
86.2145 15431 124.222
86.3315 15980 126.412
86.4484 16501 128.456
86.5652 16800 129.615
86.682 16880 129.923
86.7988 16635 128.977
86.9156 16110 126.925
87.0323 15401 124.101
87.149 14776 121.557
87.2657 14463 120.262
87.3823 13777 117.375
87.4988 12761 112.965
87.6154 12131 110.141
87.7318 11667 108.014
87.8483 12024 109.654
87.9647 12609 112.29
88.081 14106 118.769
88.1973 15049 122.674
88.3136 15643 125.072
88.4298 15701 125.304
88.546 15503 124.511
88.6621 15423 124.189
88.7781 14854 121.877
88.8942 0 1
89.0101 0 1
89.126 0 1
89.2419 0 1
89.3577 0 1
89.4734 0 1
89.5891 0 1
89.7047 0 1
89.8203 0 1
89.9358 0 1
92.3269 0 1
92.4424 0 1
92.558 0 1
92.6736 0 1
92.7893 0 1
92.905 0 1
93.0208 0 1
93.1366 0 1
93.2525 0 1
93.3685 0 1
93.4845 0 1
93.6005 14590 120.789
93.7167 15058 122.711
93.8328 15189 123.244
93.949 15364 123.952
94.0653 15257 123.519
94.1816 15141 123.049
94.2979 14555 120.644
94.4143 14045 118.512
94.5307 13443 115.944
94.6472 13363 115.598
94.7637 13526 116.301
94.8803 14694 121.219
94.9969 15595 124.88
95.1135 16774 129.514
95.2302 17708 133.071
95.3469 17952 133.985
95.4637 18377 135.562
95.5805 18629 136.488
95.6973 19002 137.848
95.8142 19139 138.344
95.9311 18533 136.136
96.048 17824 133.507
96.1649 17030 130.499
96.2819 16465 128.316
96.3989 15845 125.877
96.516 15334 123.831
96.633 14028 118.44
96.7501 13121 114.547
96.8673 12551 112.031
96.9844 12654 112.49
97.1016 13183 114.817
97.2188 13979 118.233
97.336 15260 123.531
97.4532 15634 125.036
97.5704 15949 126.289
97.6877 15500 124.499
97.805 15151 123.089
97.9223 14689 121.198
98.0396 14040 118.491
98.1569 13567 116.477
98.2743 13133 114.599
98.3916 13196 114.874
98.509 14131 118.874
98.6264 15098 122.874
98.7438 16282 127.601
98.8612 17164 131.011
98.9786 18026 134.261
99.096 18559 136.231
99.2134 18853 137.306
99.3308 18873 137.379
99.4482 18885 137.423
99.5656 18585 136.327
99.6831 17549 132.473
99.8005 16959 130.227
99.9179 16778 129.53
100.035 16062 126.736
100.153 15175 123.187
100.27 14355 119.812
100.388 13271 115.2
100.505 12889 113.53
100.622 13468 116.052
100.74 14248 119.365
100.857 15214 123.345
100.975 16255 127.495
101.092 16521 128.534
101.209 16128 126.996
101.327 16019 126.566
101.444 15850 125.897
101.561 15043 122.65
101.679 14618 120.905
101.796 14010 118.364
101.913 13991 118.284
102.03 14363 119.846
102.148 15609 124.936
102.265 18489 135.974
102.382 17169 131.031
102.499 19204 138.578
102.616 19789 140.673
102.733 20355 142.671
102.851 20458 143.031
102.968 20575 143.44
103.085 19996 141.407
103.202 19362 139.147
103.319 18747 136.92
103.436 18270 135.167
103.552 17671 132.932
103.669 16817 129.68
103.786 15323 123.786
103.903 14571 120.71
104.02 14404 120.017
104.137 14747 121.437
104.253 16028 126.602
104.37 16356 127.891
104.487 18145 134.703
104.603 18302 135.285
104.72 17909 133.825
104.836 17564 132.529
104.953 17240 131.301
105.069 16618 128.911
105.186 16317 127.738
105.302 15572 124.788
105.418 15773 125.591
105.535 16563 128.697
105.651 17989 134.123
105.767 19522 139.721
105.883 20920 144.637
105.999 21706 147.33
106.115 0 1
106.231 0 1
106.347 0 1
106.463 0 1
106.579 0 1
106.694 0 1
106.81 0 1
106.926 0 1
107.041 0 1
107.157 0 1
109.576 0 1
109.692 0 1
109.807 0 1
109.923 0 1
110.039 0 1
110.155 0 1
110.27 0 1
110.386 0 1
110.502 0 1
110.618 16137 127.031
110.735 17941 133.944
110.851 19445 139.445
110.967 20642 143.673
111.083 21170 145.499
111.199 21235 145.722
111.316 22001 148.327
111.432 22074 148.573
111.549 22029 148.422
111.665 21340 146.082
111.782 20665 143.753
111.898 20153 141.961
112.015 18927 137.575
112.132 18402 135.654
112.248 17429 132.019
112.365 16265 127.534
112.482 15595 124.88
112.599 15479 124.415
112.716 16036 126.633
112.832 16872 129.892
112.949 17807 133.443
113.066 18270 135.167
113.183 18291 135.244
113.3 17966 134.037
113.417 17442 132.068
113.534 17168 131.027
113.652 16540 128.608
113.769 15785 125.638
113.886 15646 125.084
114.003 15498 124.491
114.12 16524 128.546
114.238 18094 134.514
114.355 19494 139.621
114.472 21467 146.516
114.589 19912 141.11
114.707 21348 146.11
114.824 22133 148.772
114.942 21980 148.257
115.059 22040 148.459
115.176 21933 148.098
115.294 21390 146.253
115.411 20690 143.84
115.529 19996 141.407
115.646 19470 139.535
115.764 18559 136.231
115.881 17379 131.829
115.999 16507 128.48
116.116 16345 127.848
116.234 16729 129.341
116.351 17328 131.636
116.469 18194 134.885
116.586 18919 137.546
116.704 18784 137.055
116.821 18798 137.106
116.939 18414 135.698
117.056 18108 134.566
117.174 17822 133.499
117.291 17092 130.736
117.409 16622 128.926
117.526 16553 128.658
117.644 17187 131.099
117.761 18452 135.838
117.879 20122 141.852
117.996 20724 143.958
118.114 21461 146.496
118.231 22155 148.846
118.349 22194 148.977
118.466 22586 150.286
118.584 22726 150.751
118.701 22875 151.245
118.819 22186 148.95
118.936 21405 146.304
119.053 21026 145.003
119.171 20579 143.454
119.288 19542 139.793
119.405 18977 137.757
119.523 17830 133.529
119.64 16938 130.146
119.757 16671 129.116
119.875 17240 131.301
119.992 17584 132.605
120.109 18241 135.059
120.226 19138 138.34
120.343 18653 136.576
120.46 18705 136.766
120.578 18520 136.088
120.695 18177 134.822
120.812 18202 134.915
120.929 17815 133.473
121.046 17604 132.68
121.163 17071 130.656
121.279 17052 130.583
121.396 18271 135.17
121.513 19779 140.638
121.63 20336 142.604
121.747 21553 146.809
121.863 21844 147.797
121.98 22253 149.174
122.097 22543 150.143
122.213 22539 150.13
122.33 22525 150.083
122.446 22110 148.694
122.563 21980 148.257
122.679 21236 145.726
122.795 20904 144.582
122.912 20189 142.088
123.028 19378 139.205
123.144 18517 136.077
123.26 17320 131.605
123.377 0 1
123.493 0 1
123.609 0 1
123.725 0 1
123.84 0 1
123.956 0 1
124.072 0 1
124.188 0 1
124.303 0 1
124.419 0 1
126.852 0 1
126.968 0 1
127.083 0 1
127.199 0 1
127.315 0 1
127.431 0 1
127.547 0 1
127.663 0 1
127.779 0 1
127.895 0 1
128.011 0 1
128.127 0 1
128.243 0 1
128.359 21003 144.924
128.476 19984 141.365
128.592 19038 137.978
128.708 18841 137.263
128.825 19492 139.614
128.941 20393 142.804
129.058 21087 145.214
129.174 20925 144.655
129.291 21236 145.726
129.408 21429 146.386
129.524 20885 144.516
129.641 20708 143.903
129.758 20036 141.549
129.875 19288 138.881
129.992 19116 138.261
130.108 19171 138.459
130.225 19175 138.474
130.342 20244 142.281
130.459 21452 146.465
130.576 22856 151.182
130.693 23086 151.941
130.81 23673 153.86
130.928 23883 154.541
131.045 24041 155.052
131.162 24383 156.151
131.279 24508 156.55
131.396 24543 156.662
131.513 24269 155.785
131.631 23827 154.36
131.748 23515 153.346
131.865 22682 150.605
131.983 21753 147.489
132.1 20842 144.368
132.217 20598 143.52
132.335 20938 144.7
132.452 21779 147.577
132.57 22640 150.466
132.687 22465 149.883
132.804 24079 155.174
132.922 23448 153.127
133.039 23346 152.794
133.157 22609 150.363
133.274 22027 148.415
133.392 21991 148.294
133.509 21025 145
133.627 20893 144.544
133.744 20957 144.765
133.862 21661 147.177
133.979 22633 150.443
134.097 23517 153.353
134.214 24303 155.894
134.332 24616 156.895
134.449 25023 158.187
134.567 25289 159.025
134.684 25603 160.009
134.802 25891 160.907
134.919 25859 160.807
135.037 25727 160.396
135.154 25255 158.918
135.272 24675 157.083
135.389 24467 156.419
135.507 22979 151.588
135.624 22354 149.513
135.742 21189 145.564
135.859 21876 147.905
135.977 22174 148.909
136.094 23186 152.269
136.211 23810 154.305
136.329 23743 154.088
136.446 23787 154.23
136.564 23639 153.75
136.681 23707 153.971
136.798 22920 151.394
136.915 22266 149.218
137.033 21687 147.265
137.15 21514 146.677
137.267 21164 145.479
137.384 21007 144.938
137.502 22246 149.151
137.619 23002 151.664
137.736 23431 153.072
137.853 23620 153.688
137.97 24918 157.854
138.087 24453 156.375
138.204 25071 158.338
138.321 25846 160.767
138.438 25905 160.95
138.555 25906 160.953
138.672 26019 161.304
138.788 25909 160.963
138.905 25412 159.411
139.022 24612 156.882
139.139 24065 155.129
139.255 22785 150.947
139.372 22679 150.595
139.488 22340 149.466
139.605 23180 152.25
139.721 23788 154.234
139.838 24696 157.15
139.954 24811 157.515
140.071 24509 156.554
140.187 24348 156.038
140.303 24027 155.006
140.419 23576 153.545
140.535 22728 150.758
140.652 22222 149.07
140.768 0 1
140.884 0 1
141 0 1
141.115 0 1
141.231 0 1
141.347 0 1
141.463 0 1
141.578 0 1
141.694 0 1
144.104 0 1
144.219 0 1
144.335 0 1
144.45 0 1
144.566 0 1
144.682 0 1
144.798 0 1
144.914 0 1
145.03 0 1
145.146 54183 232.772
145.262 57241 239.251
145.378 57504 239.8
145.494 56413 237.514
145.61 54965 234.446
145.726 54765 234.019
145.842 53603 231.523
145.959 53018 230.256
146.075 55007 234.536
146.192 57586 239.971
146.308 61034 247.051
146.425 62645 250.29
146.541 64472 253.913
146.658 66473 257.824
146.774 67558 259.919
146.891 68948 262.58
147.008 70046 264.662
147.125 72053 268.427
147.241 72280 268.849
147.358 70707 265.908
147.475 69762 264.125
147.592 67915 260.605
147.709 65843 256.599
147.826 63545 252.081
147.943 60897 246.773
148.06 60070 245.092
148.177 62996 250.99
148.294 66522 257.919
148.411 69306 263.26
148.528 70939 266.344
148.645 70091 264.747
148.762 70477 265.475
148.88 70207 264.966
148.997 67836 260.453
149.114 68378 261.492
149.231 63746 252.48
149.349 62627 250.254
149.466 58385 241.63
149.583 58433 241.729
149.701 57338 239.454
149.818 59519 243.965
149.935 61921 248.839
150.053 63340 251.674
150.17 63831 252.648
150.287 65189 255.321
150.405 66567 258.006
150.522 67849 260.478
150.64 68406 261.545
150.757 69952 264.484
150.875 69375 263.391
150.992 68615 261.945
151.11 67417 259.648
151.227 66237 257.365
151.344 64525 254.018
151.462 60603 246.177
151.579 59644 244.221
151.697 59749 244.436
151.814 61765 248.526
151.932 65294 255.527
152.049 67832 260.446
152.167 68690 262.088
152.284 69748 264.098
152.402 69169 263
152.519 68625 261.964
152.636 66148 257.193
152.754 64220 253.417
152.871 61720 248.435
152.989 60257 245.473
153.106 57642 240.087
153.223 56481 237.657
153.341 56942 238.625
153.458 59061 243.025
153.575 60824 246.625
153.693 61440 247.871
153.81 63065 251.127
153.927 64677 254.317
154.044 65731 256.381
154.162 66570 258.012
154.279 67870 260.519
154.396 68963 262.608
154.513 69150 262.964
154.63 68945 262.574
154.747 68240 261.228
154.864 65922 256.753
154.981 64800 254.558
155.098 62925 250.849
155.215 60261 245.481
155.332 61091 247.166
155.449 62859 250.717
155.566 65923 256.755
155.683 68175 261.103
155.8 67903 260.582
155.917 68666 262.042
156.033 68566 261.851
156.15 0 1
156.267 0 1
156.383 0 1
156.5 0 1
156.617 0 1
156.733 0 1
156.85 0 1
156.966 0 1
157.082 0 1
157.199 0 1
157.315 0 1
157.431 0 1
157.547 0 1
157.664 0 1
157.78 0 1
157.896 0 1
158.012 0 1
158.128 0 1
158.244 0 1
158.359 0 1
158.475 0 1
158.591 0 1
158.706 0 1
