
6.15755 0 1
6.2731 0 1
6.3887 0 1
6.50437 0 1
6.62009 0 1
6.73587 0 1
6.8517 0 1
6.96759 0 1
7.08353 0 1
7.19952 0 1
7.31557 0 1
7.43166 0 1
7.54781 0 1
7.664 0 1
7.78024 0 1
7.89653 0 1
8.01286 0 1
8.12924 0 1
8.24567 0 1
8.36213 0 1
8.47864 0 1
8.59519 0 1
8.71178 0 1
8.82841 0 1
8.94508 0 1
9.06179 0 1
9.17853 0 1
9.29531 0 1
9.41212 0 1
9.52897 0 1
9.64584 0 1
9.76276 0 1
9.8797 0 1
9.99667 0 1
10.1137 0 1
10.2307 0 1
10.3478 0 1
10.4648 0 1
10.5819 0 1
10.6991 0 1
10.8162 0 1
10.9334 0 1
11.0506 0 1
11.1678 0 1
11.285 0 1
11.4023 0 1
11.5196 0 1
11.6369 0 1
11.7542 0 1
11.8715 0 1
11.9888 0 1
12.1062 0 1
12.2235 0 1
12.3409 0 1
12.4582 0 1
12.5756 0 1
12.693 0 1
12.8104 0 1
12.9278 0 1
13.0452 0 1
13.1626 0 1
13.28 0 1
13.3974 0 1
13.5149 0 1
13.6323 0 1
13.7497 0 1
13.8671 0 1
13.9845 0 1
14.1019 0 1
14.2193 0 1
14.3367 0 1
14.4541 0 1
14.5714 0 1
14.6888 0 1
14.8062 0 1
14.9235 0 1
15.0408 8959 94.652
15.1581 9444 97.1802
15.2755 9578 97.8673
15.3927 9578 97.8673
15.51 9512 97.5295
15.6273 9745 98.7168
15.7445 9573 97.8417
15.8617 9571 97.8315
15.9789 9528 97.6115
16.0961 9858 99.2875
16.2132 9629 98.1275
16.3304 10311 101.543
16.4475 10339 101.681
16.5646 10957 104.676
16.6816 11230 105.972
16.7986 11397 106.757
16.9156 11739 108.347
17.0326 12086 109.936
17.1496 12458 111.615
17.2665 12637 112.414
17.3833 12720 112.783
17.5002 12681 112.61
17.617 13114 114.516
17.7338 12981 113.934
17.8505 13256 115.135
17.9672 12964 113.86
18.0839 12340 111.086
18.2005 11943 109.284
18.3171 11807 108.66
18.4337 12181 110.368
18.5502 13005 114.039
18.6666 13121 114.547
18.7831 13454 115.991
18.8994 13162 114.726
19.0158 13097 114.442
19.1321 12984 113.947
19.2483 12591 112.21
19.3645 12283 110.829
19.4806 12356 111.158
19.5967 11876 108.977
19.7128 11842 108.821
19.8288 11610 107.75
19.9447 10402 101.99
20.0606 0 1
20.1764 0 1
20.2922 0 1
20.4079 0 1
20.5236 0 1
20.6392 0 1
20.7548 0 1
20.8702 0 1
23.3078 0 1
23.4233 0 1
23.539 0 1
23.6547 0 1
23.7704 0 1
23.8862 0 1
24.0021 0 1
24.118 0 1
24.234 0 1
24.35 0 1
24.4661 11774 108.508
24.5822 12018 109.627
24.6984 11727 108.291
24.8146 11854 108.876
24.9309 11766 108.471
25.0472 11701 108.171
25.1636 11695 108.143
25.28 11929 109.22
25.3965 12307 110.937
25.513 12708 112.73
25.6296 13330 115.456
25.7462 13487 116.134
25.8628 13907 117.928
25.9795 13870 117.771
26.0962 13774 117.363
26.213 13987 118.267
26.3298 14172 119.046
26.4466 14279 119.495
26.5635 13613 116.675
26.6804 13258 115.143
26.7973 12651 112.477
26.9143 12471 111.674
27.0313 12884 113.508
27.1483 13415 115.823
27.2653 13623 116.718
27.3824 13742 117.226
27.4996 13697 117.034
27.6167 13345 115.521
27.7339 13028 114.14
27.8511 12882 113.499
27.9683 12763 112.973
28.0855 12567 112.103
28.2028 12454 111.597
28.3201 12027 109.668
28.4374 11968 109.398
28.5547 11866 108.931
28.6721 11710 108.213
28.7894 11598 107.694
28.9068 12023 109.649
29.0242 12298 110.896
29.1416 12440 111.535
29.259 12955 113.82
29.3764 13122 114.551
29.4939 13326 115.438
29.6113 13526 116.301
29.7288 13637 116.778
29.8463 13673 116.932
29.9638 13422 115.853
30.0812 13508 116.224
30.1987 12991 113.978
30.3162 12297 110.892
30.4337 11394 106.743
30.5512 11843 108.826
30.6687 12118 110.082
30.7862 13088 114.403
30.9037 12963 113.855
31.0212 13225 115
31.1387 13025 114.127
31.2562 12954 113.816
31.3737 12705 112.716
31.4912 12471 111.674
31.6087 12390 111.31
31.7262 11940 109.27
31.8436 11833 108.78
31.9611 11805 108.651
32.0785 11720 108.259
32.1959 11494 107.21
32.3134 11410 106.818
32.4308 11501 107.243
32.5482 11829 108.761
32.6655 12133 110.15
32.7829 12366 111.203
32.9002 12727 112.814
33.0176 12955 113.82
33.1349 13062 114.289
33.2522 13418 115.836
33.3694 13255 115.13
33.4867 13238 115.057
33.6039 13274 115.213
33.7211 13234 115.039
33.8383 12795 113.115
33.9554 12038 109.718
34.0725 11414 106.836
34.1896 10871 104.264
34.3067 11403 106.785
34.4237 11945 109.293
34.5407 12215 110.521
34.6577 12412 111.409
34.7746 12542 111.991
34.8915 12329 111.036
35.0084 12126 110.118
35.1252 12182 110.372
35.242 12273 110.784
35.3587 11609 107.745
35.4755 11413 106.832
35.5921 11446 106.986
35.7088 11073 105.228
35.8254 11271 106.165
35.9419 11071 105.219
36.0584 10929 104.542
36.1749 10914 104.47
36.2913 10990 104.833
36.4077 11248 106.057
36.524 11632 107.852
36.6403 11906 109.115
36.7565 12318 110.986
36.8727 12443 111.548
36.9889 12570 112.116
37.1049 12285 110.838
37.221 0 1
37.3369 0 1
37.4529 0 1
37.5687 0 1
37.6845 0 1
37.8003 0 1
37.916 0 1
38.0316 0 1
38.1472 0 1
40.5851 0 1
40.7008 0 1
40.8164 0 1
40.9322 0 1
41.048 0 1
41.1639 0 1
41.2798 0 1
41.3958 0 1
41.5118 0 1
41.6279 0 1
41.744 8856 94.1063
41.8602 9663 98.3006
41.9765 10035 100.175
42.0928 10339 101.681
42.2091 10416 102.059
42.3255 10653 103.213
42.4419 10588 102.898
42.5584 10618 103.044
42.675 10097 100.484
42.7915 9531 97.6268
42.9081 8982 94.7734
43.0248 8611 92.7955
43.1415 8791 93.7603
43.2582 9264 96.2497
43.375 9483 97.3807
43.4918 9620 98.0816
43.6087 9744 98.7117
43.7256 9477 97.3499
43.8425 9643 98.1988
43.9595 9553 97.7394
44.0765 9268 96.2705
44.1935 9012 94.9316
44.3106 8825 93.9415
44.4277 8606 92.7685
44.5448 8393 91.6133
44.6619 7985 89.3588
44.7791 7690 87.6926
44.8963 7528 86.764
45.0136 7466 86.406
45.1308 7512 86.6718
45.2481 7565 86.977
45.3654 7621 87.2983
45.4827 7845 88.572
45.6001 8186 90.4765
45.7174 8190 90.4986
45.8348 8152 90.2884
45.9522 8037 89.6493
46.0697 7973 89.2917
46.1871 7857 88.6397
46.3046 7609 87.2296
46.422 7050 83.9643
46.5395 6609 81.2958
46.657 6509 80.6784
46.7745 6719 81.9695
46.892 7111 84.3267
47.0096 7073 84.1011
47.1271 7471 86.4349
47.2446 7505 86.6314
47.3622 7248 85.1352
47.4797 7157 84.5991
47.5973 7184 84.7585
47.7149 6876 82.9216
47.8324 6774 82.3043
47.95 6551 80.9382
48.0675 6480 80.4984
48.1851 6322 79.511
48.3027 6283 79.2654
48.4202 5915 76.909
48.5378 5876 76.6551
48.6554 5947 77.1168
48.7729 6028 77.6402
48.8904 6307 79.4166
49.008 6400 80
49.1255 6767 82.2618
49.243 6990 83.6062
49.3605 7019 83.7795
49.478 7118 84.3682
49.5955 7067 84.0655
49.713 6954 83.3906
49.8304 6609 81.2958
49.9479 6359 79.7433
50.0653 6076 77.9487
50.1827 5849 76.4788
50.3001 6271 79.1896
50.4175 6504 80.6474
50.5348 7057 84.006
50.6521 7301 85.4459
50.7694 7441 86.2612
50.8867 7636 87.3842
51.004 8050 89.7218
51.1212 7844 88.5664
51.2384 7955 89.1908
51.3556 8000 89.4427
51.4727 7969 89.2693
51.5899 7898 88.8707
51.707 7967 89.2581
51.824 7581 87.0689
51.9411 7646 87.4414
52.0581 7610 87.2353
52.175 7889 88.82
52.2919 8093 89.9611
52.4088 8461 91.9837
52.5257 8774 93.6696
52.6425 9178 95.8019
52.7593 9482 97.3756
52.876 9695 98.4632
52.9927 9747 98.7269
53.1094 9954 99.7697
53.226 9890 99.4485
53.3426 9994 99.97
53.4591 9666 98.3158
53.5756 9103 95.4096
53.692 8396 91.6297
53.8084 8277 90.978
53.9248 8619 92.8386
54.0411 9114 95.4673
54.1573 9579 97.8724
54.2735 0 1
54.3896 0 1
54.5057 0 1
54.6217 0 1
54.7377 0 1
54.8537 0 1
54.9695 0 1
55.0853 0 1
55.2011 0 1
55.3168 0 1
55.4324 0 1
57.824 0 1
57.9396 0 1
58.0553 0 1
58.1711 0 1
58.2869 0 1
58.4028 0 1
58.5187 0 1
58.6347 0 1
58.7508 0 1
58.8669 0 1
58.983 9684 98.4073
59.0992 10448 102.215
59.2155 11291 106.259
59.3318 11821 108.724
59.4482 12130 110.136
59.5646 12492 111.768
59.681 12488 111.75
59.7975 12499 111.799
59.9141 12429 111.485
60.0306 12140 110.182
60.1473 11823 108.734
60.2639 11812 108.683
60.3807 11498 107.229
60.4974 11094 105.328
60.6142 10885 104.331
60.731 10558 102.752
60.8479 10427 102.113
60.9648 10385 101.907
61.0818 10675 103.32
61.1987 10843 104.13
61.3158 11412 106.827
61.4328 11884 109.014
61.5499 11813 108.688
61.667 12142 110.191
61.7841 12086 109.936
61.9013 11855 108.881
62.0185 11301 106.306
62.1357 10704 103.46
62.253 10058 100.29
62.3702 9672 98.3463
62.4875 10002 100.01
62.6049 10455 102.25
62.7222 10943 104.609
62.8396 11450 107.005
62.9569 11796 108.609
63.0743 11830 108.766
63.1918 11850 108.858
63.3092 12023 109.649
63.4267 11849 108.853
63.5441 11691 108.125
63.6616 11521 107.336
63.7791 11109 105.399
63.8966 11088 105.3
64.0142 10517 102.552
64.1317 10230 101.143
64.2492 9820 99.0959
64.3668 9773 98.8585
64.4843 9740 98.6914
64.6019 9988 99.94
64.7195 10228 101.134
64.837 10663 103.262
64.9546 11227 105.958
65.0722 11553 107.485
65.1898 11354 106.555
65.3074 11577 107.596
65.4249 11270 106.16
65.5425 11098 105.347
65.6601 10680 103.344
65.7777 9949 99.7447
65.8952 9405 96.9794
66.0128 8979 94.7576
66.1304 9334 96.6126
66.2479 10180 100.896
66.3655 10596 102.937
66.483 11016 104.957
66.6005 11238 106.009
66.718 11700 108.167
66.8355 11717 108.245
66.953 11582 107.62
67.0705 11331 106.447
67.1879 11647 107.921
67.3054 11271 106.165
67.4228 11350 106.536
67.5402 10940 104.594
67.6576 10505 102.494
67.7749 9980 99.8999
67.8923 9608 98.0204
68.0096 9479 97.3602
68.1269 9444 97.1802
68.2442 9690 98.4378
68.3614 10123 100.613
68.4787 10628 103.092
68.5958 11200 105.83
68.713 11718 108.25
68.8302 11700 108.167
68.9473 11823 108.734
69.0643 11764 108.462
69.1814 11562 107.527
69.2984 11196 105.811
69.4154 10523 102.582
69.5323 9795 98.9697
69.6492 9432 97.1185
69.7661 9817 99.0808
69.8829 10332 101.646
69.9997 11100 105.357
70.1165 11557 107.503
70.2332 12201 110.458
70.3499 12175 110.34
70.4665 12452 111.589
70.5831 12429 111.485
70.6996 12405 111.378
70.8161 12379 111.261
70.9326 12162 110.281
71.049 12018 109.627
71.1653 11522 107.341
71.2817 11155 105.617
71.3979 10822 104.029
71.5141 10035 100.175
71.6303 9184 95.8332
71.7464 8397 91.6351
71.8624 0 1
71.9784 0 1
72.0944 0 1
72.2102 0 1
72.3261 0 1
72.4418 0 1
72.5575 0 1
72.6732 0 1
75.1054 0 1
75.2209 0 1
75.3365 0 1
75.4521 0 1
75.5678 0 1
75.6835 0 1
75.7993 0 1
75.9151 0 1
76.031 0 1
76.147 11107 105.39
76.263 11458 107.042
76.3791 11518 107.322
76.4952 11204 105.849
76.6113 10893 104.37
76.7276 10175 100.871
76.8438 9938 99.6895
76.9601 9811 99.0505
77.0765 10079 100.394
77.1929 10640 103.15
77.3093 11347 106.522
77.4258 12087 109.941
77.5423 12611 112.299
77.6589 12323 111.009
77.7755 12556 112.054
77.8921 12397 111.342
78.0088 12032 109.69
78.1256 11247 106.052
78.2423 10405 102.005
78.3591 9613 98.0459
78.4759 9030 95.0263
78.5928 9319 96.535
78.7097 10135 100.673
78.8266 10524 102.587
78.9436 11635 107.866
79.0606 11733 108.319
79.1776 11987 109.485
79.2946 12350 111.131
79.4117 12431 111.494
79.5288 12284 110.833
79.6459 12283 110.829
79.7631 12068 109.854
79.8802 11828 108.757
79.9974 11687 108.106
80.1147 11188 105.773
80.2319 10968 104.728
80.3491 10347 101.72
80.4664 9679 98.3819
80.5837 9597 97.9643
80.701 9948 99.7397
80.8183 10495 102.445
80.9357 11152 105.603
81.053 11892 109.05
81.1704 11981 109.458
81.2877 12254 110.698
81.4051 12244 110.653
81.5225 12347 111.117
81.6399 12042 109.736
81.7573 11719 108.254
81.8747 10588 102.898
81.9922 9709 98.5343
82.1096 9097 95.3782
82.227 9194 95.8853
82.3444 10016 100.08
82.4619 10858 104.202
82.5793 11499 107.233
82.6967 11479 107.14
82.8142 12044 109.745
82.9316 12095 109.977
83.049 12388 111.301
83.1664 12294 110.878
83.2838 12373 111.234
83.4012 12046 109.754
83.5186 11938 109.261
83.636 11711 108.217
83.7534 11518 107.322
83.8708 10915 104.475
83.9881 10381 101.887
84.1055 9570 97.8264
84.2228 9771 98.8484
84.3401 9807 99.0303
84.4575 10777 103.812
84.5747 11029 105.019
84.692 12062 109.827
84.8093 12457 111.611
84.9265 12838 113.305
85.0437 12703 112.708
85.1609 12593 112.219
85.2781 12068 109.854
85.3952 11186 105.764
85.5123 10427 102.113
85.6294 9853 99.2623
85.7465 9553 97.7394
85.8636 9949 99.7447
85.9806 10914 104.47
86.0976 11635 107.866
86.2145 12280 110.815
86.3315 12334 111.059
86.4484 12763 112.973
86.5652 13313 115.382
86.682 13312 115.378
86.7988 13198 114.883
86.9156 13303 115.339
87.0323 13097 114.442
87.149 12747 112.903
87.2657 12803 113.15
87.3823 12069 109.859
87.4988 11537 107.41
87.6154 10753 103.697
87.7318 10326 101.617
87.8483 10683 103.359
87.9647 11302 106.311
88.081 11892 109.05
88.1973 12835 113.292
88.3136 13117 114.529
88.4298 13533 116.331
88.546 13403 115.771
88.6621 13190 114.848
88.7781 13087 114.398
88.8942 0 1
89.0101 0 1
89.126 0 1
89.2419 0 1
89.3577 0 1
89.4734 0 1
89.5891 0 1
89.7047 0 1
89.8203 0 1
89.9358 0 1
92.3269 0 1
92.4424 0 1
92.558 0 1
92.6736 0 1
92.7893 0 1
92.905 0 1
93.0208 0 1
93.1366 0 1
93.2525 0 1
93.3685 0 1
93.4845 0 1
93.6005 12793 113.106
93.7167 12693 112.663
93.8328 12756 112.942
93.949 12684 112.623
94.0653 11910 109.133
94.1816 11454 107.023
94.2979 10637 103.136
94.4143 10228 101.134
94.5307 10243 101.208
94.6472 10054 100.27
94.7637 10821 104.024
94.8803 11602 107.713
94.9969 12195 110.431
95.1135 12587 112.192
95.2302 12664 112.534
95.3469 12982 113.939
95.4637 13141 114.634
95.5805 13295 115.304
95.6973 13345 115.521
95.8142 13581 116.538
95.9311 13468 116.052
96.048 13108 114.49
96.1649 12867 113.433
96.2819 12549 112.022
96.3989 11976 109.435
96.516 11448 106.995
96.633 10498 102.46
96.7501 10519 102.562
96.8673 10601 102.961
96.9844 11525 107.355
97.1016 12149 110.223
97.2188 12876 113.472
97.336 13370 115.629
97.4532 13223 114.991
97.5704 13286 115.265
97.6877 12797 113.124
97.805 12094 109.973
97.9223 11360 106.583
98.0396 10766 103.759
98.1569 10221 101.099
98.2743 10110 100.548
98.3916 10328 101.627
98.509 11134 105.518
98.6264 11653 107.949
98.7438 12316 110.977
98.8612 12647 112.459
98.9786 12897 113.565
99.096 13163 114.73
99.2134 12959 113.838
99.3308 13150 114.673
99.4482 13367 115.616
99.5656 13012 114.07
99.6831 12733 112.841
99.8005 12388 111.301
99.9179 12273 110.784
100.035 11656 107.963
100.153 10869 104.254
100.27 10076 100.379
100.388 10339 101.681
100.505 10586 102.888
100.622 11529 107.373
100.74 12460 111.624
100.857 13274 115.213
100.975 13097 114.442
101.092 13062 114.289
101.209 13152 114.682
101.327 12715 112.761
101.444 12227 110.576
101.561 11300 106.301
101.679 10596 102.937
101.796 10393 101.946
101.913 10114 100.568
102.03 10621 103.058
102.148 11682 108.083
102.265 11312 106.358
102.382 13644 116.808
102.499 13195 114.869
102.616 13447 115.961
102.733 13552 116.413
102.851 13523 116.288
102.968 13897 117.886
103.085 13798 117.465
103.202 13516 116.258
103.319 13305 115.347
103.436 12999 114.013
103.552 12606 112.276
103.669 11706 108.194
103.786 11140 105.546
103.903 10956 104.671
104.02 11586 107.638
104.137 12472 111.678
104.253 13353 115.555
104.37 13950 118.11
104.487 14124 118.844
104.603 14107 118.773
104.72 13756 117.286
104.836 13614 116.679
104.953 12903 113.591
105.069 11791 108.586
105.186 11279 106.203
105.302 10962 104.7
105.418 11299 106.297
105.535 11817 108.706
105.651 12521 111.897
105.767 13180 114.804
105.883 13305 115.347
105.999 13743 117.231
106.115 0 1
106.231 0 1
106.347 0 1
106.463 0 1
106.579 0 1
106.694 0 1
106.81 0 1
106.926 0 1
107.041 0 1
107.157 0 1
109.576 0 1
109.692 0 1
109.807 0 1
109.923 0 1
110.039 0 1
110.155 0 1
110.27 0 1
110.386 0 1
110.502 0 1
110.618 10648 103.189
110.735 11419 106.86
110.851 11444 106.977
110.967 12105 110.023
111.083 12251 110.684
111.199 12285 110.838
111.316 12538 111.973
111.432 12444 111.553
111.549 12416 111.427
111.665 12240 110.635
111.782 11829 108.761
111.898 11459 107.047
112.015 10782 103.836
112.132 9998 99.99
112.248 9481 97.3704
112.365 9434 97.1288
112.482 10249 101.237
112.599 10611 103.01
112.716 11261 106.118
112.832 11530 107.378
112.949 11332 106.452
113.066 11426 106.892
113.183 11177 105.721
113.3 10554 102.733
113.417 10044 100.22
113.534 9353 96.7109
113.652 8848 94.0638
113.769 8521 92.3093
113.886 8439 91.864
114.003 8669 93.1075
114.12 9250 96.1769
114.238 9788 98.9343
114.355 9873 99.363
114.472 10065 100.324
114.589 9853 99.2623
114.707 10234 101.163
114.824 9957 99.7848
114.942 10147 100.732
115.059 10061 100.305
115.176 9800 98.9949
115.294 9593 97.9439
115.411 9090 95.3415
115.529 8837 94.0053
115.646 8252 90.8405
115.764 7414 86.1046
115.881 7302 85.4517
115.999 7584 87.0862
116.116 8058 89.7664
116.234 8639 92.9462
116.351 8703 93.2899
116.469 8670 93.1128
116.586 8549 92.4608
116.704 8515 92.2768
116.821 8392 91.6079
116.939 7913 88.955
117.056 7301 85.4459
117.174 7167 84.6581
117.291 6749 82.1523
117.409 6582 81.1295
117.526 6600 81.2404
117.644 7001 83.672
117.761 7406 86.0581
117.879 7711 87.8123
117.996 7833 88.5042
118.114 7890 88.8257
118.231 8228 90.7083
118.349 8209 90.6035
118.466 8275 90.967
118.584 8243 90.791
118.701 8359 91.4276
118.819 8340 91.3236
118.936 8179 90.4378
119.053 7976 89.3085
119.171 7725 87.892
119.288 7321 85.5628
119.405 7019 83.7795
119.523 6857 82.807
119.64 7337 85.6563
119.757 7736 87.9545
119.875 8219 90.6587
119.992 8574 92.5959
120.109 8501 92.2009
120.226 8684 93.188
120.343 8838 94.0106
120.46 8564 92.5419
120.578 8378 91.5314
120.695 7971 89.2805
120.812 7705 87.7781
120.929 7435 86.2264
121.046 7195 84.8233
121.163 7192 84.8057
121.279 7601 87.1837
121.396 8020 89.5545
121.513 8458 91.9674
121.63 8805 93.835
121.747 8949 94.5992
121.863 9010 94.921
121.98 9393 96.9175
122.097 9487 97.4012
122.213 9934 99.6695
122.33 9824 99.1161
122.446 9717 98.5748
122.563 9726 98.6205
122.679 9598 97.9694
122.795 9446 97.1905
122.912 9272 96.2912
123.028 8761 93.6002
123.144 8343 91.34
123.26 8252 90.8405
123.377 0 1
123.493 0 1
123.609 0 1
123.725 0 1
123.84 0 1
123.956 0 1
124.072 0 1
124.188 0 1
124.303 0 1
124.419 0 1
126.852 0 1
126.968 0 1
127.083 0 1
127.199 0 1
127.315 0 1
127.431 0 1
127.547 0 1
127.663 0 1
127.779 0 1
127.895 0 1
128.011 0 1
128.127 0 1
128.243 0 1
128.359 10057 100.285
128.476 9667 98.3209
128.592 9959 99.7948
128.708 10560 102.762
128.825 11261 106.118
128.941 12003 109.558
129.058 11653 107.949
129.174 11652 107.944
129.291 11668 108.019
129.408 11508 107.275
129.524 10819 104.014
129.641 10525 102.591
129.758 10077 100.384
129.875 9664 98.3056
129.992 9208 95.9583
130.108 9059 95.1788
130.225 9138 95.5929
130.342 9692 98.448
130.459 10044 100.22
130.576 9869 99.3428
130.693 10472 102.333
130.81 10291 101.445
130.928 10505 102.494
131.045 10542 102.674
131.162 10545 102.689
131.279 10690 103.392
131.396 10620 103.053
131.513 10325 101.612
131.631 10274 101.361
131.748 9580 97.8775
131.865 9275 96.3068
131.983 8641 92.957
132.1 8740 93.488
132.217 9342 96.654
132.335 9879 99.3932
132.452 10272 101.351
132.57 10238 101.183
132.687 9896 99.4786
132.804 10325 101.612
132.922 10147 100.732
133.039 9374 96.8194
133.157 9292 96.395
133.274 8780 93.7017
133.392 8246 90.8075
133.509 7770 88.1476
133.627 7764 88.1136
133.744 7884 88.7919
133.862 8179 90.4378
133.979 8415 91.7333
134.097 8398 91.6406
134.214 8568 92.5635
134.332 8409 91.7006
134.449 8579 92.6229
134.567 8490 92.1412
134.684 8643 92.9677
134.802 8555 92.4932
134.919 8610 92.7901
135.037 8349 91.3729
135.154 8105 90.0278
135.272 7804 88.3403
135.389 7558 86.9368
135.507 7013 83.7437
135.624 6832 82.6559
135.742 7032 83.857
135.859 7359 85.7846
135.977 7735 87.9488
136.094 7564 86.9713
136.211 7639 87.4014
136.329 7620 87.2926
136.446 7465 86.4002
136.564 7274 85.2877
136.681 6979 83.5404
136.798 6797 82.4439
136.915 6418 80.1124
137.033 6161 78.492
137.15 5978 77.3175
137.267 5963 77.2205
137.384 6129 78.2879
137.502 6367 79.7935
137.619 6468 80.4239
137.736 6678 81.719
137.853 6701 81.8596
137.97 6801 82.4682
138.087 7141 84.5044
138.204 7099 84.2556
138.321 7217 84.9529
138.438 7330 85.6154
138.555 7533 86.7929
138.672 7515 86.6891
138.788 7603 87.1952
138.905 7301 85.4459
139.022 7192 84.8057
139.139 6901 83.0723
139.255 7131 84.4452
139.372 7450 86.3134
139.488 8022 89.5656
139.605 8206 90.587
139.721 8424 91.7824
139.838 8658 93.0484
139.954 8767 93.6323
140.071 8508 92.2388
140.187 8531 92.3634
140.303 8429 91.8096
140.419 8000 89.4427
140.535 7827 88.4703
140.652 7715 87.8351
140.768 0 1
140.884 0 1
141 0 1
141.115 0 1
141.231 0 1
141.347 0 1
141.463 0 1
141.578 0 1
141.694 0 1
144.104 0 1
144.219 0 1
144.335 0 1
144.45 0 1
144.566 0 1
144.682 0 1
144.798 0 1
144.914 0 1
145.03 0 1
145.146 7407 86.0639
145.262 7432 86.209
145.378 7039 83.8987
145.494 6839 82.6982
145.61 6602 81.2527
145.726 6140 78.3582
145.842 6048 77.7689
145.959 6021 77.5951
146.075 6064 77.8717
146.192 6174 78.5748
146.308 6072 77.923
146.425 6318 79.4858
146.541 6305 79.404
146.658 6319 79.4921
146.774 6370 79.8123
146.891 6373 79.8311
147.008 6344 79.6492
147.125 6227 78.9113
147.241 6189 78.6702
147.358 6352 79.6994
147.475 6079 77.9679
147.592 5754 75.8551
147.709 5664 75.2596
147.826 5392 73.4302
147.943 5232 72.3326
148.06 5607 74.8799
148.177 5918 76.9285
148.294 5890 76.7463
148.411 5962 77.214
148.528 5830 76.3544
148.645 5833 76.3741
148.762 5883 76.7007
148.88 5468 73.9459
148.997 5612 74.9133
149.114 4921 70.1498
149.231 4959 70.4202
149.349 4887 69.9071
149.466 4836 69.5414
149.583 4716 68.6731
149.701 4633 68.0661
149.818 4755 68.9565
149.935 4847 69.6204
150.053 4975 70.5337
150.17 5046 71.0352
150.287 5005 70.746
150.405 5165 71.8679
150.522 5356 73.1847
150.64 5383 73.3689
150.757 5263 72.5465
150.875 5449 73.8173
150.992 5321 72.9452
151.11 5382 73.3621
151.227 5187 72.0208
151.344 5141 71.7008
151.462 4944 70.3136
151.579 5009 70.7743
151.697 5430 73.6885
151.814 5534 74.3909
151.932 5785 76.0592
152.049 5712 75.5778
152.167 5861 76.5572
152.284 5895 76.7789
152.402 5821 76.2955
152.519 5793 76.1118
152.636 5408 73.5391
152.754 5346 73.1163
152.871 5302 72.8148
152.989 5190 72.0417
153.106 5224 72.2772
153.223 5166 71.8749
153.341 5234 72.3464
153.458 5427 73.6682
153.575 5467 73.9392
153.693 5521 74.3034
153.81 5691 75.4387
153.927 5893 76.7659
154.044 5940 77.0714
154.162 5814 76.2496
154.279 6129 78.2879
154.396 6350 79.6869
154.513 6404 80.025
154.63 6596 81.2158
154.747 6510 80.6846
154.864 6382 79.8874
154.981 5961 77.2075
155.098 6136 78.3326
155.215 6299 79.3662
155.332 6645 81.5169
155.449 6812 82.5348
155.566 6922 83.1986
155.683 6949 83.3607
155.8 7111 84.3267
155.917 7093 84.22
156.033 7141 84.5044
156.15 0 1
156.267 0 1
156.383 0 1
156.5 0 1
156.617 0 1
156.733 0 1
156.85 0 1
156.966 0 1
157.082 0 1
157.199 0 1
157.315 0 1
157.431 0 1
157.547 0 1
157.664 0 1
157.78 0 1
157.896 0 1
158.012 0 1
158.128 0 1
158.244 0 1
158.359 0 1
158.475 0 1
158.591 0 1
158.706 0 1
