
6.15755 0 1
6.2731 0 1
6.3887 0 1
6.50437 0 1
6.62009 0 1
6.73587 0 1
6.8517 0 1
6.96759 0 1
7.08353 0 1
7.19952 0 1
7.31557 0 1
7.43166 0 1
7.54781 0 1
7.664 0 1
7.78024 0 1
7.89653 0 1
8.01286 0 1
8.12924 0 1
8.24567 0 1
8.36213 0 1
8.47864 0 1
8.59519 0 1
8.71178 0 1
8.82841 0 1
8.94508 0 1
9.06179 0 1
9.17853 0 1
9.29531 0 1
9.41212 0 1
9.52897 0 1
9.64584 0 1
9.76276 0 1
9.8797 0 1
9.99667 0 1
10.1137 0 1
10.2307 0 1
10.3478 0 1
10.4648 0 1
10.5819 0 1
10.6991 0 1
10.8162 0 1
10.9334 0 1
11.0506 0 1
11.1678 0 1
11.285 0 1
11.4023 0 1
11.5196 0 1
11.6369 0 1
11.7542 0 1
11.8715 0 1
11.9888 0 1
12.1062 0 1
12.2235 0 1
12.3409 0 1
12.4582 0 1
12.5756 0 1
12.693 0 1
12.8104 0 1
12.9278 0 1
13.0452 0 1
13.1626 0 1
13.28 0 1
13.3974 0 1
13.5149 0 1
13.6323 0 1
13.7497 0 1
13.8671 0 1
13.9845 0 1
14.1019 0 1
14.2193 0 1
14.3367 0 1
14.4541 0 1
14.5714 0 1
14.6888 0 1
14.8062 0 1
14.9235 0 1
15.0408 1699 41.2189
15.1581 1817 42.6263
15.2755 1913 43.7379
15.3927 1956 44.2267
15.51 1888 43.4511
15.6273 1924 43.8634
15.7445 1961 44.2832
15.8617 1876 43.3128
15.9789 1885 43.4166
16.0961 1849 43
16.2132 1890 43.4741
16.3304 1914 43.7493
16.4475 1981 44.5084
16.5646 2040 45.1664
16.6816 2102 45.8476
16.7986 2203 46.9361
16.9156 2288 47.833
17.0326 2278 47.7284
17.1496 2273 47.676
17.2665 2275 47.697
17.3833 2195 46.8508
17.5002 2206 46.9681
17.617 2065 45.4423
17.7338 2077 45.5741
17.8505 2018 44.9222
17.9672 1885 43.4166
18.0839 2001 44.7325
18.2005 2125 46.0977
18.3171 2006 44.7884
18.4337 2023 44.9778
18.5502 2137 46.2277
18.6666 2167 46.551
18.7831 2226 47.1805
18.8994 2161 46.4866
19.0158 2170 46.5833
19.1321 2108 45.913
19.2483 2100 45.8258
19.3645 1882 43.382
19.4806 1807 42.5088
19.5967 1715 41.4126
19.7128 1605 40.0625
19.8288 1468 38.3145
19.9447 1329 36.4555
20.0606 0 1
20.1764 0 1
20.2922 0 1
20.4079 0 1
20.5236 0 1
20.6392 0 1
20.7548 0 1
20.8702 0 1
23.3078 0 1
23.4233 0 1
23.539 0 1
23.6547 0 1
23.7704 0 1
23.8862 0 1
24.0021 0 1
24.118 0 1
24.234 0 1
24.35 0 1
24.4661 942 30.692
24.5822 1079 32.8481
24.6984 1259 35.4824
24.8146 1360 36.8782
24.9309 1459 38.1969
25.0472 1661 40.7554
25.1636 1811 42.5558
25.28 1928 43.909
25.3965 2005 44.7772
25.513 2189 46.7868
25.6296 2261 47.55
25.7462 2298 47.9375
25.8628 2436 49.3559
25.9795 2360 48.5798
26.0962 2405 49.0408
26.213 2372 48.7032
26.3298 2183 46.7226
26.4466 2144 46.3033
26.5635 2069 45.4863
26.6804 2010 44.833
26.7973 2140 46.2601
26.9143 2090 45.7165
27.0313 2155 46.422
27.1483 2268 47.6235
27.2653 2356 48.5386
27.3824 2187 46.7654
27.4996 2203 46.9361
27.6167 2229 47.2123
27.7339 2176 46.6476
27.8511 2139 46.2493
27.9683 2137 46.2277
28.0855 2040 45.1664
28.2028 1954 44.2041
28.3201 2032 45.0777
28.4374 1935 43.9886
28.5547 1899 43.5775
28.6721 1985 44.5533
28.7894 2087 45.6837
28.9068 2220 47.1169
29.0242 2240 47.3286
29.1416 2281 47.7598
29.259 2332 48.2908
29.3764 2321 48.1768
29.4939 2307 48.0312
29.6113 2225 47.1699
29.7288 2120 46.0435
29.8463 2101 45.8367
29.9638 1997 44.6878
30.0812 1922 43.8406
30.1987 1912 43.7264
30.3162 2010 44.833
30.4337 2004 44.7661
30.5512 2109 45.9239
30.6687 2144 46.3033
30.7862 2062 45.4093
30.9037 2189 46.7868
31.0212 2187 46.7654
31.1387 2190 46.7974
31.2562 2170 46.5833
31.3737 2033 45.0888
31.4912 2082 45.6289
31.6087 1968 44.3621
31.7262 1959 44.2606
31.8436 1936 44
31.9611 1848 42.9884
32.0785 1766 42.0238
32.1959 1926 43.8862
32.3134 1968 44.3621
32.4308 2132 46.1736
32.5482 2217 47.085
32.6655 2213 47.0425
32.7829 2254 47.4763
32.9002 2248 47.4131
33.0176 2328 48.2494
33.1349 2204 46.9468
33.2522 2170 46.5833
33.3694 2046 45.2327
33.4867 1973 44.4185
33.6039 1872 43.2666
33.7211 1891 43.4856
33.8383 1717 41.4367
33.9554 1799 42.4146
34.0725 1927 43.8976
34.1896 1995 44.6654
34.3067 1994 44.6542
34.4237 2038 45.1442
34.5407 2052 45.299
34.6577 2097 45.793
34.7746 2096 45.7821
34.8915 2102 45.8476
35.0084 2003 44.7549
35.1252 1944 44.0908
35.242 2015 44.8888
35.3587 1925 43.8748
35.4755 1772 42.0951
35.5921 1807 42.5088
35.7088 1734 41.6413
35.8254 1728 41.5692
35.9419 1883 43.3935
36.0584 1920 43.8178
36.1749 1919 43.8064
36.2913 1858 43.1045
36.4077 1974 44.4297
36.524 1939 44.0341
36.6403 1881 43.3705
36.7565 1849 43
36.8727 1666 40.8167
36.9889 1667 40.8289
37.1049 1498 38.704
37.221 0 1
37.3369 0 1
37.4529 0 1
37.5687 0 1
37.6845 0 1
37.8003 0 1
37.916 0 1
38.0316 0 1
38.1472 0 1
40.5851 0 1
40.7008 0 1
40.8164 0 1
40.9322 0 1
41.048 0 1
41.1639 0 1
41.2798 0 1
41.3958 0 1
41.5118 0 1
41.6279 0 1
41.744 1023 31.9844
41.8602 1153 33.9559
41.9765 1297 36.0139
42.0928 1227 35.0286
42.2091 1226 35.0143
42.3255 1221 34.9428
42.4419 1249 35.3412
42.5584 1220 34.9285
42.675 1320 36.3318
42.7915 1500 38.7298
42.9081 1513 38.8973
43.0248 1635 40.4351
43.1415 1618 40.2244
43.2582 1621 40.2616
43.375 1774 42.1189
43.4918 1702 41.2553
43.6087 1758 41.9285
43.7256 1637 40.4599
43.8425 1676 40.939
43.9595 1710 41.3521
44.0765 1664 40.7922
44.1935 1555 39.4335
44.3106 1537 39.2046
44.4277 1449 38.0657
44.5448 1399 37.4032
44.6619 1416 37.6298
44.7791 1467 38.3014
44.8963 1608 40.0999
45.0136 1738 41.6893
45.1308 1714 41.4005
45.2481 1780 42.19
45.3654 1727 41.5572
45.4827 1784 42.2374
45.6001 1799 42.4146
45.7174 1675 40.9268
45.8348 1613 40.1622
45.9522 1488 38.5746
46.0697 1477 38.4318
46.1871 1354 36.7967
46.3046 1510 38.8587
46.422 1596 39.95
46.5395 1625 40.3113
46.657 1657 40.7063
46.7745 1713 41.3884
46.892 1718 41.4488
47.0096 1730 41.5933
47.1271 1790 42.3084
47.2446 1754 41.8808
47.3622 1743 41.7493
47.4797 1693 41.1461
47.5973 1719 41.4608
47.7149 1683 41.0244
47.8324 1527 39.0768
47.95 1565 39.5601
48.0675 1464 38.2623
48.1851 1504 38.7814
48.3027 1543 39.281
48.4202 1611 40.1373
48.5378 1693 41.1461
48.6554 1805 42.4853
48.7729 1740 41.7133
48.8904 1800 42.4264
49.008 1804 42.4735
49.1255 1772 42.0951
49.243 1676 40.939
49.3605 1605 40.0625
49.478 1505 38.7943
49.5955 1359 36.8646
49.713 1336 36.5513
49.8304 1391 37.2961
49.9479 1456 38.1576
50.0653 1580 39.7492
50.1827 1532 39.1408
50.3001 1726 41.5452
50.4175 1761 41.9643
50.5348 1756 41.9047
50.6521 1804 42.4735
50.7694 1738 41.6893
50.8867 1812 42.5676
51.004 1727 41.5572
51.1212 1745 41.7732
51.2384 1621 40.2616
51.3556 1666 40.8167
51.4727 1581 39.7618
51.5899 1599 39.9875
51.707 1554 39.4208
51.824 1714 41.4005
51.9411 1763 41.9881
52.0581 1843 42.9302
52.175 2012 44.8553
52.2919 2090 45.7165
52.4088 2074 45.5412
52.5257 2214 47.0532
52.6425 2145 46.3141
52.7593 2161 46.4866
52.876 2121 46.0543
52.9927 2043 45.1996
53.1094 1900 43.589
53.226 1781 42.2019
53.3426 1798 42.4028
53.4591 1674 40.9145
53.5756 1879 43.3474
53.692 1902 43.6119
53.8084 1851 43.0232
53.9248 1826 42.7317
54.0411 1679 40.9756
54.1573 1678 40.9634
54.2735 0 1
54.3896 0 1
54.5057 0 1
54.6217 0 1
54.7377 0 1
54.8537 0 1
54.9695 0 1
55.0853 0 1
55.2011 0 1
55.3168 0 1
55.4324 0 1
57.824 0 1
57.9396 0 1
58.0553 0 1
58.1711 0 1
58.2869 0 1
58.4028 0 1
58.5187 0 1
58.6347 0 1
58.7508 0 1
58.8669 0 1
58.983 1490 38.6005
59.0992 1646 40.5709
59.2155 1826 42.7317
59.3318 1957 44.238
59.4482 2033 45.0888
59.5646 2094 45.7602
59.681 2069 45.4863
59.7975 2103 45.8585
59.9141 2071 45.5082
60.0306 2097 45.793
60.1473 1972 44.4072
60.2639 1904 43.6348
60.3807 1911 43.715
60.4974 1942 44.0681
60.6142 2045 45.2217
60.731 2066 45.4533
60.8479 2167 46.551
60.9648 2340 48.3735
61.0818 2268 47.6235
61.1987 2207 46.9787
61.3158 2253 47.4658
61.4328 2178 46.669
61.5499 2101 45.8367
61.667 1865 43.1856
61.7841 1767 42.0357
61.9013 1710 41.3521
62.0185 1658 40.7185
62.1357 1892 43.4971
62.253 1877 43.3244
62.3702 1958 44.2493
62.4875 2012 44.8553
62.6049 2197 46.8722
62.7222 2264 47.5815
62.8396 2182 46.7119
62.9569 2216 47.0744
63.0743 2088 45.6946
63.1918 2124 46.0869
63.3092 2143 46.2925
63.4267 2073 45.5302
63.5441 2051 45.288
63.6616 1903 43.6234
63.7791 1814 42.5911
63.8966 1775 42.1307
64.0142 1759 41.9404
64.1317 1874 43.2897
64.2492 1923 43.852
64.3668 2127 46.1194
64.4843 2246 47.392
64.6019 2147 46.3357
64.7195 2224 47.1593
64.837 2150 46.3681
64.9546 2202 46.9255
65.0722 2113 45.9674
65.1898 1868 43.2204
65.3074 1750 41.833
65.4249 1666 40.8167
65.5425 1572 39.6485
65.6601 1715 41.4126
65.7777 1748 41.8091
65.8952 1836 42.8486
66.0128 1943 44.0795
66.1304 1971 44.3959
66.2479 2049 45.2659
66.3655 2072 45.5192
66.483 2187 46.7654
66.6005 2115 45.9891
66.718 2038 45.1442
66.8355 2129 46.1411
66.953 1982 44.5197
67.0705 2052 45.299
67.1879 1942 44.0681
67.3054 1926 43.8862
67.4228 1749 41.821
67.5402 1663 40.7799
67.6576 1747 41.7971
67.7749 1779 42.1782
67.8923 1889 43.4626
68.0096 1975 44.441
68.1269 2011 44.8442
68.2442 2022 44.9667
68.3614 2110 45.9347
68.4787 2131 46.1628
68.5958 1919 43.8064
68.713 1986 44.5646
68.8302 1861 43.1393
68.9473 1719 41.4608
69.0643 1738 41.6893
69.1814 1529 39.1024
69.2984 1575 39.6863
69.4154 1652 40.6448
69.5323 1789 42.2966
69.6492 1902 43.6119
69.7661 1881 43.3705
69.8829 1971 44.3959
69.9997 2052 45.299
70.1165 1879 43.3474
70.2332 1918 43.795
70.3499 1729 41.5812
70.4665 1682 41.0122
70.5831 1647 40.5832
70.6996 1575 39.6863
70.8161 1449 38.0657
70.9326 1271 35.6511
71.049 1174 34.2637
71.1653 933 30.545
71.2817 878 29.6311
71.3979 839 28.9655
71.5141 847 29.1033
71.6303 759 27.55
71.7464 706 26.5707
71.8624 0 1
71.9784 0 1
72.0944 0 1
72.2102 0 1
72.3261 0 1
72.4418 0 1
72.5575 0 1
72.6732 0 1
75.1054 0 1
75.2209 0 1
75.3365 0 1
75.4521 0 1
75.5678 0 1
75.6835 0 1
75.7993 0 1
75.9151 0 1
76.031 0 1
76.147 1254 35.4119
76.263 1243 35.2562
76.3791 1256 35.4401
76.4952 1331 36.4829
76.6113 1313 36.2353
76.7276 1473 38.3797
76.8438 1547 39.3319
76.9601 1681 41
77.0765 1745 41.7732
77.1929 1817 42.6263
77.3093 1787 42.2729
77.4258 1859 43.1161
77.5423 1770 42.0714
77.6589 1687 41.0731
77.7755 1598 39.975
77.8921 1427 37.7757
78.0088 1355 36.8103
78.1256 1275 35.7071
78.2423 1257 35.4542
78.3591 1276 35.7211
78.4759 1404 37.47
78.5928 1536 39.1918
78.7097 1543 39.281
78.8266 1666 40.8167
78.9436 1813 42.5793
79.0606 1733 41.6293
79.1776 1727 41.5572
79.2946 1790 42.3084
79.4117 1821 42.6732
79.5288 1862 43.1509
79.6459 1832 42.8019
79.7631 1769 42.0595
79.8802 1662 40.7676
79.9974 1579 39.7366
80.1147 1500 38.7298
80.2319 1436 37.8946
80.3491 1469 38.3275
80.4664 1590 39.8748
80.5837 1711 41.3642
80.701 1834 42.8252
80.8183 1845 42.9535
80.9357 1917 43.7836
81.053 1826 42.7317
81.1704 1944 44.0908
81.2877 1824 42.7083
81.4051 1790 42.3084
81.5225 1624 40.2989
81.6399 1525 39.0512
81.7573 1361 36.8917
81.8747 1359 36.8646
81.9922 1291 35.9305
82.1096 1481 38.4838
82.227 1517 38.9487
82.3444 1597 39.9625
82.4619 1734 41.6413
82.5793 1792 42.332
82.6967 1803 42.4617
82.8142 1897 43.5546
82.9316 1930 43.9318
83.049 1873 43.2782
83.1664 1946 44.1135
83.2838 1879 43.3474
83.4012 1793 42.3438
83.5186 1712 41.3763
83.636 1606 40.0749
83.7534 1614 40.1746
83.8708 1455 38.1445
83.9881 1522 39.0128
84.1055 1481 38.4838
84.2228 1635 40.4351
84.3401 1764 42
84.4575 1859 43.1161
84.5747 1843 42.9302
84.692 1901 43.6005
84.8093 1873 43.2782
84.9265 1900 43.589
85.0437 1772 42.0951
85.1609 1606 40.0749
85.2781 1476 38.4187
85.3952 1337 36.565
85.5123 1335 36.5377
85.6294 1357 36.8375
85.7465 1511 38.8716
85.8636 1673 40.9023
85.9806 1662 40.7676
86.0976 1725 41.5331
86.2145 1742 41.7373
86.3315 1780 42.19
86.4484 1901 43.6005
86.5652 1873 43.2782
86.682 1885 43.4166
86.7988 1896 43.5431
86.9156 1887 43.4396
87.0323 1797 42.391
87.149 1826 42.7317
87.2657 1640 40.4969
87.3823 1464 38.2623
87.4988 1338 36.5787
87.6154 1235 35.1426
87.7318 1329 36.4555
87.8483 1362 36.9053
87.9647 1465 38.2753
88.081 1456 38.1576
88.1973 1548 39.3446
88.3136 1470 38.3406
88.4298 1401 37.4299
88.546 1346 36.6879
88.6621 1120 33.4664
88.7781 905 30.0832
88.8942 0 1
89.0101 0 1
89.126 0 1
89.2419 0 1
89.3577 0 1
89.4734 0 1
89.5891 0 1
89.7047 0 1
89.8203 0 1
89.9358 0 1
92.3269 0 1
92.4424 0 1
92.558 0 1
92.6736 0 1
92.7893 0 1
92.905 0 1
93.0208 0 1
93.1366 0 1
93.2525 0 1
93.3685 0 1
93.4845 0 1
93.6005 1458 38.1838
93.7167 1564 39.5474
93.8328 1576 39.6989
93.949 1680 40.9878
94.0653 1649 40.6079
94.1816 1607 40.0874
94.2979 1592 39.8999
94.4143 1475 38.4057
94.5307 1434 37.8682
94.6472 1379 37.1349
94.7637 1445 38.0132
94.8803 1540 39.2428
94.9969 1658 40.7185
95.1135 1591 39.8873
95.2302 1709 41.3401
95.3469 1883 43.3935
95.4637 1839 42.8836
95.5805 1959 44.2606
95.6973 1951 44.1701
95.8142 1919 43.8064
95.9311 1943 44.0795
96.048 1942 44.0681
96.1649 1851 43.0232
96.2819 1942 44.0681
96.3989 1846 42.9651
96.516 1676 40.939
96.633 1549 39.3573
96.7501 1565 39.5601
96.8673 1625 40.3113
96.9844 1622 40.2741
97.1016 1777 42.1545
97.2188 1851 43.0232
97.336 1962 44.2945
97.4532 1985 44.5533
97.5704 1942 44.0681
97.6877 1950 44.1588
97.805 1831 42.7902
97.9223 1740 41.7133
98.0396 1661 40.7554
98.1569 1563 39.5348
98.2743 1368 36.9865
98.3916 1375 37.081
98.509 1407 37.51
98.6264 1671 40.8779
98.7438 1715 41.4126
98.8612 1850 43.0116
98.9786 1934 43.9773
99.096 1873 43.2782
99.2134 1977 44.4635
99.3308 2020 44.9444
99.4482 1973 44.4185
99.5656 2004 44.7661
99.6831 1993 44.643
99.8005 1990 44.6094
99.9179 1937 44.0114
100.035 1810 42.5441
100.153 1809 42.5323
100.27 1711 41.3642
100.388 1629 40.3609
100.505 1762 41.9762
100.622 1827 42.7434
100.74 1993 44.643
100.857 2046 45.2327
100.975 2009 44.8219
101.092 2137 46.2277
101.209 2125 46.0977
101.327 2006 44.7884
101.444 1956 44.2267
101.561 1798 42.4028
101.679 1635 40.4351
101.796 1572 39.6485
101.913 1435 37.8814
102.03 1511 38.8716
102.148 1639 40.4846
102.265 1786 42.2611
102.382 1841 42.9069
102.499 1974 44.4297
102.616 2018 44.9222
102.733 2035 45.111
102.851 2093 45.7493
102.968 2106 45.8912
103.085 2137 46.2277
103.202 2131 46.1628
103.319 2061 45.3982
103.436 2049 45.2659
103.552 1935 43.9886
103.669 1956 44.2267
103.786 1786 42.2611
103.903 1753 41.8688
104.02 1786 42.2611
104.137 1886 43.4281
104.253 2083 45.6399
104.37 2161 46.4866
104.487 2291 47.8644
104.603 2236 47.2864
104.72 2166 46.5403
104.836 2080 45.607
104.953 1914 43.7493
105.069 1659 40.7308
105.186 1551 39.3827
105.302 1391 37.2961
105.418 1346 36.6879
105.535 1373 37.054
105.651 1430 37.8153
105.767 1407 37.51
105.883 1414 37.6032
105.999 1286 35.8608
106.115 0 1
106.231 0 1
106.347 0 1
106.463 0 1
106.579 0 1
106.694 0 1
106.81 0 1
106.926 0 1
107.041 0 1
107.157 0 1
109.576 0 1
109.692 0 1
109.807 0 1
109.923 0 1
110.039 0 1
110.155 0 1
110.27 0 1
110.386 0 1
110.502 0 1
110.618 909 30.1496
110.735 1191 34.5109
110.851 1350 36.7423
110.967 1538 39.2173
111.083 1681 41
111.199 1835 42.8369
111.316 1892 43.4971
111.432 1896 43.5431
111.549 1934 43.9773
111.665 1936 44
111.782 2009 44.8219
111.898 1999 44.7102
112.015 1840 42.8952
112.132 1786 42.2611
112.248 1701 41.2432
112.365 1651 40.6325
112.482 1668 40.8412
112.599 1806 42.4971
112.716 1933 43.9659
112.832 1976 44.4522
112.949 1977 44.4635
113.066 1995 44.6654
113.183 1998 44.699
113.3 2056 45.3431
113.417 2058 45.3652
113.534 1823 42.6966
113.652 1719 41.4608
113.769 1556 39.4462
113.886 1443 37.9868
114.003 1386 37.229
114.12 1473 38.3797
114.238 1588 39.8497
114.355 1748 41.8091
114.472 1789 42.2966
114.589 1995 44.6654
114.707 1995 44.6654
114.824 1947 44.1248
114.942 1989 44.5982
115.059 1995 44.6654
115.176 2008 44.8107
115.294 2034 45.0999
115.411 1926 43.8862
115.529 1864 43.1741
115.646 1840 42.8952
115.764 1831 42.7902
115.881 1702 41.2553
115.999 1625 40.3113
116.116 1638 40.4722
116.234 1826 42.7317
116.351 1912 43.7264
116.469 2079 45.5961
116.586 1920 43.8178
116.704 2049 45.2659
116.821 2039 45.1553
116.939 2002 44.7437
117.056 1982 44.5197
117.174 1796 42.3792
117.291 1567 39.5854
117.409 1451 38.092
117.526 1366 36.9594
117.644 1412 37.5766
117.761 1592 39.8999
117.879 1714 41.4005
117.996 1787 42.2729
118.114 1877 43.3244
118.231 1910 43.7035
118.349 1924 43.8634
118.466 1991 44.6206
118.584 1862 43.1509
118.701 2008 44.8107
118.819 2035 45.111
118.936 1929 43.9204
119.053 1858 43.1045
119.171 1859 43.1161
119.288 1773 42.107
119.405 1683 41.0244
119.523 1634 40.4228
119.64 1581 39.7618
119.757 1590 39.8748
119.875 1666 40.8167
119.992 1784 42.2374
120.109 1831 42.7902
120.226 1872 43.2666
120.343 1936 44
120.46 1920 43.8178
120.578 1848 42.9884
120.695 1853 43.0465
120.812 1725 41.5331
120.929 1679 40.9756
121.046 1442 37.9737
121.163 1428 37.7889
121.279 1261 35.5106
121.396 1388 37.2559
121.513 1429 37.8021
121.63 1389 37.2693
121.747 1490 38.6005
121.863 1520 38.9872
121.98 1535 39.1791
122.097 1513 38.8973
122.213 1408 37.5233
122.33 1418 37.6563
122.446 1442 37.9737
122.563 1358 36.8511
122.679 1301 36.0694
122.795 1303 36.0971
122.912 1114 33.3766
123.028 1028 32.0624
123.144 898 29.9666
123.26 770 27.7489
123.377 0 1
123.493 0 1
123.609 0 1
123.725 0 1
123.84 0 1
123.956 0 1
124.072 0 1
124.188 0 1
124.303 0 1
124.419 0 1
126.852 0 1
126.968 0 1
127.083 0 1
127.199 0 1
127.315 0 1
127.431 0 1
127.547 0 1
127.663 0 1
127.779 0 1
127.895 0 1
128.011 0 1
128.127 0 1
128.243 0 1
128.359 1841 42.9069
128.476 1829 42.7668
128.592 1710 41.3521
128.708 1747 41.7971
128.825 1916 43.7721
128.941 1905 43.6463
129.058 2029 45.0444
129.174 2078 45.5851
129.291 2053 45.31
129.408 2069 45.4863
129.524 2086 45.6727
129.641 1996 44.6766
129.758 1985 44.5533
129.875 1855 43.0697
129.992 1678 40.9634
130.108 1555 39.4335
130.225 1471 38.3536
130.342 1509 38.8458
130.459 1597 39.9625
130.576 1694 41.1582
130.693 1756 41.9047
130.81 1785 42.2493
130.928 1882 43.382
131.045 1976 44.4522
131.162 1974 44.4297
131.279 2041 45.1774
131.396 2037 45.1331
131.513 1991 44.6206
131.631 1976 44.4522
131.748 1932 43.9545
131.865 1880 43.359
131.983 1916 43.7721
132.1 1875 43.3013
132.217 1823 42.6966
132.335 1791 42.3202
132.452 1878 43.3359
132.57 1989 44.5982
132.687 2078 45.5851
132.804 2003 44.7549
132.922 2061 45.3982
133.039 2182 46.7119
133.157 2169 46.5725
133.274 2056 45.3431
133.392 2107 45.9021
133.509 1829 42.7668
133.627 1750 41.833
133.744 1582 39.7744
133.862 1556 39.4462
133.979 1600 40
134.097 1666 40.8167
134.214 1726 41.5452
134.332 1836 42.8486
134.449 1892 43.4971
134.567 1930 43.9318
134.684 1965 44.3283
134.802 2030 45.0555
134.919 2162 46.4973
135.037 2068 45.4753
135.154 2007 44.7996
135.272 1987 44.5758
135.389 1931 43.9431
135.507 1913 43.7379
135.624 1855 43.0697
135.742 1800 42.4264
135.859 1832 42.8019
135.977 1852 43.0349
136.094 1933 43.9659
136.211 2041 45.1774
136.329 2083 45.6399
136.446 2161 46.4866
136.564 2153 46.4004
136.681 2181 46.7012
136.798 2109 45.9239
136.915 2126 46.1086
137.033 1937 44.0114
137.15 1859 43.1161
137.267 1731 41.6053
137.384 1534 39.1663
137.502 1596 39.95
137.619 1564 39.5474
137.736 1646 40.5709
137.853 1715 41.4126
137.97 1826 42.7317
138.087 1891 43.4856
138.204 1980 44.4972
138.321 1974 44.4297
138.438 2045 45.2217
138.555 2138 46.2385
138.672 2062 45.4093
138.788 1968 44.3621
138.905 1826 42.7317
139.022 1751 41.845
139.139 1746 41.7852
139.255 1544 39.2938
139.372 1533 39.1535
139.488 1363 36.9188
139.605 1470 38.3406
139.721 1487 38.5616
139.838 1418 37.6563
139.954 1465 38.2753
140.071 1311 36.2077
140.187 1251 35.3695
140.303 1152 33.9411
140.419 1162 34.0881
140.535 1091 33.0303
140.652 1016 31.8748
140.768 0 1
140.884 0 1
141 0 1
141.115 0 1
141.231 0 1
141.347 0 1
141.463 0 1
141.578 0 1
141.694 0 1
144.104 0 1
144.219 0 1
144.335 0 1
144.45 0 1
144.566 0 1
144.682 0 1
144.798 0 1
144.914 0 1
145.03 0 1
145.146 1442 37.9737
145.262 1482 38.4968
145.378 1666 40.8167
145.494 1660 40.7431
145.61 1633 40.4104
145.726 1566 39.5727
145.842 1487 38.5616
145.959 1454 38.1314
146.075 1312 36.2215
146.192 1302 36.0832
146.308 1173 34.2491
146.425 1265 35.5668
146.541 1379 37.1349
146.658 1356 36.8239
146.774 1426 37.7624
146.891 1526 39.064
147.008 1482 38.4968
147.125 1464 38.2623
147.241 1440 37.9473
147.358 1589 39.8623
147.475 1584 39.7995
147.592 1517 38.9487
147.709 1522 39.0128
147.826 1427 37.7757
147.943 1417 37.6431
148.06 1371 37.027
148.177 1378 37.1214
148.294 1368 36.9865
148.411 1421 37.6962
148.528 1523 39.0256
148.645 1514 38.9102
148.762 1527 39.0768
148.88 1625 40.3113
148.997 1617 40.2119
149.114 1614 40.1746
149.231 1552 39.3954
149.349 1606 40.0749
149.466 1554 39.4208
149.583 1433 37.855
149.701 1399 37.4032
149.818 1333 36.5103
149.935 1260 35.4965
150.053 1223 34.9714
150.17 1360 36.8782
150.287 1351 36.756
150.405 1426 37.7624
150.522 1438 37.921
150.64 1445 38.0132
150.757 1508 38.833
150.875 1521 39
150.992 1492 38.6264
151.11 1487 38.5616
151.227 1506 38.8072
151.344 1502 38.7556
151.462 1449 38.0657
151.579 1432 37.8418
151.697 1461 38.223
151.814 1381 37.1618
151.932 1306 36.1386
152.049 1281 35.7911
152.167 1399 37.4032
152.284 1475 38.4057
152.402 1518 38.9615
152.519 1573 39.6611
152.636 1523 39.0256
152.754 1549 39.3573
152.871 1546 39.3192
152.989 1533 39.1535
153.106 1547 39.3319
153.223 1352 36.7696
153.341 1246 35.2987
153.458 1251 35.3695
153.575 1154 33.9706
153.693 1173 34.2491
153.81 1217 34.8855
153.927 1281 35.7911
154.044 1308 36.1663
154.162 1375 37.081
154.279 1293 35.9583
154.396 1391 37.2961
154.513 1401 37.4299
154.63 1352 36.7696
154.747 1434 37.8682
154.864 1409 37.5366
154.981 1240 35.2136
155.098 1369 37
155.215 1310 36.1939
155.332 1295 35.9861
155.449 1244 35.2704
155.566 1264 35.5528
155.683 1293 35.9583
155.8 1255 35.426
155.917 1331 36.4829
156.033 1311 36.2077
156.15 0 1
156.267 0 1
156.383 0 1
156.5 0 1
156.617 0 1
156.733 0 1
156.85 0 1
156.966 0 1
157.082 0 1
157.199 0 1
157.315 0 1
157.431 0 1
157.547 0 1
157.664 0 1
157.78 0 1
157.896 0 1
158.012 0 1
158.128 0 1
158.244 0 1
158.359 0 1
158.475 0 1
158.591 0 1
158.706 0 1
