
6.15755 0 1
6.2731 0 1
6.3887 0 1
6.50437 0 1
6.62009 0 1
6.73587 0 1
6.8517 0 1
6.96759 0 1
7.08353 0 1
7.19952 0 1
7.31557 0 1
7.43166 0 1
7.54781 0 1
7.664 0 1
7.78024 0 1
7.89653 0 1
8.01286 0 1
8.12924 0 1
8.24567 0 1
8.36213 0 1
8.47864 0 1
8.59519 0 1
8.71178 0 1
8.82841 0 1
8.94508 0 1
9.06179 0 1
9.17853 0 1
9.29531 0 1
9.41212 0 1
9.52897 0 1
9.64584 0 1
9.76276 0 1
9.8797 0 1
9.99667 0 1
10.1137 0 1
10.2307 0 1
10.3478 0 1
10.4648 0 1
10.5819 0 1
10.6991 0 1
10.8162 0 1
10.9334 0 1
11.0506 0 1
11.1678 0 1
11.285 0 1
11.4023 0 1
11.5196 0 1
11.6369 0 1
11.7542 0 1
11.8715 0 1
11.9888 0 1
12.1062 0 1
12.2235 0 1
12.3409 0 1
12.4582 0 1
12.5756 0 1
12.693 0 1
12.8104 0 1
12.9278 0 1
13.0452 0 1
13.1626 0 1
13.28 0 1
13.3974 0 1
13.5149 0 1
13.6323 0 1
13.7497 0 1
13.8671 0 1
13.9845 0 1
14.1019 0 1
14.2193 0 1
14.3367 0 1
14.4541 0 1
14.5714 0 1
14.6888 0 1
14.8062 0 1
14.9235 0 1
15.0408 0 0
15.1581 0 0
15.2755 0 0
15.3927 0 0
15.51 0 0
15.6273 0 0
15.7445 0 0
15.8617 0 0
15.9789 0 0
16.0961 0 0
16.2132 0 0
16.3304 0 0
16.4475 0 0
16.5646 0 0
16.6816 0 0
16.7986 0 0
16.9156 0 0
17.0326 0 0
17.1496 0 0
17.2665 0 0
17.3833 0 0
17.5002 0 0
17.617 0 0
17.7338 0 0
17.8505 0 0
17.9672 0 0
18.0839 0 0
18.2005 0 0
18.3171 0 0
18.4337 0 0
18.5502 0 0
18.6666 0 0
18.7831 0 0
18.8994 0 0
19.0158 0 0
19.1321 0 0
19.2483 0 0
19.3645 0 0
19.4806 0 0
19.5967 0 0
19.7128 0 0
19.8288 0 0
19.9447 0 0
20.0606 0 1
20.1764 0 1
20.2922 0 1
20.4079 0 1
20.5236 0 1
20.6392 0 1
20.7548 0 1
20.8702 0 1
23.3078 0 1
23.4233 0 1
23.539 0 1
23.6547 0 1
23.7704 0 1
23.8862 0 1
24.0021 0 1
24.118 0 1
24.234 0 1
24.35 0 1
24.4661 4623 67.9926
24.5822 5117 71.5332
24.6984 5612 74.9133
24.8146 6028 77.6402
24.9309 6574 81.0802
25.0472 6905 83.0963
25.1636 7353 85.7496
25.28 8037 89.6493
25.3965 8411 91.7115
25.513 8777 93.6856
25.6296 9075 95.2628
25.7462 9302 96.4469
25.8628 9408 96.9948
25.9795 9298 96.4261
26.0962 9515 97.5449
26.213 9300 96.4365
26.3298 9293 96.4002
26.4466 9056 95.163
26.5635 8588 92.6715
26.6804 8212 90.6201
26.7973 8476 92.0652
26.9143 8322 91.225
27.0313 8700 93.2738
27.1483 9167 95.7445
27.2653 9116 95.4777
27.3824 8982 94.7734
27.4996 9061 95.1893
27.6167 8903 94.3557
27.7339 8905 94.3663
27.8511 8681 93.1719
27.9683 8508 92.2388
28.0855 8532 92.3688
28.2028 8109 90.05
28.3201 8089 89.9389
28.4374 7777 88.1873
28.5547 7745 88.0057
28.6721 8131 90.1721
28.7894 8280 90.9945
28.9068 8573 92.5905
29.0242 8872 94.1913
29.1416 9039 95.0737
29.259 9389 96.8969
29.3764 9470 97.3139
29.4939 9563 97.7906
29.6113 9450 97.2111
29.7288 9431 97.1133
29.8463 9290 96.3846
29.9638 9075 95.2628
30.0812 8612 92.8009
30.1987 8289 91.0439
30.3162 8036 89.6437
30.4337 8060 89.7775
30.5512 8138 90.2109
30.6687 8380 91.5423
30.7862 8821 93.9202
30.9037 8746 93.5201
31.0212 9085 95.3153
31.1387 9206 95.9479
31.2562 9065 95.2103
31.3737 8887 94.2709
31.4912 8725 93.4077
31.6087 8496 92.1737
31.7262 8286 91.0275
31.8436 8021 89.56
31.9611 7858 88.6454
32.0785 7952 89.174
32.1959 7782 88.2156
32.3134 7938 89.0955
32.4308 8075 89.861
32.5482 8311 91.1647
32.6655 8618 92.8332
32.7829 8806 93.8403
32.9002 9382 96.8607
33.0176 9391 96.9072
33.1349 9302 96.4469
33.2522 9269 96.2756
33.3694 9390 96.902
33.4867 9199 95.9114
33.6039 9109 95.4411
33.7211 8771 93.6536
33.8383 8237 90.7579
33.9554 8003 89.4595
34.0725 7629 87.3441
34.1896 7714 87.8294
34.3067 8099 89.9944
34.4237 8254 90.8515
34.5407 8357 91.4166
34.6577 8675 93.1397
34.7746 8781 93.707
34.8915 8837 94.0053
35.0084 8701 93.2792
35.1252 8809 93.8563
35.242 8314 91.1811
35.3587 8252 90.8405
35.4755 8107 90.0389
35.5921 7829 88.4816
35.7088 7787 88.244
35.8254 7602 87.1894
35.9419 7494 86.5679
36.0584 7385 85.936
36.1749 7251 85.1528
36.2913 7160 84.6168
36.4077 7274 85.2877
36.524 7216 84.947
36.6403 7012 83.7377
36.7565 6964 83.4506
36.8727 6597 81.2219
36.9889 6447 80.2932
37.1049 6065 77.8781
37.221 0 1
37.3369 0 1
37.4529 0 1
37.5687 0 1
37.6845 0 1
37.8003 0 1
37.916 0 1
38.0316 0 1
38.1472 0 1
40.5851 0 1
40.7008 0 1
40.8164 0 1
40.9322 0 1
41.048 0 1
41.1639 0 1
41.2798 0 1
41.3958 0 1
41.5118 0 1
41.6279 0 1
41.744 5104 71.4423
41.8602 5644 75.1266
41.9765 6012 77.5371
42.0928 6204 78.7655
42.2091 6534 80.8332
42.3255 6545 80.9012
42.4419 6546 80.9074
42.5584 6318 79.4858
42.675 6372 79.8248
42.7915 6321 79.5047
42.9081 6578 81.1049
43.0248 6962 83.4386
43.1415 7261 85.2115
43.2582 7387 85.9477
43.375 7530 86.7756
43.4918 7610 87.2353
43.6087 7485 86.5159
43.7256 7549 86.885
43.8425 7237 85.0706
43.9595 7254 85.1704
44.0765 7057 84.006
44.1935 6959 83.4206
44.3106 6728 82.0244
44.4277 6595 81.2096
44.5448 6642 81.4985
44.6619 6377 79.8561
44.7791 6578 81.1049
44.8963 7030 83.8451
45.0136 7078 84.1309
45.1308 7253 85.1645
45.2481 7728 87.909
45.3654 7774 88.1703
45.4827 7844 88.5664
45.6001 7889 88.82
45.7174 7781 88.21
45.8348 7792 88.2723
45.9522 7563 86.9655
46.0697 7414 86.1046
46.1871 6811 82.5288
46.3046 6338 79.6116
46.422 6451 80.3181
46.5395 6735 82.067
46.657 7282 85.3346
46.7745 7311 85.5044
46.892 7469 86.4234
47.0096 7772 88.1589
47.1271 7886 88.8032
47.2446 7900 88.8819
47.3622 7650 87.4643
47.4797 7570 87.0057
47.5973 7399 86.0174
47.7149 7367 85.8312
47.8324 7195 84.8233
47.95 6952 83.3787
48.0675 6698 81.8413
48.1851 6518 80.7341
48.3027 6634 81.4494
48.4202 6610 81.3019
48.5378 6989 83.6002
48.6554 7318 85.5453
48.7729 7522 86.7295
48.8904 7717 87.8465
49.008 7786 88.2383
49.1255 7905 88.9101
49.243 7903 88.8988
49.3605 7859 88.651
49.478 7732 87.9318
49.5955 7339 85.668
49.713 6674 81.6946
49.8304 6223 78.886
49.9479 5918 76.9285
50.0653 6093 78.0577
50.1827 6385 79.9062
50.3001 6775 82.3104
50.4175 7159 84.6109
50.5348 7348 85.7205
50.6521 7366 85.8254
50.7694 7536 86.8101
50.8867 7417 86.122
51.004 7493 86.5621
51.1212 7307 85.481
51.2384 7346 85.7088
51.3556 7102 84.2734
51.4727 6938 83.2947
51.5899 6600 81.2404
51.707 6603 81.2588
51.824 6394 79.9625
51.9411 6647 81.5291
52.0581 6781 82.3468
52.175 7030 83.8451
52.2919 7279 85.3171
52.4088 7466 86.406
52.5257 7875 88.7412
52.6425 7937 89.0898
52.7593 7776 88.1816
52.876 7645 87.4357
52.9927 7654 87.4871
53.1094 7416 86.1162
53.226 6911 83.1324
53.3426 6393 79.9562
53.4591 5920 76.9415
53.5756 5476 74
53.692 5255 72.4914
53.8084 5068 71.1899
53.9248 4933 70.2353
54.0411 4772 69.0797
54.1573 4545 67.4166
54.2735 0 1
54.3896 0 1
54.5057 0 1
54.6217 0 1
54.7377 0 1
54.8537 0 1
54.9695 0 1
55.0853 0 1
55.2011 0 1
55.3168 0 1
55.4324 0 1
57.824 0 1
57.9396 0 1
58.0553 0 1
58.1711 0 1
58.2869 0 1
58.4028 0 1
58.5187 0 1
58.6347 0 1
58.7508 0 1
58.8669 0 1
58.983 6054 77.8075
59.0992 6829 82.6378
59.2155 7226 85.0059
59.3318 7888 88.8144
59.4482 8115 90.0833
59.5646 8603 92.7524
59.681 8578 92.6175
59.7975 8559 92.5149
59.9141 8460 91.9783
60.0306 8394 91.6188
60.1473 8170 90.3881
60.2639 8138 90.2109
60.3807 8022 89.5656
60.4974 8042 89.6772
60.6142 8488 92.1303
60.731 8706 93.3059
60.8479 8903 94.3557
60.9648 9201 95.9218
61.0818 9419 97.0515
61.1987 9431 97.1133
61.3158 9422 97.067
61.4328 9323 96.5557
61.5499 9030 95.0263
61.667 8580 92.6283
61.7841 8187 90.482
61.9013 7733 87.9375
62.0185 7493 86.5621
62.1357 7461 86.3771
62.253 7867 88.6961
62.3702 8305 91.1318
62.4875 8637 92.9355
62.6049 8880 94.2338
62.7222 9178 95.8019
62.8396 9189 95.8593
62.9569 9155 95.6818
63.0743 9071 95.2418
63.1918 8932 94.5093
63.3092 8890 94.2868
63.4267 8760 93.5949
63.5441 8405 91.6788
63.6616 8218 90.6532
63.7791 7979 89.3252
63.8966 7866 88.6905
64.0142 7717 87.8465
64.1317 7952 89.174
64.2492 8267 90.923
64.3668 8793 93.771
64.4843 8903 94.3557
64.6019 9066 95.2155
64.7195 9156 95.687
64.837 9182 95.8228
64.9546 9286 96.3639
65.0722 9280 96.3328
65.1898 8875 94.2072
65.3074 8525 92.3309
65.4249 7992 89.398
65.5425 7381 85.9127
65.6601 7092 84.214
65.7777 6961 83.4326
65.8952 7429 86.1916
66.0128 7827 88.4703
66.1304 8229 90.7138
66.2479 8586 92.6607
66.3655 8669 93.1075
66.483 8927 94.4828
66.6005 8909 94.3875
66.718 8911 94.3981
66.8355 8682 93.1773
66.953 8790 93.755
67.0705 8298 91.0934
67.1879 8465 92.0054
67.3054 8143 90.2386
67.4228 7767 88.1306
67.5402 7561 86.954
67.6576 7276 85.2995
67.7749 7345 85.703
67.8923 7870 88.713
68.0096 7924 89.0169
68.1269 8422 91.7715
68.2442 8488 92.1303
68.3614 8922 94.4563
68.4787 8863 94.1435
68.5958 8917 94.4299
68.713 8796 93.787
68.8302 8748 93.5307
68.9473 8568 92.5635
69.0643 8093 89.9611
69.1814 7558 86.9368
69.2984 7024 83.8093
69.4154 6744 82.1219
69.5323 6888 82.994
69.6492 7185 84.7644
69.7661 7647 87.4471
69.8829 7676 87.6128
69.9997 7694 87.7154
70.1165 7447 86.296
70.2332 7401 86.0291
70.3499 7227 85.0118
70.4665 6890 83.006
70.5831 6617 81.3449
70.6996 6168 78.5366
70.8161 5734 75.7232
70.9326 5267 72.5741
71.049 4918 70.1285
71.1653 4448 66.6933
71.2817 3768 61.384
71.3979 3415 58.438
71.5141 3074 55.4437
71.6303 2894 53.7959
71.7464 2715 52.1057
71.8624 0 1
71.9784 0 1
72.0944 0 1
72.2102 0 1
72.3261 0 1
72.4418 0 1
72.5575 0 1
72.6732 0 1
75.1054 0 1
75.2209 0 1
75.3365 0 1
75.4521 0 1
75.5678 0 1
75.6835 0 1
75.7993 0 1
75.9151 0 1
76.031 0 1
76.147 5846 76.4591
76.263 6225 78.8987
76.3791 6365 79.781
76.4952 6695 81.823
76.6113 6698 81.8413
76.7276 6973 83.5045
76.8438 7401 86.0291
76.9601 7812 88.3855
77.0765 7956 89.1964
77.1929 8175 90.4157
77.3093 8280 90.9945
77.4258 8561 92.5257
77.5423 8418 91.7497
77.6589 8198 90.5428
77.7755 7936 89.0842
77.8921 7539 86.8274
78.0088 7010 83.7257
78.1256 6317 79.4796
78.2423 6181 78.6193
78.3591 6060 77.846
78.4759 6513 80.7032
78.5928 6991 83.6122
78.7097 7262 85.2174
78.8266 7616 87.2697
78.9436 7989 89.3812
79.0606 8073 89.8499
79.1776 8081 89.8944
79.2946 8159 90.3272
79.4117 8251 90.835
79.5288 8326 91.2469
79.6459 8031 89.6158
79.7631 8083 89.9055
79.8802 7796 88.295
79.9974 7530 86.7756
80.1147 7216 84.947
80.2319 6868 82.8734
80.3491 7207 84.8941
80.4664 7338 85.6621
80.5837 7845 88.572
80.701 8188 90.4876
80.8183 8558 92.5095
80.9357 8629 92.8924
81.053 8732 93.4452
81.1704 8708 93.3167
81.2877 8763 93.6109
81.4051 8623 92.8601
81.5225 8510 92.2497
81.6399 7788 88.2496
81.7573 7186 84.7703
81.8747 6759 82.2131
81.9922 6367 79.7935
82.1096 6290 79.3095
82.227 6741 82.1036
82.3444 7188 84.7821
82.4619 7708 87.7952
82.5793 8267 90.923
82.6967 8128 90.1554
82.8142 8405 91.6788
82.9316 8664 93.0806
83.049 8594 92.7038
83.1664 8741 93.4933
83.2838 8348 91.3674
83.4012 8313 91.1757
83.5186 8291 91.0549
83.636 7940 89.1067
83.7534 7672 87.59
83.8708 7282 85.3346
83.9881 7299 85.4342
84.1055 7269 85.2584
84.2228 7669 87.5728
84.3401 8042 89.6772
84.4575 8413 91.7224
84.5747 8688 93.2094
84.692 8763 93.6109
84.8093 8784 93.723
84.9265 8747 93.5254
85.0437 8707 93.3113
85.1609 8512 92.2605
85.2781 7763 88.1079
85.3952 7238 85.0764
85.5123 6548 80.9197
85.6294 6146 78.3964
85.7465 6461 80.3803
85.8636 6890 83.006
85.9806 7426 86.1742
86.0976 7866 88.6905
86.2145 8161 90.3383
86.3315 8091 89.95
86.4484 8809 93.8563
86.5652 8558 92.5095
86.682 8684 93.188
86.7988 8503 92.2117
86.9156 8693 93.2363
87.0323 8501 92.2009
87.149 8196 90.5318
87.2657 7704 87.7724
87.3823 6966 83.4626
87.4988 6379 79.8686
87.6154 6070 77.9102
87.7318 5862 76.5637
87.8483 5842 76.433
87.9647 6052 77.7946
88.081 6079 77.9679
88.1973 6220 78.867
88.3136 5864 76.5768
88.4298 5487 74.0743
88.546 5304 72.8286
88.6621 4533 67.3276
88.7781 3980 63.0872
88.8942 0 1
89.0101 0 1
89.126 0 1
89.2419 0 1
89.3577 0 1
89.4734 0 1
89.5891 0 1
89.7047 0 1
89.8203 0 1
89.9358 0 1
92.3269 0 1
92.4424 0 1
92.558 0 1
92.6736 0 1
92.7893 0 1
92.905 0 1
93.0208 0 1
93.1366 0 1
93.2525 0 1
93.3685 0 1
93.4845 0 1
93.6005 8307 91.1427
93.7167 8681 93.1719
93.8328 8583 92.6445
93.949 8369 91.4822
94.0653 7919 88.9888
94.1816 7567 86.9885
94.2979 7234 85.0529
94.4143 7048 83.9524
94.5307 7419 86.1336
94.6472 7850 88.6002
94.7637 8330 91.2688
94.8803 8692 93.2309
94.9969 9021 94.9789
95.1135 9133 95.5667
95.2302 9388 96.8917
95.3469 9562 97.7855
95.4637 9416 97.0361
95.5805 9430 97.1082
95.6973 9099 95.3887
95.8142 9084 95.31
95.9311 8749 93.5361
96.048 8541 92.4175
96.1649 8282 91.0055
96.2819 8099 89.9944
96.3989 8478 92.0761
96.516 8587 92.6661
96.633 9025 95
96.7501 9346 96.6747
96.8673 9391 96.9072
96.9844 9340 96.6437
97.1016 9476 97.3447
97.2188 9478 97.355
97.336 8817 93.8989
97.4532 8485 92.1141
97.5704 7720 87.8635
97.6877 7226 85.0059
97.805 6986 83.5823
97.9223 6897 83.0482
98.0396 7356 85.7671
98.1569 7870 88.713
98.2743 8326 91.2469
98.3916 8654 93.0269
98.509 8654 93.0269
98.6264 9226 96.0521
98.7438 9136 95.5824
98.8612 9325 96.566
98.9786 9354 96.7161
99.096 9258 96.2185
99.2134 9095 95.3677
99.3308 9071 95.2418
99.4482 8694 93.2416
99.5656 8401 91.657
99.6831 8233 90.7359
99.8005 7883 88.7863
99.9179 8218 90.6532
100.035 8469 92.0272
100.153 8788 93.7443
100.27 9180 95.8123
100.388 9083 95.3048
100.505 9037 95.0631
100.622 9161 95.7131
100.74 9174 95.781
100.857 9050 95.1315
100.975 8795 93.7817
101.092 8334 91.2907
101.209 7708 87.7952
101.327 6949 83.3607
101.444 6673 81.6884
101.561 6469 80.4301
101.679 6919 83.1805
101.796 7266 85.2408
101.913 7803 88.3346
102.03 8084 89.9111
102.148 8309 91.1537
102.265 8336 91.3017
102.382 9002 94.8789
102.499 8922 94.4563
102.616 8944 94.5727
102.733 8657 93.043
102.851 8749 93.5361
102.968 8537 92.3959
103.085 8514 92.2713
103.202 8224 90.6863
103.319 7946 89.1403
103.436 7730 87.9204
103.552 7387 85.9477
103.669 7931 89.0562
103.786 7946 89.1403
103.903 8159 90.3272
104.02 8520 92.3038
104.137 8639 92.9462
104.253 8851 94.0798
104.37 8335 91.2962
104.487 8150 90.2774
104.603 7811 88.3799
104.72 7373 85.8662
104.836 6802 82.4742
104.953 6272 79.196
105.069 5779 76.0197
105.186 5198 72.0972
105.302 4971 70.5053
105.418 4792 69.2243
105.535 4837 69.5485
105.651 4656 68.2349
105.767 4343 65.9014
105.883 4071 63.8044
105.999 3876 62.2575
106.115 0 1
106.231 0 1
106.347 0 1
106.463 0 1
106.579 0 1
106.694 0 1
106.81 0 1
106.926 0 1
107.041 0 1
107.157 0 1
109.576 0 1
109.692 0 1
109.807 0 1
109.923 0 1
110.039 0 1
110.155 0 1
110.27 0 1
110.386 0 1
110.502 0 1
110.618 5882 76.6942
110.735 6691 81.7985
110.851 7573 87.023
110.967 7976 89.3085
111.083 8530 92.358
111.199 8969 94.7048
111.316 9305 96.4624
111.432 9482 97.3756
111.549 9483 97.3807
111.665 9573 97.8417
111.782 9180 95.8123
111.898 9240 96.1249
112.015 9031 95.0316
112.132 8510 92.2497
112.248 8642 92.9624
112.365 8718 93.3702
112.482 8782 93.7123
112.599 9507 97.5038
112.716 9722 98.6002
112.832 9584 97.8979
112.949 9776 98.8737
113.066 9675 98.3616
113.183 9738 98.6813
113.3 9501 97.4731
113.417 9125 95.5249
113.534 8396 91.6297
113.652 7977 89.3141
113.769 7398 86.0116
113.886 6906 83.1023
114.003 6896 83.0422
114.12 7535 86.8044
114.238 7790 88.261
114.355 8386 91.5751
114.472 8544 92.4338
114.589 9110 95.4463
114.707 9369 96.7936
114.824 9335 96.6178
114.942 9353 96.7109
115.059 9424 97.0773
115.176 9476 97.3447
115.294 9212 95.9792
115.411 9093 95.3572
115.529 9005 94.8947
115.646 8699 93.2684
115.764 8527 92.3418
115.881 8105 90.0278
115.999 8402 91.6624
116.116 8518 92.293
116.234 8983 94.7787
116.351 9207 95.9531
116.469 9056 95.163
116.586 9245 96.1509
116.704 9135 95.5772
116.821 9219 96.0156
116.939 9103 95.4096
117.056 8501 92.2009
117.174 8191 90.5041
117.291 7679 87.6299
117.409 7043 83.9226
117.526 6565 81.0247
117.644 6490 80.5605
117.761 6780 82.3408
117.879 7169 84.6699
117.996 7435 86.2264
118.114 7781 88.21
118.231 8302 91.1153
118.349 8125 90.1388
118.466 8345 91.351
118.584 8444 91.8912
118.701 8607 92.7739
118.819 8475 92.0598
118.936 8194 90.5207
119.053 8334 91.2907
119.171 8072 89.8443
119.288 7761 88.0965
119.405 7633 87.367
119.523 7616 87.2697
119.64 7582 87.0747
119.757 7704 87.7724
119.875 7863 88.6736
119.992 8088 89.9333
120.109 8164 90.3549
120.226 8298 91.0934
120.343 8385 91.5696
120.46 8455 91.9511
120.578 8340 91.3236
120.695 8262 90.8955
120.812 7824 88.4534
120.929 7347 85.7146
121.046 6860 82.8251
121.163 6457 80.3555
121.279 6163 78.5048
121.396 6128 78.2815
121.513 6000 77.4597
121.63 6139 78.3518
121.747 6250 79.0569
121.863 6356 79.7245
121.98 6359 79.7433
122.097 6320 79.4984
122.213 6180 78.613
122.33 6240 78.9937
122.446 6005 77.4919
122.563 5650 75.1665
122.679 5345 73.1095
122.795 4799 69.2748
122.912 4536 67.3498
123.028 4129 64.2573
123.144 3827 61.8628
123.26 3532 59.4306
123.377 0 1
123.493 0 1
123.609 0 1
123.725 0 1
123.84 0 1
123.956 0 1
124.072 0 1
124.188 0 1
124.303 0 1
124.419 0 1
126.852 0 1
126.968 0 1
127.083 0 1
127.199 0 1
127.315 0 1
127.431 0 1
127.547 0 1
127.663 0 1
127.779 0 1
127.895 0 1
128.011 0 1
128.127 0 1
128.243 0 1
128.359 7795 88.2893
128.476 8208 90.598
128.592 8423 91.7769
128.708 8429 91.8096
128.825 8904 94.361
128.941 9064 95.205
129.058 8804 93.8296
129.174 8884 94.255
129.291 8996 94.8472
129.408 8767 93.6323
129.524 8586 92.6607
129.641 8266 90.9175
129.758 7970 89.2749
129.875 7459 86.3655
129.992 7161 84.6227
130.108 6957 83.4086
130.225 7169 84.6699
130.342 7312 85.5102
130.459 7327 85.5979
130.576 7933 89.0674
130.693 7952 89.174
130.81 8443 91.8858
130.928 8487 92.1249
131.045 8663 93.0752
131.162 8538 92.4013
131.279 8902 94.3504
131.396 8830 93.9681
131.513 8723 93.397
131.631 8651 93.0108
131.748 8493 92.1575
131.865 8062 89.7886
131.983 8083 89.9055
132.1 8371 91.4932
132.217 8488 92.1303
132.335 8741 93.4933
132.452 8879 94.2284
132.57 9202 95.9271
132.687 8573 92.5905
132.804 9393 96.9175
132.922 9268 96.2705
133.039 9041 95.0842
133.157 8549 92.4608
133.274 8363 91.4494
133.392 7890 88.8257
133.509 7427 86.18
133.627 7016 83.7616
133.744 6821 82.5893
133.862 6814 82.547
133.979 7247 85.1293
134.097 7552 86.9022
134.214 7963 89.2356
134.332 8053 89.7385
134.449 8299 91.0988
134.567 8457 91.9619
134.684 8635 92.9247
134.802 8748 93.5307
134.919 8601 92.7416
135.037 8597 92.72
135.154 8617 92.8278
135.272 8408 91.6951
135.389 8268 90.9285
135.507 8048 89.7106
135.624 8075 89.861
135.742 8347 91.3619
135.859 8425 91.7878
135.977 8338 91.3126
136.094 8833 93.984
136.211 8876 94.2125
136.329 8918 94.4352
136.446 9006 94.8999
136.564 8890 94.2868
136.681 8830 93.9681
136.798 8712 93.3381
136.915 8259 90.879
137.033 7874 88.7356
137.15 7351 85.738
137.267 7069 84.0773
137.384 6755 82.1888
137.502 6584 81.1419
137.619 6806 82.4985
137.736 7091 84.2081
137.853 7275 85.2936
137.97 7819 88.4251
138.087 7640 87.4071
138.204 8075 89.861
138.321 8327 91.2524
138.438 8326 91.2469
138.555 8514 92.2713
138.672 8335 91.2962
138.788 8068 89.822
138.905 7814 88.3968
139.022 7431 86.2032
139.139 7097 84.2437
139.255 6749 82.1523
139.372 6486 80.5357
139.488 6332 79.5739
139.605 6331 79.5676
139.721 6083 77.9936
139.838 5822 76.302
139.954 5801 76.1643
140.071 5231 72.3257
140.187 4925 70.1783
140.303 4652 68.2056
140.419 4352 65.9697
140.535 4033 63.5059
140.652 3582 59.8498
140.768 0 1
140.884 0 1
141 0 1
141.115 0 1
141.231 0 1
141.347 0 1
141.463 0 1
141.578 0 1
141.694 0 1
144.104 0 1
144.219 0 1
144.335 0 1
144.45 0 1
144.566 0 1
144.682 0 1
144.798 0 1
144.914 0 1
145.03 0 1
145.146 6861 82.8312
145.262 7002 83.678
145.378 7030 83.8451
145.494 6807 82.5045
145.61 6552 80.9444
145.726 6246 79.0316
145.842 6012 77.5371
145.959 5732 75.71
146.075 5735 75.7298
146.192 5749 75.8222
146.308 5961 77.2075
146.425 6155 78.4538
146.541 6476 80.4736
146.658 6474 80.4612
146.774 6812 82.5348
146.891 6834 82.668
147.008 6921 83.1925
147.125 7029 83.8391
147.241 7025 83.8153
147.358 7120 84.3801
147.475 6959 83.4206
147.592 6880 82.9458
147.709 6860 82.8251
147.826 6525 80.7775
147.943 6577 81.0987
148.06 6853 82.7828
148.177 6954 83.3906
148.294 7069 84.0773
148.411 7135 84.4689
148.528 7482 86.4986
148.645 7407 86.0639
148.762 7268 85.2526
148.88 7460 86.3713
148.997 6980 83.5464
149.114 7439 86.2496
149.231 6758 82.2071
149.349 6751 82.1645
149.466 6191 78.6829
149.583 6114 78.1921
149.701 5793 76.1118
149.818 5654 75.1931
149.935 5869 76.6094
150.053 5983 77.3499
150.17 6289 79.3032
150.287 6340 79.6241
150.405 6416 80.0999
150.522 6636 81.4616
150.64 6754 82.1827
150.757 7004 83.6899
150.875 7022 83.7974
150.992 7166 84.6522
151.11 6887 82.988
151.227 7024 83.8093
151.344 6747 82.1401
151.462 6512 80.697
151.579 6454 80.3368
151.697 6551 80.9382
151.814 6632 81.4371
151.932 6891 83.012
152.049 7168 84.664
152.167 7312 85.5102
152.284 7208 84.8999
152.402 7178 84.7231
152.519 7176 84.7113
152.636 7092 84.214
152.754 6994 83.6301
152.871 6848 82.7526
152.989 6482 80.5109
153.106 6229 78.924
153.223 5977 77.3111
153.341 5779 76.0197
153.458 5554 74.5252
153.575 5674 75.326
153.693 5742 75.776
153.81 5807 76.2037
153.927 5928 76.9935
154.044 6126 78.2688
154.162 6327 79.5424
154.279 6265 79.1518
154.396 6543 80.8888
154.513 6694 81.8169
154.63 6799 82.456
154.747 6830 82.6438
154.864 6710 81.9146
154.981 6360 79.7496
155.098 6375 79.8436
155.215 6278 79.2338
155.332 6053 77.801
155.449 6297 79.3536
155.566 6307 79.4166
155.683 6695 81.823
155.8 6755 82.1888
155.917 6641 81.4923
156.033 6491 80.5667
156.15 0 1
156.267 0 1
156.383 0 1
156.5 0 1
156.617 0 1
156.733 0 1
156.85 0 1
156.966 0 1
157.082 0 1
157.199 0 1
157.315 0 1
157.431 0 1
157.547 0 1
157.664 0 1
157.78 0 1
157.896 0 1
158.012 0 1
158.128 0 1
158.244 0 1
158.359 0 1
158.475 0 1
158.591 0 1
158.706 0 1
