
6.15755 0 1
6.2731 0 1
6.3887 0 1
6.50437 0 1
6.62009 0 1
6.73587 0 1
6.8517 0 1
6.96759 0 1
7.08353 0 1
7.19952 0 1
7.31557 0 1
7.43166 0 1
7.54781 0 1
7.664 0 1
7.78024 0 1
7.89653 0 1
8.01286 0 1
8.12924 0 1
8.24567 0 1
8.36213 0 1
8.47864 0 1
8.59519 0 1
8.71178 0 1
8.82841 0 1
8.94508 0 1
9.06179 0 1
9.17853 0 1
9.29531 0 1
9.41212 0 1
9.52897 0 1
9.64584 0 1
9.76276 0 1
9.8797 0 1
9.99667 0 1
10.1137 0 1
10.2307 0 1
10.3478 0 1
10.4648 0 1
10.5819 0 1
10.6991 0 1
10.8162 0 1
10.9334 0 1
11.0506 0 1
11.1678 0 1
11.285 0 1
11.4023 0 1
11.5196 0 1
11.6369 0 1
11.7542 0 1
11.8715 0 1
11.9888 0 1
12.1062 0 1
12.2235 0 1
12.3409 0 1
12.4582 0 1
12.5756 0 1
12.693 0 1
12.8104 0 1
12.9278 0 1
13.0452 0 1
13.1626 0 1
13.28 0 1
13.3974 0 1
13.5149 0 1
13.6323 0 1
13.7497 0 1
13.8671 0 1
13.9845 0 1
14.1019 0 1
14.2193 0 1
14.3367 0 1
14.4541 0 1
14.5714 0 1
14.6888 0 1
14.8062 0 1
14.9235 0 1
15.0408 0 0
15.1581 0 0
15.2755 0 0
15.3927 0 0
15.51 0 0
15.6273 0 0
15.7445 0 0
15.8617 0 0
15.9789 0 0
16.0961 0 0
16.2132 0 0
16.3304 0 0
16.4475 0 0
16.5646 0 0
16.6816 0 0
16.7986 0 0
16.9156 0 0
17.0326 0 0
17.1496 0 0
17.2665 0 0
17.3833 0 0
17.5002 0 0
17.617 0 0
17.7338 0 0
17.8505 0 0
17.9672 0 0
18.0839 0 0
18.2005 0 0
18.3171 0 0
18.4337 0 0
18.5502 0 0
18.6666 0 0
18.7831 0 0
18.8994 0 0
19.0158 0 0
19.1321 0 0
19.2483 0 0
19.3645 0 0
19.4806 0 0
19.5967 0 0
19.7128 0 0
19.8288 0 0
19.9447 0 0
20.0606 0 1
20.1764 0 1
20.2922 0 1
20.4079 0 1
20.5236 0 1
20.6392 0 1
20.7548 0 1
20.8702 0 1
23.3078 0 1
23.4233 0 1
23.539 0 1
23.6547 0 1
23.7704 0 1
23.8862 0 1
24.0021 0 1
24.118 0 1
24.234 0 1
24.35 0 1
24.4661 720 26.8328
24.5822 759 27.55
24.6984 729 27
24.8146 769 27.7308
24.9309 879 29.6479
25.0472 948 30.7896
25.1636 1097 33.121
25.28 1212 34.8138
25.3965 1294 35.9722
25.513 1362 36.9053
25.6296 1428 37.7889
25.7462 1549 39.3573
25.8628 1644 40.5463
25.9795 1670 40.8656
26.0962 1657 40.7063
26.213 1574 39.6737
26.3298 1512 38.8844
26.4466 1476 38.4187
26.5635 1430 37.8153
26.6804 1451 38.092
26.7973 1365 36.9459
26.9143 1405 37.4833
27.0313 1339 36.5923
27.1483 1389 37.2693
27.2653 1404 37.47
27.3824 1391 37.2961
27.4996 1455 38.1445
27.6167 1347 36.7015
27.7339 1329 36.4555
27.8511 1281 35.7911
27.9683 1309 36.1801
28.0855 1153 33.9559
28.2028 1094 33.0757
28.3201 1078 32.8329
28.4374 957 30.9354
28.5547 1028 32.0624
28.6721 1084 32.9242
28.7894 1291 35.9305
28.9068 1344 36.6606
29.0242 1364 36.9324
29.1416 1344 36.6606
29.259 1345 36.6742
29.3764 1409 37.5366
29.4939 1347 36.7015
29.6113 1351 36.756
29.7288 1338 36.5787
29.8463 1340 36.606
29.9638 1395 37.3497
30.0812 1345 36.6742
30.1987 1339 36.5923
30.3162 1331 36.4829
30.4337 1293 35.9583
30.5512 1277 35.7351
30.6687 1318 36.3043
30.7862 1255 35.426
30.9037 1325 36.4005
31.0212 1290 35.9166
31.1387 1260 35.4965
31.2562 1213 34.8281
31.3737 1247 35.3129
31.4912 1139 33.7491
31.6087 1102 33.1964
31.7262 992 31.496
31.8436 862 29.3598
31.9611 906 30.0998
32.0785 994 31.5278
32.1959 1092 33.0454
32.3134 1155 33.9853
32.4308 1237 35.171
32.5482 1254 35.4119
32.6655 1226 35.0143
32.7829 1207 34.7419
32.9002 1324 36.3868
33.0176 1310 36.1939
33.1349 1265 35.5668
33.2522 1273 35.6791
33.3694 1298 36.0278
33.4867 1229 35.0571
33.6039 1305 36.1248
33.7211 1306 36.1386
33.8383 1298 36.0278
33.9554 1328 36.4417
34.0725 1213 34.8281
34.1896 1260 35.4965
34.3067 1257 35.4542
34.4237 1167 34.1614
34.5407 1242 35.242
34.6577 1215 34.8569
34.7746 1158 34.0294
34.8915 1146 33.8526
35.0084 1075 32.7872
35.1252 1047 32.3574
35.242 1070 32.7109
35.3587 999 31.607
35.4755 875 29.5804
35.5921 888 29.7993
35.7088 871 29.5127
35.8254 920 30.3315
35.9419 978 31.273
36.0584 1101 33.1813
36.1749 1209 34.7707
36.2913 1184 34.4093
36.4077 1230 35.0714
36.524 1203 34.6843
36.6403 1137 33.7194
36.7565 1110 33.3167
36.8727 1059 32.5423
36.9889 1111 33.3317
37.1049 1105 33.2415
37.221 0 1
37.3369 0 1
37.4529 0 1
37.5687 0 1
37.6845 0 1
37.8003 0 1
37.916 0 1
38.0316 0 1
38.1472 0 1
40.5851 0 1
40.7008 0 1
40.8164 0 1
40.9322 0 1
41.048 0 1
41.1639 0 1
41.2798 0 1
41.3958 0 1
41.5118 0 1
41.6279 0 1
41.744 664 25.7682
41.8602 643 25.3574
41.9765 731 27.037
42.0928 734 27.0924
42.2091 817 28.5832
42.3255 831 28.8271
42.4419 902 30.0333
42.5584 857 29.2746
42.675 917 30.282
42.7915 930 30.4959
42.9081 939 30.6431
43.0248 981 31.3209
43.1415 981 31.3209
43.2582 930 30.4959
43.375 974 31.209
43.4918 907 30.1164
43.6087 930 30.4959
43.7256 886 29.7658
43.8425 964 31.0483
43.9595 935 30.5778
44.0765 832 28.8444
44.1935 863 29.3769
44.3106 761 27.5862
44.4277 749 27.3679
44.5448 748 27.3496
44.6619 899 29.9833
44.7791 935 30.5778
44.8963 950 30.8221
45.0136 1020 31.9374
45.1308 991 31.4802
45.2481 1094 33.0757
45.3654 1023 31.9844
45.4827 1030 32.0936
45.6001 1008 31.749
45.7174 1053 32.45
45.8348 1056 32.4962
45.9522 1002 31.6544
46.0697 933 30.545
46.1871 986 31.4006
46.3046 965 31.0644
46.422 955 30.9031
46.5395 968 31.1127
46.657 930 30.4959
46.7745 964 31.0483
46.892 913 30.2159
47.0096 984 31.3688
47.1271 927 30.4467
47.2446 914 30.2324
47.3622 899 29.9833
47.4797 978 31.273
47.5973 949 30.8058
47.7149 925 30.4138
47.8324 882 29.6985
47.95 790 28.1069
48.0675 827 28.7576
48.1851 815 28.5482
48.3027 902 30.0333
48.4202 970 31.1448
48.5378 1063 32.6037
48.6554 1032 32.1248
48.7729 996 31.5595
48.8904 943 30.7083
49.008 1002 31.6544
49.1255 983 31.3528
49.243 1033 32.1403
49.3605 923 30.3809
49.478 934 30.5614
49.5955 912 30.1993
49.713 879 29.6479
49.8304 898 29.9666
49.9479 871 29.5127
50.0653 822 28.6705
50.1827 905 30.0832
50.3001 912 30.1993
50.4175 894 29.8998
50.5348 972 31.1769
50.6521 932 30.5287
50.7694 986 31.4006
50.8867 924 30.3974
51.004 941 30.6757
51.1212 928 30.4631
51.2384 905 30.0832
51.3556 821 28.6531
51.4727 784 28
51.5899 707 26.5895
51.707 808 28.4253
51.824 844 29.0517
51.9411 942 30.692
52.0581 986 31.4006
52.175 925 30.4138
52.2919 915 30.249
52.4088 872 29.5296
52.5257 942 30.692
52.6425 921 30.348
52.7593 889 29.8161
52.876 933 30.545
52.9927 886 29.7658
53.1094 836 28.9137
53.226 858 29.2916
53.3426 838 28.9482
53.4591 887 29.7825
53.5756 832 28.8444
53.692 827 28.7576
53.8084 838 28.9482
53.9248 837 28.931
54.0411 797 28.2312
54.1573 752 27.4226
54.2735 0 1
54.3896 0 1
54.5057 0 1
54.6217 0 1
54.7377 0 1
54.8537 0 1
54.9695 0 1
55.0853 0 1
55.2011 0 1
55.3168 0 1
55.4324 0 1
57.824 0 1
57.9396 0 1
58.0553 0 1
58.1711 0 1
58.2869 0 1
58.4028 0 1
58.5187 0 1
58.6347 0 1
58.7508 0 1
58.8669 0 1
58.983 514 22.6716
59.0992 580 24.0832
59.2155 744 27.2764
59.3318 820 28.6356
59.4482 975 31.225
59.5646 1081 32.8786
59.681 1120 33.4664
59.7975 1160 34.0588
59.9141 1128 33.5857
60.0306 1163 34.1028
60.1473 1083 32.909
60.2639 1083 32.909
60.3807 1040 32.249
60.4974 1139 33.7491
60.6142 1102 33.1964
60.731 1182 34.3802
60.8479 1165 34.1321
60.9648 1175 34.2783
61.0818 1190 34.4964
61.1987 1128 33.5857
61.3158 1075 32.7872
61.4328 1089 33
61.5499 1112 33.3467
61.667 1063 32.6037
61.7841 1139 33.7491
61.9013 1064 32.619
62.0185 1038 32.218
62.1357 1096 33.1059
62.253 1140 33.7639
62.3702 1184 34.4093
62.4875 1224 34.9857
62.6049 1207 34.7419
62.7222 1342 36.6333
62.8396 1403 37.4566
62.9569 1422 37.7094
63.0743 1555 39.4335
63.1918 1470 38.3406
63.3092 1488 38.5746
63.4267 1447 38.0395
63.5441 1375 37.081
63.6616 1291 35.9305
63.7791 1237 35.171
63.8966 1234 35.1283
64.0142 1150 33.9116
64.1317 1247 35.3129
64.2492 1304 36.1109
64.3668 1222 34.9571
64.4843 1189 34.4819
64.6019 1190 34.4964
64.7195 1236 35.1568
64.837 1241 35.2278
64.9546 1266 35.5809
65.0722 1155 33.9853
65.1898 1215 34.8569
65.3074 1257 35.4542
65.4249 1205 34.7131
65.5425 1198 34.6121
65.6601 1112 33.3467
65.7777 1235 35.1426
65.8952 1278 35.7491
66.0128 1280 35.7771
66.1304 1352 36.7696
66.2479 1381 37.1618
66.3655 1472 38.3667
66.483 1626 40.3237
66.6005 1613 40.1622
66.718 1658 40.7185
66.8355 1696 41.1825
66.953 1607 40.0874
67.0705 1533 39.1535
67.1879 1587 39.8372
67.3054 1433 37.855
67.4228 1358 36.8511
67.5402 1191 34.5109
67.6576 1168 34.176
67.7749 1137 33.7194
67.8923 1229 35.0571
68.0096 1302 36.0832
68.1269 1248 35.327
68.2442 1331 36.4829
68.3614 1336 36.5513
68.4787 1360 36.8782
68.5958 1248 35.327
68.713 1240 35.2136
68.8302 1321 36.3456
68.9473 1238 35.1852
69.0643 1266 35.5809
69.1814 1142 33.7935
69.2984 1192 34.5254
69.4154 1208 34.7563
69.5323 1201 34.6554
69.6492 1289 35.9026
69.7661 1307 36.1525
69.8829 1379 37.1349
69.9997 1407 37.51
70.1165 1555 39.4335
70.2332 1457 38.1707
70.3499 1461 38.223
70.4665 1406 37.4967
70.5831 1328 36.4417
70.6996 1305 36.1248
70.8161 1208 34.7563
70.9326 1084 32.9242
71.049 880 29.6648
71.1653 792 28.1425
71.2817 743 27.258
71.3979 679 26.0576
71.5141 582 24.1247
71.6303 565 23.7697
71.7464 518 22.7596
71.8624 0 1
71.9784 0 1
72.0944 0 1
72.2102 0 1
72.3261 0 1
72.4418 0 1
72.5575 0 1
72.6732 0 1
75.1054 0 1
75.2209 0 1
75.3365 0 1
75.4521 0 1
75.5678 0 1
75.6835 0 1
75.7993 0 1
75.9151 0 1
76.031 0 1
76.147 863 29.3769
76.263 945 30.7409
76.3791 900 30
76.4952 845 29.0689
76.6113 857 29.2746
76.7276 855 29.2404
76.8438 917 30.282
76.9601 970 31.1448
77.0765 1043 32.2955
77.1929 1056 32.4962
77.3093 1055 32.4808
77.4258 1056 32.4962
77.5423 1047 32.3574
77.6589 1050 32.4037
77.7755 1069 32.6956
77.8921 1072 32.7414
78.0088 1029 32.078
78.1256 895 29.9166
78.2423 906 30.0998
78.3591 954 30.8869
78.4759 981 31.3209
78.5928 1085 32.9393
78.7097 1207 34.7419
78.8266 1290 35.9166
78.9436 1318 36.3043
79.0606 1369 37
79.1776 1413 37.5899
79.2946 1365 36.9459
79.4117 1460 38.2099
79.5288 1447 38.0395
79.6459 1367 36.973
79.7631 1303 36.0971
79.8802 1257 35.4542
79.9974 1185 34.4238
80.1147 1038 32.218
80.2319 1028 32.0624
80.3491 999 31.607
80.4664 1052 32.4345
80.5837 1054 32.4654
80.701 1101 33.1813
80.8183 1099 33.1512
80.9357 1116 33.4066
81.053 1154 33.9706
81.1704 1145 33.8378
81.2877 1111 33.3317
81.4051 1158 34.0294
81.5225 1130 33.6155
81.6399 1129 33.6006
81.7573 1042 32.28
81.8747 1016 31.8748
81.9922 1019 31.9218
82.1096 980 31.305
82.227 1049 32.3883
82.3444 1154 33.9706
82.4619 1334 36.524
82.5793 1395 37.3497
82.6967 1401 37.4299
82.8142 1514 38.9102
82.9316 1512 38.8844
83.049 1497 38.6911
83.1664 1479 38.4578
83.2838 1446 38.0263
83.4012 1348 36.7151
83.5186 1304 36.1109
83.636 1165 34.1321
83.7534 1179 34.3366
83.8708 1093 33.0606
83.9881 1051 32.4191
84.1055 1047 32.3574
84.2228 1033 32.1403
84.3401 1042 32.28
84.4575 1087 32.9697
84.5747 1172 34.2345
84.692 1092 33.0454
84.8093 1083 32.909
84.9265 1180 34.3511
85.0437 1127 33.5708
85.1609 1163 34.1028
85.2781 992 31.496
85.3952 984 31.3688
85.5123 951 30.8383
85.6294 932 30.5287
85.7465 1005 31.7017
85.8636 1047 32.3574
85.9806 1148 33.8821
86.0976 1251 35.3695
86.2145 1341 36.6197
86.3315 1387 37.2424
86.4484 1479 38.4578
86.5652 1453 38.1182
86.682 1453 38.1182
86.7988 1450 38.0789
86.9156 1335 36.5377
87.0323 1356 36.8239
87.149 1270 35.6371
87.2657 1260 35.4965
87.3823 1180 34.3511
87.4988 1074 32.7719
87.6154 991 31.4802
87.7318 934 30.5614
87.8483 915 30.249
87.9647 926 30.4302
88.081 927 30.4467
88.1973 973 31.1929
88.3136 888 29.7993
88.4298 806 28.3901
88.546 727 26.9629
88.6621 678 26.0384
88.7781 633 25.1595
88.8942 0 1
89.0101 0 1
89.126 0 1
89.2419 0 1
89.3577 0 1
89.4734 0 1
89.5891 0 1
89.7047 0 1
89.8203 0 1
89.9358 0 1
92.3269 0 1
92.4424 0 1
92.558 0 1
92.6736 0 1
92.7893 0 1
92.905 0 1
93.0208 0 1
93.1366 0 1
93.2525 0 1
93.3685 0 1
93.4845 0 1
93.6005 758 27.5318
93.7167 885 29.7489
93.8328 916 30.2655
93.949 938 30.6268
94.0653 991 31.4802
94.1816 1009 31.7648
94.2979 1020 31.9374
94.4143 1078 32.8329
94.5307 1027 32.0468
94.6472 975 31.225
94.7637 976 31.241
94.8803 951 30.8383
94.9969 1125 33.541
95.1135 1148 33.8821
95.2302 1270 35.6371
95.3469 1309 36.1801
95.4637 1422 37.7094
95.5805 1483 38.5097
95.6973 1379 37.1349
95.8142 1396 37.3631
95.9311 1355 36.8103
96.048 1372 37.0405
96.1649 1303 36.0971
96.2819 1270 35.6371
96.3989 1284 35.8329
96.516 1172 34.2345
96.633 1132 33.6452
96.7501 1043 32.2955
96.8673 978 31.273
96.9844 917 30.282
97.1016 963 31.0322
97.2188 1010 31.7805
97.336 1023 31.9844
97.4532 1107 33.2716
97.5704 1040 32.249
97.6877 1080 32.8634
97.805 1063 32.6037
97.9223 1079 32.8481
98.0396 1000 31.6228
98.1569 936 30.5941
98.2743 901 30.0167
98.3916 854 29.2233
98.509 929 30.4795
98.6264 990 31.4643
98.7438 1087 32.9697
98.8612 1159 34.0441
98.9786 1223 34.9714
99.096 1341 36.6197
99.2134 1347 36.7015
99.3308 1392 37.3095
99.4482 1401 37.4299
99.5656 1461 38.223
99.6831 1390 37.2827
99.8005 1384 37.2022
99.9179 1365 36.9459
100.035 1329 36.4555
100.153 1297 36.0139
100.27 1146 33.8526
100.388 1065 32.6343
100.505 983 31.3528
100.622 1034 32.1559
100.74 971 31.1609
100.857 978 31.273
100.975 1059 32.5423
101.092 1065 32.6343
101.209 1095 33.0908
101.327 1041 32.2645
101.444 1097 33.121
101.561 1028 32.0624
101.679 1008 31.749
101.796 907 30.1164
101.913 891 29.8496
102.03 958 30.9516
102.148 1034 32.1559
102.265 1103 33.2114
102.382 1208 34.7563
102.499 1319 36.318
102.616 1372 37.0405
102.733 1456 38.1576
102.851 1442 37.9737
102.968 1546 39.3192
103.085 1548 39.3446
103.202 1587 39.8372
103.319 1582 39.7744
103.436 1514 38.9102
103.552 1437 37.9078
103.669 1386 37.229
103.786 1310 36.1939
103.903 1124 33.5261
104.02 1078 32.8329
104.137 1078 32.8329
104.253 1055 32.4808
104.37 1085 32.9393
104.487 1215 34.8569
104.603 1232 35.0999
104.72 1169 34.1906
104.836 1133 33.6601
104.953 1020 31.9374
105.069 995 31.5436
105.186 960 30.9839
105.302 879 29.6479
105.418 859 29.3087
105.535 778 27.8927
105.651 842 29.0172
105.767 790 28.1069
105.883 838 28.9482
105.999 822 28.6705
106.115 0 1
106.231 0 1
106.347 0 1
106.463 0 1
106.579 0 1
106.694 0 1
106.81 0 1
106.926 0 1
107.041 0 1
107.157 0 1
109.576 0 1
109.692 0 1
109.807 0 1
109.923 0 1
110.039 0 1
110.155 0 1
110.27 0 1
110.386 0 1
110.502 0 1
110.618 474 21.7715
110.735 616 24.8193
110.851 820 28.6356
110.967 908 30.133
111.083 987 31.4166
111.199 1101 33.1813
111.316 1185 34.4238
111.432 1260 35.4965
111.549 1277 35.7351
111.665 1291 35.9305
111.782 1273 35.6791
111.898 1276 35.7211
112.015 1189 34.4819
112.132 1172 34.2345
112.248 1068 32.6803
112.365 1019 31.9218
112.482 977 31.257
112.599 936 30.5941
112.716 936 30.5941
112.832 944 30.7246
112.949 925 30.4138
113.066 1014 31.8434
113.183 990 31.4643
113.3 1021 31.9531
113.417 1013 31.8277
113.534 926 30.4302
113.652 1010 31.7805
113.769 1015 31.8591
113.886 875 29.5804
114.003 894 29.8998
114.12 830 28.8097
114.238 870 29.4958
114.355 1020 31.9374
114.472 1206 34.7275
114.589 1251 35.3695
114.707 1394 37.3363
114.824 1469 38.3275
114.942 1521 39
115.059 1549 39.3573
115.176 1550 39.37
115.294 1554 39.4208
115.411 1543 39.281
115.529 1507 38.8201
115.646 1323 36.3731
115.764 1194 34.5543
115.881 1168 34.176
115.999 1106 33.2566
116.116 1129 33.6006
116.234 1067 32.665
116.351 1092 33.0454
116.469 1030 32.0936
116.586 1076 32.8024
116.704 1124 33.5261
116.821 1094 33.0757
116.939 1134 33.6749
117.056 1060 32.5576
117.174 1156 34
117.291 1124 33.5261
117.409 1158 34.0294
117.526 1049 32.3883
117.644 1061 32.573
117.761 1073 32.7567
117.879 1176 34.2929
117.996 1354 36.7967
118.114 1568 39.598
118.231 1601 40.0125
118.349 1619 40.2368
118.466 1681 41
118.584 1650 40.6202
118.701 1678 40.9634
118.819 1690 41.1096
118.936 1674 40.9145
119.053 1550 39.37
119.171 1500 38.7298
119.288 1350 36.7423
119.405 1276 35.7211
119.523 1247 35.3129
119.64 1147 33.8674
119.757 1087 32.9697
119.875 1044 32.311
119.992 1063 32.6037
120.109 966 31.0805
120.226 1074 32.7719
120.343 1096 33.1059
120.46 1106 33.2566
120.578 1106 33.2566
120.695 1089 33
120.812 1075 32.7872
120.929 1131 33.6303
121.046 1164 34.1174
121.163 1066 32.6497
121.279 1049 32.3883
121.396 1065 32.6343
121.513 1096 33.1059
121.63 1117 33.4215
121.747 1288 35.8887
121.863 1361 36.8917
121.98 1325 36.4005
122.097 1301 36.0694
122.213 1265 35.5668
122.33 1249 35.3412
122.446 1239 35.1994
122.563 1197 34.5977
122.679 1174 34.2637
122.795 955 30.9031
122.912 900 30
123.028 825 28.7228
123.144 812 28.4956
123.26 725 26.9258
123.377 0 1
123.493 0 1
123.609 0 1
123.725 0 1
123.84 0 1
123.956 0 1
124.072 0 1
124.188 0 1
124.303 0 1
124.419 0 1
126.852 0 1
126.968 0 1
127.083 0 1
127.199 0 1
127.315 0 1
127.431 0 1
127.547 0 1
127.663 0 1
127.779 0 1
127.895 0 1
128.011 0 1
128.127 0 1
128.243 0 1
128.359 1268 35.609
128.476 1303 36.0971
128.592 1260 35.4965
128.708 1234 35.1283
128.825 1171 34.2199
128.941 1141 33.7787
129.058 1224 34.9857
129.174 1166 34.1467
129.291 1146 33.8526
129.408 1092 33.0454
129.524 1181 34.3657
129.641 1162 34.0881
129.758 1176 34.2929
129.875 1161 34.0735
129.992 1276 35.7211
130.108 1200 34.641
130.225 1199 34.6266
130.342 1118 33.4365
130.459 1018 31.9061
130.576 1001 31.6386
130.693 1091 33.0303
130.81 1153 33.9559
130.928 1218 34.8999
131.045 1184 34.4093
131.162 1217 34.8855
131.279 1203 34.6843
131.396 1158 34.0294
131.513 1180 34.3511
131.631 1138 33.7343
131.748 1106 33.2566
131.865 1086 32.9545
131.983 1081 32.8786
132.1 1010 31.7805
132.217 1026 32.0312
132.335 985 31.3847
132.452 1028 32.0624
132.57 1028 32.0624
132.687 1023 31.9844
132.804 1003 31.6702
132.922 1007 31.7333
133.039 1020 31.9374
133.157 1036 32.187
133.274 1003 31.6702
133.392 1073 32.7567
133.509 1082 32.8938
133.627 1062 32.5883
133.744 987 31.4166
133.862 961 31
133.979 904 30.0666
134.097 859 29.3087
134.214 840 28.9828
134.332 982 31.3369
134.449 952 30.8545
134.567 977 31.257
134.684 980 31.305
134.802 935 30.5778
134.919 958 30.9516
135.037 957 30.9354
135.154 979 31.289
135.272 1002 31.6544
135.389 1027 32.0468
135.507 964 31.0483
135.624 976 31.241
135.742 992 31.496
135.859 940 30.6594
135.977 990 31.4643
136.094 929 30.4795
136.211 952 30.8545
136.329 979 31.289
136.446 970 31.1448
136.564 1033 32.1403
136.681 974 31.209
136.798 1113 33.3617
136.915 1051 32.4191
137.033 1108 33.2866
137.15 1128 33.5857
137.267 1073 32.7567
137.384 993 31.5119
137.502 884 29.7321
137.619 854 29.2233
137.736 829 28.7924
137.853 844 29.0517
137.97 838 28.9482
138.087 893 29.8831
138.204 963 31.0322
138.321 896 29.9333
138.438 851 29.1719
138.555 898 29.9666
138.672 897 29.95
138.788 908 30.133
138.905 844 29.0517
139.022 861 29.3428
139.139 803 28.3373
139.255 805 28.3725
139.372 745 27.2947
139.488 777 27.8747
139.605 726 26.9444
139.721 685 26.1725
139.838 697 26.4008
139.954 700 26.4575
140.071 718 26.7955
140.187 679 26.0576
140.303 658 25.6515
140.419 613 24.7588
140.535 634 25.1794
140.652 603 24.5561
140.768 0 1
140.884 0 1
141 0 1
141.115 0 1
141.231 0 1
141.347 0 1
141.463 0 1
141.578 0 1
141.694 0 1
144.104 0 1
144.219 0 1
144.335 0 1
144.45 0 1
144.566 0 1
144.682 0 1
144.798 0 1
144.914 0 1
145.03 0 1
145.146 691 26.2869
145.262 673 25.9422
145.378 713 26.7021
145.494 687 26.2107
145.61 731 27.037
145.726 795 28.1957
145.842 757 27.5136
145.959 760 27.5681
146.075 759 27.55
146.192 733 27.074
146.308 616 24.8193
146.425 571 23.8956
146.541 553 23.516
146.658 604 24.5764
146.774 605 24.5967
146.891 608 24.6577
147.008 711 26.6646
147.125 674 25.9615
147.241 694 26.3439
147.358 703 26.5141
147.475 707 26.5895
147.592 761 27.5862
147.709 726 26.9444
147.826 711 26.6646
147.943 671 25.9037
148.06 772 27.7849
148.177 724 26.9072
148.294 721 26.8514
148.411 722 26.8701
148.528 779 27.9106
148.645 755 27.4773
148.762 786 28.0357
148.88 712 26.6833
148.997 823 28.688
149.114 750 27.3861
149.231 741 27.2213
149.349 776 27.8568
149.466 774 27.8209
149.583 793 28.1603
149.701 760 27.5681
149.818 750 27.3861
149.935 675 25.9808
150.053 626 25.02
150.17 620 24.8998
150.287 607 24.6374
150.405 628 25.0599
150.522 625 25
150.64 688 26.2298
150.757 745 27.2947
150.875 676 26
150.992 714 26.7208
151.11 773 27.8029
151.227 723 26.8887
151.344 764 27.6405
151.462 723 26.8887
151.579 740 27.2029
151.697 769 27.7308
151.814 789 28.0891
151.932 765 27.6586
152.049 803 28.3373
152.167 762 27.6043
152.284 819 28.6182
152.402 723 26.8887
152.519 788 28.0713
152.636 765 27.6586
152.754 770 27.7489
152.871 780 27.9285
152.989 806 28.3901
153.106 831 28.8271
153.223 863 29.3769
153.341 765 27.6586
153.458 726 26.9444
153.575 746 27.313
153.693 701 26.4764
153.81 732 27.0555
153.927 735 27.1109
154.044 784 28
154.162 873 29.5466
154.279 866 29.4279
154.396 1000 31.6228
154.513 956 30.9192
154.63 1003 31.6702
154.747 1098 33.1361
154.864 1037 32.2025
154.981 1029 32.078
155.098 1014 31.8434
155.215 1027 32.0468
155.332 935 30.5778
155.449 1020 31.9374
155.566 957 30.9354
155.683 953 30.8707
155.8 991 31.4802
155.917 912 30.1993
156.033 904 30.0666
156.15 0 1
156.267 0 1
156.383 0 1
156.5 0 1
156.617 0 1
156.733 0 1
156.85 0 1
156.966 0 1
157.082 0 1
157.199 0 1
157.315 0 1
157.431 0 1
157.547 0 1
157.664 0 1
157.78 0 1
157.896 0 1
158.012 0 1
158.128 0 1
158.244 0 1
158.359 0 1
158.475 0 1
158.591 0 1
158.706 0 1
