
6.15755 0 1
6.2731 0 1
6.3887 0 1
6.50437 0 1
6.62009 0 1
6.73587 0 1
6.8517 0 1
6.96759 0 1
7.08353 0 1
7.19952 0 1
7.31557 0 1
7.43166 0 1
7.54781 0 1
7.664 0 1
7.78024 0 1
7.89653 0 1
8.01286 0 1
8.12924 0 1
8.24567 0 1
8.36213 0 1
8.47864 0 1
8.59519 0 1
8.71178 0 1
8.82841 0 1
8.94508 0 1
9.06179 0 1
9.17853 0 1
9.29531 0 1
9.41212 0 1
9.52897 0 1
9.64584 0 1
9.76276 0 1
9.8797 0 1
9.99667 0 1
10.1137 0 1
10.2307 0 1
10.3478 0 1
10.4648 0 1
10.5819 0 1
10.6991 0 1
10.8162 0 1
10.9334 0 1
11.0506 0 1
11.1678 0 1
11.285 0 1
11.4023 0 1
11.5196 0 1
11.6369 0 1
11.7542 0 1
11.8715 0 1
11.9888 0 1
12.1062 0 1
12.2235 0 1
12.3409 0 1
12.4582 0 1
12.5756 0 1
12.693 0 1
12.8104 0 1
12.9278 0 1
13.0452 0 1
13.1626 0 1
13.28 0 1
13.3974 0 1
13.5149 0 1
13.6323 0 1
13.7497 0 1
13.8671 0 1
13.9845 0 1
14.1019 0 1
14.2193 0 1
14.3367 0 1
14.4541 0 1
14.5714 0 1
14.6888 0 1
14.8062 0 1
14.9235 0 1
15.0408 0 0
15.1581 0 0
15.2755 0 0
15.3927 0 0
15.51 0 0
15.6273 0 0
15.7445 0 0
15.8617 0 0
15.9789 0 0
16.0961 0 0
16.2132 0 0
16.3304 0 0
16.4475 0 0
16.5646 0 0
16.6816 0 0
16.7986 0 0
16.9156 0 0
17.0326 0 0
17.1496 0 0
17.2665 0 0
17.3833 0 0
17.5002 0 0
17.617 0 0
17.7338 0 0
17.8505 0 0
17.9672 0 0
18.0839 0 0
18.2005 0 0
18.3171 0 0
18.4337 0 0
18.5502 0 0
18.6666 0 0
18.7831 0 0
18.8994 0 0
19.0158 0 0
19.1321 0 0
19.2483 0 0
19.3645 0 0
19.4806 0 0
19.5967 0 0
19.7128 0 0
19.8288 0 0
19.9447 0 0
20.0606 0 1
20.1764 0 1
20.2922 0 1
20.4079 0 1
20.5236 0 1
20.6392 0 1
20.7548 0 1
20.8702 0 1
23.3078 0 1
23.4233 0 1
23.539 0 1
23.6547 0 1
23.7704 0 1
23.8862 0 1
24.0021 0 1
24.118 0 1
24.234 0 1
24.35 0 1
24.4661 1238 35.1852
24.5822 1366 36.9594
24.6984 1430 37.8153
24.8146 1640 40.4969
24.9309 1841 42.9069
25.0472 2128 46.1303
25.1636 2400 48.9898
25.28 2519 50.1896
25.3965 2503 50.03
25.513 2537 50.3686
25.6296 2571 50.705
25.7462 2545 50.448
25.8628 2553 50.5272
25.9795 2531 50.309
26.0962 2551 50.5074
26.213 2701 51.9711
26.3298 2728 52.2303
26.4466 2697 51.9326
26.5635 2604 51.0294
26.6804 2625 51.2348
26.7973 2657 51.5461
26.9143 2463 49.6286
27.0313 2535 50.3488
27.1483 2411 49.1019
27.2653 2410 49.0918
27.3824 2246 47.392
27.4996 2222 47.1381
27.6167 2051 45.288
27.7339 2129 46.1411
27.8511 2263 47.571
27.9683 2321 48.1768
28.0855 2394 48.9285
28.2028 2417 49.163
28.3201 2376 48.7442
28.4374 2443 49.4267
28.5547 2380 48.7852
28.6721 2458 49.5782
28.7894 2331 48.2804
28.9068 2402 49.0102
29.0242 2418 49.1732
29.1416 2465 49.6488
29.259 2497 49.97
29.3764 2438 49.3761
29.4939 2355 48.5283
29.6113 2294 47.8957
29.7288 2216 47.0744
29.8463 2247 47.4025
29.9638 2269 47.634
30.0812 2250 47.4342
30.1987 2232 47.244
30.3162 2300 47.9583
30.4337 2370 48.6826
30.5512 2400 48.9898
30.6687 2343 48.4045
30.7862 2423 49.224
30.9037 2239 47.3181
31.0212 2178 46.669
31.1387 2288 47.833
31.2562 2289 47.8435
31.3737 2321 48.1768
31.4912 2353 48.5077
31.6087 2397 48.9592
31.7262 2331 48.2804
31.8436 2391 48.8979
31.9611 2505 50.05
32.0785 2391 48.8979
32.1959 2401 49
32.3134 2355 48.5283
32.4308 2277 47.7179
32.5482 2259 47.5289
32.6655 2234 47.2652
32.7829 2144 46.3033
32.9002 2165 46.5296
33.0176 2097 45.793
33.1349 2091 45.7275
33.2522 2141 46.2709
33.3694 2128 46.1303
33.4867 2135 46.2061
33.6039 2162 46.4973
33.7211 2129 46.1411
33.8383 2168 46.5618
33.9554 2274 47.6865
34.0725 2322 48.1871
34.1896 2407 49.0612
34.3067 2317 48.1352
34.4237 2331 48.2804
34.5407 2218 47.0956
34.6577 2087 45.6837
34.7746 2078 45.5851
34.8915 2119 46.0326
35.0084 2273 47.676
35.1252 2395 48.9387
35.242 2380 48.7852
35.3587 2339 48.3632
35.4755 2372 48.7032
35.5921 2273 47.676
35.7088 2258 47.5184
35.8254 2247 47.4025
35.9419 2229 47.2123
36.0584 2007 44.7996
36.1749 2015 44.8888
36.2913 2024 44.9889
36.4077 1878 43.3359
36.524 1866 43.1972
36.6403 1574 39.6737
36.7565 1508 38.833
36.8727 1437 37.9078
36.9889 1405 37.4833
37.1049 1383 37.1887
37.221 0 1
37.3369 0 1
37.4529 0 1
37.5687 0 1
37.6845 0 1
37.8003 0 1
37.916 0 1
38.0316 0 1
38.1472 0 1
40.5851 0 1
40.7008 0 1
40.8164 0 1
40.9322 0 1
41.048 0 1
41.1639 0 1
41.2798 0 1
41.3958 0 1
41.5118 0 1
41.6279 0 1
41.744 1864 43.1741
41.8602 2467 49.6689
41.9765 2945 54.2679
42.0928 3091 55.5968
42.2091 3108 55.7494
42.3255 3103 55.7046
42.4419 3234 56.8683
42.5584 3300 57.4456
42.675 3355 57.9224
42.7915 3398 58.2924
42.9081 3453 58.7622
43.0248 3530 59.4138
43.1415 3463 58.8473
43.2582 3339 57.7841
43.375 3106 55.7315
43.4918 3079 55.4887
43.6087 3160 56.2139
43.7256 3120 55.857
43.8425 3248 56.9912
43.9595 3214 56.6922
44.0765 3207 56.6304
44.1935 3093 55.6147
44.3106 3059 55.3082
44.4277 2902 53.8702
44.5448 2752 52.4595
44.6619 2672 51.6914
44.7791 2638 51.3615
44.8963 2451 49.5076
45.0136 2319 48.156
45.1308 2256 47.4974
45.2481 2058 45.3652
45.3654 2013 44.8665
45.4827 1948 44.1362
45.6001 1893 43.5086
45.7174 1828 42.7551
45.8348 1757 41.9166
45.9522 1812 42.5676
46.0697 1891 43.4856
46.1871 1892 43.4971
46.3046 2011 44.8442
46.422 1942 44.0681
46.5395 2014 44.8776
46.657 2034 45.0999
46.7745 1995 44.6654
46.892 1923 43.852
47.0096 1804 42.4735
47.1271 1910 43.7035
47.2446 1909 43.6921
47.3622 1939 44.0341
47.4797 1950 44.1588
47.5973 2040 45.1664
47.7149 1990 44.6094
47.8324 2035 45.111
47.95 1972 44.4072
48.0675 1936 44
48.1851 1932 43.9545
48.3027 1850 43.0116
48.4202 1889 43.4626
48.5378 1824 42.7083
48.6554 1830 42.7785
48.7729 1795 42.3674
48.8904 1756 41.9047
49.008 1742 41.7373
49.1255 1729 41.5812
49.243 1753 41.8688
49.3605 1773 42.107
49.478 1783 42.2256
49.5955 1802 42.45
49.713 1820 42.6615
49.8304 1913 43.7379
49.9479 1842 42.9185
50.0653 1970 44.3847
50.1827 1975 44.441
50.3001 1832 42.8019
50.4175 1578 39.724
50.5348 1539 39.2301
50.6521 1642 40.5216
50.7694 1825 42.72
50.8867 1900 43.589
51.004 2017 44.911
51.1212 1945 44.1022
51.2384 1908 43.6807
51.3556 1931 43.9431
51.4727 1911 43.715
51.5899 1939 44.0341
51.707 1884 43.4051
51.824 1890 43.4741
51.9411 1823 42.6966
52.0581 1786 42.2611
52.175 1820 42.6615
52.2919 1860 43.1277
52.4088 1788 42.2847
52.5257 1771 42.0833
52.6425 1727 41.5572
52.7593 1699 41.2189
52.876 1780 42.19
52.9927 1708 41.328
53.1094 1713 41.3884
53.226 1781 42.2019
53.3426 1708 41.328
53.4591 1745 41.7732
53.5756 1546 39.3192
53.692 1283 35.819
53.8084 1294 35.9722
53.9248 1086 32.9545
54.0411 1014 31.8434
54.1573 1022 31.9687
54.2735 0 1
54.3896 0 1
54.5057 0 1
54.6217 0 1
54.7377 0 1
54.8537 0 1
54.9695 0 1
55.0853 0 1
55.2011 0 1
55.3168 0 1
55.4324 0 1
57.824 0 1
57.9396 0 1
58.0553 0 1
58.1711 0 1
58.2869 0 1
58.4028 0 1
58.5187 0 1
58.6347 0 1
58.7508 0 1
58.8669 0 1
58.983 1575 39.6863
59.0992 1586 39.8246
59.2155 1603 40.0375
59.3318 1773 42.107
59.4482 1964 44.317
59.5646 2158 46.4543
59.681 2134 46.1952
59.7975 2232 47.244
59.9141 2318 48.1456
60.0306 2235 47.2758
60.1473 2384 48.8262
60.2639 2302 47.9792
60.3807 2378 48.7647
60.4974 2371 48.6929
60.6142 2318 48.1456
60.731 2284 47.7912
60.8479 2349 48.4665
60.9648 2264 47.5815
61.0818 2330 48.2701
61.1987 2258 47.5184
61.3158 2209 47
61.4328 2145 46.3141
61.5499 2183 46.7226
61.667 2248 47.4131
61.7841 2227 47.1911
61.9013 2216 47.0744
62.0185 2367 48.6518
62.1357 2250 47.4342
62.253 2145 46.3141
62.3702 2170 46.5833
62.4875 2156 46.4327
62.6049 2047 45.2438
62.7222 2032 45.0777
62.8396 2145 46.3141
62.9569 2295 47.9062
63.0743 2395 48.9387
63.1918 2347 48.4458
63.3092 2421 49.2037
63.4267 2333 48.3011
63.5441 2374 48.7237
63.6616 2374 48.7237
63.7791 2253 47.4658
63.8966 2260 47.5395
64.0142 2270 47.6445
64.1317 2257 47.5079
64.2492 2380 48.7852
64.3668 2349 48.4665
64.4843 2265 47.592
64.6019 2204 46.9468
64.7195 2269 47.634
64.837 2119 46.0326
64.9546 2132 46.1736
65.0722 2185 46.744
65.1898 2107 45.9021
65.3074 2207 46.9787
65.4249 2114 45.9783
65.5425 2257 47.5079
65.6601 2187 46.7654
65.7777 2172 46.6047
65.8952 2296 47.9166
66.0128 2096 45.7821
66.1304 1929 43.9204
66.2479 1847 42.9767
66.3655 1901 43.6005
66.483 2010 44.833
66.6005 2309 48.0521
66.718 2307 48.0312
66.8355 2231 47.2335
66.953 2399 48.9796
67.0705 2372 48.7032
67.1879 2288 47.833
67.3054 2172 46.6047
67.4228 2268 47.6235
67.5402 2182 46.7119
67.6576 2252 47.4552
67.7749 2207 46.9787
67.8923 2312 48.0833
68.0096 2225 47.1699
68.1269 2244 47.3709
68.2442 2220 47.1169
68.3614 2243 47.3603
68.4787 2128 46.1303
68.5958 2102 45.8476
68.713 2127 46.1194
68.8302 2127 46.1194
68.9473 2073 45.5302
69.0643 2070 45.4973
69.1814 2108 45.913
69.2984 2184 46.7333
69.4154 2123 46.076
69.5323 2173 46.6154
69.6492 2042 45.1885
69.7661 1780 42.19
69.8829 1634 40.4228
69.9997 1729 41.5812
70.1165 1971 44.3959
70.2332 2019 44.9333
70.3499 1785 42.2493
70.4665 1686 41.0609
70.5831 1578 39.724
70.6996 1477 38.4318
70.8161 1515 38.923
70.9326 1433 37.855
71.049 1276 35.7211
71.1653 1290 35.9166
71.2817 1213 34.8281
71.3979 1199 34.6266
71.5141 1156 34
71.6303 1107 33.2716
71.7464 1080 32.8634
71.8624 0 1
71.9784 0 1
72.0944 0 1
72.2102 0 1
72.3261 0 1
72.4418 0 1
72.5575 0 1
72.6732 0 1
75.1054 0 1
75.2209 0 1
75.3365 0 1
75.4521 0 1
75.5678 0 1
75.6835 0 1
75.7993 0 1
75.9151 0 1
76.031 0 1
76.147 1773 42.107
76.263 1960 44.2719
76.3791 1996 44.6766
76.4952 2065 45.4423
76.6113 2046 45.2327
76.7276 2076 45.5631
76.8438 2113 45.9674
76.9601 2116 46
77.0765 2096 45.7821
77.1929 2150 46.3681
77.3093 2058 45.3652
77.4258 2108 45.913
77.5423 2052 45.299
77.6589 2047 45.2438
77.7755 1950 44.1588
77.8921 2056 45.3431
78.0088 1987 44.5758
78.1256 2016 44.8999
78.2423 1996 44.6766
78.3591 2080 45.607
78.4759 2010 44.833
78.5928 2059 45.3762
78.7097 1917 43.7836
78.8266 1513 38.8973
78.9436 1453 38.1182
79.0606 1514 38.9102
79.1776 1733 41.6293
79.2946 1967 44.3509
79.4117 2130 46.1519
79.5288 2189 46.7868
79.6459 2165 46.5296
79.7631 2123 46.076
79.8802 2140 46.2601
79.9974 2084 45.6508
80.1147 2133 46.1844
80.2319 2147 46.3357
80.3491 2203 46.9361
80.4664 2102 45.8476
80.5837 2188 46.7761
80.701 2171 46.594
80.8183 2223 47.1487
80.9357 2295 47.9062
81.053 2257 47.5079
81.1704 2126 46.1086
81.2877 2271 47.655
81.4051 2139 46.2493
81.5225 2145 46.3141
81.6399 2144 46.3033
81.7573 2243 47.3603
81.8747 2287 47.8226
81.9922 2377 48.7545
82.1096 2517 50.1697
82.227 2588 50.8724
82.3444 2478 49.7795
82.4619 2026 45.0111
82.5793 1969 44.3734
82.6967 2083 45.6399
82.8142 2618 51.1664
82.9316 3039 55.1271
83.049 3245 56.9649
83.1664 3522 59.3464
83.2838 3690 60.7454
83.4012 3676 60.63
83.5186 3669 60.5723
83.636 3817 61.7819
83.7534 3911 62.538
83.8708 3960 62.9285
83.9881 4011 63.3325
84.1055 4046 63.6082
84.2228 4018 63.3877
84.3401 4116 64.1561
84.4575 4224 64.9923
84.5747 4079 63.867
84.692 4123 64.2106
84.8093 4161 64.5058
84.9265 4073 63.8201
85.0437 4153 64.4438
85.1609 3998 63.2297
85.2781 3889 62.3618
85.3952 4067 63.773
85.5123 4122 64.2028
85.6294 3985 63.1269
85.7465 3952 62.8649
85.8636 3659 60.4897
85.9806 3117 55.8301
86.0976 2632 51.303
86.2145 2617 51.1566
86.3315 2837 53.2635
86.4484 3624 60.1997
86.5652 3898 62.434
86.682 3973 63.0317
86.7988 3926 62.6578
86.9156 3836 61.9355
87.0323 3899 62.442
87.149 4038 63.5453
87.2657 4082 63.8905
87.3823 4019 63.3956
87.4988 3583 59.8582
87.6154 3574 59.7829
87.7318 3148 56.107
87.8483 3043 55.1634
87.9647 2885 53.7122
88.081 2859 53.4696
88.1973 2722 52.1728
88.3136 2615 51.1371
88.4298 2525 50.2494
88.546 2346 48.4355
88.6621 2354 48.518
88.7781 2304 48
88.8942 0 1
89.0101 0 1
89.126 0 1
89.2419 0 1
89.3577 0 1
89.4734 0 1
89.5891 0 1
89.7047 0 1
89.8203 0 1
89.9358 0 1
92.3269 0 1
92.4424 0 1
92.558 0 1
92.6736 0 1
92.7893 0 1
92.905 0 1
93.0208 0 1
93.1366 0 1
93.2525 0 1
93.3685 0 1
93.4845 0 1
93.6005 4113 64.1327
93.7167 4113 64.1327
93.8328 4092 63.9687
93.949 4043 63.5846
94.0653 4005 63.2851
94.1816 4117 64.1639
94.2979 4210 64.8845
94.4143 4127 64.2417
94.5307 4031 63.4902
94.6472 4008 63.3088
94.7637 3945 62.8092
94.8803 3660 60.4979
94.9969 3129 55.9375
95.1135 2864 53.5164
95.2302 3055 55.2721
95.3469 3561 59.6741
95.4637 3901 62.458
95.5805 4123 64.2106
95.6973 4266 65.3146
95.8142 4175 64.6142
95.9311 4254 65.2227
96.048 4165 64.5368
96.1649 4231 65.0461
96.2819 4309 65.643
96.3989 4194 64.7611
96.516 4191 64.7379
96.633 4214 64.9153
96.7501 4257 65.2457
96.8673 4345 65.9166
96.9844 4632 68.0588
97.1016 4467 66.8356
97.2188 4389 66.2495
97.336 4379 66.174
97.4532 4289 65.4905
97.5704 4128 64.2495
97.6877 4187 64.707
97.805 4078 63.8592
97.9223 4218 64.9461
98.0396 4039 63.5531
98.1569 3853 62.0725
98.2743 3869 62.2013
98.3916 3391 58.2323
98.509 2928 54.111
98.6264 2634 51.3225
98.7438 2615 51.1371
98.8612 2898 53.8331
98.9786 3207 56.6304
99.096 3321 57.6281
99.2134 3206 56.6216
99.3308 3109 55.7584
99.4482 2995 54.7266
99.5656 2910 53.9444
99.6831 2784 52.7636
99.8005 2811 53.0189
99.9179 2892 53.7773
100.035 2745 52.3927
100.153 2662 51.5946
100.27 2852 53.4041
100.388 2857 53.4509
100.505 2972 54.5161
100.622 2927 54.1018
100.74 2911 53.9537
100.857 2936 54.1849
100.975 2760 52.5357
101.092 2843 53.3198
101.209 2720 52.1536
101.327 2768 52.6118
101.444 2737 52.3163
101.561 2919 54.0278
101.679 2834 53.2353
101.796 2741 52.3546
101.913 2621 51.1957
102.03 2488 49.8799
102.148 2246 47.392
102.265 2075 45.5522
102.382 2281 47.7598
102.499 2480 49.7996
102.616 2623 51.2152
102.733 2647 51.449
102.851 2570 50.6952
102.968 2656 51.5364
103.085 2620 51.1859
103.202 2574 50.7346
103.319 2631 51.2933
103.436 2565 50.6458
103.552 2585 50.8429
103.669 2525 50.2494
103.786 2537 50.3686
103.903 2509 50.0899
104.02 2589 50.8822
104.137 2557 50.5668
104.253 2743 52.3737
104.37 2461 49.6085
104.487 2451 49.5076
104.603 2424 49.2341
104.72 2445 49.4469
104.836 2227 47.1911
104.953 1951 44.1701
105.069 1809 42.5323
105.186 1643 40.5339
105.302 1549 39.3573
105.418 1468 38.3145
105.535 1239 35.1994
105.651 1100 33.1662
105.767 988 31.4325
105.883 803 28.3373
105.999 819 28.6182
106.115 0 1
106.231 0 1
106.347 0 1
106.463 0 1
106.579 0 1
106.694 0 1
106.81 0 1
106.926 0 1
107.041 0 1
107.157 0 1
109.576 0 1
109.692 0 1
109.807 0 1
109.923 0 1
110.039 0 1
110.155 0 1
110.27 0 1
110.386 0 1
110.502 0 1
110.618 2579 50.7839
110.735 2627 51.2543
110.851 2498 49.98
110.967 2294 47.8957
111.083 2302 47.9792
111.199 2426 49.2544
111.316 2640 51.3809
111.432 2833 53.2259
111.549 2902 53.8702
111.665 2864 53.5164
111.782 2743 52.3737
111.898 2923 54.0648
112.015 2717 52.1249
112.132 2762 52.5547
112.248 2809 53
112.365 2874 53.6097
112.482 2697 51.9326
112.599 2984 54.626
112.716 3045 55.1815
112.832 2998 54.754
112.949 3102 55.6956
113.066 3090 55.5878
113.183 3188 56.4624
113.3 3155 56.1694
113.417 3004 54.8088
113.534 3018 54.9363
113.652 3169 56.2939
113.769 3061 55.3263
113.886 3177 56.3649
114.003 3110 55.7674
114.12 3146 56.0892
114.238 2991 54.69
114.355 2747 52.4118
114.472 2465 49.6488
114.589 2368 48.6621
114.707 2501 50.01
114.824 2708 52.0384
114.942 2991 54.69
115.059 2969 54.4885
115.176 2940 54.2218
115.294 2919 54.0278
115.411 2878 53.647
115.529 2756 52.4976
115.646 2827 53.1695
115.764 2883 53.6936
115.881 2942 54.2402
115.999 2908 53.9259
116.116 2905 53.8981
116.234 3007 54.8361
116.351 3015 54.909
116.469 3130 55.9464
116.586 3208 56.6392
116.704 3244 56.9561
116.821 3208 56.6392
116.939 3212 56.6745
117.056 3152 56.1427
117.174 3292 57.376
117.291 3091 55.5968
117.409 3215 56.701
117.526 3126 55.9106
117.644 3177 56.3649
117.761 3163 56.2406
117.879 2990 54.6809
117.996 2769 52.6213
118.114 2541 50.4083
118.231 2470 49.6991
118.349 2661 51.5849
118.466 2769 52.6213
118.584 2943 54.2494
118.701 2957 54.3783
118.819 2948 54.2955
118.936 2823 53.1319
119.053 2906 53.9073
119.171 2849 53.376
119.288 2828 53.1789
119.405 2816 53.066
119.523 2809 53
119.64 2726 52.2111
119.757 2849 53.376
119.875 2957 54.3783
119.992 2923 54.0648
120.109 2979 54.5802
120.226 2931 54.1387
120.343 3069 55.3986
120.46 3116 55.8211
120.578 2975 54.5436
120.695 2955 54.3599
120.812 3031 55.0545
120.929 2840 53.2917
121.046 2911 53.9537
121.163 3000 54.7723
121.279 2818 53.0848
121.396 2852 53.4041
121.513 2773 52.6593
121.63 2581 50.8035
121.747 2318 48.1456
121.863 2043 45.1996
121.98 1990 44.6094
122.097 1982 44.5197
122.213 2058 45.3652
122.33 2112 45.9565
122.446 2015 44.8888
122.563 1943 44.0795
122.679 1909 43.6921
122.795 1831 42.7902
122.912 1778 42.1663
123.028 1693 41.1461
123.144 1743 41.7493
123.26 1658 40.7185
123.377 0 1
123.493 0 1
123.609 0 1
123.725 0 1
123.84 0 1
123.956 0 1
124.072 0 1
124.188 0 1
124.303 0 1
124.419 0 1
126.852 0 1
126.968 0 1
127.083 0 1
127.199 0 1
127.315 0 1
127.431 0 1
127.547 0 1
127.663 0 1
127.779 0 1
127.895 0 1
128.011 0 1
128.127 0 1
128.243 0 1
128.359 3329 57.6975
128.476 3381 58.1464
128.592 3335 57.7495
128.708 3357 57.9396
128.825 3301 57.4543
128.941 3402 58.3267
129.058 3498 59.1439
129.174 3625 60.208
129.291 3547 59.5567
129.408 3444 58.6856
129.524 3751 61.2454
129.641 3732 61.0901
129.758 3850 62.0484
129.875 3925 62.6498
129.992 4022 63.4192
130.108 4017 63.3798
130.225 4053 63.6632
130.342 3937 62.7455
130.459 3889 62.3618
130.576 3829 61.8789
130.693 3525 59.3717
130.81 3605 60.0417
130.928 3543 59.5231
131.045 3662 60.5145
131.162 3754 61.2699
131.279 3839 61.9597
131.396 4009 63.3167
131.513 3884 62.3217
131.631 3896 62.4179
131.748 3814 61.7576
131.865 3866 62.1772
131.983 3713 60.9344
132.1 3695 60.7865
132.217 3622 60.1831
132.335 3800 61.6441
132.452 3798 61.6279
132.57 3665 60.5392
132.687 3575 59.7913
132.804 3986 63.1348
132.922 3849 62.0403
133.039 3812 61.7414
133.157 3800 61.6441
133.274 3981 63.0952
133.392 3867 62.1852
133.509 4034 63.5138
133.627 4091 63.9609
133.744 4157 64.4748
133.862 4260 65.2687
133.979 4140 64.3428
134.097 4092 63.9687
134.214 4037 63.5374
134.332 3831 61.8951
134.449 4010 63.3246
134.567 3868 62.1932
134.684 4069 63.7887
134.802 4181 64.6607
134.919 4133 64.2884
135.037 4216 64.9307
135.154 4125 64.2262
135.272 4017 63.3798
135.389 4024 63.435
135.507 3983 63.111
135.624 3961 62.9365
135.742 3865 62.1691
135.859 3948 62.8331
135.977 3949 62.8411
136.094 3867 62.1852
136.211 3826 61.8547
136.329 3846 62.0161
136.446 3820 61.8061
136.564 3979 63.0793
136.681 3981 63.0952
136.798 3896 62.4179
136.915 3956 62.8967
137.033 3997 63.2218
137.15 4046 63.6082
137.267 4035 63.5216
137.384 4046 63.6082
137.502 4181 64.6607
137.619 4019 63.3956
137.736 3998 63.2297
137.853 3759 61.3107
137.97 3781 61.4898
138.087 3714 60.9426
138.204 3758 61.3025
138.321 3783 61.5061
138.438 3953 62.8729
138.555 3927 62.6658
138.672 3864 62.1611
138.788 3901 62.458
138.905 3826 61.8547
139.022 3729 61.0655
139.139 3677 60.6383
139.255 3387 58.1979
139.372 3266 57.1489
139.488 3124 55.8928
139.605 2999 54.7631
139.721 2975 54.5436
139.838 2866 53.535
139.954 2801 52.9245
140.071 2796 52.8772
140.187 2676 51.7301
140.303 2722 52.1728
140.419 2756 52.4976
140.535 2831 53.2071
140.652 2738 52.3259
140.768 0 1
140.884 0 1
141 0 1
141.115 0 1
141.231 0 1
141.347 0 1
141.463 0 1
141.578 0 1
141.694 0 1
144.104 0 1
144.219 0 1
144.335 0 1
144.45 0 1
144.566 0 1
144.682 0 1
144.798 0 1
144.914 0 1
145.03 0 1
145.146 8030 89.6103
145.262 8296 91.0824
145.378 8436 91.8477
145.494 8304 91.1263
145.61 8567 92.5581
145.726 8683 93.1826
145.842 8618 92.8332
145.959 8648 92.9946
146.075 8585 92.6553
146.192 8666 93.0914
146.308 8712 93.3381
146.425 8246 90.8075
146.541 7642 87.4185
146.658 6757 82.201
146.774 5671 75.306
146.891 5468 73.9459
147.008 6133 78.3135
147.125 7459 86.3655
147.241 7999 89.4371
147.358 8297 91.0879
147.475 8408 91.6951
147.592 8408 91.6951
147.709 8379 91.5369
147.826 8583 92.6445
147.943 8446 91.9021
148.06 8535 92.3851
148.177 8464 92
148.294 8540 92.4121
148.411 8438 91.8586
148.528 8638 92.9408
148.645 8589 92.6769
148.762 8403 91.6679
148.88 8668 93.1021
148.997 8332 91.2798
149.114 8941 94.5569
149.231 8662 93.0699
149.349 8687 93.2041
149.466 8772 93.659
149.583 8830 93.9681
149.701 8749 93.5361
149.818 8842 94.0319
149.935 8773 93.6643
150.053 8741 93.4933
150.17 8465 92.0054
150.287 7643 87.4243
150.405 6372 79.8248
150.522 5875 76.6485
150.64 6177 78.5939
150.757 7430 86.1974
150.875 8181 90.4489
150.992 8575 92.6013
151.11 8328 91.2579
151.227 8527 92.3418
151.344 8475 92.0598
151.462 8517 92.2876
151.579 8582 92.6391
151.697 8646 92.9839
151.814 8688 93.2094
151.932 8860 94.1276
152.049 8715 93.3542
152.167 8495 92.1683
152.284 8657 93.043
152.402 8858 94.1169
152.519 8739 93.4826
152.636 8920 94.4458
152.754 8885 94.2603
152.871 8876 94.2125
152.989 8780 93.7017
153.106 9167 95.7445
153.223 9137 95.5877
153.341 9034 95.0474
153.458 9106 95.4254
153.575 8901 94.3451
153.693 8956 94.6361
153.81 8364 91.4549
153.927 7979 89.3252
154.044 6666 81.6456
154.162 6112 78.1793
154.279 6717 81.9573
154.396 7701 87.7553
154.513 8469 92.0272
154.63 8942 94.5621
154.747 8763 93.6109
154.864 8647 92.9892
154.981 8764 93.6162
155.098 8586 92.6607
155.215 8621 92.8493
155.332 8187 90.482
155.449 8264 90.9065
155.566 7835 88.5155
155.683 8010 89.4986
155.8 7718 87.8521
155.917 7614 87.2582
156.033 7507 86.6429
156.15 0 1
156.267 0 1
156.383 0 1
156.5 0 1
156.617 0 1
156.733 0 1
156.85 0 1
156.966 0 1
157.082 0 1
157.199 0 1
157.315 0 1
157.431 0 1
157.547 0 1
157.664 0 1
157.78 0 1
157.896 0 1
158.012 0 1
158.128 0 1
158.244 0 1
158.359 0 1
158.475 0 1
158.591 0 1
158.706 0 1
