
6.15755 0 1
6.2731 0 1
6.3887 0 1
6.50437 0 1
6.62009 0 1
6.73587 0 1
6.8517 0 1
6.96759 0 1
7.08353 0 1
7.19952 0 1
7.31557 0 1
7.43166 0 1
7.54781 0 1
7.664 0 1
7.78024 0 1
7.89653 0 1
8.01286 0 1
8.12924 0 1
8.24567 0 1
8.36213 0 1
8.47864 0 1
8.59519 0 1
8.71178 0 1
8.82841 0 1
8.94508 0 1
9.06179 0 1
9.17853 0 1
9.29531 0 1
9.41212 0 1
9.52897 0 1
9.64584 0 1
9.76276 0 1
9.8797 0 1
9.99667 0 1
10.1137 0 1
10.2307 0 1
10.3478 0 1
10.4648 0 1
10.5819 0 1
10.6991 0 1
10.8162 0 1
10.9334 0 1
11.0506 0 1
11.1678 0 1
11.285 0 1
11.4023 0 1
11.5196 0 1
11.6369 0 1
11.7542 0 1
11.8715 0 1
11.9888 0 1
12.1062 0 1
12.2235 0 1
12.3409 0 1
12.4582 0 1
12.5756 0 1
12.693 0 1
12.8104 0 1
12.9278 0 1
13.0452 0 1
13.1626 0 1
13.28 0 1
13.3974 0 1
13.5149 0 1
13.6323 0 1
13.7497 0 1
13.8671 0 1
13.9845 0 1
14.1019 0 1
14.2193 0 1
14.3367 0 1
14.4541 0 1
14.5714 0 1
14.6888 0 1
14.8062 0 1
14.9235 0 1
15.0408 0 0
15.1581 0 0
15.2755 0 0
15.3927 0 0
15.51 0 0
15.6273 0 0
15.7445 0 0
15.8617 0 0
15.9789 0 0
16.0961 0 0
16.2132 0 0
16.3304 0 0
16.4475 0 0
16.5646 0 0
16.6816 0 0
16.7986 0 0
16.9156 0 0
17.0326 0 0
17.1496 0 0
17.2665 0 0
17.3833 0 0
17.5002 0 0
17.617 0 0
17.7338 0 0
17.8505 0 0
17.9672 0 0
18.0839 0 0
18.2005 0 0
18.3171 0 0
18.4337 0 0
18.5502 0 0
18.6666 0 0
18.7831 0 0
18.8994 0 0
19.0158 0 0
19.1321 0 0
19.2483 0 0
19.3645 0 0
19.4806 0 0
19.5967 0 0
19.7128 0 0
19.8288 0 0
19.9447 0 0
20.0606 0 1
20.1764 0 1
20.2922 0 1
20.4079 0 1
20.5236 0 1
20.6392 0 1
20.7548 0 1
20.8702 0 1
23.3078 0 1
23.4233 0 1
23.539 0 1
23.6547 0 1
23.7704 0 1
23.8862 0 1
24.0021 0 1
24.118 0 1
24.234 0 1
24.35 0 1
24.4661 1603 40.0375
24.5822 1623 40.2865
24.6984 1647 40.5832
24.8146 1785 42.2493
24.9309 1857 43.0929
25.0472 2035 45.111
25.1636 2276 47.7074
25.28 2479 49.7896
25.3965 2740 52.345
25.513 2823 53.1319
25.6296 2954 54.3507
25.7462 3167 56.2761
25.8628 3400 58.3095
25.9795 3436 58.6174
26.0962 3457 58.7963
26.213 3498 59.1439
26.3298 3425 58.5235
26.4466 3376 58.1034
26.5635 3313 57.5587
26.6804 3440 58.6515
26.7973 3443 58.6771
26.9143 3371 58.0603
27.0313 3471 58.9152
27.1483 3405 58.3524
27.2653 3431 58.5747
27.3824 3481 59
27.4996 3591 59.925
27.6167 3508 59.2284
27.7339 3388 58.2065
27.8511 3232 56.8507
27.9683 3264 57.1314
28.0855 3182 56.4092
28.2028 2962 54.4243
28.3201 2921 54.0463
28.4374 2636 51.342
28.5547 2704 52
28.6721 2771 52.6403
28.7894 2899 53.8424
28.9068 3122 55.8749
29.0242 3045 55.1815
29.1416 3066 55.3715
29.259 3023 54.9818
29.3764 3009 54.8544
29.4939 3130 55.9464
29.6113 3089 55.5788
29.7288 3187 56.4535
29.8463 3068 55.3895
29.9638 3125 55.9017
30.0812 3203 56.5951
30.1987 3323 57.6455
30.3162 3326 57.6715
30.4337 3194 56.5155
30.5512 3313 57.5587
30.6687 3442 58.6686
30.7862 3276 57.2364
30.9037 3394 58.258
31.0212 3412 58.4123
31.1387 3338 57.7754
31.2562 3316 57.5847
31.3737 3338 57.7754
31.4912 3162 56.2317
31.6087 3085 55.5428
31.7262 2825 53.1507
31.8436 2748 52.4214
31.9611 2596 50.951
32.0785 2629 51.2738
32.1959 2637 51.3517
32.3134 2930 54.1295
32.4308 3073 55.4346
32.5482 3011 54.8726
32.6655 2987 54.6535
32.7829 2940 54.2218
32.9002 2957 54.3783
33.0176 2975 54.5436
33.1349 2927 54.1018
33.2522 3006 54.827
33.3694 3045 55.1815
33.4867 3011 54.8726
33.6039 3046 55.1906
33.7211 3163 56.2406
33.8383 3233 56.8595
33.9554 3277 57.2451
34.0725 3245 56.9649
34.1896 3297 57.4195
34.3067 3286 57.3236
34.4237 3328 57.6888
34.5407 3222 56.7627
34.6577 3342 57.81
34.7746 3268 57.1664
34.8915 3186 56.4447
35.0084 3155 56.1694
35.1252 3076 55.4617
35.242 3078 55.4797
35.3587 2888 53.7401
35.4755 2729 52.2398
35.5921 2585 50.8429
35.7088 2548 50.4777
35.8254 2467 49.6689
35.9419 2603 51.0196
36.0584 2661 51.5849
36.1749 2773 52.6593
36.2913 2799 52.9056
36.4077 2695 51.9134
36.524 2598 50.9706
36.6403 2611 51.0979
36.7565 2444 49.4368
36.8727 2341 48.3839
36.9889 2253 47.4658
37.1049 2240 47.3286
37.221 0 1
37.3369 0 1
37.4529 0 1
37.5687 0 1
37.6845 0 1
37.8003 0 1
37.916 0 1
38.0316 0 1
38.1472 0 1
40.5851 0 1
40.7008 0 1
40.8164 0 1
40.9322 0 1
41.048 0 1
41.1639 0 1
41.2798 0 1
41.3958 0 1
41.5118 0 1
41.6279 0 1
41.744 1426 37.7624
41.8602 1462 38.2361
41.9765 1675 40.9268
42.0928 1743 41.7493
42.2091 1801 42.4382
42.3255 1911 43.715
42.4419 2102 45.8476
42.5584 2292 47.8748
42.675 2344 48.4149
42.7915 2505 50.05
42.9081 2598 50.9706
43.0248 2582 50.8134
43.1415 2744 52.3832
43.2582 2696 51.923
43.375 2806 52.9717
43.4918 2906 53.9073
43.6087 2915 53.9907
43.7256 2889 53.7494
43.8425 2843 53.3198
43.9595 2872 53.591
44.0765 2798 52.8961
44.1935 2790 52.8205
44.3106 2711 52.0673
44.4277 2580 50.7937
44.5448 2442 49.4166
44.6619 2450 49.4975
44.7791 2531 50.309
44.8963 2624 51.225
45.0136 2683 51.7977
45.1308 2690 51.8652
45.2481 2533 50.3289
45.3654 2504 50.04
45.4827 2520 50.1996
45.6001 2569 50.6853
45.7174 2586 50.8527
45.8348 2607 51.0588
45.9522 2594 50.9313
46.0697 2700 51.9615
46.1871 2616 51.1468
46.3046 2733 52.2781
46.422 2890 53.7587
46.5395 2892 53.7773
46.657 2914 53.9815
46.7745 3192 56.4978
46.892 3151 56.1338
47.0096 3184 56.4269
47.1271 3080 55.4977
47.2446 3090 55.5878
47.3622 3120 55.857
47.4797 3142 56.0535
47.5973 3101 55.6866
47.7149 3011 54.8726
47.8324 2835 53.2447
47.95 2667 51.643
48.0675 2618 51.1664
48.1851 2628 51.264
48.3027 2620 51.1859
48.4202 2617 51.1566
48.5378 2658 51.5558
48.6554 2840 53.2917
48.7729 2770 52.6308
48.8904 2639 51.3712
49.008 2566 50.6557
49.1255 2595 50.9411
49.243 2552 50.5173
49.3605 2573 50.7247
49.478 2501 50.01
49.5955 2713 52.0865
49.713 2751 52.45
49.8304 2791 52.8299
49.9479 2821 53.1131
50.0653 2918 54.0185
50.1827 3166 56.2672
50.3001 3167 56.2761
50.4175 3226 56.7979
50.5348 3307 57.5065
50.6521 3392 58.2409
50.7694 3406 58.3609
50.8867 3227 56.8067
51.004 3286 57.3236
51.1212 3348 57.8619
51.2384 3144 56.0714
51.3556 2949 54.3047
51.4727 2851 53.3948
51.5899 2586 50.8527
51.707 2642 51.4004
51.824 2620 51.1859
51.9411 2658 51.5558
52.0581 2721 52.1632
52.175 2719 52.144
52.2919 2638 51.3615
52.4088 2547 50.4678
52.5257 2354 48.518
52.6425 2345 48.4252
52.7593 2216 47.0744
52.876 2208 46.9894
52.9927 2311 48.0729
53.1094 2242 47.3498
53.226 2264 47.5815
53.3426 2348 48.4562
53.4591 2414 49.1325
53.5756 2484 49.8397
53.692 2542 50.4183
53.8084 2619 51.1762
53.9248 2666 51.6333
54.0411 2581 50.8035
54.1573 2355 48.5283
54.2735 0 1
54.3896 0 1
54.5057 0 1
54.6217 0 1
54.7377 0 1
54.8537 0 1
54.9695 0 1
55.0853 0 1
55.2011 0 1
55.3168 0 1
55.4324 0 1
57.824 0 1
57.9396 0 1
58.0553 0 1
58.1711 0 1
58.2869 0 1
58.4028 0 1
58.5187 0 1
58.6347 0 1
58.7508 0 1
58.8669 0 1
58.983 2041 45.1774
59.0992 2303 47.9896
59.2155 2439 49.3862
59.3318 2605 51.0392
59.4482 2860 53.479
59.5646 3269 57.1752
59.681 3279 57.2626
59.7975 3339 57.7841
59.9141 3329 57.6975
60.0306 3288 57.3411
60.1473 3270 57.1839
60.2639 3029 55.0364
60.3807 3050 55.2268
60.4974 3028 55.0273
60.6142 2974 54.5344
60.731 2977 54.5619
60.8479 3061 55.3263
60.9648 3045 55.1815
61.0818 3121 55.8659
61.1987 3089 55.5788
61.3158 3135 55.9911
61.4328 3121 55.8659
61.5499 2966 54.461
61.667 2914 53.9815
61.7841 3094 55.6237
61.9013 3045 55.1815
62.0185 3148 56.107
62.1357 3366 58.0172
62.253 3430 58.5662
62.3702 3683 60.6877
62.4875 3942 62.7853
62.6049 3972 63.0238
62.7222 4132 64.2806
62.8396 4389 66.2495
62.9569 4354 65.9848
63.0743 4499 67.0746
63.1918 4533 67.3276
63.3092 4386 66.2269
63.4267 4398 66.3174
63.5441 4044 63.5925
63.6616 3822 61.8223
63.7791 3657 60.4731
63.8966 3292 57.376
64.0142 3253 57.0351
64.1317 3198 56.5509
64.2492 3149 56.116
64.3668 2971 54.5069
64.4843 3040 55.1362
64.6019 3118 55.8391
64.7195 3040 55.1362
64.837 2997 54.7449
64.9546 2794 52.8583
65.0722 2826 53.1601
65.1898 2921 54.0463
65.3074 2949 54.3047
65.4249 2908 53.9259
65.5425 2957 54.3783
65.6601 3162 56.2317
65.7777 3238 56.9034
65.8952 3431 58.5747
66.0128 3754 61.2699
66.1304 3970 63.0079
66.2479 4150 64.4205
66.3655 4174 64.6065
66.483 4292 65.5134
66.6005 4466 66.8281
66.718 4407 66.3852
66.8355 4375 66.1438
66.953 4344 65.909
67.0705 4009 63.3167
67.1879 3789 61.5549
67.3054 3622 60.1831
67.4228 3409 58.3866
67.5402 3101 55.6866
67.6576 2889 53.7494
67.7749 2884 53.7029
67.8923 2836 53.2541
68.0096 2805 52.9623
68.1269 2925 54.0833
68.2442 2956 54.3691
68.3614 3077 55.4707
68.4787 3009 54.8544
68.5958 2877 53.6377
68.713 2762 52.5547
68.8302 2805 52.9623
68.9473 2768 52.6118
69.0643 2671 51.6817
69.1814 2718 52.1344
69.2984 2696 51.923
69.4154 2800 52.915
69.5323 2967 54.4702
69.6492 3154 56.1605
69.7661 3336 57.7581
69.8829 3602 60.0167
69.9997 3683 60.6877
70.1165 3731 61.0819
70.2332 3630 60.2495
70.3499 3541 59.5063
70.4665 3517 59.3043
70.5831 3239 56.9122
70.6996 3062 55.3353
70.8161 2902 53.8702
70.9326 2746 52.4023
71.049 2481 49.8096
71.1653 2286 47.8121
71.2817 1983 44.5309
71.3979 1937 44.0114
71.5141 1696 41.1825
71.6303 1705 41.2916
71.7464 1631 40.3856
71.8624 0 1
71.9784 0 1
72.0944 0 1
72.2102 0 1
72.3261 0 1
72.4418 0 1
72.5575 0 1
72.6732 0 1
75.1054 0 1
75.2209 0 1
75.3365 0 1
75.4521 0 1
75.5678 0 1
75.6835 0 1
75.7993 0 1
75.9151 0 1
76.031 0 1
76.147 2115 45.9891
76.263 2101 45.8367
76.3791 2049 45.2659
76.4952 1925 43.8748
76.6113 1832 42.8019
76.7276 1793 42.3438
76.8438 1871 43.2551
76.9601 1869 43.2319
77.0765 2018 44.9222
77.1929 2296 47.9166
77.3093 2486 49.8598
77.4258 2673 51.7011
77.5423 2630 51.2835
77.6589 2440 49.3964
77.7755 2478 49.7795
77.8921 2528 50.2792
78.0088 2475 49.7494
78.1256 2319 48.156
78.2423 2447 49.4672
78.3591 2587 50.8626
78.4759 2711 52.0673
78.5928 2951 54.3231
78.7097 3146 56.0892
78.8266 3588 59.8999
78.9436 3770 61.4003
79.0606 3707 60.8851
79.1776 3898 62.434
79.2946 3840 61.9677
79.4117 4030 63.4823
79.5288 3974 63.0397
79.6459 3694 60.7783
79.7631 3528 59.397
79.8802 3246 56.9737
79.9974 2995 54.7266
80.1147 2814 53.0471
80.2319 2692 51.8845
80.3491 2535 50.3488
80.4664 2429 49.2849
80.5837 2415 49.1426
80.701 2545 50.448
80.8183 2548 50.4777
80.9357 2786 52.7826
81.053 2919 54.0278
81.1704 2876 53.6284
81.2877 2715 52.1057
81.4051 2596 50.951
81.5225 2648 51.4587
81.6399 2617 51.1566
81.7573 2479 49.7896
81.8747 2545 50.448
81.9922 2494 49.94
82.1096 2697 51.9326
82.227 2875 53.619
82.3444 3204 56.6039
82.4619 3779 61.4736
82.5793 3961 62.9365
82.6967 3996 63.2139
82.8142 4156 64.467
82.9316 4126 64.2339
83.049 4105 64.0703
83.1664 4049 63.6318
83.2838 3778 61.4654
83.4012 3578 59.8164
83.5186 3218 56.7274
83.636 3093 55.6147
83.7534 2910 53.9444
83.8708 2755 52.4881
83.9881 2623 51.2152
84.1055 2547 50.4678
84.2228 2460 49.5984
84.3401 2430 49.295
84.4575 2638 51.3615
84.5747 2913 53.9722
84.692 3164 56.2494
84.8093 3177 56.3649
84.9265 3143 56.0625
85.0437 2815 53.0566
85.1609 2596 50.951
85.2781 2539 50.3885
85.3952 2531 50.309
85.5123 2520 50.1996
85.6294 2505 50.05
85.7465 2740 52.345
85.8636 3025 55
85.9806 3222 56.7627
86.0976 3520 59.3296
86.2145 3793 61.5873
86.3315 3934 62.7216
86.4484 4009 63.3167
86.5652 3771 61.4085
86.682 3927 62.6658
86.7988 3683 60.6877
86.9156 3734 61.1065
87.0323 3486 59.0424
87.149 3231 56.8419
87.2657 3080 55.4977
87.3823 2829 53.1883
87.4988 2704 52
87.6154 2454 49.5379
87.7318 2409 49.0816
87.8483 2273 47.676
87.9647 2347 48.4458
88.081 2344 48.4149
88.1973 2440 49.3964
88.3136 2363 48.6107
88.4298 2181 46.7012
88.546 1750 41.833
88.6621 1503 38.7685
88.7781 1307 36.1525
88.8942 0 1
89.0101 0 1
89.126 0 1
89.2419 0 1
89.3577 0 1
89.4734 0 1
89.5891 0 1
89.7047 0 1
89.8203 0 1
89.9358 0 1
92.3269 0 1
92.4424 0 1
92.558 0 1
92.6736 0 1
92.7893 0 1
92.905 0 1
93.0208 0 1
93.1366 0 1
93.2525 0 1
93.3685 0 1
93.4845 0 1
93.6005 1690 41.1096
93.7167 2035 45.111
93.8328 2471 49.7092
93.949 2577 50.7642
94.0653 2690 51.8652
94.1816 2605 51.0392
94.2979 2801 52.9245
94.4143 2713 52.0865
94.5307 2701 51.9711
94.6472 2764 52.5738
94.7637 2668 51.6527
94.8803 2842 53.3104
94.9969 3060 55.3173
95.1135 3246 56.9737
95.2302 3589 59.9083
95.3469 3934 62.7216
95.4637 4168 64.56
95.5805 4276 65.3911
95.6973 4482 66.9477
95.8142 4439 66.6258
95.9311 4354 65.9848
96.048 4154 64.4515
96.1649 3904 62.482
96.2819 3768 61.384
96.3989 3445 58.6941
96.516 3234 56.8683
96.633 2952 54.3323
96.7501 2872 53.591
96.8673 2759 52.5262
96.9844 2433 49.3254
97.1016 2478 49.7795
97.2188 2591 50.9019
97.336 2816 53.066
97.4532 3141 56.0446
97.5704 3382 58.155
97.6877 3431 58.5747
97.805 3158 56.1961
97.9223 2966 54.461
98.0396 2943 54.2494
98.1569 2809 53
98.2743 2745 52.3927
98.3916 2708 52.0384
98.509 2834 53.2353
98.6264 3053 55.254
98.7438 3365 58.0086
98.8612 3626 60.2163
98.9786 3819 61.7981
99.096 4204 64.8383
99.2134 4201 64.8151
99.3308 4343 65.9014
99.4482 4436 66.6033
99.5656 4512 67.1714
99.6831 4408 66.3928
99.8005 4193 64.7534
99.9179 3812 61.7414
100.035 3454 58.7707
100.153 3323 57.6455
100.27 3128 55.9285
100.388 3106 55.7315
100.505 2678 51.7494
100.622 2561 50.6063
100.74 2632 51.303
100.857 2669 51.6624
100.975 3083 55.5248
101.092 3425 58.5235
101.209 3489 59.0678
101.327 3355 57.9224
101.444 3292 57.376
101.561 2967 54.4702
101.679 3040 55.1362
101.796 2908 53.9259
101.913 2866 53.535
102.03 2991 54.69
102.148 3295 57.4021
102.265 3393 58.2495
102.382 3930 62.6897
102.499 4143 64.3661
102.616 4252 65.2074
102.733 4455 66.7458
102.851 4547 67.4314
102.968 4600 67.8233
103.085 4725 68.7386
103.202 4787 69.1881
103.319 4578 67.6609
103.436 4084 63.9062
103.552 3832 61.9032
103.669 3508 59.2284
103.786 3238 56.9034
103.903 3023 54.9818
104.02 2772 52.6498
104.137 2735 52.2972
104.253 2732 52.2685
104.37 2780 52.7257
104.487 3044 55.1725
104.603 3195 56.5243
104.72 3157 56.1872
104.836 2863 53.507
104.953 2585 50.8429
105.069 2430 49.295
105.186 2326 48.2286
105.302 2134 46.1952
105.418 2128 46.1303
105.535 2101 45.8367
105.651 2007 44.7996
105.767 2094 45.7602
105.883 2290 47.8539
105.999 2289 47.8435
106.115 0 1
106.231 0 1
106.347 0 1
106.463 0 1
106.579 0 1
106.694 0 1
106.81 0 1
106.926 0 1
107.041 0 1
107.157 0 1
109.576 0 1
109.692 0 1
109.807 0 1
109.923 0 1
110.039 0 1
110.155 0 1
110.27 0 1
110.386 0 1
110.502 0 1
110.618 1824 42.7083
110.735 2083 45.6399
110.851 2378 48.7647
110.967 2654 51.517
111.083 2828 53.1789
111.199 3076 55.4617
111.316 3341 57.8014
111.432 3405 58.3524
111.549 3652 60.4318
111.665 3662 60.5145
111.782 3535 59.4559
111.898 3611 60.0916
112.015 3309 57.5239
112.132 3114 55.8032
112.248 2984 54.626
112.365 2787 52.792
112.482 2709 52.0481
112.599 2647 51.449
112.716 2520 50.1996
112.832 2467 49.6689
112.949 2456 49.558
113.066 2416 49.1528
113.183 2808 52.9906
113.3 3015 54.909
113.417 2958 54.3875
113.534 2970 54.4977
113.652 2842 53.3104
113.769 2833 53.2259
113.886 2743 52.3737
114.003 2835 53.2447
114.12 2735 52.2972
114.238 2997 54.7449
114.355 3335 57.7495
114.472 3761 61.327
114.589 3741 61.1637
114.707 4166 64.5446
114.824 4306 65.6201
114.942 4341 65.8863
115.059 4472 66.873
115.176 4484 66.9627
115.294 4387 66.2344
115.411 4306 65.6201
115.529 4098 64.0156
115.646 3713 60.9344
115.764 3419 58.4722
115.881 3245 56.9649
115.999 3044 55.1725
116.116 2789 52.811
116.234 2759 52.5262
116.351 2524 50.2394
116.469 2559 50.5866
116.586 2567 50.6656
116.704 2825 53.1507
116.821 2930 54.1295
116.939 3061 55.3263
117.056 2990 54.6809
117.174 2949 54.3047
117.291 2993 54.7083
117.409 2995 54.7266
117.526 2922 54.0555
117.644 2906 53.9073
117.761 3041 55.1453
117.879 3247 56.9825
117.996 3571 59.7578
118.114 3883 62.3137
118.231 4209 64.8768
118.349 4299 65.5668
118.466 4354 65.9848
118.584 4370 66.106
118.701 4472 66.873
118.819 4393 66.2797
118.936 4264 65.2993
119.053 4162 64.5136
119.171 3913 62.554
119.288 3511 59.2537
119.405 3342 57.81
119.523 3060 55.3173
119.64 2922 54.0555
119.757 2808 52.9906
119.875 2655 51.5267
119.992 2602 51.0098
120.109 2469 49.689
120.226 2509 50.0899
120.343 2639 51.3712
120.46 2816 53.066
120.578 2864 53.5164
120.695 2796 52.8772
120.812 2685 51.817
120.929 2705 52.0096
121.046 2687 51.8363
121.163 2590 50.892
121.279 2598 50.9706
121.396 2564 50.636
121.513 2819 53.0943
121.63 2889 53.7494
121.747 3078 55.4797
121.863 3215 56.701
121.98 3379 58.1292
122.097 3359 57.9569
122.213 3409 58.3866
122.33 3386 58.1893
122.446 3102 55.6956
122.563 3054 55.263
122.679 2948 54.2955
122.795 2704 52
122.912 2562 50.6162
123.028 2307 48.0312
123.144 2026 45.0111
123.26 1780 42.19
123.377 0 1
123.493 0 1
123.609 0 1
123.725 0 1
123.84 0 1
123.956 0 1
124.072 0 1
124.188 0 1
124.303 0 1
124.419 0 1
126.852 0 1
126.968 0 1
127.083 0 1
127.199 0 1
127.315 0 1
127.431 0 1
127.547 0 1
127.663 0 1
127.779 0 1
127.895 0 1
128.011 0 1
128.127 0 1
128.243 0 1
128.359 3383 58.1636
128.476 3237 56.8946
128.592 3247 56.9825
128.708 3184 56.4269
128.825 3117 55.8301
128.941 2927 54.1018
129.058 2992 54.6992
129.174 2891 53.768
129.291 2875 53.619
129.408 2899 53.8424
129.524 3080 55.4977
129.641 3233 56.8595
129.758 3245 56.9649
129.875 3241 56.9298
129.992 3315 57.576
130.108 3351 57.8878
130.225 3374 58.0861
130.342 3429 58.5577
130.459 3275 57.2276
130.576 3447 58.7112
130.693 3741 61.1637
130.81 4005 63.2851
130.928 4042 63.5767
131.045 4129 64.2573
131.162 4181 64.6607
131.279 4169 64.5678
131.396 4245 65.1537
131.513 4076 63.8436
131.631 3976 63.0555
131.748 4042 63.5767
131.865 3960 62.9285
131.983 3746 61.2046
132.1 3649 60.407
132.217 3524 59.3633
132.335 3394 58.258
132.452 3217 56.7186
132.57 3107 55.7405
132.687 2959 54.3967
132.804 3026 55.0091
132.922 2935 54.1756
133.039 3008 54.8452
133.157 3189 56.4712
133.274 3342 57.81
133.392 3319 57.6108
133.509 3455 58.7792
133.627 3424 58.515
133.744 3488 59.0593
133.862 3477 58.9661
133.979 3473 58.9322
134.097 3559 59.6574
134.214 3673 60.6053
134.332 3839 61.9597
134.449 3915 62.57
134.567 4062 63.7338
134.684 3978 63.0714
134.802 4153 64.4438
134.919 4029 63.4744
135.037 4048 63.6239
135.154 4155 64.4593
135.272 4013 63.3482
135.389 4070 63.7966
135.507 3776 61.4492
135.624 3800 61.6441
135.742 3661 60.5062
135.859 3592 59.9333
135.977 3337 57.7668
136.094 3292 57.376
136.211 3096 55.6417
136.329 3202 56.5862
136.446 3055 55.2721
136.564 3036 55.0999
136.681 3324 57.6541
136.798 3329 57.6975
136.915 3431 58.5747
137.033 3558 59.649
137.15 3512 59.2621
137.267 3556 59.6322
137.384 3495 59.1185
137.502 3550 59.5819
137.619 3401 58.3181
137.736 3474 58.9406
137.853 3520 59.3296
137.97 3642 60.349
138.087 3979 63.0793
138.204 3839 61.9597
138.321 3820 61.8061
138.438 3826 61.8547
138.555 3742 61.1719
138.672 3644 60.3656
138.788 3642 60.349
138.905 3499 59.1523
139.022 3346 57.8446
139.139 3251 57.0175
139.255 3110 55.7674
139.372 2967 54.4702
139.488 2771 52.6403
139.605 2725 52.2015
139.721 2435 49.3457
139.838 2197 46.8722
139.954 2247 47.4025
140.071 2019 44.9333
140.187 1977 44.4635
140.303 1849 43
140.419 1746 41.7852
140.535 1607 40.0874
140.652 1642 40.5216
140.768 0 1
140.884 0 1
141 0 1
141.115 0 1
141.231 0 1
141.347 0 1
141.463 0 1
141.578 0 1
141.694 0 1
144.104 0 1
144.219 0 1
144.335 0 1
144.45 0 1
144.566 0 1
144.682 0 1
144.798 0 1
144.914 0 1
145.03 0 1
145.146 2251 47.4447
145.262 2323 48.1975
145.378 2473 49.7293
145.494 2511 50.1099
145.61 2723 52.1824
145.726 2812 53.0283
145.842 2820 53.1037
145.959 2983 54.6168
146.075 2842 53.3104
146.192 2836 53.2541
146.308 2782 52.7447
146.425 2815 53.0566
146.541 2931 54.1387
146.658 3071 55.4166
146.774 3059 55.3082
146.891 3175 56.3471
147.008 3314 57.5674
147.125 3314 57.5674
147.241 3325 57.6628
147.358 3399 58.3009
147.475 3300 57.4456
147.592 3383 58.1636
147.709 3377 58.112
147.826 3246 56.9737
147.943 3270 57.1839
148.06 3121 55.8659
148.177 3109 55.7584
148.294 3055 55.2721
148.411 2972 54.5161
148.528 3050 55.2268
148.645 2873 53.6004
148.762 2854 53.4228
148.88 2803 52.9434
148.997 2864 53.5164
149.114 2812 53.0283
149.231 2831 53.2071
149.349 2972 54.5161
149.466 2952 54.3323
149.583 3035 55.0908
149.701 2914 53.9815
149.818 3053 55.254
149.935 2890 53.7587
150.053 2947 54.2863
150.17 2892 53.7773
150.287 3075 55.4527
150.405 3075 55.4527
150.522 3220 56.745
150.64 3319 57.6108
150.757 3333 57.7321
150.875 3498 59.1439
150.992 3439 58.643
151.11 3524 59.3633
151.227 3465 58.8643
151.344 3418 58.4637
151.462 3393 58.2495
151.579 3430 58.5662
151.697 3428 58.5491
151.814 3291 57.3672
151.932 3287 57.3324
152.049 3090 55.5878
152.167 3111 55.7763
152.284 2971 54.5069
152.402 3095 55.6327
152.519 3013 54.8908
152.636 2976 54.5527
152.754 2934 54.1664
152.871 3044 55.1725
152.989 3067 55.3805
153.106 3030 55.0454
153.223 3106 55.7315
153.341 3111 55.7763
153.458 3089 55.5788
153.575 3047 55.1996
153.693 3080 55.4977
153.81 3135 55.9911
153.927 3243 56.9473
154.044 3301 57.4543
154.162 3435 58.6089
154.279 3552 59.5987
154.396 3562 59.6825
154.513 3542 59.5147
154.63 3718 60.9754
154.747 3648 60.3987
154.864 3710 60.9098
154.981 3608 60.0666
155.098 3494 59.1101
155.215 3411 58.4038
155.332 3273 57.2101
155.449 3255 57.0526
155.566 3141 56.0446
155.683 2946 54.2771
155.8 2966 54.461
155.917 2906 53.9073
156.033 2669 51.6624
156.15 0 1
156.267 0 1
156.383 0 1
156.5 0 1
156.617 0 1
156.733 0 1
156.85 0 1
156.966 0 1
157.082 0 1
157.199 0 1
157.315 0 1
157.431 0 1
157.547 0 1
157.664 0 1
157.78 0 1
157.896 0 1
158.012 0 1
158.128 0 1
158.244 0 1
158.359 0 1
158.475 0 1
158.591 0 1
158.706 0 1
