
6.15755 0 1
6.2731 0 1
6.3887 0 1
6.50437 0 1
6.62009 0 1
6.73587 0 1
6.8517 0 1
6.96759 0 1
7.08353 0 1
7.19952 0 1
7.31557 0 1
7.43166 0 1
7.54781 0 1
7.664 0 1
7.78024 0 1
7.89653 0 1
8.01286 0 1
8.12924 0 1
8.24567 0 1
8.36213 0 1
8.47864 0 1
8.59519 0 1
8.71178 0 1
8.82841 0 1
8.94508 0 1
9.06179 0 1
9.17853 0 1
9.29531 0 1
9.41212 0 1
9.52897 0 1
9.64584 0 1
9.76276 0 1
9.8797 0 1
9.99667 0 1
10.1137 0 1
10.2307 0 1
10.3478 0 1
10.4648 0 1
10.5819 0 1
10.6991 0 1
10.8162 0 1
10.9334 0 1
11.0506 0 1
11.1678 0 1
11.285 0 1
11.4023 0 1
11.5196 0 1
11.6369 0 1
11.7542 0 1
11.8715 0 1
11.9888 0 1
12.1062 0 1
12.2235 0 1
12.3409 0 1
12.4582 0 1
12.5756 0 1
12.693 0 1
12.8104 0 1
12.9278 0 1
13.0452 0 1
13.1626 0 1
13.28 0 1
13.3974 0 1
13.5149 0 1
13.6323 0 1
13.7497 0 1
13.8671 0 1
13.9845 0 1
14.1019 0 1
14.2193 0 1
14.3367 0 1
14.4541 0 1
14.5714 0 1
14.6888 0 1
14.8062 0 1
14.9235 0 1
15.0408 2222 47.1381
15.1581 2426 49.2544
15.2755 2397 48.9592
15.3927 2419 49.1833
15.51 2263 47.571
15.6273 2400 48.9898
15.7445 2419 49.1833
15.8617 2338 48.3529
15.9789 2347 48.4458
16.0961 2263 47.571
16.2132 2219 47.1063
16.3304 2203 46.9361
16.4475 2262 47.5605
16.5646 2261 47.55
16.6816 2234 47.2652
16.7986 2221 47.1275
16.9156 2300 47.9583
17.0326 2269 47.634
17.1496 2103 45.8585
17.2665 2142 46.2817
17.3833 2168 46.5618
17.5002 2176 46.6476
17.617 2016 44.8999
17.7338 2045 45.2217
17.8505 2091 45.7275
17.9672 2252 47.4552
18.0839 2366 48.6415
18.2005 2464 49.6387
18.3171 2473 49.7293
18.4337 2498 49.98
18.5502 2533 50.3289
18.6666 2629 51.2738
18.7831 2652 51.4976
18.8994 2428 49.2747
19.0158 2463 49.6286
19.1321 2349 48.4665
19.2483 2238 47.3075
19.3645 2214 47.0532
19.4806 2151 46.3789
19.5967 2101 45.8367
19.7128 1949 44.1475
19.8288 1855 43.0697
19.9447 1736 41.6653
20.0606 0 1
20.1764 0 1
20.2922 0 1
20.4079 0 1
20.5236 0 1
20.6392 0 1
20.7548 0 1
20.8702 0 1
23.3078 0 1
23.4233 0 1
23.539 0 1
23.6547 0 1
23.7704 0 1
23.8862 0 1
24.0021 0 1
24.118 0 1
24.234 0 1
24.35 0 1
24.4661 2030 45.0555
24.5822 2079 45.5961
24.6984 2024 44.9889
24.8146 1899 43.5775
24.9309 1977 44.4635
25.0472 2051 45.288
25.1636 2077 45.5741
25.28 2099 45.8148
25.3965 2173 46.6154
25.513 2203 46.9361
25.6296 2286 47.8121
25.7462 2283 47.7807
25.8628 2350 48.4768
25.9795 2245 47.3814
26.0962 2210 47.0106
26.213 2071 45.5082
26.3298 2015 44.8888
26.4466 2013 44.8665
26.5635 1958 44.2493
26.6804 2059 45.3762
26.7973 2147 46.3357
26.9143 2187 46.7654
27.0313 2160 46.4758
27.1483 2265 47.592
27.2653 2201 46.9148
27.3824 2229 47.2123
27.4996 2313 48.0937
27.6167 2195 46.8508
27.7339 2104 45.8694
27.8511 2185 46.744
27.9683 2065 45.4423
28.0855 2002 44.7437
28.2028 2007 44.7996
28.3201 1902 43.6119
28.4374 1982 44.5197
28.5547 1779 42.1782
28.6721 1915 43.7607
28.7894 1955 44.2154
28.9068 2072 45.5192
29.0242 1999 44.7102
29.1416 2046 45.2327
29.259 2014 44.8776
29.3764 2054 45.3211
29.4939 2005 44.7772
29.6113 2068 45.4753
29.7288 1910 43.7035
29.8463 1910 43.7035
29.9638 1835 42.8369
30.0812 1880 43.359
30.1987 1826 42.7317
30.3162 2000 44.7214
30.4337 1981 44.5084
30.5512 2068 45.4753
30.6687 2079 45.5961
30.7862 2108 45.913
30.9037 2013 44.8665
31.0212 2153 46.4004
31.1387 2108 45.913
31.2562 2118 46.0217
31.3737 2065 45.4423
31.4912 2041 45.1774
31.6087 1944 44.0908
31.7262 1916 43.7721
31.8436 1965 44.3283
31.9611 1867 43.2088
32.0785 1837 42.8602
32.1959 1842 42.9185
32.3134 1825 42.72
32.4308 1841 42.9069
32.5482 1940 44.0454
32.6655 1968 44.3621
32.7829 2028 45.0333
32.9002 2020 44.9444
33.0176 1913 43.7379
33.1349 1949 44.1475
33.2522 2010 44.833
33.3694 1948 44.1362
33.4867 1940 44.0454
33.6039 1816 42.6146
33.7211 1800 42.4264
33.8383 1821 42.6732
33.9554 1865 43.1856
34.0725 1919 43.8064
34.1896 1881 43.3705
34.3067 1986 44.5646
34.4237 2050 45.2769
34.5407 2031 45.0666
34.6577 2058 45.3652
34.7746 1984 44.5421
34.8915 2107 45.9021
35.0084 1984 44.5421
35.1252 1947 44.1248
35.242 1999 44.7102
35.3587 1877 43.3244
35.4755 1821 42.6732
35.5921 1773 42.107
35.7088 1747 41.7971
35.8254 1654 40.6694
35.9419 1702 41.2553
36.0584 1823 42.6966
36.1749 1791 42.3202
36.2913 1844 42.9418
36.4077 1819 42.6497
36.524 1906 43.6578
36.6403 1833 42.8135
36.7565 1919 43.8064
36.8727 1879 43.3474
36.9889 1911 43.715
37.1049 1796 42.3792
37.221 0 1
37.3369 0 1
37.4529 0 1
37.5687 0 1
37.6845 0 1
37.8003 0 1
37.916 0 1
38.0316 0 1
38.1472 0 1
40.5851 0 1
40.7008 0 1
40.8164 0 1
40.9322 0 1
41.048 0 1
41.1639 0 1
41.2798 0 1
41.3958 0 1
41.5118 0 1
41.6279 0 1
41.744 1385 37.2156
41.8602 1464 38.2623
41.9765 1579 39.7366
42.0928 1546 39.3192
42.2091 1549 39.3573
42.3255 1530 39.1152
42.4419 1415 37.6165
42.5584 1352 36.7696
42.675 1367 36.973
42.7915 1426 37.7624
42.9081 1410 37.55
43.0248 1476 38.4187
43.1415 1539 39.2301
43.2582 1431 37.8286
43.375 1492 38.6264
43.4918 1540 39.2428
43.6087 1522 39.0128
43.7256 1462 38.2361
43.8425 1538 39.2173
43.9595 1521 39
44.0765 1472 38.3667
44.1935 1385 37.2156
44.3106 1316 36.2767
44.4277 1310 36.1939
44.5448 1233 35.1141
44.6619 1150 33.9116
44.7791 1187 34.4529
44.8963 1194 34.5543
45.0136 1147 33.8674
45.1308 1231 35.0856
45.2481 1143 33.8083
45.3654 1195 34.5688
45.4827 1164 34.1174
45.6001 1192 34.5254
45.7174 1178 34.322
45.8348 1189 34.4819
45.9522 1109 33.3017
46.0697 1095 33.0908
46.1871 1022 31.9687
46.3046 1027 32.0468
46.422 966 31.0805
46.5395 1008 31.749
46.657 1049 32.3883
46.7745 1077 32.8177
46.892 1062 32.5883
47.0096 1115 33.3916
47.1271 1087 32.9697
47.2446 1111 33.3317
47.3622 1085 32.9393
47.4797 1109 33.3017
47.5973 1081 32.8786
47.7149 1041 32.2645
47.8324 1035 32.1714
47.95 985 31.3847
48.0675 973 31.1929
48.1851 877 29.6142
48.3027 889 29.8161
48.4202 848 29.1204
48.5378 901 30.0167
48.6554 921 30.348
48.7729 923 30.3809
48.8904 1030 32.0936
49.008 1010 31.7805
49.1255 1036 32.187
49.243 992 31.496
49.3605 1011 31.7962
49.478 987 31.4166
49.5955 993 31.5119
49.713 927 30.4467
49.8304 890 29.8329
49.9479 931 30.5123
50.0653 952 30.8545
50.1827 981 31.3209
50.3001 1070 32.7109
50.4175 1175 34.2783
50.5348 1116 33.4066
50.6521 1139 33.7491
50.7694 1129 33.6006
50.8867 1173 34.2491
51.004 1205 34.7131
51.1212 1228 35.0428
51.2384 1188 34.4674
51.3556 1248 35.327
51.4727 1222 34.9571
51.5899 1231 35.0856
51.707 1150 33.9116
51.824 1256 35.4401
51.9411 1150 33.9116
52.0581 1247 35.3129
52.175 1275 35.7071
52.2919 1433 37.855
52.4088 1464 38.2623
52.5257 1436 37.8946
52.6425 1468 38.3145
52.7593 1543 39.281
52.876 1587 39.8372
52.9927 1592 39.8999
53.1094 1530 39.1152
53.226 1526 39.064
53.3426 1408 37.5233
53.4591 1372 37.0405
53.5756 1401 37.4299
53.692 1573 39.6611
53.8084 1531 39.128
53.9248 1653 40.6571
54.0411 1579 39.7366
54.1573 1661 40.7554
54.2735 0 1
54.3896 0 1
54.5057 0 1
54.6217 0 1
54.7377 0 1
54.8537 0 1
54.9695 0 1
55.0853 0 1
55.2011 0 1
55.3168 0 1
55.4324 0 1
57.824 0 1
57.9396 0 1
58.0553 0 1
58.1711 0 1
58.2869 0 1
58.4028 0 1
58.5187 0 1
58.6347 0 1
58.7508 0 1
58.8669 0 1
58.983 1941 44.0568
59.0992 2063 45.4203
59.2155 2192 46.8188
59.3318 2157 46.4435
59.4482 2252 47.4552
59.5646 2240 47.3286
59.681 2181 46.7012
59.7975 2268 47.6235
59.9141 2179 46.6798
60.0306 2146 46.3249
60.1473 2110 45.9347
60.2639 2048 45.2548
60.3807 2050 45.2769
60.4974 1939 44.0341
60.6142 1791 42.3202
60.731 1773 42.107
60.8479 1825 42.72
60.9648 2035 45.111
61.0818 2052 45.299
61.1987 2003 44.7549
61.3158 2109 45.9239
61.4328 2188 46.7761
61.5499 2087 45.6837
61.667 2109 45.9239
61.7841 2034 45.0999
61.9013 1944 44.0908
62.0185 1883 43.3935
62.1357 1844 42.9418
62.253 1771 42.0833
62.3702 1868 43.2204
62.4875 1856 43.0813
62.6049 1903 43.6234
62.7222 1931 43.9431
62.8396 2010 44.833
62.9569 2087 45.6837
63.0743 2015 44.8888
63.1918 1997 44.6878
63.3092 1889 43.4626
63.4267 2031 45.0666
63.5441 1996 44.6766
63.6616 1970 44.3847
63.7791 1857 43.0929
63.8966 1827 42.7434
64.0142 1604 40.05
64.1317 1709 41.3401
64.2492 1591 39.8873
64.3668 1705 41.2916
64.4843 1721 41.4849
64.6019 1847 42.9767
64.7195 1772 42.0951
64.837 1835 42.8369
64.9546 1852 43.0349
65.0722 1911 43.715
65.1898 1970 44.3847
65.3074 1853 43.0465
65.4249 1784 42.2374
65.5425 1781 42.2019
65.6601 1746 41.7852
65.7777 1594 39.9249
65.8952 1597 39.9625
66.0128 1639 40.4846
66.1304 1768 42.0476
66.2479 1807 42.5088
66.3655 1869 43.2319
66.483 1941 44.0568
66.6005 1921 43.8292
66.718 1963 44.3058
66.8355 1891 43.4856
66.953 1951 44.1701
67.0705 1882 43.382
67.1879 1946 44.1135
67.3054 1818 42.638
67.4228 1881 43.3705
67.5402 1946 44.1135
67.6576 1800 42.4264
67.7749 1728 41.5692
67.8923 1695 41.1704
68.0096 1765 42.0119
68.1269 1790 42.3084
68.2442 1830 42.7785
68.3614 1941 44.0568
68.4787 1930 43.9318
68.5958 1989 44.5982
68.713 2062 45.4093
68.8302 2093 45.7493
68.9473 2129 46.1411
69.0643 2122 46.0652
69.1814 1981 44.5084
69.2984 1937 44.0114
69.4154 1794 42.3556
69.5323 1779 42.1782
69.6492 1803 42.4617
69.7661 1925 43.8748
69.8829 1974 44.4297
69.9997 2085 45.6618
70.1165 2061 45.3982
70.2332 2171 46.594
70.3499 2074 45.5412
70.4665 2189 46.7868
70.5831 2214 47.0532
70.6996 2104 45.8694
70.8161 2131 46.1628
70.9326 2198 46.8828
71.049 2164 46.5188
71.1653 2043 45.1996
71.2817 1920 43.8178
71.3979 1835 42.8369
71.5141 1661 40.7554
71.6303 1679 40.9756
71.7464 1614 40.1746
71.8624 0 1
71.9784 0 1
72.0944 0 1
72.2102 0 1
72.3261 0 1
72.4418 0 1
72.5575 0 1
72.6732 0 1
75.1054 0 1
75.2209 0 1
75.3365 0 1
75.4521 0 1
75.5678 0 1
75.6835 0 1
75.7993 0 1
75.9151 0 1
76.031 0 1
76.147 1775 42.1307
76.263 1976 44.4522
76.3791 1991 44.6206
76.4952 2009 44.8219
76.6113 1943 44.0795
76.7276 1871 43.2551
76.8438 1714 41.4005
76.9601 1837 42.8602
77.0765 1871 43.2551
77.1929 1915 43.7607
77.3093 2126 46.1086
77.4258 2081 45.618
77.5423 2168 46.5618
77.6589 2145 46.3141
77.7755 2099 45.8148
77.8921 2228 47.2017
78.0088 2113 45.9674
78.1256 1999 44.7102
78.2423 1820 42.6615
78.3591 1726 41.5452
78.4759 1735 41.6533
78.5928 1715 41.4126
78.7097 1817 42.6263
78.8266 1903 43.6234
78.9436 2069 45.4863
79.0606 1964 44.317
79.1776 2078 45.5851
79.2946 2123 46.076
79.4117 2054 45.3211
79.5288 2015 44.8888
79.6459 2065 45.4423
79.7631 2092 45.7384
79.8802 2104 45.8694
79.9974 1963 44.3058
80.1147 2059 45.3762
80.2319 2111 45.9456
80.3491 1846 42.9651
80.4664 1745 41.7732
80.5837 1808 42.5206
80.701 1809 42.5323
80.8183 1856 43.0813
80.9357 1992 44.6318
81.053 2098 45.8039
81.1704 2068 45.4753
81.2877 2093 45.7493
81.4051 2170 46.5833
81.5225 2218 47.0956
81.6399 2116 46
81.7573 2100 45.8258
81.8747 1916 43.7721
81.9922 1773 42.107
82.1096 1650 40.6202
82.227 1731 41.6053
82.3444 1803 42.4617
82.4619 1909 43.6921
82.5793 2015 44.8888
82.6967 2020 44.9444
82.8142 2091 45.7275
82.9316 2058 45.3652
83.049 2102 45.8476
83.1664 2057 45.3542
83.2838 2017 44.911
83.4012 2151 46.3789
83.5186 2098 45.8039
83.636 2066 45.4533
83.7534 2109 45.9239
83.8708 2062 45.4093
83.9881 1862 43.1509
84.1055 1832 42.8019
84.2228 1865 43.1856
84.3401 1892 43.4971
84.4575 1898 43.566
84.5747 2063 45.4203
84.692 2126 46.1086
84.8093 2225 47.1699
84.9265 2217 47.085
85.0437 2292 47.8748
85.1609 2377 48.7545
85.2781 2195 46.8508
85.3952 2009 44.8219
85.5123 1952 44.1814
85.6294 1776 42.1426
85.7465 1745 41.7732
85.8636 1876 43.3128
85.9806 1925 43.8748
86.0976 1992 44.6318
86.2145 2093 45.7493
86.3315 2120 46.0435
86.4484 2206 46.9681
86.5652 2202 46.9255
86.682 2296 47.9166
86.7988 2273 47.676
86.9156 2301 47.9687
87.0323 2329 48.2597
87.149 2209 47
87.2657 2308 48.0416
87.3823 2236 47.2864
87.4988 2149 46.3573
87.6154 2025 45
87.7318 1986 44.5646
87.8483 1987 44.5758
87.9647 1957 44.238
88.081 2122 46.0652
88.1973 2244 47.3709
88.3136 2259 47.5289
88.4298 2327 48.239
88.546 2380 48.7852
88.6621 2401 49
88.7781 2392 48.9081
88.8942 0 1
89.0101 0 1
89.126 0 1
89.2419 0 1
89.3577 0 1
89.4734 0 1
89.5891 0 1
89.7047 0 1
89.8203 0 1
89.9358 0 1
92.3269 0 1
92.4424 0 1
92.558 0 1
92.6736 0 1
92.7893 0 1
92.905 0 1
93.0208 0 1
93.1366 0 1
93.2525 0 1
93.3685 0 1
93.4845 0 1
93.6005 2142 46.2817
93.7167 2209 47
93.8328 2289 47.8435
93.949 2223 47.1487
94.0653 2309 48.0521
94.1816 2215 47.0638
94.2979 2048 45.2548
94.4143 1888 43.4511
94.5307 1815 42.6028
94.6472 1733 41.6293
94.7637 1654 40.6694
94.8803 1818 42.638
94.9969 1889 43.4626
95.1135 1998 44.699
95.2302 2055 45.3321
95.3469 2089 45.7056
95.4637 2208 46.9894
95.5805 2114 45.9783
95.6973 2212 47.0319
95.8142 2242 47.3498
95.9311 2192 46.8188
96.048 2165 46.5296
96.1649 2172 46.6047
96.2819 2153 46.4004
96.3989 2052 45.299
96.516 2120 46.0435
96.633 1941 44.0568
96.7501 1878 43.3359
96.8673 1844 42.9418
96.9844 1860 43.1277
97.1016 1962 44.2945
97.2188 1976 44.4522
97.336 2110 45.9347
97.4532 2161 46.4866
97.5704 2243 47.3603
97.6877 2144 46.3033
97.805 2171 46.594
97.9223 2121 46.0543
98.0396 2056 45.3431
98.1569 1795 42.3674
98.2743 1765 42.0119
98.3916 1633 40.4104
98.509 1780 42.19
98.6264 1847 42.9767
98.7438 1828 42.7551
98.8612 1991 44.6206
98.9786 2023 44.9778
99.096 2021 44.9555
99.2134 2010 44.833
99.3308 2105 45.8803
99.4482 2118 46.0217
99.5656 2082 45.6289
99.6831 2018 44.9222
99.8005 1894 43.5201
99.9179 2065 45.4423
100.035 1952 44.1814
100.153 1985 44.5533
100.27 1847 42.9767
100.388 1763 41.9881
100.505 1802 42.45
100.622 1795 42.3674
100.74 1836 42.8486
100.857 1991 44.6206
100.975 2084 45.6508
101.092 2068 45.4753
101.209 2228 47.2017
101.327 2124 46.0869
101.444 2160 46.4758
101.561 2127 46.1194
101.679 1976 44.4522
101.796 1889 43.4626
101.913 1716 41.4246
102.03 1744 41.7612
102.148 1762 41.9762
102.265 1712 41.3763
102.382 2130 46.1519
102.499 1958 44.2493
102.616 2052 45.299
102.733 2115 45.9891
102.851 2121 46.0543
102.968 2130 46.1519
103.085 2101 45.8367
103.202 2165 46.5296
103.319 2145 46.3141
103.436 2124 46.0869
103.552 2210 47.0106
103.669 2084 45.6508
103.786 2001 44.7325
103.903 1991 44.6206
104.02 1909 43.6921
104.137 1928 43.909
104.253 2031 45.0666
104.37 2098 45.8039
104.487 2271 47.655
104.603 2285 47.8017
104.72 2279 47.7389
104.836 2290 47.8539
104.953 2311 48.0729
105.069 2309 48.0521
105.186 2060 45.3872
105.302 1900 43.589
105.418 1802 42.45
105.535 1816 42.6146
105.651 1989 44.5982
105.767 1972 44.4072
105.883 2111 45.9456
105.999 2094 45.7602
106.115 0 1
106.231 0 1
106.347 0 1
106.463 0 1
106.579 0 1
106.694 0 1
106.81 0 1
106.926 0 1
107.041 0 1
107.157 0 1
109.576 0 1
109.692 0 1
109.807 0 1
109.923 0 1
110.039 0 1
110.155 0 1
110.27 0 1
110.386 0 1
110.502 0 1
110.618 1568 39.598
110.735 1695 41.1704
110.851 1789 42.2966
110.967 1842 42.9185
111.083 1892 43.4971
111.199 2017 44.911
111.316 1995 44.6654
111.432 1997 44.6878
111.549 1981 44.5084
111.665 1911 43.715
111.782 1911 43.715
111.898 1909 43.6921
112.015 1877 43.3244
112.132 1920 43.8178
112.248 1871 43.2551
112.365 1742 41.7373
112.482 1636 40.4475
112.599 1696 41.1825
112.716 1641 40.5093
112.832 1741 41.7253
112.949 1594 39.9249
113.066 1870 43.2435
113.183 1793 42.3438
113.3 1862 43.1509
113.417 1879 43.3474
113.534 1855 43.0697
113.652 1787 42.2729
113.769 1719 41.4608
113.886 1537 39.2046
114.003 1468 38.3145
114.12 1376 37.0945
114.238 1540 39.2428
114.355 1544 39.2938
114.472 1643 40.5339
114.589 1585 39.8121
114.707 1640 40.4969
114.824 1683 41.0244
114.942 1665 40.8044
115.059 1611 40.1373
115.176 1601 40.0125
115.294 1576 39.6989
115.411 1623 40.2865
115.529 1541 39.2556
115.646 1514 38.9102
115.764 1450 38.0789
115.881 1399 37.4032
115.999 1379 37.1349
116.116 1292 35.9444
116.234 1304 36.1109
116.351 1343 36.647
116.469 1329 36.4555
116.586 1423 37.7227
116.704 1379 37.1349
116.821 1355 36.8103
116.939 1462 38.2361
117.056 1494 38.6523
117.174 1469 38.3275
117.291 1397 37.3765
117.409 1341 36.6197
117.526 1317 36.2905
117.644 1155 33.9853
117.761 1218 34.8999
117.879 1264 35.5528
117.996 1303 36.0971
118.114 1367 36.973
118.231 1377 37.108
118.349 1366 36.9594
118.466 1478 38.4448
118.584 1444 38
118.701 1408 37.5233
118.819 1447 38.0395
118.936 1454 38.1314
119.053 1397 37.3765
119.171 1361 36.8917
119.288 1346 36.6879
119.405 1383 37.1887
119.523 1280 35.7771
119.64 1274 35.6931
119.757 1340 36.606
119.875 1398 37.3898
119.992 1366 36.9594
120.109 1388 37.2559
120.226 1389 37.2693
120.343 1531 39.128
120.46 1512 38.8844
120.578 1517 38.9487
120.695 1516 38.9358
120.812 1577 39.7115
120.929 1568 39.598
121.046 1422 37.7094
121.163 1364 36.9324
121.279 1334 36.524
121.396 1359 36.8646
121.513 1401 37.4299
121.63 1424 37.7359
121.747 1533 39.1535
121.863 1552 39.3954
121.98 1628 40.3485
122.097 1718 41.4488
122.213 1693 41.1461
122.33 1678 40.9634
122.446 1686 41.0609
122.563 1706 41.3038
122.679 1624 40.2989
122.795 1636 40.4475
122.912 1633 40.4104
123.028 1612 40.1497
123.144 1502 38.7556
123.26 1517 38.9487
123.377 0 1
123.493 0 1
123.609 0 1
123.725 0 1
123.84 0 1
123.956 0 1
124.072 0 1
124.188 0 1
124.303 0 1
124.419 0 1
126.852 0 1
126.968 0 1
127.083 0 1
127.199 0 1
127.315 0 1
127.431 0 1
127.547 0 1
127.663 0 1
127.779 0 1
127.895 0 1
128.011 0 1
128.127 0 1
128.243 0 1
128.359 1890 43.4741
128.476 1957 44.238
128.592 1792 42.332
128.708 1836 42.8486
128.825 1763 41.9881
128.941 1758 41.9285
129.058 1742 41.7373
129.174 1822 42.6849
129.291 1872 43.2666
129.408 1906 43.6578
129.524 1964 44.317
129.641 2043 45.1996
129.758 2062 45.4093
129.875 1971 44.3959
129.992 1930 43.9318
130.108 1751 41.845
130.225 1740 41.7133
130.342 1573 39.6611
130.459 1511 38.8716
130.576 1635 40.4351
130.693 1768 42.0476
130.81 1749 41.821
130.928 1848 42.9884
131.045 1853 43.0465
131.162 1954 44.2041
131.279 1916 43.7721
131.396 1909 43.6921
131.513 1898 43.566
131.631 1834 42.8252
131.748 1850 43.0116
131.865 1772 42.0951
131.983 1772 42.0951
132.1 1785 42.2493
132.217 1664 40.7922
132.335 1653 40.6571
132.452 1537 39.2046
132.57 1643 40.5339
132.687 1685 41.0488
132.804 1758 41.9285
132.922 1835 42.8369
133.039 1870 43.2435
133.157 1915 43.7607
133.274 1869 43.2319
133.392 1848 42.9884
133.509 1775 42.1307
133.627 1754 41.8808
133.744 1689 41.0974
133.862 1657 40.7063
133.979 1598 39.975
134.097 1641 40.5093
134.214 1676 40.939
134.332 1725 41.5331
134.449 1757 41.9166
134.567 1786 42.2611
134.684 1884 43.4051
134.802 1901 43.6005
134.919 1890 43.4741
135.037 1800 42.4264
135.154 1796 42.3792
135.272 1774 42.1189
135.389 1686 41.0609
135.507 1650 40.6202
135.624 1666 40.8167
135.742 1592 39.8999
135.859 1560 39.4968
135.977 1469 38.3275
136.094 1479 38.4578
136.211 1523 39.0256
136.329 1570 39.6232
136.446 1556 39.4462
136.564 1580 39.7492
136.681 1575 39.6863
136.798 1585 39.8121
136.915 1693 41.1461
137.033 1632 40.398
137.15 1608 40.0999
137.267 1460 38.2099
137.384 1467 38.3014
137.502 1333 36.5103
137.619 1329 36.4555
137.736 1465 38.2753
137.853 1486 38.5487
137.97 1600 40
138.087 1627 40.3361
138.204 1661 40.7554
138.321 1727 41.5572
138.438 1731 41.6053
138.555 1771 42.0833
138.672 1741 41.7253
138.788 1770 42.0714
138.905 1779 42.1782
139.022 1719 41.4608
139.139 1730 41.5933
139.255 1768 42.0476
139.372 1685 41.0488
139.488 1594 39.9249
139.605 1665 40.8044
139.721 1703 41.2674
139.838 1661 40.7554
139.954 1772 42.0951
140.071 1810 42.5441
140.187 1941 44.0568
140.303 1969 44.3734
140.419 1895 43.5316
140.535 1929 43.9204
140.652 1994 44.6542
140.768 0 1
140.884 0 1
141 0 1
141.115 0 1
141.231 0 1
141.347 0 1
141.463 0 1
141.578 0 1
141.694 0 1
144.104 0 1
144.219 0 1
144.335 0 1
144.45 0 1
144.566 0 1
144.682 0 1
144.798 0 1
144.914 0 1
145.03 0 1
145.146 2263 47.571
145.262 2525 50.2494
145.378 2668 51.6527
145.494 2837 53.2635
145.61 2942 54.2402
145.726 3093 55.6147
145.842 3289 57.3498
145.959 3307 57.5065
146.075 3433 58.5918
146.192 3357 57.9396
146.308 3299 57.4369
146.425 3366 58.0172
146.541 3793 61.5873
146.658 4201 64.8151
146.774 4643 68.1396
146.891 4939 70.278
147.008 5216 72.2219
147.125 5752 75.8419
147.241 5981 77.3369
147.358 6231 78.9367
147.475 6495 80.5916
147.592 6556 80.9691
147.709 6604 81.265
147.826 6673 81.6884
147.943 6696 81.8291
148.06 6548 80.9197
148.177 6572 81.0679
148.294 6766 82.2557
148.411 6620 81.3634
148.528 7060 84.0238
148.645 7335 85.6446
148.762 7604 87.2009
148.88 7723 87.8806
148.997 8277 90.978
149.114 7595 87.1493
149.231 7950 89.1628
149.349 8040 89.666
149.466 7790 88.261
149.583 7670 87.5785
149.701 7082 84.1546
149.818 6600 81.2404
149.935 6546 80.9074
150.053 6291 79.3158
150.17 6495 80.5916
150.287 7048 83.9524
150.405 7187 84.7762
150.522 7566 86.9828
150.64 7719 87.8578
150.757 7661 87.5271
150.875 7757 88.0738
150.992 7906 88.9157
151.11 8076 89.8666
151.227 7760 88.0909
151.344 7544 86.8562
151.462 7664 87.5443
151.579 7318 85.5453
151.697 7366 85.8254
151.814 7172 84.6877
151.932 7140 84.4985
152.049 7252 85.1587
152.167 7661 87.5271
152.284 7898 88.8707
152.402 8054 89.7441
152.519 8507 92.2334
152.636 8508 92.2388
152.754 8682 93.1773
152.871 8694 93.2416
152.989 8427 91.7987
153.106 8275 90.967
153.223 7759 88.0852
153.341 7337 85.6563
153.458 7156 84.5931
153.575 7080 84.1427
153.693 7319 85.5512
153.81 7473 86.4465
153.927 7875 88.7412
154.044 8396 91.6297
154.162 8423 91.7769
154.279 8751 93.5468
154.396 8993 94.8314
154.513 9002 94.8789
154.63 9294 96.4054
154.747 9270 96.2808
154.864 9408 96.9948
154.981 9018 94.9632
155.098 9110 95.4463
155.215 8754 93.5628
155.332 8753 93.5575
155.449 8822 93.9255
155.566 8667 93.0967
155.683 8885 94.2603
155.8 9178 95.8019
155.917 9584 97.8979
156.033 9849 99.2421
156.15 0 1
156.267 0 1
156.383 0 1
156.5 0 1
156.617 0 1
156.733 0 1
156.85 0 1
156.966 0 1
157.082 0 1
157.199 0 1
157.315 0 1
157.431 0 1
157.547 0 1
157.664 0 1
157.78 0 1
157.896 0 1
158.012 0 1
158.128 0 1
158.244 0 1
158.359 0 1
158.475 0 1
158.591 0 1
158.706 0 1
