
6.15755 0 1
6.2731 0 1
6.3887 0 1
6.50437 0 1
6.62009 0 1
6.73587 0 1
6.8517 0 1
6.96759 0 1
7.08353 0 1
7.19952 0 1
7.31557 0 1
7.43166 0 1
7.54781 0 1
7.664 0 1
7.78024 0 1
7.89653 0 1
8.01286 0 1
8.12924 0 1
8.24567 0 1
8.36213 0 1
8.47864 0 1
8.59519 0 1
8.71178 0 1
8.82841 0 1
8.94508 0 1
9.06179 0 1
9.17853 0 1
9.29531 0 1
9.41212 0 1
9.52897 0 1
9.64584 0 1
9.76276 0 1
9.8797 0 1
9.99667 0 1
10.1137 0 1
10.2307 0 1
10.3478 0 1
10.4648 0 1
10.5819 0 1
10.6991 0 1
10.8162 0 1
10.9334 0 1
11.0506 0 1
11.1678 0 1
11.285 0 1
11.4023 0 1
11.5196 0 1
11.6369 0 1
11.7542 0 1
11.8715 0 1
11.9888 0 1
12.1062 0 1
12.2235 0 1
12.3409 0 1
12.4582 0 1
12.5756 0 1
12.693 0 1
12.8104 0 1
12.9278 0 1
13.0452 0 1
13.1626 0 1
13.28 0 1
13.3974 0 1
13.5149 0 1
13.6323 0 1
13.7497 0 1
13.8671 0 1
13.9845 0 1
14.1019 0 1
14.2193 0 1
14.3367 0 1
14.4541 0 1
14.5714 0 1
14.6888 0 1
14.8062 0 1
14.9235 0 1
15.0408 0 0
15.1581 0 0
15.2755 0 0
15.3927 0 0
15.51 0 0
15.6273 0 0
15.7445 0 0
15.8617 0 0
15.9789 0 0
16.0961 0 0
16.2132 0 0
16.3304 0 0
16.4475 0 0
16.5646 0 0
16.6816 0 0
16.7986 0 0
16.9156 0 0
17.0326 0 0
17.1496 0 0
17.2665 0 0
17.3833 0 0
17.5002 0 0
17.617 0 0
17.7338 0 0
17.8505 0 0
17.9672 0 0
18.0839 0 0
18.2005 0 0
18.3171 0 0
18.4337 0 0
18.5502 0 0
18.6666 0 0
18.7831 0 0
18.8994 0 0
19.0158 0 0
19.1321 0 0
19.2483 0 0
19.3645 0 0
19.4806 0 0
19.5967 0 0
19.7128 0 0
19.8288 0 0
19.9447 0 0
20.0606 0 1
20.1764 0 1
20.2922 0 1
20.4079 0 1
20.5236 0 1
20.6392 0 1
20.7548 0 1
20.8702 0 1
23.3078 0 1
23.4233 0 1
23.539 0 1
23.6547 0 1
23.7704 0 1
23.8862 0 1
24.0021 0 1
24.118 0 1
24.234 0 1
24.35 0 1
24.4661 11228 105.962
24.5822 12510 111.848
24.6984 14027 118.436
24.8146 15619 124.976
24.9309 17100 130.767
25.0472 19310 138.96
25.1636 20699 143.871
25.28 22236 149.117
25.3965 23758 154.136
25.513 24880 157.734
25.6296 25696 160.3
25.7462 26734 163.505
25.8628 27077 164.551
25.9795 26844 163.841
26.0962 26811 163.741
26.213 26273 162.089
26.3298 25589 159.966
26.4466 25063 158.313
26.5635 24531 156.624
26.6804 24544 156.665
26.7973 25001 158.117
26.9143 25739 160.434
27.0313 25639 160.122
27.1483 26299 162.17
27.2653 27058 164.493
27.3824 26925 164.088
27.4996 26829 163.796
27.6167 26459 162.662
27.7339 26011 161.279
27.8511 25312 159.097
27.9683 24656 157.022
28.0855 24046 155.068
28.2028 23587 153.581
28.3201 23660 153.818
28.4374 24057 155.103
28.5547 24538 156.646
28.6721 25334 159.167
28.7894 25710 160.343
28.9068 26035 161.354
29.0242 25675 160.234
29.1416 25821 160.689
29.259 25556 159.862
29.3764 25427 159.458
29.4939 25219 158.805
29.6113 24836 157.594
29.7288 24555 156.7
29.8463 24516 156.576
29.9638 23949 154.755
30.0812 23911 154.632
30.1987 24271 155.792
30.3162 24426 156.288
30.4337 24755 157.337
30.5512 25633 160.103
30.6687 25889 160.901
30.7862 26447 162.625
30.9037 26886 163.97
31.0212 27129 164.709
31.1387 26903 164.021
31.2562 26026 161.326
31.3737 25722 160.381
31.4912 25065 158.319
31.6087 24630 156.939
31.7262 24188 155.525
31.8436 23539 153.424
31.9611 24273 155.798
32.0785 24860 157.671
32.1959 25218 158.802
32.3134 25957 161.112
32.4308 25735 160.421
32.5482 25532 159.787
32.6655 25646 160.144
32.7829 25295 159.044
32.9002 25529 159.778
33.0176 25358 159.242
33.1349 25372 159.286
33.2522 24968 158.013
33.3694 24546 156.672
33.4867 24038 155.042
33.6039 23959 154.787
33.7211 23651 153.789
33.8383 23965 154.806
33.9554 24296 155.872
34.0725 24899 157.794
34.1896 25482 159.631
34.3067 26310 162.204
34.4237 26535 162.896
34.5407 26774 163.628
34.6577 27009 164.344
34.7746 26805 163.722
34.8915 26532 162.886
35.0084 25601 160.003
35.1252 25238 158.865
35.242 24835 157.591
35.3587 24281 155.824
35.4755 23816 154.324
35.5921 23552 153.467
35.7088 23888 154.557
35.8254 24490 156.493
35.9419 25051 158.275
36.0584 25022 158.183
36.1749 24703 157.172
36.2913 23915 154.645
36.4077 23155 152.168
36.524 22133 148.772
36.6403 21513 146.673
36.7565 20137 141.905
36.8727 19338 139.061
36.9889 18144 134.7
37.1049 16660 129.074
37.221 0 1
37.3369 0 1
37.4529 0 1
37.5687 0 1
37.6845 0 1
37.8003 0 1
37.916 0 1
38.0316 0 1
38.1472 0 1
40.5851 0 1
40.7008 0 1
40.8164 0 1
40.9322 0 1
41.048 0 1
41.1639 0 1
41.2798 0 1
41.3958 0 1
41.5118 0 1
41.6279 0 1
41.744 13483 116.116
41.8602 15134 123.02
41.9765 16440 128.219
42.0928 17254 131.354
42.2091 17866 133.664
42.3255 18148 134.715
42.4419 18378 135.565
42.5584 18911 137.517
42.675 19984 141.365
42.7915 20938 144.7
42.9081 21923 148.064
43.0248 22572 150.24
43.1415 23311 152.679
43.2582 23891 154.567
43.375 24115 155.29
43.4918 24667 157.057
43.6087 24629 156.936
43.7256 24697 157.153
43.8425 24527 156.611
43.9595 24338 156.006
44.0765 24309 155.913
44.1935 23748 154.104
44.3106 23061 151.858
44.4277 22939 151.456
44.5448 23469 153.196
44.6619 23481 153.235
44.7791 24583 156.79
44.8963 24493 156.502
45.0136 24721 157.229
45.1308 24590 156.812
45.2481 24470 156.429
45.3654 24590 156.812
45.4827 24385 156.157
45.6001 24212 155.602
45.7174 23969 154.819
45.8348 23425 153.052
45.9522 22832 151.103
46.0697 22732 150.771
46.1871 22631 150.436
46.3046 22910 151.36
46.422 23522 153.369
46.5395 24492 156.499
46.657 25835 160.733
46.7745 26874 163.933
46.892 26957 164.186
47.0096 28197 167.92
47.1271 28198 167.923
47.2446 28190 167.899
47.3622 28459 168.698
47.4797 28035 167.437
47.5973 27699 166.43
47.7149 27240 165.045
47.8324 26271 162.083
47.95 25353 159.226
48.0675 25738 160.431
48.1851 26016 161.295
48.3027 26632 163.193
48.4202 27275 165.151
48.5378 26977 164.247
48.6554 27161 164.806
48.7729 27474 165.753
48.8904 27287 165.188
49.008 27619 166.19
49.1255 26930 164.104
49.243 25868 160.835
49.3605 25032 158.215
49.478 24172 155.473
49.5955 24102 155.248
49.713 23867 154.489
49.8304 24690 157.131
49.9479 25838 160.742
50.0653 26717 163.453
50.1827 28193 167.908
50.3001 28949 170.144
50.4175 30096 173.482
50.5348 30930 175.869
50.6521 31437 177.305
50.7694 31586 177.725
50.8867 31662 177.938
51.004 31423 177.265
51.1212 31221 176.695
51.2384 30452 174.505
51.3556 29796 172.615
51.4727 28788 169.67
51.5899 28476 168.748
51.707 29090 170.558
51.824 29586 172.006
51.9411 30592 174.906
52.0581 30543 174.766
52.175 30358 174.235
52.2919 30028 173.286
52.4088 30056 173.367
52.5257 29854 172.783
52.6425 29558 171.924
52.7593 28909 170.026
52.876 28064 167.523
52.9927 27354 165.39
53.1094 25932 161.034
53.226 25509 159.715
53.3426 24785 157.433
53.4591 24979 158.047
53.5756 25269 158.962
53.692 25063 158.313
53.8084 24983 158.06
53.9248 24638 156.965
54.0411 23769 154.172
54.1573 22326 149.419
54.2735 0 1
54.3896 0 1
54.5057 0 1
54.6217 0 1
54.7377 0 1
54.8537 0 1
54.9695 0 1
55.0853 0 1
55.2011 0 1
55.3168 0 1
55.4324 0 1
57.824 0 1
57.9396 0 1
58.0553 0 1
58.1711 0 1
58.2869 0 1
58.4028 0 1
58.5187 0 1
58.6347 0 1
58.7508 0 1
58.8669 0 1
58.983 28165 167.824
59.0992 31925 178.676
59.2155 35509 188.438
59.3318 38538 196.311
59.4482 41680 204.157
59.5646 43984 209.724
59.681 45764 213.925
59.7975 46351 215.293
59.9141 46679 216.053
60.0306 45478 213.256
60.1473 44564 211.102
60.2639 43964 209.676
60.3807 43988 209.733
60.4974 44683 211.384
60.6142 46132 214.784
60.731 47468 217.872
60.8479 47708 218.422
60.9648 48122 219.367
61.0818 48803 220.914
61.1987 48456 220.127
61.3158 48272 219.709
61.4328 47263 217.401
61.5499 45715 213.811
61.667 44149 210.117
61.7841 42101 205.185
61.9013 41414 203.504
62.0185 42083 205.141
62.1357 43785 209.249
62.253 45551 213.427
62.3702 47888 218.833
62.4875 50274 224.219
62.6049 52149 228.362
62.7222 54090 232.573
62.8396 55419 235.412
62.9569 56587 237.88
63.0743 57243 239.255
63.1918 56916 238.571
63.3092 56301 237.278
63.4267 55174 234.891
63.5441 52809 229.802
63.6616 50516 224.758
63.7791 48491 220.207
63.8966 47976 219.034
64.0142 48531 220.298
64.1317 49790 223.137
64.2492 50294 224.263
64.3668 50830 225.455
64.4843 51211 226.298
64.6019 51448 226.822
64.7195 51932 227.886
64.837 51456 226.839
64.9546 50717 225.204
65.0722 49751 223.049
65.1898 47408 217.734
65.3074 45172 212.537
65.4249 43729 209.115
65.5425 42769 206.807
65.6601 43026 207.427
65.7777 45575 213.483
65.8952 48658 220.586
66.0128 51059 225.962
66.1304 53200 230.651
66.2479 55151 234.843
66.3655 56728 238.176
66.483 59123 243.152
66.6005 59256 243.426
66.718 59591 244.113
66.8355 59444 243.811
66.953 57996 240.824
67.0705 56289 237.253
67.1879 54017 232.416
67.3054 51398 226.711
67.4228 48796 220.898
67.5402 47208 217.274
67.6576 47986 219.057
67.7749 48934 221.21
67.8923 50010 223.629
68.0096 51159 226.184
68.1269 51730 227.442
68.2442 52713 229.593
68.3614 52824 229.835
68.4787 52840 229.87
68.5958 51593 227.141
68.713 50418 224.54
68.8302 48346 219.877
68.9473 45618 213.584
69.0643 42970 207.292
69.1814 40707 201.76
69.2984 40988 202.455
69.4154 43202 207.851
69.5323 45992 214.457
69.6492 48319 219.816
69.7661 50759 225.298
69.8829 52331 228.76
69.9997 52529 229.192
70.1165 52180 228.429
70.2332 51320 226.539
70.3499 49163 221.727
70.4665 46715 216.137
70.5831 44002 209.767
70.6996 41312 203.254
70.8161 38491 196.191
70.9326 34654 186.156
71.049 30174 173.707
71.1653 27025 164.393
71.2817 25135 158.54
71.3979 24411 156.24
71.5141 23500 153.297
71.6303 22192 148.97
71.7464 20634 143.645
71.8624 0 1
71.9784 0 1
72.0944 0 1
72.2102 0 1
72.3261 0 1
72.4418 0 1
72.5575 0 1
72.6732 0 1
75.1054 0 1
75.2209 0 1
75.3365 0 1
75.4521 0 1
75.5678 0 1
75.6835 0 1
75.7993 0 1
75.9151 0 1
76.031 0 1
76.147 36141 190.108
76.263 38164 195.356
76.3791 37785 194.384
76.4952 37257 193.021
76.6113 36867 192.008
76.7276 38211 195.476
76.8438 39534 198.832
76.9601 41861 204.6
77.0765 43097 207.598
77.1929 44750 211.542
77.3093 45456 213.204
77.4258 46216 214.979
77.5423 46629 215.937
77.6589 45702 213.78
77.7755 42895 207.111
77.8921 40507 201.264
78.0088 38095 195.179
78.1256 35892 189.452
78.2423 34604 186.022
78.3591 36355 190.67
78.4759 38712 196.754
78.5928 41768 204.372
78.7097 44780 211.613
78.8266 48299 219.77
78.9436 49627 222.771
79.0606 51400 226.716
79.1776 52960 230.13
79.2946 53157 230.558
79.4117 53813 231.976
79.5288 53297 230.861
79.6459 53038 230.3
79.7631 51266 226.42
79.8802 48542 220.322
79.9974 45132 212.443
80.1147 42570 206.325
80.2319 41362 203.376
80.3491 41183 202.936
80.4664 42617 206.439
80.5837 43866 209.442
80.701 45586 213.509
80.8183 46558 215.773
80.9357 47703 218.41
81.053 48744 220.78
81.1704 48600 220.454
81.2877 48613 220.484
81.4051 47269 217.414
81.5225 45396 213.063
81.6399 41989 204.912
81.7573 38656 196.611
81.8747 37146 192.733
81.9922 36203 190.271
82.1096 38855 197.117
82.227 42151 205.307
82.3444 46069 214.637
82.4619 49952 223.499
82.5793 52280 228.648
82.6967 53984 232.345
82.8142 54565 233.592
82.9316 55702 236.013
83.049 56095 236.844
83.1664 55687 235.981
83.2838 54045 232.476
83.4012 52090 228.232
83.5186 49466 222.41
83.636 47046 216.901
83.7534 44333 210.554
83.8708 42240 205.524
83.9881 41393 203.453
84.1055 41721 204.257
84.2228 44175 210.178
84.3401 45368 212.998
84.4575 48288 219.745
84.5747 50062 223.745
84.692 51103 226.06
84.8093 51230 226.34
84.9265 49889 223.358
85.0437 48504 220.236
85.1609 45127 212.431
85.2781 41412 203.499
85.3952 38286 195.668
85.5123 36460 190.945
85.6294 36974 192.286
85.7465 40227 200.567
85.8636 44258 210.376
85.9806 47696 218.394
86.0976 50721 225.213
86.2145 53108 230.452
86.3315 53611 231.54
86.4484 55723 236.057
86.5652 55014 234.551
86.682 55236 235.023
86.7988 54414 233.268
86.9156 53015 230.25
87.0323 51222 226.323
87.149 49034 221.436
87.2657 46279 215.126
87.3823 41881 204.648
87.4988 38445 196.074
87.6154 36294 190.51
87.7318 35761 189.106
87.8483 36357 190.675
87.9647 36608 191.332
88.081 37334 193.22
88.1973 36924 192.156
88.3136 36060 189.895
88.4298 33869 184.035
88.546 31433 177.294
88.6621 27608 166.157
88.7781 23113 152.03
88.8942 0 1
89.0101 0 1
89.126 0 1
89.2419 0 1
89.3577 0 1
89.4734 0 1
89.5891 0 1
89.7047 0 1
89.8203 0 1
89.9358 0 1
92.3269 0 1
92.4424 0 1
92.558 0 1
92.6736 0 1
92.7893 0 1
92.905 0 1
93.0208 0 1
93.1366 0 1
93.2525 0 1
93.3685 0 1
93.4845 0 1
93.6005 39147 197.856
93.7167 41902 204.7
93.8328 44900 211.896
93.949 46641 215.965
94.0653 48091 219.297
94.1816 48200 219.545
94.2979 47504 217.954
94.4143 45396 213.063
94.5307 42008 204.959
94.6472 38808 196.997
94.7637 37315 193.171
94.8803 39209 198.013
94.9969 43062 207.514
95.1135 47067 216.949
95.2302 50873 225.55
95.3469 54457 233.36
95.4637 56746 238.214
95.5805 58709 242.299
95.6973 59401 243.723
95.8142 58960 242.817
95.9311 58373 241.605
96.048 57488 239.767
96.1649 55641 235.883
96.2819 53562 231.435
96.3989 51280 226.451
96.516 48998 221.355
96.633 45829 214.077
96.7501 43649 208.923
96.8673 43072 207.538
96.9844 43256 207.981
97.1016 45110 212.391
97.2188 46952 216.684
97.336 49734 223.011
97.4532 53019 230.259
97.5704 54508 233.469
97.6877 55037 234.6
97.805 54225 232.863
97.9223 52018 228.075
98.0396 48146 219.422
98.1569 44145 210.107
98.2743 40137 200.342
98.3916 37361 193.29
98.509 38835 197.066
98.6264 42484 206.116
98.7438 47827 218.694
98.8612 51923 227.866
98.9786 56078 236.808
99.096 58844 242.578
99.2134 60792 246.56
99.3308 61324 247.637
99.4482 61566 248.125
99.5656 61844 248.685
99.6831 61366 247.722
99.8005 59119 243.144
99.9179 56731 238.183
100.035 53975 232.325
100.153 51023 225.883
100.27 47815 218.666
100.388 45771 213.942
100.505 45701 213.778
100.622 47241 217.35
100.74 48805 220.919
100.857 50676 225.113
100.975 53501 231.303
101.092 55952 236.542
101.209 57399 239.581
101.327 57315 239.406
101.444 55590 235.775
101.561 53311 230.892
101.679 49154 221.707
101.796 44613 211.218
101.913 40290 200.724
102.03 39280 198.192
102.148 42353 205.798
102.265 47045 216.899
102.382 54127 232.652
102.499 57780 240.375
102.616 60723 246.42
102.733 61985 248.968
102.851 63526 252.044
102.968 62895 250.789
103.085 63716 252.42
103.202 62963 250.924
103.319 60930 246.84
103.436 58213 241.274
103.552 55578 235.75
103.669 52784 229.748
103.786 49656 222.836
103.903 47331 217.557
104.02 46778 216.282
104.137 47972 219.025
104.253 49789 223.134
104.37 51807 227.612
104.487 54695 233.87
104.603 56112 236.88
104.72 55496 235.576
104.836 53031 230.285
104.953 48713 220.71
105.069 44382 210.67
105.186 39099 197.735
105.302 34477 185.68
105.418 31180 176.579
105.535 28946 170.135
105.651 29678 172.273
105.767 31576 177.696
105.883 33057 181.816
105.999 32817 181.155
106.115 0 1
106.231 0 1
106.347 0 1
106.463 0 1
106.579 0 1
106.694 0 1
106.81 0 1
106.926 0 1
107.041 0 1
107.157 0 1
109.576 0 1
109.692 0 1
109.807 0 1
109.923 0 1
110.039 0 1
110.155 0 1
110.27 0 1
110.386 0 1
110.502 0 1
110.618 21539 146.762
110.735 26465 162.681
110.851 33255 182.36
110.967 39655 199.136
111.083 44114 210.033
111.199 47955 218.986
111.316 50665 225.089
111.432 52157 228.379
111.549 53201 230.653
111.665 54257 232.931
111.782 54350 233.131
111.898 53366 231.011
112.015 51408 226.733
112.132 49027 221.42
112.248 46441 215.502
112.365 43719 209.091
112.482 41619 204.007
112.599 41755 204.34
112.716 42084 205.144
112.832 43219 207.892
112.949 45120 212.415
113.066 46812 216.361
113.183 49055 221.484
113.3 49811 223.184
113.417 50189 224.029
113.534 49762 223.074
113.652 48957 221.262
113.769 46692 216.083
113.886 42100 205.183
114.003 37759 194.317
114.12 34757 186.432
114.238 34851 186.684
114.355 39794 199.484
114.472 46501 215.641
114.589 48372 219.936
114.707 52332 228.762
114.824 54500 233.452
114.942 55413 235.4
115.059 55503 235.591
115.176 55211 234.97
115.294 55273 235.102
115.411 53950 232.271
115.529 52146 228.355
115.646 49469 222.416
115.764 46794 216.319
115.881 44431 210.787
115.999 41882 204.651
116.116 40706 201.757
116.234 40685 201.705
116.351 42154 205.314
116.469 43095 207.593
116.586 44190 210.214
116.704 46532 215.713
116.821 47474 217.885
116.939 47538 218.032
117.056 47836 218.714
117.174 47499 217.943
117.291 46385 215.372
117.409 43795 209.273
117.526 39320 198.293
117.644 34977 187.021
117.761 33111 181.964
117.879 35847 189.333
117.996 40843 202.097
118.114 45992 214.457
118.231 49157 221.714
118.349 51246 226.376
118.466 52445 229.009
118.584 52274 228.635
118.701 52394 228.897
118.819 52560 229.26
118.936 51719 227.418
119.053 50452 224.615
119.171 48877 221.081
119.288 46285 215.139
119.405 44222 210.29
119.523 42047 205.054
119.64 40143 200.357
119.757 39463 198.653
119.875 39646 199.113
119.992 40492 201.226
120.109 40714 201.777
120.226 42237 205.516
120.343 43467 208.487
120.46 44487 210.919
120.578 44524 211.007
120.695 44397 210.706
120.812 44024 209.819
120.929 44081 209.955
121.046 41239 203.074
121.163 37414 193.427
121.279 33386 182.718
121.396 30733 175.308
121.513 30655 175.086
121.63 33096 181.923
121.747 36317 190.57
121.863 38334 195.791
121.98 38949 197.355
122.097 39093 197.719
122.213 39210 198.015
122.33 38454 196.097
122.446 37050 192.484
122.563 36101 190.003
122.679 34651 186.148
122.795 32560 180.444
122.912 29794 172.609
123.028 26981 164.259
123.144 24003 154.929
123.26 21719 147.374
123.377 0 1
123.493 0 1
123.609 0 1
123.725 0 1
123.84 0 1
123.956 0 1
124.072 0 1
124.188 0 1
124.303 0 1
124.419 0 1
126.852 0 1
126.968 0 1
127.083 0 1
127.199 0 1
127.315 0 1
127.431 0 1
127.547 0 1
127.663 0 1
127.779 0 1
127.895 0 1
128.011 0 1
128.127 0 1
128.243 0 1
128.359 47948 218.97
128.476 47751 218.52
128.592 47082 216.984
128.708 45927 214.306
128.825 44930 211.967
128.941 45554 213.434
129.058 46396 215.397
129.174 46756 216.231
129.291 47869 218.79
129.408 48478 220.177
129.524 50306 224.29
129.641 50757 225.293
129.758 51253 226.391
129.875 51013 225.861
129.992 51678 227.328
130.108 50064 223.75
130.225 45499 213.305
130.342 41707 204.223
130.459 39676 199.188
130.576 39125 197.8
130.693 43207 207.863
130.81 47835 218.712
130.928 51087 226.024
131.045 53297 230.861
131.162 54995 234.51
131.279 56065 236.78
131.396 56099 236.852
131.513 56538 237.777
131.631 55656 235.915
131.748 55050 234.627
131.865 53976 232.327
131.983 52126 228.311
132.1 50163 223.971
132.217 48754 220.803
132.335 48194 219.531
132.452 47572 218.11
132.57 48465 220.148
132.687 49568 222.639
132.804 48814 220.939
132.922 49106 221.599
133.039 50556 224.847
133.157 51329 226.559
133.274 51669 227.308
133.392 52119 228.296
133.509 51981 227.993
133.627 51864 227.737
133.744 48370 219.932
133.862 44846 211.769
133.979 41384 203.431
134.097 40715 201.78
134.214 42670 206.567
134.332 47436 217.798
134.449 50825 225.444
134.567 53416 231.119
134.684 54991 234.502
134.802 55473 235.527
134.919 55958 236.554
135.037 56228 237.124
135.154 55651 235.905
135.272 55038 234.602
135.389 54715 233.912
135.507 52742 229.656
135.624 51688 227.35
135.742 50523 224.773
135.859 49562 222.625
135.977 48896 221.124
136.094 49350 222.149
136.211 49529 222.551
136.329 49551 222.601
136.446 50134 223.906
136.564 50156 223.955
136.681 50628 225.007
136.798 51536 227.015
136.915 51878 227.767
137.033 52145 228.353
137.15 52363 228.83
137.267 51537 227.018
137.384 48009 219.11
137.502 44074 209.938
137.619 40853 202.121
137.736 40061 200.152
137.853 41523 203.772
137.97 45657 213.675
138.087 50023 223.658
138.204 51204 226.283
138.321 52530 229.194
138.438 52949 230.106
138.555 53484 231.266
138.672 53235 230.727
138.788 51838 227.68
138.905 49197 221.804
139.022 46618 215.912
139.139 43825 209.344
139.255 41944 204.802
139.372 39446 198.61
139.488 37023 192.414
139.605 35054 187.227
139.721 33873 184.046
139.838 33283 182.436
139.954 32329 179.803
140.071 31458 177.364
140.187 29187 170.842
140.303 27746 166.571
140.419 26518 162.843
140.535 25592 159.975
140.652 24531 156.624
140.768 0 1
140.884 0 1
141 0 1
141.115 0 1
141.231 0 1
141.347 0 1
141.463 0 1
141.578 0 1
141.694 0 1
144.104 0 1
144.219 0 1
144.335 0 1
144.45 0 1
144.566 0 1
144.682 0 1
144.798 0 1
144.914 0 1
145.03 0 1
145.146 36997 192.346
145.262 38091 195.169
145.378 39052 197.616
145.494 39831 199.577
145.61 40154 200.385
145.726 40936 202.326
145.842 41409 203.492
145.959 41563 203.87
146.075 40501 201.249
146.192 38276 195.643
146.308 35591 188.656
146.425 33631 183.388
146.541 32623 180.618
146.658 34101 184.665
146.774 36846 191.953
146.891 39177 197.932
147.008 40908 202.257
147.125 41467 203.634
147.241 42378 205.859
147.358 43342 208.187
147.475 43084 207.567
147.592 43169 207.772
147.709 42621 206.449
147.826 41761 204.355
147.943 41333 203.305
148.06 41386 203.435
148.177 39981 199.952
148.294 39659 199.146
148.411 39978 199.945
148.528 39590 198.972
148.645 40150 200.375
148.762 40167 200.417
148.88 40605 201.507
148.997 41303 203.231
149.114 39788 199.469
149.231 40096 200.24
149.349 40774 201.926
149.466 40911 202.265
149.583 41181 202.931
149.701 41034 202.569
149.818 39270 198.167
149.935 37048 192.479
150.053 34293 185.184
150.17 33519 183.082
150.287 33609 183.328
150.405 35605 188.693
150.522 38090 195.167
150.64 39538 198.842
150.757 40709 201.765
150.875 41450 203.593
150.992 42390 205.888
151.11 42248 205.543
151.227 41896 204.685
151.344 41741 204.306
151.462 40993 202.467
151.579 40755 201.879
151.697 40161 200.402
151.814 39774 199.434
151.932 39783 199.457
152.049 39491 198.723
152.167 38784 196.937
152.284 39078 197.682
152.402 39036 197.575
152.519 38809 197
152.636 38827 197.046
152.754 38989 197.456
152.871 38930 197.307
152.989 38947 197.35
153.106 39175 197.927
153.223 38882 197.185
153.341 38935 197.32
153.458 37135 192.704
153.575 34409 185.497
153.693 32487 180.242
153.81 31712 178.079
153.927 32824 181.174
154.044 35363 188.051
154.162 36904 192.104
154.279 38014 194.972
154.396 39028 197.555
154.513 39869 199.672
154.63 40071 200.177
154.747 40076 200.19
154.864 39881 199.702
154.981 38932 197.312
155.098 38432 196.041
155.215 37841 194.528
155.332 37552 193.783
155.449 36655 191.455
155.566 36141 190.108
155.683 36164 190.168
155.8 35940 189.578
155.917 35740 189.05
156.033 34172 184.857
156.15 0 1
156.267 0 1
156.383 0 1
156.5 0 1
156.617 0 1
156.733 0 1
156.85 0 1
156.966 0 1
157.082 0 1
157.199 0 1
157.315 0 1
157.431 0 1
157.547 0 1
157.664 0 1
157.78 0 1
157.896 0 1
158.012 0 1
158.128 0 1
158.244 0 1
158.359 0 1
158.475 0 1
158.591 0 1
158.706 0 1
