
6.15755 0 1
6.2731 0 1
6.3887 0 1
6.50437 0 1
6.62009 0 1
6.73587 0 1
6.8517 0 1
6.96759 0 1
7.08353 0 1
7.19952 0 1
7.31557 0 1
7.43166 0 1
7.54781 0 1
7.664 0 1
7.78024 0 1
7.89653 0 1
8.01286 0 1
8.12924 0 1
8.24567 0 1
8.36213 0 1
8.47864 0 1
8.59519 0 1
8.71178 0 1
8.82841 0 1
8.94508 0 1
9.06179 0 1
9.17853 0 1
9.29531 0 1
9.41212 0 1
9.52897 0 1
9.64584 0 1
9.76276 0 1
9.8797 0 1
9.99667 0 1
10.1137 0 1
10.2307 0 1
10.3478 0 1
10.4648 0 1
10.5819 0 1
10.6991 0 1
10.8162 0 1
10.9334 0 1
11.0506 0 1
11.1678 0 1
11.285 0 1
11.4023 0 1
11.5196 0 1
11.6369 0 1
11.7542 0 1
11.8715 0 1
11.9888 0 1
12.1062 0 1
12.2235 0 1
12.3409 0 1
12.4582 0 1
12.5756 0 1
12.693 0 1
12.8104 0 1
12.9278 0 1
13.0452 0 1
13.1626 0 1
13.28 0 1
13.3974 0 1
13.5149 0 1
13.6323 0 1
13.7497 0 1
13.8671 0 1
13.9845 0 1
14.1019 0 1
14.2193 0 1
14.3367 0 1
14.4541 0 1
14.5714 0 1
14.6888 0 1
14.8062 0 1
14.9235 0 1
15.0408 991 31.4802
15.1581 1015 31.8591
15.2755 1112 33.3467
15.3927 1038 32.218
15.51 1038 32.218
15.6273 1003 31.6702
15.7445 1022 31.9687
15.8617 954 30.8869
15.9789 921 30.348
16.0961 941 30.6757
16.2132 931 30.5123
16.3304 948 30.7896
16.4475 959 30.9677
16.5646 946 30.7571
16.6816 903 30.05
16.7986 881 29.6816
16.9156 933 30.545
17.0326 928 30.4631
17.1496 882 29.6985
17.2665 870 29.4958
17.3833 904 30.0666
17.5002 875 29.5804
17.617 876 29.5973
17.7338 888 29.7993
17.8505 933 30.545
17.9672 894 29.8998
18.0839 920 30.3315
18.2005 918 30.2985
18.3171 941 30.6757
18.4337 907 30.1164
18.5502 962 31.0161
18.6666 959 30.9677
18.7831 970 31.1448
18.8994 937 30.6105
19.0158 838 28.9482
19.1321 829 28.7924
19.2483 812 28.4956
19.3645 797 28.2312
19.4806 746 27.313
19.5967 716 26.7582
19.7128 804 28.3549
19.8288 668 25.8457
19.9447 560 23.6643
20.0606 0 1
20.1764 0 1
20.2922 0 1
20.4079 0 1
20.5236 0 1
20.6392 0 1
20.7548 0 1
20.8702 0 1
23.3078 0 1
23.4233 0 1
23.539 0 1
23.6547 0 1
23.7704 0 1
23.8862 0 1
24.0021 0 1
24.118 0 1
24.234 0 1
24.35 0 1
24.4661 410 20.2485
24.5822 440 20.9762
24.6984 466 21.587
24.8146 540 23.2379
24.9309 631 25.1197
25.0472 686 26.1916
25.1636 746 27.313
25.28 845 29.0689
25.3965 892 29.8664
25.513 906 30.0998
25.6296 975 31.225
25.7462 957 30.9354
25.8628 942 30.692
25.9795 992 31.496
26.0962 910 30.1662
26.213 915 30.249
26.3298 922 30.3645
26.4466 892 29.8664
26.5635 845 29.0689
26.6804 829 28.7924
26.7973 840 28.9828
26.9143 817 28.5832
27.0313 803 28.3373
27.1483 851 29.1719
27.2653 825 28.7228
27.3824 824 28.7054
27.4996 812 28.4956
27.6167 814 28.5307
27.7339 869 29.4788
27.8511 776 27.8568
27.9683 881 29.6816
28.0855 797 28.2312
28.2028 812 28.4956
28.3201 860 29.3258
28.4374 829 28.7924
28.5547 830 28.8097
28.6721 883 29.7153
28.7894 844 29.0517
28.9068 877 29.6142
29.0242 834 28.8791
29.1416 813 28.5132
29.259 885 29.7489
29.3764 870 29.4958
29.4939 837 28.931
29.6113 805 28.3725
29.7288 769 27.7308
29.8463 773 27.8029
29.9638 779 27.9106
30.0812 769 27.7308
30.1987 807 28.4077
30.3162 809 28.4429
30.4337 762 27.6043
30.5512 791 28.1247
30.6687 795 28.1957
30.7862 822 28.6705
30.9037 798 28.2489
31.0212 799 28.2666
31.1387 846 29.0861
31.2562 767 27.6948
31.3737 829 28.7924
31.4912 799 28.2666
31.6087 870 29.4958
31.7262 832 28.8444
31.8436 820 28.6356
31.9611 785 28.0179
32.0785 751 27.4044
32.1959 769 27.7308
32.3134 753 27.4408
32.4308 739 27.1846
32.5482 733 27.074
32.6655 727 26.9629
32.7829 729 27
32.9002 745 27.2947
33.0176 703 26.5141
33.1349 716 26.7582
33.2522 738 27.1662
33.3694 752 27.4226
33.4867 790 28.1069
33.6039 752 27.4226
33.7211 739 27.1846
33.8383 746 27.313
33.9554 767 27.6948
34.0725 734 27.0924
34.1896 731 27.037
34.3067 717 26.7769
34.4237 782 27.9643
34.5407 790 28.1069
34.6577 725 26.9258
34.7746 735 27.1109
34.8915 698 26.4197
35.0084 636 25.219
35.1252 749 27.3679
35.242 712 26.6833
35.3587 744 27.2764
35.4755 702 26.4953
35.5921 715 26.7395
35.7088 668 25.8457
35.8254 671 25.9037
35.9419 669 25.865
36.0584 715 26.7395
36.1749 687 26.2107
36.2913 695 26.3629
36.4077 719 26.8142
36.524 714 26.7208
36.6403 658 25.6515
36.7565 578 24.0416
36.8727 532 23.0651
36.9889 568 23.8328
37.1049 483 21.9773
37.221 0 1
37.3369 0 1
37.4529 0 1
37.5687 0 1
37.6845 0 1
37.8003 0 1
37.916 0 1
38.0316 0 1
38.1472 0 1
40.5851 0 1
40.7008 0 1
40.8164 0 1
40.9322 0 1
41.048 0 1
41.1639 0 1
41.2798 0 1
41.3958 0 1
41.5118 0 1
41.6279 0 1
41.744 281 16.7631
41.8602 302 17.3781
41.9765 442 21.0238
42.0928 432 20.7846
42.2091 465 21.5639
42.3255 502 22.4054
42.4419 594 24.3721
42.5584 566 23.7908
42.675 588 24.2487
42.7915 590 24.2899
42.9081 568 23.8328
43.0248 577 24.0208
43.1415 575 23.9792
43.2582 494 22.2261
43.375 564 23.7487
43.4918 573 23.9374
43.6087 554 23.5372
43.7256 492 22.1811
43.8425 550 23.4521
43.9595 508 22.5389
44.0765 550 23.4521
44.1935 592 24.3311
44.3106 612 24.7386
44.4277 497 22.2935
44.5448 538 23.1948
44.6619 522 22.8473
44.7791 481 21.9317
44.8963 499 22.3383
45.0136 555 23.5584
45.1308 553 23.516
45.2481 561 23.6854
45.3654 590 24.2899
45.4827 587 24.2281
45.6001 578 24.0416
45.7174 595 24.3926
45.8348 611 24.7184
45.9522 658 25.6515
46.0697 642 25.3377
46.1871 593 24.3516
46.3046 588 24.2487
46.422 522 22.8473
46.5395 551 23.4734
46.657 532 23.0651
46.7745 518 22.7596
46.892 516 22.7156
47.0096 556 23.5797
47.1271 552 23.4947
47.2446 553 23.516
47.3622 534 23.1084
47.4797 546 23.3666
47.5973 541 23.2594
47.7149 547 23.388
47.8324 573 23.9374
47.95 554 23.5372
48.0675 513 22.6495
48.1851 533 23.0868
48.3027 514 22.6716
48.4202 507 22.5167
48.5378 514 22.6716
48.6554 567 23.8118
48.7729 589 24.2693
48.8904 568 23.8328
49.008 593 24.3516
49.1255 603 24.5561
49.243 592 24.3311
49.3605 598 24.454
49.478 584 24.1661
49.5955 566 23.7908
49.713 540 23.2379
49.8304 584 24.1661
49.9479 542 23.2809
50.0653 483 21.9773
50.1827 486 22.0454
50.3001 471 21.7025
50.4175 530 23.0217
50.5348 510 22.5832
50.6521 491 22.1585
50.7694 524 22.891
50.8867 591 24.3105
51.004 528 22.9783
51.1212 541 23.2594
51.2384 540 23.2379
51.3556 524 22.891
51.4727 534 23.1084
51.5899 511 22.6053
51.707 499 22.3383
51.824 479 21.8861
51.9411 558 23.622
52.0581 510 22.5832
52.175 518 22.7596
52.2919 555 23.5584
52.4088 559 23.6432
52.5257 543 23.3024
52.6425 552 23.4947
52.7593 516 22.7156
52.876 609 24.6779
52.9927 550 23.4521
53.1094 523 22.8692
53.226 566 23.7908
53.3426 565 23.7697
53.4591 544 23.3238
53.5756 478 21.8632
53.692 488 22.0907
53.8084 419 20.4695
53.9248 396 19.8997
54.0411 396 19.8997
54.1573 353 18.7883
54.2735 0 1
54.3896 0 1
54.5057 0 1
54.6217 0 1
54.7377 0 1
54.8537 0 1
54.9695 0 1
55.0853 0 1
55.2011 0 1
55.3168 0 1
55.4324 0 1
57.824 0 1
57.9396 0 1
58.0553 0 1
58.1711 0 1
58.2869 0 1
58.4028 0 1
58.5187 0 1
58.6347 0 1
58.7508 0 1
58.8669 0 1
58.983 389 19.7231
59.0992 433 20.8087
59.2155 568 23.8328
59.3318 637 25.2389
59.4482 650 25.4951
59.5646 654 25.5734
59.681 677 26.0192
59.7975 733 27.074
59.9141 754 27.4591
60.0306 849 29.1376
60.1473 832 28.8444
60.2639 780 27.9285
60.3807 811 28.4781
60.4974 770 27.7489
60.6142 791 28.1247
60.731 823 28.688
60.8479 752 27.4226
60.9648 803 28.3373
61.0818 837 28.931
61.1987 812 28.4956
61.3158 787 28.0535
61.4328 800 28.2843
61.5499 798 28.2489
61.667 796 28.2135
61.7841 828 28.775
61.9013 801 28.3019
62.0185 772 27.7849
62.1357 778 27.8927
62.253 712 26.6833
62.3702 684 26.1534
62.4875 651 25.5147
62.6049 663 25.7488
62.7222 726 26.9444
62.8396 720 26.8328
62.9569 745 27.2947
63.0743 763 27.6225
63.1918 684 26.1534
63.3092 722 26.8701
63.4267 712 26.6833
63.5441 744 27.2764
63.6616 657 25.632
63.7791 667 25.8263
63.8966 660 25.6905
64.0142 591 24.3105
64.1317 605 24.5967
64.2492 662 25.7294
64.3668 622 24.9399
64.4843 644 25.3772
64.6019 701 26.4764
64.7195 717 26.7769
64.837 665 25.7876
64.9546 671 25.9037
65.0722 685 26.1725
65.1898 632 25.1396
65.3074 677 26.0192
65.4249 649 25.4755
65.5425 668 25.8457
65.6601 691 26.2869
65.7777 662 25.7294
65.8952 615 24.7992
66.0128 553 23.516
66.1304 621 24.9199
66.2479 618 24.8596
66.3655 641 25.318
66.483 709 26.6271
66.6005 655 25.593
66.718 715 26.7395
66.8355 675 25.9808
66.953 690 26.2679
67.0705 688 26.2298
67.1879 653 25.5539
67.3054 609 24.6779
67.4228 646 25.4165
67.5402 658 25.6515
67.6576 577 24.0208
67.7749 608 24.6577
67.8923 584 24.1661
68.0096 557 23.6008
68.1269 579 24.0624
68.2442 631 25.1197
68.3614 668 25.8457
68.4787 619 24.8797
68.5958 634 25.1794
68.713 644 25.3772
68.8302 669 25.865
68.9473 628 25.0599
69.0643 707 26.5895
69.1814 681 26.096
69.2984 658 25.6515
69.4154 636 25.219
69.5323 592 24.3311
69.6492 594 24.3721
69.7661 552 23.4947
69.8829 613 24.7588
69.9997 628 25.0599
70.1165 611 24.7184
70.2332 597 24.4336
70.3499 622 24.9399
70.4665 588 24.2487
70.5831 535 23.1301
70.6996 508 22.5389
70.8161 459 21.4243
70.9326 443 21.0476
71.049 421 20.5183
71.1653 362 19.0263
71.2817 319 17.8606
71.3979 295 17.1756
71.5141 284 16.8523
71.6303 256 16
71.7464 192 13.8564
71.8624 0 1
71.9784 0 1
72.0944 0 1
72.2102 0 1
72.3261 0 1
72.4418 0 1
72.5575 0 1
72.6732 0 1
75.1054 0 1
75.2209 0 1
75.3365 0 1
75.4521 0 1
75.5678 0 1
75.6835 0 1
75.7993 0 1
75.9151 0 1
76.031 0 1
76.147 384 19.5959
76.263 425 20.6155
76.3791 453 21.2838
76.4952 459 21.4243
76.6113 462 21.4942
76.7276 482 21.9545
76.8438 480 21.9089
76.9601 495 22.2486
77.0765 504 22.4499
77.1929 569 23.8537
77.3093 563 23.7276
77.4258 579 24.0624
77.5423 553 23.516
77.6589 525 22.9129
77.7755 559 23.6432
77.8921 563 23.7276
78.0088 602 24.5357
78.1256 570 23.8747
78.2423 562 23.7065
78.3591 546 23.3666
78.4759 529 23
78.5928 489 22.1133
78.7097 472 21.7256
78.8266 512 22.6274
78.9436 495 22.2486
79.0606 529 23
79.1776 525 22.9129
79.2946 550 23.4521
79.4117 578 24.0416
79.5288 562 23.7065
79.6459 619 24.8797
79.7631 580 24.0832
79.8802 562 23.7065
79.9974 550 23.4521
80.1147 542 23.2809
80.2319 542 23.2809
80.3491 547 23.388
80.4664 491 22.1585
80.5837 552 23.4947
80.701 540 23.2379
80.8183 574 23.9583
80.9357 565 23.7697
81.053 568 23.8328
81.1704 535 23.1301
81.2877 564 23.7487
81.4051 598 24.454
81.5225 644 25.3772
81.6399 583 24.1454
81.7573 630 25.0998
81.8747 568 23.8328
81.9922 610 24.6982
82.1096 570 23.8747
82.227 500 22.3607
82.3444 452 21.2603
82.4619 541 23.2594
82.5793 520 22.8035
82.6967 554 23.5372
82.8142 586 24.2074
82.9316 615 24.7992
83.049 597 24.4336
83.1664 617 24.8395
83.2838 641 25.318
83.4012 589 24.2693
83.5186 568 23.8328
83.636 584 24.1661
83.7534 547 23.388
83.8708 505 22.4722
83.9881 533 23.0868
84.1055 550 23.4521
84.2228 588 24.2487
84.3401 524 22.891
84.4575 607 24.6374
84.5747 586 24.2074
84.692 592 24.3311
84.8093 614 24.779
84.9265 566 23.7908
85.0437 644 25.3772
85.1609 609 24.6779
85.2781 649 25.4755
85.3952 661 25.7099
85.5123 634 25.1794
85.6294 601 24.5153
85.7465 537 23.1733
85.8636 526 22.9347
85.9806 535 23.1301
86.0976 542 23.2809
86.2145 570 23.8747
86.3315 596 24.4131
86.4484 548 23.4094
86.5652 659 25.671
86.682 597 24.4336
86.7988 630 25.0998
86.9156 644 25.3772
87.0323 602 24.5357
87.149 585 24.1868
87.2657 585 24.1868
87.3823 548 23.4094
87.4988 508 22.5389
87.6154 526 22.9347
87.7318 518 22.7596
87.8483 508 22.5389
87.9647 485 22.0227
88.081 468 21.6333
88.1973 434 20.8327
88.3136 424 20.5913
88.4298 388 19.6977
88.546 411 20.2731
88.6621 350 18.7083
88.7781 346 18.6011
88.8942 0 1
89.0101 0 1
89.126 0 1
89.2419 0 1
89.3577 0 1
89.4734 0 1
89.5891 0 1
89.7047 0 1
89.8203 0 1
89.9358 0 1
92.3269 0 1
92.4424 0 1
92.558 0 1
92.6736 0 1
92.7893 0 1
92.905 0 1
93.0208 0 1
93.1366 0 1
93.2525 0 1
93.3685 0 1
93.4845 0 1
93.6005 456 21.3542
93.7167 455 21.3307
93.8328 499 22.3383
93.949 515 22.6936
94.0653 584 24.1661
94.1816 526 22.9347
94.2979 615 24.7992
94.4143 630 25.0998
94.5307 644 25.3772
94.6472 613 24.7588
94.7637 622 24.9399
94.8803 590 24.2899
94.9969 519 22.7816
95.1135 587 24.2281
95.2302 599 24.4745
95.3469 594 24.3721
95.4637 589 24.2693
95.5805 590 24.2899
95.6973 610 24.6982
95.8142 618 24.8596
95.9311 615 24.7992
96.048 686 26.1916
96.1649 678 26.0384
96.2819 571 23.8956
96.3989 630 25.0998
96.516 579 24.0624
96.633 550 23.4521
96.7501 583 24.1454
96.8673 589 24.2693
96.9844 561 23.6854
97.1016 601 24.5153
97.2188 641 25.318
97.336 641 25.318
97.4532 682 26.1151
97.5704 688 26.2298
97.6877 682 26.1151
97.805 654 25.5734
97.9223 675 25.9808
98.0396 706 26.5707
98.1569 684 26.1534
98.2743 633 25.1595
98.3916 672 25.923
98.509 640 25.2982
98.6264 620 24.8998
98.7438 674 25.9615
98.8612 650 25.4951
98.9786 641 25.318
99.096 731 27.037
99.2134 710 26.6458
99.3308 734 27.0924
99.4482 745 27.2947
99.5656 743 27.258
99.6831 749 27.3679
99.8005 714 26.7208
99.9179 678 26.0384
100.035 707 26.5895
100.153 661 25.7099
100.27 705 26.5518
100.388 726 26.9444
100.505 745 27.2947
100.622 775 27.8388
100.74 762 27.6043
100.857 722 26.8701
100.975 683 26.1343
101.092 676 26
101.209 688 26.2298
101.327 689 26.2488
101.444 745 27.2947
101.561 760 27.5681
101.679 716 26.7582
101.796 684 26.1534
101.913 657 25.632
102.03 685 26.1725
102.148 620 24.8998
102.265 646 25.4165
102.382 710 26.6458
102.499 703 26.5141
102.616 716 26.7582
102.733 720 26.8328
102.851 736 27.1293
102.968 744 27.2764
103.085 713 26.7021
103.202 694 26.3439
103.319 725 26.9258
103.436 709 26.6271
103.552 678 26.0384
103.669 674 25.9615
103.786 708 26.6083
103.903 685 26.1725
104.02 758 27.5318
104.137 728 26.9815
104.253 735 27.1109
104.37 742 27.2397
104.487 729 27
104.603 719 26.8142
104.72 731 27.037
104.836 757 27.5136
104.953 713 26.7021
105.069 643 25.3574
105.186 694 26.3439
105.302 612 24.7386
105.418 588 24.2487
105.535 529 23
105.651 456 21.3542
105.767 461 21.4709
105.883 449 21.1896
105.999 424 20.5913
106.115 0 1
106.231 0 1
106.347 0 1
106.463 0 1
106.579 0 1
106.694 0 1
106.81 0 1
106.926 0 1
107.041 0 1
107.157 0 1
109.576 0 1
109.692 0 1
109.807 0 1
109.923 0 1
110.039 0 1
110.155 0 1
110.27 0 1
110.386 0 1
110.502 0 1
110.618 295 17.1756
110.735 377 19.4165
110.851 435 20.8567
110.967 505 22.4722
111.083 539 23.2164
111.199 551 23.4734
111.316 604 24.5764
111.432 661 25.7099
111.549 642 25.3377
111.665 702 26.4953
111.782 674 25.9615
111.898 657 25.632
112.015 633 25.1595
112.132 591 24.3105
112.248 567 23.8118
112.365 653 25.5539
112.482 571 23.8956
112.599 656 25.6125
112.716 655 25.593
112.832 640 25.2982
112.949 662 25.7294
113.066 635 25.1992
113.183 610 24.6982
113.3 603 24.5561
113.417 625 25
113.534 637 25.2389
113.652 621 24.9199
113.769 607 24.6374
113.886 568 23.8328
114.003 603 24.5561
114.12 593 24.3516
114.238 563 23.7276
114.355 572 23.9165
114.472 580 24.0832
114.589 567 23.8118
114.707 575 23.9792
114.824 664 25.7682
114.942 665 25.7876
115.059 634 25.1794
115.176 566 23.7908
115.294 581 24.1039
115.411 559 23.6432
115.529 582 24.1247
115.646 566 23.7908
115.764 569 23.8537
115.881 563 23.7276
115.999 567 23.8118
116.116 589 24.2693
116.234 563 23.7276
116.351 614 24.779
116.469 595 24.3926
116.586 539 23.2164
116.704 559 23.6432
116.821 528 22.9783
116.939 545 23.3452
117.056 556 23.5797
117.174 561 23.6854
117.291 554 23.5372
117.409 561 23.6854
117.526 562 23.7065
117.644 536 23.1517
117.761 508 22.5389
117.879 527 22.9565
117.996 483 21.9773
118.114 553 23.516
118.231 513 22.6495
118.349 549 23.4307
118.466 578 24.0416
118.584 571 23.8956
118.701 599 24.4745
118.819 525 22.9129
118.936 556 23.5797
119.053 525 22.9129
119.171 520 22.8035
119.288 481 21.9317
119.405 505 22.4722
119.523 559 23.6432
119.64 512 22.6274
119.757 567 23.8118
119.875 553 23.516
119.992 529 23
120.109 482 21.9545
120.226 523 22.8692
120.343 539 23.2164
120.46 494 22.2261
120.578 549 23.4307
120.695 497 22.2935
120.812 503 22.4277
120.929 531 23.0434
121.046 538 23.1948
121.163 538 23.1948
121.279 504 22.4499
121.396 459 21.4243
121.513 445 21.095
121.63 458 21.4009
121.747 454 21.3073
121.863 462 21.4942
121.98 483 21.9773
122.097 476 21.8174
122.213 464 21.5407
122.33 445 21.095
122.446 422 20.5426
122.563 375 19.3649
122.679 340 18.4391
122.795 356 18.868
122.912 265 16.2788
123.028 305 17.4642
123.144 273 16.5227
123.26 271 16.4621
123.377 0 1
123.493 0 1
123.609 0 1
123.725 0 1
123.84 0 1
123.956 0 1
124.072 0 1
124.188 0 1
124.303 0 1
124.419 0 1
126.852 0 1
126.968 0 1
127.083 0 1
127.199 0 1
127.315 0 1
127.431 0 1
127.547 0 1
127.663 0 1
127.779 0 1
127.895 0 1
128.011 0 1
128.127 0 1
128.243 0 1
128.359 477 21.8403
128.476 522 22.8473
128.592 540 23.2379
128.708 609 24.6779
128.825 586 24.2074
128.941 623 24.96
129.058 590 24.2899
129.174 569 23.8537
129.291 525 22.9129
129.408 553 23.516
129.524 575 23.9792
129.641 556 23.5797
129.758 644 25.3772
129.875 622 24.9399
129.992 592 24.3311
130.108 661 25.7099
130.225 599 24.4745
130.342 592 24.3311
130.459 602 24.5357
130.576 602 24.5357
130.693 563 23.7276
130.81 611 24.7184
130.928 603 24.5561
131.045 661 25.7099
131.162 739 27.1846
131.279 775 27.8388
131.396 795 28.1957
131.513 804 28.3549
131.631 759 27.55
131.748 771 27.7669
131.865 833 28.8617
131.983 907 30.1164
132.1 952 30.8545
132.217 967 31.0966
132.335 1052 32.4345
132.452 1061 32.573
132.57 1173 34.2491
132.687 1138 33.7343
132.804 1239 35.1994
132.922 1203 34.6843
133.039 1250 35.3553
133.157 1316 36.2767
133.274 1353 36.7831
133.392 1377 37.108
133.509 1376 37.0945
133.627 1370 37.0135
133.744 1361 36.8917
133.862 1239 35.1994
133.979 1226 35.0143
134.097 1233 35.1141
134.214 1448 38.0526
134.332 1490 38.6005
134.449 1586 39.8246
134.567 1677 40.9512
134.684 1694 41.1582
134.802 1678 40.9634
134.919 1767 42.0357
135.037 1793 42.3438
135.154 1716 41.4246
135.272 1517 38.9487
135.389 1388 37.2559
135.507 1540 39.2428
135.624 1582 39.7744
135.742 1637 40.4599
135.859 1749 41.821
135.977 1778 42.1663
136.094 1684 41.0366
136.211 1693 41.1461
136.329 1696 41.1825
136.446 1668 40.8412
136.564 1620 40.2492
136.681 1600 40
136.798 1549 39.3573
136.915 1567 39.5854
137.033 1574 39.6737
137.15 1508 38.833
137.267 1397 37.3765
137.384 1266 35.5809
137.502 1209 34.7707
137.619 1127 33.5708
137.736 1119 33.4515
137.853 1139 33.7491
137.97 1231 35.0856
138.087 1305 36.1248
138.204 1306 36.1386
138.321 1273 35.6791
138.438 1301 36.0694
138.555 1297 36.0139
138.672 1378 37.1214
138.788 1258 35.4683
138.905 1131 33.6303
139.022 1011 31.7962
139.139 1008 31.749
139.255 1034 32.1559
139.372 1064 32.619
139.488 1034 32.1559
139.605 1042 32.28
139.721 964 31.0483
139.838 821 28.6531
139.954 814 28.5307
140.071 780 27.9285
140.187 668 25.8457
140.303 663 25.7488
140.419 701 26.4764
140.535 694 26.3439
140.652 626 25.02
140.768 0 1
140.884 0 1
141 0 1
141.115 0 1
141.231 0 1
141.347 0 1
141.463 0 1
141.578 0 1
141.694 0 1
144.104 0 1
144.219 0 1
144.335 0 1
144.45 0 1
144.566 0 1
144.682 0 1
144.798 0 1
144.914 0 1
145.03 0 1
145.146 1299 36.0416
145.262 1397 37.3765
145.378 1349 36.7287
145.494 1582 39.7744
145.61 1485 38.5357
145.726 1589 39.8623
145.842 1599 39.9875
145.959 1634 40.4228
146.075 1624 40.2989
146.192 1696 41.1825
146.308 1705 41.2916
146.425 1607 40.0874
146.541 1641 40.5093
146.658 1594 39.9249
146.774 1585 39.8121
146.891 1672 40.8901
147.008 1709 41.3401
147.125 1811 42.5558
147.241 1818 42.638
147.358 1850 43.0116
147.475 1805 42.4853
147.592 1747 41.7971
147.709 1630 40.3733
147.826 1594 39.9249
147.943 1607 40.0874
148.06 1593 39.9124
148.177 1733 41.6293
148.294 1918 43.795
148.411 2041 45.1774
148.528 2059 45.3762
148.645 2033 45.0888
148.762 2074 45.5412
148.88 2075 45.5522
148.997 2170 46.5833
149.114 2223 47.1487
149.231 2434 49.3356
149.349 2608 51.0686
149.466 2788 52.8015
149.583 3149 56.116
149.701 3259 57.0877
149.818 3361 57.9741
149.935 3496 59.127
150.053 3541 59.5063
150.17 3849 62.0403
150.287 4219 64.9538
150.405 4224 64.9923
150.522 4518 67.2161
150.64 4756 68.9638
150.757 4962 70.4415
150.875 5063 71.1548
150.992 5374 73.3076
151.11 5376 73.3212
151.227 4585 67.7126
151.344 3612 60.0999
151.462 3925 62.6498
151.579 5103 71.4353
151.697 6092 78.0513
151.814 6585 81.148
151.932 6801 82.4682
152.049 6995 83.6361
152.167 7075 84.113
152.284 7367 85.8312
152.402 7209 84.9058
152.519 7389 85.9593
152.636 7397 86.0058
152.754 7470 86.4292
152.871 7473 86.4465
152.989 7469 86.4234
153.106 7726 87.8977
153.223 7656 87.4986
153.341 7671 87.5842
153.458 7374 85.872
153.575 7315 85.5278
153.693 7231 85.0353
153.81 7218 84.9588
153.927 7228 85.0176
154.044 7068 84.0714
154.162 7114 84.3445
154.279 7255 85.1763
154.396 7350 85.7321
154.513 7351 85.738
154.63 7078 84.1309
154.747 6468 80.4239
154.864 6898 83.0542
154.981 7630 87.3499
155.098 8252 90.8405
155.215 8625 92.8709
155.332 9022 94.9842
155.449 9025 95
155.566 9398 96.9433
155.683 9606 98.0102
155.8 9911 99.554
155.917 10197 100.98
156.033 10550 102.713
156.15 0 1
156.267 0 1
156.383 0 1
156.5 0 1
156.617 0 1
156.733 0 1
156.85 0 1
156.966 0 1
157.082 0 1
157.199 0 1
157.315 0 1
157.431 0 1
157.547 0 1
157.664 0 1
157.78 0 1
157.896 0 1
158.012 0 1
158.128 0 1
158.244 0 1
158.359 0 1
158.475 0 1
158.591 0 1
158.706 0 1
