
6.15755 0 1
6.2731 0 1
6.3887 0 1
6.50437 0 1
6.62009 0 1
6.73587 0 1
6.8517 0 1
6.96759 0 1
7.08353 0 1
7.19952 0 1
7.31557 0 1
7.43166 0 1
7.54781 0 1
7.664 0 1
7.78024 0 1
7.89653 0 1
8.01286 0 1
8.12924 0 1
8.24567 0 1
8.36213 0 1
8.47864 0 1
8.59519 0 1
8.71178 0 1
8.82841 0 1
8.94508 0 1
9.06179 0 1
9.17853 0 1
9.29531 0 1
9.41212 0 1
9.52897 0 1
9.64584 0 1
9.76276 0 1
9.8797 0 1
9.99667 0 1
10.1137 0 1
10.2307 0 1
10.3478 0 1
10.4648 0 1
10.5819 0 1
10.6991 0 1
10.8162 0 1
10.9334 0 1
11.0506 0 1
11.1678 0 1
11.285 0 1
11.4023 0 1
11.5196 0 1
11.6369 0 1
11.7542 0 1
11.8715 0 1
11.9888 0 1
12.1062 0 1
12.2235 0 1
12.3409 0 1
12.4582 0 1
12.5756 0 1
12.693 0 1
12.8104 0 1
12.9278 0 1
13.0452 0 1
13.1626 0 1
13.28 0 1
13.3974 0 1
13.5149 0 1
13.6323 0 1
13.7497 0 1
13.8671 0 1
13.9845 0 1
14.1019 0 1
14.2193 0 1
14.3367 0 1
14.4541 0 1
14.5714 0 1
14.6888 0 1
14.8062 0 1
14.9235 0 1
15.0408 0 0
15.1581 0 0
15.2755 0 0
15.3927 0 0
15.51 0 0
15.6273 0 0
15.7445 0 0
15.8617 0 0
15.9789 0 0
16.0961 0 0
16.2132 0 0
16.3304 0 0
16.4475 0 0
16.5646 0 0
16.6816 0 0
16.7986 0 0
16.9156 0 0
17.0326 0 0
17.1496 0 0
17.2665 0 0
17.3833 0 0
17.5002 0 0
17.617 0 0
17.7338 0 0
17.8505 0 0
17.9672 0 0
18.0839 0 0
18.2005 0 0
18.3171 0 0
18.4337 0 0
18.5502 0 0
18.6666 0 0
18.7831 0 0
18.8994 0 0
19.0158 0 0
19.1321 0 0
19.2483 0 0
19.3645 0 0
19.4806 0 0
19.5967 0 0
19.7128 0 0
19.8288 0 0
19.9447 0 0
20.0606 0 1
20.1764 0 1
20.2922 0 1
20.4079 0 1
20.5236 0 1
20.6392 0 1
20.7548 0 1
20.8702 0 1
23.3078 0 1
23.4233 0 1
23.539 0 1
23.6547 0 1
23.7704 0 1
23.8862 0 1
24.0021 0 1
24.118 0 1
24.234 0 1
24.35 0 1
24.4661 35737 189.042
24.5822 35964 189.642
24.6984 36475 190.984
24.8146 37225 192.938
24.9309 37723 194.224
25.0472 38465 196.125
25.1636 38900 197.231
25.28 39105 197.75
25.3965 40029 200.072
25.513 39729 199.321
25.6296 40823 202.047
25.7462 40889 202.21
25.8628 40766 201.906
25.9795 40585 201.457
26.0962 41019 202.531
26.213 41492 203.696
26.3298 41139 202.828
26.4466 41109 202.754
26.5635 41066 202.647
26.6804 40874 202.173
26.7973 40109 200.272
26.9143 39468 198.666
27.0313 38609 196.492
27.1483 39300 198.242
27.2653 39508 198.766
27.3824 39376 198.434
27.4996 39065 197.649
27.6167 38146 195.31
27.7339 36697 191.565
27.8511 35455 188.295
27.9683 34770 186.467
28.0855 34976 187.019
28.2028 35616 188.722
28.3201 35192 187.595
28.4374 36013 189.771
28.5547 36232 190.347
28.6721 36847 191.956
28.7894 37200 192.873
28.9068 37377 193.331
29.0242 37268 193.049
29.1416 37438 193.489
29.259 37075 192.549
29.3764 36863 191.997
29.4939 36906 192.109
29.6113 37610 193.933
29.7288 37838 194.52
29.8463 38034 195.023
29.9638 38489 196.186
30.0812 38455 196.099
30.1987 38109 195.215
30.3162 37710 194.191
30.4337 37207 192.891
30.5512 36500 191.05
30.6687 36144 190.116
30.7862 36682 191.525
30.9037 37323 193.192
31.0212 37936 194.772
31.1387 37488 193.618
31.2562 35998 189.731
31.3737 34936 186.912
31.4912 34542 185.855
31.6087 34419 185.524
31.7262 34866 186.724
31.8436 35449 188.279
31.9611 36033 189.824
32.0785 36234 190.352
32.1959 36499 191.047
32.3134 36706 191.588
32.4308 36696 191.562
32.5482 36485 191.01
32.6655 36748 191.698
32.7829 36592 191.29
32.9002 36700 191.572
33.0176 36624 191.374
33.1349 36791 191.81
33.2522 36739 191.674
33.3694 37633 193.992
33.4867 37351 193.264
33.6039 37846 194.54
33.7211 38457 196.105
33.8383 38217 195.492
33.9554 38138 195.29
34.0725 37414 193.427
34.1896 36560 191.207
34.3067 36153 190.139
34.4237 36409 190.811
34.5407 36746 191.692
34.6577 36990 192.328
34.7746 36183 190.218
34.8915 36098 189.995
35.0084 34283 185.157
35.1252 34097 184.654
35.242 34080 184.608
35.3587 34757 186.432
35.4755 35647 188.804
35.5921 35487 188.38
35.7088 36238 190.363
35.8254 36173 190.192
35.9419 36748 191.698
36.0584 36617 191.356
36.1749 36628 191.384
36.2913 36517 191.094
36.4077 36211 190.292
36.524 35881 189.423
36.6403 36072 189.926
36.7565 36502 191.055
36.8727 36630 191.39
36.9889 36625 191.377
37.1049 36235 190.355
37.221 0 1
37.3369 0 1
37.4529 0 1
37.5687 0 1
37.6845 0 1
37.8003 0 1
37.916 0 1
38.0316 0 1
38.1472 0 1
40.5851 0 1
40.7008 0 1
40.8164 0 1
40.9322 0 1
41.048 0 1
41.1639 0 1
41.2798 0 1
41.3958 0 1
41.5118 0 1
41.6279 0 1
41.744 30029 173.289
41.8602 30485 174.6
41.9765 30633 175.023
42.0928 31355 177.073
42.2091 31411 177.231
42.3255 31639 177.874
42.4419 31877 178.541
42.5584 32302 179.728
42.675 32758 180.992
42.7915 32613 180.591
42.9081 31864 178.505
43.0248 31194 176.618
43.1415 30644 175.054
43.2582 30432 174.448
43.375 31303 176.927
43.4918 31911 178.637
43.6087 31008 176.091
43.7256 29391 171.438
43.8425 29069 170.496
43.9595 28740 169.529
44.0765 28769 169.614
44.1935 28758 169.582
44.3106 29184 170.833
44.4277 29286 171.132
44.5448 28725 169.485
44.6619 29165 170.778
44.7791 28816 169.753
44.8963 28200 167.929
45.0136 28031 167.425
45.1308 27150 164.773
45.2481 26915 164.058
45.3654 26792 163.683
45.4827 26608 163.12
45.6001 26436 162.592
45.7174 26377 162.41
45.8348 26665 163.294
45.9522 26480 162.727
46.0697 26386 162.438
46.1871 26378 162.413
46.3046 26360 162.358
46.422 25863 160.82
46.5395 25601 160.003
46.657 25231 158.843
46.7745 24488 156.486
46.892 24292 155.859
47.0096 24563 156.726
47.1271 25086 158.386
47.2446 23968 154.816
47.3622 22995 151.641
47.4797 22667 150.556
47.5973 22341 149.469
47.7149 22193 148.973
47.8324 22217 149.054
47.95 22591 150.303
48.0675 22717 150.722
48.1851 22162 148.869
48.3027 21919 148.051
48.4202 21801 147.652
48.5378 21524 146.711
48.6554 21420 146.356
48.7729 21041 145.055
48.8904 21185 145.551
49.008 21596 146.956
49.1255 21654 147.153
49.243 22026 148.412
49.3605 22300 149.332
49.478 22747 150.821
49.5955 23306 152.663
49.713 23763 154.153
49.8304 24131 155.342
49.9479 24257 155.747
50.0653 24819 157.54
50.1827 24549 156.681
50.3001 24020 154.984
50.4175 24787 157.439
50.5348 25034 158.221
50.6521 26121 161.62
50.7694 26566 162.991
50.8867 26440 162.604
51.004 26943 164.143
51.1212 27683 166.382
51.2384 28970 170.206
51.3556 29750 172.482
51.4727 30245 173.911
51.5899 30899 175.781
51.707 30954 175.937
51.824 31182 176.584
51.9411 30885 175.741
52.0581 30962 175.96
52.175 30823 175.565
52.2919 30695 175.2
52.4088 30939 175.895
52.5257 31750 178.185
52.6425 31697 178.037
52.7593 32546 180.405
52.876 33080 181.879
52.9927 33547 183.158
53.1094 34185 184.892
53.226 34754 186.424
53.3426 35724 189.008
53.4591 35901 189.476
53.5756 36412 190.819
53.692 36414 190.825
53.8084 36299 190.523
53.9248 35623 188.741
54.0411 35282 187.835
54.1573 35636 188.775
54.2735 0 1
54.3896 0 1
54.5057 0 1
54.6217 0 1
54.7377 0 1
54.8537 0 1
54.9695 0 1
55.0853 0 1
55.2011 0 1
55.3168 0 1
55.4324 0 1
57.824 0 1
57.9396 0 1
58.0553 0 1
58.1711 0 1
58.2869 0 1
58.4028 0 1
58.5187 0 1
58.6347 0 1
58.7508 0 1
58.8669 0 1
58.983 43597 208.799
59.0992 43253 207.974
59.2155 43153 207.733
59.3318 42913 207.155
59.4482 43584 208.768
59.5646 43546 208.677
59.681 44308 210.495
59.7975 44854 211.788
59.9141 44843 211.762
60.0306 45466 213.228
60.1473 44726 211.485
60.2639 44808 211.679
60.3807 44296 210.466
60.4974 43546 208.677
60.6142 42764 206.795
60.731 41982 204.895
60.8479 42202 205.431
60.9648 41846 204.563
61.0818 41863 204.604
61.1987 41716 204.245
61.3158 41884 204.656
61.4328 41429 203.541
61.5499 41871 204.624
61.667 42041 205.039
61.7841 42295 205.657
61.9013 43031 207.439
62.0185 43111 207.632
62.1357 43906 209.538
62.253 43984 209.724
62.3702 43567 208.727
62.4875 43176 207.788
62.6049 42216 205.465
62.7222 42808 206.901
62.8396 42718 206.683
62.9569 43074 207.543
63.0743 42896 207.113
63.1918 43330 208.159
63.3092 44058 209.9
63.4267 44290 210.452
63.5441 44588 211.159
63.6616 43996 209.752
63.7791 42714 206.674
63.8966 42902 207.128
64.0142 42151 205.307
64.1317 41574 203.897
64.2492 41072 202.662
64.3668 40437 201.09
64.4843 40193 200.482
64.6019 40165 200.412
64.7195 40527 201.313
64.837 40414 201.032
64.9546 40593 201.477
65.0722 40178 200.445
65.1898 39930 199.825
65.3074 41526 203.779
65.4249 40679 201.69
65.5425 41604 203.971
65.6601 42237 205.516
65.7777 42229 205.497
65.8952 42727 206.705
66.0128 43030 207.437
66.1304 42420 205.961
66.2479 41169 202.901
66.3655 40911 202.265
66.483 41279 203.172
66.6005 41624 204.02
66.718 42686 206.606
66.8355 43876 209.466
66.953 44618 211.23
67.0705 44565 211.104
67.1879 44157 210.136
67.3054 43258 207.986
67.4228 42428 205.981
67.5402 41909 204.717
67.6576 42188 205.397
67.7749 41487 203.684
67.8923 42317 205.711
68.0096 41808 204.47
68.1269 41376 203.411
68.2442 42625 206.458
68.3614 42965 207.28
68.4787 43029 207.434
68.5958 42531 206.23
68.713 42585 206.361
68.8302 42501 206.158
68.9473 43482 208.523
69.0643 43370 208.255
69.1814 44110 210.024
69.2984 44440 210.808
69.4154 45467 213.23
69.5323 46668 216.028
69.6492 46966 216.716
69.7661 46876 216.509
69.8829 45877 214.189
69.9997 44613 211.218
70.1165 44711 211.45
70.2332 45402 213.077
70.3499 45972 214.411
70.4665 47168 217.182
70.5831 48812 220.934
70.6996 48298 219.768
70.8161 47017 216.834
70.9326 46167 214.865
71.049 45493 213.291
71.1653 45045 212.238
71.2817 44245 210.345
71.3979 43591 208.785
71.5141 42766 206.799
71.6303 41872 204.626
71.7464 38896 197.221
71.8624 0 1
71.9784 0 1
72.0944 0 1
72.2102 0 1
72.3261 0 1
72.4418 0 1
72.5575 0 1
72.6732 0 1
75.1054 0 1
75.2209 0 1
75.3365 0 1
75.4521 0 1
75.5678 0 1
75.6835 0 1
75.7993 0 1
75.9151 0 1
76.031 0 1
76.147 43466 208.485
76.263 46281 215.13
76.3791 46645 215.975
76.4952 45745 213.881
76.6113 46334 215.253
76.7276 46187 214.912
76.8438 45572 213.476
76.9601 45572 213.476
77.0765 45478 213.256
77.1929 46287 215.144
77.3093 47444 217.816
77.4258 47116 217.062
77.5423 46956 216.693
77.6589 47538 218.032
77.7755 46395 215.395
77.8921 45826 214.07
78.0088 46029 214.544
78.1256 45587 213.511
78.2423 45334 212.918
78.3591 45804 214.019
78.4759 46807 216.349
78.5928 47075 216.968
78.7097 48061 219.228
78.8266 50523 224.773
78.9436 45601 213.544
79.0606 42124 205.241
79.1776 37260 193.028
79.2946 41021 202.536
79.4117 46757 216.234
79.5288 49868 223.311
79.6459 49672 222.872
79.7631 48732 220.753
79.8802 47331 217.557
79.9974 46091 214.688
80.1147 45322 212.89
80.2319 44517 210.991
80.3491 44454 210.841
80.4664 44011 209.788
80.5837 43650 208.926
80.701 43128 207.673
80.8183 43756 209.179
80.9357 44402 210.718
81.053 44796 211.651
81.1704 44964 212.047
81.2877 44651 211.308
81.4051 43738 209.136
81.5225 43938 209.614
81.6399 42157 205.322
81.7573 42232 205.504
81.8747 41078 202.677
81.9922 41727 204.272
82.1096 41959 204.839
82.227 42553 206.284
82.3444 43052 207.49
82.4619 44280 210.428
82.5793 42694 206.625
82.6967 41713 204.238
82.8142 34077 184.6
82.9316 36170 190.184
83.049 41380 203.421
83.1664 42390 205.888
83.2838 41994 204.924
83.4012 40798 201.985
83.5186 39541 198.849
83.636 38594 196.454
83.7534 37748 194.288
83.8708 37022 192.411
83.9881 36462 190.95
84.1055 36052 189.874
84.2228 35099 187.347
84.3401 35386 188.112
84.4575 35667 188.857
84.5747 36398 190.783
84.692 36844 191.948
84.8093 36623 191.371
84.9265 35821 189.264
85.0437 34981 187.032
85.1609 34880 186.762
85.2781 33937 184.22
85.3952 33269 182.398
85.5123 32814 181.146
85.6294 33259 182.371
85.7465 33972 184.315
85.8636 35078 187.291
85.9806 36851 191.966
86.0976 37851 194.553
86.2145 38020 194.987
86.3315 33502 183.036
86.4484 33619 183.355
86.5652 39064 197.646
86.682 42820 206.93
86.7988 43145 207.714
86.9156 43425 208.387
87.0323 42384 205.874
87.149 42906 207.138
87.2657 42148 205.3
87.3823 42461 206.061
87.4988 42635 206.482
87.6154 43101 207.608
87.7318 43053 207.492
87.8483 43783 209.244
87.9647 44409 210.734
88.081 46107 214.725
88.1973 48024 219.144
88.3136 48828 220.971
88.4298 48532 220.3
88.546 47953 218.982
88.6621 47625 218.232
88.7781 46667 216.025
88.8942 0 1
89.0101 0 1
89.126 0 1
89.2419 0 1
89.3577 0 1
89.4734 0 1
89.5891 0 1
89.7047 0 1
89.8203 0 1
89.9358 0 1
92.3269 0 1
92.4424 0 1
92.558 0 1
92.6736 0 1
92.7893 0 1
92.905 0 1
93.0208 0 1
93.1366 0 1
93.2525 0 1
93.3685 0 1
93.4845 0 1
93.6005 48640 220.545
93.7167 50103 223.837
93.8328 50309 224.297
93.949 49351 222.151
94.0653 49082 221.545
94.1816 48346 219.877
94.2979 48067 219.242
94.4143 47761 218.543
94.5307 47400 217.715
94.6472 47325 217.543
94.7637 47097 217.018
94.8803 47690 218.38
94.9969 47678 218.353
95.1135 48736 220.762
95.2302 49435 222.34
95.3469 48491 220.207
95.4637 45424 213.129
95.5805 42255 205.56
95.6973 43700 209.045
95.8142 48450 220.114
95.9311 50378 224.45
96.048 49941 223.475
96.1649 49642 222.805
96.2819 48093 219.301
96.3989 47209 217.276
96.516 46768 216.259
96.633 46381 215.362
96.7501 45972 214.411
96.8673 45034 212.212
96.9844 44654 211.315
97.1016 45004 212.141
97.2188 44445 210.82
97.336 45924 214.299
97.4532 46081 214.665
97.5704 46305 215.186
97.6877 45307 212.854
97.805 44368 210.637
97.9223 43046 207.475
98.0396 42841 206.981
98.1569 42722 206.693
98.2743 42894 207.109
98.3916 42739 206.734
98.509 43062 207.514
98.6264 42112 205.212
98.7438 42393 205.896
98.8612 42545 206.264
98.9786 42339 205.764
99.096 39447 198.613
99.2134 38880 197.18
99.3308 39901 199.752
99.4482 42751 206.763
99.5656 43794 209.27
99.6831 43299 208.084
99.8005 41897 204.688
99.9179 40704 201.752
100.035 40279 200.696
100.153 38910 197.256
100.27 38706 196.738
100.388 37519 193.698
100.505 37107 192.632
100.622 36568 191.228
100.74 36560 191.207
100.857 36573 191.241
100.975 37526 193.716
101.092 37535 193.74
101.209 37303 193.14
101.327 36120 190.053
101.444 35201 187.619
101.561 34417 185.518
101.679 34452 185.612
101.796 34421 185.529
101.913 34491 185.718
102.03 34659 186.169
102.148 34859 186.706
102.265 36491 191.026
102.382 33548 183.161
102.499 35301 187.886
102.616 35413 188.183
102.733 33500 183.03
102.851 33238 182.313
102.968 33895 184.106
103.085 33952 184.261
103.202 33035 181.755
103.319 32094 179.148
103.436 31129 176.434
103.552 29828 172.708
103.669 28860 169.882
103.786 28012 167.368
103.903 26917 164.064
104.02 27271 165.139
104.137 26345 162.311
104.253 26813 163.747
104.37 26471 162.699
104.487 27665 166.328
104.603 27631 166.226
104.72 26765 163.6
104.836 26070 161.462
104.953 25582 159.944
105.069 25863 160.82
105.186 26104 161.567
105.302 26478 162.721
105.418 26578 163.028
105.535 27091 164.593
105.651 27704 166.445
105.767 28062 167.517
105.883 28008 167.356
105.999 29136 170.693
106.115 0 1
106.231 0 1
106.347 0 1
106.463 0 1
106.579 0 1
106.694 0 1
106.81 0 1
106.926 0 1
107.041 0 1
107.157 0 1
109.576 0 1
109.692 0 1
109.807 0 1
109.923 0 1
110.039 0 1
110.155 0 1
110.27 0 1
110.386 0 1
110.502 0 1
110.618 24269 155.785
110.735 24822 157.55
110.851 24210 155.596
110.967 24810 157.512
111.083 26077 161.484
111.199 27809 166.76
111.316 28995 170.279
111.432 29151 170.737
111.549 28151 167.783
111.665 27030 164.408
111.782 26781 163.649
111.898 26622 163.162
112.015 25868 160.835
112.132 25355 159.233
112.248 24972 158.025
112.365 24913 157.839
112.482 24250 155.724
112.599 23422 153.042
112.716 24227 155.65
112.832 23584 153.571
112.949 23802 154.279
113.066 24043 155.058
113.183 23876 154.519
113.3 23372 152.879
113.417 23185 152.266
113.534 23216 152.368
113.652 24014 154.965
113.769 24842 157.613
113.886 25097 158.42
114.003 25360 159.248
114.12 25619 160.059
114.238 25579 159.934
114.355 24418 156.263
114.472 23768 154.169
114.589 23531 153.398
114.707 25705 160.328
114.824 28298 168.22
114.942 29663 172.229
115.059 30004 173.217
115.176 29460 171.639
115.294 28687 169.372
115.411 28153 167.789
115.529 28363 168.413
115.646 27711 166.466
115.764 27836 166.841
115.881 27737 166.544
115.999 27664 166.325
116.116 27278 165.161
116.234 26966 164.213
116.351 26902 164.018
116.469 26956 164.183
116.586 27416 165.578
116.704 27928 167.117
116.821 27657 166.304
116.939 27924 167.105
117.056 27794 166.715
117.174 28215 167.973
117.291 29527 171.834
117.409 29974 173.13
117.526 30747 175.348
117.644 31405 177.215
117.761 31558 177.646
117.879 30930 175.869
117.996 29523 171.823
118.114 28578 169.05
118.231 28486 168.778
118.349 30180 173.724
118.466 33642 183.418
118.584 35591 188.656
118.701 36004 189.747
118.819 35844 189.325
118.936 34670 186.199
119.053 34039 184.497
119.171 34003 184.399
119.288 33542 183.145
119.405 33828 183.924
119.523 33257 182.365
119.64 34010 184.418
119.757 32943 181.502
119.875 32563 180.452
119.992 31909 178.631
120.109 31920 178.662
120.226 32093 179.145
120.343 31937 178.709
120.46 32157 179.324
120.578 31928 178.684
120.695 32260 179.611
120.812 32883 181.337
120.929 34008 184.413
121.046 34405 185.486
121.163 35003 187.091
121.279 35321 187.939
121.396 35135 187.443
121.513 34239 185.038
121.63 33442 182.872
121.747 32151 179.307
121.863 30549 174.783
121.98 30842 175.619
122.097 32354 179.872
122.213 36020 189.789
122.33 38327 195.773
122.446 38537 196.308
122.563 38620 196.52
122.679 38298 195.699
122.795 37917 194.723
122.912 37465 193.559
123.028 37248 192.997
123.144 36560 191.207
123.26 36352 190.662
123.377 0 1
123.493 0 1
123.609 0 1
123.725 0 1
123.84 0 1
123.956 0 1
124.072 0 1
124.188 0 1
124.303 0 1
124.419 0 1
126.852 0 1
126.968 0 1
127.083 0 1
127.199 0 1
127.315 0 1
127.431 0 1
127.547 0 1
127.663 0 1
127.779 0 1
127.895 0 1
128.011 0 1
128.127 0 1
128.243 0 1
128.359 44530 211.021
128.476 44113 210.031
128.592 43511 208.593
128.708 43785 209.249
128.825 42958 207.263
128.941 42587 206.366
129.058 42597 206.39
129.174 42269 205.594
129.291 42010 204.963
129.408 42255 205.56
129.524 42314 205.704
129.641 42774 206.819
129.758 43488 208.538
129.875 44147 210.112
129.992 44791 211.639
130.108 44379 210.663
130.225 43961 209.669
130.342 43261 207.993
130.459 41185 202.941
130.576 40918 202.282
130.693 38955 197.37
130.81 38096 195.182
130.928 38512 196.245
131.045 40694 201.728
131.162 43947 209.635
131.279 46121 214.758
131.396 47430 217.784
131.513 46543 215.738
131.631 46390 215.383
131.748 46634 215.949
131.865 46028 214.541
131.983 45407 213.089
132.1 45538 213.396
132.217 45102 212.372
132.335 44501 210.953
132.452 43990 209.738
132.57 43828 209.351
132.687 42037 205.029
132.804 44587 211.156
132.922 43403 208.334
133.039 42679 206.589
133.157 43664 208.959
133.274 44342 210.575
133.392 44673 211.36
133.509 44984 212.094
133.627 45004 212.141
133.744 44458 210.851
133.862 43990 209.738
133.979 42660 206.543
134.097 41180 202.929
134.214 40373 200.93
134.332 38871 197.157
134.449 39289 198.215
134.567 40695 201.73
134.684 43015 207.401
134.802 45932 214.318
134.919 46905 216.576
135.037 48151 219.433
135.154 47905 218.872
135.272 46961 216.705
135.389 46870 216.495
135.507 47064 216.942
135.624 47197 217.249
135.742 46299 215.172
135.859 46630 215.94
135.977 46046 214.583
136.094 46193 214.926
136.211 45163 212.516
136.329 45233 212.681
136.446 45003 212.139
136.564 45448 213.185
136.681 45781 213.965
136.798 45287 212.807
136.915 46758 216.236
137.033 46596 215.861
137.15 46798 216.328
137.267 46130 214.779
137.384 46080 214.663
137.502 44671 211.355
137.619 42931 207.198
137.736 42436 206
137.853 40046 200.115
137.97 39550 198.872
138.087 41820 204.499
138.204 42075 205.122
138.321 44941 211.993
138.438 47126 217.085
138.555 48876 221.079
138.672 49341 222.128
138.788 50150 223.942
138.905 49751 223.049
139.022 49174 221.752
139.139 48646 220.558
139.255 49004 221.368
139.372 48815 220.941
139.488 48685 220.647
139.605 47994 219.075
139.721 47884 218.824
139.838 47455 217.842
139.954 47315 217.52
140.071 46003 214.483
140.187 47097 217.018
140.303 45879 214.194
140.419 46556 215.768
140.535 46413 215.437
140.652 46535 215.72
140.768 0 1
140.884 0 1
141 0 1
141.115 0 1
141.231 0 1
141.347 0 1
141.463 0 1
141.578 0 1
141.694 0 1
144.104 0 1
144.219 0 1
144.335 0 1
144.45 0 1
144.566 0 1
144.682 0 1
144.798 0 1
144.914 0 1
145.03 0 1
145.146 43193 207.829
145.262 44078 209.948
145.378 44313 210.507
145.494 44288 210.447
145.61 44772 211.594
145.726 45042 212.231
145.842 44171 210.169
145.959 43296 208.077
146.075 42299 205.667
146.192 41348 203.342
146.308 40366 200.913
146.425 39407 198.512
146.541 39261 198.144
146.658 39018 197.53
146.774 39751 199.377
146.891 41338 203.317
147.008 43858 209.423
147.125 45023 212.186
147.241 45756 213.907
147.358 45314 212.871
147.475 46032 214.551
147.592 46236 215.026
147.709 46052 214.597
147.826 45113 212.398
147.943 45196 212.594
148.06 43921 209.573
148.177 44099 209.998
148.294 43876 209.466
148.411 43573 208.741
148.528 42962 207.273
148.645 43238 207.937
148.762 42960 207.268
148.88 43723 209.1
148.997 42094 205.168
149.114 45087 212.337
149.231 43933 209.602
149.349 43628 208.873
149.466 42308 205.689
149.583 41698 204.201
149.701 40689 201.715
149.818 40297 200.741
149.935 39029 197.558
150.053 38590 196.443
150.17 38235 195.538
150.287 38424 196.02
150.405 39291 198.22
150.522 41290 203.199
150.64 42856 207.017
150.757 43927 209.588
150.875 44195 210.226
150.992 44315 210.511
151.11 43821 209.335
151.227 44973 212.068
151.344 45738 213.864
151.462 44939 211.988
151.579 44222 210.29
151.697 44160 210.143
151.814 43732 209.122
151.932 43507 208.583
152.049 44485 210.915
152.167 43898 209.518
152.284 44081 209.955
152.402 43720 209.093
152.519 44471 210.881
152.636 44597 211.18
152.754 45228 212.669
152.871 44732 211.499
152.989 43946 209.633
153.106 43306 208.101
153.223 42728 206.708
153.341 41827 204.517
153.458 41293 203.207
153.575 40404 201.007
153.693 40316 200.788
153.81 40067 200.167
153.927 40573 201.427
154.044 42038 205.032
154.162 44364 210.628
154.279 46488 215.611
154.396 47759 218.538
154.513 48128 219.381
154.63 47734 218.481
154.747 47187 217.226
154.864 47797 218.625
154.981 48851 221.023
155.098 49175 221.754
155.215 48472 220.164
155.332 47110 217.048
155.449 47025 216.852
155.566 46667 216.025
155.683 46250 215.058
155.8 47366 217.637
155.917 46722 216.153
156.033 46811 216.358
156.15 0 1
156.267 0 1
156.383 0 1
156.5 0 1
156.617 0 1
156.733 0 1
156.85 0 1
156.966 0 1
157.082 0 1
157.199 0 1
157.315 0 1
157.431 0 1
157.547 0 1
157.664 0 1
157.78 0 1
157.896 0 1
158.012 0 1
158.128 0 1
158.244 0 1
158.359 0 1
158.475 0 1
158.591 0 1
158.706 0 1
