
6.15755 0 1
6.2731 0 1
6.3887 0 1
6.50437 0 1
6.62009 0 1
6.73587 0 1
6.8517 0 1
6.96759 0 1
7.08353 0 1
7.19952 0 1
7.31557 0 1
7.43166 0 1
7.54781 0 1
7.664 0 1
7.78024 0 1
7.89653 0 1
8.01286 0 1
8.12924 0 1
8.24567 0 1
8.36213 0 1
8.47864 0 1
8.59519 0 1
8.71178 0 1
8.82841 0 1
8.94508 0 1
9.06179 0 1
9.17853 0 1
9.29531 0 1
9.41212 0 1
9.52897 0 1
9.64584 0 1
9.76276 0 1
9.8797 0 1
9.99667 0 1
10.1137 0 1
10.2307 0 1
10.3478 0 1
10.4648 0 1
10.5819 0 1
10.6991 0 1
10.8162 0 1
10.9334 0 1
11.0506 0 1
11.1678 0 1
11.285 0 1
11.4023 0 1
11.5196 0 1
11.6369 0 1
11.7542 0 1
11.8715 0 1
11.9888 0 1
12.1062 0 1
12.2235 0 1
12.3409 0 1
12.4582 0 1
12.5756 0 1
12.693 0 1
12.8104 0 1
12.9278 0 1
13.0452 0 1
13.1626 0 1
13.28 0 1
13.3974 0 1
13.5149 0 1
13.6323 0 1
13.7497 0 1
13.8671 0 1
13.9845 0 1
14.1019 0 1
14.2193 0 1
14.3367 0 1
14.4541 0 1
14.5714 0 1
14.6888 0 1
14.8062 0 1
14.9235 0 1
15.0408 0 0
15.1581 0 0
15.2755 0 0
15.3927 0 0
15.51 0 0
15.6273 0 0
15.7445 0 0
15.8617 0 0
15.9789 0 0
16.0961 0 0
16.2132 0 0
16.3304 0 0
16.4475 0 0
16.5646 0 0
16.6816 0 0
16.7986 0 0
16.9156 0 0
17.0326 0 0
17.1496 0 0
17.2665 0 0
17.3833 0 0
17.5002 0 0
17.617 0 0
17.7338 0 0
17.8505 0 0
17.9672 0 0
18.0839 0 0
18.2005 0 0
18.3171 0 0
18.4337 0 0
18.5502 0 0
18.6666 0 0
18.7831 0 0
18.8994 0 0
19.0158 0 0
19.1321 0 0
19.2483 0 0
19.3645 0 0
19.4806 0 0
19.5967 0 0
19.7128 0 0
19.8288 0 0
19.9447 0 0
20.0606 0 1
20.1764 0 1
20.2922 0 1
20.4079 0 1
20.5236 0 1
20.6392 0 1
20.7548 0 1
20.8702 0 1
23.3078 0 1
23.4233 0 1
23.539 0 1
23.6547 0 1
23.7704 0 1
23.8862 0 1
24.0021 0 1
24.118 0 1
24.234 0 1
24.35 0 1
24.4661 1505 38.7943
24.5822 1513 38.8973
24.6984 1501 38.7427
24.8146 1529 39.1024
24.9309 1481 38.4838
25.0472 1442 37.9737
25.1636 1514 38.9102
25.28 1522 39.0128
25.3965 1401 37.4299
25.513 1556 39.4462
25.6296 1595 39.9375
25.7462 1556 39.4462
25.8628 1570 39.6232
25.9795 1574 39.6737
26.0962 1570 39.6232
26.213 1539 39.2301
26.3298 1597 39.9625
26.4466 1610 40.1248
26.5635 1444 38
26.6804 1289 35.9026
26.7973 1301 36.0694
26.9143 1323 36.3731
27.0313 1357 36.8375
27.1483 1515 38.923
27.2653 1527 39.0768
27.3824 1588 39.8497
27.4996 1577 39.7115
27.6167 1696 41.1825
27.7339 1570 39.6232
27.8511 1562 39.5221
27.9683 1549 39.3573
28.0855 1512 38.8844
28.2028 1592 39.8999
28.3201 1547 39.3319
28.4374 1514 38.9102
28.5547 1506 38.8072
28.6721 1439 37.9342
28.7894 1444 38
28.9068 1544 39.2938
29.0242 1456 38.1576
29.1416 1470 38.3406
29.259 1526 39.064
29.3764 1463 38.2492
29.4939 1473 38.3797
29.6113 1479 38.4578
29.7288 1484 38.5227
29.8463 1439 37.9342
29.9638 1394 37.3363
30.0812 1329 36.4555
30.1987 1236 35.1568
30.3162 1221 34.9428
30.4337 1312 36.2215
30.5512 1309 36.1801
30.6687 1465 38.2753
30.7862 1507 38.8201
30.9037 1485 38.5357
31.0212 1537 39.2046
31.1387 1554 39.4208
31.2562 1495 38.6652
31.3737 1464 38.2623
31.4912 1457 38.1707
31.6087 1443 37.9868
31.7262 1460 38.2099
31.8436 1465 38.2753
31.9611 1500 38.7298
32.0785 1410 37.55
32.1959 1360 36.8782
32.3134 1403 37.4566
32.4308 1403 37.4566
32.5482 1409 37.5366
32.6655 1388 37.2559
32.7829 1426 37.7624
32.9002 1402 37.4433
33.0176 1485 38.5357
33.1349 1488 38.5746
33.2522 1444 38
33.3694 1496 38.6782
33.4867 1439 37.9342
33.6039 1430 37.8153
33.7211 1318 36.3043
33.8383 1190 34.4964
33.9554 1183 34.3948
34.0725 1191 34.5109
34.1896 1219 34.9142
34.3067 1288 35.8887
34.4237 1497 38.6911
34.5407 1422 37.7094
34.6577 1505 38.7943
34.7746 1475 38.4057
34.8915 1452 38.1051
35.0084 1451 38.092
35.1252 1417 37.6431
35.242 1460 38.2099
35.3587 1406 37.4967
35.4755 1407 37.51
35.5921 1476 38.4187
35.7088 1403 37.4566
35.8254 1453 38.1182
35.9419 1356 36.8239
36.0584 1391 37.2961
36.1749 1331 36.4829
36.2913 1410 37.55
36.4077 1388 37.2559
36.524 1334 36.524
36.6403 1332 36.4966
36.7565 1380 37.1484
36.8727 1376 37.0945
36.9889 1368 36.9865
37.1049 1364 36.9324
37.221 0 1
37.3369 0 1
37.4529 0 1
37.5687 0 1
37.6845 0 1
37.8003 0 1
37.916 0 1
38.0316 0 1
38.1472 0 1
40.5851 0 1
40.7008 0 1
40.8164 0 1
40.9322 0 1
41.048 0 1
41.1639 0 1
41.2798 0 1
41.3958 0 1
41.5118 0 1
41.6279 0 1
41.744 1040 32.249
41.8602 1081 32.8786
41.9765 1083 32.909
42.0928 1112 33.3467
42.2091 1025 32.0156
42.3255 1147 33.8674
42.4419 1063 32.6037
42.5584 950 30.8221
42.675 840 28.9828
42.7915 854 29.2233
42.9081 906 30.0998
43.0248 899 29.9833
43.1415 983 31.3528
43.2582 986 31.4006
43.375 1031 32.1092
43.4918 1067 32.665
43.6087 1137 33.7194
43.7256 1092 33.0454
43.8425 1003 31.6702
43.9595 976 31.241
44.0765 1005 31.7017
44.1935 984 31.3688
44.3106 1039 32.2335
44.4277 877 29.6142
44.5448 965 31.0644
44.6619 986 31.4006
44.7791 897 29.95
44.8963 883 29.7153
45.0136 861 29.3428
45.1308 821 28.6531
45.2481 880 29.6648
45.3654 843 29.0345
45.4827 805 28.3725
45.6001 792 28.1425
45.7174 832 28.8444
45.8348 756 27.4955
45.9522 823 28.688
46.0697 706 26.5707
46.1871 649 25.4755
46.3046 667 25.8263
46.422 615 24.7992
46.5395 648 25.4558
46.657 724 26.9072
46.7745 700 26.4575
46.892 779 27.9106
47.0096 771 27.7669
47.1271 763 27.6225
47.2446 785 28.0179
47.3622 734 27.0924
47.4797 738 27.1662
47.5973 711 26.6646
47.7149 649 25.4755
47.8324 699 26.4386
47.95 707 26.5895
48.0675 618 24.8596
48.1851 643 25.3574
48.3027 615 24.7992
48.4202 635 25.1992
48.5378 522 22.8473
48.6554 604 24.5764
48.7729 616 24.8193
48.8904 582 24.1247
49.008 619 24.8797
49.1255 624 24.98
49.243 587 24.2281
49.3605 621 24.9199
49.478 586 24.2074
49.5955 550 23.4521
49.713 475 21.7945
49.8304 466 21.587
49.9479 471 21.7025
50.0653 599 24.4745
50.1827 537 23.1733
50.3001 628 25.0599
50.4175 673 25.9422
50.5348 716 26.7582
50.6521 731 27.037
50.7694 729 27
50.8867 777 27.8747
51.004 771 27.7669
51.1212 756 27.4955
51.2384 784 28
51.3556 804 28.3549
51.4727 817 28.5832
51.5899 789 28.0891
51.707 845 29.0689
51.824 867 29.4449
51.9411 909 30.1496
52.0581 815 28.5482
52.175 896 29.9333
52.2919 972 31.1769
52.4088 882 29.6985
52.5257 924 30.3974
52.6425 985 31.3847
52.7593 1007 31.7333
52.876 1018 31.9061
52.9927 1038 32.218
53.1094 964 31.0483
53.226 903 30.05
53.3426 829 28.7924
53.4591 780 27.9285
53.5756 813 28.5132
53.692 923 30.3809
53.8084 1028 32.0624
53.9248 1063 32.6037
54.0411 1116 33.4066
54.1573 1224 34.9857
54.2735 0 1
54.3896 0 1
54.5057 0 1
54.6217 0 1
54.7377 0 1
54.8537 0 1
54.9695 0 1
55.0853 0 1
55.2011 0 1
55.3168 0 1
55.4324 0 1
57.824 0 1
57.9396 0 1
58.0553 0 1
58.1711 0 1
58.2869 0 1
58.4028 0 1
58.5187 0 1
58.6347 0 1
58.7508 0 1
58.8669 0 1
58.983 1213 34.8281
59.0992 1273 35.6791
59.2155 1348 36.7151
59.3318 1330 36.4692
59.4482 1484 38.5227
59.5646 1380 37.1484
59.681 1407 37.51
59.7975 1413 37.5899
59.9141 1317 36.2905
60.0306 1344 36.6606
60.1473 1311 36.2077
60.2639 1244 35.2704
60.3807 1244 35.2704
60.4974 1223 34.9714
60.6142 1226 35.0143
60.731 1205 34.7131
60.8479 1175 34.2783
60.9648 1171 34.2199
61.0818 1145 33.8378
61.1987 1244 35.2704
61.3158 1145 33.8378
61.4328 1236 35.1568
61.5499 1155 33.9853
61.667 1112 33.3467
61.7841 1022 31.9687
61.9013 978 31.273
62.0185 930 30.4959
62.1357 955 30.9031
62.253 1151 33.9264
62.3702 1165 34.1321
62.4875 1241 35.2278
62.6049 1291 35.9305
62.7222 1325 36.4005
62.8396 1375 37.081
62.9569 1346 36.6879
63.0743 1432 37.8418
63.1918 1404 37.47
63.3092 1385 37.2156
63.4267 1423 37.7227
63.5441 1384 37.2022
63.6616 1296 36
63.7791 1342 36.6333
63.8966 1281 35.7911
64.0142 1267 35.5949
64.1317 1280 35.7771
64.2492 1273 35.6791
64.3668 1315 36.2629
64.4843 1282 35.805
64.6019 1248 35.327
64.7195 1301 36.0694
64.837 1354 36.7967
64.9546 1367 36.973
65.0722 1320 36.3318
65.1898 1225 35
65.3074 1183 34.3948
65.4249 966 31.0805
65.5425 970 31.1448
65.6601 983 31.3528
65.7777 1027 32.0468
65.8952 1135 33.6898
66.0128 1233 35.1141
66.1304 1278 35.7491
66.2479 1403 37.4566
66.3655 1383 37.1887
66.483 1375 37.081
66.6005 1405 37.4833
66.718 1383 37.1887
66.8355 1339 36.5923
66.953 1365 36.9459
67.0705 1338 36.5787
67.1879 1233 35.1141
67.3054 1280 35.7771
67.4228 1279 35.7631
67.5402 1138 33.7343
67.6576 1168 34.176
67.7749 1144 33.8231
67.8923 1198 34.6121
68.0096 1134 33.6749
68.1269 1128 33.5857
68.2442 1231 35.0856
68.3614 1185 34.4238
68.4787 1216 34.8712
68.5958 1185 34.4238
68.713 1183 34.3948
68.8302 1120 33.4664
68.9473 1083 32.909
69.0643 984 31.3688
69.1814 941 30.6757
69.2984 842 29.0172
69.4154 971 31.1609
69.5323 1035 32.1714
69.6492 1121 33.4813
69.7661 1183 34.3948
69.8829 1330 36.4692
69.9997 1297 36.0139
70.1165 1348 36.7151
70.2332 1358 36.8511
70.3499 1315 36.2629
70.4665 1330 36.4692
70.5831 1315 36.2629
70.6996 1344 36.6606
70.8161 1256 35.4401
70.9326 1238 35.1852
71.049 1195 34.5688
71.1653 1144 33.8231
71.2817 1062 32.5883
71.3979 1042 32.28
71.5141 1105 33.2415
71.6303 1139 33.7491
71.7464 1029 32.078
71.8624 0 1
71.9784 0 1
72.0944 0 1
72.2102 0 1
72.3261 0 1
72.4418 0 1
72.5575 0 1
72.6732 0 1
75.1054 0 1
75.2209 0 1
75.3365 0 1
75.4521 0 1
75.5678 0 1
75.6835 0 1
75.7993 0 1
75.9151 0 1
76.031 0 1
76.147 1108 33.2866
76.263 1235 35.1426
76.3791 1209 34.7707
76.4952 1165 34.1321
76.6113 1165 34.1321
76.7276 1189 34.4819
76.8438 1134 33.6749
76.9601 1229 35.0571
77.0765 1156 34
77.1929 1196 34.5832
77.3093 1234 35.1283
77.4258 1302 36.0832
77.5423 1248 35.327
77.6589 1174 34.2637
77.7755 1151 33.9264
77.8921 1062 32.5883
78.0088 957 30.9354
78.1256 901 30.0167
78.2423 819 28.6182
78.3591 831 28.8271
78.4759 924 30.3974
78.5928 1062 32.5883
78.7097 1114 33.3766
78.8266 1188 34.4674
78.9436 1314 36.2491
79.0606 1278 35.7491
79.1776 1283 35.819
79.2946 1308 36.1663
79.4117 1256 35.4401
79.5288 1272 35.6651
79.6459 1257 35.4542
79.7631 1196 34.5832
79.8802 1134 33.6749
79.9974 1060 32.5576
80.1147 1080 32.8634
80.2319 1001 31.6386
80.3491 995 31.5436
80.4664 1026 32.0312
80.5837 1015 31.8591
80.701 1059 32.5423
80.8183 1020 31.9374
80.9357 1023 31.9844
81.053 1034 32.1559
81.1704 1068 32.6803
81.2877 1073 32.7567
81.4051 1073 32.7567
81.5225 937 30.6105
81.6399 928 30.4631
81.7573 773 27.8029
81.8747 755 27.4773
81.9922 723 26.8887
82.1096 776 27.8568
82.227 911 30.1828
82.3444 987 31.4166
82.4619 1038 32.218
82.5793 1090 33.0151
82.6967 1083 32.909
82.8142 1094 33.0757
82.9316 1069 32.6956
83.049 1122 33.4963
83.1664 1063 32.6037
83.2838 1021 31.9531
83.4012 991 31.4802
83.5186 968 31.1127
83.636 947 30.7734
83.7534 886 29.7658
83.8708 834 28.8791
83.9881 903 30.05
84.1055 903 30.05
84.2228 894 29.8998
84.3401 961 31
84.4575 1002 31.6544
84.5747 971 31.1609
84.692 985 31.3847
84.8093 1034 32.1559
84.9265 973 31.1929
85.0437 941 30.6757
85.1609 901 30.0167
85.2781 731 27.037
85.3952 738 27.1662
85.5123 667 25.8263
85.6294 720 26.8328
85.7465 888 29.7993
85.8636 966 31.0805
85.9806 1053 32.45
86.0976 1049 32.3883
86.2145 1131 33.6303
86.3315 1204 34.6987
86.4484 1142 33.7935
86.5652 1188 34.4674
86.682 1225 35
86.7988 1155 33.9853
86.9156 1136 33.7046
87.0323 1163 34.1028
87.149 1087 32.9697
87.2657 1115 33.3916
87.3823 1014 31.8434
87.4988 1018 31.9061
87.6154 1079 32.8481
87.7318 1018 31.9061
87.8483 1134 33.6749
87.9647 1156 34
88.081 1214 34.8425
88.1973 1186 34.4384
88.3136 1211 34.7994
88.4298 1272 35.6651
88.546 1108 33.2866
88.6621 1047 32.3574
88.7781 961 31
88.8942 0 1
89.0101 0 1
89.126 0 1
89.2419 0 1
89.3577 0 1
89.4734 0 1
89.5891 0 1
89.7047 0 1
89.8203 0 1
89.9358 0 1
92.3269 0 1
92.4424 0 1
92.558 0 1
92.6736 0 1
92.7893 0 1
92.905 0 1
93.0208 0 1
93.1366 0 1
93.2525 0 1
93.3685 0 1
93.4845 0 1
93.6005 1213 34.8281
93.7167 1223 34.9714
93.8328 1194 34.5543
93.949 1123 33.5112
94.0653 1089 33
94.1816 991 31.4802
94.2979 935 30.5778
94.4143 907 30.1164
94.5307 913 30.2159
94.6472 841 29
94.7637 967 31.0966
94.8803 1099 33.1512
94.9969 1144 33.8231
95.1135 1210 34.7851
95.2302 1341 36.6197
95.3469 1383 37.1887
95.4637 1304 36.1109
95.5805 1365 36.9459
95.6973 1475 38.4057
95.8142 1456 38.1576
95.9311 1349 36.7287
96.048 1371 37.027
96.1649 1317 36.2905
96.2819 1232 35.0999
96.3989 1161 34.0735
96.516 1143 33.8083
96.633 1143 33.8083
96.7501 1153 33.9559
96.8673 1106 33.2566
96.9844 1104 33.2265
97.1016 1211 34.7994
97.2188 1203 34.6843
97.336 1304 36.1109
97.4532 1237 35.171
97.5704 1304 36.1109
97.6877 1238 35.1852
97.805 1064 32.619
97.9223 944 30.7246
98.0396 946 30.7571
98.1569 859 29.3087
98.2743 891 29.8496
98.3916 915 30.249
98.509 992 31.496
98.6264 1159 34.0441
98.7438 1204 34.6987
98.8612 1268 35.609
98.9786 1280 35.7771
99.096 1386 37.229
99.2134 1371 37.027
99.3308 1437 37.9078
99.4482 1386 37.229
99.5656 1340 36.606
99.6831 1328 36.4417
99.8005 1252 35.3836
99.9179 1233 35.1141
100.035 1222 34.9571
100.153 1218 34.8999
100.27 1138 33.7343
100.388 1189 34.4819
100.505 1191 34.5109
100.622 1182 34.3802
100.74 1193 34.5398
100.857 1226 35.0143
100.975 1326 36.4143
101.092 1299 36.0416
101.209 1288 35.8887
101.327 1177 34.3074
101.444 1061 32.573
101.561 943 30.7083
101.679 951 30.8383
101.796 867 29.4449
101.913 909 30.1496
102.03 1033 32.1403
102.148 1134 33.6749
102.265 1278 35.7491
102.382 1350 36.7423
102.499 1391 37.2961
102.616 1506 38.8072
102.733 1482 38.4968
102.851 1436 37.8946
102.968 1433 37.855
103.085 1495 38.6652
103.202 1369 37
103.319 1429 37.8021
103.436 1353 36.7831
103.552 1311 36.2077
103.669 1223 34.9714
103.786 1228 35.0428
103.903 1227 35.0286
104.02 1281 35.7911
104.137 1283 35.819
104.253 1287 35.8748
104.37 1403 37.4566
104.487 1409 37.5366
104.603 1358 36.8511
104.72 1394 37.3363
104.836 1296 36
104.953 1100 33.1662
105.069 1017 31.8904
105.186 1017 31.8904
105.302 981 31.3209
105.418 1083 32.909
105.535 1240 35.2136
105.651 1288 35.8887
105.767 1482 38.4968
105.883 1562 39.5221
105.999 1525 39.0512
106.115 0 1
106.231 0 1
106.347 0 1
106.463 0 1
106.579 0 1
106.694 0 1
106.81 0 1
106.926 0 1
107.041 0 1
107.157 0 1
109.576 0 1
109.692 0 1
109.807 0 1
109.923 0 1
110.039 0 1
110.155 0 1
110.27 0 1
110.386 0 1
110.502 0 1
110.618 1149 33.8969
110.735 1305 36.1248
110.851 1375 37.081
110.967 1467 38.3014
111.083 1515 38.923
111.199 1484 38.5227
111.316 1527 39.0768
111.432 1512 38.8844
111.549 1512 38.8844
111.665 1492 38.6264
111.782 1445 38.0132
111.898 1464 38.2623
112.015 1357 36.8375
112.132 1255 35.426
112.248 1223 34.9714
112.365 1242 35.242
112.482 1218 34.8999
112.599 1272 35.6651
112.716 1297 36.0139
112.832 1280 35.7771
112.949 1269 35.623
113.066 1383 37.1887
113.183 1313 36.2353
113.3 1216 34.8712
113.417 1152 33.9411
113.534 1021 31.9531
113.652 997 31.5753
113.769 968 31.1127
113.886 963 31.0322
114.003 951 30.8383
114.12 1101 33.1813
114.238 1194 34.5543
114.355 1253 35.3977
114.472 1302 36.0832
114.589 1430 37.8153
114.707 1433 37.855
114.824 1535 39.1791
114.942 1487 38.5616
115.059 1499 38.7169
115.176 1415 37.6165
115.294 1358 36.8511
115.411 1363 36.9188
115.529 1315 36.2629
115.646 1298 36.0278
115.764 1291 35.9305
115.881 1182 34.3802
115.999 1239 35.1994
116.116 1201 34.6554
116.234 1273 35.6791
116.351 1308 36.1663
116.469 1327 36.428
116.586 1346 36.6879
116.704 1301 36.0694
116.821 1291 35.9305
116.939 1207 34.7419
117.056 1147 33.8674
117.174 1110 33.3167
117.291 1030 32.0936
117.409 1026 32.0312
117.526 1020 31.9374
117.644 1098 33.1361
117.761 1193 34.5398
117.879 1323 36.3731
117.996 1386 37.229
118.114 1412 37.5766
118.231 1386 37.229
118.349 1487 38.5616
118.466 1474 38.3927
118.584 1494 38.6523
118.701 1495 38.6652
118.819 1448 38.0526
118.936 1430 37.8153
119.053 1416 37.6298
119.171 1460 38.2099
119.288 1358 36.8511
119.405 1269 35.623
119.523 1283 35.819
119.64 1180 34.3511
119.757 1221 34.9428
119.875 1255 35.426
119.992 1259 35.4824
120.109 1364 36.9324
120.226 1355 36.8103
120.343 1240 35.2136
120.46 1278 35.7491
120.578 1154 33.9706
120.695 1141 33.7787
120.812 1109 33.3017
120.929 992 31.496
121.046 1051 32.4191
121.163 1062 32.5883
121.279 1168 34.176
121.396 1231 35.0856
121.513 1328 36.4417
121.63 1386 37.229
121.747 1407 37.51
121.863 1468 38.3145
121.98 1486 38.5487
122.097 1447 38.0395
122.213 1497 38.6911
122.33 1477 38.4318
122.446 1455 38.1445
122.563 1392 37.3095
122.679 1370 37.0135
122.795 1430 37.8153
122.912 1309 36.1801
123.028 1279 35.7631
123.144 1221 34.9428
123.26 1256 35.4401
123.377 0 1
123.493 0 1
123.609 0 1
123.725 0 1
123.84 0 1
123.956 0 1
124.072 0 1
124.188 0 1
124.303 0 1
124.419 0 1
126.852 0 1
126.968 0 1
127.083 0 1
127.199 0 1
127.315 0 1
127.431 0 1
127.547 0 1
127.663 0 1
127.779 0 1
127.895 0 1
128.011 0 1
128.127 0 1
128.243 0 1
128.359 1375 37.081
128.476 1323 36.3731
128.592 1344 36.6606
128.708 1349 36.7287
128.825 1369 37
128.941 1414 37.6032
129.058 1479 38.4578
129.174 1468 38.3145
129.291 1481 38.4838
129.408 1416 37.6298
129.524 1339 36.5923
129.641 1284 35.8329
129.758 1217 34.8855
129.875 1148 33.8821
129.992 1095 33.0908
130.108 1196 34.5832
130.225 1195 34.5688
130.342 1269 35.623
130.459 1384 37.2022
130.576 1573 39.6611
130.693 1560 39.4968
130.81 1600 40
130.928 1490 38.6005
131.045 1628 40.3485
131.162 1615 40.1871
131.279 1594 39.9249
131.396 1557 39.4588
131.513 1601 40.0125
131.631 1638 40.4722
131.748 1466 38.2884
131.865 1410 37.55
131.983 1392 37.3095
132.1 1438 37.921
132.217 1399 37.4032
132.335 1429 37.8021
132.452 1508 38.833
132.57 1488 38.5746
132.687 1503 38.7685
132.804 1525 39.0512
132.922 1470 38.3406
133.039 1418 37.6563
133.157 1311 36.2077
133.274 1321 36.3456
133.392 1256 35.4401
133.509 1261 35.5106
133.627 1196 34.5832
133.744 1182 34.3802
133.862 1350 36.7423
133.979 1523 39.0256
134.097 1504 38.7814
134.214 1552 39.3954
134.332 1547 39.3319
134.449 1534 39.1663
134.567 1564 39.5474
134.684 1616 40.1995
134.802 1682 41.0122
134.919 1648 40.5956
135.037 1556 39.4462
135.154 1666 40.8167
135.272 1586 39.8246
135.389 1506 38.8072
135.507 1400 37.4166
135.624 1368 36.9865
135.742 1374 37.0675
135.859 1434 37.8682
135.977 1456 38.1576
136.094 1577 39.7115
136.211 1496 38.6782
136.329 1610 40.1248
136.446 1495 38.6652
136.564 1422 37.7094
136.681 1460 38.2099
136.798 1300 36.0555
136.915 1311 36.2077
137.033 1229 35.0571
137.15 1154 33.9706
137.267 1257 35.4542
137.384 1224 34.9857
137.502 1368 36.9865
137.619 1423 37.7227
137.736 1494 38.6523
137.853 1465 38.2753
137.97 1531 39.128
138.087 1502 38.7556
138.204 1523 39.0256
138.321 1590 39.8748
138.438 1538 39.2173
138.555 1510 38.8587
138.672 1560 39.4968
138.788 1541 39.2556
138.905 1544 39.2938
139.022 1499 38.7169
139.139 1397 37.3765
139.255 1420 37.6829
139.372 1386 37.229
139.488 1395 37.3497
139.605 1485 38.5357
139.721 1522 39.0128
139.838 1500 38.7298
139.954 1543 39.281
140.071 1476 38.4187
140.187 1442 37.9737
140.303 1412 37.5766
140.419 1338 36.5787
140.535 1248 35.327
140.652 1227 35.0286
140.768 0 1
140.884 0 1
141 0 1
141.115 0 1
141.231 0 1
141.347 0 1
141.463 0 1
141.578 0 1
141.694 0 1
144.104 0 1
144.219 0 1
144.335 0 1
144.45 0 1
144.566 0 1
144.682 0 1
144.798 0 1
144.914 0 1
145.03 0 1
145.146 1016 31.8748
145.262 1061 32.573
145.378 1135 33.6898
145.494 1043 32.2955
145.61 989 31.4484
145.726 1025 32.0156
145.842 968 31.1127
145.959 988 31.4325
146.075 924 30.3974
146.192 921 30.348
146.308 1002 31.6544
146.425 1114 33.3766
146.541 1116 33.4066
146.658 1069 32.6956
146.774 1171 34.2199
146.891 1106 33.2566
147.008 1241 35.2278
147.125 1211 34.7994
147.241 1257 35.4542
147.358 1223 34.9714
147.475 1208 34.7563
147.592 1243 35.2562
147.709 1149 33.8969
147.826 1216 34.8712
147.943 1168 34.176
148.06 1096 33.1059
148.177 1047 32.3574
148.294 1083 32.909
148.411 1122 33.4963
148.528 1261 35.5106
148.645 1236 35.1568
148.762 1210 34.7851
148.88 1167 34.1614
148.997 1187 34.4529
149.114 1210 34.7851
149.231 1102 33.1964
149.349 1124 33.5261
149.466 1124 33.5261
149.583 1036 32.187
149.701 1016 31.8748
149.818 997 31.5753
149.935 1017 31.8904
150.053 1008 31.749
150.17 1110 33.3167
150.287 1124 33.5261
150.405 1144 33.8231
150.522 1147 33.8674
150.64 1175 34.2783
150.757 1187 34.4529
150.875 1202 34.6699
150.992 1271 35.6511
151.11 1224 34.9857
151.227 1236 35.1568
151.344 1186 34.4384
151.462 1250 35.3553
151.579 1180 34.3511
151.697 1123 33.5112
151.814 1081 32.8786
151.932 1097 33.121
152.049 1075 32.7872
152.167 1155 33.9853
152.284 1230 35.0714
152.402 1119 33.4515
152.519 1308 36.1663
152.636 1201 34.6554
152.754 1195 34.5688
152.871 1227 35.0286
152.989 1170 34.2053
153.106 1101 33.1813
153.223 1109 33.3017
153.341 1109 33.3017
153.458 1058 32.5269
153.575 1078 32.8329
153.693 1034 32.1559
153.81 1132 33.6452
153.927 1144 33.8231
154.044 1187 34.4529
154.162 1244 35.2704
154.279 1275 35.7071
154.396 1355 36.8103
154.513 1346 36.6879
154.63 1325 36.4005
154.747 1352 36.7696
154.864 1410 37.55
154.981 1363 36.9188
155.098 1271 35.6511
155.215 1297 36.0139
155.332 1204 34.6987
155.449 1194 34.5543
155.566 1182 34.3802
155.683 1273 35.6791
155.8 1222 34.9571
155.917 1310 36.1939
156.033 1311 36.2077
156.15 0 1
156.267 0 1
156.383 0 1
156.5 0 1
156.617 0 1
156.733 0 1
156.85 0 1
156.966 0 1
157.082 0 1
157.199 0 1
157.315 0 1
157.431 0 1
157.547 0 1
157.664 0 1
157.78 0 1
157.896 0 1
158.012 0 1
158.128 0 1
158.244 0 1
158.359 0 1
158.475 0 1
158.591 0 1
158.706 0 1
