
6.15755 0 1
6.2731 0 1
6.3887 0 1
6.50437 0 1
6.62009 0 1
6.73587 0 1
6.8517 0 1
6.96759 0 1
7.08353 0 1
7.19952 0 1
7.31557 0 1
7.43166 0 1
7.54781 0 1
7.664 0 1
7.78024 0 1
7.89653 0 1
8.01286 0 1
8.12924 0 1
8.24567 0 1
8.36213 0 1
8.47864 0 1
8.59519 0 1
8.71178 0 1
8.82841 0 1
8.94508 0 1
9.06179 0 1
9.17853 0 1
9.29531 0 1
9.41212 0 1
9.52897 0 1
9.64584 0 1
9.76276 0 1
9.8797 0 1
9.99667 0 1
10.1137 0 1
10.2307 0 1
10.3478 0 1
10.4648 0 1
10.5819 0 1
10.6991 0 1
10.8162 0 1
10.9334 0 1
11.0506 0 1
11.1678 0 1
11.285 0 1
11.4023 0 1
11.5196 0 1
11.6369 0 1
11.7542 0 1
11.8715 0 1
11.9888 0 1
12.1062 0 1
12.2235 0 1
12.3409 0 1
12.4582 0 1
12.5756 0 1
12.693 0 1
12.8104 0 1
12.9278 0 1
13.0452 0 1
13.1626 0 1
13.28 0 1
13.3974 0 1
13.5149 0 1
13.6323 0 1
13.7497 0 1
13.8671 0 1
13.9845 0 1
14.1019 0 1
14.2193 0 1
14.3367 0 1
14.4541 0 1
14.5714 0 1
14.6888 0 1
14.8062 0 1
14.9235 0 1
15.0408 0 0
15.1581 0 0
15.2755 0 0
15.3927 0 0
15.51 0 0
15.6273 0 0
15.7445 0 0
15.8617 0 0
15.9789 0 0
16.0961 0 0
16.2132 0 0
16.3304 0 0
16.4475 0 0
16.5646 0 0
16.6816 0 0
16.7986 0 0
16.9156 0 0
17.0326 0 0
17.1496 0 0
17.2665 0 0
17.3833 0 0
17.5002 0 0
17.617 0 0
17.7338 0 0
17.8505 0 0
17.9672 0 0
18.0839 0 0
18.2005 0 0
18.3171 0 0
18.4337 0 0
18.5502 0 0
18.6666 0 0
18.7831 0 0
18.8994 0 0
19.0158 0 0
19.1321 0 0
19.2483 0 0
19.3645 0 0
19.4806 0 0
19.5967 0 0
19.7128 0 0
19.8288 0 0
19.9447 0 0
20.0606 0 1
20.1764 0 1
20.2922 0 1
20.4079 0 1
20.5236 0 1
20.6392 0 1
20.7548 0 1
20.8702 0 1
23.3078 0 1
23.4233 0 1
23.539 0 1
23.6547 0 1
23.7704 0 1
23.8862 0 1
24.0021 0 1
24.118 0 1
24.234 0 1
24.35 0 1
24.4661 406 20.1494
24.5822 505 22.4722
24.6984 538 23.1948
24.8146 604 24.5764
24.9309 590 24.2899
25.0472 627 25.04
25.1636 634 25.1794
25.28 722 26.8701
25.3965 755 27.4773
25.513 744 27.2764
25.6296 830 28.8097
25.7462 818 28.6007
25.8628 837 28.931
25.9795 912 30.1993
26.0962 878 29.6311
26.213 895 29.9166
26.3298 867 29.4449
26.4466 875 29.5804
26.5635 845 29.0689
26.6804 786 28.0357
26.7973 762 27.6043
26.9143 730 27.0185
27.0313 736 27.1293
27.1483 826 28.7402
27.2653 813 28.5132
27.3824 867 29.4449
27.4996 811 28.4781
27.6167 877 29.6142
27.7339 820 28.6356
27.8511 812 28.4956
27.9683 823 28.688
28.0855 788 28.0713
28.2028 792 28.1425
28.3201 780 27.9285
28.4374 735 27.1109
28.5547 728 26.9815
28.6721 703 26.5141
28.7894 681 26.096
28.9068 668 25.8457
29.0242 788 28.0713
29.1416 722 26.8701
29.259 816 28.5657
29.3764 795 28.1957
29.4939 884 29.7321
29.6113 857 29.2746
29.7288 855 29.2404
29.8463 798 28.2489
29.9638 801 28.3019
30.0812 753 27.4408
30.1987 751 27.4044
30.3162 669 25.865
30.4337 675 25.9808
30.5512 744 27.2764
30.6687 695 26.3629
30.7862 776 27.8568
30.9037 778 27.8927
31.0212 763 27.6225
31.1387 798 28.2489
31.2562 781 27.9464
31.3737 711 26.6646
31.4912 761 27.5862
31.6087 741 27.2213
31.7262 733 27.074
31.8436 728 26.9815
31.9611 658 25.6515
32.0785 694 26.3439
32.1959 701 26.4764
32.3134 717 26.7769
32.4308 695 26.3629
32.5482 705 26.5518
32.6655 710 26.6458
32.7829 789 28.0891
32.9002 846 29.0861
33.0176 787 28.0535
33.1349 804 28.3549
33.2522 878 29.6311
33.3694 792 28.1425
33.4867 760 27.5681
33.6039 803 28.3373
33.7211 788 28.0713
33.8383 710 26.6458
33.9554 708 26.6083
34.0725 681 26.096
34.1896 693 26.3249
34.3067 690 26.2679
34.4237 724 26.9072
34.5407 737 27.1477
34.6577 744 27.2764
34.7746 741 27.2213
34.8915 728 26.9815
35.0084 769 27.7308
35.1252 715 26.7395
35.242 710 26.6458
35.3587 722 26.8701
35.4755 627 25.04
35.5921 668 25.8457
35.7088 617 24.8395
35.8254 588 24.2487
35.9419 547 23.388
36.0584 576 24
36.1749 536 23.1517
36.2913 574 23.9583
36.4077 630 25.0998
36.524 582 24.1247
36.6403 573 23.9374
36.7565 566 23.7908
36.8727 573 23.9374
36.9889 507 22.5167
37.1049 505 22.4722
37.221 0 1
37.3369 0 1
37.4529 0 1
37.5687 0 1
37.6845 0 1
37.8003 0 1
37.916 0 1
38.0316 0 1
38.1472 0 1
40.5851 0 1
40.7008 0 1
40.8164 0 1
40.9322 0 1
41.048 0 1
41.1639 0 1
41.2798 0 1
41.3958 0 1
41.5118 0 1
41.6279 0 1
41.744 413 20.3224
41.8602 432 20.7846
41.9765 480 21.9089
42.0928 503 22.4277
42.2091 553 23.516
42.3255 534 23.1084
42.4419 530 23.0217
42.5584 572 23.9165
42.675 532 23.0651
42.7915 495 22.2486
42.9081 473 21.7486
43.0248 521 22.8254
43.1415 504 22.4499
43.2582 592 24.3311
43.375 676 26
43.4918 604 24.5764
43.6087 644 25.3772
43.7256 580 24.0832
43.8425 594 24.3721
43.9595 625 25
44.0765 603 24.5561
44.1935 564 23.7487
44.3106 577 24.0208
44.4277 544 23.3238
44.5448 516 22.7156
44.6619 497 22.2935
44.7791 523 22.8692
44.8963 512 22.6274
45.0136 494 22.2261
45.1308 555 23.5584
45.2481 594 24.3721
45.3654 622 24.9399
45.4827 651 25.5147
45.6001 600 24.4949
45.7174 613 24.7588
45.8348 597 24.4336
45.9522 619 24.8797
46.0697 617 24.8395
46.1871 597 24.4336
46.3046 516 22.7156
46.422 462 21.4942
46.5395 544 23.3238
46.657 550 23.4521
46.7745 591 24.3105
46.892 568 23.8328
47.0096 574 23.9583
47.1271 630 25.0998
47.2446 603 24.5561
47.3622 634 25.1794
47.4797 611 24.7184
47.5973 594 24.3721
47.7149 593 24.3516
47.8324 584 24.1661
47.95 541 23.2594
48.0675 503 22.4277
48.1851 541 23.2594
48.3027 463 21.5174
48.4202 505 22.4722
48.5378 508 22.5389
48.6554 527 22.9565
48.7729 534 23.1084
48.8904 569 23.8537
49.008 574 23.9583
49.1255 596 24.4131
49.243 594 24.3721
49.3605 617 24.8395
49.478 599 24.4745
49.5955 579 24.0624
49.713 514 22.6716
49.8304 528 22.9783
49.9479 479 21.8861
50.0653 495 22.2486
50.1827 532 23.0651
50.3001 545 23.3452
50.4175 578 24.0416
50.5348 604 24.5764
50.6521 603 24.5561
50.7694 602 24.5357
50.8867 602 24.5357
51.004 572 23.9165
51.1212 553 23.516
51.2384 561 23.6854
51.3556 552 23.4947
51.4727 574 23.9583
51.5899 527 22.9565
51.707 468 21.6333
51.824 464 21.5407
51.9411 499 22.3383
52.0581 450 21.2132
52.175 512 22.6274
52.2919 585 24.1868
52.4088 541 23.2594
52.5257 558 23.622
52.6425 602 24.5357
52.7593 626 25.02
52.876 587 24.2281
52.9927 581 24.1039
53.1094 578 24.0416
53.226 575 23.9792
53.3426 491 22.1585
53.4591 481 21.9317
53.5756 422 20.5426
53.692 440 20.9762
53.8084 413 20.3224
53.9248 405 20.1246
54.0411 412 20.2978
54.1573 396 19.8997
54.2735 0 1
54.3896 0 1
54.5057 0 1
54.6217 0 1
54.7377 0 1
54.8537 0 1
54.9695 0 1
55.0853 0 1
55.2011 0 1
55.3168 0 1
55.4324 0 1
57.824 0 1
57.9396 0 1
58.0553 0 1
58.1711 0 1
58.2869 0 1
58.4028 0 1
58.5187 0 1
58.6347 0 1
58.7508 0 1
58.8669 0 1
58.983 450 21.2132
59.0992 511 22.6053
59.2155 531 23.0434
59.3318 579 24.0624
59.4482 571 23.8956
59.5646 688 26.2298
59.681 663 25.7488
59.7975 696 26.3818
59.9141 707 26.5895
60.0306 663 25.7488
60.1473 651 25.5147
60.2639 610 24.6982
60.3807 597 24.4336
60.4974 565 23.7697
60.6142 670 25.8844
60.731 570 23.8747
60.8479 666 25.807
60.9648 670 25.8844
61.0818 701 26.4764
61.1987 730 27.0185
61.3158 743 27.258
61.4328 716 26.7582
61.5499 725 26.9258
61.667 672 25.923
61.7841 686 26.1916
61.9013 584 24.1661
62.0185 568 23.8328
62.1357 617 24.8395
62.253 579 24.0624
62.3702 603 24.5561
62.4875 676 26
62.6049 718 26.7955
62.7222 699 26.4386
62.8396 748 27.3496
62.9569 727 26.9629
63.0743 711 26.6646
63.1918 681 26.096
63.3092 727 26.9629
63.4267 728 26.9815
63.5441 681 26.096
63.6616 612 24.7386
63.7791 631 25.1197
63.8966 583 24.1454
64.0142 554 23.5372
64.1317 545 23.3452
64.2492 600 24.4949
64.3668 568 23.8328
64.4843 626 25.02
64.6019 690 26.2679
64.7195 663 25.7488
64.837 705 26.5518
64.9546 684 26.1534
65.0722 751 27.4044
65.1898 668 25.8457
65.3074 679 26.0576
65.4249 633 25.1595
65.5425 601 24.5153
65.6601 555 23.5584
65.7777 552 23.4947
65.8952 577 24.0208
66.0128 611 24.7184
66.1304 661 25.7099
66.2479 685 26.1725
66.3655 721 26.8514
66.483 731 27.037
66.6005 669 25.865
66.718 634 25.1794
66.8355 743 27.258
66.953 737 27.1477
67.0705 654 25.5734
67.1879 594 24.3721
67.3054 654 25.5734
67.4228 614 24.779
67.5402 528 22.9783
67.6576 532 23.0651
67.7749 532 23.0651
67.8923 560 23.6643
68.0096 560 23.6643
68.1269 586 24.2074
68.2442 629 25.0799
68.3614 678 26.0384
68.4787 660 25.6905
68.5958 675 25.9808
68.713 653 25.5539
68.8302 659 25.671
68.9473 594 24.3721
69.0643 573 23.9374
69.1814 602 24.5357
69.2984 502 22.4054
69.4154 540 23.2379
69.5323 584 24.1661
69.6492 617 24.8395
69.7661 650 25.4951
69.8829 605 24.5967
69.9997 569 23.8537
70.1165 610 24.6982
70.2332 598 24.454
70.3499 560 23.6643
70.4665 536 23.1517
70.5831 538 23.1948
70.6996 511 22.6053
70.8161 456 21.3542
70.9326 458 21.4009
71.049 394 19.8494
71.1653 320 17.8885
71.2817 256 16
71.3979 255 15.9687
71.5141 229 15.1327
71.6303 238 15.4272
71.7464 225 15
71.8624 0 1
71.9784 0 1
72.0944 0 1
72.2102 0 1
72.3261 0 1
72.4418 0 1
72.5575 0 1
72.6732 0 1
75.1054 0 1
75.2209 0 1
75.3365 0 1
75.4521 0 1
75.5678 0 1
75.6835 0 1
75.7993 0 1
75.9151 0 1
76.031 0 1
76.147 439 20.9523
76.263 430 20.7364
76.3791 467 21.6102
76.4952 478 21.8632
76.6113 445 21.095
76.7276 450 21.2132
76.8438 463 21.5174
76.9601 498 22.3159
77.0765 591 24.3105
77.1929 587 24.2281
77.3093 638 25.2587
77.4258 625 25
77.5423 656 25.6125
77.6589 613 24.7588
77.7755 599 24.4745
77.8921 602 24.5357
78.0088 549 23.4307
78.1256 560 23.6643
78.2423 508 22.5389
78.3591 490 22.1359
78.4759 523 22.8692
78.5928 512 22.6274
78.7097 563 23.7276
78.8266 581 24.1039
78.9436 618 24.8596
79.0606 650 25.4951
79.1776 638 25.2587
79.2946 630 25.0998
79.4117 667 25.8263
79.5288 627 25.04
79.6459 638 25.2587
79.7631 616 24.8193
79.8802 558 23.622
79.9974 545 23.3452
80.1147 563 23.7276
80.2319 537 23.1733
80.3491 508 22.5389
80.4664 500 22.3607
80.5837 542 23.2809
80.701 584 24.1661
80.8183 626 25.02
80.9357 620 24.8998
81.053 632 25.1396
81.1704 645 25.3969
81.2877 675 25.9808
81.4051 650 25.4951
81.5225 634 25.1794
81.6399 607 24.6374
81.7573 569 23.8537
81.8747 543 23.3024
81.9922 528 22.9783
82.1096 479 21.8861
82.227 558 23.622
82.3444 573 23.9374
82.4619 581 24.1039
82.5793 690 26.2679
82.6967 654 25.5734
82.8142 663 25.7488
82.9316 721 26.8514
83.049 699 26.4386
83.1664 648 25.4558
83.2838 662 25.7294
83.4012 620 24.8998
83.5186 695 26.3629
83.636 622 24.9399
83.7534 517 22.7376
83.8708 526 22.9347
83.9881 487 22.0681
84.1055 483 21.9773
84.2228 529 23
84.3401 583 24.1454
84.4575 636 25.219
84.5747 681 26.096
84.692 657 25.632
84.8093 685 26.1725
84.9265 630 25.0998
85.0437 601 24.5153
85.1609 625 25
85.2781 592 24.3311
85.3952 548 23.4094
85.5123 560 23.6643
85.6294 507 22.5167
85.7465 541 23.2594
85.8636 605 24.5967
85.9806 611 24.7184
86.0976 648 25.4558
86.2145 655 25.593
86.3315 679 26.0576
86.4484 650 25.4951
86.5652 691 26.2869
86.682 683 26.1343
86.7988 625 25
86.9156 617 24.8395
87.0323 660 25.6905
87.149 604 24.5764
87.2657 529 23
87.3823 462 21.4942
87.4988 451 21.2368
87.6154 450 21.2132
87.7318 442 21.0238
87.8483 479 21.8861
87.9647 506 22.4944
88.081 536 23.1517
88.1973 509 22.561
88.3136 525 22.9129
88.4298 398 19.9499
88.546 385 19.6214
88.6621 320 17.8885
88.7781 327 18.0831
88.8942 0 1
89.0101 0 1
89.126 0 1
89.2419 0 1
89.3577 0 1
89.4734 0 1
89.5891 0 1
89.7047 0 1
89.8203 0 1
89.9358 0 1
92.3269 0 1
92.4424 0 1
92.558 0 1
92.6736 0 1
92.7893 0 1
92.905 0 1
93.0208 0 1
93.1366 0 1
93.2525 0 1
93.3685 0 1
93.4845 0 1
93.6005 653 25.5539
93.7167 640 25.2982
93.8328 681 26.096
93.949 653 25.5539
94.0653 622 24.9399
94.1816 651 25.5147
94.2979 549 23.4307
94.4143 579 24.0624
94.5307 626 25.02
94.6472 626 25.02
94.7637 664 25.7682
94.8803 704 26.533
94.9969 783 27.9821
95.1135 742 27.2397
95.2302 750 27.3861
95.3469 807 28.4077
95.4637 773 27.8029
95.5805 765 27.6586
95.6973 732 27.0555
95.8142 697 26.4008
95.9311 679 26.0576
96.048 626 25.02
96.1649 597 24.4336
96.2819 575 23.9792
96.3989 577 24.0208
96.516 612 24.7386
96.633 690 26.2679
96.7501 715 26.7395
96.8673 727 26.9629
96.9844 699 26.4386
97.1016 785 28.0179
97.2188 755 27.4773
97.336 693 26.3249
97.4532 594 24.3721
97.5704 586 24.2074
97.6877 596 24.4131
97.805 565 23.7697
97.9223 592 24.3311
98.0396 617 24.8395
98.1569 697 26.4008
98.2743 721 26.8514
98.3916 710 26.6458
98.509 761 27.5862
98.6264 718 26.7955
98.7438 756 27.4955
98.8612 740 27.2029
98.9786 715 26.7395
99.096 733 27.074
99.2134 706 26.5707
99.3308 679 26.0576
99.4482 663 25.7488
99.5656 586 24.2074
99.6831 570 23.8747
99.8005 589 24.2693
99.9179 611 24.7184
100.035 648 25.4558
100.153 741 27.2213
100.27 716 26.7582
100.388 746 27.313
100.505 688 26.2298
100.622 686 26.1916
100.74 712 26.6833
100.857 701 26.4764
100.975 672 25.923
101.092 643 25.3574
101.209 600 24.4949
101.327 559 23.6432
101.444 574 23.9583
101.561 628 25.0599
101.679 643 25.3574
101.796 734 27.0924
101.913 773 27.8029
102.03 754 27.4591
102.148 747 27.3313
102.265 788 28.0713
102.382 782 27.9643
102.499 760 27.5681
102.616 812 28.4956
102.733 775 27.8388
102.851 767 27.6948
102.968 714 26.7208
103.085 714 26.7208
103.202 726 26.9444
103.319 675 25.9808
103.436 641 25.318
103.552 706 26.5707
103.669 823 28.688
103.786 898 29.9666
103.903 928 30.4631
104.02 1040 32.249
104.137 1026 32.0312
104.253 1117 33.4215
104.37 1066 32.6497
104.487 1018 31.9061
104.603 1036 32.187
104.72 922 30.3645
104.836 952 30.8545
104.953 931 30.5123
105.069 928 30.4631
105.186 875 29.5804
105.302 910 30.1662
105.418 892 29.8664
105.535 944 30.7246
105.651 870 29.4958
105.767 834 28.8791
105.883 727 26.9629
105.999 700 26.4575
106.115 0 1
106.231 0 1
106.347 0 1
106.463 0 1
106.579 0 1
106.694 0 1
106.81 0 1
106.926 0 1
107.041 0 1
107.157 0 1
109.576 0 1
109.692 0 1
109.807 0 1
109.923 0 1
110.039 0 1
110.155 0 1
110.27 0 1
110.386 0 1
110.502 0 1
110.618 1128 33.5857
110.735 1417 37.6431
110.851 1666 40.8167
110.967 1888 43.4511
111.083 2069 45.4863
111.199 2253 47.4658
111.316 2205 46.9574
111.432 2344 48.4149
111.549 2364 48.621
111.665 2372 48.7032
111.782 2298 47.9375
111.898 2240 47.3286
112.015 2081 45.618
112.132 2050 45.2769
112.248 1866 43.1972
112.365 1867 43.2088
112.482 1909 43.6921
112.599 2096 45.7821
112.716 2288 47.833
112.832 2340 48.3735
112.949 2241 47.3392
113.066 2321 48.1768
113.183 2415 49.1426
113.3 2216 47.0744
113.417 2176 46.6476
113.534 2099 45.8148
113.652 1986 44.5646
113.769 1899 43.5775
113.886 1635 40.4351
114.003 1644 40.5463
114.12 1714 41.4005
114.238 1766 42.0238
114.355 1888 43.4511
114.472 1900 43.589
114.589 1983 44.5309
114.707 1885 43.4166
114.824 1992 44.6318
114.942 1889 43.4626
115.059 2002 44.7437
115.176 1882 43.382
115.294 1718 41.4488
115.411 1751 41.845
115.529 1601 40.0125
115.646 1478 38.4448
115.764 1354 36.7967
115.881 1234 35.1283
115.999 1200 34.641
116.116 1304 36.1109
116.234 1283 35.819
116.351 1311 36.2077
116.469 1298 36.0278
116.586 1237 35.171
116.704 1221 34.9428
116.821 1241 35.2278
116.939 1182 34.3802
117.056 1089 33
117.174 994 31.5278
117.291 878 29.6311
117.409 869 29.4788
117.526 813 28.5132
117.644 761 27.5862
117.761 783 27.9821
117.879 889 29.8161
117.996 816 28.5657
118.114 867 29.4449
118.231 896 29.9333
118.349 878 29.6311
118.466 872 29.5296
118.584 846 29.0861
118.701 836 28.9137
118.819 873 29.5466
118.936 750 27.3861
119.053 719 26.8142
119.171 797 28.2312
119.288 692 26.3059
119.405 593 24.3516
119.523 630 25.0998
119.64 616 24.8193
119.757 654 25.5734
119.875 677 26.0192
119.992 708 26.6083
120.109 704 26.533
120.226 735 27.1109
120.343 706 26.5707
120.46 639 25.2784
120.578 671 25.9037
120.695 712 26.6833
120.812 636 25.219
120.929 627 25.04
121.046 647 25.4362
121.163 524 22.891
121.279 541 23.2594
121.396 551 23.4734
121.513 557 23.6008
121.63 578 24.0416
121.747 593 24.3516
121.863 552 23.4947
121.98 606 24.6171
122.097 534 23.1084
122.213 566 23.7908
122.33 544 23.3238
122.446 550 23.4521
122.563 486 22.0454
122.679 474 21.7715
122.795 433 20.8087
122.912 392 19.799
123.028 338 18.3848
123.144 301 17.3494
123.26 275 16.5831
123.377 0 1
123.493 0 1
123.609 0 1
123.725 0 1
123.84 0 1
123.956 0 1
124.072 0 1
124.188 0 1
124.303 0 1
124.419 0 1
126.852 0 1
126.968 0 1
127.083 0 1
127.199 0 1
127.315 0 1
127.431 0 1
127.547 0 1
127.663 0 1
127.779 0 1
127.895 0 1
128.011 0 1
128.127 0 1
128.243 0 1
128.359 591 24.3105
128.476 605 24.5967
128.592 536 23.1517
128.708 625 25
128.825 614 24.779
128.941 675 25.9808
129.058 701 26.4764
129.174 683 26.1343
129.291 716 26.7582
129.408 668 25.8457
129.524 691 26.2869
129.641 651 25.5147
129.758 665 25.7876
129.875 646 25.4165
129.992 571 23.8956
130.108 569 23.8537
130.225 522 22.8473
130.342 559 23.6432
130.459 587 24.2281
130.576 655 25.593
130.693 626 25.02
130.81 660 25.6905
130.928 701 26.4764
131.045 669 25.865
131.162 748 27.3496
131.279 690 26.2679
131.396 689 26.2488
131.513 697 26.4008
131.631 700 26.4575
131.748 689 26.2488
131.865 665 25.7876
131.983 572 23.9165
132.1 568 23.8328
132.217 572 23.9165
132.335 620 24.8998
132.452 672 25.923
132.57 680 26.0768
132.687 666 25.807
132.804 692 26.3059
132.922 695 26.3629
133.039 682 26.1151
133.157 604 24.5764
133.274 593 24.3516
133.392 617 24.8395
133.509 558 23.622
133.627 606 24.6171
133.744 579 24.0624
133.862 519 22.7816
133.979 617 24.8395
134.097 614 24.779
134.214 594 24.3721
134.332 590 24.2899
134.449 632 25.1396
134.567 685 26.1725
134.684 674 25.9615
134.802 713 26.7021
134.919 706 26.5707
135.037 683 26.1343
135.154 660 25.6905
135.272 597 24.4336
135.389 631 25.1197
135.507 627 25.04
135.624 559 23.6432
135.742 607 24.6374
135.859 589 24.2693
135.977 678 26.0384
136.094 686 26.1916
136.211 668 25.8457
136.329 692 26.3059
136.446 664 25.7682
136.564 658 25.6515
136.681 637 25.2389
136.798 662 25.7294
136.915 623 24.96
137.033 597 24.4336
137.15 553 23.516
137.267 547 23.388
137.384 522 22.8473
137.502 531 23.0434
137.619 588 24.2487
137.736 628 25.0599
137.853 562 23.7065
137.97 622 24.9399
138.087 629 25.0799
138.204 629 25.0799
138.321 667 25.8263
138.438 630 25.0998
138.555 685 26.1725
138.672 623 24.96
138.788 637 25.2389
138.905 575 23.9792
139.022 556 23.5797
139.139 532 23.0651
139.255 489 22.1133
139.372 475 21.7945
139.488 459 21.4243
139.605 506 22.4944
139.721 476 21.8174
139.838 461 21.4709
139.954 437 20.9045
140.071 357 18.8944
140.187 383 19.5704
140.303 329 18.1384
140.419 294 17.1464
140.535 322 17.9444
140.652 297 17.2337
140.768 0 1
140.884 0 1
141 0 1
141.115 0 1
141.231 0 1
141.347 0 1
141.463 0 1
141.578 0 1
141.694 0 1
144.104 0 1
144.219 0 1
144.335 0 1
144.45 0 1
144.566 0 1
144.682 0 1
144.798 0 1
144.914 0 1
145.03 0 1
145.146 510 22.5832
145.262 536 23.1517
145.378 555 23.5584
145.494 548 23.4094
145.61 504 22.4499
145.726 482 21.9545
145.842 505 22.4722
145.959 479 21.8861
146.075 494 22.2261
146.192 478 21.8632
146.308 439 20.9523
146.425 527 22.9565
146.541 508 22.5389
146.658 496 22.2711
146.774 544 23.3238
146.891 548 23.4094
147.008 524 22.891
147.125 559 23.6432
147.241 571 23.8956
147.358 552 23.4947
147.475 546 23.3666
147.592 509 22.561
147.709 507 22.5167
147.826 496 22.2711
147.943 454 21.3073
148.06 462 21.4942
148.177 493 22.2036
148.294 528 22.9783
148.411 497 22.2935
148.528 557 23.6008
148.645 509 22.561
148.762 513 22.6495
148.88 518 22.7596
148.997 490 22.1359
149.114 549 23.4307
149.231 517 22.7376
149.349 500 22.3607
149.466 469 21.6564
149.583 450 21.2132
149.701 422 20.5426
149.818 454 21.3073
149.935 470 21.6795
150.053 467 21.6102
150.17 500 22.3607
150.287 460 21.4476
150.405 480 21.9089
150.522 533 23.0868
150.64 504 22.4499
150.757 476 21.8174
150.875 541 23.2594
150.992 509 22.561
151.11 481 21.9317
151.227 453 21.2838
151.344 513 22.6495
151.462 464 21.5407
151.579 453 21.2838
151.697 496 22.2711
151.814 486 22.0454
151.932 500 22.3607
152.049 525 22.9129
152.167 514 22.6716
152.284 494 22.2261
152.402 555 23.5584
152.519 549 23.4307
152.636 534 23.1084
152.754 520 22.8035
152.871 544 23.3238
152.989 501 22.383
153.106 457 21.3776
153.223 492 22.1811
153.341 426 20.6398
153.458 432 20.7846
153.575 430 20.7364
153.693 448 21.166
153.81 507 22.5167
153.927 452 21.2603
154.044 470 21.6795
154.162 525 22.9129
154.279 502 22.4054
154.396 523 22.8692
154.513 546 23.3666
154.63 541 23.2594
154.747 526 22.9347
154.864 547 23.388
154.981 498 22.3159
155.098 486 22.0454
155.215 460 21.4476
155.332 452 21.2603
155.449 469 21.6564
155.566 507 22.5167
155.683 548 23.4094
155.8 525 22.9129
155.917 531 23.0434
156.033 468 21.6333
156.15 0 1
156.267 0 1
156.383 0 1
156.5 0 1
156.617 0 1
156.733 0 1
156.85 0 1
156.966 0 1
157.082 0 1
157.199 0 1
157.315 0 1
157.431 0 1
157.547 0 1
157.664 0 1
157.78 0 1
157.896 0 1
158.012 0 1
158.128 0 1
158.244 0 1
158.359 0 1
158.475 0 1
158.591 0 1
158.706 0 1
