
6.15755 0 1
6.2731 0 1
6.3887 0 1
6.50437 0 1
6.62009 0 1
6.73587 0 1
6.8517 0 1
6.96759 0 1
7.08353 0 1
7.19952 0 1
7.31557 0 1
7.43166 0 1
7.54781 0 1
7.664 0 1
7.78024 0 1
7.89653 0 1
8.01286 0 1
8.12924 0 1
8.24567 0 1
8.36213 0 1
8.47864 0 1
8.59519 0 1
8.71178 0 1
8.82841 0 1
8.94508 0 1
9.06179 0 1
9.17853 0 1
9.29531 0 1
9.41212 0 1
9.52897 0 1
9.64584 0 1
9.76276 0 1
9.8797 0 1
9.99667 0 1
10.1137 0 1
10.2307 0 1
10.3478 0 1
10.4648 0 1
10.5819 0 1
10.6991 0 1
10.8162 0 1
10.9334 0 1
11.0506 0 1
11.1678 0 1
11.285 0 1
11.4023 0 1
11.5196 0 1
11.6369 0 1
11.7542 0 1
11.8715 0 1
11.9888 0 1
12.1062 0 1
12.2235 0 1
12.3409 0 1
12.4582 0 1
12.5756 0 1
12.693 0 1
12.8104 0 1
12.9278 0 1
13.0452 0 1
13.1626 0 1
13.28 0 1
13.3974 0 1
13.5149 0 1
13.6323 0 1
13.7497 0 1
13.8671 0 1
13.9845 0 1
14.1019 0 1
14.2193 0 1
14.3367 0 1
14.4541 0 1
14.5714 0 1
14.6888 0 1
14.8062 0 1
14.9235 0 1
15.0408 2110 45.9347
15.1581 2254 47.4763
15.2755 2417 49.163
15.3927 2376 48.7442
15.51 2338 48.3529
15.6273 2343 48.4045
15.7445 2235 47.2758
15.8617 2179 46.6798
15.9789 2175 46.6369
16.0961 2256 47.4974
16.2132 2181 46.7012
16.3304 2256 47.4974
16.4475 2314 48.1041
16.5646 2285 47.8017
16.6816 2232 47.244
16.7986 2169 46.5725
16.9156 2150 46.3681
17.0326 2211 47.0213
17.1496 2224 47.1593
17.2665 2254 47.4763
17.3833 2167 46.551
17.5002 2135 46.2061
17.617 2114 45.9783
17.7338 2059 45.3762
17.8505 2088 45.6946
17.9672 2109 45.9239
18.0839 2038 45.1442
18.2005 2035 45.111
18.3171 2153 46.4004
18.4337 2148 46.3465
18.5502 2198 46.8828
18.6666 2311 48.0729
18.7831 2281 47.7598
18.8994 2244 47.3709
19.0158 2240 47.3286
19.1321 2051 45.288
19.2483 1992 44.6318
19.3645 1973 44.4185
19.4806 1857 43.0929
19.5967 1803 42.4617
19.7128 1765 42.0119
19.8288 1633 40.4104
19.9447 1527 39.0768
20.0606 0 1
20.1764 0 1
20.2922 0 1
20.4079 0 1
20.5236 0 1
20.6392 0 1
20.7548 0 1
20.8702 0 1
23.3078 0 1
23.4233 0 1
23.539 0 1
23.6547 0 1
23.7704 0 1
23.8862 0 1
24.0021 0 1
24.118 0 1
24.234 0 1
24.35 0 1
24.4661 813 28.5132
24.5822 998 31.5911
24.6984 1107 33.2716
24.8146 1282 35.805
24.9309 1489 38.5876
25.0472 1765 42.0119
25.1636 1908 43.6807
25.28 2102 45.8476
25.3965 2196 46.8615
25.513 2296 47.9166
25.6296 2425 49.2443
25.7462 2506 50.06
25.8628 2533 50.3289
25.9795 2412 49.1121
26.0962 2548 50.4777
26.213 2520 50.1996
26.3298 2450 49.4975
26.4466 2361 48.5901
26.5635 2351 48.4871
26.6804 2233 47.2546
26.7973 2276 47.7074
26.9143 2232 47.244
27.0313 2301 47.9687
27.1483 2265 47.592
27.2653 2221 47.1275
27.3824 2289 47.8435
27.4996 2365 48.6313
27.6167 2322 48.1871
27.7339 2251 47.4447
27.8511 2135 46.2061
27.9683 2037 45.1331
28.0855 2048 45.2548
28.2028 2062 45.4093
28.3201 2050 45.2769
28.4374 2150 46.3681
28.5547 2168 46.5618
28.6721 2214 47.0532
28.7894 2315 48.1144
28.9068 2294 47.8957
29.0242 2315 48.1144
29.1416 2406 49.051
29.259 2387 48.8569
29.3764 2314 48.1041
29.4939 2266 47.6025
29.6113 2312 48.0833
29.7288 2291 47.8644
29.8463 2256 47.4974
29.9638 2246 47.392
30.0812 2258 47.5184
30.1987 2074 45.5412
30.3162 2066 45.4533
30.4337 2089 45.7056
30.5512 2088 45.6946
30.6687 2154 46.4112
30.7862 2135 46.2061
30.9037 2203 46.9361
31.0212 2207 46.9787
31.1387 2166 46.5403
31.2562 2179 46.6798
31.3737 2146 46.3249
31.4912 2052 45.299
31.6087 2077 45.5741
31.7262 2049 45.2659
31.8436 1993 44.643
31.9611 2080 45.607
32.0785 2105 45.8803
32.1959 2155 46.422
32.3134 2261 47.55
32.4308 2313 48.0937
32.5482 2296 47.9166
32.6655 2196 46.8615
32.7829 2251 47.4447
32.9002 2190 46.7974
33.0176 2307 48.0312
33.1349 2244 47.3709
33.2522 2282 47.7703
33.3694 2235 47.2758
33.4867 2182 46.7119
33.6039 2204 46.9468
33.7211 2154 46.4112
33.8383 2048 45.2548
33.9554 2128 46.1303
34.0725 2036 45.1221
34.1896 2118 46.0217
34.3067 2036 45.1221
34.4237 2114 45.9783
34.5407 2115 45.9891
34.6577 2201 46.9148
34.7746 2223 47.1487
34.8915 2028 45.0333
35.0084 2128 46.1303
35.1252 1998 44.699
35.242 1978 44.4747
35.3587 2046 45.2327
35.4755 1919 43.8064
35.5921 1921 43.8292
35.7088 1936 44
35.8254 2013 44.8665
35.9419 2189 46.7868
36.0584 2121 46.0543
36.1749 2173 46.6154
36.2913 2177 46.6583
36.4077 2103 45.8585
36.524 2014 44.8776
36.6403 1908 43.6807
36.7565 1867 43.2088
36.8727 1764 42
36.9889 1602 40.025
37.1049 1461 38.223
37.221 0 1
37.3369 0 1
37.4529 0 1
37.5687 0 1
37.6845 0 1
37.8003 0 1
37.916 0 1
38.0316 0 1
38.1472 0 1
40.5851 0 1
40.7008 0 1
40.8164 0 1
40.9322 0 1
41.048 0 1
41.1639 0 1
41.2798 0 1
41.3958 0 1
41.5118 0 1
41.6279 0 1
41.744 948 30.7896
41.8602 1127 33.5708
41.9765 1258 35.4683
42.0928 1425 37.7492
42.2091 1490 38.6005
42.3255 1541 39.2556
42.4419 1584 39.7995
42.5584 1640 40.4969
42.675 1652 40.6448
42.7915 1779 42.1782
42.9081 1736 41.6653
43.0248 1787 42.2729
43.1415 1774 42.1189
43.2582 1804 42.4735
43.375 1806 42.4971
43.4918 1889 43.4626
43.6087 1896 43.5431
43.7256 1818 42.638
43.8425 1825 42.72
43.9595 1820 42.6615
44.0765 1721 41.4849
44.1935 1805 42.4853
44.3106 1718 41.4488
44.4277 1710 41.3521
44.5448 1747 41.7971
44.6619 1803 42.4617
44.7791 1828 42.7551
44.8963 1866 43.1972
45.0136 1876 43.3128
45.1308 1903 43.6234
45.2481 1976 44.4522
45.3654 1881 43.3705
45.4827 1965 44.3283
45.6001 1834 42.8252
45.7174 1901 43.6005
45.8348 1929 43.9204
45.9522 1860 43.1277
46.0697 1881 43.3705
46.1871 1854 43.0581
46.3046 1742 41.7373
46.422 1842 42.9185
46.5395 1817 42.6263
46.657 1830 42.7785
46.7745 1896 43.5431
46.892 1947 44.1248
47.0096 1993 44.643
47.1271 2122 46.0652
47.2446 2110 45.9347
47.3622 2025 45
47.4797 1888 43.4511
47.5973 1879 43.3474
47.7149 1906 43.6578
47.8324 1831 42.7902
47.95 1789 42.2966
48.0675 1762 41.9762
48.1851 1824 42.7083
48.3027 1864 43.1741
48.4202 1827 42.7434
48.5378 1994 44.6542
48.6554 1953 44.1928
48.7729 1862 43.1509
48.8904 1974 44.4297
49.008 2037 45.1331
49.1255 1939 44.0341
49.243 1978 44.4747
49.3605 1935 43.9886
49.478 1901 43.6005
49.5955 1874 43.2897
49.713 1865 43.1856
49.8304 1812 42.5676
49.9479 1818 42.638
50.0653 1798 42.4028
50.1827 1897 43.5546
50.3001 1797 42.391
50.4175 1835 42.8369
50.5348 1959 44.2606
50.6521 1992 44.6318
50.7694 2069 45.4863
50.8867 1932 43.9545
51.004 1976 44.4522
51.1212 1884 43.4051
51.2384 1871 43.2551
51.3556 1904 43.6348
51.4727 1830 42.7785
51.5899 1896 43.5431
51.707 1808 42.5206
51.824 1874 43.2897
51.9411 1977 44.4635
52.0581 2001 44.7325
52.175 2022 44.9667
52.2919 1929 43.9204
52.4088 2038 45.1442
52.5257 2022 44.9667
52.6425 1992 44.6318
52.7593 1995 44.6654
52.876 1996 44.6766
52.9927 1918 43.795
53.1094 1880 43.359
53.226 1939 44.0341
53.3426 1791 42.3202
53.4591 1777 42.1545
53.5756 1714 41.4005
53.692 1667 40.8289
53.8084 1616 40.1995
53.9248 1540 39.2428
54.0411 1392 37.3095
54.1573 1405 37.4833
54.2735 0 1
54.3896 0 1
54.5057 0 1
54.6217 0 1
54.7377 0 1
54.8537 0 1
54.9695 0 1
55.0853 0 1
55.2011 0 1
55.3168 0 1
55.4324 0 1
57.824 0 1
57.9396 0 1
58.0553 0 1
58.1711 0 1
58.2869 0 1
58.4028 0 1
58.5187 0 1
58.6347 0 1
58.7508 0 1
58.8669 0 1
58.983 1085 32.9393
59.0992 1339 36.5923
59.2155 1572 39.6485
59.3318 1761 41.9643
59.4482 1930 43.9318
59.5646 2092 45.7384
59.681 2180 46.6905
59.7975 2186 46.7547
59.9141 2195 46.8508
60.0306 2242 47.3498
60.1473 2244 47.3709
60.2639 2209 47
60.3807 2370 48.6826
60.4974 2369 48.6724
60.6142 2394 48.9285
60.731 2490 49.8999
60.8479 2445 49.4469
60.9648 2501 50.01
61.0818 2509 50.0899
61.1987 2511 50.1099
61.3158 2440 49.3964
61.4328 2431 49.3052
61.5499 2457 49.5681
61.667 2523 50.2295
61.7841 2534 50.3389
61.9013 2300 47.9583
62.0185 2403 49.0204
62.1357 2428 49.2747
62.253 2369 48.6724
62.3702 2390 48.8876
62.4875 2403 49.0204
62.6049 2380 48.7852
62.7222 2513 50.1298
62.8396 2608 51.0686
62.9569 2700 51.9615
63.0743 2602 51.0098
63.1918 2583 50.8232
63.3092 2518 50.1797
63.4267 2442 49.4166
63.5441 2413 49.1223
63.6616 2403 49.0204
63.7791 2290 47.8539
63.8966 2369 48.6724
64.0142 2444 49.4368
64.1317 2432 49.3153
64.2492 2457 49.5681
64.3668 2404 49.0306
64.4843 2533 50.3289
64.6019 2414 49.1325
64.7195 2402 49.0102
64.837 2518 50.1797
64.9546 2422 49.2138
65.0722 2523 50.2295
65.1898 2421 49.2037
65.3074 2355 48.5283
65.4249 2454 49.5379
65.5425 2324 48.2079
65.6601 2342 48.3942
65.7777 2328 48.2494
65.8952 2412 49.1121
66.0128 2388 48.8672
66.1304 2404 49.0306
66.2479 2415 49.1426
66.3655 2558 50.5767
66.483 2634 51.3225
66.6005 2604 51.0294
66.718 2467 49.6689
66.8355 2496 49.96
66.953 2567 50.6656
67.0705 2287 47.8226
67.1879 2358 48.5592
67.3054 2312 48.0833
67.4228 2344 48.4149
67.5402 2247 47.4025
67.6576 2289 47.8435
67.7749 2387 48.8569
67.8923 2256 47.4974
68.0096 2372 48.7032
68.1269 2410 49.0918
68.2442 2388 48.8672
68.3614 2424 49.2341
68.4787 2410 49.0918
68.5958 2426 49.2544
68.713 2331 48.2804
68.8302 2396 48.949
68.9473 2398 48.9694
69.0643 2367 48.6518
69.1814 2332 48.2908
69.2984 2353 48.5077
69.4154 2236 47.2864
69.5323 2254 47.4763
69.6492 2278 47.7284
69.7661 2379 48.775
69.8829 2319 48.156
69.9997 2505 50.05
70.1165 2475 49.7494
70.2332 2463 49.6286
70.3499 2302 47.9792
70.4665 2157 46.4435
70.5831 2036 45.1221
70.6996 1923 43.852
70.8161 1782 42.2137
70.9326 1596 39.95
71.049 1447 38.0395
71.1653 1246 35.2987
71.2817 1141 33.7787
71.3979 1045 32.3265
71.5141 1000 31.6228
71.6303 871 29.5127
71.7464 836 28.9137
71.8624 0 1
71.9784 0 1
72.0944 0 1
72.2102 0 1
72.3261 0 1
72.4418 0 1
72.5575 0 1
72.6732 0 1
75.1054 0 1
75.2209 0 1
75.3365 0 1
75.4521 0 1
75.5678 0 1
75.6835 0 1
75.7993 0 1
75.9151 0 1
76.031 0 1
76.147 1313 36.2353
76.263 1459 38.1969
76.3791 1636 40.4475
76.4952 1713 41.3884
76.6113 1798 42.4028
76.7276 1839 42.8836
76.8438 1975 44.441
76.9601 2099 45.8148
77.0765 2140 46.2601
77.1929 2157 46.4435
77.3093 2229 47.2123
77.4258 2299 47.9479
77.5423 2359 48.5695
77.6589 2383 48.816
77.7755 2334 48.3115
77.8921 2291 47.8644
78.0088 2229 47.2123
78.1256 2282 47.7703
78.2423 2225 47.1699
78.3591 2215 47.0638
78.4759 2274 47.6865
78.5928 2250 47.4342
78.7097 2291 47.8644
78.8266 2391 48.8979
78.9436 2531 50.309
79.0606 2577 50.7642
79.1776 2675 51.7204
79.2946 2719 52.144
79.4117 2709 52.0481
79.5288 2761 52.5452
79.6459 2717 52.1249
79.7631 2591 50.9019
79.8802 2407 49.0612
79.9974 2362 48.6004
80.1147 2355 48.5283
80.2319 2369 48.6724
80.3491 2370 48.6826
80.4664 2506 50.06
80.5837 2524 50.2394
80.701 2680 51.7687
80.8183 2729 52.2398
80.9357 2725 52.2015
81.053 2884 53.7029
81.1704 2908 53.9259
81.2877 2822 53.1225
81.4051 2785 52.7731
81.5225 2781 52.7352
81.6399 2846 53.3479
81.7573 2603 51.0196
81.8747 2583 50.8232
81.9922 2494 49.94
82.1096 2559 50.5866
82.227 2702 51.9808
82.3444 2594 50.9313
82.4619 2740 52.345
82.5793 2762 52.5547
82.6967 2863 53.507
82.8142 2879 53.6563
82.9316 2850 53.3854
83.049 3025 55
83.1664 2796 52.8772
83.2838 2750 52.4404
83.4012 2610 51.0882
83.5186 2491 49.9099
83.636 2468 49.679
83.7534 2370 48.6826
83.8708 2455 49.548
83.9881 2499 49.99
84.1055 2457 49.5681
84.2228 2510 50.0999
84.3401 2464 49.6387
84.4575 2561 50.6063
84.5747 2644 51.4198
84.692 2620 51.1859
84.8093 2632 51.303
84.9265 2527 50.2693
85.0437 2550 50.4975
85.1609 2453 49.5278
85.2781 2427 49.2646
85.3952 2299 47.9479
85.5123 2339 48.3632
85.6294 2266 47.6025
85.7465 2291 47.8644
85.8636 2288 47.833
85.9806 2286 47.8121
86.0976 2286 47.8121
86.2145 2391 48.8979
86.3315 2384 48.8262
86.4484 2445 49.4469
86.5652 2415 49.1426
86.682 2288 47.833
86.7988 2221 47.1275
86.9156 2153 46.4004
87.0323 2127 46.1194
87.149 2027 45.0222
87.2657 1873 43.2782
87.3823 1997 44.6878
87.4988 2004 44.7661
87.6154 2081 45.618
87.7318 2048 45.2548
87.8483 1959 44.2606
87.9647 1924 43.8634
88.081 1846 42.9651
88.1973 1727 41.5572
88.3136 1640 40.4969
88.4298 1402 37.4433
88.546 1216 34.8712
88.6621 1098 33.1361
88.7781 1017 31.8904
88.8942 0 1
89.0101 0 1
89.126 0 1
89.2419 0 1
89.3577 0 1
89.4734 0 1
89.5891 0 1
89.7047 0 1
89.8203 0 1
89.9358 0 1
92.3269 0 1
92.4424 0 1
92.558 0 1
92.6736 0 1
92.7893 0 1
92.905 0 1
93.0208 0 1
93.1366 0 1
93.2525 0 1
93.3685 0 1
93.4845 0 1
93.6005 1297 36.0139
93.7167 1486 38.5487
93.8328 1679 40.9756
93.949 1858 43.1045
94.0653 1960 44.2719
94.1816 2108 45.913
94.2979 2117 46.0109
94.4143 2061 45.3982
94.5307 2158 46.4543
94.6472 2065 45.4423
94.7637 2164 46.5188
94.8803 2132 46.1736
94.9969 2251 47.4447
95.1135 2259 47.5289
95.2302 2209 47
95.3469 2197 46.8722
95.4637 2269 47.634
95.5805 2263 47.571
95.6973 2307 48.0312
95.8142 2296 47.9166
95.9311 2219 47.1063
96.048 2031 45.0666
96.1649 2005 44.7772
96.2819 2058 45.3652
96.3989 1932 43.9545
96.516 1955 44.2154
96.633 1944 44.0908
96.7501 1964 44.317
96.8673 2119 46.0326
96.9844 2098 45.8039
97.1016 2047 45.2438
97.2188 2008 44.8107
97.336 2094 45.7602
97.4532 2198 46.8828
97.5704 2150 46.3681
97.6877 2299 47.9479
97.805 2209 47
97.9223 2202 46.9255
98.0396 2165 46.5296
98.1569 2142 46.2817
98.2743 2205 46.9574
98.3916 2126 46.1086
98.509 2189 46.7868
98.6264 2200 46.9042
98.7438 2174 46.6262
98.8612 2198 46.8828
98.9786 2265 47.592
99.096 2312 48.0833
99.2134 2161 46.4866
99.3308 2370 48.6826
99.4482 2347 48.4458
99.5656 2316 48.1248
99.6831 2397 48.9592
99.8005 2199 46.8935
99.9179 2113 45.9674
100.035 2064 45.4313
100.153 2038 45.1442
100.27 2180 46.6905
100.388 2188 46.7761
100.505 2139 46.2493
100.622 2212 47.0319
100.74 2106 45.8912
100.857 2153 46.4004
100.975 2202 46.9255
101.092 2209 47
101.209 2270 47.6445
101.327 2260 47.5395
101.444 2274 47.6865
101.561 2185 46.744
101.679 2216 47.0744
101.796 2217 47.085
101.913 2173 46.6154
102.03 2231 47.2335
102.148 2271 47.655
102.265 2217 47.085
102.382 2337 48.3425
102.499 2351 48.4871
102.616 2374 48.7237
102.733 2433 49.3254
102.851 2404 49.0306
102.968 2473 49.7293
103.085 2506 50.06
103.202 2447 49.4672
103.319 2250 47.4342
103.436 2171 46.594
103.552 2129 46.1411
103.669 2126 46.1086
103.786 2227 47.1911
103.903 2292 47.8748
104.02 2279 47.7389
104.137 2289 47.8435
104.253 2192 46.8188
104.37 2289 47.8435
104.487 2357 48.5489
104.603 2287 47.8226
104.72 2258 47.5184
104.836 2308 48.0416
104.953 2307 48.0312
105.069 2184 46.7333
105.186 2159 46.465
105.302 2205 46.9574
105.418 2012 44.8553
105.535 1882 43.382
105.651 1743 41.7493
105.767 1529 39.1024
105.883 1334 36.524
105.999 1249 35.3412
106.115 0 1
106.231 0 1
106.347 0 1
106.463 0 1
106.579 0 1
106.694 0 1
106.81 0 1
106.926 0 1
107.041 0 1
107.157 0 1
109.576 0 1
109.692 0 1
109.807 0 1
109.923 0 1
110.039 0 1
110.155 0 1
110.27 0 1
110.386 0 1
110.502 0 1
110.618 1010 31.7805
110.735 1244 35.2704
110.851 1459 38.1969
110.967 1553 39.4081
111.083 1674 40.9145
111.199 1837 42.8602
111.316 2005 44.7772
111.432 2035 45.111
111.549 2056 45.3431
111.665 2008 44.8107
111.782 1973 44.4185
111.898 1820 42.6615
112.015 1836 42.8486
112.132 1890 43.4741
112.248 1856 43.0813
112.365 1917 43.7836
112.482 1937 44.0114
112.599 2019 44.9333
112.716 1960 44.2719
112.832 1971 44.3959
112.949 1936 44
113.066 1977 44.4635
113.183 1994 44.6542
113.3 1952 44.1814
113.417 2014 44.8776
113.534 1961 44.2832
113.652 1965 44.3283
113.769 2046 45.2327
113.886 1985 44.5533
114.003 1961 44.2832
114.12 2043 45.1996
114.238 1952 44.1814
114.355 2064 45.4313
114.472 2051 45.288
114.589 2264 47.5815
114.707 2298 47.9375
114.824 2174 46.6262
114.942 2059 45.3762
115.059 2311 48.0729
115.176 2130 46.1519
115.294 2031 45.0666
115.411 1969 44.3734
115.529 1940 44.0454
115.646 1916 43.7721
115.764 1957 44.238
115.881 1975 44.441
115.999 1904 43.6348
116.116 1888 43.4511
116.234 1941 44.0568
116.351 1846 42.9651
116.469 1876 43.3128
116.586 1822 42.6849
116.704 1927 43.8976
116.821 1998 44.699
116.939 1909 43.6921
117.056 2007 44.7996
117.174 1892 43.4971
117.291 1959 44.2606
117.409 1904 43.6348
117.526 1932 43.9545
117.644 1885 43.4166
117.761 2007 44.7996
117.879 1995 44.6654
117.996 2010 44.833
118.114 2079 45.5961
118.231 2165 46.5296
118.349 2177 46.6583
118.466 1990 44.6094
118.584 2169 46.5725
118.701 2094 45.7602
118.819 1913 43.7379
118.936 1755 41.8927
119.053 1796 42.3792
119.171 1867 43.2088
119.288 1884 43.4051
119.405 1917 43.7836
119.523 1953 44.1928
119.64 1893 43.5086
119.757 1804 42.4735
119.875 1795 42.3674
119.992 1823 42.6966
120.109 1727 41.5572
120.226 1770 42.0714
120.343 1745 41.7732
120.46 1804 42.4735
120.578 1771 42.0833
120.695 1817 42.6263
120.812 1787 42.2729
120.929 1741 41.7253
121.046 1742 41.7373
121.163 1726 41.5452
121.279 1814 42.5911
121.396 1816 42.6146
121.513 1827 42.7434
121.63 1898 43.566
121.747 1979 44.486
121.863 1845 42.9535
121.98 1923 43.852
122.097 1919 43.8064
122.213 1790 42.3084
122.33 1692 41.1339
122.446 1420 37.6829
122.563 1239 35.1994
122.679 1020 31.9374
122.795 1040 32.249
122.912 970 31.1448
123.028 1001 31.6386
123.144 954 30.8869
123.26 859 29.3087
123.377 0 1
123.493 0 1
123.609 0 1
123.725 0 1
123.84 0 1
123.956 0 1
124.072 0 1
124.188 0 1
124.303 0 1
124.419 0 1
126.852 0 1
126.968 0 1
127.083 0 1
127.199 0 1
127.315 0 1
127.431 0 1
127.547 0 1
127.663 0 1
127.779 0 1
127.895 0 1
128.011 0 1
128.127 0 1
128.243 0 1
128.359 1810 42.5441
128.476 1889 43.4626
128.592 1856 43.0813
128.708 1834 42.8252
128.825 1788 42.2847
128.941 1837 42.8602
129.058 1795 42.3674
129.174 1767 42.0357
129.291 1701 41.2432
129.408 1749 41.821
129.524 1819 42.6497
129.641 1759 41.9404
129.758 1827 42.7434
129.875 1783 42.2256
129.992 1810 42.5441
130.108 1767 42.0357
130.225 1687 41.0731
130.342 1791 42.3202
130.459 1725 41.5331
130.576 1752 41.8569
130.693 1828 42.7551
130.81 1795 42.3674
130.928 1814 42.5911
131.045 1763 41.9881
131.162 1767 42.0357
131.279 1650 40.6202
131.396 1549 39.3573
131.513 1592 39.8999
131.631 1422 37.7094
131.748 1459 38.1969
131.865 1511 38.8716
131.983 1504 38.7814
132.1 1526 39.064
132.217 1518 38.9615
132.335 1388 37.2559
132.452 1428 37.7889
132.57 1386 37.229
132.687 1366 36.9594
132.804 1392 37.3095
132.922 1459 38.1969
133.039 1437 37.9078
133.157 1435 37.8814
133.274 1432 37.8418
133.392 1464 38.2623
133.509 1527 39.0768
133.627 1574 39.6737
133.744 1563 39.5348
133.862 1620 40.2492
133.979 1584 39.7995
134.097 1734 41.6413
134.214 1631 40.3856
134.332 1624 40.2989
134.449 1706 41.3038
134.567 1667 40.8289
134.684 1695 41.1704
134.802 1720 41.4729
134.919 1629 40.3609
135.037 1539 39.2301
135.154 1451 38.092
135.272 1482 38.4968
135.389 1657 40.7063
135.507 1751 41.845
135.624 1691 41.1218
135.742 1709 41.3401
135.859 1739 41.7013
135.977 1751 41.845
136.094 1736 41.6653
136.211 1729 41.5812
136.329 1754 41.8808
136.446 1820 42.6615
136.564 1826 42.7317
136.681 1850 43.0116
136.798 1754 41.8808
136.915 1852 43.0349
137.033 1917 43.7836
137.15 1849 43
137.267 1843 42.9302
137.384 1895 43.5316
137.502 1851 43.0232
137.619 1860 43.1277
137.736 1932 43.9545
137.853 1928 43.909
137.97 1878 43.3359
138.087 1990 44.6094
138.204 1941 44.0568
138.321 1903 43.6234
138.438 1931 43.9431
138.555 1811 42.5558
138.672 1563 39.5348
138.788 1523 39.0256
138.905 1585 39.8121
139.022 1685 41.0488
139.139 1782 42.2137
139.255 1816 42.6146
139.372 1834 42.8252
139.488 1727 41.5572
139.605 1500 38.7298
139.721 1315 36.2629
139.838 1212 34.8138
139.954 1121 33.4813
140.071 1152 33.9411
140.187 1040 32.249
140.303 956 30.9192
140.419 957 30.9354
140.535 906 30.0998
140.652 905 30.0832
140.768 0 1
140.884 0 1
141 0 1
141.115 0 1
141.231 0 1
141.347 0 1
141.463 0 1
141.578 0 1
141.694 0 1
144.104 0 1
144.219 0 1
144.335 0 1
144.45 0 1
144.566 0 1
144.682 0 1
144.798 0 1
144.914 0 1
145.03 0 1
145.146 1487 38.5616
145.262 1506 38.8072
145.378 1522 39.0128
145.494 1551 39.3827
145.61 1579 39.7366
145.726 1610 40.1248
145.842 1566 39.5727
145.959 1632 40.398
146.075 1561 39.5095
146.192 1474 38.3927
146.308 1580 39.7492
146.425 1666 40.8167
146.541 1589 39.8623
146.658 1626 40.3237
146.774 1613 40.1622
146.891 1594 39.9249
147.008 1642 40.5216
147.125 1552 39.3954
147.241 1540 39.2428
147.358 1594 39.9249
147.475 1459 38.1969
147.592 1328 36.4417
147.709 1314 36.2491
147.826 1391 37.2961
147.943 1498 38.704
148.06 1521 39
148.177 1627 40.3361
148.294 1668 40.8412
148.411 1576 39.6989
148.528 1529 39.1024
148.645 1484 38.5227
148.762 1541 39.2556
148.88 1586 39.8246
148.997 1608 40.0999
149.114 1482 38.4968
149.231 1488 38.5746
149.349 1565 39.5601
149.466 1587 39.8372
149.583 1635 40.4351
149.701 1588 39.8497
149.818 1505 38.7943
149.935 1524 39.0384
150.053 1508 38.833
150.17 1595 39.9375
150.287 1630 40.3733
150.405 1695 41.1704
150.522 1658 40.7185
150.64 1591 39.8873
150.757 1572 39.6485
150.875 1519 38.9744
150.992 1574 39.6737
151.11 1448 38.0526
151.227 1417 37.6431
151.344 1415 37.6165
151.462 1430 37.8153
151.579 1418 37.6563
151.697 1476 38.4187
151.814 1592 39.8999
151.932 1521 39
152.049 1501 38.7427
152.167 1561 39.5095
152.284 1498 38.704
152.402 1494 38.6523
152.519 1546 39.3192
152.636 1520 38.9872
152.754 1521 39
152.871 1591 39.8873
152.989 1501 38.7427
153.106 1554 39.4208
153.223 1538 39.2173
153.341 1574 39.6737
153.458 1511 38.8716
153.575 1578 39.724
153.693 1520 38.9872
153.81 1504 38.7814
153.927 1525 39.0512
154.044 1525 39.0512
154.162 1583 39.7869
154.279 1593 39.9124
154.396 1542 39.2683
154.513 1502 38.7556
154.63 1548 39.3446
154.747 1486 38.5487
154.864 1451 38.092
154.981 1412 37.5766
155.098 1447 38.0395
155.215 1441 37.9605
155.332 1530 39.1152
155.449 1449 38.0657
155.566 1442 37.9737
155.683 1511 38.8716
155.8 1433 37.855
155.917 1422 37.7094
156.033 1428 37.7889
156.15 0 1
156.267 0 1
156.383 0 1
156.5 0 1
156.617 0 1
156.733 0 1
156.85 0 1
156.966 0 1
157.082 0 1
157.199 0 1
157.315 0 1
157.431 0 1
157.547 0 1
157.664 0 1
157.78 0 1
157.896 0 1
158.012 0 1
158.128 0 1
158.244 0 1
158.359 0 1
158.475 0 1
158.591 0 1
158.706 0 1
