
6.15755 0 1
6.2731 0 1
6.3887 0 1
6.50437 0 1
6.62009 0 1
6.73587 0 1
6.8517 0 1
6.96759 0 1
7.08353 0 1
7.19952 0 1
7.31557 0 1
7.43166 0 1
7.54781 0 1
7.664 0 1
7.78024 0 1
7.89653 0 1
8.01286 0 1
8.12924 0 1
8.24567 0 1
8.36213 0 1
8.47864 0 1
8.59519 0 1
8.71178 0 1
8.82841 0 1
8.94508 0 1
9.06179 0 1
9.17853 0 1
9.29531 0 1
9.41212 0 1
9.52897 0 1
9.64584 0 1
9.76276 0 1
9.8797 0 1
9.99667 0 1
10.1137 0 1
10.2307 0 1
10.3478 0 1
10.4648 0 1
10.5819 0 1
10.6991 0 1
10.8162 0 1
10.9334 0 1
11.0506 0 1
11.1678 0 1
11.285 0 1
11.4023 0 1
11.5196 0 1
11.6369 0 1
11.7542 0 1
11.8715 0 1
11.9888 0 1
12.1062 0 1
12.2235 0 1
12.3409 0 1
12.4582 0 1
12.5756 0 1
12.693 0 1
12.8104 0 1
12.9278 0 1
13.0452 0 1
13.1626 0 1
13.28 0 1
13.3974 0 1
13.5149 0 1
13.6323 0 1
13.7497 0 1
13.8671 0 1
13.9845 0 1
14.1019 0 1
14.2193 0 1
14.3367 0 1
14.4541 0 1
14.5714 0 1
14.6888 0 1
14.8062 0 1
14.9235 0 1
15.0408 0 0
15.1581 0 0
15.2755 0 0
15.3927 0 0
15.51 0 0
15.6273 0 0
15.7445 0 0
15.8617 0 0
15.9789 0 0
16.0961 0 0
16.2132 0 0
16.3304 0 0
16.4475 0 0
16.5646 0 0
16.6816 0 0
16.7986 0 0
16.9156 0 0
17.0326 0 0
17.1496 0 0
17.2665 0 0
17.3833 0 0
17.5002 0 0
17.617 0 0
17.7338 0 0
17.8505 0 0
17.9672 0 0
18.0839 0 0
18.2005 0 0
18.3171 0 0
18.4337 0 0
18.5502 0 0
18.6666 0 0
18.7831 0 0
18.8994 0 0
19.0158 0 0
19.1321 0 0
19.2483 0 0
19.3645 0 0
19.4806 0 0
19.5967 0 0
19.7128 0 0
19.8288 0 0
19.9447 0 0
20.0606 0 1
20.1764 0 1
20.2922 0 1
20.4079 0 1
20.5236 0 1
20.6392 0 1
20.7548 0 1
20.8702 0 1
23.3078 0 1
23.4233 0 1
23.539 0 1
23.6547 0 1
23.7704 0 1
23.8862 0 1
24.0021 0 1
24.118 0 1
24.234 0 1
24.35 0 1
24.4661 22198 148.99
24.5822 22525 150.083
24.6984 22080 148.593
24.8146 21817 147.706
24.9309 21355 146.134
25.0472 21275 145.86
25.1636 21212 145.643
25.28 21693 147.285
25.3965 22107 148.684
25.513 22876 151.248
25.6296 23741 154.081
25.7462 24691 157.134
25.8628 24973 158.028
25.9795 25123 158.502
26.0962 25002 158.12
26.213 25350 159.217
26.3298 24069 155.142
26.4466 23283 152.588
26.5635 22474 149.913
26.6804 21781 147.584
26.7973 22439 149.797
26.9143 23039 151.786
27.0313 23441 153.105
27.1483 24211 155.599
27.2653 24529 156.617
27.3824 25181 158.685
27.4996 25234 158.852
27.6167 24867 157.693
27.7339 24365 156.093
27.8511 23971 154.826
27.9683 23533 153.405
28.0855 23253 152.489
28.2028 22616 150.386
28.3201 22154 148.842
28.4374 21607 146.993
28.5547 20772 144.125
28.6721 20627 143.621
28.7894 20647 143.691
28.9068 21179 145.53
29.0242 22046 148.479
29.1416 22373 149.576
29.259 23127 152.076
29.3764 23343 152.784
29.4939 23536 153.414
29.6113 23526 153.382
29.7288 23628 153.714
29.8463 22886 151.281
29.9638 22214 149.044
30.0812 21092 145.231
30.1987 20675 143.788
30.3162 21124 145.341
30.4337 21470 146.526
30.5512 22551 150.17
30.6687 23072 151.895
30.7862 23391 152.941
30.9037 24291 155.856
31.0212 24448 156.359
31.1387 24285 155.836
31.2562 24187 155.522
31.3737 23812 154.311
31.4912 23505 153.313
31.6087 22977 151.582
31.7262 22884 151.275
31.8436 22059 148.523
31.9611 21416 146.342
32.0785 20879 144.496
32.1959 20208 142.155
32.3134 20440 142.969
32.4308 20912 144.61
32.5482 21485 146.578
32.6655 22254 149.178
32.7829 23023 151.733
32.9002 23163 152.194
33.0176 23196 152.302
33.1349 23431 153.072
33.2522 23097 151.977
33.3694 23359 152.837
33.4867 23107 152.01
33.6039 22291 149.302
33.7211 21200 145.602
33.8383 20700 143.875
33.9554 20986 144.865
34.0725 21347 146.106
34.1896 22147 148.819
34.3067 22861 151.199
34.4237 23169 152.214
34.5407 23837 154.392
34.6577 23803 154.282
34.7746 23926 154.68
34.8915 24083 155.187
35.0084 23675 153.867
35.1252 23578 153.551
35.242 22925 151.41
35.3587 22455 149.85
35.4755 22378 149.593
35.5921 21988 148.284
35.7088 21196 145.588
35.8254 20456 143.024
35.9419 19757 140.56
36.0584 20049 141.594
36.1749 20370 142.724
36.2913 21070 145.155
36.4077 21593 146.946
36.524 22322 149.405
36.6403 22479 149.93
36.7565 22937 151.45
36.8727 22950 151.493
36.9889 23202 152.322
37.1049 22401 149.67
37.221 0 1
37.3369 0 1
37.4529 0 1
37.5687 0 1
37.6845 0 1
37.8003 0 1
37.916 0 1
38.0316 0 1
38.1472 0 1
40.5851 0 1
40.7008 0 1
40.8164 0 1
40.9322 0 1
41.048 0 1
41.1639 0 1
41.2798 0 1
41.3958 0 1
41.5118 0 1
41.6279 0 1
41.744 17907 133.817
41.8602 18913 137.525
41.9765 19079 138.127
42.0928 19641 140.146
42.2091 19590 139.964
42.3255 19179 138.488
42.4419 18243 135.067
42.5584 17560 132.514
42.675 17015 130.442
42.7915 17739 133.188
42.9081 18447 135.82
43.0248 19113 138.25
43.1415 19188 138.521
43.2582 19694 140.335
43.375 20052 141.605
43.4918 20389 142.79
43.6087 19713 140.403
43.7256 19839 140.851
43.8425 19475 139.553
43.9595 19280 138.852
44.0765 18746 136.916
44.1935 18398 135.639
44.3106 17846 133.589
44.4277 16962 130.238
44.5448 15960 126.333
44.6619 15222 123.377
44.7791 15184 123.223
44.8963 15451 124.302
45.0136 15629 125.016
45.1308 15944 126.27
45.2481 16563 128.697
45.3654 16610 128.88
45.4827 17066 130.637
45.6001 16550 128.647
45.7174 16654 129.05
45.8348 16500 128.452
45.9522 15719 125.375
46.0697 14622 120.921
46.1871 14043 118.503
46.3046 14014 118.381
46.422 14375 119.896
46.5395 15138 123.037
46.657 15514 124.555
46.7745 15681 125.224
46.892 15879 126.012
47.0096 16005 126.511
47.1271 16123 126.976
47.2446 15839 125.853
47.3622 15618 124.972
47.4797 15174 123.183
47.5973 15005 122.495
47.7149 14341 119.754
47.8324 13782 117.397
47.95 13467 116.047
48.0675 13048 114.228
48.1851 11831 108.77
48.3027 11510 107.285
48.4202 11687 108.106
48.5378 11944 109.289
48.6554 12396 111.337
48.7729 12797 113.124
48.8904 13020 114.105
49.008 13467 116.047
49.1255 13438 115.922
49.243 13477 116.09
49.3605 13070 114.324
49.478 12328 111.032
49.5955 11705 108.19
49.713 11699 108.162
49.8304 11471 107.103
49.9479 12399 111.351
50.0653 13316 115.395
50.1827 13761 117.307
50.3001 14313 119.637
50.4175 14769 121.528
50.5348 15232 123.418
50.6521 15640 125.06
50.7694 16092 126.854
50.8867 15979 126.408
51.004 16167 127.15
51.1212 16424 128.156
51.2384 16138 127.035
51.3556 16069 126.764
51.4727 15758 125.531
51.5899 15311 123.738
51.707 14747 121.437
51.824 14594 120.806
51.9411 15276 123.596
52.0581 15879 126.012
52.175 16483 128.386
52.2919 17588 132.62
52.4088 17998 134.157
52.5257 18436 135.779
52.6425 18478 135.934
52.7593 19054 138.036
52.876 19177 138.481
52.9927 18711 136.788
53.1094 18097 134.525
53.226 17498 132.28
53.3426 17028 130.491
53.4591 17410 131.947
53.5756 18702 136.755
53.692 19946 141.23
53.8084 21053 145.097
53.9248 21629 147.068
54.0411 22304 149.345
54.1573 22973 151.568
54.2735 0 1
54.3896 0 1
54.5057 0 1
54.6217 0 1
54.7377 0 1
54.8537 0 1
54.9695 0 1
55.0853 0 1
55.2011 0 1
55.3168 0 1
55.4324 0 1
57.824 0 1
57.9396 0 1
58.0553 0 1
58.1711 0 1
58.2869 0 1
58.4028 0 1
58.5187 0 1
58.6347 0 1
58.7508 0 1
58.8669 0 1
58.983 24273 155.798
59.0992 25514 159.731
59.2155 26372 162.395
59.3318 26753 163.563
59.4482 27181 164.867
59.5646 27124 164.694
59.681 27049 164.466
59.7975 26452 162.641
59.9141 25839 160.745
60.0306 25096 158.417
60.1473 24140 155.371
60.2639 22782 150.937
60.3807 21461 146.496
60.4974 20927 144.662
60.6142 20809 144.253
60.731 21215 145.654
60.8479 21839 147.78
60.9648 22318 149.392
61.0818 23047 151.812
61.1987 23411 153.007
61.3158 23773 154.185
61.4328 23115 152.036
61.5499 22522 150.073
61.667 21650 147.139
61.7841 20540 143.318
61.9013 20002 141.428
62.0185 20122 141.852
62.1357 20955 144.758
62.253 21868 147.878
62.3702 22956 151.512
62.4875 23567 153.515
62.6049 23892 154.57
62.7222 25086 158.386
62.8396 24789 157.445
62.9569 25221 158.811
63.0743 24980 158.051
63.1918 24936 157.911
63.3092 24478 156.454
63.4267 23585 153.574
63.5441 22784 150.944
63.6616 21925 148.071
63.7791 20588 143.485
63.8966 19344 139.083
64.0142 18853 137.306
64.1317 18325 135.37
64.2492 18918 137.543
64.3668 19539 139.782
64.4843 20581 143.461
64.6019 21141 145.399
64.7195 21264 145.822
64.837 21614 147.017
64.9546 21160 145.465
65.0722 20559 143.384
65.1898 19785 140.659
65.3074 19241 138.712
65.4249 18337 135.414
65.5425 18058 134.38
65.6601 18317 135.34
65.7777 19727 140.453
65.8952 20419 142.895
66.0128 21774 147.56
66.1304 22421 149.736
66.2479 22921 151.397
66.3655 23077 151.911
66.483 23504 153.31
66.6005 23611 153.659
66.718 23675 153.867
66.8355 23415 153.02
66.953 23033 151.766
67.0705 22300 149.332
67.1879 21252 145.781
67.3054 20678 143.798
67.4228 19084 138.145
67.5402 17952 133.985
67.6576 17644 132.831
67.7749 17570 132.552
67.8923 18012 134.209
68.0096 19051 138.025
68.1269 19938 141.202
68.2442 20791 144.191
68.3614 21580 146.901
68.4787 21911 148.024
68.5958 21364 146.164
68.713 21457 146.482
68.8302 20648 143.694
68.9473 19430 139.392
69.0643 18619 136.451
69.1814 18410 135.683
69.2984 19198 138.557
69.4154 20203 142.137
69.5323 21361 146.154
69.6492 22667 150.556
69.7661 23851 154.438
69.8829 24865 157.686
69.9997 24831 157.579
70.1165 25821 160.689
70.2332 25881 160.876
70.3499 25912 160.972
70.4665 25624 160.075
70.5831 25114 158.474
70.6996 24454 156.378
70.8161 23449 153.131
70.9326 22552 150.173
71.049 20969 144.807
71.1653 19651 140.182
71.2817 18292 135.248
71.3979 17940 133.94
71.5141 18254 135.107
71.6303 18520 136.088
71.7464 18081 134.466
71.8624 0 1
71.9784 0 1
72.0944 0 1
72.2102 0 1
72.3261 0 1
72.4418 0 1
72.5575 0 1
72.6732 0 1
75.1054 0 1
75.2209 0 1
75.3365 0 1
75.4521 0 1
75.5678 0 1
75.6835 0 1
75.7993 0 1
75.9151 0 1
76.031 0 1
76.147 21390 146.253
76.263 22502 150.007
76.3791 22079 148.59
76.4952 20541 143.321
76.6113 19218 138.629
76.7276 18984 137.782
76.8438 19234 138.687
76.9601 19978 141.344
77.0765 21199 145.599
77.1929 22974 151.572
77.3093 23602 153.629
77.4258 23961 154.793
77.5423 23677 153.873
77.6589 23636 153.74
77.7755 22486 149.953
77.8921 21345 146.099
78.0088 19986 141.372
78.1256 18991 137.808
78.2423 18547 136.187
78.3591 18917 137.539
78.4759 20422 142.906
78.5928 21886 147.939
78.7097 23070 151.888
78.8266 23756 154.13
78.9436 24841 157.61
79.0606 25195 158.729
79.1776 25743 160.446
79.2946 25860 160.81
79.4117 25154 158.6
79.5288 25089 158.395
79.6459 24586 156.799
79.7631 23404 152.984
79.8802 22379 149.596
79.9974 21665 147.19
80.1147 20188 142.084
80.2319 18242 135.063
80.3491 17598 132.657
80.4664 17776 133.327
80.5837 18126 134.633
80.701 19314 138.975
80.8183 20765 144.101
80.9357 21244 145.753
81.053 21644 147.119
81.1704 21568 146.86
81.2877 21868 147.878
81.4051 20623 143.607
81.5225 20174 142.035
81.6399 18093 134.51
81.7573 17417 131.973
81.8747 16807 129.642
81.9922 16707 129.256
82.1096 18153 134.733
82.227 19611 140.039
82.3444 20333 142.594
82.4619 21532 146.738
82.5793 22232 149.104
82.6967 22151 148.832
82.8142 22533 150.11
82.9316 22362 149.539
83.049 22411 149.703
83.1664 21778 147.574
83.2838 21182 145.54
83.4012 20184 142.07
83.5186 19521 139.718
83.636 18858 137.324
83.7534 17711 133.083
83.8708 15943 126.266
83.9881 15225 123.39
84.1055 15363 123.948
84.2228 15674 125.196
84.3401 17116 130.828
84.4575 18303 135.289
84.5747 19468 139.528
84.692 19679 140.282
84.8093 20124 141.859
84.9265 19745 140.517
85.0437 19050 138.022
85.1609 17782 133.349
85.2781 16740 129.383
85.3952 16191 127.244
85.5123 16086 126.831
85.6294 16776 129.522
85.7465 18291 135.244
85.8636 19828 140.812
85.9806 21179 145.53
86.0976 22121 148.731
86.2145 23235 152.43
86.3315 23870 154.499
86.4484 24741 157.293
86.5652 24537 156.643
86.682 24619 156.904
86.7988 24366 156.096
86.9156 23914 154.642
87.0323 22937 151.45
87.149 22389 149.63
87.2657 21574 146.881
87.3823 20303 142.489
87.4988 18940 137.623
87.6154 18331 135.392
87.7318 18938 137.615
87.8483 20164 142
87.9647 22023 148.401
88.081 23410 153.003
88.1973 24271 155.792
88.3136 24512 156.563
88.4298 24764 157.366
88.546 24008 154.945
88.6621 22704 150.678
88.7781 21133 145.372
88.8942 0 1
89.0101 0 1
89.126 0 1
89.2419 0 1
89.3577 0 1
89.4734 0 1
89.5891 0 1
89.7047 0 1
89.8203 0 1
89.9358 0 1
92.3269 0 1
92.4424 0 1
92.558 0 1
92.6736 0 1
92.7893 0 1
92.905 0 1
93.0208 0 1
93.1366 0 1
93.2525 0 1
93.3685 0 1
93.4845 0 1
93.6005 35016 187.126
93.7167 36630 191.39
93.8328 38035 195.026
93.949 38305 195.717
94.0653 38277 195.645
94.1816 37620 193.959
94.2979 36327 190.596
94.4143 35326 187.952
94.5307 35397 188.141
94.6472 36368 190.704
94.7637 38698 196.718
94.8803 42485 206.119
94.9969 45713 213.806
95.1135 48538 220.313
95.2302 50594 224.931
95.3469 51942 227.908
95.4637 53334 230.942
95.5805 54309 233.043
95.6973 56144 236.947
95.8142 56800 238.328
95.9311 56230 237.129
96.048 55711 236.032
96.1649 54039 232.463
96.2819 53200 230.651
96.3989 50871 225.546
96.516 48515 220.261
96.633 45044 212.236
96.7501 43714 209.079
96.8673 44134 210.081
96.9844 46869 216.492
97.1016 49992 223.589
97.2188 54143 232.686
97.336 56161 236.983
97.4532 56910 238.558
97.5704 55883 236.396
97.6877 54457 233.36
97.805 51947 227.919
97.9223 48131 219.388
98.0396 45058 212.269
98.1569 42654 206.528
98.2743 42524 206.213
98.3916 43697 209.038
98.509 47409 217.736
98.6264 50153 223.949
98.7438 52497 229.122
98.8612 54445 233.335
98.9786 55998 236.639
99.096 56880 238.495
99.2134 57635 240.073
99.3308 57796 240.408
99.4482 57364 239.508
99.5656 56791 238.309
99.6831 56244 237.158
99.8005 54133 232.665
99.9179 52594 229.334
100.035 49983 223.569
100.153 46821 216.382
100.27 44211 210.264
100.388 43465 208.483
100.505 45155 212.497
100.622 48380 219.955
100.74 51550 227.046
100.857 53873 232.106
100.975 54431 233.305
101.092 53909 232.183
101.209 52698 229.56
101.327 51455 226.837
101.444 48233 219.62
101.561 44167 210.159
101.679 41078 202.677
101.796 38874 197.165
101.913 38618 196.515
102.03 41089 202.704
102.148 43879 209.473
102.265 48494 220.214
102.382 43896 209.514
102.499 47871 218.794
102.616 48092 219.299
102.733 48005 219.1
102.851 47090 217.002
102.968 46205 214.953
103.085 45017 212.172
103.202 42651 206.521
103.319 40928 202.307
103.436 38508 196.235
103.552 36313 190.56
103.669 33631 183.388
103.786 30258 173.948
103.903 28950 170.147
104.02 29210 170.909
104.137 30008 173.228
104.253 32019 178.939
104.37 31364 177.099
104.487 32658 180.715
104.603 31325 176.989
104.72 30512 174.677
104.836 29162 170.769
104.953 27278 165.161
105.069 25533 159.79
105.186 24320 155.949
105.302 23076 151.908
105.418 23569 153.522
105.535 25013 158.155
105.651 26942 164.14
105.767 28668 169.316
105.883 29658 172.215
105.999 30689 175.183
106.115 0 1
106.231 0 1
106.347 0 1
106.463 0 1
106.579 0 1
106.694 0 1
106.81 0 1
106.926 0 1
107.041 0 1
107.157 0 1
109.576 0 1
109.692 0 1
109.807 0 1
109.923 0 1
110.039 0 1
110.155 0 1
110.27 0 1
110.386 0 1
110.502 0 1
110.618 23673 153.86
110.735 25890 160.904
110.851 27133 164.721
110.967 28429 168.609
111.083 29261 171.058
111.199 29967 173.11
111.316 30024 173.274
111.432 30357 174.233
111.549 30087 173.456
111.665 29549 171.898
111.782 28796 169.694
111.898 28208 167.952
112.015 26912 164.049
112.132 25597 159.991
112.248 23870 154.499
112.365 22645 150.483
112.482 22511 150.037
112.599 22686 150.619
112.716 24103 155.251
112.832 25475 159.609
112.949 26738 163.518
113.066 26699 163.398
113.183 26326 162.253
113.3 25860 160.81
113.417 25306 159.079
113.534 23923 154.671
113.652 23189 152.279
113.769 21981 148.26
113.886 21716 147.363
114.003 22181 148.933
114.12 23602 153.629
114.238 25652 160.162
114.355 27024 164.39
114.472 29479 171.694
114.589 27339 165.345
114.707 29493 171.735
114.824 29776 172.557
114.942 30168 173.689
115.059 30241 173.899
115.176 30088 173.459
115.294 29439 171.578
115.411 28638 169.228
115.529 27682 166.379
115.646 26894 163.994
115.764 25613 160.041
115.881 24068 155.139
115.999 22890 151.294
116.116 23139 152.115
116.234 24378 156.135
116.351 25821 160.689
116.469 26892 163.988
116.586 27400 165.529
116.704 27529 165.919
116.821 27159 164.8
116.939 26657 163.27
117.056 25675 160.234
117.174 24920 157.861
117.291 23664 153.831
117.409 23016 151.71
117.526 22723 150.742
117.644 23429 153.065
117.761 25367 159.27
117.879 27233 165.024
117.996 28266 168.125
118.114 29362 171.353
118.231 30103 173.502
118.349 30615 174.971
118.466 30539 174.754
118.584 30753 175.365
118.701 31102 176.358
118.819 30358 174.235
118.936 29718 172.389
119.053 28764 169.6
119.171 27911 167.066
119.288 26902 164.018
119.405 25688 160.275
119.523 24165 155.451
119.64 23276 152.565
119.757 23490 153.264
119.875 24631 156.943
119.992 25921 161
120.109 26769 163.612
120.226 26965 164.21
120.343 27092 164.596
120.46 27215 164.97
120.578 26846 163.847
120.695 26226 161.944
120.812 25193 158.723
120.929 24117 155.296
121.046 23945 154.742
121.163 23516 153.349
121.279 23501 153.3
121.396 25154 158.6
121.513 26519 162.847
121.63 27858 166.907
121.747 29251 171.029
121.863 29586 172.006
121.98 30124 173.563
122.097 30875 175.713
122.213 30640 175.043
122.33 30785 175.457
122.446 30522 174.705
122.563 29491 171.729
122.679 28979 170.232
122.795 28588 169.08
122.912 27633 166.232
123.028 26988 164.28
123.144 25147 158.578
123.26 23870 154.499
123.377 0 1
123.493 0 1
123.609 0 1
123.725 0 1
123.84 0 1
123.956 0 1
124.072 0 1
124.188 0 1
124.303 0 1
124.419 0 1
126.852 0 1
126.968 0 1
127.083 0 1
127.199 0 1
127.315 0 1
127.431 0 1
127.547 0 1
127.663 0 1
127.779 0 1
127.895 0 1
128.011 0 1
128.127 0 1
128.243 0 1
128.359 28254 168.089
128.476 26972 164.232
128.592 25673 160.228
128.708 26230 161.957
128.825 26877 163.942
128.941 28571 169.03
129.058 29751 172.485
129.174 29815 172.67
129.291 30019 173.26
129.408 29344 171.301
129.524 29341 171.292
129.641 28528 168.902
129.758 27564 166.024
129.875 26656 163.267
129.992 25712 160.35
130.108 25385 159.327
130.225 25627 160.084
130.342 27051 164.472
130.459 27866 166.931
130.576 30372 174.276
130.693 30389 174.324
130.81 30985 176.026
130.928 31210 176.664
131.045 31650 177.904
131.162 31657 177.924
131.279 31852 178.471
131.396 31835 178.424
131.513 31009 176.094
131.631 30698 175.208
131.748 30212 173.816
131.865 28539 168.935
131.983 27564 166.024
132.1 26379 162.416
132.217 25855 160.795
132.335 26649 163.245
132.452 27557 166.003
132.57 28911 170.032
132.687 28596 169.104
132.804 30187 173.744
132.922 29595 172.032
133.039 28973 170.215
133.157 29107 170.608
133.274 27604 166.145
133.392 26895 163.997
133.509 26058 161.425
133.627 25582 159.944
133.744 25424 159.449
133.862 25986 161.202
133.979 27649 166.28
134.097 28944 170.129
134.214 29894 172.899
134.332 29883 172.867
134.449 30786 175.459
134.567 30932 175.875
134.684 31343 177.04
134.802 31468 177.392
134.919 31405 177.215
135.037 31159 176.519
135.154 30754 175.368
135.272 30149 173.635
135.389 29532 171.849
135.507 28393 168.502
135.624 26969 164.222
135.742 26230 161.957
135.859 26361 162.361
135.977 26624 163.169
136.094 28525 168.893
136.211 29153 170.742
136.329 29468 171.662
136.446 29664 172.232
136.564 29389 171.432
136.681 29339 171.286
136.798 28811 169.738
136.915 27741 166.556
137.033 26529 162.877
137.15 25977 161.174
137.267 25560 159.875
137.384 25307 159.082
137.502 26514 162.831
137.619 27484 165.783
137.736 28338 168.339
137.853 28834 169.806
137.97 29671 172.253
138.087 29662 172.227
138.204 30556 174.803
138.321 30808 175.522
138.438 31059 176.236
138.555 31771 178.244
138.672 31487 177.446
138.788 31171 176.553
138.905 30576 174.86
139.022 29915 172.96
139.139 29068 170.493
139.255 27693 166.412
139.372 26782 163.652
139.488 26992 164.292
139.605 27964 167.224
139.721 28596 169.104
139.838 29767 172.531
139.954 30211 173.813
140.071 29937 173.023
140.187 29860 172.8
140.303 29575 171.974
140.419 28660 169.293
140.535 28052 167.487
140.652 26673 163.319
140.768 0 1
140.884 0 1
141 0 1
141.115 0 1
141.231 0 1
141.347 0 1
141.463 0 1
141.578 0 1
141.694 0 1
144.104 0 1
144.219 0 1
144.335 0 1
144.45 0 1
144.566 0 1
144.682 0 1
144.798 0 1
144.914 0 1
145.03 0 1
145.146 27278 165.161
145.262 27151 164.776
145.378 26889 163.979
145.494 26364 162.37
145.61 25509 159.715
145.726 24966 158.006
145.842 24234 155.673
145.959 23777 154.198
146.075 23972 154.829
146.192 25001 158.117
146.308 26212 161.901
146.425 26585 163.049
146.541 27260 165.106
146.658 27668 166.337
146.774 27909 167.06
146.891 28415 168.567
147.008 28587 169.077
147.125 29226 170.956
147.241 29492 171.732
147.358 28867 169.903
147.475 28575 169.041
147.592 27738 166.547
147.709 27321 165.291
147.826 26265 162.065
147.943 25500 159.687
148.06 24614 156.888
148.177 25377 159.302
148.294 26252 162.025
148.411 27331 165.321
148.528 28145 167.765
148.645 27958 167.206
148.762 28115 167.675
148.88 27825 166.808
148.997 27069 164.527
149.114 27785 166.688
149.231 26568 162.997
149.349 25468 159.587
149.466 24575 156.764
149.583 24388 156.167
149.701 24025 155
149.818 25043 158.25
149.935 26097 161.546
150.053 26525 162.865
150.17 27139 164.739
150.287 27851 166.886
150.405 28208 167.952
150.522 28698 169.405
150.64 29312 171.207
150.757 29722 172.401
150.875 29860 172.8
150.992 29411 171.496
151.11 28982 170.241
151.227 28873 169.921
151.344 28216 167.976
151.462 27091 164.593
151.579 26217 161.917
151.697 25532 159.787
151.814 26134 161.66
151.932 26703 163.411
152.049 27893 167.012
152.167 28641 169.237
152.284 29052 170.446
152.402 28749 169.555
152.519 28857 169.873
152.636 28543 168.947
152.754 27644 166.265
152.871 26829 163.796
152.989 26409 162.508
153.106 25184 158.695
153.223 24962 157.994
153.341 24920 157.861
153.458 25795 160.608
153.575 26998 164.311
153.693 26926 164.091
153.81 28194 167.911
153.927 28331 168.318
154.044 29222 170.944
154.162 29526 171.831
154.279 30029 173.289
154.396 30701 175.217
154.513 30945 175.912
154.63 30589 174.897
154.747 30308 174.092
154.864 29893 172.896
154.981 29550 171.901
155.098 28881 169.944
155.215 27242 165.052
155.332 26577 163.025
155.449 27376 165.457
155.566 27853 166.892
155.683 28790 169.676
155.8 29412 171.499
155.917 29566 171.948
156.033 29318 171.225
156.15 0 1
156.267 0 1
156.383 0 1
156.5 0 1
156.617 0 1
156.733 0 1
156.85 0 1
156.966 0 1
157.082 0 1
157.199 0 1
157.315 0 1
157.431 0 1
157.547 0 1
157.664 0 1
157.78 0 1
157.896 0 1
158.012 0 1
158.128 0 1
158.244 0 1
158.359 0 1
158.475 0 1
158.591 0 1
158.706 0 1
