
6.15755 0 1
6.2731 0 1
6.3887 0 1
6.50437 0 1
6.62009 0 1
6.73587 0 1
6.8517 0 1
6.96759 0 1
7.08353 0 1
7.19952 0 1
7.31557 0 1
7.43166 0 1
7.54781 0 1
7.664 0 1
7.78024 0 1
7.89653 0 1
8.01286 0 1
8.12924 0 1
8.24567 0 1
8.36213 0 1
8.47864 0 1
8.59519 0 1
8.71178 0 1
8.82841 0 1
8.94508 0 1
9.06179 0 1
9.17853 0 1
9.29531 0 1
9.41212 0 1
9.52897 0 1
9.64584 0 1
9.76276 0 1
9.8797 0 1
9.99667 0 1
10.1137 0 1
10.2307 0 1
10.3478 0 1
10.4648 0 1
10.5819 0 1
10.6991 0 1
10.8162 0 1
10.9334 0 1
11.0506 0 1
11.1678 0 1
11.285 0 1
11.4023 0 1
11.5196 0 1
11.6369 0 1
11.7542 0 1
11.8715 0 1
11.9888 0 1
12.1062 0 1
12.2235 0 1
12.3409 0 1
12.4582 0 1
12.5756 0 1
12.693 0 1
12.8104 0 1
12.9278 0 1
13.0452 0 1
13.1626 0 1
13.28 0 1
13.3974 0 1
13.5149 0 1
13.6323 0 1
13.7497 0 1
13.8671 0 1
13.9845 0 1
14.1019 0 1
14.2193 0 1
14.3367 0 1
14.4541 0 1
14.5714 0 1
14.6888 0 1
14.8062 0 1
14.9235 0 1
15.0408 0 0
15.1581 0 0
15.2755 0 0
15.3927 0 0
15.51 0 0
15.6273 0 0
15.7445 0 0
15.8617 0 0
15.9789 0 0
16.0961 0 0
16.2132 0 0
16.3304 0 0
16.4475 0 0
16.5646 0 0
16.6816 0 0
16.7986 0 0
16.9156 0 0
17.0326 0 0
17.1496 0 0
17.2665 0 0
17.3833 0 0
17.5002 0 0
17.617 0 0
17.7338 0 0
17.8505 0 0
17.9672 0 0
18.0839 0 0
18.2005 0 0
18.3171 0 0
18.4337 0 0
18.5502 0 0
18.6666 0 0
18.7831 0 0
18.8994 0 0
19.0158 0 0
19.1321 0 0
19.2483 0 0
19.3645 0 0
19.4806 0 0
19.5967 0 0
19.7128 0 0
19.8288 0 0
19.9447 0 0
20.0606 0 1
20.1764 0 1
20.2922 0 1
20.4079 0 1
20.5236 0 1
20.6392 0 1
20.7548 0 1
20.8702 0 1
23.3078 0 1
23.4233 0 1
23.539 0 1
23.6547 0 1
23.7704 0 1
23.8862 0 1
24.0021 0 1
24.118 0 1
24.234 0 1
24.35 0 1
24.4661 12771 113.009
24.5822 12768 112.996
24.6984 12793 113.106
24.8146 12459 111.62
24.9309 12283 110.829
25.0472 11957 109.348
25.1636 12040 109.727
25.28 12301 110.91
25.3965 12814 113.199
25.513 13627 116.735
25.6296 14049 118.528
25.7462 14596 120.814
25.8628 14910 122.107
25.9795 15260 123.531
26.0962 15379 124.012
26.213 15249 123.487
26.3298 15125 122.984
26.4466 15232 123.418
26.5635 15264 123.548
26.6804 14768 121.524
26.7973 14805 121.676
26.9143 15067 122.748
27.0313 14890 122.025
27.1483 14869 121.939
27.2653 15116 122.947
27.3824 15634 125.036
27.4996 15530 124.619
27.6167 15013 122.528
27.7339 14899 122.061
27.8511 14493 120.387
27.9683 14313 119.637
28.0855 13852 117.695
28.2028 13244 115.083
28.3201 12990 113.974
28.4374 12614 112.312
28.5547 12379 111.261
28.6721 11895 109.064
28.7894 12115 110.068
28.9068 12532 111.946
29.0242 12994 113.991
29.1416 13331 115.46
29.259 14085 118.68
29.3764 14381 119.921
29.4939 15050 122.678
29.6113 15210 123.329
29.7288 15308 123.726
29.8463 15301 123.697
29.9638 15633 125.032
30.0812 15401 124.101
30.1987 15144 123.061
30.3162 15095 122.862
30.4337 14796 121.639
30.5512 15234 123.426
30.6687 15509 124.535
30.7862 14997 122.462
30.9037 15897 126.083
31.0212 15953 126.305
31.1387 15624 124.996
31.2562 15397 124.085
31.3737 15096 122.866
31.4912 14883 121.996
31.6087 14504 120.433
31.7262 14318 119.658
31.8436 13991 118.284
31.9611 13177 114.791
32.0785 13021 114.11
32.1959 12820 113.225
32.3134 12682 112.614
32.4308 12898 113.569
32.5482 13501 116.194
32.6655 13742 117.226
32.7829 14267 119.445
32.9002 14766 121.515
33.0176 15168 123.158
33.1349 15634 125.036
33.2522 15195 123.268
33.3694 15666 125.164
33.4867 16052 126.696
33.6039 15944 126.27
33.7211 15519 124.575
33.8383 15693 125.272
33.9554 15410 124.137
34.0725 15059 122.715
34.1896 15133 123.016
34.3067 15298 123.685
34.4237 15438 124.25
34.5407 15452 124.306
34.6577 15904 126.111
34.7746 15783 125.63
34.8915 15512 124.547
35.0084 15150 123.085
35.1252 14783 121.585
35.242 14891 122.029
35.3587 14508 120.449
35.4755 14191 119.126
35.5921 13862 117.737
35.7088 13380 115.672
35.8254 12966 113.868
35.9419 12668 112.552
36.0584 12307 110.937
36.1749 12772 113.013
36.2913 13275 115.217
36.4077 13449 115.97
36.524 13947 118.097
36.6403 14574 120.723
36.7565 15163 123.138
36.8727 15311 123.738
36.9889 15318 123.766
37.1049 15405 124.117
37.221 0 1
37.3369 0 1
37.4529 0 1
37.5687 0 1
37.6845 0 1
37.8003 0 1
37.916 0 1
38.0316 0 1
38.1472 0 1
40.5851 0 1
40.7008 0 1
40.8164 0 1
40.9322 0 1
41.048 0 1
41.1639 0 1
41.2798 0 1
41.3958 0 1
41.5118 0 1
41.6279 0 1
41.744 12594 112.223
41.8602 13708 117.081
41.9765 14115 118.807
42.0928 14352 119.8
42.2091 15053 122.691
42.3255 14728 121.359
42.4419 15026 122.581
42.5584 14621 120.917
42.675 14383 119.929
42.7915 13956 118.136
42.9081 13545 116.383
43.0248 13791 117.435
43.1415 13770 117.346
43.2582 14000 118.322
43.375 14046 118.516
43.4918 14508 120.449
43.6087 14372 119.883
43.7256 14092 118.71
43.8425 13876 117.796
43.9595 13467 116.047
44.0765 13310 115.369
44.1935 12882 113.499
44.3106 12502 111.812
44.4277 12000 109.545
44.5448 11729 108.301
44.6619 10838 104.106
44.7791 10354 101.755
44.8963 10378 101.872
45.0136 10753 103.697
45.1308 10702 103.45
45.2481 11197 105.816
45.3654 11471 107.103
45.4827 12195 110.431
45.6001 12197 110.44
45.7174 12191 110.413
45.8348 12106 110.027
45.9522 12056 109.8
46.0697 11856 108.885
46.1871 11455 107.028
46.3046 11182 105.745
46.422 10723 103.552
46.5395 10679 103.339
46.657 10748 103.673
46.7745 10792 103.885
46.892 11095 105.333
47.0096 11194 105.802
47.1271 11537 107.41
47.2446 11220 105.925
47.3622 11205 105.854
47.4797 10854 104.183
47.5973 10732 103.595
47.7149 10331 101.642
47.8324 10088 100.439
47.95 9757 98.7775
48.0675 9458 97.2522
48.1851 8750 93.5414
48.3027 8508 92.2388
48.4202 8231 90.7249
48.5378 8690 93.2202
48.6554 8516 92.2822
48.7729 9011 94.9263
48.8904 9572 97.8366
49.008 9927 99.6343
49.1255 10330 101.637
49.243 10231 101.148
49.3605 10255 101.267
49.478 10220 101.094
49.5955 10256 101.272
49.713 9741 98.6965
49.8304 9487 97.4012
49.9479 9327 96.5764
50.0653 9717 98.5748
50.1827 9745 98.7168
50.3001 10166 100.827
50.4175 10518 102.557
50.5348 10731 103.591
50.6521 10996 104.862
50.7694 11170 105.688
50.8867 11177 105.721
51.004 11422 106.874
51.1212 11502 107.247
51.2384 11628 107.833
51.3556 11280 106.207
51.4727 11317 106.381
51.5899 10932 104.556
51.707 10415 102.054
51.824 9936 99.6795
51.9411 9705 98.514
52.0581 10051 100.255
52.175 10554 102.733
52.2919 11127 105.485
52.4088 11803 108.642
52.5257 12342 111.095
52.6425 12677 112.592
52.7593 12818 113.217
52.876 13029 114.145
52.9927 12917 113.653
53.1094 13333 115.469
53.226 12968 113.877
53.3426 12520 111.893
53.4591 12345 111.108
53.5756 12327 111.027
53.692 12474 111.687
53.8084 12471 111.674
53.9248 12866 113.428
54.0411 13375 115.65
54.1573 13532 116.327
54.2735 0 1
54.3896 0 1
54.5057 0 1
54.6217 0 1
54.7377 0 1
54.8537 0 1
54.9695 0 1
55.0853 0 1
55.2011 0 1
55.3168 0 1
55.4324 0 1
57.824 0 1
57.9396 0 1
58.0553 0 1
58.1711 0 1
58.2869 0 1
58.4028 0 1
58.5187 0 1
58.6347 0 1
58.7508 0 1
58.8669 0 1
58.983 13968 118.186
59.0992 14987 122.421
59.2155 15329 123.81
59.3318 15793 125.67
59.4482 16241 127.44
59.5646 16263 127.526
59.681 16435 128.199
59.7975 16193 127.252
59.9141 15809 125.734
60.0306 15422 124.185
60.1473 14823 121.75
60.2639 14253 119.386
60.3807 13460 116.017
60.4974 12635 112.406
60.6142 12016 109.618
60.731 12069 109.859
60.8479 12106 110.027
60.9648 13039 114.188
61.0818 13607 116.649
61.1987 14081 118.663
61.3158 14370 119.875
61.4328 14578 120.739
61.5499 14838 121.811
61.667 14475 120.312
61.7841 14122 118.836
61.9013 13780 117.388
62.0185 13314 115.386
62.1357 12950 113.798
62.253 13185 114.826
62.3702 13586 116.559
62.4875 13934 118.042
62.6049 14388 119.95
62.7222 15015 122.536
62.8396 14969 122.348
62.9569 15234 123.426
63.0743 15236 123.434
63.1918 15227 123.398
63.3092 15096 122.866
63.4267 14643 121.008
63.5441 14334 119.725
63.6616 13925 118.004
63.7791 13118 114.534
63.8966 12366 111.203
64.0142 11067 105.2
64.1317 10888 104.346
64.2492 10651 103.204
64.3668 10937 104.58
64.4843 11506 107.266
64.6019 12253 110.693
64.7195 13317 115.399
64.837 13158 114.708
64.9546 13290 115.282
65.0722 13335 115.477
65.1898 13213 114.948
65.3074 13218 114.97
65.4249 12346 111.113
65.5425 11963 109.375
65.6601 11693 108.134
65.7777 12014 109.608
65.8952 12133 110.15
66.0128 12493 111.772
66.1304 13386 115.698
66.2479 13545 116.383
66.3655 13736 117.201
66.483 14387 119.946
66.6005 14454 120.225
66.718 14489 120.37
66.8355 14467 120.279
66.953 14107 118.773
67.0705 14071 118.621
67.1879 13226 115.004
67.3054 12872 113.455
67.4228 12213 110.512
67.5402 11199 105.825
67.6576 10412 102.039
67.7749 9934 99.6695
67.8923 9930 99.6494
68.0096 10495 102.445
68.1269 11141 105.551
68.2442 11989 109.494
68.3614 12822 113.234
68.4787 13060 114.28
68.5958 13116 114.525
68.713 13007 114.048
68.8302 13354 115.56
68.9473 13068 114.315
69.0643 12630 112.383
69.1814 11832 108.775
69.2984 11632 107.852
69.4154 11769 108.485
69.5323 12090 109.955
69.6492 12691 112.654
69.7661 13133 114.599
69.8829 14053 118.545
69.9997 14514 120.474
70.1165 14766 121.515
70.2332 15113 122.935
70.3499 14960 122.311
70.4665 14722 121.334
70.5831 14601 120.835
70.6996 14175 119.059
70.8161 13590 116.576
70.9326 13210 114.935
71.049 12587 112.192
71.1653 11517 107.317
71.2817 10704 103.46
71.3979 9618 98.0714
71.5141 9450 97.2111
71.6303 9290 96.3846
71.7464 9016 94.9526
71.8624 0 1
71.9784 0 1
72.0944 0 1
72.2102 0 1
72.3261 0 1
72.4418 0 1
72.5575 0 1
72.6732 0 1
75.1054 0 1
75.2209 0 1
75.3365 0 1
75.4521 0 1
75.5678 0 1
75.6835 0 1
75.7993 0 1
75.9151 0 1
76.031 0 1
76.147 11712 108.222
76.263 12439 111.53
76.3791 12274 110.788
76.4952 11636 107.87
76.6113 10424 102.098
76.7276 9607 98.0153
76.8438 9462 97.2728
76.9601 9584 97.8979
77.0765 10201 101
77.1929 11386 106.705
77.3093 12550 112.027
77.4258 13063 114.293
77.5423 13138 114.621
77.6589 13125 114.564
77.7755 12794 113.111
77.8921 12816 113.208
78.0088 12295 110.883
78.1256 11402 106.78
78.2423 10766 103.759
78.3591 10404 102
78.4759 10332 101.646
78.5928 11317 106.381
78.7097 12161 110.277
78.8266 12872 113.455
78.9436 13665 116.897
79.0606 14015 118.385
79.1776 13933 118.038
79.2946 14098 118.735
79.4117 14007 118.351
79.5288 14059 118.571
79.6459 14162 119.004
79.7631 13506 116.215
79.8802 12979 113.925
79.9974 12294 110.878
80.1147 11480 107.145
80.2319 10319 101.582
80.3491 9399 96.9484
80.4664 9220 96.0208
80.5837 9398 96.9433
80.701 9859 99.2925
80.8183 10938 104.585
80.9357 11921 109.183
81.053 12370 111.221
81.1704 12233 110.603
81.2877 12311 110.955
81.4051 12137 110.168
81.5225 12260 110.725
81.6399 11408 106.808
81.7573 10958 104.68
81.8747 10006 100.03
81.9922 9649 98.2293
82.1096 9670 98.3362
82.227 10375 101.858
82.3444 11116 105.432
82.4619 11964 109.38
82.5793 12582 112.17
82.6967 12842 113.323
82.8142 13146 114.656
82.9316 13136 114.612
83.049 13235 115.043
83.1664 12834 113.287
83.2838 12690 112.65
83.4012 11993 109.513
83.5186 11594 107.675
83.636 10960 104.69
83.7534 10320 101.587
83.8708 9487 97.4012
83.9881 8505 92.2226
84.1055 8299 91.0988
84.2228 8652 93.0161
84.3401 9129 95.5458
84.4575 10157 100.782
84.5747 11092 105.319
84.692 11630 107.842
84.8093 11894 109.06
84.9265 11768 108.48
85.0437 11544 107.443
85.1609 11242 106.028
85.2781 10316 101.568
85.3952 9708 98.5292
85.5123 9365 96.7729
85.6294 9319 96.535
85.7465 9737 98.6762
85.8636 10981 104.79
85.9806 11772 108.499
86.0976 12462 111.633
86.2145 13470 116.06
86.3315 13660 116.876
86.4484 14349 119.787
86.5652 14376 119.9
86.682 14467 120.279
86.7988 14242 119.34
86.9156 13771 117.35
87.0323 13296 115.308
87.149 12581 112.165
87.2657 12066 109.845
87.3823 11269 106.156
87.4988 10272 101.351
87.6154 9885 99.4233
87.7318 9963 99.8148
87.8483 10635 103.126
87.9647 11496 107.219
88.081 12717 112.77
88.1973 13566 116.473
88.3136 13782 117.397
88.4298 13443 115.944
88.546 13298 115.317
88.6621 12860 113.402
88.7781 12080 109.909
88.8942 0 1
89.0101 0 1
89.126 0 1
89.2419 0 1
89.3577 0 1
89.4734 0 1
89.5891 0 1
89.7047 0 1
89.8203 0 1
89.9358 0 1
92.3269 0 1
92.4424 0 1
92.558 0 1
92.6736 0 1
92.7893 0 1
92.905 0 1
93.0208 0 1
93.1366 0 1
93.2525 0 1
93.3685 0 1
93.4845 0 1
93.6005 13188 114.839
93.7167 13448 115.966
93.8328 13382 115.681
93.949 13318 115.404
94.0653 13121 114.547
94.1816 12431 111.494
94.2979 11938 109.261
94.4143 11154 105.612
94.5307 10716 103.518
94.6472 10569 102.806
94.7637 10787 103.86
94.8803 11701 108.171
94.9969 12607 112.281
95.1135 13942 118.076
95.2302 14732 121.375
95.3469 15102 122.89
95.4637 15157 123.114
95.5805 15686 125.244
95.6973 15703 125.312
95.8142 15711 125.344
95.9311 15473 124.391
96.048 14963 122.323
96.1649 14055 118.554
96.2819 13698 117.038
96.3989 13125 114.564
96.516 12518 111.884
96.633 11592 107.666
96.7501 11027 105.01
96.8673 10885 104.331
96.9844 11543 107.438
97.1016 12049 109.768
97.2188 13174 114.778
97.336 13939 118.064
97.4532 14228 119.281
97.5704 14142 118.92
97.6877 13660 116.876
97.805 13333 115.469
97.9223 12435 111.512
98.0396 11498 107.229
98.1569 10809 103.966
98.2743 10583 102.874
98.3916 10779 103.822
98.509 11840 108.812
98.6264 12716 112.765
98.7438 13909 117.936
98.8612 14787 121.602
98.9786 15196 123.272
99.096 15670 125.18
99.2134 15796 125.682
99.3308 16231 127.401
99.4482 15832 125.825
99.5656 15654 125.116
99.6831 14895 122.045
99.8005 14292 119.549
99.9179 14172 119.046
100.035 13198 114.883
100.153 12471 111.674
100.27 11765 108.467
100.388 11398 106.761
100.505 11886 109.023
100.622 12505 111.826
100.74 13474 116.078
100.857 14143 118.924
100.975 14868 121.934
101.092 14583 120.76
101.209 14580 120.748
101.327 14229 119.285
101.444 13528 116.31
101.561 12587 112.192
101.679 11782 108.545
101.796 10977 104.771
101.913 11083 105.276
102.03 11740 108.351
102.148 13155 114.695
102.265 15487 124.447
102.382 14529 120.536
102.499 16009 126.527
102.616 16309 127.707
102.733 16795 129.596
102.851 17155 130.977
102.968 16854 129.823
103.085 16766 129.484
103.202 16266 127.538
103.319 15734 125.435
103.436 14848 121.852
103.552 14302 119.591
103.669 13477 116.09
103.786 12833 113.283
103.903 12515 111.87
104.02 12869 113.442
104.137 13663 116.889
104.253 14959 122.307
104.37 14924 122.164
104.487 16155 127.102
104.603 15901 126.099
104.72 15703 125.312
104.836 15015 122.536
104.953 14245 119.352
105.069 12876 113.472
105.186 12426 111.472
105.302 11959 109.357
105.418 11934 109.243
105.535 13169 114.756
105.651 14562 120.673
105.767 15959 126.329
105.883 17125 130.863
105.999 17618 132.733
106.115 0 1
106.231 0 1
106.347 0 1
106.463 0 1
106.579 0 1
106.694 0 1
106.81 0 1
106.926 0 1
107.041 0 1
107.157 0 1
109.576 0 1
109.692 0 1
109.807 0 1
109.923 0 1
110.039 0 1
110.155 0 1
110.27 0 1
110.386 0 1
110.502 0 1
110.618 12764 112.978
110.735 14362 119.842
110.851 15722 125.387
110.967 16734 129.36
111.083 17083 130.702
111.199 17130 130.882
111.316 17388 131.864
111.432 17895 133.772
111.549 17407 131.936
111.665 17173 131.046
111.782 16625 128.938
111.898 15878 126.008
112.015 15065 122.74
112.132 14284 119.516
112.248 13556 116.43
112.365 13135 114.608
112.482 13150 114.673
112.599 13569 116.486
112.716 14331 119.712
112.832 14891 122.029
112.949 15041 122.642
113.066 15672 125.188
113.183 15450 124.298
113.3 15018 122.548
113.417 14412 120.05
113.534 13226 115.004
113.652 12314 110.968
113.769 11455 107.028
113.886 11372 106.64
114.003 11271 106.165
114.12 12551 112.031
114.238 14047 118.52
114.355 15327 123.802
114.472 17158 130.989
114.589 15757 125.527
114.707 16640 128.996
114.824 16819 129.688
114.942 17004 130.399
115.059 16932 130.123
115.176 16400 128.062
115.294 16147 127.071
115.411 15388 124.048
115.529 14798 121.647
115.646 14190 119.122
115.764 13572 116.499
115.881 13074 114.342
115.999 13109 114.495
116.116 13118 114.534
116.234 13688 116.996
116.351 14226 119.273
116.469 14393 119.971
116.586 14950 122.27
116.704 14748 121.441
116.821 14495 120.395
116.939 13986 118.262
117.056 13161 114.721
117.174 12264 110.743
117.291 11500 107.238
117.409 11185 105.759
117.526 11084 105.281
117.644 11902 109.096
117.761 13064 114.298
117.879 14385 119.937
117.996 15046 122.662
118.114 15706 125.324
118.231 16034 126.625
118.349 16149 127.079
118.466 16261 127.519
118.584 16074 126.783
118.701 16356 127.891
118.819 15883 126.028
118.936 15234 123.426
119.053 14682 121.169
119.171 14033 118.461
119.288 13593 116.589
119.405 13317 115.399
119.523 12704 112.712
119.64 12730 112.827
119.757 12998 114.009
119.875 13542 116.37
119.992 13613 116.675
120.109 13834 117.618
120.226 13919 117.979
120.343 13960 118.152
120.46 13982 118.246
120.578 13156 114.7
120.695 12661 112.521
120.812 11926 109.206
120.929 11442 106.967
121.046 11057 105.152
121.163 10940 104.594
121.279 11324 106.414
121.396 12411 111.405
121.513 13612 116.67
121.63 14631 120.959
121.747 15398 124.089
121.863 15585 124.84
121.98 15688 125.252
122.097 15671 125.184
122.213 15565 124.76
122.33 15350 123.895
122.446 15138 123.037
122.563 14863 121.914
122.679 14062 118.583
122.795 13992 118.288
122.912 13495 116.168
123.028 13083 114.381
123.144 12790 113.093
123.26 12375 111.243
123.377 0 1
123.493 0 1
123.609 0 1
123.725 0 1
123.84 0 1
123.956 0 1
124.072 0 1
124.188 0 1
124.303 0 1
124.419 0 1
126.852 0 1
126.968 0 1
127.083 0 1
127.199 0 1
127.315 0 1
127.431 0 1
127.547 0 1
127.663 0 1
127.779 0 1
127.895 0 1
128.011 0 1
128.127 0 1
128.243 0 1
128.359 14175 119.059
128.476 13993 118.292
128.592 14212 119.214
128.708 14732 121.375
128.825 14819 121.733
128.941 15053 122.691
129.058 15204 123.305
129.174 15410 124.137
129.291 15400 124.097
129.408 15148 123.077
129.524 14672 121.128
129.641 13891 117.86
129.758 13095 114.433
129.875 12420 111.445
129.992 12041 109.731
130.108 12149 110.223
130.225 12932 113.719
130.342 14018 118.398
130.459 14929 122.184
130.576 16499 128.448
130.693 16267 127.542
130.81 16662 129.081
130.928 16651 129.039
131.045 16689 129.186
131.162 16774 129.514
131.279 16744 129.399
131.396 16939 130.15
131.513 16385 128.004
131.631 15870 125.976
131.748 15904 126.111
131.865 15310 123.734
131.983 14899 122.061
132.1 14738 121.4
132.217 15456 124.322
132.335 15361 123.94
132.452 15441 124.262
132.57 15688 125.252
132.687 15093 122.854
132.804 16130 127.004
132.922 15535 124.639
133.039 15150 123.085
133.157 14578 120.739
133.274 13601 116.623
133.392 13039 114.188
133.509 12521 111.897
133.627 12655 112.494
133.744 12868 113.437
133.862 13740 117.218
133.979 14918 122.139
134.097 15900 126.095
134.214 16415 128.121
134.332 16756 129.445
134.449 16666 129.097
134.567 16582 128.771
134.684 17041 130.541
134.802 17105 130.786
134.919 16847 129.796
135.037 16756 129.445
135.154 16226 127.381
135.272 16101 126.89
135.389 15936 126.238
135.507 15687 125.248
135.624 15388 124.048
135.742 15532 124.627
135.859 15985 126.432
135.977 16063 126.74
136.094 16030 126.61
136.211 15961 126.337
136.329 15944 126.27
136.446 16016 126.554
136.564 15967 126.361
136.681 15302 123.701
136.798 14452 120.216
136.915 13761 117.307
137.033 13024 114.123
137.15 12584 112.178
137.267 12492 111.768
137.384 12841 113.318
137.502 13910 117.941
137.619 15136 123.028
137.736 15723 125.391
137.853 15815 125.758
137.97 16393 128.035
138.087 16387 128.012
138.204 16893 129.973
138.321 16725 129.325
138.438 17137 130.908
138.555 17393 131.883
138.672 17541 132.442
138.788 17303 131.541
138.905 17042 130.545
139.022 16736 129.368
139.139 16399 128.059
139.255 16465 128.316
139.372 16458 128.289
139.488 16657 129.062
139.605 17009 130.419
139.721 17179 131.069
139.838 17316 131.59
139.954 17039 130.534
140.071 16662 129.081
140.187 16829 129.727
140.303 16048 126.681
140.419 15278 123.604
140.535 14460 120.25
140.652 13424 115.862
140.768 0 1
140.884 0 1
141 0 1
141.115 0 1
141.231 0 1
141.347 0 1
141.463 0 1
141.578 0 1
141.694 0 1
144.104 0 1
144.219 0 1
144.335 0 1
144.45 0 1
144.566 0 1
144.682 0 1
144.798 0 1
144.914 0 1
145.03 0 1
145.146 15039 122.634
145.262 15025 122.577
145.378 14308 119.616
145.494 13573 116.503
145.61 13039 114.188
145.726 12556 112.054
145.842 12255 110.702
145.959 12077 109.895
146.075 12574 112.134
146.192 13344 115.516
146.308 14357 119.821
146.425 14377 119.904
146.541 14699 121.239
146.658 15071 122.764
146.774 15152 123.093
146.891 15347 123.883
147.008 15871 125.98
147.125 16046 126.673
147.241 16146 127.067
147.358 16238 127.428
147.475 15516 124.563
147.592 15419 124.173
147.709 15311 123.738
147.826 15201 123.292
147.943 15305 123.713
148.06 15023 122.568
148.177 15150 123.085
148.294 15533 124.631
148.411 15428 124.21
148.528 15327 123.802
148.645 15172 123.175
148.762 15016 122.54
148.88 14644 121.012
148.997 13799 117.469
149.114 13652 116.842
149.231 13111 114.503
149.349 12389 111.306
149.466 11704 108.185
149.583 11628 107.833
149.701 11936 109.252
149.818 13071 114.328
149.935 13370 115.629
150.053 13880 117.813
150.17 14092 118.71
150.287 14364 119.85
150.405 15014 122.532
150.522 15220 123.369
150.64 15145 123.065
150.757 15565 124.76
150.875 15760 125.539
150.992 15568 124.772
151.11 15209 123.325
151.227 15146 123.069
151.344 15010 122.515
151.462 14716 121.31
151.579 15176 123.191
151.697 14895 122.045
151.814 15100 122.882
151.932 15125 122.984
152.049 15132 123.012
152.167 15014 122.532
152.284 15127 122.992
152.402 14754 121.466
152.519 14736 121.392
152.636 13914 117.958
152.754 13232 115.03
152.871 12867 113.433
152.989 12553 112.04
153.106 11972 109.417
153.223 12017 109.622
153.341 12426 111.472
153.458 12961 113.846
153.575 13467 116.047
153.693 14026 118.431
153.81 14180 119.08
153.927 14659 121.074
154.044 15120 122.963
154.162 15259 123.527
154.279 15813 125.75
154.396 16143 127.055
154.513 16062 126.736
154.63 16163 127.134
154.747 16193 127.252
154.864 15878 126.008
154.981 15757 125.527
155.098 15442 124.266
155.215 15273 123.584
155.332 15486 124.443
155.449 15508 124.531
155.566 15573 124.792
155.683 15740 125.459
155.8 15576 124.804
155.917 15358 123.927
156.033 15279 123.608
156.15 0 1
156.267 0 1
156.383 0 1
156.5 0 1
156.617 0 1
156.733 0 1
156.85 0 1
156.966 0 1
157.082 0 1
157.199 0 1
157.315 0 1
157.431 0 1
157.547 0 1
157.664 0 1
157.78 0 1
157.896 0 1
158.012 0 1
158.128 0 1
158.244 0 1
158.359 0 1
158.475 0 1
158.591 0 1
158.706 0 1
