
6.15755 0 1
6.2731 0 1
6.3887 0 1
6.50437 0 1
6.62009 0 1
6.73587 0 1
6.8517 0 1
6.96759 0 1
7.08353 0 1
7.19952 0 1
7.31557 0 1
7.43166 0 1
7.54781 0 1
7.664 0 1
7.78024 0 1
7.89653 0 1
8.01286 0 1
8.12924 0 1
8.24567 0 1
8.36213 0 1
8.47864 0 1
8.59519 0 1
8.71178 0 1
8.82841 0 1
8.94508 0 1
9.06179 0 1
9.17853 0 1
9.29531 0 1
9.41212 0 1
9.52897 0 1
9.64584 0 1
9.76276 0 1
9.8797 0 1
9.99667 0 1
10.1137 0 1
10.2307 0 1
10.3478 0 1
10.4648 0 1
10.5819 0 1
10.6991 0 1
10.8162 0 1
10.9334 0 1
11.0506 0 1
11.1678 0 1
11.285 0 1
11.4023 0 1
11.5196 0 1
11.6369 0 1
11.7542 0 1
11.8715 0 1
11.9888 0 1
12.1062 0 1
12.2235 0 1
12.3409 0 1
12.4582 0 1
12.5756 0 1
12.693 0 1
12.8104 0 1
12.9278 0 1
13.0452 0 1
13.1626 0 1
13.28 0 1
13.3974 0 1
13.5149 0 1
13.6323 0 1
13.7497 0 1
13.8671 0 1
13.9845 0 1
14.1019 0 1
14.2193 0 1
14.3367 0 1
14.4541 0 1
14.5714 0 1
14.6888 0 1
14.8062 0 1
14.9235 0 1
15.0408 1565 39.5601
15.1581 1579 39.7366
15.2755 1700 41.2311
15.3927 1649 40.6079
15.51 1590 39.8748
15.6273 1598 39.975
15.7445 1525 39.0512
15.8617 1452 38.1051
15.9789 1525 39.0512
16.0961 1501 38.7427
16.2132 1475 38.4057
16.3304 1602 40.025
16.4475 1599 39.9875
16.5646 1619 40.2368
16.6816 1713 41.3884
16.7986 1914 43.7493
16.9156 2017 44.911
17.0326 2067 45.4643
17.1496 2107 45.9021
17.2665 2183 46.7226
17.3833 2097 45.793
17.5002 2226 47.1805
17.617 2211 47.0213
17.7338 2185 46.744
17.8505 2296 47.9166
17.9672 2259 47.5289
18.0839 2344 48.4149
18.2005 2251 47.4447
18.3171 2322 48.1871
18.4337 2379 48.775
18.5502 2339 48.3632
18.6666 2336 48.3322
18.7831 2369 48.6724
18.8994 2342 48.3942
19.0158 2261 47.55
19.1321 2311 48.0729
19.2483 2196 46.8615
19.3645 2064 45.4313
19.4806 2187 46.7654
19.5967 1988 44.587
19.7128 1915 43.7607
19.8288 1594 39.9249
19.9447 1357 36.8375
20.0606 0 1
20.1764 0 1
20.2922 0 1
20.4079 0 1
20.5236 0 1
20.6392 0 1
20.7548 0 1
20.8702 0 1
23.3078 0 1
23.4233 0 1
23.539 0 1
23.6547 0 1
23.7704 0 1
23.8862 0 1
24.0021 0 1
24.118 0 1
24.234 0 1
24.35 0 1
24.4661 1967 44.3509
24.5822 2105 45.8803
24.6984 2035 45.111
24.8146 2050 45.2769
24.9309 2042 45.1885
25.0472 1901 43.6005
25.1636 1629 40.3609
25.28 1704 41.2795
25.3965 1750 41.833
25.513 1734 41.6413
25.6296 2060 45.3872
25.7462 2197 46.8722
25.8628 2442 49.4166
25.9795 2362 48.6004
26.0962 2342 48.3942
26.213 2431 49.3052
26.3298 2396 48.949
26.4466 2406 49.051
26.5635 2398 48.9694
26.6804 2373 48.7134
26.7973 2351 48.4871
26.9143 2491 49.9099
27.0313 2348 48.4562
27.1483 2490 49.8999
27.2653 2353 48.5077
27.3824 2412 49.1121
27.4996 2429 49.2849
27.6167 2394 48.9285
27.7339 2340 48.3735
27.8511 2222 47.1381
27.9683 2202 46.9255
28.0855 2207 46.9787
28.2028 2279 47.7389
28.3201 2144 46.3033
28.4374 2071 45.5082
28.5547 1880 43.359
28.6721 1680 40.9878
28.7894 1568 39.598
28.9068 1566 39.5727
29.0242 1684 41.0366
29.1416 1774 42.1189
29.259 1870 43.2435
29.3764 2133 46.1844
29.4939 2328 48.2494
29.6113 2298 47.9375
29.7288 2292 47.8748
29.8463 2311 48.0729
29.9638 2324 48.2079
30.0812 2312 48.0833
30.1987 2334 48.3115
30.3162 2295 47.9062
30.4337 2301 47.9687
30.5512 2310 48.0625
30.6687 2213 47.0425
30.7862 2249 47.4236
30.9037 2206 46.9681
31.0212 2288 47.833
31.1387 2370 48.6826
31.2562 2221 47.1275
31.3737 2261 47.55
31.4912 2214 47.0532
31.6087 2117 46.0109
31.7262 2223 47.1487
31.8436 2064 45.4313
31.9611 2018 44.9222
32.0785 1814 42.5911
32.1959 1629 40.3609
32.3134 1470 38.3406
32.4308 1586 39.8246
32.5482 1625 40.3113
32.6655 1739 41.7013
32.7829 1907 43.6692
32.9002 2082 45.6289
33.0176 2176 46.6476
33.1349 2276 47.7074
33.2522 2242 47.3498
33.3694 2302 47.9792
33.4867 2245 47.3814
33.6039 2257 47.5079
33.7211 2276 47.7074
33.8383 2261 47.55
33.9554 2253 47.4658
34.0725 2226 47.1805
34.1896 2131 46.1628
34.3067 2163 46.5081
34.4237 2145 46.3141
34.5407 2195 46.8508
34.6577 2190 46.7974
34.7746 2170 46.5833
34.8915 2202 46.9255
35.0084 2229 47.2123
35.1252 2141 46.2709
35.242 2043 45.1996
35.3587 2096 45.7821
35.4755 2147 46.3357
35.5921 2053 45.31
35.7088 1974 44.4297
35.8254 1896 43.5431
35.9419 1518 38.9615
36.0584 1538 39.2173
36.1749 1515 38.923
36.2913 1593 39.9124
36.4077 1708 41.328
36.524 1751 41.845
36.6403 1965 44.3283
36.7565 2046 45.2327
36.8727 2206 46.9681
36.9889 2138 46.2385
37.1049 2150 46.3681
37.221 0 1
37.3369 0 1
37.4529 0 1
37.5687 0 1
37.6845 0 1
37.8003 0 1
37.916 0 1
38.0316 0 1
38.1472 0 1
40.5851 0 1
40.7008 0 1
40.8164 0 1
40.9322 0 1
41.048 0 1
41.1639 0 1
41.2798 0 1
41.3958 0 1
41.5118 0 1
41.6279 0 1
41.744 1363 36.9188
41.8602 1588 39.8497
41.9765 1667 40.8289
42.0928 1708 41.328
42.2091 1720 41.4729
42.3255 1741 41.7253
42.4419 1758 41.9285
42.5584 1818 42.638
42.675 1779 42.1782
42.7915 1759 41.9404
42.9081 1696 41.1825
43.0248 1660 40.7431
43.1415 1577 39.7115
43.2582 1592 39.8999
43.375 1702 41.2553
43.4918 1583 39.7869
43.6087 1614 40.1746
43.7256 1630 40.3733
43.8425 1509 38.8458
43.9595 1611 40.1373
44.0765 1499 38.7169
44.1935 1565 39.5601
44.3106 1457 38.1707
44.4277 1420 37.6829
44.5448 1277 35.7351
44.6619 1165 34.1321
44.7791 1057 32.5115
44.8963 1016 31.8748
45.0136 988 31.4325
45.1308 928 30.4631
45.2481 1008 31.749
45.3654 1171 34.2199
45.4827 1260 35.4965
45.6001 1264 35.5528
45.7174 1219 34.9142
45.8348 1263 35.5387
45.9522 1272 35.6651
46.0697 1320 36.3318
46.1871 1303 36.0971
46.3046 1207 34.7419
46.422 1203 34.6843
46.5395 1174 34.2637
46.657 1180 34.3511
46.7745 1101 33.1813
46.892 1166 34.1467
47.0096 1115 33.3916
47.1271 1176 34.2929
47.2446 1210 34.7851
47.3622 1131 33.6303
47.4797 1080 32.8634
47.5973 1124 33.5261
47.7149 1071 32.7261
47.8324 1044 32.311
47.95 1022 31.9687
48.0675 957 30.9354
48.1851 917 30.282
48.3027 754 27.4591
48.4202 714 26.7208
48.5378 677 26.0192
48.6554 719 26.8142
48.7729 773 27.8029
48.8904 846 29.0861
49.008 946 30.7571
49.1255 976 31.241
49.243 961 31
49.3605 972 31.1769
49.478 979 31.289
49.5955 974 31.209
49.713 995 31.5436
49.8304 992 31.496
49.9479 883 29.7153
50.0653 978 31.273
50.1827 935 30.5778
50.3001 951 30.8383
50.4175 1069 32.6956
50.5348 1039 32.2335
50.6521 1073 32.7567
50.7694 1103 33.2114
50.8867 1164 34.1174
51.004 1260 35.4965
51.1212 1189 34.4819
51.2384 1248 35.327
51.3556 1219 34.9142
51.4727 1163 34.1028
51.5899 1248 35.327
51.707 1124 33.5261
51.824 999 31.607
51.9411 971 31.1609
52.0581 962 31.0161
52.175 1068 32.6803
52.2919 1094 33.0757
52.4088 1294 35.9722
52.5257 1419 37.6696
52.6425 1469 38.3275
52.7593 1501 38.7427
52.876 1574 39.6737
52.9927 1579 39.7366
53.1094 1583 39.7869
53.226 1702 41.2553
53.3426 1694 41.1582
53.4591 1598 39.975
53.5756 1538 39.2173
53.692 1555 39.4335
53.8084 1577 39.7115
53.9248 1594 39.9249
54.0411 1689 41.0974
54.1573 1746 41.7852
54.2735 0 1
54.3896 0 1
54.5057 0 1
54.6217 0 1
54.7377 0 1
54.8537 0 1
54.9695 0 1
55.0853 0 1
55.2011 0 1
55.3168 0 1
55.4324 0 1
57.824 0 1
57.9396 0 1
58.0553 0 1
58.1711 0 1
58.2869 0 1
58.4028 0 1
58.5187 0 1
58.6347 0 1
58.7508 0 1
58.8669 0 1
58.983 1636 40.4475
59.0992 1850 43.0116
59.2155 1921 43.8292
59.3318 2017 44.911
59.4482 2062 45.4093
59.5646 2141 46.2709
59.681 2147 46.3357
59.7975 2012 44.8553
59.9141 2047 45.2438
60.0306 1977 44.4635
60.1473 1932 43.9545
60.2639 1833 42.8135
60.3807 1743 41.7493
60.4974 1706 41.3038
60.6142 1570 39.6232
60.731 1616 40.1995
60.8479 1546 39.3192
60.9648 1611 40.1373
61.0818 1593 39.9124
61.1987 1768 42.0476
61.3158 1849 43
61.4328 1846 42.9651
61.5499 1809 42.5323
61.667 1846 42.9651
61.7841 1835 42.8369
61.9013 1777 42.1545
62.0185 1748 41.8091
62.1357 1704 41.2795
62.253 1647 40.5832
62.3702 1725 41.5331
62.4875 1707 41.3159
62.6049 1774 42.1189
62.7222 1872 43.2666
62.8396 1936 44
62.9569 2007 44.7996
63.0743 1837 42.8602
63.1918 2000 44.7214
63.3092 1852 43.0349
63.4267 1756 41.9047
63.5441 1747 41.7971
63.6616 1727 41.5572
63.7791 1650 40.6202
63.8966 1512 38.8844
64.0142 1412 37.5766
64.1317 1467 38.3014
64.2492 1402 37.4433
64.3668 1408 37.5233
64.4843 1479 38.4578
64.6019 1497 38.6911
64.7195 1571 39.6358
64.837 1695 41.1704
64.9546 1613 40.1622
65.0722 1748 41.8091
65.1898 1667 40.8289
65.3074 1718 41.4488
65.4249 1627 40.3361
65.5425 1617 40.2119
65.6601 1569 39.6106
65.7777 1536 39.1918
65.8952 1524 39.0384
66.0128 1555 39.4335
66.1304 1572 39.6485
66.2479 1675 40.9268
66.3655 1684 41.0366
66.483 1769 42.0595
66.6005 1866 43.1972
66.718 1795 42.3674
66.8355 1773 42.107
66.953 1714 41.4005
67.0705 1691 41.1218
67.1879 1678 40.9634
67.3054 1709 41.3401
67.4228 1551 39.3827
67.5402 1558 39.4715
67.6576 1377 37.108
67.7749 1426 37.7624
67.8923 1432 37.8418
68.0096 1385 37.2156
68.1269 1427 37.7757
68.2442 1520 38.9872
68.3614 1614 40.1746
68.4787 1640 40.4969
68.5958 1657 40.7063
68.713 1718 41.4488
68.8302 1696 41.1825
68.9473 1718 41.4488
69.0643 1693 41.1461
69.1814 1639 40.4846
69.2984 1672 40.8901
69.4154 1551 39.3827
69.5323 1583 39.7869
69.6492 1646 40.5709
69.7661 1739 41.7013
69.8829 1818 42.638
69.9997 1949 44.1475
70.1165 1946 44.1135
70.2332 1899 43.5775
70.3499 1948 44.1362
70.4665 1931 43.9431
70.5831 1973 44.4185
70.6996 1917 43.7836
70.8161 1921 43.8292
70.9326 1853 43.0465
71.049 1707 41.3159
71.1653 1626 40.3237
71.2817 1643 40.5339
71.3979 1440 37.9473
71.5141 1418 37.6563
71.6303 1369 37
71.7464 1175 34.2783
71.8624 0 1
71.9784 0 1
72.0944 0 1
72.2102 0 1
72.3261 0 1
72.4418 0 1
72.5575 0 1
72.6732 0 1
75.1054 0 1
75.2209 0 1
75.3365 0 1
75.4521 0 1
75.5678 0 1
75.6835 0 1
75.7993 0 1
75.9151 0 1
76.031 0 1
76.147 1586 39.8246
76.263 1822 42.6849
76.3791 1754 41.8808
76.4952 1769 42.0595
76.6113 1618 40.2244
76.7276 1511 38.8716
76.8438 1534 39.1663
76.9601 1502 38.7556
77.0765 1556 39.4462
77.1929 1727 41.5572
77.3093 1781 42.2019
77.4258 1867 43.2088
77.5423 1894 43.5201
77.6589 1829 42.7668
77.7755 1995 44.6654
77.8921 1917 43.7836
78.0088 1787 42.2729
78.1256 1675 40.9268
78.2423 1615 40.1871
78.3591 1464 38.2623
78.4759 1385 37.2156
78.5928 1512 38.8844
78.7097 1614 40.1746
78.8266 1733 41.6293
78.9436 1887 43.4396
79.0606 1979 44.486
79.1776 1887 43.4396
79.2946 1861 43.1393
79.4117 1863 43.1625
79.5288 1895 43.5316
79.6459 1857 43.0929
79.7631 1815 42.6028
79.8802 1760 41.9524
79.9974 1689 41.0974
80.1147 1629 40.3609
80.2319 1520 38.9872
80.3491 1410 37.55
80.4664 1329 36.4555
80.5837 1421 37.6962
80.701 1425 37.7492
80.8183 1522 39.0128
80.9357 1613 40.1622
81.053 1602 40.025
81.1704 1700 41.2311
81.2877 1673 40.9023
81.4051 1691 41.1218
81.5225 1647 40.5832
81.6399 1598 39.975
81.7573 1490 38.6005
81.8747 1344 36.6606
81.9922 1324 36.3868
82.1096 1273 35.6791
82.227 1337 36.565
82.3444 1433 37.855
82.4619 1539 39.2301
82.5793 1644 40.5463
82.6967 1679 40.9756
82.8142 1650 40.6202
82.9316 1680 40.9878
83.049 1653 40.6571
83.1664 1615 40.1871
83.2838 1567 39.5854
83.4012 1522 39.0128
83.5186 1467 38.3014
83.636 1395 37.3497
83.7534 1307 36.1525
83.8708 1285 35.8469
83.9881 1216 34.8712
84.1055 1165 34.1321
84.2228 1223 34.9714
84.3401 1257 35.4542
84.4575 1325 36.4005
84.5747 1363 36.9188
84.692 1490 38.6005
84.8093 1577 39.7115
84.9265 1467 38.3014
85.0437 1485 38.5357
85.1609 1482 38.4968
85.2781 1454 38.1314
85.3952 1293 35.9583
85.5123 1231 35.0856
85.6294 1199 34.6266
85.7465 1295 35.9861
85.8636 1338 36.5787
85.9806 1478 38.4448
86.0976 1565 39.5601
86.2145 1718 41.4488
86.3315 1841 42.9069
86.4484 1789 42.2966
86.5652 1819 42.6497
86.682 1811 42.5558
86.7988 1732 41.6173
86.9156 1772 42.0951
87.0323 1835 42.8369
87.149 1700 41.2311
87.2657 1678 40.9634
87.3823 1635 40.4351
87.4988 1545 39.3065
87.6154 1529 39.1024
87.7318 1465 38.2753
87.8483 1637 40.4599
87.9647 1693 41.1461
88.081 1722 41.497
88.1973 1825 42.72
88.3136 1796 42.3792
88.4298 1815 42.6028
88.546 1854 43.0581
88.6621 1838 42.8719
88.7781 1833 42.8135
88.8942 0 1
89.0101 0 1
89.126 0 1
89.2419 0 1
89.3577 0 1
89.4734 0 1
89.5891 0 1
89.7047 0 1
89.8203 0 1
89.9358 0 1
92.3269 0 1
92.4424 0 1
92.558 0 1
92.6736 0 1
92.7893 0 1
92.905 0 1
93.0208 0 1
93.1366 0 1
93.2525 0 1
93.3685 0 1
93.4845 0 1
93.6005 1763 41.9881
93.7167 1902 43.6119
93.8328 1785 42.2493
93.949 1840 42.8952
94.0653 1865 43.1856
94.1816 1897 43.5546
94.2979 1667 40.8289
94.4143 1562 39.5221
94.5307 1471 38.3536
94.6472 1332 36.4966
94.7637 1324 36.3868
94.8803 1518 38.9615
94.9969 1756 41.9047
95.1135 1822 42.6849
95.2302 1903 43.6234
95.3469 1962 44.2945
95.4637 2017 44.911
95.5805 2008 44.8107
95.6973 2018 44.9222
95.8142 1965 44.3283
95.9311 2000 44.7214
96.048 1911 43.715
96.1649 1889 43.4626
96.2819 1777 42.1545
96.3989 1786 42.2611
96.516 1709 41.3401
96.633 1646 40.5709
96.7501 1595 39.9375
96.8673 1636 40.4475
96.9844 1700 41.2311
97.1016 1764 42
97.2188 1737 41.6773
97.336 1908 43.6807
97.4532 1885 43.4166
97.5704 1899 43.5775
97.6877 1873 43.2782
97.805 1743 41.7493
97.9223 1705 41.2916
98.0396 1518 38.9615
98.1569 1419 37.6696
98.2743 1289 35.9026
98.3916 1265 35.5668
98.509 1389 37.2693
98.6264 1581 39.7618
98.7438 1739 41.7013
98.8612 1931 43.9431
98.9786 1851 43.0232
99.096 1879 43.3474
99.2134 2030 45.0555
99.3308 2007 44.7996
99.4482 1998 44.699
99.5656 1898 43.566
99.6831 1895 43.5316
99.8005 1923 43.852
99.9179 1798 42.4028
100.035 1732 41.6173
100.153 1690 41.1096
100.27 1618 40.2244
100.388 1565 39.5601
100.505 1655 40.6817
100.622 1730 41.5933
100.74 1795 42.3674
100.857 1851 43.0232
100.975 1819 42.6497
101.092 1851 43.0232
101.209 1857 43.0929
101.327 1801 42.4382
101.444 1713 41.3884
101.561 1679 40.9756
101.679 1493 38.6394
101.796 1373 37.054
101.913 1259 35.4824
102.03 1309 36.1801
102.148 1562 39.5221
102.265 1772 42.0951
102.382 1982 44.5197
102.499 2016 44.8999
102.616 1989 44.5982
102.733 2096 45.7821
102.851 2095 45.7712
102.968 2099 45.8148
103.085 2125 46.0977
103.202 2057 45.3542
103.319 1995 44.6654
103.436 1954 44.2041
103.552 1934 43.9773
103.669 1788 42.2847
103.786 1845 42.9535
103.903 1792 42.332
104.02 1826 42.7317
104.137 1924 43.8634
104.253 1902 43.6119
104.37 1986 44.5646
104.487 2054 45.3211
104.603 2137 46.2277
104.72 2046 45.2327
104.836 2104 45.8694
104.953 1915 43.7607
105.069 1776 42.1426
105.186 1493 38.6394
105.302 1364 36.9324
105.418 1411 37.5633
105.535 1557 39.4588
105.651 1853 43.0465
105.767 2152 46.3897
105.883 2261 47.55
105.999 2266 47.6025
106.115 0 1
106.231 0 1
106.347 0 1
106.463 0 1
106.579 0 1
106.694 0 1
106.81 0 1
106.926 0 1
107.041 0 1
107.157 0 1
109.576 0 1
109.692 0 1
109.807 0 1
109.923 0 1
110.039 0 1
110.155 0 1
110.27 0 1
110.386 0 1
110.502 0 1
110.618 1554 39.4208
110.735 1853 43.0465
110.851 1977 44.4635
110.967 2142 46.2817
111.083 2210 47.0106
111.199 2226 47.1805
111.316 2381 48.7955
111.432 2276 47.7074
111.549 2229 47.2123
111.665 2240 47.3286
111.782 2120 46.0435
111.898 2045 45.2217
112.015 1928 43.909
112.132 1877 43.3244
112.248 1978 44.4747
112.365 1888 43.4511
112.482 1900 43.589
112.599 1932 43.9545
112.716 1903 43.6234
112.832 1954 44.2041
112.949 1967 44.3509
113.066 2002 44.7437
113.183 2004 44.7661
113.3 1989 44.5982
113.417 2026 45.0111
113.534 1926 43.8862
113.652 1743 41.7493
113.769 1534 39.1663
113.886 1386 37.229
114.003 1302 36.0832
114.12 1449 38.0657
114.238 1721 41.4849
114.355 1976 44.4522
114.472 2136 46.2169
114.589 2172 46.6047
114.707 2267 47.613
114.824 2174 46.6262
114.942 2313 48.0937
115.059 2284 47.7912
115.176 2284 47.7912
115.294 2204 46.9468
115.411 2187 46.7654
115.529 2126 46.1086
115.646 2095 45.7712
115.764 2170 46.5833
115.881 2135 46.2061
115.999 2044 45.2106
116.116 2080 45.607
116.234 2171 46.594
116.351 2102 45.8476
116.469 2087 45.6837
116.586 2154 46.4112
116.704 2196 46.8615
116.821 2212 47.0319
116.939 2138 46.2385
117.056 2074 45.5412
117.174 1912 43.7264
117.291 1695 41.1704
117.409 1530 39.1152
117.526 1385 37.2156
117.644 1449 38.0657
117.761 1700 41.2311
117.879 1948 44.1362
117.996 2113 45.9674
118.114 2312 48.0833
118.231 2273 47.676
118.349 2332 48.2908
118.466 2335 48.3218
118.584 2357 48.5489
118.701 2324 48.2079
118.819 2357 48.5489
118.936 2275 47.697
119.053 2171 46.594
119.171 2175 46.6369
119.288 2166 46.5403
119.405 2106 45.8912
119.523 2109 45.9239
119.64 2103 45.8585
119.757 2045 45.2217
119.875 2136 46.2169
119.992 2098 45.8039
120.109 2090 45.7165
120.226 2118 46.0217
120.343 2066 45.4533
120.46 2190 46.7974
120.578 2120 46.0435
120.695 2057 45.3542
120.812 2003 44.7549
120.929 1787 42.2729
121.046 1526 39.064
121.163 1441 37.9605
121.279 1404 37.47
121.396 1499 38.7169
121.513 1746 41.7852
121.63 2145 46.3141
121.747 2156 46.4327
121.863 2238 47.3075
121.98 2322 48.1871
122.097 2283 47.7807
122.213 2337 48.3425
122.33 2330 48.2701
122.446 2226 47.1805
122.563 2306 48.0208
122.679 2119 46.0326
122.795 2120 46.0435
122.912 2118 46.0217
123.028 2159 46.465
123.144 1996 44.6766
123.26 2119 46.0326
123.377 0 1
123.493 0 1
123.609 0 1
123.725 0 1
123.84 0 1
123.956 0 1
124.072 0 1
124.188 0 1
124.303 0 1
124.419 0 1
126.852 0 1
126.968 0 1
127.083 0 1
127.199 0 1
127.315 0 1
127.431 0 1
127.547 0 1
127.663 0 1
127.779 0 1
127.895 0 1
128.011 0 1
128.127 0 1
128.243 0 1
128.359 2367 48.6518
128.476 2339 48.3632
128.592 2300 47.9583
128.708 2329 48.2597
128.825 2299 47.9479
128.941 2389 48.8774
129.058 2324 48.2079
129.174 2315 48.1144
129.291 2267 47.613
129.408 2394 48.9285
129.524 2264 47.5815
129.641 2294 47.8957
129.758 2121 46.0543
129.875 1940 44.0454
129.992 1757 41.9166
130.108 1550 39.37
130.225 1571 39.6358
130.342 1678 40.9634
130.459 1989 44.5982
130.576 2278 47.7284
130.693 2412 49.1121
130.81 2519 50.1896
130.928 2580 50.7937
131.045 2512 50.1199
131.162 2581 50.8035
131.279 2607 51.0588
131.396 2608 51.0686
131.513 2602 51.0098
131.631 2474 49.7393
131.748 2394 48.9285
131.865 2571 50.705
131.983 2509 50.0899
132.1 2434 49.3356
132.217 2571 50.705
132.335 2443 49.4267
132.452 2524 50.2394
132.57 2421 49.2037
132.687 2479 49.7896
132.804 2492 49.9199
132.922 2456 49.558
133.039 2451 49.5076
133.157 2421 49.2037
133.274 2245 47.3814
133.392 1934 43.9773
133.509 1725 41.5331
133.627 1610 40.1248
133.744 1494 38.6523
133.862 1489 38.5876
133.979 1839 42.8836
134.097 2181 46.7012
134.214 2254 47.4763
134.332 2478 49.7795
134.449 2452 49.5177
134.567 2501 50.01
134.684 2487 49.8698
134.802 2575 50.7445
134.919 2426 49.2544
135.037 2501 50.01
135.154 2439 49.3862
135.272 2441 49.4065
135.389 2433 49.3254
135.507 2596 50.951
135.624 2528 50.2792
135.742 2512 50.1199
135.859 2483 49.8297
135.977 2584 50.8331
136.094 2384 48.8262
136.211 2379 48.775
136.329 2501 50.01
136.446 2447 49.4672
136.564 2495 49.95
136.681 2347 48.4458
136.798 2411 49.1019
136.915 2201 46.9148
137.033 1945 44.1022
137.15 1677 40.9512
137.267 1523 39.0256
137.384 1471 38.3536
137.502 1607 40.0874
137.619 1775 42.1307
137.736 2036 45.1221
137.853 2218 47.0956
137.97 2367 48.6518
138.087 2404 49.0306
138.204 2438 49.3761
138.321 2527 50.2693
138.438 2508 50.0799
138.555 2552 50.5173
138.672 2537 50.3686
138.788 2508 50.0799
138.905 2506 50.06
139.022 2592 50.9117
139.139 2464 49.6387
139.255 2461 49.6085
139.372 2468 49.679
139.488 2503 50.03
139.605 2541 50.4083
139.721 2520 50.1996
139.838 2567 50.6656
139.954 2506 50.06
140.071 2470 49.6991
140.187 2570 50.6952
140.303 2418 49.1732
140.419 2415 49.1426
140.535 2214 47.0532
140.652 1974 44.4297
140.768 0 1
140.884 0 1
141 0 1
141.115 0 1
141.231 0 1
141.347 0 1
141.463 0 1
141.578 0 1
141.694 0 1
144.104 0 1
144.219 0 1
144.335 0 1
144.45 0 1
144.566 0 1
144.682 0 1
144.798 0 1
144.914 0 1
145.03 0 1
145.146 1669 40.8534
145.262 1878 43.3359
145.378 1863 43.1625
145.494 1836 42.8486
145.61 1852 43.0349
145.726 1722 41.497
145.842 1505 38.7943
145.959 1395 37.3497
146.075 1304 36.1109
146.192 1248 35.327
146.308 1295 35.9861
146.425 1317 36.2905
146.541 1438 37.921
146.658 1602 40.025
146.774 1757 41.9166
146.891 1846 42.9651
147.008 1957 44.238
147.125 1975 44.441
147.241 2118 46.0217
147.358 2074 45.5412
147.475 2123 46.076
147.592 2112 45.9565
147.709 2051 45.288
147.826 2210 47.0106
147.943 2179 46.6798
148.06 2226 47.1805
148.177 2133 46.1844
148.294 2103 45.8585
148.411 2146 46.3249
148.528 2116 46
148.645 2093 45.7493
148.762 2083 45.6399
148.88 2107 45.9021
148.997 2100 45.8258
149.114 2200 46.9042
149.231 2145 46.3141
149.349 2043 45.1996
149.466 2068 45.4753
149.583 1819 42.6497
149.701 1741 41.7253
149.818 1521 39
149.935 1419 37.6696
150.053 1278 35.7491
150.17 1382 37.1753
150.287 1453 38.1182
150.405 1589 39.8623
150.522 1776 42.1426
150.64 1915 43.7607
150.757 2004 44.7661
150.875 2122 46.0652
150.992 2173 46.6154
151.11 2146 46.3249
151.227 2246 47.392
151.344 2194 46.8402
151.462 2154 46.4112
151.579 2254 47.4763
151.697 2261 47.55
151.814 2189 46.7868
151.932 2262 47.5605
152.049 2182 46.7119
152.167 2253 47.4658
152.284 2213 47.0425
152.402 2189 46.7868
152.519 2113 45.9674
152.636 2161 46.4866
152.754 2187 46.7654
152.871 2189 46.7868
152.989 2157 46.4435
153.106 2071 45.5082
153.223 1823 42.6966
153.341 1707 41.3159
153.458 1505 38.7943
153.575 1492 38.6264
153.693 1406 37.4967
153.81 1500 38.7298
153.927 1568 39.598
154.044 1795 42.3674
154.162 1904 43.6348
154.279 2107 45.9021
154.396 2136 46.2169
154.513 2218 47.0956
154.63 2238 47.3075
154.747 2299 47.9479
154.864 2328 48.2494
154.981 2348 48.4562
155.098 2307 48.0312
155.215 2359 48.5695
155.332 2312 48.0833
155.449 2317 48.1352
155.566 2300 47.9583
155.683 2209 47
155.8 2319 48.156
155.917 2385 48.8365
156.033 2300 47.9583
156.15 0 1
156.267 0 1
156.383 0 1
156.5 0 1
156.617 0 1
156.733 0 1
156.85 0 1
156.966 0 1
157.082 0 1
157.199 0 1
157.315 0 1
157.431 0 1
157.547 0 1
157.664 0 1
157.78 0 1
157.896 0 1
158.012 0 1
158.128 0 1
158.244 0 1
158.359 0 1
158.475 0 1
158.591 0 1
158.706 0 1
