
6.15755 0 1
6.2731 0 1
6.3887 0 1
6.50437 0 1
6.62009 0 1
6.73587 0 1
6.8517 0 1
6.96759 0 1
7.08353 0 1
7.19952 0 1
7.31557 0 1
7.43166 0 1
7.54781 0 1
7.664 0 1
7.78024 0 1
7.89653 0 1
8.01286 0 1
8.12924 0 1
8.24567 0 1
8.36213 0 1
8.47864 0 1
8.59519 0 1
8.71178 0 1
8.82841 0 1
8.94508 0 1
9.06179 0 1
9.17853 0 1
9.29531 0 1
9.41212 0 1
9.52897 0 1
9.64584 0 1
9.76276 0 1
9.8797 0 1
9.99667 0 1
10.1137 0 1
10.2307 0 1
10.3478 0 1
10.4648 0 1
10.5819 0 1
10.6991 0 1
10.8162 0 1
10.9334 0 1
11.0506 0 1
11.1678 0 1
11.285 0 1
11.4023 0 1
11.5196 0 1
11.6369 0 1
11.7542 0 1
11.8715 0 1
11.9888 0 1
12.1062 0 1
12.2235 0 1
12.3409 0 1
12.4582 0 1
12.5756 0 1
12.693 0 1
12.8104 0 1
12.9278 0 1
13.0452 0 1
13.1626 0 1
13.28 0 1
13.3974 0 1
13.5149 0 1
13.6323 0 1
13.7497 0 1
13.8671 0 1
13.9845 0 1
14.1019 0 1
14.2193 0 1
14.3367 0 1
14.4541 0 1
14.5714 0 1
14.6888 0 1
14.8062 0 1
14.9235 0 1
15.0408 0 0
15.1581 0 0
15.2755 0 0
15.3927 0 0
15.51 0 0
15.6273 0 0
15.7445 0 0
15.8617 0 0
15.9789 0 0
16.0961 0 0
16.2132 0 0
16.3304 0 0
16.4475 0 0
16.5646 0 0
16.6816 0 0
16.7986 0 0
16.9156 0 0
17.0326 0 0
17.1496 0 0
17.2665 0 0
17.3833 0 0
17.5002 0 0
17.617 0 0
17.7338 0 0
17.8505 0 0
17.9672 0 0
18.0839 0 0
18.2005 0 0
18.3171 0 0
18.4337 0 0
18.5502 0 0
18.6666 0 0
18.7831 0 0
18.8994 0 0
19.0158 0 0
19.1321 0 0
19.2483 0 0
19.3645 0 0
19.4806 0 0
19.5967 0 0
19.7128 0 0
19.8288 0 0
19.9447 0 0
20.0606 0 1
20.1764 0 1
20.2922 0 1
20.4079 0 1
20.5236 0 1
20.6392 0 1
20.7548 0 1
20.8702 0 1
23.3078 0 1
23.4233 0 1
23.539 0 1
23.6547 0 1
23.7704 0 1
23.8862 0 1
24.0021 0 1
24.118 0 1
24.234 0 1
24.35 0 1
24.4661 1318 36.3043
24.5822 1304 36.1109
24.6984 1368 36.9865
24.8146 1322 36.3593
24.9309 1354 36.7967
25.0472 1324 36.3868
25.1636 1352 36.7696
25.28 1437 37.9078
25.3965 1421 37.6962
25.513 1474 38.3927
25.6296 1474 38.3927
25.7462 1456 38.1576
25.8628 1444 38
25.9795 1495 38.6652
26.0962 1458 38.1838
26.213 1485 38.5357
26.3298 1405 37.4833
26.4466 1443 37.9868
26.5635 1448 38.0526
26.6804 1382 37.1753
26.7973 1271 35.6511
26.9143 1272 35.6651
27.0313 1245 35.2846
27.1483 1311 36.2077
27.2653 1315 36.2629
27.3824 1286 35.8608
27.4996 1337 36.565
27.6167 1332 36.4966
27.7339 1301 36.0694
27.8511 1211 34.7994
27.9683 1235 35.1426
28.0855 1218 34.8999
28.2028 1292 35.9444
28.3201 1252 35.3836
28.4374 1312 36.2215
28.5547 1247 35.3129
28.6721 1326 36.4143
28.7894 1341 36.6197
28.9068 1383 37.1887
29.0242 1413 37.5899
29.1416 1373 37.054
29.259 1374 37.0675
29.3764 1417 37.6431
29.4939 1392 37.3095
29.6113 1432 37.8418
29.7288 1352 36.7696
29.8463 1386 37.229
29.9638 1319 36.318
30.0812 1329 36.4555
30.1987 1294 35.9722
30.3162 1289 35.9026
30.4337 1166 34.1467
30.5512 1179 34.3366
30.6687 1195 34.5688
30.7862 1176 34.2929
30.9037 1246 35.2987
31.0212 1244 35.2704
31.1387 1233 35.1141
31.2562 1193 34.5398
31.3737 1201 34.6554
31.4912 1180 34.3511
31.6087 1150 33.9116
31.7262 1235 35.1426
31.8436 1226 35.0143
31.9611 1212 34.8138
32.0785 1290 35.9166
32.1959 1270 35.6371
32.3134 1375 37.081
32.4308 1328 36.4417
32.5482 1309 36.1801
32.6655 1352 36.7696
32.7829 1300 36.0555
32.9002 1319 36.318
33.0176 1310 36.1939
33.1349 1327 36.428
33.2522 1311 36.2077
33.3694 1289 35.9026
33.4867 1318 36.3043
33.6039 1337 36.565
33.7211 1340 36.606
33.8383 1326 36.4143
33.9554 1332 36.4966
34.0725 1163 34.1028
34.1896 1163 34.1028
34.3067 1194 34.5543
34.4237 1111 33.3317
34.5407 1156 34
34.6577 1254 35.4119
34.7746 1184 34.4093
34.8915 1126 33.5559
35.0084 1109 33.3017
35.1252 1234 35.1283
35.242 1104 33.2265
35.3587 1174 34.2637
35.4755 1201 34.6554
35.5921 1143 33.8083
35.7088 1214 34.8425
35.8254 1271 35.6511
35.9419 1260 35.4965
36.0584 1268 35.609
36.1749 1243 35.2562
36.2913 1282 35.805
36.4077 1294 35.9722
36.524 1283 35.819
36.6403 1309 36.1801
36.7565 1231 35.0856
36.8727 1290 35.9166
36.9889 1256 35.4401
37.1049 1250 35.3553
37.221 0 1
37.3369 0 1
37.4529 0 1
37.5687 0 1
37.6845 0 1
37.8003 0 1
37.916 0 1
38.0316 0 1
38.1472 0 1
40.5851 0 1
40.7008 0 1
40.8164 0 1
40.9322 0 1
41.048 0 1
41.1639 0 1
41.2798 0 1
41.3958 0 1
41.5118 0 1
41.6279 0 1
41.744 1026 32.0312
41.8602 1100 33.1662
41.9765 1005 31.7017
42.0928 1056 32.4962
42.2091 1046 32.3419
42.3255 1065 32.6343
42.4419 1103 33.2114
42.5584 1141 33.7787
42.675 1043 32.2955
42.7915 1069 32.6956
42.9081 964 31.0483
43.0248 934 30.5614
43.1415 877 29.6142
43.2582 966 31.0805
43.375 962 31.0161
43.4918 1046 32.3419
43.6087 931 30.5123
43.7256 945 30.7409
43.8425 992 31.496
43.9595 896 29.9333
44.0765 882 29.6985
44.1935 961 31
44.3106 959 30.9677
44.4277 985 31.3847
44.5448 1030 32.0936
44.6619 935 30.5778
44.7791 953 30.8707
44.8963 1019 31.9218
45.0136 963 31.0322
45.1308 921 30.348
45.2481 996 31.5595
45.3654 905 30.0832
45.4827 947 30.7734
45.6001 857 29.2746
45.7174 892 29.8664
45.8348 863 29.3769
45.9522 857 29.2746
46.0697 847 29.1033
46.1871 852 29.189
46.3046 898 29.9666
46.422 861 29.3428
46.5395 759 27.55
46.657 754 27.4591
46.7745 679 26.0576
46.892 711 26.6646
47.0096 722 26.8701
47.1271 741 27.2213
47.2446 773 27.8029
47.3622 660 25.6905
47.4797 712 26.6833
47.5973 707 26.5895
47.7149 640 25.2982
47.8324 724 26.9072
47.95 710 26.6458
48.0675 727 26.9629
48.1851 669 25.865
48.3027 743 27.258
48.4202 701 26.4764
48.5378 722 26.8701
48.6554 651 25.5147
48.7729 718 26.7955
48.8904 710 26.6458
49.008 736 27.1293
49.1255 765 27.6586
49.243 737 27.1477
49.3605 734 27.0924
49.478 737 27.1477
49.5955 729 27
49.713 725 26.9258
49.8304 775 27.8388
49.9479 795 28.1957
50.0653 763 27.6225
50.1827 654 25.5734
50.3001 670 25.8844
50.4175 666 25.807
50.5348 646 25.4165
50.6521 738 27.1662
50.7694 759 27.55
50.8867 767 27.6948
51.004 751 27.4044
51.1212 761 27.5862
51.2384 822 28.6705
51.3556 815 28.5482
51.4727 858 29.2916
51.5899 849 29.1376
51.707 903 30.05
51.824 885 29.7489
51.9411 888 29.7993
52.0581 950 30.8221
52.175 914 30.2324
52.2919 896 29.9333
52.4088 930 30.4959
52.5257 985 31.3847
52.6425 983 31.3528
52.7593 874 29.5635
52.876 946 30.7571
52.9927 958 30.9516
53.1094 1036 32.187
53.226 934 30.5614
53.3426 992 31.496
53.4591 1074 32.7719
53.5756 972 31.1769
53.692 966 31.0805
53.8084 934 30.5614
53.9248 884 29.7321
54.0411 776 27.8568
54.1573 841 29
54.2735 0 1
54.3896 0 1
54.5057 0 1
54.6217 0 1
54.7377 0 1
54.8537 0 1
54.9695 0 1
55.0853 0 1
55.2011 0 1
55.3168 0 1
55.4324 0 1
57.824 0 1
57.9396 0 1
58.0553 0 1
58.1711 0 1
58.2869 0 1
58.4028 0 1
58.5187 0 1
58.6347 0 1
58.7508 0 1
58.8669 0 1
58.983 1014 31.8434
59.0992 942 30.692
59.2155 934 30.5614
59.3318 897 29.95
59.4482 959 30.9677
59.5646 1059 32.5423
59.681 999 31.607
59.7975 1004 31.686
59.9141 983 31.3528
60.0306 1086 32.9545
60.1473 1062 32.5883
60.2639 1097 33.121
60.3807 1059 32.5423
60.4974 1125 33.541
60.6142 1055 32.4808
60.731 995 31.5436
60.8479 1071 32.7261
60.9648 1045 32.3265
61.0818 1057 32.5115
61.1987 1020 31.9374
61.3158 997 31.5753
61.4328 1044 32.311
61.5499 984 31.3688
61.667 1033 32.1403
61.7841 916 30.2655
61.9013 981 31.3209
62.0185 974 31.209
62.1357 985 31.3847
62.253 982 31.3369
62.3702 959 30.9677
62.4875 936 30.5941
62.6049 793 28.1603
62.7222 862 29.3598
62.8396 799 28.2666
62.9569 861 29.3428
63.0743 835 28.8964
63.1918 847 29.1033
63.3092 894 29.8998
63.4267 926 30.4302
63.5441 956 30.9192
63.6616 929 30.4795
63.7791 922 30.3645
63.8966 896 29.9333
64.0142 920 30.3315
64.1317 913 30.2159
64.2492 860 29.3258
64.3668 898 29.9666
64.4843 907 30.1164
64.6019 865 29.4109
64.7195 869 29.4788
64.837 880 29.6648
64.9546 891 29.8496
65.0722 851 29.1719
65.1898 841 29
65.3074 902 30.0333
65.4249 830 28.8097
65.5425 826 28.7402
65.6601 876 29.5973
65.7777 880 29.6648
65.8952 814 28.5307
66.0128 849 29.1376
66.1304 756 27.4955
66.2479 764 27.6405
66.3655 692 26.3059
66.483 736 27.1293
66.6005 772 27.7849
66.718 793 28.1603
66.8355 789 28.0891
66.953 739 27.1846
67.0705 810 28.4605
67.1879 761 27.5862
67.3054 811 28.4781
67.4228 812 28.4956
67.5402 795 28.1957
67.6576 851 29.1719
67.7749 782 27.9643
67.8923 823 28.688
68.0096 783 27.9821
68.1269 789 28.0891
68.2442 767 27.6948
68.3614 777 27.8747
68.4787 773 27.8029
68.5958 812 28.4956
68.713 814 28.5307
68.8302 761 27.5862
68.9473 775 27.8388
69.0643 832 28.8444
69.1814 832 28.8444
69.2984 731 27.037
69.4154 797 28.2312
69.5323 777 27.8747
69.6492 792 28.1425
69.7661 785 28.0179
69.8829 715 26.7395
69.9997 656 25.6125
70.1165 632 25.1396
70.2332 694 26.3439
70.3499 719 26.8142
70.4665 647 25.4362
70.5831 716 26.7582
70.6996 725 26.9258
70.8161 748 27.3496
70.9326 727 26.9629
71.049 705 26.5518
71.1653 669 25.865
71.2817 730 27.0185
71.3979 733 27.074
71.5141 659 25.671
71.6303 655 25.593
71.7464 572 23.9165
71.8624 0 1
71.9784 0 1
72.0944 0 1
72.2102 0 1
72.3261 0 1
72.4418 0 1
72.5575 0 1
72.6732 0 1
75.1054 0 1
75.2209 0 1
75.3365 0 1
75.4521 0 1
75.5678 0 1
75.6835 0 1
75.7993 0 1
75.9151 0 1
76.031 0 1
76.147 500 22.3607
76.263 519 22.7816
76.3791 567 23.8118
76.4952 601 24.5153
76.6113 601 24.5153
76.7276 592 24.3311
76.8438 559 23.6432
76.9601 505 22.4722
77.0765 531 23.0434
77.1929 584 24.1661
77.3093 550 23.4521
77.4258 544 23.3238
77.5423 522 22.8473
77.6589 481 21.9317
77.7755 518 22.7596
77.8921 484 22
78.0088 501 22.383
78.1256 490 22.1359
78.2423 529 23
78.3591 481 21.9317
78.4759 463 21.5174
78.5928 436 20.8806
78.7097 448 21.166
78.8266 490 22.1359
78.9436 398 19.9499
79.0606 399 19.975
79.1776 324 18
79.2946 315 17.7482
79.4117 333 18.2483
79.5288 410 20.2485
79.6459 371 19.2614
79.7631 367 19.1572
79.8802 373 19.3132
79.9974 377 19.4165
80.1147 359 18.9473
80.2319 362 19.0263
80.3491 303 17.4069
80.4664 352 18.7617
80.5837 348 18.6548
80.701 332 18.2209
80.8183 302 17.3781
80.9357 311 17.6352
81.053 307 17.5214
81.1704 319 17.8606
81.2877 295 17.1756
81.4051 283 16.8226
81.5225 304 17.4356
81.6399 267 16.3401
81.7573 258 16.0624
81.8747 226 15.0333
81.9922 249 15.7797
82.1096 261 16.1555
82.227 247 15.7162
82.3444 209 14.4568
82.4619 209 14.4568
82.5793 217 14.7309
82.6967 167 12.9228
82.8142 184 13.5647
82.9316 166 12.8841
83.049 143 11.9583
83.1664 173 13.1529
83.2838 171 13.0767
83.4012 148 12.1655
83.5186 169 13
83.636 135 11.619
83.7534 143 11.9583
83.8708 138 11.7473
83.9881 116 10.7703
84.1055 137 11.7047
84.2228 120 10.9545
84.3401 125 11.1803
84.4575 112 10.583
84.5747 105 10.247
84.692 126 11.225
84.8093 97 9.84886
84.9265 103 10.1489
85.0437 92 9.59166
85.1609 92 9.59166
85.2781 102 10.0995
85.3952 100 10
85.5123 88 9.38083
85.6294 79 8.88819
85.7465 113 10.6301
85.8636 115 10.7238
85.9806 82 9.05539
86.0976 71 8.42615
86.2145 72 8.48528
86.3315 74 8.60233
86.4484 109 10.4403
86.5652 129 11.3578
86.682 129 11.3578
86.7988 117 10.8167
86.9156 132 11.4891
87.0323 126 11.225
87.149 140 11.8322
87.2657 162 12.7279
87.3823 140 11.8322
87.4988 144 12
87.6154 162 12.7279
87.7318 185 13.6015
87.8483 176 13.2665
87.9647 197 14.0357
88.081 207 14.3875
88.1973 187 13.6748
88.3136 240 15.4919
88.4298 235 15.3297
88.546 248 15.748
88.6621 284 16.8523
88.7781 258 16.0624
88.8942 0 1
89.0101 0 1
89.126 0 1
89.2419 0 1
89.3577 0 1
89.4734 0 1
89.5891 0 1
89.7047 0 1
89.8203 0 1
89.9358 0 1
92.3269 0 1
92.4424 0 1
92.558 0 1
92.6736 0 1
92.7893 0 1
92.905 0 1
93.0208 0 1
93.1366 0 1
93.2525 0 1
93.3685 0 1
93.4845 0 1
93.6005 418 20.445
93.7167 419 20.4695
93.8328 386 19.6469
93.949 365 19.105
94.0653 365 19.105
94.1816 391 19.7737
94.2979 407 20.1742
94.4143 322 17.9444
94.5307 300 17.3205
94.6472 337 18.3576
94.7637 330 18.1659
94.8803 331 18.1934
94.9969 354 18.8149
95.1135 293 17.1172
95.2302 295 17.1756
95.3469 276 16.6132
95.4637 252 15.8745
95.5805 233 15.2643
95.6973 311 17.6352
95.8142 379 19.4679
95.9311 316 17.7764
96.048 336 18.3303
96.1649 370 19.2354
96.2819 394 19.8494
96.3989 402 20.0499
96.516 409 20.2237
96.633 438 20.9284
96.7501 415 20.3715
96.8673 482 21.9545
96.9844 455 21.3307
97.1016 479 21.8861
97.2188 529 23
97.336 508 22.5389
97.4532 477 21.8403
97.5704 508 22.5389
97.6877 485 22.0227
97.805 505 22.4722
97.9223 532 23.0651
98.0396 533 23.0868
98.1569 578 24.0416
98.2743 553 23.516
98.3916 586 24.2074
98.509 608 24.6577
98.6264 590 24.2899
98.7438 603 24.5561
98.8612 550 23.4521
98.9786 511 22.6053
99.096 402 20.0499
99.2134 394 19.8494
99.3308 552 23.4947
99.4482 692 26.3059
99.5656 640 25.2982
99.6831 711 26.6646
99.8005 755 27.4773
99.9179 680 26.0768
100.035 712 26.6833
100.153 729 27
100.27 672 25.923
100.388 718 26.7955
100.505 703 26.5141
100.622 745 27.2947
100.74 740 27.2029
100.857 797 28.2312
100.975 828 28.775
101.092 837 28.931
101.209 757 27.5136
101.327 812 28.4956
101.444 817 28.5832
101.561 810 28.4605
101.679 807 28.4077
101.796 820 28.6356
101.913 790 28.1069
102.03 827 28.7576
102.148 781 27.9464
102.265 846 29.0861
102.382 852 29.189
102.499 761 27.5862
102.616 650 25.4951
102.733 484 22
102.851 667 25.8263
102.968 850 29.1548
103.085 865 29.4109
103.202 839 28.9655
103.319 853 29.2062
103.436 849 29.1376
103.552 858 29.2916
103.669 935 30.5778
103.786 820 28.6356
103.903 874 29.5635
104.02 877 29.6142
104.137 838 28.9482
104.253 878 29.6311
104.37 785 28.0179
104.487 865 29.4109
104.603 848 29.1204
104.72 892 29.8664
104.836 947 30.7734
104.953 906 30.0998
105.069 831 28.8271
105.186 924 30.3974
105.302 910 30.1662
105.418 817 28.5832
105.535 924 30.3974
105.651 933 30.545
105.767 795 28.1957
105.883 783 27.9821
105.999 756 27.4955
106.115 0 1
106.231 0 1
106.347 0 1
106.463 0 1
106.579 0 1
106.694 0 1
106.81 0 1
106.926 0 1
107.041 0 1
107.157 0 1
109.576 0 1
109.692 0 1
109.807 0 1
109.923 0 1
110.039 0 1
110.155 0 1
110.27 0 1
110.386 0 1
110.502 0 1
110.618 650 25.4951
110.735 676 26
110.851 616 24.8193
110.967 612 24.7386
111.083 661 25.7099
111.199 545 23.3452
111.316 531 23.0434
111.432 615 24.7992
111.549 599 24.4745
111.665 674 25.9615
111.782 638 25.2587
111.898 653 25.5539
112.015 594 24.3721
112.132 608 24.6577
112.248 570 23.8747
112.365 574 23.9583
112.482 566 23.7908
112.599 534 23.1084
112.716 552 23.4947
112.832 582 24.1247
112.949 578 24.0416
113.066 561 23.6854
113.183 548 23.4094
113.3 518 22.7596
113.417 518 22.7596
113.534 532 23.0651
113.652 523 22.8692
113.769 478 21.8632
113.886 518 22.7596
114.003 488 22.0907
114.12 488 22.0907
114.238 491 22.1585
114.355 479 21.8861
114.472 462 21.4942
114.589 476 21.8174
114.707 447 21.1424
114.824 446 21.1187
114.942 369 19.2094
115.059 450 21.2132
115.176 459 21.4243
115.294 473 21.7486
115.411 467 21.6102
115.529 420 20.4939
115.646 462 21.4942
115.764 460 21.4476
115.881 482 21.9545
115.999 445 21.095
116.116 430 20.7364
116.234 395 19.8746
116.351 488 22.0907
116.469 475 21.7945
116.586 466 21.587
116.704 466 21.587
116.821 478 21.8632
116.939 419 20.4695
117.056 436 20.8806
117.174 455 21.3307
117.291 489 22.1133
117.409 437 20.9045
117.526 450 21.2132
117.644 472 21.7256
117.761 411 20.2731
117.879 424 20.5913
117.996 389 19.7231
118.114 345 18.5742
118.231 406 20.1494
118.349 375 19.3649
118.466 460 21.4476
118.584 453 21.2838
118.701 419 20.4695
118.819 451 21.2368
118.936 473 21.7486
119.053 468 21.6333
119.171 453 21.2838
119.288 460 21.4476
119.405 481 21.9317
119.523 465 21.5639
119.64 503 22.4277
119.757 481 21.9317
119.875 491 22.1585
119.992 497 22.2935
120.109 464 21.5407
120.226 474 21.7715
120.343 482 21.9545
120.46 485 22.0227
120.578 475 21.7945
120.695 526 22.9347
120.812 516 22.7156
120.929 472 21.7256
121.046 544 23.3238
121.163 484 22
121.279 522 22.8473
121.396 467 21.6102
121.513 439 20.9523
121.63 433 20.8087
121.747 369 19.2094
121.863 326 18.0555
121.98 394 19.8494
122.097 478 21.8632
122.213 504 22.4499
122.33 495 22.2486
122.446 504 22.4499
122.563 485 22.0227
122.679 488 22.0907
122.795 572 23.9165
122.912 557 23.6008
123.028 527 22.9565
123.144 582 24.1247
123.26 577 24.0208
123.377 0 1
123.493 0 1
123.609 0 1
123.725 0 1
123.84 0 1
123.956 0 1
124.072 0 1
124.188 0 1
124.303 0 1
124.419 0 1
126.852 0 1
126.968 0 1
127.083 0 1
127.199 0 1
127.315 0 1
127.431 0 1
127.547 0 1
127.663 0 1
127.779 0 1
127.895 0 1
128.011 0 1
128.127 0 1
128.243 0 1
128.359 703 26.5141
128.476 640 25.2982
128.592 700 26.4575
128.708 718 26.7955
128.825 699 26.4386
128.941 728 26.9815
129.058 682 26.1151
129.174 685 26.1725
129.291 665 25.7876
129.408 698 26.4197
129.524 669 25.865
129.641 702 26.4953
129.758 728 26.9815
129.875 699 26.4386
129.992 709 26.6271
130.108 672 25.923
130.225 667 25.8263
130.342 629 25.0799
130.459 546 23.3666
130.576 479 21.8861
130.693 469 21.6564
130.81 488 22.0907
130.928 506 22.4944
131.045 595 24.3926
131.162 711 26.6646
131.279 694 26.3439
131.396 752 27.4226
131.513 719 26.8142
131.631 744 27.2764
131.748 708 26.6083
131.865 698 26.4197
131.983 725 26.9258
132.1 772 27.7849
132.217 704 26.533
132.335 761 27.5862
132.452 732 27.0555
132.57 762 27.6043
132.687 721 26.8514
132.804 812 28.4956
132.922 766 27.6767
133.039 763 27.6225
133.157 720 26.8328
133.274 761 27.5862
133.392 766 27.6767
133.509 730 27.0185
133.627 735 27.1109
133.744 786 28.0357
133.862 689 26.2488
133.979 665 25.7876
134.097 590 24.2899
134.214 585 24.1868
134.332 572 23.9165
134.449 548 23.4094
134.567 574 23.9583
134.684 653 25.5539
134.802 754 27.4591
134.919 760 27.5681
135.037 793 28.1603
135.154 804 28.3549
135.272 789 28.0891
135.389 846 29.0861
135.507 845 29.0689
135.624 821 28.6531
135.742 825 28.7228
135.859 835 28.8964
135.977 787 28.0535
136.094 821 28.6531
136.211 819 28.6182
136.329 865 29.4109
136.446 855 29.2404
136.564 795 28.1957
136.681 842 29.0172
136.798 809 28.4429
136.915 855 29.2404
137.033 860 29.3258
137.15 819 28.6182
137.267 806 28.3901
137.384 768 27.7128
137.502 743 27.258
137.619 715 26.7395
137.736 696 26.3818
137.853 621 24.9199
137.97 595 24.3926
138.087 635 25.1992
138.204 641 25.318
138.321 713 26.7021
138.438 751 27.4044
138.555 839 28.9655
138.672 848 29.1204
138.788 852 29.189
138.905 892 29.8664
139.022 928 30.4631
139.139 920 30.3315
139.255 903 30.05
139.372 898 29.9666
139.488 901 30.0167
139.605 881 29.6816
139.721 948 30.7896
139.838 909 30.1496
139.954 907 30.1164
140.071 873 29.5466
140.187 926 30.4302
140.303 861 29.3428
140.419 902 30.0333
140.535 888 29.7993
140.652 858 29.2916
140.768 0 1
140.884 0 1
141 0 1
141.115 0 1
141.231 0 1
141.347 0 1
141.463 0 1
141.578 0 1
141.694 0 1
144.104 0 1
144.219 0 1
144.335 0 1
144.45 0 1
144.566 0 1
144.682 0 1
144.798 0 1
144.914 0 1
145.03 0 1
145.146 821 28.6531
145.262 900 30
145.378 894 29.8998
145.494 851 29.1719
145.61 842 29.0172
145.726 804 28.3549
145.842 866 29.4279
145.959 810 28.4605
146.075 858 29.2916
146.192 790 28.1069
146.308 769 27.7308
146.425 703 26.5141
146.541 703 26.5141
146.658 726 26.9444
146.774 732 27.0555
146.891 727 26.9629
147.008 699 26.4386
147.125 785 28.0179
147.241 788 28.0713
147.358 897 29.95
147.475 890 29.8329
147.592 895 29.9166
147.709 878 29.6311
147.826 864 29.3939
147.943 876 29.5973
148.06 825 28.7228
148.177 817 28.5832
148.294 808 28.4253
148.411 859 29.3087
148.528 874 29.5635
148.645 820 28.6356
148.762 878 29.6311
148.88 809 28.4429
148.997 810 28.4605
149.114 840 28.9828
149.231 862 29.3598
149.349 818 28.6007
149.466 786 28.0357
149.583 751 27.4044
149.701 738 27.1662
149.818 718 26.7955
149.935 694 26.3439
150.053 669 25.865
150.17 637 25.2389
150.287 680 26.0768
150.405 732 27.0555
150.522 727 26.9629
150.64 790 28.1069
150.757 749 27.3679
150.875 740 27.2029
150.992 852 29.189
151.11 816 28.5657
151.227 884 29.7321
151.344 835 28.8964
151.462 866 29.4279
151.579 848 29.1204
151.697 884 29.7321
151.814 840 28.9828
151.932 874 29.5635
152.049 881 29.6816
152.167 877 29.6142
152.284 862 29.3598
152.402 870 29.4958
152.519 845 29.0689
152.636 926 30.4302
152.754 928 30.4631
152.871 917 30.282
152.989 840 28.9828
153.106 806 28.3901
153.223 809 28.4429
153.341 763 27.6225
153.458 759 27.55
153.575 744 27.2764
153.693 730 27.0185
153.81 797 28.2312
153.927 735 27.1109
154.044 697 26.4008
154.162 773 27.8029
154.279 840 28.9828
154.396 887 29.7825
154.513 853 29.2062
154.63 916 30.2655
154.747 881 29.6816
154.864 899 29.9833
154.981 887 29.7825
155.098 934 30.5614
155.215 893 29.8831
155.332 932 30.5287
155.449 892 29.8664
155.566 937 30.6105
155.683 1032 32.1248
155.8 907 30.1164
155.917 906 30.0998
156.033 885 29.7489
156.15 0 1
156.267 0 1
156.383 0 1
156.5 0 1
156.617 0 1
156.733 0 1
156.85 0 1
156.966 0 1
157.082 0 1
157.199 0 1
157.315 0 1
157.431 0 1
157.547 0 1
157.664 0 1
157.78 0 1
157.896 0 1
158.012 0 1
158.128 0 1
158.244 0 1
158.359 0 1
158.475 0 1
158.591 0 1
158.706 0 1
