
6.15755 0 1
6.2731 0 1
6.3887 0 1
6.50437 0 1
6.62009 0 1
6.73587 0 1
6.8517 0 1
6.96759 0 1
7.08353 0 1
7.19952 0 1
7.31557 0 1
7.43166 0 1
7.54781 0 1
7.664 0 1
7.78024 0 1
7.89653 0 1
8.01286 0 1
8.12924 0 1
8.24567 0 1
8.36213 0 1
8.47864 0 1
8.59519 0 1
8.71178 0 1
8.82841 0 1
8.94508 0 1
9.06179 0 1
9.17853 0 1
9.29531 0 1
9.41212 0 1
9.52897 0 1
9.64584 0 1
9.76276 0 1
9.8797 0 1
9.99667 0 1
10.1137 0 1
10.2307 0 1
10.3478 0 1
10.4648 0 1
10.5819 0 1
10.6991 0 1
10.8162 0 1
10.9334 0 1
11.0506 0 1
11.1678 0 1
11.285 0 1
11.4023 0 1
11.5196 0 1
11.6369 0 1
11.7542 0 1
11.8715 0 1
11.9888 0 1
12.1062 0 1
12.2235 0 1
12.3409 0 1
12.4582 0 1
12.5756 0 1
12.693 0 1
12.8104 0 1
12.9278 0 1
13.0452 0 1
13.1626 0 1
13.28 0 1
13.3974 0 1
13.5149 0 1
13.6323 0 1
13.7497 0 1
13.8671 0 1
13.9845 0 1
14.1019 0 1
14.2193 0 1
14.3367 0 1
14.4541 0 1
14.5714 0 1
14.6888 0 1
14.8062 0 1
14.9235 0 1
15.0408 38861 197.132
15.1581 41586 203.926
15.2755 43908 209.542
15.3927 45381 213.028
15.51 45654 213.668
15.6273 45326 212.899
15.7445 43655 208.938
15.8617 40806 202.005
15.9789 38128 195.264
16.0961 38471 196.14
16.2132 42926 207.186
16.3304 47627 218.236
16.4475 52256 228.596
16.5646 56049 236.747
16.6816 58304 241.462
16.7986 60784 246.544
16.9156 60980 246.941
17.0326 60917 246.814
17.1496 61342 247.673
17.2665 60646 246.264
17.3833 60394 245.752
17.5002 60018 244.986
17.617 59780 244.499
17.7338 59411 243.744
17.8505 59194 243.298
17.9672 60996 246.974
18.0839 62425 249.85
18.2005 63343 251.68
18.3171 64234 253.444
18.4337 64726 254.413
18.5502 65260 255.46
18.6666 66252 257.395
18.7831 66549 257.971
18.8994 66197 257.288
19.0158 65821 256.556
19.1321 63053 251.104
19.2483 58952 242.8
19.3645 53500 231.301
19.4806 47502 217.95
19.5967 43959 209.664
19.7128 44527 211.014
19.8288 47945 218.963
19.9447 48339 219.861
20.0606 0 1
20.1764 0 1
20.2922 0 1
20.4079 0 1
20.5236 0 1
20.6392 0 1
20.7548 0 1
20.8702 0 1
23.3078 0 1
23.4233 0 1
23.539 0 1
23.6547 0 1
23.7704 0 1
23.8862 0 1
24.0021 0 1
24.118 0 1
24.234 0 1
24.35 0 1
24.4661 59543 244.014
24.5822 57273 239.318
24.6984 52270 228.626
24.8146 46406 215.421
24.9309 44063 209.912
25.0472 47028 216.859
25.1636 53255 230.77
25.28 60049 245.049
25.3965 66575 258.021
25.513 70913 266.295
25.6296 74381 272.729
25.7462 75545 274.855
25.8628 76011 275.701
25.9795 75845 275.4
26.0962 76069 275.806
26.213 76409 276.422
26.3298 74790 273.478
26.4466 73937 271.914
26.5635 73523 271.151
26.6804 73700 271.477
26.7973 75291 274.392
26.9143 76064 275.797
27.0313 75745 275.218
27.1483 75786 275.293
27.2653 76452 276.5
27.3824 77219 277.883
27.4996 75754 275.234
27.6167 77017 277.519
27.7339 75838 275.387
27.8511 73553 271.207
27.9683 70355 265.245
28.0855 65427 255.787
28.2028 58894 242.681
28.3201 49133 221.66
28.4374 42626 206.461
28.5547 41307 203.241
28.6721 45364 212.988
28.7894 53233 230.723
28.9068 61012 247.006
29.0242 68048 260.86
29.1416 72579 269.405
29.259 74769 273.439
29.3764 75329 274.461
29.4939 75448 274.678
29.6113 75317 274.439
29.7288 74516 272.976
29.8463 73233 270.616
29.9638 72628 269.496
30.0812 72642 269.522
30.1987 72990 270.167
30.3162 74307 272.593
30.4337 75121 274.082
30.5512 75161 274.155
30.6687 74679 273.275
30.7862 76455 276.505
30.9037 75447 274.676
31.0212 76549 276.675
31.1387 76300 276.225
31.2562 75423 274.632
31.3737 74313 272.604
31.4912 72466 269.195
31.6087 67774 260.334
31.7262 61693 248.381
31.8436 53059 230.345
31.9611 44666 211.343
32.0785 40986 202.45
32.1959 44037 209.85
32.3134 50952 225.725
32.4308 59815 244.571
32.5482 67075 258.988
32.6655 72272 268.835
32.7829 74870 273.624
32.9002 74882 273.646
33.0176 74494 272.936
33.1349 75031 273.918
33.2522 75329 274.461
33.3694 73578 271.253
33.4867 72541 269.334
33.6039 72010 268.347
33.7211 72046 268.414
33.8383 71284 266.991
33.9554 72851 269.909
34.0725 72698 269.626
34.1896 72669 269.572
34.3067 73357 270.845
34.4237 73789 271.641
34.5407 73715 271.505
34.6577 74435 272.828
34.7746 74092 272.198
34.8915 73974 271.982
35.0084 73247 270.642
35.1252 71703 267.774
35.242 69083 262.836
35.3587 65852 256.616
35.4755 58580 242.033
35.5921 48440 220.091
35.7088 40131 200.327
35.8254 37524 193.711
35.9419 41022 202.539
36.0584 47003 216.802
36.1749 55393 235.357
36.2913 63366 251.726
36.4077 68648 262.008
36.524 70454 265.432
36.6403 70887 266.246
36.7565 71475 267.348
36.8727 71723 267.812
36.9889 70455 265.434
37.1049 68878 262.446
37.221 0 1
37.3369 0 1
37.4529 0 1
37.5687 0 1
37.6845 0 1
37.8003 0 1
37.916 0 1
38.0316 0 1
38.1472 0 1
40.5851 0 1
40.7008 0 1
40.8164 0 1
40.9322 0 1
41.048 0 1
41.1639 0 1
41.2798 0 1
41.3958 0 1
41.5118 0 1
41.6279 0 1
41.744 53142 230.525
41.8602 57270 239.312
41.9765 60248 245.455
42.0928 61368 247.726
42.2091 60365 245.693
42.3255 59442 243.807
42.4419 58613 242.101
42.5584 58909 242.712
42.675 58724 242.33
42.7915 59178 243.265
42.9081 59229 243.37
43.0248 59662 244.258
43.1415 59617 244.166
43.2582 60209 245.375
43.375 60423 245.811
43.4918 60797 246.57
43.6087 60022 244.994
43.7256 59243 243.399
43.8425 59126 243.158
43.9595 58593 242.06
44.0765 57185 239.134
44.1935 54345 233.12
44.3106 47619 218.218
44.4277 37568 193.825
44.5448 29133 170.684
44.6619 27445 165.665
44.7791 31073 176.275
44.8963 36567 191.225
45.0136 44202 210.243
45.1308 50126 223.888
45.2481 51707 227.392
45.3654 50881 225.568
45.4827 50621 224.991
45.6001 50855 225.511
45.7174 49826 223.217
45.8348 48636 220.536
45.9522 47679 218.355
46.0697 46505 215.65
46.1871 46380 215.36
46.3046 45656 213.673
46.422 46472 215.574
46.5395 46578 215.819
46.657 46803 216.34
46.7745 46329 215.242
46.892 46938 216.652
47.0096 46739 216.192
47.1271 46771 216.266
47.2446 46253 215.065
47.3622 45659 213.68
47.4797 44825 211.719
47.5973 44801 211.662
47.7149 42911 207.15
47.8324 40008 200.02
47.95 34244 185.051
48.0675 24850 157.639
48.1851 21065 145.138
48.3027 22414 149.713
48.4202 26326 162.253
48.5378 32977 181.596
48.6554 38757 196.868
48.7729 40649 201.616
48.8904 40905 202.25
49.008 40791 201.968
49.1255 41112 202.761
49.243 40502 201.251
49.3605 39833 199.582
49.478 39398 198.489
49.5955 39161 197.891
49.713 38609 196.492
49.8304 39464 198.655
49.9479 40037 200.092
50.0653 40723 201.799
50.1827 41543 203.821
50.3001 42579 206.347
50.4175 43315 208.123
50.5348 43364 208.24
50.6521 44225 210.297
50.7694 44788 211.632
50.8867 45150 212.485
51.004 46035 214.558
51.1212 45933 214.32
51.2384 45828 214.075
51.3556 43720 209.093
51.4727 36997 192.346
51.5899 27421 165.593
51.707 24186 155.518
51.824 26761 163.588
51.9411 32660 180.721
52.0581 41910 204.719
52.175 48829 220.973
52.2919 50521 224.769
52.4088 51677 227.326
52.5257 52314 228.723
52.6425 52618 229.386
52.7593 52420 228.954
52.876 52146 228.355
52.9927 51009 225.852
53.1094 50847 225.493
53.226 50245 224.154
53.3426 50388 224.473
53.4591 51740 227.464
53.5756 53102 230.439
53.692 54727 233.938
53.8084 55439 235.455
53.9248 55594 235.784
54.0411 56323 237.325
54.1573 57185 239.134
54.2735 0 1
54.3896 0 1
54.5057 0 1
54.6217 0 1
54.7377 0 1
54.8537 0 1
54.9695 0 1
55.0853 0 1
55.2011 0 1
55.3168 0 1
55.4324 0 1
57.824 0 1
57.9396 0 1
58.0553 0 1
58.1711 0 1
58.2869 0 1
58.4028 0 1
58.5187 0 1
58.6347 0 1
58.7508 0 1
58.8669 0 1
58.983 59381 243.682
59.0992 62637 250.274
59.2155 63289 251.573
59.3318 64216 253.409
59.4482 64537 254.041
59.5646 65179 255.302
59.681 64911 254.776
59.7975 63286 251.567
59.9141 61532 248.056
60.0306 57830 240.479
60.1473 50715 225.2
60.2639 42910 207.147
60.3807 37028 192.427
60.4974 36811 191.862
60.6142 41609 203.983
60.731 47902 218.865
60.8479 54010 232.401
60.9648 56975 238.694
61.0818 57647 240.098
61.1987 58048 240.932
61.3158 57504 239.8
61.4328 57114 238.985
61.5499 55082 234.696
61.667 54192 232.792
61.7841 52944 230.096
61.9013 53172 230.591
62.0185 53749 231.838
62.1357 55210 234.968
62.253 56327 237.333
62.3702 57010 238.768
62.4875 57804 240.425
62.6049 57834 240.487
62.7222 58866 242.623
62.8396 59090 243.084
62.9569 59446 243.816
63.0743 59508 243.943
63.1918 58857 242.605
63.3092 57685 240.177
63.4267 55443 235.463
63.5441 52789 229.759
63.6616 45276 212.782
63.7791 37815 194.461
63.8966 32862 181.279
64.0142 32469 180.192
64.1317 36869 192.013
64.2492 44018 209.805
64.3668 49171 221.745
64.4843 51129 226.117
64.6019 51997 228.029
64.7195 52725 229.619
64.837 52304 228.701
64.9546 52268 228.622
65.0722 50170 223.987
65.1898 48839 220.995
65.3074 48607 220.47
65.4249 47242 217.352
65.5425 47282 217.444
65.6601 49078 221.536
65.7777 50615 224.978
65.8952 51687 227.348
66.0128 51755 227.497
66.1304 53267 230.796
66.2479 53776 231.897
66.3655 54911 234.331
66.483 55185 234.915
66.6005 55760 236.136
66.718 55487 235.557
66.8355 55270 235.096
66.953 54250 232.916
67.0705 53456 231.206
67.1879 48743 220.778
67.3054 42381 205.866
67.4228 34221 184.989
67.5402 30064 173.39
67.6576 30042 173.326
67.7749 34393 185.453
67.8923 42297 205.662
68.0096 47405 217.727
68.1269 50122 223.879
68.2442 50636 225.024
68.3614 51805 227.607
68.4787 51613 227.185
68.5958 50775 225.333
68.713 50578 224.896
68.8302 48113 219.347
68.9473 47210 217.279
69.0643 47677 218.351
69.1814 47078 216.975
69.2984 49549 222.596
69.4154 50964 225.752
69.5323 52349 228.799
69.6492 54007 232.394
69.7661 54914 234.337
69.8829 55801 236.222
69.9997 57530 239.854
70.1165 58109 241.058
70.2332 58187 241.22
70.3499 58540 241.95
70.4665 57938 240.703
70.5831 57315 239.406
70.6996 55963 236.565
70.8161 53590 231.495
70.9326 48635 220.533
71.049 40221 200.552
71.1653 32425 180.069
71.2817 29954 173.072
71.3979 31049 176.207
71.5141 35930 189.552
71.6303 42144 205.29
71.7464 42650 206.519
71.8624 0 1
71.9784 0 1
72.0944 0 1
72.2102 0 1
72.3261 0 1
72.4418 0 1
72.5575 0 1
72.6732 0 1
75.1054 0 1
75.2209 0 1
75.3365 0 1
75.4521 0 1
75.5678 0 1
75.6835 0 1
75.7993 0 1
75.9151 0 1
76.031 0 1
76.147 48477 220.175
76.263 48929 221.199
76.3791 40439 201.095
76.4952 31468 177.392
76.6113 28805 169.72
76.7276 32331 179.808
76.8438 40354 200.883
76.9601 48677 220.629
77.0765 52077 228.204
77.1929 53149 230.541
77.3093 53584 231.482
77.4258 54198 232.805
77.5423 53486 231.27
77.6589 51304 226.504
77.7755 49609 222.731
77.8921 47977 219.037
78.0088 47362 217.628
78.1256 46849 216.446
78.2423 47424 217.771
78.3591 49832 223.231
78.4759 51736 227.455
78.5928 52851 229.893
78.7097 54516 233.487
78.8266 54336 233.101
78.9436 58915 242.724
79.0606 57756 240.325
79.1776 58000 240.832
79.2946 58022 240.878
79.4117 58215 241.278
79.5288 57587 239.973
79.6459 57102 238.96
79.7631 55115 234.766
79.8802 52045 228.134
79.9974 43942 209.623
80.1147 32712 180.865
80.2319 28557 168.988
80.3491 31614 177.803
80.4664 39699 199.246
80.5837 48035 219.169
80.701 51256 226.398
80.8183 51762 227.513
80.9357 52076 228.202
81.053 52736 229.643
81.1704 52815 229.815
81.2877 51122 226.102
81.4051 48561 220.366
81.5225 46545 215.743
81.6399 45994 214.462
81.7573 45242 212.702
81.8747 44743 211.525
81.9922 47176 217.2
82.1096 49045 221.461
82.227 50838 225.473
82.3444 51835 227.673
82.4619 53780 231.905
82.5793 55174 234.891
82.6967 54056 232.499
82.8142 55164 234.87
82.9316 55382 235.334
83.049 54633 233.737
83.1664 54356 233.144
83.2838 52715 229.597
83.4012 51549 227.044
83.5186 48163 219.461
83.636 40213 200.532
83.7534 29800 172.627
83.8708 26015 161.292
83.9881 28404 168.535
84.1055 34596 186
84.2228 43376 208.269
84.3401 48546 220.332
84.4575 49602 222.715
84.5747 50713 225.195
84.692 51562 227.073
84.8093 50231 224.123
84.9265 48267 219.698
85.0437 47057 216.926
85.1609 45658 213.677
85.2781 45202 212.608
85.3952 45215 212.638
85.5123 46921 216.613
85.6294 48672 220.617
85.7465 51246 226.376
85.8636 53321 230.913
85.9806 55253 235.06
86.0976 56362 237.407
86.2145 58010 240.853
86.3315 60662 246.297
86.4484 58174 241.193
86.5652 60542 246.053
86.682 60839 246.656
86.7988 60458 245.882
86.9156 59143 243.193
87.0323 56885 238.506
87.149 50999 225.83
87.2657 41388 203.44
87.3823 33852 183.989
87.4988 34313 185.238
87.6154 41262 203.13
87.7318 51582 227.117
87.8483 56321 237.32
87.9647 57875 240.572
88.081 59029 242.959
88.1973 60060 245.071
88.3136 60148 245.251
88.4298 58277 241.406
88.546 55609 235.816
88.6621 53688 231.707
88.7781 52443 229.004
88.8942 0 1
89.0101 0 1
89.126 0 1
89.2419 0 1
89.3577 0 1
89.4734 0 1
89.5891 0 1
89.7047 0 1
89.8203 0 1
89.9358 0 1
92.3269 0 1
92.4424 0 1
92.558 0 1
92.6736 0 1
92.7893 0 1
92.905 0 1
93.0208 0 1
93.1366 0 1
93.2525 0 1
93.3685 0 1
93.4845 0 1
93.6005 59677 244.289
93.7167 60916 246.812
93.8328 60176 245.308
93.949 58478 241.822
94.0653 56367 237.417
94.1816 55175 234.894
94.2979 53895 232.153
94.4143 53656 231.638
94.5307 54179 232.764
94.6472 56804 238.336
94.7637 58584 242.041
94.8803 61178 247.342
94.9969 63071 251.139
95.1135 65159 255.263
95.2302 66591 258.052
95.3469 67685 260.163
95.4637 68118 260.994
95.5805 69029 262.734
95.6973 69365 263.372
95.8142 69701 264.009
95.9311 68507 261.738
96.048 66043 256.988
96.1649 62786 250.571
96.2819 55856 236.339
96.3989 48025 219.146
96.516 40916 202.277
96.633 40509 201.268
96.7501 46026 214.537
96.8673 53533 231.372
96.9844 60802 246.581
97.1016 63852 252.69
97.2188 65306 255.55
97.336 66434 257.748
97.4532 65540 256.008
97.5704 64160 253.298
97.6877 61947 248.892
97.805 59537 244.002
97.9223 58366 241.591
98.0396 57109 238.975
98.1569 57745 240.302
98.2743 59083 243.07
98.3916 61774 248.544
98.509 63881 252.747
98.6264 66781 258.42
98.7438 67610 260.019
98.8612 69108 262.884
98.9786 71108 266.661
99.096 71265 266.955
99.2134 71811 267.976
99.3308 71950 268.235
99.4482 72252 268.797
99.5656 70792 266.068
99.6831 68312 261.366
99.8005 62920 250.839
99.9179 56948 238.638
100.035 48441 220.093
100.153 45192 212.584
100.27 49435 222.34
100.388 57943 240.714
100.505 63981 252.945
100.622 67384 259.584
100.74 68525 261.773
100.857 68930 262.545
100.975 69059 262.791
101.092 68352 261.442
101.209 65974 256.854
101.327 63528 252.048
101.444 62120 249.239
101.561 60897 246.773
101.679 60595 246.161
101.796 61611 248.216
101.913 64912 254.778
102.03 67920 260.615
102.148 70254 265.055
102.265 70458 265.439
102.382 75763 275.251
102.499 75685 275.109
102.616 76327 276.273
102.733 76989 277.469
102.851 76803 277.134
102.968 77697 278.742
103.085 76256 276.145
103.202 74172 272.345
103.319 68780 262.259
103.436 61483 247.958
103.552 52947 230.102
103.669 49897 223.376
103.786 55057 234.642
103.903 63235 251.466
104.02 69632 263.879
104.137 73421 270.963
104.253 74857 273.6
104.37 75644 275.035
104.487 74715 273.34
104.603 74652 273.225
104.72 71433 267.27
104.836 69026 262.728
104.953 67189 259.208
105.069 66295 257.478
105.186 66615 258.099
105.302 69160 262.983
105.418 72100 268.514
105.535 75367 274.531
105.651 77629 278.62
105.767 79974 282.797
105.883 81827 286.054
105.999 82086 286.507
106.115 0 1
106.231 0 1
106.347 0 1
106.463 0 1
106.579 0 1
106.694 0 1
106.81 0 1
106.926 0 1
107.041 0 1
107.157 0 1
109.576 0 1
109.692 0 1
109.807 0 1
109.923 0 1
110.039 0 1
110.155 0 1
110.27 0 1
110.386 0 1
110.502 0 1
110.618 73362 270.854
110.735 76720 276.984
110.851 78469 280.123
110.967 80106 283.03
111.083 80654 283.996
111.199 81312 285.153
111.316 81653 285.75
111.432 81757 285.932
111.549 80567 283.843
111.665 78735 280.598
111.782 72971 270.131
111.898 65842 256.597
112.015 58556 241.983
112.132 55331 235.225
112.248 58476 241.818
112.365 65532 255.992
112.482 69138 262.941
112.599 75876 275.456
112.716 75107 274.057
112.832 74651 273.223
112.949 75568 274.896
113.066 75085 274.016
113.183 73504 271.116
113.3 69615 263.847
113.417 67130 259.095
113.534 66049 257
113.652 65074 255.096
113.769 64920 254.794
113.886 67647 260.09
114.003 70094 264.753
114.12 73100 270.37
114.238 75690 275.118
114.355 76569 276.711
114.472 77109 277.685
114.589 79866 282.606
114.707 79065 281.185
114.824 79236 281.489
114.942 80104 283.027
115.059 79857 282.59
115.176 77990 279.267
115.294 74357 272.685
115.411 68271 261.287
115.529 62381 249.762
115.646 58950 242.796
115.764 59807 244.555
115.881 64529 254.026
115.999 68731 262.166
116.116 71796 267.948
116.234 73563 271.225
116.351 73143 270.45
116.469 73447 271.011
116.586 73250 270.647
116.704 72547 269.346
116.821 69834 264.261
116.939 66746 258.352
117.056 64322 253.618
117.174 62372 249.744
117.291 62850 250.699
117.409 63770 252.527
117.526 66693 258.25
117.644 69684 263.977
117.761 71915 268.17
117.879 73579 271.254
117.996 73509 271.125
118.114 74789 273.476
118.231 76269 276.168
118.349 75973 275.632
118.466 75878 275.46
118.584 76358 276.33
118.701 74997 273.856
118.819 73321 270.779
118.936 68579 261.876
119.053 63112 251.221
119.171 59291 243.497
119.288 58220 241.288
119.405 60001 244.951
119.523 63239 251.474
119.64 66281 257.451
119.757 69151 262.966
119.875 69879 264.346
119.992 69320 263.287
120.109 69679 263.968
120.226 69122 262.911
120.343 68741 262.185
120.46 66924 258.697
120.578 64344 253.661
120.695 61591 248.175
120.812 60569 246.108
120.929 61295 247.578
121.046 61307 247.603
121.163 62768 250.535
121.279 66263 257.416
121.396 69318 263.283
121.513 70517 265.55
121.63 72006 268.339
121.747 71833 268.017
121.863 73452 271.02
121.98 73647 271.38
122.097 74371 272.71
122.213 73480 271.072
122.33 72325 268.933
122.446 71570 267.526
122.563 68885 262.46
122.679 64679 254.321
122.795 61397 247.784
122.912 58310 241.475
123.028 58778 242.442
123.144 59729 244.395
123.26 62183 249.365
123.377 0 1
123.493 0 1
123.609 0 1
123.725 0 1
123.84 0 1
123.956 0 1
124.072 0 1
124.188 0 1
124.303 0 1
124.419 0 1
126.852 0 1
126.968 0 1
127.083 0 1
127.199 0 1
127.315 0 1
127.431 0 1
127.547 0 1
127.663 0 1
127.779 0 1
127.895 0 1
128.011 0 1
128.127 0 1
128.243 0 1
128.359 66898 258.646
128.476 69113 262.894
128.592 72090 268.496
128.708 74457 272.868
128.825 75379 274.552
128.941 76443 276.483
129.058 75452 274.685
129.174 75216 274.255
129.291 74478 272.907
129.408 72177 268.658
129.524 69163 262.989
129.641 67205 259.239
129.758 66002 256.909
129.875 65417 255.767
129.992 65861 256.634
130.108 68056 260.875
130.225 71239 266.906
130.342 74420 272.8
130.459 73829 271.715
130.576 77118 277.701
130.693 76330 276.279
130.81 76724 276.991
130.928 76614 276.792
131.045 75887 275.476
131.162 76134 275.924
131.279 75925 275.545
131.396 73623 271.336
131.513 70741 265.972
131.631 68948 262.58
131.748 68342 261.423
131.865 69325 263.296
131.983 71089 266.625
132.1 73457 271.03
132.217 74792 273.481
132.335 75569 274.898
132.452 76020 275.717
132.57 75950 275.59
132.687 74890 273.66
132.804 76249 276.132
132.922 74042 272.107
133.039 71245 266.918
133.157 69499 263.627
133.274 67517 259.84
133.392 66332 257.55
133.509 67028 258.898
133.627 67547 259.898
133.744 70355 265.245
133.862 73743 271.557
133.979 75444 274.671
134.097 76406 276.416
134.214 76537 276.653
134.332 77817 278.957
134.449 76886 277.283
134.567 76040 275.754
134.684 76156 275.964
134.802 76002 275.685
134.919 74870 273.624
135.037 72720 269.666
135.154 70577 265.663
135.272 70521 265.558
135.389 70602 265.71
135.507 71890 268.123
135.624 73767 271.601
135.742 74757 273.417
135.859 76842 277.204
135.977 76766 277.067
136.094 76724 276.991
136.211 76719 276.982
136.329 76127 275.911
136.446 75427 274.64
136.564 73713 271.501
136.681 71174 266.785
136.798 69359 263.361
136.915 67600 260
137.033 66648 258.163
137.15 66224 257.34
137.267 66787 258.432
137.384 70099 264.762
137.502 72535 269.323
137.619 74273 272.531
137.736 75539 274.844
137.853 74754 273.412
137.97 76411 276.425
138.087 73601 271.295
138.204 73909 271.862
138.321 74333 272.641
138.438 74635 273.194
138.555 75116 274.073
138.672 74020 272.066
138.788 73315 270.767
138.905 73220 270.592
139.022 74058 272.136
139.139 76035 275.744
139.255 76329 276.277
139.372 77624 278.611
139.488 78365 279.937
139.605 78834 280.774
139.721 79144 281.325
139.838 79204 281.432
139.954 78727 280.583
140.071 76836 277.193
140.187 77778 278.887
140.303 73759 271.586
140.419 71708 267.783
140.535 69102 262.873
140.652 67996 260.76
140.768 0 1
140.884 0 1
141 0 1
141.115 0 1
141.231 0 1
141.347 0 1
141.463 0 1
141.578 0 1
141.694 0 1
144.104 0 1
144.219 0 1
144.335 0 1
144.45 0 1
144.566 0 1
144.682 0 1
144.798 0 1
144.914 0 1
145.03 0 1
145.146 53905 232.175
145.262 57965 240.759
145.378 58052 240.94
145.494 57273 239.318
145.61 55919 236.472
145.726 55298 235.155
145.842 54533 233.523
145.959 54177 232.76
146.075 54220 232.852
146.192 55795 236.21
146.308 57180 239.123
146.425 58938 242.771
146.541 59869 244.681
146.658 59941 244.829
146.774 59625 244.182
146.891 58979 242.856
147.008 58244 241.338
147.125 57252 239.274
147.241 58718 242.318
147.358 59475 243.875
147.475 60161 245.277
147.592 60257 245.473
147.709 59601 244.133
147.826 61158 247.301
147.943 60739 246.453
148.06 61530 248.052
148.177 61712 248.419
148.294 61777 248.55
148.411 61958 248.914
148.528 63332 251.658
148.645 62824 250.647
148.762 62634 250.268
148.88 62765 250.529
148.997 61332 247.653
149.114 63915 252.814
149.231 61042 247.067
149.349 59257 243.428
149.466 59502 243.93
149.583 58051 240.938
149.701 56621 237.952
149.818 56019 236.683
149.935 56196 237.057
150.053 57778 240.371
150.17 59577 244.084
150.287 60730 246.435
150.405 61468 247.927
150.522 61653 248.3
150.64 61035 247.053
150.757 60574 246.118
150.875 60529 246.026
150.992 61476 247.944
151.11 62991 250.98
151.227 63727 252.442
151.344 64195 253.367
151.462 63631 252.252
151.579 65548 256.023
151.697 65311 255.56
151.814 64871 254.698
151.932 65137 255.22
152.049 65947 256.801
152.167 66538 257.95
152.284 66352 257.589
152.402 66289 257.467
152.519 66978 258.801
152.636 66885 258.621
152.754 66510 257.895
152.871 65235 255.411
152.989 64248 253.472
153.106 62300 249.6
153.223 61618 248.23
153.341 60699 246.372
153.458 60140 245.235
153.575 59978 244.904
153.693 61193 247.372
153.81 62335 249.67
153.927 63304 251.603
154.044 64357 253.687
154.162 63804 252.595
154.279 63834 252.654
154.396 63457 251.907
154.513 64854 254.664
154.63 66844 258.542
154.747 68968 262.618
154.864 70293 265.128
154.981 70568 265.646
155.098 70621 265.746
155.215 71045 266.543
155.332 70432 265.39
155.449 70374 265.281
155.566 70224 264.998
155.683 70349 265.234
155.8 71594 267.571
155.917 71726 267.817
156.033 71788 267.933
156.15 0 1
156.267 0 1
156.383 0 1
156.5 0 1
156.617 0 1
156.733 0 1
156.85 0 1
156.966 0 1
157.082 0 1
157.199 0 1
157.315 0 1
157.431 0 1
157.547 0 1
157.664 0 1
157.78 0 1
157.896 0 1
158.012 0 1
158.128 0 1
158.244 0 1
158.359 0 1
158.475 0 1
158.591 0 1
158.706 0 1
