
6.15755 0 1
6.2731 0 1
6.3887 0 1
6.50437 0 1
6.62009 0 1
6.73587 0 1
6.8517 0 1
6.96759 0 1
7.08353 0 1
7.19952 0 1
7.31557 0 1
7.43166 0 1
7.54781 0 1
7.664 0 1
7.78024 0 1
7.89653 0 1
8.01286 0 1
8.12924 0 1
8.24567 0 1
8.36213 0 1
8.47864 0 1
8.59519 0 1
8.71178 0 1
8.82841 0 1
8.94508 0 1
9.06179 0 1
9.17853 0 1
9.29531 0 1
9.41212 0 1
9.52897 0 1
9.64584 0 1
9.76276 0 1
9.8797 0 1
9.99667 0 1
10.1137 0 1
10.2307 0 1
10.3478 0 1
10.4648 0 1
10.5819 0 1
10.6991 0 1
10.8162 0 1
10.9334 0 1
11.0506 0 1
11.1678 0 1
11.285 0 1
11.4023 0 1
11.5196 0 1
11.6369 0 1
11.7542 0 1
11.8715 0 1
11.9888 0 1
12.1062 0 1
12.2235 0 1
12.3409 0 1
12.4582 0 1
12.5756 0 1
12.693 0 1
12.8104 0 1
12.9278 0 1
13.0452 0 1
13.1626 0 1
13.28 0 1
13.3974 0 1
13.5149 0 1
13.6323 0 1
13.7497 0 1
13.8671 0 1
13.9845 0 1
14.1019 0 1
14.2193 0 1
14.3367 0 1
14.4541 0 1
14.5714 0 1
14.6888 0 1
14.8062 0 1
14.9235 0 1
15.0408 730 27.0185
15.1581 743 27.258
15.2755 793 28.1603
15.3927 763 27.6225
15.51 772 27.7849
15.6273 760 27.5681
15.7445 744 27.2764
15.8617 802 28.3196
15.9789 801 28.3019
16.0961 785 28.0179
16.2132 748 27.3496
16.3304 698 26.4197
16.4475 797 28.2312
16.5646 810 28.4605
16.6816 845 29.0689
16.7986 880 29.6648
16.9156 943 30.7083
17.0326 924 30.3974
17.1496 888 29.7993
17.2665 892 29.8664
17.3833 879 29.6479
17.5002 833 28.8617
17.617 830 28.8097
17.7338 788 28.0713
17.8505 775 27.8388
17.9672 748 27.3496
18.0839 787 28.0535
18.2005 768 27.7128
18.3171 804 28.3549
18.4337 822 28.6705
18.5502 875 29.5804
18.6666 881 29.6816
18.7831 935 30.5778
18.8994 915 30.249
19.0158 886 29.7658
19.1321 807 28.4077
19.2483 812 28.4956
19.3645 773 27.8029
19.4806 709 26.6271
19.5967 640 25.2982
19.7128 630 25.0998
19.8288 569 23.8537
19.9447 535 23.1301
20.0606 0 1
20.1764 0 1
20.2922 0 1
20.4079 0 1
20.5236 0 1
20.6392 0 1
20.7548 0 1
20.8702 0 1
23.3078 0 1
23.4233 0 1
23.539 0 1
23.6547 0 1
23.7704 0 1
23.8862 0 1
24.0021 0 1
24.118 0 1
24.234 0 1
24.35 0 1
24.4661 343 18.5203
24.5822 422 20.5426
24.6984 485 22.0227
24.8146 531 23.0434
24.9309 539 23.2164
25.0472 590 24.2899
25.1636 656 25.6125
25.28 731 27.037
25.3965 757 27.5136
25.513 817 28.5832
25.6296 902 30.0333
25.7462 864 29.3939
25.8628 937 30.6105
25.9795 949 30.8058
26.0962 944 30.7246
26.213 949 30.8058
26.3298 840 28.9828
26.4466 888 29.7993
26.5635 812 28.4956
26.6804 846 29.0861
26.7973 838 28.9482
26.9143 785 28.0179
27.0313 815 28.5482
27.1483 877 29.6142
27.2653 880 29.6648
27.3824 889 29.8161
27.4996 890 29.8329
27.6167 891 29.8496
27.7339 953 30.8707
27.8511 887 29.7825
27.9683 779 27.9106
28.0855 835 28.8964
28.2028 767 27.6948
28.3201 745 27.2947
28.4374 718 26.7955
28.5547 714 26.7208
28.6721 714 26.7208
28.7894 835 28.8964
28.9068 855 29.2404
29.0242 902 30.0333
29.1416 885 29.7489
29.259 943 30.7083
29.3764 893 29.8831
29.4939 900 30
29.6113 920 30.3315
29.7288 873 29.5466
29.8463 837 28.931
29.9638 759 27.55
30.0812 725 26.9258
30.1987 765 27.6586
30.3162 763 27.6225
30.4337 818 28.6007
30.5512 806 28.3901
30.6687 843 29.0345
30.7862 843 29.0345
30.9037 875 29.5804
31.0212 854 29.2233
31.1387 853 29.2062
31.2562 788 28.0713
31.3737 837 28.931
31.4912 812 28.4956
31.6087 839 28.9655
31.7262 756 27.4955
31.8436 764 27.6405
31.9611 715 26.7395
32.0785 715 26.7395
32.1959 700 26.4575
32.3134 734 27.0924
32.4308 787 28.0535
32.5482 828 28.775
32.6655 838 28.9482
32.7829 849 29.1376
32.9002 852 29.189
33.0176 898 29.9666
33.1349 867 29.4449
33.2522 825 28.7228
33.3694 838 28.9482
33.4867 754 27.4591
33.6039 756 27.4955
33.7211 759 27.55
33.8383 735 27.1109
33.9554 747 27.3313
34.0725 738 27.1662
34.1896 753 27.4408
34.3067 778 27.8927
34.4237 769 27.7308
34.5407 820 28.6356
34.6577 827 28.7576
34.7746 857 29.2746
34.8915 769 27.7308
35.0084 763 27.6225
35.1252 741 27.2213
35.242 793 28.1603
35.3587 752 27.4226
35.4755 723 26.8887
35.5921 657 25.632
35.7088 702 26.4953
35.8254 712 26.6833
35.9419 727 26.9629
36.0584 720 26.8328
36.1749 716 26.7582
36.2913 748 27.3496
36.4077 771 27.7669
36.524 708 26.6083
36.6403 729 27
36.7565 627 25.04
36.8727 626 25.02
36.9889 633 25.1595
37.1049 546 23.3666
37.221 0 1
37.3369 0 1
37.4529 0 1
37.5687 0 1
37.6845 0 1
37.8003 0 1
37.916 0 1
38.0316 0 1
38.1472 0 1
40.5851 0 1
40.7008 0 1
40.8164 0 1
40.9322 0 1
41.048 0 1
41.1639 0 1
41.2798 0 1
41.3958 0 1
41.5118 0 1
41.6279 0 1
41.744 405 20.1246
41.8602 433 20.8087
41.9765 485 22.0227
42.0928 484 22
42.2091 524 22.891
42.3255 466 21.587
42.4419 442 21.0238
42.5584 490 22.1359
42.675 498 22.3159
42.7915 526 22.9347
42.9081 661 25.7099
43.0248 623 24.96
43.1415 620 24.8998
43.2582 639 25.2784
43.375 692 26.3059
43.4918 651 25.5147
43.6087 685 26.1725
43.7256 711 26.6646
43.8425 657 25.632
43.9595 662 25.7294
44.0765 640 25.2982
44.1935 655 25.593
44.3106 622 24.9399
44.4277 538 23.1948
44.5448 584 24.1661
44.6619 567 23.8118
44.7791 595 24.3926
44.8963 600 24.4949
45.0136 689 26.2488
45.1308 721 26.8514
45.2481 683 26.1343
45.3654 697 26.4008
45.4827 648 25.4558
45.6001 701 26.4764
45.7174 674 25.9615
45.8348 645 25.3969
45.9522 611 24.7184
46.0697 546 23.3666
46.1871 611 24.7184
46.3046 604 24.5764
46.422 601 24.5153
46.5395 634 25.1794
46.657 659 25.671
46.7745 663 25.7488
46.892 703 26.5141
47.0096 665 25.7876
47.1271 700 26.4575
47.2446 751 27.4044
47.3622 703 26.5141
47.4797 702 26.4953
47.5973 654 25.5734
47.7149 662 25.7294
47.8324 608 24.6577
47.95 626 25.02
48.0675 562 23.7065
48.1851 546 23.3666
48.3027 556 23.5797
48.4202 552 23.4947
48.5378 625 25
48.6554 693 26.3249
48.7729 665 25.7876
48.8904 700 26.4575
49.008 695 26.3629
49.1255 687 26.2107
49.243 655 25.593
49.3605 608 24.6577
49.478 583 24.1454
49.5955 540 23.2379
49.713 513 22.6495
49.8304 588 24.2487
49.9479 622 24.9399
50.0653 624 24.98
50.1827 657 25.632
50.3001 656 25.6125
50.4175 683 26.1343
50.5348 712 26.6833
50.6521 694 26.3439
50.7694 680 26.0768
50.8867 720 26.8328
51.004 689 26.2488
51.1212 683 26.1343
51.2384 650 25.4951
51.3556 620 24.8998
51.4727 657 25.632
51.5899 533 23.0868
51.707 539 23.2164
51.824 597 24.4336
51.9411 621 24.9199
52.0581 668 25.8457
52.175 674 25.9615
52.2919 683 26.1343
52.4088 716 26.7582
52.5257 691 26.2869
52.6425 763 27.6225
52.7593 721 26.8514
52.876 667 25.8263
52.9927 626 25.02
53.1094 548 23.4094
53.226 569 23.8537
53.3426 562 23.7065
53.4591 508 22.5389
53.5756 538 23.1948
53.692 599 24.4745
53.8084 581 24.1039
53.9248 530 23.0217
54.0411 526 22.9347
54.1573 512 22.6274
54.2735 0 1
54.3896 0 1
54.5057 0 1
54.6217 0 1
54.7377 0 1
54.8537 0 1
54.9695 0 1
55.0853 0 1
55.2011 0 1
55.3168 0 1
55.4324 0 1
57.824 0 1
57.9396 0 1
58.0553 0 1
58.1711 0 1
58.2869 0 1
58.4028 0 1
58.5187 0 1
58.6347 0 1
58.7508 0 1
58.8669 0 1
58.983 464 21.5407
59.0992 589 24.2693
59.2155 659 25.671
59.3318 612 24.7386
59.4482 678 26.0384
59.5646 708 26.6083
59.681 759 27.55
59.7975 765 27.6586
59.9141 749 27.3679
60.0306 775 27.8388
60.1473 741 27.2213
60.2639 735 27.1109
60.3807 724 26.9072
60.4974 762 27.6043
60.6142 738 27.1662
60.731 759 27.55
60.8479 832 28.8444
60.9648 899 29.9833
61.0818 897 29.95
61.1987 831 28.8271
61.3158 885 29.7489
61.4328 807 28.4077
61.5499 900 30
61.667 794 28.178
61.7841 706 26.5707
61.9013 679 26.0576
62.0185 689 26.2488
62.1357 725 26.9258
62.253 806 28.3901
62.3702 815 28.5482
62.4875 811 28.4781
62.6049 840 28.9828
62.7222 905 30.0832
62.8396 889 29.8161
62.9569 891 29.8496
63.0743 858 29.2916
63.1918 889 29.8161
63.3092 870 29.4958
63.4267 829 28.7924
63.5441 856 29.2575
63.6616 775 27.8388
63.7791 709 26.6271
63.8966 740 27.2029
64.0142 689 26.2488
64.1317 722 26.8701
64.2492 757 27.5136
64.3668 833 28.8617
64.4843 898 29.9666
64.6019 857 29.2746
64.7195 892 29.8664
64.837 856 29.2575
64.9546 913 30.2159
65.0722 817 28.5832
65.1898 796 28.2135
65.3074 759 27.55
65.4249 674 25.9615
65.5425 638 25.2587
65.6601 694 26.3439
65.7777 789 28.0891
65.8952 792 28.1425
66.0128 838 28.9482
66.1304 859 29.3087
66.2479 878 29.6311
66.3655 863 29.3769
66.483 839 28.9655
66.6005 895 29.9166
66.718 875 29.5804
66.8355 896 29.9333
66.953 846 29.0861
67.0705 815 28.5482
67.1879 852 29.189
67.3054 759 27.55
67.4228 728 26.9815
67.5402 690 26.2679
67.6576 734 27.0924
67.7749 720 26.8328
67.8923 800 28.2843
68.0096 867 29.4449
68.1269 973 31.1929
68.2442 914 30.2324
68.3614 931 30.5123
68.4787 962 31.0161
68.5958 950 30.8221
68.713 907 30.1164
68.8302 861 29.3428
68.9473 821 28.6531
69.0643 767 27.6948
69.1814 695 26.3629
69.2984 791 28.1247
69.4154 810 28.4605
69.5323 888 29.7993
69.6492 974 31.209
69.7661 958 30.9516
69.8829 965 31.0644
69.9997 1007 31.7333
70.1165 993 31.5119
70.2332 1029 32.078
70.3499 898 29.9666
70.4665 897 29.95
70.5831 822 28.6705
70.6996 826 28.7402
70.8161 736 27.1293
70.9326 751 27.4044
71.049 617 24.8395
71.1653 494 22.2261
71.2817 462 21.4942
71.3979 389 19.7231
71.5141 402 20.0499
71.6303 393 19.8242
71.7464 355 18.8414
71.8624 0 1
71.9784 0 1
72.0944 0 1
72.2102 0 1
72.3261 0 1
72.4418 0 1
72.5575 0 1
72.6732 0 1
75.1054 0 1
75.2209 0 1
75.3365 0 1
75.4521 0 1
75.5678 0 1
75.6835 0 1
75.7993 0 1
75.9151 0 1
76.031 0 1
76.147 602 24.5357
76.263 603 24.5561
76.3791 583 24.1454
76.4952 576 24
76.6113 638 25.2587
76.7276 605 24.5967
76.8438 666 25.807
76.9601 719 26.8142
77.0765 730 27.0185
77.1929 836 28.9137
77.3093 838 28.9482
77.4258 808 28.4253
77.5423 757 27.5136
77.6589 798 28.2489
77.7755 726 26.9444
77.8921 644 25.3772
78.0088 627 25.04
78.1256 581 24.1039
78.2423 528 22.9783
78.3591 567 23.8118
78.4759 686 26.1916
78.5928 694 26.3439
78.7097 737 27.1477
78.8266 717 26.7769
78.9436 764 27.6405
79.0606 776 27.8568
79.1776 772 27.7849
79.2946 789 28.0891
79.4117 787 28.0535
79.5288 736 27.1293
79.6459 761 27.5862
79.7631 714 26.7208
79.8802 702 26.4953
79.9974 628 25.0599
80.1147 603 24.5561
80.2319 570 23.8747
80.3491 556 23.5797
80.4664 645 25.3969
80.5837 677 26.0192
80.701 735 27.1109
80.8183 702 26.4953
80.9357 732 27.0555
81.053 738 27.1662
81.1704 745 27.2947
81.2877 764 27.6405
81.4051 778 27.8927
81.5225 724 26.9072
81.6399 653 25.5539
81.7573 590 24.2899
81.8747 608 24.6577
81.9922 545 23.3452
82.1096 643 25.3574
82.227 650 25.4951
82.3444 727 26.9629
82.4619 749 27.3679
82.5793 711 26.6646
82.6967 793 28.1603
82.8142 807 28.4077
82.9316 877 29.6142
83.049 784 28
83.1664 796 28.2135
83.2838 826 28.7402
83.4012 814 28.5307
83.5186 777 27.8747
83.636 732 27.0555
83.7534 755 27.4773
83.8708 621 24.9199
83.9881 611 24.7184
84.1055 642 25.3377
84.2228 644 25.3772
84.3401 773 27.8029
84.4575 767 27.6948
84.5747 837 28.931
84.692 848 29.1204
84.8093 806 28.3901
84.9265 829 28.7924
85.0437 784 28
85.1609 730 27.0185
85.2781 660 25.6905
85.3952 613 24.7588
85.5123 574 23.9583
85.6294 605 24.5967
85.7465 651 25.5147
85.8636 711 26.6646
85.9806 786 28.0357
86.0976 795 28.1957
86.2145 805 28.3725
86.3315 821 28.6531
86.4484 841 29
86.5652 865 29.4109
86.682 861 29.3428
86.7988 801 28.3019
86.9156 832 28.8444
87.0323 811 28.4781
87.149 760 27.5681
87.2657 685 26.1725
87.3823 612 24.7386
87.4988 553 23.516
87.6154 507 22.5167
87.7318 561 23.6854
87.8483 559 23.6432
87.9647 639 25.2784
88.081 628 25.0599
88.1973 632 25.1396
88.3136 597 24.4336
88.4298 592 24.3311
88.546 489 22.1133
88.6621 492 22.1811
88.7781 365 19.105
88.8942 0 1
89.0101 0 1
89.126 0 1
89.2419 0 1
89.3577 0 1
89.4734 0 1
89.5891 0 1
89.7047 0 1
89.8203 0 1
89.9358 0 1
92.3269 0 1
92.4424 0 1
92.558 0 1
92.6736 0 1
92.7893 0 1
92.905 0 1
93.0208 0 1
93.1366 0 1
93.2525 0 1
93.3685 0 1
93.4845 0 1
93.6005 557 23.6008
93.7167 584 24.1661
93.8328 627 25.04
93.949 637 25.2389
94.0653 670 25.8844
94.1816 700 26.4575
94.2979 664 25.7682
94.4143 675 25.9808
94.5307 619 24.8797
94.6472 582 24.1247
94.7637 565 23.7697
94.8803 608 24.6577
94.9969 716 26.7582
95.1135 689 26.2488
95.2302 839 28.9655
95.3469 796 28.2135
95.4637 790 28.1069
95.5805 792 28.1425
95.6973 806 28.3901
95.8142 816 28.5657
95.9311 794 28.178
96.048 836 28.9137
96.1649 840 28.9828
96.2819 739 27.1846
96.3989 734 27.0924
96.516 679 26.0576
96.633 687 26.2107
96.7501 644 25.3772
96.8673 599 24.4745
96.9844 649 25.4755
97.1016 636 25.219
97.2188 764 27.6405
97.336 799 28.2666
97.4532 788 28.0713
97.5704 799 28.2666
97.6877 815 28.5482
97.805 801 28.3019
97.9223 765 27.6586
98.0396 675 25.9808
98.1569 635 25.1992
98.2743 619 24.8797
98.3916 598 24.454
98.509 621 24.9199
98.6264 674 25.9615
98.7438 708 26.6083
98.8612 715 26.7395
98.9786 724 26.9072
99.096 788 28.0713
99.2134 858 29.2916
99.3308 823 28.688
99.4482 854 29.2233
99.5656 858 29.2916
99.6831 861 29.3428
99.8005 853 29.2062
99.9179 807 28.4077
100.035 762 27.6043
100.153 739 27.1846
100.27 681 26.096
100.388 660 25.6905
100.505 663 25.7488
100.622 739 27.1846
100.74 793 28.1603
100.857 804 28.3549
100.975 839 28.9655
101.092 799 28.2666
101.209 888 29.7993
101.327 871 29.5127
101.444 788 28.0713
101.561 797 28.2312
101.679 751 27.4044
101.796 669 25.865
101.913 621 24.9199
102.03 639 25.2784
102.148 693 26.3249
102.265 708 26.6083
102.382 829 28.7924
102.499 848 29.1204
102.616 844 29.0517
102.733 863 29.3769
102.851 922 30.3645
102.968 898 29.9666
103.085 839 28.9655
103.202 819 28.6182
103.319 822 28.6705
103.436 863 29.3769
103.552 832 28.8444
103.669 788 28.0713
103.786 711 26.6646
103.903 682 26.1151
104.02 684 26.1534
104.137 795 28.1957
104.253 818 28.6007
104.37 895 29.9166
104.487 908 30.133
104.603 905 30.0832
104.72 931 30.5123
104.836 885 29.7489
104.953 762 27.6043
105.069 706 26.5707
105.186 691 26.2869
105.302 612 24.7386
105.418 536 23.1517
105.535 578 24.0416
105.651 594 24.3721
105.767 624 24.98
105.883 573 23.9374
105.999 569 23.8537
106.115 0 1
106.231 0 1
106.347 0 1
106.463 0 1
106.579 0 1
106.694 0 1
106.81 0 1
106.926 0 1
107.041 0 1
107.157 0 1
109.576 0 1
109.692 0 1
109.807 0 1
109.923 0 1
110.039 0 1
110.155 0 1
110.27 0 1
110.386 0 1
110.502 0 1
110.618 333 18.2483
110.735 457 21.3776
110.851 566 23.7908
110.967 609 24.6779
111.083 661 25.7099
111.199 735 27.1109
111.316 759 27.55
111.432 779 27.9106
111.549 824 28.7054
111.665 760 27.5681
111.782 823 28.688
111.898 819 28.6182
112.015 788 28.0713
112.132 714 26.7208
112.248 718 26.7955
112.365 627 25.04
112.482 658 25.6515
112.599 677 26.0192
112.716 681 26.096
112.832 763 27.6225
112.949 772 27.7849
113.066 826 28.7402
113.183 752 27.4226
113.3 817 28.5832
113.417 831 28.8271
113.534 718 26.7955
113.652 706 26.5707
113.769 633 25.1595
113.886 639 25.2784
114.003 583 24.1454
114.12 621 24.9199
114.238 688 26.2298
114.355 729 27
114.472 747 27.3313
114.589 805 28.3725
114.707 838 28.9482
114.824 788 28.0713
114.942 854 29.2233
115.059 767 27.6948
115.176 828 28.775
115.294 896 29.9333
115.411 807 28.4077
115.529 812 28.4956
115.646 791 28.1247
115.764 734 27.0924
115.881 675 25.9808
115.999 665 25.7876
116.116 656 25.6125
116.234 710 26.6458
116.351 768 27.7128
116.469 750 27.3861
116.586 764 27.6405
116.704 800 28.2843
116.821 750 27.3861
116.939 835 28.8964
117.056 822 28.6705
117.174 758 27.5318
117.291 691 26.2869
117.409 605 24.5967
117.526 633 25.1595
117.644 606 24.6171
117.761 690 26.2679
117.879 685 26.1725
117.996 779 27.9106
118.114 767 27.6948
118.231 782 27.9643
118.349 804 28.3549
118.466 825 28.7228
118.584 787 28.0535
118.701 845 29.0689
118.819 815 28.5482
118.936 817 28.5832
119.053 830 28.8097
119.171 748 27.3496
119.288 796 28.2135
119.405 703 26.5141
119.523 690 26.2679
119.64 630 25.0998
119.757 635 25.1992
119.875 671 25.9037
119.992 715 26.7395
120.109 729 27
120.226 772 27.7849
120.343 796 28.2135
120.46 754 27.4591
120.578 758 27.5318
120.695 815 28.5482
120.812 748 27.3496
120.929 649 25.4755
121.046 624 24.98
121.163 638 25.2587
121.279 564 23.7487
121.396 606 24.6171
121.513 638 25.2587
121.63 677 26.0192
121.747 610 24.6982
121.863 633 25.1595
121.98 680 26.0768
122.097 694 26.3439
122.213 655 25.593
122.33 628 25.0599
122.446 637 25.2389
122.563 576 24
122.679 574 23.9583
122.795 530 23.0217
122.912 508 22.5389
123.028 419 20.4695
123.144 357 18.8944
123.26 295 17.1756
123.377 0 1
123.493 0 1
123.609 0 1
123.725 0 1
123.84 0 1
123.956 0 1
124.072 0 1
124.188 0 1
124.303 0 1
124.419 0 1
126.852 0 1
126.968 0 1
127.083 0 1
127.199 0 1
127.315 0 1
127.431 0 1
127.547 0 1
127.663 0 1
127.779 0 1
127.895 0 1
128.011 0 1
128.127 0 1
128.243 0 1
128.359 822 28.6705
128.476 874 29.5635
128.592 845 29.0689
128.708 790 28.1069
128.825 832 28.8444
128.941 820 28.6356
129.058 885 29.7489
129.174 925 30.4138
129.291 943 30.7083
129.408 976 31.241
129.524 968 31.1127
129.641 1002 31.6544
129.758 955 30.9031
129.875 896 29.9333
129.992 894 29.8998
130.108 793 28.1603
130.225 733 27.074
130.342 742 27.2397
130.459 758 27.5318
130.576 893 29.8831
130.693 941 30.6757
130.81 924 30.3974
130.928 924 30.3974
131.045 1049 32.3883
131.162 994 31.5278
131.279 982 31.3369
131.396 949 30.8058
131.513 1042 32.28
131.631 970 31.1448
131.748 981 31.3209
131.865 918 30.2985
131.983 893 29.8831
132.1 848 29.1204
132.217 817 28.5832
132.335 859 29.3087
132.452 860 29.3258
132.57 898 29.9666
132.687 901 30.0167
132.804 951 30.8383
132.922 1002 31.6544
133.039 1007 31.7333
133.157 1017 31.8904
133.274 977 31.257
133.392 937 30.6105
133.509 886 29.7658
133.627 862 29.3598
133.744 785 28.0179
133.862 768 27.7128
133.979 743 27.258
134.097 866 29.4279
134.214 861 29.3428
134.332 928 30.4631
134.449 935 30.5778
134.567 944 30.7246
134.684 946 30.7571
134.802 961 31
134.919 923 30.3809
135.037 940 30.6594
135.154 962 31.0161
135.272 934 30.5614
135.389 923 30.3809
135.507 876 29.5973
135.624 888 29.7993
135.742 765 27.6586
135.859 798 28.2489
135.977 818 28.6007
136.094 858 29.2916
136.211 876 29.5973
136.329 920 30.3315
136.446 922 30.3645
136.564 894 29.8998
136.681 1022 31.9687
136.798 947 30.7734
136.915 917 30.282
137.033 884 29.7321
137.15 810 28.4605
137.267 820 28.6356
137.384 769 27.7308
137.502 740 27.2029
137.619 709 26.6271
137.736 795 28.1957
137.853 776 27.8568
137.97 835 28.8964
138.087 825 28.7228
138.204 839 28.9655
138.321 872 29.5296
138.438 903 30.05
138.555 852 29.189
138.672 867 29.4449
138.788 838 28.9482
138.905 748 27.3496
139.022 793 28.1603
139.139 709 26.6271
139.255 609 24.6779
139.372 566 23.7908
139.488 540 23.2379
139.605 590 24.2899
139.721 567 23.8118
139.838 536 23.1517
139.954 581 24.1039
140.071 537 23.1733
140.187 534 23.1084
140.303 430 20.7364
140.419 392 19.799
140.535 414 20.347
140.652 366 19.1311
140.768 0 1
140.884 0 1
141 0 1
141.115 0 1
141.231 0 1
141.347 0 1
141.463 0 1
141.578 0 1
141.694 0 1
144.104 0 1
144.219 0 1
144.335 0 1
144.45 0 1
144.566 0 1
144.682 0 1
144.798 0 1
144.914 0 1
145.03 0 1
145.146 587 24.2281
145.262 588 24.2487
145.378 622 24.9399
145.494 642 25.3377
145.61 621 24.9199
145.726 664 25.7682
145.842 606 24.6171
145.959 567 23.8118
146.075 535 23.1301
146.192 526 22.9347
146.308 557 23.6008
146.425 531 23.0434
146.541 585 24.1868
146.658 611 24.7184
146.774 580 24.0832
146.891 646 25.4165
147.008 643 25.3574
147.125 620 24.8998
147.241 627 25.04
147.358 632 25.1396
147.475 653 25.5539
147.592 606 24.6171
147.709 622 24.9399
147.826 587 24.2281
147.943 637 25.2389
148.06 596 24.4131
148.177 566 23.7908
148.294 517 22.7376
148.411 555 23.5584
148.528 570 23.8747
148.645 621 24.9199
148.762 629 25.0799
148.88 686 26.1916
148.997 669 25.865
149.114 678 26.0384
149.231 604 24.5764
149.349 694 26.3439
149.466 604 24.5764
149.583 575 23.9792
149.701 561 23.6854
149.818 543 23.3024
149.935 548 23.4094
150.053 522 22.8473
150.17 500 22.3607
150.287 565 23.7697
150.405 601 24.5153
150.522 579 24.0624
150.64 581 24.1039
150.757 604 24.5764
150.875 597 24.4336
150.992 663 25.7488
151.11 620 24.8998
151.227 656 25.6125
151.344 616 24.8193
151.462 583 24.1454
151.579 579 24.0624
151.697 577 24.0208
151.814 506 22.4944
151.932 539 23.2164
152.049 584 24.1661
152.167 600 24.4949
152.284 595 24.3926
152.402 593 24.3516
152.519 619 24.8797
152.636 633 25.1595
152.754 615 24.7992
152.871 592 24.3311
152.989 599 24.4745
153.106 579 24.0624
153.223 534 23.1084
153.341 516 22.7156
153.458 455 21.3307
153.575 515 22.6936
153.693 539 23.2164
153.81 490 22.1359
153.927 559 23.6432
154.044 546 23.3666
154.162 569 23.8537
154.279 577 24.0208
154.396 568 23.8328
154.513 604 24.5764
154.63 557 23.6008
154.747 573 23.9374
154.864 571 23.8956
154.981 578 24.0416
155.098 533 23.0868
155.215 525 22.9129
155.332 511 22.6053
155.449 482 21.9545
155.566 525 22.9129
155.683 528 22.9783
155.8 488 22.0907
155.917 542 23.2809
156.033 494 22.2261
156.15 0 1
156.267 0 1
156.383 0 1
156.5 0 1
156.617 0 1
156.733 0 1
156.85 0 1
156.966 0 1
157.082 0 1
157.199 0 1
157.315 0 1
157.431 0 1
157.547 0 1
157.664 0 1
157.78 0 1
157.896 0 1
158.012 0 1
158.128 0 1
158.244 0 1
158.359 0 1
158.475 0 1
158.591 0 1
158.706 0 1
