
6.15755 0 1
6.2731 0 1
6.3887 0 1
6.50437 0 1
6.62009 0 1
6.73587 0 1
6.8517 0 1
6.96759 0 1
7.08353 0 1
7.19952 0 1
7.31557 0 1
7.43166 0 1
7.54781 0 1
7.664 0 1
7.78024 0 1
7.89653 0 1
8.01286 0 1
8.12924 0 1
8.24567 0 1
8.36213 0 1
8.47864 0 1
8.59519 0 1
8.71178 0 1
8.82841 0 1
8.94508 0 1
9.06179 0 1
9.17853 0 1
9.29531 0 1
9.41212 0 1
9.52897 0 1
9.64584 0 1
9.76276 0 1
9.8797 0 1
9.99667 0 1
10.1137 0 1
10.2307 0 1
10.3478 0 1
10.4648 0 1
10.5819 0 1
10.6991 0 1
10.8162 0 1
10.9334 0 1
11.0506 0 1
11.1678 0 1
11.285 0 1
11.4023 0 1
11.5196 0 1
11.6369 0 1
11.7542 0 1
11.8715 0 1
11.9888 0 1
12.1062 0 1
12.2235 0 1
12.3409 0 1
12.4582 0 1
12.5756 0 1
12.693 0 1
12.8104 0 1
12.9278 0 1
13.0452 0 1
13.1626 0 1
13.28 0 1
13.3974 0 1
13.5149 0 1
13.6323 0 1
13.7497 0 1
13.8671 0 1
13.9845 0 1
14.1019 0 1
14.2193 0 1
14.3367 0 1
14.4541 0 1
14.5714 0 1
14.6888 0 1
14.8062 0 1
14.9235 0 1
15.0408 860 29.3258
15.1581 864 29.3939
15.2755 887 29.7825
15.3927 943 30.7083
15.51 878 29.6311
15.6273 905 30.0832
15.7445 826 28.7402
15.8617 841 29
15.9789 792 28.1425
16.0961 827 28.7576
16.2132 802 28.3196
16.3304 779 27.9106
16.4475 830 28.8097
16.5646 808 28.4253
16.6816 786 28.0357
16.7986 733 27.074
16.9156 781 27.9464
17.0326 735 27.1109
17.1496 759 27.55
17.2665 701 26.4764
17.3833 716 26.7582
17.5002 778 27.8927
17.617 779 27.9106
17.7338 756 27.4955
17.8505 795 28.1957
17.9672 720 26.8328
18.0839 732 27.0555
18.2005 706 26.5707
18.3171 703 26.5141
18.4337 767 27.6948
18.5502 724 26.9072
18.6666 732 27.0555
18.7831 727 26.9629
18.8994 725 26.9258
19.0158 704 26.533
19.1321 733 27.074
19.2483 664 25.7682
19.3645 622 24.9399
19.4806 555 23.5584
19.5967 583 24.1454
19.7128 543 23.3024
19.8288 516 22.7156
19.9447 509 22.561
20.0606 0 1
20.1764 0 1
20.2922 0 1
20.4079 0 1
20.5236 0 1
20.6392 0 1
20.7548 0 1
20.8702 0 1
23.3078 0 1
23.4233 0 1
23.539 0 1
23.6547 0 1
23.7704 0 1
23.8862 0 1
24.0021 0 1
24.118 0 1
24.234 0 1
24.35 0 1
24.4661 320 17.8885
24.5822 348 18.6548
24.6984 394 19.8494
24.8146 510 22.5832
24.9309 593 24.3516
25.0472 617 24.8395
25.1636 668 25.8457
25.28 723 26.8887
25.3965 745 27.2947
25.513 812 28.4956
25.6296 857 29.2746
25.7462 862 29.3598
25.8628 868 29.4618
25.9795 834 28.8791
26.0962 785 28.0179
26.213 746 27.313
26.3298 746 27.313
26.4466 687 26.2107
26.5635 696 26.3818
26.6804 693 26.3249
26.7973 621 24.9199
26.9143 639 25.2784
27.0313 615 24.7992
27.1483 702 26.4953
27.2653 719 26.8142
27.3824 703 26.5141
27.4996 739 27.1846
27.6167 709 26.6271
27.7339 697 26.4008
27.8511 698 26.4197
27.9683 628 25.0599
28.0855 641 25.318
28.2028 664 25.7682
28.3201 690 26.2679
28.4374 733 27.074
28.5547 716 26.7582
28.6721 735 27.1109
28.7894 757 27.5136
28.9068 760 27.5681
29.0242 769 27.7308
29.1416 709 26.6271
29.259 738 27.1662
29.3764 715 26.7395
29.4939 657 25.632
29.6113 628 25.0599
29.7288 692 26.3059
29.8463 683 26.1343
29.9638 636 25.219
30.0812 605 24.5967
30.1987 607 24.6374
30.3162 585 24.1868
30.4337 622 24.9399
30.5512 603 24.5561
30.6687 680 26.0768
30.7862 717 26.7769
30.9037 714 26.7208
31.0212 694 26.3439
31.1387 748 27.3496
31.2562 703 26.5141
31.3737 688 26.2298
31.4912 675 25.9808
31.6087 639 25.2784
31.7262 641 25.318
31.8436 672 25.923
31.9611 689 26.2488
32.0785 642 25.3377
32.1959 699 26.4386
32.3134 635 25.1992
32.4308 685 26.1725
32.5482 680 26.0768
32.6655 592 24.3311
32.7829 644 25.3772
32.9002 609 24.6779
33.0176 605 24.5967
33.1349 619 24.8797
33.2522 594 24.3721
33.3694 601 24.5153
33.4867 650 25.4951
33.6039 632 25.1396
33.7211 583 24.1454
33.8383 562 23.7065
33.9554 581 24.1039
34.0725 592 24.3311
34.1896 642 25.3377
34.3067 626 25.02
34.4237 656 25.6125
34.5407 675 25.9808
34.6577 653 25.5539
34.7746 657 25.632
34.8915 626 25.02
35.0084 540 23.2379
35.1252 558 23.622
35.242 548 23.4094
35.3587 541 23.2594
35.4755 577 24.0208
35.5921 577 24.0208
35.7088 630 25.0998
35.8254 608 24.6577
35.9419 614 24.779
36.0584 589 24.2693
36.1749 584 24.1661
36.2913 577 24.0208
36.4077 546 23.3666
36.524 549 23.4307
36.6403 493 22.2036
36.7565 507 22.5167
36.8727 506 22.4944
36.9889 457 21.3776
37.1049 406 20.1494
37.221 0 1
37.3369 0 1
37.4529 0 1
37.5687 0 1
37.6845 0 1
37.8003 0 1
37.916 0 1
38.0316 0 1
38.1472 0 1
40.5851 0 1
40.7008 0 1
40.8164 0 1
40.9322 0 1
41.048 0 1
41.1639 0 1
41.2798 0 1
41.3958 0 1
41.5118 0 1
41.6279 0 1
41.744 244 15.6205
41.8602 295 17.1756
41.9765 359 18.9473
42.0928 358 18.9209
42.2091 396 19.8997
42.3255 417 20.4206
42.4419 488 22.0907
42.5584 471 21.7025
42.675 470 21.6795
42.7915 427 20.664
42.9081 475 21.7945
43.0248 474 21.7715
43.1415 468 21.6333
43.2582 484 22
43.375 536 23.1517
43.4918 523 22.8692
43.6087 505 22.4722
43.7256 479 21.8861
43.8425 430 20.7364
43.9595 409 20.2237
44.0765 428 20.6882
44.1935 426 20.6398
44.3106 421 20.5183
44.4277 477 21.8403
44.5448 430 20.7364
44.6619 489 22.1133
44.7791 470 21.6795
44.8963 471 21.7025
45.0136 486 22.0454
45.1308 492 22.1811
45.2481 502 22.4054
45.3654 506 22.4944
45.4827 449 21.1896
45.6001 464 21.5407
45.7174 505 22.4722
45.8348 473 21.7486
45.9522 480 21.9089
46.0697 486 22.0454
46.1871 449 21.1896
46.3046 448 21.166
46.422 456 21.3542
46.5395 443 21.0476
46.657 449 21.1896
46.7745 487 22.0681
46.892 487 22.0681
47.0096 509 22.561
47.1271 462 21.4942
47.2446 510 22.5832
47.3622 505 22.4722
47.4797 445 21.095
47.5973 414 20.347
47.7149 410 20.2485
47.8324 456 21.3542
47.95 467 21.6102
48.0675 464 21.5407
48.1851 479 21.8861
48.3027 487 22.0681
48.4202 510 22.5832
48.5378 485 22.0227
48.6554 473 21.7486
48.7729 483 21.9773
48.8904 478 21.8632
49.008 501 22.383
49.1255 479 21.8861
49.243 460 21.4476
49.3605 503 22.4277
49.478 457 21.3776
49.5955 451 21.2368
49.713 434 20.8327
49.8304 428 20.6882
49.9479 393 19.8242
50.0653 445 21.095
50.1827 463 21.5174
50.3001 420 20.4939
50.4175 397 19.9249
50.5348 451 21.2368
50.6521 454 21.3073
50.7694 459 21.4243
50.8867 439 20.9523
51.004 396 19.8997
51.1212 395 19.8746
51.2384 420 20.4939
51.3556 443 21.0476
51.4727 500 22.3607
51.5899 469 21.6564
51.707 503 22.4277
51.824 510 22.5832
51.9411 465 21.5639
52.0581 487 22.0681
52.175 459 21.4243
52.2919 491 22.1585
52.4088 462 21.4942
52.5257 506 22.4944
52.6425 439 20.9523
52.7593 476 21.8174
52.876 487 22.0681
52.9927 464 21.5407
53.1094 430 20.7364
53.226 408 20.199
53.3426 387 19.6723
53.4591 409 20.2237
53.5756 356 18.868
53.692 377 19.4165
53.8084 338 18.3848
53.9248 335 18.303
54.0411 350 18.7083
54.1573 340 18.4391
54.2735 0 1
54.3896 0 1
54.5057 0 1
54.6217 0 1
54.7377 0 1
54.8537 0 1
54.9695 0 1
55.0853 0 1
55.2011 0 1
55.3168 0 1
55.4324 0 1
57.824 0 1
57.9396 0 1
58.0553 0 1
58.1711 0 1
58.2869 0 1
58.4028 0 1
58.5187 0 1
58.6347 0 1
58.7508 0 1
58.8669 0 1
58.983 532 23.0651
59.0992 650 25.4951
59.2155 798 28.2489
59.3318 850 29.1548
59.4482 904 30.0666
59.5646 923 30.3809
59.681 993 31.5119
59.7975 1010 31.7805
59.9141 1013 31.8277
60.0306 1043 32.2955
60.1473 1010 31.7805
60.2639 1055 32.4808
60.3807 1098 33.1361
60.4974 1042 32.28
60.6142 1003 31.6702
60.731 1020 31.9374
60.8479 1042 32.28
60.9648 970 31.1448
61.0818 977 31.257
61.1987 975 31.225
61.3158 986 31.4006
61.4328 910 30.1662
61.5499 924 30.3974
61.667 858 29.2916
61.7841 800 28.2843
61.9013 715 26.7395
62.0185 752 27.4226
62.1357 789 28.0891
62.253 782 27.9643
62.3702 720 26.8328
62.4875 726 26.9444
62.6049 754 27.4591
62.7222 745 27.2947
62.8396 703 26.5141
62.9569 728 26.9815
63.0743 705 26.5518
63.1918 660 25.6905
63.3092 647 25.4362
63.4267 642 25.3377
63.5441 610 24.6982
63.6616 639 25.2784
63.7791 576 24
63.8966 593 24.3516
64.0142 563 23.7276
64.1317 567 23.8118
64.2492 606 24.6171
64.3668 570 23.8747
64.4843 558 23.622
64.6019 535 23.1301
64.7195 610 24.6982
64.837 555 23.5584
64.9546 510 22.5832
65.0722 510 22.5832
65.1898 576 24
65.3074 539 23.2164
65.4249 564 23.7487
65.5425 553 23.516
65.6601 492 22.1811
65.7777 526 22.9347
65.8952 508 22.5389
66.0128 476 21.8174
66.1304 486 22.0454
66.2479 525 22.9129
66.3655 539 23.2164
66.483 541 23.2594
66.6005 530 23.0217
66.718 577 24.0208
66.8355 577 24.0208
66.953 533 23.0868
67.0705 508 22.5389
67.1879 521 22.8254
67.3054 530 23.0217
67.4228 533 23.0868
67.5402 583 24.1454
67.6576 532 23.0651
67.7749 572 23.9165
67.8923 511 22.6053
68.0096 536 23.1517
68.1269 530 23.0217
68.2442 494 22.2261
68.3614 514 22.6716
68.4787 537 23.1733
68.5958 537 23.1733
68.713 542 23.2809
68.8302 535 23.1301
68.9473 505 22.4722
69.0643 525 22.9129
69.1814 457 21.3776
69.2984 466 21.587
69.4154 472 21.7256
69.5323 458 21.4009
69.6492 503 22.4277
69.7661 485 22.0227
69.8829 504 22.4499
69.9997 507 22.5167
70.1165 558 23.622
70.2332 475 21.7945
70.3499 418 20.445
70.4665 437 20.9045
70.5831 443 21.0476
70.6996 342 18.4932
70.8161 367 19.1572
70.9326 343 18.5203
71.049 305 17.4642
71.1653 313 17.6918
71.2817 266 16.3095
71.3979 296 17.2047
71.5141 247 15.7162
71.6303 235 15.3297
71.7464 180 13.4164
71.8624 0 1
71.9784 0 1
72.0944 0 1
72.2102 0 1
72.3261 0 1
72.4418 0 1
72.5575 0 1
72.6732 0 1
75.1054 0 1
75.2209 0 1
75.3365 0 1
75.4521 0 1
75.5678 0 1
75.6835 0 1
75.7993 0 1
75.9151 0 1
76.031 0 1
76.147 316 17.7764
76.263 341 18.4662
76.3791 421 20.5183
76.4952 407 20.1742
76.6113 412 20.2978
76.7276 439 20.9523
76.8438 430 20.7364
76.9601 463 21.5174
77.0765 424 20.5913
77.1929 447 21.1424
77.3093 433 20.8087
77.4258 426 20.6398
77.5423 433 20.8087
77.6589 468 21.6333
77.7755 429 20.7123
77.8921 460 21.4476
78.0088 435 20.8567
78.1256 401 20.025
78.2423 402 20.0499
78.3591 404 20.0998
78.4759 406 20.1494
78.5928 387 19.6723
78.7097 388 19.6977
78.8266 385 19.6214
78.9436 422 20.5426
79.0606 478 21.8632
79.1776 422 20.5426
79.2946 447 21.1424
79.4117 462 21.4942
79.5288 444 21.0713
79.6459 432 20.7846
79.7631 431 20.7605
79.8802 420 20.4939
79.9974 462 21.4942
80.1147 462 21.4942
80.2319 455 21.3307
80.3491 506 22.4944
80.4664 482 21.9545
80.5837 444 21.0713
80.701 501 22.383
80.8183 424 20.5913
80.9357 402 20.0499
81.053 442 21.0238
81.1704 444 21.0713
81.2877 493 22.2036
81.4051 477 21.8403
81.5225 480 21.9089
81.6399 451 21.2368
81.7573 445 21.095
81.8747 445 21.095
81.9922 458 21.4009
82.1096 420 20.4939
82.227 417 20.4206
82.3444 429 20.7123
82.4619 448 21.166
82.5793 423 20.567
82.6967 426 20.6398
82.8142 459 21.4243
82.9316 498 22.3159
83.049 479 21.8861
83.1664 493 22.2036
83.2838 457 21.3776
83.4012 486 22.0454
83.5186 456 21.3542
83.636 502 22.4054
83.7534 416 20.3961
83.8708 466 21.587
83.9881 491 22.1585
84.1055 487 22.0681
84.2228 463 21.5174
84.3401 488 22.0907
84.4575 455 21.3307
84.5747 472 21.7256
84.692 414 20.347
84.8093 457 21.3776
84.9265 485 22.0227
85.0437 494 22.2261
85.1609 494 22.2261
85.2781 470 21.6795
85.3952 487 22.0681
85.5123 457 21.3776
85.6294 398 19.9499
85.7465 424 20.5913
85.8636 442 21.0238
85.9806 387 19.6723
86.0976 410 20.2485
86.2145 449 21.1896
86.3315 463 21.5174
86.4484 477 21.8403
86.5652 479 21.8861
86.682 485 22.0227
86.7988 492 22.1811
86.9156 479 21.8861
87.0323 444 21.0713
87.149 454 21.3073
87.2657 436 20.8806
87.3823 477 21.8403
87.4988 473 21.7486
87.6154 484 22
87.7318 441 21
87.8483 401 20.025
87.9647 386 19.6469
88.081 342 18.4932
88.1973 335 18.303
88.3136 328 18.1108
88.4298 247 15.7162
88.546 258 16.0624
88.6621 289 17
88.7781 250 15.8114
88.8942 0 1
89.0101 0 1
89.126 0 1
89.2419 0 1
89.3577 0 1
89.4734 0 1
89.5891 0 1
89.7047 0 1
89.8203 0 1
89.9358 0 1
92.3269 0 1
92.4424 0 1
92.558 0 1
92.6736 0 1
92.7893 0 1
92.905 0 1
93.0208 0 1
93.1366 0 1
93.2525 0 1
93.3685 0 1
93.4845 0 1
93.6005 387 19.6723
93.7167 413 20.3224
93.8328 407 20.1742
93.949 456 21.3542
94.0653 474 21.7715
94.1816 479 21.8861
94.2979 478 21.8632
94.4143 476 21.8174
94.5307 475 21.7945
94.6472 435 20.8567
94.7637 450 21.2132
94.8803 477 21.8403
94.9969 463 21.5174
95.1135 441 21
95.2302 437 20.9045
95.3469 451 21.2368
95.4637 440 20.9762
95.5805 484 22
95.6973 473 21.7486
95.8142 485 22.0227
95.9311 503 22.4277
96.048 453 21.2838
96.1649 479 21.8861
96.2819 511 22.6053
96.3989 490 22.1359
96.516 502 22.4054
96.633 500 22.3607
96.7501 421 20.5183
96.8673 501 22.383
96.9844 454 21.3073
97.1016 544 23.3238
97.2188 488 22.0907
97.336 495 22.2486
97.4532 467 21.6102
97.5704 461 21.4709
97.6877 490 22.1359
97.805 478 21.8632
97.9223 528 22.9783
98.0396 526 22.9347
98.1569 502 22.4054
98.2743 494 22.2261
98.3916 440 20.9762
98.509 479 21.8861
98.6264 477 21.8403
98.7438 477 21.8403
98.8612 523 22.8692
98.9786 468 21.6333
99.096 528 22.9783
99.2134 543 23.3024
99.3308 513 22.6495
99.4482 522 22.8473
99.5656 558 23.622
99.6831 531 23.0434
99.8005 517 22.7376
99.9179 526 22.9347
100.035 523 22.8692
100.153 548 23.4094
100.27 524 22.891
100.388 537 23.1733
100.505 555 23.5584
100.622 479 21.8861
100.74 536 23.1517
100.857 540 23.2379
100.975 518 22.7596
101.092 544 23.3238
101.209 548 23.4094
101.327 553 23.516
101.444 493 22.2036
101.561 546 23.3666
101.679 539 23.2164
101.796 547 23.388
101.913 526 22.9347
102.03 488 22.0907
102.148 520 22.8035
102.265 499 22.3383
102.382 558 23.622
102.499 524 22.891
102.616 538 23.1948
102.733 534 23.1084
102.851 570 23.8747
102.968 559 23.6432
103.085 591 24.3105
103.202 646 25.4165
103.319 541 23.2594
103.436 548 23.4094
103.552 524 22.891
103.669 515 22.6936
103.786 568 23.8328
103.903 589 24.2693
104.02 579 24.0624
104.137 598 24.454
104.253 576 24
104.37 552 23.4947
104.487 546 23.3666
104.603 524 22.891
104.72 538 23.1948
104.836 529 23
104.953 493 22.2036
105.069 500 22.3607
105.186 449 21.1896
105.302 426 20.6398
105.418 387 19.6723
105.535 394 19.8494
105.651 339 18.412
105.767 337 18.3576
105.883 317 17.8045
105.999 303 17.4069
106.115 0 1
106.231 0 1
106.347 0 1
106.463 0 1
106.579 0 1
106.694 0 1
106.81 0 1
106.926 0 1
107.041 0 1
107.157 0 1
109.576 0 1
109.692 0 1
109.807 0 1
109.923 0 1
110.039 0 1
110.155 0 1
110.27 0 1
110.386 0 1
110.502 0 1
110.618 291 17.0587
110.735 334 18.2757
110.851 360 18.9737
110.967 417 20.4206
111.083 462 21.4942
111.199 474 21.7715
111.316 493 22.2036
111.432 522 22.8473
111.549 571 23.8956
111.665 505 22.4722
111.782 533 23.0868
111.898 554 23.5372
112.015 496 22.2711
112.132 490 22.1359
112.248 474 21.7715
112.365 502 22.4054
112.482 488 22.0907
112.599 485 22.0227
112.716 509 22.561
112.832 544 23.3238
112.949 534 23.1084
113.066 476 21.8174
113.183 510 22.5832
113.3 480 21.9089
113.417 491 22.1585
113.534 489 22.1133
113.652 550 23.4521
113.769 435 20.8567
113.886 455 21.3307
114.003 442 21.0238
114.12 407 20.1742
114.238 454 21.3073
114.355 424 20.5913
114.472 455 21.3307
114.589 437 20.9045
114.707 475 21.7945
114.824 462 21.4942
114.942 453 21.2838
115.059 502 22.4054
115.176 504 22.4499
115.294 505 22.4722
115.411 488 22.0907
115.529 465 21.5639
115.646 465 21.5639
115.764 432 20.7846
115.881 457 21.3776
115.999 453 21.2838
116.116 470 21.6795
116.234 453 21.2838
116.351 448 21.166
116.469 487 22.0681
116.586 449 21.1896
116.704 427 20.664
116.821 451 21.2368
116.939 451 21.2368
117.056 426 20.6398
117.174 399 19.975
117.291 454 21.3073
117.409 476 21.8174
117.526 455 21.3307
117.644 430 20.7364
117.761 435 20.8567
117.879 434 20.8327
117.996 418 20.445
118.114 412 20.2978
118.231 417 20.4206
118.349 418 20.445
118.466 447 21.1424
118.584 426 20.6398
118.701 481 21.9317
118.819 439 20.9523
118.936 425 20.6155
119.053 446 21.1187
119.171 435 20.8567
119.288 436 20.8806
119.405 418 20.445
119.523 489 22.1133
119.64 458 21.4009
119.757 436 20.8806
119.875 439 20.9523
119.992 411 20.2731
120.109 450 21.2132
120.226 454 21.3073
120.343 388 19.6977
120.46 406 20.1494
120.578 394 19.8494
120.695 404 20.0998
120.812 395 19.8746
120.929 374 19.3391
121.046 403 20.0749
121.163 444 21.0713
121.279 379 19.4679
121.396 420 20.4939
121.513 397 19.9249
121.63 408 20.199
121.747 381 19.5192
121.863 365 19.105
121.98 361 19
122.097 345 18.5742
122.213 377 19.4165
122.33 340 18.4391
122.446 346 18.6011
122.563 313 17.6918
122.679 305 17.4642
122.795 291 17.0587
122.912 267 16.3401
123.028 265 16.2788
123.144 241 15.5242
123.26 255 15.9687
123.377 0 1
123.493 0 1
123.609 0 1
123.725 0 1
123.84 0 1
123.956 0 1
124.072 0 1
124.188 0 1
124.303 0 1
124.419 0 1
126.852 0 1
126.968 0 1
127.083 0 1
127.199 0 1
127.315 0 1
127.431 0 1
127.547 0 1
127.663 0 1
127.779 0 1
127.895 0 1
128.011 0 1
128.127 0 1
128.243 0 1
128.359 463 21.5174
128.476 467 21.6102
128.592 463 21.5174
128.708 488 22.0907
128.825 491 22.1585
128.941 462 21.4942
129.058 507 22.5167
129.174 445 21.095
129.291 464 21.5407
129.408 470 21.6795
129.524 483 21.9773
129.641 483 21.9773
129.758 503 22.4277
129.875 506 22.4944
129.992 533 23.0868
130.108 492 22.1811
130.225 499 22.3383
130.342 536 23.1517
130.459 539 23.2164
130.576 576 24
130.693 581 24.1039
130.81 573 23.9374
130.928 603 24.5561
131.045 639 25.2784
131.162 624 24.98
131.279 613 24.7588
131.396 733 27.074
131.513 725 26.9258
131.631 816 28.5657
131.748 723 26.8887
131.865 764 27.6405
131.983 937 30.6105
132.1 863 29.3769
132.217 983 31.3528
132.335 1024 32
132.452 1089 33
132.57 1073 32.7567
132.687 1057 32.5115
132.804 1146 33.8526
132.922 1163 34.1028
133.039 1229 35.0571
133.157 1221 34.9428
133.274 1221 34.9428
133.392 1259 35.4824
133.509 1236 35.1568
133.627 1243 35.2562
133.744 1272 35.6651
133.862 1395 37.3497
133.979 1447 38.0395
134.097 1383 37.1887
134.214 1399 37.4032
134.332 1388 37.2559
134.449 1286 35.8608
134.567 1311 36.2077
134.684 1472 38.3667
134.802 1494 38.6523
134.919 1500 38.7298
135.037 1418 37.6563
135.154 1461 38.223
135.272 1535 39.1791
135.389 1632 40.398
135.507 1687 41.0731
135.624 1788 42.2847
135.742 1841 42.9069
135.859 1931 43.9431
135.977 2000 44.7214
136.094 2093 45.7493
136.211 2226 47.1805
136.329 2165 46.5296
136.446 2343 48.4045
136.564 2532 50.319
136.681 2544 50.4381
136.798 2712 52.0769
136.915 2905 53.8981
137.033 2950 54.3139
137.15 3107 55.7405
137.267 3236 56.8859
137.384 3318 57.6021
137.502 3649 60.407
137.619 3719 60.9836
137.736 3921 62.6179
137.853 3956 62.8967
137.97 4183 64.6761
138.087 4131 64.2729
138.204 4342 65.8939
138.321 4460 66.7832
138.438 4726 68.7459
138.555 4700 68.5565
138.672 4022 63.4192
138.788 3296 57.4108
138.905 4065 63.7574
139.022 5123 71.5751
139.139 5635 75.0666
139.255 5752 75.8419
139.372 5897 76.7919
139.488 6009 77.5177
139.605 5351 73.1505
139.721 4600 67.8233
139.838 4120 64.1872
139.954 4117 64.1639
140.071 3862 62.145
140.187 3955 62.8888
140.303 3622 60.1831
140.419 3589 59.9083
140.535 3454 58.7707
140.652 3313 57.5587
140.768 0 1
140.884 0 1
141 0 1
141.115 0 1
141.231 0 1
141.347 0 1
141.463 0 1
141.578 0 1
141.694 0 1
144.104 0 1
144.219 0 1
144.335 0 1
144.45 0 1
144.566 0 1
144.682 0 1
144.798 0 1
144.914 0 1
145.03 0 1
145.146 12436 111.517
145.262 13042 114.202
145.378 13201 114.896
145.494 12491 111.763
145.61 10322 101.597
145.726 7469 86.4234
145.842 5478 74.0135
145.959 4524 67.2607
146.075 4191 64.7379
146.192 4314 65.681
146.308 5454 73.8512
146.425 6914 83.1505
146.541 7262 85.2174
146.658 6722 81.9878
146.774 6193 78.6956
146.891 5699 75.4917
147.008 5152 71.7774
147.125 4723 68.7241
147.241 4331 65.8103
147.358 4043 63.5846
147.475 3738 61.1392
147.592 3301 57.4543
147.709 2997 54.7449
147.826 2854 53.4228
147.943 2787 52.792
148.06 2784 52.7636
148.177 2713 52.0865
148.294 2591 50.9019
148.411 2633 51.3128
148.528 2601 51
148.645 2498 49.98
148.762 2365 48.6313
148.88 2198 46.8828
148.997 2265 47.592
149.114 2130 46.1519
149.231 2207 46.9787
149.349 2105 45.8803
149.466 1993 44.643
149.583 1953 44.1928
149.701 1871 43.2551
149.818 1940 44.0454
149.935 1767 42.0357
150.053 1671 40.8779
150.17 1594 39.9249
150.287 1517 38.9487
150.405 1678 40.9634
150.522 1745 41.7732
150.64 1698 41.2068
150.757 1711 41.3642
150.875 1744 41.7612
150.992 1811 42.5558
151.11 1796 42.3792
151.227 1677 40.9512
151.344 1676 40.939
151.462 1512 38.8844
151.579 1551 39.3827
151.697 1725 41.5331
151.814 1761 41.9643
151.932 1745 41.7732
152.049 1754 41.8808
152.167 1812 42.5676
152.284 1723 41.509
152.402 1786 42.2611
152.519 1774 42.1189
152.636 1810 42.5441
152.754 1717 41.4367
152.871 1726 41.5452
152.989 1699 41.2189
153.106 1736 41.6653
153.223 1617 40.2119
153.341 1582 39.7744
153.458 1441 37.9605
153.575 1370 37.0135
153.693 1267 35.5949
153.81 1291 35.9305
153.927 1346 36.6879
154.044 1511 38.8716
154.162 1494 38.6523
154.279 1513 38.8973
154.396 1476 38.4187
154.513 1574 39.6737
154.63 1518 38.9615
154.747 1601 40.0125
154.864 1463 38.2492
154.981 1389 37.2693
155.098 1376 37.0945
155.215 1419 37.6696
155.332 1487 38.5616
155.449 1516 38.9358
155.566 1400 37.4166
155.683 1438 37.921
155.8 1453 38.1182
155.917 1397 37.3765
156.033 1330 36.4692
156.15 0 1
156.267 0 1
156.383 0 1
156.5 0 1
156.617 0 1
156.733 0 1
156.85 0 1
156.966 0 1
157.082 0 1
157.199 0 1
157.315 0 1
157.431 0 1
157.547 0 1
157.664 0 1
157.78 0 1
157.896 0 1
158.012 0 1
158.128 0 1
158.244 0 1
158.359 0 1
158.475 0 1
158.591 0 1
158.706 0 1
