
6.15755 0 1
6.2731 0 1
6.3887 0 1
6.50437 0 1
6.62009 0 1
6.73587 0 1
6.8517 0 1
6.96759 0 1
7.08353 0 1
7.19952 0 1
7.31557 0 1
7.43166 0 1
7.54781 0 1
7.664 0 1
7.78024 0 1
7.89653 0 1
8.01286 0 1
8.12924 0 1
8.24567 0 1
8.36213 0 1
8.47864 0 1
8.59519 0 1
8.71178 0 1
8.82841 0 1
8.94508 0 1
9.06179 0 1
9.17853 0 1
9.29531 0 1
9.41212 0 1
9.52897 0 1
9.64584 0 1
9.76276 0 1
9.8797 0 1
9.99667 0 1
10.1137 0 1
10.2307 0 1
10.3478 0 1
10.4648 0 1
10.5819 0 1
10.6991 0 1
10.8162 0 1
10.9334 0 1
11.0506 0 1
11.1678 0 1
11.285 0 1
11.4023 0 1
11.5196 0 1
11.6369 0 1
11.7542 0 1
11.8715 0 1
11.9888 0 1
12.1062 0 1
12.2235 0 1
12.3409 0 1
12.4582 0 1
12.5756 0 1
12.693 0 1
12.8104 0 1
12.9278 0 1
13.0452 0 1
13.1626 0 1
13.28 0 1
13.3974 0 1
13.5149 0 1
13.6323 0 1
13.7497 0 1
13.8671 0 1
13.9845 0 1
14.1019 0 1
14.2193 0 1
14.3367 0 1
14.4541 0 1
14.5714 0 1
14.6888 0 1
14.8062 0 1
14.9235 0 1
15.0408 0 0
15.1581 0 0
15.2755 0 0
15.3927 0 0
15.51 0 0
15.6273 0 0
15.7445 0 0
15.8617 0 0
15.9789 0 0
16.0961 0 0
16.2132 0 0
16.3304 0 0
16.4475 0 0
16.5646 0 0
16.6816 0 0
16.7986 0 0
16.9156 0 0
17.0326 0 0
17.1496 0 0
17.2665 0 0
17.3833 0 0
17.5002 0 0
17.617 0 0
17.7338 0 0
17.8505 0 0
17.9672 0 0
18.0839 0 0
18.2005 0 0
18.3171 0 0
18.4337 0 0
18.5502 0 0
18.6666 0 0
18.7831 0 0
18.8994 0 0
19.0158 0 0
19.1321 0 0
19.2483 0 0
19.3645 0 0
19.4806 0 0
19.5967 0 0
19.7128 0 0
19.8288 0 0
19.9447 0 0
20.0606 0 1
20.1764 0 1
20.2922 0 1
20.4079 0 1
20.5236 0 1
20.6392 0 1
20.7548 0 1
20.8702 0 1
23.3078 0 1
23.4233 0 1
23.539 0 1
23.6547 0 1
23.7704 0 1
23.8862 0 1
24.0021 0 1
24.118 0 1
24.234 0 1
24.35 0 1
24.4661 14531 120.545
24.5822 14651 121.041
24.6984 15004 122.491
24.8146 15188 123.24
24.9309 15732 125.427
25.0472 15763 125.551
25.1636 15733 125.431
25.28 15759 125.535
25.3965 16222 127.366
25.513 16191 127.244
25.6296 16233 127.409
25.7462 16043 126.661
25.8628 15514 124.555
25.9795 15244 123.467
26.0962 15092 122.85
26.213 14579 120.744
26.3298 14189 119.118
26.4466 13912 117.949
26.5635 13534 116.336
26.6804 13120 114.543
26.7973 12750 112.916
26.9143 11727 108.291
27.0313 11310 106.348
27.1483 11003 104.895
27.2653 10713 103.504
27.3824 11116 105.432
27.4996 10514 102.538
27.6167 9966 99.8299
27.7339 9510 97.5192
27.8511 8931 94.504
27.9683 8744 93.5094
28.0855 8331 91.2743
28.2028 8280 90.9945
28.3201 8247 90.813
28.4374 8431 91.8205
28.5547 8570 92.5743
28.6721 8828 93.9574
28.7894 9022 94.9842
28.9068 8977 94.747
29.0242 9164 95.7288
29.1416 9211 95.974
29.259 9026 95.0053
29.3764 9104 95.4149
29.4939 8996 94.8472
29.6113 9159 95.7027
29.7288 8933 94.5145
29.8463 8900 94.3398
29.9638 8974 94.7312
30.0812 8880 94.2338
30.1987 8868 94.1701
30.3162 8582 92.6391
30.4337 8406 91.6842
30.5512 8283 91.011
30.6687 8301 91.1098
30.7862 7966 89.2525
30.9037 8184 90.4655
31.0212 8131 90.1721
31.1387 7978 89.3197
31.2562 7715 87.8351
31.3737 7397 86.0058
31.4912 7165 84.6463
31.6087 7115 84.3505
31.7262 7033 83.863
31.8436 7221 84.9765
31.9611 7326 85.5921
32.0785 7668 87.5671
32.1959 7959 89.2132
32.3134 8013 89.5154
32.4308 8152 90.2884
32.5482 8320 91.214
32.6655 8470 92.0326
32.7829 8408 91.6951
32.9002 8278 90.9835
33.0176 8491 92.1466
33.1349 8399 91.6461
33.2522 8273 90.956
33.3694 8439 91.864
33.4867 8345 91.351
33.6039 8534 92.3797
33.7211 8420 91.7606
33.8383 8394 91.6188
33.9554 8351 91.3838
34.0725 8209 90.6035
34.1896 8048 89.7106
34.3067 7850 88.6002
34.4237 7863 88.6736
34.5407 7551 86.8965
34.6577 7766 88.1249
34.7746 7718 87.8521
34.8915 7484 86.5101
35.0084 7043 83.9226
35.1252 6902 83.0783
35.242 6766 82.2557
35.3587 6763 82.2375
35.4755 6754 82.1827
35.5921 7041 83.9107
35.7088 7146 84.534
35.8254 7421 86.1452
35.9419 7719 87.8578
36.0584 7866 88.6905
36.1749 7835 88.5155
36.2913 8103 90.0167
36.4077 7946 89.1403
36.524 8229 90.7138
36.6403 8024 89.5768
36.7565 8126 90.1443
36.8727 7988 89.3756
36.9889 8037 89.6493
37.1049 7857 88.6397
37.221 0 1
37.3369 0 1
37.4529 0 1
37.5687 0 1
37.6845 0 1
37.8003 0 1
37.916 0 1
38.0316 0 1
38.1472 0 1
40.5851 0 1
40.7008 0 1
40.8164 0 1
40.9322 0 1
41.048 0 1
41.1639 0 1
41.2798 0 1
41.3958 0 1
41.5118 0 1
41.6279 0 1
41.744 6618 81.3511
41.8602 6753 82.1766
41.9765 6870 82.8855
42.0928 6802 82.4742
42.2091 6790 82.4015
42.3255 6796 82.4379
42.4419 6624 81.388
42.5584 6901 83.0723
42.675 6855 82.7949
42.7915 6763 82.2375
42.9081 6555 80.963
43.0248 6373 79.8311
43.1415 6279 79.2401
43.2582 6148 78.4092
43.375 6122 78.2432
43.4918 6220 78.867
43.6087 5958 77.1881
43.7256 5782 76.0395
43.8425 5470 73.9594
43.9595 5220 72.2496
44.0765 4976 70.5408
44.1935 4985 70.6045
44.3106 5128 71.6101
44.4277 5376 73.3212
44.5448 5290 72.7324
44.6619 5518 74.2832
44.7791 5589 74.7596
44.8963 5530 74.364
45.0136 5611 74.9066
45.1308 5465 73.9256
45.2481 5469 73.9527
45.3654 5432 73.7021
45.4827 5487 74.0743
45.6001 5179 71.9653
45.7174 5373 73.3008
45.8348 5315 72.904
45.9522 5140 71.6938
46.0697 5098 71.4003
46.1871 4913 70.0928
46.3046 5056 71.1056
46.422 4964 70.4557
46.5395 4915 70.1071
46.657 4638 68.1029
46.7745 4591 67.7569
46.892 4440 66.6333
47.0096 4369 66.0984
47.1271 4587 67.7274
47.2446 4387 66.2344
47.3622 3996 63.2139
47.4797 3918 62.5939
47.5973 3810 61.7252
47.7149 3707 60.8851
47.8324 3715 60.9508
47.95 3680 60.663
48.0675 3923 62.6339
48.1851 4020 63.4035
48.3027 4040 63.561
48.4202 3993 63.1902
48.5378 4113 64.1327
48.6554 4179 64.6452
48.7729 4065 63.7574
48.8904 3919 62.6019
49.008 4064 63.7495
49.1255 3982 63.1031
49.243 4052 63.6553
49.3605 4006 63.293
49.478 4125 64.2262
49.5955 4058 63.7024
49.713 3955 62.8888
49.8304 4235 65.0769
49.9479 4201 64.8151
50.0653 4210 64.8845
50.1827 4203 64.8305
50.3001 4015 63.364
50.4175 4013 63.3482
50.5348 4064 63.7495
50.6521 4252 65.2074
50.7694 4260 65.2687
50.8867 4141 64.3506
51.004 4190 64.7302
51.1212 4076 63.8436
51.2384 4232 65.0538
51.3556 4336 65.8483
51.4727 4770 69.0652
51.5899 4937 70.2638
51.707 5231 72.3257
51.824 5273 72.6154
51.9411 5417 73.6003
52.0581 5733 75.7166
52.175 5760 75.8947
52.2919 5753 75.8485
52.4088 5868 76.6029
52.5257 6125 78.2624
52.6425 6060 77.846
52.7593 6193 78.6956
52.876 6269 79.177
52.9927 6266 79.1581
53.1094 6478 80.486
53.226 6408 80.05
53.3426 6383 79.8937
53.4591 6619 81.3572
53.5756 6586 81.1542
53.692 6587 81.1603
53.8084 6711 81.9207
53.9248 6512 80.697
54.0411 6275 79.2149
54.1573 6319 79.4921
54.2735 0 1
54.3896 0 1
54.5057 0 1
54.6217 0 1
54.7377 0 1
54.8537 0 1
54.9695 0 1
55.0853 0 1
55.2011 0 1
55.3168 0 1
55.4324 0 1
57.824 0 1
57.9396 0 1
58.0553 0 1
58.1711 0 1
58.2869 0 1
58.4028 0 1
58.5187 0 1
58.6347 0 1
58.7508 0 1
58.8669 0 1
58.983 7539 86.8274
59.0992 7546 86.8677
59.2155 7458 86.3597
59.3318 7344 85.6971
59.4482 7113 84.3386
59.5646 6822 82.5954
59.681 6768 82.2679
59.7975 6645 81.5169
59.9141 6718 81.9634
60.0306 7009 83.7198
60.1473 7010 83.7257
60.2639 7341 85.6796
60.3807 7295 85.4108
60.4974 7468 86.4176
60.6142 7469 86.4234
60.731 7393 85.9826
60.8479 7299 85.4342
60.9648 7362 85.8021
61.0818 7306 85.4751
61.1987 7193 84.8116
61.3158 7339 85.668
61.4328 7073 84.1011
61.5499 7172 84.6877
61.667 7148 84.5458
61.7841 7191 84.7998
61.9013 7030 83.8451
62.0185 6991 83.6122
62.1357 6997 83.6481
62.253 7031 83.8511
62.3702 6915 83.1565
62.4875 6978 83.5344
62.6049 6698 81.8413
62.7222 6664 81.6333
62.8396 6408 80.05
62.9569 6173 78.5684
63.0743 5866 76.5898
63.1918 5869 76.6094
63.3092 5810 76.2234
63.4267 5888 76.7333
63.5441 6098 78.0897
63.6616 6343 79.643
63.7791 6654 81.5721
63.8966 6484 80.5233
64.0142 6550 80.9321
64.1317 6648 81.5353
64.2492 6586 81.1542
64.3668 6396 79.975
64.4843 6554 80.9568
64.6019 6412 80.075
64.7195 6516 80.7217
64.837 6396 79.975
64.9546 6377 79.8561
65.0722 6256 79.0949
65.1898 6299 79.3662
65.3074 6380 79.8749
65.4249 6269 79.177
65.5425 6242 79.0063
65.6601 6257 79.1012
65.7777 6361 79.7559
65.8952 6207 78.7845
66.0128 6230 78.9303
66.1304 6111 78.1729
66.2479 5842 76.433
66.3655 5846 76.4591
66.483 5734 75.7232
66.6005 5655 75.1997
66.718 5255 72.4914
66.8355 5142 71.7077
66.953 5221 72.2565
67.0705 5500 74.162
67.1879 5613 74.92
67.3054 5992 77.408
67.4228 5979 77.324
67.5402 6098 78.0897
67.6576 5987 77.3757
67.7749 6098 78.0897
67.8923 6025 77.6209
68.0096 6177 78.5939
68.1269 6064 77.8717
68.2442 6128 78.2815
68.3614 6229 78.924
68.4787 6196 78.7147
68.5958 6072 77.923
68.713 6209 78.7972
68.8302 6161 78.492
68.9473 6213 78.8226
69.0643 6211 78.8099
69.1814 6236 78.9683
69.2984 6259 79.1138
69.4154 6297 79.3536
69.5323 6241 79
69.6492 6276 79.2212
69.7661 6270 79.1833
69.8829 6288 79.2969
69.9997 6196 78.7147
70.1165 5997 77.4403
70.2332 5773 75.9803
70.3499 5488 74.081
70.4665 5112 71.4983
70.5831 5357 73.1915
70.6996 5509 74.2226
70.8161 5850 76.4853
70.9326 6226 78.905
71.049 6432 80.1998
71.1653 6109 78.1601
71.2817 6238 78.981
71.3979 6224 78.8923
71.5141 6099 78.0961
71.6303 5862 76.5637
71.7464 5328 72.9932
71.8624 0 1
71.9784 0 1
72.0944 0 1
72.2102 0 1
72.3261 0 1
72.4418 0 1
72.5575 0 1
72.6732 0 1
75.1054 0 1
75.2209 0 1
75.3365 0 1
75.4521 0 1
75.5678 0 1
75.6835 0 1
75.7993 0 1
75.9151 0 1
76.031 0 1
76.147 5359 73.2052
76.263 5929 77
76.3791 5999 77.4532
76.4952 5946 77.1103
76.6113 5942 77.0844
76.7276 5995 77.4274
76.8438 5962 77.214
76.9601 5799 76.1512
77.0765 5835 76.3872
77.1929 5792 76.1052
77.3093 5691 75.4387
77.4258 5908 76.8635
77.5423 5847 76.4657
77.6589 5747 75.809
77.7755 5798 76.1446
77.8921 5742 75.776
78.0088 5808 76.2102
78.1256 5563 74.5855
78.2423 5775 75.9934
78.3591 5744 75.7892
78.4759 5496 74.135
78.5928 5619 74.96
78.7097 5607 74.8799
78.8266 5528 74.3505
78.9436 5544 74.458
79.0606 5448 73.8106
79.1776 5032 70.9366
79.2946 4578 67.6609
79.4117 4361 66.0379
79.5288 4482 66.9477
79.6459 4873 69.8069
79.7631 5054 71.0915
79.8802 5185 72.0069
79.9974 5199 72.1041
80.1147 5030 70.9225
80.2319 5218 72.2357
80.3491 4981 70.5762
80.4664 4923 70.1641
80.5837 4923 70.1641
80.701 4862 69.728
80.8183 4729 68.7677
80.9357 4907 70.05
81.053 5049 71.0563
81.1704 4751 68.9275
81.2877 4792 69.2243
81.4051 4720 68.7023
81.5225 4688 68.469
81.6399 4460 66.7832
81.7573 4632 68.0588
81.8747 4580 67.6757
81.9922 4517 67.2086
82.1096 4513 67.1789
82.227 4467 66.8356
82.3444 4515 67.1937
82.4619 4403 66.3551
82.5793 4538 67.3647
82.6967 4289 65.4905
82.8142 4221 64.9692
82.9316 3749 61.2291
83.049 3033 55.0727
83.1664 3142 56.0535
83.2838 3778 61.4654
83.4012 3916 62.578
83.5186 4023 63.4271
83.636 3960 62.9285
83.7534 3976 63.0555
83.8708 3851 62.0564
83.9881 3776 61.4492
84.1055 3896 62.4179
84.2228 3874 62.2415
84.3401 3673 60.6053
84.4575 3726 61.041
84.5747 3747 61.2127
84.692 3754 61.2699
84.8093 3765 61.3596
84.9265 3618 60.1498
85.0437 3688 60.7289
85.1609 3636 60.2993
85.2781 3570 59.7495
85.3952 3657 60.4731
85.5123 3594 59.95
85.6294 3508 59.2284
85.7465 3536 59.4643
85.8636 3620 60.1664
85.9806 3580 59.8331
86.0976 3638 60.3158
86.2145 3524 59.3633
86.3315 3453 58.7622
86.4484 3533 59.439
86.5652 3062 55.3353
86.682 2959 54.3967
86.7988 3216 56.7098
86.9156 3434 58.6003
87.0323 3292 57.376
87.149 3258 57.0789
87.2657 3247 56.9825
87.3823 3072 55.4256
87.4988 3044 55.1725
87.6154 3097 55.6507
87.7318 2945 54.2679
87.8483 2860 53.479
87.9647 2697 51.9326
88.081 2779 52.7162
88.1973 2727 52.2207
88.3136 2789 52.811
88.4298 2576 50.7543
88.546 2447 49.4672
88.6621 2415 49.1426
88.7781 2238 47.3075
88.8942 0 1
89.0101 0 1
89.126 0 1
89.2419 0 1
89.3577 0 1
89.4734 0 1
89.5891 0 1
89.7047 0 1
89.8203 0 1
89.9358 0 1
92.3269 0 1
92.4424 0 1
92.558 0 1
92.6736 0 1
92.7893 0 1
92.905 0 1
93.0208 0 1
93.1366 0 1
93.2525 0 1
93.3685 0 1
93.4845 0 1
93.6005 1978 44.4747
93.7167 2050 45.2769
93.8328 2168 46.5618
93.949 2128 46.1303
94.0653 2196 46.8615
94.1816 2215 47.0638
94.2979 2208 46.9894
94.4143 2299 47.9479
94.5307 2342 48.3942
94.6472 2447 49.4672
94.7637 2527 50.2693
94.8803 2443 49.4267
94.9969 2463 49.6286
95.1135 2523 50.2295
95.2302 2548 50.4777
95.3469 2568 50.6754
95.4637 2535 50.3488
95.5805 2449 49.4874
95.6973 2245 47.3814
95.8142 2027 45.0222
95.9311 2413 49.1223
96.048 2547 50.4678
96.1649 2656 51.5364
96.2819 2703 51.9904
96.3989 2774 52.6688
96.516 2704 52
96.633 2723 52.1824
96.7501 2732 52.2685
96.8673 2786 52.7826
96.9844 2860 53.479
97.1016 2813 53.0377
97.2188 2970 54.4977
97.336 2959 54.3967
97.4532 2996 54.7357
97.5704 3089 55.5788
97.6877 3095 55.6327
97.805 3154 56.1605
97.9223 3202 56.5862
98.0396 3134 55.9821
98.1569 3258 57.0789
98.2743 3302 57.463
98.3916 3403 58.3352
98.509 3403 58.3352
98.6264 3346 57.8446
98.7438 3507 59.2199
98.8612 3620 60.1664
98.9786 3658 60.4814
99.096 3618 60.1498
99.2134 3516 59.2959
99.3308 3378 58.1206
99.4482 3530 59.4138
99.5656 3804 61.6766
99.6831 3883 62.3137
99.8005 3901 62.458
99.9179 4126 64.2339
100.035 4007 63.3009
100.153 3987 63.1427
100.27 4104 64.0625
100.388 4201 64.8151
100.505 4206 64.8537
100.622 4235 65.0769
100.74 4460 66.7832
100.857 4435 66.5958
100.975 4401 66.34
101.092 4573 67.624
101.209 4639 68.1102
101.327 4697 68.5347
101.444 4555 67.4907
101.561 4703 68.5784
101.679 4711 68.6367
101.796 4791 69.217
101.913 4677 68.3886
102.03 4672 68.352
102.148 4779 69.1303
102.265 5177 71.9514
102.382 4407 66.3852
102.499 4981 70.5762
102.616 4793 69.2315
102.733 4657 68.2422
102.851 4232 65.0538
102.968 4380 66.1816
103.085 4513 67.1789
103.202 4702 68.5711
103.319 4796 69.2532
103.436 4837 69.5485
103.552 4796 69.2532
103.669 4706 68.6003
103.786 4605 67.8602
103.903 4697 68.5347
104.02 4658 68.2495
104.137 4626 68.0147
104.253 4496 67.0522
104.37 4432 66.5733
104.487 4485 66.9701
104.603 4615 67.9338
104.72 4447 66.6858
104.836 4363 66.053
104.953 4452 66.7233
105.069 4415 66.4455
105.186 4308 65.6354
105.302 4405 66.3702
105.418 4314 65.681
105.535 4193 64.7534
105.651 4167 64.5523
105.767 4167 64.5523
105.883 4226 65.0077
105.999 4127 64.2417
106.115 0 1
106.231 0 1
106.347 0 1
106.463 0 1
106.579 0 1
106.694 0 1
106.81 0 1
106.926 0 1
107.041 0 1
107.157 0 1
109.576 0 1
109.692 0 1
109.807 0 1
109.923 0 1
110.039 0 1
110.155 0 1
110.27 0 1
110.386 0 1
110.502 0 1
110.618 2340 48.3735
110.735 2416 49.1528
110.851 2465 49.6488
110.967 2583 50.8232
111.083 2388 48.8672
111.199 2411 49.1019
111.316 2394 48.9285
111.432 2303 47.9896
111.549 2002 44.7437
111.665 1778 42.1663
111.782 1854 43.0581
111.898 2069 45.4863
112.015 2113 45.9674
112.132 2117 46.0109
112.248 1998 44.699
112.365 1964 44.317
112.482 2038 45.1442
112.599 1927 43.8976
112.716 1868 43.2204
112.832 1880 43.359
112.949 1924 43.8634
113.066 1897 43.5546
113.183 1916 43.7721
113.3 1827 42.7434
113.417 1873 43.2782
113.534 1917 43.7836
113.652 1983 44.5309
113.769 1893 43.5086
113.886 1843 42.9302
114.003 1885 43.4166
114.12 1908 43.6807
114.238 1949 44.1475
114.355 1924 43.8634
114.472 1802 42.45
114.589 1521 39
114.707 1660 40.7431
114.824 1846 42.9651
114.942 2001 44.7325
115.059 1964 44.317
115.176 1846 42.9651
115.294 1693 41.1461
115.411 1764 42
115.529 1856 43.0813
115.646 2025 45
115.764 1998 44.699
115.881 1857 43.0929
115.999 1968 44.3621
116.116 1916 43.7721
116.234 1922 43.8406
116.351 1951 44.1701
116.469 2033 45.0888
116.586 2042 45.1885
116.704 2057 45.3542
116.821 1973 44.4185
116.939 2042 45.1885
117.056 2037 45.1331
117.174 2172 46.6047
117.291 2075 45.5522
117.409 2125 46.0977
117.526 2104 45.8694
117.644 2235 47.2758
117.761 2373 48.7134
117.879 2220 47.1169
117.996 2044 45.2106
118.114 1828 42.7551
118.231 1638 40.4722
118.349 1757 41.9166
118.466 2032 45.0777
118.584 2289 47.8435
118.701 2384 48.8262
118.819 2321 48.1768
118.936 2364 48.621
119.053 2257 47.5079
119.171 2373 48.7134
119.288 2348 48.4562
119.405 2367 48.6518
119.523 2386 48.8467
119.64 2463 49.6286
119.757 2479 49.7896
119.875 2331 48.2804
119.992 2438 49.3761
120.109 2534 50.3389
120.226 2523 50.2295
120.343 2487 49.8698
120.46 2566 50.6557
120.578 2571 50.705
120.695 2670 51.672
120.812 2642 51.4004
120.929 2683 51.7977
121.046 2692 51.8845
121.163 2792 52.8394
121.279 2711 52.0673
121.396 2900 53.8516
121.513 2846 53.3479
121.63 2597 50.9608
121.747 2388 48.8672
121.863 2075 45.5522
121.98 2079 45.5961
122.097 2073 45.5302
122.213 2588 50.8724
122.33 2870 53.5724
122.446 2966 54.461
122.563 3053 55.254
122.679 3055 55.2721
122.795 3013 54.8908
122.912 2998 54.754
123.028 3012 54.8817
123.144 2999 54.7631
123.26 2990 54.6809
123.377 0 1
123.493 0 1
123.609 0 1
123.725 0 1
123.84 0 1
123.956 0 1
124.072 0 1
124.188 0 1
124.303 0 1
124.419 0 1
126.852 0 1
126.968 0 1
127.083 0 1
127.199 0 1
127.315 0 1
127.431 0 1
127.547 0 1
127.663 0 1
127.779 0 1
127.895 0 1
128.011 0 1
128.127 0 1
128.243 0 1
128.359 4221 64.9692
128.476 4282 65.437
128.592 4256 65.238
128.708 4215 64.923
128.825 4272 65.3605
128.941 4342 65.8939
129.058 4368 66.0908
129.174 4445 66.6708
129.291 4283 65.4446
129.408 4428 66.5432
129.524 4548 67.4389
129.641 4515 67.1937
129.758 4720 68.7023
129.875 4692 68.4982
129.992 4640 68.1175
130.108 4704 68.5857
130.225 4613 67.9191
130.342 4589 67.7422
130.459 4209 64.8768
130.576 4188 64.7148
130.693 3747 61.2127
130.81 3638 60.3158
130.928 3606 60.05
131.045 3736 61.1228
131.162 4091 63.9609
131.279 4644 68.1469
131.396 4822 69.4406
131.513 5050 71.0634
131.631 5016 70.8237
131.748 5061 71.1407
131.865 4994 70.6682
131.983 5018 70.8378
132.1 5108 71.4703
132.217 5114 71.5122
132.335 5084 71.3022
132.452 5023 70.8731
132.57 5212 72.1942
132.687 5111 71.4913
132.804 5355 73.1779
132.922 5121 71.5612
133.039 5275 72.6292
133.157 5270 72.5948
133.274 5259 72.519
133.392 5367 73.2598
133.509 5395 73.4507
133.627 5429 73.6817
133.744 5355 73.1779
133.862 5120 71.5542
133.979 4968 70.484
134.097 4768 69.0507
134.214 4516 67.2012
134.332 4176 64.622
134.449 4276 65.3911
134.567 4330 65.8027
134.684 4670 68.3374
134.802 5178 71.9583
134.919 5345 73.1095
135.037 5598 74.8198
135.154 5640 75.0999
135.272 5596 74.8064
135.389 5819 76.2824
135.507 5732 75.71
135.624 5664 75.2596
135.742 5640 75.0999
135.859 5861 76.5572
135.977 5615 74.9333
136.094 5735 75.7298
136.211 5767 75.9408
136.329 5874 76.642
136.446 5678 75.3525
136.564 5738 75.7496
136.681 5805 76.1906
136.798 5843 76.4395
136.915 5730 75.6968
137.033 5884 76.7072
137.15 5872 76.629
137.267 5796 76.1315
137.384 5660 75.233
137.502 5460 73.8918
137.619 5372 73.2939
137.736 5069 71.1969
137.853 4892 69.9428
137.97 4895 69.9643
138.087 4803 69.3037
138.204 4953 70.3776
138.321 5051 71.0704
138.438 5426 73.6614
138.555 5957 77.1816
138.672 5952 77.1492
138.788 6179 78.6066
138.905 6364 79.7747
139.022 6322 79.511
139.139 6315 79.467
139.255 6346 79.6618
139.372 6243 79.0127
139.488 6411 80.0687
139.605 6205 78.7718
139.721 6467 80.4177
139.838 6377 79.8561
139.954 6245 79.0253
140.071 6157 78.4666
140.187 6491 80.5667
140.303 6270 79.1833
140.419 6172 78.5621
140.535 6153 78.4411
140.652 6483 80.5171
140.768 0 1
140.884 0 1
141 0 1
141.115 0 1
141.231 0 1
141.347 0 1
141.463 0 1
141.578 0 1
141.694 0 1
144.104 0 1
144.219 0 1
144.335 0 1
144.45 0 1
144.566 0 1
144.682 0 1
144.798 0 1
144.914 0 1
145.03 0 1
145.146 5775 75.9934
145.262 5899 76.8049
145.378 6019 77.5822
145.494 5853 76.5049
145.61 5898 76.7984
145.726 5797 76.138
145.842 5953 77.1557
145.959 5740 75.7628
146.075 5513 74.2496
146.192 5431 73.6953
146.308 5313 72.8903
146.425 4870 69.7854
146.541 4923 70.1641
146.658 4903 70.0214
146.774 4872 69.7997
146.891 4850 69.6419
147.008 4993 70.6612
147.125 5731 75.7034
147.241 5716 75.6042
147.358 5761 75.9013
147.475 6008 77.5113
147.592 5872 76.629
147.709 6138 78.3454
147.826 5987 77.3757
147.943 6117 78.2113
148.06 6051 77.7882
148.177 6018 77.5758
148.294 5972 77.2787
148.411 6042 77.7303
148.528 5937 77.0519
148.645 6075 77.9423
148.762 6106 78.1409
148.88 5920 76.9415
148.997 5950 77.1362
149.114 6168 78.5366
149.231 6127 78.2752
149.349 6045 77.7496
149.466 5818 76.2758
149.583 5754 75.8551
149.701 5430 73.6885
149.818 5395 73.4507
149.935 5219 72.2426
150.053 5162 71.8471
150.17 5107 71.4633
150.287 5065 71.1688
150.405 5036 70.9648
150.522 5176 71.9444
150.64 5435 73.7225
150.757 5598 74.8198
150.875 5646 75.1399
150.992 5529 74.3572
151.11 5698 75.4851
151.227 5870 76.6159
151.344 5950 77.1362
151.462 5963 77.2205
151.579 6247 79.038
151.697 6085 78.0064
151.814 6101 78.1089
151.932 6144 78.3837
152.049 6201 78.7464
152.167 6019 77.5822
152.284 6159 78.4793
152.402 6176 78.5875
152.519 6065 77.8781
152.636 6122 78.2432
152.754 6033 77.6724
152.871 6156 78.4602
152.989 5931 77.013
153.106 5854 76.5114
153.223 5712 75.5778
153.341 5526 74.3371
153.458 5523 74.3169
153.575 5233 72.3395
153.693 5102 71.4283
153.81 5073 71.225
153.927 5112 71.4983
154.044 5243 72.4086
154.162 5341 73.0821
154.279 5543 74.4513
154.396 5862 76.5637
154.513 5953 77.1557
154.63 6018 77.5758
154.747 6019 77.5822
154.864 6134 78.3199
154.981 6165 78.5175
155.098 6381 79.8812
155.215 6252 79.0696
155.332 6394 79.9625
155.449 6323 79.5173
155.566 6125 78.2624
155.683 6246 79.0316
155.8 6154 78.4474
155.917 6333 79.5801
156.033 6263 79.1391
156.15 0 1
156.267 0 1
156.383 0 1
156.5 0 1
156.617 0 1
156.733 0 1
156.85 0 1
156.966 0 1
157.082 0 1
157.199 0 1
157.315 0 1
157.431 0 1
157.547 0 1
157.664 0 1
157.78 0 1
157.896 0 1
158.012 0 1
158.128 0 1
158.244 0 1
158.359 0 1
158.475 0 1
158.591 0 1
158.706 0 1
