
6.15755 0 1
6.2731 0 1
6.3887 0 1
6.50437 0 1
6.62009 0 1
6.73587 0 1
6.8517 0 1
6.96759 0 1
7.08353 0 1
7.19952 0 1
7.31557 0 1
7.43166 0 1
7.54781 0 1
7.664 0 1
7.78024 0 1
7.89653 0 1
8.01286 0 1
8.12924 0 1
8.24567 0 1
8.36213 0 1
8.47864 0 1
8.59519 0 1
8.71178 0 1
8.82841 0 1
8.94508 0 1
9.06179 0 1
9.17853 0 1
9.29531 0 1
9.41212 0 1
9.52897 0 1
9.64584 0 1
9.76276 0 1
9.8797 0 1
9.99667 0 1
10.1137 0 1
10.2307 0 1
10.3478 0 1
10.4648 0 1
10.5819 0 1
10.6991 0 1
10.8162 0 1
10.9334 0 1
11.0506 0 1
11.1678 0 1
11.285 0 1
11.4023 0 1
11.5196 0 1
11.6369 0 1
11.7542 0 1
11.8715 0 1
11.9888 0 1
12.1062 0 1
12.2235 0 1
12.3409 0 1
12.4582 0 1
12.5756 0 1
12.693 0 1
12.8104 0 1
12.9278 0 1
13.0452 0 1
13.1626 0 1
13.28 0 1
13.3974 0 1
13.5149 0 1
13.6323 0 1
13.7497 0 1
13.8671 0 1
13.9845 0 1
14.1019 0 1
14.2193 0 1
14.3367 0 1
14.4541 0 1
14.5714 0 1
14.6888 0 1
14.8062 0 1
14.9235 0 1
15.0408 97956 312.979
15.1581 102530 320.203
15.2755 106380 326.159
15.3927 108026 328.673
15.51 107312 327.585
15.6273 106526 326.383
15.7445 104822 323.762
15.8617 103382 321.531
15.9789 102953 320.863
16.0961 101260 318.214
16.2132 100794 317.481
16.3304 101143 318.03
16.4475 103330 321.45
16.5646 106108 325.742
16.6816 108940 330.061
16.7986 112768 335.809
16.9156 115452 339.782
17.0326 114899 338.968
17.1496 114324 338.118
17.2665 113483 336.872
17.3833 112497 335.406
17.5002 109585 331.036
17.617 105179 324.313
17.7338 102589 320.295
17.8505 99923 316.106
17.9672 99099 314.8
18.0839 100620 317.207
18.2005 103100 321.092
18.3171 103932 322.385
18.4337 105097 324.187
18.5502 106849 326.878
18.6666 108177 328.903
18.7831 109761 331.302
18.8994 108990 330.136
19.0158 106972 327.066
19.1321 103579 321.837
19.2483 98685 314.142
19.3645 93106 305.133
19.4806 88102 296.82
19.5967 83483 288.934
19.7128 76593 276.754
19.8288 70518 265.552
19.9447 63187 251.37
20.0606 0 1
20.1764 0 1
20.2922 0 1
20.4079 0 1
20.5236 0 1
20.6392 0 1
20.7548 0 1
20.8702 0 1
23.3078 0 1
23.4233 0 1
23.539 0 1
23.6547 0 1
23.7704 0 1
23.8862 0 1
24.0021 0 1
24.118 0 1
24.234 0 1
24.35 0 1
24.4661 37214 192.909
24.5822 43929 209.592
24.6984 49502 222.49
24.8146 54934 234.38
24.9309 59717 244.371
25.0472 64946 254.845
25.1636 71100 266.646
25.28 77447 278.293
25.3965 83865 289.595
25.513 89180 298.63
25.6296 94590 307.555
25.7462 98270 313.48
25.8628 99908 316.082
25.9795 101564 318.691
26.0962 101222 318.154
26.213 99027 314.686
26.3298 94807 307.907
26.4466 91999 303.313
26.5635 89445 299.074
26.6804 88637 297.72
26.7973 89537 299.227
26.9143 90123 300.205
27.0313 90239 300.398
27.1483 92059 303.412
27.2653 93398 305.611
27.3824 93905 306.439
27.4996 94554 307.496
27.6167 92635 304.36
27.7339 90117 300.195
27.8511 88389 297.303
27.9683 86611 294.297
28.0855 84045 289.905
28.2028 82524 287.27
28.3201 79928 282.715
28.4374 77580 278.532
28.5547 76302 276.228
28.6721 77382 278.176
28.7894 80586 283.877
28.9068 83551 289.052
29.0242 87167 295.241
29.1416 90022 300.037
29.259 91786 302.962
29.3764 91619 302.686
29.4939 91250 302.076
29.6113 89826 299.71
29.7288 87259 295.396
29.8463 85461 292.337
29.9638 81627 285.704
30.0812 80104 283.027
30.1987 79813 282.512
30.3162 80360 283.478
30.4337 81110 284.798
30.5512 81631 285.711
30.6687 82722 287.614
30.7862 83454 288.884
30.9037 84974 291.503
31.0212 85539 292.471
31.1387 85127 291.765
31.2562 83504 288.971
31.3737 81882 286.15
31.4912 79628 282.184
31.6087 78253 279.737
31.7262 76219 276.078
31.8436 74341 272.655
31.9611 71040 266.533
32.0785 69868 264.326
32.1959 71355 267.124
32.3134 73866 271.783
32.4308 76642 276.843
32.5482 80229 283.247
32.6655 82172 286.657
32.7829 83200 288.444
32.9002 84017 289.857
33.0176 83008 288.111
33.1349 82901 287.925
33.2522 82458 287.155
33.3694 79798 282.485
33.4867 77690 278.729
33.6039 75587 274.931
33.7211 73582 271.26
33.8383 73251 270.649
33.9554 73532 271.168
34.0725 74008 272.044
34.1896 75229 274.279
34.3067 75789 275.298
34.4237 77149 277.757
34.5407 78010 279.303
34.6577 78942 280.966
34.7746 78527 280.227
34.8915 77487 278.365
35.0084 75590 274.936
35.1252 74337 272.648
35.242 73483 271.077
35.3587 71558 267.503
35.4755 69279 263.209
35.5921 67213 259.255
35.7088 64677 254.317
35.8254 64166 253.31
35.9419 65589 256.103
36.0584 66911 258.672
36.1749 68928 262.541
36.2913 69998 264.571
36.4077 71348 267.11
36.524 70604 265.714
36.6403 68403 261.54
36.7565 66044 256.99
36.8727 62658 250.316
36.9889 58338 241.533
37.1049 53008 230.235
37.221 0 1
37.3369 0 1
37.4529 0 1
37.5687 0 1
37.6845 0 1
37.8003 0 1
37.916 0 1
38.0316 0 1
38.1472 0 1
40.5851 0 1
40.7008 0 1
40.8164 0 1
40.9322 0 1
41.048 0 1
41.1639 0 1
41.2798 0 1
41.3958 0 1
41.5118 0 1
41.6279 0 1
41.744 32558 180.438
41.8602 37744 194.278
41.9765 41714 204.24
42.0928 44425 210.772
42.2091 45387 213.042
42.3255 46800 216.333
42.4419 46799 216.331
42.5584 47556 218.073
42.675 49403 222.268
42.7915 52283 228.655
42.9081 55205 234.957
43.0248 58247 241.344
43.1415 59556 244.041
43.2582 60707 246.388
43.375 61780 248.556
43.4918 62074 249.147
43.6087 62835 250.669
43.7256 61560 248.113
43.8425 61326 247.641
43.9595 59766 244.471
44.0765 59016 242.932
44.1935 57944 240.716
44.3106 56501 237.699
44.4277 54841 234.182
44.5448 51389 226.691
44.6619 50083 223.792
44.7791 52194 228.46
44.8963 53653 231.631
45.0136 56517 237.733
45.1308 59876 244.696
45.2481 62355 249.71
45.3654 63471 251.935
45.4827 62380 249.76
45.6001 63033 251.064
45.7174 61817 248.63
45.8348 59973 244.894
45.9522 57697 240.202
46.0697 55933 236.502
46.1871 55149 234.838
46.3046 55404 235.381
46.422 56875 238.485
46.5395 58436 241.735
46.657 59763 244.465
46.7745 61290 247.568
46.892 61860 248.717
47.0096 62845 250.689
47.1271 63575 252.141
47.2446 64204 253.385
47.3622 62562 250.124
47.4797 62291 249.582
47.5973 61220 247.427
47.7149 60154 245.263
47.8324 58197 241.241
47.95 56771 238.267
48.0675 54520 233.495
48.1851 50448 224.606
48.3027 50409 224.519
48.4202 52665 229.489
48.5378 55237 235.026
48.6554 58638 242.153
48.7729 62191 249.381
48.8904 62994 250.986
49.008 62429 249.858
49.1255 62260 249.52
49.243 60990 246.962
49.3605 58440 241.744
49.478 56586 237.878
49.5955 54490 233.431
49.713 52856 229.904
49.8304 53238 230.734
49.9479 55103 234.74
50.0653 56898 238.533
50.1827 58432 241.727
50.3001 58754 242.392
50.4175 61204 247.394
50.5348 61793 248.582
50.6521 63048 251.094
50.7694 63432 251.857
50.8867 62525 250.05
51.004 61769 248.534
51.1212 60482 245.931
51.2384 59515 243.957
51.3556 58782 242.45
51.4727 56034 236.715
51.5899 52840 229.87
51.707 49742 223.029
51.824 50805 225.4
51.9411 52934 230.074
52.0581 55819 236.26
52.175 59763 244.465
52.2919 62247 249.493
52.4088 62569 250.138
52.5257 63244 251.484
52.6425 63110 251.217
52.7593 62952 250.902
52.876 61941 248.879
52.9927 58774 242.433
53.1094 57094 238.944
53.226 55165 234.872
53.3426 53266 230.794
53.4591 52234 228.548
53.5756 52714 229.595
53.692 51878 227.767
53.8084 51444 226.813
53.9248 50129 223.895
54.0411 48376 219.945
54.1573 45791 213.988
54.2735 0 1
54.3896 0 1
54.5057 0 1
54.6217 0 1
54.7377 0 1
54.8537 0 1
54.9695 0 1
55.0853 0 1
55.2011 0 1
55.3168 0 1
55.4324 0 1
57.824 0 1
57.9396 0 1
58.0553 0 1
58.1711 0 1
58.2869 0 1
58.4028 0 1
58.5187 0 1
58.6347 0 1
58.7508 0 1
58.8669 0 1
58.983 40183 200.457
59.0992 47088 216.998
59.2155 53331 230.935
59.3318 59201 243.313
59.4482 64085 253.15
59.5646 68377 261.49
59.681 71391 267.191
59.7975 73776 271.617
59.9141 74709 273.329
60.0306 75129 274.097
60.1473 74727 273.362
60.2639 72171 268.647
60.3807 69331 263.308
60.4974 67754 260.296
60.6142 68481 261.689
60.731 71666 267.705
60.8479 76238 276.112
60.9648 80467 283.667
61.0818 83843 289.557
61.1987 85106 291.729
61.3158 85051 291.635
61.4328 84125 290.043
61.5499 82163 286.641
61.667 78962 281.002
61.7841 76664 276.883
61.9013 73927 271.895
62.0185 73413 270.948
62.1357 75800 275.318
62.253 78321 279.859
62.3702 81121 284.817
62.4875 83966 289.769
62.6049 86145 293.505
62.7222 88275 297.111
62.8396 90176 300.293
62.9569 91703 302.825
63.0743 91491 302.475
63.1918 91072 301.781
63.3092 90496 300.826
63.4267 88722 297.862
63.5441 86327 293.815
63.6616 82896 287.917
63.7791 78076 279.421
63.8966 72915 270.028
64.0142 70621 265.746
64.1317 71891 268.125
64.2492 74516 272.976
64.3668 79530 282.011
64.4843 85414 292.257
64.6019 89126 298.54
64.7195 90634 301.055
64.837 91470 302.44
64.9546 90563 300.937
65.0722 89920 299.867
65.1898 86524 294.15
65.3074 82049 286.442
65.4249 79792 282.475
65.5425 77606 278.579
65.6601 78124 279.507
65.7777 81824 286.049
65.8952 85711 292.764
66.0128 88884 298.134
66.1304 91829 303.033
66.2479 94342 307.151
66.3655 97514 312.272
66.483 98361 313.626
66.6005 100189 316.526
66.718 98990 314.627
66.8355 98583 313.979
66.953 97705 312.578
67.0705 95057 308.313
67.1879 92624 304.342
67.3054 88845 298.069
67.4228 83522 289.002
67.5402 76500 276.586
67.6576 74265 272.516
67.7749 75316 274.438
67.8923 79067 281.189
68.0096 85727 292.792
68.1269 92974 304.916
68.2442 98436 313.745
68.3614 100678 317.298
68.4787 100120 316.417
68.5958 101366 318.38
68.713 99098 314.798
68.8302 96305 310.33
68.9473 91218 302.023
69.0643 87348 295.547
69.1814 85307 292.074
69.2984 85138 291.784
69.4154 89399 298.997
69.5323 93686 306.082
69.6492 97450 312.17
69.7661 101769 319.013
69.8829 104456 323.197
69.9997 104724 323.611
70.1165 103602 321.873
70.2332 101647 318.821
70.3499 98968 314.592
70.4665 95451 308.951
70.5831 91097 301.823
70.6996 86428 293.986
70.8161 81784 285.979
70.9326 75416 274.62
71.049 66471 257.82
71.1653 55773 236.163
71.2817 45427 213.136
71.3979 39525 198.809
71.5141 37444 193.505
71.6303 36231 190.344
71.7464 32840 181.218
71.8624 0 1
71.9784 0 1
72.0944 0 1
72.2102 0 1
72.3261 0 1
72.4418 0 1
72.5575 0 1
72.6732 0 1
75.1054 0 1
75.2209 0 1
75.3365 0 1
75.4521 0 1
75.5678 0 1
75.6835 0 1
75.7993 0 1
75.9151 0 1
76.031 0 1
76.147 68285 261.314
76.263 72922 270.041
76.3791 74758 273.419
76.4952 74003 272.035
76.6113 73617 271.325
76.7276 74718 273.346
76.8438 81330 285.184
76.9601 87691 296.127
77.0765 95255 308.634
77.1929 104506 323.274
77.3093 109517 330.934
77.4258 110264 332.06
77.5423 110224 332
77.6589 109467 330.858
77.7755 105556 324.894
77.8921 99545 315.508
78.0088 93873 306.387
78.1256 89697 299.495
78.2423 87252 295.384
78.3591 87852 296.398
78.4759 93433 305.668
78.5928 99128 314.846
78.7097 102778 320.59
78.8266 106125 325.768
78.9436 109749 331.284
79.0606 109998 331.659
79.1776 112231 335.009
79.2946 112945 336.073
79.4117 112875 335.969
79.5288 111459 333.855
79.6459 110343 332.179
79.7631 106661 326.59
79.8802 102974 320.896
79.9974 98467 313.795
80.1147 92493 304.127
80.2319 84854 291.297
80.3491 80174 283.15
80.4664 83049 288.182
80.5837 87340 295.533
80.701 93807 306.279
80.8183 101997 319.37
80.9357 107041 327.171
81.053 109256 330.539
81.1704 108541 329.456
81.2877 108343 329.155
81.4051 107243 327.48
81.5225 100956 317.736
81.6399 96387 310.463
81.7573 88548 297.57
81.8747 86033 293.314
81.9922 82399 287.052
82.1096 86923 294.827
82.227 91839 303.05
82.3444 96427 310.527
82.4619 100619 317.205
82.5793 103734 322.078
82.6967 103786 322.158
82.8142 104779 323.696
82.9316 106002 325.579
83.049 105466 324.755
83.1664 103567 321.818
83.2838 101478 318.556
83.4012 98390 313.672
83.5186 94639 307.635
83.636 89954 299.923
83.7534 85549 292.488
83.8708 78534 280.239
83.9881 72166 268.637
84.1055 71774 267.907
84.2228 75481 274.738
84.3401 79909 282.682
84.4575 85530 292.455
84.5747 92927 304.839
84.692 95448 308.947
84.8093 97064 311.551
84.9265 93924 306.47
85.0437 91607 302.666
85.1609 86190 293.581
85.2781 79460 281.887
85.3952 74816 273.525
85.5123 72479 269.219
85.6294 72604 269.451
85.7465 77889 279.086
85.8636 82019 286.39
85.9806 84032 289.883
86.0976 87323 295.505
86.2145 89093 298.485
86.3315 89589 299.314
86.4484 91008 301.675
86.5652 90951 301.581
86.682 90508 300.845
86.7988 89350 298.915
86.9156 86636 294.34
87.0323 83611 289.156
87.149 80568 283.845
87.2657 76096 275.855
87.3823 69616 263.848
87.4988 60583 246.136
87.6154 55575 235.744
87.7318 54706 233.893
87.8483 56448 237.588
87.9647 58523 241.915
88.081 63057 251.112
88.1973 64530 254.028
88.3136 62617 250.234
88.4298 59034 242.969
88.546 53247 230.753
88.6621 47274 217.426
88.7781 37852 194.556
88.8942 0 1
89.0101 0 1
89.126 0 1
89.2419 0 1
89.3577 0 1
89.4734 0 1
89.5891 0 1
89.7047 0 1
89.8203 0 1
89.9358 0 1
92.3269 0 1
92.4424 0 1
92.558 0 1
92.6736 0 1
92.7893 0 1
92.905 0 1
93.0208 0 1
93.1366 0 1
93.2525 0 1
93.3685 0 1
93.4845 0 1
93.6005 45867 214.166
93.7167 50385 224.466
93.8328 54314 233.054
93.949 57403 239.589
94.0653 59324 243.565
94.1816 61389 247.768
94.2979 61335 247.659
94.4143 59800 244.54
94.5307 59316 243.549
94.6472 58129 241.1
94.7637 57697 240.202
94.8803 59164 243.237
94.9969 63086 251.169
95.1135 66086 257.072
95.2302 68514 261.752
95.3469 70049 264.668
95.4637 72029 268.382
95.5805 72869 269.943
95.6973 74065 272.149
95.8142 74004 272.037
95.9311 71695 267.759
96.048 71538 267.466
96.1649 69794 264.186
96.2819 67484 259.777
96.3989 64316 253.606
96.516 62064 249.126
96.633 58875 242.642
96.7501 54376 233.187
96.8673 51016 225.867
96.9844 51406 226.729
97.1016 52799 229.78
97.2188 56113 236.882
97.336 60684 246.341
97.4532 66007 256.918
97.5704 68025 260.816
97.6877 68696 262.099
97.805 67229 259.286
97.9223 65456 255.844
98.0396 60545 246.059
98.1569 57325 239.426
98.2743 54248 232.912
98.3916 52928 230.061
98.509 53969 232.312
98.6264 58562 241.996
98.7438 62036 249.07
98.8612 64637 254.238
98.9786 66349 257.583
99.096 68445 261.62
99.2134 70102 264.768
99.3308 70911 266.291
99.4482 71019 266.494
99.5656 71182 266.8
99.6831 70549 265.611
99.8005 69464 263.56
99.9179 67120 259.075
100.035 64061 253.103
100.153 60686 246.345
100.27 56931 238.602
100.388 53193 230.636
100.505 51801 227.598
100.622 52705 229.576
100.74 55959 236.557
100.857 60266 245.491
100.975 63752 252.492
101.092 66765 258.389
101.209 67422 259.657
101.327 66459 257.796
101.444 66058 257.018
101.561 62676 250.352
101.679 58222 241.292
101.796 55470 235.521
101.913 52535 229.205
102.03 53514 231.331
102.148 57090 238.935
102.265 60891 246.761
102.382 65364 255.664
102.499 67182 259.195
102.616 69149 262.962
102.733 69569 263.759
102.851 71587 267.557
102.968 71115 266.674
103.085 71043 266.539
103.202 71253 266.933
103.319 69889 264.365
103.436 66880 258.612
103.552 64299 253.572
103.669 61941 248.879
103.786 57757 240.327
103.903 53356 230.989
104.02 51863 227.734
104.137 53118 230.473
104.253 55581 235.756
104.37 61817 248.63
104.487 65498 255.926
104.603 67630 260.058
104.72 67187 259.205
104.836 64017 253.016
104.953 60241 245.44
105.069 56007 236.658
105.186 51779 227.55
105.302 48865 221.054
105.418 46810 216.356
105.535 45536 213.392
105.651 45766 213.93
105.767 44892 211.877
105.883 43467 208.487
105.999 40958 202.381
106.115 0 1
106.231 0 1
106.347 0 1
106.463 0 1
106.579 0 1
106.694 0 1
106.81 0 1
106.926 0 1
107.041 0 1
107.157 0 1
109.576 0 1
109.692 0 1
109.807 0 1
109.923 0 1
110.039 0 1
110.155 0 1
110.27 0 1
110.386 0 1
110.502 0 1
110.618 22840 151.129
110.735 30689 175.183
110.851 36849 191.961
110.967 41434 203.553
111.083 45975 214.418
111.199 49680 222.89
111.316 53682 231.694
111.432 56204 237.074
111.549 57294 239.362
111.665 58938 242.771
111.782 59447 243.818
111.898 59543 244.014
112.015 57557 239.91
112.132 54629 233.728
112.248 52376 228.858
112.365 48670 220.613
112.482 45052 212.255
112.599 46237 215.028
112.716 47128 217.09
112.832 49244 221.91
112.949 52120 228.298
113.066 56000 236.643
113.183 57099 238.954
113.3 57971 240.772
113.417 57353 239.485
113.534 56065 236.78
113.652 53015 230.25
113.769 49921 223.43
113.886 47251 217.373
114.003 45759 213.914
114.12 46110 214.732
114.238 50199 224.051
114.355 53305 230.879
114.472 53581 231.476
114.589 60274 245.508
114.707 59970 244.888
114.824 61670 248.334
114.942 61549 248.091
115.059 62399 249.798
115.176 61994 248.986
115.294 61298 247.584
115.411 60269 245.497
115.529 58599 242.072
115.646 55485 235.553
115.764 52700 229.565
115.881 50250 224.165
115.999 46384 215.369
116.116 44790 211.636
116.234 45997 214.469
116.351 47603 218.181
116.469 50012 223.634
116.586 53086 230.404
116.704 55437 235.451
116.821 56136 236.93
116.939 56444 237.579
117.056 55812 236.246
117.174 53984 232.345
117.291 50159 223.962
117.409 47597 218.167
117.526 45781 213.965
117.644 45136 212.452
117.761 47836 218.714
117.879 51894 227.803
117.996 54251 232.918
118.114 56554 237.811
118.231 58996 242.891
118.349 58857 242.605
118.466 59476 243.877
118.584 60202 245.361
118.701 60323 245.607
118.819 59960 244.867
118.936 58435 241.733
119.053 57692 240.192
119.171 55002 234.525
119.288 52688 229.539
119.405 50621 224.991
119.523 46851 216.451
119.64 44189 210.212
119.757 43790 209.261
119.875 44385 210.677
119.992 45898 214.238
120.109 48315 219.807
120.226 51432 226.786
120.343 52362 228.827
120.46 53212 230.677
120.578 53606 231.53
120.695 52998 230.213
120.812 51742 227.469
120.929 48640 220.545
121.046 45496 213.298
121.163 43222 207.899
121.279 42399 205.91
121.396 43362 208.235
121.513 45871 214.175
121.63 47792 218.614
121.747 48243 219.643
121.863 48305 219.784
121.98 49174 221.752
122.097 48727 220.742
122.213 47941 218.954
122.33 46969 216.723
122.446 45557 213.441
122.563 43181 207.8
122.679 40270 200.674
122.795 37236 192.966
122.912 33490 183.003
123.028 29286 171.132
123.144 25349 159.214
123.26 22180 148.93
123.377 0 1
123.493 0 1
123.609 0 1
123.725 0 1
123.84 0 1
123.956 0 1
124.072 0 1
124.188 0 1
124.303 0 1
124.419 0 1
126.852 0 1
126.968 0 1
127.083 0 1
127.199 0 1
127.315 0 1
127.431 0 1
127.547 0 1
127.663 0 1
127.779 0 1
127.895 0 1
128.011 0 1
128.127 0 1
128.243 0 1
128.359 51388 226.689
128.476 52266 228.618
128.592 52929 230.063
128.708 50856 225.513
128.825 49238 221.896
128.941 49961 223.52
129.058 51313 226.524
129.174 54188 232.783
129.291 56721 238.162
129.408 59675 244.285
129.524 60231 245.42
129.641 60565 246.1
129.758 60907 246.793
129.875 59427 243.777
129.992 56099 236.852
130.108 52975 230.163
130.225 50982 225.792
130.342 49617 222.749
130.459 50598 224.94
130.576 55685 235.977
130.693 57703 240.214
130.81 59126 243.158
130.928 60400 245.764
131.045 61650 248.294
131.162 62256 249.512
131.279 62901 250.801
131.396 63336 251.666
131.513 63137 251.271
131.631 61324 247.637
131.748 60656 246.284
131.865 58831 242.551
131.983 57316 239.408
132.1 55988 236.618
132.217 52993 230.202
132.335 50572 224.882
132.452 50427 224.56
132.57 52191 228.453
132.687 54251 232.918
132.804 55843 236.311
132.922 58798 242.483
133.039 60321 245.603
133.157 60813 246.603
133.274 60748 246.471
133.392 59787 244.514
133.509 57537 239.869
133.627 54275 232.97
133.744 52045 228.134
133.862 49879 223.336
133.979 50457 224.626
134.097 54462 233.371
134.214 57049 238.849
134.332 58302 241.458
134.449 59695 244.326
134.567 61048 247.079
134.684 61183 247.352
134.802 62233 249.465
134.919 62213 249.425
135.037 61870 248.737
135.154 60903 246.785
135.272 60107 245.167
135.389 59178 243.265
135.507 58017 240.867
135.624 56874 238.483
135.742 54752 233.991
135.859 51636 227.236
135.977 51075 225.998
136.094 51649 227.264
136.211 53462 231.219
136.329 55687 235.981
136.446 58725 242.332
136.564 60432 245.829
136.681 61306 247.6
136.798 60931 246.842
136.915 61151 247.287
137.033 59730 244.397
137.15 56343 237.367
137.267 53838 232.03
137.384 51650 227.266
137.502 49827 223.22
137.619 50319 224.319
137.736 53732 231.802
137.853 54741 233.968
137.97 57934 240.695
138.087 57711 240.231
138.204 59762 244.463
138.321 60477 245.921
138.438 61047 247.077
138.555 61294 247.576
138.672 60179 245.314
138.788 57279 239.33
138.905 55509 235.603
139.022 52443 229.004
139.139 50046 223.71
139.255 47363 217.63
139.372 43973 209.697
139.488 40021 200.052
139.605 36918 192.141
139.721 35984 189.694
139.838 35796 189.198
139.954 35547 188.539
140.071 36166 190.174
140.187 33902 184.125
140.303 31081 176.298
140.419 28641 169.237
140.535 26911 164.046
140.652 24903 157.807
140.768 0 1
140.884 0 1
141 0 1
141.115 0 1
141.231 0 1
141.347 0 1
141.463 0 1
141.578 0 1
141.694 0 1
144.104 0 1
144.219 0 1
144.335 0 1
144.45 0 1
144.566 0 1
144.682 0 1
144.798 0 1
144.914 0 1
145.03 0 1
145.146 39192 197.97
145.262 42569 206.323
145.378 44919 211.941
145.494 46758 216.236
145.61 48007 219.105
145.726 47682 218.362
145.842 46406 215.421
145.959 44390 210.689
146.075 41943 204.8
146.192 40946 202.351
146.308 39677 199.191
146.425 39453 198.628
146.541 41474 203.652
146.658 43087 207.574
146.774 45044 212.236
146.891 45855 214.138
147.008 47112 217.053
147.125 46982 216.753
147.241 47968 219.016
147.358 48367 219.925
147.475 48270 219.704
147.592 47548 218.055
147.709 47060 216.933
147.826 45903 214.25
147.943 44947 212.007
148.06 44649 211.303
148.177 42439 206.007
148.294 40935 202.324
148.411 40649 201.616
148.528 41035 202.571
148.645 42384 205.874
148.762 43832 209.361
148.88 45870 214.173
148.997 48038 219.176
149.114 46676 216.046
149.231 46894 216.55
149.349 47395 217.704
149.466 46126 214.77
149.583 44376 210.656
149.701 42217 205.468
149.818 40265 200.661
149.935 39038 197.58
150.053 38689 196.695
150.17 40129 200.322
150.287 42222 205.48
150.405 43434 208.408
150.522 45038 212.222
150.64 45506 213.321
150.757 45957 214.376
150.875 47029 216.862
150.992 46675 216.044
151.11 46775 216.275
151.227 46684 216.065
151.344 46069 214.637
151.462 45082 212.325
151.579 44674 211.362
151.697 43599 208.804
151.814 41776 204.392
151.932 40594 201.48
152.049 39793 199.482
152.167 39935 199.837
152.284 40986 202.45
152.402 42609 206.419
152.519 44397 210.706
152.636 45744 213.878
152.754 45518 213.349
152.871 45729 213.843
152.989 44793 211.644
153.106 44037 209.85
153.223 42389 205.886
153.341 39805 199.512
153.458 39248 198.111
153.575 37914 194.715
153.693 39018 197.53
153.81 40033 200.082
153.927 41852 204.578
154.044 42513 206.187
154.162 44057 209.898
154.279 44186 210.205
154.396 45471 213.239
154.513 45878 214.192
154.63 45743 213.876
154.747 45518 213.349
154.864 45603 213.549
154.981 44594 211.173
155.098 43510 208.591
155.215 42472 206.087
155.332 41244 203.086
155.449 39767 199.417
155.566 38309 195.727
155.683 37644 194.021
155.8 37745 194.281
155.917 37937 194.774
156.033 38371 195.885
156.15 0 1
156.267 0 1
156.383 0 1
156.5 0 1
156.617 0 1
156.733 0 1
156.85 0 1
156.966 0 1
157.082 0 1
157.199 0 1
157.315 0 1
157.431 0 1
157.547 0 1
157.664 0 1
157.78 0 1
157.896 0 1
158.012 0 1
158.128 0 1
158.244 0 1
158.359 0 1
158.475 0 1
158.591 0 1
158.706 0 1
