
6.15755 0 1
6.2731 0 1
6.3887 0 1
6.50437 0 1
6.62009 0 1
6.73587 0 1
6.8517 0 1
6.96759 0 1
7.08353 0 1
7.19952 0 1
7.31557 0 1
7.43166 0 1
7.54781 0 1
7.664 0 1
7.78024 0 1
7.89653 0 1
8.01286 0 1
8.12924 0 1
8.24567 0 1
8.36213 0 1
8.47864 0 1
8.59519 0 1
8.71178 0 1
8.82841 0 1
8.94508 0 1
9.06179 0 1
9.17853 0 1
9.29531 0 1
9.41212 0 1
9.52897 0 1
9.64584 0 1
9.76276 0 1
9.8797 0 1
9.99667 0 1
10.1137 0 1
10.2307 0 1
10.3478 0 1
10.4648 0 1
10.5819 0 1
10.6991 0 1
10.8162 0 1
10.9334 0 1
11.0506 0 1
11.1678 0 1
11.285 0 1
11.4023 0 1
11.5196 0 1
11.6369 0 1
11.7542 0 1
11.8715 0 1
11.9888 0 1
12.1062 0 1
12.2235 0 1
12.3409 0 1
12.4582 0 1
12.5756 0 1
12.693 0 1
12.8104 0 1
12.9278 0 1
13.0452 0 1
13.1626 0 1
13.28 0 1
13.3974 0 1
13.5149 0 1
13.6323 0 1
13.7497 0 1
13.8671 0 1
13.9845 0 1
14.1019 0 1
14.2193 0 1
14.3367 0 1
14.4541 0 1
14.5714 0 1
14.6888 0 1
14.8062 0 1
14.9235 0 1
15.0408 0 0
15.1581 0 0
15.2755 0 0
15.3927 0 0
15.51 0 0
15.6273 0 0
15.7445 0 0
15.8617 0 0
15.9789 0 0
16.0961 0 0
16.2132 0 0
16.3304 0 0
16.4475 0 0
16.5646 0 0
16.6816 0 0
16.7986 0 0
16.9156 0 0
17.0326 0 0
17.1496 0 0
17.2665 0 0
17.3833 0 0
17.5002 0 0
17.617 0 0
17.7338 0 0
17.8505 0 0
17.9672 0 0
18.0839 0 0
18.2005 0 0
18.3171 0 0
18.4337 0 0
18.5502 0 0
18.6666 0 0
18.7831 0 0
18.8994 0 0
19.0158 0 0
19.1321 0 0
19.2483 0 0
19.3645 0 0
19.4806 0 0
19.5967 0 0
19.7128 0 0
19.8288 0 0
19.9447 0 0
20.0606 0 1
20.1764 0 1
20.2922 0 1
20.4079 0 1
20.5236 0 1
20.6392 0 1
20.7548 0 1
20.8702 0 1
23.3078 0 1
23.4233 0 1
23.539 0 1
23.6547 0 1
23.7704 0 1
23.8862 0 1
24.0021 0 1
24.118 0 1
24.234 0 1
24.35 0 1
24.4661 3309 57.5239
24.5822 3244 56.9561
24.6984 3280 57.2713
24.8146 3182 56.4092
24.9309 3108 55.7494
25.0472 3063 55.3444
25.1636 3029 55.0364
25.28 3152 56.1427
25.3965 3113 55.7943
25.513 3209 56.648
25.6296 3302 57.463
25.7462 3493 59.1016
25.8628 3522 59.3464
25.9795 3530 59.4138
26.0962 3469 58.8982
26.213 3456 58.7878
26.3298 3417 58.4551
26.4466 3222 56.7627
26.5635 3200 56.5685
26.6804 2998 54.754
26.7973 3025 55
26.9143 3059 55.3082
27.0313 3122 55.8749
27.1483 3257 57.0701
27.2653 3305 57.4891
27.3824 3241 56.9298
27.4996 3260 57.0964
27.6167 3252 57.0263
27.7339 3140 56.0357
27.8511 3080 55.4977
27.9683 3071 55.4166
28.0855 2966 54.461
28.2028 2920 54.037
28.3201 2880 53.6656
28.4374 2848 53.3667
28.5547 2752 52.4595
28.6721 2693 51.8941
28.7894 2708 52.0384
28.9068 2769 52.6213
29.0242 2771 52.6403
29.1416 2831 53.2071
29.259 2870 53.5724
29.3764 2894 53.7959
29.4939 2864 53.5164
29.6113 2939 54.2125
29.7288 2866 53.535
29.8463 2856 53.4416
29.9638 2783 52.7541
30.0812 2660 51.5752
30.1987 2690 51.8652
30.3162 2517 50.1697
30.4337 2642 51.4004
30.5512 2755 52.4881
30.6687 2794 52.8583
30.7862 2874 53.6097
30.9037 2904 53.8888
31.0212 2932 54.1479
31.1387 2963 54.4334
31.2562 2943 54.2494
31.3737 2924 54.074
31.4912 2696 51.923
31.6087 2778 52.7067
31.7262 2740 52.345
31.8436 2584 50.8331
31.9611 2533 50.3289
32.0785 2545 50.448
32.1959 2394 48.9285
32.3134 2435 49.3457
32.4308 2624 51.225
32.5482 2543 50.4282
32.6655 2547 50.4678
32.7829 2640 51.3809
32.9002 2684 51.8073
33.0176 2727 52.2207
33.1349 2701 51.9711
33.2522 2674 51.7107
33.3694 2710 52.0577
33.4867 2679 51.7591
33.6039 2581 50.8035
33.7211 2625 51.2348
33.8383 2426 49.2544
33.9554 2333 48.3011
34.0725 2489 49.8899
34.1896 2654 51.517
34.3067 2612 51.1077
34.4237 2744 52.3832
34.5407 2720 52.1536
34.6577 2814 53.0471
34.7746 2813 53.0377
34.8915 2824 53.1413
35.0084 2756 52.4976
35.1252 2729 52.2398
35.242 2527 50.2693
35.3587 2697 51.9326
35.4755 2535 50.3488
35.5921 2527 50.2693
35.7088 2408 49.0714
35.8254 2411 49.1019
35.9419 2230 47.2229
36.0584 2434 49.3356
36.1749 2390 48.8876
36.2913 2366 48.6415
36.4077 2425 49.2443
36.524 2502 50.02
36.6403 2649 51.4684
36.7565 2514 50.1398
36.8727 2546 50.4579
36.9889 2579 50.7839
37.1049 2569 50.6853
37.221 0 1
37.3369 0 1
37.4529 0 1
37.5687 0 1
37.6845 0 1
37.8003 0 1
37.916 0 1
38.0316 0 1
38.1472 0 1
40.5851 0 1
40.7008 0 1
40.8164 0 1
40.9322 0 1
41.048 0 1
41.1639 0 1
41.2798 0 1
41.3958 0 1
41.5118 0 1
41.6279 0 1
41.744 1901 43.6005
41.8602 2054 45.3211
41.9765 1950 44.1588
42.0928 2047 45.2438
42.2091 2028 45.0333
42.3255 2022 44.9667
42.4419 1983 44.5309
42.5584 1855 43.0697
42.675 1770 42.0714
42.7915 1819 42.6497
42.9081 1855 43.0697
43.0248 1993 44.643
43.1415 2038 45.1442
43.2582 1974 44.4297
43.375 2183 46.7226
43.4918 2046 45.2327
43.6087 2041 45.1774
43.7256 1971 44.3959
43.8425 1942 44.0681
43.9595 1908 43.6807
44.0765 1978 44.4747
44.1935 1910 43.7035
44.3106 1840 42.8952
44.4277 1791 42.3202
44.5448 1638 40.4722
44.6619 1553 39.4081
44.7791 1500 38.7298
44.8963 1548 39.3446
45.0136 1556 39.4462
45.1308 1524 39.0384
45.2481 1598 39.975
45.3654 1631 40.3856
45.4827 1723 41.509
45.6001 1579 39.7366
45.7174 1646 40.5709
45.8348 1655 40.6817
45.9522 1618 40.2244
46.0697 1477 38.4318
46.1871 1440 37.9473
46.3046 1419 37.6696
46.422 1389 37.2693
46.5395 1501 38.7427
46.657 1519 38.9744
46.7745 1501 38.7427
46.892 1587 39.8372
47.0096 1536 39.1918
47.1271 1482 38.4968
47.2446 1586 39.8246
47.3622 1551 39.3827
47.4797 1506 38.8072
47.5973 1476 38.4187
47.7149 1489 38.5876
47.8324 1410 37.55
47.95 1306 36.1386
48.0675 1258 35.4683
48.1851 1222 34.9571
48.3027 1104 33.2265
48.4202 1144 33.8231
48.5378 1180 34.3511
48.6554 1242 35.242
48.7729 1222 34.9571
48.8904 1239 35.1994
49.008 1315 36.2629
49.1255 1313 36.2353
49.243 1399 37.4032
49.3605 1313 36.2353
49.478 1279 35.7631
49.5955 1235 35.1426
49.713 1157 34.0147
49.8304 1182 34.3802
49.9479 1241 35.2278
50.0653 1378 37.1214
50.1827 1366 36.9594
50.3001 1470 38.3406
50.4175 1554 39.4208
50.5348 1506 38.8072
50.6521 1610 40.1248
50.7694 1753 41.8688
50.8867 1711 41.3642
51.004 1716 41.4246
51.1212 1790 42.3084
51.2384 1779 42.1782
51.3556 1663 40.7799
51.4727 1591 39.8873
51.5899 1582 39.7744
51.707 1570 39.6232
51.824 1422 37.7094
51.9411 1560 39.4968
52.0581 1539 39.2301
52.175 1620 40.2492
52.2919 1630 40.3733
52.4088 1683 41.0244
52.5257 1782 42.2137
52.6425 1824 42.7083
52.7593 1801 42.4382
52.876 1782 42.2137
52.9927 1887 43.4396
53.1094 1698 41.2068
53.226 1742 41.7373
53.3426 1754 41.8808
53.4591 1736 41.6653
53.5756 1715 41.4126
53.692 1951 44.1701
53.8084 1970 44.3847
53.9248 2091 45.7275
54.0411 2106 45.8912
54.1573 2166 46.5403
54.2735 0 1
54.3896 0 1
54.5057 0 1
54.6217 0 1
54.7377 0 1
54.8537 0 1
54.9695 0 1
55.0853 0 1
55.2011 0 1
55.3168 0 1
55.4324 0 1
57.824 0 1
57.9396 0 1
58.0553 0 1
58.1711 0 1
58.2869 0 1
58.4028 0 1
58.5187 0 1
58.6347 0 1
58.7508 0 1
58.8669 0 1
58.983 2341 48.3839
59.0992 2439 49.3862
59.2155 2541 50.4083
59.3318 2617 51.1566
59.4482 2812 53.0283
59.5646 2694 51.9038
59.681 2692 51.8845
59.7975 2537 50.3686
59.9141 2563 50.6261
60.0306 2435 49.3457
60.1473 2421 49.2037
60.2639 2205 46.9574
60.3807 1999 44.7102
60.4974 1995 44.6654
60.6142 2045 45.2217
60.731 1952 44.1814
60.8479 2071 45.5082
60.9648 2167 46.551
61.0818 2225 47.1699
61.1987 2221 47.1275
61.3158 2297 47.927
61.4328 2203 46.9361
61.5499 2175 46.6369
61.667 2078 45.5851
61.7841 2075 45.5522
61.9013 2053 45.31
62.0185 2117 46.0109
62.1357 1917 43.7836
62.253 2113 45.9674
62.3702 2248 47.4131
62.4875 2377 48.7545
62.6049 2389 48.8774
62.7222 2444 49.4368
62.8396 2502 50.02
62.9569 2552 50.5173
63.0743 2589 50.8822
63.1918 2519 50.1896
63.3092 2401 49
63.4267 2420 49.1935
63.5441 2266 47.6025
63.6616 2194 46.8402
63.7791 2018 44.9222
63.8966 1922 43.8406
64.0142 1806 42.4971
64.1317 1780 42.19
64.2492 1805 42.4853
64.3668 1812 42.5676
64.4843 1963 44.3058
64.6019 2122 46.0652
64.7195 2068 45.4753
64.837 2016 44.8999
64.9546 2093 45.7493
65.0722 2026 45.0111
65.1898 2038 45.1442
65.3074 1923 43.852
65.4249 1831 42.7902
65.5425 1838 42.8719
65.6601 1760 41.9524
65.7777 1930 43.9318
65.8952 2115 45.9891
66.0128 2086 45.6727
66.1304 2177 46.6583
66.2479 2382 48.8057
66.3655 2375 48.734
66.483 2496 49.96
66.6005 2480 49.7996
66.718 2414 49.1325
66.8355 2368 48.6621
66.953 2253 47.4658
67.0705 2270 47.6445
67.1879 2116 46
67.3054 2048 45.2548
67.4228 1893 43.5086
67.5402 1715 41.4126
67.6576 1696 41.1825
67.7749 1725 41.5331
67.8923 1767 42.0357
68.0096 1808 42.5206
68.1269 1976 44.4522
68.2442 2120 46.0435
68.3614 2076 45.5631
68.4787 2026 45.0111
68.5958 2150 46.3681
68.713 2155 46.422
68.8302 2105 45.8803
68.9473 1939 44.0341
69.0643 1936 44
69.1814 1859 43.1161
69.2984 1920 43.8178
69.4154 2015 44.8888
69.5323 2197 46.8722
69.6492 2253 47.4658
69.7661 2352 48.4974
69.8829 2577 50.7642
69.9997 2600 50.9902
70.1165 2645 51.4296
70.2332 2664 51.614
70.3499 2660 51.5752
70.4665 2669 51.6624
70.5831 2516 50.1597
70.6996 2516 50.1597
70.8161 2349 48.4665
70.9326 2248 47.4131
71.049 2053 45.31
71.1653 1963 44.3058
71.2817 1811 42.5558
71.3979 1953 44.1928
71.5141 1929 43.9204
71.6303 1934 43.9773
71.7464 1826 42.7317
71.8624 0 1
71.9784 0 1
72.0944 0 1
72.2102 0 1
72.3261 0 1
72.4418 0 1
72.5575 0 1
72.6732 0 1
75.1054 0 1
75.2209 0 1
75.3365 0 1
75.4521 0 1
75.5678 0 1
75.6835 0 1
75.7993 0 1
75.9151 0 1
76.031 0 1
76.147 2406 49.051
76.263 2649 51.4684
76.3791 2557 50.5668
76.4952 2364 48.621
76.6113 2218 47.0956
76.7276 2093 45.7493
76.8438 2129 46.1411
76.9601 2231 47.2335
77.0765 2350 48.4768
77.1929 2524 50.2394
77.3093 2404 49.0306
77.4258 2573 50.7247
77.5423 2545 50.448
77.6589 2581 50.8035
77.7755 2511 50.1099
77.8921 2393 48.9183
78.0088 2312 48.0833
78.1256 2206 46.9681
78.2423 2188 46.7761
78.3591 2235 47.2758
78.4759 2369 48.6724
78.5928 2545 50.448
78.7097 2730 52.2494
78.8266 2873 53.6004
78.9436 2822 53.1225
79.0606 2772 52.6498
79.1776 2830 53.1977
79.2946 2942 54.2402
79.4117 2813 53.0377
79.5288 2893 53.7866
79.6459 2768 52.6118
79.7631 2736 52.3068
79.8802 2477 49.7695
79.9974 2334 48.3115
80.1147 2094 45.7602
80.2319 1932 43.9545
80.3491 1824 42.7083
80.4664 1827 42.7434
80.5837 1884 43.4051
80.701 1978 44.4747
80.8183 2049 45.2659
80.9357 2121 46.0543
81.053 2178 46.669
81.1704 2211 47.0213
81.2877 2196 46.8615
81.4051 2190 46.7974
81.5225 2000 44.7214
81.6399 1875 43.3013
81.7573 1837 42.8602
81.8747 1744 41.7612
81.9922 1761 41.9643
82.1096 1894 43.5201
82.227 2008 44.8107
82.3444 2200 46.9042
82.4619 2303 47.9896
82.5793 2299 47.9479
82.6967 2258 47.5184
82.8142 2318 48.1456
82.9316 2366 48.6415
83.049 2332 48.2908
83.1664 2261 47.55
83.2838 2240 47.3286
83.4012 2095 45.7712
83.5186 2008 44.8107
83.636 1869 43.2319
83.7534 1732 41.6173
83.8708 1576 39.6989
83.9881 1591 39.8873
84.1055 1648 40.5956
84.2228 1574 39.6737
84.3401 1780 42.19
84.4575 1859 43.1161
84.5747 1997 44.6878
84.692 1965 44.3283
84.8093 2092 45.7384
84.9265 2000 44.7214
85.0437 1973 44.4185
85.1609 1742 41.7373
85.2781 1652 40.6448
85.3952 1661 40.7554
85.5123 1636 40.4475
85.6294 1744 41.7612
85.7465 1865 43.1856
85.8636 2006 44.7884
85.9806 2139 46.2493
86.0976 2322 48.1871
86.2145 2371 48.6929
86.3315 2432 49.3153
86.4484 2594 50.9313
86.5652 2655 51.5267
86.682 2499 49.99
86.7988 2490 49.8999
86.9156 2405 49.0408
87.0323 2302 47.9792
87.149 2217 47.085
87.2657 2072 45.5192
87.3823 1988 44.587
87.4988 1870 43.2435
87.6154 1838 42.8719
87.7318 1885 43.4166
87.8483 2068 45.4753
87.9647 2290 47.8539
88.081 2318 48.1456
88.1973 2444 49.4368
88.3136 2488 49.8799
88.4298 2459 49.5883
88.546 2257 47.5079
88.6621 2139 46.2493
88.7781 2009 44.8219
88.8942 0 1
89.0101 0 1
89.126 0 1
89.2419 0 1
89.3577 0 1
89.4734 0 1
89.5891 0 1
89.7047 0 1
89.8203 0 1
89.9358 0 1
92.3269 0 1
92.4424 0 1
92.558 0 1
92.6736 0 1
92.7893 0 1
92.905 0 1
93.0208 0 1
93.1366 0 1
93.2525 0 1
93.3685 0 1
93.4845 0 1
93.6005 3240 56.921
93.7167 3417 58.4551
93.8328 3508 59.2284
93.949 3679 60.6548
94.0653 3746 61.2046
94.1816 3792 61.5792
94.2979 3721 61
94.4143 3938 62.7535
94.5307 3963 62.9524
94.6472 4226 65.0077
94.7637 4614 67.9264
94.8803 5418 73.6071
94.9969 5772 75.9737
95.1135 6612 81.3142
95.2302 6828 82.6317
95.3469 7266 85.2408
95.4637 7828 88.476
95.5805 8103 90.0167
95.6973 8659 93.0537
95.8142 9025 95
95.9311 9169 95.7549
96.048 9223 96.0365
96.1649 9263 96.2445
96.2819 9203 95.9323
96.3989 9161 95.7131
96.516 8820 93.9149
96.633 8291 91.0549
96.7501 8214 90.6311
96.8673 8465 92.0054
96.9844 9197 95.901
97.1016 10146 100.727
97.2188 11280 106.207
97.336 11828 108.757
97.4532 11796 108.609
97.5704 12050 109.772
97.6877 11860 108.904
97.805 11395 106.747
97.9223 10579 102.854
98.0396 9997 99.985
98.1569 9456 97.242
98.2743 9179 95.8071
98.3916 9737 98.6762
98.509 10014 100.07
98.6264 10814 103.99
98.7438 11494 107.21
98.8612 11756 108.425
98.9786 12304 110.923
99.096 12116 110.073
99.2134 12548 112.018
99.3308 12652 112.481
99.4482 12765 112.982
99.5656 12298 110.896
99.6831 12273 110.784
99.8005 11838 108.803
99.9179 11603 107.717
100.035 11157 105.627
100.153 10536 102.645
100.27 9607 98.0153
100.388 9672 98.3463
100.505 10269 101.336
100.622 11052 105.128
100.74 11848 108.849
100.857 12385 111.288
100.975 12183 110.377
101.092 12076 109.891
101.209 12059 109.813
101.327 11829 108.761
101.444 11070 105.214
101.561 10282 101.4
101.679 9526 97.6012
101.796 8924 94.4669
101.913 8932 94.5093
102.03 9561 97.7804
102.148 10171 100.851
102.265 11301 106.306
102.382 10665 103.271
102.499 11432 106.921
102.616 11565 107.541
102.733 11526 107.359
102.851 11333 106.457
102.968 11451 107.009
103.085 10979 104.781
103.202 10607 102.99
103.319 10170 100.846
103.436 9520 97.5705
103.552 8882 94.2444
103.669 7864 88.6792
103.786 7144 84.5222
103.903 6953 83.3847
104.02 7130 84.4393
104.137 7141 84.5044
104.253 7560 86.9483
104.37 7014 83.7496
104.487 7043 83.9226
104.603 6554 80.9568
104.72 6326 79.5362
104.836 5794 76.1183
104.953 5033 70.9436
105.069 4616 67.9412
105.186 4098 64.0156
105.302 3827 61.8628
105.418 3824 61.8385
105.535 3860 62.1289
105.651 3902 62.466
105.767 4034 63.5138
105.883 4148 64.405
105.999 4064 63.7495
106.115 0 1
106.231 0 1
106.347 0 1
106.463 0 1
106.579 0 1
106.694 0 1
106.81 0 1
106.926 0 1
107.041 0 1
107.157 0 1
109.576 0 1
109.692 0 1
109.807 0 1
109.923 0 1
110.039 0 1
110.155 0 1
110.27 0 1
110.386 0 1
110.502 0 1
110.618 2305 48.0104
110.735 2530 50.2991
110.851 2816 53.066
110.967 3005 54.8179
111.083 3028 55.0273
111.199 3038 55.1181
111.316 3066 55.3715
111.432 3068 55.3895
111.549 3101 55.6866
111.665 2932 54.1479
111.782 2924 54.074
111.898 2763 52.5642
112.015 2595 50.9411
112.132 2437 49.366
112.248 2229 47.2123
112.365 2233 47.2546
112.482 2247 47.4025
112.599 2128 46.1303
112.716 2281 47.7598
112.832 2302 47.9792
112.949 2373 48.7134
113.066 2343 48.4045
113.183 2351 48.4871
113.3 2347 48.4458
113.417 2157 46.4435
113.534 2134 46.1952
113.652 1994 44.6542
113.769 2086 45.6727
113.886 2007 44.7996
114.003 2049 45.2659
114.12 2242 47.3498
114.238 2469 49.689
114.355 2599 50.9804
114.472 2648 51.4587
114.589 2659 51.5655
114.707 2699 51.9519
114.824 2855 53.4322
114.942 2994 54.7175
115.059 2993 54.7083
115.176 2898 53.8331
115.294 2871 53.5817
115.411 2774 52.6688
115.529 2711 52.0673
115.646 2626 51.2445
115.764 2472 49.7192
115.881 2322 48.1871
115.999 2342 48.3942
116.116 2366 48.6415
116.234 2493 49.93
116.351 2669 51.6624
116.469 2588 50.8724
116.586 2646 51.4393
116.704 2640 51.3809
116.821 2630 51.2835
116.939 2630 51.2835
117.056 2632 51.303
117.174 2448 49.4773
117.291 2532 50.319
117.409 2475 49.7494
117.526 2506 50.06
117.644 2820 53.1037
117.761 3052 55.2449
117.879 3262 57.1139
117.996 3245 56.9649
118.114 3431 58.5747
118.231 3412 58.4123
118.349 3592 59.9333
118.466 3498 59.1439
118.584 3628 60.2329
118.701 3586 59.8832
118.819 3556 59.6322
118.936 3389 58.2151
119.053 3346 57.8446
119.171 3198 56.5509
119.288 2940 54.2218
119.405 2866 53.535
119.523 2752 52.4595
119.64 2632 51.303
119.757 2642 51.4004
119.875 2771 52.6403
119.992 2864 53.5164
120.109 2986 54.6443
120.226 2859 53.4696
120.343 2854 53.4228
120.46 2827 53.1695
120.578 2727 52.2207
120.695 2713 52.0865
120.812 2701 51.9711
120.929 2664 51.614
121.046 2616 51.1468
121.163 2686 51.8266
121.279 2875 53.619
121.396 2898 53.8331
121.513 3145 56.0803
121.63 3309 57.5239
121.747 3312 57.55
121.863 3351 57.8878
121.98 3387 58.1979
122.097 3421 58.4893
122.213 3504 59.1946
122.33 3532 59.4306
122.446 3402 58.3267
122.563 3455 58.7792
122.679 3323 57.6455
122.795 3273 57.2101
122.912 3154 56.1605
123.028 2989 54.6717
123.144 2771 52.6403
123.26 2742 52.3641
123.377 0 1
123.493 0 1
123.609 0 1
123.725 0 1
123.84 0 1
123.956 0 1
124.072 0 1
124.188 0 1
124.303 0 1
124.419 0 1
126.852 0 1
126.968 0 1
127.083 0 1
127.199 0 1
127.315 0 1
127.431 0 1
127.547 0 1
127.663 0 1
127.779 0 1
127.895 0 1
128.011 0 1
128.127 0 1
128.243 0 1
128.359 3300 57.4456
128.476 3021 54.9636
128.592 3101 55.6866
128.708 3110 55.7674
128.825 3197 56.542
128.941 3292 57.376
129.058 3129 55.9375
129.174 3230 56.8331
129.291 3064 55.3534
129.408 3051 55.2359
129.524 2933 54.1572
129.641 3001 54.7814
129.758 2863 53.507
129.875 2738 52.3259
129.992 2711 52.0673
130.108 2836 53.2541
130.225 2794 52.8583
130.342 3001 54.7814
130.459 2875 53.619
130.576 3159 56.205
130.693 3196 56.5332
130.81 3265 57.1402
130.928 3221 56.7539
131.045 3156 56.1783
131.162 3078 55.4797
131.279 3156 56.1783
131.396 3037 55.109
131.513 3058 55.2992
131.631 2865 53.5257
131.748 2752 52.4595
131.865 2686 51.8266
131.983 2412 49.1121
132.1 2411 49.1019
132.217 2389 48.8774
132.335 2494 49.94
132.452 2489 49.8899
132.57 2511 50.1099
132.687 2512 50.1199
132.804 2544 50.4381
132.922 2471 49.7092
133.039 2364 48.621
133.157 2226 47.1805
133.274 2266 47.6025
133.392 2136 46.2169
133.509 2164 46.5188
133.627 2136 46.2169
133.744 2179 46.6798
133.862 2253 47.4658
133.979 2408 49.0714
134.097 2503 50.03
134.214 2675 51.7204
134.332 2436 49.3559
134.449 2596 50.951
134.567 2659 51.5655
134.684 2676 51.7301
134.802 2660 51.5752
134.919 2715 52.1057
135.037 2657 51.5461
135.154 2686 51.8266
135.272 2477 49.7695
135.389 2524 50.2394
135.507 2338 48.3529
135.624 2304 48
135.742 2275 47.697
135.859 2403 49.0204
135.977 2394 48.9285
136.094 2582 50.8134
136.211 2460 49.5984
136.329 2472 49.7192
136.446 2477 49.7695
136.564 2439 49.3862
136.681 2406 49.051
136.798 2393 48.9183
136.915 2308 48.0416
137.033 2304 48
137.15 2266 47.6025
137.267 2248 47.4131
137.384 2252 47.4552
137.502 2379 48.775
137.619 2473 49.7293
137.736 2501 50.01
137.853 2476 49.7594
137.97 2519 50.1896
138.087 2689 51.8556
138.204 2670 51.672
138.321 2703 51.9904
138.438 2725 52.2015
138.555 2786 52.7826
138.672 2673 51.7011
138.788 2764 52.5738
138.905 2677 51.7397
139.022 2582 50.8134
139.139 2531 50.309
139.255 2410 49.0918
139.372 2389 48.8774
139.488 2412 49.1121
139.605 2515 50.1498
139.721 2520 50.1996
139.838 2660 51.5752
139.954 2644 51.4198
140.071 2544 50.4381
140.187 2461 49.6085
140.303 2480 49.7996
140.419 2420 49.1935
140.535 2350 48.4768
140.652 2267 47.613
140.768 0 1
140.884 0 1
141 0 1
141.115 0 1
141.231 0 1
141.347 0 1
141.463 0 1
141.578 0 1
141.694 0 1
144.104 0 1
144.219 0 1
144.335 0 1
144.45 0 1
144.566 0 1
144.682 0 1
144.798 0 1
144.914 0 1
145.03 0 1
145.146 2256 47.4974
145.262 2261 47.55
145.378 2228 47.2017
145.494 2181 46.7012
145.61 2079 45.5961
145.726 2059 45.3762
145.842 1994 44.6542
145.959 2091 45.7275
146.075 2070 45.4973
146.192 2158 46.4543
146.308 2314 48.1041
146.425 2228 47.2017
146.541 2215 47.0638
146.658 2295 47.9062
146.774 2374 48.7237
146.891 2406 49.051
147.008 2300 47.9583
147.125 2331 48.2804
147.241 2378 48.7647
147.358 2386 48.8467
147.475 2341 48.3839
147.592 2215 47.0638
147.709 2221 47.1275
147.826 2064 45.4313
147.943 2034 45.0999
148.06 2018 44.9222
148.177 2121 46.0543
148.294 2161 46.4866
148.411 2181 46.7012
148.528 2236 47.2864
148.645 2157 46.4435
148.762 2138 46.2385
148.88 2128 46.1303
148.997 2009 44.8219
149.114 2213 47.0425
149.231 2030 45.0555
149.349 2065 45.4423
149.466 1951 44.1701
149.583 1860 43.1277
149.701 1952 44.1814
149.818 2037 45.1331
149.935 2052 45.299
150.053 2108 45.913
150.17 2127 46.1194
150.287 2227 47.1911
150.405 2141 46.2709
150.522 2257 47.5079
150.64 2233 47.2546
150.757 2185 46.744
150.875 2157 46.4435
150.992 2254 47.4763
151.11 2194 46.8402
151.227 2047 45.2438
151.344 2072 45.5192
151.462 1939 44.0341
151.579 2010 44.833
151.697 2105 45.8803
151.814 2060 45.3872
151.932 2177 46.6583
152.049 2274 47.6865
152.167 2236 47.2864
152.284 2181 46.7012
152.402 2180 46.6905
152.519 2249 47.4236
152.636 2143 46.2925
152.754 2168 46.5618
152.871 2099 45.8148
152.989 2232 47.244
153.106 2141 46.2709
153.223 2141 46.2709
153.341 2275 47.697
153.458 2359 48.5695
153.575 2441 49.4065
153.693 2471 49.7092
153.81 2508 50.0799
153.927 2582 50.8134
154.044 2725 52.2015
154.162 2803 52.9434
154.279 2909 53.9351
154.396 3046 55.1906
154.513 3043 55.1634
154.63 3041 55.1453
154.747 3025 55
154.864 2998 54.754
154.981 3040 55.1362
155.098 3022 54.9727
155.215 2883 53.6936
155.332 2908 53.9259
155.449 2970 54.4977
155.566 3045 55.1815
155.683 3108 55.7494
155.8 3150 56.1249
155.917 3104 55.7136
156.033 3070 55.4076
156.15 0 1
156.267 0 1
156.383 0 1
156.5 0 1
156.617 0 1
156.733 0 1
156.85 0 1
156.966 0 1
157.082 0 1
157.199 0 1
157.315 0 1
157.431 0 1
157.547 0 1
157.664 0 1
157.78 0 1
157.896 0 1
158.012 0 1
158.128 0 1
158.244 0 1
158.359 0 1
158.475 0 1
158.591 0 1
158.706 0 1
