
6.15755 0 1
6.2731 0 1
6.3887 0 1
6.50437 0 1
6.62009 0 1
6.73587 0 1
6.8517 0 1
6.96759 0 1
7.08353 0 1
7.19952 0 1
7.31557 0 1
7.43166 0 1
7.54781 0 1
7.664 0 1
7.78024 0 1
7.89653 0 1
8.01286 0 1
8.12924 0 1
8.24567 0 1
8.36213 0 1
8.47864 0 1
8.59519 0 1
8.71178 0 1
8.82841 0 1
8.94508 0 1
9.06179 0 1
9.17853 0 1
9.29531 0 1
9.41212 0 1
9.52897 0 1
9.64584 0 1
9.76276 0 1
9.8797 0 1
9.99667 0 1
10.1137 0 1
10.2307 0 1
10.3478 0 1
10.4648 0 1
10.5819 0 1
10.6991 0 1
10.8162 0 1
10.9334 0 1
11.0506 0 1
11.1678 0 1
11.285 0 1
11.4023 0 1
11.5196 0 1
11.6369 0 1
11.7542 0 1
11.8715 0 1
11.9888 0 1
12.1062 0 1
12.2235 0 1
12.3409 0 1
12.4582 0 1
12.5756 0 1
12.693 0 1
12.8104 0 1
12.9278 0 1
13.0452 0 1
13.1626 0 1
13.28 0 1
13.3974 0 1
13.5149 0 1
13.6323 0 1
13.7497 0 1
13.8671 0 1
13.9845 0 1
14.1019 0 1
14.2193 0 1
14.3367 0 1
14.4541 0 1
14.5714 0 1
14.6888 0 1
14.8062 0 1
14.9235 0 1
15.0408 1379 37.1349
15.1581 1473 38.3797
15.2755 1523 39.0256
15.3927 1604 40.05
15.51 1581 39.7618
15.6273 1523 39.0256
15.7445 1514 38.9102
15.8617 1559 39.4842
15.9789 1609 40.1123
16.0961 1497 38.6911
16.2132 1526 39.064
16.3304 1513 38.8973
16.4475 1535 39.1791
16.5646 1708 41.328
16.6816 1737 41.6773
16.7986 1830 42.7785
16.9156 1913 43.7379
17.0326 1849 43
17.1496 1831 42.7902
17.2665 1848 42.9884
17.3833 1797 42.391
17.5002 1720 41.4729
17.617 1717 41.4367
17.7338 1654 40.6694
17.8505 1608 40.0999
17.9672 1588 39.8497
18.0839 1588 39.8497
18.2005 1541 39.2556
18.3171 1734 41.6413
18.4337 1776 42.1426
18.5502 1749 41.821
18.6666 1803 42.4617
18.7831 1804 42.4735
18.8994 1824 42.7083
19.0158 1823 42.6966
19.1321 1759 41.9404
19.2483 1714 41.4005
19.3645 1597 39.9625
19.4806 1481 38.4838
19.5967 1400 37.4166
19.7128 1296 36
19.8288 1126 33.5559
19.9447 1137 33.7194
20.0606 0 1
20.1764 0 1
20.2922 0 1
20.4079 0 1
20.5236 0 1
20.6392 0 1
20.7548 0 1
20.8702 0 1
23.3078 0 1
23.4233 0 1
23.539 0 1
23.6547 0 1
23.7704 0 1
23.8862 0 1
24.0021 0 1
24.118 0 1
24.234 0 1
24.35 0 1
24.4661 752 27.4226
24.5822 915 30.249
24.6984 1030 32.0936
24.8146 1065 32.6343
24.9309 1202 34.6699
25.0472 1301 36.0694
25.1636 1419 37.6696
25.28 1555 39.4335
25.3965 1677 40.9512
25.513 1819 42.6497
25.6296 1878 43.3359
25.7462 1832 42.8019
25.8628 1991 44.6206
25.9795 1978 44.4747
26.0962 1991 44.6206
26.213 1948 44.1362
26.3298 1788 42.2847
26.4466 1742 41.7373
26.5635 1661 40.7554
26.6804 1616 40.1995
26.7973 1782 42.2137
26.9143 1707 41.3159
27.0313 1788 42.2847
27.1483 1791 42.3202
27.2653 1931 43.9431
27.3824 1937 44.0114
27.4996 1843 42.9302
27.6167 1825 42.72
27.7339 1750 41.833
27.8511 1804 42.4735
27.9683 1711 41.3642
28.0855 1655 40.6817
28.2028 1653 40.6571
28.3201 1598 39.975
28.4374 1547 39.3319
28.5547 1576 39.6989
28.6721 1657 40.7063
28.7894 1747 41.7971
28.9068 1764 42
29.0242 1891 43.4856
29.1416 1929 43.9204
29.259 1913 43.7379
29.3764 1853 43.0465
29.4939 1841 42.9069
29.6113 1907 43.6692
29.7288 1770 42.0714
29.8463 1755 41.8927
29.9638 1649 40.6079
30.0812 1581 39.7618
30.1987 1660 40.7431
30.3162 1593 39.9124
30.4337 1678 40.9634
30.5512 1688 41.0853
30.6687 1821 42.6732
30.7862 1788 42.2847
30.9037 1738 41.6893
31.0212 1822 42.6849
31.1387 1830 42.7785
31.2562 1763 41.9881
31.3737 1757 41.9166
31.4912 1675 40.9268
31.6087 1651 40.6325
31.7262 1600 40
31.8436 1558 39.4715
31.9611 1536 39.1918
32.0785 1506 38.8072
32.1959 1635 40.4351
32.3134 1690 41.1096
32.4308 1753 41.8688
32.5482 1759 41.9404
32.6655 1894 43.5201
32.7829 1921 43.8292
32.9002 1878 43.3359
33.0176 1851 43.0232
33.1349 1853 43.0465
33.2522 1831 42.7902
33.3694 1693 41.1461
33.4867 1675 40.9268
33.6039 1559 39.4842
33.7211 1490 38.6005
33.8383 1550 39.37
33.9554 1551 39.3827
34.0725 1598 39.975
34.1896 1523 39.0256
34.3067 1709 41.3401
34.4237 1698 41.2068
34.5407 1671 40.8779
34.6577 1713 41.3884
34.7746 1745 41.7732
34.8915 1710 41.3521
35.0084 1726 41.5452
35.1252 1669 40.8534
35.242 1676 40.939
35.3587 1709 41.3401
35.4755 1508 38.833
35.5921 1465 38.2753
35.7088 1474 38.3927
35.8254 1444 38
35.9419 1548 39.3446
36.0584 1611 40.1373
36.1749 1569 39.6106
36.2913 1647 40.5832
36.4077 1663 40.7799
36.524 1643 40.5339
36.6403 1568 39.598
36.7565 1525 39.0512
36.8727 1406 37.4967
36.9889 1211 34.7994
37.1049 1188 34.4674
37.221 0 1
37.3369 0 1
37.4529 0 1
37.5687 0 1
37.6845 0 1
37.8003 0 1
37.916 0 1
38.0316 0 1
38.1472 0 1
40.5851 0 1
40.7008 0 1
40.8164 0 1
40.9322 0 1
41.048 0 1
41.1639 0 1
41.2798 0 1
41.3958 0 1
41.5118 0 1
41.6279 0 1
41.744 817 28.5832
41.8602 964 31.0483
41.9765 997 31.5753
42.0928 1013 31.8277
42.2091 984 31.3688
42.3255 1082 32.8938
42.4419 1034 32.1559
42.5584 1034 32.1559
42.675 1178 34.322
42.7915 1217 34.8855
42.9081 1243 35.2562
43.0248 1291 35.9305
43.1415 1347 36.7015
43.2582 1411 37.5633
43.375 1390 37.2827
43.4918 1329 36.4555
43.6087 1405 37.4833
43.7256 1397 37.3765
43.8425 1430 37.8153
43.9595 1362 36.9053
44.0765 1341 36.6197
44.1935 1288 35.8887
44.3106 1221 34.9428
44.4277 1240 35.2136
44.5448 1150 33.9116
44.6619 1299 36.0416
44.7791 1301 36.0694
44.8963 1345 36.6742
45.0136 1468 38.3145
45.1308 1491 38.6135
45.2481 1513 38.8973
45.3654 1495 38.6652
45.4827 1468 38.3145
45.6001 1495 38.6652
45.7174 1360 36.8782
45.8348 1322 36.3593
45.9522 1259 35.4824
46.0697 1205 34.7131
46.1871 1159 34.0441
46.3046 1252 35.3836
46.422 1249 35.3412
46.5395 1352 36.7696
46.657 1316 36.2767
46.7745 1394 37.3363
46.892 1489 38.5876
47.0096 1487 38.5616
47.1271 1420 37.6829
47.2446 1401 37.4299
47.3622 1438 37.921
47.4797 1427 37.7757
47.5973 1454 38.1314
47.7149 1369 37
47.8324 1378 37.1214
47.95 1197 34.5977
48.0675 1280 35.7771
48.1851 1223 34.9714
48.3027 1280 35.7771
48.4202 1304 36.1109
48.5378 1444 38
48.6554 1471 38.3536
48.7729 1544 39.2938
48.8904 1567 39.5854
49.008 1486 38.5487
49.1255 1414 37.6032
49.243 1364 36.9324
49.3605 1265 35.5668
49.478 1242 35.242
49.5955 1186 34.4384
49.713 1072 32.7414
49.8304 1118 33.4365
49.9479 1267 35.5949
50.0653 1339 36.5923
50.1827 1388 37.2559
50.3001 1447 38.0395
50.4175 1399 37.4032
50.5348 1502 38.7556
50.6521 1521 39
50.7694 1549 39.3573
50.8867 1487 38.5616
51.004 1477 38.4318
51.1212 1441 37.9605
51.2384 1441 37.9605
51.3556 1364 36.9324
51.4727 1373 37.054
51.5899 1273 35.6791
51.707 1338 36.5787
51.824 1430 37.8153
51.9411 1483 38.5097
52.0581 1676 40.939
52.175 1717 41.4367
52.2919 1768 42.0476
52.4088 1792 42.332
52.5257 1804 42.4735
52.6425 1811 42.5558
52.7593 1938 44.0227
52.876 1856 43.0813
52.9927 1689 41.0974
53.1094 1701 41.2432
53.226 1549 39.3573
53.3426 1520 38.9872
53.4591 1480 38.4708
53.5756 1504 38.7814
53.692 1560 39.4968
53.8084 1516 38.9358
53.9248 1458 38.1838
54.0411 1410 37.55
54.1573 1358 36.8511
54.2735 0 1
54.3896 0 1
54.5057 0 1
54.6217 0 1
54.7377 0 1
54.8537 0 1
54.9695 0 1
55.0853 0 1
55.2011 0 1
55.3168 0 1
55.4324 0 1
57.824 0 1
57.9396 0 1
58.0553 0 1
58.1711 0 1
58.2869 0 1
58.4028 0 1
58.5187 0 1
58.6347 0 1
58.7508 0 1
58.8669 0 1
58.983 1081 32.8786
59.0992 1216 34.8712
59.2155 1420 37.6829
59.3318 1445 38.0132
59.4482 1605 40.0625
59.5646 1613 40.1622
59.681 1624 40.2989
59.7975 1672 40.8901
59.9141 1636 40.4475
60.0306 1659 40.7308
60.1473 1609 40.1123
60.2639 1605 40.0625
60.3807 1557 39.4588
60.4974 1622 40.2741
60.6142 1637 40.4599
60.731 1756 41.9047
60.8479 1896 43.5431
60.9648 1847 42.9767
61.0818 1860 43.1277
61.1987 1891 43.4856
61.3158 1762 41.9762
61.4328 1729 41.5812
61.5499 1721 41.4849
61.667 1556 39.4462
61.7841 1467 38.3014
61.9013 1403 37.4566
62.0185 1430 37.8153
62.1357 1595 39.9375
62.253 1640 40.4969
62.3702 1636 40.4475
62.4875 1726 41.5452
62.6049 1766 42.0238
62.7222 1750 41.833
62.8396 1832 42.8019
62.9569 1870 43.2435
63.0743 1809 42.5323
63.1918 1736 41.6653
63.3092 1783 42.2256
63.4267 1682 41.0122
63.5441 1712 41.3763
63.6616 1604 40.05
63.7791 1467 38.3014
63.8966 1550 39.37
64.0142 1457 38.1707
64.1317 1596 39.95
64.2492 1658 40.7185
64.3668 1718 41.4488
64.4843 1938 44.0227
64.6019 1805 42.4853
64.7195 1858 43.1045
64.837 1814 42.5911
64.9546 1819 42.6497
65.0722 1681 41
65.1898 1565 39.5601
65.3074 1466 38.2884
65.4249 1362 36.9053
65.5425 1339 36.5923
65.6601 1359 36.8646
65.7777 1482 38.4968
65.8952 1548 39.3446
66.0128 1607 40.0874
66.1304 1733 41.6293
66.2479 1698 41.2068
66.3655 1720 41.4729
66.483 1743 41.7493
66.6005 1736 41.6653
66.718 1780 42.19
66.8355 1823 42.6966
66.953 1744 41.7612
67.0705 1661 40.7554
67.1879 1600 40
67.3054 1554 39.4208
67.4228 1485 38.5357
67.5402 1430 37.8153
67.6576 1406 37.4967
67.7749 1456 38.1576
67.8923 1651 40.6325
68.0096 1689 41.0974
68.1269 1700 41.2311
68.2442 1779 42.1782
68.3614 1703 41.2674
68.4787 1743 41.7493
68.5958 1753 41.8688
68.713 1642 40.5216
68.8302 1525 39.0512
68.9473 1447 38.0395
69.0643 1348 36.7151
69.1814 1266 35.5809
69.2984 1277 35.7351
69.4154 1332 36.4966
69.5323 1539 39.2301
69.6492 1584 39.7995
69.7661 1622 40.2741
69.8829 1653 40.6571
69.9997 1648 40.5956
70.1165 1646 40.5709
70.2332 1543 39.281
70.3499 1483 38.5097
70.4665 1348 36.7151
70.5831 1374 37.0675
70.6996 1216 34.8712
70.8161 1217 34.8855
70.9326 1139 33.7491
71.049 980 31.305
71.1653 773 27.8029
71.2817 695 26.3629
71.3979 705 26.5518
71.5141 644 25.3772
71.6303 633 25.1595
71.7464 574 23.9583
71.8624 0 1
71.9784 0 1
72.0944 0 1
72.2102 0 1
72.3261 0 1
72.4418 0 1
72.5575 0 1
72.6732 0 1
75.1054 0 1
75.2209 0 1
75.3365 0 1
75.4521 0 1
75.5678 0 1
75.6835 0 1
75.7993 0 1
75.9151 0 1
76.031 0 1
76.147 987 31.4166
76.263 1072 32.7414
76.3791 1101 33.1813
76.4952 1113 33.3617
76.6113 1096 33.1059
76.7276 1234 35.1283
76.8438 1286 35.8608
76.9601 1405 37.4833
77.0765 1469 38.3275
77.1929 1515 38.923
77.3093 1557 39.4588
77.4258 1523 39.0256
77.5423 1492 38.6264
77.6589 1390 37.2827
77.7755 1290 35.9166
77.8921 1216 34.8712
78.0088 1147 33.8674
78.1256 1042 32.28
78.2423 1076 32.8024
78.3591 1142 33.7935
78.4759 1266 35.5809
78.5928 1326 36.4143
78.7097 1358 36.8511
78.8266 1423 37.7227
78.9436 1438 37.921
79.0606 1497 38.6911
79.1776 1465 38.2753
79.2946 1544 39.2938
79.4117 1523 39.0256
79.5288 1522 39.0128
79.6459 1455 38.1445
79.7631 1474 38.3927
79.8802 1467 38.3014
79.9974 1376 37.0945
80.1147 1182 34.3802
80.2319 1226 35.0143
80.3491 1182 34.3802
80.4664 1390 37.2827
80.5837 1487 38.5616
80.701 1552 39.3954
80.8183 1549 39.3573
80.9357 1539 39.2301
81.053 1537 39.2046
81.1704 1664 40.7922
81.2877 1598 39.975
81.4051 1517 38.9487
81.5225 1330 36.4692
81.6399 1315 36.2629
81.7573 1111 33.3317
81.8747 1130 33.6155
81.9922 1110 33.3167
82.1096 1218 34.8999
82.227 1358 36.8511
82.3444 1404 37.47
82.4619 1539 39.2301
82.5793 1617 40.2119
82.6967 1547 39.3319
82.8142 1599 39.9875
82.9316 1608 40.0999
83.049 1531 39.128
83.1664 1501 38.7427
83.2838 1569 39.6106
83.4012 1458 38.1838
83.5186 1439 37.9342
83.636 1387 37.2424
83.7534 1249 35.3412
83.8708 1247 35.3129
83.9881 1258 35.4683
84.1055 1360 36.8782
84.2228 1428 37.7889
84.3401 1497 38.6911
84.4575 1667 40.8289
84.5747 1609 40.1123
84.692 1585 39.8121
84.8093 1622 40.2741
84.9265 1511 38.8716
85.0437 1456 38.1576
85.1609 1343 36.647
85.2781 1252 35.3836
85.3952 1198 34.6121
85.5123 1096 33.1059
85.6294 1176 34.2929
85.7465 1279 35.7631
85.8636 1325 36.4005
85.9806 1421 37.6962
86.0976 1523 39.0256
86.2145 1537 39.2046
86.3315 1467 38.3014
86.4484 1648 40.5956
86.5652 1615 40.1871
86.682 1588 39.8497
86.7988 1584 39.7995
86.9156 1517 38.9487
87.0323 1536 39.1918
87.149 1509 38.8458
87.2657 1416 37.6298
87.3823 1262 35.5246
87.4988 1147 33.8674
87.6154 1104 33.2265
87.7318 1105 33.2415
87.8483 1197 34.5977
87.9647 1209 34.7707
88.081 1282 35.805
88.1973 1177 34.3074
88.3136 1146 33.8526
88.4298 1114 33.3766
88.546 1035 32.1714
88.6621 961 31
88.7781 693 26.3249
88.8942 0 1
89.0101 0 1
89.126 0 1
89.2419 0 1
89.3577 0 1
89.4734 0 1
89.5891 0 1
89.7047 0 1
89.8203 0 1
89.9358 0 1
92.3269 0 1
92.4424 0 1
92.558 0 1
92.6736 0 1
92.7893 0 1
92.905 0 1
93.0208 0 1
93.1366 0 1
93.2525 0 1
93.3685 0 1
93.4845 0 1
93.6005 1247 35.3129
93.7167 1299 36.0416
93.8328 1366 36.9594
93.949 1383 37.1887
94.0653 1437 37.9078
94.1816 1385 37.2156
94.2979 1385 37.2156
94.4143 1212 34.8138
94.5307 1186 34.4384
94.6472 1164 34.1174
94.7637 1165 34.1321
94.8803 1244 35.2704
94.9969 1468 38.3145
95.1135 1460 38.2099
95.2302 1558 39.4715
95.3469 1540 39.2428
95.4637 1629 40.3609
95.5805 1606 40.0749
95.6973 1643 40.5339
95.8142 1591 39.8873
95.9311 1714 41.4005
96.048 1583 39.7869
96.1649 1509 38.8458
96.2819 1560 39.4968
96.3989 1539 39.2301
96.516 1385 37.2156
96.633 1370 37.0135
96.7501 1245 35.2846
96.8673 1298 36.0278
96.9844 1400 37.4166
97.1016 1465 38.2753
97.2188 1629 40.3609
97.336 1638 40.4722
97.4532 1672 40.8901
97.5704 1616 40.1995
97.6877 1664 40.7922
97.805 1553 39.4081
97.9223 1487 38.5616
98.0396 1357 36.8375
98.1569 1213 34.8281
98.2743 1122 33.4963
98.3916 1142 33.7935
98.509 1256 35.4401
98.6264 1328 36.4417
98.7438 1496 38.6782
98.8612 1603 40.0375
98.9786 1558 39.4715
99.096 1691 41.1218
99.2134 1687 41.0731
99.3308 1699 41.2189
99.4482 1676 40.939
99.5656 1631 40.3856
99.6831 1692 41.1339
99.8005 1745 41.7732
99.9179 1627 40.3361
100.035 1570 39.6232
100.153 1432 37.8418
100.27 1416 37.6298
100.388 1392 37.3095
100.505 1508 38.833
100.622 1561 39.5095
100.74 1741 41.7253
100.857 1754 41.8808
100.975 1761 41.9643
101.092 1793 42.3438
101.209 1755 41.8927
101.327 1744 41.7612
101.444 1660 40.7431
101.561 1558 39.4715
101.679 1415 37.6165
101.796 1247 35.3129
101.913 1212 34.8138
102.03 1315 36.2629
102.148 1437 37.9078
102.265 1587 39.8372
102.382 1665 40.8044
102.499 1678 40.9634
102.616 1678 40.9634
102.733 1713 41.3884
102.851 1803 42.4617
102.968 1804 42.4735
103.085 1794 42.3556
103.202 1725 41.5331
103.319 1817 42.6263
103.436 1663 40.7799
103.552 1627 40.3361
103.669 1607 40.0874
103.786 1576 39.6989
103.903 1460 38.2099
104.02 1557 39.4588
104.137 1647 40.5832
104.253 1716 41.4246
104.37 1890 43.4741
104.487 1790 42.3084
104.603 1815 42.6028
104.72 1760 41.9524
104.836 1811 42.5558
104.953 1629 40.3609
105.069 1441 37.9605
105.186 1248 35.327
105.302 1143 33.8083
105.418 1059 32.5423
105.535 1078 32.8329
105.651 1157 34.0147
105.767 1163 34.1028
105.883 1205 34.7131
105.999 1088 32.9848
106.115 0 1
106.231 0 1
106.347 0 1
106.463 0 1
106.579 0 1
106.694 0 1
106.81 0 1
106.926 0 1
107.041 0 1
107.157 0 1
109.576 0 1
109.692 0 1
109.807 0 1
109.923 0 1
110.039 0 1
110.155 0 1
110.27 0 1
110.386 0 1
110.502 0 1
110.618 710 26.6458
110.735 990 31.4643
110.851 1220 34.9285
110.967 1279 35.7631
111.083 1384 37.2022
111.199 1510 38.8587
111.316 1639 40.4846
111.432 1670 40.8656
111.549 1636 40.4475
111.665 1757 41.9166
111.782 1676 40.939
111.898 1700 41.2311
112.015 1612 40.1497
112.132 1573 39.6611
112.248 1435 37.8814
112.365 1445 38.0132
112.482 1384 37.2022
112.599 1536 39.1918
112.716 1546 39.3192
112.832 1746 41.7852
112.949 1720 41.4729
113.066 1674 40.9145
113.183 1701 41.2432
113.3 1773 42.107
113.417 1704 41.2795
113.534 1543 39.281
113.652 1465 38.2753
113.769 1296 36
113.886 1154 33.9706
114.003 1187 34.4529
114.12 1224 34.9857
114.238 1439 37.9342
114.355 1509 38.8458
114.472 1459 38.1969
114.589 1620 40.2492
114.707 1715 41.4126
114.824 1680 40.9878
114.942 1700 41.2311
115.059 1739 41.7013
115.176 1738 41.6893
115.294 1719 41.4608
115.411 1692 41.1339
115.529 1658 40.7185
115.646 1611 40.1373
115.764 1615 40.1871
115.881 1434 37.8682
115.999 1407 37.51
116.116 1489 38.5876
116.234 1590 39.8748
116.351 1649 40.6079
116.469 1687 41.0731
116.586 1685 41.0488
116.704 1688 41.0853
116.821 1621 40.2616
116.939 1710 41.3521
117.056 1585 39.8121
117.174 1483 38.5097
117.291 1339 36.5923
117.409 1347 36.7015
117.526 1216 34.8712
117.644 1157 34.0147
117.761 1257 35.4542
117.879 1409 37.5366
117.996 1560 39.4968
118.114 1631 40.3856
118.231 1634 40.4228
118.349 1584 39.7995
118.466 1617 40.2119
118.584 1745 41.7732
118.701 1705 41.2916
118.819 1695 41.1704
118.936 1609 40.1123
119.053 1634 40.4228
119.171 1535 39.1791
119.288 1478 38.4448
119.405 1368 36.9865
119.523 1406 37.4967
119.64 1317 36.2905
119.757 1348 36.7151
119.875 1464 38.2623
119.992 1465 38.2753
120.109 1529 39.1024
120.226 1580 39.7492
120.343 1696 41.1825
120.46 1584 39.7995
120.578 1614 40.1746
120.695 1560 39.4968
120.812 1485 38.5357
120.929 1325 36.4005
121.046 1227 35.0286
121.163 1109 33.3017
121.279 1127 33.5708
121.396 1101 33.1813
121.513 1209 34.7707
121.63 1255 35.426
121.747 1260 35.4965
121.863 1187 34.4529
121.98 1320 36.3318
122.097 1227 35.0286
122.213 1198 34.6121
122.33 1231 35.0856
122.446 1207 34.7419
122.563 1150 33.9116
122.679 1050 32.4037
122.795 1067 32.665
122.912 914 30.2324
123.028 811 28.4781
123.144 729 27
123.26 686 26.1916
123.377 0 1
123.493 0 1
123.609 0 1
123.725 0 1
123.84 0 1
123.956 0 1
124.072 0 1
124.188 0 1
124.303 0 1
124.419 0 1
126.852 0 1
126.968 0 1
127.083 0 1
127.199 0 1
127.315 0 1
127.431 0 1
127.547 0 1
127.663 0 1
127.779 0 1
127.895 0 1
128.011 0 1
128.127 0 1
128.243 0 1
128.359 1482 38.4968
128.476 1548 39.3446
128.592 1486 38.5487
128.708 1476 38.4187
128.825 1473 38.3797
128.941 1655 40.6817
129.058 1654 40.6694
129.174 1699 41.2189
129.291 1748 41.8091
129.408 1805 42.4853
129.524 1698 41.2068
129.641 1680 40.9878
129.758 1581 39.7618
129.875 1609 40.1123
129.992 1411 37.5633
130.108 1374 37.0675
130.225 1255 35.426
130.342 1260 35.4965
130.459 1414 37.6032
130.576 1492 38.6264
130.693 1519 38.9744
130.81 1526 39.064
130.928 1633 40.4104
131.045 1645 40.5586
131.162 1759 41.9404
131.279 1731 41.6053
131.396 1777 42.1545
131.513 1664 40.7922
131.631 1671 40.8779
131.748 1714 41.4005
131.865 1617 40.2119
131.983 1568 39.598
132.1 1587 39.8372
132.217 1558 39.4715
132.335 1516 38.9358
132.452 1535 39.1791
132.57 1700 41.2311
132.687 1789 42.2966
132.804 1791 42.3202
132.922 1681 41
133.039 1755 41.8927
133.157 1781 42.2019
133.274 1804 42.4735
133.392 1639 40.4846
133.509 1509 38.8458
133.627 1473 38.3797
133.744 1346 36.6879
133.862 1315 36.2629
133.979 1379 37.1349
134.097 1484 38.5227
134.214 1539 39.2301
134.332 1593 39.9124
134.449 1641 40.5093
134.567 1693 41.1461
134.684 1712 41.3763
134.802 1746 41.7852
134.919 1698 41.2068
135.037 1675 40.9268
135.154 1724 41.5211
135.272 1717 41.4367
135.389 1654 40.6694
135.507 1566 39.5727
135.624 1605 40.0625
135.742 1475 38.4057
135.859 1593 39.9124
135.977 1609 40.1123
136.094 1593 39.9124
136.211 1670 40.8656
136.329 1778 42.1663
136.446 1712 41.3763
136.564 1753 41.8688
136.681 1843 42.9302
136.798 1757 41.9166
136.915 1748 41.8091
137.033 1685 41.0488
137.15 1570 39.6232
137.267 1443 37.9868
137.384 1400 37.4166
137.502 1300 36.0555
137.619 1309 36.1801
137.736 1403 37.4566
137.853 1514 38.9102
137.97 1560 39.4968
138.087 1607 40.0874
138.204 1699 41.2189
138.321 1668 40.8412
138.438 1776 42.1426
138.555 1708 41.328
138.672 1796 42.3792
138.788 1705 41.2916
138.905 1555 39.4335
139.022 1521 39
139.139 1395 37.3497
139.255 1382 37.1753
139.372 1287 35.8748
139.488 1143 33.8083
139.605 1179 34.3366
139.721 1139 33.7491
139.838 1187 34.4529
139.954 1165 34.1321
140.071 1100 33.1662
140.187 1025 32.0156
140.303 976 31.241
140.419 935 30.5778
140.535 873 29.5466
140.652 814 28.5307
140.768 0 1
140.884 0 1
141 0 1
141.115 0 1
141.231 0 1
141.347 0 1
141.463 0 1
141.578 0 1
141.694 0 1
144.104 0 1
144.219 0 1
144.335 0 1
144.45 0 1
144.566 0 1
144.682 0 1
144.798 0 1
144.914 0 1
145.03 0 1
145.146 1250 35.3553
145.262 1358 36.8511
145.378 1422 37.7094
145.494 1462 38.2361
145.61 1433 37.855
145.726 1396 37.3631
145.842 1267 35.5949
145.959 1175 34.2783
146.075 1164 34.1174
146.192 1077 32.8177
146.308 1036 32.187
146.425 1041 32.2645
146.541 1136 33.7046
146.658 1172 34.2345
146.774 1250 35.3553
146.891 1278 35.7491
147.008 1311 36.2077
147.125 1366 36.9594
147.241 1325 36.4005
147.358 1354 36.7967
147.475 1306 36.1386
147.592 1331 36.4829
147.709 1279 35.7631
147.826 1309 36.1801
147.943 1220 34.9285
148.06 1264 35.5528
148.177 1197 34.5977
148.294 1226 35.0143
148.411 1235 35.1426
148.528 1376 37.0945
148.645 1353 36.7831
148.762 1372 37.0405
148.88 1422 37.7094
148.997 1428 37.7889
149.114 1353 36.7831
149.231 1472 38.3667
149.349 1384 37.2022
149.466 1333 36.5103
149.583 1252 35.3836
149.701 1244 35.2704
149.818 1138 33.7343
149.935 1092 33.0454
150.053 1091 33.0303
150.17 1050 32.4037
150.287 1253 35.3977
150.405 1264 35.5528
150.522 1275 35.7071
150.64 1276 35.7211
150.757 1337 36.565
150.875 1312 36.2215
150.992 1342 36.6333
151.11 1342 36.6333
151.227 1318 36.3043
151.344 1244 35.2704
151.462 1228 35.0428
151.579 1260 35.4965
151.697 1235 35.1426
151.814 1130 33.6155
151.932 1157 34.0147
152.049 1161 34.0735
152.167 1227 35.0286
152.284 1259 35.4824
152.402 1298 36.0278
152.519 1293 35.9583
152.636 1343 36.647
152.754 1323 36.3731
152.871 1337 36.565
152.989 1308 36.1663
153.106 1235 35.1426
153.223 1169 34.1906
153.341 1125 33.541
153.458 1105 33.2415
153.575 1009 31.7648
153.693 1052 32.4345
153.81 1163 34.1028
153.927 1090 33.0151
154.044 1145 33.8378
154.162 1186 34.4384
154.279 1166 34.1467
154.396 1267 35.5949
154.513 1217 34.8855
154.63 1211 34.7994
154.747 1202 34.6699
154.864 1204 34.6987
154.981 1194 34.5543
155.098 1163 34.1028
155.215 1107 33.2716
155.332 1138 33.7343
155.449 1099 33.1512
155.566 1050 32.4037
155.683 1123 33.5112
155.8 1152 33.9411
155.917 1115 33.3916
156.033 1162 34.0881
156.15 0 1
156.267 0 1
156.383 0 1
156.5 0 1
156.617 0 1
156.733 0 1
156.85 0 1
156.966 0 1
157.082 0 1
157.199 0 1
157.315 0 1
157.431 0 1
157.547 0 1
157.664 0 1
157.78 0 1
157.896 0 1
158.012 0 1
158.128 0 1
158.244 0 1
158.359 0 1
158.475 0 1
158.591 0 1
158.706 0 1
