
6.15755 0 1
6.2731 0 1
6.3887 0 1
6.50437 0 1
6.62009 0 1
6.73587 0 1
6.8517 0 1
6.96759 0 1
7.08353 0 1
7.19952 0 1
7.31557 0 1
7.43166 0 1
7.54781 0 1
7.664 0 1
7.78024 0 1
7.89653 0 1
8.01286 0 1
8.12924 0 1
8.24567 0 1
8.36213 0 1
8.47864 0 1
8.59519 0 1
8.71178 0 1
8.82841 0 1
8.94508 0 1
9.06179 0 1
9.17853 0 1
9.29531 0 1
9.41212 0 1
9.52897 0 1
9.64584 0 1
9.76276 0 1
9.8797 0 1
9.99667 0 1
10.1137 0 1
10.2307 0 1
10.3478 0 1
10.4648 0 1
10.5819 0 1
10.6991 0 1
10.8162 0 1
10.9334 0 1
11.0506 0 1
11.1678 0 1
11.285 0 1
11.4023 0 1
11.5196 0 1
11.6369 0 1
11.7542 0 1
11.8715 0 1
11.9888 0 1
12.1062 0 1
12.2235 0 1
12.3409 0 1
12.4582 0 1
12.5756 0 1
12.693 0 1
12.8104 0 1
12.9278 0 1
13.0452 0 1
13.1626 0 1
13.28 0 1
13.3974 0 1
13.5149 0 1
13.6323 0 1
13.7497 0 1
13.8671 0 1
13.9845 0 1
14.1019 0 1
14.2193 0 1
14.3367 0 1
14.4541 0 1
14.5714 0 1
14.6888 0 1
14.8062 0 1
14.9235 0 1
15.0408 946 30.7571
15.1581 988 31.4325
15.2755 1009 31.7648
15.3927 1045 32.3265
15.51 954 30.8869
15.6273 931 30.5123
15.7445 893 29.8831
15.8617 855 29.2404
15.9789 911 30.1828
16.0961 910 30.1662
16.2132 885 29.7489
16.3304 876 29.5973
16.4475 876 29.5973
16.5646 826 28.7402
16.6816 813 28.5132
16.7986 848 29.1204
16.9156 791 28.1247
17.0326 779 27.9106
17.1496 830 28.8097
17.2665 803 28.3373
17.3833 807 28.4077
17.5002 766 27.6767
17.617 805 28.3725
17.7338 772 27.7849
17.8505 792 28.1425
17.9672 757 27.5136
18.0839 716 26.7582
18.2005 791 28.1247
18.3171 762 27.6043
18.4337 769 27.7308
18.5502 754 27.4591
18.6666 742 27.2397
18.7831 773 27.8029
18.8994 812 28.4956
19.0158 767 27.6948
19.1321 740 27.2029
19.2483 659 25.671
19.3645 646 25.4165
19.4806 638 25.2587
19.5967 622 24.9399
19.7128 599 24.4745
19.8288 623 24.96
19.9447 518 22.7596
20.0606 0 1
20.1764 0 1
20.2922 0 1
20.4079 0 1
20.5236 0 1
20.6392 0 1
20.7548 0 1
20.8702 0 1
23.3078 0 1
23.4233 0 1
23.539 0 1
23.6547 0 1
23.7704 0 1
23.8862 0 1
24.0021 0 1
24.118 0 1
24.234 0 1
24.35 0 1
24.4661 318 17.8326
24.5822 353 18.7883
24.6984 457 21.3776
24.8146 540 23.2379
24.9309 590 24.2899
25.0472 675 25.9808
25.1636 750 27.3861
25.28 816 28.5657
25.3965 823 28.688
25.513 896 29.9333
25.6296 833 28.8617
25.7462 890 29.8329
25.8628 880 29.6648
25.9795 813 28.5132
26.0962 885 29.7489
26.213 872 29.5296
26.3298 850 29.1548
26.4466 762 27.6043
26.5635 723 26.8887
26.6804 726 26.9444
26.7973 699 26.4386
26.9143 669 25.865
27.0313 635 25.1992
27.1483 726 26.9444
27.2653 711 26.6646
27.3824 764 27.6405
27.4996 766 27.6767
27.6167 803 28.3373
27.7339 731 27.037
27.8511 705 26.5518
27.9683 737 27.1477
28.0855 712 26.6833
28.2028 757 27.5136
28.3201 754 27.4591
28.4374 767 27.6948
28.5547 723 26.8887
28.6721 817 28.5832
28.7894 775 27.8388
28.9068 771 27.7669
29.0242 744 27.2764
29.1416 735 27.1109
29.259 732 27.0555
29.3764 788 28.0713
29.4939 736 27.1293
29.6113 723 26.8887
29.7288 688 26.2298
29.8463 738 27.1662
29.9638 682 26.1151
30.0812 658 25.6515
30.1987 693 26.3249
30.3162 635 25.1992
30.4337 679 26.0576
30.5512 670 25.8844
30.6687 683 26.1343
30.7862 713 26.7021
30.9037 762 27.6043
31.0212 777 27.8747
31.1387 771 27.7669
31.2562 732 27.0555
31.3737 758 27.5318
31.4912 780 27.9285
31.6087 734 27.0924
31.7262 703 26.5141
31.8436 779 27.9106
31.9611 751 27.4044
32.0785 763 27.6225
32.1959 707 26.5895
32.3134 712 26.6833
32.4308 684 26.1534
32.5482 670 25.8844
32.6655 640 25.2982
32.7829 687 26.2107
32.9002 650 25.4951
33.0176 701 26.4764
33.1349 622 24.9399
33.2522 642 25.3377
33.3694 658 25.6515
33.4867 641 25.318
33.6039 672 25.923
33.7211 619 24.8797
33.8383 594 24.3721
33.9554 609 24.6779
34.0725 602 24.5357
34.1896 635 25.1992
34.3067 606 24.6171
34.4237 655 25.593
34.5407 678 26.0384
34.6577 675 25.9808
34.7746 681 26.096
34.8915 701 26.4764
35.0084 669 25.865
35.1252 665 25.7876
35.242 693 26.3249
35.3587 640 25.2982
35.4755 645 25.3969
35.5921 623 24.96
35.7088 629 25.0799
35.8254 623 24.96
35.9419 651 25.5147
36.0584 640 25.2982
36.1749 666 25.807
36.2913 606 24.6171
36.4077 591 24.3105
36.524 517 22.7376
36.6403 540 23.2379
36.7565 523 22.8692
36.8727 452 21.2603
36.9889 463 21.5174
37.1049 417 20.4206
37.221 0 1
37.3369 0 1
37.4529 0 1
37.5687 0 1
37.6845 0 1
37.8003 0 1
37.916 0 1
38.0316 0 1
38.1472 0 1
40.5851 0 1
40.7008 0 1
40.8164 0 1
40.9322 0 1
41.048 0 1
41.1639 0 1
41.2798 0 1
41.3958 0 1
41.5118 0 1
41.6279 0 1
41.744 295 17.1756
41.8602 360 18.9737
41.9765 431 20.7605
42.0928 440 20.9762
42.2091 447 21.1424
42.3255 476 21.8174
42.4419 468 21.6333
42.5584 488 22.0907
42.675 448 21.166
42.7915 460 21.4476
42.9081 490 22.1359
43.0248 482 21.9545
43.1415 464 21.5407
43.2582 471 21.7025
43.375 512 22.6274
43.4918 511 22.6053
43.6087 519 22.7816
43.7256 522 22.8473
43.8425 528 22.9783
43.9595 489 22.1133
44.0765 513 22.6495
44.1935 487 22.0681
44.3106 514 22.6716
44.4277 519 22.7816
44.5448 499 22.3383
44.6619 490 22.1359
44.7791 491 22.1585
44.8963 530 23.0217
45.0136 524 22.891
45.1308 503 22.4277
45.2481 568 23.8328
45.3654 507 22.5167
45.4827 554 23.5372
45.6001 590 24.2899
45.7174 553 23.516
45.8348 555 23.5584
45.9522 483 21.9773
46.0697 486 22.0454
46.1871 473 21.7486
46.3046 490 22.1359
46.422 419 20.4695
46.5395 461 21.4709
46.657 455 21.3307
46.7745 473 21.7486
46.892 469 21.6564
47.0096 532 23.0651
47.1271 511 22.6053
47.2446 501 22.383
47.3622 535 23.1301
47.4797 533 23.0868
47.5973 511 22.6053
47.7149 523 22.8692
47.8324 463 21.5174
47.95 481 21.9317
48.0675 513 22.6495
48.1851 526 22.9347
48.3027 548 23.4094
48.4202 490 22.1359
48.5378 541 23.2594
48.6554 527 22.9565
48.7729 500 22.3607
48.8904 524 22.891
49.008 534 23.1084
49.1255 491 22.1585
49.243 498 22.3159
49.3605 485 22.0227
49.478 487 22.0681
49.5955 440 20.9762
49.713 443 21.0476
49.8304 394 19.8494
49.9479 381 19.5192
50.0653 404 20.0998
50.1827 438 20.9284
50.3001 437 20.9045
50.4175 450 21.2132
50.5348 464 21.5407
50.6521 420 20.4939
50.7694 519 22.7816
50.8867 513 22.6495
51.004 514 22.6716
51.1212 496 22.2711
51.2384 474 21.7715
51.3556 456 21.3542
51.4727 438 20.9284
51.5899 494 22.2261
51.707 455 21.3307
51.824 483 21.9773
51.9411 502 22.4054
52.0581 461 21.4709
52.175 454 21.3073
52.2919 507 22.5167
52.4088 490 22.1359
52.5257 497 22.2935
52.6425 501 22.383
52.7593 480 21.9089
52.876 445 21.095
52.9927 449 21.1896
53.1094 449 21.1896
53.226 417 20.4206
53.3426 375 19.3649
53.4591 370 19.2354
53.5756 392 19.799
53.692 381 19.5192
53.8084 357 18.8944
53.9248 329 18.1384
54.0411 285 16.8819
54.1573 282 16.7929
54.2735 0 1
54.3896 0 1
54.5057 0 1
54.6217 0 1
54.7377 0 1
54.8537 0 1
54.9695 0 1
55.0853 0 1
55.2011 0 1
55.3168 0 1
55.4324 0 1
57.824 0 1
57.9396 0 1
58.0553 0 1
58.1711 0 1
58.2869 0 1
58.4028 0 1
58.5187 0 1
58.6347 0 1
58.7508 0 1
58.8669 0 1
58.983 431 20.7605
59.0992 543 23.3024
59.2155 568 23.8328
59.3318 647 25.4362
59.4482 750 27.3861
59.5646 848 29.1204
59.681 792 28.1425
59.7975 849 29.1376
59.9141 832 28.8444
60.0306 897 29.95
60.1473 865 29.4109
60.2639 839 28.9655
60.3807 831 28.8271
60.4974 833 28.8617
60.6142 856 29.2575
60.731 837 28.931
60.8479 807 28.4077
60.9648 767 27.6948
61.0818 765 27.6586
61.1987 794 28.178
61.3158 765 27.6586
61.4328 687 26.2107
61.5499 710 26.6458
61.667 684 26.1534
61.7841 701 26.4764
61.9013 664 25.7682
62.0185 626 25.02
62.1357 624 24.98
62.253 649 25.4755
62.3702 597 24.4336
62.4875 594 24.3721
62.6049 594 24.3721
62.7222 611 24.7184
62.8396 595 24.3926
62.9569 593 24.3516
63.0743 603 24.5561
63.1918 601 24.5153
63.3092 562 23.7065
63.4267 618 24.8596
63.5441 587 24.2281
63.6616 541 23.2594
63.7791 541 23.2594
63.8966 588 24.2487
64.0142 598 24.454
64.1317 573 23.9374
64.2492 544 23.3238
64.3668 580 24.0832
64.4843 534 23.1084
64.6019 588 24.2487
64.7195 540 23.2379
64.837 509 22.561
64.9546 573 23.9374
65.0722 529 23
65.1898 490 22.1359
65.3074 454 21.3073
65.4249 502 22.4054
65.5425 465 21.5639
65.6601 562 23.7065
65.7777 490 22.1359
65.8952 527 22.9565
66.0128 486 22.0454
66.1304 554 23.5372
66.2479 524 22.891
66.3655 538 23.1948
66.483 560 23.6643
66.6005 523 22.8692
66.718 563 23.7276
66.8355 542 23.2809
66.953 519 22.7816
67.0705 527 22.9565
67.1879 510 22.5832
67.3054 523 22.8692
67.4228 549 23.4307
67.5402 536 23.1517
67.6576 555 23.5584
67.7749 582 24.1247
67.8923 520 22.8035
68.0096 516 22.7156
68.1269 556 23.5797
68.2442 512 22.6274
68.3614 487 22.0681
68.4787 517 22.7376
68.5958 489 22.1133
68.713 487 22.0681
68.8302 479 21.8861
68.9473 482 21.9545
69.0643 515 22.6936
69.1814 505 22.4722
69.2984 510 22.5832
69.4154 570 23.8747
69.5323 547 23.388
69.6492 519 22.7816
69.7661 469 21.6564
69.8829 451 21.2368
69.9997 491 22.1585
70.1165 519 22.7816
70.2332 477 21.8403
70.3499 468 21.6333
70.4665 472 21.7256
70.5831 410 20.2485
70.6996 377 19.4165
70.8161 394 19.8494
70.9326 350 18.7083
71.049 319 17.8606
71.1653 351 18.735
71.2817 287 16.9411
71.3979 290 17.0294
71.5141 222 14.8997
71.6303 235 15.3297
71.7464 187 13.6748
71.8624 0 1
71.9784 0 1
72.0944 0 1
72.2102 0 1
72.3261 0 1
72.4418 0 1
72.5575 0 1
72.6732 0 1
75.1054 0 1
75.2209 0 1
75.3365 0 1
75.4521 0 1
75.5678 0 1
75.6835 0 1
75.7993 0 1
75.9151 0 1
76.031 0 1
76.147 350 18.7083
76.263 380 19.4936
76.3791 399 19.975
76.4952 459 21.4243
76.6113 422 20.5426
76.7276 404 20.0998
76.8438 426 20.6398
76.9601 430 20.7364
77.0765 433 20.8087
77.1929 435 20.8567
77.3093 427 20.664
77.4258 413 20.3224
77.5423 420 20.4939
77.6589 419 20.4695
77.7755 408 20.199
77.8921 408 20.199
78.0088 359 18.9473
78.1256 399 19.975
78.2423 401 20.025
78.3591 411 20.2731
78.4759 445 21.095
78.5928 413 20.3224
78.7097 399 19.975
78.8266 397 19.9249
78.9436 416 20.3961
79.0606 421 20.5183
79.1776 447 21.1424
79.2946 455 21.3307
79.4117 438 20.9284
79.5288 464 21.5407
79.6459 442 21.0238
79.7631 449 21.1896
79.8802 476 21.8174
79.9974 481 21.9317
80.1147 449 21.1896
80.2319 478 21.8632
80.3491 474 21.7715
80.4664 499 22.3383
80.5837 441 21
80.701 475 21.7945
80.8183 465 21.5639
80.9357 435 20.8567
81.053 436 20.8806
81.1704 435 20.8567
81.2877 437 20.9045
81.4051 435 20.8567
81.5225 437 20.9045
81.6399 366 19.1311
81.7573 419 20.4695
81.8747 404 20.0998
81.9922 423 20.567
82.1096 462 21.4942
82.227 475 21.7945
82.3444 454 21.3073
82.4619 435 20.8567
82.5793 418 20.445
82.6967 405 20.1246
82.8142 443 21.0476
82.9316 453 21.2838
83.049 448 21.166
83.1664 465 21.5639
83.2838 467 21.6102
83.4012 475 21.7945
83.5186 449 21.1896
83.636 486 22.0454
83.7534 491 22.1585
83.8708 506 22.4944
83.9881 514 22.6716
84.1055 472 21.7256
84.2228 485 22.0227
84.3401 468 21.6333
84.4575 443 21.0476
84.5747 412 20.2978
84.692 426 20.6398
84.8093 422 20.5426
84.9265 409 20.2237
85.0437 433 20.8087
85.1609 435 20.8567
85.2781 358 18.9209
85.3952 414 20.347
85.5123 433 20.8087
85.6294 458 21.4009
85.7465 471 21.7025
85.8636 426 20.6398
85.9806 481 21.9317
86.0976 444 21.0713
86.2145 467 21.6102
86.3315 483 21.9773
86.4484 476 21.8174
86.5652 473 21.7486
86.682 432 20.7846
86.7988 502 22.4054
86.9156 433 20.8087
87.0323 430 20.7364
87.149 501 22.383
87.2657 454 21.3073
87.3823 448 21.166
87.4988 445 21.095
87.6154 407 20.1742
87.7318 421 20.5183
87.8483 378 19.4422
87.9647 358 18.9209
88.081 349 18.6815
88.1973 325 18.0278
88.3136 310 17.6068
88.4298 272 16.4924
88.546 247 15.7162
88.6621 250 15.8114
88.7781 227 15.0665
88.8942 0 1
89.0101 0 1
89.126 0 1
89.2419 0 1
89.3577 0 1
89.4734 0 1
89.5891 0 1
89.7047 0 1
89.8203 0 1
89.9358 0 1
92.3269 0 1
92.4424 0 1
92.558 0 1
92.6736 0 1
92.7893 0 1
92.905 0 1
93.0208 0 1
93.1366 0 1
93.2525 0 1
93.3685 0 1
93.4845 0 1
93.6005 414 20.347
93.7167 381 19.5192
93.8328 421 20.5183
93.949 411 20.2731
94.0653 436 20.8806
94.1816 406 20.1494
94.2979 373 19.3132
94.4143 403 20.0749
94.5307 429 20.7123
94.6472 469 21.6564
94.7637 443 21.0476
94.8803 464 21.5407
94.9969 472 21.7256
95.1135 475 21.7945
95.2302 460 21.4476
95.3469 417 20.4206
95.4637 450 21.2132
95.5805 452 21.2603
95.6973 475 21.7945
95.8142 454 21.3073
95.9311 475 21.7945
96.048 456 21.3542
96.1649 466 21.587
96.2819 482 21.9545
96.3989 490 22.1359
96.516 521 22.8254
96.633 479 21.8861
96.7501 497 22.2935
96.8673 470 21.6795
96.9844 466 21.587
97.1016 482 21.9545
97.2188 496 22.2711
97.336 459 21.4243
97.4532 420 20.4939
97.5704 425 20.6155
97.6877 426 20.6398
97.805 390 19.7484
97.9223 410 20.2485
98.0396 454 21.3073
98.1569 429 20.7123
98.2743 493 22.2036
98.3916 505 22.4722
98.509 532 23.0651
98.6264 481 21.9317
98.7438 486 22.0454
98.8612 477 21.8403
98.9786 550 23.4521
99.096 482 21.9545
99.2134 515 22.6936
99.3308 517 22.7376
99.4482 496 22.2711
99.5656 526 22.9347
99.6831 519 22.7816
99.8005 541 23.2594
99.9179 574 23.9583
100.035 640 25.2982
100.153 696 26.3818
100.27 900 30
100.388 1283 35.819
100.505 1677 40.9512
100.622 2032 45.0777
100.74 2715 52.1057
100.857 3404 58.3438
100.975 4082 63.8905
101.092 4462 66.7982
101.209 4861 69.7209
101.327 5086 71.3162
101.444 5347 73.1232
101.561 5906 76.8505
101.679 6762 82.2314
101.796 8189 90.4931
101.913 9594 97.949
102.03 10168 100.837
102.148 10566 102.791
102.265 11065 105.19
102.382 10827 104.053
102.499 11120 105.451
102.616 11907 109.119
102.733 12685 112.628
102.851 13303 115.339
102.968 13561 116.452
103.085 12759 112.956
103.202 12307 110.937
103.319 11885 109.018
103.436 12174 110.336
103.552 12405 111.378
103.669 12532 111.946
103.786 12607 112.281
103.903 12656 112.499
104.02 11781 108.54
104.137 11715 108.236
104.253 11316 106.377
104.37 10522 102.577
104.487 9438 97.1494
104.603 8140 90.2219
104.72 6630 81.4248
104.836 5221 72.2565
104.953 4328 65.7875
105.069 3632 60.2661
105.186 3376 58.1034
105.302 3465 58.8643
105.418 3622 60.1831
105.535 3610 60.0833
105.651 3254 57.0438
105.767 2925 54.0833
105.883 2595 50.9411
105.999 2273 47.676
106.115 0 1
106.231 0 1
106.347 0 1
106.463 0 1
106.579 0 1
106.694 0 1
106.81 0 1
106.926 0 1
107.041 0 1
107.157 0 1
109.576 0 1
109.692 0 1
109.807 0 1
109.923 0 1
110.039 0 1
110.155 0 1
110.27 0 1
110.386 0 1
110.502 0 1
110.618 616 24.8193
110.735 721 26.8514
110.851 789 28.0891
110.967 782 27.9643
111.083 781 27.9464
111.199 685 26.1725
111.316 750 27.3861
111.432 730 27.0185
111.549 723 26.8887
111.665 777 27.8747
111.782 688 26.2298
111.898 606 24.6171
112.015 611 24.7184
112.132 631 25.1197
112.248 607 24.6374
112.365 593 24.3516
112.482 648 25.4558
112.599 536 23.1517
112.716 573 23.9374
112.832 565 23.7697
112.949 540 23.2379
113.066 561 23.6854
113.183 532 23.0651
113.3 520 22.8035
113.417 509 22.561
113.534 442 21.0238
113.652 436 20.8806
113.769 422 20.5426
113.886 434 20.8327
114.003 460 21.4476
114.12 427 20.664
114.238 435 20.8567
114.355 443 21.0476
114.472 497 22.2935
114.589 508 22.5389
114.707 482 21.9545
114.824 521 22.8254
114.942 475 21.7945
115.059 509 22.561
115.176 465 21.5639
115.294 486 22.0454
115.411 450 21.2132
115.529 463 21.5174
115.646 415 20.3715
115.764 451 21.2368
115.881 480 21.9089
115.999 480 21.9089
116.116 454 21.3073
116.234 423 20.567
116.351 414 20.347
116.469 427 20.664
116.586 423 20.567
116.704 395 19.8746
116.821 460 21.4476
116.939 422 20.5426
117.056 406 20.1494
117.174 383 19.5704
117.291 380 19.4936
117.409 335 18.303
117.526 371 19.2614
117.644 374 19.3391
117.761 411 20.2731
117.879 452 21.2603
117.996 430 20.7364
118.114 449 21.1896
118.231 495 22.2486
118.349 400 20
118.466 437 20.9045
118.584 442 21.0238
118.701 446 21.1187
118.819 439 20.9523
118.936 406 20.1494
119.053 416 20.3961
119.171 393 19.8242
119.288 407 20.1742
119.405 431 20.7605
119.523 421 20.5183
119.64 433 20.8087
119.757 405 20.1246
119.875 450 21.2132
119.992 439 20.9523
120.109 373 19.3132
120.226 391 19.7737
120.343 424 20.5913
120.46 409 20.2237
120.578 368 19.1833
120.695 404 20.0998
120.812 380 19.4936
120.929 350 18.7083
121.046 338 18.3848
121.163 305 17.4642
121.279 318 17.8326
121.396 323 17.9722
121.513 364 19.0788
121.63 332 18.2209
121.747 372 19.2873
121.863 402 20.0499
121.98 361 19
122.097 336 18.3303
122.213 339 18.412
122.33 325 18.0278
122.446 332 18.2209
122.563 302 17.3781
122.679 268 16.3707
122.795 283 16.8226
122.912 252 15.8745
123.028 263 16.2173
123.144 259 16.0935
123.26 253 15.906
123.377 0 1
123.493 0 1
123.609 0 1
123.725 0 1
123.84 0 1
123.956 0 1
124.072 0 1
124.188 0 1
124.303 0 1
124.419 0 1
126.852 0 1
126.968 0 1
127.083 0 1
127.199 0 1
127.315 0 1
127.431 0 1
127.547 0 1
127.663 0 1
127.779 0 1
127.895 0 1
128.011 0 1
128.127 0 1
128.243 0 1
128.359 436 20.8806
128.476 445 21.095
128.592 444 21.0713
128.708 479 21.8861
128.825 502 22.4054
128.941 482 21.9545
129.058 501 22.383
129.174 487 22.0681
129.291 420 20.4939
129.408 472 21.7256
129.524 492 22.1811
129.641 467 21.6102
129.758 498 22.3159
129.875 470 21.6795
129.992 432 20.7846
130.108 432 20.7846
130.225 432 20.7846
130.342 384 19.5959
130.459 437 20.9045
130.576 490 22.1359
130.693 519 22.7816
130.81 566 23.7908
130.928 563 23.7276
131.045 514 22.6716
131.162 545 23.3452
131.279 601 24.5153
131.396 652 25.5343
131.513 660 25.6905
131.631 698 26.4197
131.748 684 26.1534
131.865 713 26.7021
131.983 761 27.5862
132.1 768 27.7128
132.217 819 28.6182
132.335 923 30.3809
132.452 976 31.241
132.57 936 30.5941
132.687 961 31
132.804 1006 31.7175
132.922 996 31.5595
133.039 919 30.315
133.157 994 31.5278
133.274 965 31.0644
133.392 991 31.4802
133.509 1040 32.249
133.627 985 31.3847
133.744 911 30.1828
133.862 953 30.8707
133.979 850 29.1548
134.097 977 31.257
134.214 987 31.4166
134.332 1014 31.8434
134.449 955 30.9031
134.567 997 31.5753
134.684 946 30.7571
134.802 1001 31.6386
134.919 1049 32.3883
135.037 1027 32.0468
135.154 983 31.3528
135.272 1022 31.9687
135.389 969 31.1288
135.507 951 30.8383
135.624 972 31.1769
135.742 1001 31.6386
135.859 1062 32.5883
135.977 1038 32.218
136.094 1074 32.7719
136.211 1051 32.4191
136.329 1054 32.4654
136.446 1016 31.8748
136.564 1006 31.7175
136.681 978 31.273
136.798 1004 31.686
136.915 990 31.4643
137.033 1012 31.8119
137.15 993 31.5119
137.267 981 31.3209
137.384 913 30.2159
137.502 939 30.6431
137.619 859 29.3087
137.736 940 30.6594
137.853 885 29.7489
137.97 946 30.7571
138.087 938 30.6268
138.204 966 31.0805
138.321 902 30.0333
138.438 982 31.3369
138.555 1062 32.5883
138.672 1020 31.9374
138.788 1007 31.7333
138.905 983 31.3528
139.022 889 29.8161
139.139 899 29.9833
139.255 909 30.1496
139.372 830 28.8097
139.488 825 28.7228
139.605 820 28.6356
139.721 778 27.8927
139.838 778 27.8927
139.954 713 26.7021
140.071 694 26.3439
140.187 689 26.2488
140.303 596 24.4131
140.419 567 23.8118
140.535 568 23.8328
140.652 551 23.4734
140.768 0 1
140.884 0 1
141 0 1
141.115 0 1
141.231 0 1
141.347 0 1
141.463 0 1
141.578 0 1
141.694 0 1
144.104 0 1
144.219 0 1
144.335 0 1
144.45 0 1
144.566 0 1
144.682 0 1
144.798 0 1
144.914 0 1
145.03 0 1
145.146 4831 69.5054
145.262 6979 83.5404
145.378 8846 94.0532
145.494 10453 102.24
145.61 11519 107.327
145.726 12667 112.548
145.842 13664 116.893
145.959 15242 123.458
146.075 16941 130.158
146.192 19024 137.928
146.308 21175 145.516
146.425 23348 152.801
146.541 25853 160.789
146.658 27980 167.272
146.774 30387 174.319
146.891 30795 175.485
147.008 29501 171.759
147.125 26484 162.739
147.241 25658 160.181
147.358 28169 167.836
147.475 31903 178.614
147.592 35248 187.745
147.709 36999 192.351
147.826 37054 192.494
147.943 36591 191.288
148.06 35707 188.963
148.177 34421 185.529
148.294 33289 182.453
148.411 32062 179.059
148.528 30264 173.966
148.645 28847 169.844
148.762 27083 164.569
148.88 25520 159.75
148.997 23907 154.619
149.114 22011 148.361
149.231 20476 143.094
149.349 18852 137.303
149.466 16846 129.792
149.583 15690 125.26
149.701 13828 117.593
149.818 12619 112.334
149.935 10831 104.072
150.053 9660 98.2853
150.17 8390 91.5969
150.287 6523 80.7651
150.405 4184 64.6838
150.522 2858 53.4603
150.64 3270 57.1839
150.757 3812 61.7414
150.875 3751 61.2454
150.992 3471 58.9152
151.11 3161 56.2228
151.227 2838 53.2729
151.344 2696 51.923
151.462 2319 48.156
151.579 2103 45.8585
151.697 1948 44.1362
151.814 1887 43.4396
151.932 1858 43.1045
152.049 1739 41.7013
152.167 1744 41.7612
152.284 1511 38.8716
152.402 1616 40.1995
152.519 1566 39.5727
152.636 1623 40.2865
152.754 1569 39.6106
152.871 1555 39.4335
152.989 1617 40.2119
153.106 1626 40.3237
153.223 1638 40.4722
153.341 1646 40.5709
153.458 1711 41.3642
153.575 1645 40.5586
153.693 1504 38.7814
153.81 1457 38.1707
153.927 1310 36.1939
154.044 1284 35.8329
154.162 1397 37.3765
154.279 1557 39.4588
154.396 1674 40.9145
154.513 1708 41.328
154.63 1763 41.9881
154.747 1793 42.3438
154.864 1788 42.2847
154.981 1732 41.6173
155.098 1683 41.0244
155.215 1612 40.1497
155.332 1644 40.5463
155.449 1766 42.0238
155.566 1771 42.0833
155.683 1885 43.4166
155.8 1858 43.1045
155.917 1993 44.643
156.033 2065 45.4423
156.15 0 1
156.267 0 1
156.383 0 1
156.5 0 1
156.617 0 1
156.733 0 1
156.85 0 1
156.966 0 1
157.082 0 1
157.199 0 1
157.315 0 1
157.431 0 1
157.547 0 1
157.664 0 1
157.78 0 1
157.896 0 1
158.012 0 1
158.128 0 1
158.244 0 1
158.359 0 1
158.475 0 1
158.591 0 1
158.706 0 1
