
6.15755 0 1
6.2731 0 1
6.3887 0 1
6.50437 0 1
6.62009 0 1
6.73587 0 1
6.8517 0 1
6.96759 0 1
7.08353 0 1
7.19952 0 1
7.31557 0 1
7.43166 0 1
7.54781 0 1
7.664 0 1
7.78024 0 1
7.89653 0 1
8.01286 0 1
8.12924 0 1
8.24567 0 1
8.36213 0 1
8.47864 0 1
8.59519 0 1
8.71178 0 1
8.82841 0 1
8.94508 0 1
9.06179 0 1
9.17853 0 1
9.29531 0 1
9.41212 0 1
9.52897 0 1
9.64584 0 1
9.76276 0 1
9.8797 0 1
9.99667 0 1
10.1137 0 1
10.2307 0 1
10.3478 0 1
10.4648 0 1
10.5819 0 1
10.6991 0 1
10.8162 0 1
10.9334 0 1
11.0506 0 1
11.1678 0 1
11.285 0 1
11.4023 0 1
11.5196 0 1
11.6369 0 1
11.7542 0 1
11.8715 0 1
11.9888 0 1
12.1062 0 1
12.2235 0 1
12.3409 0 1
12.4582 0 1
12.5756 0 1
12.693 0 1
12.8104 0 1
12.9278 0 1
13.0452 0 1
13.1626 0 1
13.28 0 1
13.3974 0 1
13.5149 0 1
13.6323 0 1
13.7497 0 1
13.8671 0 1
13.9845 0 1
14.1019 0 1
14.2193 0 1
14.3367 0 1
14.4541 0 1
14.5714 0 1
14.6888 0 1
14.8062 0 1
14.9235 0 1
15.0408 0 0
15.1581 0 0
15.2755 0 0
15.3927 0 0
15.51 0 0
15.6273 0 0
15.7445 0 0
15.8617 0 0
15.9789 0 0
16.0961 0 0
16.2132 0 0
16.3304 0 0
16.4475 0 0
16.5646 0 0
16.6816 0 0
16.7986 0 0
16.9156 0 0
17.0326 0 0
17.1496 0 0
17.2665 0 0
17.3833 0 0
17.5002 0 0
17.617 0 0
17.7338 0 0
17.8505 0 0
17.9672 0 0
18.0839 0 0
18.2005 0 0
18.3171 0 0
18.4337 0 0
18.5502 0 0
18.6666 0 0
18.7831 0 0
18.8994 0 0
19.0158 0 0
19.1321 0 0
19.2483 0 0
19.3645 0 0
19.4806 0 0
19.5967 0 0
19.7128 0 0
19.8288 0 0
19.9447 0 0
20.0606 0 1
20.1764 0 1
20.2922 0 1
20.4079 0 1
20.5236 0 1
20.6392 0 1
20.7548 0 1
20.8702 0 1
23.3078 0 1
23.4233 0 1
23.539 0 1
23.6547 0 1
23.7704 0 1
23.8862 0 1
24.0021 0 1
24.118 0 1
24.234 0 1
24.35 0 1
24.4661 2715 52.1057
24.5822 2759 52.5262
24.6984 2816 53.066
24.8146 2923 54.0648
24.9309 2886 53.7215
25.0472 2904 53.8888
25.1636 2875 53.619
25.28 3029 55.0364
25.3965 2997 54.7449
25.513 3020 54.9545
25.6296 2986 54.6443
25.7462 2983 54.6168
25.8628 2872 53.591
25.9795 2936 54.1849
26.0962 2761 52.5452
26.213 2929 54.1202
26.3298 2805 52.9623
26.4466 2906 53.9073
26.5635 2748 52.4214
26.6804 2679 51.7591
26.7973 2695 51.9134
26.9143 2520 50.1996
27.0313 2538 50.3786
27.1483 2427 49.2646
27.2653 2458 49.5782
27.3824 2503 50.03
27.4996 2463 49.6286
27.6167 2346 48.4355
27.7339 2242 47.3498
27.8511 2161 46.4866
27.9683 2177 46.6583
28.0855 2205 46.9574
28.2028 2252 47.4552
28.3201 2248 47.4131
28.4374 2441 49.4065
28.5547 2361 48.5901
28.6721 2395 48.9387
28.7894 2293 47.8853
28.9068 2376 48.7442
29.0242 2436 49.3559
29.1416 2371 48.6929
29.259 2317 48.1352
29.3764 2313 48.0937
29.4939 2313 48.0937
29.6113 2284 47.7912
29.7288 2333 48.3011
29.8463 2295 47.9062
29.9638 2221 47.1275
30.0812 2283 47.7807
30.1987 2241 47.3392
30.3162 2177 46.6583
30.4337 2143 46.2925
30.5512 2054 45.3211
30.6687 1967 44.3509
30.7862 2062 45.4093
30.9037 1955 44.2154
31.0212 1943 44.0795
31.1387 1937 44.0114
31.2562 1920 43.8178
31.3737 1859 43.1161
31.4912 1844 42.9418
31.6087 1872 43.2666
31.7262 1893 43.5086
31.8436 1929 43.9204
31.9611 1883 43.3935
32.0785 1992 44.6318
32.1959 1969 44.3734
32.3134 1966 44.3396
32.4308 2021 44.9555
32.5482 1994 44.6542
32.6655 2066 45.4533
32.7829 1941 44.0568
32.9002 1932 43.9545
33.0176 1988 44.587
33.1349 1968 44.3621
33.2522 1975 44.441
33.3694 1947 44.1248
33.4867 1958 44.2493
33.6039 2004 44.7661
33.7211 1897 43.5546
33.8383 1910 43.7035
33.9554 1822 42.6849
34.0725 1765 42.0119
34.1896 1730 41.5933
34.3067 1698 41.2068
34.4237 1685 41.0488
34.5407 1602 40.025
34.6577 1675 40.9268
34.7746 1644 40.5463
34.8915 1643 40.5339
35.0084 1497 38.6911
35.1252 1591 39.8873
35.242 1597 39.9625
35.3587 1601 40.0125
35.4755 1650 40.6202
35.5921 1691 41.1218
35.7088 1697 41.1947
35.8254 1799 42.4146
35.9419 1702 41.2553
36.0584 1712 41.3763
36.1749 1697 41.1947
36.2913 1706 41.3038
36.4077 1758 41.9285
36.524 1775 42.1307
36.6403 1713 41.3884
36.7565 1633 40.4104
36.8727 1718 41.4488
36.9889 1686 41.0609
37.1049 1736 41.6653
37.221 0 1
37.3369 0 1
37.4529 0 1
37.5687 0 1
37.6845 0 1
37.8003 0 1
37.916 0 1
38.0316 0 1
38.1472 0 1
40.5851 0 1
40.7008 0 1
40.8164 0 1
40.9322 0 1
41.048 0 1
41.1639 0 1
41.2798 0 1
41.3958 0 1
41.5118 0 1
41.6279 0 1
41.744 1247 35.3129
41.8602 1224 34.9857
41.9765 1248 35.327
42.0928 1323 36.3731
42.2091 1283 35.819
42.3255 1275 35.7071
42.4419 1318 36.3043
42.5584 1299 36.0416
42.675 1292 35.9444
42.7915 1227 35.0286
42.9081 1269 35.623
43.0248 1219 34.9142
43.1415 1140 33.7639
43.2582 1236 35.1568
43.375 1159 34.0441
43.4918 1135 33.6898
43.6087 1035 32.1714
43.7256 1022 31.9687
43.8425 1066 32.6497
43.9595 1001 31.6386
44.0765 983 31.3528
44.1935 1005 31.7017
44.3106 1121 33.4813
44.4277 1053 32.45
44.5448 1171 34.2199
44.6619 1032 32.1248
44.7791 1044 32.311
44.8963 1077 32.8177
45.0136 1033 32.1403
45.1308 1075 32.7872
45.2481 1043 32.2955
45.3654 1020 31.9374
45.4827 937 30.6105
45.6001 1015 31.8591
45.7174 992 31.496
45.8348 999 31.607
45.9522 1034 32.1559
46.0697 1007 31.7333
46.1871 954 30.8869
46.3046 961 31
46.422 911 30.1828
46.5395 928 30.4631
46.657 887 29.7825
46.7745 833 28.8617
46.892 843 29.0345
47.0096 807 28.4077
47.1271 830 28.8097
47.2446 789 28.0891
47.3622 850 29.1548
47.4797 794 28.178
47.5973 772 27.7849
47.7149 745 27.2947
47.8324 758 27.5318
47.95 786 28.0357
48.0675 789 28.0891
48.1851 826 28.7402
48.3027 755 27.4773
48.4202 746 27.313
48.5378 830 28.8097
48.6554 791 28.1247
48.7729 769 27.7308
48.8904 836 28.9137
49.008 764 27.6405
49.1255 801 28.3019
49.243 800 28.2843
49.3605 785 28.0179
49.478 765 27.6586
49.5955 809 28.4429
49.713 821 28.6531
49.8304 804 28.3549
49.9479 850 29.1548
50.0653 839 28.9655
50.1827 809 28.4429
50.3001 806 28.3901
50.4175 760 27.5681
50.5348 751 27.4044
50.6521 813 28.5132
50.7694 834 28.8791
50.8867 800 28.2843
51.004 859 29.3087
51.1212 910 30.1662
51.2384 932 30.5287
51.3556 929 30.4795
51.4727 990 31.4643
51.5899 985 31.3847
51.707 1027 32.0468
51.824 1007 31.7333
51.9411 1066 32.6497
52.0581 1032 32.1248
52.175 1084 32.9242
52.2919 1043 32.2955
52.4088 1058 32.5269
52.5257 1133 33.6601
52.6425 1108 33.2866
52.7593 1090 33.0151
52.876 1076 32.8024
52.9927 1079 32.8481
53.1094 1145 33.8378
53.226 1179 34.3366
53.3426 1130 33.6155
53.4591 1148 33.8821
53.5756 1242 35.242
53.692 1180 34.3511
53.8084 1151 33.9264
53.9248 1176 34.2929
54.0411 1104 33.2265
54.1573 1121 33.4813
54.2735 0 1
54.3896 0 1
54.5057 0 1
54.6217 0 1
54.7377 0 1
54.8537 0 1
54.9695 0 1
55.0853 0 1
55.2011 0 1
55.3168 0 1
55.4324 0 1
57.824 0 1
57.9396 0 1
58.0553 0 1
58.1711 0 1
58.2869 0 1
58.4028 0 1
58.5187 0 1
58.6347 0 1
58.7508 0 1
58.8669 0 1
58.983 1353 36.7831
59.0992 1353 36.7831
59.2155 1295 35.9861
59.3318 1246 35.2987
59.4482 1278 35.7491
59.5646 1277 35.7351
59.681 1235 35.1426
59.7975 1306 36.1386
59.9141 1288 35.8887
60.0306 1354 36.7967
60.1473 1319 36.318
60.2639 1378 37.1214
60.3807 1344 36.6606
60.4974 1361 36.8917
60.6142 1296 36
60.731 1335 36.5377
60.8479 1335 36.5377
60.9648 1324 36.3868
61.0818 1266 35.5809
61.1987 1276 35.7211
61.3158 1275 35.7071
61.4328 1266 35.5809
61.5499 1289 35.9026
61.667 1293 35.9583
61.7841 1203 34.6843
61.9013 1253 35.3977
62.0185 1272 35.6651
62.1357 1304 36.1109
62.253 1255 35.426
62.3702 1245 35.2846
62.4875 1281 35.7911
62.6049 1183 34.3948
62.7222 1203 34.6843
62.8396 1195 34.5688
62.9569 1221 34.9428
63.0743 1100 33.1662
63.1918 1199 34.6266
63.3092 1188 34.4674
63.4267 1190 34.4964
63.5441 1255 35.426
63.6616 1266 35.5809
63.7791 1247 35.3129
63.8966 1204 34.6987
64.0142 1212 34.8138
64.1317 1189 34.4819
64.2492 1211 34.7994
64.3668 1167 34.1614
64.4843 1175 34.2783
64.6019 1134 33.6749
64.7195 1162 34.0881
64.837 1157 34.0147
64.9546 1117 33.4215
65.0722 1165 34.1321
65.1898 1176 34.2929
65.3074 1137 33.7194
65.4249 1133 33.6601
65.5425 1158 34.0294
65.6601 1253 35.3977
65.7777 1188 34.4674
65.8952 1146 33.8526
66.0128 1170 34.2053
66.1304 1131 33.6303
66.2479 1092 33.0454
66.3655 1005 31.7017
66.483 1022 31.9687
66.6005 1049 32.3883
66.718 1000 31.6228
66.8355 1055 32.4808
66.953 1139 33.7491
67.0705 1131 33.6303
67.1879 1130 33.6155
67.3054 1143 33.8083
67.4228 1172 34.2345
67.5402 1159 34.0441
67.6576 1135 33.6898
67.7749 1113 33.3617
67.8923 1125 33.541
68.0096 1171 34.2199
68.1269 1147 33.8674
68.2442 1151 33.9264
68.3614 1125 33.541
68.4787 1134 33.6749
68.5958 1137 33.7194
68.713 1109 33.3017
68.8302 1127 33.5708
68.9473 1165 34.1321
69.0643 1181 34.3657
69.1814 1156 34
69.2984 1200 34.641
69.4154 1181 34.3657
69.5323 1196 34.5832
69.6492 1196 34.5832
69.7661 1160 34.0588
69.8829 1194 34.5543
69.9997 1059 32.5423
70.1165 1135 33.6898
70.2332 1055 32.4808
70.3499 1023 31.9844
70.4665 1092 33.0454
70.5831 1149 33.8969
70.6996 1181 34.3657
70.8161 1190 34.4964
70.9326 1256 35.4401
71.049 1128 33.5857
71.1653 1212 34.8138
71.2817 1193 34.5398
71.3979 1102 33.1964
71.5141 1089 33
71.6303 1112 33.3467
71.7464 1018 31.9061
71.8624 0 1
71.9784 0 1
72.0944 0 1
72.2102 0 1
72.3261 0 1
72.4418 0 1
72.5575 0 1
72.6732 0 1
75.1054 0 1
75.2209 0 1
75.3365 0 1
75.4521 0 1
75.5678 0 1
75.6835 0 1
75.7993 0 1
75.9151 0 1
76.031 0 1
76.147 1004 31.686
76.263 1060 32.5576
76.3791 1099 33.1512
76.4952 1062 32.5883
76.6113 1104 33.2265
76.7276 1186 34.4384
76.8438 1122 33.4963
76.9601 1102 33.1964
77.0765 1050 32.4037
77.1929 1141 33.7787
77.3093 1109 33.3017
77.4258 1152 33.9411
77.5423 1069 32.6956
77.6589 1088 32.9848
77.7755 1062 32.5883
77.8921 1050 32.4037
78.0088 1095 33.0908
78.1256 1044 32.311
78.2423 1039 32.2335
78.3591 1061 32.573
78.4759 1134 33.6749
78.5928 1022 31.9687
78.7097 1059 32.5423
78.8266 1135 33.6898
78.9436 1004 31.686
79.0606 1010 31.7805
79.1776 844 29.0517
79.2946 827 28.7576
79.4117 985 31.3847
79.5288 975 31.225
79.6459 1079 32.8481
79.7631 1074 32.7719
79.8802 1071 32.7261
79.9974 1069 32.6956
80.1147 1010 31.7805
80.2319 1023 31.9844
80.3491 994 31.5278
80.4664 1028 32.0624
80.5837 1039 32.2335
80.701 931 30.5123
80.8183 1011 31.7962
80.9357 965 31.0644
81.053 1048 32.3728
81.1704 1017 31.8904
81.2877 1009 31.7648
81.4051 1026 32.0312
81.5225 1003 31.6702
81.6399 916 30.2655
81.7573 922 30.3645
81.8747 939 30.6431
81.9922 897 29.95
82.1096 971 31.1609
82.227 917 30.282
82.3444 914 30.2324
82.4619 960 30.9839
82.5793 922 30.3645
82.6967 905 30.0832
82.8142 831 28.8271
82.9316 749 27.3679
83.049 808 28.4253
83.1664 882 29.6985
83.2838 885 29.7489
83.4012 934 30.5614
83.5186 917 30.282
83.636 905 30.0832
83.7534 835 28.8964
83.8708 817 28.5832
83.9881 840 28.9828
84.1055 838 28.9482
84.2228 810 28.4605
84.3401 836 28.9137
84.4575 797 28.2312
84.5747 862 29.3598
84.692 825 28.7228
84.8093 875 29.5804
84.9265 841 29
85.0437 831 28.8271
85.1609 844 29.0517
85.2781 821 28.6531
85.3952 871 29.5127
85.5123 816 28.5657
85.6294 849 29.1376
85.7465 800 28.2843
85.8636 880 29.6648
85.9806 847 29.1033
86.0976 886 29.7658
86.2145 901 30.0167
86.3315 862 29.3598
86.4484 790 28.1069
86.5652 750 27.3861
86.682 904 30.0666
86.7988 905 30.0832
86.9156 923 30.3809
87.0323 949 30.8058
87.149 858 29.2916
87.2657 901 30.0167
87.3823 834 28.8791
87.4988 921 30.348
87.6154 850 29.1548
87.7318 852 29.189
87.8483 887 29.7825
87.9647 863 29.3769
88.081 910 30.1662
88.1973 1003 31.6702
88.3136 907 30.1164
88.4298 939 30.6431
88.546 903 30.05
88.6621 953 30.8707
88.7781 958 30.9516
88.8942 0 1
89.0101 0 1
89.126 0 1
89.2419 0 1
89.3577 0 1
89.4734 0 1
89.5891 0 1
89.7047 0 1
89.8203 0 1
89.9358 0 1
92.3269 0 1
92.4424 0 1
92.558 0 1
92.6736 0 1
92.7893 0 1
92.905 0 1
93.0208 0 1
93.1366 0 1
93.2525 0 1
93.3685 0 1
93.4845 0 1
93.6005 970 31.1448
93.7167 1028 32.0624
93.8328 1051 32.4191
93.949 920 30.3315
94.0653 1003 31.6702
94.1816 950 30.8221
94.2979 949 30.8058
94.4143 952 30.8545
94.5307 1003 31.6702
94.6472 1015 31.8591
94.7637 974 31.209
94.8803 956 30.9192
94.9969 888 29.7993
95.1135 1032 32.1248
95.2302 977 31.257
95.3469 996 31.5595
95.4637 935 30.5778
95.5805 925 30.4138
95.6973 838 28.9482
95.8142 830 28.8097
95.9311 933 30.545
96.048 1026 32.0312
96.1649 1024 32
96.2819 952 30.8545
96.3989 1070 32.7109
96.516 966 31.0805
96.633 932 30.5287
96.7501 962 31.0161
96.8673 863 29.3769
96.9844 937 30.6105
97.1016 828 28.775
97.2188 873 29.5466
97.336 926 30.4302
97.4532 851 29.1719
97.5704 931 30.5123
97.6877 837 28.931
97.805 880 29.6648
97.9223 862 29.3598
98.0396 853 29.2062
98.1569 902 30.0333
98.2743 966 31.0805
98.3916 842 29.0172
98.509 843 29.0345
98.6264 863 29.3769
98.7438 884 29.7321
98.8612 913 30.2159
98.9786 901 30.0167
99.096 841 29
99.2134 844 29.0517
99.3308 846 29.0861
99.4482 823 28.688
99.5656 892 29.8664
99.6831 880 29.6648
99.8005 810 28.4605
99.9179 866 29.4279
100.035 856 29.2575
100.153 939 30.6431
100.27 841 29
100.388 843 29.0345
100.505 799 28.2666
100.622 855 29.2404
100.74 838 28.9482
100.857 798 28.2489
100.975 828 28.775
101.092 876 29.5973
101.209 823 28.688
101.327 837 28.931
101.444 834 28.8791
101.561 843 29.0345
101.679 817 28.5832
101.796 787 28.0535
101.913 811 28.4781
102.03 813 28.5132
102.148 794 28.178
102.265 803 28.3373
102.382 781 27.9464
102.499 834 28.8791
102.616 756 27.4955
102.733 785 28.0179
102.851 712 26.6833
102.968 750 27.3861
103.085 720 26.8328
103.202 766 27.6767
103.319 807 28.4077
103.436 740 27.2029
103.552 736 27.1293
103.669 693 26.3249
103.786 705 26.5518
103.903 652 25.5343
104.02 697 26.4008
104.137 700 26.4575
104.253 660 25.6905
104.37 644 25.3772
104.487 658 25.6515
104.603 630 25.0998
104.72 645 25.3969
104.836 612 24.7386
104.953 594 24.3721
105.069 644 25.3772
105.186 656 25.6125
105.302 599 24.4745
105.418 635 25.1992
105.535 610 24.6982
105.651 557 23.6008
105.767 612 24.7386
105.883 643 25.3574
105.999 625 25
106.115 0 1
106.231 0 1
106.347 0 1
106.463 0 1
106.579 0 1
106.694 0 1
106.81 0 1
106.926 0 1
107.041 0 1
107.157 0 1
109.576 0 1
109.692 0 1
109.807 0 1
109.923 0 1
110.039 0 1
110.155 0 1
110.27 0 1
110.386 0 1
110.502 0 1
110.618 363 19.0526
110.735 387 19.6723
110.851 356 18.868
110.967 351 18.735
111.083 376 19.3907
111.199 352 18.7617
111.316 388 19.6977
111.432 376 19.3907
111.549 372 19.2873
111.665 344 18.5472
111.782 355 18.8414
111.898 322 17.9444
112.015 329 18.1384
112.132 361 19
112.248 342 18.4932
112.365 317 17.8045
112.482 329 18.1384
112.599 279 16.7033
112.716 303 17.4069
112.832 295 17.1756
112.949 297 17.2337
113.066 309 17.5784
113.183 330 18.1659
113.3 339 18.412
113.417 285 16.8819
113.534 325 18.0278
113.652 352 18.7617
113.769 307 17.5214
113.886 320 17.8885
114.003 329 18.1384
114.12 361 19
114.238 379 19.4679
114.355 361 19
114.472 337 18.3576
114.589 312 17.6635
114.707 282 16.7929
114.824 345 18.5742
114.942 373 19.3132
115.059 370 19.2354
115.176 378 19.4422
115.294 381 19.5192
115.411 360 18.9737
115.529 367 19.1572
115.646 318 17.8326
115.764 413 20.3224
115.881 374 19.3391
115.999 361 19
116.116 365 19.105
116.234 365 19.105
116.351 356 18.868
116.469 391 19.7737
116.586 346 18.6011
116.704 400 20
116.821 358 18.9209
116.939 431 20.7605
117.056 422 20.5426
117.174 406 20.1494
117.291 437 20.9045
117.409 424 20.5913
117.526 422 20.5426
117.644 412 20.2978
117.761 469 21.6564
117.879 435 20.8567
117.996 423 20.567
118.114 444 21.0713
118.231 453 21.2838
118.349 397 19.9249
118.466 452 21.2603
118.584 484 22
118.701 551 23.4734
118.819 491 22.1585
118.936 565 23.7697
119.053 523 22.8692
119.171 532 23.0651
119.288 503 22.4277
119.405 507 22.5167
119.523 486 22.0454
119.64 495 22.2486
119.757 541 23.2594
119.875 502 22.4054
119.992 553 23.516
120.109 500 22.3607
120.226 545 23.3452
120.343 526 22.9347
120.46 486 22.0454
120.578 516 22.7156
120.695 534 23.1084
120.812 575 23.9792
120.929 546 23.3666
121.046 568 23.8328
121.163 598 24.454
121.279 580 24.0832
121.396 581 24.1039
121.513 574 23.9583
121.63 626 25.02
121.747 566 23.7908
121.863 538 23.1948
121.98 505 22.4722
122.097 468 21.6333
122.213 576 24
122.33 607 24.6374
122.446 649 25.4755
122.563 653 25.5539
122.679 608 24.6577
122.795 621 24.9199
122.912 688 26.2298
123.028 620 24.8998
123.144 693 26.3249
123.26 655 25.593
123.377 0 1
123.493 0 1
123.609 0 1
123.725 0 1
123.84 0 1
123.956 0 1
124.072 0 1
124.188 0 1
124.303 0 1
124.419 0 1
126.852 0 1
126.968 0 1
127.083 0 1
127.199 0 1
127.315 0 1
127.431 0 1
127.547 0 1
127.663 0 1
127.779 0 1
127.895 0 1
128.011 0 1
128.127 0 1
128.243 0 1
128.359 835 28.8964
128.476 858 29.2916
128.592 898 29.9666
128.708 836 28.9137
128.825 903 30.05
128.941 834 28.8791
129.058 861 29.3428
129.174 853 29.2062
129.291 801 28.3019
129.408 877 29.6142
129.524 835 28.8964
129.641 870 29.4958
129.758 892 29.8664
129.875 876 29.5973
129.992 856 29.2575
130.108 881 29.6816
130.225 853 29.2062
130.342 891 29.8496
130.459 823 28.688
130.576 868 29.4618
130.693 788 28.0713
130.81 726 26.9444
130.928 711 26.6646
131.045 712 26.6833
131.162 743 27.258
131.279 769 27.7308
131.396 839 28.9655
131.513 888 29.7993
131.631 916 30.2655
131.748 898 29.9666
131.865 911 30.1828
131.983 966 31.0805
132.1 875 29.5804
132.217 922 30.3645
132.335 920 30.3315
132.452 924 30.3974
132.57 948 30.7896
132.687 883 29.7153
132.804 878 29.6311
132.922 906 30.0998
133.039 909 30.1496
133.157 934 30.5614
133.274 854 29.2233
133.392 973 31.1929
133.509 980 31.305
133.627 967 31.0966
133.744 958 30.9516
133.862 1002 31.6544
133.979 912 30.1993
134.097 962 31.0161
134.214 870 29.4958
134.332 822 28.6705
134.449 754 27.4591
134.567 842 29.0172
134.684 808 28.4253
134.802 896 29.9333
134.919 938 30.6268
135.037 949 30.8058
135.154 962 31.0161
135.272 981 31.3209
135.389 1003 31.6702
135.507 1025 32.0156
135.624 1023 31.9844
135.742 1034 32.1559
135.859 1036 32.187
135.977 933 30.545
136.094 1004 31.686
136.211 1005 31.7017
136.329 934 30.5614
136.446 1002 31.6544
136.564 967 31.0966
136.681 1012 31.8119
136.798 981 31.3209
136.915 1035 32.1714
137.033 1037 32.2025
137.15 1029 32.078
137.267 1003 31.6702
137.384 1027 32.0468
137.502 1010 31.7805
137.619 984 31.3688
137.736 953 30.8707
137.853 891 29.8496
137.97 870 29.4958
138.087 879 29.6479
138.204 842 29.0172
138.321 860 29.3258
138.438 961 31
138.555 976 31.241
138.672 1026 32.0312
138.788 1019 31.9218
138.905 1075 32.7872
139.022 1064 32.619
139.139 1020 31.9374
139.255 1040 32.249
139.372 1034 32.1559
139.488 1043 32.2955
139.605 1059 32.5423
139.721 1049 32.3883
139.838 1002 31.6544
139.954 1059 32.5423
140.071 1031 32.1092
140.187 1028 32.0624
140.303 1067 32.665
140.419 1039 32.2335
140.535 983 31.3528
140.652 1030 32.0936
140.768 0 1
140.884 0 1
141 0 1
141.115 0 1
141.231 0 1
141.347 0 1
141.463 0 1
141.578 0 1
141.694 0 1
144.104 0 1
144.219 0 1
144.335 0 1
144.45 0 1
144.566 0 1
144.682 0 1
144.798 0 1
144.914 0 1
145.03 0 1
145.146 941 30.6757
145.262 972 31.1769
145.378 978 31.273
145.494 918 30.2985
145.61 959 30.9677
145.726 1017 31.8904
145.842 897 29.95
145.959 994 31.5278
146.075 965 31.0644
146.192 888 29.7993
146.308 869 29.4788
146.425 842 29.0172
146.541 910 30.1662
146.658 806 28.3901
146.774 770 27.7489
146.891 823 28.688
147.008 819 28.6182
147.125 845 29.0689
147.241 952 30.8545
147.358 914 30.2324
147.475 877 29.6142
147.592 934 30.5614
147.709 928 30.4631
147.826 960 30.9839
147.943 993 31.5119
148.06 931 30.5123
148.177 934 30.5614
148.294 1001 31.6386
148.411 934 30.5614
148.528 888 29.7993
148.645 907 30.1164
148.762 929 30.4795
148.88 894 29.8998
148.997 837 28.931
149.114 943 30.7083
149.231 898 29.9666
149.349 919 30.315
149.466 907 30.1164
149.583 950 30.8221
149.701 861 29.3428
149.818 850 29.1548
149.935 865 29.4109
150.053 815 28.5482
150.17 821 28.6531
150.287 769 27.7308
150.405 773 27.8029
150.522 836 28.9137
150.64 846 29.0861
150.757 874 29.5635
150.875 876 29.5973
150.992 863 29.3769
151.11 855 29.2404
151.227 859 29.3087
151.344 907 30.1164
151.462 966 31.0805
151.579 980 31.305
151.697 892 29.8664
151.814 878 29.6311
151.932 850 29.1548
152.049 882 29.6985
152.167 956 30.9192
152.284 916 30.2655
152.402 919 30.315
152.519 935 30.5778
152.636 914 30.2324
152.754 942 30.692
152.871 931 30.5123
152.989 883 29.7153
153.106 943 30.7083
153.223 874 29.5635
153.341 878 29.6311
153.458 849 29.1376
153.575 850 29.1548
153.693 817 28.5832
153.81 810 28.4605
153.927 776 27.8568
154.044 787 28.0535
154.162 854 29.2233
154.279 838 28.9482
154.396 862 29.3598
154.513 949 30.8058
154.63 945 30.7409
154.747 897 29.95
154.864 893 29.8831
154.981 930 30.4959
155.098 967 31.0966
155.215 1007 31.7333
155.332 920 30.3315
155.449 928 30.4631
155.566 961 31
155.683 921 30.348
155.8 973 31.1929
155.917 928 30.4631
156.033 935 30.5778
156.15 0 1
156.267 0 1
156.383 0 1
156.5 0 1
156.617 0 1
156.733 0 1
156.85 0 1
156.966 0 1
157.082 0 1
157.199 0 1
157.315 0 1
157.431 0 1
157.547 0 1
157.664 0 1
157.78 0 1
157.896 0 1
158.012 0 1
158.128 0 1
158.244 0 1
158.359 0 1
158.475 0 1
158.591 0 1
158.706 0 1
