
6.15755 0 1
6.2731 0 1
6.3887 0 1
6.50437 0 1
6.62009 0 1
6.73587 0 1
6.8517 0 1
6.96759 0 1
7.08353 0 1
7.19952 0 1
7.31557 0 1
7.43166 0 1
7.54781 0 1
7.664 0 1
7.78024 0 1
7.89653 0 1
8.01286 0 1
8.12924 0 1
8.24567 0 1
8.36213 0 1
8.47864 0 1
8.59519 0 1
8.71178 0 1
8.82841 0 1
8.94508 0 1
9.06179 0 1
9.17853 0 1
9.29531 0 1
9.41212 0 1
9.52897 0 1
9.64584 0 1
9.76276 0 1
9.8797 0 1
9.99667 0 1
10.1137 0 1
10.2307 0 1
10.3478 0 1
10.4648 0 1
10.5819 0 1
10.6991 0 1
10.8162 0 1
10.9334 0 1
11.0506 0 1
11.1678 0 1
11.285 0 1
11.4023 0 1
11.5196 0 1
11.6369 0 1
11.7542 0 1
11.8715 0 1
11.9888 0 1
12.1062 0 1
12.2235 0 1
12.3409 0 1
12.4582 0 1
12.5756 0 1
12.693 0 1
12.8104 0 1
12.9278 0 1
13.0452 0 1
13.1626 0 1
13.28 0 1
13.3974 0 1
13.5149 0 1
13.6323 0 1
13.7497 0 1
13.8671 0 1
13.9845 0 1
14.1019 0 1
14.2193 0 1
14.3367 0 1
14.4541 0 1
14.5714 0 1
14.6888 0 1
14.8062 0 1
14.9235 0 1
15.0408 56738 238.197
15.1581 58562 241.996
15.2755 61072 247.127
15.3927 62334 249.668
15.51 62040 249.078
15.6273 61113 247.21
15.7445 60572 246.114
15.8617 59806 244.553
15.9789 59411 243.744
16.0961 58056 240.948
16.2132 57881 240.585
16.3304 57482 239.754
16.4475 58494 241.855
16.5646 60263 245.485
16.6816 62499 249.998
16.7986 64690 254.342
16.9156 66144 257.185
17.0326 66238 257.367
17.1496 65354 255.644
17.2665 64645 254.254
17.3833 64263 253.501
17.5002 62353 249.706
17.617 59997 244.943
17.7338 58584 242.041
17.8505 57075 238.904
17.9672 56656 238.025
18.0839 58007 240.846
18.2005 59287 243.489
18.3171 60308 245.577
18.4337 60555 246.079
18.5502 61596 248.185
18.6666 62158 249.315
18.7831 63023 251.044
18.8994 62851 250.701
19.0158 61347 247.683
19.1321 59432 243.787
19.2483 56872 238.479
19.3645 53594 231.504
19.4806 50442 224.593
19.5967 47146 217.131
19.7128 43810 209.308
19.8288 39782 199.454
19.9447 35321 187.939
20.0606 0 1
20.1764 0 1
20.2922 0 1
20.4079 0 1
20.5236 0 1
20.6392 0 1
20.7548 0 1
20.8702 0 1
23.3078 0 1
23.4233 0 1
23.539 0 1
23.6547 0 1
23.7704 0 1
23.8862 0 1
24.0021 0 1
24.118 0 1
24.234 0 1
24.35 0 1
24.4661 21836 147.77
24.5822 25787 160.583
24.6984 28800 169.706
24.8146 31678 177.983
24.9309 34072 184.586
25.0472 37170 192.795
25.1636 40421 201.05
25.28 44042 209.862
25.3965 47081 216.982
25.513 50800 225.389
25.6296 53527 231.359
25.7462 56055 236.759
25.8628 57368 239.516
25.9795 58527 241.924
26.0962 58302 241.458
26.213 57111 238.979
26.3298 54096 232.585
26.4466 52050 228.145
26.5635 50666 225.091
26.6804 50230 224.121
26.7973 51057 225.958
26.9143 51356 226.619
27.0313 51983 227.998
27.1483 52989 230.193
27.2653 53702 231.737
27.3824 54306 233.036
27.4996 54514 233.482
27.6167 53667 231.661
27.7339 52355 228.812
27.8511 50847 225.493
27.9683 49824 223.213
28.0855 48824 220.962
28.2028 47688 218.376
28.3201 45905 214.255
28.4374 44306 210.49
28.5547 43499 208.564
28.6721 44100 210
28.7894 45624 213.598
28.9068 47840 218.724
29.0242 50044 223.705
29.1416 51996 228.026
29.259 52459 229.039
29.3764 52669 229.497
29.4939 52524 229.181
29.6113 51619 227.198
29.7288 49851 223.273
29.8463 48116 219.354
29.9638 46758 216.236
30.0812 46015 214.511
30.1987 45645 213.647
30.3162 46192 214.923
30.4337 46518 215.68
30.5512 47131 217.097
30.6687 48146 219.422
30.7862 48578 220.404
30.9037 49022 221.409
31.0212 49282 221.995
31.1387 49252 221.928
31.2562 48129 219.383
31.3737 47403 217.722
31.4912 46694 216.088
31.6087 45245 212.709
31.7262 44332 210.552
31.8436 42234 205.509
31.9611 40777 201.933
32.0785 39930 199.825
32.1959 40398 200.993
32.3134 42395 205.9
32.4308 43990 209.738
32.5482 45882 214.201
32.6655 47771 218.566
32.7829 48414 220.032
32.9002 48665 220.601
33.0176 48013 219.119
33.1349 48382 219.959
33.2522 47785 218.598
33.3694 46294 215.16
33.4867 45084 212.33
33.6039 43580 208.758
33.7211 42372 205.845
33.8383 42285 205.633
33.9554 42527 206.221
34.0725 43784 209.246
34.1896 44473 210.886
34.3067 44786 211.627
34.4237 45446 213.181
34.5407 45920 214.29
34.6577 45713 213.806
34.7746 46310 215.198
34.8915 45606 213.556
35.0084 44316 210.514
35.1252 43554 208.696
35.242 42831 206.957
35.3587 41825 204.512
35.4755 40824 202.049
35.5921 39572 198.927
35.7088 37957 194.826
35.8254 36911 192.122
35.9419 37625 193.972
36.0584 38907 197.249
36.1749 39941 199.852
36.2913 40750 201.866
36.4077 41002 202.49
36.524 40921 202.289
36.6403 40119 200.297
36.7565 38532 196.296
36.8727 36601 191.314
36.9889 34277 185.14
37.1049 31247 176.768
37.221 0 1
37.3369 0 1
37.4529 0 1
37.5687 0 1
37.6845 0 1
37.8003 0 1
37.916 0 1
38.0316 0 1
38.1472 0 1
40.5851 0 1
40.7008 0 1
40.8164 0 1
40.9322 0 1
41.048 0 1
41.1639 0 1
41.2798 0 1
41.3958 0 1
41.5118 0 1
41.6279 0 1
41.744 19476 139.556
41.8602 22329 149.429
41.9765 24840 157.607
42.0928 26662 163.285
42.2091 26877 163.942
42.3255 27202 164.93
42.4419 27636 166.241
42.5584 28043 167.46
42.675 29180 170.822
42.7915 30873 175.707
42.9081 33061 181.827
43.0248 34416 185.515
43.1415 35343 187.997
43.2582 36006 189.752
43.375 36934 192.182
43.4918 37358 193.282
43.6087 37449 193.517
43.7256 36825 191.898
43.8425 36200 190.263
43.9595 35630 188.759
44.0765 35185 187.577
44.1935 34759 186.438
44.3106 34101 184.665
44.4277 32363 179.897
44.5448 30467 174.548
44.6619 29634 172.145
44.7791 30480 174.585
44.8963 31813 178.362
45.0136 33350 182.62
45.1308 36027 189.808
45.2481 37160 192.769
45.3654 37326 193.199
45.4827 37239 192.974
45.6001 37184 192.832
45.7174 37039 192.455
45.8348 35626 188.749
45.9522 34283 185.157
46.0697 33391 182.732
46.1871 32213 179.48
46.3046 33334 182.576
46.422 34114 184.7
46.5395 34881 186.765
46.657 35305 187.896
46.7745 36996 192.343
46.892 37196 192.863
47.0096 37492 193.629
47.1271 38575 196.405
47.2446 38212 195.479
47.3622 38132 195.274
47.4797 37392 193.37
47.5973 36639 191.413
47.7149 35852 189.346
47.8324 35072 187.275
47.95 34318 185.251
48.0675 33105 181.948
48.1851 30275 173.997
48.3027 30376 174.287
48.4202 31591 177.739
48.5378 32862 181.279
48.6554 35321 187.939
48.7729 37043 192.466
48.8904 37683 194.121
49.008 37919 194.728
49.1255 37280 193.08
49.243 36593 191.293
49.3605 35267 187.795
49.478 33423 182.82
49.5955 32453 180.147
49.713 31704 178.056
49.8304 31784 178.281
49.9479 33252 182.351
50.0653 34467 185.653
50.1827 35259 187.774
50.3001 36287 190.491
50.4175 37061 192.512
50.5348 37412 193.422
50.6521 37948 194.802
50.7694 38351 195.834
50.8867 37926 194.746
51.004 37418 193.437
51.1212 36835 191.924
51.2384 35969 189.655
51.3556 35409 188.173
51.4727 33994 184.375
51.5899 31538 177.589
51.707 29790 172.598
51.824 30444 174.482
51.9411 32182 179.393
52.0581 33486 182.992
52.175 36287 190.491
52.2919 37604 193.918
52.4088 38065 195.103
52.5257 38101 195.195
52.6425 38333 195.788
52.7593 37951 194.81
52.876 37084 192.572
52.9927 35615 188.719
53.1094 34505 185.755
53.226 33423 182.82
53.3426 32233 179.536
53.4591 31786 178.286
53.5756 31778 178.264
53.692 31556 177.64
53.8084 31652 177.91
53.9248 30273 173.991
54.0411 29139 170.701
54.1573 27838 166.847
54.2735 0 1
54.3896 0 1
54.5057 0 1
54.6217 0 1
54.7377 0 1
54.8537 0 1
54.9695 0 1
55.0853 0 1
55.2011 0 1
55.3168 0 1
55.4324 0 1
57.824 0 1
57.9396 0 1
58.0553 0 1
58.1711 0 1
58.2869 0 1
58.4028 0 1
58.5187 0 1
58.6347 0 1
58.7508 0 1
58.8669 0 1
58.983 24788 157.442
59.0992 28828 169.788
59.2155 32696 180.82
59.3318 36034 189.826
59.4482 39231 198.068
59.5646 41733 204.287
59.681 43631 208.88
59.7975 44722 211.476
59.9141 45747 213.885
60.0306 45738 213.864
60.1473 44946 212.005
60.2639 44527 211.014
60.3807 42619 206.444
60.4974 41251 203.103
60.6142 41549 203.836
60.731 43440 208.423
60.8479 46216 214.979
60.9648 49316 222.072
61.0818 51232 226.345
61.1987 52263 228.611
61.3158 52451 229.022
61.4328 51750 227.486
61.5499 50329 224.341
61.667 48357 219.902
61.7841 46837 216.419
61.9013 45132 212.443
62.0185 44625 211.246
62.1357 45708 213.794
62.253 48235 219.625
62.3702 50648 225.051
62.4875 51897 227.809
62.6049 53292 230.851
62.7222 55146 234.832
62.8396 56006 236.656
62.9569 56579 237.863
63.0743 56625 237.96
63.1918 56407 237.502
63.3092 55983 236.607
63.4267 54037 232.459
63.5441 53062 230.352
63.6616 51539 227.022
63.7791 48679 220.633
63.8966 45309 212.859
64.0142 43665 208.962
64.1317 43541 208.665
64.2492 46256 215.072
64.3668 48777 220.855
64.4843 52606 229.36
64.6019 55064 234.657
64.7195 55998 236.639
64.837 56214 237.095
64.9546 56451 237.594
65.0722 55255 235.064
65.1898 53897 232.157
65.3074 50452 224.615
65.4249 49399 222.259
65.5425 48253 219.666
65.6601 48030 219.157
65.7777 50184 224.018
65.8952 52924 230.052
66.0128 54946 234.406
66.1304 57051 238.854
66.2479 58883 242.658
66.3655 60139 245.233
66.483 61339 247.667
66.6005 61908 248.813
66.718 61701 248.397
66.8355 61008 246.998
66.953 60286 245.532
67.0705 59509 243.945
67.1879 57882 240.587
67.3054 55143 234.825
67.4228 52507 229.144
67.5402 47799 218.63
67.6576 45837 214.096
67.7749 46482 215.597
67.8923 49415 222.295
68.0096 52463 229.048
68.1269 57610 240.021
68.2442 61260 247.508
68.3614 62799 250.597
68.4787 62382 249.764
68.5958 62215 249.429
68.713 61810 248.616
68.8302 59874 244.692
68.9473 56966 238.676
69.0643 54530 233.517
69.1814 53130 230.499
69.2984 53356 230.989
69.4154 56017 236.679
69.5323 59204 243.319
69.6492 61298 247.584
69.7661 63541 252.073
69.8829 65458 255.848
69.9997 65571 256.068
70.1165 65100 255.147
70.2332 64369 253.71
70.3499 62058 249.114
70.4665 60142 245.239
70.5831 57461 239.71
70.6996 54488 233.427
70.8161 51652 227.271
70.9326 47668 218.33
71.049 42701 206.642
71.1653 35576 188.616
71.2817 28697 169.402
71.3979 25002 158.12
71.5141 24087 155.2
71.6303 22939 151.456
71.7464 21240 145.739
71.8624 0 1
71.9784 0 1
72.0944 0 1
72.2102 0 1
72.3261 0 1
72.4418 0 1
72.5575 0 1
72.6732 0 1
75.1054 0 1
75.2209 0 1
75.3365 0 1
75.4521 0 1
75.5678 0 1
75.6835 0 1
75.7993 0 1
75.9151 0 1
76.031 0 1
76.147 44686 211.391
76.263 47361 217.626
76.3791 48353 219.893
76.4952 48093 219.301
76.6113 47504 217.954
76.7276 48759 220.814
76.8438 53093 230.419
76.9601 57135 239.029
77.0765 62566 250.132
77.1929 68141 261.038
77.3093 71291 267.004
77.4258 71893 268.129
77.5423 72082 268.481
77.6589 71805 267.965
77.7755 69465 263.562
77.8921 64985 254.922
78.0088 61503 247.998
78.1256 58990 242.879
78.2423 57344 239.466
78.3591 58001 240.834
78.4759 61662 248.318
78.5928 65001 254.953
78.7097 68034 260.833
78.8266 70239 265.026
78.9436 72975 270.139
79.0606 72919 270.035
79.1776 74219 272.432
79.2946 75501 274.774
79.4117 74736 273.379
79.5288 73832 271.72
79.6459 73308 270.755
79.7631 70979 266.419
79.8802 68728 262.16
79.9974 66021 256.946
80.1147 61847 248.691
80.2319 56211 237.089
80.3491 53924 232.215
80.4664 55293 235.145
80.5837 58210 241.267
80.701 62453 249.906
80.8183 68494 261.714
80.9357 72159 268.624
81.053 73348 270.828
81.1704 73101 270.372
81.2877 72728 269.681
81.4051 72048 268.418
81.5225 67970 260.711
81.6399 64662 254.287
81.7573 59437 243.797
81.8747 57473 239.735
81.9922 55684 235.975
82.1096 58574 242.021
82.227 61767 248.53
82.3444 64803 254.564
82.4619 68384 261.503
82.5793 69944 264.469
82.6967 69630 263.875
82.8142 71020 266.496
82.9316 71722 267.81
83.049 71067 266.584
83.1664 70042 264.654
83.2838 68580 261.878
83.4012 66207 257.307
83.5186 63827 252.64
83.636 61136 247.257
83.7534 57853 240.527
83.8708 52616 229.382
83.9881 48596 220.445
84.1055 48857 221.036
84.2228 50674 225.109
84.3401 54125 232.648
84.4575 57835 240.489
84.5747 62735 250.47
84.692 64587 254.14
84.8093 65301 255.541
84.9265 63766 252.519
85.0437 62026 249.05
85.1609 57736 240.283
85.2781 52972 230.156
85.3952 50452 224.615
85.5123 48108 219.335
85.6294 48434 220.077
85.7465 51671 227.313
85.8636 54815 234.126
85.9806 56462 237.617
86.0976 58306 241.466
86.2145 59689 244.313
86.3315 60511 245.99
86.4484 61426 247.843
86.5652 60764 246.504
86.682 60987 246.955
86.7988 59625 244.182
86.9156 58245 241.34
87.0323 56431 237.552
87.149 54318 233.062
87.2657 51105 226.064
87.3823 46124 214.765
87.4988 40445 201.109
87.6154 36645 191.429
87.7318 36592 191.29
87.8483 37325 193.197
87.9647 38814 197.013
88.081 42449 206.032
88.1973 42685 206.603
88.3136 41854 204.583
88.4298 39138 197.833
88.546 36253 190.402
88.6621 31460 177.37
88.7781 25441 159.502
88.8942 0 1
89.0101 0 1
89.126 0 1
89.2419 0 1
89.3577 0 1
89.4734 0 1
89.5891 0 1
89.7047 0 1
89.8203 0 1
89.9358 0 1
92.3269 0 1
92.4424 0 1
92.558 0 1
92.6736 0 1
92.7893 0 1
92.905 0 1
93.0208 0 1
93.1366 0 1
93.2525 0 1
93.3685 0 1
93.4845 0 1
93.6005 30366 174.258
93.7167 33342 182.598
93.8328 35709 188.968
93.949 37751 194.296
94.0653 39133 197.821
94.1816 40426 201.062
94.2979 40435 201.085
94.4143 39302 198.247
94.5307 38696 196.713
94.6472 38011 194.964
94.7637 37404 193.401
94.8803 38785 196.939
94.9969 41063 202.64
95.1135 43451 208.449
95.2302 44942 211.995
95.3469 45955 214.371
95.4637 47300 217.486
95.5805 47426 217.775
95.6973 48231 219.616
95.8142 47796 218.623
95.9311 47320 217.532
96.048 46367 215.33
96.1649 45532 213.382
96.2819 44589 211.161
96.3989 42450 206.034
96.516 40510 201.271
96.633 38532 196.296
96.7501 35376 188.085
96.8673 33681 183.524
96.9844 33343 182.601
97.1016 34510 185.769
97.2188 36555 191.194
97.336 39696 199.239
97.4532 42599 206.395
97.5704 44429 210.782
97.6877 44499 210.948
97.805 44130 210.071
97.9223 42206 205.441
98.0396 39683 199.206
98.1569 36990 192.328
98.2743 35581 188.629
98.3916 34438 185.575
98.509 35251 187.752
98.6264 38613 196.502
98.7438 40270 200.674
98.8612 42187 205.395
98.9786 43336 208.173
99.096 44663 211.336
99.2134 45955 214.371
99.3308 46096 214.7
99.4482 46379 215.358
99.5656 46653 215.993
99.6831 45537 213.394
99.8005 45277 212.784
99.9179 43719 209.091
100.035 41446 203.583
100.153 39377 198.436
100.27 36984 192.312
100.388 34573 185.938
100.505 33325 182.551
100.622 34580 185.957
100.74 36360 190.683
100.857 39373 198.426
100.975 41871 204.624
101.092 43723 209.1
101.209 44008 209.781
101.327 43552 208.691
101.444 42516 206.194
101.561 39973 199.932
101.679 37315 193.171
101.796 35562 188.579
101.913 33836 183.946
102.03 34305 185.216
102.148 37126 192.681
102.265 39386 198.459
102.382 42381 205.866
102.499 43700 209.045
102.616 44891 211.875
102.733 45097 212.361
102.851 46150 214.826
102.968 46269 215.102
103.085 46210 214.965
103.202 46645 215.975
103.319 45550 213.424
103.436 43894 209.509
103.552 41758 204.348
103.669 39828 199.57
103.786 37673 194.095
103.903 34520 185.796
104.02 33587 183.268
104.137 34748 186.408
104.253 36233 190.35
104.37 40190 200.474
104.487 42141 205.283
104.603 43659 208.947
104.72 43392 208.307
104.836 41775 204.389
104.953 39023 197.542
105.069 35555 188.56
105.186 33497 183.022
105.302 31343 177.04
105.418 29982 173.153
105.535 29178 170.816
105.651 29732 172.43
105.767 29527 171.834
105.883 28259 168.104
105.999 26789 163.673
106.115 0 1
106.231 0 1
106.347 0 1
106.463 0 1
106.579 0 1
106.694 0 1
106.81 0 1
106.926 0 1
107.041 0 1
107.157 0 1
109.576 0 1
109.692 0 1
109.807 0 1
109.923 0 1
110.039 0 1
110.155 0 1
110.27 0 1
110.386 0 1
110.502 0 1
110.618 15065 122.74
110.735 20117 141.834
110.851 24147 155.393
110.967 27005 164.332
111.083 29702 172.343
111.199 32062 179.059
111.316 34635 186.105
111.432 36037 189.834
111.549 37314 193.168
111.665 38011 194.964
111.782 38583 196.426
111.898 38445 196.074
112.015 36856 191.979
112.132 35521 188.47
112.248 33997 184.383
112.365 31462 177.375
112.482 28663 169.302
112.599 29654 172.203
112.716 30458 174.522
112.832 31722 178.107
112.949 33690 183.548
113.066 36093 189.982
113.183 37300 193.132
113.3 36941 192.2
113.417 37229 192.948
113.534 36222 190.321
113.652 34077 184.6
113.769 32153 179.313
113.886 30259 173.951
114.003 29350 171.318
114.12 29564 171.942
114.238 32242 179.561
114.355 34499 185.739
114.472 34912 186.848
114.589 39199 197.987
114.707 38553 196.349
114.824 39558 198.892
114.942 39879 199.697
115.059 40318 200.793
115.176 40381 200.95
115.294 39720 199.299
115.411 38750 196.85
115.529 37685 194.126
115.646 35845 189.328
115.764 34038 184.494
115.881 32641 180.668
115.999 29968 173.113
116.116 28702 169.417
116.234 29292 171.149
116.351 30818 175.551
116.469 32350 179.861
116.586 34228 185.008
116.704 35789 189.18
116.821 36572 191.238
116.939 36297 190.518
117.056 35700 188.944
117.174 34662 186.177
117.291 32372 179.922
117.409 30684 175.168
117.526 29563 171.939
117.644 29048 170.435
117.761 30718 175.266
117.879 33217 182.255
117.996 34546 185.866
118.114 36363 190.691
118.231 37588 193.876
118.349 38289 195.676
118.466 38793 196.959
118.584 38717 196.766
118.701 38603 196.476
118.819 38830 197.053
118.936 37684 194.124
119.053 36705 191.585
119.171 35411 188.178
119.288 34275 185.135
119.405 32462 180.172
119.523 30319 174.124
119.64 28849 169.85
119.757 28183 167.878
119.875 28631 169.207
119.992 29274 171.096
120.109 31155 176.508
120.226 33067 181.843
120.343 34051 184.529
120.46 34218 184.981
120.578 34340 185.311
120.695 34215 184.973
120.812 33308 182.505
120.929 31073 176.275
121.046 29385 171.421
121.163 28118 167.684
121.279 27696 166.421
121.396 28106 167.648
121.513 29324 171.243
121.63 30638 175.037
121.747 31228 176.714
121.863 31398 177.195
121.98 31665 177.947
122.097 31648 177.899
122.213 31499 177.48
122.33 30662 175.106
122.446 29278 171.108
122.563 27883 166.982
122.679 26070 161.462
122.795 24262 155.763
122.912 21844 147.797
123.028 19207 138.589
123.144 16549 128.643
123.26 14447 120.196
123.377 0 1
123.493 0 1
123.609 0 1
123.725 0 1
123.84 0 1
123.956 0 1
124.072 0 1
124.188 0 1
124.303 0 1
124.419 0 1
126.852 0 1
126.968 0 1
127.083 0 1
127.199 0 1
127.315 0 1
127.431 0 1
127.547 0 1
127.663 0 1
127.779 0 1
127.895 0 1
128.011 0 1
128.127 0 1
128.243 0 1
128.359 33186 182.17
128.476 33928 184.196
128.592 34452 185.612
128.708 32913 181.419
128.825 31854 178.477
128.941 31936 178.706
129.058 33258 182.368
129.174 34558 185.898
129.291 36924 192.156
129.408 38170 195.371
129.524 39007 197.502
129.641 39172 197.919
129.758 39245 198.104
129.875 38137 195.287
129.992 36075 189.934
130.108 33980 184.337
130.225 32906 181.4
130.342 31963 178.782
130.459 32796 181.097
130.576 35640 188.786
130.693 37134 192.702
130.81 38363 195.865
130.928 39403 198.502
131.045 39655 199.136
131.162 40360 200.898
131.279 40733 201.824
131.396 40922 202.292
131.513 40540 201.345
131.631 39742 199.354
131.748 38833 197.061
131.865 38112 195.223
131.983 37109 192.637
132.1 36080 189.947
132.217 34368 185.386
132.335 32403 180.008
132.452 32700 180.831
132.57 33219 182.261
132.687 34727 186.352
132.804 36324 190.589
132.922 38053 195.072
133.039 38519 196.263
133.157 39016 197.525
133.274 39451 198.623
133.392 39074 197.671
133.509 36988 192.323
133.627 34845 186.668
133.744 33641 183.415
133.862 32266 179.627
133.979 32670 180.748
134.097 34853 186.69
134.214 37305 193.145
134.332 37667 194.08
134.449 38415 195.997
134.567 39309 198.265
134.684 39503 198.754
134.802 39945 199.862
134.919 40598 201.489
135.037 39992 199.98
135.154 39461 198.648
135.272 38970 197.408
135.389 38898 197.226
135.507 37608 193.928
135.624 36539 191.152
135.742 34800 186.548
135.859 33260 182.373
135.977 32784 181.064
136.094 33265 182.387
136.211 34294 185.186
136.329 36040 189.842
136.446 38040 195.038
136.564 39020 197.535
136.681 39551 198.874
136.798 39751 199.377
136.915 39334 198.328
137.033 38524 196.275
137.15 36701 191.575
137.267 34622 186.07
137.384 32787 181.072
137.502 32115 179.207
137.619 32270 179.639
137.736 34692 186.258
137.853 35441 188.258
137.97 37014 192.39
138.087 37965 194.846
138.204 38938 197.327
138.321 38966 197.398
138.438 38897 197.223
138.555 39826 199.565
138.672 38999 197.482
138.788 37506 193.665
138.905 35207 187.635
139.022 34059 184.551
139.139 32412 180.033
139.255 31225 176.706
139.372 28542 168.944
139.488 25709 160.34
139.605 24023 154.994
139.721 23314 152.689
139.838 23197 152.306
139.954 23161 152.187
140.071 23494 153.278
140.187 22286 149.285
140.303 20448 142.997
140.419 18576 136.294
140.535 17776 133.327
140.652 16389 128.02
140.768 0 1
140.884 0 1
141 0 1
141.115 0 1
141.231 0 1
141.347 0 1
141.463 0 1
141.578 0 1
141.694 0 1
144.104 0 1
144.219 0 1
144.335 0 1
144.45 0 1
144.566 0 1
144.682 0 1
144.798 0 1
144.914 0 1
145.03 0 1
145.146 24913 157.839
145.262 27333 165.327
145.378 29117 170.637
145.494 30294 174.052
145.61 30890 175.756
145.726 31400 177.2
145.842 29715 172.38
145.959 28533 168.917
146.075 27106 164.639
146.192 26291 162.145
146.308 25682 160.256
146.425 25735 160.421
146.541 26897 164.003
146.658 28201 167.932
146.774 28836 169.812
146.891 29641 172.166
147.008 30366 174.258
147.125 30500 174.642
147.241 30734 175.311
147.358 31108 176.375
147.475 31407 177.22
147.592 30926 175.858
147.709 30450 174.499
147.826 29882 172.864
147.943 29188 170.845
148.06 28680 169.352
148.177 27098 164.615
148.294 26131 161.651
148.411 26204 161.876
148.528 26580 163.034
148.645 27357 165.4
148.762 28141 167.753
148.88 29888 172.881
148.997 30974 175.994
149.114 29887 172.879
149.231 30683 175.166
149.349 30770 175.414
149.466 30203 173.79
149.583 29187 170.842
149.701 26935 164.119
149.818 25973 161.161
149.935 25269 158.962
150.053 25095 158.414
150.17 26183 161.812
150.287 27134 164.724
150.405 27958 167.206
150.522 28912 170.035
150.64 29541 171.875
150.757 29692 172.314
150.875 30378 174.293
150.992 30095 173.479
151.11 30346 174.201
151.227 29701 172.34
151.344 29852 172.777
151.462 28811 169.738
151.579 28927 170.079
151.697 27934 167.135
151.814 27064 164.511
151.932 26256 162.037
152.049 25578 159.931
152.167 26030 161.338
152.284 26712 163.438
152.402 27647 166.274
152.519 28561 169
152.636 29463 171.648
152.754 29492 171.732
152.871 29591 172.02
152.989 28979 170.232
153.106 28734 169.511
153.223 27153 164.782
153.341 26208 161.889
153.458 25283 159.006
153.575 24546 156.672
153.693 25099 158.427
153.81 25846 160.767
153.927 26698 163.395
154.044 27243 165.055
154.162 28225 168.003
154.279 28495 168.805
154.396 29219 170.936
154.513 29687 172.299
154.63 29302 171.178
154.747 29651 172.195
154.864 29097 170.578
154.981 28644 169.245
155.098 27966 167.23
155.215 27499 165.828
155.332 26678 163.334
155.449 25510 159.719
155.566 24655 157.019
155.683 24358 156.07
155.8 24727 157.248
155.917 24380 156.141
156.033 24589 156.809
156.15 0 1
156.267 0 1
156.383 0 1
156.5 0 1
156.617 0 1
156.733 0 1
156.85 0 1
156.966 0 1
157.082 0 1
157.199 0 1
157.315 0 1
157.431 0 1
157.547 0 1
157.664 0 1
157.78 0 1
157.896 0 1
158.012 0 1
158.128 0 1
158.244 0 1
158.359 0 1
158.475 0 1
158.591 0 1
158.706 0 1
