
6.15755 0 1
6.2731 0 1
6.3887 0 1
6.50437 0 1
6.62009 0 1
6.73587 0 1
6.8517 0 1
6.96759 0 1
7.08353 0 1
7.19952 0 1
7.31557 0 1
7.43166 0 1
7.54781 0 1
7.664 0 1
7.78024 0 1
7.89653 0 1
8.01286 0 1
8.12924 0 1
8.24567 0 1
8.36213 0 1
8.47864 0 1
8.59519 0 1
8.71178 0 1
8.82841 0 1
8.94508 0 1
9.06179 0 1
9.17853 0 1
9.29531 0 1
9.41212 0 1
9.52897 0 1
9.64584 0 1
9.76276 0 1
9.8797 0 1
9.99667 0 1
10.1137 0 1
10.2307 0 1
10.3478 0 1
10.4648 0 1
10.5819 0 1
10.6991 0 1
10.8162 0 1
10.9334 0 1
11.0506 0 1
11.1678 0 1
11.285 0 1
11.4023 0 1
11.5196 0 1
11.6369 0 1
11.7542 0 1
11.8715 0 1
11.9888 0 1
12.1062 0 1
12.2235 0 1
12.3409 0 1
12.4582 0 1
12.5756 0 1
12.693 0 1
12.8104 0 1
12.9278 0 1
13.0452 0 1
13.1626 0 1
13.28 0 1
13.3974 0 1
13.5149 0 1
13.6323 0 1
13.7497 0 1
13.8671 0 1
13.9845 0 1
14.1019 0 1
14.2193 0 1
14.3367 0 1
14.4541 0 1
14.5714 0 1
14.6888 0 1
14.8062 0 1
14.9235 0 1
15.0408 0 0
15.1581 0 0
15.2755 0 0
15.3927 0 0
15.51 0 0
15.6273 0 0
15.7445 0 0
15.8617 0 0
15.9789 0 0
16.0961 0 0
16.2132 0 0
16.3304 0 0
16.4475 0 0
16.5646 0 0
16.6816 0 0
16.7986 0 0
16.9156 0 0
17.0326 0 0
17.1496 0 0
17.2665 0 0
17.3833 0 0
17.5002 0 0
17.617 0 0
17.7338 0 0
17.8505 0 0
17.9672 0 0
18.0839 0 0
18.2005 0 0
18.3171 0 0
18.4337 0 0
18.5502 0 0
18.6666 0 0
18.7831 0 0
18.8994 0 0
19.0158 0 0
19.1321 0 0
19.2483 0 0
19.3645 0 0
19.4806 0 0
19.5967 0 0
19.7128 0 0
19.8288 0 0
19.9447 0 0
20.0606 0 1
20.1764 0 1
20.2922 0 1
20.4079 0 1
20.5236 0 1
20.6392 0 1
20.7548 0 1
20.8702 0 1
23.3078 0 1
23.4233 0 1
23.539 0 1
23.6547 0 1
23.7704 0 1
23.8862 0 1
24.0021 0 1
24.118 0 1
24.234 0 1
24.35 0 1
24.4661 691 26.2869
24.5822 677 26.0192
24.6984 644 25.3772
24.8146 683 26.1343
24.9309 688 26.2298
25.0472 730 27.0185
25.1636 659 25.671
25.28 684 26.1534
25.3965 780 27.9285
25.513 704 26.533
25.6296 726 26.9444
25.7462 781 27.9464
25.8628 697 26.4008
25.9795 757 27.5136
26.0962 715 26.7395
26.213 749 27.3679
26.3298 755 27.4773
26.4466 774 27.8209
26.5635 717 26.7769
26.6804 660 25.6905
26.7973 679 26.0576
26.9143 669 25.865
27.0313 629 25.0799
27.1483 646 25.4165
27.2653 612 24.7386
27.3824 691 26.2869
27.4996 667 25.8263
27.6167 691 26.2869
27.7339 591 24.3105
27.8511 646 25.4165
27.9683 571 23.8956
28.0855 627 25.04
28.2028 640 25.2982
28.3201 584 24.1661
28.4374 726 26.9444
28.5547 628 25.0599
28.6721 664 25.7682
28.7894 668 25.8457
28.9068 687 26.2107
29.0242 668 25.8457
29.1416 704 26.533
29.259 670 25.8844
29.3764 661 25.7099
29.4939 673 25.9422
29.6113 670 25.8844
29.7288 697 26.4008
29.8463 692 26.3059
29.9638 696 26.3818
30.0812 708 26.6083
30.1987 681 26.096
30.3162 649 25.4755
30.4337 632 25.1396
30.5512 543 23.3024
30.6687 568 23.8328
30.7862 604 24.5764
30.9037 563 23.7276
31.0212 639 25.2784
31.1387 613 24.7588
31.2562 635 25.1992
31.3737 600 24.4949
31.4912 643 25.3574
31.6087 634 25.1794
31.7262 589 24.2693
31.8436 571 23.8956
31.9611 590 24.2899
32.0785 659 25.671
32.1959 614 24.779
32.3134 677 26.0192
32.4308 663 25.7488
32.5482 668 25.8457
32.6655 654 25.5734
32.7829 675 25.9808
32.9002 665 25.7876
33.0176 678 26.0384
33.1349 668 25.8457
33.2522 604 24.5764
33.3694 636 25.219
33.4867 670 25.8844
33.6039 636 25.219
33.7211 635 25.1992
33.8383 642 25.3377
33.9554 682 26.1151
34.0725 600 24.4949
34.1896 534 23.1084
34.3067 547 23.388
34.4237 556 23.5797
34.5407 566 23.7908
34.6577 612 24.7386
34.7746 549 23.4307
34.8915 595 24.3926
35.0084 582 24.1247
35.1252 558 23.622
35.242 556 23.5797
35.3587 614 24.779
35.4755 594 24.3721
35.5921 593 24.3516
35.7088 632 25.1396
35.8254 635 25.1992
35.9419 600 24.4949
36.0584 639 25.2784
36.1749 627 25.04
36.2913 626 25.02
36.4077 642 25.3377
36.524 616 24.8193
36.6403 621 24.9199
36.7565 627 25.04
36.8727 682 26.1151
36.9889 643 25.3574
37.1049 654 25.5734
37.221 0 1
37.3369 0 1
37.4529 0 1
37.5687 0 1
37.6845 0 1
37.8003 0 1
37.916 0 1
38.0316 0 1
38.1472 0 1
40.5851 0 1
40.7008 0 1
40.8164 0 1
40.9322 0 1
41.048 0 1
41.1639 0 1
41.2798 0 1
41.3958 0 1
41.5118 0 1
41.6279 0 1
41.744 536 23.1517
41.8602 562 23.7065
41.9765 517 22.7376
42.0928 486 22.0454
42.2091 572 23.9165
42.3255 549 23.4307
42.4419 554 23.5372
42.5584 545 23.3452
42.675 542 23.2809
42.7915 527 22.9565
42.9081 495 22.2486
43.0248 488 22.0907
43.1415 458 21.4009
43.2582 455 21.3307
43.375 444 21.0713
43.4918 513 22.6495
43.6087 506 22.4944
43.7256 524 22.891
43.8425 488 22.0907
43.9595 458 21.4009
44.0765 470 21.6795
44.1935 491 22.1585
44.3106 464 21.5407
44.4277 487 22.0681
44.5448 501 22.383
44.6619 512 22.6274
44.7791 525 22.9129
44.8963 507 22.5167
45.0136 443 21.0476
45.1308 474 21.7715
45.2481 471 21.7025
45.3654 491 22.1585
45.4827 477 21.8403
45.6001 435 20.8567
45.7174 437 20.9045
45.8348 391 19.7737
45.9522 445 21.095
46.0697 428 20.6882
46.1871 462 21.4942
46.3046 413 20.3224
46.422 454 21.3073
46.5395 436 20.8806
46.657 369 19.2094
46.7745 338 18.3848
46.892 361 19
47.0096 410 20.2485
47.1271 364 19.0788
47.2446 386 19.6469
47.3622 361 19
47.4797 351 18.735
47.5973 365 19.105
47.7149 346 18.6011
47.8324 341 18.4662
47.95 365 19.105
48.0675 375 19.3649
48.1851 342 18.4932
48.3027 347 18.6279
48.4202 368 19.1833
48.5378 353 18.7883
48.6554 332 18.2209
48.7729 374 19.3391
48.8904 330 18.1659
49.008 356 18.868
49.1255 398 19.9499
49.243 364 19.0788
49.3605 356 18.868
49.478 383 19.5704
49.5955 400 20
49.713 373 19.3132
49.8304 344 18.5472
49.9479 397 19.9249
50.0653 381 19.5192
50.1827 357 18.8944
50.3001 296 17.2047
50.4175 338 18.3848
50.5348 345 18.5742
50.6521 364 19.0788
50.7694 382 19.5448
50.8867 379 19.4679
51.004 412 20.2978
51.1212 367 19.1572
51.2384 390 19.7484
51.3556 409 20.2237
51.4727 405 20.1246
51.5899 489 22.1133
51.707 472 21.7256
51.824 455 21.3307
51.9411 451 21.2368
52.0581 486 22.0454
52.175 481 21.9317
52.2919 512 22.6274
52.4088 474 21.7715
52.5257 484 22
52.6425 455 21.3307
52.7593 452 21.2603
52.876 487 22.0681
52.9927 524 22.891
53.1094 533 23.0868
53.226 475 21.7945
53.3426 531 23.0434
53.4591 522 22.8473
53.5756 494 22.2261
53.692 485 22.0227
53.8084 458 21.4009
53.9248 418 20.445
54.0411 423 20.567
54.1573 425 20.6155
54.2735 0 1
54.3896 0 1
54.5057 0 1
54.6217 0 1
54.7377 0 1
54.8537 0 1
54.9695 0 1
55.0853 0 1
55.2011 0 1
55.3168 0 1
55.4324 0 1
57.824 0 1
57.9396 0 1
58.0553 0 1
58.1711 0 1
58.2869 0 1
58.4028 0 1
58.5187 0 1
58.6347 0 1
58.7508 0 1
58.8669 0 1
58.983 518 22.7596
59.0992 488 22.0907
59.2155 441 21
59.3318 502 22.4054
59.4482 492 22.1811
59.5646 543 23.3024
59.681 512 22.6274
59.7975 524 22.891
59.9141 531 23.0434
60.0306 556 23.5797
60.1473 544 23.3238
60.2639 560 23.6643
60.3807 544 23.3238
60.4974 545 23.3452
60.6142 552 23.4947
60.731 527 22.9565
60.8479 513 22.6495
60.9648 501 22.383
61.0818 528 22.9783
61.1987 569 23.8537
61.3158 555 23.5584
61.4328 525 22.9129
61.5499 515 22.6936
61.667 526 22.9347
61.7841 540 23.2379
61.9013 509 22.561
62.0185 495 22.2486
62.1357 519 22.7816
62.253 513 22.6495
62.3702 499 22.3383
62.4875 457 21.3776
62.6049 413 20.3224
62.7222 434 20.8327
62.8396 443 21.0476
62.9569 441 21
63.0743 430 20.7364
63.1918 462 21.4942
63.3092 457 21.3776
63.4267 477 21.8403
63.5441 511 22.6053
63.6616 469 21.6564
63.7791 443 21.0476
63.8966 471 21.7025
64.0142 437 20.9045
64.1317 471 21.7025
64.2492 411 20.2731
64.3668 462 21.4942
64.4843 457 21.3776
64.6019 471 21.7025
64.7195 448 21.166
64.837 445 21.095
64.9546 419 20.4695
65.0722 431 20.7605
65.1898 488 22.0907
65.3074 457 21.3776
65.4249 482 21.9545
65.5425 447 21.1424
65.6601 432 20.7846
65.7777 439 20.9523
65.8952 410 20.2485
66.0128 407 20.1742
66.1304 382 19.5448
66.2479 387 19.6723
66.3655 348 18.6548
66.483 385 19.6214
66.6005 418 20.445
66.718 397 19.9249
66.8355 424 20.5913
66.953 391 19.7737
67.0705 394 19.8494
67.1879 443 21.0476
67.3054 408 20.199
67.4228 419 20.4695
67.5402 447 21.1424
67.6576 426 20.6398
67.7749 423 20.567
67.8923 401 20.025
68.0096 414 20.347
68.1269 422 20.5426
68.2442 408 20.199
68.3614 406 20.1494
68.4787 415 20.3715
68.5958 410 20.2485
68.713 379 19.4679
68.8302 394 19.8494
68.9473 403 20.0749
69.0643 410 20.2485
69.1814 365 19.105
69.2984 373 19.3132
69.4154 370 19.2354
69.5323 378 19.4422
69.6492 421 20.5183
69.7661 371 19.2614
69.8829 359 18.9473
69.9997 325 18.0278
70.1165 331 18.1934
70.2332 330 18.1659
70.3499 357 18.8944
70.4665 364 19.0788
70.5831 353 18.7883
70.6996 403 20.0749
70.8161 402 20.0499
70.9326 348 18.6548
71.049 382 19.5448
71.1653 345 18.5742
71.2817 371 19.2614
71.3979 317 17.8045
71.5141 366 19.1311
71.6303 318 17.8326
71.7464 329 18.1384
71.8624 0 1
71.9784 0 1
72.0944 0 1
72.2102 0 1
72.3261 0 1
72.4418 0 1
72.5575 0 1
72.6732 0 1
75.1054 0 1
75.2209 0 1
75.3365 0 1
75.4521 0 1
75.5678 0 1
75.6835 0 1
75.7993 0 1
75.9151 0 1
76.031 0 1
76.147 270 16.4317
76.263 320 17.8885
76.3791 294 17.1464
76.4952 293 17.1172
76.6113 315 17.7482
76.7276 294 17.1464
76.8438 262 16.1864
76.9601 261 16.1555
77.0765 283 16.8226
77.1929 266 16.3095
77.3093 292 17.088
77.4258 260 16.1245
77.5423 287 16.9411
77.6589 269 16.4012
77.7755 251 15.843
77.8921 252 15.8745
78.0088 245 15.6525
78.1256 243 15.5885
78.2423 251 15.843
78.3591 249 15.7797
78.4759 245 15.6525
78.5928 259 16.0935
78.7097 252 15.8745
78.8266 254 15.9374
78.9436 200 14.1421
79.0606 216 14.6969
79.1776 195 13.9642
79.2946 192 13.8564
79.4117 215 14.6629
79.5288 182 13.4907
79.6459 180 13.4164
79.7631 195 13.9642
79.8802 188 13.7113
79.9974 193 13.8924
80.1147 199 14.1067
80.2319 179 13.3791
80.3491 186 13.6382
80.4664 189 13.7477
80.5837 192 13.8564
80.701 173 13.1529
80.8183 179 13.3791
80.9357 186 13.6382
81.053 167 12.9228
81.1704 163 12.7671
81.2877 149 12.2066
81.4051 159 12.6095
81.5225 150 12.2474
81.6399 142 11.9164
81.7573 123 11.0905
81.8747 149 12.2066
81.9922 117 10.8167
82.1096 138 11.7473
82.227 112 10.583
82.3444 110 10.4881
82.4619 117 10.8167
82.5793 109 10.4403
82.6967 101 10.0499
82.8142 94 9.69536
82.9316 63 7.93725
83.049 86 9.27362
83.1664 98 9.89949
83.2838 103 10.1489
83.4012 78 8.83176
83.5186 87 9.32738
83.636 83 9.11043
83.7534 83 9.11043
83.8708 70 8.3666
83.9881 64 8
84.1055 46 6.78233
84.2228 66 8.12404
84.3401 54 7.34847
84.4575 43 6.55744
84.5747 49 7
84.692 49 7
84.8093 57 7.54983
84.9265 44 6.63325
85.0437 50 7.07107
85.1609 55 7.4162
85.2781 44 6.63325
85.3952 45 6.7082
85.5123 60 7.74597
85.6294 49 7
85.7465 39 6.245
85.8636 37 6.08276
85.9806 44 6.63325
86.0976 43 6.55744
86.2145 34 5.83095
86.3315 51 7.14143
86.4484 61 7.81025
86.5652 71 8.42615
86.682 65 8.06226
86.7988 62 7.87401
86.9156 54 7.34847
87.0323 66 8.12404
87.149 58 7.61577
87.2657 69 8.30662
87.3823 85 9.21954
87.4988 90 9.48683
87.6154 74 8.60233
87.7318 87 9.32738
87.8483 68 8.24621
87.9647 101 10.0499
88.081 106 10.2956
88.1973 115 10.7238
88.3136 97 9.84886
88.4298 116 10.7703
88.546 111 10.5357
88.6621 145 12.0416
88.7781 124 11.1355
88.8942 0 1
89.0101 0 1
89.126 0 1
89.2419 0 1
89.3577 0 1
89.4734 0 1
89.5891 0 1
89.7047 0 1
89.8203 0 1
89.9358 0 1
92.3269 0 1
92.4424 0 1
92.558 0 1
92.6736 0 1
92.7893 0 1
92.905 0 1
93.0208 0 1
93.1366 0 1
93.2525 0 1
93.3685 0 1
93.4845 0 1
93.6005 215 14.6629
93.7167 200 14.1421
93.8328 180 13.4164
93.949 204 14.2829
94.0653 209 14.4568
94.1816 154 12.4097
94.2979 184 13.5647
94.4143 203 14.2478
94.5307 172 13.1149
94.6472 148 12.1655
94.7637 159 12.6095
94.8803 185 13.6015
94.9969 185 13.6015
95.1135 144 12
95.2302 161 12.6886
95.3469 138 11.7473
95.4637 118 10.8628
95.5805 100 10
95.6973 166 12.8841
95.8142 161 12.6886
95.9311 188 13.7113
96.048 164 12.8062
96.1649 188 13.7113
96.2819 185 13.6015
96.3989 189 13.7477
96.516 170 13.0384
96.633 200 14.1421
96.7501 220 14.8324
96.8673 192 13.8564
96.9844 224 14.9666
97.1016 223 14.9332
97.2188 240 15.4919
97.336 234 15.2971
97.4532 270 16.4317
97.5704 265 16.2788
97.6877 240 15.4919
97.805 267 16.3401
97.9223 252 15.8745
98.0396 283 16.8226
98.1569 268 16.3707
98.2743 304 17.4356
98.3916 278 16.6733
98.509 335 18.303
98.6264 282 16.7929
98.7438 265 16.2788
98.8612 298 17.2627
98.9786 256 16
99.096 199 14.1067
99.2134 206 14.3527
99.3308 241 15.5242
99.4482 316 17.7764
99.5656 313 17.6918
99.6831 369 19.2094
99.8005 347 18.6279
99.9179 331 18.1934
100.035 344 18.5472
100.153 321 17.9165
100.27 365 19.105
100.388 374 19.3391
100.505 358 18.9209
100.622 382 19.5448
100.74 380 19.4936
100.857 414 20.347
100.975 381 19.5192
101.092 412 20.2978
101.209 390 19.7484
101.327 410 20.2485
101.444 399 19.975
101.561 382 19.5448
101.679 407 20.1742
101.796 376 19.3907
101.913 416 20.3961
102.03 427 20.664
102.148 373 19.3132
102.265 433 20.8087
102.382 392 19.799
102.499 398 19.9499
102.616 307 17.5214
102.733 251 15.843
102.851 341 18.4662
102.968 422 20.5426
103.085 407 20.1742
103.202 467 21.6102
103.319 415 20.3715
103.436 411 20.2731
103.552 412 20.2978
103.669 435 20.8567
103.786 447 21.1424
103.903 418 20.445
104.02 419 20.4695
104.137 411 20.2731
104.253 484 22
104.37 453 21.2838
104.487 464 21.5407
104.603 391 19.7737
104.72 419 20.4695
104.836 437 20.9045
104.953 445 21.095
105.069 441 21
105.186 474 21.7715
105.302 477 21.8403
105.418 426 20.6398
105.535 426 20.6398
105.651 436 20.8806
105.767 422 20.5426
105.883 392 19.799
105.999 336 18.3303
106.115 0 1
106.231 0 1
106.347 0 1
106.463 0 1
106.579 0 1
106.694 0 1
106.81 0 1
106.926 0 1
107.041 0 1
107.157 0 1
109.576 0 1
109.692 0 1
109.807 0 1
109.923 0 1
110.039 0 1
110.155 0 1
110.27 0 1
110.386 0 1
110.502 0 1
110.618 381 19.5192
110.735 370 19.2354
110.851 332 18.2209
110.967 328 18.1108
111.083 286 16.9115
111.199 258 16.0624
111.316 267 16.3401
111.432 329 18.1384
111.549 290 17.0294
111.665 339 18.412
111.782 320 17.8885
111.898 319 17.8606
112.015 329 18.1384
112.132 324 18
112.248 304 17.4356
112.365 283 16.8226
112.482 287 16.9411
112.599 296 17.2047
112.716 283 16.8226
112.832 297 17.2337
112.949 288 16.9706
113.066 255 15.9687
113.183 303 17.4069
113.3 273 16.5227
113.417 271 16.4621
113.534 264 16.2481
113.652 278 16.6733
113.769 279 16.7033
113.886 255 15.9687
114.003 266 16.3095
114.12 283 16.8226
114.238 259 16.0935
114.355 273 16.5227
114.472 236 15.3623
114.589 220 14.8324
114.707 235 15.3297
114.824 190 13.784
114.942 203 14.2478
115.059 212 14.5602
115.176 253 15.906
115.294 222 14.8997
115.411 267 16.3401
115.529 244 15.6205
115.646 232 15.2315
115.764 230 15.1658
115.881 227 15.0665
115.999 217 14.7309
116.116 257 16.0312
116.234 242 15.5563
116.351 240 15.4919
116.469 211 14.5258
116.586 237 15.3948
116.704 229 15.1327
116.821 229 15.1327
116.939 230 15.1658
117.056 256 16
117.174 223 14.9332
117.291 223 14.9332
117.409 238 15.4272
117.526 234 15.2971
117.644 248 15.748
117.761 258 16.0624
117.879 187 13.6748
117.996 190 13.784
118.114 201 14.1774
118.231 238 15.4272
118.349 219 14.7986
118.466 231 15.1987
118.584 249 15.7797
118.701 196 14
118.819 233 15.2643
118.936 207 14.3875
119.053 250 15.8114
119.171 240 15.4919
119.288 259 16.0935
119.405 243 15.5885
119.523 257 16.0312
119.64 230 15.1658
119.757 236 15.3623
119.875 245 15.6525
119.992 239 15.4596
120.109 232 15.2315
120.226 262 16.1864
120.343 247 15.7162
120.46 238 15.4272
120.578 279 16.7033
120.695 242 15.5563
120.812 237 15.3948
120.929 292 17.088
121.046 284 16.8523
121.163 248 15.748
121.279 248 15.748
121.396 234 15.2971
121.513 222 14.8997
121.63 206 14.3527
121.747 172 13.1149
121.863 199 14.1067
121.98 202 14.2127
122.097 234 15.2971
122.213 236 15.3623
122.33 240 15.4919
122.446 241 15.5242
122.563 247 15.7162
122.679 273 16.5227
122.795 265 16.2788
122.912 261 16.1555
123.028 275 16.5831
123.144 280 16.7332
123.26 256 16
123.377 0 1
123.493 0 1
123.609 0 1
123.725 0 1
123.84 0 1
123.956 0 1
124.072 0 1
124.188 0 1
124.303 0 1
124.419 0 1
126.852 0 1
126.968 0 1
127.083 0 1
127.199 0 1
127.315 0 1
127.431 0 1
127.547 0 1
127.663 0 1
127.779 0 1
127.895 0 1
128.011 0 1
128.127 0 1
128.243 0 1
128.359 318 17.8326
128.476 322 17.9444
128.592 352 18.7617
128.708 360 18.9737
128.825 383 19.5704
128.941 350 18.7083
129.058 336 18.3303
129.174 370 19.2354
129.291 382 19.5448
129.408 358 18.9209
129.524 359 18.9473
129.641 350 18.7083
129.758 370 19.2354
129.875 377 19.4165
129.992 330 18.1659
130.108 398 19.9499
130.225 340 18.4391
130.342 339 18.412
130.459 291 17.0587
130.576 261 16.1555
130.693 238 15.4272
130.81 231 15.1987
130.928 268 16.3707
131.045 312 17.6635
131.162 354 18.8149
131.279 336 18.3303
131.396 359 18.9473
131.513 358 18.9209
131.631 350 18.7083
131.748 366 19.1311
131.865 399 19.975
131.983 381 19.5192
132.1 365 19.105
132.217 367 19.1572
132.335 356 18.868
132.452 418 20.445
132.57 410 20.2485
132.687 376 19.3907
132.804 487 22.0681
132.922 389 19.7231
133.039 379 19.4679
133.157 387 19.6723
133.274 380 19.4936
133.392 423 20.567
133.509 438 20.9284
133.627 397 19.9249
133.744 376 19.3907
133.862 368 19.1833
133.979 354 18.8149
134.097 313 17.6918
134.214 298 17.2627
134.332 287 16.9411
134.449 309 17.5784
134.567 321 17.9165
134.684 344 18.5472
134.802 401 20.025
134.919 389 19.7231
135.037 383 19.5704
135.154 418 20.445
135.272 408 20.199
135.389 391 19.7737
135.507 444 21.0713
135.624 444 21.0713
135.742 442 21.0238
135.859 414 20.347
135.977 441 21
136.094 432 20.7846
136.211 441 21
136.329 405 20.1246
136.446 390 19.7484
136.564 473 21.7486
136.681 427 20.664
136.798 396 19.8997
136.915 438 20.9284
137.033 359 18.9473
137.15 461 21.4709
137.267 418 20.445
137.384 376 19.3907
137.502 388 19.6977
137.619 371 19.2614
137.736 326 18.0555
137.853 327 18.0831
137.97 315 17.7482
138.087 351 18.735
138.204 338 18.3848
138.321 329 18.1384
138.438 452 21.2603
138.555 445 21.095
138.672 444 21.0713
138.788 443 21.0476
138.905 429 20.7123
139.022 459 21.4243
139.139 432 20.7846
139.255 483 21.9773
139.372 489 22.1133
139.488 465 21.5639
139.605 496 22.2711
139.721 487 22.0681
139.838 445 21.095
139.954 470 21.6795
140.071 449 21.1896
140.187 462 21.4942
140.303 492 22.1811
140.419 462 21.4942
140.535 429 20.7123
140.652 493 22.2036
140.768 0 1
140.884 0 1
141 0 1
141.115 0 1
141.231 0 1
141.347 0 1
141.463 0 1
141.578 0 1
141.694 0 1
144.104 0 1
144.219 0 1
144.335 0 1
144.45 0 1
144.566 0 1
144.682 0 1
144.798 0 1
144.914 0 1
145.03 0 1
145.146 442 21.0238
145.262 428 20.6882
145.378 418 20.445
145.494 455 21.3307
145.61 443 21.0476
145.726 432 20.7846
145.842 418 20.445
145.959 436 20.8806
146.075 421 20.5183
146.192 380 19.4936
146.308 380 19.4936
146.425 370 19.2354
146.541 348 18.6548
146.658 344 18.5472
146.774 389 19.7231
146.891 393 19.8242
147.008 403 20.0749
147.125 372 19.2873
147.241 414 20.347
147.358 483 21.9773
147.475 435 20.8567
147.592 438 20.9284
147.709 452 21.2603
147.826 439 20.9523
147.943 457 21.3776
148.06 440 20.9762
148.177 473 21.7486
148.294 451 21.2368
148.411 463 21.5174
148.528 459 21.4243
148.645 442 21.0238
148.762 407 20.1742
148.88 459 21.4243
148.997 448 21.166
149.114 477 21.8403
149.231 431 20.7605
149.349 442 21.0238
149.466 470 21.6795
149.583 416 20.3961
149.701 403 20.0749
149.818 390 19.7484
149.935 356 18.868
150.053 344 18.5472
150.17 371 19.2614
150.287 354 18.8149
150.405 423 20.567
150.522 359 18.9473
150.64 416 20.3961
150.757 401 20.025
150.875 418 20.445
150.992 409 20.2237
151.11 418 20.445
151.227 441 21
151.344 422 20.5426
151.462 440 20.9762
151.579 428 20.6882
151.697 470 21.6795
151.814 480 21.9089
151.932 458 21.4009
152.049 457 21.3776
152.167 466 21.587
152.284 434 20.8327
152.402 464 21.5407
152.519 438 20.9284
152.636 438 20.9284
152.754 499 22.3383
152.871 441 21
152.989 466 21.587
153.106 439 20.9523
153.223 426 20.6398
153.341 422 20.5426
153.458 372 19.2873
153.575 378 19.4422
153.693 371 19.2614
153.81 345 18.5742
153.927 372 19.2873
154.044 412 20.2978
154.162 406 20.1494
154.279 423 20.567
154.396 413 20.3224
154.513 433 20.8087
154.63 428 20.6882
154.747 453 21.2838
154.864 450 21.2132
154.981 488 22.0907
155.098 464 21.5407
155.215 451 21.2368
155.332 457 21.3776
155.449 489 22.1133
155.566 465 21.5639
155.683 484 22
155.8 467 21.6102
155.917 491 22.1585
156.033 497 22.2935
156.15 0 1
156.267 0 1
156.383 0 1
156.5 0 1
156.617 0 1
156.733 0 1
156.85 0 1
156.966 0 1
157.082 0 1
157.199 0 1
157.315 0 1
157.431 0 1
157.547 0 1
157.664 0 1
157.78 0 1
157.896 0 1
158.012 0 1
158.128 0 1
158.244 0 1
158.359 0 1
158.475 0 1
158.591 0 1
158.706 0 1
