
6.15755 0 1
6.2731 0 1
6.3887 0 1
6.50437 0 1
6.62009 0 1
6.73587 0 1
6.8517 0 1
6.96759 0 1
7.08353 0 1
7.19952 0 1
7.31557 0 1
7.43166 0 1
7.54781 0 1
7.664 0 1
7.78024 0 1
7.89653 0 1
8.01286 0 1
8.12924 0 1
8.24567 0 1
8.36213 0 1
8.47864 0 1
8.59519 0 1
8.71178 0 1
8.82841 0 1
8.94508 0 1
9.06179 0 1
9.17853 0 1
9.29531 0 1
9.41212 0 1
9.52897 0 1
9.64584 0 1
9.76276 0 1
9.8797 0 1
9.99667 0 1
10.1137 0 1
10.2307 0 1
10.3478 0 1
10.4648 0 1
10.5819 0 1
10.6991 0 1
10.8162 0 1
10.9334 0 1
11.0506 0 1
11.1678 0 1
11.285 0 1
11.4023 0 1
11.5196 0 1
11.6369 0 1
11.7542 0 1
11.8715 0 1
11.9888 0 1
12.1062 0 1
12.2235 0 1
12.3409 0 1
12.4582 0 1
12.5756 0 1
12.693 0 1
12.8104 0 1
12.9278 0 1
13.0452 0 1
13.1626 0 1
13.28 0 1
13.3974 0 1
13.5149 0 1
13.6323 0 1
13.7497 0 1
13.8671 0 1
13.9845 0 1
14.1019 0 1
14.2193 0 1
14.3367 0 1
14.4541 0 1
14.5714 0 1
14.6888 0 1
14.8062 0 1
14.9235 0 1
15.0408 397 19.9249
15.1581 418 20.445
15.2755 412 20.2978
15.3927 432 20.7846
15.51 422 20.5426
15.6273 451 21.2368
15.7445 409 20.2237
15.8617 402 20.0499
15.9789 405 20.1246
16.0961 415 20.3715
16.2132 358 18.9209
16.3304 421 20.5183
16.4475 391 19.7737
16.5646 404 20.0998
16.6816 394 19.8494
16.7986 365 19.105
16.9156 396 19.8997
17.0326 390 19.7484
17.1496 392 19.799
17.2665 377 19.4165
17.3833 346 18.6011
17.5002 414 20.347
17.617 391 19.7737
17.7338 409 20.2237
17.8505 392 19.799
17.9672 382 19.5448
18.0839 390 19.7484
18.2005 421 20.5183
18.3171 406 20.1494
18.4337 435 20.8567
18.5502 411 20.2731
18.6666 419 20.4695
18.7831 431 20.7605
18.8994 441 21
19.0158 413 20.3224
19.1321 435 20.8567
19.2483 359 18.9473
19.3645 314 17.72
19.4806 320 17.8885
19.5967 266 16.3095
19.7128 268 16.3707
19.8288 266 16.3095
19.9447 228 15.0997
20.0606 0 1
20.1764 0 1
20.2922 0 1
20.4079 0 1
20.5236 0 1
20.6392 0 1
20.7548 0 1
20.8702 0 1
23.3078 0 1
23.4233 0 1
23.539 0 1
23.6547 0 1
23.7704 0 1
23.8862 0 1
24.0021 0 1
24.118 0 1
24.234 0 1
24.35 0 1
24.4661 186 13.6382
24.5822 206 14.3527
24.6984 203 14.2478
24.8146 246 15.6844
24.9309 249 15.7797
25.0472 272 16.4924
25.1636 299 17.2916
25.28 318 17.8326
25.3965 362 19.0263
25.513 330 18.1659
25.6296 373 19.3132
25.7462 430 20.7364
25.8628 423 20.567
25.9795 454 21.3073
26.0962 464 21.5407
26.213 426 20.6398
26.3298 408 20.199
26.4466 442 21.0238
26.5635 381 19.5192
26.6804 377 19.4165
26.7973 424 20.5913
26.9143 385 19.6214
27.0313 392 19.799
27.1483 402 20.0499
27.2653 403 20.0749
27.3824 403 20.0749
27.4996 405 20.1246
27.6167 405 20.1246
27.7339 420 20.4939
27.8511 391 19.7737
27.9683 356 18.868
28.0855 387 19.6723
28.2028 360 18.9737
28.3201 344 18.5472
28.4374 304 17.4356
28.5547 329 18.1384
28.6721 335 18.303
28.7894 359 18.9473
28.9068 342 18.4932
29.0242 344 18.5472
29.1416 380 19.4936
29.259 350 18.7083
29.3764 365 19.105
29.4939 408 20.199
29.6113 418 20.445
29.7288 418 20.445
29.8463 389 19.7231
29.9638 369 19.2094
30.0812 391 19.7737
30.1987 370 19.2354
30.3162 345 18.5742
30.4337 387 19.6723
30.5512 388 19.6977
30.6687 400 20
30.7862 386 19.6469
30.9037 394 19.8494
31.0212 393 19.8242
31.1387 422 20.5426
31.2562 421 20.5183
31.3737 382 19.5448
31.4912 393 19.8242
31.6087 361 19
31.7262 390 19.7484
31.8436 344 18.5472
31.9611 316 17.7764
32.0785 349 18.6815
32.1959 282 16.7929
32.3134 338 18.3848
32.4308 343 18.5203
32.5482 406 20.1494
32.6655 373 19.3132
32.7829 370 19.2354
32.9002 389 19.7231
33.0176 358 18.9209
33.1349 356 18.868
33.2522 381 19.5192
33.3694 400 20
33.4867 364 19.0788
33.6039 387 19.6723
33.7211 361 19
33.8383 333 18.2483
33.9554 391 19.7737
34.0725 428 20.6882
34.1896 421 20.5183
34.3067 389 19.7231
34.4237 354 18.8149
34.5407 395 19.8746
34.6577 430 20.7364
34.7746 383 19.5704
34.8915 408 20.199
35.0084 408 20.199
35.1252 380 19.4936
35.242 357 18.8944
35.3587 386 19.6469
35.4755 358 18.9209
35.5921 313 17.6918
35.7088 328 18.1108
35.8254 324 18
35.9419 303 17.4069
36.0584 303 17.4069
36.1749 347 18.6279
36.2913 355 18.8414
36.4077 365 19.105
36.524 307 17.5214
36.6403 326 18.0555
36.7565 351 18.735
36.8727 295 17.1756
36.9889 301 17.3494
37.1049 287 16.9411
37.221 0 1
37.3369 0 1
37.4529 0 1
37.5687 0 1
37.6845 0 1
37.8003 0 1
37.916 0 1
38.0316 0 1
38.1472 0 1
40.5851 0 1
40.7008 0 1
40.8164 0 1
40.9322 0 1
41.048 0 1
41.1639 0 1
41.2798 0 1
41.3958 0 1
41.5118 0 1
41.6279 0 1
41.744 186 13.6382
41.8602 164 12.8062
41.9765 249 15.7797
42.0928 231 15.1987
42.2091 212 14.5602
42.3255 259 16.0935
42.4419 247 15.7162
42.5584 277 16.6433
42.675 301 17.3494
42.7915 340 18.4391
42.9081 344 18.5472
43.0248 351 18.735
43.1415 363 19.0526
43.2582 361 19
43.375 361 19
43.4918 370 19.2354
43.6087 358 18.9209
43.7256 376 19.3907
43.8425 392 19.799
43.9595 339 18.412
44.0765 353 18.7883
44.1935 362 19.0263
44.3106 299 17.2916
44.4277 319 17.8606
44.5448 316 17.7764
44.6619 309 17.5784
44.7791 305 17.4642
44.8963 323 17.9722
45.0136 339 18.412
45.1308 351 18.735
45.2481 336 18.3303
45.3654 322 17.9444
45.4827 349 18.6815
45.6001 372 19.2873
45.7174 386 19.6469
45.8348 338 18.3848
45.9522 356 18.868
46.0697 313 17.6918
46.1871 368 19.1833
46.3046 346 18.6011
46.422 373 19.3132
46.5395 375 19.3649
46.657 332 18.2209
46.7745 395 19.8746
46.892 399 19.975
47.0096 404 20.0998
47.1271 442 21.0238
47.2446 389 19.7231
47.3622 434 20.8327
47.4797 395 19.8746
47.5973 418 20.445
47.7149 344 18.5472
47.8324 339 18.412
47.95 361 19
48.0675 309 17.5784
48.1851 310 17.6068
48.3027 323 17.9722
48.4202 356 18.868
48.5378 395 19.8746
48.6554 425 20.6155
48.7729 389 19.7231
48.8904 392 19.799
49.008 381 19.5192
49.1255 409 20.2237
49.243 384 19.5959
49.3605 349 18.6815
49.478 417 20.4206
49.5955 374 19.3391
49.713 360 18.9737
49.8304 436 20.8806
49.9479 413 20.3224
50.0653 410 20.2485
50.1827 414 20.347
50.3001 433 20.8087
50.4175 433 20.8087
50.5348 462 21.4942
50.6521 439 20.9523
50.7694 487 22.0681
50.8867 477 21.8403
51.004 475 21.7945
51.1212 455 21.3307
51.2384 406 20.1494
51.3556 391 19.7737
51.4727 361 19
51.5899 347 18.6279
51.707 365 19.105
51.824 396 19.8997
51.9411 438 20.9284
52.0581 430 20.7364
52.175 423 20.567
52.2919 423 20.567
52.4088 436 20.8806
52.5257 405 20.1246
52.6425 423 20.567
52.7593 444 21.0713
52.876 461 21.4709
52.9927 437 20.9045
53.1094 458 21.4009
53.226 400 20
53.3426 420 20.4939
53.4591 443 21.0476
53.5756 474 21.7715
53.692 422 20.5426
53.8084 479 21.8861
53.9248 424 20.5913
54.0411 443 21.0476
54.1573 387 19.6723
54.2735 0 1
54.3896 0 1
54.5057 0 1
54.6217 0 1
54.7377 0 1
54.8537 0 1
54.9695 0 1
55.0853 0 1
55.2011 0 1
55.3168 0 1
55.4324 0 1
57.824 0 1
57.9396 0 1
58.0553 0 1
58.1711 0 1
58.2869 0 1
58.4028 0 1
58.5187 0 1
58.6347 0 1
58.7508 0 1
58.8669 0 1
58.983 340 18.4391
59.0992 400 20
59.2155 477 21.8403
59.3318 519 22.7816
59.4482 543 23.3024
59.5646 572 23.9165
59.681 624 24.98
59.7975 650 25.4951
59.9141 647 25.4362
60.0306 601 24.5153
60.1473 595 24.3926
60.2639 594 24.3721
60.3807 545 23.3452
60.4974 577 24.0208
60.6142 622 24.9399
60.731 653 25.5539
60.8479 675 25.9808
60.9648 723 26.8887
61.0818 722 26.8701
61.1987 751 27.4044
61.3158 741 27.2213
61.4328 784 28
61.5499 741 27.2213
61.667 755 27.4773
61.7841 755 27.4773
61.9013 754 27.4591
62.0185 739 27.1846
62.1357 747 27.3313
62.253 764 27.6405
62.3702 802 28.3196
62.4875 821 28.6531
62.6049 836 28.9137
62.7222 832 28.8444
62.8396 909 30.1496
62.9569 853 29.2062
63.0743 816 28.5657
63.1918 866 29.4279
63.3092 813 28.5132
63.4267 845 29.0689
63.5441 728 26.9815
63.6616 666 25.807
63.7791 607 24.6374
63.8966 609 24.6779
64.0142 581 24.1039
64.1317 653 25.5539
64.2492 692 26.3059
64.3668 792 28.1425
64.4843 827 28.7576
64.6019 762 27.6043
64.7195 761 27.5862
64.837 843 29.0345
64.9546 814 28.5307
65.0722 800 28.2843
65.1898 799 28.2666
65.3074 779 27.9106
65.4249 795 28.1957
65.5425 754 27.4591
65.6601 783 27.9821
65.7777 814 28.5307
65.8952 868 29.4618
66.0128 837 28.931
66.1304 866 29.4279
66.2479 889 29.8161
66.3655 838 28.9482
66.483 929 30.4795
66.6005 911 30.1828
66.718 887 29.7825
66.8355 909 30.1496
66.953 866 29.4279
67.0705 818 28.6007
67.1879 709 26.6271
67.3054 653 25.5539
67.4228 579 24.0624
67.5402 560 23.6643
67.6576 584 24.1661
67.7749 649 25.4755
67.8923 744 27.2764
68.0096 739 27.1846
68.1269 796 28.2135
68.2442 849 29.1376
68.3614 832 28.8444
68.4787 811 28.4781
68.5958 817 28.5832
68.713 756 27.4955
68.8302 819 28.6182
68.9473 826 28.7402
69.0643 812 28.4956
69.1814 801 28.3019
69.2984 785 28.0179
69.4154 777 27.8747
69.5323 837 28.931
69.6492 837 28.931
69.7661 823 28.688
69.8829 833 28.8617
69.9997 812 28.4956
70.1165 784 28
70.2332 843 29.0345
70.3499 818 28.6007
70.4665 805 28.3725
70.5831 722 26.8701
70.6996 690 26.2679
70.8161 544 23.3238
70.9326 485 22.0227
71.049 440 20.9762
71.1653 324 18
71.2817 320 17.8885
71.3979 339 18.412
71.5141 325 18.0278
71.6303 293 17.1172
71.7464 262 16.1864
71.8624 0 1
71.9784 0 1
72.0944 0 1
72.2102 0 1
72.3261 0 1
72.4418 0 1
72.5575 0 1
72.6732 0 1
75.1054 0 1
75.2209 0 1
75.3365 0 1
75.4521 0 1
75.5678 0 1
75.6835 0 1
75.7993 0 1
75.9151 0 1
76.031 0 1
76.147 472 21.7256
76.263 418 20.445
76.3791 447 21.1424
76.4952 402 20.0499
76.6113 492 22.1811
76.7276 517 22.7376
76.8438 602 24.5357
76.9601 650 25.4951
77.0765 678 26.0384
77.1929 742 27.2397
77.3093 695 26.3629
77.4258 748 27.3496
77.5423 734 27.0924
77.6589 739 27.1846
77.7755 645 25.3969
77.8921 721 26.8514
78.0088 698 26.4197
78.1256 650 25.4951
78.2423 700 26.4575
78.3591 706 26.5707
78.4759 742 27.2397
78.5928 690 26.2679
78.7097 762 27.6043
78.8266 696 26.3818
78.9436 805 28.3725
79.0606 776 27.8568
79.1776 809 28.4429
79.2946 804 28.3549
79.4117 774 27.8209
79.5288 769 27.7308
79.6459 752 27.4226
79.7631 695 26.3629
79.8802 640 25.2982
79.9974 571 23.8956
80.1147 523 22.8692
80.2319 487 22.0681
80.3491 532 23.0651
80.4664 634 25.1794
80.5837 679 26.0576
80.701 697 26.4008
80.8183 728 26.9815
80.9357 653 25.5539
81.053 756 27.4955
81.1704 733 27.074
81.2877 760 27.5681
81.4051 720 26.8328
81.5225 723 26.8887
81.6399 719 26.8142
81.7573 699 26.4386
81.8747 773 27.8029
81.9922 705 26.5518
82.1096 714 26.7208
82.227 710 26.6458
82.3444 717 26.7769
82.4619 795 28.1957
82.5793 830 28.8097
82.6967 803 28.3373
82.8142 855 29.2404
82.9316 837 28.931
83.049 831 28.8271
83.1664 773 27.8029
83.2838 750 27.3861
83.4012 668 25.8457
83.5186 638 25.2587
83.636 569 23.8537
83.7534 541 23.2594
83.8708 501 22.383
83.9881 550 23.4521
84.1055 638 25.2587
84.2228 694 26.3439
84.3401 728 26.9815
84.4575 775 27.8388
84.5747 784 28
84.692 841 29
84.8093 814 28.5307
84.9265 785 28.0179
85.0437 778 27.8927
85.1609 791 28.1247
85.2781 737 27.1477
85.3952 768 27.7128
85.5123 722 26.8701
85.6294 727 26.9629
85.7465 718 26.7955
85.8636 722 26.8701
85.9806 760 27.5681
86.0976 843 29.0345
86.2145 817 28.5832
86.3315 901 30.0167
86.4484 796 28.2135
86.5652 855 29.2404
86.682 838 28.9482
86.7988 833 28.8617
86.9156 762 27.6043
87.0323 707 26.5895
87.149 647 25.4362
87.2657 580 24.0832
87.3823 517 22.7376
87.4988 524 22.891
87.6154 596 24.4131
87.7318 603 24.5561
87.8483 641 25.318
87.9647 643 25.3574
88.081 707 26.5895
88.1973 682 26.1151
88.3136 653 25.5539
88.4298 541 23.2594
88.546 516 22.7156
88.6621 440 20.9762
88.7781 365 19.105
88.8942 0 1
89.0101 0 1
89.126 0 1
89.2419 0 1
89.3577 0 1
89.4734 0 1
89.5891 0 1
89.7047 0 1
89.8203 0 1
89.9358 0 1
92.3269 0 1
92.4424 0 1
92.558 0 1
92.6736 0 1
92.7893 0 1
92.905 0 1
93.0208 0 1
93.1366 0 1
93.2525 0 1
93.3685 0 1
93.4845 0 1
93.6005 542 23.2809
93.7167 592 24.3311
93.8328 627 25.04
93.949 659 25.671
94.0653 698 26.4197
94.1816 724 26.9072
94.2979 803 28.3373
94.4143 758 27.5318
94.5307 748 27.3496
94.6472 796 28.2135
94.7637 820 28.6356
94.8803 804 28.3549
94.9969 811 28.4781
95.1135 815 28.5482
95.2302 870 29.4958
95.3469 890 29.8329
95.4637 885 29.7489
95.5805 883 29.7153
95.6973 875 29.5804
95.8142 862 29.3598
95.9311 826 28.7402
96.048 785 28.0179
96.1649 727 26.9629
96.2819 712 26.6833
96.3989 641 25.318
96.516 571 23.8956
96.633 663 25.7488
96.7501 659 25.671
96.8673 711 26.6646
96.9844 744 27.2764
97.1016 759 27.55
97.2188 871 29.5127
97.336 817 28.5832
97.4532 809 28.4429
97.5704 831 28.8271
97.6877 826 28.7402
97.805 793 28.1603
97.9223 855 29.2404
98.0396 771 27.7669
98.1569 786 28.0357
98.2743 745 27.2947
98.3916 750 27.3861
98.509 793 28.1603
98.6264 840 28.9828
98.7438 775 27.8388
98.8612 863 29.3769
98.9786 912 30.1993
99.096 965 31.0644
99.2134 905 30.0832
99.3308 887 29.7825
99.4482 836 28.9137
99.5656 846 29.0861
99.6831 792 28.1425
99.8005 775 27.8388
99.9179 705 26.5518
100.035 650 25.4951
100.153 659 25.671
100.27 721 26.8514
100.388 796 28.2135
100.505 794 28.178
100.622 792 28.1425
100.74 846 29.0861
100.857 885 29.7489
100.975 789 28.0891
101.092 867 29.4449
101.209 802 28.3196
101.327 840 28.9828
101.444 764 27.6405
101.561 784 28
101.679 770 27.7489
101.796 799 28.2666
101.913 838 28.9482
102.03 841 29
102.148 863 29.3769
102.265 919 30.315
102.382 881 29.6816
102.499 921 30.348
102.616 935 30.5778
102.733 924 30.3974
102.851 952 30.8545
102.968 932 30.5287
103.085 917 30.282
103.202 860 29.3258
103.319 764 27.6405
103.436 693 26.3249
103.552 656 25.6125
103.669 611 24.7184
103.786 674 25.9615
103.903 734 27.0924
104.02 789 28.0891
104.137 787 28.0535
104.253 800 28.2843
104.37 869 29.4788
104.487 870 29.4958
104.603 798 28.2489
104.72 822 28.6705
104.836 756 27.4955
104.953 713 26.7021
105.069 706 26.5707
105.186 654 25.5734
105.302 683 26.1343
105.418 615 24.7992
105.535 643 25.3574
105.651 612 24.7386
105.767 613 24.7588
105.883 523 22.8692
105.999 490 22.1359
106.115 0 1
106.231 0 1
106.347 0 1
106.463 0 1
106.579 0 1
106.694 0 1
106.81 0 1
106.926 0 1
107.041 0 1
107.157 0 1
109.576 0 1
109.692 0 1
109.807 0 1
109.923 0 1
110.039 0 1
110.155 0 1
110.27 0 1
110.386 0 1
110.502 0 1
110.618 426 20.6398
110.735 442 21.0238
110.851 509 22.561
110.967 600 24.4949
111.083 683 26.1343
111.199 721 26.8514
111.316 788 28.0713
111.432 788 28.0713
111.549 843 29.0345
111.665 799 28.2666
111.782 756 27.4955
111.898 763 27.6225
112.015 717 26.7769
112.132 620 24.8998
112.248 612 24.7386
112.365 607 24.6374
112.482 704 26.533
112.599 693 26.3249
112.716 784 28
112.832 753 27.4408
112.949 789 28.0891
113.066 732 27.0555
113.183 753 27.4408
113.3 735 27.1109
113.417 745 27.2947
113.534 741 27.2213
113.652 668 25.8457
113.769 665 25.7876
113.886 642 25.3377
114.003 690 26.2679
114.12 729 27
114.238 705 26.5518
114.355 756 27.4955
114.472 753 27.4408
114.589 794 28.178
114.707 841 29
114.824 794 28.178
114.942 767 27.6948
115.059 817 28.5832
115.176 739 27.1846
115.294 750 27.3861
115.411 688 26.2298
115.529 752 27.4226
115.646 676 26
115.764 621 24.9199
115.881 580 24.0832
115.999 639 25.2784
116.116 688 26.2298
116.234 734 27.0924
116.351 701 26.4764
116.469 653 25.5539
116.586 673 25.9422
116.704 747 27.3313
116.821 679 26.0576
116.939 705 26.5518
117.056 720 26.8328
117.174 648 25.4558
117.291 699 26.4386
117.409 624 24.98
117.526 693 26.3249
117.644 635 25.1992
117.761 732 27.0555
117.879 682 26.1151
117.996 692 26.3059
118.114 772 27.7849
118.231 724 26.9072
118.349 741 27.2213
118.466 760 27.5681
118.584 751 27.4044
118.701 773 27.8029
118.819 711 26.6646
118.936 682 26.1151
119.053 671 25.9037
119.171 629 25.0799
119.288 585 24.1868
119.405 575 23.9792
119.523 612 24.7386
119.64 571 23.8956
119.757 633 25.1595
119.875 675 25.9808
119.992 660 25.6905
120.109 684 26.1534
120.226 647 25.4362
120.343 686 26.1916
120.46 653 25.5539
120.578 620 24.8998
120.695 672 25.923
120.812 643 25.3574
120.929 608 24.6577
121.046 552 23.4947
121.163 615 24.7992
121.279 541 23.2594
121.396 596 24.4131
121.513 579 24.0624
121.63 671 25.9037
121.747 626 25.02
121.863 697 26.4008
121.98 615 24.7992
122.097 601 24.5153
122.213 619 24.8797
122.33 590 24.2899
122.446 606 24.6171
122.563 512 22.6274
122.679 501 22.383
122.795 442 21.0238
122.912 384 19.5959
123.028 331 18.1934
123.144 295 17.1756
123.26 279 16.7033
123.377 0 1
123.493 0 1
123.609 0 1
123.725 0 1
123.84 0 1
123.956 0 1
124.072 0 1
124.188 0 1
124.303 0 1
124.419 0 1
126.852 0 1
126.968 0 1
127.083 0 1
127.199 0 1
127.315 0 1
127.431 0 1
127.547 0 1
127.663 0 1
127.779 0 1
127.895 0 1
128.011 0 1
128.127 0 1
128.243 0 1
128.359 662 25.7294
128.476 637 25.2389
128.592 621 24.9199
128.708 663 25.7488
128.825 751 27.4044
128.941 718 26.7955
129.058 731 27.037
129.174 775 27.8388
129.291 740 27.2029
129.408 756 27.4955
129.524 712 26.6833
129.641 703 26.5141
129.758 664 25.7682
129.875 674 25.9615
129.992 680 26.0768
130.108 675 25.9808
130.225 641 25.318
130.342 689 26.2488
130.459 724 26.9072
130.576 764 27.6405
130.693 782 27.9643
130.81 764 27.6405
130.928 777 27.8747
131.045 759 27.55
131.162 742 27.2397
131.279 777 27.8747
131.396 826 28.7402
131.513 819 28.6182
131.631 796 28.2135
131.748 753 27.4408
131.865 698 26.4197
131.983 609 24.6779
132.1 636 25.219
132.217 689 26.2488
132.335 709 26.6271
132.452 740 27.2029
132.57 750 27.3861
132.687 736 27.1293
132.804 791 28.1247
132.922 781 27.9464
133.039 742 27.2397
133.157 769 27.7308
133.274 751 27.4044
133.392 713 26.7021
133.509 642 25.3377
133.627 642 25.3377
133.744 618 24.8596
133.862 691 26.2869
133.979 755 27.4773
134.097 726 26.9444
134.214 773 27.8029
134.332 804 28.3549
134.449 788 28.0713
134.567 821 28.6531
134.684 738 27.1662
134.802 781 27.9464
134.919 806 28.3901
135.037 789 28.0891
135.154 792 28.1425
135.272 707 26.5895
135.389 756 27.4955
135.507 655 25.593
135.624 668 25.8457
135.742 719 26.8142
135.859 697 26.4008
135.977 689 26.2488
136.094 821 28.6531
136.211 757 27.5136
136.329 715 26.7395
136.446 652 25.5343
136.564 716 26.7582
136.681 742 27.2397
136.798 726 26.9444
136.915 694 26.3439
137.033 689 26.2488
137.15 668 25.8457
137.267 678 26.0384
137.384 666 25.807
137.502 693 26.3249
137.619 725 26.9258
137.736 729 27
137.853 735 27.1109
137.97 782 27.9643
138.087 736 27.1293
138.204 745 27.2947
138.321 758 27.5318
138.438 758 27.5318
138.555 796 28.2135
138.672 752 27.4226
138.788 632 25.1396
138.905 678 26.0384
139.022 619 24.8797
139.139 603 24.5561
139.255 519 22.7816
139.372 547 23.388
139.488 553 23.516
139.605 541 23.2594
139.721 549 23.4307
139.838 480 21.9089
139.954 466 21.587
140.071 388 19.6977
140.187 395 19.8746
140.303 394 19.8494
140.419 410 20.2485
140.535 349 18.6815
140.652 284 16.8523
140.768 0 1
140.884 0 1
141 0 1
141.115 0 1
141.231 0 1
141.347 0 1
141.463 0 1
141.578 0 1
141.694 0 1
144.104 0 1
144.219 0 1
144.335 0 1
144.45 0 1
144.566 0 1
144.682 0 1
144.798 0 1
144.914 0 1
145.03 0 1
145.146 568 23.8328
145.262 557 23.6008
145.378 569 23.8537
145.494 528 22.9783
145.61 553 23.516
145.726 512 22.6274
145.842 507 22.5167
145.959 538 23.1948
146.075 521 22.8254
146.192 490 22.1359
146.308 490 22.1359
146.425 504 22.4499
146.541 515 22.6936
146.658 505 22.4722
146.774 593 24.3516
146.891 590 24.2899
147.008 552 23.4947
147.125 597 24.4336
147.241 545 23.3452
147.358 623 24.96
147.475 597 24.4336
147.592 618 24.8596
147.709 567 23.8118
147.826 516 22.7156
147.943 507 22.5167
148.06 518 22.7596
148.177 516 22.7156
148.294 517 22.7376
148.411 534 23.1084
148.528 548 23.4094
148.645 523 22.8692
148.762 547 23.388
148.88 546 23.3666
148.997 554 23.5372
149.114 575 23.9792
149.231 568 23.8328
149.349 533 23.0868
149.466 518 22.7596
149.583 474 21.7715
149.701 440 20.9762
149.818 476 21.8174
149.935 477 21.8403
150.053 504 22.4499
150.17 576 24
150.287 523 22.8692
150.405 590 24.2899
150.522 541 23.2594
150.64 569 23.8537
150.757 581 24.1039
150.875 582 24.1247
150.992 601 24.5153
151.11 578 24.0416
151.227 578 24.0416
151.344 542 23.2809
151.462 517 22.7376
151.579 486 22.0454
151.697 503 22.4277
151.814 507 22.5167
151.932 534 23.1084
152.049 553 23.516
152.167 531 23.0434
152.284 570 23.8747
152.402 543 23.3024
152.519 519 22.7816
152.636 548 23.4094
152.754 526 22.9347
152.871 540 23.2379
152.989 512 22.6274
153.106 452 21.2603
153.223 461 21.4709
153.341 491 22.1585
153.458 422 20.5426
153.575 493 22.2036
153.693 491 22.1585
153.81 509 22.561
153.927 525 22.9129
154.044 534 23.1084
154.162 534 23.1084
154.279 549 23.4307
154.396 554 23.5372
154.513 529 23
154.63 545 23.3452
154.747 530 23.0217
154.864 520 22.8035
154.981 509 22.561
155.098 482 21.9545
155.215 459 21.4243
155.332 465 21.5639
155.449 500 22.3607
155.566 488 22.0907
155.683 505 22.4722
155.8 488 22.0907
155.917 495 22.2486
156.033 501 22.383
156.15 0 1
156.267 0 1
156.383 0 1
156.5 0 1
156.617 0 1
156.733 0 1
156.85 0 1
156.966 0 1
157.082 0 1
157.199 0 1
157.315 0 1
157.431 0 1
157.547 0 1
157.664 0 1
157.78 0 1
157.896 0 1
158.012 0 1
158.128 0 1
158.244 0 1
158.359 0 1
158.475 0 1
158.591 0 1
158.706 0 1
