
6.15755 0 1
6.2731 0 1
6.3887 0 1
6.50437 0 1
6.62009 0 1
6.73587 0 1
6.8517 0 1
6.96759 0 1
7.08353 0 1
7.19952 0 1
7.31557 0 1
7.43166 0 1
7.54781 0 1
7.664 0 1
7.78024 0 1
7.89653 0 1
8.01286 0 1
8.12924 0 1
8.24567 0 1
8.36213 0 1
8.47864 0 1
8.59519 0 1
8.71178 0 1
8.82841 0 1
8.94508 0 1
9.06179 0 1
9.17853 0 1
9.29531 0 1
9.41212 0 1
9.52897 0 1
9.64584 0 1
9.76276 0 1
9.8797 0 1
9.99667 0 1
10.1137 0 1
10.2307 0 1
10.3478 0 1
10.4648 0 1
10.5819 0 1
10.6991 0 1
10.8162 0 1
10.9334 0 1
11.0506 0 1
11.1678 0 1
11.285 0 1
11.4023 0 1
11.5196 0 1
11.6369 0 1
11.7542 0 1
11.8715 0 1
11.9888 0 1
12.1062 0 1
12.2235 0 1
12.3409 0 1
12.4582 0 1
12.5756 0 1
12.693 0 1
12.8104 0 1
12.9278 0 1
13.0452 0 1
13.1626 0 1
13.28 0 1
13.3974 0 1
13.5149 0 1
13.6323 0 1
13.7497 0 1
13.8671 0 1
13.9845 0 1
14.1019 0 1
14.2193 0 1
14.3367 0 1
14.4541 0 1
14.5714 0 1
14.6888 0 1
14.8062 0 1
14.9235 0 1
15.0408 2987 54.6535
15.1581 3038 55.1181
15.2755 3245 56.9649
15.3927 3138 56.0179
15.51 3141 56.0446
15.6273 3153 56.1516
15.7445 3039 55.1271
15.8617 2961 54.4151
15.9789 2880 53.6656
16.0961 2780 52.7257
16.2132 2719 52.144
16.3304 2802 52.9339
16.4475 2723 52.1824
16.5646 2588 50.8724
16.6816 2641 51.3907
16.7986 2686 51.8266
16.9156 2639 51.3712
17.0326 2509 50.0899
17.1496 2463 49.6286
17.2665 2461 49.6085
17.3833 2469 49.689
17.5002 2466 49.6588
17.617 2583 50.8232
17.7338 2527 50.2693
17.8505 2487 49.8698
17.9672 2455 49.548
18.0839 2517 50.1697
18.2005 2393 48.9183
18.3171 2411 49.1019
18.4337 2579 50.7839
18.5502 2493 49.93
18.6666 2497 49.97
18.7831 2577 50.7642
18.8994 2501 50.01
19.0158 2477 49.7695
19.1321 2449 49.4874
19.2483 2290 47.8539
19.3645 2216 47.0744
19.4806 2059 45.3762
19.5967 1926 43.8862
19.7128 1922 43.8406
19.8288 1816 42.6146
19.9447 1599 39.9875
20.0606 0 1
20.1764 0 1
20.2922 0 1
20.4079 0 1
20.5236 0 1
20.6392 0 1
20.7548 0 1
20.8702 0 1
23.3078 0 1
23.4233 0 1
23.539 0 1
23.6547 0 1
23.7704 0 1
23.8862 0 1
24.0021 0 1
24.118 0 1
24.234 0 1
24.35 0 1
24.4661 1049 32.3883
24.5822 1228 35.0428
24.6984 1486 38.5487
24.8146 1696 41.1825
24.9309 1992 44.6318
25.0472 2228 47.2017
25.1636 2448 49.4773
25.28 2598 50.9706
25.3965 2722 52.1728
25.513 2636 51.342
25.6296 2794 52.8583
25.7462 2879 53.6563
25.8628 2797 52.8867
25.9795 2893 53.7866
26.0962 2760 52.5357
26.213 2674 51.7107
26.3298 2552 50.5173
26.4466 2391 48.8979
26.5635 2415 49.1426
26.6804 2214 47.0532
26.7973 2198 46.8828
26.9143 2248 47.4131
27.0313 2144 46.3033
27.1483 2242 47.3498
27.2653 2258 47.5184
27.3824 2266 47.6025
27.4996 2376 48.7442
27.6167 2369 48.6724
27.7339 2508 50.0799
27.8511 2537 50.3686
27.9683 2430 49.295
28.0855 2455 49.548
28.2028 2405 49.0408
28.3201 2372 48.7032
28.4374 2492 49.9199
28.5547 2524 50.2394
28.6721 2494 49.94
28.7894 2491 49.9099
28.9068 2479 49.7896
29.0242 2496 49.96
29.1416 2423 49.224
29.259 2493 49.93
29.3764 2418 49.1732
29.4939 2366 48.6415
29.6113 2291 47.8644
29.7288 2322 48.1871
29.8463 2195 46.8508
29.9638 2121 46.0543
30.0812 2026 45.0111
30.1987 2059 45.3762
30.3162 2024 44.9889
30.4337 2102 45.8476
30.5512 2137 46.2277
30.6687 2242 47.3498
30.7862 2352 48.4974
30.9037 2412 49.1121
31.0212 2429 49.2849
31.1387 2435 49.3457
31.2562 2604 51.0294
31.3737 2569 50.6853
31.4912 2474 49.7393
31.6087 2457 49.5681
31.7262 2395 48.9387
31.8436 2348 48.4562
31.9611 2392 48.9081
32.0785 2418 49.1732
32.1959 2327 48.239
32.3134 2372 48.7032
32.4308 2322 48.1871
32.5482 2220 47.1169
32.6655 2098 45.8039
32.7829 2175 46.6369
32.9002 2135 46.2061
33.0176 2081 45.618
33.1349 2118 46.0217
33.2522 2134 46.1952
33.3694 2058 45.3652
33.4867 1964 44.317
33.6039 1974 44.4297
33.7211 1946 44.1135
33.8383 1951 44.1701
33.9554 1989 44.5982
34.0725 2021 44.9555
34.1896 2018 44.9222
34.3067 2177 46.6583
34.4237 2116 46
34.5407 2086 45.6727
34.6577 2201 46.9148
34.7746 2419 49.1833
34.8915 2286 47.8121
35.0084 2273 47.676
35.1252 2149 46.3573
35.242 2086 45.6727
35.3587 2220 47.1169
35.4755 2161 46.4866
35.5921 2003 44.7549
35.7088 2129 46.1411
35.8254 2122 46.0652
35.9419 2116 46
36.0584 2089 45.7056
36.1749 2051 45.288
36.2913 1997 44.6878
36.4077 1908 43.6807
36.524 1825 42.72
36.6403 1748 41.8091
36.7565 1651 40.6325
36.8727 1579 39.7366
36.9889 1439 37.9342
37.1049 1309 36.1801
37.221 0 1
37.3369 0 1
37.4529 0 1
37.5687 0 1
37.6845 0 1
37.8003 0 1
37.916 0 1
38.0316 0 1
38.1472 0 1
40.5851 0 1
40.7008 0 1
40.8164 0 1
40.9322 0 1
41.048 0 1
41.1639 0 1
41.2798 0 1
41.3958 0 1
41.5118 0 1
41.6279 0 1
41.744 1019 31.9218
41.8602 1161 34.0735
41.9765 1308 36.1663
42.0928 1468 38.3145
42.2091 1549 39.3573
42.3255 1517 38.9487
42.4419 1515 38.923
42.5584 1583 39.7869
42.675 1598 39.975
42.7915 1654 40.6694
42.9081 1704 41.2795
43.0248 1613 40.1622
43.1415 1578 39.724
43.2582 1681 41
43.375 1616 40.1995
43.4918 1661 40.7554
43.6087 1718 41.4488
43.7256 1708 41.328
43.8425 1729 41.5812
43.9595 1533 39.1535
44.0765 1643 40.5339
44.1935 1672 40.8901
44.3106 1647 40.5832
44.4277 1622 40.2741
44.5448 1765 42.0119
44.6619 1685 41.0488
44.7791 1753 41.8688
44.8963 1700 41.2311
45.0136 1670 40.8656
45.1308 1750 41.833
45.2481 1734 41.6413
45.3654 1683 41.0244
45.4827 1778 42.1663
45.6001 1649 40.6079
45.7174 1676 40.939
45.8348 1574 39.6737
45.9522 1645 40.5586
46.0697 1565 39.5601
46.1871 1524 39.0384
46.3046 1598 39.975
46.422 1600 40
46.5395 1578 39.724
46.657 1499 38.7169
46.7745 1490 38.6005
46.892 1562 39.5221
47.0096 1660 40.7431
47.1271 1738 41.6893
47.2446 1653 40.6571
47.3622 1687 41.0731
47.4797 1676 40.939
47.5973 1613 40.1622
47.7149 1659 40.7308
47.8324 1575 39.6863
47.95 1642 40.5216
48.0675 1637 40.4599
48.1851 1750 41.833
48.3027 1691 41.1218
48.4202 1635 40.4351
48.5378 1780 42.19
48.6554 1716 41.4246
48.7729 1702 41.2553
48.8904 1725 41.5331
49.008 1614 40.1746
49.1255 1651 40.6325
49.243 1555 39.4335
49.3605 1534 39.1663
49.478 1392 37.3095
49.5955 1537 39.2046
49.713 1475 38.4057
49.8304 1553 39.4081
49.9479 1525 39.0512
50.0653 1516 38.9358
50.1827 1407 37.51
50.3001 1420 37.6829
50.4175 1474 38.3927
50.5348 1548 39.3446
50.6521 1580 39.7492
50.7694 1645 40.5586
50.8867 1578 39.724
51.004 1564 39.5474
51.1212 1670 40.8656
51.2384 1549 39.3573
51.3556 1576 39.6989
51.4727 1637 40.4599
51.5899 1580 39.7492
51.707 1686 41.0609
51.824 1581 39.7618
51.9411 1597 39.9625
52.0581 1642 40.5216
52.175 1589 39.8623
52.2919 1629 40.3609
52.4088 1543 39.281
52.5257 1611 40.1373
52.6425 1559 39.4842
52.7593 1533 39.1535
52.876 1472 38.3667
52.9927 1448 38.0526
53.1094 1439 37.9342
53.226 1422 37.7094
53.3426 1444 38
53.4591 1553 39.4081
53.5756 1442 37.9737
53.692 1323 36.3731
53.8084 1240 35.2136
53.9248 1103 33.2114
54.0411 1021 31.9531
54.1573 1014 31.8434
54.2735 0 1
54.3896 0 1
54.5057 0 1
54.6217 0 1
54.7377 0 1
54.8537 0 1
54.9695 0 1
55.0853 0 1
55.2011 0 1
55.3168 0 1
55.4324 0 1
57.824 0 1
57.9396 0 1
58.0553 0 1
58.1711 0 1
58.2869 0 1
58.4028 0 1
58.5187 0 1
58.6347 0 1
58.7508 0 1
58.8669 0 1
58.983 1423 37.7227
59.0992 1635 40.4351
59.2155 1769 42.0595
59.3318 2044 45.2106
59.4482 2085 45.6618
59.5646 2383 48.816
59.681 2364 48.621
59.7975 2358 48.5592
59.9141 2447 49.4672
60.0306 2391 48.8979
60.1473 2474 49.7393
60.2639 2540 50.3984
60.3807 2579 50.7839
60.4974 2587 50.8626
60.6142 2571 50.705
60.731 2561 50.6063
60.8479 2444 49.4368
60.9648 2402 49.0102
61.0818 2301 47.9687
61.1987 2365 48.6313
61.3158 2255 47.4868
61.4328 2184 46.7333
61.5499 2145 46.3141
61.667 2142 46.2817
61.7841 2045 45.2217
61.9013 2132 46.1736
62.0185 2108 45.913
62.1357 2069 45.4863
62.253 2043 45.1996
62.3702 2003 44.7549
62.4875 2020 44.9444
62.6049 2007 44.7996
62.7222 1993 44.643
62.8396 2037 45.1331
62.9569 2021 44.9555
63.0743 2043 45.1996
63.1918 2038 45.1442
63.3092 1921 43.8292
63.4267 1976 44.4522
63.5441 2068 45.4753
63.6616 2029 45.0444
63.7791 2031 45.0666
63.8966 1969 44.3734
64.0142 2095 45.7712
64.1317 2091 45.7275
64.2492 2059 45.3762
64.3668 1971 44.3959
64.4843 2012 44.8553
64.6019 1906 43.6578
64.7195 1856 43.0813
64.837 1875 43.3013
64.9546 1712 41.3763
65.0722 1780 42.19
65.1898 1769 42.0595
65.3074 1699 41.2189
65.4249 1733 41.6293
65.5425 1781 42.2019
65.6601 1776 42.1426
65.7777 1878 43.3359
65.8952 1953 44.1928
66.0128 1920 43.8178
66.1304 1898 43.566
66.2479 1856 43.0813
66.3655 1925 43.8748
66.483 1912 43.7264
66.6005 1947 44.1248
66.718 1972 44.4072
66.8355 1898 43.566
66.953 1838 42.8719
67.0705 1837 42.8602
67.1879 1947 44.1248
67.3054 1957 44.238
67.4228 1916 43.7721
67.5402 2033 45.0888
67.6576 2027 45.0222
67.7749 1966 44.3396
67.8923 1888 43.4511
68.0096 1937 44.0114
68.1269 1936 44
68.2442 1929 43.9204
68.3614 1908 43.6807
68.4787 1803 42.4617
68.5958 1741 41.7253
68.713 1750 41.833
68.8302 1712 41.3763
68.9473 1645 40.5586
69.0643 1725 41.5331
69.1814 1789 42.2966
69.2984 1904 43.6348
69.4154 1872 43.2666
69.5323 1866 43.1972
69.6492 1817 42.6263
69.7661 1836 42.8486
69.8829 1811 42.5558
69.9997 1798 42.4028
70.1165 1837 42.8602
70.2332 1807 42.5088
70.3499 1763 41.9881
70.4665 1586 39.8246
70.5831 1507 38.8201
70.6996 1400 37.4166
70.8161 1348 36.7151
70.9326 1307 36.1525
71.049 1242 35.242
71.1653 1197 34.5977
71.2817 1113 33.3617
71.3979 984 31.3688
71.5141 972 31.1769
71.6303 885 29.7489
71.7464 761 27.5862
71.8624 0 1
71.9784 0 1
72.0944 0 1
72.2102 0 1
72.3261 0 1
72.4418 0 1
72.5575 0 1
72.6732 0 1
75.1054 0 1
75.2209 0 1
75.3365 0 1
75.4521 0 1
75.5678 0 1
75.6835 0 1
75.7993 0 1
75.9151 0 1
76.031 0 1
76.147 1232 35.0999
76.263 1314 36.2491
76.3791 1497 38.6911
76.4952 1533 39.1535
76.6113 1657 40.7063
76.7276 1688 41.0853
76.8438 1679 40.9756
76.9601 1648 40.5956
77.0765 1601 40.0125
77.1929 1684 41.0366
77.3093 1624 40.2989
77.4258 1565 39.5601
77.5423 1506 38.8072
77.6589 1494 38.6523
77.7755 1447 38.0395
77.8921 1380 37.1484
78.0088 1376 37.0945
78.1256 1436 37.8946
78.2423 1513 38.8973
78.3591 1548 39.3446
78.4759 1570 39.6232
78.5928 1624 40.2989
78.7097 1671 40.8779
78.8266 1625 40.3113
78.9436 1673 40.9023
79.0606 1579 39.7366
79.1776 1605 40.0625
79.2946 1713 41.3884
79.4117 1629 40.3609
79.5288 1604 40.05
79.6459 1580 39.7492
79.7631 1610 40.1248
79.8802 1746 41.7852
79.9974 1804 42.4735
80.1147 1750 41.833
80.2319 1765 42.0119
80.3491 1721 41.4849
80.4664 1740 41.7133
80.5837 1759 41.9404
80.701 1785 42.2493
80.8183 1689 41.0974
80.9357 1625 40.3113
81.053 1662 40.7676
81.1704 1626 40.3237
81.2877 1557 39.4588
81.4051 1498 38.704
81.5225 1530 39.1152
81.6399 1546 39.3192
81.7573 1418 37.6563
81.8747 1555 39.4335
81.9922 1571 39.6358
82.1096 1703 41.2674
82.227 1689 41.0974
82.3444 1693 41.1461
82.4619 1726 41.5452
82.5793 1732 41.6173
82.6967 1693 41.1461
82.8142 1683 41.0244
82.9316 1692 41.1339
83.049 1766 42.0238
83.1664 1671 40.8779
83.2838 1678 40.9634
83.4012 1617 40.2119
83.5186 1723 41.509
83.636 1837 42.8602
83.7534 1869 43.2319
83.8708 1863 43.1625
83.9881 1840 42.8952
84.1055 1903 43.6234
84.2228 1845 42.9535
84.3401 1726 41.5452
84.4575 1677 40.9512
84.5747 1775 42.1307
84.692 1709 41.3401
84.8093 1627 40.3361
84.9265 1600 40
85.0437 1596 39.95
85.1609 1486 38.5487
85.2781 1554 39.4208
85.3952 1518 38.9615
85.5123 1568 39.598
85.6294 1686 41.0609
85.7465 1819 42.6497
85.8636 1685 41.0488
85.9806 1794 42.3556
86.0976 1762 41.9762
86.2145 1732 41.6173
86.3315 1724 41.5211
86.4484 1808 42.5206
86.5652 1792 42.332
86.682 1824 42.7083
86.7988 1756 41.9047
86.9156 1718 41.4488
87.0323 1799 42.4146
87.149 1726 41.5452
87.2657 1759 41.9404
87.3823 1757 41.9166
87.4988 1803 42.4617
87.6154 1737 41.6773
87.7318 1700 41.2311
87.8483 1554 39.4208
87.9647 1514 38.9102
88.081 1386 37.229
88.1973 1320 36.3318
88.3136 1134 33.6749
88.4298 1003 31.6702
88.546 947 30.7734
88.6621 885 29.7489
88.7781 815 28.5482
88.8942 0 1
89.0101 0 1
89.126 0 1
89.2419 0 1
89.3577 0 1
89.4734 0 1
89.5891 0 1
89.7047 0 1
89.8203 0 1
89.9358 0 1
92.3269 0 1
92.4424 0 1
92.558 0 1
92.6736 0 1
92.7893 0 1
92.905 0 1
93.0208 0 1
93.1366 0 1
93.2525 0 1
93.3685 0 1
93.4845 0 1
93.6005 1384 37.2022
93.7167 1482 38.4968
93.8328 1548 39.3446
93.949 1643 40.5339
94.0653 1686 41.0609
94.1816 1578 39.724
94.2979 1487 38.5616
94.4143 1549 39.3573
94.5307 1522 39.0128
94.6472 1527 39.0768
94.7637 1637 40.4599
94.8803 1677 40.9512
94.9969 1809 42.5323
95.1135 1758 41.9285
95.2302 1832 42.8019
95.3469 1787 42.2729
95.4637 1768 42.0476
95.5805 1817 42.6263
95.6973 1813 42.5793
95.8142 1779 42.1782
95.9311 1713 41.3884
96.048 1722 41.497
96.1649 1739 41.7013
96.2819 1684 41.0366
96.3989 1799 42.4146
96.516 1847 42.9767
96.633 2035 45.111
96.7501 1876 43.3128
96.8673 1838 42.8719
96.9844 1900 43.589
97.1016 1815 42.6028
97.2188 1866 43.1972
97.336 1816 42.6146
97.4532 1783 42.2256
97.5704 1665 40.8044
97.6877 1656 40.694
97.805 1690 41.1096
97.9223 1586 39.8246
98.0396 1607 40.0874
98.1569 1639 40.4846
98.2743 1590 39.8748
98.3916 1801 42.4382
98.509 1876 43.3128
98.6264 1909 43.6921
98.7438 1983 44.5309
98.8612 1958 44.2493
98.9786 2046 45.2327
99.096 1974 44.4297
99.2134 2033 45.0888
99.3308 1922 43.8406
99.4482 1886 43.4281
99.5656 1966 44.3396
99.6831 1953 44.1928
99.8005 1910 43.7035
99.9179 1895 43.5316
100.035 1871 43.2551
100.153 2009 44.8219
100.27 2103 45.8585
100.388 1954 44.2041
100.505 1913 43.7379
100.622 1980 44.4972
100.74 1905 43.6463
100.857 1858 43.1045
100.975 1832 42.8019
101.092 1880 43.359
101.209 1831 42.7902
101.327 1835 42.8369
101.444 1847 42.9767
101.561 1708 41.328
101.679 1693 41.1461
101.796 1702 41.2553
101.913 1819 42.6497
102.03 1888 43.4511
102.148 1976 44.4522
102.265 2022 44.9667
102.382 1975 44.441
102.499 2006 44.7884
102.616 2036 45.1221
102.733 2079 45.5961
102.851 2101 45.8367
102.968 2159 46.465
103.085 2112 45.9565
103.202 2121 46.0543
103.319 2007 44.7996
103.436 2164 46.5188
103.552 2124 46.0869
103.669 2173 46.6154
103.786 2173 46.6154
103.903 2123 46.076
104.02 2159 46.465
104.137 2082 45.6289
104.253 1969 44.3734
104.37 2040 45.1664
104.487 2106 45.8912
104.603 2077 45.5741
104.72 1943 44.0795
104.836 1925 43.8748
104.953 1814 42.5911
105.069 1702 41.2553
105.186 1579 39.7366
105.302 1612 40.1497
105.418 1547 39.3319
105.535 1458 38.1838
105.651 1324 36.3868
105.767 1288 35.8887
105.883 1212 34.8138
105.999 1157 34.0147
106.115 0 1
106.231 0 1
106.347 0 1
106.463 0 1
106.579 0 1
106.694 0 1
106.81 0 1
106.926 0 1
107.041 0 1
107.157 0 1
109.576 0 1
109.692 0 1
109.807 0 1
109.923 0 1
110.039 0 1
110.155 0 1
110.27 0 1
110.386 0 1
110.502 0 1
110.618 919 30.315
110.735 1228 35.0428
110.851 1435 37.8814
110.967 1615 40.1871
111.083 1672 40.8901
111.199 1728 41.5692
111.316 1789 42.2966
111.432 1834 42.8252
111.549 1918 43.795
111.665 1911 43.715
111.782 1881 43.3705
111.898 1839 42.8836
112.015 1794 42.3556
112.132 1883 43.3935
112.248 1893 43.5086
112.365 1930 43.9318
112.482 2008 44.8107
112.599 1902 43.6119
112.716 1934 43.9773
112.832 1950 44.1588
112.949 1876 43.3128
113.066 1773 42.107
113.183 1828 42.7551
113.3 1848 42.9884
113.417 1904 43.6348
113.534 1812 42.5676
113.652 1798 42.4028
113.769 1701 41.2432
113.886 1553 39.4081
114.003 1559 39.4842
114.12 1581 39.7618
114.238 1633 40.4104
114.355 1764 42
114.472 1813 42.5793
114.589 1773 42.107
114.707 1792 42.332
114.824 1853 43.0465
114.942 1761 41.9643
115.059 1836 42.8486
115.176 1786 42.2611
115.294 1786 42.2611
115.411 1771 42.0833
115.529 1746 41.7852
115.646 1767 42.0357
115.764 1767 42.0357
115.881 1674 40.9145
115.999 1817 42.6263
116.116 1779 42.1782
116.234 1744 41.7612
116.351 1747 41.7971
116.469 1741 41.7253
116.586 1693 41.1461
116.704 1671 40.8779
116.821 1728 41.5692
116.939 1640 40.4969
117.056 1716 41.4246
117.174 1648 40.5956
117.291 1589 39.8623
117.409 1556 39.4462
117.526 1423 37.7227
117.644 1409 37.5366
117.761 1407 37.51
117.879 1570 39.6232
117.996 1559 39.4842
118.114 1626 40.3237
118.231 1737 41.6773
118.349 1631 40.3856
118.466 1746 41.7852
118.584 1725 41.5331
118.701 1655 40.6817
118.819 1677 40.9512
118.936 1741 41.7253
119.053 1601 40.0125
119.171 1563 39.5348
119.288 1590 39.8748
119.405 1610 40.1248
119.523 1603 40.0375
119.64 1594 39.9249
119.757 1697 41.1947
119.875 1660 40.7431
119.992 1623 40.2865
120.109 1600 40
120.226 1593 39.9124
120.343 1540 39.2428
120.46 1564 39.5474
120.578 1588 39.8497
120.695 1589 39.8623
120.812 1592 39.8999
120.929 1572 39.6485
121.046 1521 39
121.163 1472 38.3667
121.279 1343 36.647
121.396 1303 36.0971
121.513 1313 36.2353
121.63 1373 37.054
121.747 1407 37.51
121.863 1408 37.5233
121.98 1384 37.2022
122.097 1300 36.0555
122.213 1275 35.7071
122.33 1271 35.6511
122.446 1240 35.2136
122.563 1158 34.0294
122.679 1110 33.3167
122.795 939 30.6431
122.912 949 30.8058
123.028 930 30.4959
123.144 926 30.4302
123.26 864 29.3939
123.377 0 1
123.493 0 1
123.609 0 1
123.725 0 1
123.84 0 1
123.956 0 1
124.072 0 1
124.188 0 1
124.303 0 1
124.419 0 1
126.852 0 1
126.968 0 1
127.083 0 1
127.199 0 1
127.315 0 1
127.431 0 1
127.547 0 1
127.663 0 1
127.779 0 1
127.895 0 1
128.011 0 1
128.127 0 1
128.243 0 1
128.359 1637 40.4599
128.476 1735 41.6533
128.592 1791 42.3202
128.708 1807 42.5088
128.825 1824 42.7083
128.941 1846 42.9651
129.058 1898 43.566
129.174 1821 42.6732
129.291 1861 43.1393
129.408 1811 42.5558
129.524 1828 42.7551
129.641 1887 43.4396
129.758 1820 42.6615
129.875 1855 43.0697
129.992 1958 44.2493
130.108 1880 43.359
130.225 1730 41.5933
130.342 1782 42.2137
130.459 1724 41.5211
130.576 1786 42.2611
130.693 1898 43.566
130.81 1866 43.1972
130.928 2107 45.9021
131.045 2158 46.4543
131.162 2338 48.3529
131.279 2512 50.1199
131.396 2576 50.7543
131.513 2650 51.4782
131.631 2624 51.225
131.748 2596 50.951
131.865 2627 51.2543
131.983 2789 52.811
132.1 2736 52.3068
132.217 2860 53.479
132.335 3071 55.4166
132.452 3226 56.7979
132.57 3332 57.7235
132.687 3175 56.3471
132.804 3324 57.6541
132.922 3403 58.3352
133.039 3363 57.9914
133.157 3391 58.2323
133.274 3433 58.5918
133.392 3513 59.2706
133.509 3384 58.1722
133.627 3468 58.8897
133.744 3443 58.6771
133.862 3271 57.1927
133.979 3161 56.2228
134.097 3119 55.848
134.214 3021 54.9636
134.332 3108 55.7494
134.449 3110 55.7674
134.567 3185 56.4358
134.684 3387 58.1979
134.802 3552 59.5987
134.919 3625 60.208
135.037 3619 60.1581
135.154 3483 59.0169
135.272 3550 59.5819
135.389 3404 58.3438
135.507 3357 57.9396
135.624 3417 58.4551
135.742 3605 60.0417
135.859 3661 60.5062
135.977 3736 61.1228
136.094 3744 61.1882
136.211 3854 62.0806
136.329 3836 61.9355
136.446 3675 60.6218
136.564 3801 61.6523
136.681 3755 61.2781
136.798 3805 61.6847
136.915 3775 61.441
137.033 3786 61.5305
137.15 3824 61.8385
137.267 3637 60.3075
137.384 3736 61.1228
137.502 3521 59.338
137.619 3349 57.8705
137.736 3340 57.7927
137.853 3138 56.0179
137.97 3077 55.4707
138.087 3063 55.3444
138.204 3277 57.2451
138.321 3489 59.0678
138.438 3571 59.7578
138.555 3750 61.2372
138.672 3751 61.2454
138.788 3622 60.1831
138.905 3544 59.5315
139.022 3329 57.6975
139.139 3211 56.6657
139.255 2935 54.1756
139.372 2746 52.4023
139.488 2844 53.3292
139.605 2820 53.1037
139.721 2665 51.6236
139.838 2493 49.93
139.954 2486 49.8598
140.071 2295 47.9062
140.187 2236 47.2864
140.303 2062 45.4093
140.419 1932 43.9545
140.535 1912 43.7264
140.652 1724 41.5211
140.768 0 1
140.884 0 1
141 0 1
141.115 0 1
141.231 0 1
141.347 0 1
141.463 0 1
141.578 0 1
141.694 0 1
144.104 0 1
144.219 0 1
144.335 0 1
144.45 0 1
144.566 0 1
144.682 0 1
144.798 0 1
144.914 0 1
145.03 0 1
145.146 5134 71.6519
145.262 5587 74.7462
145.378 5840 76.4199
145.494 5941 77.0779
145.61 6215 78.8353
145.726 6391 79.9437
145.842 6591 81.185
145.959 6677 81.7129
146.075 6616 81.3388
146.192 6825 82.6136
146.308 6545 80.9012
146.425 6498 80.6102
146.541 6407 80.0437
146.658 5921 76.948
146.774 5543 74.4513
146.891 5483 74.0473
147.008 6569 81.0494
147.125 7108 84.309
147.241 7505 86.6314
147.358 7853 88.6172
147.475 7861 88.6623
147.592 7850 88.6002
147.709 7600 87.178
147.826 7485 86.5159
147.943 7428 86.1858
148.06 7269 85.2584
148.177 7347 85.7146
148.294 7438 86.2438
148.411 7578 87.0517
148.528 7565 86.977
148.645 7662 87.5329
148.762 7593 87.1378
148.88 7621 87.2983
148.997 7615 87.264
149.114 7423 86.1568
149.231 7633 87.367
149.349 7612 87.2468
149.466 7636 87.3842
149.583 7636 87.3842
149.701 7287 85.3639
149.818 6874 82.9096
149.935 6379 79.8686
150.053 5773 75.9803
150.17 5540 74.4312
150.287 5436 73.7292
150.405 5546 74.4715
150.522 5732 75.71
150.64 6497 80.604
150.757 7254 85.1704
150.875 7486 86.5217
150.992 7858 88.6454
151.11 7723 87.8806
151.227 7880 88.7694
151.344 8008 89.4874
151.462 8131 90.1721
151.579 8136 90.1998
151.697 8400 91.6515
151.814 8915 94.4193
151.932 9116 95.4777
152.049 9628 98.1224
152.167 10270 101.341
152.284 10528 102.606
152.402 10780 103.827
152.519 11383 106.691
152.636 11736 108.333
152.754 12044 109.745
152.871 12479 111.709
152.989 12389 111.306
153.106 13073 114.337
153.223 13007 114.048
153.341 13261 115.156
153.458 12709 112.734
153.575 12445 111.557
153.693 12234 110.607
153.81 11548 107.462
153.927 9835 99.1716
154.044 6498 80.6102
154.162 7602 87.1894
154.279 12283 110.829
154.396 14604 120.847
154.513 14941 122.233
154.63 15227 123.398
154.747 15590 124.86
154.864 15679 125.216
154.981 15703 125.312
155.098 15720 125.379
155.215 15746 125.483
155.332 15422 124.185
155.449 15272 123.58
155.566 15039 122.634
155.683 14722 121.334
155.8 14631 120.959
155.917 14195 119.143
156.033 13681 116.966
156.15 0 1
156.267 0 1
156.383 0 1
156.5 0 1
156.617 0 1
156.733 0 1
156.85 0 1
156.966 0 1
157.082 0 1
157.199 0 1
157.315 0 1
157.431 0 1
157.547 0 1
157.664 0 1
157.78 0 1
157.896 0 1
158.012 0 1
158.128 0 1
158.244 0 1
158.359 0 1
158.475 0 1
158.591 0 1
158.706 0 1
