
6.15755 0 1
6.2731 0 1
6.3887 0 1
6.50437 0 1
6.62009 0 1
6.73587 0 1
6.8517 0 1
6.96759 0 1
7.08353 0 1
7.19952 0 1
7.31557 0 1
7.43166 0 1
7.54781 0 1
7.664 0 1
7.78024 0 1
7.89653 0 1
8.01286 0 1
8.12924 0 1
8.24567 0 1
8.36213 0 1
8.47864 0 1
8.59519 0 1
8.71178 0 1
8.82841 0 1
8.94508 0 1
9.06179 0 1
9.17853 0 1
9.29531 0 1
9.41212 0 1
9.52897 0 1
9.64584 0 1
9.76276 0 1
9.8797 0 1
9.99667 0 1
10.1137 0 1
10.2307 0 1
10.3478 0 1
10.4648 0 1
10.5819 0 1
10.6991 0 1
10.8162 0 1
10.9334 0 1
11.0506 0 1
11.1678 0 1
11.285 0 1
11.4023 0 1
11.5196 0 1
11.6369 0 1
11.7542 0 1
11.8715 0 1
11.9888 0 1
12.1062 0 1
12.2235 0 1
12.3409 0 1
12.4582 0 1
12.5756 0 1
12.693 0 1
12.8104 0 1
12.9278 0 1
13.0452 0 1
13.1626 0 1
13.28 0 1
13.3974 0 1
13.5149 0 1
13.6323 0 1
13.7497 0 1
13.8671 0 1
13.9845 0 1
14.1019 0 1
14.2193 0 1
14.3367 0 1
14.4541 0 1
14.5714 0 1
14.6888 0 1
14.8062 0 1
14.9235 0 1
15.0408 0 0
15.1581 0 0
15.2755 0 0
15.3927 0 0
15.51 0 0
15.6273 0 0
15.7445 0 0
15.8617 0 0
15.9789 0 0
16.0961 0 0
16.2132 0 0
16.3304 0 0
16.4475 0 0
16.5646 0 0
16.6816 0 0
16.7986 0 0
16.9156 0 0
17.0326 0 0
17.1496 0 0
17.2665 0 0
17.3833 0 0
17.5002 0 0
17.617 0 0
17.7338 0 0
17.8505 0 0
17.9672 0 0
18.0839 0 0
18.2005 0 0
18.3171 0 0
18.4337 0 0
18.5502 0 0
18.6666 0 0
18.7831 0 0
18.8994 0 0
19.0158 0 0
19.1321 0 0
19.2483 0 0
19.3645 0 0
19.4806 0 0
19.5967 0 0
19.7128 0 0
19.8288 0 0
19.9447 0 0
20.0606 0 1
20.1764 0 1
20.2922 0 1
20.4079 0 1
20.5236 0 1
20.6392 0 1
20.7548 0 1
20.8702 0 1
23.3078 0 1
23.4233 0 1
23.539 0 1
23.6547 0 1
23.7704 0 1
23.8862 0 1
24.0021 0 1
24.118 0 1
24.234 0 1
24.35 0 1
24.4661 1211 34.7994
24.5822 1199 34.6266
24.6984 1203 34.6843
24.8146 1141 33.7787
24.9309 1195 34.5688
25.0472 1199 34.6266
25.1636 1197 34.5977
25.28 1160 34.0588
25.3965 1182 34.3802
25.513 1205 34.7131
25.6296 1210 34.7851
25.7462 1278 35.7491
25.8628 1303 36.0971
25.9795 1296 36
26.0962 1305 36.1248
26.213 1274 35.6931
26.3298 1363 36.9188
26.4466 1233 35.1141
26.5635 1274 35.6931
26.6804 1148 33.8821
26.7973 1199 34.6266
26.9143 1274 35.6931
27.0313 1255 35.426
27.1483 1342 36.6333
27.2653 1312 36.2215
27.3824 1325 36.4005
27.4996 1439 37.9342
27.6167 1336 36.5513
27.7339 1285 35.8469
27.8511 1250 35.3553
27.9683 1221 34.9428
28.0855 1154 33.9706
28.2028 1205 34.7131
28.3201 1211 34.7994
28.4374 1136 33.7046
28.5547 1167 34.1614
28.6721 1076 32.8024
28.7894 1093 33.0606
28.9068 1091 33.0303
29.0242 1064 32.619
29.1416 1125 33.541
29.259 1156 34
29.3764 1137 33.7194
29.4939 1182 34.3802
29.6113 1126 33.5559
29.7288 1245 35.2846
29.8463 1185 34.4238
29.9638 1238 35.1852
30.0812 1232 35.0999
30.1987 1135 33.6898
30.3162 1162 34.0881
30.4337 1246 35.2987
30.5512 1229 35.0571
30.6687 1225 35
30.7862 1303 36.0971
30.9037 1231 35.0856
31.0212 1321 36.3456
31.1387 1339 36.5923
31.2562 1289 35.9026
31.3737 1241 35.2278
31.4912 1187 34.4529
31.6087 1267 35.5949
31.7262 1225 35
31.8436 1168 34.176
31.9611 1084 32.9242
32.0785 1101 33.1813
32.1959 1061 32.573
32.3134 1056 32.4962
32.4308 1044 32.311
32.5482 1054 32.4654
32.6655 972 31.1769
32.7829 1164 34.1174
32.9002 1110 33.3167
33.0176 1114 33.3766
33.1349 1183 34.3948
33.2522 1182 34.3802
33.3694 1224 34.9857
33.4867 1188 34.4674
33.6039 1184 34.4093
33.7211 1146 33.8526
33.8383 1146 33.8526
33.9554 1111 33.3317
34.0725 1170 34.2053
34.1896 1229 35.0571
34.3067 1195 34.5688
34.4237 1267 35.5949
34.5407 1197 34.5977
34.6577 1220 34.9285
34.7746 1273 35.6791
34.8915 1249 35.3412
35.0084 1267 35.5949
35.1252 1219 34.9142
35.242 1174 34.2637
35.3587 1181 34.3657
35.4755 1169 34.1906
35.5921 1118 33.4365
35.7088 1016 31.8748
35.8254 1061 32.573
35.9419 950 30.8221
36.0584 981 31.3209
36.1749 1016 31.8748
36.2913 991 31.4802
36.4077 953 30.8707
36.524 1075 32.7872
36.6403 1082 32.8938
36.7565 1096 33.1059
36.8727 1097 33.121
36.9889 1128 33.5857
37.1049 1113 33.3617
37.221 0 1
37.3369 0 1
37.4529 0 1
37.5687 0 1
37.6845 0 1
37.8003 0 1
37.916 0 1
38.0316 0 1
38.1472 0 1
40.5851 0 1
40.7008 0 1
40.8164 0 1
40.9322 0 1
41.048 0 1
41.1639 0 1
41.2798 0 1
41.3958 0 1
41.5118 0 1
41.6279 0 1
41.744 764 27.6405
41.8602 844 29.0517
41.9765 872 29.5296
42.0928 832 28.8444
42.2091 907 30.1164
42.3255 910 30.1662
42.4419 990 31.4643
42.5584 923 30.3809
42.675 842 29.0172
42.7915 892 29.8664
42.9081 873 29.5466
43.0248 864 29.3939
43.1415 917 30.282
43.2582 902 30.0333
43.375 914 30.2324
43.4918 952 30.8545
43.6087 940 30.6594
43.7256 907 30.1164
43.8425 922 30.3645
43.9595 885 29.7489
44.0765 865 29.4109
44.1935 853 29.2062
44.3106 857 29.2746
44.4277 779 27.9106
44.5448 715 26.7395
44.6619 705 26.5518
44.7791 645 25.3969
44.8963 635 25.1992
45.0136 576 24
45.1308 645 25.3969
45.2481 612 24.7386
45.3654 664 25.7682
45.4827 651 25.5147
45.6001 648 25.4558
45.7174 658 25.6515
45.8348 675 25.9808
45.9522 703 26.5141
46.0697 721 26.8514
46.1871 659 25.671
46.3046 639 25.2784
46.422 635 25.1992
46.5395 626 25.02
46.657 649 25.4755
46.7745 634 25.1794
46.892 721 26.8514
47.0096 666 25.807
47.1271 694 26.3439
47.2446 684 26.1534
47.3622 657 25.632
47.4797 613 24.7588
47.5973 596 24.4131
47.7149 594 24.3721
47.8324 572 23.9165
47.95 567 23.8118
48.0675 503 22.4277
48.1851 550 23.4521
48.3027 457 21.3776
48.4202 430 20.7364
48.5378 410 20.2485
48.6554 413 20.3224
48.7729 470 21.6795
48.8904 496 22.2711
49.008 491 22.1585
49.1255 515 22.6936
49.243 531 23.0434
49.3605 542 23.2809
49.478 495 22.2486
49.5955 505 22.4722
49.713 503 22.4277
49.8304 515 22.6936
49.9479 520 22.8035
50.0653 540 23.2379
50.1827 594 24.3721
50.3001 593 24.3516
50.4175 589 24.2693
50.5348 655 25.593
50.6521 651 25.5147
50.7694 664 25.7682
50.8867 660 25.6905
51.004 680 26.0768
51.1212 705 26.5518
51.2384 681 26.096
51.3556 701 26.4764
51.4727 704 26.533
51.5899 681 26.096
51.707 623 24.96
51.824 624 24.98
51.9411 599 24.4745
52.0581 605 24.5967
52.175 645 25.3969
52.2919 688 26.2298
52.4088 706 26.5707
52.5257 757 27.5136
52.6425 820 28.6356
52.7593 787 28.0535
52.876 839 28.9655
52.9927 895 29.9166
53.1094 818 28.6007
53.226 877 29.6142
53.3426 848 29.1204
53.4591 921 30.348
53.5756 897 29.95
53.692 910 30.1662
53.8084 967 31.0966
53.9248 1054 32.4654
54.0411 1060 32.5576
54.1573 1093 33.0606
54.2735 0 1
54.3896 0 1
54.5057 0 1
54.6217 0 1
54.7377 0 1
54.8537 0 1
54.9695 0 1
55.0853 0 1
55.2011 0 1
55.3168 0 1
55.4324 0 1
57.824 0 1
57.9396 0 1
58.0553 0 1
58.1711 0 1
58.2869 0 1
58.4028 0 1
58.5187 0 1
58.6347 0 1
58.7508 0 1
58.8669 0 1
58.983 1080 32.8634
59.0992 1162 34.0881
59.2155 1242 35.242
59.3318 1211 34.7994
59.4482 1262 35.5246
59.5646 1278 35.7491
59.681 1184 34.4093
59.7975 1240 35.2136
59.9141 1164 34.1174
60.0306 1127 33.5708
60.1473 1015 31.8591
60.2639 999 31.607
60.3807 968 31.1127
60.4974 849 29.1376
60.6142 901 30.0167
60.731 837 28.931
60.8479 807 28.4077
60.9648 873 29.5466
61.0818 920 30.3315
61.1987 1030 32.0936
61.3158 1022 31.9687
61.4328 945 30.7409
61.5499 1044 32.311
61.667 1002 31.6544
61.7841 999 31.607
61.9013 958 30.9516
62.0185 1084 32.9242
62.1357 984 31.3688
62.253 1038 32.218
62.3702 1095 33.0908
62.4875 1134 33.6749
62.6049 1226 35.0143
62.7222 1267 35.5949
62.8396 1150 33.9116
62.9569 1245 35.2846
63.0743 1188 34.4674
63.1918 1228 35.0428
63.3092 1206 34.7275
63.4267 1093 33.0606
63.5441 1102 33.1964
63.6616 1065 32.6343
63.7791 988 31.4325
63.8966 909 30.1496
64.0142 825 28.7228
64.1317 856 29.2575
64.2492 890 29.8329
64.3668 850 29.1548
64.4843 854 29.2233
64.6019 981 31.3209
64.7195 1011 31.7962
64.837 1052 32.4345
64.9546 1080 32.8634
65.0722 1051 32.4191
65.1898 1034 32.1559
65.3074 1030 32.0936
65.4249 1022 31.9687
65.5425 1055 32.4808
65.6601 990 31.4643
65.7777 959 30.9677
65.8952 977 31.257
66.0128 1057 32.5115
66.1304 1066 32.6497
66.2479 1154 33.9706
66.3655 1179 34.3366
66.483 1187 34.4529
66.6005 1148 33.8821
66.718 1257 35.4542
66.8355 1114 33.3766
66.953 1140 33.7639
67.0705 1107 33.2716
67.1879 996 31.5595
67.3054 959 30.9677
67.4228 886 29.7658
67.5402 839 28.9655
67.6576 747 27.3313
67.7749 739 27.1846
67.8923 777 27.8747
68.0096 766 27.6767
68.1269 886 29.7658
68.2442 923 30.3809
68.3614 980 31.305
68.4787 978 31.273
68.5958 917 30.282
68.713 982 31.3369
68.8302 932 30.5287
68.9473 969 31.1288
69.0643 974 31.209
69.1814 904 30.0666
69.2984 932 30.5287
69.4154 994 31.5278
69.5323 965 31.0644
69.6492 1006 31.7175
69.7661 1047 32.3574
69.8829 1172 34.2345
69.9997 1137 33.7194
70.1165 1185 34.4238
70.2332 1256 35.4401
70.3499 1182 34.3802
70.4665 1164 34.1174
70.5831 1146 33.8526
70.6996 1119 33.4515
70.8161 1027 32.0468
70.9326 993 31.5119
71.049 891 29.8496
71.1653 807 28.4077
71.2817 757 27.5136
71.3979 716 26.7582
71.5141 783 27.9821
71.6303 743 27.258
71.7464 717 26.7769
71.8624 0 1
71.9784 0 1
72.0944 0 1
72.2102 0 1
72.3261 0 1
72.4418 0 1
72.5575 0 1
72.6732 0 1
75.1054 0 1
75.2209 0 1
75.3365 0 1
75.4521 0 1
75.5678 0 1
75.6835 0 1
75.7993 0 1
75.9151 0 1
76.031 0 1
76.147 956 30.9192
76.263 954 30.8869
76.3791 881 29.6816
76.4952 864 29.3939
76.6113 805 28.3725
76.7276 761 27.5862
76.8438 767 27.6948
76.9601 782 27.9643
77.0765 879 29.6479
77.1929 947 30.7734
77.3093 1016 31.8748
77.4258 1052 32.4345
77.5423 1056 32.4962
77.6589 1081 32.8786
77.7755 1046 32.3419
77.8921 1023 31.9844
78.0088 949 30.8058
78.1256 1007 31.7333
78.2423 929 30.4795
78.3591 901 30.0167
78.4759 980 31.305
78.5928 969 31.1288
78.7097 992 31.496
78.8266 1096 33.1059
78.9436 1209 34.7707
79.0606 1170 34.2053
79.1776 1138 33.7343
79.2946 1189 34.4819
79.4117 1202 34.6699
79.5288 1104 33.2265
79.6459 1116 33.4066
79.7631 1074 32.7719
79.8802 966 31.0805
79.9974 876 29.5973
80.1147 825 28.7228
80.2319 756 27.4955
80.3491 710 26.6458
80.4664 699 26.4386
80.5837 776 27.8568
80.701 845 29.0689
80.8183 822 28.6705
80.9357 885 29.7489
81.053 934 30.5614
81.1704 939 30.6431
81.2877 874 29.5635
81.4051 868 29.4618
81.5225 806 28.3901
81.6399 865 29.4109
81.7573 850 29.1548
81.8747 826 28.7402
81.9922 838 28.9482
82.1096 836 28.9137
82.227 951 30.8383
82.3444 900 30
82.4619 1028 32.0624
82.5793 995 31.5436
82.6967 959 30.9677
82.8142 995 31.5436
82.9316 952 30.8545
83.049 1019 31.9218
83.1664 971 31.1609
83.2838 913 30.2159
83.4012 870 29.4958
83.5186 792 28.1425
83.636 724 26.9072
83.7534 693 26.3249
83.8708 612 24.7386
83.9881 601 24.5153
84.1055 565 23.7697
84.2228 601 24.5153
84.3401 699 26.4386
84.4575 705 26.5518
84.5747 815 28.5482
84.692 839 28.9655
84.8093 883 29.7153
84.9265 790 28.1069
85.0437 806 28.3901
85.1609 787 28.0535
85.2781 739 27.1846
85.3952 760 27.5681
85.5123 787 28.0535
85.6294 789 28.0891
85.7465 866 29.4279
85.8636 923 30.3809
85.9806 895 29.9166
86.0976 1013 31.8277
86.2145 1076 32.8024
86.3315 1178 34.322
86.4484 1059 32.5423
86.5652 1105 33.2415
86.682 1110 33.3167
86.7988 1042 32.28
86.9156 1044 32.311
87.0323 935 30.5778
87.149 888 29.7993
87.2657 880 29.6648
87.3823 710 26.6458
87.4988 703 26.5141
87.6154 703 26.5141
87.7318 739 27.1846
87.8483 819 28.6182
87.9647 886 29.7658
88.081 971 31.1609
88.1973 1070 32.7109
88.3136 1038 32.218
88.4298 990 31.4643
88.546 931 30.5123
88.6621 948 30.7896
88.7781 916 30.2655
88.8942 0 1
89.0101 0 1
89.126 0 1
89.2419 0 1
89.3577 0 1
89.4734 0 1
89.5891 0 1
89.7047 0 1
89.8203 0 1
89.9358 0 1
92.3269 0 1
92.4424 0 1
92.558 0 1
92.6736 0 1
92.7893 0 1
92.905 0 1
93.0208 0 1
93.1366 0 1
93.2525 0 1
93.3685 0 1
93.4845 0 1
93.6005 959 30.9677
93.7167 1023 31.9844
93.8328 1015 31.8591
93.949 985 31.3847
94.0653 946 30.7571
94.1816 961 31
94.2979 915 30.249
94.4143 925 30.4138
94.5307 924 30.3974
94.6472 943 30.7083
94.7637 976 31.241
94.8803 1046 32.3419
94.9969 1110 33.3167
95.1135 1105 33.2415
95.2302 1226 35.0143
95.3469 1237 35.171
95.4637 1231 35.0856
95.5805 1287 35.8748
95.6973 1261 35.5106
95.8142 1258 35.4683
95.9311 1189 34.4819
96.048 1194 34.5543
96.1649 1059 32.5423
96.2819 1009 31.7648
96.3989 928 30.4631
96.516 911 30.1828
96.633 758 27.5318
96.7501 788 28.0713
96.8673 768 27.7128
96.9844 777 27.8747
97.1016 931 30.5123
97.2188 985 31.3847
97.336 1042 32.28
97.4532 1112 33.3467
97.5704 1009 31.7648
97.6877 1043 32.2955
97.805 906 30.0998
97.9223 941 30.6757
98.0396 908 30.133
98.1569 923 30.3809
98.2743 916 30.2655
98.3916 942 30.692
98.509 1061 32.573
98.6264 1090 33.0151
98.7438 1192 34.5254
98.8612 1144 33.8231
98.9786 1241 35.2278
99.096 1261 35.5106
99.2134 1241 35.2278
99.3308 1227 35.0286
99.4482 1147 33.8674
99.5656 1187 34.4529
99.6831 1165 34.1321
99.8005 1024 32
99.9179 1032 32.1248
100.035 962 31.0161
100.153 862 29.3598
100.27 810 28.4605
100.388 820 28.6356
100.505 854 29.2233
100.622 942 30.692
100.74 943 30.7083
100.857 1042 32.28
100.975 1079 32.8481
101.092 1077 32.8177
101.209 1021 31.9531
101.327 1017 31.8904
101.444 946 30.7571
101.561 920 30.3315
101.679 956 30.9192
101.796 967 31.0966
101.913 956 30.9192
102.03 1019 31.9218
102.148 1137 33.7194
102.265 1161 34.0735
102.382 1230 35.0714
102.499 1239 35.1994
102.616 1298 36.0278
102.733 1342 36.6333
102.851 1342 36.6333
102.968 1313 36.2353
103.085 1345 36.6742
103.202 1209 34.7707
103.319 1220 34.9285
103.436 1083 32.909
103.552 986 31.4006
103.669 898 29.9666
103.786 845 29.0689
103.903 877 29.6142
104.02 892 29.8664
104.137 1027 32.0468
104.253 1084 32.9242
104.37 1136 33.7046
104.487 1128 33.5857
104.603 1202 34.6699
104.72 1093 33.0606
104.836 1044 32.311
104.953 1015 31.8591
105.069 991 31.4802
105.186 986 31.4006
105.302 1017 31.8904
105.418 1064 32.619
105.535 1183 34.3948
105.651 1262 35.5246
105.767 1340 36.606
105.883 1332 36.4966
105.999 1412 37.5766
106.115 0 1
106.231 0 1
106.347 0 1
106.463 0 1
106.579 0 1
106.694 0 1
106.81 0 1
106.926 0 1
107.041 0 1
107.157 0 1
109.576 0 1
109.692 0 1
109.807 0 1
109.923 0 1
110.039 0 1
110.155 0 1
110.27 0 1
110.386 0 1
110.502 0 1
110.618 1126 33.5559
110.735 1221 34.9428
110.851 1335 36.5377
110.967 1336 36.5513
111.083 1327 36.428
111.199 1341 36.6197
111.316 1385 37.2156
111.432 1420 37.6829
111.549 1447 38.0395
111.665 1362 36.9053
111.782 1272 35.6651
111.898 1208 34.7563
112.015 1105 33.2415
112.132 1080 32.8634
112.248 913 30.2159
112.365 886 29.7658
112.482 906 30.0998
112.599 921 30.348
112.716 1007 31.7333
112.832 1028 32.0624
112.949 1110 33.3167
113.066 1089 33
113.183 1059 32.5423
113.3 1041 32.2645
113.417 1009 31.7648
113.534 978 31.273
113.652 911 30.1828
113.769 946 30.7571
113.886 983 31.3528
114.003 993 31.5119
114.12 1138 33.7343
114.238 1210 34.7851
114.355 1299 36.0416
114.472 1211 34.7994
114.589 1326 36.4143
114.707 1353 36.7831
114.824 1344 36.6606
114.942 1309 36.1801
115.059 1402 37.4433
115.176 1288 35.8887
115.294 1223 34.9714
115.411 1219 34.9142
115.529 1106 33.2566
115.646 1102 33.1964
115.764 1038 32.218
115.881 1003 31.6702
115.999 945 30.7409
116.116 979 31.289
116.234 1067 32.665
116.351 1084 32.9242
116.469 1126 33.5559
116.586 1150 33.9116
116.704 1141 33.7787
116.821 1053 32.45
116.939 1006 31.7175
117.056 1027 32.0468
117.174 974 31.209
117.291 1056 32.4962
117.409 1067 32.665
117.526 1091 33.0303
117.644 1161 34.0735
117.761 1248 35.327
117.879 1333 36.5103
117.996 1414 37.6032
118.114 1352 36.7696
118.231 1457 38.1707
118.349 1419 37.6696
118.466 1429 37.8021
118.584 1426 37.7624
118.701 1441 37.9605
118.819 1391 37.2961
118.936 1337 36.565
119.053 1282 35.805
119.171 1170 34.2053
119.288 1123 33.5112
119.405 1066 32.6497
119.523 952 30.8545
119.64 991 31.4802
119.757 995 31.5436
119.875 1055 32.4808
119.992 1079 32.8481
120.109 1132 33.6452
120.226 1048 32.3728
120.343 1133 33.6601
120.46 1086 32.9545
120.578 1045 32.3265
120.695 1054 32.4654
120.812 1008 31.749
120.929 979 31.289
121.046 1083 32.909
121.163 1081 32.8786
121.279 1128 33.5857
121.396 1270 35.6371
121.513 1304 36.1109
121.63 1324 36.3868
121.747 1412 37.5766
121.863 1368 36.9865
121.98 1432 37.8418
122.097 1424 37.7359
122.213 1321 36.3456
122.33 1397 37.3765
122.446 1363 36.9188
122.563 1258 35.4683
122.679 1318 36.3043
122.795 1186 34.4384
122.912 1111 33.3317
123.028 1113 33.3617
123.144 1043 32.2955
123.26 1005 31.7017
123.377 0 1
123.493 0 1
123.609 0 1
123.725 0 1
123.84 0 1
123.956 0 1
124.072 0 1
124.188 0 1
124.303 0 1
124.419 0 1
126.852 0 1
126.968 0 1
127.083 0 1
127.199 0 1
127.315 0 1
127.431 0 1
127.547 0 1
127.663 0 1
127.779 0 1
127.895 0 1
128.011 0 1
128.127 0 1
128.243 0 1
128.359 1216 34.8712
128.476 1039 32.2335
128.592 1132 33.6452
128.708 1198 34.6121
128.825 1168 34.176
128.941 1298 36.0278
129.058 1193 34.5398
129.174 1271 35.6511
129.291 1218 34.8999
129.408 1132 33.6452
129.524 1162 34.0881
129.641 1172 34.2345
129.758 1125 33.541
129.875 1145 33.8378
129.992 1216 34.8712
130.108 1219 34.9142
130.225 1235 35.1426
130.342 1337 36.565
130.459 1376 37.0945
130.576 1457 38.1707
130.693 1397 37.3765
130.81 1434 37.8682
130.928 1521 39
131.045 1412 37.5766
131.162 1441 37.9605
131.279 1453 38.1182
131.396 1449 38.0657
131.513 1375 37.081
131.631 1357 36.8375
131.748 1254 35.4119
131.865 1262 35.5246
131.983 1173 34.2491
132.1 1165 34.1321
132.217 1158 34.0294
132.335 1229 35.0571
132.452 1254 35.4119
132.57 1289 35.9026
132.687 1282 35.805
132.804 1311 36.2077
132.922 1173 34.2491
133.039 1210 34.7851
133.157 1196 34.5832
133.274 1106 33.2566
133.392 1095 33.0908
133.509 1174 34.2637
133.627 1133 33.6601
133.744 1262 35.5246
133.862 1288 35.8887
133.979 1384 37.2022
134.097 1407 37.51
134.214 1434 37.8682
134.332 1508 38.833
134.449 1441 37.9605
134.567 1412 37.5766
134.684 1468 38.3145
134.802 1459 38.1969
134.919 1500 38.7298
135.037 1411 37.5633
135.154 1349 36.7287
135.272 1337 36.565
135.389 1220 34.9285
135.507 1153 33.9559
135.624 1167 34.1614
135.742 1193 34.5398
135.859 1196 34.5832
135.977 1241 35.2278
136.094 1300 36.0555
136.211 1230 35.0714
136.329 1203 34.6843
136.446 1183 34.3948
136.564 1255 35.426
136.681 1230 35.0714
136.798 1179 34.3366
136.915 1182 34.3802
137.033 1146 33.8526
137.15 1144 33.8231
137.267 1144 33.8231
137.384 1227 35.0286
137.502 1296 36
137.619 1355 36.8103
137.736 1451 38.092
137.853 1367 36.973
137.97 1363 36.9188
138.087 1449 38.0657
138.204 1417 37.6431
138.321 1422 37.7094
138.438 1393 37.3229
138.555 1468 38.3145
138.672 1386 37.229
138.788 1392 37.3095
138.905 1356 36.8239
139.022 1335 36.5377
139.139 1233 35.1141
139.255 1216 34.8712
139.372 1183 34.3948
139.488 1263 35.5387
139.605 1322 36.3593
139.721 1278 35.7491
139.838 1265 35.5668
139.954 1273 35.6791
140.071 1218 34.8999
140.187 1303 36.0971
140.303 1190 34.4964
140.419 1169 34.1906
140.535 1167 34.1614
140.652 1096 33.1059
140.768 0 1
140.884 0 1
141 0 1
141.115 0 1
141.231 0 1
141.347 0 1
141.463 0 1
141.578 0 1
141.694 0 1
144.104 0 1
144.219 0 1
144.335 0 1
144.45 0 1
144.566 0 1
144.682 0 1
144.798 0 1
144.914 0 1
145.03 0 1
145.146 899 29.9833
145.262 946 30.7571
145.378 1018 31.9061
145.494 953 30.8707
145.61 994 31.5278
145.726 958 30.9516
145.842 940 30.6594
145.959 879 29.6479
146.075 955 30.9031
146.192 977 31.257
146.308 1025 32.0156
146.425 1044 32.311
146.541 1080 32.8634
146.658 1168 34.176
146.774 1110 33.3167
146.891 1090 33.0151
147.008 1115 33.3916
147.125 1124 33.5261
147.241 1163 34.1028
147.358 1115 33.3916
147.475 1130 33.6155
147.592 1159 34.0441
147.709 1163 34.1028
147.826 1057 32.5115
147.943 1087 32.9697
148.06 1009 31.7648
148.177 951 30.8383
148.294 984 31.3688
148.411 1057 32.5115
148.528 1039 32.2335
148.645 1014 31.8434
148.762 1080 32.8634
148.88 1084 32.9242
148.997 992 31.496
149.114 995 31.5436
149.231 1054 32.4654
149.349 1029 32.078
149.466 1012 31.8119
149.583 969 31.1288
149.701 968 31.1127
149.818 980 31.305
149.935 1017 31.8904
150.053 1034 32.1559
150.17 1079 32.8481
150.287 1119 33.4515
150.405 1077 32.8177
150.522 1197 34.5977
150.64 1128 33.5857
150.757 1235 35.1426
150.875 1169 34.1906
150.992 1231 35.0856
151.11 1198 34.6121
151.227 1208 34.7563
151.344 1182 34.3802
151.462 1138 33.7343
151.579 1110 33.3167
151.697 1060 32.5576
151.814 1052 32.4345
151.932 1019 31.9218
152.049 1103 33.2114
152.167 1146 33.8526
152.284 1172 34.2345
152.402 1162 34.0881
152.519 1074 32.7719
152.636 1177 34.3074
152.754 1116 33.4066
152.871 1090 33.0151
152.989 1141 33.7787
153.106 992 31.496
153.223 1030 32.0936
153.341 1094 33.0757
153.458 1075 32.7872
153.575 1101 33.1813
153.693 1080 32.8634
153.81 1176 34.2929
153.927 1154 33.9706
154.044 1210 34.7851
154.162 1200 34.641
154.279 1210 34.7851
154.396 1231 35.0856
154.513 1247 35.3129
154.63 1346 36.6879
154.747 1362 36.9053
154.864 1278 35.7491
154.981 1327 36.428
155.098 1221 34.9428
155.215 1236 35.1568
155.332 1202 34.6699
155.449 1138 33.7343
155.566 1227 35.0286
155.683 1223 34.9714
155.8 1288 35.8887
155.917 1270 35.6371
156.033 1253 35.3977
156.15 0 1
156.267 0 1
156.383 0 1
156.5 0 1
156.617 0 1
156.733 0 1
156.85 0 1
156.966 0 1
157.082 0 1
157.199 0 1
157.315 0 1
157.431 0 1
157.547 0 1
157.664 0 1
157.78 0 1
157.896 0 1
158.012 0 1
158.128 0 1
158.244 0 1
158.359 0 1
158.475 0 1
158.591 0 1
158.706 0 1
