
6.15755 0 1
6.2731 0 1
6.3887 0 1
6.50437 0 1
6.62009 0 1
6.73587 0 1
6.8517 0 1
6.96759 0 1
7.08353 0 1
7.19952 0 1
7.31557 0 1
7.43166 0 1
7.54781 0 1
7.664 0 1
7.78024 0 1
7.89653 0 1
8.01286 0 1
8.12924 0 1
8.24567 0 1
8.36213 0 1
8.47864 0 1
8.59519 0 1
8.71178 0 1
8.82841 0 1
8.94508 0 1
9.06179 0 1
9.17853 0 1
9.29531 0 1
9.41212 0 1
9.52897 0 1
9.64584 0 1
9.76276 0 1
9.8797 0 1
9.99667 0 1
10.1137 0 1
10.2307 0 1
10.3478 0 1
10.4648 0 1
10.5819 0 1
10.6991 0 1
10.8162 0 1
10.9334 0 1
11.0506 0 1
11.1678 0 1
11.285 0 1
11.4023 0 1
11.5196 0 1
11.6369 0 1
11.7542 0 1
11.8715 0 1
11.9888 0 1
12.1062 0 1
12.2235 0 1
12.3409 0 1
12.4582 0 1
12.5756 0 1
12.693 0 1
12.8104 0 1
12.9278 0 1
13.0452 0 1
13.1626 0 1
13.28 0 1
13.3974 0 1
13.5149 0 1
13.6323 0 1
13.7497 0 1
13.8671 0 1
13.9845 0 1
14.1019 0 1
14.2193 0 1
14.3367 0 1
14.4541 0 1
14.5714 0 1
14.6888 0 1
14.8062 0 1
14.9235 0 1
15.0408 0 0
15.1581 0 0
15.2755 0 0
15.3927 0 0
15.51 0 0
15.6273 0 0
15.7445 0 0
15.8617 0 0
15.9789 0 0
16.0961 0 0
16.2132 0 0
16.3304 0 0
16.4475 0 0
16.5646 0 0
16.6816 0 0
16.7986 0 0
16.9156 0 0
17.0326 0 0
17.1496 0 0
17.2665 0 0
17.3833 0 0
17.5002 0 0
17.617 0 0
17.7338 0 0
17.8505 0 0
17.9672 0 0
18.0839 0 0
18.2005 0 0
18.3171 0 0
18.4337 0 0
18.5502 0 0
18.6666 0 0
18.7831 0 0
18.8994 0 0
19.0158 0 0
19.1321 0 0
19.2483 0 0
19.3645 0 0
19.4806 0 0
19.5967 0 0
19.7128 0 0
19.8288 0 0
19.9447 0 0
20.0606 0 1
20.1764 0 1
20.2922 0 1
20.4079 0 1
20.5236 0 1
20.6392 0 1
20.7548 0 1
20.8702 0 1
23.3078 0 1
23.4233 0 1
23.539 0 1
23.6547 0 1
23.7704 0 1
23.8862 0 1
24.0021 0 1
24.118 0 1
24.234 0 1
24.35 0 1
24.4661 597 24.4336
24.5822 610 24.6982
24.6984 611 24.7184
24.8146 612 24.7386
24.9309 547 23.388
25.0472 642 25.3377
25.1636 643 25.3574
25.28 686 26.1916
25.3965 679 26.0576
25.513 671 25.9037
25.6296 744 27.2764
25.7462 667 25.8263
25.8628 700 26.4575
25.9795 654 25.5734
26.0962 681 26.096
26.213 666 25.807
26.3298 684 26.1534
26.4466 663 25.7488
26.5635 668 25.8457
26.6804 638 25.2587
26.7973 597 24.4336
26.9143 603 24.5561
27.0313 613 24.7588
27.1483 563 23.7276
27.2653 609 24.6779
27.3824 596 24.4131
27.4996 610 24.6982
27.6167 632 25.1396
27.7339 578 24.0416
27.8511 609 24.6779
27.9683 579 24.0624
28.0855 586 24.2074
28.2028 598 24.454
28.3201 582 24.1247
28.4374 641 25.318
28.5547 593 24.3516
28.6721 637 25.2389
28.7894 602 24.5357
28.9068 629 25.0799
29.0242 645 25.3969
29.1416 591 24.3105
29.259 690 26.2679
29.3764 657 25.632
29.4939 645 25.3969
29.6113 688 26.2298
29.7288 637 25.2389
29.8463 621 24.9199
29.9638 664 25.7682
30.0812 614 24.779
30.1987 653 25.5539
30.3162 568 23.8328
30.4337 577 24.0208
30.5512 545 23.3452
30.6687 507 22.5167
30.7862 570 23.8747
30.9037 584 24.1661
31.0212 571 23.8956
31.1387 597 24.4336
31.2562 579 24.0624
31.3737 614 24.779
31.4912 548 23.4094
31.6087 552 23.4947
31.7262 560 23.6643
31.8436 542 23.2809
31.9611 619 24.8797
32.0785 592 24.3311
32.1959 618 24.8596
32.3134 606 24.6171
32.4308 618 24.8596
32.5482 627 25.04
32.6655 639 25.2784
32.7829 650 25.4951
32.9002 591 24.3105
33.0176 606 24.6171
33.1349 677 26.0192
33.2522 619 24.8797
33.3694 608 24.6577
33.4867 581 24.1039
33.6039 666 25.807
33.7211 623 24.96
33.8383 605 24.5967
33.9554 574 23.9583
34.0725 550 23.4521
34.1896 524 22.891
34.3067 515 22.6936
34.4237 527 22.9565
34.5407 566 23.7908
34.6577 542 23.2809
34.7746 571 23.8956
34.8915 579 24.0624
35.0084 535 23.1301
35.1252 532 23.0651
35.242 554 23.5372
35.3587 549 23.4307
35.4755 484 22
35.5921 601 24.5153
35.7088 537 23.1733
35.8254 606 24.6171
35.9419 578 24.0416
36.0584 596 24.4131
36.1749 648 25.4558
36.2913 631 25.1197
36.4077 618 24.8596
36.524 591 24.3105
36.6403 567 23.8118
36.7565 595 24.3926
36.8727 608 24.6577
36.9889 620 24.8998
37.1049 550 23.4521
37.221 0 1
37.3369 0 1
37.4529 0 1
37.5687 0 1
37.6845 0 1
37.8003 0 1
37.916 0 1
38.0316 0 1
38.1472 0 1
40.5851 0 1
40.7008 0 1
40.8164 0 1
40.9322 0 1
41.048 0 1
41.1639 0 1
41.2798 0 1
41.3958 0 1
41.5118 0 1
41.6279 0 1
41.744 501 22.383
41.8602 531 23.0434
41.9765 493 22.2036
42.0928 518 22.7596
42.2091 501 22.383
42.3255 507 22.5167
42.4419 505 22.4722
42.5584 523 22.8692
42.675 520 22.8035
42.7915 493 22.2036
42.9081 471 21.7025
43.0248 469 21.6564
43.1415 448 21.166
43.2582 468 21.6333
43.375 475 21.7945
43.4918 464 21.5407
43.6087 477 21.8403
43.7256 450 21.2132
43.8425 472 21.7256
43.9595 415 20.3715
44.0765 438 20.9284
44.1935 459 21.4243
44.3106 438 20.9284
44.4277 471 21.7025
44.5448 493 22.2036
44.6619 472 21.7256
44.7791 446 21.1187
44.8963 481 21.9317
45.0136 456 21.3542
45.1308 429 20.7123
45.2481 429 20.7123
45.3654 470 21.6795
45.4827 404 20.0998
45.6001 442 21.0238
45.7174 413 20.3224
45.8348 437 20.9045
45.9522 413 20.3224
46.0697 424 20.5913
46.1871 405 20.1246
46.3046 362 19.0263
46.422 404 20.0998
46.5395 384 19.5959
46.657 392 19.799
46.7745 313 17.6918
46.892 326 18.0555
47.0096 378 19.4422
47.1271 355 18.8414
47.2446 380 19.4936
47.3622 368 19.1833
47.4797 309 17.5784
47.5973 330 18.1659
47.7149 306 17.4929
47.8324 327 18.0831
47.95 329 18.1384
48.0675 344 18.5472
48.1851 322 17.9444
48.3027 326 18.0555
48.4202 370 19.2354
48.5378 342 18.4932
48.6554 317 17.8045
48.7729 365 19.105
48.8904 330 18.1659
49.008 347 18.6279
49.1255 314 17.72
49.243 378 19.4422
49.3605 365 19.105
49.478 336 18.3303
49.5955 348 18.6548
49.713 334 18.2757
49.8304 363 19.0526
49.9479 343 18.5203
50.0653 334 18.2757
50.1827 324 18
50.3001 295 17.1756
50.4175 281 16.7631
50.5348 334 18.2757
50.6521 331 18.1934
50.7694 349 18.6815
50.8867 340 18.4391
51.004 381 19.5192
51.1212 369 19.2094
51.2384 362 19.0263
51.3556 389 19.7231
51.4727 367 19.1572
51.5899 384 19.5959
51.707 402 20.0499
51.824 430 20.7364
51.9411 427 20.664
52.0581 412 20.2978
52.175 462 21.4942
52.2919 431 20.7605
52.4088 410 20.2485
52.5257 451 21.2368
52.6425 441 21
52.7593 431 20.7605
52.876 492 22.1811
52.9927 430 20.7364
53.1094 469 21.6564
53.226 497 22.2935
53.3426 437 20.9045
53.4591 500 22.3607
53.5756 487 22.0681
53.692 466 21.587
53.8084 442 21.0238
53.9248 414 20.347
54.0411 382 19.5448
54.1573 405 20.1246
54.2735 0 1
54.3896 0 1
54.5057 0 1
54.6217 0 1
54.7377 0 1
54.8537 0 1
54.9695 0 1
55.0853 0 1
55.2011 0 1
55.3168 0 1
55.4324 0 1
57.824 0 1
57.9396 0 1
58.0553 0 1
58.1711 0 1
58.2869 0 1
58.4028 0 1
58.5187 0 1
58.6347 0 1
58.7508 0 1
58.8669 0 1
58.983 493 22.2036
59.0992 459 21.4243
59.2155 415 20.3715
59.3318 425 20.6155
59.4482 475 21.7945
59.5646 449 21.1896
59.681 482 21.9545
59.7975 470 21.6795
59.9141 488 22.0907
60.0306 496 22.2711
60.1473 485 22.0227
60.2639 477 21.8403
60.3807 508 22.5389
60.4974 486 22.0454
60.6142 489 22.1133
60.731 489 22.1133
60.8479 481 21.9317
60.9648 493 22.2036
61.0818 505 22.4722
61.1987 481 21.9317
61.3158 488 22.0907
61.4328 481 21.9317
61.5499 443 21.0476
61.667 483 21.9773
61.7841 448 21.166
61.9013 461 21.4709
62.0185 477 21.8403
62.1357 435 20.8567
62.253 479 21.8861
62.3702 468 21.6333
62.4875 445 21.095
62.6049 426 20.6398
62.7222 404 20.0998
62.8396 410 20.2485
62.9569 426 20.6398
63.0743 416 20.3961
63.1918 454 21.3073
63.3092 409 20.2237
63.4267 417 20.4206
63.5441 425 20.6155
63.6616 424 20.5913
63.7791 439 20.9523
63.8966 437 20.9045
64.0142 411 20.2731
64.1317 440 20.9762
64.2492 433 20.8087
64.3668 467 21.6102
64.4843 365 19.105
64.6019 410 20.2485
64.7195 398 19.9499
64.837 425 20.6155
64.9546 425 20.6155
65.0722 412 20.2978
65.1898 421 20.5183
65.3074 433 20.8087
65.4249 384 19.5959
65.5425 383 19.5704
65.6601 413 20.3224
65.7777 419 20.4695
65.8952 380 19.4936
66.0128 384 19.5959
66.1304 388 19.6977
66.2479 335 18.303
66.3655 322 17.9444
66.483 340 18.4391
66.6005 377 19.4165
66.718 357 18.8944
66.8355 331 18.1934
66.953 363 19.0526
67.0705 404 20.0998
67.1879 422 20.5426
67.3054 385 19.6214
67.4228 398 19.9499
67.5402 371 19.2614
67.6576 405 20.1246
67.7749 382 19.5448
67.8923 416 20.3961
68.0096 371 19.2614
68.1269 393 19.8242
68.2442 357 18.8944
68.3614 374 19.3391
68.4787 389 19.7231
68.5958 399 19.975
68.713 403 20.0749
68.8302 403 20.0749
68.9473 383 19.5704
69.0643 372 19.2873
69.1814 375 19.3649
69.2984 376 19.3907
69.4154 359 18.9473
69.5323 360 18.9737
69.6492 367 19.1572
69.7661 373 19.3132
69.8829 329 18.1384
69.9997 345 18.5742
70.1165 320 17.8885
70.2332 332 18.2209
70.3499 319 17.8606
70.4665 344 18.5472
70.5831 355 18.8414
70.6996 350 18.7083
70.8161 346 18.6011
70.9326 318 17.8326
71.049 350 18.7083
71.1653 354 18.8149
71.2817 304 17.4356
71.3979 316 17.7764
71.5141 325 18.0278
71.6303 292 17.088
71.7464 301 17.3494
71.8624 0 1
71.9784 0 1
72.0944 0 1
72.2102 0 1
72.3261 0 1
72.4418 0 1
72.5575 0 1
72.6732 0 1
75.1054 0 1
75.2209 0 1
75.3365 0 1
75.4521 0 1
75.5678 0 1
75.6835 0 1
75.7993 0 1
75.9151 0 1
76.031 0 1
76.147 276 16.6132
76.263 264 16.2481
76.3791 264 16.2481
76.4952 264 16.2481
76.6113 300 17.3205
76.7276 266 16.3095
76.8438 275 16.5831
76.9601 294 17.1464
77.0765 244 15.6205
77.1929 257 16.0312
77.3093 216 14.6969
77.4258 263 16.2173
77.5423 243 15.5885
77.6589 245 15.6525
77.7755 270 16.4317
77.8921 247 15.7162
78.0088 234 15.2971
78.1256 222 14.8997
78.2423 224 14.9666
78.3591 210 14.4914
78.4759 233 15.2643
78.5928 240 15.4919
78.7097 236 15.3623
78.8266 212 14.5602
78.9436 197 14.0357
79.0606 174 13.1909
79.1776 146 12.083
79.2946 176 13.2665
79.4117 185 13.6015
79.5288 193 13.8924
79.6459 185 13.6015
79.7631 188 13.7113
79.8802 214 14.6287
79.9974 187 13.6748
80.1147 187 13.6748
80.2319 160 12.6491
80.3491 162 12.7279
80.4664 160 12.6491
80.5837 157 12.53
80.701 155 12.4499
80.8183 161 12.6886
80.9357 163 12.7671
81.053 161 12.6886
81.1704 142 11.9164
81.2877 135 11.619
81.4051 124 11.1355
81.5225 142 11.9164
81.6399 131 11.4455
81.7573 118 10.8628
81.8747 100 10
81.9922 113 10.6301
82.1096 126 11.225
82.227 120 10.9545
82.3444 114 10.6771
82.4619 106 10.2956
82.5793 112 10.583
82.6967 102 10.0995
82.8142 93 9.64365
82.9316 75 8.66025
83.049 91 9.53939
83.1664 103 10.1489
83.2838 79 8.88819
83.4012 70 8.3666
83.5186 70 8.3666
83.636 82 9.05539
83.7534 70 8.3666
83.8708 65 8.06226
83.9881 55 7.4162
84.1055 69 8.30662
84.2228 63 7.93725
84.3401 58 7.61577
84.4575 56 7.48331
84.5747 59 7.68115
84.692 45 6.7082
84.8093 61 7.81025
84.9265 44 6.63325
85.0437 40 6.32456
85.1609 38 6.16441
85.2781 50 7.07107
85.3952 43 6.55744
85.5123 48 6.9282
85.6294 47 6.85565
85.7465 49 7
85.8636 45 6.7082
85.9806 48 6.9282
86.0976 52 7.2111
86.2145 47 6.85565
86.3315 44 6.63325
86.4484 57 7.54983
86.5652 53 7.28011
86.682 79 8.88819
86.7988 55 7.4162
86.9156 64 8
87.0323 78 8.83176
87.149 71 8.42615
87.2657 71 8.42615
87.3823 82 9.05539
87.4988 76 8.7178
87.6154 81 9
87.7318 82 9.05539
87.8483 83 9.11043
87.9647 101 10.0499
88.081 77 8.77496
88.1973 115 10.7238
88.3136 87 9.32738
88.4298 106 10.2956
88.546 108 10.3923
88.6621 107 10.3441
88.7781 118 10.8628
88.8942 0 1
89.0101 0 1
89.126 0 1
89.2419 0 1
89.3577 0 1
89.4734 0 1
89.5891 0 1
89.7047 0 1
89.8203 0 1
89.9358 0 1
92.3269 0 1
92.4424 0 1
92.558 0 1
92.6736 0 1
92.7893 0 1
92.905 0 1
93.0208 0 1
93.1366 0 1
93.2525 0 1
93.3685 0 1
93.4845 0 1
93.6005 221 14.8661
93.7167 207 14.3875
93.8328 163 12.7671
93.949 184 13.5647
94.0653 176 13.2665
94.1816 159 12.6095
94.2979 175 13.2288
94.4143 184 13.5647
94.5307 164 12.8062
94.6472 156 12.49
94.7637 165 12.8452
94.8803 150 12.2474
94.9969 171 13.0767
95.1135 143 11.9583
95.2302 145 12.0416
95.3469 123 11.0905
95.4637 95 9.74679
95.5805 107 10.3441
95.6973 132 11.4891
95.8142 153 12.3693
95.9311 149 12.2066
96.048 190 13.784
96.1649 159 12.6095
96.2819 172 13.1149
96.3989 170 13.0384
96.516 194 13.9284
96.633 184 13.5647
96.7501 201 14.1774
96.8673 189 13.7477
96.9844 202 14.2127
97.1016 209 14.4568
97.2188 209 14.4568
97.336 205 14.3178
97.4532 226 15.0333
97.5704 220 14.8324
97.6877 234 15.2971
97.805 245 15.6525
97.9223 245 15.6525
98.0396 216 14.6969
98.1569 251 15.843
98.2743 256 16
98.3916 258 16.0624
98.509 263 16.2173
98.6264 266 16.3095
98.7438 265 16.2788
98.8612 296 17.2047
98.9786 235 15.3297
99.096 204 14.2829
99.2134 164 12.8062
99.3308 259 16.0935
99.4482 318 17.8326
99.5656 326 18.0555
99.6831 311 17.6352
99.8005 311 17.6352
99.9179 305 17.4642
100.035 320 17.8885
100.153 320 17.8885
100.27 399 19.975
100.388 355 18.8414
100.505 387 19.6723
100.622 361 19
100.74 346 18.6011
100.857 304 17.4356
100.975 377 19.4165
101.092 318 17.8326
101.209 374 19.3391
101.327 356 18.868
101.444 375 19.3649
101.561 418 20.445
101.679 365 19.105
101.796 402 20.0499
101.913 388 19.6977
102.03 378 19.4422
102.148 372 19.2873
102.265 413 20.3224
102.382 383 19.5704
102.499 336 18.3303
102.616 300 17.3205
102.733 274 16.5529
102.851 287 16.9411
102.968 385 19.6214
103.085 396 19.8997
103.202 393 19.8242
103.319 411 20.2731
103.436 382 19.5448
103.552 395 19.8746
103.669 414 20.347
103.786 405 20.1246
103.903 385 19.6214
104.02 421 20.5183
104.137 358 18.9209
104.253 403 20.0749
104.37 417 20.4206
104.487 470 21.6795
104.603 426 20.6398
104.72 428 20.6882
104.836 407 20.1742
104.953 413 20.3224
105.069 420 20.4939
105.186 428 20.6882
105.302 456 21.3542
105.418 449 21.1896
105.535 431 20.7605
105.651 455 21.3307
105.767 428 20.6882
105.883 377 19.4165
105.999 351 18.735
106.115 0 1
106.231 0 1
106.347 0 1
106.463 0 1
106.579 0 1
106.694 0 1
106.81 0 1
106.926 0 1
107.041 0 1
107.157 0 1
109.576 0 1
109.692 0 1
109.807 0 1
109.923 0 1
110.039 0 1
110.155 0 1
110.27 0 1
110.386 0 1
110.502 0 1
110.618 321 17.9165
110.735 323 17.9722
110.851 358 18.9209
110.967 313 17.6918
111.083 286 16.9115
111.199 260 16.1245
111.316 271 16.4621
111.432 270 16.4317
111.549 307 17.5214
111.665 339 18.412
111.782 325 18.0278
111.898 292 17.088
112.015 306 17.4929
112.132 314 17.72
112.248 291 17.0587
112.365 289 17
112.482 272 16.4924
112.599 305 17.4642
112.716 283 16.8226
112.832 262 16.1864
112.949 275 16.5831
113.066 271 16.4621
113.183 277 16.6433
113.3 251 15.843
113.417 268 16.3707
113.534 278 16.6733
113.652 243 15.5885
113.769 271 16.4621
113.886 249 15.7797
114.003 229 15.1327
114.12 256 16
114.238 232 15.2315
114.355 246 15.6844
114.472 232 15.2315
114.589 220 14.8324
114.707 227 15.0665
114.824 203 14.2478
114.942 204 14.2829
115.059 203 14.2478
115.176 244 15.6205
115.294 253 15.906
115.411 244 15.6205
115.529 208 14.4222
115.646 231 15.1987
115.764 233 15.2643
115.881 229 15.1327
115.999 222 14.8997
116.116 238 15.4272
116.234 213 14.5945
116.351 215 14.6629
116.469 213 14.5945
116.586 228 15.0997
116.704 207 14.3875
116.821 221 14.8661
116.939 220 14.8324
117.056 243 15.5885
117.174 215 14.6629
117.291 211 14.5258
117.409 231 15.1987
117.526 231 15.1987
117.644 236 15.3623
117.761 210 14.4914
117.879 230 15.1658
117.996 183 13.5277
118.114 191 13.8203
118.231 173 13.1529
118.349 214 14.6287
118.466 233 15.2643
118.584 215 14.6629
118.701 230 15.1658
118.819 248 15.748
118.936 231 15.1987
119.053 248 15.748
119.171 240 15.4919
119.288 192 13.8564
119.405 246 15.6844
119.523 216 14.6969
119.64 236 15.3623
119.757 247 15.7162
119.875 246 15.6844
119.992 226 15.0333
120.109 217 14.7309
120.226 233 15.2643
120.343 261 16.1555
120.46 220 14.8324
120.578 223 14.9332
120.695 233 15.2643
120.812 233 15.2643
120.929 240 15.4919
121.046 225 15
121.163 262 16.1864
121.279 229 15.1327
121.396 234 15.2971
121.513 230 15.1658
121.63 197 14.0357
121.747 177 13.3041
121.863 186 13.6382
121.98 171 13.0767
122.097 220 14.8324
122.213 211 14.5258
122.33 269 16.4012
122.446 212 14.5602
122.563 219 14.7986
122.679 233 15.2643
122.795 267 16.3401
122.912 247 15.7162
123.028 249 15.7797
123.144 266 16.3095
123.26 266 16.3095
123.377 0 1
123.493 0 1
123.609 0 1
123.725 0 1
123.84 0 1
123.956 0 1
124.072 0 1
124.188 0 1
124.303 0 1
124.419 0 1
126.852 0 1
126.968 0 1
127.083 0 1
127.199 0 1
127.315 0 1
127.431 0 1
127.547 0 1
127.663 0 1
127.779 0 1
127.895 0 1
128.011 0 1
128.127 0 1
128.243 0 1
128.359 320 17.8885
128.476 283 16.8226
128.592 344 18.5472
128.708 300 17.3205
128.825 379 19.4679
128.941 343 18.5203
129.058 298 17.2627
129.174 309 17.5784
129.291 317 17.8045
129.408 329 18.1384
129.524 311 17.6352
129.641 333 18.2483
129.758 329 18.1384
129.875 350 18.7083
129.992 327 18.0831
130.108 327 18.0831
130.225 339 18.412
130.342 295 17.1756
130.459 285 16.8819
130.576 261 16.1555
130.693 249 15.7797
130.81 212 14.5602
130.928 223 14.9332
131.045 280 16.7332
131.162 374 19.3391
131.279 380 19.4936
131.396 316 17.7764
131.513 365 19.105
131.631 308 17.5499
131.748 403 20.0749
131.865 340 18.4391
131.983 344 18.5472
132.1 380 19.4936
132.217 380 19.4936
132.335 382 19.5448
132.452 375 19.3649
132.57 350 18.7083
132.687 341 18.4662
132.804 378 19.4422
132.922 373 19.3132
133.039 359 18.9473
133.157 396 19.8997
133.274 387 19.6723
133.392 393 19.8242
133.509 370 19.2354
133.627 341 18.4662
133.744 384 19.5959
133.862 356 18.868
133.979 330 18.1659
134.097 294 17.1464
134.214 278 16.6733
134.332 279 16.7033
134.449 263 16.2173
134.567 276 16.6132
134.684 296 17.2047
134.802 355 18.8414
134.919 380 19.4936
135.037 344 18.5472
135.154 407 20.1742
135.272 394 19.8494
135.389 405 20.1246
135.507 411 20.2731
135.624 390 19.7484
135.742 398 19.9499
135.859 399 19.975
135.977 396 19.8997
136.094 393 19.8242
136.211 415 20.3715
136.329 422 20.5426
136.446 422 20.5426
136.564 416 20.3961
136.681 367 19.1572
136.798 395 19.8746
136.915 431 20.7605
137.033 453 21.2838
137.15 396 19.8997
137.267 379 19.4679
137.384 388 19.6977
137.502 372 19.2873
137.619 340 18.4391
137.736 337 18.3576
137.853 317 17.8045
137.97 278 16.6733
138.087 303 17.4069
138.204 311 17.6352
138.321 335 18.303
138.438 356 18.868
138.555 450 21.2132
138.672 416 20.3961
138.788 450 21.2132
138.905 385 19.6214
139.022 422 20.5426
139.139 460 21.4476
139.255 452 21.2603
139.372 445 21.095
139.488 420 20.4939
139.605 472 21.7256
139.721 473 21.7486
139.838 442 21.0238
139.954 396 19.8997
140.071 448 21.166
140.187 426 20.6398
140.303 406 20.1494
140.419 450 21.2132
140.535 478 21.8632
140.652 465 21.5639
140.768 0 1
140.884 0 1
141 0 1
141.115 0 1
141.231 0 1
141.347 0 1
141.463 0 1
141.578 0 1
141.694 0 1
144.104 0 1
144.219 0 1
144.335 0 1
144.45 0 1
144.566 0 1
144.682 0 1
144.798 0 1
144.914 0 1
145.03 0 1
145.146 428 20.6882
145.262 407 20.1742
145.378 422 20.5426
145.494 442 21.0238
145.61 442 21.0238
145.726 380 19.4936
145.842 390 19.7484
145.959 414 20.347
146.075 389 19.7231
146.192 388 19.6977
146.308 360 18.9737
146.425 352 18.7617
146.541 327 18.0831
146.658 347 18.6279
146.774 342 18.4932
146.891 331 18.1934
147.008 371 19.2614
147.125 388 19.6977
147.241 410 20.2485
147.358 436 20.8806
147.475 399 19.975
147.592 388 19.6977
147.709 420 20.4939
147.826 427 20.664
147.943 410 20.2485
148.06 416 20.3961
148.177 397 19.9249
148.294 413 20.3224
148.411 359 18.9473
148.528 399 19.975
148.645 415 20.3715
148.762 369 19.2094
148.88 427 20.664
148.997 385 19.6214
149.114 413 20.3224
149.231 423 20.567
149.349 397 19.9249
149.466 382 19.5448
149.583 376 19.3907
149.701 352 18.7617
149.818 347 18.6279
149.935 331 18.1934
150.053 351 18.735
150.17 341 18.4662
150.287 328 18.1108
150.405 361 19
150.522 330 18.1659
150.64 387 19.6723
150.757 372 19.2873
150.875 339 18.412
150.992 401 20.025
151.11 430 20.7364
151.227 421 20.5183
151.344 393 19.8242
151.462 431 20.7605
151.579 478 21.8632
151.697 434 20.8327
151.814 442 21.0238
151.932 420 20.4939
152.049 428 20.6882
152.167 455 21.3307
152.284 442 21.0238
152.402 422 20.5426
152.519 436 20.8806
152.636 429 20.7123
152.754 404 20.0998
152.871 435 20.8567
152.989 425 20.6155
153.106 391 19.7737
153.223 374 19.3391
153.341 416 20.3961
153.458 352 18.7617
153.575 345 18.5742
153.693 414 20.347
153.81 365 19.105
153.927 372 19.2873
154.044 398 19.9499
154.162 381 19.5192
154.279 408 20.199
154.396 433 20.8087
154.513 388 19.6977
154.63 443 21.0476
154.747 445 21.095
154.864 465 21.5639
154.981 500 22.3607
155.098 447 21.1424
155.215 483 21.9773
155.332 483 21.9773
155.449 421 20.5183
155.566 459 21.4243
155.683 486 22.0454
155.8 465 21.5639
155.917 517 22.7376
156.033 446 21.1187
156.15 0 1
156.267 0 1
156.383 0 1
156.5 0 1
156.617 0 1
156.733 0 1
156.85 0 1
156.966 0 1
157.082 0 1
157.199 0 1
157.315 0 1
157.431 0 1
157.547 0 1
157.664 0 1
157.78 0 1
157.896 0 1
158.012 0 1
158.128 0 1
158.244 0 1
158.359 0 1
158.475 0 1
158.591 0 1
158.706 0 1
