
6.15755 0 1
6.2731 0 1
6.3887 0 1
6.50437 0 1
6.62009 0 1
6.73587 0 1
6.8517 0 1
6.96759 0 1
7.08353 0 1
7.19952 0 1
7.31557 0 1
7.43166 0 1
7.54781 0 1
7.664 0 1
7.78024 0 1
7.89653 0 1
8.01286 0 1
8.12924 0 1
8.24567 0 1
8.36213 0 1
8.47864 0 1
8.59519 0 1
8.71178 0 1
8.82841 0 1
8.94508 0 1
9.06179 0 1
9.17853 0 1
9.29531 0 1
9.41212 0 1
9.52897 0 1
9.64584 0 1
9.76276 0 1
9.8797 0 1
9.99667 0 1
10.1137 0 1
10.2307 0 1
10.3478 0 1
10.4648 0 1
10.5819 0 1
10.6991 0 1
10.8162 0 1
10.9334 0 1
11.0506 0 1
11.1678 0 1
11.285 0 1
11.4023 0 1
11.5196 0 1
11.6369 0 1
11.7542 0 1
11.8715 0 1
11.9888 0 1
12.1062 0 1
12.2235 0 1
12.3409 0 1
12.4582 0 1
12.5756 0 1
12.693 0 1
12.8104 0 1
12.9278 0 1
13.0452 0 1
13.1626 0 1
13.28 0 1
13.3974 0 1
13.5149 0 1
13.6323 0 1
13.7497 0 1
13.8671 0 1
13.9845 0 1
14.1019 0 1
14.2193 0 1
14.3367 0 1
14.4541 0 1
14.5714 0 1
14.6888 0 1
14.8062 0 1
14.9235 0 1
15.0408 1701 41.2432
15.1581 1806 42.4971
15.2755 1896 43.5431
15.3927 1958 44.2493
15.51 2005 44.7772
15.6273 1901 43.6005
15.7445 2006 44.7884
15.8617 2000 44.7214
15.9789 1841 42.9069
16.0961 1975 44.441
16.2132 1927 43.8976
16.3304 1932 43.9545
16.4475 1979 44.486
16.5646 2076 45.5631
16.6816 2178 46.669
16.7986 2216 47.0744
16.9156 2423 49.224
17.0326 2336 48.3322
17.1496 2215 47.0638
17.2665 2305 48.0104
17.3833 2348 48.4562
17.5002 2392 48.9081
17.617 2097 45.793
17.7338 2054 45.3211
17.8505 2036 45.1221
17.9672 1939 44.0341
18.0839 1993 44.643
18.2005 2090 45.7165
18.3171 2127 46.1194
18.4337 2207 46.9787
18.5502 2119 46.0326
18.6666 2301 47.9687
18.7831 2230 47.2229
18.8994 2294 47.8957
19.0158 2225 47.1699
19.1321 2245 47.3814
19.2483 2017 44.911
19.3645 1968 44.3621
19.4806 1876 43.3128
19.5967 1750 41.833
19.7128 1706 41.3038
19.8288 1460 38.2099
19.9447 1445 38.0132
20.0606 0 1
20.1764 0 1
20.2922 0 1
20.4079 0 1
20.5236 0 1
20.6392 0 1
20.7548 0 1
20.8702 0 1
23.3078 0 1
23.4233 0 1
23.539 0 1
23.6547 0 1
23.7704 0 1
23.8862 0 1
24.0021 0 1
24.118 0 1
24.234 0 1
24.35 0 1
24.4661 862 29.3598
24.5822 1067 32.665
24.6984 1246 35.2987
24.8146 1280 35.7771
24.9309 1518 38.9615
25.0472 1727 41.5572
25.1636 1831 42.7902
25.28 1971 44.3959
25.3965 2155 46.422
25.513 2203 46.9361
25.6296 2332 48.2908
25.7462 2331 48.2804
25.8628 2477 49.7695
25.9795 2549 50.4876
26.0962 2408 49.0714
26.213 2317 48.1352
26.3298 2271 47.655
26.4466 2134 46.1952
26.5635 2064 45.4313
26.6804 2049 45.2659
26.7973 2068 45.4753
26.9143 2177 46.6583
27.0313 2183 46.7226
27.1483 2257 47.5079
27.2653 2366 48.6415
27.3824 2353 48.5077
27.4996 2323 48.1975
27.6167 2293 47.8853
27.7339 2326 48.2286
27.8511 2162 46.4973
27.9683 2096 45.7821
28.0855 2022 44.9667
28.2028 2008 44.8107
28.3201 2072 45.5192
28.4374 1922 43.8406
28.5547 2067 45.4643
28.6721 2002 44.7437
28.7894 2111 45.9456
28.9068 2229 47.2123
29.0242 2345 48.4252
29.1416 2414 49.1325
29.259 2396 48.949
29.3764 2454 49.5379
29.4939 2326 48.2286
29.6113 2248 47.4131
29.7288 2234 47.2652
29.8463 2090 45.7165
29.9638 1971 44.3959
30.0812 2015 44.8888
30.1987 2006 44.7884
30.3162 2078 45.5851
30.4337 2052 45.299
30.5512 2157 46.4435
30.6687 2168 46.5618
30.7862 2240 47.3286
30.9037 2311 48.0729
31.0212 2291 47.8644
31.1387 2213 47.0425
31.2562 2231 47.2335
31.3737 2186 46.7547
31.4912 2143 46.2925
31.6087 2080 45.607
31.7262 2058 45.3652
31.8436 1933 43.9659
31.9611 1908 43.6807
32.0785 1916 43.7721
32.1959 2045 45.2217
32.3134 2135 46.2061
32.4308 2223 47.1487
32.5482 2226 47.1805
32.6655 2285 47.8017
32.7829 2321 48.1768
32.9002 2304 48
33.0176 2383 48.816
33.1349 2322 48.1871
33.2522 2245 47.3814
33.3694 2124 46.0869
33.4867 1996 44.6766
33.6039 1975 44.441
33.7211 2002 44.7437
33.8383 1875 43.3013
33.9554 2054 45.3211
34.0725 2021 44.9555
34.1896 1989 44.5982
34.3067 2073 45.5302
34.4237 2134 46.1952
34.5407 2154 46.4112
34.6577 2167 46.551
34.7746 2115 45.9891
34.8915 2096 45.7821
35.0084 2139 46.2493
35.1252 2057 45.3542
35.242 1915 43.7607
35.3587 1987 44.5758
35.4755 1876 43.3128
35.5921 1822 42.6849
35.7088 1835 42.8369
35.8254 1863 43.1625
35.9419 1886 43.4281
36.0584 1939 44.0341
36.1749 1920 43.8178
36.2913 2082 45.6289
36.4077 1997 44.6878
36.524 1990 44.6094
36.6403 1935 43.9886
36.7565 1836 42.8486
36.8727 1731 41.6053
36.9889 1660 40.7431
37.1049 1484 38.5227
37.221 0 1
37.3369 0 1
37.4529 0 1
37.5687 0 1
37.6845 0 1
37.8003 0 1
37.916 0 1
38.0316 0 1
38.1472 0 1
40.5851 0 1
40.7008 0 1
40.8164 0 1
40.9322 0 1
41.048 0 1
41.1639 0 1
41.2798 0 1
41.3958 0 1
41.5118 0 1
41.6279 0 1
41.744 1082 32.8938
41.8602 1155 33.9853
41.9765 1234 35.1283
42.0928 1336 36.5513
42.2091 1349 36.7287
42.3255 1271 35.6511
42.4419 1217 34.8855
42.5584 1337 36.565
42.675 1452 38.1051
42.7915 1462 38.2361
42.9081 1608 40.0999
43.0248 1700 41.2311
43.1415 1731 41.6053
43.2582 1757 41.9166
43.375 1844 42.9418
43.4918 1782 42.2137
43.6087 1750 41.833
43.7256 1805 42.4853
43.8425 1739 41.7013
43.9595 1727 41.5572
44.0765 1695 41.1704
44.1935 1698 41.2068
44.3106 1514 38.9102
44.4277 1480 38.4708
44.5448 1428 37.7889
44.6619 1584 39.7995
44.7791 1653 40.6571
44.8963 1838 42.8719
45.0136 1791 42.3202
45.1308 1915 43.7607
45.2481 1844 42.9418
45.3654 1798 42.4028
45.4827 1826 42.7317
45.6001 1836 42.8486
45.7174 1737 41.6773
45.8348 1699 41.2189
45.9522 1555 39.4335
46.0697 1536 39.1918
46.1871 1414 37.6032
46.3046 1482 38.4968
46.422 1598 39.975
46.5395 1691 41.1218
46.657 1688 41.0853
46.7745 1768 42.0476
46.892 1772 42.0951
47.0096 1870 43.2435
47.1271 1893 43.5086
47.2446 1981 44.5084
47.3622 1872 43.2666
47.4797 1761 41.9643
47.5973 1682 41.0122
47.7149 1695 41.1704
47.8324 1652 40.6448
47.95 1608 40.0999
48.0675 1601 40.0125
48.1851 1532 39.1408
48.3027 1573 39.6611
48.4202 1741 41.7253
48.5378 1777 42.1545
48.6554 1814 42.5911
48.7729 1903 43.6234
48.8904 1911 43.715
49.008 1839 42.8836
49.1255 1819 42.6497
49.243 1742 41.7373
49.3605 1554 39.4208
49.478 1501 38.7427
49.5955 1521 39
49.713 1401 37.4299
49.8304 1551 39.3827
49.9479 1538 39.2173
50.0653 1635 40.4351
50.1827 1763 41.9881
50.3001 1816 42.6146
50.4175 1744 41.7612
50.5348 1850 43.0116
50.6521 1761 41.9643
50.7694 1888 43.4511
50.8867 1875 43.3013
51.004 1841 42.9069
51.1212 1855 43.0697
51.2384 1875 43.3013
51.3556 1781 42.2019
51.4727 1691 41.1218
51.5899 1580 39.7492
51.707 1647 40.5832
51.824 1681 41
51.9411 1796 42.3792
52.0581 1999 44.7102
52.175 2114 45.9783
52.2919 2122 46.0652
52.4088 2268 47.6235
52.5257 2344 48.4149
52.6425 2250 47.4342
52.7593 2202 46.9255
52.876 2175 46.6369
52.9927 2102 45.8476
53.1094 1952 44.1814
53.226 1871 43.2551
53.3426 1809 42.5323
53.4591 1793 42.3438
53.5756 1854 43.0581
53.692 1844 42.9418
53.8084 1777 42.1545
53.9248 1845 42.9535
54.0411 1718 41.4488
54.1573 1649 40.6079
54.2735 0 1
54.3896 0 1
54.5057 0 1
54.6217 0 1
54.7377 0 1
54.8537 0 1
54.9695 0 1
55.0853 0 1
55.2011 0 1
55.3168 0 1
55.4324 0 1
57.824 0 1
57.9396 0 1
58.0553 0 1
58.1711 0 1
58.2869 0 1
58.4028 0 1
58.5187 0 1
58.6347 0 1
58.7508 0 1
58.8669 0 1
58.983 1502 38.7556
59.0992 1588 39.8497
59.2155 1765 42.0119
59.3318 1914 43.7493
59.4482 1989 44.5982
59.5646 1982 44.5197
59.681 2160 46.4758
59.7975 2163 46.5081
59.9141 2146 46.3249
60.0306 2133 46.1844
60.1473 2024 44.9889
60.2639 1986 44.5646
60.3807 1927 43.8976
60.4974 2046 45.2327
60.6142 2091 45.7275
60.731 2268 47.6235
60.8479 2266 47.6025
60.9648 2369 48.6724
61.0818 2332 48.2908
61.1987 2296 47.9166
61.3158 2247 47.4025
61.4328 2200 46.9042
61.5499 2112 45.9565
61.667 1957 44.238
61.7841 1803 42.4617
61.9013 1733 41.6293
62.0185 1761 41.9643
62.1357 1757 41.9166
62.253 2003 44.7549
62.3702 2035 45.111
62.4875 2171 46.594
62.6049 2262 47.5605
62.7222 2349 48.4665
62.8396 2174 46.6262
62.9569 2271 47.655
63.0743 2371 48.6929
63.1918 2250 47.4342
63.3092 2207 46.9787
63.4267 2217 47.085
63.5441 2109 45.9239
63.6616 2055 45.3321
63.7791 1841 42.9069
63.8966 1820 42.6615
64.0142 1903 43.6234
64.1317 1995 44.6654
64.2492 2065 45.4423
64.3668 2175 46.6369
64.4843 2363 48.6107
64.6019 2326 48.2286
64.7195 2325 48.2183
64.837 2336 48.3322
64.9546 2267 47.613
65.0722 2108 45.913
65.1898 1977 44.4635
65.3074 1808 42.5206
65.4249 1746 41.7852
65.5425 1707 41.3159
65.6601 1746 41.7852
65.7777 1867 43.2088
65.8952 1941 44.0568
66.0128 2050 45.2769
66.1304 2106 45.8912
66.2479 2206 46.9681
66.3655 2221 47.1275
66.483 2205 46.9574
66.6005 2259 47.5289
66.718 2242 47.3498
66.8355 2237 47.2969
66.953 2149 46.3573
67.0705 2058 45.3652
67.1879 2014 44.8776
67.3054 1923 43.852
67.4228 1818 42.638
67.5402 1799 42.4146
67.6576 1844 42.9418
67.7749 1892 43.4971
67.8923 1974 44.4297
68.0096 2146 46.3249
68.1269 2228 47.2017
68.2442 2253 47.4658
68.3614 2169 46.5725
68.4787 2161 46.4866
68.5958 2128 46.1303
68.713 2032 45.0777
68.8302 1885 43.4166
68.9473 1760 41.9524
69.0643 1712 41.3763
69.1814 1656 40.694
69.2984 1614 40.1746
69.4154 1766 42.0238
69.5323 1812 42.5676
69.6492 1911 43.715
69.7661 2029 45.0444
69.8829 2014 44.8776
69.9997 2049 45.2659
70.1165 1981 44.5084
70.2332 1944 44.0908
70.3499 1915 43.7607
70.4665 1745 41.7732
70.5831 1689 41.0974
70.6996 1573 39.6611
70.8161 1528 39.0896
70.9326 1377 37.108
71.049 1280 35.7771
71.1653 1030 32.0936
71.2817 896 29.9333
71.3979 809 28.4429
71.5141 839 28.9655
71.6303 866 29.4279
71.7464 711 26.6646
71.8624 0 1
71.9784 0 1
72.0944 0 1
72.2102 0 1
72.3261 0 1
72.4418 0 1
72.5575 0 1
72.6732 0 1
75.1054 0 1
75.2209 0 1
75.3365 0 1
75.4521 0 1
75.5678 0 1
75.6835 0 1
75.7993 0 1
75.9151 0 1
76.031 0 1
76.147 1374 37.0675
76.263 1356 36.8239
76.3791 1373 37.054
76.4952 1395 37.3497
76.6113 1446 38.0263
76.7276 1580 39.7492
76.8438 1717 41.4367
76.9601 1772 42.0951
77.0765 1916 43.7721
77.1929 1875 43.3013
77.3093 1899 43.5775
77.4258 1948 44.1362
77.5423 1853 43.0465
77.6589 1793 42.3438
77.7755 1675 40.9268
77.8921 1497 38.6911
78.0088 1409 37.5366
78.1256 1347 36.7015
78.2423 1289 35.9026
78.3591 1449 38.0657
78.4759 1577 39.7115
78.5928 1641 40.5093
78.7097 1703 41.2674
78.8266 1789 42.2966
78.9436 1909 43.6921
79.0606 1951 44.1701
79.1776 1899 43.5775
79.2946 1897 43.5546
79.4117 1953 44.1928
79.5288 1905 43.6463
79.6459 1971 44.3959
79.7631 1830 42.7785
79.8802 1754 41.8808
79.9974 1673 40.9023
80.1147 1567 39.5854
80.2319 1507 38.8201
80.3491 1598 39.975
80.4664 1699 41.2189
80.5837 1917 43.7836
80.701 1922 43.8406
80.8183 1934 43.9773
80.9357 1975 44.441
81.053 2069 45.4863
81.1704 2008 44.8107
81.2877 1915 43.7607
81.4051 1782 42.2137
81.5225 1652 40.6448
81.6399 1557 39.4588
81.7573 1418 37.6563
81.8747 1317 36.2905
81.9922 1423 37.7227
82.1096 1511 38.8716
82.227 1743 41.7493
82.3444 1731 41.6053
82.4619 1825 42.72
82.5793 1903 43.6234
82.6967 1930 43.9318
82.8142 2003 44.7549
82.9316 2003 44.7549
83.049 2021 44.9555
83.1664 2066 45.4533
83.2838 1926 43.8862
83.4012 1922 43.8406
83.5186 1831 42.7902
83.636 1817 42.6263
83.7534 1596 39.95
83.8708 1611 40.1373
83.9881 1660 40.7431
84.1055 1641 40.5093
84.2228 1724 41.5211
84.3401 1945 44.1022
84.4575 1984 44.5421
84.5747 1930 43.9318
84.692 2021 44.9555
84.8093 2038 45.1442
84.9265 2026 45.0111
85.0437 1944 44.0908
85.1609 1659 40.7308
85.2781 1563 39.5348
85.3952 1422 37.7094
85.5123 1404 37.47
85.6294 1364 36.9324
85.7465 1596 39.95
85.8636 1761 41.9643
85.9806 1822 42.6849
86.0976 1859 43.1161
86.2145 1962 44.2945
86.3315 1919 43.8064
86.4484 2120 46.0435
86.5652 2078 45.5851
86.682 2180 46.6905
86.7988 2086 45.6727
86.9156 1934 43.9773
87.0323 1996 44.6766
87.149 1891 43.4856
87.2657 1738 41.6893
87.3823 1610 40.1248
87.4988 1406 37.4967
87.6154 1394 37.3363
87.7318 1378 37.1214
87.8483 1487 38.5616
87.9647 1586 39.8246
88.081 1501 38.7427
88.1973 1492 38.6264
88.3136 1517 38.9487
88.4298 1399 37.4032
88.546 1278 35.7491
88.6621 1135 33.6898
88.7781 937 30.6105
88.8942 0 1
89.0101 0 1
89.126 0 1
89.2419 0 1
89.3577 0 1
89.4734 0 1
89.5891 0 1
89.7047 0 1
89.8203 0 1
89.9358 0 1
92.3269 0 1
92.4424 0 1
92.558 0 1
92.6736 0 1
92.7893 0 1
92.905 0 1
93.0208 0 1
93.1366 0 1
93.2525 0 1
93.3685 0 1
93.4845 0 1
93.6005 1624 40.2989
93.7167 1561 39.5095
93.8328 1701 41.2432
93.949 1795 42.3674
94.0653 1652 40.6448
94.1816 1714 41.4005
94.2979 1673 40.9023
94.4143 1544 39.2938
94.5307 1532 39.1408
94.6472 1452 38.1051
94.7637 1484 38.5227
94.8803 1586 39.8246
94.9969 1751 41.845
95.1135 1843 42.9302
95.2302 1835 42.8369
95.3469 1971 44.3959
95.4637 2068 45.4753
95.5805 2013 44.8665
95.6973 2046 45.2327
95.8142 2091 45.7275
95.9311 2041 45.1774
96.048 2032 45.0777
96.1649 1976 44.4522
96.2819 1938 44.0227
96.3989 1898 43.566
96.516 1726 41.5452
96.633 1663 40.7799
96.7501 1707 41.3159
96.8673 1687 41.0731
96.9844 1768 42.0476
97.1016 1917 43.7836
97.2188 1976 44.4522
97.336 2087 45.6837
97.4532 2135 46.2061
97.5704 2113 45.9674
97.6877 2062 45.4093
97.805 1997 44.6878
97.9223 1829 42.7668
98.0396 1596 39.95
98.1569 1449 38.0657
98.2743 1402 37.4433
98.3916 1503 38.7685
98.509 1644 40.5463
98.6264 1801 42.4382
98.7438 1960 44.2719
98.8612 1937 44.0114
98.9786 2029 45.0444
99.096 2093 45.7493
99.2134 2063 45.4203
99.3308 2095 45.7712
99.4482 2180 46.6905
99.5656 2214 47.0532
99.6831 2082 45.6289
99.8005 2084 45.6508
99.9179 2090 45.7165
100.035 1875 43.3013
100.153 1883 43.3935
100.27 1807 42.5088
100.388 1842 42.9185
100.505 1847 42.9767
100.622 1956 44.2267
100.74 2044 45.2106
100.857 2164 46.5188
100.975 2226 47.1805
101.092 2234 47.2652
101.209 2161 46.4866
101.327 2217 47.085
101.444 2042 45.1885
101.561 1888 43.4511
101.679 1673 40.9023
101.796 1552 39.3954
101.913 1574 39.6737
102.03 1641 40.5093
102.148 1773 42.107
102.265 1994 44.6542
102.382 2050 45.2769
102.499 2064 45.4313
102.616 2186 46.7547
102.733 2244 47.3709
102.851 2284 47.7912
102.968 2297 47.927
103.085 2249 47.4236
103.202 2161 46.4866
103.319 2223 47.1487
103.436 2219 47.1063
103.552 2154 46.4112
103.669 2020 44.9444
103.786 1934 43.9773
103.903 1838 42.8719
104.02 1885 43.4166
104.137 2060 45.3872
104.253 2110 45.9347
104.37 2370 48.6826
104.487 2341 48.3839
104.603 2257 47.5079
104.72 2338 48.3529
104.836 2183 46.7226
104.953 2008 44.8107
105.069 1810 42.5441
105.186 1604 40.05
105.302 1468 38.3145
105.418 1374 37.0675
105.535 1421 37.6962
105.651 1392 37.3095
105.767 1450 38.0789
105.883 1394 37.3363
105.999 1320 36.3318
106.115 0 1
106.231 0 1
106.347 0 1
106.463 0 1
106.579 0 1
106.694 0 1
106.81 0 1
106.926 0 1
107.041 0 1
107.157 0 1
109.576 0 1
109.692 0 1
109.807 0 1
109.923 0 1
110.039 0 1
110.155 0 1
110.27 0 1
110.386 0 1
110.502 0 1
110.618 1028 32.0624
110.735 1265 35.5668
110.851 1515 38.923
110.967 1595 39.9375
111.083 1714 41.4005
111.199 1910 43.7035
111.316 1952 44.1814
111.432 2078 45.5851
111.549 2055 45.3321
111.665 2108 45.913
111.782 2122 46.0652
111.898 2059 45.3762
112.015 2074 45.5412
112.132 1931 43.9431
112.248 1750 41.833
112.365 1773 42.107
112.482 1769 42.0595
112.599 1881 43.3705
112.716 1941 44.0568
112.832 2084 45.6508
112.949 2167 46.551
113.066 2145 46.3141
113.183 2115 45.9891
113.3 2187 46.7654
113.417 2061 45.3982
113.534 1985 44.5533
113.652 1829 42.7668
113.769 1649 40.6079
113.886 1606 40.0749
114.003 1452 38.1051
114.12 1637 40.4599
114.238 1847 42.9767
114.355 1893 43.5086
114.472 1887 43.4396
114.589 2090 45.7165
114.707 2054 45.3211
114.824 2164 46.5188
114.942 2069 45.4863
115.059 2142 46.2817
115.176 2035 45.111
115.294 2145 46.3141
115.411 2198 46.8828
115.529 2076 45.5631
115.646 2077 45.5741
115.764 1888 43.4511
115.881 1812 42.5676
115.999 1813 42.5793
116.116 1897 43.5546
116.234 1937 44.0114
116.351 2100 45.8258
116.469 2245 47.3814
116.586 2101 45.8367
116.704 2130 46.1519
116.821 2123 46.076
116.939 2157 46.4435
117.056 2030 45.0555
117.174 1940 44.0454
117.291 1733 41.6293
117.409 1596 39.95
117.526 1448 38.0526
117.644 1500 38.7298
117.761 1689 41.0974
117.879 1806 42.4971
117.996 1928 43.909
118.114 1994 44.6542
118.231 1991 44.6206
118.349 2073 45.5302
118.466 2098 45.8039
118.584 2113 45.9674
118.701 2069 45.4863
118.819 2142 46.2817
118.936 2096 45.7821
119.053 1963 44.3058
119.171 1982 44.5197
119.288 1951 44.1701
119.405 1810 42.5441
119.523 1713 41.3884
119.64 1700 41.2311
119.757 1777 42.1545
119.875 1889 43.4626
119.992 1910 43.7035
120.109 1999 44.7102
120.226 2048 45.2548
120.343 1995 44.6654
120.46 2054 45.3211
120.578 2000 44.7214
120.695 2060 45.3872
120.812 1862 43.1509
120.929 1703 41.2674
121.046 1496 38.6782
121.163 1443 37.9868
121.279 1403 37.4566
121.396 1439 37.9342
121.513 1516 38.9358
121.63 1609 40.1123
121.747 1614 40.1746
121.863 1694 41.1582
121.98 1636 40.4475
122.097 1624 40.2989
122.213 1595 39.9375
122.33 1587 39.8372
122.446 1519 38.9744
122.563 1425 37.7492
122.679 1311 36.2077
122.795 1205 34.7131
122.912 1141 33.7787
123.028 1035 32.1714
123.144 962 31.0161
123.26 806 28.3901
123.377 0 1
123.493 0 1
123.609 0 1
123.725 0 1
123.84 0 1
123.956 0 1
124.072 0 1
124.188 0 1
124.303 0 1
124.419 0 1
126.852 0 1
126.968 0 1
127.083 0 1
127.199 0 1
127.315 0 1
127.431 0 1
127.547 0 1
127.663 0 1
127.779 0 1
127.895 0 1
128.011 0 1
128.127 0 1
128.243 0 1
128.359 1914 43.7493
128.476 1978 44.4747
128.592 1943 44.0795
128.708 1852 43.0349
128.825 1993 44.643
128.941 2000 44.7214
129.058 2152 46.3897
129.174 2270 47.6445
129.291 2225 47.1699
129.408 2192 46.8188
129.524 2203 46.9361
129.641 2162 46.4973
129.758 2138 46.2385
129.875 2011 44.8442
129.992 1801 42.4382
130.108 1775 42.1307
130.225 1601 40.0125
130.342 1633 40.4104
130.459 1732 41.6173
130.576 1860 43.1277
130.693 2007 44.7996
130.81 2078 45.5851
130.928 2058 45.3652
131.045 2091 45.7275
131.162 2100 45.8258
131.279 2184 46.7333
131.396 2249 47.4236
131.513 2142 46.2817
131.631 2166 46.5403
131.748 2135 46.2061
131.865 2045 45.2217
131.983 2045 45.2217
132.1 1892 43.4971
132.217 1960 44.2719
132.335 2018 44.9222
132.452 1984 44.5421
132.57 2060 45.3872
132.687 2185 46.744
132.804 2228 47.2017
132.922 2197 46.8722
133.039 2270 47.6445
133.157 2342 48.3942
133.274 2177 46.6583
133.392 2153 46.4004
133.509 1973 44.4185
133.627 1826 42.7317
133.744 1826 42.7317
133.862 1632 40.398
133.979 1662 40.7676
134.097 1847 42.9767
134.214 2071 45.5082
134.332 2038 45.1442
134.449 2054 45.3211
134.567 2171 46.594
134.684 2117 46.0109
134.802 2178 46.669
134.919 2215 47.0638
135.037 2261 47.55
135.154 2155 46.422
135.272 2114 45.9783
135.389 2131 46.1628
135.507 2058 45.3652
135.624 2024 44.9889
135.742 1944 44.0908
135.859 2049 45.2659
135.977 2020 44.9444
136.094 2081 45.618
136.211 2134 46.1952
136.329 2256 47.4974
136.446 2192 46.8188
136.564 2149 46.3573
136.681 2249 47.4236
136.798 2221 47.1275
136.915 2284 47.7912
137.033 2031 45.0666
137.15 1877 43.3244
137.267 1843 42.9302
137.384 1716 41.4246
137.502 1695 41.1704
137.619 1617 40.2119
137.736 1827 42.7434
137.853 1824 42.7083
137.97 1973 44.4185
138.087 2005 44.7772
138.204 2151 46.3789
138.321 2127 46.1194
138.438 2205 46.9574
138.555 2291 47.8644
138.672 2167 46.551
138.788 2144 46.3033
138.905 2047 45.2438
139.022 1877 43.3244
139.139 1801 42.4382
139.255 1700 41.2311
139.372 1600 40
139.488 1548 39.3446
139.605 1480 38.4708
139.721 1430 37.8153
139.838 1447 38.0395
139.954 1417 37.6431
140.071 1423 37.7227
140.187 1295 35.9861
140.303 1201 34.6554
140.419 1123 33.5112
140.535 1063 32.6037
140.652 995 31.5436
140.768 0 1
140.884 0 1
141 0 1
141.115 0 1
141.231 0 1
141.347 0 1
141.463 0 1
141.578 0 1
141.694 0 1
144.104 0 1
144.219 0 1
144.335 0 1
144.45 0 1
144.566 0 1
144.682 0 1
144.798 0 1
144.914 0 1
145.03 0 1
145.146 1585 39.8121
145.262 1647 40.5832
145.378 1724 41.5211
145.494 1799 42.4146
145.61 1761 41.9643
145.726 1740 41.7133
145.842 1594 39.9249
145.959 1496 38.6782
146.075 1431 37.8286
146.192 1361 36.8917
146.308 1327 36.428
146.425 1468 38.3145
146.541 1461 38.223
146.658 1522 39.0128
146.774 1621 40.2616
146.891 1658 40.7185
147.008 1587 39.8372
147.125 1649 40.6079
147.241 1754 41.8808
147.358 1786 42.2611
147.475 1753 41.8688
147.592 1672 40.8901
147.709 1609 40.1123
147.826 1659 40.7308
147.943 1557 39.4588
148.06 1476 38.4187
148.177 1534 39.1663
148.294 1530 39.1152
148.411 1550 39.37
148.528 1600 40
148.645 1604 40.05
148.762 1752 41.8569
148.88 1728 41.5692
148.997 1777 42.1545
149.114 1701 41.2432
149.231 1754 41.8808
149.349 1726 41.5452
149.466 1665 40.8044
149.583 1570 39.6232
149.701 1496 38.6782
149.818 1371 37.027
149.935 1383 37.1887
150.053 1383 37.1887
150.17 1488 38.5746
150.287 1483 38.5097
150.405 1516 38.9358
150.522 1504 38.7814
150.64 1610 40.1248
150.757 1589 39.8623
150.875 1683 41.0244
150.992 1677 40.9512
151.11 1619 40.2368
151.227 1606 40.0749
151.344 1695 41.1704
151.462 1617 40.2119
151.579 1539 39.2301
151.697 1415 37.6165
151.814 1474 38.3927
151.932 1496 38.6782
152.049 1564 39.5474
152.167 1503 38.7685
152.284 1639 40.4846
152.402 1634 40.4228
152.519 1661 40.7554
152.636 1661 40.7554
152.754 1642 40.5216
152.871 1670 40.8656
152.989 1576 39.6989
153.106 1579 39.7366
153.223 1527 39.0768
153.341 1404 37.47
153.458 1320 36.3318
153.575 1290 35.9166
153.693 1316 36.2767
153.81 1382 37.1753
153.927 1469 38.3275
154.044 1399 37.4032
154.162 1527 39.0768
154.279 1543 39.281
154.396 1501 38.7427
154.513 1510 38.8587
154.63 1552 39.3954
154.747 1571 39.6358
154.864 1662 40.7676
154.981 1497 38.6911
155.098 1480 38.4708
155.215 1482 38.4968
155.332 1359 36.8646
155.449 1352 36.7696
155.566 1353 36.7831
155.683 1326 36.4143
155.8 1459 38.1969
155.917 1472 38.3667
156.033 1412 37.5766
156.15 0 1
156.267 0 1
156.383 0 1
156.5 0 1
156.617 0 1
156.733 0 1
156.85 0 1
156.966 0 1
157.082 0 1
157.199 0 1
157.315 0 1
157.431 0 1
157.547 0 1
157.664 0 1
157.78 0 1
157.896 0 1
158.012 0 1
158.128 0 1
158.244 0 1
158.359 0 1
158.475 0 1
158.591 0 1
158.706 0 1
