
6.15755 0 1
6.2731 0 1
6.3887 0 1
6.50437 0 1
6.62009 0 1
6.73587 0 1
6.8517 0 1
6.96759 0 1
7.08353 0 1
7.19952 0 1
7.31557 0 1
7.43166 0 1
7.54781 0 1
7.664 0 1
7.78024 0 1
7.89653 0 1
8.01286 0 1
8.12924 0 1
8.24567 0 1
8.36213 0 1
8.47864 0 1
8.59519 0 1
8.71178 0 1
8.82841 0 1
8.94508 0 1
9.06179 0 1
9.17853 0 1
9.29531 0 1
9.41212 0 1
9.52897 0 1
9.64584 0 1
9.76276 0 1
9.8797 0 1
9.99667 0 1
10.1137 0 1
10.2307 0 1
10.3478 0 1
10.4648 0 1
10.5819 0 1
10.6991 0 1
10.8162 0 1
10.9334 0 1
11.0506 0 1
11.1678 0 1
11.285 0 1
11.4023 0 1
11.5196 0 1
11.6369 0 1
11.7542 0 1
11.8715 0 1
11.9888 0 1
12.1062 0 1
12.2235 0 1
12.3409 0 1
12.4582 0 1
12.5756 0 1
12.693 0 1
12.8104 0 1
12.9278 0 1
13.0452 0 1
13.1626 0 1
13.28 0 1
13.3974 0 1
13.5149 0 1
13.6323 0 1
13.7497 0 1
13.8671 0 1
13.9845 0 1
14.1019 0 1
14.2193 0 1
14.3367 0 1
14.4541 0 1
14.5714 0 1
14.6888 0 1
14.8062 0 1
14.9235 0 1
15.0408 0 0
15.1581 0 0
15.2755 0 0
15.3927 0 0
15.51 0 0
15.6273 0 0
15.7445 0 0
15.8617 0 0
15.9789 0 0
16.0961 0 0
16.2132 0 0
16.3304 0 0
16.4475 0 0
16.5646 0 0
16.6816 0 0
16.7986 0 0
16.9156 0 0
17.0326 0 0
17.1496 0 0
17.2665 0 0
17.3833 0 0
17.5002 0 0
17.617 0 0
17.7338 0 0
17.8505 0 0
17.9672 0 0
18.0839 0 0
18.2005 0 0
18.3171 0 0
18.4337 0 0
18.5502 0 0
18.6666 0 0
18.7831 0 0
18.8994 0 0
19.0158 0 0
19.1321 0 0
19.2483 0 0
19.3645 0 0
19.4806 0 0
19.5967 0 0
19.7128 0 0
19.8288 0 0
19.9447 0 0
20.0606 0 1
20.1764 0 1
20.2922 0 1
20.4079 0 1
20.5236 0 1
20.6392 0 1
20.7548 0 1
20.8702 0 1
23.3078 0 1
23.4233 0 1
23.539 0 1
23.6547 0 1
23.7704 0 1
23.8862 0 1
24.0021 0 1
24.118 0 1
24.234 0 1
24.35 0 1
24.4661 5582 74.7128
24.5822 6160 78.4857
24.6984 6840 82.7043
24.8146 7740 87.9773
24.9309 8594 92.7038
25.0472 9589 97.9234
25.1636 10704 103.46
25.28 11437 106.944
25.3965 12127 110.123
25.513 12747 112.903
25.6296 13575 116.512
25.7462 14029 118.444
25.8628 14155 118.975
25.9795 13913 117.953
26.0962 13662 116.885
26.213 13249 115.104
26.3298 12733 112.841
26.4466 12194 110.426
26.5635 11750 108.397
26.6804 11549 107.466
26.7973 11538 107.415
26.9143 11663 107.995
27.0313 11853 108.871
27.1483 11901 109.092
27.2653 12134 110.154
27.3824 12072 109.873
27.4996 12171 110.322
27.6167 11939 109.266
27.7339 11448 106.995
27.8511 11072 105.224
27.9683 10982 104.795
28.0855 10575 102.835
28.2028 10419 102.074
28.3201 10579 102.854
28.4374 11130 105.499
28.5547 11353 106.55
28.6721 11996 109.526
28.7894 12184 110.381
28.9068 12313 110.964
29.0242 12192 110.417
29.1416 12243 110.648
29.259 12198 110.445
29.3764 12344 111.104
29.4939 12333 111.054
29.6113 11974 109.426
29.7288 11977 109.439
29.8463 11630 107.842
29.9638 11235 105.995
30.0812 11135 105.523
30.1987 11130 105.499
30.3162 11100 105.357
30.4337 11279 106.203
30.5512 11373 106.644
30.6687 11672 108.037
30.7862 11732 108.314
30.9037 11693 108.134
31.0212 11886 109.023
31.1387 11824 108.738
31.2562 11400 106.771
31.3737 11192 105.792
31.4912 10892 104.365
31.6087 10524 102.587
31.7262 10300 101.489
31.8436 10270 101.341
31.9611 10789 103.87
32.0785 11201 105.835
32.1959 11549 107.466
32.3134 11747 108.384
32.4308 11833 108.78
32.5482 11929 109.22
32.6655 11890 109.041
32.7829 11888 109.032
32.9002 12093 109.968
33.0176 12210 110.499
33.1349 11911 109.138
33.2522 12156 110.254
33.3694 11755 108.42
33.4867 11189 105.778
33.6039 10940 104.594
33.7211 10632 103.112
33.8383 10639 103.146
33.9554 10733 103.6
34.0725 10842 104.125
34.1896 11132 105.508
34.3067 11137 105.532
34.4237 11394 106.743
34.5407 11426 106.892
34.6577 11701 108.171
34.7746 11592 107.666
34.8915 11071 105.219
35.0084 10763 103.745
35.1252 10790 103.875
35.242 10244 101.213
35.3587 10148 100.737
35.4755 10015 100.075
35.5921 10253 101.257
35.7088 10734 103.605
35.8254 11413 106.832
35.9419 11454 107.023
36.0584 11723 108.273
36.1749 11693 108.134
36.2913 11408 106.808
36.4077 11201 105.835
36.524 11125 105.475
36.6403 10684 103.363
36.7565 10234 101.163
36.8727 9537 97.6576
36.9889 9018 94.9632
37.1049 8339 91.3181
37.221 0 1
37.3369 0 1
37.4529 0 1
37.5687 0 1
37.6845 0 1
37.8003 0 1
37.916 0 1
38.0316 0 1
38.1472 0 1
40.5851 0 1
40.7008 0 1
40.8164 0 1
40.9322 0 1
41.048 0 1
41.1639 0 1
41.2798 0 1
41.3958 0 1
41.5118 0 1
41.6279 0 1
41.744 6587 81.1603
41.8602 7462 86.3829
41.9765 7995 89.4148
42.0928 8303 91.1208
42.2091 8549 92.4608
42.3255 8665 93.086
42.4419 8456 91.9565
42.5584 8401 91.657
42.675 8701 93.2792
42.7915 8999 94.8631
42.9081 9199 95.9114
43.0248 9566 97.8059
43.1415 9754 98.7623
43.2582 9924 99.6193
43.375 10047 100.235
43.4918 10331 101.642
43.6087 10364 101.804
43.7256 10032 100.16
43.8425 10098 100.489
43.9595 9986 99.93
44.0765 9766 98.8231
44.1935 9733 98.656
44.3106 9525 97.5961
44.4277 9661 98.2904
44.5448 10202 101.005
44.6619 10455 102.25
44.7791 11080 105.262
44.8963 11185 105.759
45.0136 11559 107.513
45.1308 11470 107.098
45.2481 11555 107.494
45.3654 11447 106.991
45.4827 11431 106.916
45.6001 11532 107.387
45.7174 11240 106.019
45.8348 10667 103.281
45.9522 10258 101.282
46.0697 9934 99.6695
46.1871 9623 98.0969
46.3046 9728 98.6306
46.422 9800 98.9949
46.5395 10144 100.717
46.657 10539 102.66
46.7745 11005 104.905
46.892 11180 105.736
47.0096 11401 106.775
47.1271 11639 107.884
47.2446 11934 109.243
47.3622 11920 109.179
47.4797 11397 106.757
47.5973 11632 107.852
47.7149 11463 107.065
47.8324 11276 106.189
47.95 10865 104.235
48.0675 11547 107.457
48.1851 12020 109.636
48.3027 12578 112.152
48.4202 12845 113.336
48.5378 12929 113.706
48.6554 13206 114.917
48.7729 13323 115.425
48.8904 13225 115
49.008 13025 114.127
49.1255 12850 113.358
49.243 12589 112.201
49.3605 11817 108.706
49.478 11257 106.099
49.5955 10881 104.312
49.713 10322 101.597
49.8304 10475 102.347
49.9479 11036 105.052
50.0653 11456 107.033
50.1827 11931 109.229
50.3001 12249 110.675
50.4175 12876 113.472
50.5348 13232 115.03
50.6521 13328 115.447
50.7694 13710 117.09
50.8867 13455 115.996
51.004 13827 117.588
51.1212 13446 115.957
51.2384 13194 114.865
51.3556 12981 113.934
51.4727 12889 113.53
51.5899 13412 115.81
51.707 13965 118.174
51.824 14484 120.349
51.9411 15293 123.665
52.0581 15566 124.764
52.175 15470 124.378
52.2919 15639 125.056
52.4088 15461 124.342
52.5257 15758 125.531
52.6425 16134 127.02
52.7593 15637 125.048
52.876 15137 123.033
52.9927 14268 119.449
53.1094 13561 116.452
53.226 13310 115.369
53.3426 12739 112.867
53.4591 12442 111.544
53.5756 12563 112.085
53.692 12471 111.674
53.8084 12394 111.328
53.9248 11930 109.225
54.0411 11480 107.145
54.1573 10926 104.528
54.2735 0 1
54.3896 0 1
54.5057 0 1
54.6217 0 1
54.7377 0 1
54.8537 0 1
54.9695 0 1
55.0853 0 1
55.2011 0 1
55.3168 0 1
55.4324 0 1
57.824 0 1
57.9396 0 1
58.0553 0 1
58.1711 0 1
58.2869 0 1
58.4028 0 1
58.5187 0 1
58.6347 0 1
58.7508 0 1
58.8669 0 1
58.983 14218 119.239
59.0992 16783 129.549
59.2155 19158 138.412
59.3318 21374 146.198
59.4482 22927 151.417
59.5646 24448 156.359
59.681 25591 159.972
59.7975 26260 162.049
59.9141 26330 162.265
60.0306 26291 162.145
60.1473 25589 159.966
60.2639 25496 159.675
60.3807 26316 162.222
60.4974 27234 165.027
60.6142 28320 168.285
60.731 29431 171.555
60.8479 29482 171.703
60.9648 29867 172.821
61.0818 29845 172.757
61.1987 30011 173.237
61.3158 29575 171.974
61.4328 28982 170.241
61.5499 27725 166.508
61.667 26537 162.902
61.7841 24864 157.683
61.9013 24008 154.945
62.0185 23611 153.659
62.1357 24310 155.917
62.253 25676 160.237
62.3702 26910 164.043
62.4875 27707 166.454
62.6049 29470 171.668
62.7222 30225 173.853
62.8396 31056 176.227
62.9569 31991 178.86
63.0743 32650 180.693
63.1918 32818 181.157
63.3092 32328 179.8
63.4267 32428 180.078
63.5441 31270 176.833
63.6616 29959 173.087
63.7791 29207 170.901
63.8966 29470 171.668
64.0142 30231 173.871
64.1317 31942 178.723
64.2492 32722 180.892
64.3668 33255 182.36
64.4843 32945 181.508
64.6019 33097 181.926
64.7195 32983 181.612
64.837 32897 181.375
64.9546 32796 181.097
65.0722 32046 179.014
65.1898 30232 173.874
65.3074 27951 167.186
65.4249 26294 162.154
65.5425 25297 159.05
65.6601 25396 159.361
65.7777 26581 163.037
65.8952 28357 168.395
66.0128 29766 172.528
66.1304 31000 176.068
66.2479 32125 179.234
66.3655 33588 183.27
66.483 34461 185.637
66.6005 35274 187.814
66.718 35326 187.952
66.8355 35410 188.175
66.953 34883 186.77
67.0705 34112 184.694
67.1879 33324 182.549
67.3054 31354 177.071
67.4228 30139 173.606
67.5402 30517 174.691
67.6576 31255 176.791
67.7749 32183 179.396
67.8923 33391 182.732
68.0096 34274 185.132
68.1269 34137 184.762
68.2442 34443 185.588
68.3614 34799 186.545
68.4787 34417 185.518
68.5958 34044 184.51
68.713 33070 181.852
68.8302 31317 176.966
68.9473 28911 170.032
69.0643 26938 164.128
69.1814 25618 160.056
69.2984 25369 159.276
69.4154 27009 164.344
69.5323 28710 169.44
69.6492 30218 173.833
69.7661 31931 178.692
69.8829 32593 180.535
69.9997 33215 182.25
70.1165 32707 180.851
70.2332 32470 180.194
70.3499 31238 176.743
70.4665 29005 170.309
70.5831 27863 166.922
70.6996 26127 161.638
70.8161 24204 155.576
70.9326 21755 147.496
71.049 18541 136.165
71.1653 17276 131.438
71.2817 16167 127.15
71.3979 15786 125.642
71.5141 15223 123.382
71.6303 14485 120.354
71.7464 12850 113.358
71.8624 0 1
71.9784 0 1
72.0944 0 1
72.2102 0 1
72.3261 0 1
72.4418 0 1
72.5575 0 1
72.6732 0 1
75.1054 0 1
75.2209 0 1
75.3365 0 1
75.4521 0 1
75.5678 0 1
75.6835 0 1
75.7993 0 1
75.9151 0 1
76.031 0 1
76.147 23447 153.124
76.263 24958 157.981
76.3791 25085 158.382
76.4952 24627 156.93
76.6113 25089 158.395
76.7276 26212 161.901
76.8438 27246 165.064
76.9601 29251 171.029
77.0765 29650 172.192
77.1929 30413 174.393
77.3093 30185 173.738
77.4258 29961 173.092
77.5423 29870 172.829
77.6589 29899 172.913
77.7755 28157 167.8
77.8921 25814 160.667
78.0088 23917 154.651
78.1256 21680 147.241
78.2423 20577 143.447
78.3591 20857 144.42
78.4759 22407 149.69
78.5928 24261 155.759
78.7097 26375 162.404
78.8266 27789 166.7
78.9436 28706 169.428
79.0606 30033 173.3
79.1776 30849 175.639
79.2946 31459 177.367
79.4117 31575 177.694
79.5288 31655 177.919
79.6459 31424 177.268
79.7631 30954 175.937
79.8802 29626 172.122
79.9974 28147 167.771
80.1147 26451 162.638
80.2319 25785 160.577
80.3491 26743 163.533
80.4664 27956 167.2
80.5837 28929 170.085
80.701 30122 173.557
80.8183 30544 174.768
80.9357 30965 175.969
81.053 31066 176.255
81.1704 30973 175.991
81.2877 31469 177.395
81.4051 30112 173.528
81.5225 29236 170.985
81.6399 26112 161.592
81.7573 23732 154.052
81.8747 21908 148.014
81.9922 20733 143.99
82.1096 22114 148.708
82.227 24095 155.226
82.3444 26246 162.006
82.4619 28219 167.985
82.5793 29678 172.273
82.6967 31200 176.635
82.8142 32025 178.955
82.9316 32666 180.737
83.049 32802 181.113
83.1664 32693 180.812
83.2838 32418 180.05
83.4012 31468 177.392
83.5186 30999 176.065
83.636 29646 172.18
83.7534 27776 166.661
83.8708 26820 163.768
83.9881 26808 163.731
84.1055 27406 165.548
84.2228 29066 170.488
84.3401 30066 173.396
84.4575 31171 176.553
84.5747 31706 178.062
84.692 32046 179.014
84.8093 31498 177.477
84.9265 31655 177.919
85.0437 30368 174.264
85.1609 28490 168.79
85.2781 25683 160.259
85.3952 23057 151.845
85.5123 21443 146.434
85.6294 21116 145.313
85.7465 22888 151.288
85.8636 25638 160.119
85.9806 27460 165.711
86.0976 29822 172.69
86.2145 30879 175.724
86.3315 32039 178.994
86.4484 32931 181.469
86.5652 33289 182.453
86.682 33318 182.532
86.7988 33171 182.129
86.9156 33201 182.211
87.0323 31835 178.424
87.149 31007 176.088
87.2657 29707 172.357
87.3823 26526 162.868
87.4988 24650 157.003
87.6154 23730 154.045
87.7318 23597 153.613
87.8483 24029 155.013
87.9647 24459 156.394
88.081 24394 156.186
88.1973 23610 153.655
88.3136 22891 151.298
88.4298 21971 148.226
88.546 20509 143.21
88.6621 18270 135.167
88.7781 15162 123.134
88.8942 0 1
89.0101 0 1
89.126 0 1
89.2419 0 1
89.3577 0 1
89.4734 0 1
89.5891 0 1
89.7047 0 1
89.8203 0 1
89.9358 0 1
92.3269 0 1
92.4424 0 1
92.558 0 1
92.6736 0 1
92.7893 0 1
92.905 0 1
93.0208 0 1
93.1366 0 1
93.2525 0 1
93.3685 0 1
93.4845 0 1
93.6005 26369 162.385
93.7167 27790 166.703
93.8328 28415 168.567
93.949 29579 171.985
94.0653 30171 173.698
94.1816 30809 175.525
94.2979 30048 173.344
94.4143 28709 169.437
94.5307 26165 161.756
94.6472 23551 153.463
94.7637 21775 147.564
94.8803 22418 149.726
94.9969 24524 156.601
95.1135 27242 165.052
95.2302 29696 172.325
95.3469 31815 178.368
95.4637 32964 181.56
95.5805 33904 184.13
95.6973 34460 185.634
95.8142 34408 185.494
95.9311 33990 184.364
96.048 33923 184.182
96.1649 33662 183.472
96.2819 32694 180.815
96.3989 31697 178.037
96.516 31012 176.102
96.633 29197 170.871
96.7501 28202 167.935
96.8673 27678 166.367
96.9844 28209 167.955
97.1016 29572 171.965
97.2188 31425 177.271
97.336 32428 180.078
97.4532 33166 182.115
97.5704 33389 182.727
97.6877 33620 183.358
97.805 33745 183.698
97.9223 32307 179.741
98.0396 30264 173.966
98.1569 26899 164.009
98.2743 23577 153.548
98.3916 21343 146.092
98.509 21344 146.096
98.6264 23958 154.784
98.7438 27428 165.614
98.8612 30213 173.819
98.9786 32626 180.627
99.096 34515 185.782
99.2134 35482 188.367
99.3308 35941 189.581
99.4482 36344 190.641
99.5656 36430 190.866
99.6831 36334 190.615
99.8005 35512 188.446
99.9179 35109 187.374
100.035 34270 185.122
100.153 32568 180.466
100.27 30673 175.137
100.388 30023 173.271
100.505 30308 174.092
100.622 31217 176.683
100.74 32979 181.601
100.857 34065 184.567
100.975 34765 186.454
101.092 35157 187.502
101.209 35269 187.8
101.327 35584 188.637
101.444 35529 188.491
101.561 33812 183.88
101.679 31236 176.737
101.796 27011 164.35
101.913 24078 155.171
102.03 22445 149.817
102.148 24118 155.3
102.265 27161 164.806
102.382 32138 179.271
102.499 34550 185.876
102.616 36018 189.784
102.733 37196 192.863
102.851 38014 194.972
102.968 38006 194.951
103.085 38036 195.028
103.202 37880 194.628
103.319 37115 192.653
103.436 36507 191.068
103.552 35379 188.093
103.669 33966 184.299
103.786 31694 178.028
103.903 30709 175.24
104.02 30729 175.297
104.137 31975 178.816
104.253 33906 184.136
104.37 35412 188.181
104.487 36379 190.733
104.603 36690 191.546
104.72 36941 192.2
104.836 35279 187.827
104.953 33160 182.099
105.069 30139 173.606
105.186 26647 163.239
105.302 22987 151.615
105.418 20074 141.683
105.535 18409 135.68
105.651 18939 137.619
105.767 20482 143.115
105.883 21557 146.823
105.999 21795 147.631
106.115 0 1
106.231 0 1
106.347 0 1
106.463 0 1
106.579 0 1
106.694 0 1
106.81 0 1
106.926 0 1
107.041 0 1
107.157 0 1
109.576 0 1
109.692 0 1
109.807 0 1
109.923 0 1
110.039 0 1
110.155 0 1
110.27 0 1
110.386 0 1
110.502 0 1
110.618 11096 105.338
110.735 13710 117.09
110.851 18195 134.889
110.967 23090 151.954
111.083 26131 161.651
111.199 28984 170.247
111.316 30958 175.949
111.432 31812 178.359
111.549 32435 180.097
111.665 32907 181.403
111.782 32830 181.191
111.898 32905 181.397
112.015 32187 179.407
112.132 30521 174.703
112.248 29515 171.799
112.365 27859 166.91
112.482 26574 163.015
112.599 26870 163.921
112.716 27329 165.315
112.832 28459 168.698
112.949 30026 173.28
113.066 30526 174.717
113.183 30810 175.528
113.3 30627 175.006
113.417 30850 175.642
113.534 30746 175.345
113.652 30622 174.991
113.769 29271 171.088
113.886 25663 160.197
114.003 22635 150.449
114.12 20069 141.665
114.238 19011 137.88
114.355 21715 147.36
114.472 26564 162.985
114.589 27522 165.898
114.707 30245 173.911
114.824 31624 177.831
114.942 32034 178.98
115.059 32102 179.17
115.176 32151 179.307
115.294 31675 177.975
115.411 30986 176.028
115.529 30766 175.402
115.646 29543 171.881
115.764 28584 169.068
115.881 27264 165.118
115.999 25639 160.122
116.116 25190 158.714
116.234 26057 161.422
116.351 26858 163.884
116.469 27742 166.559
116.586 28607 169.136
116.704 29078 170.523
116.821 29236 170.985
116.939 29026 170.37
117.056 29440 171.581
117.174 29027 170.373
117.291 28652 169.269
117.409 26634 163.199
117.526 23387 152.928
117.644 20069 141.665
117.761 18053 134.361
117.879 18734 136.872
117.996 22196 148.983
118.114 25836 160.736
118.231 27766 166.631
118.349 28836 169.812
118.466 29232 170.974
118.584 29789 172.595
118.701 29922 172.98
118.819 29795 172.612
118.936 29178 170.816
119.053 28957 170.168
119.171 28054 167.493
119.288 27082 164.566
119.405 26039 161.366
119.523 24814 157.525
119.64 23523 153.372
119.757 24017 154.974
119.875 24428 156.295
119.992 24847 157.629
120.109 25899 160.932
120.226 26840 163.829
120.343 26975 164.241
120.46 27106 164.639
120.578 27208 164.948
120.695 27361 165.412
120.812 27151 164.776
120.929 27284 165.179
121.046 26052 161.406
121.163 23212 152.355
121.279 20166 142.007
121.396 18157 134.748
121.513 17367 131.784
121.63 18841 137.263
121.747 20979 144.841
121.863 22380 149.599
121.98 23206 152.335
122.097 23298 152.637
122.213 22793 150.974
122.33 22684 150.612
122.446 22222 149.07
122.563 21260 145.808
122.679 20662 143.743
122.795 19550 139.821
122.912 17842 133.574
123.028 16266 127.538
123.144 14755 121.47
123.26 13506 116.215
123.377 0 1
123.493 0 1
123.609 0 1
123.725 0 1
123.84 0 1
123.956 0 1
124.072 0 1
124.188 0 1
124.303 0 1
124.419 0 1
126.852 0 1
126.968 0 1
127.083 0 1
127.199 0 1
127.315 0 1
127.431 0 1
127.547 0 1
127.663 0 1
127.779 0 1
127.895 0 1
128.011 0 1
128.127 0 1
128.243 0 1
128.359 28413 168.562
128.476 28725 169.485
128.592 28349 168.372
128.708 27380 165.469
128.825 27367 165.43
128.941 27798 166.727
129.058 28266 168.125
129.174 29122 170.652
129.291 30184 173.735
129.408 30577 174.863
129.524 30963 175.963
129.641 30467 174.548
129.758 30602 174.934
129.875 30395 174.342
129.992 31019 176.122
130.108 30129 173.577
130.225 27222 164.991
130.342 24140 155.371
130.459 21861 147.855
130.576 20017 141.481
130.693 22249 149.161
130.81 25604 160.012
130.928 27989 167.299
131.045 29128 170.669
131.162 30273 173.991
131.279 30694 175.197
131.396 30774 175.425
131.513 31354 177.071
131.631 30487 174.605
131.748 30184 173.735
131.865 30433 174.451
131.983 29204 170.892
132.1 28431 168.615
132.217 27398 165.523
132.335 27516 165.879
132.452 27914 167.075
132.57 28292 168.202
132.687 29437 171.572
132.804 30045 173.335
132.922 30436 174.459
133.039 30766 175.402
133.157 30839 175.61
133.274 31250 176.777
133.392 31211 176.666
133.509 31097 176.343
133.627 30776 175.431
133.744 28791 169.679
133.862 25797 160.614
133.979 22829 151.093
134.097 21041 145.055
134.214 21982 148.263
134.332 24658 157.029
134.449 27093 164.6
134.567 28728 169.493
134.684 29705 172.351
134.802 30007 173.225
134.919 30402 174.362
135.037 30490 174.614
135.154 30337 174.175
135.272 30145 173.623
135.389 30174 173.707
135.507 29446 171.598
135.624 28746 169.546
135.742 28228 168.012
135.859 27657 166.304
135.977 27900 167.033
136.094 28371 168.437
136.211 28935 170.103
136.329 30195 173.767
136.446 30394 174.339
136.564 30068 173.401
136.681 30582 174.877
136.798 30853 175.65
136.915 31103 176.36
137.033 31175 176.564
137.15 30815 175.542
137.267 30448 174.494
137.384 28090 167.601
137.502 25037 158.231
137.619 22275 149.248
137.736 20772 144.125
137.853 21043 145.062
137.97 23743 154.088
138.087 26881 163.954
138.204 27632 166.229
138.321 28985 170.25
138.438 29502 171.761
138.555 30147 173.629
138.672 30114 173.534
138.788 29855 172.786
138.905 28252 168.083
139.022 26494 162.77
139.139 25651 160.159
139.255 23774 154.188
139.372 22939 151.456
139.488 21540 146.765
139.605 20968 144.803
139.721 20853 144.406
139.838 20463 143.049
139.954 20854 144.409
140.071 20383 142.769
140.187 19087 138.156
140.303 18365 135.518
140.419 17756 133.252
140.535 16996 130.369
140.652 16443 128.23
140.768 0 1
140.884 0 1
141 0 1
141.115 0 1
141.231 0 1
141.347 0 1
141.463 0 1
141.578 0 1
141.694 0 1
144.104 0 1
144.219 0 1
144.335 0 1
144.45 0 1
144.566 0 1
144.682 0 1
144.798 0 1
144.914 0 1
145.03 0 1
145.146 21163 145.475
145.262 22331 149.436
145.378 23134 152.099
145.494 23462 153.173
145.61 23724 154.026
145.726 23568 153.519
145.842 23633 153.73
145.959 23578 153.551
146.075 23118 152.046
146.192 21938 148.115
146.308 19691 140.325
146.425 17656 132.876
146.541 16636 128.981
146.658 16810 129.653
146.774 18146 134.707
146.891 19416 139.341
147.008 20791 144.191
147.125 21214 145.65
147.241 21897 147.976
147.358 22343 149.476
147.475 22418 149.726
147.592 22540 150.133
147.709 22396 149.653
147.826 21647 147.129
147.943 21336 146.068
148.06 21326 146.034
148.177 20960 144.776
148.294 21163 145.475
148.411 21206 145.623
148.528 21600 146.969
148.645 21933 148.098
148.762 22508 150.027
148.88 22793 150.974
148.997 23297 152.634
149.114 22478 149.927
149.231 22639 150.463
149.349 22929 151.423
149.466 22777 150.921
149.583 23142 152.125
149.701 22866 151.215
149.818 22022 148.398
149.935 20605 143.544
150.053 18453 135.842
150.17 17141 130.924
150.287 16507 128.48
150.405 17463 132.148
150.522 19132 138.318
150.64 20061 141.637
150.757 20575 143.44
150.875 21426 146.376
150.992 21955 148.172
151.11 21825 147.733
151.227 21599 146.966
151.344 21210 145.637
151.462 20775 144.135
151.579 21003 144.924
151.697 20535 143.3
151.814 20710 143.91
151.932 20633 143.642
152.049 20834 144.34
152.167 20767 144.108
152.284 21155 145.448
152.402 21431 146.393
152.519 21441 146.427
152.636 21468 146.52
152.754 21702 147.316
152.871 21847 147.807
152.989 21863 147.861
153.106 21550 146.799
153.223 21557 146.823
153.341 21105 145.276
153.458 20126 141.866
153.575 18362 135.506
153.693 16540 128.608
153.81 15914 126.151
153.927 15966 126.357
154.044 17327 131.632
154.162 18060 134.387
154.279 19183 138.503
154.396 19739 140.496
154.513 20227 142.222
154.63 20631 143.635
154.747 20486 143.129
154.864 20278 142.401
154.981 19819 140.78
155.098 19508 139.671
155.215 19331 139.036
155.332 19257 138.77
155.449 19118 138.268
155.566 18919 137.546
155.683 19077 138.12
155.8 19355 139.122
155.917 19185 138.51
156.033 19324 139.011
156.15 0 1
156.267 0 1
156.383 0 1
156.5 0 1
156.617 0 1
156.733 0 1
156.85 0 1
156.966 0 1
157.082 0 1
157.199 0 1
157.315 0 1
157.431 0 1
157.547 0 1
157.664 0 1
157.78 0 1
157.896 0 1
158.012 0 1
158.128 0 1
158.244 0 1
158.359 0 1
158.475 0 1
158.591 0 1
158.706 0 1
