
6.15755 0 1
6.2731 0 1
6.3887 0 1
6.50437 0 1
6.62009 0 1
6.73587 0 1
6.8517 0 1
6.96759 0 1
7.08353 0 1
7.19952 0 1
7.31557 0 1
7.43166 0 1
7.54781 0 1
7.664 0 1
7.78024 0 1
7.89653 0 1
8.01286 0 1
8.12924 0 1
8.24567 0 1
8.36213 0 1
8.47864 0 1
8.59519 0 1
8.71178 0 1
8.82841 0 1
8.94508 0 1
9.06179 0 1
9.17853 0 1
9.29531 0 1
9.41212 0 1
9.52897 0 1
9.64584 0 1
9.76276 0 1
9.8797 0 1
9.99667 0 1
10.1137 0 1
10.2307 0 1
10.3478 0 1
10.4648 0 1
10.5819 0 1
10.6991 0 1
10.8162 0 1
10.9334 0 1
11.0506 0 1
11.1678 0 1
11.285 0 1
11.4023 0 1
11.5196 0 1
11.6369 0 1
11.7542 0 1
11.8715 0 1
11.9888 0 1
12.1062 0 1
12.2235 0 1
12.3409 0 1
12.4582 0 1
12.5756 0 1
12.693 0 1
12.8104 0 1
12.9278 0 1
13.0452 0 1
13.1626 0 1
13.28 0 1
13.3974 0 1
13.5149 0 1
13.6323 0 1
13.7497 0 1
13.8671 0 1
13.9845 0 1
14.1019 0 1
14.2193 0 1
14.3367 0 1
14.4541 0 1
14.5714 0 1
14.6888 0 1
14.8062 0 1
14.9235 0 1
15.0408 0 0
15.1581 0 0
15.2755 0 0
15.3927 0 0
15.51 0 0
15.6273 0 0
15.7445 0 0
15.8617 0 0
15.9789 0 0
16.0961 0 0
16.2132 0 0
16.3304 0 0
16.4475 0 0
16.5646 0 0
16.6816 0 0
16.7986 0 0
16.9156 0 0
17.0326 0 0
17.1496 0 0
17.2665 0 0
17.3833 0 0
17.5002 0 0
17.617 0 0
17.7338 0 0
17.8505 0 0
17.9672 0 0
18.0839 0 0
18.2005 0 0
18.3171 0 0
18.4337 0 0
18.5502 0 0
18.6666 0 0
18.7831 0 0
18.8994 0 0
19.0158 0 0
19.1321 0 0
19.2483 0 0
19.3645 0 0
19.4806 0 0
19.5967 0 0
19.7128 0 0
19.8288 0 0
19.9447 0 0
20.0606 0 1
20.1764 0 1
20.2922 0 1
20.4079 0 1
20.5236 0 1
20.6392 0 1
20.7548 0 1
20.8702 0 1
23.3078 0 1
23.4233 0 1
23.539 0 1
23.6547 0 1
23.7704 0 1
23.8862 0 1
24.0021 0 1
24.118 0 1
24.234 0 1
24.35 0 1
24.4661 882 29.6985
24.5822 931 30.5123
24.6984 905 30.0832
24.8146 920 30.3315
24.9309 942 30.692
25.0472 965 31.0644
25.1636 982 31.3369
25.28 1019 31.9218
25.3965 948 30.7896
25.513 962 31.0161
25.6296 1067 32.665
25.7462 1031 32.1092
25.8628 1018 31.9061
25.9795 988 31.4325
26.0962 971 31.1609
26.213 1009 31.7648
26.3298 1030 32.0936
26.4466 978 31.273
26.5635 1002 31.6544
26.6804 981 31.3209
26.7973 963 31.0322
26.9143 865 29.4109
27.0313 921 30.348
27.1483 875 29.5804
27.2653 865 29.4109
27.3824 923 30.3809
27.4996 883 29.7153
27.6167 853 29.2062
27.7339 887 29.7825
27.8511 802 28.3196
27.9683 844 29.0517
28.0855 903 30.05
28.2028 856 29.2575
28.3201 863 29.3769
28.4374 881 29.6816
28.5547 915 30.249
28.6721 868 29.4618
28.7894 920 30.3315
28.9068 1007 31.7333
29.0242 958 30.9516
29.1416 922 30.3645
29.259 975 31.225
29.3764 968 31.1127
29.4939 958 30.9516
29.6113 925 30.4138
29.7288 960 30.9839
29.8463 909 30.1496
29.9638 922 30.3645
30.0812 926 30.4302
30.1987 930 30.4959
30.3162 880 29.6648
30.4337 836 28.9137
30.5512 811 28.4781
30.6687 797 28.2312
30.7862 834 28.8791
30.9037 892 29.8664
31.0212 840 28.9828
31.1387 833 28.8617
31.2562 816 28.5657
31.3737 877 29.6142
31.4912 769 27.7308
31.6087 845 29.0689
31.7262 832 28.8444
31.8436 857 29.2746
31.9611 947 30.7734
32.0785 865 29.4109
32.1959 912 30.1993
32.3134 917 30.282
32.4308 886 29.7658
32.5482 928 30.4631
32.6655 903 30.05
32.7829 852 29.189
32.9002 889 29.8161
33.0176 900 30
33.1349 958 30.9516
33.2522 902 30.0333
33.3694 955 30.9031
33.4867 874 29.5635
33.6039 927 30.4467
33.7211 955 30.9031
33.8383 899 29.9833
33.9554 901 30.0167
34.0725 833 28.8617
34.1896 832 28.8444
34.3067 741 27.2213
34.4237 785 28.0179
34.5407 804 28.3549
34.6577 858 29.2916
34.7746 794 28.178
34.8915 809 28.4429
35.0084 770 27.7489
35.1252 803 28.3373
35.242 807 28.4077
35.3587 781 27.9464
35.4755 779 27.9106
35.5921 881 29.6816
35.7088 841 29
35.8254 882 29.6985
35.9419 902 30.0333
36.0584 902 30.0333
36.1749 920 30.3315
36.2913 876 29.5973
36.4077 891 29.8496
36.524 896 29.9333
36.6403 862 29.3598
36.7565 822 28.6705
36.8727 892 29.8664
36.9889 794 28.178
37.1049 862 29.3598
37.221 0 1
37.3369 0 1
37.4529 0 1
37.5687 0 1
37.6845 0 1
37.8003 0 1
37.916 0 1
38.0316 0 1
38.1472 0 1
40.5851 0 1
40.7008 0 1
40.8164 0 1
40.9322 0 1
41.048 0 1
41.1639 0 1
41.2798 0 1
41.3958 0 1
41.5118 0 1
41.6279 0 1
41.744 744 27.2764
41.8602 738 27.1662
41.9765 727 26.9629
42.0928 747 27.3313
42.2091 775 27.8388
42.3255 761 27.5862
42.4419 762 27.6043
42.5584 753 27.4408
42.675 720 26.8328
42.7915 735 27.1109
42.9081 713 26.7021
43.0248 668 25.8457
43.1415 633 25.1595
43.2582 678 26.0384
43.375 685 26.1725
43.4918 691 26.2869
43.6087 672 25.923
43.7256 693 26.3249
43.8425 660 25.6905
43.9595 665 25.7876
44.0765 671 25.9037
44.1935 595 24.3926
44.3106 679 26.0576
44.4277 660 25.6905
44.5448 675 25.9808
44.6619 722 26.8701
44.7791 734 27.0924
44.8963 621 24.9199
45.0136 684 26.1534
45.1308 683 26.1343
45.2481 652 25.5343
45.3654 705 26.5518
45.4827 599 24.4745
45.6001 650 25.4951
45.7174 645 25.3969
45.8348 571 23.8956
45.9522 621 24.9199
46.0697 633 25.1595
46.1871 613 24.7588
46.3046 596 24.4131
46.422 587 24.2281
46.5395 559 23.6432
46.657 505 22.4722
46.7745 470 21.6795
46.892 496 22.2711
47.0096 475 21.7945
47.1271 553 23.516
47.2446 541 23.2594
47.3622 529 23
47.4797 512 22.6274
47.5973 480 21.9089
47.7149 479 21.8861
47.8324 505 22.4722
47.95 495 22.2486
48.0675 481 21.9317
48.1851 503 22.4277
48.3027 500 22.3607
48.4202 508 22.5389
48.5378 496 22.2711
48.6554 510 22.5832
48.7729 474 21.7715
48.8904 497 22.2935
49.008 476 21.8174
49.1255 516 22.7156
49.243 501 22.383
49.3605 509 22.561
49.478 495 22.2486
49.5955 507 22.5167
49.713 558 23.622
49.8304 505 22.4722
49.9479 518 22.7596
50.0653 527 22.9565
50.1827 510 22.5832
50.3001 416 20.3961
50.4175 485 22.0227
50.5348 450 21.2132
50.6521 493 22.2036
50.7694 501 22.383
50.8867 533 23.0868
51.004 522 22.8473
51.1212 566 23.7908
51.2384 521 22.8254
51.3556 570 23.8747
51.4727 558 23.622
51.5899 640 25.2982
51.707 635 25.1992
51.824 584 24.1661
51.9411 640 25.2982
52.0581 607 24.6374
52.175 641 25.318
52.2919 620 24.8998
52.4088 604 24.5764
52.5257 647 25.4362
52.6425 629 25.0799
52.7593 661 25.7099
52.876 631 25.1197
52.9927 710 26.6458
53.1094 646 25.4165
53.226 702 26.4953
53.3426 696 26.3818
53.4591 636 25.219
53.5756 659 25.671
53.692 664 25.7682
53.8084 710 26.6458
53.9248 610 24.6982
54.0411 571 23.8956
54.1573 569 23.8537
54.2735 0 1
54.3896 0 1
54.5057 0 1
54.6217 0 1
54.7377 0 1
54.8537 0 1
54.9695 0 1
55.0853 0 1
55.2011 0 1
55.3168 0 1
55.4324 0 1
57.824 0 1
57.9396 0 1
58.0553 0 1
58.1711 0 1
58.2869 0 1
58.4028 0 1
58.5187 0 1
58.6347 0 1
58.7508 0 1
58.8669 0 1
58.983 717 26.7769
59.0992 674 25.9615
59.2155 600 24.4949
59.3318 691 26.2869
59.4482 698 26.4197
59.5646 687 26.2107
59.681 722 26.8701
59.7975 739 27.1846
59.9141 676 26
60.0306 726 26.9444
60.1473 778 27.8927
60.2639 740 27.2029
60.3807 752 27.4226
60.4974 754 27.4591
60.6142 723 26.8887
60.731 714 26.7208
60.8479 714 26.7208
60.9648 731 27.037
61.0818 736 27.1293
61.1987 721 26.8514
61.3158 676 26
61.4328 773 27.8029
61.5499 764 27.6405
61.667 738 27.1662
61.7841 682 26.1151
61.9013 734 27.0924
62.0185 668 25.8457
62.1357 668 25.8457
62.253 659 25.671
62.3702 673 25.9422
62.4875 648 25.4558
62.6049 610 24.6982
62.7222 582 24.1247
62.8396 626 25.02
62.9569 588 24.2487
63.0743 610 24.6982
63.1918 663 25.7488
63.3092 580 24.0832
63.4267 655 25.593
63.5441 659 25.671
63.6616 644 25.3772
63.7791 641 25.318
63.8966 657 25.632
64.0142 643 25.3574
64.1317 640 25.2982
64.2492 606 24.6171
64.3668 613 24.7588
64.4843 621 24.9199
64.6019 591 24.3105
64.7195 656 25.6125
64.837 615 24.7992
64.9546 655 25.593
65.0722 598 24.454
65.1898 593 24.3516
65.3074 601 24.5153
65.4249 600 24.4949
65.5425 612 24.7386
65.6601 590 24.2899
65.7777 599 24.4745
65.8952 618 24.8596
66.0128 583 24.1454
66.1304 535 23.1301
66.2479 538 23.1948
66.3655 473 21.7486
66.483 538 23.1948
66.6005 562 23.7065
66.718 502 22.4054
66.8355 556 23.5797
66.953 588 24.2487
67.0705 563 23.7276
67.1879 599 24.4745
67.3054 601 24.5153
67.4228 597 24.4336
67.5402 593 24.3516
67.6576 554 23.5372
67.7749 570 23.8747
67.8923 546 23.3666
68.0096 532 23.0651
68.1269 560 23.6643
68.2442 559 23.6432
68.3614 545 23.3452
68.4787 551 23.4734
68.5958 535 23.1301
68.713 535 23.1301
68.8302 564 23.7487
68.9473 566 23.7908
69.0643 525 22.9129
69.1814 546 23.3666
69.2984 549 23.4307
69.4154 555 23.5584
69.5323 549 23.4307
69.6492 549 23.4307
69.7661 541 23.2594
69.8829 484 22
69.9997 431 20.7605
70.1165 496 22.2711
70.2332 503 22.4277
70.3499 507 22.5167
70.4665 486 22.0454
70.5831 512 22.6274
70.6996 540 23.2379
70.8161 519 22.7816
70.9326 529 23
71.049 469 21.6564
71.1653 501 22.383
71.2817 530 23.0217
71.3979 472 21.7256
71.5141 441 21
71.6303 420 20.4939
71.7464 457 21.3776
71.8624 0 1
71.9784 0 1
72.0944 0 1
72.2102 0 1
72.3261 0 1
72.4418 0 1
72.5575 0 1
72.6732 0 1
75.1054 0 1
75.2209 0 1
75.3365 0 1
75.4521 0 1
75.5678 0 1
75.6835 0 1
75.7993 0 1
75.9151 0 1
76.031 0 1
76.147 360 18.9737
76.263 388 19.6977
76.3791 416 20.3961
76.4952 414 20.347
76.6113 404 20.0998
76.7276 392 19.799
76.8438 438 20.9284
76.9601 374 19.3391
77.0765 392 19.799
77.1929 379 19.4679
77.3093 373 19.3132
77.4258 381 19.5192
77.5423 359 18.9473
77.6589 385 19.6214
77.7755 385 19.6214
77.8921 357 18.8944
78.0088 316 17.7764
78.1256 345 18.5742
78.2423 312 17.6635
78.3591 309 17.5784
78.4759 338 18.3848
78.5928 344 18.5472
78.7097 349 18.6815
78.8266 352 18.7617
78.9436 301 17.3494
79.0606 268 16.3707
79.1776 248 15.748
79.2946 226 15.0333
79.4117 274 16.5529
79.5288 254 15.9374
79.6459 294 17.1464
79.7631 268 16.3707
79.8802 284 16.8523
79.9974 292 17.088
80.1147 253 15.906
80.2319 252 15.8745
80.3491 243 15.5885
80.4664 239 15.4596
80.5837 226 15.0333
80.701 233 15.2643
80.8183 240 15.4919
80.9357 209 14.4568
81.053 226 15.0333
81.1704 231 15.1987
81.2877 211 14.5258
81.4051 194 13.9284
81.5225 195 13.9642
81.6399 211 14.5258
81.7573 200 14.1421
81.8747 206 14.3527
81.9922 181 13.4536
82.1096 164 12.8062
82.227 162 12.7279
82.3444 193 13.8924
82.4619 153 12.3693
82.5793 144 12
82.6967 163 12.7671
82.8142 143 11.9583
82.9316 126 11.225
83.049 110 10.4881
83.1664 129 11.3578
83.2838 127 11.2694
83.4012 120 10.9545
83.5186 108 10.3923
83.636 117 10.8167
83.7534 99 9.94987
83.8708 97 9.84886
83.9881 84 9.16515
84.1055 82 9.05539
84.2228 72 8.48528
84.3401 67 8.18535
84.4575 71 8.42615
84.5747 86 9.27362
84.692 84 9.16515
84.8093 63 7.93725
84.9265 68 8.24621
85.0437 76 8.7178
85.1609 59 7.68115
85.2781 78 8.83176
85.3952 67 8.18535
85.5123 68 8.24621
85.6294 63 7.93725
85.7465 61 7.81025
85.8636 67 8.18535
85.9806 71 8.42615
86.0976 56 7.48331
86.2145 39 6.245
86.3315 65 8.06226
86.4484 78 8.83176
86.5652 88 9.38083
86.682 94 9.69536
86.7988 86 9.27362
86.9156 73 8.544
87.0323 93 9.64365
87.149 98 9.89949
87.2657 92 9.59166
87.3823 98 9.89949
87.4988 102 10.0995
87.6154 110 10.4881
87.7318 104 10.198
87.8483 122 11.0454
87.9647 122 11.0454
88.081 127 11.2694
88.1973 139 11.7898
88.3136 175 13.2288
88.4298 160 12.6491
88.546 159 12.6095
88.6621 177 13.3041
88.7781 182 13.4907
88.8942 0 1
89.0101 0 1
89.126 0 1
89.2419 0 1
89.3577 0 1
89.4734 0 1
89.5891 0 1
89.7047 0 1
89.8203 0 1
89.9358 0 1
92.3269 0 1
92.4424 0 1
92.558 0 1
92.6736 0 1
92.7893 0 1
92.905 0 1
93.0208 0 1
93.1366 0 1
93.2525 0 1
93.3685 0 1
93.4845 0 1
93.6005 279 16.7033
93.7167 275 16.5831
93.8328 279 16.7033
93.949 301 17.3494
94.0653 260 16.1245
94.1816 234 15.2971
94.2979 223 14.9332
94.4143 246 15.6844
94.5307 195 13.9642
94.6472 234 15.2971
94.7637 197 14.0357
94.8803 216 14.6969
94.9969 213 14.5945
95.1135 205 14.3178
95.2302 216 14.6969
95.3469 215 14.6629
95.4637 158 12.5698
95.5805 159 12.6095
95.6973 216 14.6969
95.8142 218 14.7648
95.9311 258 16.0624
96.048 225 15
96.1649 280 16.7332
96.2819 268 16.3707
96.3989 268 16.3707
96.516 277 16.6433
96.633 302 17.3781
96.7501 271 16.4621
96.8673 281 16.7631
96.9844 339 18.412
97.1016 303 17.4069
97.2188 355 18.8414
97.336 329 18.1384
97.4532 332 18.2209
97.5704 332 18.2209
97.6877 340 18.4391
97.805 343 18.5203
97.9223 393 19.8242
98.0396 372 19.2873
98.1569 390 19.7484
98.2743 329 18.1384
98.3916 378 19.4422
98.509 437 20.9045
98.6264 414 20.347
98.7438 391 19.7737
98.8612 421 20.5183
98.9786 365 19.105
99.096 283 16.8226
99.2134 274 16.5529
99.3308 379 19.4679
99.4482 498 22.3159
99.5656 467 21.6102
99.6831 455 21.3307
99.8005 486 22.0454
99.9179 532 23.0651
100.035 488 22.0907
100.153 473 21.7486
100.27 515 22.6936
100.388 461 21.4709
100.505 524 22.891
100.622 539 23.2164
100.74 541 23.2594
100.857 525 22.9129
100.975 527 22.9565
101.092 535 23.1301
101.209 542 23.2809
101.327 626 25.02
101.444 574 23.9583
101.561 568 23.8328
101.679 576 24
101.796 552 23.4947
101.913 556 23.5797
102.03 577 24.0208
102.148 571 23.8956
102.265 599 24.4745
102.382 542 23.2809
102.499 538 23.1948
102.616 434 20.8327
102.733 380 19.4936
102.851 477 21.8403
102.968 580 24.0832
103.085 593 24.3516
103.202 587 24.2281
103.319 604 24.5764
103.436 577 24.0208
103.552 598 24.454
103.669 573 23.9374
103.786 628 25.0599
103.903 593 24.3516
104.02 564 23.7487
104.137 572 23.9165
104.253 610 24.6982
104.37 555 23.5584
104.487 644 25.3772
104.603 593 24.3516
104.72 612 24.7386
104.836 630 25.0998
104.953 643 25.3574
105.069 621 24.9199
105.186 628 25.0599
105.302 589 24.2693
105.418 639 25.2784
105.535 588 24.2487
105.651 623 24.96
105.767 615 24.7992
105.883 593 24.3516
105.999 469 21.6564
106.115 0 1
106.231 0 1
106.347 0 1
106.463 0 1
106.579 0 1
106.694 0 1
106.81 0 1
106.926 0 1
107.041 0 1
107.157 0 1
109.576 0 1
109.692 0 1
109.807 0 1
109.923 0 1
110.039 0 1
110.155 0 1
110.27 0 1
110.386 0 1
110.502 0 1
110.618 481 21.9317
110.735 475 21.7945
110.851 459 21.4243
110.967 475 21.7945
111.083 404 20.0998
111.199 370 19.2354
111.316 388 19.6977
111.432 375 19.3649
111.549 449 21.1896
111.665 471 21.7025
111.782 427 20.664
111.898 442 21.0238
112.015 435 20.8567
112.132 427 20.664
112.248 395 19.8746
112.365 392 19.799
112.482 404 20.0998
112.599 395 19.8746
112.716 370 19.2354
112.832 418 20.445
112.949 403 20.0749
113.066 365 19.105
113.183 420 20.4939
113.3 351 18.735
113.417 396 19.8997
113.534 352 18.7617
113.652 396 19.8997
113.769 372 19.2873
113.886 328 18.1108
114.003 383 19.5704
114.12 381 19.5192
114.238 311 17.6352
114.355 336 18.3303
114.472 301 17.3494
114.589 335 18.303
114.707 290 17.0294
114.824 316 17.7764
114.942 303 17.4069
115.059 329 18.1384
115.176 327 18.0831
115.294 351 18.735
115.411 370 19.2354
115.529 362 19.0263
115.646 350 18.7083
115.764 341 18.4662
115.881 358 18.9209
115.999 305 17.4642
116.116 311 17.6352
116.234 324 18
116.351 343 18.5203
116.469 315 17.7482
116.586 308 17.5499
116.704 323 17.9722
116.821 351 18.735
116.939 329 18.1384
117.056 331 18.1934
117.174 307 17.5214
117.291 308 17.5499
117.409 329 18.1384
117.526 325 18.0278
117.644 342 18.4932
117.761 326 18.0555
117.879 309 17.5784
117.996 252 15.8745
118.114 274 16.5529
118.231 312 17.6635
118.349 277 16.6433
118.466 320 17.8885
118.584 347 18.6279
118.701 344 18.5472
118.819 323 17.9722
118.936 338 18.3848
119.053 341 18.4662
119.171 336 18.3303
119.288 362 19.0263
119.405 352 18.7617
119.523 322 17.9444
119.64 318 17.8326
119.757 327 18.0831
119.875 331 18.1934
119.992 337 18.3576
120.109 336 18.3303
120.226 316 17.7764
120.343 318 17.8326
120.46 366 19.1311
120.578 357 18.8944
120.695 333 18.2483
120.812 370 19.2354
120.929 340 18.4391
121.046 351 18.735
121.163 358 18.9209
121.279 357 18.8944
121.396 357 18.8944
121.513 337 18.3576
121.63 271 16.4621
121.747 254 15.9374
121.863 229 15.1327
121.98 276 16.6132
122.097 328 18.1108
122.213 358 18.9209
122.33 365 19.105
122.446 376 19.3907
122.563 359 18.9473
122.679 369 19.2094
122.795 360 18.9737
122.912 398 19.9499
123.028 355 18.8414
123.144 370 19.2354
123.26 380 19.4936
123.377 0 1
123.493 0 1
123.609 0 1
123.725 0 1
123.84 0 1
123.956 0 1
124.072 0 1
124.188 0 1
124.303 0 1
124.419 0 1
126.852 0 1
126.968 0 1
127.083 0 1
127.199 0 1
127.315 0 1
127.431 0 1
127.547 0 1
127.663 0 1
127.779 0 1
127.895 0 1
128.011 0 1
128.127 0 1
128.243 0 1
128.359 474 21.7715
128.476 539 23.2164
128.592 452 21.2603
128.708 521 22.8254
128.825 493 22.2036
128.941 495 22.2486
129.058 465 21.5639
129.174 489 22.1133
129.291 491 22.1585
129.408 451 21.2368
129.524 489 22.1133
129.641 530 23.0217
129.758 499 22.3383
129.875 500 22.3607
129.992 521 22.8254
130.108 510 22.5832
130.225 509 22.561
130.342 423 20.567
130.459 434 20.8327
130.576 376 19.3907
130.693 337 18.3576
130.81 314 17.72
130.928 327 18.0831
131.045 408 20.199
131.162 474 21.7715
131.279 490 22.1359
131.396 487 22.0681
131.513 531 23.0434
131.631 538 23.1948
131.748 512 22.6274
131.865 529 23
131.983 509 22.561
132.1 522 22.8473
132.217 505 22.4722
132.335 518 22.7596
132.452 499 22.3383
132.57 544 23.3238
132.687 484 22
132.804 569 23.8537
132.922 551 23.4734
133.039 501 22.383
133.157 540 23.2379
133.274 544 23.3238
133.392 541 23.2594
133.509 533 23.0868
133.627 485 22.0227
133.744 492 22.1811
133.862 490 22.1359
133.979 484 22
134.097 434 20.8327
134.214 382 19.5448
134.332 348 18.6548
134.449 350 18.7083
134.567 402 20.0499
134.684 478 21.8632
134.802 504 22.4499
134.919 477 21.8403
135.037 572 23.9165
135.154 612 24.7386
135.272 575 23.9792
135.389 569 23.8537
135.507 571 23.8956
135.624 578 24.0416
135.742 536 23.1517
135.859 604 24.5764
135.977 592 24.3311
136.094 574 23.9583
136.211 612 24.7386
136.329 579 24.0624
136.446 607 24.6374
136.564 584 24.1661
136.681 583 24.1454
136.798 562 23.7065
136.915 624 24.98
137.033 587 24.2281
137.15 572 23.9165
137.267 608 24.6577
137.384 590 24.2899
137.502 548 23.4094
137.619 478 21.8632
137.736 486 22.0454
137.853 424 20.5913
137.97 432 20.7846
138.087 471 21.7025
138.204 457 21.3776
138.321 462 21.4942
138.438 543 23.3024
138.555 592 24.3311
138.672 602 24.5357
138.788 598 24.454
138.905 606 24.6171
139.022 637 25.2389
139.139 621 24.9199
139.255 649 25.4755
139.372 651 25.5147
139.488 653 25.5539
139.605 652 25.5343
139.721 648 25.4558
139.838 604 24.5764
139.954 695 26.3629
140.071 604 24.5764
140.187 627 25.04
140.303 648 25.4558
140.419 638 25.2587
140.535 632 25.1396
140.652 679 26.0576
140.768 0 1
140.884 0 1
141 0 1
141.115 0 1
141.231 0 1
141.347 0 1
141.463 0 1
141.578 0 1
141.694 0 1
144.104 0 1
144.219 0 1
144.335 0 1
144.45 0 1
144.566 0 1
144.682 0 1
144.798 0 1
144.914 0 1
145.03 0 1
145.146 603 24.5561
145.262 594 24.3721
145.378 650 25.4951
145.494 593 24.3516
145.61 623 24.96
145.726 586 24.2074
145.842 601 24.5153
145.959 550 23.4521
146.075 548 23.4094
146.192 535 23.1301
146.308 542 23.2809
146.425 478 21.8632
146.541 407 20.1742
146.658 470 21.6795
146.774 500 22.3607
146.891 483 21.9773
147.008 573 23.9374
147.125 554 23.5372
147.241 610 24.6982
147.358 544 23.3238
147.475 601 24.5153
147.592 625 25
147.709 606 24.6171
147.826 646 25.4165
147.943 638 25.2587
148.06 604 24.5764
148.177 600 24.4949
148.294 628 25.0599
148.411 602 24.5357
148.528 645 25.3969
148.645 570 23.8747
148.762 590 24.2899
148.88 604 24.5764
148.997 564 23.7487
149.114 622 24.9399
149.231 601 24.5153
149.349 546 23.3666
149.466 557 23.6008
149.583 576 24
149.701 546 23.3666
149.818 551 23.4734
149.935 483 21.9773
150.053 476 21.8174
150.17 494 22.2261
150.287 494 22.2261
150.405 476 21.8174
150.522 506 22.4944
150.64 532 23.0651
150.757 553 23.516
150.875 529 23
150.992 633 25.1595
151.11 605 24.5967
151.227 591 24.3105
151.344 594 24.3721
151.462 622 24.9399
151.579 609 24.6779
151.697 648 25.4558
151.814 641 25.318
151.932 598 24.454
152.049 599 24.4745
152.167 589 24.2693
152.284 626 25.02
152.402 584 24.1661
152.519 653 25.5539
152.636 602 24.5357
152.754 661 25.7099
152.871 660 25.6905
152.989 653 25.5539
153.106 622 24.9399
153.223 591 24.3105
153.341 606 24.6171
153.458 523 22.8692
153.575 509 22.561
153.693 489 22.1133
153.81 544 23.3238
153.927 559 23.6432
154.044 606 24.6171
154.162 553 23.516
154.279 599 24.4745
154.396 601 24.5153
154.513 652 25.5343
154.63 668 25.8457
154.747 618 24.8596
154.864 636 25.219
154.981 668 25.8457
155.098 679 26.0576
155.215 656 25.6125
155.332 682 26.1151
155.449 670 25.8844
155.566 658 25.6515
155.683 633 25.1595
155.8 636 25.219
155.917 705 26.5518
156.033 665 25.7876
156.15 0 1
156.267 0 1
156.383 0 1
156.5 0 1
156.617 0 1
156.733 0 1
156.85 0 1
156.966 0 1
157.082 0 1
157.199 0 1
157.315 0 1
157.431 0 1
157.547 0 1
157.664 0 1
157.78 0 1
157.896 0 1
158.012 0 1
158.128 0 1
158.244 0 1
158.359 0 1
158.475 0 1
158.591 0 1
158.706 0 1
