
6.15755 0 1
6.2731 0 1
6.3887 0 1
6.50437 0 1
6.62009 0 1
6.73587 0 1
6.8517 0 1
6.96759 0 1
7.08353 0 1
7.19952 0 1
7.31557 0 1
7.43166 0 1
7.54781 0 1
7.664 0 1
7.78024 0 1
7.89653 0 1
8.01286 0 1
8.12924 0 1
8.24567 0 1
8.36213 0 1
8.47864 0 1
8.59519 0 1
8.71178 0 1
8.82841 0 1
8.94508 0 1
9.06179 0 1
9.17853 0 1
9.29531 0 1
9.41212 0 1
9.52897 0 1
9.64584 0 1
9.76276 0 1
9.8797 0 1
9.99667 0 1
10.1137 0 1
10.2307 0 1
10.3478 0 1
10.4648 0 1
10.5819 0 1
10.6991 0 1
10.8162 0 1
10.9334 0 1
11.0506 0 1
11.1678 0 1
11.285 0 1
11.4023 0 1
11.5196 0 1
11.6369 0 1
11.7542 0 1
11.8715 0 1
11.9888 0 1
12.1062 0 1
12.2235 0 1
12.3409 0 1
12.4582 0 1
12.5756 0 1
12.693 0 1
12.8104 0 1
12.9278 0 1
13.0452 0 1
13.1626 0 1
13.28 0 1
13.3974 0 1
13.5149 0 1
13.6323 0 1
13.7497 0 1
13.8671 0 1
13.9845 0 1
14.1019 0 1
14.2193 0 1
14.3367 0 1
14.4541 0 1
14.5714 0 1
14.6888 0 1
14.8062 0 1
14.9235 0 1
15.0408 898 29.9666
15.1581 964 31.0483
15.2755 968 31.1127
15.3927 1027 32.0468
15.51 962 31.0161
15.6273 1029 32.078
15.7445 1040 32.249
15.8617 1006 31.7175
15.9789 1017 31.8904
16.0961 988 31.4325
16.2132 979 31.289
16.3304 1001 31.6386
16.4475 1052 32.4345
16.5646 1086 32.9545
16.6816 1132 33.6452
16.7986 1174 34.2637
16.9156 1163 34.1028
17.0326 1212 34.8138
17.1496 1189 34.4819
17.2665 1245 35.2846
17.3833 1153 33.9559
17.5002 1141 33.7787
17.617 1125 33.541
17.7338 1092 33.0454
17.8505 1023 31.9844
17.9672 1062 32.5883
18.0839 1034 32.1559
18.2005 1075 32.7872
18.3171 1104 33.2265
18.4337 1079 32.8481
18.5502 1089 33
18.6666 1131 33.6303
18.7831 1193 34.5398
18.8994 1175 34.2783
19.0158 1193 34.5398
19.1321 1111 33.3317
19.2483 1081 32.8786
19.3645 981 31.3209
19.4806 938 30.6268
19.5967 859 29.3087
19.7128 816 28.5657
19.8288 767 27.6948
19.9447 700 26.4575
20.0606 0 1
20.1764 0 1
20.2922 0 1
20.4079 0 1
20.5236 0 1
20.6392 0 1
20.7548 0 1
20.8702 0 1
23.3078 0 1
23.4233 0 1
23.539 0 1
23.6547 0 1
23.7704 0 1
23.8862 0 1
24.0021 0 1
24.118 0 1
24.234 0 1
24.35 0 1
24.4661 488 22.0907
24.5822 551 23.4734
24.6984 589 24.2693
24.8146 703 26.5141
24.9309 686 26.1916
25.0472 793 28.1603
25.1636 826 28.7402
25.28 922 30.3645
25.3965 991 31.4802
25.513 1053 32.45
25.6296 1119 33.4515
25.7462 1231 35.0856
25.8628 1259 35.4824
25.9795 1246 35.2987
26.0962 1308 36.1663
26.213 1181 34.3657
26.3298 1124 33.5261
26.4466 1068 32.6803
26.5635 1084 32.9242
26.6804 1078 32.8329
26.7973 1081 32.8786
26.9143 1094 33.0757
27.0313 1170 34.2053
27.1483 1141 33.7787
27.2653 1242 35.242
27.3824 1224 34.9857
27.4996 1161 34.0735
27.6167 1184 34.4093
27.7339 1126 33.5559
27.8511 1141 33.7787
27.9683 1165 34.1321
28.0855 1076 32.8024
28.2028 1062 32.5883
28.3201 1006 31.7175
28.4374 984 31.3688
28.5547 967 31.0966
28.6721 1031 32.1092
28.7894 1007 31.7333
28.9068 1127 33.5708
29.0242 1171 34.2199
29.1416 1218 34.8999
29.259 1195 34.5688
29.3764 1194 34.5543
29.4939 1174 34.2637
29.6113 1189 34.4819
29.7288 1125 33.541
29.8463 1050 32.4037
29.9638 1030 32.0936
30.0812 1008 31.749
30.1987 1033 32.1403
30.3162 1028 32.0624
30.4337 1058 32.5269
30.5512 1063 32.6037
30.6687 1164 34.1174
30.7862 1156 34
30.9037 1119 33.4515
31.0212 1119 33.4515
31.1387 1134 33.6749
31.2562 1141 33.7787
31.3737 1115 33.3916
31.4912 1120 33.4664
31.6087 1038 32.218
31.7262 1002 31.6544
31.8436 999 31.607
31.9611 1000 31.6228
32.0785 952 30.8545
32.1959 975 31.225
32.3134 1031 32.1092
32.4308 1058 32.5269
32.5482 1111 33.3317
32.6655 1188 34.4674
32.7829 1151 33.9264
32.9002 1111 33.3317
33.0176 1175 34.2783
33.1349 1169 34.1906
33.2522 1126 33.5559
33.3694 1059 32.5423
33.4867 1062 32.5883
33.6039 1021 31.9531
33.7211 921 30.348
33.8383 923 30.3809
33.9554 1000 31.6228
34.0725 1004 31.686
34.1896 1023 31.9844
34.3067 1083 32.909
34.4237 1096 33.1059
34.5407 1084 32.9242
34.6577 1015 31.8591
34.7746 1051 32.4191
34.8915 1158 34.0294
35.0084 1054 32.4654
35.1252 982 31.3369
35.242 1013 31.8277
35.3587 1039 32.2335
35.4755 993 31.5119
35.5921 925 30.4138
35.7088 869 29.4788
35.8254 942 30.692
35.9419 890 29.8329
36.0584 995 31.5436
36.1749 984 31.3688
36.2913 995 31.5436
36.4077 977 31.257
36.524 950 30.8221
36.6403 979 31.289
36.7565 895 29.9166
36.8727 914 30.2324
36.9889 821 28.6531
37.1049 784 28
37.221 0 1
37.3369 0 1
37.4529 0 1
37.5687 0 1
37.6845 0 1
37.8003 0 1
37.916 0 1
38.0316 0 1
38.1472 0 1
40.5851 0 1
40.7008 0 1
40.8164 0 1
40.9322 0 1
41.048 0 1
41.1639 0 1
41.2798 0 1
41.3958 0 1
41.5118 0 1
41.6279 0 1
41.744 517 22.7376
41.8602 568 23.8328
41.9765 617 24.8395
42.0928 613 24.7588
42.2091 641 25.318
42.3255 614 24.779
42.4419 629 25.0799
42.5584 620 24.8998
42.675 678 26.0384
42.7915 767 27.6948
42.9081 817 28.5832
43.0248 815 28.5482
43.1415 921 30.348
43.2582 923 30.3809
43.375 950 30.8221
43.4918 895 29.9166
43.6087 919 30.315
43.7256 917 30.282
43.8425 911 30.1828
43.9595 900 30
44.0765 882 29.6985
44.1935 871 29.5127
44.3106 842 29.0172
44.4277 767 27.6948
44.5448 730 27.0185
44.6619 728 26.9815
44.7791 837 28.931
44.8963 843 29.0345
45.0136 855 29.2404
45.1308 940 30.6594
45.2481 892 29.8664
45.3654 871 29.5127
45.4827 914 30.2324
45.6001 946 30.7571
45.7174 925 30.4138
45.8348 871 29.5127
45.9522 823 28.688
46.0697 790 28.1069
46.1871 776 27.8568
46.3046 707 26.5895
46.422 760 27.5681
46.5395 842 29.0172
46.657 944 30.7246
46.7745 928 30.4631
46.892 916 30.2655
47.0096 902 30.0333
47.1271 898 29.9666
47.2446 966 31.0805
47.3622 947 30.7734
47.4797 950 30.8221
47.5973 892 29.8664
47.7149 861 29.3428
47.8324 878 29.6311
47.95 786 28.0357
48.0675 738 27.1662
48.1851 745 27.2947
48.3027 789 28.0891
48.4202 839 28.9655
48.5378 851 29.1719
48.6554 936 30.5941
48.7729 923 30.3809
48.8904 915 30.249
49.008 932 30.5287
49.1255 905 30.0832
49.243 912 30.1993
49.3605 853 29.2062
49.478 767 27.6948
49.5955 720 26.8328
49.713 766 27.6767
49.8304 724 26.9072
49.9479 851 29.1719
50.0653 858 29.2916
50.1827 865 29.4109
50.3001 925 30.4138
50.4175 927 30.4467
50.5348 919 30.315
50.6521 906 30.0998
50.7694 978 31.273
50.8867 973 31.1929
51.004 895 29.9166
51.1212 860 29.3258
51.2384 897 29.95
51.3556 859 29.3087
51.4727 798 28.2489
51.5899 722 26.8701
51.707 700 26.4575
51.824 766 27.6767
51.9411 868 29.4618
52.0581 815 28.5482
52.175 908 30.133
52.2919 912 30.1993
52.4088 918 30.2985
52.5257 868 29.4618
52.6425 1019 31.9218
52.7593 900 30
52.876 889 29.8161
52.9927 826 28.7402
53.1094 769 27.7308
53.226 794 28.178
53.3426 760 27.5681
53.4591 710 26.6458
53.5756 692 26.3059
53.692 725 26.9258
53.8084 733 27.074
53.9248 711 26.6646
54.0411 685 26.1725
54.1573 608 24.6577
54.2735 0 1
54.3896 0 1
54.5057 0 1
54.6217 0 1
54.7377 0 1
54.8537 0 1
54.9695 0 1
55.0853 0 1
55.2011 0 1
55.3168 0 1
55.4324 0 1
57.824 0 1
57.9396 0 1
58.0553 0 1
58.1711 0 1
58.2869 0 1
58.4028 0 1
58.5187 0 1
58.6347 0 1
58.7508 0 1
58.8669 0 1
58.983 629 25.0799
59.0992 736 27.1293
59.2155 814 28.5307
59.3318 900 30
59.4482 959 30.9677
59.5646 1032 32.1248
59.681 1012 31.8119
59.7975 1019 31.9218
59.9141 1077 32.8177
60.0306 1048 32.3728
60.1473 997 31.5753
60.2639 994 31.5278
60.3807 977 31.257
60.4974 974 31.209
60.6142 983 31.3528
60.731 1037 32.2025
60.8479 1114 33.3766
60.9648 1231 35.0856
61.0818 1214 34.8425
61.1987 1249 35.3412
61.3158 1234 35.1283
61.4328 1118 33.4365
61.5499 1077 32.8177
61.667 1041 32.2645
61.7841 956 30.9192
61.9013 935 30.5778
62.0185 873 29.5466
62.1357 943 30.7083
62.253 1064 32.619
62.3702 1028 32.0624
62.4875 1074 32.7719
62.6049 1171 34.2199
62.7222 1218 34.8999
62.8396 1186 34.4384
62.9569 1168 34.176
63.0743 1184 34.4093
63.1918 1169 34.1906
63.3092 1119 33.4515
63.4267 1169 34.1906
63.5441 1145 33.8378
63.6616 1038 32.218
63.7791 989 31.4484
63.8966 895 29.9166
64.0142 926 30.4302
64.1317 1014 31.8434
64.2492 1028 32.0624
64.3668 1160 34.0588
64.4843 1152 33.9411
64.6019 1166 34.1467
64.7195 1142 33.7935
64.837 1130 33.6155
64.9546 1170 34.2053
65.0722 1148 33.8821
65.1898 1056 32.4962
65.3074 954 30.8869
65.4249 966 31.0805
65.5425 849 29.1376
65.6601 971 31.1609
65.7777 984 31.3688
65.8952 1052 32.4345
66.0128 1069 32.6956
66.1304 1086 32.9545
66.2479 1168 34.176
66.3655 1167 34.1614
66.483 1160 34.0588
66.6005 1215 34.8569
66.718 1180 34.3511
66.8355 1134 33.6749
66.953 1163 34.1028
67.0705 1103 33.2114
67.1879 1109 33.3017
67.3054 1030 32.0936
67.4228 1023 31.9844
67.5402 917 30.282
67.6576 932 30.5287
67.7749 948 30.7896
67.8923 1051 32.4191
68.0096 1169 34.1906
68.1269 1154 33.9706
68.2442 1257 35.4542
68.3614 1234 35.1283
68.4787 1252 35.3836
68.5958 1258 35.4683
68.713 1227 35.0286
68.8302 1161 34.0735
68.9473 1081 32.8786
69.0643 985 31.3847
69.1814 933 30.545
69.2984 995 31.5436
69.4154 1113 33.3617
69.5323 1154 33.9706
69.6492 1250 35.3553
69.7661 1312 36.2215
69.8829 1330 36.4692
69.9997 1313 36.2353
70.1165 1286 35.8608
70.2332 1262 35.5246
70.3499 1241 35.2278
70.4665 1155 33.9853
70.5831 1165 34.1321
70.6996 1097 33.121
70.8161 1057 32.5115
70.9326 879 29.6479
71.049 788 28.0713
71.1653 633 25.1595
71.2817 566 23.7908
71.3979 525 22.9129
71.5141 507 22.5167
71.6303 485 22.0227
71.7464 459 21.4243
71.8624 0 1
71.9784 0 1
72.0944 0 1
72.2102 0 1
72.3261 0 1
72.4418 0 1
72.5575 0 1
72.6732 0 1
75.1054 0 1
75.2209 0 1
75.3365 0 1
75.4521 0 1
75.5678 0 1
75.6835 0 1
75.7993 0 1
75.9151 0 1
76.031 0 1
76.147 757 27.5136
76.263 899 29.9833
76.3791 851 29.1719
76.4952 897 29.95
76.6113 810 28.4605
76.7276 896 29.9333
76.8438 958 30.9516
76.9601 1091 33.0303
77.0765 1016 31.8748
77.1929 1033 32.1403
77.3093 1065 32.6343
77.4258 1059 32.5423
77.5423 1124 33.5261
77.6589 1061 32.573
77.7755 991 31.4802
77.8921 888 29.7993
78.0088 781 27.9464
78.1256 770 27.7489
78.2423 763 27.6225
78.3591 752 27.4226
78.4759 886 29.7658
78.5928 910 30.1662
78.7097 1013 31.8277
78.8266 965 31.0644
78.9436 1004 31.686
79.0606 1012 31.8119
79.1776 1048 32.3728
79.2946 1063 32.6037
79.4117 1051 32.4191
79.5288 1039 32.2335
79.6459 1049 32.3883
79.7631 933 30.545
79.8802 985 31.3847
79.9974 908 30.133
80.1147 881 29.6816
80.2319 773 27.8029
80.3491 780 27.9285
80.4664 825 28.7228
80.5837 931 30.5123
80.701 984 31.3688
80.8183 972 31.1769
80.9357 1043 32.2955
81.053 1018 31.9061
81.1704 1022 31.9687
81.2877 1032 32.1248
81.4051 1015 31.8591
81.5225 979 31.289
81.6399 856 29.2575
81.7573 804 28.3549
81.8747 812 28.4956
81.9922 790 28.1069
82.1096 830 28.8097
82.227 912 30.1993
82.3444 893 29.8831
82.4619 976 31.241
82.5793 959 30.9677
82.6967 1050 32.4037
82.8142 1100 33.1662
82.9316 1059 32.5423
83.049 1126 33.5559
83.1664 1099 33.1512
83.2838 1038 32.218
83.4012 1007 31.7333
83.5186 1047 32.3574
83.636 945 30.7409
83.7534 910 30.1662
83.8708 848 29.1204
83.9881 795 28.1957
84.1055 800 28.2843
84.2228 860 29.3258
84.3401 951 30.8383
84.4575 1017 31.8904
84.5747 1084 32.9242
84.692 1114 33.3766
84.8093 1054 32.4654
84.9265 1086 32.9545
85.0437 1023 31.9844
85.1609 949 30.8058
85.2781 836 28.9137
85.3952 833 28.8617
85.5123 803 28.3373
85.6294 813 28.5132
85.7465 936 30.5941
85.8636 957 30.9354
85.9806 985 31.3847
86.0976 1036 32.187
86.2145 1050 32.4037
86.3315 1096 33.1059
86.4484 1128 33.5857
86.5652 1118 33.4365
86.682 1163 34.1028
86.7988 1091 33.0303
86.9156 1055 32.4808
87.0323 1042 32.28
87.149 984 31.3688
87.2657 971 31.1609
87.3823 837 28.931
87.4988 752 27.4226
87.6154 706 26.5707
87.7318 760 27.5681
87.8483 765 27.6586
87.9647 871 29.5127
88.081 804 28.3549
88.1973 867 29.4449
88.3136 766 27.6767
88.4298 774 27.8209
88.546 736 27.1293
88.6621 630 25.0998
88.7781 458 21.4009
88.8942 0 1
89.0101 0 1
89.126 0 1
89.2419 0 1
89.3577 0 1
89.4734 0 1
89.5891 0 1
89.7047 0 1
89.8203 0 1
89.9358 0 1
92.3269 0 1
92.4424 0 1
92.558 0 1
92.6736 0 1
92.7893 0 1
92.905 0 1
93.0208 0 1
93.1366 0 1
93.2525 0 1
93.3685 0 1
93.4845 0 1
93.6005 688 26.2298
93.7167 846 29.0861
93.8328 801 28.3019
93.949 825 28.7228
94.0653 916 30.2655
94.1816 916 30.2655
94.2979 867 29.4449
94.4143 847 29.1033
94.5307 843 29.0345
94.6472 814 28.5307
94.7637 778 27.8927
94.8803 854 29.2233
94.9969 904 30.0666
95.1135 1012 31.8119
95.2302 1018 31.9061
95.3469 1083 32.909
95.4637 1096 33.1059
95.5805 995 31.5436
95.6973 1062 32.5883
95.8142 1111 33.3317
95.9311 1094 33.0757
96.048 1087 32.9697
96.1649 1109 33.3017
96.2819 1093 33.0606
96.3989 1005 31.7017
96.516 929 30.4795
96.633 907 30.1164
96.7501 804 28.3549
96.8673 818 28.6007
96.9844 838 28.9482
97.1016 926 30.4302
97.2188 994 31.5278
97.336 1089 33
97.4532 1066 32.6497
97.5704 1084 32.9242
97.6877 1104 33.2265
97.805 1038 32.218
97.9223 978 31.273
98.0396 952 30.8545
98.1569 888 29.7993
98.2743 808 28.4253
98.3916 794 28.178
98.509 839 28.9655
98.6264 984 31.3688
98.7438 1017 31.8904
98.8612 994 31.5278
98.9786 1103 33.2114
99.096 1008 31.749
99.2134 1104 33.2265
99.3308 1162 34.0881
99.4482 1118 33.4365
99.5656 1143 33.8083
99.6831 1165 34.1321
99.8005 1137 33.7194
99.9179 1098 33.1361
100.035 1031 32.1092
100.153 1008 31.749
100.27 911 30.1828
100.388 884 29.7321
100.505 916 30.2655
100.622 979 31.289
100.74 1032 32.1248
100.857 1065 32.6343
100.975 1120 33.4664
101.092 1122 33.4963
101.209 1154 33.9706
101.327 1136 33.7046
101.444 1073 32.7567
101.561 1048 32.3728
101.679 945 30.7409
101.796 851 29.1719
101.913 818 28.6007
102.03 821 28.6531
102.148 914 30.2324
102.265 1003 31.6702
102.382 1164 34.1174
102.499 1140 33.7639
102.616 1154 33.9706
102.733 1222 34.9571
102.851 1099 33.1512
102.968 1157 34.0147
103.085 1262 35.5246
103.202 1203 34.6843
103.319 1196 34.5832
103.436 1214 34.8425
103.552 1093 33.0606
103.669 1056 32.4962
103.786 969 31.1288
103.903 962 31.0161
104.02 966 31.0805
104.137 972 31.1769
104.253 1087 32.9697
104.37 1201 34.6554
104.487 1237 35.171
104.603 1151 33.9264
104.72 1160 34.0588
104.836 1118 33.4365
104.953 1028 32.0624
105.069 891 29.8496
105.186 853 29.2062
105.302 848 29.1204
105.418 777 27.8747
105.535 735 27.1109
105.651 763 27.6225
105.767 781 27.9464
105.883 766 27.6767
105.999 708 26.6083
106.115 0 1
106.231 0 1
106.347 0 1
106.463 0 1
106.579 0 1
106.694 0 1
106.81 0 1
106.926 0 1
107.041 0 1
107.157 0 1
109.576 0 1
109.692 0 1
109.807 0 1
109.923 0 1
110.039 0 1
110.155 0 1
110.27 0 1
110.386 0 1
110.502 0 1
110.618 460 21.4476
110.735 578 24.0416
110.851 750 27.3861
110.967 813 28.5132
111.083 956 30.9192
111.199 979 31.289
111.316 1008 31.749
111.432 1061 32.573
111.549 1089 33
111.665 1090 33.0151
111.782 1081 32.8786
111.898 1136 33.7046
112.015 1057 32.5115
112.132 1008 31.749
112.248 967 31.0966
112.365 863 29.3769
112.482 853 29.2062
112.599 873 29.5466
112.716 955 30.9031
112.832 985 31.3847
112.949 1089 33
113.066 1105 33.2415
113.183 1105 33.2415
113.3 1053 32.45
113.417 1126 33.5559
113.534 1009 31.7648
113.652 935 30.5778
113.769 881 29.6816
113.886 776 27.8568
114.003 746 27.313
114.12 815 28.5482
114.238 863 29.3769
114.355 1016 31.8748
114.472 987 31.4166
114.589 1082 32.8938
114.707 1107 33.2716
114.824 1045 32.3265
114.942 1052 32.4345
115.059 1165 34.1321
115.176 1136 33.7046
115.294 1114 33.3766
115.411 1101 33.1813
115.529 1056 32.4962
115.646 976 31.241
115.764 948 30.7896
115.881 895 29.9166
115.999 825 28.7228
116.116 826 28.7402
116.234 952 30.8545
116.351 1047 32.3574
116.469 1032 32.1248
116.586 1042 32.28
116.704 1074 32.7719
116.821 1047 32.3574
116.939 1018 31.9061
117.056 1114 33.3766
117.174 959 30.9677
117.291 905 30.0832
117.409 876 29.5973
117.526 755 27.4773
117.644 794 28.178
117.761 854 29.2233
117.879 920 30.3315
117.996 901 30.0167
118.114 1065 32.6343
118.231 1022 31.9687
118.349 1039 32.2335
118.466 1104 33.2265
118.584 1037 32.2025
118.701 1080 32.8634
118.819 1093 33.0606
118.936 1066 32.6497
119.053 997 31.5753
119.171 1057 32.5115
119.288 944 30.7246
119.405 890 29.8329
119.523 785 28.0179
119.64 781 27.9464
119.757 868 29.4618
119.875 862 29.3598
119.992 913 30.2159
120.109 1020 31.9374
120.226 1015 31.8591
120.343 1068 32.6803
120.46 1007 31.7333
120.578 1008 31.749
120.695 976 31.241
120.812 944 30.7246
120.929 874 29.5635
121.046 821 28.6531
121.163 754 27.4591
121.279 794 28.178
121.396 763 27.6225
121.513 807 28.4077
121.63 814 28.5307
121.747 884 29.7321
121.863 904 30.0666
121.98 854 29.2233
122.097 895 29.9166
122.213 876 29.5973
122.33 867 29.4449
122.446 882 29.6985
122.563 827 28.7576
122.679 710 26.6458
122.795 708 26.6083
122.912 611 24.7184
123.028 566 23.7908
123.144 493 22.2036
123.26 423 20.567
123.377 0 1
123.493 0 1
123.609 0 1
123.725 0 1
123.84 0 1
123.956 0 1
124.072 0 1
124.188 0 1
124.303 0 1
124.419 0 1
126.852 0 1
126.968 0 1
127.083 0 1
127.199 0 1
127.315 0 1
127.431 0 1
127.547 0 1
127.663 0 1
127.779 0 1
127.895 0 1
128.011 0 1
128.127 0 1
128.243 0 1
128.359 1092 33.0454
128.476 1113 33.3617
128.592 1093 33.0606
128.708 1015 31.8591
128.825 1097 33.121
128.941 1131 33.6303
129.058 1161 34.0735
129.174 1281 35.7911
129.291 1250 35.3553
129.408 1299 36.0416
129.524 1321 36.3456
129.641 1292 35.9444
129.758 1268 35.609
129.875 1138 33.7343
129.992 1057 32.5115
130.108 1034 32.1559
130.225 1007 31.7333
130.342 963 31.0322
130.459 985 31.3847
130.576 1105 33.2415
130.693 1142 33.7935
130.81 1124 33.5261
130.928 1271 35.6511
131.045 1235 35.1426
131.162 1247 35.3129
131.279 1271 35.6511
131.396 1279 35.7631
131.513 1246 35.2987
131.631 1218 34.8999
131.748 1207 34.7419
131.865 1179 34.3366
131.983 1184 34.4093
132.1 1133 33.6601
132.217 1050 32.4037
132.335 1107 33.2716
132.452 1031 32.1092
132.57 1202 34.6699
132.687 1299 36.0416
132.804 1284 35.8329
132.922 1266 35.5809
133.039 1231 35.0856
133.157 1357 36.8375
133.274 1183 34.3948
133.392 1230 35.0714
133.509 1185 34.4238
133.627 1073 32.7567
133.744 1002 31.6544
133.862 1016 31.8748
133.979 1018 31.9061
134.097 1045 32.3265
134.214 1154 33.9706
134.332 1207 34.7419
134.449 1231 35.0856
134.567 1290 35.9166
134.684 1245 35.2846
134.802 1227 35.0286
134.919 1268 35.609
135.037 1275 35.7071
135.154 1272 35.6651
135.272 1228 35.0428
135.389 1195 34.5688
135.507 1192 34.5254
135.624 1218 34.8999
135.742 1080 32.8634
135.859 1108 33.2866
135.977 1109 33.3017
136.094 1113 33.3617
136.211 1232 35.0999
136.329 1235 35.1426
136.446 1323 36.3731
136.564 1256 35.4401
136.681 1279 35.7631
136.798 1245 35.2846
136.915 1277 35.7351
137.033 1172 34.2345
137.15 1153 33.9559
137.267 1092 33.0454
137.384 995 31.5436
137.502 947 30.7734
137.619 951 30.8383
137.736 1037 32.2025
137.853 1070 32.7109
137.97 1170 34.2053
138.087 1169 34.1906
138.204 1196 34.5832
138.321 1197 34.5977
138.438 1263 35.5387
138.555 1239 35.1994
138.672 1149 33.8969
138.788 1108 33.2866
138.905 1123 33.5112
139.022 1044 32.311
139.139 1016 31.8748
139.255 942 30.692
139.372 813 28.5132
139.488 776 27.8568
139.605 793 28.1603
139.721 729 27
139.838 743 27.258
139.954 728 26.9815
140.071 767 27.6948
140.187 659 25.671
140.303 639 25.2784
140.419 590 24.2899
140.535 555 23.5584
140.652 500 22.3607
140.768 0 1
140.884 0 1
141 0 1
141.115 0 1
141.231 0 1
141.347 0 1
141.463 0 1
141.578 0 1
141.694 0 1
144.104 0 1
144.219 0 1
144.335 0 1
144.45 0 1
144.566 0 1
144.682 0 1
144.798 0 1
144.914 0 1
145.03 0 1
145.146 759 27.55
145.262 875 29.5804
145.378 885 29.7489
145.494 882 29.6985
145.61 923 30.3809
145.726 924 30.3974
145.842 861 29.3428
145.959 809 28.4429
146.075 807 28.4077
146.192 705 26.5518
146.308 741 27.2213
146.425 716 26.7582
146.541 759 27.55
146.658 795 28.1957
146.774 832 28.8444
146.891 851 29.1719
147.008 836 28.9137
147.125 844 29.0517
147.241 873 29.5466
147.358 861 29.3428
147.475 877 29.6142
147.592 815 28.5482
147.709 848 29.1204
147.826 803 28.3373
147.943 820 28.6356
148.06 771 27.7669
148.177 714 26.7208
148.294 734 27.0924
148.411 735 27.1109
148.528 789 28.0891
148.645 852 29.189
148.762 815 28.5482
148.88 873 29.5466
148.997 937 30.6105
149.114 851 29.1719
149.231 889 29.8161
149.349 832 28.8444
149.466 846 29.0861
149.583 802 28.3196
149.701 780 27.9285
149.818 657 25.632
149.935 665 25.7876
150.053 690 26.2679
150.17 736 27.1293
150.287 746 27.313
150.405 737 27.1477
150.522 768 27.7128
150.64 816 28.5657
150.757 822 28.6705
150.875 838 28.9482
150.992 859 29.3087
151.11 847 29.1033
151.227 835 28.8964
151.344 826 28.7402
151.462 737 27.1477
151.579 774 27.8209
151.697 743 27.258
151.814 763 27.6225
151.932 708 26.6083
152.049 720 26.8328
152.167 691 26.2869
152.284 816 28.5657
152.402 779 27.9106
152.519 777 27.8747
152.636 822 28.6705
152.754 779 27.9106
152.871 834 28.8791
152.989 777 27.8747
153.106 798 28.2489
153.223 719 26.8142
153.341 673 25.9422
153.458 689 26.2488
153.575 644 25.3772
153.693 643 25.3574
153.81 695 26.3629
153.927 704 26.533
154.044 712 26.6833
154.162 774 27.8209
154.279 761 27.5862
154.396 793 28.1603
154.513 774 27.8209
154.63 806 28.3901
154.747 781 27.9464
154.864 756 27.4955
154.981 789 28.0891
155.098 718 26.7955
155.215 759 27.55
155.332 695 26.3629
155.449 671 25.9037
155.566 645 25.3969
155.683 708 26.6083
155.8 672 25.923
155.917 701 26.4764
156.033 678 26.0384
156.15 0 1
156.267 0 1
156.383 0 1
156.5 0 1
156.617 0 1
156.733 0 1
156.85 0 1
156.966 0 1
157.082 0 1
157.199 0 1
157.315 0 1
157.431 0 1
157.547 0 1
157.664 0 1
157.78 0 1
157.896 0 1
158.012 0 1
158.128 0 1
158.244 0 1
158.359 0 1
158.475 0 1
158.591 0 1
158.706 0 1
