
6.15755 0 1
6.2731 0 1
6.3887 0 1
6.50437 0 1
6.62009 0 1
6.73587 0 1
6.8517 0 1
6.96759 0 1
7.08353 0 1
7.19952 0 1
7.31557 0 1
7.43166 0 1
7.54781 0 1
7.664 0 1
7.78024 0 1
7.89653 0 1
8.01286 0 1
8.12924 0 1
8.24567 0 1
8.36213 0 1
8.47864 0 1
8.59519 0 1
8.71178 0 1
8.82841 0 1
8.94508 0 1
9.06179 0 1
9.17853 0 1
9.29531 0 1
9.41212 0 1
9.52897 0 1
9.64584 0 1
9.76276 0 1
9.8797 0 1
9.99667 0 1
10.1137 0 1
10.2307 0 1
10.3478 0 1
10.4648 0 1
10.5819 0 1
10.6991 0 1
10.8162 0 1
10.9334 0 1
11.0506 0 1
11.1678 0 1
11.285 0 1
11.4023 0 1
11.5196 0 1
11.6369 0 1
11.7542 0 1
11.8715 0 1
11.9888 0 1
12.1062 0 1
12.2235 0 1
12.3409 0 1
12.4582 0 1
12.5756 0 1
12.693 0 1
12.8104 0 1
12.9278 0 1
13.0452 0 1
13.1626 0 1
13.28 0 1
13.3974 0 1
13.5149 0 1
13.6323 0 1
13.7497 0 1
13.8671 0 1
13.9845 0 1
14.1019 0 1
14.2193 0 1
14.3367 0 1
14.4541 0 1
14.5714 0 1
14.6888 0 1
14.8062 0 1
14.9235 0 1
15.0408 855 29.2404
15.1581 893 29.8831
15.2755 901 30.0167
15.3927 891 29.8496
15.51 893 29.8831
15.6273 902 30.0333
15.7445 864 29.3939
15.8617 800 28.2843
15.9789 819 28.6182
16.0961 869 29.4788
16.2132 783 27.9821
16.3304 788 28.0713
16.4475 801 28.3019
16.5646 849 29.1376
16.6816 766 27.6767
16.7986 776 27.8568
16.9156 796 28.2135
17.0326 814 28.5307
17.1496 804 28.3549
17.2665 837 28.931
17.3833 763 27.6225
17.5002 743 27.258
17.617 845 29.0689
17.7338 785 28.0179
17.8505 767 27.6948
17.9672 846 29.0861
18.0839 784 28
18.2005 827 28.7576
18.3171 782 27.9643
18.4337 818 28.6007
18.5502 863 29.3769
18.6666 803 28.3373
18.7831 777 27.8747
18.8994 692 26.3059
19.0158 731 27.037
19.1321 701 26.4764
19.2483 678 26.0384
19.3645 655 25.593
19.4806 638 25.2587
19.5967 633 25.1595
19.7128 543 23.3024
19.8288 551 23.4734
19.9447 551 23.4734
20.0606 0 1
20.1764 0 1
20.2922 0 1
20.4079 0 1
20.5236 0 1
20.6392 0 1
20.7548 0 1
20.8702 0 1
23.3078 0 1
23.4233 0 1
23.539 0 1
23.6547 0 1
23.7704 0 1
23.8862 0 1
24.0021 0 1
24.118 0 1
24.234 0 1
24.35 0 1
24.4661 324 18
24.5822 384 19.5959
24.6984 405 20.1246
24.8146 468 21.6333
24.9309 499 22.3383
25.0472 588 24.2487
25.1636 663 25.7488
25.28 733 27.074
25.3965 840 28.9828
25.513 856 29.2575
25.6296 843 29.0345
25.7462 852 29.189
25.8628 846 29.0861
25.9795 841 29
26.0962 791 28.1247
26.213 816 28.5657
26.3298 838 28.9482
26.4466 748 27.3496
26.5635 711 26.6646
26.6804 698 26.4197
26.7973 729 27
26.9143 693 26.3249
27.0313 724 26.9072
27.1483 701 26.4764
27.2653 719 26.8142
27.3824 678 26.0384
27.4996 699 26.4386
27.6167 706 26.5707
27.7339 672 25.923
27.8511 704 26.533
27.9683 681 26.096
28.0855 680 26.0768
28.2028 671 25.9037
28.3201 707 26.5895
28.4374 717 26.7769
28.5547 728 26.9815
28.6721 767 27.6948
28.7894 687 26.2107
28.9068 680 26.0768
29.0242 680 26.0768
29.1416 730 27.0185
29.259 744 27.2764
29.3764 719 26.8142
29.4939 683 26.1343
29.6113 694 26.3439
29.7288 725 26.9258
29.8463 711 26.6646
29.9638 633 25.1595
30.0812 674 25.9615
30.1987 663 25.7488
30.3162 675 25.9808
30.4337 687 26.2107
30.5512 701 26.4764
30.6687 676 26
30.7862 678 26.0384
30.9037 672 25.923
31.0212 745 27.2947
31.1387 708 26.6083
31.2562 670 25.8844
31.3737 704 26.533
31.4912 761 27.5862
31.6087 725 26.9258
31.7262 663 25.7488
31.8436 644 25.3772
31.9611 661 25.7099
32.0785 669 25.865
32.1959 650 25.4951
32.3134 630 25.0998
32.4308 618 24.8596
32.5482 619 24.8797
32.6655 673 25.9422
32.7829 630 25.0998
32.9002 628 25.0599
33.0176 592 24.3311
33.1349 637 25.2389
33.2522 616 24.8193
33.3694 636 25.219
33.4867 617 24.8395
33.6039 632 25.1396
33.7211 616 24.8193
33.8383 640 25.2982
33.9554 633 25.1595
34.0725 622 24.9399
34.1896 633 25.1595
34.3067 595 24.3926
34.4237 615 24.7992
34.5407 641 25.318
34.6577 660 25.6905
34.7746 607 24.6374
34.8915 622 24.9399
35.0084 604 24.5764
35.1252 632 25.1396
35.242 648 25.4558
35.3587 631 25.1197
35.4755 580 24.0832
35.5921 587 24.2281
35.7088 595 24.3926
35.8254 574 23.9583
35.9419 618 24.8596
36.0584 553 23.516
36.1749 596 24.4131
36.2913 621 24.9199
36.4077 581 24.1039
36.524 554 23.5372
36.6403 548 23.4094
36.7565 464 21.5407
36.8727 508 22.5389
36.9889 409 20.2237
37.1049 420 20.4939
37.221 0 1
37.3369 0 1
37.4529 0 1
37.5687 0 1
37.6845 0 1
37.8003 0 1
37.916 0 1
38.0316 0 1
38.1472 0 1
40.5851 0 1
40.7008 0 1
40.8164 0 1
40.9322 0 1
41.048 0 1
41.1639 0 1
41.2798 0 1
41.3958 0 1
41.5118 0 1
41.6279 0 1
41.744 267 16.3401
41.8602 268 16.3707
41.9765 383 19.5704
42.0928 388 19.6977
42.2091 417 20.4206
42.3255 483 21.9773
42.4419 481 21.9317
42.5584 520 22.8035
42.675 451 21.2368
42.7915 482 21.9545
42.9081 468 21.6333
43.0248 487 22.0681
43.1415 446 21.1187
43.2582 462 21.4942
43.375 447 21.1424
43.4918 457 21.3776
43.6087 445 21.095
43.7256 447 21.1424
43.8425 444 21.0713
43.9595 484 22
44.0765 483 21.9773
44.1935 510 22.5832
44.3106 474 21.7715
44.4277 465 21.5639
44.5448 438 20.9284
44.6619 449 21.1896
44.7791 496 22.2711
44.8963 463 21.5174
45.0136 506 22.4944
45.1308 522 22.8473
45.2481 481 21.9317
45.3654 509 22.561
45.4827 491 22.1585
45.6001 507 22.5167
45.7174 512 22.6274
45.8348 502 22.4054
45.9522 516 22.7156
46.0697 484 22
46.1871 504 22.4499
46.3046 490 22.1359
46.422 471 21.7025
46.5395 455 21.3307
46.657 463 21.5174
46.7745 439 20.9523
46.892 430 20.7364
47.0096 448 21.166
47.1271 491 22.1585
47.2446 460 21.4476
47.3622 481 21.9317
47.4797 519 22.7816
47.5973 487 22.0681
47.7149 445 21.095
47.8324 480 21.9089
47.95 504 22.4499
48.0675 442 21.0238
48.1851 421 20.5183
48.3027 395 19.8746
48.4202 418 20.445
48.5378 462 21.4942
48.6554 455 21.3307
48.7729 463 21.5174
48.8904 474 21.7715
49.008 488 22.0907
49.1255 500 22.3607
49.243 458 21.4009
49.3605 521 22.8254
49.478 452 21.2603
49.5955 475 21.7945
49.713 432 20.7846
49.8304 411 20.2731
49.9479 423 20.567
50.0653 396 19.8997
50.1827 402 20.0499
50.3001 372 19.2873
50.4175 412 20.2978
50.5348 448 21.166
50.6521 433 20.8087
50.7694 423 20.567
50.8867 431 20.7605
51.004 420 20.4939
51.1212 464 21.5407
51.2384 452 21.2603
51.3556 436 20.8806
51.4727 469 21.6564
51.5899 432 20.7846
51.707 432 20.7846
51.824 405 20.1246
51.9411 423 20.567
52.0581 461 21.4709
52.175 455 21.3307
52.2919 474 21.7715
52.4088 435 20.8567
52.5257 423 20.567
52.6425 473 21.7486
52.7593 436 20.8806
52.876 482 21.9545
52.9927 474 21.7715
53.1094 455 21.3307
53.226 509 22.561
53.3426 453 21.2838
53.4591 461 21.4709
53.5756 431 20.7605
53.692 390 19.7484
53.8084 353 18.7883
53.9248 300 17.3205
54.0411 307 17.5214
54.1573 303 17.4069
54.2735 0 1
54.3896 0 1
54.5057 0 1
54.6217 0 1
54.7377 0 1
54.8537 0 1
54.9695 0 1
55.0853 0 1
55.2011 0 1
55.3168 0 1
55.4324 0 1
57.824 0 1
57.9396 0 1
58.0553 0 1
58.1711 0 1
58.2869 0 1
58.4028 0 1
58.5187 0 1
58.6347 0 1
58.7508 0 1
58.8669 0 1
58.983 342 18.4932
59.0992 431 20.7605
59.2155 471 21.7025
59.3318 536 23.1517
59.4482 595 24.3926
59.5646 662 25.7294
59.681 640 25.2982
59.7975 759 27.55
59.9141 735 27.1109
60.0306 752 27.4226
60.1473 771 27.7669
60.2639 770 27.7489
60.3807 747 27.3313
60.4974 702 26.4953
60.6142 751 27.4044
60.731 731 27.037
60.8479 746 27.313
60.9648 760 27.5681
61.0818 711 26.6646
61.1987 797 28.2312
61.3158 810 28.4605
61.4328 762 27.6043
61.5499 798 28.2489
61.667 810 28.4605
61.7841 782 27.9643
61.9013 678 26.0384
62.0185 728 26.9815
62.1357 753 27.4408
62.253 703 26.5141
62.3702 736 27.1293
62.4875 787 28.0535
62.6049 808 28.4253
62.7222 851 29.1719
62.8396 854 29.2233
62.9569 866 29.4279
63.0743 831 28.8271
63.1918 816 28.5657
63.3092 783 27.9821
63.4267 778 27.8927
63.5441 711 26.6646
63.6616 677 26.0192
63.7791 633 25.1595
63.8966 640 25.2982
64.0142 561 23.6854
64.1317 521 22.8254
64.2492 589 24.2693
64.3668 536 23.1517
64.4843 564 23.7487
64.6019 572 23.9165
64.7195 582 24.1247
64.837 550 23.4521
64.9546 579 24.0624
65.0722 558 23.622
65.1898 518 22.7596
65.3074 541 23.2594
65.4249 569 23.8537
65.5425 601 24.5153
65.6601 538 23.1948
65.7777 504 22.4499
65.8952 505 22.4722
66.0128 489 22.1133
66.1304 464 21.5407
66.2479 510 22.5832
66.3655 529 23
66.483 539 23.2164
66.6005 538 23.1948
66.718 570 23.8747
66.8355 542 23.2809
66.953 535 23.1301
67.0705 563 23.7276
67.1879 544 23.3238
67.3054 491 22.1585
67.4228 514 22.6716
67.5402 512 22.6274
67.6576 451 21.2368
67.7749 508 22.5389
67.8923 555 23.5584
68.0096 491 22.1585
68.1269 516 22.7156
68.2442 514 22.6716
68.3614 483 21.9773
68.4787 522 22.8473
68.5958 536 23.1517
68.713 489 22.1133
68.8302 562 23.7065
68.9473 518 22.7596
69.0643 567 23.8118
69.1814 518 22.7596
69.2984 566 23.7908
69.4154 531 23.0434
69.5323 468 21.6333
69.6492 450 21.2132
69.7661 467 21.6102
69.8829 484 22
69.9997 508 22.5389
70.1165 531 23.0434
70.2332 510 22.5832
70.3499 491 22.1585
70.4665 458 21.4009
70.5831 412 20.2978
70.6996 419 20.4695
70.8161 380 19.4936
70.9326 341 18.4662
71.049 326 18.0555
71.1653 297 17.2337
71.2817 258 16.0624
71.3979 230 15.1658
71.5141 220 14.8324
71.6303 197 14.0357
71.7464 176 13.2665
71.8624 0 1
71.9784 0 1
72.0944 0 1
72.2102 0 1
72.3261 0 1
72.4418 0 1
72.5575 0 1
72.6732 0 1
75.1054 0 1
75.2209 0 1
75.3365 0 1
75.4521 0 1
75.5678 0 1
75.6835 0 1
75.7993 0 1
75.9151 0 1
76.031 0 1
76.147 325 18.0278
76.263 360 18.9737
76.3791 396 19.8997
76.4952 367 19.1572
76.6113 381 19.5192
76.7276 389 19.7231
76.8438 446 21.1187
76.9601 402 20.0499
77.0765 417 20.4206
77.1929 442 21.0238
77.3093 452 21.2603
77.4258 448 21.166
77.5423 457 21.3776
77.6589 473 21.7486
77.7755 486 22.0454
77.8921 449 21.1896
78.0088 511 22.6053
78.1256 527 22.9565
78.2423 462 21.4942
78.3591 445 21.095
78.4759 417 20.4206
78.5928 415 20.3715
78.7097 370 19.2354
78.8266 380 19.4936
78.9436 425 20.6155
79.0606 416 20.3961
79.1776 427 20.664
79.2946 449 21.1896
79.4117 504 22.4499
79.5288 462 21.4942
79.6459 504 22.4499
79.7631 455 21.3307
79.8802 447 21.1424
79.9974 468 21.6333
80.1147 423 20.567
80.2319 436 20.8806
80.3491 389 19.7231
80.4664 440 20.9762
80.5837 413 20.3224
80.701 454 21.3073
80.8183 486 22.0454
80.9357 461 21.4709
81.053 473 21.7486
81.1704 480 21.9089
81.2877 516 22.7156
81.4051 471 21.7025
81.5225 486 22.0454
81.6399 494 22.2261
81.7573 546 23.3666
81.8747 500 22.3607
81.9922 484 22
82.1096 471 21.7025
82.227 415 20.3715
82.3444 413 20.3224
82.4619 397 19.9249
82.5793 422 20.5426
82.6967 473 21.7486
82.8142 479 21.8861
82.9316 481 21.9317
83.049 492 22.1811
83.1664 472 21.7256
83.2838 471 21.7025
83.4012 488 22.0907
83.5186 498 22.3159
83.636 463 21.5174
83.7534 456 21.3542
83.8708 419 20.4695
83.9881 430 20.7364
84.1055 405 20.1246
84.2228 463 21.5174
84.3401 493 22.2036
84.4575 458 21.4009
84.5747 447 21.1424
84.692 453 21.2838
84.8093 486 22.0454
84.9265 496 22.2711
85.0437 428 20.6882
85.1609 508 22.5389
85.2781 514 22.6716
85.3952 550 23.4521
85.5123 526 22.9347
85.6294 500 22.3607
85.7465 430 20.7364
85.8636 422 20.5426
85.9806 430 20.7364
86.0976 451 21.2368
86.2145 452 21.2603
86.3315 481 21.9317
86.4484 473 21.7486
86.5652 497 22.2935
86.682 503 22.4277
86.7988 485 22.0227
86.9156 503 22.4277
87.0323 529 23
87.149 509 22.561
87.2657 466 21.587
87.3823 424 20.5913
87.4988 420 20.4939
87.6154 410 20.2485
87.7318 469 21.6564
87.8483 414 20.347
87.9647 382 19.5448
88.081 402 20.0499
88.1973 393 19.8242
88.3136 376 19.3907
88.4298 326 18.0555
88.546 318 17.8326
88.6621 320 17.8885
88.7781 293 17.1172
88.8942 0 1
89.0101 0 1
89.126 0 1
89.2419 0 1
89.3577 0 1
89.4734 0 1
89.5891 0 1
89.7047 0 1
89.8203 0 1
89.9358 0 1
92.3269 0 1
92.4424 0 1
92.558 0 1
92.6736 0 1
92.7893 0 1
92.905 0 1
93.0208 0 1
93.1366 0 1
93.2525 0 1
93.3685 0 1
93.4845 0 1
93.6005 396 19.8997
93.7167 426 20.6398
93.8328 424 20.5913
93.949 472 21.7256
94.0653 462 21.4942
94.1816 554 23.5372
94.2979 530 23.0217
94.4143 544 23.3238
94.5307 602 24.5357
94.6472 553 23.516
94.7637 520 22.8035
94.8803 515 22.6936
94.9969 512 22.6274
95.1135 541 23.2594
95.2302 523 22.8692
95.3469 595 24.3926
95.4637 555 23.5584
95.5805 584 24.1661
95.6973 607 24.6374
95.8142 572 23.9165
95.9311 617 24.8395
96.048 614 24.779
96.1649 578 24.0416
96.2819 583 24.1454
96.3989 577 24.0208
96.516 530 23.0217
96.633 556 23.5797
96.7501 578 24.0416
96.8673 548 23.4094
96.9844 597 24.4336
97.1016 620 24.8998
97.2188 621 24.9199
97.336 632 25.1396
97.4532 642 25.3377
97.5704 652 25.5343
97.6877 665 25.7876
97.805 680 26.0768
97.9223 656 25.6125
98.0396 607 24.6374
98.1569 647 25.4362
98.2743 623 24.96
98.3916 637 25.2389
98.509 573 23.9374
98.6264 595 24.3926
98.7438 621 24.9199
98.8612 574 23.9583
98.9786 621 24.9199
99.096 575 23.9792
99.2134 629 25.0799
99.3308 632 25.1396
99.4482 664 25.7682
99.5656 647 25.4362
99.6831 618 24.8596
99.8005 586 24.2074
99.9179 567 23.8118
100.035 502 22.4054
100.153 576 24
100.27 534 23.1084
100.388 549 23.4307
100.505 564 23.7487
100.622 535 23.1301
100.74 543 23.3024
100.857 550 23.4521
100.975 583 24.1454
101.092 539 23.2164
101.209 549 23.4307
101.327 546 23.3666
101.444 554 23.5372
101.561 578 24.0416
101.679 555 23.5584
101.796 543 23.3024
101.913 536 23.1517
102.03 483 21.9773
102.148 576 24
102.265 516 22.7156
102.382 557 23.6008
102.499 598 24.454
102.616 569 23.8537
102.733 602 24.5357
102.851 609 24.6779
102.968 590 24.2899
103.085 548 23.4094
103.202 580 24.0832
103.319 612 24.7386
103.436 560 23.6643
103.552 566 23.7908
103.669 540 23.2379
103.786 573 23.9374
103.903 581 24.1039
104.02 595 24.3926
104.137 573 23.9374
104.253 583 24.1454
104.37 560 23.6643
104.487 574 23.9583
104.603 632 25.1396
104.72 575 23.9792
104.836 570 23.8747
104.953 587 24.2281
105.069 568 23.8328
105.186 498 22.3159
105.302 494 22.2261
105.418 476 21.8174
105.535 438 20.9284
105.651 425 20.6155
105.767 360 18.9737
105.883 323 17.9722
105.999 282 16.7929
106.115 0 1
106.231 0 1
106.347 0 1
106.463 0 1
106.579 0 1
106.694 0 1
106.81 0 1
106.926 0 1
107.041 0 1
107.157 0 1
109.576 0 1
109.692 0 1
109.807 0 1
109.923 0 1
110.039 0 1
110.155 0 1
110.27 0 1
110.386 0 1
110.502 0 1
110.618 264 16.2481
110.735 336 18.3303
110.851 371 19.2614
110.967 404 20.0998
111.083 436 20.8806
111.199 429 20.7123
111.316 509 22.561
111.432 483 21.9773
111.549 516 22.7156
111.665 524 22.891
111.782 542 23.2809
111.898 496 22.2711
112.015 534 23.1084
112.132 489 22.1133
112.248 487 22.0681
112.365 507 22.5167
112.482 491 22.1585
112.599 534 23.1084
112.716 534 23.1084
112.832 489 22.1133
112.949 459 21.4243
113.066 506 22.4944
113.183 507 22.5167
113.3 471 21.7025
113.417 541 23.2594
113.534 476 21.8174
113.652 498 22.3159
113.769 544 23.3238
113.886 476 21.8174
114.003 440 20.9762
114.12 476 21.8174
114.238 442 21.0238
114.355 477 21.8403
114.472 445 21.095
114.589 399 19.975
114.707 494 22.2261
114.824 502 22.4054
114.942 510 22.5832
115.059 485 22.0227
115.176 524 22.891
115.294 485 22.0227
115.411 469 21.6564
115.529 471 21.7025
115.646 435 20.8567
115.764 450 21.2132
115.881 435 20.8567
115.999 440 20.9762
116.116 466 21.587
116.234 441 21
116.351 495 22.2486
116.469 433 20.8087
116.586 456 21.3542
116.704 444 21.0713
116.821 446 21.1187
116.939 463 21.5174
117.056 474 21.7715
117.174 446 21.1187
117.291 445 21.095
117.409 428 20.6882
117.526 447 21.1424
117.644 415 20.3715
117.761 407 20.1742
117.879 401 20.025
117.996 426 20.6398
118.114 424 20.5913
118.231 446 21.1187
118.349 432 20.7846
118.466 495 22.2486
118.584 459 21.4243
118.701 454 21.3073
118.819 422 20.5426
118.936 427 20.664
119.053 398 19.9499
119.171 438 20.9284
119.288 388 19.6977
119.405 434 20.8327
119.523 436 20.8806
119.64 410 20.2485
119.757 463 21.5174
119.875 408 20.199
119.992 384 19.5959
120.109 397 19.9249
120.226 412 20.2978
120.343 394 19.8494
120.46 398 19.9499
120.578 422 20.5426
120.695 438 20.9284
120.812 437 20.9045
120.929 427 20.664
121.046 418 20.445
121.163 421 20.5183
121.279 429 20.7123
121.396 340 18.4391
121.513 360 18.9737
121.63 354 18.8149
121.747 338 18.3848
121.863 386 19.6469
121.98 359 18.9473
122.097 408 20.199
122.213 381 19.5192
122.33 347 18.6279
122.446 321 17.9165
122.563 313 17.6918
122.679 296 17.2047
122.795 247 15.7162
122.912 259 16.0935
123.028 214 14.6287
123.144 227 15.0665
123.26 231 15.1987
123.377 0 1
123.493 0 1
123.609 0 1
123.725 0 1
123.84 0 1
123.956 0 1
124.072 0 1
124.188 0 1
124.303 0 1
124.419 0 1
126.852 0 1
126.968 0 1
127.083 0 1
127.199 0 1
127.315 0 1
127.431 0 1
127.547 0 1
127.663 0 1
127.779 0 1
127.895 0 1
128.011 0 1
128.127 0 1
128.243 0 1
128.359 476 21.8174
128.476 451 21.2368
128.592 447 21.1424
128.708 484 22
128.825 496 22.2711
128.941 470 21.6795
129.058 476 21.8174
129.174 491 22.1585
129.291 456 21.3542
129.408 426 20.6398
129.524 469 21.6564
129.641 481 21.9317
129.758 467 21.6102
129.875 404 20.0998
129.992 493 22.2036
130.108 488 22.0907
130.225 523 22.8692
130.342 474 21.7715
130.459 459 21.4243
130.576 474 21.7715
130.693 504 22.4499
130.81 549 23.4307
130.928 520 22.8035
131.045 658 25.6515
131.162 771 27.7669
131.279 835 28.8964
131.396 846 29.0861
131.513 883 29.7153
131.631 800 28.2843
131.748 802 28.3196
131.865 852 29.189
131.983 816 28.5657
132.1 875 29.5804
132.217 913 30.2159
132.335 973 31.1929
132.452 927 30.4467
132.57 950 30.8221
132.687 962 31.0161
132.804 1032 32.1248
132.922 968 31.1127
133.039 1026 32.0312
133.157 978 31.273
133.274 985 31.3847
133.392 1013 31.8277
133.509 1030 32.0936
133.627 997 31.5753
133.744 917 30.282
133.862 962 31.0161
133.979 903 30.05
134.097 891 29.8496
134.214 912 30.1993
134.332 958 30.9516
134.449 942 30.692
134.567 946 30.7571
134.684 975 31.225
134.802 1010 31.7805
134.919 1002 31.6544
135.037 993 31.5119
135.154 934 30.5614
135.272 889 29.8161
135.389 870 29.4958
135.507 888 29.7993
135.624 938 30.6268
135.742 1010 31.7805
135.859 1004 31.686
135.977 1013 31.8277
136.094 1082 32.8938
136.211 1016 31.8748
136.329 1054 32.4654
136.446 1014 31.8434
136.564 1055 32.4808
136.681 1070 32.7109
136.798 1084 32.9242
136.915 1061 32.573
137.033 1107 33.2716
137.15 983 31.3528
137.267 1052 32.4345
137.384 1008 31.749
137.502 968 31.1127
137.619 989 31.4484
137.736 959 30.9677
137.853 926 30.4302
137.97 997 31.5753
138.087 1014 31.8434
138.204 1065 32.6343
138.321 1116 33.4066
138.438 1224 34.9857
138.555 1234 35.1283
138.672 1239 35.1994
138.788 1148 33.8821
138.905 1008 31.749
139.022 1059 32.5423
139.139 1070 32.7109
139.255 1053 32.45
139.372 1133 33.6601
139.488 1140 33.7639
139.605 1078 32.8329
139.721 1022 31.9687
139.838 919 30.315
139.954 870 29.4958
140.071 862 29.3598
140.187 867 29.4449
140.303 812 28.4956
140.419 740 27.2029
140.535 751 27.4044
140.652 729 27
140.768 0 1
140.884 0 1
141 0 1
141.115 0 1
141.231 0 1
141.347 0 1
141.463 0 1
141.578 0 1
141.694 0 1
144.104 0 1
144.219 0 1
144.335 0 1
144.45 0 1
144.566 0 1
144.682 0 1
144.798 0 1
144.914 0 1
145.03 0 1
145.146 3882 62.3057
145.262 4153 64.4438
145.378 4455 66.7458
145.494 4540 67.3795
145.61 4845 69.606
145.726 5145 71.7287
145.842 5460 73.8918
145.959 5810 76.2234
146.075 5865 76.5833
146.192 6394 79.9625
146.308 6415 80.0937
146.425 6390 79.9375
146.541 6785 82.3711
146.658 6849 82.7587
146.774 7020 83.7854
146.891 7243 85.1058
147.008 7476 86.4639
147.125 7600 87.178
147.241 7762 88.1022
147.358 7921 89
147.475 7518 86.7064
147.592 6417 80.1062
147.709 4874 69.814
147.826 5286 72.7049
147.943 6403 80.0187
148.06 7356 85.7671
148.177 7786 88.2383
148.294 7916 88.9719
148.411 8110 90.0555
148.528 8072 89.8443
148.645 8111 90.0611
148.762 8103 90.0167
148.88 8171 90.3936
148.997 8455 91.9511
149.114 8355 91.4057
149.231 8487 92.1249
149.349 8761 93.6002
149.466 8895 94.3133
149.583 9086 95.3205
149.701 9363 96.7626
149.818 9576 97.857
149.935 9782 98.904
150.053 9982 99.91
150.17 10272 101.351
150.287 10352 101.745
150.405 10738 103.624
150.522 10842 104.125
150.64 11028 105.014
150.757 11518 107.322
150.875 11763 108.457
150.992 11574 107.583
151.11 10696 103.421
151.227 10865 104.235
151.344 12338 111.077
151.462 13331 115.46
151.579 14975 122.372
151.697 16633 128.969
151.814 18232 135.026
151.932 19314 138.975
152.049 20605 143.544
152.167 21529 146.728
152.284 22673 150.576
152.402 24071 155.148
152.519 24718 157.22
152.636 26011 161.279
152.754 27131 164.715
152.871 28298 168.22
152.989 28979 170.232
153.106 30219 173.836
153.223 30785 175.457
153.341 31224 176.703
153.458 31588 177.73
153.575 32184 179.399
153.693 32304 179.733
153.81 32986 181.62
153.927 33405 182.77
154.044 33443 182.874
154.162 33138 182.038
154.279 31766 178.23
154.396 30790 175.471
154.513 31154 176.505
154.63 30545 174.771
154.747 29582 171.994
154.864 29130 170.675
154.981 27733 166.532
155.098 26752 163.56
155.215 25468 159.587
155.332 23992 154.894
155.449 22747 150.821
155.566 21026 145.003
155.683 19133 138.322
155.8 17739 133.188
155.917 15595 124.88
156.033 14032 118.457
156.15 0 1
156.267 0 1
156.383 0 1
156.5 0 1
156.617 0 1
156.733 0 1
156.85 0 1
156.966 0 1
157.082 0 1
157.199 0 1
157.315 0 1
157.431 0 1
157.547 0 1
157.664 0 1
157.78 0 1
157.896 0 1
158.012 0 1
158.128 0 1
158.244 0 1
158.359 0 1
158.475 0 1
158.591 0 1
158.706 0 1
