
6.15755 0 1
6.2731 0 1
6.3887 0 1
6.50437 0 1
6.62009 0 1
6.73587 0 1
6.8517 0 1
6.96759 0 1
7.08353 0 1
7.19952 0 1
7.31557 0 1
7.43166 0 1
7.54781 0 1
7.664 0 1
7.78024 0 1
7.89653 0 1
8.01286 0 1
8.12924 0 1
8.24567 0 1
8.36213 0 1
8.47864 0 1
8.59519 0 1
8.71178 0 1
8.82841 0 1
8.94508 0 1
9.06179 0 1
9.17853 0 1
9.29531 0 1
9.41212 0 1
9.52897 0 1
9.64584 0 1
9.76276 0 1
9.8797 0 1
9.99667 0 1
10.1137 0 1
10.2307 0 1
10.3478 0 1
10.4648 0 1
10.5819 0 1
10.6991 0 1
10.8162 0 1
10.9334 0 1
11.0506 0 1
11.1678 0 1
11.285 0 1
11.4023 0 1
11.5196 0 1
11.6369 0 1
11.7542 0 1
11.8715 0 1
11.9888 0 1
12.1062 0 1
12.2235 0 1
12.3409 0 1
12.4582 0 1
12.5756 0 1
12.693 0 1
12.8104 0 1
12.9278 0 1
13.0452 0 1
13.1626 0 1
13.28 0 1
13.3974 0 1
13.5149 0 1
13.6323 0 1
13.7497 0 1
13.8671 0 1
13.9845 0 1
14.1019 0 1
14.2193 0 1
14.3367 0 1
14.4541 0 1
14.5714 0 1
14.6888 0 1
14.8062 0 1
14.9235 0 1
15.0408 1321 36.3456
15.1581 1412 37.5766
15.2755 1438 37.921
15.3927 1410 37.55
15.51 1455 38.1445
15.6273 1311 36.2077
15.7445 1291 35.9305
15.8617 1222 34.9571
15.9789 1270 35.6371
16.0961 1297 36.0139
16.2132 1189 34.4819
16.3304 1254 35.4119
16.4475 1264 35.5528
16.5646 1239 35.1994
16.6816 1214 34.8425
16.7986 1229 35.0571
16.9156 1231 35.0856
17.0326 1154 33.9706
17.1496 1226 35.0143
17.2665 1227 35.0286
17.3833 1197 34.5977
17.5002 1199 34.6266
17.617 1232 35.0999
17.7338 1230 35.0714
17.8505 1181 34.3657
17.9672 1174 34.2637
18.0839 1165 34.1321
18.2005 1166 34.1467
18.3171 1225 35
18.4337 1220 34.9285
18.5502 1190 34.4964
18.6666 1209 34.7707
18.7831 1222 34.9571
18.8994 1223 34.9714
19.0158 1157 34.0147
19.1321 1144 33.8231
19.2483 999 31.607
19.3645 1013 31.8277
19.4806 1000 31.6228
19.5967 965 31.0644
19.7128 992 31.496
19.8288 937 30.6105
19.9447 828 28.775
20.0606 0 1
20.1764 0 1
20.2922 0 1
20.4079 0 1
20.5236 0 1
20.6392 0 1
20.7548 0 1
20.8702 0 1
23.3078 0 1
23.4233 0 1
23.539 0 1
23.6547 0 1
23.7704 0 1
23.8862 0 1
24.0021 0 1
24.118 0 1
24.234 0 1
24.35 0 1
24.4661 464 21.5407
24.5822 551 23.4734
24.6984 609 24.6779
24.8146 752 27.4226
24.9309 809 28.4429
25.0472 929 30.4795
25.1636 1028 32.0624
25.28 1088 32.9848
25.3965 1198 34.6121
25.513 1283 35.819
25.6296 1294 35.9722
25.7462 1303 36.0971
25.8628 1361 36.8917
25.9795 1321 36.3456
26.0962 1311 36.2077
26.213 1284 35.8329
26.3298 1242 35.242
26.4466 1182 34.3802
26.5635 1149 33.8969
26.6804 1094 33.0757
26.7973 1025 32.0156
26.9143 1046 32.3419
27.0313 1081 32.8786
27.1483 1150 33.9116
27.2653 1132 33.6452
27.3824 1146 33.8526
27.4996 1101 33.1813
27.6167 1141 33.7787
27.7339 1101 33.1813
27.8511 1019 31.9218
27.9683 1079 32.8481
28.0855 1040 32.249
28.2028 999 31.607
28.3201 1075 32.7872
28.4374 1162 34.0881
28.5547 1171 34.2199
28.6721 1186 34.4384
28.7894 1260 35.4965
28.9068 1251 35.3695
29.0242 1196 34.5832
29.1416 1152 33.9411
29.259 1237 35.171
29.3764 1118 33.4365
29.4939 1181 34.3657
29.6113 1117 33.4215
29.7288 1062 32.5883
29.8463 1073 32.7567
29.9638 1040 32.249
30.0812 1034 32.1559
30.1987 1018 31.9061
30.3162 1016 31.8748
30.4337 1039 32.2335
30.5512 1062 32.5883
30.6687 1090 33.0151
30.7862 1111 33.3317
30.9037 1110 33.3167
31.0212 1107 33.2716
31.1387 1118 33.4365
31.2562 1096 33.1059
31.3737 1056 32.4962
31.4912 1016 31.8748
31.6087 1019 31.9218
31.7262 1028 32.0624
31.8436 1014 31.8434
31.9611 1043 32.2955
32.0785 1092 33.0454
32.1959 1135 33.6898
32.3134 1085 32.9393
32.4308 1012 31.8119
32.5482 1030 32.0936
32.6655 997 31.5753
32.7829 934 30.5614
32.9002 1058 32.5269
33.0176 1000 31.6228
33.1349 1000 31.6228
33.2522 937 30.6105
33.3694 981 31.3209
33.4867 937 30.6105
33.6039 917 30.282
33.7211 934 30.5614
33.8383 960 30.9839
33.9554 948 30.7896
34.0725 1015 31.8591
34.1896 1072 32.7414
34.3067 1013 31.8277
34.4237 1026 32.0312
34.5407 1060 32.5576
34.6577 1033 32.1403
34.7746 968 31.1127
34.8915 995 31.5436
35.0084 973 31.1929
35.1252 947 30.7734
35.242 876 29.5973
35.3587 896 29.9333
35.4755 899 29.9833
35.5921 935 30.5778
35.7088 1040 32.249
35.8254 1020 31.9374
35.9419 1050 32.4037
36.0584 1038 32.218
36.1749 985 31.3847
36.2913 919 30.315
36.4077 920 30.3315
36.524 887 29.7825
36.6403 913 30.2159
36.7565 816 28.5657
36.8727 772 27.7849
36.9889 764 27.6405
37.1049 662 25.7294
37.221 0 1
37.3369 0 1
37.4529 0 1
37.5687 0 1
37.6845 0 1
37.8003 0 1
37.916 0 1
38.0316 0 1
38.1472 0 1
40.5851 0 1
40.7008 0 1
40.8164 0 1
40.9322 0 1
41.048 0 1
41.1639 0 1
41.2798 0 1
41.3958 0 1
41.5118 0 1
41.6279 0 1
41.744 416 20.3961
41.8602 441 21
41.9765 501 22.383
42.0928 566 23.7908
42.2091 620 24.8998
42.3255 675 25.9808
42.4419 727 26.9629
42.5584 734 27.0924
42.675 755 27.4773
42.7915 778 27.8927
42.9081 723 26.8887
43.0248 752 27.4226
43.1415 756 27.4955
43.2582 706 26.5707
43.375 719 26.8142
43.4918 760 27.5681
43.6087 806 28.3901
43.7256 739 27.1846
43.8425 783 27.9821
43.9595 743 27.258
44.0765 714 26.7208
44.1935 671 25.9037
44.3106 703 26.5141
44.4277 662 25.7294
44.5448 695 26.3629
44.6619 776 27.8568
44.7791 759 27.55
44.8963 766 27.6767
45.0136 816 28.5657
45.1308 789 28.0891
45.2481 791 28.1247
45.3654 797 28.2312
45.4827 768 27.7128
45.6001 768 27.7128
45.7174 750 27.3861
45.8348 807 28.4077
45.9522 782 27.9643
46.0697 781 27.9464
46.1871 771 27.7669
46.3046 731 27.037
46.422 721 26.8514
46.5395 711 26.6646
46.657 739 27.1846
46.7745 784 28
46.892 732 27.0555
47.0096 727 26.9629
47.1271 704 26.533
47.2446 777 27.8747
47.3622 751 27.4044
47.4797 750 27.3861
47.5973 668 25.8457
47.7149 696 26.3818
47.8324 687 26.2107
47.95 699 26.4386
48.0675 669 25.865
48.1851 767 27.6948
48.3027 709 26.6271
48.4202 740 27.2029
48.5378 753 27.4408
48.6554 734 27.0924
48.7729 759 27.55
48.8904 771 27.7669
49.008 811 28.4781
49.1255 796 28.2135
49.243 797 28.2312
49.3605 777 27.8747
49.478 737 27.1477
49.5955 691 26.2869
49.713 754 27.4591
49.8304 687 26.2107
49.9479 648 25.4558
50.0653 695 26.3629
50.1827 732 27.0555
50.3001 731 27.037
50.4175 722 26.8701
50.5348 679 26.0576
50.6521 690 26.2679
50.7694 679 26.0576
50.8867 744 27.2764
51.004 704 26.533
51.1212 696 26.3818
51.2384 643 25.3574
51.3556 662 25.7294
51.4727 673 25.9422
51.5899 644 25.3772
51.707 674 25.9615
51.824 731 27.037
51.9411 772 27.7849
52.0581 752 27.4226
52.175 693 26.3249
52.2919 712 26.6833
52.4088 731 27.037
52.5257 673 25.9422
52.6425 733 27.074
52.7593 762 27.6043
52.876 715 26.7395
52.9927 712 26.6833
53.1094 690 26.2679
53.226 730 27.0185
53.3426 684 26.1534
53.4591 640 25.2982
53.5756 653 25.5539
53.692 646 25.4165
53.8084 588 24.2487
53.9248 582 24.1247
54.0411 546 23.3666
54.1573 509 22.561
54.2735 0 1
54.3896 0 1
54.5057 0 1
54.6217 0 1
54.7377 0 1
54.8537 0 1
54.9695 0 1
55.0853 0 1
55.2011 0 1
55.3168 0 1
55.4324 0 1
57.824 0 1
57.9396 0 1
58.0553 0 1
58.1711 0 1
58.2869 0 1
58.4028 0 1
58.5187 0 1
58.6347 0 1
58.7508 0 1
58.8669 0 1
58.983 568 23.8328
59.0992 655 25.593
59.2155 791 28.1247
59.3318 845 29.0689
59.4482 869 29.4788
59.5646 898 29.9666
59.681 954 30.8869
59.7975 1009 31.7648
59.9141 1063 32.6037
60.0306 1074 32.7719
60.1473 1134 33.6749
60.2639 1104 33.2265
60.3807 1025 32.0156
60.4974 1034 32.1559
60.6142 1065 32.6343
60.731 1009 31.7648
60.8479 1008 31.749
60.9648 1038 32.218
61.0818 1046 32.3419
61.1987 1006 31.7175
61.3158 982 31.3369
61.4328 1017 31.8904
61.5499 1006 31.7175
61.667 1029 32.078
61.7841 974 31.209
61.9013 1013 31.8277
62.0185 868 29.4618
62.1357 911 30.1828
62.253 917 30.282
62.3702 897 29.95
62.4875 931 30.5123
62.6049 880 29.6648
62.7222 905 30.0832
62.8396 838 28.9482
62.9569 892 29.8664
63.0743 864 29.3939
63.1918 837 28.931
63.3092 804 28.3549
63.4267 894 29.8998
63.5441 831 28.8271
63.6616 790 28.1069
63.7791 856 29.2575
63.8966 768 27.7128
64.0142 714 26.7208
64.1317 784 28
64.2492 776 27.8568
64.3668 826 28.7402
64.4843 796 28.2135
64.6019 768 27.7128
64.7195 833 28.8617
64.837 859 29.3087
64.9546 842 29.0172
65.0722 873 29.5466
65.1898 842 29.0172
65.3074 828 28.775
65.4249 816 28.5657
65.5425 819 28.6182
65.6601 779 27.9106
65.7777 736 27.1293
65.8952 800 28.2843
66.0128 797 28.2312
66.1304 761 27.5862
66.2479 708 26.6083
66.3655 719 26.8142
66.483 798 28.2489
66.6005 824 28.7054
66.718 799 28.2666
66.8355 787 28.0535
66.953 820 28.6356
67.0705 773 27.8029
67.1879 756 27.4955
67.3054 742 27.2397
67.4228 699 26.4386
67.5402 709 26.6271
67.6576 690 26.2679
67.7749 738 27.1662
67.8923 730 27.0185
68.0096 778 27.8927
68.1269 694 26.3439
68.2442 794 28.178
68.3614 758 27.5318
68.4787 706 26.5707
68.5958 742 27.2397
68.713 821 28.6531
68.8302 776 27.8568
68.9473 794 28.178
69.0643 786 28.0357
69.1814 796 28.2135
69.2984 789 28.0891
69.4154 761 27.5862
69.5323 742 27.2397
69.6492 708 26.6083
69.7661 762 27.6043
69.8829 734 27.0924
69.9997 744 27.2764
70.1165 690 26.2679
70.2332 771 27.7669
70.3499 735 27.1109
70.4665 679 26.0576
70.5831 639 25.2784
70.6996 641 25.318
70.8161 623 24.96
70.9326 555 23.5584
71.049 496 22.2711
71.1653 398 19.9499
71.2817 395 19.8746
71.3979 379 19.4679
71.5141 354 18.8149
71.6303 353 18.7883
71.7464 275 16.5831
71.8624 0 1
71.9784 0 1
72.0944 0 1
72.2102 0 1
72.3261 0 1
72.4418 0 1
72.5575 0 1
72.6732 0 1
75.1054 0 1
75.2209 0 1
75.3365 0 1
75.4521 0 1
75.5678 0 1
75.6835 0 1
75.7993 0 1
75.9151 0 1
76.031 0 1
76.147 474 21.7715
76.263 482 21.9545
76.3791 514 22.6716
76.4952 552 23.4947
76.6113 577 24.0208
76.7276 514 22.6716
76.8438 549 23.4307
76.9601 614 24.779
77.0765 634 25.1794
77.1929 620 24.8998
77.3093 650 25.4951
77.4258 646 25.4165
77.5423 632 25.1396
77.6589 691 26.2869
77.7755 698 26.4197
77.8921 676 26
78.0088 680 26.0768
78.1256 649 25.4755
78.2423 722 26.8701
78.3591 647 25.4362
78.4759 682 26.1151
78.5928 612 24.7386
78.7097 588 24.2487
78.8266 576 24
78.9436 642 25.3377
79.0606 655 25.593
79.1776 671 25.9037
79.2946 668 25.8457
79.4117 678 26.0384
79.5288 671 25.9037
79.6459 700 26.4575
79.7631 730 27.0185
79.8802 671 25.9037
79.9974 680 26.0768
80.1147 647 25.4362
80.2319 627 25.04
80.3491 592 24.3311
80.4664 585 24.1868
80.5837 597 24.4336
80.701 630 25.0998
80.8183 619 24.8797
80.9357 629 25.0799
81.053 682 26.1151
81.1704 692 26.3059
81.2877 683 26.1343
81.4051 706 26.5707
81.5225 687 26.2107
81.6399 707 26.5895
81.7573 697 26.4008
81.8747 670 25.8844
81.9922 696 26.3818
82.1096 652 25.5343
82.227 641 25.318
82.3444 594 24.3721
82.4619 613 24.7588
82.5793 656 25.6125
82.6967 666 25.807
82.8142 661 25.7099
82.9316 658 25.6515
83.049 713 26.7021
83.1664 703 26.5141
83.2838 727 26.9629
83.4012 726 26.9444
83.5186 686 26.1916
83.636 710 26.6458
83.7534 661 25.7099
83.8708 626 25.02
83.9881 627 25.04
84.1055 591 24.3105
84.2228 621 24.9199
84.3401 674 25.9615
84.4575 618 24.8596
84.5747 675 25.9808
84.692 674 25.9615
84.8093 684 26.1534
84.9265 696 26.3818
85.0437 678 26.0384
85.1609 755 27.4773
85.2781 689 26.2488
85.3952 690 26.2679
85.5123 642 25.3377
85.6294 726 26.9444
85.7465 688 26.2298
85.8636 660 25.6905
85.9806 609 24.6779
86.0976 583 24.1454
86.2145 687 26.2107
86.3315 683 26.1343
86.4484 680 26.0768
86.5652 724 26.9072
86.682 707 26.5895
86.7988 743 27.258
86.9156 686 26.1916
87.0323 750 27.3861
87.149 702 26.4953
87.2657 654 25.5734
87.3823 679 26.0576
87.4988 655 25.593
87.6154 558 23.622
87.7318 579 24.0624
87.8483 538 23.1948
87.9647 610 24.6982
88.081 471 21.7025
88.1973 524 22.891
88.3136 479 21.8861
88.4298 472 21.7256
88.546 465 21.5639
88.6621 445 21.095
88.7781 438 20.9284
88.8942 0 1
89.0101 0 1
89.126 0 1
89.2419 0 1
89.3577 0 1
89.4734 0 1
89.5891 0 1
89.7047 0 1
89.8203 0 1
89.9358 0 1
92.3269 0 1
92.4424 0 1
92.558 0 1
92.6736 0 1
92.7893 0 1
92.905 0 1
93.0208 0 1
93.1366 0 1
93.2525 0 1
93.3685 0 1
93.4845 0 1
93.6005 504 22.4499
93.7167 590 24.2899
93.8328 656 25.6125
93.949 611 24.7184
94.0653 639 25.2784
94.1816 689 26.2488
94.2979 750 27.3861
94.4143 798 28.2489
94.5307 734 27.0924
94.6472 703 26.5141
94.7637 777 27.8747
94.8803 686 26.1916
94.9969 720 26.8328
95.1135 681 26.096
95.2302 687 26.2107
95.3469 685 26.1725
95.4637 703 26.5141
95.5805 779 27.9106
95.6973 724 26.9072
95.8142 785 28.0179
95.9311 726 26.9444
96.048 696 26.3818
96.1649 737 27.1477
96.2819 672 25.923
96.3989 697 26.4008
96.516 720 26.8328
96.633 684 26.1534
96.7501 619 24.8797
96.8673 623 24.96
96.9844 695 26.3629
97.1016 681 26.096
97.2188 622 24.9399
97.336 700 26.4575
97.4532 675 25.9808
97.5704 693 26.3249
97.6877 724 26.9072
97.805 751 27.4044
97.9223 741 27.2213
98.0396 787 28.0535
98.1569 769 27.7308
98.2743 704 26.533
98.3916 668 25.8457
98.509 749 27.3679
98.6264 707 26.5895
98.7438 679 26.0576
98.8612 711 26.6646
98.9786 701 26.4764
99.096 786 28.0357
99.2134 787 28.0535
99.3308 820 28.6356
99.4482 863 29.3769
99.5656 894 29.8998
99.6831 913 30.2159
99.8005 942 30.692
99.9179 1005 31.7017
100.035 860 29.3258
100.153 816 28.5657
100.27 757 27.5136
100.388 734 27.0924
100.505 787 28.0535
100.622 798 28.2489
100.74 921 30.348
100.857 968 31.1127
100.975 1033 32.1403
101.092 1079 32.8481
101.209 1116 33.4066
101.327 999 31.607
101.444 1105 33.2415
101.561 1054 32.4654
101.679 1011 31.7962
101.796 1043 32.2955
101.913 1018 31.9061
102.03 930 30.4959
102.148 919 30.315
102.265 861 29.3428
102.382 884 29.7321
102.499 939 30.6431
102.616 885 29.7489
102.733 917 30.282
102.851 963 31.0322
102.968 967 31.0966
103.085 1028 32.0624
103.202 940 30.6594
103.319 922 30.3645
103.436 908 30.133
103.552 835 28.8964
103.669 800 28.2843
103.786 836 28.9137
103.903 813 28.5132
104.02 800 28.2843
104.137 803 28.3373
104.253 853 29.2062
104.37 851 29.1719
104.487 844 29.0517
104.603 827 28.7576
104.72 906 30.0998
104.836 857 29.2746
104.953 830 28.8097
105.069 853 29.2062
105.186 837 28.931
105.302 696 26.3818
105.418 682 26.1151
105.535 620 24.8998
105.651 581 24.1039
105.767 566 23.7908
105.883 517 22.7376
105.999 473 21.7486
106.115 0 1
106.231 0 1
106.347 0 1
106.463 0 1
106.579 0 1
106.694 0 1
106.81 0 1
106.926 0 1
107.041 0 1
107.157 0 1
109.576 0 1
109.692 0 1
109.807 0 1
109.923 0 1
110.039 0 1
110.155 0 1
110.27 0 1
110.386 0 1
110.502 0 1
110.618 406 20.1494
110.735 448 21.166
110.851 503 22.4277
110.967 544 23.3238
111.083 595 24.3926
111.199 678 26.0384
111.316 687 26.2107
111.432 727 26.9629
111.549 802 28.3196
111.665 820 28.6356
111.782 819 28.6182
111.898 806 28.3901
112.015 753 27.4408
112.132 820 28.6356
112.248 746 27.313
112.365 688 26.2298
112.482 684 26.1534
112.599 650 25.4951
112.716 714 26.7208
112.832 713 26.7021
112.949 730 27.0185
113.066 748 27.3496
113.183 714 26.7208
113.3 757 27.5136
113.417 733 27.074
113.534 720 26.8328
113.652 754 27.4591
113.769 736 27.1293
113.886 729 27
114.003 733 27.074
114.12 696 26.3818
114.238 696 26.3818
114.355 630 25.0998
114.472 590 24.2899
114.589 623 24.96
114.707 670 25.8844
114.824 610 24.6982
114.942 674 25.9615
115.059 678 26.0384
115.176 695 26.3629
115.294 688 26.2298
115.411 707 26.5895
115.529 737 27.1477
115.646 665 25.7876
115.764 709 26.6271
115.881 597 24.4336
115.999 606 24.6171
116.116 556 23.5797
116.234 566 23.7908
116.351 607 24.6374
116.469 606 24.6171
116.586 606 24.6171
116.704 660 25.6905
116.821 665 25.7876
116.939 620 24.8998
117.056 693 26.3249
117.174 693 26.3249
117.291 681 26.096
117.409 694 26.3439
117.526 697 26.4008
117.644 645 25.3969
117.761 619 24.8797
117.879 639 25.2784
117.996 597 24.4336
118.114 577 24.0208
118.231 625 25
118.349 653 25.5539
118.466 653 25.5539
118.584 675 25.9808
118.701 671 25.9037
118.819 671 25.9037
118.936 646 25.4165
119.053 633 25.1595
119.171 660 25.6905
119.288 601 24.5153
119.405 595 24.3926
119.523 574 23.9583
119.64 549 23.4307
119.757 519 22.7816
119.875 520 22.8035
119.992 528 22.9783
120.109 614 24.779
120.226 633 25.1595
120.343 558 23.622
120.46 610 24.6982
120.578 614 24.779
120.695 596 24.4131
120.812 612 24.7386
120.929 677 26.0192
121.046 581 24.1039
121.163 635 25.1992
121.279 615 24.7992
121.396 597 24.4336
121.513 558 23.622
121.63 564 23.7487
121.747 532 23.0651
121.863 512 22.6274
121.98 512 22.6274
122.097 532 23.0651
122.213 510 22.5832
122.33 524 22.891
122.446 463 21.5174
122.563 479 21.8861
122.679 514 22.6716
122.795 416 20.3961
122.912 381 19.5192
123.028 373 19.3132
123.144 313 17.6918
123.26 289 17
123.377 0 1
123.493 0 1
123.609 0 1
123.725 0 1
123.84 0 1
123.956 0 1
124.072 0 1
124.188 0 1
124.303 0 1
124.419 0 1
126.852 0 1
126.968 0 1
127.083 0 1
127.199 0 1
127.315 0 1
127.431 0 1
127.547 0 1
127.663 0 1
127.779 0 1
127.895 0 1
128.011 0 1
128.127 0 1
128.243 0 1
128.359 603 24.5561
128.476 643 25.3574
128.592 590 24.2899
128.708 597 24.4336
128.825 608 24.6577
128.941 630 25.0998
129.058 705 26.5518
129.174 701 26.4764
129.291 726 26.9444
129.408 706 26.5707
129.524 726 26.9444
129.641 736 27.1293
129.758 670 25.8844
129.875 723 26.8887
129.992 722 26.8701
130.108 770 27.7489
130.225 756 27.4955
130.342 687 26.2107
130.459 644 25.3772
130.576 666 25.807
130.693 651 25.5147
130.81 739 27.1846
130.928 804 28.3549
131.045 803 28.3373
131.162 865 29.4109
131.279 930 30.4959
131.396 961 31
131.513 930 30.4959
131.631 953 30.8707
131.748 976 31.241
131.865 1037 32.2025
131.983 946 30.7571
132.1 974 31.209
132.217 975 31.225
132.335 1064 32.619
132.452 1159 34.0441
132.57 1200 34.641
132.687 1251 35.3695
132.804 1335 36.5377
132.922 1345 36.6742
133.039 1311 36.2077
133.157 1379 37.1349
133.274 1346 36.6879
133.392 1357 36.8375
133.509 1416 37.6298
133.627 1491 38.6135
133.744 1371 37.027
133.862 1576 39.6989
133.979 1441 37.9605
134.097 1332 36.4966
134.214 1351 36.756
134.332 1213 34.8281
134.449 1342 36.6333
134.567 1547 39.3319
134.684 1538 39.2173
134.802 1588 39.8497
134.919 1641 40.5093
135.037 1611 40.1373
135.154 1676 40.939
135.272 1713 41.3884
135.389 1734 41.6413
135.507 1667 40.8289
135.624 1640 40.4969
135.742 1637 40.4599
135.859 1661 40.7554
135.977 1637 40.4599
136.094 1727 41.5572
136.211 1755 41.8927
136.329 1756 41.9047
136.446 1786 42.2611
136.564 1745 41.7732
136.681 1806 42.4971
136.798 1780 42.19
136.915 1739 41.7013
137.033 1786 42.2611
137.15 1616 40.1995
137.267 1706 41.3038
137.384 1738 41.6893
137.502 1618 40.2244
137.619 1472 38.3667
137.736 1339 36.5923
137.853 1267 35.5949
137.97 1314 36.2491
138.087 1339 36.5923
138.204 1483 38.5097
138.321 1453 38.1182
138.438 1490 38.6005
138.555 1580 39.7492
138.672 1534 39.1663
138.788 1572 39.6485
138.905 1556 39.4462
139.022 1529 39.1024
139.139 1438 37.921
139.255 1336 36.5513
139.372 1223 34.9714
139.488 1170 34.2053
139.605 1179 34.3366
139.721 1187 34.4529
139.838 1159 34.0441
139.954 1094 33.0757
140.071 1018 31.9061
140.187 910 30.1662
140.303 868 29.4618
140.419 823 28.688
140.535 813 28.5132
140.652 736 27.1293
140.768 0 1
140.884 0 1
141 0 1
141.115 0 1
141.231 0 1
141.347 0 1
141.463 0 1
141.578 0 1
141.694 0 1
144.104 0 1
144.219 0 1
144.335 0 1
144.45 0 1
144.566 0 1
144.682 0 1
144.798 0 1
144.914 0 1
145.03 0 1
145.146 1515 38.923
145.262 1677 40.9512
145.378 1817 42.6263
145.494 1951 44.1701
145.61 2231 47.2335
145.726 2298 47.9375
145.842 2517 50.1697
145.959 2681 51.7784
146.075 2919 54.0278
146.192 3079 55.4887
146.308 3188 56.4624
146.425 3163 56.2406
146.541 3313 57.5587
146.658 3393 58.2495
146.774 3776 61.4492
146.891 3894 62.4019
147.008 4145 64.3817
147.125 4136 64.3117
147.241 4356 66
147.358 4509 67.1491
147.475 4403 66.3551
147.592 4533 67.3276
147.709 4525 67.2681
147.826 4352 65.9697
147.943 3798 61.6279
148.06 2951 54.3231
148.177 2744 52.3832
148.294 2983 54.6168
148.411 4002 63.2614
148.528 4695 68.5201
148.645 5798 76.1446
148.762 6669 81.6639
148.88 7526 86.7525
148.997 8373 91.5041
149.114 8469 92.0272
149.231 9409 97
149.349 10312 101.548
149.466 11202 105.84
149.583 12166 110.3
149.701 12802 113.146
149.818 13707 117.077
149.935 14426 120.108
150.053 15533 124.631
150.17 16186 127.224
150.287 16651 129.039
150.405 17038 130.53
150.522 17788 133.372
150.64 17801 133.42
150.757 18437 135.783
150.875 18983 137.779
150.992 19963 141.29
151.11 20334 142.597
151.227 20282 142.415
151.344 20489 143.14
151.462 19998 141.414
151.579 17153 130.969
151.697 12480 111.714
151.814 10149 100.742
151.932 11309 106.344
152.049 15349 123.891
152.167 19111 138.243
152.284 20822 144.298
152.402 20662 143.743
152.519 20473 143.084
152.636 20151 141.954
152.754 20311 142.517
152.871 20508 143.206
152.989 20898 144.561
153.106 21622 147.044
153.223 21697 147.299
153.341 22766 150.884
153.458 23476 153.219
153.575 23644 153.766
153.693 24005 154.935
153.81 24997 158.104
153.927 25829 160.714
154.044 26923 164.082
154.162 27648 166.277
154.279 30237 173.888
154.396 34312 185.235
154.513 36489 191.021
154.63 37965 194.846
154.747 37867 194.594
154.864 37109 192.637
154.981 35058 187.238
155.098 35564 188.584
155.215 39169 197.912
155.332 45187 212.572
155.449 49675 222.879
155.566 52151 228.366
155.683 54473 233.395
155.8 56599 237.905
155.917 57725 240.26
156.033 59675 244.285
156.15 0 1
156.267 0 1
156.383 0 1
156.5 0 1
156.617 0 1
156.733 0 1
156.85 0 1
156.966 0 1
157.082 0 1
157.199 0 1
157.315 0 1
157.431 0 1
157.547 0 1
157.664 0 1
157.78 0 1
157.896 0 1
158.012 0 1
158.128 0 1
158.244 0 1
158.359 0 1
158.475 0 1
158.591 0 1
158.706 0 1
