
6.15755 0 1
6.2731 0 1
6.3887 0 1
6.50437 0 1
6.62009 0 1
6.73587 0 1
6.8517 0 1
6.96759 0 1
7.08353 0 1
7.19952 0 1
7.31557 0 1
7.43166 0 1
7.54781 0 1
7.664 0 1
7.78024 0 1
7.89653 0 1
8.01286 0 1
8.12924 0 1
8.24567 0 1
8.36213 0 1
8.47864 0 1
8.59519 0 1
8.71178 0 1
8.82841 0 1
8.94508 0 1
9.06179 0 1
9.17853 0 1
9.29531 0 1
9.41212 0 1
9.52897 0 1
9.64584 0 1
9.76276 0 1
9.8797 0 1
9.99667 0 1
10.1137 0 1
10.2307 0 1
10.3478 0 1
10.4648 0 1
10.5819 0 1
10.6991 0 1
10.8162 0 1
10.9334 0 1
11.0506 0 1
11.1678 0 1
11.285 0 1
11.4023 0 1
11.5196 0 1
11.6369 0 1
11.7542 0 1
11.8715 0 1
11.9888 0 1
12.1062 0 1
12.2235 0 1
12.3409 0 1
12.4582 0 1
12.5756 0 1
12.693 0 1
12.8104 0 1
12.9278 0 1
13.0452 0 1
13.1626 0 1
13.28 0 1
13.3974 0 1
13.5149 0 1
13.6323 0 1
13.7497 0 1
13.8671 0 1
13.9845 0 1
14.1019 0 1
14.2193 0 1
14.3367 0 1
14.4541 0 1
14.5714 0 1
14.6888 0 1
14.8062 0 1
14.9235 0 1
15.0408 740 27.2029
15.1581 812 28.4956
15.2755 831 28.8271
15.3927 796 28.2135
15.51 868 29.4618
15.6273 825 28.7228
15.7445 840 28.9828
15.8617 806 28.3901
15.9789 767 27.6948
16.0961 779 27.9106
16.2132 809 28.4429
16.3304 828 28.775
16.4475 845 29.0689
16.5646 864 29.3939
16.6816 847 29.1033
16.7986 921 30.348
16.9156 992 31.496
17.0326 988 31.4325
17.1496 963 31.0322
17.2665 967 31.0966
17.3833 994 31.5278
17.5002 971 31.1609
17.617 902 30.0333
17.7338 822 28.6705
17.8505 815 28.5482
17.9672 784 28
18.0839 822 28.6705
18.2005 771 27.7669
18.3171 847 29.1033
18.4337 891 29.8496
18.5502 925 30.4138
18.6666 923 30.3809
18.7831 944 30.7246
18.8994 935 30.5778
19.0158 946 30.7571
19.1321 914 30.2324
19.2483 854 29.2233
19.3645 808 28.4253
19.4806 806 28.3901
19.5967 709 26.6271
19.7128 688 26.2298
19.8288 605 24.5967
19.9447 491 22.1585
20.0606 0 1
20.1764 0 1
20.2922 0 1
20.4079 0 1
20.5236 0 1
20.6392 0 1
20.7548 0 1
20.8702 0 1
23.3078 0 1
23.4233 0 1
23.539 0 1
23.6547 0 1
23.7704 0 1
23.8862 0 1
24.0021 0 1
24.118 0 1
24.234 0 1
24.35 0 1
24.4661 367 19.1572
24.5822 486 22.0454
24.6984 495 22.2486
24.8146 549 23.4307
24.9309 581 24.1039
25.0472 614 24.779
25.1636 667 25.8263
25.28 754 27.4591
25.3965 825 28.7228
25.513 871 29.5127
25.6296 904 30.0666
25.7462 930 30.4959
25.8628 1003 31.6702
25.9795 1015 31.8591
26.0962 1004 31.686
26.213 948 30.7896
26.3298 879 29.6479
26.4466 833 28.8617
26.5635 821 28.6531
26.6804 812 28.4956
26.7973 907 30.1164
26.9143 901 30.0167
27.0313 852 29.189
27.1483 899 29.9833
27.2653 1043 32.2955
27.3824 921 30.348
27.4996 975 31.225
27.6167 930 30.4959
27.7339 908 30.133
27.8511 885 29.7489
27.9683 802 28.3196
28.0855 834 28.8791
28.2028 837 28.931
28.3201 789 28.0891
28.4374 744 27.2764
28.5547 782 27.9643
28.6721 782 27.9643
28.7894 816 28.5657
28.9068 891 29.8496
29.0242 936 30.5941
29.1416 869 29.4788
29.259 911 30.1828
29.3764 926 30.4302
29.4939 930 30.4959
29.6113 932 30.5287
29.7288 902 30.0333
29.8463 821 28.6531
29.9638 855 29.2404
30.0812 763 27.6225
30.1987 773 27.8029
30.3162 868 29.4618
30.4337 860 29.3258
30.5512 861 29.3428
30.6687 880 29.6648
30.7862 863 29.3769
30.9037 884 29.7321
31.0212 869 29.4788
31.1387 922 30.3645
31.2562 866 29.4279
31.3737 895 29.9166
31.4912 911 30.1828
31.6087 806 28.3901
31.7262 760 27.5681
31.8436 762 27.6043
31.9611 724 26.9072
32.0785 742 27.2397
32.1959 719 26.8142
32.3134 787 28.0535
32.4308 848 29.1204
32.5482 930 30.4959
32.6655 899 29.9833
32.7829 921 30.348
32.9002 914 30.2324
33.0176 877 29.6142
33.1349 881 29.6816
33.2522 904 30.0666
33.3694 832 28.8444
33.4867 809 28.4429
33.6039 747 27.3313
33.7211 769 27.7308
33.8383 781 27.9464
33.9554 757 27.5136
34.0725 828 28.775
34.1896 810 28.4605
34.3067 818 28.6007
34.4237 841 29
34.5407 817 28.5832
34.6577 901 30.0167
34.7746 867 29.4449
34.8915 878 29.6311
35.0084 906 30.0998
35.1252 837 28.931
35.242 786 28.0357
35.3587 734 27.0924
35.4755 743 27.258
35.5921 749 27.3679
35.7088 707 26.5895
35.8254 710 26.6458
35.9419 706 26.5707
36.0584 779 27.9106
36.1749 752 27.4226
36.2913 753 27.4408
36.4077 807 28.4077
36.524 767 27.6948
36.6403 724 26.9072
36.7565 761 27.5862
36.8727 687 26.2107
36.9889 677 26.0192
37.1049 617 24.8395
37.221 0 1
37.3369 0 1
37.4529 0 1
37.5687 0 1
37.6845 0 1
37.8003 0 1
37.916 0 1
38.0316 0 1
38.1472 0 1
40.5851 0 1
40.7008 0 1
40.8164 0 1
40.9322 0 1
41.048 0 1
41.1639 0 1
41.2798 0 1
41.3958 0 1
41.5118 0 1
41.6279 0 1
41.744 392 19.799
41.8602 454 21.3073
41.9765 473 21.7486
42.0928 541 23.2594
42.2091 505 22.4722
42.3255 480 21.9089
42.4419 516 22.7156
42.5584 497 22.2935
42.675 555 23.5584
42.7915 615 24.7992
42.9081 617 24.8395
43.0248 624 24.98
43.1415 710 26.6458
43.2582 674 25.9615
43.375 732 27.0555
43.4918 747 27.3313
43.6087 673 25.9422
43.7256 704 26.533
43.8425 716 26.7582
43.9595 709 26.6271
44.0765 703 26.5141
44.1935 628 25.0599
44.3106 597 24.4336
44.4277 575 23.9792
44.5448 591 24.3105
44.6619 535 23.1301
44.7791 578 24.0416
44.8963 620 24.8998
45.0136 664 25.7682
45.1308 775 27.8388
45.2481 689 26.2488
45.3654 720 26.8328
45.4827 758 27.5318
45.6001 765 27.6586
45.7174 726 26.9444
45.8348 672 25.923
45.9522 655 25.593
46.0697 644 25.3772
46.1871 594 24.3721
46.3046 605 24.5967
46.422 648 25.4558
46.5395 687 26.2107
46.657 667 25.8263
46.7745 657 25.632
46.892 711 26.6646
47.0096 741 27.2213
47.1271 761 27.5862
47.2446 712 26.6833
47.3622 688 26.2298
47.4797 717 26.7769
47.5973 679 26.0576
47.7149 641 25.318
47.8324 620 24.8998
47.95 647 25.4362
48.0675 572 23.9165
48.1851 567 23.8118
48.3027 611 24.7184
48.4202 619 24.8797
48.5378 736 27.1293
48.6554 708 26.6083
48.7729 703 26.5141
48.8904 757 27.5136
49.008 752 27.4226
49.1255 733 27.074
49.243 706 26.5707
49.3605 683 26.1343
49.478 633 25.1595
49.5955 589 24.2693
49.713 572 23.9165
49.8304 541 23.2594
49.9479 611 24.7184
50.0653 657 25.632
50.1827 700 26.4575
50.3001 619 24.8797
50.4175 691 26.2869
50.5348 717 26.7769
50.6521 710 26.6458
50.7694 700 26.4575
50.8867 697 26.4008
51.004 650 25.4951
51.1212 679 26.0576
51.2384 684 26.1534
51.3556 624 24.98
51.4727 577 24.0208
51.5899 570 23.8747
51.707 559 23.6432
51.824 583 24.1454
51.9411 673 25.9422
52.0581 640 25.2982
52.175 734 27.0924
52.2919 737 27.1477
52.4088 698 26.4197
52.5257 748 27.3496
52.6425 729 27
52.7593 690 26.2679
52.876 727 26.9629
52.9927 691 26.2869
53.1094 599 24.4745
53.226 569 23.8537
53.3426 537 23.1733
53.4591 564 23.7487
53.5756 569 23.8537
53.692 616 24.8193
53.8084 552 23.4947
53.9248 526 22.9347
54.0411 516 22.7156
54.1573 520 22.8035
54.2735 0 1
54.3896 0 1
54.5057 0 1
54.6217 0 1
54.7377 0 1
54.8537 0 1
54.9695 0 1
55.0853 0 1
55.2011 0 1
55.3168 0 1
55.4324 0 1
57.824 0 1
57.9396 0 1
58.0553 0 1
58.1711 0 1
58.2869 0 1
58.4028 0 1
58.5187 0 1
58.6347 0 1
58.7508 0 1
58.8669 0 1
58.983 478 21.8632
59.0992 555 23.5584
59.2155 635 25.1992
59.3318 670 25.8844
59.4482 731 27.037
59.5646 724 26.9072
59.681 803 28.3373
59.7975 787 28.0535
59.9141 843 29.0345
60.0306 818 28.6007
60.1473 783 27.9821
60.2639 755 27.4773
60.3807 757 27.5136
60.4974 732 27.0555
60.6142 790 28.1069
60.731 837 28.931
60.8479 892 29.8664
60.9648 880 29.6648
61.0818 897 29.95
61.1987 940 30.6594
61.3158 947 30.7734
61.4328 872 29.5296
61.5499 837 28.931
61.667 853 29.2062
61.7841 760 27.5681
61.9013 740 27.2029
62.0185 689 26.2488
62.1357 779 27.9106
62.253 771 27.7669
62.3702 823 28.688
62.4875 828 28.775
62.6049 869 29.4788
62.7222 913 30.2159
62.8396 907 30.1164
62.9569 937 30.6105
63.0743 937 30.6105
63.1918 941 30.6757
63.3092 896 29.9333
63.4267 771 27.7669
63.5441 846 29.0861
63.6616 811 28.4781
63.7791 750 27.3861
63.8966 700 26.4575
64.0142 701 26.4764
64.1317 710 26.6458
64.2492 792 28.1425
64.3668 888 29.7993
64.4843 883 29.7153
64.6019 916 30.2655
64.7195 896 29.9333
64.837 855 29.2404
64.9546 874 29.5635
65.0722 857 29.2746
65.1898 770 27.7489
65.3074 732 27.0555
65.4249 719 26.8142
65.5425 698 26.4197
65.6601 650 25.4951
65.7777 754 27.4591
65.8952 787 28.0535
66.0128 876 29.5973
66.1304 860 29.3258
66.2479 825 28.7228
66.3655 916 30.2655
66.483 920 30.3315
66.6005 941 30.6757
66.718 949 30.8058
66.8355 908 30.133
66.953 872 29.5296
67.0705 842 29.0172
67.1879 878 29.6311
67.3054 804 28.3549
67.4228 782 27.9643
67.5402 721 26.8514
67.6576 681 26.096
67.7749 748 27.3496
67.8923 783 27.9821
68.0096 914 30.2324
68.1269 918 30.2985
68.2442 955 30.9031
68.3614 1025 32.0156
68.4787 951 30.8383
68.5958 984 31.3688
68.713 945 30.7409
68.8302 883 29.7153
68.9473 858 29.2916
69.0643 784 28
69.1814 798 28.2489
69.2984 783 27.9821
69.4154 845 29.0689
69.5323 911 30.1828
69.6492 959 30.9677
69.7661 1037 32.2025
69.8829 1044 32.311
69.9997 1047 32.3574
70.1165 1002 31.6544
70.2332 1001 31.6386
70.3499 921 30.348
70.4665 926 30.4302
70.5831 879 29.6479
70.6996 827 28.7576
70.8161 790 28.1069
70.9326 737 27.1477
71.049 650 25.4951
71.1653 516 22.7156
71.2817 437 20.9045
71.3979 423 20.567
71.5141 425 20.6155
71.6303 395 19.8746
71.7464 378 19.4422
71.8624 0 1
71.9784 0 1
72.0944 0 1
72.2102 0 1
72.3261 0 1
72.4418 0 1
72.5575 0 1
72.6732 0 1
75.1054 0 1
75.2209 0 1
75.3365 0 1
75.4521 0 1
75.5678 0 1
75.6835 0 1
75.7993 0 1
75.9151 0 1
76.031 0 1
76.147 688 26.2298
76.263 709 26.6271
76.3791 648 25.4558
76.4952 625 25
76.6113 634 25.1794
76.7276 689 26.2488
76.8438 768 27.7128
76.9601 840 28.9828
77.0765 808 28.4253
77.1929 869 29.4788
77.3093 826 28.7402
77.4258 824 28.7054
77.5423 899 29.9833
77.6589 830 28.8097
77.7755 745 27.2947
77.8921 679 26.0576
78.0088 631 25.1197
78.1256 600 24.4949
78.2423 600 24.4949
78.3591 589 24.2693
78.4759 689 26.2488
78.5928 720 26.8328
78.7097 739 27.1846
78.8266 724 26.9072
78.9436 784 28
79.0606 825 28.7228
79.1776 818 28.6007
79.2946 794 28.178
79.4117 854 29.2233
79.5288 829 28.7924
79.6459 827 28.7576
79.7631 806 28.3901
79.8802 765 27.6586
79.9974 694 26.3439
80.1147 669 25.865
80.2319 541 23.2594
80.3491 618 24.8596
80.4664 652 25.5343
80.5837 682 26.1151
80.701 776 27.8568
80.8183 750 27.3861
80.9357 827 28.7576
81.053 789 28.0891
81.1704 859 29.3087
81.2877 795 28.1957
81.4051 790 28.1069
81.5225 736 27.1293
81.6399 668 25.8457
81.7573 600 24.4949
81.8747 617 24.8395
81.9922 580 24.0832
82.1096 633 25.1595
82.227 723 26.8887
82.3444 750 27.3861
82.4619 804 28.3549
82.5793 798 28.2489
82.6967 803 28.3373
82.8142 863 29.3769
82.9316 855 29.2404
83.049 849 29.1376
83.1664 842 29.0172
83.2838 772 27.7849
83.4012 850 29.1548
83.5186 815 28.5482
83.636 782 27.9643
83.7534 666 25.807
83.8708 704 26.533
83.9881 644 25.3772
84.1055 627 25.04
84.2228 620 24.8998
84.3401 767 27.6948
84.4575 814 28.5307
84.5747 846 29.0861
84.692 848 29.1204
84.8093 867 29.4449
84.9265 863 29.3769
85.0437 778 27.8927
85.1609 773 27.8029
85.2781 634 25.1794
85.3952 659 25.671
85.5123 614 24.779
85.6294 632 25.1396
85.7465 660 25.6905
85.8636 739 27.1846
85.9806 829 28.7924
86.0976 782 27.9643
86.2145 799 28.2666
86.3315 806 28.3901
86.4484 893 29.8831
86.5652 799 28.2666
86.682 856 29.2575
86.7988 856 29.2575
86.9156 872 29.5296
87.0323 786 28.0357
87.149 771 27.7669
87.2657 763 27.6225
87.3823 638 25.2587
87.4988 582 24.1247
87.6154 585 24.1868
87.7318 568 23.8328
87.8483 622 24.9399
87.9647 630 25.0998
88.081 646 25.4165
88.1973 701 26.4764
88.3136 591 24.3105
88.4298 552 23.4947
88.546 586 24.2074
88.6621 500 22.3607
88.7781 378 19.4422
88.8942 0 1
89.0101 0 1
89.126 0 1
89.2419 0 1
89.3577 0 1
89.4734 0 1
89.5891 0 1
89.7047 0 1
89.8203 0 1
89.9358 0 1
92.3269 0 1
92.4424 0 1
92.558 0 1
92.6736 0 1
92.7893 0 1
92.905 0 1
93.0208 0 1
93.1366 0 1
93.2525 0 1
93.3685 0 1
93.4845 0 1
93.6005 551 23.4734
93.7167 564 23.7487
93.8328 616 24.8193
93.949 653 25.5539
94.0653 680 26.0768
94.1816 665 25.7876
94.2979 680 26.0768
94.4143 666 25.807
94.5307 633 25.1595
94.6472 617 24.8395
94.7637 626 25.02
94.8803 682 26.1151
94.9969 739 27.1846
95.1135 737 27.1477
95.2302 835 28.8964
95.3469 802 28.3196
95.4637 753 27.4408
95.5805 833 28.8617
95.6973 878 29.6311
95.8142 812 28.4956
95.9311 830 28.8097
96.048 795 28.1957
96.1649 816 28.5657
96.2819 762 27.6043
96.3989 750 27.3861
96.516 711 26.6646
96.633 674 25.9615
96.7501 650 25.4951
96.8673 649 25.4755
96.9844 627 25.04
97.1016 685 26.1725
97.2188 762 27.6043
97.336 811 28.4781
97.4532 818 28.6007
97.5704 893 29.8831
97.6877 841 29
97.805 796 28.2135
97.9223 763 27.6225
98.0396 635 25.1992
98.1569 652 25.5343
98.2743 655 25.593
98.3916 563 23.7276
98.509 658 25.6515
98.6264 739 27.1846
98.7438 765 27.6586
98.8612 843 29.0345
98.9786 862 29.3598
99.096 815 28.5482
99.2134 865 29.4109
99.3308 867 29.4449
99.4482 839 28.9655
99.5656 912 30.1993
99.6831 872 29.5296
99.8005 846 29.0861
99.9179 828 28.775
100.035 835 28.8964
100.153 792 28.1425
100.27 660 25.6905
100.388 694 26.3439
100.505 709 26.6271
100.622 737 27.1477
100.74 773 27.8029
100.857 873 29.5466
100.975 892 29.8664
101.092 870 29.4958
101.209 950 30.8221
101.327 956 30.9192
101.444 886 29.7658
101.561 784 28
101.679 701 26.4764
101.796 658 25.6515
101.913 652 25.5343
102.03 623 24.96
102.148 708 26.6083
102.265 778 27.8927
102.382 901 30.0167
102.499 855 29.2404
102.616 900 30
102.733 911 30.1828
102.851 945 30.7409
102.968 943 30.7083
103.085 917 30.282
103.202 882 29.6985
103.319 956 30.9192
103.436 856 29.2575
103.552 889 29.8161
103.669 750 27.3861
103.786 756 27.4955
103.903 665 25.7876
104.02 776 27.8568
104.137 811 28.4781
104.253 803 28.3373
104.37 934 30.5614
104.487 938 30.6268
104.603 943 30.7083
104.72 865 29.4109
104.836 938 30.6268
104.953 827 28.7576
105.069 747 27.3313
105.186 628 25.0599
105.302 628 25.0599
105.418 634 25.1794
105.535 593 24.3516
105.651 612 24.7386
105.767 619 24.8797
105.883 621 24.9199
105.999 580 24.0832
106.115 0 1
106.231 0 1
106.347 0 1
106.463 0 1
106.579 0 1
106.694 0 1
106.81 0 1
106.926 0 1
107.041 0 1
107.157 0 1
109.576 0 1
109.692 0 1
109.807 0 1
109.923 0 1
110.039 0 1
110.155 0 1
110.27 0 1
110.386 0 1
110.502 0 1
110.618 349 18.6815
110.735 469 21.6564
110.851 568 23.8328
110.967 667 25.8263
111.083 690 26.2679
111.199 748 27.3496
111.316 790 28.1069
111.432 816 28.5657
111.549 869 29.4788
111.665 815 28.5482
111.782 852 29.189
111.898 814 28.5307
112.015 791 28.1247
112.132 737 27.1477
112.248 704 26.533
112.365 675 25.9808
112.482 635 25.1992
112.599 682 26.1151
112.716 735 27.1109
112.832 793 28.1603
112.949 806 28.3901
113.066 876 29.5973
113.183 867 29.4449
113.3 842 29.0172
113.417 777 27.8747
113.534 776 27.8568
113.652 712 26.6833
113.769 649 25.4755
113.886 576 24
114.003 582 24.1247
114.12 607 24.6374
114.238 734 27.0924
114.355 719 26.8142
114.472 776 27.8568
114.589 749 27.3679
114.707 802 28.3196
114.824 832 28.8444
114.942 842 29.0172
115.059 818 28.6007
115.176 855 29.2404
115.294 775 27.8388
115.411 869 29.4788
115.529 854 29.2233
115.646 790 28.1069
115.764 737 27.1477
115.881 690 26.2679
115.999 689 26.2488
116.116 686 26.1916
116.234 688 26.2298
116.351 777 27.8747
116.469 813 28.5132
116.586 832 28.8444
116.704 833 28.8617
116.821 878 29.6311
116.939 840 28.9828
117.056 846 29.0861
117.174 777 27.8747
117.291 743 27.258
117.409 670 25.8844
117.526 642 25.3377
117.644 652 25.5343
117.761 673 25.9422
117.879 758 27.5318
117.996 794 28.178
118.114 836 28.9137
118.231 816 28.5657
118.349 817 28.5832
118.466 859 29.3087
118.584 828 28.775
118.701 857 29.2746
118.819 826 28.7402
118.936 854 29.2233
119.053 833 28.8617
119.171 803 28.3373
119.288 777 27.8747
119.405 720 26.8328
119.523 636 25.219
119.64 658 25.6515
119.757 695 26.3629
119.875 687 26.2107
119.992 742 27.2397
120.109 738 27.1662
120.226 728 26.9815
120.343 783 27.9821
120.46 807 28.4077
120.578 802 28.3196
120.695 835 28.8964
120.812 688 26.2298
120.929 690 26.2679
121.046 688 26.2298
121.163 635 25.1992
121.279 625 25
121.396 590 24.2899
121.513 633 25.1595
121.63 645 25.3969
121.747 702 26.4953
121.863 696 26.3818
121.98 698 26.4197
122.097 669 25.865
122.213 749 27.3679
122.33 679 26.0576
122.446 599 24.4745
122.563 635 25.1992
122.679 582 24.1247
122.795 543 23.3024
122.912 500 22.3607
123.028 409 20.2237
123.144 368 19.1833
123.26 324 18
123.377 0 1
123.493 0 1
123.609 0 1
123.725 0 1
123.84 0 1
123.956 0 1
124.072 0 1
124.188 0 1
124.303 0 1
124.419 0 1
126.852 0 1
126.968 0 1
127.083 0 1
127.199 0 1
127.315 0 1
127.431 0 1
127.547 0 1
127.663 0 1
127.779 0 1
127.895 0 1
128.011 0 1
128.127 0 1
128.243 0 1
128.359 831 28.8271
128.476 850 29.1548
128.592 884 29.7321
128.708 827 28.7576
128.825 867 29.4449
128.941 851 29.1719
129.058 912 30.1993
129.174 1006 31.7175
129.291 1055 32.4808
129.408 1044 32.311
129.524 972 31.1769
129.641 1050 32.4037
129.758 1061 32.573
129.875 1020 31.9374
129.992 937 30.6105
130.108 841 29
130.225 816 28.5657
130.342 808 28.4253
130.459 781 27.9464
130.576 889 29.8161
130.693 889 29.8161
130.81 927 30.4467
130.928 974 31.209
131.045 939 30.6431
131.162 1065 32.6343
131.279 981 31.3209
131.396 1019 31.9218
131.513 1040 32.249
131.631 1055 32.4808
131.748 993 31.5119
131.865 957 30.9354
131.983 938 30.6268
132.1 903 30.05
132.217 861 29.3428
132.335 859 29.3087
132.452 843 29.0345
132.57 937 30.6105
132.687 956 30.9192
132.804 1014 31.8434
132.922 1047 32.3574
133.039 1071 32.7261
133.157 1050 32.4037
133.274 993 31.5119
133.392 953 30.8707
133.509 851 29.1719
133.627 899 29.9833
133.744 850 29.1548
133.862 797 28.2312
133.979 806 28.3901
134.097 883 29.7153
134.214 916 30.2655
134.332 963 31.0322
134.449 972 31.1769
134.567 969 31.1288
134.684 1004 31.686
134.802 982 31.3369
134.919 1038 32.218
135.037 987 31.4166
135.154 951 30.8383
135.272 992 31.496
135.389 969 31.1288
135.507 916 30.2655
135.624 844 29.0517
135.742 885 29.7489
135.859 840 28.9828
135.977 868 29.4618
136.094 925 30.4138
136.211 980 31.305
136.329 1025 32.0156
136.446 980 31.305
136.564 1042 32.28
136.681 1045 32.3265
136.798 957 30.9354
136.915 970 31.1448
137.033 923 30.3809
137.15 876 29.5973
137.267 831 28.8271
137.384 770 27.7489
137.502 748 27.3496
137.619 778 27.8927
137.736 877 29.6142
137.853 849 29.1376
137.97 899 29.9833
138.087 899 29.9833
138.204 954 30.8869
138.321 949 30.8058
138.438 984 31.3688
138.555 958 30.9516
138.672 1002 31.6544
138.788 866 29.4279
138.905 862 29.3598
139.022 792 28.1425
139.139 736 27.1293
139.255 727 26.9629
139.372 646 25.4165
139.488 612 24.7386
139.605 570 23.8747
139.721 585 24.1868
139.838 629 25.0799
139.954 629 25.0799
140.071 620 24.8998
140.187 556 23.5797
140.303 503 22.4277
140.419 481 21.9317
140.535 425 20.6155
140.652 401 20.025
140.768 0 1
140.884 0 1
141 0 1
141.115 0 1
141.231 0 1
141.347 0 1
141.463 0 1
141.578 0 1
141.694 0 1
144.104 0 1
144.219 0 1
144.335 0 1
144.45 0 1
144.566 0 1
144.682 0 1
144.798 0 1
144.914 0 1
145.03 0 1
145.146 555 23.5584
145.262 614 24.779
145.378 654 25.5734
145.494 680 26.0768
145.61 702 26.4953
145.726 668 25.8457
145.842 660 25.6905
145.959 637 25.2389
146.075 564 23.7487
146.192 581 24.1039
146.308 515 22.6936
146.425 534 23.1084
146.541 592 24.3311
146.658 564 23.7487
146.774 604 24.5764
146.891 599 24.4745
147.008 604 24.5764
147.125 612 24.7386
147.241 692 26.3059
147.358 621 24.9199
147.475 689 26.2488
147.592 678 26.0384
147.709 669 25.865
147.826 650 25.4951
147.943 597 24.4336
148.06 621 24.9199
148.177 552 23.4947
148.294 573 23.9374
148.411 559 23.6432
148.528 617 24.8395
148.645 612 24.7386
148.762 654 25.5734
148.88 643 25.3574
148.997 710 26.6458
149.114 664 25.7682
149.231 623 24.96
149.349 673 25.9422
149.466 616 24.8193
149.583 628 25.0599
149.701 601 24.5153
149.818 537 23.1733
149.935 511 22.6053
150.053 520 22.8035
150.17 553 23.516
150.287 539 23.2164
150.405 590 24.2899
150.522 592 24.3311
150.64 633 25.1595
150.757 639 25.2784
150.875 612 24.7386
150.992 615 24.7992
151.11 610 24.6982
151.227 632 25.1396
151.344 624 24.98
151.462 575 23.9792
151.579 588 24.2487
151.697 564 23.7487
151.814 599 24.4745
151.932 580 24.0832
152.049 566 23.7908
152.167 561 23.6854
152.284 607 24.6374
152.402 610 24.6982
152.519 640 25.2982
152.636 629 25.0799
152.754 618 24.8596
152.871 636 25.219
152.989 626 25.02
153.106 614 24.779
153.223 556 23.5797
153.341 532 23.0651
153.458 520 22.8035
153.575 476 21.8174
153.693 500 22.3607
153.81 561 23.6854
153.927 573 23.9374
154.044 555 23.5584
154.162 588 24.2487
154.279 583 24.1454
154.396 562 23.7065
154.513 636 25.219
154.63 602 24.5357
154.747 556 23.5797
154.864 571 23.8956
154.981 547 23.388
155.098 566 23.7908
155.215 532 23.0651
155.332 519 22.7816
155.449 498 22.3159
155.566 499 22.3383
155.683 547 23.388
155.8 522 22.8473
155.917 531 23.0434
156.033 534 23.1084
156.15 0 1
156.267 0 1
156.383 0 1
156.5 0 1
156.617 0 1
156.733 0 1
156.85 0 1
156.966 0 1
157.082 0 1
157.199 0 1
157.315 0 1
157.431 0 1
157.547 0 1
157.664 0 1
157.78 0 1
157.896 0 1
158.012 0 1
158.128 0 1
158.244 0 1
158.359 0 1
158.475 0 1
158.591 0 1
158.706 0 1
