
6.15755 0 1
6.2731 0 1
6.3887 0 1
6.50437 0 1
6.62009 0 1
6.73587 0 1
6.8517 0 1
6.96759 0 1
7.08353 0 1
7.19952 0 1
7.31557 0 1
7.43166 0 1
7.54781 0 1
7.664 0 1
7.78024 0 1
7.89653 0 1
8.01286 0 1
8.12924 0 1
8.24567 0 1
8.36213 0 1
8.47864 0 1
8.59519 0 1
8.71178 0 1
8.82841 0 1
8.94508 0 1
9.06179 0 1
9.17853 0 1
9.29531 0 1
9.41212 0 1
9.52897 0 1
9.64584 0 1
9.76276 0 1
9.8797 0 1
9.99667 0 1
10.1137 0 1
10.2307 0 1
10.3478 0 1
10.4648 0 1
10.5819 0 1
10.6991 0 1
10.8162 0 1
10.9334 0 1
11.0506 0 1
11.1678 0 1
11.285 0 1
11.4023 0 1
11.5196 0 1
11.6369 0 1
11.7542 0 1
11.8715 0 1
11.9888 0 1
12.1062 0 1
12.2235 0 1
12.3409 0 1
12.4582 0 1
12.5756 0 1
12.693 0 1
12.8104 0 1
12.9278 0 1
13.0452 0 1
13.1626 0 1
13.28 0 1
13.3974 0 1
13.5149 0 1
13.6323 0 1
13.7497 0 1
13.8671 0 1
13.9845 0 1
14.1019 0 1
14.2193 0 1
14.3367 0 1
14.4541 0 1
14.5714 0 1
14.6888 0 1
14.8062 0 1
14.9235 0 1
15.0408 838 28.9482
15.1581 872 29.5296
15.2755 882 29.6985
15.3927 828 28.775
15.51 925 30.4138
15.6273 996 31.5595
15.7445 932 30.5287
15.8617 906 30.0998
15.9789 924 30.3974
16.0961 813 28.5132
16.2132 823 28.688
16.3304 808 28.4253
16.4475 801 28.3019
16.5646 775 27.8388
16.6816 775 27.8388
16.7986 819 28.6182
16.9156 823 28.688
17.0326 794 28.178
17.1496 840 28.9828
17.2665 790 28.1069
17.3833 819 28.6182
17.5002 771 27.7669
17.617 767 27.6948
17.7338 792 28.1425
17.8505 805 28.3725
17.9672 826 28.7402
18.0839 818 28.6007
18.2005 810 28.4605
18.3171 779 27.9106
18.4337 762 27.6043
18.5502 806 28.3901
18.6666 797 28.2312
18.7831 819 28.6182
18.8994 793 28.1603
19.0158 766 27.6767
19.1321 773 27.8029
19.2483 722 26.8701
19.3645 753 27.4408
19.4806 684 26.1534
19.5967 660 25.6905
19.7128 628 25.0599
19.8288 522 22.8473
19.9447 490 22.1359
20.0606 0 1
20.1764 0 1
20.2922 0 1
20.4079 0 1
20.5236 0 1
20.6392 0 1
20.7548 0 1
20.8702 0 1
23.3078 0 1
23.4233 0 1
23.539 0 1
23.6547 0 1
23.7704 0 1
23.8862 0 1
24.0021 0 1
24.118 0 1
24.234 0 1
24.35 0 1
24.4661 302 17.3781
24.5822 362 19.0263
24.6984 411 20.2731
24.8146 447 21.1424
24.9309 530 23.0217
25.0472 618 24.8596
25.1636 706 26.5707
25.28 707 26.5895
25.3965 749 27.3679
25.513 753 27.4408
25.6296 831 28.8271
25.7462 822 28.6705
25.8628 799 28.2666
25.9795 859 29.3087
26.0962 826 28.7402
26.213 778 27.8927
26.3298 803 28.3373
26.4466 772 27.7849
26.5635 757 27.5136
26.6804 738 27.1662
26.7973 714 26.7208
26.9143 667 25.8263
27.0313 665 25.7876
27.1483 659 25.671
27.2653 768 27.7128
27.3824 715 26.7395
27.4996 715 26.7395
27.6167 738 27.1662
27.7339 734 27.0924
27.8511 781 27.9464
27.9683 713 26.7021
28.0855 809 28.4429
28.2028 745 27.2947
28.3201 696 26.3818
28.4374 696 26.3818
28.5547 688 26.2298
28.6721 680 26.0768
28.7894 669 25.865
28.9068 656 25.6125
29.0242 753 27.4408
29.1416 749 27.3679
29.259 709 26.6271
29.3764 725 26.9258
29.4939 740 27.2029
29.6113 689 26.2488
29.7288 748 27.3496
29.8463 720 26.8328
29.9638 667 25.8263
30.0812 732 27.0555
30.1987 674 25.9615
30.3162 634 25.1794
30.4337 603 24.5561
30.5512 655 25.593
30.6687 600 24.4949
30.7862 716 26.7582
30.9037 735 27.1109
31.0212 697 26.4008
31.1387 716 26.7582
31.2562 769 27.7308
31.3737 787 28.0535
31.4912 742 27.2397
31.6087 743 27.258
31.7262 697 26.4008
31.8436 682 26.1151
31.9611 651 25.5147
32.0785 592 24.3311
32.1959 596 24.4131
32.3134 670 25.8844
32.4308 643 25.3574
32.5482 665 25.7876
32.6655 643 25.3574
32.7829 618 24.8596
32.9002 668 25.8457
33.0176 632 25.1396
33.1349 624 24.98
33.2522 674 25.9615
33.3694 665 25.7876
33.4867 622 24.9399
33.6039 657 25.632
33.7211 676 26
33.8383 650 25.4951
33.9554 616 24.8193
34.0725 597 24.4336
34.1896 572 23.9165
34.3067 580 24.0832
34.4237 675 25.9808
34.5407 697 26.4008
34.6577 677 26.0192
34.7746 706 26.5707
34.8915 668 25.8457
35.0084 699 26.4386
35.1252 715 26.7395
35.242 672 25.923
35.3587 647 25.4362
35.4755 626 25.02
35.5921 596 24.4131
35.7088 596 24.4131
35.8254 571 23.8956
35.9419 628 25.0599
36.0584 605 24.5967
36.1749 581 24.1039
36.2913 641 25.318
36.4077 630 25.0998
36.524 581 24.1039
36.6403 527 22.9565
36.7565 530 23.0217
36.8727 497 22.2935
36.9889 479 21.8861
37.1049 433 20.8087
37.221 0 1
37.3369 0 1
37.4529 0 1
37.5687 0 1
37.6845 0 1
37.8003 0 1
37.916 0 1
38.0316 0 1
38.1472 0 1
40.5851 0 1
40.7008 0 1
40.8164 0 1
40.9322 0 1
41.048 0 1
41.1639 0 1
41.2798 0 1
41.3958 0 1
41.5118 0 1
41.6279 0 1
41.744 268 16.3707
41.8602 347 18.6279
41.9765 432 20.7846
42.0928 439 20.9523
42.2091 481 21.9317
42.3255 517 22.7376
42.4419 535 23.1301
42.5584 529 23
42.675 558 23.622
42.7915 525 22.9129
42.9081 474 21.7715
43.0248 445 21.095
43.1415 442 21.0238
43.2582 490 22.1359
43.375 494 22.2261
43.4918 528 22.9783
43.6087 519 22.7816
43.7256 528 22.9783
43.8425 497 22.2935
43.9595 518 22.7596
44.0765 535 23.1301
44.1935 484 22
44.3106 513 22.6495
44.4277 453 21.2838
44.5448 430 20.7364
44.6619 449 21.1896
44.7791 468 21.6333
44.8963 523 22.8692
45.0136 477 21.8403
45.1308 518 22.7596
45.2481 521 22.8254
45.3654 525 22.9129
45.4827 475 21.7945
45.6001 509 22.561
45.7174 540 23.2379
45.8348 548 23.4094
45.9522 525 22.9129
46.0697 522 22.8473
46.1871 519 22.7816
46.3046 491 22.1585
46.422 454 21.3073
46.5395 440 20.9762
46.657 448 21.166
46.7745 454 21.3073
46.892 461 21.4709
47.0096 478 21.8632
47.1271 502 22.4054
47.2446 542 23.2809
47.3622 536 23.1517
47.4797 477 21.8403
47.5973 514 22.6716
47.7149 482 21.9545
47.8324 461 21.4709
47.95 414 20.347
48.0675 416 20.3961
48.1851 434 20.8327
48.3027 447 21.1424
48.4202 497 22.2935
48.5378 493 22.2036
48.6554 541 23.2594
48.7729 511 22.6053
48.8904 484 22
49.008 509 22.561
49.1255 503 22.4277
49.243 531 23.0434
49.3605 509 22.561
49.478 475 21.7945
49.5955 480 21.9089
49.713 456 21.3542
49.8304 461 21.4709
49.9479 395 19.8746
50.0653 379 19.4679
50.1827 402 20.0499
50.3001 370 19.2354
50.4175 406 20.1494
50.5348 429 20.7123
50.6521 455 21.3307
50.7694 470 21.6795
50.8867 490 22.1359
51.004 519 22.7816
51.1212 456 21.3542
51.2384 487 22.0681
51.3556 430 20.7364
51.4727 443 21.0476
51.5899 404 20.0998
51.707 436 20.8806
51.824 469 21.6564
51.9411 433 20.8087
52.0581 414 20.347
52.175 467 21.6102
52.2919 451 21.2368
52.4088 475 21.7945
52.5257 425 20.6155
52.6425 484 22
52.7593 511 22.6053
52.876 483 21.9773
52.9927 475 21.7945
53.1094 524 22.891
53.226 463 21.5174
53.3426 431 20.7605
53.4591 399 19.975
53.5756 414 20.347
53.692 342 18.4932
53.8084 320 17.8885
53.9248 317 17.8045
54.0411 344 18.5472
54.1573 326 18.0555
54.2735 0 1
54.3896 0 1
54.5057 0 1
54.6217 0 1
54.7377 0 1
54.8537 0 1
54.9695 0 1
55.0853 0 1
55.2011 0 1
55.3168 0 1
55.4324 0 1
57.824 0 1
57.9396 0 1
58.0553 0 1
58.1711 0 1
58.2869 0 1
58.4028 0 1
58.5187 0 1
58.6347 0 1
58.7508 0 1
58.8669 0 1
58.983 417 20.4206
59.0992 586 24.2074
59.2155 679 26.0576
59.3318 737 27.1477
59.4482 781 27.9464
59.5646 858 29.2916
59.681 879 29.6479
59.7975 896 29.9333
59.9141 880 29.6648
60.0306 1002 31.6544
60.1473 884 29.7321
60.2639 920 30.3315
60.3807 915 30.249
60.4974 906 30.0998
60.6142 972 31.1769
60.731 882 29.6985
60.8479 887 29.7825
60.9648 874 29.5635
61.0818 867 29.4449
61.1987 855 29.2404
61.3158 818 28.6007
61.4328 859 29.3087
61.5499 780 27.9285
61.667 789 28.0891
61.7841 772 27.7849
61.9013 703 26.5141
62.0185 631 25.1197
62.1357 627 25.04
62.253 627 25.04
62.3702 559 23.6432
62.4875 624 24.98
62.6049 651 25.5147
62.7222 632 25.1396
62.8396 631 25.1197
62.9569 584 24.1661
63.0743 624 24.98
63.1918 623 24.96
63.3092 616 24.8193
63.4267 564 23.7487
63.5441 521 22.8254
63.6616 574 23.9583
63.7791 535 23.1301
63.8966 510 22.5832
64.0142 523 22.8692
64.1317 590 24.2899
64.2492 529 23
64.3668 536 23.1517
64.4843 525 22.9129
64.6019 542 23.2809
64.7195 501 22.383
64.837 548 23.4094
64.9546 530 23.0217
65.0722 531 23.0434
65.1898 574 23.9583
65.3074 526 22.9347
65.4249 526 22.9347
65.5425 519 22.7816
65.6601 500 22.3607
65.7777 463 21.5174
65.8952 476 21.8174
66.0128 474 21.7715
66.1304 492 22.1811
66.2479 534 23.1084
66.3655 499 22.3383
66.483 557 23.6008
66.6005 499 22.3383
66.718 511 22.6053
66.8355 523 22.8692
66.953 521 22.8254
67.0705 489 22.1133
67.1879 528 22.9783
67.3054 493 22.2036
67.4228 518 22.7596
67.5402 500 22.3607
67.6576 527 22.9565
67.7749 548 23.4094
67.8923 564 23.7487
68.0096 532 23.0651
68.1269 494 22.2261
68.2442 558 23.622
68.3614 507 22.5167
68.4787 490 22.1359
68.5958 468 21.6333
68.713 514 22.6716
68.8302 504 22.4499
68.9473 491 22.1585
69.0643 530 23.0217
69.1814 484 22
69.2984 491 22.1585
69.4154 502 22.4054
69.5323 487 22.0681
69.6492 461 21.4709
69.7661 497 22.2935
69.8829 546 23.3666
69.9997 485 22.0227
70.1165 495 22.2486
70.2332 518 22.7596
70.3499 458 21.4009
70.4665 451 21.2368
70.5831 449 21.1896
70.6996 401 20.025
70.8161 350 18.7083
70.9326 325 18.0278
71.049 295 17.1756
71.1653 296 17.2047
71.2817 280 16.7332
71.3979 240 15.4919
71.5141 237 15.3948
71.6303 239 15.4596
71.7464 197 14.0357
71.8624 0 1
71.9784 0 1
72.0944 0 1
72.2102 0 1
72.3261 0 1
72.4418 0 1
72.5575 0 1
72.6732 0 1
75.1054 0 1
75.2209 0 1
75.3365 0 1
75.4521 0 1
75.5678 0 1
75.6835 0 1
75.7993 0 1
75.9151 0 1
76.031 0 1
76.147 311 17.6352
76.263 308 17.5499
76.3791 368 19.1833
76.4952 388 19.6977
76.6113 413 20.3224
76.7276 429 20.7123
76.8438 443 21.0476
76.9601 435 20.8567
77.0765 434 20.8327
77.1929 460 21.4476
77.3093 402 20.0499
77.4258 419 20.4695
77.5423 423 20.567
77.6589 405 20.1246
77.7755 443 21.0476
77.8921 457 21.3776
78.0088 432 20.7846
78.1256 425 20.6155
78.2423 422 20.5426
78.3591 385 19.6214
78.4759 363 19.0526
78.5928 384 19.5959
78.7097 381 19.5192
78.8266 392 19.799
78.9436 433 20.8087
79.0606 450 21.2132
79.1776 480 21.9089
79.2946 440 20.9762
79.4117 459 21.4243
79.5288 435 20.8567
79.6459 419 20.4695
79.7631 451 21.2368
79.8802 412 20.2978
79.9974 420 20.4939
80.1147 454 21.3073
80.2319 464 21.5407
80.3491 449 21.1896
80.4664 447 21.1424
80.5837 463 21.5174
80.701 439 20.9523
80.8183 448 21.166
80.9357 412 20.2978
81.053 458 21.4009
81.1704 423 20.567
81.2877 441 21
81.4051 440 20.9762
81.5225 453 21.2838
81.6399 449 21.1896
81.7573 433 20.8087
81.8747 405 20.1246
81.9922 406 20.1494
82.1096 365 19.105
82.227 386 19.6469
82.3444 413 20.3224
82.4619 406 20.1494
82.5793 450 21.2132
82.6967 427 20.664
82.8142 504 22.4499
82.9316 486 22.0454
83.049 448 21.166
83.1664 445 21.095
83.2838 427 20.664
83.4012 415 20.3715
83.5186 396 19.8997
83.636 440 20.9762
83.7534 420 20.4939
83.8708 429 20.7123
83.9881 456 21.3542
84.1055 484 22
84.2228 485 22.0227
84.3401 462 21.4942
84.4575 503 22.4277
84.5747 449 21.1896
84.692 481 21.9317
84.8093 437 20.9045
84.9265 441 21
85.0437 453 21.2838
85.1609 436 20.8806
85.2781 438 20.9284
85.3952 468 21.6333
85.5123 407 20.1742
85.6294 458 21.4009
85.7465 412 20.2978
85.8636 460 21.4476
85.9806 420 20.4939
86.0976 459 21.4243
86.2145 441 21
86.3315 471 21.7025
86.4484 471 21.7025
86.5652 461 21.4709
86.682 459 21.4243
86.7988 410 20.2485
86.9156 427 20.664
87.0323 447 21.1424
87.149 435 20.8567
87.2657 449 21.1896
87.3823 448 21.166
87.4988 463 21.5174
87.6154 451 21.2368
87.7318 417 20.4206
87.8483 424 20.5913
87.9647 382 19.5448
88.081 330 18.1659
88.1973 347 18.6279
88.3136 313 17.6918
88.4298 289 17
88.546 238 15.4272
88.6621 273 16.5227
88.7781 255 15.9687
88.8942 0 1
89.0101 0 1
89.126 0 1
89.2419 0 1
89.3577 0 1
89.4734 0 1
89.5891 0 1
89.7047 0 1
89.8203 0 1
89.9358 0 1
92.3269 0 1
92.4424 0 1
92.558 0 1
92.6736 0 1
92.7893 0 1
92.905 0 1
93.0208 0 1
93.1366 0 1
93.2525 0 1
93.3685 0 1
93.4845 0 1
93.6005 375 19.3649
93.7167 370 19.2354
93.8328 431 20.7605
93.949 433 20.8087
94.0653 446 21.1187
94.1816 469 21.6564
94.2979 430 20.7364
94.4143 419 20.4695
94.5307 422 20.5426
94.6472 494 22.2261
94.7637 450 21.2132
94.8803 452 21.2603
94.9969 441 21
95.1135 464 21.5407
95.2302 420 20.4939
95.3469 492 22.1811
95.4637 490 22.1359
95.5805 502 22.4054
95.6973 508 22.5389
95.8142 461 21.4709
95.9311 447 21.1424
96.048 436 20.8806
96.1649 414 20.347
96.2819 478 21.8632
96.3989 489 22.1133
96.516 477 21.8403
96.633 472 21.7256
96.7501 492 22.1811
96.8673 503 22.4277
96.9844 494 22.2261
97.1016 518 22.7596
97.2188 468 21.6333
97.336 442 21.0238
97.4532 471 21.7025
97.5704 490 22.1359
97.6877 440 20.9762
97.805 461 21.4709
97.9223 448 21.166
98.0396 488 22.0907
98.1569 460 21.4476
98.2743 503 22.4277
98.3916 434 20.8327
98.509 439 20.9523
98.6264 464 21.5407
98.7438 475 21.7945
98.8612 487 22.0681
98.9786 520 22.8035
99.096 550 23.4521
99.2134 561 23.6854
99.3308 553 23.516
99.4482 468 21.6333
99.5656 498 22.3159
99.6831 512 22.6274
99.8005 478 21.8632
99.9179 488 22.0907
100.035 531 23.0434
100.153 538 23.1948
100.27 528 22.9783
100.388 521 22.8254
100.505 548 23.4094
100.622 508 22.5389
100.74 523 22.8692
100.857 487 22.0681
100.975 512 22.6274
101.092 498 22.3159
101.209 511 22.6053
101.327 522 22.8473
101.444 504 22.4499
101.561 527 22.9565
101.679 536 23.1517
101.796 483 21.9773
101.913 488 22.0907
102.03 488 22.0907
102.148 498 22.3159
102.265 486 22.0454
102.382 514 22.6716
102.499 545 23.3452
102.616 550 23.4521
102.733 567 23.8118
102.851 557 23.6008
102.968 624 24.98
103.085 545 23.3452
103.202 524 22.891
103.319 527 22.9565
103.436 540 23.2379
103.552 603 24.5561
103.669 603 24.5561
103.786 556 23.5797
103.903 585 24.1868
104.02 601 24.5153
104.137 525 22.9129
104.253 559 23.6432
104.37 557 23.6008
104.487 529 23
104.603 572 23.9165
104.72 532 23.0651
104.836 569 23.8537
104.953 558 23.622
105.069 492 22.1811
105.186 502 22.4054
105.302 471 21.7025
105.418 416 20.3961
105.535 407 20.1742
105.651 368 19.1833
105.767 359 18.9473
105.883 292 17.088
105.999 271 16.4621
106.115 0 1
106.231 0 1
106.347 0 1
106.463 0 1
106.579 0 1
106.694 0 1
106.81 0 1
106.926 0 1
107.041 0 1
107.157 0 1
109.576 0 1
109.692 0 1
109.807 0 1
109.923 0 1
110.039 0 1
110.155 0 1
110.27 0 1
110.386 0 1
110.502 0 1
110.618 290 17.0294
110.735 331 18.1934
110.851 397 19.9249
110.967 423 20.567
111.083 480 21.9089
111.199 472 21.7256
111.316 515 22.6936
111.432 518 22.7596
111.549 582 24.1247
111.665 542 23.2809
111.782 550 23.4521
111.898 516 22.7156
112.015 478 21.8632
112.132 546 23.3666
112.248 514 22.6716
112.365 573 23.9374
112.482 578 24.0416
112.599 550 23.4521
112.716 539 23.2164
112.832 560 23.6643
112.949 501 22.383
113.066 512 22.6274
113.183 485 22.0227
113.3 509 22.561
113.417 522 22.8473
113.534 475 21.7945
113.652 499 22.3383
113.769 518 22.7596
113.886 495 22.2486
114.003 505 22.4722
114.12 487 22.0681
114.238 483 21.9773
114.355 480 21.9089
114.472 462 21.4942
114.589 474 21.7715
114.707 481 21.9317
114.824 462 21.4942
114.942 514 22.6716
115.059 502 22.4054
115.176 545 23.3452
115.294 483 21.9773
115.411 484 22
115.529 467 21.6102
115.646 474 21.7715
115.764 468 21.6333
115.881 506 22.4944
115.999 509 22.561
116.116 494 22.2261
116.234 504 22.4499
116.351 491 22.1585
116.469 478 21.8632
116.586 487 22.0681
116.704 481 21.9317
116.821 490 22.1359
116.939 470 21.6795
117.056 467 21.6102
117.174 454 21.3073
117.291 525 22.9129
117.409 490 22.1359
117.526 454 21.3073
117.644 471 21.7025
117.761 416 20.3961
117.879 412 20.2978
117.996 472 21.7256
118.114 398 19.9499
118.231 454 21.3073
118.349 500 22.3607
118.466 456 21.3542
118.584 479 21.8861
118.701 471 21.7025
118.819 466 21.587
118.936 487 22.0681
119.053 462 21.4942
119.171 445 21.095
119.288 456 21.3542
119.405 447 21.1424
119.523 460 21.4476
119.64 478 21.8632
119.757 499 22.3383
119.875 498 22.3159
119.992 469 21.6564
120.109 439 20.9523
120.226 453 21.2838
120.343 447 21.1424
120.46 462 21.4942
120.578 477 21.8403
120.695 505 22.4722
120.812 486 22.0454
120.929 436 20.8806
121.046 467 21.6102
121.163 444 21.0713
121.279 426 20.6398
121.396 400 20
121.513 390 19.7484
121.63 374 19.3391
121.747 348 18.6548
121.863 403 20.0749
121.98 387 19.6723
122.097 373 19.3132
122.213 378 19.4422
122.33 386 19.6469
122.446 328 18.1108
122.563 342 18.4932
122.679 299 17.2916
122.795 267 16.3401
122.912 264 16.2481
123.028 236 15.3623
123.144 233 15.2643
123.26 213 14.5945
123.377 0 1
123.493 0 1
123.609 0 1
123.725 0 1
123.84 0 1
123.956 0 1
124.072 0 1
124.188 0 1
124.303 0 1
124.419 0 1
126.852 0 1
126.968 0 1
127.083 0 1
127.199 0 1
127.315 0 1
127.431 0 1
127.547 0 1
127.663 0 1
127.779 0 1
127.895 0 1
128.011 0 1
128.127 0 1
128.243 0 1
128.359 439 20.9523
128.476 470 21.6795
128.592 450 21.2132
128.708 496 22.2711
128.825 511 22.6053
128.941 534 23.1084
129.058 475 21.7945
129.174 522 22.8473
129.291 519 22.7816
129.408 474 21.7715
129.524 489 22.1133
129.641 520 22.8035
129.758 544 23.3238
129.875 539 23.2164
129.992 515 22.6936
130.108 550 23.4521
130.225 488 22.0907
130.342 492 22.1811
130.459 538 23.1948
130.576 504 22.4499
130.693 499 22.3383
130.81 494 22.2261
130.928 581 24.1039
131.045 557 23.6008
131.162 585 24.1868
131.279 616 24.8193
131.396 586 24.2074
131.513 655 25.593
131.631 660 25.6905
131.748 641 25.318
131.865 645 25.3969
131.983 645 25.3969
132.1 638 25.2587
132.217 712 26.6833
132.335 727 26.9629
132.452 771 27.7669
132.57 822 28.6705
132.687 795 28.1957
132.804 883 29.7153
132.922 861 29.3428
133.039 834 28.8791
133.157 816 28.5657
133.274 938 30.6268
133.392 876 29.5973
133.509 944 30.7246
133.627 905 30.0832
133.744 861 29.3428
133.862 923 30.3809
133.979 875 29.5804
134.097 874 29.5635
134.214 786 28.0357
134.332 814 28.5307
134.449 838 28.9482
134.567 874 29.5635
134.684 866 29.4279
134.802 899 29.9833
134.919 953 30.8707
135.037 975 31.225
135.154 934 30.5614
135.272 927 30.4467
135.389 919 30.315
135.507 878 29.6311
135.624 891 29.8496
135.742 872 29.5296
135.859 845 29.0689
135.977 934 30.5614
136.094 1015 31.8591
136.211 1014 31.8434
136.329 987 31.4166
136.446 1001 31.6386
136.564 1024 32
136.681 976 31.241
136.798 1040 32.249
136.915 1002 31.6544
137.033 967 31.0966
137.15 1001 31.6386
137.267 1017 31.8904
137.384 955 30.9031
137.502 948 30.7896
137.619 911 30.1828
137.736 926 30.4302
137.853 857 29.2746
137.97 879 29.6479
138.087 941 30.6757
138.204 870 29.4958
138.321 873 29.5466
138.438 907 30.1164
138.555 925 30.4138
138.672 945 30.7409
138.788 976 31.241
138.905 952 30.8545
139.022 892 29.8664
139.139 832 28.8444
139.255 757 27.5136
139.372 724 26.9072
139.488 706 26.5707
139.605 670 25.8844
139.721 710 26.6458
139.838 671 25.9037
139.954 669 25.865
140.071 559 23.6432
140.187 570 23.8747
140.303 499 22.3383
140.419 534 23.1084
140.535 475 21.7945
140.652 468 21.6333
140.768 0 1
140.884 0 1
141 0 1
141.115 0 1
141.231 0 1
141.347 0 1
141.463 0 1
141.578 0 1
141.694 0 1
144.104 0 1
144.219 0 1
144.335 0 1
144.45 0 1
144.566 0 1
144.682 0 1
144.798 0 1
144.914 0 1
145.03 0 1
145.146 1042 32.28
145.262 1090 33.0151
145.378 1126 33.5559
145.494 1284 35.8329
145.61 1215 34.8569
145.726 1333 36.5103
145.842 1410 37.55
145.959 1352 36.7696
146.075 1394 37.3363
146.192 1347 36.7015
146.308 1354 36.7967
146.425 1412 37.5766
146.541 1343 36.647
146.658 1295 35.9861
146.774 1329 36.4555
146.891 1305 36.1248
147.008 1382 37.1753
147.125 1302 36.0832
147.241 1340 36.606
147.358 1409 37.5366
147.475 1481 38.4838
147.592 1522 39.0128
147.709 1558 39.4715
147.826 1522 39.0128
147.943 1458 38.1838
148.06 1393 37.3229
148.177 1440 37.9473
148.294 1392 37.3095
148.411 1411 37.5633
148.528 1490 38.6005
148.645 1467 38.3014
148.762 1511 38.8716
148.88 1555 39.4335
148.997 1597 39.9625
149.114 1448 38.0526
149.231 1548 39.3446
149.349 1519 38.9744
149.466 1595 39.9375
149.583 1581 39.7618
149.701 1566 39.5727
149.818 1546 39.3192
149.935 1537 39.2046
150.053 1628 40.3485
150.17 1583 39.7869
150.287 1492 38.6264
150.405 1546 39.3192
150.522 1495 38.6652
150.64 1489 38.5876
150.757 1613 40.1622
150.875 1459 38.1969
150.992 1506 38.8072
151.11 1459 38.1969
151.227 1589 39.8623
151.344 1735 41.6533
151.462 1613 40.1622
151.579 1513 38.8973
151.697 1574 39.6737
151.814 1522 39.0128
151.932 1626 40.3237
152.049 1610 40.1248
152.167 1520 38.9872
152.284 1607 40.0874
152.402 1629 40.3609
152.519 1687 41.0731
152.636 1694 41.1582
152.754 1706 41.3038
152.871 1637 40.4599
152.989 1687 41.0731
153.106 1705 41.2916
153.223 1640 40.4969
153.341 1665 40.8044
153.458 1565 39.5601
153.575 1549 39.3573
153.693 1527 39.0768
153.81 1525 39.0512
153.927 1463 38.2492
154.044 1440 37.9473
154.162 1455 38.1445
154.279 1421 37.6962
154.396 1349 36.7287
154.513 1330 36.4692
154.63 1393 37.3229
154.747 1464 38.2623
154.864 1373 37.054
154.981 1438 37.921
155.098 1412 37.5766
155.215 1385 37.2156
155.332 1292 35.9444
155.449 1347 36.7015
155.566 1325 36.4005
155.683 1312 36.2215
155.8 1428 37.7889
155.917 1357 36.8375
156.033 1389 37.2693
156.15 0 1
156.267 0 1
156.383 0 1
156.5 0 1
156.617 0 1
156.733 0 1
156.85 0 1
156.966 0 1
157.082 0 1
157.199 0 1
157.315 0 1
157.431 0 1
157.547 0 1
157.664 0 1
157.78 0 1
157.896 0 1
158.012 0 1
158.128 0 1
158.244 0 1
158.359 0 1
158.475 0 1
158.591 0 1
158.706 0 1
