
6.15755 0 1
6.2731 0 1
6.3887 0 1
6.50437 0 1
6.62009 0 1
6.73587 0 1
6.8517 0 1
6.96759 0 1
7.08353 0 1
7.19952 0 1
7.31557 0 1
7.43166 0 1
7.54781 0 1
7.664 0 1
7.78024 0 1
7.89653 0 1
8.01286 0 1
8.12924 0 1
8.24567 0 1
8.36213 0 1
8.47864 0 1
8.59519 0 1
8.71178 0 1
8.82841 0 1
8.94508 0 1
9.06179 0 1
9.17853 0 1
9.29531 0 1
9.41212 0 1
9.52897 0 1
9.64584 0 1
9.76276 0 1
9.8797 0 1
9.99667 0 1
10.1137 0 1
10.2307 0 1
10.3478 0 1
10.4648 0 1
10.5819 0 1
10.6991 0 1
10.8162 0 1
10.9334 0 1
11.0506 0 1
11.1678 0 1
11.285 0 1
11.4023 0 1
11.5196 0 1
11.6369 0 1
11.7542 0 1
11.8715 0 1
11.9888 0 1
12.1062 0 1
12.2235 0 1
12.3409 0 1
12.4582 0 1
12.5756 0 1
12.693 0 1
12.8104 0 1
12.9278 0 1
13.0452 0 1
13.1626 0 1
13.28 0 1
13.3974 0 1
13.5149 0 1
13.6323 0 1
13.7497 0 1
13.8671 0 1
13.9845 0 1
14.1019 0 1
14.2193 0 1
14.3367 0 1
14.4541 0 1
14.5714 0 1
14.6888 0 1
14.8062 0 1
14.9235 0 1
15.0408 8479 92.0815
15.1581 8807 93.8456
15.2755 9178 95.8019
15.3927 9245 96.1509
15.51 9170 95.7601
15.6273 9382 96.8607
15.7445 9183 95.828
15.8617 9104 95.4149
15.9789 9036 95.0579
16.0961 8633 92.9139
16.2132 8658 93.0484
16.3304 8679 93.1612
16.4475 8749 93.5361
16.5646 8807 93.8456
16.6816 9304 96.4572
16.7986 9358 96.7368
16.9156 9189 95.8593
17.0326 9234 96.0937
17.1496 9181 95.8175
17.2665 9065 95.2103
17.3833 8750 93.5414
17.5002 8714 93.3488
17.617 8503 92.2117
17.7338 8522 92.3147
17.8505 8592 92.693
17.9672 9018 94.9632
18.0839 9273 96.2964
18.2005 9500 97.4679
18.3171 9914 99.5691
18.4337 9733 98.656
18.5502 10080 100.399
18.6666 10123 100.613
18.7831 10317 101.573
18.8994 10114 100.568
19.0158 9889 99.4435
19.1321 9574 97.8468
19.2483 9560 97.7753
19.3645 9009 94.9158
19.4806 8877 94.2178
19.5967 8519 92.2984
19.7128 8148 90.2663
19.8288 8166 90.3659
19.9447 7267 85.2467
20.0606 0 1
20.1764 0 1
20.2922 0 1
20.4079 0 1
20.5236 0 1
20.6392 0 1
20.7548 0 1
20.8702 0 1
23.3078 0 1
23.4233 0 1
23.539 0 1
23.6547 0 1
23.7704 0 1
23.8862 0 1
24.0021 0 1
24.118 0 1
24.234 0 1
24.35 0 1
24.4661 8532 92.3688
24.5822 8484 92.1086
24.6984 8395 91.6242
24.8146 8022 89.5656
24.9309 8420 91.7606
25.0472 8361 91.4385
25.1636 8793 93.771
25.28 8885 94.2603
25.3965 9414 97.0258
25.513 9397 96.9381
25.6296 9543 97.6883
25.7462 9821 99.101
25.8628 9674 98.3565
25.9795 9766 98.8231
26.0962 9147 95.6399
26.213 8802 93.819
26.3298 8811 93.8669
26.4466 8521 92.3093
26.5635 8618 92.8332
26.6804 8950 94.6044
26.7973 9155 95.6818
26.9143 9309 96.4832
27.0313 9408 96.9948
27.1483 9592 97.9388
27.2653 9576 97.857
27.3824 9706 98.519
27.4996 9929 99.6444
27.6167 9456 97.242
27.7339 9693 98.453
27.8511 9417 97.0412
27.9683 9167 95.7445
28.0855 8907 94.3769
28.2028 8611 92.7955
28.3201 8190 90.4986
28.4374 8165 90.3604
28.5547 8208 90.598
28.6721 8437 91.8531
28.7894 8467 92.0163
28.9068 8769 93.6429
29.0242 9106 95.4254
29.1416 8930 94.4987
29.259 9098 95.3834
29.3764 8976 94.7418
29.4939 8962 94.6678
29.6113 8680 93.1665
29.7288 8413 91.7224
29.8463 8042 89.6772
29.9638 7979 89.3252
30.0812 7844 88.5664
30.1987 8233 90.7359
30.3162 8740 93.488
30.4337 8917 94.4299
30.5512 8942 94.5621
30.6687 9017 94.9579
30.7862 9098 95.3834
30.9037 9284 96.3535
31.0212 9370 96.7988
31.1387 9374 96.8194
31.2562 9186 95.8436
31.3737 9102 95.4044
31.4912 8888 94.2762
31.6087 8995 94.842
31.7262 8655 93.0323
31.8436 8043 89.6828
31.9611 7994 89.4092
32.0785 7922 89.0056
32.1959 8034 89.6326
32.3134 8255 90.857
32.4308 8186 90.4765
32.5482 8698 93.2631
32.6655 8799 93.803
32.7829 8786 93.7337
32.9002 8690 93.2202
33.0176 8722 93.3916
33.1349 8882 94.2444
33.2522 8593 92.6984
33.3694 8369 91.4822
33.4867 8044 89.6883
33.6039 7984 89.3532
33.7211 7861 88.6623
33.8383 7887 88.8088
33.9554 7946 89.1403
34.0725 8404 91.6733
34.1896 8666 93.0914
34.3067 8762 93.6056
34.4237 8814 93.8829
34.5407 9010 94.921
34.6577 8969 94.7048
34.7746 9129 95.5458
34.8915 9067 95.2208
35.0084 8956 94.6361
35.1252 8828 93.9574
35.242 8649 93
35.3587 8444 91.8912
35.4755 8089 89.9389
35.5921 7806 88.3516
35.7088 7589 87.1149
35.8254 7563 86.9655
35.9419 7645 87.4357
36.0584 7837 88.5268
36.1749 7956 89.1964
36.2913 8182 90.4544
36.4077 8385 91.5696
36.524 8360 91.433
36.6403 8269 90.934
36.7565 8421 91.766
36.8727 8493 92.1575
36.9889 8228 90.7083
37.1049 7684 87.6584
37.221 0 1
37.3369 0 1
37.4529 0 1
37.5687 0 1
37.6845 0 1
37.8003 0 1
37.916 0 1
38.0316 0 1
38.1472 0 1
40.5851 0 1
40.7008 0 1
40.8164 0 1
40.9322 0 1
41.048 0 1
41.1639 0 1
41.2798 0 1
41.3958 0 1
41.5118 0 1
41.6279 0 1
41.744 6596 81.2158
41.8602 7098 84.2496
41.9765 7121 84.386
42.0928 7294 85.4049
42.2091 7305 85.4693
42.3255 6788 82.3893
42.4419 6771 82.2861
42.5584 6674 81.6946
42.675 6244 79.019
42.7915 6370 79.8123
42.9081 6710 81.9146
43.0248 6587 81.1603
43.1415 7010 83.7257
43.2582 7141 84.5044
43.375 7109 84.3149
43.4918 7118 84.3682
43.6087 7148 84.5458
43.7256 7160 84.6168
43.8425 6828 82.6317
43.9595 6730 82.0366
44.0765 6667 81.6517
44.1935 6375 79.8436
44.3106 6237 78.9747
44.4277 6178 78.6003
44.5448 5780 76.0263
44.6619 5498 74.1485
44.7791 5409 73.5459
44.8963 5406 73.5255
45.0136 5585 74.7329
45.1308 5655 75.1997
45.2481 5696 75.4718
45.3654 5655 75.1997
45.4827 5588 74.7529
45.6001 5773 75.9803
45.7174 5664 75.2596
45.8348 5579 74.6927
45.9522 5512 74.2428
46.0697 5257 72.5052
46.1871 4955 70.3918
46.3046 4806 69.3253
46.422 4951 70.3633
46.5395 5206 72.1526
46.657 5288 72.7186
46.7745 5363 73.2325
46.892 5347 73.1232
47.0096 5509 74.2226
47.1271 5434 73.7157
47.2446 5426 73.6614
47.3622 5375 73.3144
47.4797 5355 73.1779
47.5973 5125 71.5891
47.7149 5110 71.4843
47.8324 4990 70.6399
47.95 4896 69.9714
48.0675 4714 68.6586
48.1851 4529 67.2978
48.3027 4340 65.8787
48.4202 4318 65.7115
48.5378 4538 67.3647
48.6554 4529 67.2978
48.7729 4645 68.1542
48.8904 4737 68.8259
49.008 4906 70.0428
49.1255 5025 70.8872
49.243 4847 69.6204
49.3605 4950 70.3562
49.478 4842 69.5845
49.5955 4708 68.6149
49.713 4584 67.7052
49.8304 4497 67.0597
49.9479 4581 67.6831
50.0653 4773 69.0869
50.1827 5106 71.4563
50.3001 5249 72.45
50.4175 5393 73.437
50.5348 5460 73.8918
50.6521 5628 75.02
50.7694 5833 76.3741
50.8867 5836 76.3937
51.004 6031 77.6595
51.1212 6053 77.801
51.2384 5927 76.987
51.3556 6184 78.6384
51.4727 6108 78.1537
51.5899 6003 77.479
51.707 5891 76.7529
51.824 5800 76.1577
51.9411 5704 75.5248
52.0581 5948 77.1233
52.175 6429 80.181
52.2919 6720 81.9756
52.4088 6799 82.456
52.5257 7170 84.6759
52.6425 7029 83.8391
52.7593 7423 86.1568
52.876 7420 86.1394
52.9927 7474 86.4523
53.1094 7260 85.2056
53.226 7045 83.9345
53.3426 6896 83.0422
53.4591 6719 81.9695
53.5756 6813 82.5409
53.692 7205 84.8823
53.8084 7645 87.4357
53.9248 7766 88.1249
54.0411 8098 89.9889
54.1573 8142 90.233
54.2735 0 1
54.3896 0 1
54.5057 0 1
54.6217 0 1
54.7377 0 1
54.8537 0 1
54.9695 0 1
55.0853 0 1
55.2011 0 1
55.3168 0 1
55.4324 0 1
57.824 0 1
57.9396 0 1
58.0553 0 1
58.1711 0 1
58.2869 0 1
58.4028 0 1
58.5187 0 1
58.6347 0 1
58.7508 0 1
58.8669 0 1
58.983 9043 95.0947
59.0992 9580 97.8775
59.2155 10019 100.095
59.3318 10302 101.499
59.4482 10310 101.538
59.5646 10458 102.264
59.681 10342 101.696
59.7975 10470 102.323
59.9141 10428 102.118
60.0306 10193 100.96
60.1473 9952 99.7597
60.2639 9773 98.8585
60.3807 9704 98.5089
60.4974 9082 95.2995
60.6142 8753 93.5575
60.731 8901 94.3451
60.8479 8712 93.3381
60.9648 9044 95.0999
61.0818 9354 96.7161
61.1987 9513 97.5346
61.3158 9649 98.2293
61.4328 9919 99.5942
61.5499 10011 100.055
61.667 9870 99.3479
61.7841 9559 97.7701
61.9013 9164 95.7288
62.0185 8570 92.5743
62.1357 8465 92.0054
62.253 8405 91.6788
62.3702 8747 93.5254
62.4875 8874 94.2019
62.6049 9167 95.7445
62.7222 9237 96.1093
62.8396 9440 97.1597
62.9569 9484 97.3858
63.0743 9693 98.453
63.1918 9434 97.1288
63.3092 9465 97.2882
63.4267 9495 97.4423
63.5441 9342 96.654
63.6616 9005 94.8947
63.7791 9189 95.8593
63.8966 8643 92.9677
64.0142 8319 91.2086
64.1317 8058 89.7664
64.2492 7971 89.2805
64.3668 7909 88.9326
64.4843 8360 91.433
64.6019 8359 91.4276
64.7195 8652 93.0161
64.837 8858 94.1169
64.9546 8813 93.8776
65.0722 9062 95.1945
65.1898 8985 94.7892
65.3074 9018 94.9632
65.4249 8717 93.3649
65.5425 8678 93.1558
65.6601 8082 89.8999
65.7777 7757 88.0738
65.8952 7764 88.1136
66.0128 8152 90.2884
66.1304 8435 91.8423
66.2479 8896 94.3186
66.3655 8871 94.186
66.483 9074 95.2575
66.6005 9221 96.026
66.718 9381 96.8556
66.8355 9393 96.9175
66.953 9468 97.3036
67.0705 9488 97.4064
67.1879 9325 96.566
67.3054 9282 96.3431
67.4228 9254 96.1977
67.5402 8959 94.652
67.6576 8597 92.72
67.7749 8042 89.6772
67.8923 8256 90.8625
68.0096 8182 90.4544
68.1269 8283 91.011
68.2442 8639 92.9462
68.3614 9024 94.9947
68.4787 9286 96.3639
68.5958 9368 96.7884
68.713 9601 97.9847
68.8302 9938 99.6895
68.9473 9781 98.8989
69.0643 9685 98.4124
69.1814 9153 95.6713
69.2984 8781 93.707
69.4154 8517 92.2876
69.5323 8364 91.4549
69.6492 8627 92.8816
69.7661 9099 95.3887
69.8829 9397 96.9381
69.9997 9694 98.4581
70.1165 9809 99.0404
70.2332 9960 99.7998
70.3499 9939 99.6945
70.4665 10148 100.737
70.5831 10142 100.707
70.6996 10165 100.822
70.8161 10063 100.315
70.9326 9978 99.8899
71.049 9879 99.3932
71.1653 9451 97.2163
71.2817 9297 96.421
71.3979 8693 93.2363
71.5141 8330 91.2688
71.6303 7843 88.5607
71.7464 7669 87.5728
71.8624 0 1
71.9784 0 1
72.0944 0 1
72.2102 0 1
72.3261 0 1
72.4418 0 1
72.5575 0 1
72.6732 0 1
75.1054 0 1
75.2209 0 1
75.3365 0 1
75.4521 0 1
75.5678 0 1
75.6835 0 1
75.7993 0 1
75.9151 0 1
76.031 0 1
76.147 8971 94.7154
76.263 9555 97.7497
76.3791 9713 98.5546
76.4952 9512 97.5295
76.6113 9040 95.0789
76.7276 8469 92.0272
76.8438 8478 92.0761
76.9601 8409 91.7006
77.0765 8740 93.488
77.1929 8786 93.7337
77.3093 9363 96.7626
77.4258 9583 97.8928
77.5423 9839 99.1917
77.6589 9872 99.3579
77.7755 10194 100.965
77.8921 10053 100.265
78.0088 9748 98.732
78.1256 9265 96.2549
78.2423 8772 93.659
78.3591 8263 90.901
78.4759 7985 89.3588
78.5928 8351 91.3838
78.7097 9095 95.3677
78.8266 9104 95.4149
78.9436 9853 99.2623
79.0606 9695 98.4632
79.1776 9778 98.8838
79.2946 10091 100.454
79.4117 10112 100.558
79.5288 10175 100.871
79.6459 10137 100.683
79.7631 9950 99.7497
79.8802 10003 100.015
79.9974 10020 100.1
80.1147 9668 98.326
80.2319 9289 96.3795
80.3491 8720 93.3809
80.4664 8606 92.7685
80.5837 8414 91.7279
80.701 8645 92.9785
80.8183 9023 94.9895
80.9357 9419 97.0515
81.053 9586 97.9081
81.1704 9627 98.1173
81.2877 9897 99.4837
81.4051 10120 100.598
81.5225 10295 101.464
81.6399 10004 100.02
81.7573 9884 99.4183
81.8747 8932 94.5093
81.9922 8413 91.7224
82.1096 8028 89.5991
82.227 8412 91.717
82.3444 8727 93.4184
82.4619 9371 96.8039
82.5793 9635 98.158
82.6967 9797 98.9798
82.8142 9916 99.5791
82.9316 9980 99.8999
83.049 10279 101.385
83.1664 10286 101.42
83.2838 10171 100.851
83.4012 10177 100.881
83.5186 10111 100.553
83.636 10000 100
83.7534 9977 99.8849
83.8708 9618 98.0714
83.9881 9168 95.7497
84.1055 8505 92.2226
84.2228 8499 92.19
84.3401 8751 93.5468
84.4575 8947 94.5886
84.5747 9212 95.9792
84.692 9709 98.5343
84.8093 10240 101.193
84.9265 10322 101.597
85.0437 10904 104.422
85.1609 10615 103.029
85.2781 10405 102.005
85.3952 9625 98.1071
85.5123 9118 95.4882
85.6294 8568 92.5635
85.7465 8413 91.7224
85.8636 8825 93.9415
85.9806 9443 97.1751
86.0976 9840 99.1968
86.2145 10228 101.134
86.3315 10343 101.701
86.4484 10796 103.904
86.5652 10872 104.269
86.682 11045 105.095
86.7988 10888 104.346
86.9156 10878 104.298
87.0323 10889 104.35
87.149 10858 104.202
87.2657 10864 104.231
87.3823 10392 101.941
87.4988 9927 99.6343
87.6154 9608 98.0204
87.7318 9160 95.7079
87.8483 9215 95.9948
87.9647 9320 96.5401
88.081 9727 98.6256
88.1973 10394 101.951
88.3136 10563 102.776
88.4298 10743 103.648
88.546 11022 104.986
88.6621 11119 105.447
88.7781 10987 104.819
88.8942 0 1
89.0101 0 1
89.126 0 1
89.2419 0 1
89.3577 0 1
89.4734 0 1
89.5891 0 1
89.7047 0 1
89.8203 0 1
89.9358 0 1
92.3269 0 1
92.4424 0 1
92.558 0 1
92.6736 0 1
92.7893 0 1
92.905 0 1
93.0208 0 1
93.1366 0 1
93.2525 0 1
93.3685 0 1
93.4845 0 1
93.6005 10047 100.235
93.7167 10225 101.119
93.8328 10397 101.966
93.949 10215 101.069
94.0653 10533 102.63
94.1816 10268 101.331
94.2979 9557 97.7599
94.4143 8868 94.1701
94.5307 8533 92.3742
94.6472 8535 92.3851
94.7637 8332 91.2798
94.8803 9018 94.9632
94.9969 9717 98.5748
95.1135 9870 99.3479
95.2302 10118 100.588
95.3469 9889 99.4435
95.4637 10306 101.518
95.5805 10510 102.518
95.6973 10686 103.373
95.8142 10764 103.75
95.9311 10622 103.063
96.048 10485 102.396
96.1649 10549 102.708
96.2819 10351 101.74
96.3989 10069 100.344
96.516 9749 98.737
96.633 9381 96.8556
96.7501 9181 95.8175
96.8673 8679 93.1612
96.9844 8941 94.5569
97.1016 9101 95.3992
97.2188 9503 97.4833
97.336 9753 98.7573
97.4532 10150 100.747
97.5704 10266 101.321
97.6877 10509 102.513
97.805 10367 101.818
97.9223 9967 99.8349
98.0396 9610 98.0306
98.1569 8876 94.2125
98.2743 8661 93.0645
98.3916 8439 91.864
98.509 8473 92.0489
98.6264 9034 95.0474
98.7438 9642 98.1937
98.8612 9852 99.2572
98.9786 9786 98.9242
99.096 10038 100.19
99.2134 10157 100.782
99.3308 10499 102.465
99.4482 10222 101.104
99.5656 10230 101.143
99.6831 10294 101.459
99.8005 9983 99.915
99.9179 9822 99.106
100.035 9700 98.4886
100.153 9279 96.3276
100.27 8979 94.7576
100.388 8480 92.0869
100.505 8610 92.7901
100.622 8691 93.2255
100.74 8897 94.3239
100.857 9402 96.9639
100.975 9715 98.5647
101.092 9790 98.9444
101.209 10354 101.755
101.327 10630 103.102
101.444 10498 102.46
101.561 10075 100.374
101.679 9699 98.4835
101.796 8869 94.1754
101.913 8498 92.1846
102.03 8413 91.7224
102.148 8914 94.414
102.265 8784 93.723
102.382 10443 102.191
102.499 10370 101.833
102.616 10541 102.669
102.733 10420 102.078
102.851 10666 103.276
102.968 10702 103.45
103.085 10864 104.231
103.202 10728 103.576
103.319 10778 103.817
103.436 10656 103.228
103.552 10468 102.313
103.669 10229 101.139
103.786 9784 98.9141
103.903 9201 95.9218
104.02 9022 94.9842
104.137 9376 96.8297
104.253 9776 98.8737
104.37 9955 99.7747
104.487 10565 102.786
104.603 10631 103.107
104.72 11151 105.598
104.836 11219 105.92
104.953 11059 105.162
105.069 10611 103.01
105.186 10002 100.01
105.302 9248 96.1665
105.418 9009 94.9158
105.535 9044 95.0999
105.651 9611 98.0357
105.767 10046 100.23
105.883 10517 102.552
105.999 10604 102.976
106.115 0 1
106.231 0 1
106.347 0 1
106.463 0 1
106.579 0 1
106.694 0 1
106.81 0 1
106.926 0 1
107.041 0 1
107.157 0 1
109.576 0 1
109.692 0 1
109.807 0 1
109.923 0 1
110.039 0 1
110.155 0 1
110.27 0 1
110.386 0 1
110.502 0 1
110.618 7807 88.3572
110.735 8601 92.7416
110.851 8996 94.8472
110.967 9415 97.0309
111.083 9746 98.7218
111.199 9708 98.5292
111.316 9915 99.5741
111.432 9893 99.4636
111.549 9911 99.554
111.665 9650 98.2344
111.782 9614 98.051
111.898 9403 96.9691
112.015 9367 96.7833
112.132 9444 97.1802
112.248 8945 94.578
112.365 8307 91.1427
112.482 8256 90.8625
112.599 7944 89.1291
112.716 8180 90.4434
112.832 8234 90.7414
112.949 8461 91.9837
113.066 8780 93.7017
113.183 8860 94.1276
113.3 9046 95.1105
113.417 9179 95.8071
113.534 9160 95.7079
113.652 8905 94.3663
113.769 8297 91.0879
113.886 7779 88.1986
114.003 7325 85.5862
114.12 7063 84.0417
114.238 7573 87.023
114.355 7936 89.0842
114.472 8174 90.4102
114.589 8224 90.6863
114.707 8223 90.6808
114.824 8173 90.4046
114.942 8483 92.1032
115.059 8212 90.6201
115.176 8340 91.3236
115.294 8204 90.5759
115.411 7932 89.0618
115.529 7880 88.7694
115.646 7470 86.4292
115.764 7370 85.8487
115.881 7045 83.9345
115.999 6668 81.6578
116.116 6449 80.3057
116.234 6654 81.5721
116.351 6712 81.9268
116.469 6686 81.768
116.586 6930 83.2466
116.704 7099 84.2556
116.821 7344 85.6971
116.939 7343 85.6913
117.056 7381 85.9127
117.174 7076 84.119
117.291 7042 83.9166
117.409 6726 82.0122
117.526 6222 78.8797
117.644 5947 77.1168
117.761 6082 77.9872
117.879 6474 80.4612
117.996 6608 81.2896
118.114 6862 82.8372
118.231 7173 84.6936
118.349 7113 84.3386
118.466 7310 85.4985
118.584 7344 85.6971
118.701 7343 85.6913
118.819 7239 85.0823
118.936 7318 85.5453
119.053 7223 84.9882
119.171 7107 84.303
119.288 7030 83.8451
119.405 6929 83.2406
119.523 6652 81.5598
119.64 6404 80.025
119.757 6407 80.0437
119.875 6642 81.4985
119.992 6805 82.4924
120.109 7102 84.2734
120.226 7094 84.2259
120.343 7414 86.1046
120.46 7346 85.7088
120.578 7669 87.5728
120.695 7855 88.6284
120.812 7766 88.1249
120.929 7596 87.155
121.046 7259 85.1998
121.163 7002 83.678
121.279 6818 82.5712
121.396 6808 82.5106
121.513 6974 83.5105
121.63 7613 87.2525
121.747 7901 88.8876
121.863 8026 89.5879
121.98 8449 91.9184
122.097 8421 91.766
122.213 8479 92.0815
122.33 8589 92.6769
122.446 8514 92.2713
122.563 8474 92.0543
122.679 8782 93.7123
122.795 8533 92.3742
122.912 8425 91.7878
123.028 8377 91.526
123.144 8129 90.161
123.26 7737 87.9602
123.377 0 1
123.493 0 1
123.609 0 1
123.725 0 1
123.84 0 1
123.956 0 1
124.072 0 1
124.188 0 1
124.303 0 1
124.419 0 1
126.852 0 1
126.968 0 1
127.083 0 1
127.199 0 1
127.315 0 1
127.431 0 1
127.547 0 1
127.663 0 1
127.779 0 1
127.895 0 1
128.011 0 1
128.127 0 1
128.243 0 1
128.359 9852 99.2572
128.476 9280 96.3328
128.592 9159 95.7027
128.708 8825 93.9415
128.825 8664 93.0806
128.941 8889 94.2815
129.058 9057 95.1683
129.174 9276 96.312
129.291 9596 97.9592
129.408 9761 98.7978
129.524 9778 98.8838
129.641 9879 99.3932
129.758 10070 100.349
129.875 10196 100.975
129.992 9404 96.9742
130.108 9226 96.0521
130.225 8654 93.0269
130.342 8474 92.0543
130.459 8226 90.6973
130.576 8550 92.4662
130.693 8993 94.8314
130.81 9277 96.3172
130.928 9513 97.5346
131.045 9470 97.3139
131.162 9693 98.453
131.279 9933 99.6644
131.396 9994 99.97
131.513 9762 98.8028
131.631 9655 98.2599
131.748 9479 97.3602
131.865 9376 96.8297
131.983 9110 95.4463
132.1 9037 95.0631
132.217 8687 93.2041
132.335 8397 91.6351
132.452 8280 90.9945
132.57 8481 92.0923
132.687 8581 92.6337
132.804 9278 96.3224
132.922 9222 96.0312
133.039 9266 96.2601
133.157 9643 98.1988
133.274 9581 97.8826
133.392 9541 97.678
133.509 9346 96.6747
133.627 9029 95.0211
133.744 8539 92.4067
133.862 8043 89.6828
133.979 8066 89.8109
134.097 8022 89.5656
134.214 8549 92.4608
134.332 8651 93.0108
134.449 8861 94.1329
134.567 9073 95.2523
134.684 9090 95.3415
134.802 8962 94.6678
134.919 8999 94.8631
135.037 8951 94.6097
135.154 8847 94.0585
135.272 8664 93.0806
135.389 8533 92.3742
135.507 8265 90.912
135.624 7998 89.4315
135.742 7697 87.7325
135.859 7136 84.4748
135.977 7167 84.6581
136.094 7231 85.0353
136.211 7274 85.2877
136.329 7368 85.8371
136.446 7801 88.3233
136.564 7813 88.3912
136.681 7844 88.5664
136.798 7660 87.5214
136.915 7877 88.7525
137.033 7910 88.9382
137.15 7498 86.591
137.267 7101 84.2674
137.384 6859 82.8191
137.502 6636 81.4616
137.619 6535 80.8393
137.736 7074 84.1071
137.853 7333 85.6329
137.97 7643 87.4243
138.087 7985 89.3588
138.204 8051 89.7274
138.321 8156 90.3106
138.438 8348 91.3674
138.555 8497 92.1792
138.672 8586 92.6607
138.788 8504 92.2171
138.905 8402 91.6624
139.022 8455 91.9511
139.139 8278 90.9835
139.255 8228 90.7083
139.372 7871 88.7187
139.488 7898 88.8707
139.605 7911 88.9438
139.721 8099 89.9944
139.838 8325 91.2414
139.954 8525 92.3309
140.071 8766 93.6269
140.187 9221 96.026
140.303 9179 95.8071
140.419 9508 97.509
140.535 9478 97.355
140.652 9506 97.4987
140.768 0 1
140.884 0 1
141 0 1
141.115 0 1
141.231 0 1
141.347 0 1
141.463 0 1
141.578 0 1
141.694 0 1
144.104 0 1
144.219 0 1
144.335 0 1
144.45 0 1
144.566 0 1
144.682 0 1
144.798 0 1
144.914 0 1
145.03 0 1
145.146 13908 117.932
145.262 15081 122.805
145.378 16054 126.704
145.494 16736 129.368
145.61 17418 131.977
145.726 18310 135.314
145.842 18635 136.51
145.959 18563 136.246
146.075 18174 134.811
146.192 18128 134.64
146.308 17621 132.744
146.425 18739 136.89
146.541 20002 141.428
146.658 21760 147.513
146.774 22661 150.536
146.891 24179 155.496
147.008 25051 158.275
147.125 26259 162.046
147.241 26905 164.027
147.358 27175 164.848
147.475 27396 165.517
147.592 27376 165.457
147.709 26986 164.274
147.826 26758 163.579
147.943 26250 162.019
148.06 25370 159.28
148.177 25022 158.183
148.294 24502 156.531
148.411 24607 156.866
148.528 24958 157.981
148.645 26030 161.338
148.762 26855 163.875
148.88 27230 165.015
148.997 28246 168.065
149.114 25884 160.885
149.231 26914 164.055
149.349 26641 163.221
149.466 26643 163.227
149.583 24790 157.448
149.701 23231 152.417
149.818 22160 148.862
149.935 21833 147.76
150.053 21772 147.553
150.17 22815 151.046
150.287 23781 154.211
150.405 24371 156.112
150.522 24971 158.022
150.64 25561 159.878
150.757 25683 160.259
150.875 26650 163.248
150.992 25789 160.59
151.11 26607 163.117
151.227 25988 161.208
151.344 26130 161.648
151.462 25157 158.61
151.579 25111 158.465
151.697 24390 156.173
151.814 24217 155.618
151.932 23804 154.285
152.049 24517 156.579
152.167 25089 158.395
152.284 26033 161.347
152.402 27135 164.727
152.519 27977 167.263
152.636 28342 168.351
152.754 28647 169.254
152.871 28904 170.012
152.989 28622 169.18
153.106 27770 166.643
153.223 26126 161.635
153.341 24784 157.429
153.458 24173 155.477
153.575 23503 153.307
153.693 24553 156.694
153.81 25709 160.34
153.927 27030 164.408
154.044 27846 166.871
154.162 28262 168.113
154.279 29545 171.887
154.396 30399 174.353
154.513 30902 175.79
154.63 31201 176.638
154.747 31363 177.096
154.864 30966 175.972
154.981 30721 175.274
155.098 30608 174.951
155.215 30150 173.638
155.332 29793 172.606
155.449 29084 170.54
155.566 28862 169.888
155.683 29722 172.401
155.8 30777 175.434
155.917 32067 179.073
156.033 33270 182.401
156.15 0 1
156.267 0 1
156.383 0 1
156.5 0 1
156.617 0 1
156.733 0 1
156.85 0 1
156.966 0 1
157.082 0 1
157.199 0 1
157.315 0 1
157.431 0 1
157.547 0 1
157.664 0 1
157.78 0 1
157.896 0 1
158.012 0 1
158.128 0 1
158.244 0 1
158.359 0 1
158.475 0 1
158.591 0 1
158.706 0 1
