
6.15755 0 1
6.2731 0 1
6.3887 0 1
6.50437 0 1
6.62009 0 1
6.73587 0 1
6.8517 0 1
6.96759 0 1
7.08353 0 1
7.19952 0 1
7.31557 0 1
7.43166 0 1
7.54781 0 1
7.664 0 1
7.78024 0 1
7.89653 0 1
8.01286 0 1
8.12924 0 1
8.24567 0 1
8.36213 0 1
8.47864 0 1
8.59519 0 1
8.71178 0 1
8.82841 0 1
8.94508 0 1
9.06179 0 1
9.17853 0 1
9.29531 0 1
9.41212 0 1
9.52897 0 1
9.64584 0 1
9.76276 0 1
9.8797 0 1
9.99667 0 1
10.1137 0 1
10.2307 0 1
10.3478 0 1
10.4648 0 1
10.5819 0 1
10.6991 0 1
10.8162 0 1
10.9334 0 1
11.0506 0 1
11.1678 0 1
11.285 0 1
11.4023 0 1
11.5196 0 1
11.6369 0 1
11.7542 0 1
11.8715 0 1
11.9888 0 1
12.1062 0 1
12.2235 0 1
12.3409 0 1
12.4582 0 1
12.5756 0 1
12.693 0 1
12.8104 0 1
12.9278 0 1
13.0452 0 1
13.1626 0 1
13.28 0 1
13.3974 0 1
13.5149 0 1
13.6323 0 1
13.7497 0 1
13.8671 0 1
13.9845 0 1
14.1019 0 1
14.2193 0 1
14.3367 0 1
14.4541 0 1
14.5714 0 1
14.6888 0 1
14.8062 0 1
14.9235 0 1
15.0408 0 0
15.1581 0 0
15.2755 0 0
15.3927 0 0
15.51 0 0
15.6273 0 0
15.7445 0 0
15.8617 0 0
15.9789 0 0
16.0961 0 0
16.2132 0 0
16.3304 0 0
16.4475 0 0
16.5646 0 0
16.6816 0 0
16.7986 0 0
16.9156 0 0
17.0326 0 0
17.1496 0 0
17.2665 0 0
17.3833 0 0
17.5002 0 0
17.617 0 0
17.7338 0 0
17.8505 0 0
17.9672 0 0
18.0839 0 0
18.2005 0 0
18.3171 0 0
18.4337 0 0
18.5502 0 0
18.6666 0 0
18.7831 0 0
18.8994 0 0
19.0158 0 0
19.1321 0 0
19.2483 0 0
19.3645 0 0
19.4806 0 0
19.5967 0 0
19.7128 0 0
19.8288 0 0
19.9447 0 0
20.0606 0 1
20.1764 0 1
20.2922 0 1
20.4079 0 1
20.5236 0 1
20.6392 0 1
20.7548 0 1
20.8702 0 1
23.3078 0 1
23.4233 0 1
23.539 0 1
23.6547 0 1
23.7704 0 1
23.8862 0 1
24.0021 0 1
24.118 0 1
24.234 0 1
24.35 0 1
24.4661 868 29.4618
24.5822 912 30.1993
24.6984 920 30.3315
24.8146 880 29.6648
24.9309 955 30.9031
25.0472 890 29.8329
25.1636 931 30.5123
25.28 944 30.7246
25.3965 957 30.9354
25.513 987 31.4166
25.6296 972 31.1769
25.7462 1003 31.6702
25.8628 927 30.4467
25.9795 914 30.2324
26.0962 959 30.9677
26.213 971 31.1609
26.3298 996 31.5595
26.4466 1011 31.7962
26.5635 1016 31.8748
26.6804 943 30.7083
26.7973 882 29.6985
26.9143 906 30.0998
27.0313 837 28.931
27.1483 880 29.6648
27.2653 835 28.8964
27.3824 828 28.775
27.4996 896 29.9333
27.6167 836 28.9137
27.7339 801 28.3019
27.8511 851 29.1719
27.9683 896 29.9333
28.0855 796 28.2135
28.2028 837 28.931
28.3201 853 29.2062
28.4374 808 28.4253
28.5547 837 28.931
28.6721 885 29.7489
28.7894 893 29.8831
28.9068 951 30.8383
29.0242 918 30.2985
29.1416 955 30.9031
29.259 932 30.5287
29.3764 928 30.4631
29.4939 856 29.2575
29.6113 894 29.8998
29.7288 933 30.545
29.8463 861 29.3428
29.9638 949 30.8058
30.0812 900 30
30.1987 871 29.5127
30.3162 824 28.7054
30.4337 776 27.8568
30.5512 759 27.55
30.6687 770 27.7489
30.7862 813 28.5132
30.9037 768 27.7128
31.0212 813 28.5132
31.1387 881 29.6816
31.2562 798 28.2489
31.3737 799 28.2666
31.4912 872 29.5296
31.6087 831 28.8271
31.7262 860 29.3258
31.8436 792 28.1425
31.9611 834 28.8791
32.0785 804 28.3549
32.1959 859 29.3087
32.3134 856 29.2575
32.4308 871 29.5127
32.5482 878 29.6311
32.6655 852 29.189
32.7829 902 30.0333
32.9002 923 30.3809
33.0176 943 30.7083
33.1349 878 29.6311
33.2522 860 29.3258
33.3694 859 29.3087
33.4867 865 29.4109
33.6039 810 28.4605
33.7211 830 28.8097
33.8383 885 29.7489
33.9554 865 29.4109
34.0725 794 28.178
34.1896 765 27.6586
34.3067 719 26.8142
34.4237 737 27.1477
34.5407 742 27.2397
34.6577 787 28.0535
34.7746 783 27.9821
34.8915 799 28.2666
35.0084 830 28.8097
35.1252 770 27.7489
35.242 774 27.8209
35.3587 785 28.0179
35.4755 794 28.178
35.5921 776 27.8568
35.7088 811 28.4781
35.8254 800 28.2843
35.9419 857 29.2746
36.0584 838 28.9482
36.1749 846 29.0861
36.2913 866 29.4279
36.4077 839 28.9655
36.524 861 29.3428
36.6403 821 28.6531
36.7565 844 29.0517
36.8727 817 28.5832
36.9889 846 29.0861
37.1049 782 27.9643
37.221 0 1
37.3369 0 1
37.4529 0 1
37.5687 0 1
37.6845 0 1
37.8003 0 1
37.916 0 1
38.0316 0 1
38.1472 0 1
40.5851 0 1
40.7008 0 1
40.8164 0 1
40.9322 0 1
41.048 0 1
41.1639 0 1
41.2798 0 1
41.3958 0 1
41.5118 0 1
41.6279 0 1
41.744 674 25.9615
41.8602 721 26.8514
41.9765 699 26.4386
42.0928 724 26.9072
42.2091 719 26.8142
42.3255 704 26.533
42.4419 709 26.6271
42.5584 727 26.9629
42.675 752 27.4226
42.7915 750 27.3861
42.9081 704 26.533
43.0248 663 25.7488
43.1415 577 24.0208
43.2582 615 24.7992
43.375 582 24.1247
43.4918 658 25.6515
43.6087 643 25.3574
43.7256 630 25.0998
43.8425 654 25.5734
43.9595 596 24.4131
44.0765 577 24.0208
44.1935 598 24.454
44.3106 603 24.5561
44.4277 649 25.4755
44.5448 661 25.7099
44.6619 697 26.4008
44.7791 672 25.923
44.8963 609 24.6779
45.0136 657 25.632
45.1308 616 24.8193
45.2481 629 25.0799
45.3654 630 25.0998
45.4827 663 25.7488
45.6001 621 24.9199
45.7174 637 25.2389
45.8348 528 22.9783
45.9522 567 23.8118
46.0697 575 23.9792
46.1871 538 23.1948
46.3046 550 23.4521
46.422 544 23.3238
46.5395 557 23.6008
46.657 499 22.3383
46.7745 456 21.3542
46.892 474 21.7715
47.0096 486 22.0454
47.1271 467 21.6102
47.2446 526 22.9347
47.3622 471 21.7025
47.4797 452 21.2603
47.5973 459 21.4243
47.7149 478 21.8632
47.8324 471 21.7025
47.95 461 21.4709
48.0675 491 22.1585
48.1851 484 22
48.3027 497 22.2935
48.4202 460 21.4476
48.5378 477 21.8403
48.6554 495 22.2486
48.7729 466 21.587
48.8904 455 21.3307
49.008 452 21.2603
49.1255 473 21.7486
49.243 493 22.2036
49.3605 513 22.6495
49.478 470 21.6795
49.5955 479 21.8861
49.713 468 21.6333
49.8304 498 22.3159
49.9479 542 23.2809
50.0653 489 22.1133
50.1827 528 22.9783
50.3001 419 20.4695
50.4175 388 19.6977
50.5348 437 20.9045
50.6521 480 21.9089
50.7694 473 21.7486
50.8867 518 22.7596
51.004 506 22.4944
51.1212 460 21.4476
51.2384 497 22.2935
51.3556 573 23.9374
51.4727 544 23.3238
51.5899 591 24.3105
51.707 619 24.8797
51.824 600 24.4949
51.9411 612 24.7386
52.0581 626 25.02
52.175 622 24.9399
52.2919 631 25.1197
52.4088 615 24.7992
52.5257 593 24.3516
52.6425 627 25.04
52.7593 624 24.98
52.876 632 25.1396
52.9927 645 25.3969
53.1094 638 25.2587
53.226 639 25.2784
53.3426 632 25.1396
53.4591 641 25.318
53.5756 697 26.4008
53.692 650 25.4951
53.8084 602 24.5357
53.9248 579 24.0624
54.0411 550 23.4521
54.1573 559 23.6432
54.2735 0 1
54.3896 0 1
54.5057 0 1
54.6217 0 1
54.7377 0 1
54.8537 0 1
54.9695 0 1
55.0853 0 1
55.2011 0 1
55.3168 0 1
55.4324 0 1
57.824 0 1
57.9396 0 1
58.0553 0 1
58.1711 0 1
58.2869 0 1
58.4028 0 1
58.5187 0 1
58.6347 0 1
58.7508 0 1
58.8669 0 1
58.983 627 25.04
59.0992 643 25.3574
59.2155 582 24.1247
59.3318 607 24.6374
59.4482 661 25.7099
59.5646 644 25.3772
59.681 637 25.2389
59.7975 687 26.2107
59.9141 690 26.2679
60.0306 715 26.7395
60.1473 732 27.0555
60.2639 729 27
60.3807 711 26.6646
60.4974 709 26.6271
60.6142 739 27.1846
60.731 718 26.7955
60.8479 709 26.6271
60.9648 699 26.4386
61.0818 660 25.6905
61.1987 672 25.923
61.3158 634 25.1794
61.4328 641 25.318
61.5499 666 25.807
61.667 666 25.807
61.7841 675 25.9808
61.9013 662 25.7294
62.0185 645 25.3969
62.1357 658 25.6515
62.253 627 25.04
62.3702 599 24.4745
62.4875 584 24.1661
62.6049 562 23.7065
62.7222 526 22.9347
62.8396 582 24.1247
62.9569 559 23.6432
63.0743 583 24.1454
63.1918 561 23.6854
63.3092 555 23.5584
63.4267 640 25.2982
63.5441 653 25.5539
63.6616 610 24.6982
63.7791 574 23.9583
63.8966 607 24.6374
64.0142 608 24.6577
64.1317 640 25.2982
64.2492 555 23.5584
64.3668 586 24.2074
64.4843 553 23.516
64.6019 563 23.7276
64.7195 573 23.9374
64.837 580 24.0832
64.9546 591 24.3105
65.0722 579 24.0624
65.1898 588 24.2487
65.3074 542 23.2809
65.4249 594 24.3721
65.5425 578 24.0416
65.6601 605 24.5967
65.7777 565 23.7697
65.8952 515 22.6936
66.0128 552 23.4947
66.1304 566 23.7908
66.2479 468 21.6333
66.3655 436 20.8806
66.483 471 21.7025
66.6005 486 22.0454
66.718 484 22
66.8355 520 22.8035
66.953 530 23.0217
67.0705 555 23.5584
67.1879 547 23.388
67.3054 496 22.2711
67.4228 543 23.3024
67.5402 538 23.1948
67.6576 543 23.3024
67.7749 530 23.0217
67.8923 534 23.1084
68.0096 532 23.0651
68.1269 550 23.4521
68.2442 506 22.4944
68.3614 492 22.1811
68.4787 515 22.6936
68.5958 520 22.8035
68.713 557 23.6008
68.8302 506 22.4944
68.9473 555 23.5584
69.0643 546 23.3666
69.1814 513 22.6495
69.2984 508 22.5389
69.4154 510 22.5832
69.5323 522 22.8473
69.6492 540 23.2379
69.7661 496 22.2711
69.8829 504 22.4499
69.9997 451 21.2368
70.1165 412 20.2978
70.2332 466 21.587
70.3499 440 20.9762
70.4665 463 21.5174
70.5831 470 21.6795
70.6996 460 21.4476
70.8161 487 22.0681
70.9326 502 22.4054
71.049 488 22.0907
71.1653 454 21.3073
71.2817 457 21.3776
71.3979 408 20.199
71.5141 453 21.2838
71.6303 414 20.347
71.7464 409 20.2237
71.8624 0 1
71.9784 0 1
72.0944 0 1
72.2102 0 1
72.3261 0 1
72.4418 0 1
72.5575 0 1
72.6732 0 1
75.1054 0 1
75.2209 0 1
75.3365 0 1
75.4521 0 1
75.5678 0 1
75.6835 0 1
75.7993 0 1
75.9151 0 1
76.031 0 1
76.147 293 17.1172
76.263 392 19.799
76.3791 396 19.8997
76.4952 355 18.8414
76.6113 384 19.5959
76.7276 361 19
76.8438 346 18.6011
76.9601 354 18.8149
77.0765 317 17.8045
77.1929 374 19.3391
77.3093 363 19.0526
77.4258 331 18.1934
77.5423 356 18.868
77.6589 320 17.8885
77.7755 288 16.9706
77.8921 335 18.303
78.0088 309 17.5784
78.1256 348 18.6548
78.2423 328 18.1108
78.3591 321 17.9165
78.4759 316 17.7764
78.5928 303 17.4069
78.7097 301 17.3494
78.8266 320 17.8885
78.9436 267 16.3401
79.0606 255 15.9687
79.1776 223 14.9332
79.2946 199 14.1067
79.4117 247 15.7162
79.5288 265 16.2788
79.6459 288 16.9706
79.7631 245 15.6525
79.8802 264 16.2481
79.9974 261 16.1555
80.1147 252 15.8745
80.2319 214 14.6287
80.3491 219 14.7986
80.4664 223 14.9332
80.5837 191 13.8203
80.701 202 14.2127
80.8183 214 14.6287
80.9357 221 14.8661
81.053 199 14.1067
81.1704 171 13.0767
81.2877 199 14.1067
81.4051 184 13.5647
81.5225 191 13.8203
81.6399 184 13.5647
81.7573 173 13.1529
81.8747 167 12.9228
81.9922 143 11.9583
82.1096 142 11.9164
82.227 144 12
82.3444 138 11.7473
82.4619 176 13.2665
82.5793 153 12.3693
82.6967 128 11.3137
82.8142 117 10.8167
82.9316 88 9.38083
83.049 88 9.38083
83.1664 114 10.6771
83.2838 104 10.198
83.4012 98 9.89949
83.5186 118 10.8628
83.636 91 9.53939
83.7534 100 10
83.8708 90 9.48683
83.9881 71 8.42615
84.1055 70 8.3666
84.2228 91 9.53939
84.3401 82 9.05539
84.4575 68 8.24621
84.5747 63 7.93725
84.692 64 8
84.8093 73 8.544
84.9265 81 9
85.0437 65 8.06226
85.1609 46 6.78233
85.2781 69 8.30662
85.3952 55 7.4162
85.5123 59 7.68115
85.6294 49 7
85.7465 58 7.61577
85.8636 63 7.93725
85.9806 70 8.3666
86.0976 51 7.14143
86.2145 34 5.83095
86.3315 67 8.18535
86.4484 66 8.12404
86.5652 76 8.7178
86.682 69 8.30662
86.7988 68 8.24621
86.9156 76 8.7178
87.0323 106 10.2956
87.149 103 10.1489
87.2657 96 9.79796
87.3823 95 9.74679
87.4988 93 9.64365
87.6154 102 10.0995
87.7318 109 10.4403
87.8483 100 10
87.9647 123 11.0905
88.081 129 11.3578
88.1973 134 11.5758
88.3136 149 12.2066
88.4298 171 13.0767
88.546 153 12.3693
88.6621 158 12.5698
88.7781 158 12.5698
88.8942 0 1
89.0101 0 1
89.126 0 1
89.2419 0 1
89.3577 0 1
89.4734 0 1
89.5891 0 1
89.7047 0 1
89.8203 0 1
89.9358 0 1
92.3269 0 1
92.4424 0 1
92.558 0 1
92.6736 0 1
92.7893 0 1
92.905 0 1
93.0208 0 1
93.1366 0 1
93.2525 0 1
93.3685 0 1
93.4845 0 1
93.6005 257 16.0312
93.7167 260 16.1245
93.8328 256 16
93.949 271 16.4621
94.0653 221 14.8661
94.1816 231 15.1987
94.2979 236 15.3623
94.4143 210 14.4914
94.5307 201 14.1774
94.6472 205 14.3178
94.7637 193 13.8924
94.8803 212 14.5602
94.9969 188 13.7113
95.1135 191 13.8203
95.2302 191 13.8203
95.3469 182 13.4907
95.4637 159 12.6095
95.5805 127 11.2694
95.6973 196 14
95.8142 199 14.1067
95.9311 228 15.0997
96.048 237 15.3948
96.1649 246 15.6844
96.2819 246 15.6844
96.3989 273 16.5227
96.516 272 16.4924
96.633 276 16.6132
96.7501 257 16.0312
96.8673 293 17.1172
96.9844 294 17.1464
97.1016 312 17.6635
97.2188 316 17.7764
97.336 314 17.72
97.4532 324 18
97.5704 290 17.0294
97.6877 335 18.303
97.805 335 18.303
97.9223 328 18.1108
98.0396 367 19.1572
98.1569 348 18.6548
98.2743 369 19.2094
98.3916 372 19.2873
98.509 391 19.7737
98.6264 398 19.9499
98.7438 429 20.7123
98.8612 382 19.5448
98.9786 361 19
99.096 273 16.5227
99.2134 308 17.5499
99.3308 353 18.7883
99.4482 415 20.3715
99.5656 468 21.6333
99.6831 433 20.8087
99.8005 470 21.6795
99.9179 459 21.4243
100.035 475 21.7945
100.153 470 21.6795
100.27 496 22.2711
100.388 500 22.3607
100.505 514 22.6716
100.622 489 22.1133
100.74 494 22.2261
100.857 542 23.2809
100.975 527 22.9565
101.092 501 22.383
101.209 531 23.0434
101.327 536 23.1517
101.444 552 23.4947
101.561 541 23.2594
101.679 558 23.622
101.796 528 22.9783
101.913 550 23.4521
102.03 514 22.6716
102.148 525 22.9129
102.265 528 22.9783
102.382 545 23.3452
102.499 516 22.7156
102.616 423 20.567
102.733 346 18.6011
102.851 496 22.2711
102.968 528 22.9783
103.085 541 23.2594
103.202 562 23.7065
103.319 561 23.6854
103.436 575 23.9792
103.552 598 24.454
103.669 558 23.622
103.786 561 23.6854
103.903 551 23.4734
104.02 597 24.4336
104.137 565 23.7697
104.253 594 24.3721
104.37 547 23.388
104.487 555 23.5584
104.603 596 24.4131
104.72 580 24.0832
104.836 600 24.4949
104.953 601 24.5153
105.069 567 23.8118
105.186 609 24.6779
105.302 623 24.96
105.418 565 23.7697
105.535 615 24.7992
105.651 560 23.6643
105.767 572 23.9165
105.883 501 22.383
105.999 481 21.9317
106.115 0 1
106.231 0 1
106.347 0 1
106.463 0 1
106.579 0 1
106.694 0 1
106.81 0 1
106.926 0 1
107.041 0 1
107.157 0 1
109.576 0 1
109.692 0 1
109.807 0 1
109.923 0 1
110.039 0 1
110.155 0 1
110.27 0 1
110.386 0 1
110.502 0 1
110.618 449 21.1896
110.735 488 22.0907
110.851 461 21.4709
110.967 422 20.5426
111.083 390 19.7484
111.199 369 19.2094
111.316 324 18
111.432 386 19.6469
111.549 421 20.5183
111.665 410 20.2485
111.782 413 20.3224
111.898 388 19.6977
112.015 396 19.8997
112.132 414 20.347
112.248 394 19.8494
112.365 411 20.2731
112.482 402 20.0499
112.599 401 20.025
112.716 387 19.6723
112.832 390 19.7484
112.949 343 18.5203
113.066 342 18.4932
113.183 367 19.1572
113.3 353 18.7883
113.417 347 18.6279
113.534 351 18.735
113.652 364 19.0788
113.769 364 19.0788
113.886 344 18.5472
114.003 328 18.1108
114.12 355 18.8414
114.238 323 17.9722
114.355 297 17.2337
114.472 316 17.7764
114.589 285 16.8819
114.707 285 16.8819
114.824 267 16.3401
114.942 278 16.6733
115.059 319 17.8606
115.176 292 17.088
115.294 356 18.868
115.411 295 17.1756
115.529 308 17.5499
115.646 326 18.0555
115.764 291 17.0587
115.881 297 17.2337
115.999 304 17.4356
116.116 327 18.0831
116.234 252 15.8745
116.351 273 16.5227
116.469 326 18.0555
116.586 334 18.2757
116.704 296 17.2047
116.821 322 17.9444
116.939 330 18.1659
117.056 304 17.4356
117.174 338 18.3848
117.291 303 17.4069
117.409 327 18.0831
117.526 296 17.2047
117.644 310 17.6068
117.761 307 17.5214
117.879 254 15.9374
117.996 235 15.3297
118.114 240 15.4919
118.231 261 16.1555
118.349 296 17.2047
118.466 291 17.0587
118.584 263 16.2173
118.701 292 17.088
118.819 306 17.4929
118.936 317 17.8045
119.053 327 18.0831
119.171 300 17.3205
119.288 319 17.8606
119.405 304 17.4356
119.523 308 17.5499
119.64 327 18.0831
119.757 345 18.5742
119.875 309 17.5784
119.992 321 17.9165
120.109 300 17.3205
120.226 332 18.2209
120.343 288 16.9706
120.46 324 18
120.578 325 18.0278
120.695 318 17.8326
120.812 335 18.303
120.929 286 16.9115
121.046 324 18
121.163 355 18.8414
121.279 335 18.303
121.396 327 18.0831
121.513 300 17.3205
121.63 259 16.0935
121.747 223 14.9332
121.863 248 15.748
121.98 288 16.9706
122.097 308 17.5499
122.213 333 18.2483
122.33 329 18.1384
122.446 329 18.1384
122.563 338 18.3848
122.679 356 18.868
122.795 328 18.1108
122.912 340 18.4391
123.028 339 18.412
123.144 331 18.1934
123.26 354 18.8149
123.377 0 1
123.493 0 1
123.609 0 1
123.725 0 1
123.84 0 1
123.956 0 1
124.072 0 1
124.188 0 1
124.303 0 1
124.419 0 1
126.852 0 1
126.968 0 1
127.083 0 1
127.199 0 1
127.315 0 1
127.431 0 1
127.547 0 1
127.663 0 1
127.779 0 1
127.895 0 1
128.011 0 1
128.127 0 1
128.243 0 1
128.359 447 21.1424
128.476 441 21
128.592 464 21.5407
128.708 425 20.6155
128.825 478 21.8632
128.941 459 21.4243
129.058 456 21.3542
129.174 458 21.4009
129.291 472 21.7256
129.408 457 21.3776
129.524 440 20.9762
129.641 485 22.0227
129.758 468 21.6333
129.875 488 22.0907
129.992 464 21.5407
130.108 461 21.4709
130.225 416 20.3961
130.342 417 20.4206
130.459 364 19.0788
130.576 349 18.6815
130.693 288 16.9706
130.81 321 17.9165
130.928 318 17.8326
131.045 421 20.5183
131.162 422 20.5426
131.279 478 21.8632
131.396 431 20.7605
131.513 460 21.4476
131.631 475 21.7945
131.748 465 21.5639
131.865 510 22.5832
131.983 502 22.4054
132.1 475 21.7945
132.217 500 22.3607
132.335 518 22.7596
132.452 455 21.3307
132.57 482 21.9545
132.687 470 21.6795
132.804 503 22.4277
132.922 490 22.1359
133.039 512 22.6274
133.157 494 22.2261
133.274 491 22.1585
133.392 504 22.4499
133.509 491 22.1585
133.627 477 21.8403
133.744 515 22.6936
133.862 452 21.2603
133.979 416 20.3961
134.097 421 20.5183
134.214 403 20.0749
134.332 366 19.1311
134.449 374 19.3391
134.567 373 19.3132
134.684 437 20.9045
134.802 503 22.4277
134.919 506 22.4944
135.037 521 22.8254
135.154 523 22.8692
135.272 536 23.1517
135.389 568 23.8328
135.507 518 22.7596
135.624 519 22.7816
135.742 564 23.7487
135.859 514 22.6716
135.977 538 23.1948
136.094 550 23.4521
136.211 532 23.0651
136.329 531 23.0434
136.446 519 22.7816
136.564 582 24.1247
136.681 569 23.8537
136.798 560 23.6643
136.915 534 23.1084
137.033 532 23.0651
137.15 524 22.891
137.267 532 23.0651
137.384 513 22.6495
137.502 547 23.388
137.619 451 21.2368
137.736 459 21.4243
137.853 400 20
137.97 404 20.0998
138.087 409 20.2237
138.204 433 20.8087
138.321 449 21.1896
138.438 541 23.2594
138.555 547 23.388
138.672 555 23.5584
138.788 614 24.779
138.905 601 24.5153
139.022 571 23.8956
139.139 622 24.9399
139.255 650 25.4951
139.372 602 24.5357
139.488 616 24.8193
139.605 624 24.98
139.721 577 24.0208
139.838 628 25.0599
139.954 652 25.5343
140.071 596 24.4131
140.187 639 25.2784
140.303 585 24.1868
140.419 587 24.2281
140.535 583 24.1454
140.652 598 24.454
140.768 0 1
140.884 0 1
141 0 1
141.115 0 1
141.231 0 1
141.347 0 1
141.463 0 1
141.578 0 1
141.694 0 1
144.104 0 1
144.219 0 1
144.335 0 1
144.45 0 1
144.566 0 1
144.682 0 1
144.798 0 1
144.914 0 1
145.03 0 1
145.146 531 23.0434
145.262 591 24.3105
145.378 590 24.2899
145.494 600 24.4949
145.61 525 22.9129
145.726 568 23.8328
145.842 581 24.1039
145.959 504 22.4499
146.075 521 22.8254
146.192 505 22.4722
146.308 489 22.1133
146.425 454 21.3073
146.541 437 20.9045
146.658 447 21.1424
146.774 458 21.4009
146.891 506 22.4944
147.008 489 22.1133
147.125 513 22.6495
147.241 539 23.2164
147.358 630 25.0998
147.475 558 23.622
147.592 583 24.1454
147.709 533 23.0868
147.826 575 23.9792
147.943 572 23.9165
148.06 590 24.2899
148.177 593 24.3516
148.294 577 24.0208
148.411 579 24.0624
148.528 526 22.9347
148.645 554 23.5372
148.762 569 23.8537
148.88 571 23.8956
148.997 538 23.1948
149.114 609 24.6779
149.231 501 22.383
149.349 554 23.5372
149.466 563 23.7276
149.583 493 22.2036
149.701 530 23.0217
149.818 494 22.2261
149.935 468 21.6333
150.053 480 21.9089
150.17 447 21.1424
150.287 476 21.8174
150.405 477 21.8403
150.522 473 21.7486
150.64 506 22.4944
150.757 551 23.4734
150.875 524 22.891
150.992 576 24
151.11 539 23.2164
151.227 545 23.3452
151.344 540 23.2379
151.462 562 23.7065
151.579 567 23.8118
151.697 577 24.0208
151.814 554 23.5372
151.932 589 24.2693
152.049 583 24.1454
152.167 567 23.8118
152.284 589 24.2693
152.402 545 23.3452
152.519 547 23.388
152.636 550 23.4521
152.754 578 24.0416
152.871 531 23.0434
152.989 582 24.1247
153.106 555 23.5584
153.223 557 23.6008
153.341 498 22.3159
153.458 482 21.9545
153.575 488 22.0907
153.693 525 22.9129
153.81 498 22.3159
153.927 512 22.6274
154.044 494 22.2261
154.162 548 23.4094
154.279 573 23.9374
154.396 593 24.3516
154.513 581 24.1039
154.63 605 24.5967
154.747 574 23.9583
154.864 610 24.6982
154.981 609 24.6779
155.098 616 24.8193
155.215 611 24.7184
155.332 611 24.7184
155.449 642 25.3377
155.566 610 24.6982
155.683 602 24.5357
155.8 622 24.9399
155.917 621 24.9199
156.033 664 25.7682
156.15 0 1
156.267 0 1
156.383 0 1
156.5 0 1
156.617 0 1
156.733 0 1
156.85 0 1
156.966 0 1
157.082 0 1
157.199 0 1
157.315 0 1
157.431 0 1
157.547 0 1
157.664 0 1
157.78 0 1
157.896 0 1
158.012 0 1
158.128 0 1
158.244 0 1
158.359 0 1
158.475 0 1
158.591 0 1
158.706 0 1
