
6.15755 0 1
6.2731 0 1
6.3887 0 1
6.50437 0 1
6.62009 0 1
6.73587 0 1
6.8517 0 1
6.96759 0 1
7.08353 0 1
7.19952 0 1
7.31557 0 1
7.43166 0 1
7.54781 0 1
7.664 0 1
7.78024 0 1
7.89653 0 1
8.01286 0 1
8.12924 0 1
8.24567 0 1
8.36213 0 1
8.47864 0 1
8.59519 0 1
8.71178 0 1
8.82841 0 1
8.94508 0 1
9.06179 0 1
9.17853 0 1
9.29531 0 1
9.41212 0 1
9.52897 0 1
9.64584 0 1
9.76276 0 1
9.8797 0 1
9.99667 0 1
10.1137 0 1
10.2307 0 1
10.3478 0 1
10.4648 0 1
10.5819 0 1
10.6991 0 1
10.8162 0 1
10.9334 0 1
11.0506 0 1
11.1678 0 1
11.285 0 1
11.4023 0 1
11.5196 0 1
11.6369 0 1
11.7542 0 1
11.8715 0 1
11.9888 0 1
12.1062 0 1
12.2235 0 1
12.3409 0 1
12.4582 0 1
12.5756 0 1
12.693 0 1
12.8104 0 1
12.9278 0 1
13.0452 0 1
13.1626 0 1
13.28 0 1
13.3974 0 1
13.5149 0 1
13.6323 0 1
13.7497 0 1
13.8671 0 1
13.9845 0 1
14.1019 0 1
14.2193 0 1
14.3367 0 1
14.4541 0 1
14.5714 0 1
14.6888 0 1
14.8062 0 1
14.9235 0 1
15.0408 1183 34.3948
15.1581 1182 34.3802
15.2755 1196 34.5832
15.3927 1204 34.6987
15.51 1207 34.7419
15.6273 1232 35.0999
15.7445 1211 34.7994
15.8617 1147 33.8674
15.9789 1092 33.0454
16.0961 1159 34.0441
16.2132 1127 33.5708
16.3304 1105 33.2415
16.4475 1082 32.8938
16.5646 1067 32.665
16.6816 1147 33.8674
16.7986 1096 33.1059
16.9156 1138 33.7343
17.0326 1136 33.7046
17.1496 1131 33.6303
17.2665 1122 33.4963
17.3833 1152 33.9411
17.5002 1175 34.2783
17.617 1100 33.1662
17.7338 1267 35.5949
17.8505 1286 35.8608
17.9672 1292 35.9444
18.0839 1404 37.47
18.2005 1463 38.2492
18.3171 1453 38.1182
18.4337 1421 37.6962
18.5502 1480 38.4708
18.6666 1463 38.2492
18.7831 1403 37.4566
18.8994 1388 37.2559
19.0158 1368 36.9865
19.1321 1363 36.9188
19.2483 1228 35.0428
19.3645 1247 35.3129
19.4806 1207 34.7419
19.5967 1233 35.1141
19.7128 1238 35.1852
19.8288 1113 33.3617
19.9447 995 31.5436
20.0606 0 1
20.1764 0 1
20.2922 0 1
20.4079 0 1
20.5236 0 1
20.6392 0 1
20.7548 0 1
20.8702 0 1
23.3078 0 1
23.4233 0 1
23.539 0 1
23.6547 0 1
23.7704 0 1
23.8862 0 1
24.0021 0 1
24.118 0 1
24.234 0 1
24.35 0 1
24.4661 1170 34.2053
24.5822 1129 33.6006
24.6984 1197 34.5977
24.8146 1123 33.5112
24.9309 1164 34.1174
25.0472 1149 33.8969
25.1636 1111 33.3317
25.28 1213 34.8281
25.3965 1202 34.6699
25.513 1213 34.8281
25.6296 1284 35.8329
25.7462 1251 35.3695
25.8628 1251 35.3695
25.9795 1283 35.819
26.0962 1330 36.4692
26.213 1242 35.242
26.3298 1292 35.9444
26.4466 1372 37.0405
26.5635 1366 36.9594
26.6804 1323 36.3731
26.7973 1411 37.5633
26.9143 1435 37.8814
27.0313 1340 36.606
27.1483 1343 36.647
27.2653 1397 37.3765
27.3824 1314 36.2491
27.4996 1306 36.1386
27.6167 1314 36.2491
27.7339 1241 35.2278
27.8511 1173 34.2491
27.9683 1163 34.1028
28.0855 1190 34.4964
28.2028 1139 33.7491
28.3201 1060 32.5576
28.4374 1103 33.2114
28.5547 1137 33.7194
28.6721 1109 33.3017
28.7894 1147 33.8674
28.9068 1125 33.541
29.0242 1138 33.7343
29.1416 1148 33.8821
29.259 1175 34.2783
29.3764 1152 33.9411
29.4939 1134 33.6749
29.6113 1195 34.5688
29.7288 1211 34.7994
29.8463 1237 35.171
29.9638 1273 35.6791
30.0812 1276 35.7211
30.1987 1347 36.7015
30.3162 1259 35.4824
30.4337 1357 36.8375
30.5512 1347 36.7015
30.6687 1265 35.5668
30.7862 1470 38.3406
30.9037 1281 35.7911
31.0212 1269 35.623
31.1387 1239 35.1994
31.2562 1180 34.3511
31.3737 1179 34.3366
31.4912 1140 33.7639
31.6087 1071 32.7261
31.7262 1034 32.1559
31.8436 1074 32.7719
31.9611 1122 33.4963
32.0785 1089 33
32.1959 1052 32.4345
32.3134 1191 34.5109
32.4308 1099 33.1512
32.5482 1149 33.8969
32.6655 1098 33.1361
32.7829 1085 32.9393
32.9002 1224 34.9857
33.0176 1111 33.3317
33.1349 1174 34.2637
33.2522 1166 34.1467
33.3694 1154 33.9706
33.4867 1193 34.5398
33.6039 1229 35.0571
33.7211 1227 35.0286
33.8383 1241 35.2278
33.9554 1238 35.1852
34.0725 1266 35.5809
34.1896 1260 35.4965
34.3067 1283 35.819
34.4237 1234 35.1283
34.5407 1222 34.9571
34.6577 1239 35.1994
34.7746 1164 34.1174
34.8915 1116 33.4066
35.0084 1102 33.1964
35.1252 1103 33.2114
35.242 1032 32.1248
35.3587 1044 32.311
35.4755 994 31.5278
35.5921 1017 31.8904
35.7088 1012 31.8119
35.8254 1085 32.9393
35.9419 1147 33.8674
36.0584 1097 33.121
36.1749 1212 34.8138
36.2913 1103 33.2114
36.4077 1078 32.8329
36.524 1144 33.8231
36.6403 1036 32.187
36.7565 1070 32.7109
36.8727 1057 32.5115
36.9889 1052 32.4345
37.1049 1082 32.8938
37.221 0 1
37.3369 0 1
37.4529 0 1
37.5687 0 1
37.6845 0 1
37.8003 0 1
37.916 0 1
38.0316 0 1
38.1472 0 1
40.5851 0 1
40.7008 0 1
40.8164 0 1
40.9322 0 1
41.048 0 1
41.1639 0 1
41.2798 0 1
41.3958 0 1
41.5118 0 1
41.6279 0 1
41.744 842 29.0172
41.8602 945 30.7409
41.9765 938 30.6268
42.0928 994 31.5278
42.2091 960 30.9839
42.3255 975 31.225
42.4419 995 31.5436
42.5584 1011 31.7962
42.675 970 31.1448
42.7915 985 31.3847
42.9081 1069 32.6956
43.0248 1090 33.0151
43.1415 1103 33.2114
43.2582 1064 32.619
43.375 1057 32.5115
43.4918 1062 32.5883
43.6087 1034 32.1559
43.7256 1025 32.0156
43.8425 974 31.209
43.9595 956 30.9192
44.0765 996 31.5595
44.1935 955 30.9031
44.3106 1016 31.8748
44.4277 935 30.5778
44.5448 995 31.5436
44.6619 920 30.3315
44.7791 905 30.0832
44.8963 934 30.5614
45.0136 914 30.2324
45.1308 907 30.1164
45.2481 896 29.9333
45.3654 922 30.3645
45.4827 858 29.2916
45.6001 851 29.1719
45.7174 855 29.2404
45.8348 813 28.5132
45.9522 825 28.7228
46.0697 821 28.6531
46.1871 740 27.2029
46.3046 745 27.2947
46.422 784 28
46.5395 779 27.9106
46.657 754 27.4591
46.7745 718 26.7955
46.892 760 27.5681
47.0096 767 27.6948
47.1271 742 27.2397
47.2446 755 27.4773
47.3622 737 27.1477
47.4797 738 27.1662
47.5973 697 26.4008
47.7149 747 27.3313
47.8324 684 26.1534
47.95 649 25.4755
48.0675 696 26.3818
48.1851 631 25.1197
48.3027 637 25.2389
48.4202 671 25.9037
48.5378 650 25.4951
48.6554 643 25.3574
48.7729 615 24.7992
48.8904 594 24.3721
49.008 650 25.4951
49.1255 617 24.8395
49.243 592 24.3311
49.3605 594 24.3721
49.478 549 23.4307
49.5955 559 23.6432
49.713 616 24.8193
49.8304 632 25.1396
49.9479 660 25.6905
50.0653 695 26.3629
50.1827 636 25.219
50.3001 669 25.865
50.4175 679 26.0576
50.5348 700 26.4575
50.6521 758 27.5318
50.7694 699 26.4386
50.8867 730 27.0185
51.004 788 28.0713
51.1212 736 27.1293
51.2384 771 27.7669
51.3556 834 28.8791
51.4727 863 29.3769
51.5899 859 29.3087
51.707 758 27.5318
51.824 837 28.931
51.9411 796 28.2135
52.0581 851 29.1719
52.175 771 27.7669
52.2919 826 28.7402
52.4088 816 28.5657
52.5257 860 29.3258
52.6425 783 27.9821
52.7593 761 27.5862
52.876 785 28.0179
52.9927 794 28.178
53.1094 872 29.5296
53.226 866 29.4279
53.3426 855 29.2404
53.4591 910 30.1662
53.5756 887 29.7825
53.692 899 29.9833
53.8084 975 31.225
53.9248 960 30.9839
54.0411 954 30.8869
54.1573 1062 32.5883
54.2735 0 1
54.3896 0 1
54.5057 0 1
54.6217 0 1
54.7377 0 1
54.8537 0 1
54.9695 0 1
55.0853 0 1
55.2011 0 1
55.3168 0 1
55.4324 0 1
57.824 0 1
57.9396 0 1
58.0553 0 1
58.1711 0 1
58.2869 0 1
58.4028 0 1
58.5187 0 1
58.6347 0 1
58.7508 0 1
58.8669 0 1
58.983 1070 32.7109
59.0992 1174 34.2637
59.2155 1214 34.8425
59.3318 1167 34.1614
59.4482 1218 34.8999
59.5646 1245 35.2846
59.681 1367 36.973
59.7975 1287 35.8748
59.9141 1292 35.9444
60.0306 1298 36.0278
60.1473 1309 36.1801
60.2639 1239 35.1994
60.3807 1198 34.6121
60.4974 1188 34.4674
60.6142 1125 33.541
60.731 1067 32.665
60.8479 1038 32.218
60.9648 955 30.9031
61.0818 977 31.257
61.1987 927 30.4467
61.3158 1077 32.8177
61.4328 928 30.4631
61.5499 1045 32.3265
61.667 1026 32.0312
61.7841 1004 31.686
61.9013 1047 32.3574
62.0185 1078 32.8329
62.1357 1079 32.8481
62.253 1074 32.7719
62.3702 1066 32.6497
62.4875 1070 32.7109
62.6049 1080 32.8634
62.7222 1120 33.4664
62.8396 1190 34.4964
62.9569 1207 34.7419
63.0743 1206 34.7275
63.1918 1274 35.6931
63.3092 1203 34.6843
63.4267 1229 35.0571
63.5441 1198 34.6121
63.6616 1224 34.9857
63.7791 1192 34.5254
63.8966 1139 33.7491
64.0142 1101 33.1813
64.1317 1068 32.6803
64.2492 1018 31.9061
64.3668 902 30.0333
64.4843 893 29.8831
64.6019 881 29.6816
64.7195 852 29.189
64.837 930 30.4959
64.9546 957 30.9354
65.0722 928 30.4631
65.1898 989 31.4484
65.3074 987 31.4166
65.4249 953 30.8707
65.5425 932 30.5287
65.6601 948 30.7896
65.7777 998 31.5911
65.8952 959 30.9677
66.0128 1057 32.5115
66.1304 1051 32.4191
66.2479 1010 31.7805
66.3655 1091 33.0303
66.483 1101 33.1813
66.6005 1236 35.1568
66.718 1178 34.322
66.8355 1222 34.9571
66.953 1192 34.5254
67.0705 1220 34.9285
67.1879 1190 34.4964
67.3054 1164 34.1174
67.4228 1163 34.1028
67.5402 991 31.4802
67.6576 977 31.257
67.7749 896 29.9333
67.8923 829 28.7924
68.0096 819 28.6182
68.1269 869 29.4788
68.2442 822 28.6705
68.3614 877 29.6142
68.4787 859 29.3087
68.5958 949 30.8058
68.713 982 31.3369
68.8302 987 31.4166
68.9473 924 30.3974
69.0643 935 30.5778
69.1814 954 30.8869
69.2984 983 31.3528
69.4154 1062 32.5883
69.5323 1051 32.4191
69.6492 1051 32.4191
69.7661 1051 32.4191
69.8829 1184 34.4093
69.9997 1220 34.9285
70.1165 1233 35.1141
70.2332 1316 36.2767
70.3499 1311 36.2077
70.4665 1273 35.6791
70.5831 1256 35.4401
70.6996 1216 34.8712
70.8161 1247 35.3129
70.9326 1146 33.8526
71.049 1105 33.2415
71.1653 994 31.5278
71.2817 928 30.4631
71.3979 909 30.1496
71.5141 872 29.5296
71.6303 834 28.8791
71.7464 765 27.6586
71.8624 0 1
71.9784 0 1
72.0944 0 1
72.2102 0 1
72.3261 0 1
72.4418 0 1
72.5575 0 1
72.6732 0 1
75.1054 0 1
75.2209 0 1
75.3365 0 1
75.4521 0 1
75.5678 0 1
75.6835 0 1
75.7993 0 1
75.9151 0 1
76.031 0 1
76.147 1169 34.1906
76.263 1025 32.0156
76.3791 1012 31.8119
76.4952 987 31.4166
76.6113 929 30.4795
76.7276 928 30.4631
76.8438 921 30.348
76.9601 882 29.6985
77.0765 907 30.1164
77.1929 897 29.95
77.3093 911 30.1828
77.4258 929 30.4795
77.5423 994 31.5278
77.6589 958 30.9516
77.7755 1035 32.1714
77.8921 1000 31.6228
78.0088 953 30.8707
78.1256 961 31
78.2423 927 30.4467
78.3591 1024 32
78.4759 1091 33.0303
78.5928 1112 33.3467
78.7097 1142 33.7935
78.8266 1199 34.6266
78.9436 1183 34.3948
79.0606 1222 34.9571
79.1776 1314 36.2491
79.2946 1260 35.4965
79.4117 1390 37.2827
79.5288 1286 35.8608
79.6459 1309 36.1801
79.7631 1212 34.8138
79.8802 1136 33.7046
79.9974 1085 32.9393
80.1147 950 30.8221
80.2319 973 31.1929
80.3491 991 31.4802
80.4664 959 30.9677
80.5837 967 31.0966
80.701 879 29.6479
80.8183 963 31.0322
80.9357 954 30.8869
81.053 922 30.3645
81.1704 994 31.5278
81.2877 1024 32
81.4051 1062 32.5883
81.5225 982 31.3369
81.6399 945 30.7409
81.7573 998 31.5911
81.8747 1041 32.2645
81.9922 1042 32.28
82.1096 1131 33.6303
82.227 1151 33.9264
82.3444 1130 33.6155
82.4619 1220 34.9285
82.5793 1325 36.4005
82.6967 1319 36.318
82.8142 1328 36.4417
82.9316 1278 35.7491
83.049 1306 36.1386
83.1664 1280 35.7771
83.2838 1265 35.5668
83.4012 1219 34.9142
83.5186 1104 33.2265
83.636 1024 32
83.7534 976 31.241
83.8708 971 31.1609
83.9881 960 30.9839
84.1055 965 31.0644
84.2228 967 31.0966
84.3401 925 30.4138
84.4575 1026 32.0312
84.5747 976 31.241
84.692 1073 32.7567
84.8093 1079 32.8481
84.9265 1145 33.8378
85.0437 1079 32.8481
85.1609 1044 32.311
85.2781 1026 32.0312
85.3952 1032 32.1248
85.5123 1149 33.8969
85.6294 1113 33.3617
85.7465 1190 34.4964
85.8636 1249 35.3412
85.9806 1328 36.4417
86.0976 1278 35.7491
86.2145 1245 35.2846
86.3315 1394 37.3363
86.4484 1401 37.4299
86.5652 1405 37.4833
86.682 1401 37.4299
86.7988 1411 37.5633
86.9156 1321 36.3456
87.0323 1318 36.3043
87.149 1119 33.4515
87.2657 1139 33.7491
87.3823 1107 33.2716
87.4988 1071 32.7261
87.6154 1088 32.9848
87.7318 1113 33.3617
87.8483 1086 32.9545
87.9647 1092 33.0454
88.081 1044 32.311
88.1973 1101 33.1813
88.3136 1115 33.3916
88.4298 1182 34.3802
88.546 1171 34.2199
88.6621 1054 32.4654
88.7781 1046 32.3419
88.8942 0 1
89.0101 0 1
89.126 0 1
89.2419 0 1
89.3577 0 1
89.4734 0 1
89.5891 0 1
89.7047 0 1
89.8203 0 1
89.9358 0 1
92.3269 0 1
92.4424 0 1
92.558 0 1
92.6736 0 1
92.7893 0 1
92.905 0 1
93.0208 0 1
93.1366 0 1
93.2525 0 1
93.3685 0 1
93.4845 0 1
93.6005 1040 32.249
93.7167 1116 33.4066
93.8328 1029 32.078
93.949 1047 32.3574
94.0653 1073 32.7567
94.1816 1033 32.1403
94.2979 1075 32.7872
94.4143 1029 32.078
94.5307 1138 33.7343
94.6472 1175 34.2783
94.7637 1183 34.3948
94.8803 1298 36.0278
94.9969 1332 36.4966
95.1135 1386 37.229
95.2302 1314 36.2491
95.3469 1373 37.054
95.4637 1332 36.4966
95.5805 1363 36.9188
95.6973 1326 36.4143
95.8142 1344 36.6606
95.9311 1220 34.9285
96.048 1187 34.4529
96.1649 1169 34.1906
96.2819 1096 33.1059
96.3989 1060 32.5576
96.516 1091 33.0303
96.633 1077 32.8177
96.7501 1087 32.9697
96.8673 1050 32.4037
96.9844 1069 32.6956
97.1016 1092 33.0454
97.2188 1014 31.8434
97.336 1089 33
97.4532 1119 33.4515
97.5704 1099 33.1512
97.6877 1027 32.0468
97.805 983 31.3528
97.9223 959 30.9677
98.0396 1026 32.0312
98.1569 1032 32.1248
98.2743 1094 33.0757
98.3916 1183 34.3948
98.509 1230 35.0714
98.6264 1235 35.1426
98.7438 1288 35.8887
98.8612 1315 36.2629
98.9786 1248 35.327
99.096 1267 35.5949
99.2134 1432 37.8418
99.3308 1319 36.318
99.4482 1321 36.3456
99.5656 1284 35.8329
99.6831 1213 34.8281
99.8005 1132 33.6452
99.9179 1060 32.5576
100.035 1065 32.6343
100.153 1107 33.2716
100.27 998 31.5911
100.388 1011 31.7962
100.505 989 31.4484
100.622 975 31.225
100.74 960 30.9839
100.857 1008 31.749
100.975 1056 32.4962
101.092 1011 31.7962
101.209 988 31.4325
101.327 985 31.3847
101.444 1011 31.7962
101.561 957 30.9354
101.679 1044 32.311
101.796 1002 31.6544
101.913 1153 33.9559
102.03 1178 34.322
102.148 1218 34.8999
102.265 1190 34.4964
102.382 1422 37.7094
102.499 1317 36.2905
102.616 1349 36.7287
102.733 1352 36.7696
102.851 1414 37.6032
102.968 1421 37.6962
103.085 1395 37.3497
103.202 1359 36.8646
103.319 1184 34.4093
103.436 1180 34.3511
103.552 1144 33.8231
103.669 1144 33.8231
103.786 1093 33.0606
103.903 1126 33.5559
104.02 1122 33.4963
104.137 1129 33.6006
104.253 1122 33.4963
104.37 1108 33.2866
104.487 1133 33.6601
104.603 1155 33.9853
104.72 1058 32.5269
104.836 1049 32.3883
104.953 1088 32.9848
105.069 1065 32.6343
105.186 1077 32.8177
105.302 1179 34.3366
105.418 1207 34.7419
105.535 1325 36.4005
105.651 1308 36.1663
105.767 1347 36.7015
105.883 1353 36.7831
105.999 1304 36.1109
106.115 0 1
106.231 0 1
106.347 0 1
106.463 0 1
106.579 0 1
106.694 0 1
106.81 0 1
106.926 0 1
107.041 0 1
107.157 0 1
109.576 0 1
109.692 0 1
109.807 0 1
109.923 0 1
110.039 0 1
110.155 0 1
110.27 0 1
110.386 0 1
110.502 0 1
110.618 1124 33.5261
110.735 1231 35.0856
110.851 1167 34.1614
110.967 1213 34.8281
111.083 1150 33.9116
111.199 1193 34.5398
111.316 1296 36
111.432 1196 34.5832
111.549 1228 35.0428
111.665 1208 34.7563
111.782 1175 34.2783
111.898 1153 33.9559
112.015 1054 32.4654
112.132 1045 32.3265
112.248 1042 32.28
112.365 966 31.0805
112.482 1038 32.218
112.599 947 30.7734
112.716 874 29.5635
112.832 921 30.348
112.949 969 31.1288
113.066 875 29.5804
113.183 862 29.3598
113.3 859 29.3087
113.417 893 29.8831
113.534 876 29.5973
113.652 892 29.8664
113.769 945 30.7409
113.886 898 29.9666
114.003 929 30.4795
114.12 977 31.257
114.238 988 31.4325
114.355 1018 31.9061
114.472 973 31.1929
114.589 878 29.6311
114.707 935 30.5778
114.824 984 31.3688
114.942 1006 31.7175
115.059 1039 32.2335
115.176 967 31.0966
115.294 968 31.1127
115.411 947 30.7734
115.529 868 29.4618
115.646 902 30.0333
115.764 842 29.0172
115.881 834 28.8791
115.999 812 28.4956
116.116 758 27.5318
116.234 742 27.2397
116.351 695 26.3629
116.469 694 26.3439
116.586 696 26.3818
116.704 704 26.533
116.821 687 26.2107
116.939 652 25.5343
117.056 686 26.1916
117.174 694 26.3439
117.291 753 27.4408
117.409 723 26.8887
117.526 752 27.4226
117.644 797 28.2312
117.761 799 28.2666
117.879 857 29.2746
117.996 824 28.7054
118.114 784 28
118.231 754 27.4591
118.349 774 27.8209
118.466 850 29.1548
118.584 887 29.7825
118.701 910 30.1662
118.819 924 30.3974
118.936 885 29.7489
119.053 831 28.8271
119.171 830 28.8097
119.288 806 28.3901
119.405 825 28.7228
119.523 777 27.8747
119.64 766 27.6767
119.757 733 27.074
119.875 690 26.2679
119.992 731 27.037
120.109 719 26.8142
120.226 718 26.7955
120.343 731 27.037
120.46 749 27.3679
120.578 741 27.2213
120.695 726 26.9444
120.812 783 27.9821
120.929 839 28.9655
121.046 907 30.1164
121.163 855 29.2404
121.279 850 29.1548
121.396 852 29.189
121.513 882 29.6985
121.63 935 30.5778
121.747 849 29.1376
121.863 808 28.4253
121.98 801 28.3019
122.097 881 29.6816
122.213 996 31.5595
122.33 989 31.4484
122.446 1022 31.9687
122.563 955 30.9031
122.679 1012 31.8119
122.795 1007 31.7333
122.912 1010 31.7805
123.028 862 29.3598
123.144 980 31.305
123.26 969 31.1288
123.377 0 1
123.493 0 1
123.609 0 1
123.725 0 1
123.84 0 1
123.956 0 1
124.072 0 1
124.188 0 1
124.303 0 1
124.419 0 1
126.852 0 1
126.968 0 1
127.083 0 1
127.199 0 1
127.315 0 1
127.431 0 1
127.547 0 1
127.663 0 1
127.779 0 1
127.895 0 1
128.011 0 1
128.127 0 1
128.243 0 1
128.359 1121 33.4813
128.476 1077 32.8177
128.592 1066 32.6497
128.708 1035 32.1714
128.825 998 31.5911
128.941 994 31.5278
129.058 1025 32.0156
129.174 942 30.692
129.291 973 31.1929
129.408 905 30.0832
129.524 912 30.1993
129.641 973 31.1929
129.758 952 30.8545
129.875 955 30.9031
129.992 953 30.8707
130.108 933 30.545
130.225 988 31.4325
130.342 973 31.1929
130.459 1061 32.573
130.576 931 30.5123
130.693 801 28.3019
130.81 688 26.2298
130.928 757 27.5136
131.045 868 29.4618
131.162 969 31.1288
131.279 940 30.6594
131.396 956 30.9192
131.513 999 31.607
131.631 984 31.3688
131.748 940 30.6594
131.865 998 31.5911
131.983 965 31.0644
132.1 924 30.3974
132.217 986 31.4006
132.335 908 30.133
132.452 914 30.2324
132.57 882 29.6985
132.687 803 28.3373
132.804 824 28.7054
132.922 862 29.3598
133.039 809 28.4429
133.157 845 29.0689
133.274 889 29.8161
133.392 844 29.0517
133.509 799 28.2666
133.627 855 29.2404
133.744 756 27.4955
133.862 842 29.0172
133.979 861 29.3428
134.097 772 27.7849
134.214 693 26.3249
134.332 636 25.219
134.449 596 24.4131
134.567 687 26.2107
134.684 842 29.0172
134.802 771 27.7669
134.919 773 27.8029
135.037 839 28.9655
135.154 756 27.4955
135.272 789 28.0891
135.389 805 28.3725
135.507 742 27.2397
135.624 738 27.1662
135.742 761 27.5862
135.859 756 27.4955
135.977 711 26.6646
136.094 744 27.2764
136.211 740 27.2029
136.329 699 26.4386
136.446 657 25.632
136.564 647 25.4362
136.681 631 25.1197
136.798 703 26.5141
136.915 649 25.4755
137.033 589 24.2693
137.15 608 24.6577
137.267 603 24.5561
137.384 671 25.9037
137.502 678 26.0384
137.619 611 24.7184
137.736 654 25.5734
137.853 537 23.1733
137.97 510 22.5832
138.087 488 22.0907
138.204 601 24.5153
138.321 635 25.1992
138.438 707 26.5895
138.555 707 26.5895
138.672 713 26.7021
138.788 696 26.3818
138.905 733 27.074
139.022 729 27
139.139 682 26.1151
139.255 720 26.8328
139.372 740 27.2029
139.488 724 26.9072
139.605 717 26.7769
139.721 693 26.3249
139.838 716 26.7582
139.954 703 26.5141
140.071 751 27.4044
140.187 759 27.55
140.303 722 26.8701
140.419 703 26.5141
140.535 707 26.5895
140.652 716 26.7582
140.768 0 1
140.884 0 1
141 0 1
141.115 0 1
141.231 0 1
141.347 0 1
141.463 0 1
141.578 0 1
141.694 0 1
144.104 0 1
144.219 0 1
144.335 0 1
144.45 0 1
144.566 0 1
144.682 0 1
144.798 0 1
144.914 0 1
145.03 0 1
145.146 639 25.2784
145.262 646 25.4165
145.378 603 24.5561
145.494 586 24.2074
145.61 591 24.3105
145.726 589 24.2693
145.842 591 24.3105
145.959 539 23.2164
146.075 537 23.1733
146.192 583 24.1454
146.308 489 22.1133
146.425 528 22.9783
146.541 477 21.8403
146.658 469 21.6564
146.774 463 21.5174
146.891 458 21.4009
147.008 468 21.6333
147.125 522 22.8473
147.241 484 22
147.358 521 22.8254
147.475 514 22.6716
147.592 479 21.8861
147.709 521 22.8254
147.826 476 21.8174
147.943 490 22.1359
148.06 435 20.8567
148.177 436 20.8806
148.294 466 21.587
148.411 471 21.7025
148.528 432 20.7846
148.645 488 22.0907
148.762 431 20.7605
148.88 404 20.0998
148.997 417 20.4206
149.114 405 20.1246
149.231 450 21.2132
149.349 365 19.105
149.466 394 19.8494
149.583 409 20.2237
149.701 436 20.8806
149.818 410 20.2485
149.935 399 19.975
150.053 404 20.0998
150.17 408 20.199
150.287 382 19.5448
150.405 374 19.3391
150.522 445 21.095
150.64 448 21.166
150.757 401 20.025
150.875 410 20.2485
150.992 459 21.4243
151.11 464 21.5407
151.227 463 21.5174
151.344 421 20.5183
151.462 406 20.1494
151.579 405 20.1246
151.697 464 21.5407
151.814 469 21.6564
151.932 415 20.3715
152.049 422 20.5426
152.167 471 21.7025
152.284 447 21.1424
152.402 444 21.0713
152.519 443 21.0476
152.636 438 20.9284
152.754 412 20.2978
152.871 421 20.5183
152.989 402 20.0499
153.106 452 21.2603
153.223 447 21.1424
153.341 441 21
153.458 411 20.2731
153.575 415 20.3715
153.693 454 21.3073
153.81 466 21.587
153.927 473 21.7486
154.044 493 22.2036
154.162 545 23.3452
154.279 491 22.1585
154.396 529 23
154.513 561 23.6854
154.63 582 24.1247
154.747 602 24.5357
154.864 576 24
154.981 557 23.6008
155.098 571 23.8956
155.215 566 23.7908
155.332 542 23.2809
155.449 566 23.7908
155.566 532 23.0651
155.683 574 23.9583
155.8 553 23.516
155.917 510 22.5832
156.033 558 23.622
156.15 0 1
156.267 0 1
156.383 0 1
156.5 0 1
156.617 0 1
156.733 0 1
156.85 0 1
156.966 0 1
157.082 0 1
157.199 0 1
157.315 0 1
157.431 0 1
157.547 0 1
157.664 0 1
157.78 0 1
157.896 0 1
158.012 0 1
158.128 0 1
158.244 0 1
158.359 0 1
158.475 0 1
158.591 0 1
158.706 0 1
