
6.15755 0 1
6.2731 0 1
6.3887 0 1
6.50437 0 1
6.62009 0 1
6.73587 0 1
6.8517 0 1
6.96759 0 1
7.08353 0 1
7.19952 0 1
7.31557 0 1
7.43166 0 1
7.54781 0 1
7.664 0 1
7.78024 0 1
7.89653 0 1
8.01286 0 1
8.12924 0 1
8.24567 0 1
8.36213 0 1
8.47864 0 1
8.59519 0 1
8.71178 0 1
8.82841 0 1
8.94508 0 1
9.06179 0 1
9.17853 0 1
9.29531 0 1
9.41212 0 1
9.52897 0 1
9.64584 0 1
9.76276 0 1
9.8797 0 1
9.99667 0 1
10.1137 0 1
10.2307 0 1
10.3478 0 1
10.4648 0 1
10.5819 0 1
10.6991 0 1
10.8162 0 1
10.9334 0 1
11.0506 0 1
11.1678 0 1
11.285 0 1
11.4023 0 1
11.5196 0 1
11.6369 0 1
11.7542 0 1
11.8715 0 1
11.9888 0 1
12.1062 0 1
12.2235 0 1
12.3409 0 1
12.4582 0 1
12.5756 0 1
12.693 0 1
12.8104 0 1
12.9278 0 1
13.0452 0 1
13.1626 0 1
13.28 0 1
13.3974 0 1
13.5149 0 1
13.6323 0 1
13.7497 0 1
13.8671 0 1
13.9845 0 1
14.1019 0 1
14.2193 0 1
14.3367 0 1
14.4541 0 1
14.5714 0 1
14.6888 0 1
14.8062 0 1
14.9235 0 1
15.0408 0 0
15.1581 0 0
15.2755 0 0
15.3927 0 0
15.51 0 0
15.6273 0 0
15.7445 0 0
15.8617 0 0
15.9789 0 0
16.0961 0 0
16.2132 0 0
16.3304 0 0
16.4475 0 0
16.5646 0 0
16.6816 0 0
16.7986 0 0
16.9156 0 0
17.0326 0 0
17.1496 0 0
17.2665 0 0
17.3833 0 0
17.5002 0 0
17.617 0 0
17.7338 0 0
17.8505 0 0
17.9672 0 0
18.0839 0 0
18.2005 0 0
18.3171 0 0
18.4337 0 0
18.5502 0 0
18.6666 0 0
18.7831 0 0
18.8994 0 0
19.0158 0 0
19.1321 0 0
19.2483 0 0
19.3645 0 0
19.4806 0 0
19.5967 0 0
19.7128 0 0
19.8288 0 0
19.9447 0 0
20.0606 0 1
20.1764 0 1
20.2922 0 1
20.4079 0 1
20.5236 0 1
20.6392 0 1
20.7548 0 1
20.8702 0 1
23.3078 0 1
23.4233 0 1
23.539 0 1
23.6547 0 1
23.7704 0 1
23.8862 0 1
24.0021 0 1
24.118 0 1
24.234 0 1
24.35 0 1
24.4661 1428 37.7889
24.5822 1337 36.565
24.6984 1357 36.8375
24.8146 1374 37.0675
24.9309 1393 37.3229
25.0472 1386 37.229
25.1636 1382 37.1753
25.28 1380 37.1484
25.3965 1411 37.5633
25.513 1341 36.6197
25.6296 1456 38.1576
25.7462 1402 37.4433
25.8628 1429 37.8021
25.9795 1481 38.4838
26.0962 1502 38.7556
26.213 1400 37.4166
26.3298 1402 37.4433
26.4466 1353 36.7831
26.5635 1360 36.8782
26.6804 1327 36.428
26.7973 1367 36.973
26.9143 1410 37.55
27.0313 1444 38
27.1483 1462 38.2361
27.2653 1526 39.064
27.3824 1602 40.025
27.4996 1523 39.0256
27.6167 1557 39.4588
27.7339 1544 39.2938
27.8511 1483 38.5097
27.9683 1475 38.4057
28.0855 1423 37.7227
28.2028 1455 38.1445
28.3201 1361 36.8917
28.4374 1316 36.2767
28.5547 1287 35.8748
28.6721 1300 36.0555
28.7894 1298 36.0278
28.9068 1282 35.805
29.0242 1292 35.9444
29.1416 1311 36.2077
29.259 1284 35.8329
29.3764 1285 35.8469
29.4939 1377 37.108
29.6113 1296 36
29.7288 1331 36.4829
29.8463 1293 35.9583
29.9638 1341 36.6197
30.0812 1287 35.8748
30.1987 1227 35.0286
30.3162 1263 35.5387
30.4337 1319 36.318
30.5512 1392 37.3095
30.6687 1460 38.2099
30.7862 1492 38.6264
30.9037 1430 37.8153
31.0212 1463 38.2492
31.1387 1430 37.8153
31.2562 1392 37.3095
31.3737 1455 38.1445
31.4912 1346 36.6879
31.6087 1381 37.1618
31.7262 1413 37.5899
31.8436 1312 36.2215
31.9611 1363 36.9188
32.0785 1256 35.4401
32.1959 1284 35.8329
32.3134 1316 36.2767
32.4308 1308 36.1663
32.5482 1279 35.7631
32.6655 1288 35.8887
32.7829 1268 35.609
32.9002 1315 36.2629
33.0176 1250 35.3553
33.1349 1201 34.6554
33.2522 1311 36.2077
33.3694 1307 36.1525
33.4867 1285 35.8469
33.6039 1374 37.0675
33.7211 1267 35.5949
33.8383 1229 35.0571
33.9554 1222 34.9571
34.0725 1242 35.242
34.1896 1326 36.4143
34.3067 1390 37.2827
34.4237 1466 38.2884
34.5407 1426 37.7624
34.6577 1468 38.3145
34.7746 1406 37.4967
34.8915 1416 37.6298
35.0084 1460 38.2099
35.1252 1469 38.3275
35.242 1350 36.7423
35.3587 1280 35.7771
35.4755 1321 36.3456
35.5921 1247 35.3129
35.7088 1284 35.8329
35.8254 1293 35.9583
35.9419 1158 34.0294
36.0584 1201 34.6554
36.1749 1260 35.4965
36.2913 1228 35.0428
36.4077 1219 34.9142
36.524 1117 33.4215
36.6403 1222 34.9571
36.7565 1267 35.5949
36.8727 1217 34.8855
36.9889 1267 35.5949
37.1049 1254 35.4119
37.221 0 1
37.3369 0 1
37.4529 0 1
37.5687 0 1
37.6845 0 1
37.8003 0 1
37.916 0 1
38.0316 0 1
38.1472 0 1
40.5851 0 1
40.7008 0 1
40.8164 0 1
40.9322 0 1
41.048 0 1
41.1639 0 1
41.2798 0 1
41.3958 0 1
41.5118 0 1
41.6279 0 1
41.744 877 29.6142
41.8602 926 30.4302
41.9765 932 30.5287
42.0928 969 31.1288
42.2091 1062 32.5883
42.3255 1067 32.665
42.4419 1006 31.7175
42.5584 999 31.607
42.675 901 30.0167
42.7915 966 31.0805
42.9081 978 31.273
43.0248 982 31.3369
43.1415 1040 32.249
43.2582 1055 32.4808
43.375 1095 33.0908
43.4918 1028 32.0624
43.6087 1025 32.0156
43.7256 992 31.496
43.8425 992 31.496
43.9595 974 31.209
44.0765 997 31.5753
44.1935 952 30.8545
44.3106 918 30.2985
44.4277 890 29.8329
44.5448 821 28.6531
44.6619 783 27.9821
44.7791 750 27.3861
44.8963 688 26.2298
45.0136 711 26.6646
45.1308 680 26.0768
45.2481 677 26.0192
45.3654 702 26.4953
45.4827 697 26.4008
45.6001 728 26.9815
45.7174 753 27.4408
45.8348 830 28.8097
45.9522 779 27.9106
46.0697 725 26.9258
46.1871 714 26.7208
46.3046 688 26.2298
46.422 687 26.2107
46.5395 698 26.4197
46.657 797 28.2312
46.7745 803 28.3373
46.892 732 27.0555
47.0096 753 27.4408
47.1271 774 27.8209
47.2446 784 28
47.3622 768 27.7128
47.4797 723 26.8887
47.5973 782 27.9643
47.7149 694 26.3439
47.8324 688 26.2298
47.95 619 24.8797
48.0675 614 24.779
48.1851 532 23.0651
48.3027 562 23.7065
48.4202 574 23.9583
48.5378 501 22.383
48.6554 481 21.9317
48.7729 528 22.9783
48.8904 513 22.6495
49.008 553 23.516
49.1255 530 23.0217
49.243 579 24.0624
49.3605 589 24.2693
49.478 549 23.4307
49.5955 545 23.3452
49.713 579 24.0624
49.8304 522 22.8473
49.9479 575 23.9792
50.0653 616 24.8193
50.1827 629 25.0799
50.3001 674 25.9615
50.4175 683 26.1343
50.5348 728 26.9815
50.6521 698 26.4197
50.7694 759 27.55
50.8867 722 26.8701
51.004 741 27.2213
51.1212 839 28.9655
51.2384 795 28.1957
51.3556 805 28.3725
51.4727 752 27.4226
51.5899 772 27.7849
51.707 733 27.074
51.824 678 26.0384
51.9411 746 27.313
52.0581 732 27.0555
52.175 790 28.1069
52.2919 804 28.3549
52.4088 763 27.6225
52.5257 819 28.6182
52.6425 848 29.1204
52.7593 884 29.7321
52.876 947 30.7734
52.9927 1003 31.6702
53.1094 998 31.5911
53.226 960 30.9839
53.3426 943 30.7083
53.4591 955 30.9031
53.5756 953 30.8707
53.692 1050 32.4037
53.8084 1068 32.6803
53.9248 1097 33.121
54.0411 1236 35.1568
54.1573 1253 35.3977
54.2735 0 1
54.3896 0 1
54.5057 0 1
54.6217 0 1
54.7377 0 1
54.8537 0 1
54.9695 0 1
55.0853 0 1
55.2011 0 1
55.3168 0 1
55.4324 0 1
57.824 0 1
57.9396 0 1
58.0553 0 1
58.1711 0 1
58.2869 0 1
58.4028 0 1
58.5187 0 1
58.6347 0 1
58.7508 0 1
58.8669 0 1
58.983 1278 35.7491
59.0992 1352 36.7696
59.2155 1346 36.6879
59.3318 1394 37.3363
59.4482 1404 37.47
59.5646 1381 37.1618
59.681 1448 38.0526
59.7975 1401 37.4299
59.9141 1264 35.5528
60.0306 1266 35.5809
60.1473 1146 33.8526
60.2639 1071 32.7261
60.3807 1034 32.1559
60.4974 952 30.8545
60.6142 992 31.496
60.731 973 31.1929
60.8479 1009 31.7648
60.9648 1023 31.9844
61.0818 975 31.225
61.1987 1091 33.0303
61.3158 1137 33.7194
61.4328 1129 33.6006
61.5499 1121 33.4813
61.667 1126 33.5559
61.7841 995 31.5436
61.9013 1060 32.5576
62.0185 1103 33.2114
62.1357 1085 32.9393
62.253 1199 34.6266
62.3702 1186 34.4384
62.4875 1282 35.805
62.6049 1223 34.9714
62.7222 1304 36.1109
62.8396 1332 36.4966
62.9569 1335 36.5377
63.0743 1379 37.1349
63.1918 1320 36.3318
63.3092 1312 36.2215
63.4267 1327 36.428
63.5441 1163 34.1028
63.6616 1091 33.0303
63.7791 991 31.4802
63.8966 1045 32.3265
64.0142 984 31.3688
64.1317 954 30.8869
64.2492 949 30.8058
64.3668 978 31.273
64.4843 1053 32.45
64.6019 1132 33.6452
64.7195 1221 34.9428
64.837 1156 34
64.9546 1140 33.7639
65.0722 1140 33.7639
65.1898 1160 34.0588
65.3074 1116 33.4066
65.4249 1078 32.8329
65.5425 1063 32.6037
65.6601 1104 33.2265
65.7777 1115 33.3916
65.8952 1180 34.3511
66.0128 1235 35.1426
66.1304 1284 35.8329
66.2479 1280 35.7771
66.3655 1370 37.0135
66.483 1311 36.2077
66.6005 1324 36.3868
66.718 1312 36.2215
66.8355 1313 36.2353
66.953 1240 35.2136
67.0705 1229 35.0571
67.1879 1176 34.2929
67.3054 1102 33.1964
67.4228 1017 31.8904
67.5402 937 30.6105
67.6576 867 29.4449
67.7749 855 29.2404
67.8923 947 30.7734
68.0096 910 30.1662
68.1269 996 31.5595
68.2442 975 31.225
68.3614 1069 32.6956
68.4787 1084 32.9242
68.5958 1156 34
68.713 1132 33.6452
68.8302 1132 33.6452
68.9473 1087 32.9697
69.0643 1028 32.0624
69.1814 1058 32.5269
69.2984 1031 32.1092
69.4154 1017 31.8904
69.5323 1118 33.4365
69.6492 1167 34.1614
69.7661 1326 36.4143
69.8829 1257 35.4542
69.9997 1370 37.0135
70.1165 1387 37.2424
70.2332 1371 37.027
70.3499 1405 37.4833
70.4665 1313 36.2353
70.5831 1337 36.565
70.6996 1169 34.1906
70.8161 1183 34.3948
70.9326 1012 31.8119
71.049 1011 31.7962
71.1653 872 29.5296
71.2817 828 28.775
71.3979 824 28.7054
71.5141 793 28.1603
71.6303 839 28.9655
71.7464 839 28.9655
71.8624 0 1
71.9784 0 1
72.0944 0 1
72.2102 0 1
72.3261 0 1
72.4418 0 1
72.5575 0 1
72.6732 0 1
75.1054 0 1
75.2209 0 1
75.3365 0 1
75.4521 0 1
75.5678 0 1
75.6835 0 1
75.7993 0 1
75.9151 0 1
76.031 0 1
76.147 1023 31.9844
76.263 1090 33.0151
76.3791 1039 32.2335
76.4952 980 31.305
76.6113 850 29.1548
76.7276 848 29.1204
76.8438 862 29.3598
76.9601 877 29.6142
77.0765 973 31.1929
77.1929 1065 32.6343
77.3093 1170 34.2053
77.4258 1201 34.6554
77.5423 1223 34.9714
77.6589 1168 34.176
77.7755 1235 35.1426
77.8921 1157 34.0147
78.0088 1085 32.9393
78.1256 1078 32.8329
78.2423 980 31.305
78.3591 1105 33.2415
78.4759 1087 32.9697
78.5928 1156 34
78.7097 1248 35.327
78.8266 1221 34.9428
78.9436 1377 37.108
79.0606 1317 36.2905
79.1776 1345 36.6742
79.2946 1359 36.8646
79.4117 1320 36.3318
79.5288 1260 35.4965
79.6459 1275 35.7071
79.7631 1129 33.6006
79.8802 1061 32.573
79.9974 935 30.5778
80.1147 880 29.6648
80.2319 736 27.1293
80.3491 779 27.9106
80.4664 762 27.6043
80.5837 778 27.8927
80.701 854 29.2233
80.8183 939 30.6431
80.9357 1022 31.9687
81.053 1030 32.0936
81.1704 1059 32.5423
81.2877 1018 31.9061
81.4051 978 31.273
81.5225 954 30.8869
81.6399 913 30.2159
81.7573 922 30.3645
81.8747 840 28.9828
81.9922 912 30.1993
82.1096 994 31.5278
82.227 988 31.4325
82.3444 998 31.5911
82.4619 1137 33.7194
82.5793 1118 33.4365
82.6967 1085 32.9393
82.8142 1161 34.0735
82.9316 1154 33.9706
83.049 1090 33.0151
83.1664 1109 33.3017
83.2838 1003 31.6702
83.4012 939 30.6431
83.5186 858 29.2916
83.636 808 28.4253
83.7534 714 26.7208
83.8708 669 25.865
83.9881 714 26.7208
84.1055 666 25.807
84.2228 727 26.9629
84.3401 740 27.2029
84.4575 819 28.6182
84.5747 952 30.8545
84.692 994 31.5278
84.8093 916 30.2655
84.9265 952 30.8545
85.0437 876 29.5973
85.1609 841 29
85.2781 896 29.9333
85.3952 885 29.7489
85.5123 895 29.9166
85.6294 883 29.7153
85.7465 896 29.9333
85.8636 1007 31.7333
85.9806 1094 33.0757
86.0976 1171 34.2199
86.2145 1199 34.6266
86.3315 1261 35.5106
86.4484 1197 34.5977
86.5652 1218 34.8999
86.682 1243 35.2562
86.7988 1259 35.4824
86.9156 1115 33.3916
87.0323 1084 32.9242
87.149 980 31.305
87.2657 888 29.7993
87.3823 817 28.5832
87.4988 868 29.4618
87.6154 754 27.4591
87.7318 851 29.1719
87.8483 833 28.8617
87.9647 986 31.4006
88.081 1073 32.7567
88.1973 1237 35.171
88.3136 1247 35.3129
88.4298 1172 34.2345
88.546 1103 33.2114
88.6621 1128 33.5857
88.7781 1132 33.6452
88.8942 0 1
89.0101 0 1
89.126 0 1
89.2419 0 1
89.3577 0 1
89.4734 0 1
89.5891 0 1
89.7047 0 1
89.8203 0 1
89.9358 0 1
92.3269 0 1
92.4424 0 1
92.558 0 1
92.6736 0 1
92.7893 0 1
92.905 0 1
93.0208 0 1
93.1366 0 1
93.2525 0 1
93.3685 0 1
93.4845 0 1
93.6005 1117 33.4215
93.7167 1156 34
93.8328 1109 33.3017
93.949 1141 33.7787
94.0653 1131 33.6303
94.1816 1091 33.0303
94.2979 1129 33.6006
94.4143 1125 33.541
94.5307 1104 33.2265
94.6472 1069 32.6956
94.7637 1131 33.6303
94.8803 1183 34.3948
94.9969 1240 35.2136
95.1135 1350 36.7423
95.2302 1387 37.2424
95.3469 1384 37.2022
95.4637 1392 37.3095
95.5805 1274 35.6931
95.6973 1368 36.9865
95.8142 1336 36.5513
95.9311 1335 36.5377
96.048 1259 35.4824
96.1649 1140 33.7639
96.2819 1061 32.573
96.3989 1012 31.8119
96.516 960 30.9839
96.633 940 30.6594
96.7501 798 28.2489
96.8673 826 28.7402
96.9844 925 30.4138
97.1016 984 31.3688
97.2188 1099 33.1512
97.336 1130 33.6155
97.4532 1183 34.3948
97.5704 1170 34.2053
97.6877 1116 33.4066
97.805 1138 33.7343
97.9223 1102 33.1964
98.0396 1053 32.45
98.1569 1088 32.9848
98.2743 1057 32.5115
98.3916 1071 32.7261
98.509 1156 34
98.6264 1164 34.1174
98.7438 1252 35.3836
98.8612 1267 35.5949
98.9786 1336 36.5513
99.096 1384 37.2022
99.2134 1430 37.8153
99.3308 1425 37.7492
99.4482 1444 38
99.5656 1307 36.1525
99.6831 1259 35.4824
99.8005 1226 35.0143
99.9179 1088 32.9848
100.035 1064 32.619
100.153 993 31.5119
100.27 831 28.8271
100.388 901 30.0167
100.505 902 30.0333
100.622 1089 33
100.74 1052 32.4345
100.857 1159 34.0441
100.975 1240 35.2136
101.092 1254 35.4119
101.209 1159 34.0441
101.327 1095 33.0908
101.444 1183 34.3948
101.561 1125 33.541
101.679 1098 33.1361
101.796 1116 33.4066
101.913 1151 33.9264
102.03 1225 35
102.148 1221 34.9428
102.265 1261 35.5106
102.382 1439 37.9342
102.499 1525 39.0512
102.616 1455 38.1445
102.733 1544 39.2938
102.851 1463 38.2492
102.968 1513 38.8973
103.085 1437 37.9078
103.202 1417 37.6431
103.319 1346 36.6879
103.436 1179 34.3366
103.552 1138 33.7343
103.669 932 30.5287
103.786 940 30.6594
103.903 934 30.5614
104.02 982 31.3369
104.137 1092 33.0454
104.253 1153 33.9559
104.37 1286 35.8608
104.487 1366 36.9594
104.603 1228 35.0428
104.72 1241 35.2278
104.836 1243 35.2562
104.953 1269 35.623
105.069 1168 34.176
105.186 1177 34.3074
105.302 1176 34.2929
105.418 1275 35.7071
105.535 1323 36.3731
105.651 1388 37.2559
105.767 1530 39.1152
105.883 1609 40.1123
105.999 1627 40.3361
106.115 0 1
106.231 0 1
106.347 0 1
106.463 0 1
106.579 0 1
106.694 0 1
106.81 0 1
106.926 0 1
107.041 0 1
107.157 0 1
109.576 0 1
109.692 0 1
109.807 0 1
109.923 0 1
110.039 0 1
110.155 0 1
110.27 0 1
110.386 0 1
110.502 0 1
110.618 1321 36.3456
110.735 1358 36.8511
110.851 1457 38.1707
110.967 1485 38.5357
111.083 1505 38.7943
111.199 1536 39.1918
111.316 1528 39.0896
111.432 1486 38.5487
111.549 1482 38.4968
111.665 1493 38.6394
111.782 1369 37
111.898 1291 35.9305
112.015 1208 34.7563
112.132 1124 33.5261
112.248 1018 31.9061
112.365 1029 32.078
112.482 927 30.4467
112.599 1008 31.749
112.716 1073 32.7567
112.832 1079 32.8481
112.949 1216 34.8712
113.066 1210 34.7851
113.183 1128 33.5857
113.3 1155 33.9853
113.417 1098 33.1361
113.534 1143 33.8083
113.652 1143 33.8083
113.769 1079 32.8481
113.886 1146 33.8526
114.003 1154 33.9706
114.12 1303 36.0971
114.238 1272 35.6651
114.355 1401 37.4299
114.472 1465 38.2753
114.589 1458 38.1838
114.707 1469 38.3275
114.824 1466 38.2884
114.942 1520 38.9872
115.059 1459 38.1969
115.176 1420 37.6829
115.294 1355 36.8103
115.411 1303 36.0971
115.529 1337 36.565
115.646 1239 35.1994
115.764 1065 32.6343
115.881 1007 31.7333
115.999 1017 31.8904
116.116 995 31.5436
116.234 1113 33.3617
116.351 1156 34
116.469 1190 34.4964
116.586 1237 35.171
116.704 1288 35.8887
116.821 1174 34.2637
116.939 1211 34.7994
117.056 1179 34.3366
117.174 1150 33.9116
117.291 1220 34.9285
117.409 1206 34.7275
117.526 1296 36
117.644 1225 35
117.761 1326 36.4143
117.879 1444 38
117.996 1510 38.8587
118.114 1483 38.5097
118.231 1635 40.4351
118.349 1538 39.2173
118.466 1597 39.9625
118.584 1571 39.6358
118.701 1571 39.6358
118.819 1494 38.6523
118.936 1416 37.6298
119.053 1463 38.2492
119.171 1365 36.9459
119.288 1269 35.623
119.405 1173 34.2491
119.523 1098 33.1361
119.64 1042 32.28
119.757 1044 32.311
119.875 1121 33.4813
119.992 1185 34.4238
120.109 1205 34.7131
120.226 1266 35.5809
120.343 1246 35.2987
120.46 1185 34.4238
120.578 1140 33.7639
120.695 1201 34.6554
120.812 1222 34.9571
120.929 1245 35.2846
121.046 1282 35.805
121.163 1324 36.3868
121.279 1275 35.7071
121.396 1453 38.1182
121.513 1429 37.8021
121.63 1476 38.4187
121.747 1512 38.8844
121.863 1521 39
121.98 1560 39.4968
122.097 1559 39.4842
122.213 1577 39.7115
122.33 1538 39.2173
122.446 1455 38.1445
122.563 1449 38.0657
122.679 1377 37.108
122.795 1359 36.8646
122.912 1304 36.1109
123.028 1269 35.623
123.144 1124 33.5261
123.26 1045 32.3265
123.377 0 1
123.493 0 1
123.609 0 1
123.725 0 1
123.84 0 1
123.956 0 1
124.072 0 1
124.188 0 1
124.303 0 1
124.419 0 1
126.852 0 1
126.968 0 1
127.083 0 1
127.199 0 1
127.315 0 1
127.431 0 1
127.547 0 1
127.663 0 1
127.779 0 1
127.895 0 1
128.011 0 1
128.127 0 1
128.243 0 1
128.359 1333 36.5103
128.476 1202 34.6699
128.592 1140 33.7639
128.708 1194 34.5543
128.825 1326 36.4143
128.941 1414 37.6032
129.058 1384 37.2022
129.174 1408 37.5233
129.291 1285 35.8469
129.408 1306 36.1386
129.524 1249 35.3412
129.641 1306 36.1386
129.758 1360 36.8782
129.875 1358 36.8511
129.992 1495 38.6652
130.108 1263 35.5387
130.225 1474 38.3927
130.342 1465 38.2753
130.459 1476 38.4187
130.576 1594 39.9249
130.693 1596 39.95
130.81 1541 39.2556
130.928 1540 39.2428
131.045 1580 39.7492
131.162 1615 40.1871
131.279 1697 41.1947
131.396 1569 39.6106
131.513 1575 39.6863
131.631 1594 39.9249
131.748 1518 38.9615
131.865 1375 37.081
131.983 1234 35.1283
132.1 1216 34.8712
132.217 1273 35.6791
132.335 1230 35.0714
132.452 1330 36.4692
132.57 1402 37.4433
132.687 1449 38.0657
132.804 1353 36.7831
132.922 1370 37.0135
133.039 1282 35.805
133.157 1302 36.0832
133.274 1403 37.4566
133.392 1282 35.805
133.509 1358 36.8511
133.627 1369 37
133.744 1441 37.9605
133.862 1510 38.8587
133.979 1580 39.7492
134.097 1579 39.7366
134.214 1533 39.1535
134.332 1642 40.5216
134.449 1606 40.0749
134.567 1588 39.8497
134.684 1600 40
134.802 1634 40.4228
134.919 1597 39.9625
135.037 1596 39.95
135.154 1483 38.5097
135.272 1495 38.6652
135.389 1498 38.704
135.507 1350 36.7423
135.624 1229 35.0571
135.742 1203 34.6843
135.859 1216 34.8712
135.977 1306 36.1386
136.094 1378 37.1214
136.211 1364 36.9324
136.329 1414 37.6032
136.446 1338 36.5787
136.564 1320 36.3318
136.681 1350 36.7423
136.798 1373 37.054
136.915 1270 35.6371
137.033 1370 37.0135
137.15 1394 37.3363
137.267 1376 37.0945
137.384 1370 37.0135
137.502 1433 37.855
137.619 1536 39.1918
137.736 1541 39.2556
137.853 1449 38.0657
137.97 1534 39.1663
138.087 1528 39.0896
138.204 1576 39.6989
138.321 1519 38.9744
138.438 1597 39.9625
138.555 1605 40.0625
138.672 1602 40.025
138.788 1543 39.281
138.905 1491 38.6135
139.022 1418 37.6563
139.139 1357 36.8375
139.255 1265 35.5668
139.372 1244 35.2704
139.488 1309 36.1801
139.605 1367 36.973
139.721 1371 37.027
139.838 1388 37.2559
139.954 1322 36.3593
140.071 1333 36.5103
140.187 1348 36.7151
140.303 1335 36.5377
140.419 1284 35.8329
140.535 1319 36.318
140.652 1292 35.9444
140.768 0 1
140.884 0 1
141 0 1
141.115 0 1
141.231 0 1
141.347 0 1
141.463 0 1
141.578 0 1
141.694 0 1
144.104 0 1
144.219 0 1
144.335 0 1
144.45 0 1
144.566 0 1
144.682 0 1
144.798 0 1
144.914 0 1
145.03 0 1
145.146 1002 31.6544
145.262 1068 32.6803
145.378 1088 32.9848
145.494 1038 32.218
145.61 1098 33.1361
145.726 1065 32.6343
145.842 1070 32.7109
145.959 1155 33.9853
146.075 1051 32.4191
146.192 1127 33.5708
146.308 1155 33.9853
146.425 1183 34.3948
146.541 1224 34.9857
146.658 1175 34.2783
146.774 1196 34.5832
146.891 1226 35.0143
147.008 1206 34.7275
147.125 1226 35.0143
147.241 1233 35.1141
147.358 1230 35.0714
147.475 1237 35.171
147.592 1268 35.609
147.709 1210 34.7851
147.826 1161 34.0735
147.943 1179 34.3366
148.06 1060 32.5576
148.177 1046 32.3419
148.294 990 31.4643
148.411 1076 32.8024
148.528 1166 34.1467
148.645 1123 33.5112
148.762 1131 33.6303
148.88 1193 34.5398
148.997 1195 34.5688
149.114 1162 34.0881
149.231 1167 34.1614
149.349 1114 33.3766
149.466 1143 33.8083
149.583 1113 33.3617
149.701 1166 34.1467
149.818 1168 34.176
149.935 1133 33.6601
150.053 1158 34.0294
150.17 1180 34.3511
150.287 1269 35.623
150.405 1260 35.4965
150.522 1205 34.7131
150.64 1246 35.2987
150.757 1257 35.4542
150.875 1268 35.609
150.992 1246 35.2987
151.11 1240 35.2136
151.227 1261 35.5106
151.344 1289 35.9026
151.462 1237 35.171
151.579 1210 34.7851
151.697 1159 34.0441
151.814 1134 33.6749
151.932 1043 32.2955
152.049 1160 34.0588
152.167 1162 34.0881
152.284 1189 34.4819
152.402 1221 34.9428
152.519 1211 34.7994
152.636 1185 34.4238
152.754 1202 34.6699
152.871 1242 35.242
152.989 1150 33.9116
153.106 1150 33.9116
153.223 1167 34.1614
153.341 1156 34
153.458 1160 34.0588
153.575 1201 34.6554
153.693 1229 35.0571
153.81 1264 35.5528
153.927 1293 35.9583
154.044 1357 36.8375
154.162 1397 37.3765
154.279 1377 37.108
154.396 1356 36.8239
154.513 1366 36.9594
154.63 1408 37.5233
154.747 1375 37.081
154.864 1383 37.1887
154.981 1508 38.833
155.098 1319 36.318
155.215 1324 36.3868
155.332 1288 35.8887
155.449 1268 35.609
155.566 1256 35.4401
155.683 1223 34.9714
155.8 1310 36.1939
155.917 1332 36.4966
156.033 1318 36.3043
156.15 0 1
156.267 0 1
156.383 0 1
156.5 0 1
156.617 0 1
156.733 0 1
156.85 0 1
156.966 0 1
157.082 0 1
157.199 0 1
157.315 0 1
157.431 0 1
157.547 0 1
157.664 0 1
157.78 0 1
157.896 0 1
158.012 0 1
158.128 0 1
158.244 0 1
158.359 0 1
158.475 0 1
158.591 0 1
158.706 0 1
