
6.15755 0 1
6.2731 0 1
6.3887 0 1
6.50437 0 1
6.62009 0 1
6.73587 0 1
6.8517 0 1
6.96759 0 1
7.08353 0 1
7.19952 0 1
7.31557 0 1
7.43166 0 1
7.54781 0 1
7.664 0 1
7.78024 0 1
7.89653 0 1
8.01286 0 1
8.12924 0 1
8.24567 0 1
8.36213 0 1
8.47864 0 1
8.59519 0 1
8.71178 0 1
8.82841 0 1
8.94508 0 1
9.06179 0 1
9.17853 0 1
9.29531 0 1
9.41212 0 1
9.52897 0 1
9.64584 0 1
9.76276 0 1
9.8797 0 1
9.99667 0 1
10.1137 0 1
10.2307 0 1
10.3478 0 1
10.4648 0 1
10.5819 0 1
10.6991 0 1
10.8162 0 1
10.9334 0 1
11.0506 0 1
11.1678 0 1
11.285 0 1
11.4023 0 1
11.5196 0 1
11.6369 0 1
11.7542 0 1
11.8715 0 1
11.9888 0 1
12.1062 0 1
12.2235 0 1
12.3409 0 1
12.4582 0 1
12.5756 0 1
12.693 0 1
12.8104 0 1
12.9278 0 1
13.0452 0 1
13.1626 0 1
13.28 0 1
13.3974 0 1
13.5149 0 1
13.6323 0 1
13.7497 0 1
13.8671 0 1
13.9845 0 1
14.1019 0 1
14.2193 0 1
14.3367 0 1
14.4541 0 1
14.5714 0 1
14.6888 0 1
14.8062 0 1
14.9235 0 1
15.0408 15987 126.44
15.1581 16674 129.128
15.2755 17062 130.622
15.3927 17230 131.263
15.51 17225 131.244
15.6273 17170 131.034
15.7445 17179 131.069
15.8617 17415 131.966
15.9789 17227 131.252
16.0961 17578 132.582
16.2132 17853 133.615
16.3304 18259 135.126
16.4475 18929 137.583
16.5646 19440 139.427
16.6816 20003 141.432
16.7986 20394 142.808
16.9156 20974 144.824
17.0326 21676 147.228
17.1496 21915 148.037
17.2665 22345 149.482
17.3833 22296 149.318
17.5002 22407 149.69
17.617 21929 148.084
17.7338 21467 146.516
17.8505 20792 144.194
17.9672 20278 142.401
18.0839 20231 142.236
18.2005 21099 145.255
18.3171 21727 147.401
18.4337 22410 149.7
18.5502 22965 151.542
18.6666 23282 152.584
18.7831 23616 153.675
18.8994 23871 154.502
19.0158 23478 153.225
19.1321 23207 152.338
19.2483 22357 149.523
19.3645 21978 148.25
19.4806 21957 148.179
19.5967 21728 147.404
19.7128 21168 145.492
19.8288 20911 144.606
19.9447 18906 137.499
20.0606 0 1
20.1764 0 1
20.2922 0 1
20.4079 0 1
20.5236 0 1
20.6392 0 1
20.7548 0 1
20.8702 0 1
23.3078 0 1
23.4233 0 1
23.539 0 1
23.6547 0 1
23.7704 0 1
23.8862 0 1
24.0021 0 1
24.118 0 1
24.234 0 1
24.35 0 1
24.4661 21953 148.165
24.5822 22171 148.899
24.6984 22027 148.415
24.8146 21658 147.167
24.9309 21435 146.407
25.0472 21615 147.02
25.1636 21877 147.909
25.28 22515 150.05
25.3965 23156 152.171
25.513 23854 154.447
25.6296 24793 157.458
25.7462 25149 158.584
25.8628 25479 159.621
25.9795 25288 159.022
26.0962 25158 158.613
26.213 24857 157.661
26.3298 23926 154.68
26.4466 22490 149.967
26.5635 21694 147.289
26.6804 22040 148.459
26.7973 22586 150.286
26.9143 23395 152.954
27.0313 23952 154.764
27.1483 24667 157.057
27.2653 24959 157.984
27.3824 25044 158.253
27.4996 25186 158.701
27.6167 24293 155.862
27.7339 23987 154.877
27.8511 23933 154.703
27.9683 23029 151.753
28.0855 22685 150.615
28.2028 22387 149.623
28.3201 21926 148.074
28.4374 21766 147.533
28.5547 21813 147.692
28.6721 22117 148.718
28.7894 22480 149.933
28.9068 23128 152.079
29.0242 23859 154.464
29.1416 24137 155.361
29.259 24645 156.987
29.3764 24711 157.197
29.4939 24681 157.102
29.6113 24569 156.745
29.7288 24026 155.003
29.8463 22739 150.795
29.9638 21550 146.799
30.0812 20550 143.353
30.1987 20741 144.017
30.3162 21837 147.773
30.4337 22379 149.596
30.5512 23220 152.381
30.6687 23365 152.856
30.7862 24304 155.897
30.9037 23995 154.903
31.0212 24292 155.859
31.1387 24048 155.074
31.2562 23914 154.642
31.3737 23004 151.671
31.4912 22642 150.473
31.6087 22655 150.516
31.7262 22300 149.332
31.8436 21783 147.591
31.9611 21581 146.905
32.0785 21475 146.544
32.1959 21584 146.915
32.3134 21983 148.267
32.4308 22187 148.953
32.5482 23006 151.677
32.6655 23717 154.003
32.7829 24194 155.544
32.9002 24296 155.872
33.0176 24287 155.843
33.1349 24142 155.377
33.2522 24320 155.949
33.3694 23400 152.971
33.4867 22040 148.459
33.6039 21041 145.055
33.7211 19889 141.028
33.8383 19697 140.346
33.9554 20167 142.011
34.0725 21185 145.551
34.1896 21859 147.848
34.3067 22114 148.708
34.4237 22666 150.552
34.5407 22953 151.502
34.6577 23040 151.789
34.7746 22830 151.096
34.8915 22761 150.867
35.0084 22385 149.616
35.1252 22447 149.823
35.242 21888 147.946
35.3587 21687 147.265
35.4755 21153 145.441
35.5921 21036 145.038
35.7088 20516 143.234
35.8254 20398 142.822
35.9419 20940 144.707
36.0584 21294 145.925
36.1749 21453 146.468
36.2913 22366 149.553
36.4077 22682 150.605
36.524 22947 151.483
36.6403 23104 152
36.7565 23188 152.276
36.8727 23486 153.251
36.9889 22183 148.94
37.1049 21053 145.097
37.221 0 1
37.3369 0 1
37.4529 0 1
37.5687 0 1
37.6845 0 1
37.8003 0 1
37.916 0 1
38.0316 0 1
38.1472 0 1
40.5851 0 1
40.7008 0 1
40.8164 0 1
40.9322 0 1
41.048 0 1
41.1639 0 1
41.2798 0 1
41.3958 0 1
41.5118 0 1
41.6279 0 1
41.744 17931 133.907
41.8602 19276 138.838
41.9765 19675 140.268
42.0928 19291 138.892
42.2091 18705 136.766
42.3255 17995 134.145
42.4419 16595 128.822
42.5584 15803 125.71
42.675 15096 122.866
42.7915 15941 126.258
42.9081 16857 129.835
43.0248 17084 130.706
43.1415 17578 132.582
43.2582 17581 132.593
43.375 17988 134.119
43.4918 17905 133.81
43.6087 18345 135.444
43.7256 17964 134.03
43.8425 17900 133.791
43.9595 17546 132.461
44.0765 17275 131.434
44.1935 16776 129.522
44.3106 16226 127.381
44.4277 15938 126.246
44.5448 15321 123.778
44.6619 14793 121.626
44.7791 14786 121.598
44.8963 14900 122.066
45.0136 15381 124.02
45.1308 15703 125.312
45.2481 15740 125.459
45.3654 16215 127.338
45.4827 15531 124.623
45.6001 15669 125.176
45.7174 15340 123.855
45.8348 14475 120.312
45.9522 13428 115.879
46.0697 12523 111.906
46.1871 11936 109.252
46.3046 11915 109.156
46.422 12420 111.445
46.5395 13011 114.066
46.657 13443 115.944
46.7745 13657 116.863
46.892 13897 117.886
47.0096 13838 117.635
47.1271 14032 118.457
47.2446 14068 118.609
47.3622 13796 117.456
47.4797 13515 116.254
47.5973 13634 116.765
47.7149 13158 114.708
47.8324 13074 114.342
47.95 12803 113.15
48.0675 12280 110.815
48.1851 11851 108.862
48.3027 11982 109.462
48.4202 11940 109.27
48.5378 12448 111.571
48.6554 12858 113.393
48.7729 13204 114.909
48.8904 13325 115.434
49.008 13462 116.026
49.1255 13232 115.03
49.243 12842 113.323
49.3605 11984 109.471
49.478 11405 106.794
49.5955 10906 104.432
49.713 10332 101.646
49.8304 10456 102.255
49.9479 11120 105.451
50.0653 11660 107.981
50.1827 12369 111.216
50.3001 12958 113.833
50.4175 13368 115.62
50.5348 13266 115.178
50.6521 13931 118.03
50.7694 14357 119.821
50.8867 14523 120.511
51.004 14551 120.628
51.1212 14493 120.387
51.2384 14899 122.061
51.3556 14669 121.116
51.4727 14706 121.268
51.5899 14350 119.791
51.707 14134 118.887
51.824 14169 119.034
51.9411 14661 121.083
52.0581 15384 124.032
52.175 16284 127.609
52.2919 16982 130.315
52.4088 17539 132.435
52.5257 17464 132.151
52.6425 17392 131.879
52.7593 17278 131.446
52.876 16823 129.704
52.9927 15433 124.23
53.1094 14980 122.393
53.226 14173 119.05
53.3426 13863 117.741
53.4591 13947 118.097
53.5756 14866 121.926
53.692 16048 126.681
53.8084 16786 129.561
53.9248 17408 131.939
54.0411 17698 133.034
54.1573 17766 133.289
54.2735 0 1
54.3896 0 1
54.5057 0 1
54.6217 0 1
54.7377 0 1
54.8537 0 1
54.9695 0 1
55.0853 0 1
55.2011 0 1
55.3168 0 1
55.4324 0 1
57.824 0 1
57.9396 0 1
58.0553 0 1
58.1711 0 1
58.2869 0 1
58.4028 0 1
58.5187 0 1
58.6347 0 1
58.7508 0 1
58.8669 0 1
58.983 19756 140.556
59.0992 20836 144.347
59.2155 21482 146.567
59.3318 22199 148.993
59.4482 22397 149.656
59.5646 22713 150.708
59.681 22991 151.628
59.7975 22681 150.602
59.9141 22739 150.795
60.0306 22446 149.82
60.1473 22029 148.422
60.2639 21088 145.217
60.3807 20314 142.527
60.4974 19717 140.417
60.6142 19827 140.808
60.731 20620 143.597
60.8479 21195 145.585
60.9648 21941 148.125
61.0818 21728 147.404
61.1987 21760 147.513
61.3158 21453 146.468
61.4328 21151 145.434
61.5499 20273 142.383
61.667 18902 137.485
61.7841 17794 133.394
61.9013 16960 130.231
62.0185 16709 129.263
62.1357 17546 132.461
62.253 18400 135.647
62.3702 19221 138.64
62.4875 20290 142.443
62.6049 20706 143.896
62.7222 20966 144.796
62.8396 21842 147.79
62.9569 21744 147.458
63.0743 21963 148.199
63.1918 22156 148.849
63.3092 22033 148.435
63.4267 21556 146.82
63.5441 21396 146.274
63.6616 20809 144.253
63.7791 20065 141.651
63.8966 19059 138.054
64.0142 18435 135.776
64.1317 19136 138.333
64.2492 19306 138.946
64.3668 20076 141.69
64.4843 20668 143.764
64.6019 21301 145.949
64.7195 21133 145.372
64.837 20894 144.548
64.9546 20454 143.017
65.0722 19724 140.442
65.1898 18296 135.263
65.3074 17470 132.174
65.4249 16255 127.495
65.5425 15404 124.113
65.6601 15557 124.728
65.7777 16907 130.027
65.8952 17970 134.052
66.0128 18657 136.591
66.1304 19405 139.302
66.2479 20165 142.004
66.3655 20512 143.22
66.483 21025 145
66.6005 21422 146.363
66.718 21727 147.401
66.8355 21609 147
66.953 21512 146.67
67.0705 21692 147.282
67.1879 20992 144.886
67.3054 20271 142.376
67.4228 19533 139.761
67.5402 18919 137.546
67.6576 18094 134.514
67.7749 18163 134.77
67.8923 19203 138.575
68.0096 19863 140.936
68.1269 20742 144.021
68.2442 21051 145.09
68.3614 20992 144.886
68.4787 21247 145.764
68.5958 21207 145.626
68.713 20064 141.647
68.8302 18916 137.535
68.9473 17661 132.895
69.0643 16617 128.907
69.1814 15910 126.135
69.2984 15910 126.135
69.4154 17069 130.648
69.5323 18183 134.844
69.6492 19546 139.807
69.7661 20558 143.381
69.8829 21120 145.327
69.9997 21889 147.949
70.1165 22338 149.459
70.2332 23011 151.694
70.3499 22921 151.397
70.4665 22925 151.41
70.5831 23133 152.095
70.6996 22778 150.924
70.8161 22806 151.017
70.9326 21886 147.939
71.049 21159 145.461
71.1653 20047 141.587
71.2817 18667 136.627
71.3979 18008 134.194
71.5141 18220 134.981
71.6303 18563 136.246
71.7464 18465 135.886
71.8624 0 1
71.9784 0 1
72.0944 0 1
72.2102 0 1
72.3261 0 1
72.4418 0 1
72.5575 0 1
72.6732 0 1
75.1054 0 1
75.2209 0 1
75.3365 0 1
75.4521 0 1
75.5678 0 1
75.6835 0 1
75.7993 0 1
75.9151 0 1
76.031 0 1
76.147 19968 141.308
76.263 20419 142.895
76.3791 19597 139.989
76.4952 18556 136.22
76.6113 18980 137.768
76.7276 19863 140.936
76.8438 21124 145.341
76.9601 22288 149.292
77.0765 22610 150.366
77.1929 22560 150.2
77.3093 22583 150.276
77.4258 21942 148.128
77.5423 20658 143.729
77.6589 19179 138.488
77.7755 17581 132.593
77.8921 16911 130.042
78.0088 16172 127.169
78.1256 15664 125.156
78.2423 16310 127.711
78.3591 17822 133.499
78.4759 19256 138.766
78.5928 20119 141.841
78.7097 21265 145.825
78.8266 21341 146.086
78.9436 23057 151.845
79.0606 22888 151.288
79.1776 22877 151.251
79.2946 23373 152.882
79.4117 23325 152.725
79.5288 23210 152.348
79.6459 22994 151.638
79.7631 22398 149.66
79.8802 21715 147.36
79.9974 20417 142.888
80.1147 18941 137.626
80.2319 18921 137.554
80.3491 19822 140.791
80.4664 21130 145.362
80.5837 21926 148.074
80.701 22278 149.258
80.8183 22299 149.328
80.9357 22322 149.405
81.053 22211 149.034
81.1704 21560 146.833
81.2877 19893 141.043
81.4051 18498 136.007
81.5225 17522 132.371
81.6399 16009 126.527
81.7573 15835 125.837
81.8747 15896 126.079
81.9922 17567 132.541
82.1096 19120 138.275
82.227 20265 142.355
82.3444 21030 145.017
82.4619 21770 147.547
82.5793 22776 150.917
82.6967 22582 150.273
82.8142 22865 151.212
82.9316 23122 152.059
83.049 23316 152.696
83.1664 22985 151.608
83.2838 22694 150.645
83.4012 22157 148.852
83.5186 21257 145.798
83.636 19953 141.255
83.7534 18716 136.806
83.8708 18758 136.96
83.9881 19646 140.164
84.1055 20532 143.29
84.2228 22495 149.983
84.3401 22255 149.181
84.4575 22908 151.354
84.5747 22529 150.097
84.692 22089 148.624
84.8093 20411 142.867
84.9265 18983 137.779
85.0437 18058 134.38
85.1609 16822 129.7
85.2781 16150 127.083
85.3952 16041 126.653
85.5123 17184 131.088
85.6294 19085 138.148
85.7465 20038 141.556
85.8636 21404 146.301
85.9806 22183 148.94
86.0976 22911 151.364
86.2145 23352 152.814
86.3315 23864 154.48
86.4484 24416 156.256
86.5652 24071 155.148
86.682 24323 155.958
86.7988 24362 156.083
86.9156 23895 154.58
87.0323 23381 152.908
87.149 22257 149.188
87.2657 20711 143.913
87.3823 19734 140.478
87.4988 20424 142.913
87.6154 21509 146.659
87.7318 23326 152.729
87.8483 23750 154.11
87.9647 23725 154.029
88.081 23752 154.117
88.1973 23526 153.382
88.3136 22625 150.416
88.4298 20547 143.342
88.546 19142 138.355
88.6621 18055 134.369
88.7781 17177 131.061
88.8942 0 1
89.0101 0 1
89.126 0 1
89.2419 0 1
89.3577 0 1
89.4734 0 1
89.5891 0 1
89.7047 0 1
89.8203 0 1
89.9358 0 1
92.3269 0 1
92.4424 0 1
92.558 0 1
92.6736 0 1
92.7893 0 1
92.905 0 1
93.0208 0 1
93.1366 0 1
93.2525 0 1
93.3685 0 1
93.4845 0 1
93.6005 19912 141.11
93.7167 18588 136.338
93.8328 17603 132.676
93.949 17097 130.755
94.0653 16770 129.499
94.1816 16680 129.151
94.2979 17435 132.042
94.4143 18956 137.681
94.5307 19695 140.339
94.6472 21016 144.969
94.7637 21448 146.451
94.8803 22124 148.741
94.9969 22637 150.456
95.1135 23313 152.686
95.2302 23220 152.381
95.3469 23846 154.422
95.4637 23886 154.551
95.5805 23762 154.149
95.6973 24211 155.599
95.8142 24076 155.164
95.9311 23539 153.424
96.048 22356 149.519
96.1649 21128 145.355
96.2819 20211 142.165
96.3989 19769 140.602
96.516 20854 144.409
96.633 21871 147.888
96.7501 22914 151.374
96.8673 23216 152.368
96.9844 23110 152.02
97.1016 23169 152.214
97.2188 22374 149.579
97.336 21244 145.753
97.4532 19788 140.67
97.5704 18253 135.104
97.6877 17436 132.045
97.805 16795 129.596
97.9223 16685 129.17
98.0396 17134 130.897
98.1569 18607 136.407
98.2743 19871 140.965
98.3916 20906 144.589
98.509 21560 146.833
98.6264 21958 148.182
98.7438 22672 150.572
98.8612 23265 152.529
98.9786 23398 152.964
99.096 23503 153.307
99.2134 23631 153.724
99.3308 23807 154.295
99.4482 23404 152.984
99.5656 22695 150.649
99.6831 22127 148.751
99.8005 20871 144.468
99.9179 19898 141.06
100.035 19538 139.778
100.153 20764 144.097
100.27 21707 147.333
100.388 22707 150.688
100.505 22984 151.605
100.622 22689 150.629
100.74 22555 150.183
100.857 22104 148.674
100.975 20754 144.062
101.092 19305 138.942
101.209 18413 135.695
101.327 17510 132.325
101.444 16759 129.457
101.561 16530 128.569
101.679 17498 132.28
101.796 19127 138.3
101.913 20554 143.367
102.03 21793 147.625
102.148 22396 149.653
102.265 21391 146.257
102.382 25644 160.137
102.499 24546 156.672
102.616 24544 156.665
102.733 24895 157.781
102.851 24940 157.924
102.968 25412 159.411
103.085 24829 157.572
103.202 24096 155.229
103.319 23146 152.138
103.436 21612 147.01
103.552 20834 144.34
103.669 22149 148.825
103.786 23597 153.613
103.903 24501 156.528
104.02 24944 157.937
104.137 24817 157.534
104.253 24362 156.083
104.37 23793 154.25
104.487 22500 150
104.603 20939 144.703
104.72 19770 140.606
104.836 18729 136.854
104.953 18184 134.848
105.069 18176 134.818
105.186 19277 138.842
105.302 21153 145.441
105.418 22510 150.033
105.535 23199 152.312
105.651 24192 155.538
105.767 24728 157.251
105.883 25242 158.877
105.999 25506 159.706
106.115 0 1
106.231 0 1
106.347 0 1
106.463 0 1
106.579 0 1
106.694 0 1
106.81 0 1
106.926 0 1
107.041 0 1
107.157 0 1
109.576 0 1
109.692 0 1
109.807 0 1
109.923 0 1
110.039 0 1
110.155 0 1
110.27 0 1
110.386 0 1
110.502 0 1
110.618 20509 143.21
110.735 21650 147.139
110.851 21972 148.23
110.967 22201 149
111.083 22617 150.389
111.199 22754 150.844
111.316 23010 151.69
111.432 22947 151.483
111.549 22324 149.412
111.665 22122 148.735
111.782 20794 144.201
111.898 19495 139.624
112.015 18608 136.411
112.132 19235 138.69
112.248 20412 142.871
112.365 21175 145.516
112.482 21701 147.313
112.599 20852 144.402
112.716 20560 143.388
112.832 20210 142.162
112.949 18730 136.858
113.066 17776 133.327
113.183 16716 129.29
113.3 15701 125.304
113.417 14830 121.778
113.534 14446 120.192
113.652 14554 120.64
113.769 15526 124.603
113.886 16603 128.853
114.003 16890 129.962
114.12 17476 132.197
114.238 17945 133.959
114.355 18286 135.226
114.472 18955 137.677
114.589 18004 134.179
114.707 18486 135.963
114.824 18699 136.744
114.942 18624 136.47
115.059 18156 134.744
115.176 17629 132.774
115.294 16800 129.615
115.411 15726 125.403
115.529 14977 122.381
115.646 14734 121.384
115.764 15538 124.652
115.881 16093 126.858
115.999 16257 127.503
116.116 15781 125.622
116.234 15902 126.103
116.351 15567 124.768
116.469 15196 123.272
116.586 13901 117.903
116.704 13241 115.07
116.821 12453 111.593
116.939 12018 109.627
117.056 11507 107.271
117.174 11489 107.187
117.291 11704 108.185
117.409 12490 111.759
117.526 13035 114.171
117.644 13738 117.209
117.761 14017 118.393
117.879 14325 119.687
117.996 14372 119.883
118.114 14900 122.066
118.231 15037 122.625
118.349 15031 122.601
118.466 15035 122.617
118.584 15439 124.254
118.701 15172 123.175
118.819 14870 121.943
118.936 14506 120.441
119.053 13516 116.258
119.171 13280 115.239
119.288 13070 114.324
119.405 14128 118.861
119.523 14852 121.869
119.64 15134 123.02
119.757 15205 123.309
119.875 15296 123.677
119.992 15094 122.858
120.109 14824 121.754
120.226 14152 118.962
120.343 13192 114.856
120.46 12857 113.389
120.578 12599 112.245
120.695 12326 111.023
120.812 12072 109.873
120.929 12370 111.221
121.046 13219 114.974
121.163 13929 118.021
121.279 14595 120.81
121.396 15047 122.666
121.513 15754 125.515
121.63 15971 126.376
121.747 16378 127.977
121.863 16751 129.426
121.98 17047 130.564
122.097 17376 131.818
122.213 17538 132.431
122.33 17735 133.173
122.446 17711 133.083
122.563 17416 131.97
122.679 16962 130.238
122.795 16499 128.448
122.912 16075 126.787
123.028 15913 126.147
123.144 17022 130.468
123.26 17533 132.412
123.377 0 1
123.493 0 1
123.609 0 1
123.725 0 1
123.84 0 1
123.956 0 1
124.072 0 1
124.188 0 1
124.303 0 1
124.419 0 1
126.852 0 1
126.968 0 1
127.083 0 1
127.199 0 1
127.315 0 1
127.431 0 1
127.547 0 1
127.663 0 1
127.779 0 1
127.895 0 1
128.011 0 1
128.127 0 1
128.243 0 1
128.359 18817 137.175
128.476 19824 140.798
128.592 21008 144.941
128.708 21063 145.131
128.825 21001 144.917
128.941 21260 145.808
129.058 21040 145.052
129.174 20371 142.727
129.291 19429 139.388
129.408 18148 134.715
129.524 17863 133.653
129.641 16980 130.307
129.758 16527 128.557
129.875 16109 126.921
129.992 16271 127.558
130.108 16981 130.311
130.225 17687 132.992
130.342 17924 133.881
130.459 18329 135.385
130.576 18118 134.603
130.693 18699 136.744
130.81 18971 137.735
130.928 19072 138.101
131.045 19158 138.412
131.162 19293 138.899
131.279 19317 138.986
131.396 19397 139.273
131.513 18820 137.186
131.631 18217 134.97
131.748 17205 131.168
131.865 16739 129.379
131.983 17434 132.038
132.1 18251 135.096
132.217 18637 136.517
132.335 18893 137.452
132.452 18902 137.485
132.57 18200 134.907
132.687 17366 131.78
132.804 17502 132.295
132.922 16350 127.867
133.039 15362 123.944
133.157 15047 122.666
133.274 14582 120.756
133.392 14071 118.621
133.509 13891 117.86
133.627 14375 119.896
133.744 14848 121.852
133.862 15058 122.711
133.979 15090 122.841
134.097 15277 123.6
134.214 15990 126.452
134.332 15090 122.841
134.449 15298 123.685
134.567 15472 124.386
134.684 15504 124.515
134.802 15649 125.096
134.919 15473 124.391
135.037 15261 123.535
135.154 14517 120.487
135.272 13855 117.707
135.389 13462 116.026
135.507 13468 116.052
135.624 14159 118.992
135.742 14430 120.125
135.859 14577 120.735
135.977 14442 120.175
136.094 14081 118.663
136.211 13821 117.563
136.329 13307 115.356
136.446 12854 113.375
136.564 12170 110.318
136.681 11609 107.745
136.798 11367 106.616
136.915 11005 104.905
137.033 10888 104.346
137.15 10916 104.48
137.267 11402 106.78
137.384 11716 108.24
137.502 11618 107.787
137.619 11834 108.784
137.736 12503 111.817
137.853 12249 110.675
137.97 12388 111.301
138.087 12661 112.521
138.204 13174 114.778
138.321 13295 115.304
138.438 13617 116.692
138.555 13722 117.141
138.672 13821 117.563
138.788 13678 116.953
138.905 13244 115.083
139.022 13207 114.922
139.139 13401 115.763
139.255 13885 117.835
139.372 14527 120.528
139.488 14983 122.405
139.605 15347 123.883
139.721 15157 123.114
139.838 15321 123.778
139.954 14978 122.385
140.071 14242 119.34
140.187 14407 120.029
140.303 13736 117.201
140.419 13368 115.62
140.535 13205 114.913
140.652 12979 113.925
140.768 0 1
140.884 0 1
141 0 1
141.115 0 1
141.231 0 1
141.347 0 1
141.463 0 1
141.578 0 1
141.694 0 1
144.104 0 1
144.219 0 1
144.335 0 1
144.45 0 1
144.566 0 1
144.682 0 1
144.798 0 1
144.914 0 1
145.03 0 1
145.146 12546 112.009
145.262 12615 112.317
145.378 11924 109.197
145.494 11470 107.098
145.61 11329 106.438
145.726 11052 105.128
145.842 10701 103.446
145.959 10846 104.144
146.075 11235 105.995
146.192 11237 106.005
146.308 11291 106.259
146.425 11317 106.381
146.541 11344 106.508
146.658 11338 106.48
146.774 11381 106.682
146.891 11482 107.154
147.008 11491 107.196
147.125 11397 106.757
147.241 11548 107.462
147.358 11397 106.757
147.475 11258 106.104
147.592 10599 102.951
147.709 10517 102.552
147.826 10358 101.774
147.943 10551 102.718
148.06 10774 103.798
148.177 10990 104.833
148.294 10883 104.322
148.411 10731 103.591
148.528 10825 104.043
148.645 10481 102.377
148.762 9841 99.2018
148.88 9890 99.4485
148.997 9901 99.5038
149.114 8668 93.1021
149.231 8803 93.8243
149.349 8491 92.1466
149.466 8614 92.8116
149.583 8532 92.3688
149.701 8555 92.4932
149.818 9042 95.0894
149.935 9071 95.2418
150.053 9257 96.2133
150.17 9208 95.9583
150.287 9419 97.0515
150.405 9305 96.4624
150.522 9786 98.9242
150.64 9810 99.0454
150.757 9779 98.8888
150.875 10060 100.3
150.992 9916 99.5791
151.11 10029 100.145
151.227 9626 98.1122
151.344 9382 96.8607
151.462 9524 97.591
151.579 9799 98.9899
151.697 10272 101.351
151.814 10655 103.223
151.932 10532 102.626
152.049 10715 103.513
152.167 10619 103.049
152.284 10488 102.411
152.402 10436 102.157
152.519 10178 100.886
152.636 9964 99.8198
152.754 9580 97.8775
152.871 9632 98.1428
152.989 9477 97.3499
153.106 9262 96.2393
153.223 9610 98.0306
153.341 9648 98.2242
153.458 10194 100.965
153.575 10058 100.29
153.693 10362 101.794
153.81 10296 101.469
153.927 10743 103.648
154.044 10987 104.819
154.162 11042 105.081
154.279 11351 106.541
154.396 11685 108.097
154.513 11820 108.72
154.63 11906 109.115
154.747 12179 110.359
154.864 11919 109.174
154.981 11787 108.568
155.098 11626 107.824
155.215 11921 109.183
155.332 12432 111.499
155.449 12540 111.982
155.566 12840 113.314
155.683 13018 114.096
155.8 12783 113.062
155.917 12768 112.996
156.033 12582 112.17
156.15 0 1
156.267 0 1
156.383 0 1
156.5 0 1
156.617 0 1
156.733 0 1
156.85 0 1
156.966 0 1
157.082 0 1
157.199 0 1
157.315 0 1
157.431 0 1
157.547 0 1
157.664 0 1
157.78 0 1
157.896 0 1
158.012 0 1
158.128 0 1
158.244 0 1
158.359 0 1
158.475 0 1
158.591 0 1
158.706 0 1
