
6.15755 0 1
6.2731 0 1
6.3887 0 1
6.50437 0 1
6.62009 0 1
6.73587 0 1
6.8517 0 1
6.96759 0 1
7.08353 0 1
7.19952 0 1
7.31557 0 1
7.43166 0 1
7.54781 0 1
7.664 0 1
7.78024 0 1
7.89653 0 1
8.01286 0 1
8.12924 0 1
8.24567 0 1
8.36213 0 1
8.47864 0 1
8.59519 0 1
8.71178 0 1
8.82841 0 1
8.94508 0 1
9.06179 0 1
9.17853 0 1
9.29531 0 1
9.41212 0 1
9.52897 0 1
9.64584 0 1
9.76276 0 1
9.8797 0 1
9.99667 0 1
10.1137 0 1
10.2307 0 1
10.3478 0 1
10.4648 0 1
10.5819 0 1
10.6991 0 1
10.8162 0 1
10.9334 0 1
11.0506 0 1
11.1678 0 1
11.285 0 1
11.4023 0 1
11.5196 0 1
11.6369 0 1
11.7542 0 1
11.8715 0 1
11.9888 0 1
12.1062 0 1
12.2235 0 1
12.3409 0 1
12.4582 0 1
12.5756 0 1
12.693 0 1
12.8104 0 1
12.9278 0 1
13.0452 0 1
13.1626 0 1
13.28 0 1
13.3974 0 1
13.5149 0 1
13.6323 0 1
13.7497 0 1
13.8671 0 1
13.9845 0 1
14.1019 0 1
14.2193 0 1
14.3367 0 1
14.4541 0 1
14.5714 0 1
14.6888 0 1
14.8062 0 1
14.9235 0 1
15.0408 0 0
15.1581 0 0
15.2755 0 0
15.3927 0 0
15.51 0 0
15.6273 0 0
15.7445 0 0
15.8617 0 0
15.9789 0 0
16.0961 0 0
16.2132 0 0
16.3304 0 0
16.4475 0 0
16.5646 0 0
16.6816 0 0
16.7986 0 0
16.9156 0 0
17.0326 0 0
17.1496 0 0
17.2665 0 0
17.3833 0 0
17.5002 0 0
17.617 0 0
17.7338 0 0
17.8505 0 0
17.9672 0 0
18.0839 0 0
18.2005 0 0
18.3171 0 0
18.4337 0 0
18.5502 0 0
18.6666 0 0
18.7831 0 0
18.8994 0 0
19.0158 0 0
19.1321 0 0
19.2483 0 0
19.3645 0 0
19.4806 0 0
19.5967 0 0
19.7128 0 0
19.8288 0 0
19.9447 0 0
20.0606 0 1
20.1764 0 1
20.2922 0 1
20.4079 0 1
20.5236 0 1
20.6392 0 1
20.7548 0 1
20.8702 0 1
23.3078 0 1
23.4233 0 1
23.539 0 1
23.6547 0 1
23.7704 0 1
23.8862 0 1
24.0021 0 1
24.118 0 1
24.234 0 1
24.35 0 1
24.4661 29846 172.76
24.5822 29899 172.913
24.6984 29845 172.757
24.8146 29131 170.678
24.9309 28965 170.191
25.0472 28417 168.573
25.1636 28058 167.505
25.28 27825 166.808
25.3965 27602 166.138
25.513 27136 164.73
25.6296 27656 166.301
25.7462 27682 166.379
25.8628 27548 165.976
25.9795 28338 168.339
26.0962 28573 169.035
26.213 28990 170.265
26.3298 29233 170.977
26.4466 29969 173.116
26.5635 30543 174.766
26.6804 31354 177.071
26.7973 31198 176.63
26.9143 31906 178.623
27.0313 31795 178.312
27.1483 32551 180.419
27.2653 32609 180.58
27.3824 32345 179.847
27.4996 32071 179.084
27.6167 31905 178.62
27.7339 31435 177.299
27.8511 30363 174.25
27.9683 30116 173.54
28.0855 29440 171.581
28.2028 29373 171.386
28.3201 27947 167.174
28.4374 27623 166.202
28.5547 27026 164.396
28.6721 26724 163.475
28.7894 26206 161.883
28.9068 25939 161.056
29.0242 25332 159.16
29.1416 25237 158.862
29.259 24935 157.908
29.3764 24760 157.353
29.4939 25227 158.83
29.6113 25971 161.155
29.7288 26465 162.681
29.8463 27216 164.973
29.9638 28302 168.232
30.0812 28456 168.689
30.1987 29480 171.697
30.3162 29413 171.502
30.4337 30040 173.321
30.5512 29905 172.931
30.6687 29934 173.014
30.7862 30919 175.838
30.9037 30125 173.566
31.0212 29784 172.58
31.1387 30111 173.525
31.2562 29201 170.883
31.3737 29143 170.713
31.4912 28586 169.074
31.6087 28230 168.018
31.7262 27367 165.43
31.8436 27232 165.021
31.9611 26667 163.3
32.0785 26225 161.941
32.1959 25977 161.174
32.3134 25662 160.194
32.4308 25548 159.837
32.5482 24833 157.585
32.6655 24865 157.686
32.7829 24428 156.295
32.9002 24569 156.745
33.0176 24646 156.99
33.1349 25265 158.95
33.2522 25806 160.642
33.3694 26348 162.321
33.4867 27047 164.46
33.6039 27553 165.991
33.7211 28591 169.089
33.8383 28685 169.366
33.9554 28861 169.885
34.0725 28947 170.138
34.1896 28794 169.688
34.3067 28638 169.228
34.4237 29053 170.449
34.5407 28756 169.576
34.6577 28809 169.732
34.7746 28726 169.487
34.8915 28596 169.104
35.0084 27723 166.502
35.1252 27741 166.556
35.242 27246 165.064
35.3587 27330 165.318
35.4755 26589 163.061
35.5921 27196 164.912
35.7088 26805 163.722
35.8254 26587 163.055
35.9419 26704 163.414
36.0584 26016 161.295
36.1749 25771 160.533
36.2913 25190 158.714
36.4077 24350 156.045
36.524 24001 154.923
36.6403 23738 154.071
36.7565 24099 155.239
36.8727 24115 155.29
36.9889 24367 156.099
37.1049 24592 156.818
37.221 0 1
37.3369 0 1
37.4529 0 1
37.5687 0 1
37.6845 0 1
37.8003 0 1
37.916 0 1
38.0316 0 1
38.1472 0 1
40.5851 0 1
40.7008 0 1
40.8164 0 1
40.9322 0 1
41.048 0 1
41.1639 0 1
41.2798 0 1
41.3958 0 1
41.5118 0 1
41.6279 0 1
41.744 17818 133.484
41.8602 18628 136.484
41.9765 19042 137.993
42.0928 19352 139.111
42.2091 19461 139.503
42.3255 19965 141.298
42.4419 20495 143.161
42.5584 20666 143.757
42.675 20585 143.475
42.7915 20787 144.177
42.9081 21114 145.307
43.0248 20885 144.516
43.1415 21078 145.183
43.2582 21328 146.041
43.375 21429 146.386
43.4918 21974 148.236
43.6087 21337 146.072
43.7256 21409 146.318
43.8425 21654 147.153
43.9595 21635 147.088
44.0765 21864 147.865
44.1935 22157 148.852
44.3106 21931 148.091
44.4277 21650 147.139
44.5448 21093 145.234
44.6619 20307 142.503
44.7791 19998 141.414
44.8963 18948 137.652
45.0136 18427 135.746
45.1308 17801 133.42
45.2481 16935 130.135
45.3654 16632 128.965
45.4827 16454 128.273
45.6001 16576 128.748
45.7174 16523 128.542
45.8348 16826 129.715
45.9522 16376 127.969
46.0697 16905 130.019
46.1871 16565 128.705
46.3046 16845 129.788
46.422 17049 130.572
46.5395 16935 130.135
46.657 16990 130.346
46.7745 17161 131
46.892 17596 132.65
47.0096 17536 132.424
47.1271 17668 132.921
47.2446 17414 131.962
47.3622 17809 133.45
47.4797 18063 134.399
47.5973 18166 134.781
47.7149 17976 134.075
47.8324 18143 134.696
47.95 17354 131.735
48.0675 16886 129.946
48.1851 15954 126.309
48.3027 15352 123.903
48.4202 14818 121.729
48.5378 14209 119.202
48.6554 13856 117.712
48.7729 13745 117.239
48.8904 13596 116.602
49.008 13600 116.619
49.1255 13603 116.632
49.243 13732 117.184
49.3605 13681 116.966
49.478 13791 117.435
49.5955 14324 119.683
49.713 14141 118.916
49.8304 14633 120.967
49.9479 14908 122.098
50.0653 15414 124.153
50.1827 15931 126.218
50.3001 16534 128.585
50.4175 17258 131.37
50.5348 17539 132.435
50.6521 18437 135.783
50.7694 18801 137.117
50.8867 20018 141.485
51.004 20855 144.413
51.1212 21700 147.309
51.2384 22297 149.322
51.3556 22944 151.473
51.4727 23070 151.888
51.5899 21945 148.138
51.707 21113 145.303
51.824 20282 142.415
51.9411 19797 140.702
52.0581 18886 137.426
52.175 18382 135.58
52.2919 17036 130.522
52.4088 16350 127.867
52.5257 16295 127.652
52.6425 16638 128.988
52.7593 16776 129.522
52.876 17015 130.442
52.9927 17545 132.458
53.1094 18097 134.525
53.226 18865 137.35
53.3426 19615 140.054
53.4591 20320 142.548
53.5756 20751 144.052
53.692 21444 146.438
53.8084 21982 148.263
53.9248 23115 152.036
54.0411 23958 154.784
54.1573 24382 156.147
54.2735 0 1
54.3896 0 1
54.5057 0 1
54.6217 0 1
54.7377 0 1
54.8537 0 1
54.9695 0 1
55.0853 0 1
55.2011 0 1
55.3168 0 1
55.4324 0 1
57.824 0 1
57.9396 0 1
58.0553 0 1
58.1711 0 1
58.2869 0 1
58.4028 0 1
58.5187 0 1
58.6347 0 1
58.7508 0 1
58.8669 0 1
58.983 26147 161.7
59.0992 27615 166.178
59.2155 29323 171.24
59.3318 31577 177.699
59.4482 33273 182.409
59.5646 34498 185.736
59.681 34435 185.567
59.7975 34273 185.13
59.9141 33277 182.42
60.0306 32037 178.989
60.1473 30209 173.807
60.2639 27924 167.105
60.3807 26187 161.824
60.4974 24375 156.125
60.6142 22550 150.167
60.731 19882 141.004
60.8479 18895 137.459
60.9648 18114 134.588
61.0818 18260 135.13
61.1987 19101 138.206
61.3158 19913 141.113
61.4328 20008 141.45
61.5499 20062 141.64
61.667 20259 142.334
61.7841 20750 144.049
61.9013 21365 146.168
62.0185 21714 147.357
62.1357 22199 148.993
62.253 22965 151.542
62.3702 24299 155.881
62.4875 25391 159.346
62.6049 27268 165.13
62.7222 29381 171.409
62.8396 31616 177.809
62.9569 32005 178.899
63.0743 32309 179.747
63.1918 32472 180.2
63.3092 31967 178.793
63.4267 31504 177.494
63.5441 29750 172.482
63.6616 27626 166.211
63.7791 25296 159.047
63.8966 23410 153.003
64.0142 20711 143.913
64.1317 18392 135.617
64.2492 16701 129.232
64.3668 15841 125.861
64.4843 15417 124.165
64.6019 15765 125.559
64.7195 16962 130.238
64.837 17655 132.872
64.9546 17869 133.675
65.0722 17532 132.408
65.1898 17955 133.996
65.3074 19009 137.873
65.4249 19377 139.201
65.5425 19523 139.725
65.6601 20131 141.884
65.7777 20988 144.872
65.8952 21940 148.122
66.0128 23036 151.776
66.1304 25615 160.047
66.2479 28552 168.973
66.3655 30552 174.791
66.483 31189 176.604
66.6005 31308 176.941
66.718 31405 177.215
66.8355 30949 175.923
66.953 30734 175.311
67.0705 29228 170.962
67.1879 26805 163.722
67.3054 23399 152.967
67.4228 20323 142.559
67.5402 18026 134.261
67.6576 16805 129.634
67.7749 15557 124.728
67.8923 15394 124.073
68.0096 15052 122.687
68.1269 14860 121.902
68.2442 15889 126.052
68.3614 17599 132.661
68.4787 18247 135.081
68.5958 18296 135.263
68.713 17766 133.289
68.8302 18026 134.261
68.9473 18270 135.167
69.0643 18956 137.681
69.1814 19549 139.818
69.2984 19915 141.121
69.4154 20972 144.817
69.5323 22771 150.901
69.6492 25645 160.141
69.7661 28483 168.769
69.8829 30680 175.157
69.9997 31791 178.3
70.1165 33093 181.915
70.2332 32945 181.508
70.3499 33001 181.662
70.4665 32417 180.047
70.5831 31743 178.166
70.6996 28742 169.535
70.8161 25153 158.597
70.9326 21915 148.037
71.049 19908 141.096
71.1653 18605 136.4
71.2817 16785 129.557
71.3979 16037 126.637
71.5141 15026 122.581
71.6303 14799 121.651
71.7464 13527 116.306
71.8624 0 1
71.9784 0 1
72.0944 0 1
72.2102 0 1
72.3261 0 1
72.4418 0 1
72.5575 0 1
72.6732 0 1
75.1054 0 1
75.2209 0 1
75.3365 0 1
75.4521 0 1
75.5678 0 1
75.6835 0 1
75.7993 0 1
75.9151 0 1
76.031 0 1
76.147 23396 152.958
76.263 21797 147.638
76.3791 20000 141.421
76.4952 18552 136.206
76.6113 17712 133.086
76.7276 16720 129.306
76.8438 16180 127.201
76.9601 15814 125.754
77.0765 15405 124.117
77.1929 15579 124.816
77.3093 17519 132.359
77.4258 18768 136.996
77.5423 19352 139.111
77.6589 18338 135.418
77.7755 17329 131.64
77.8921 17298 131.522
78.0088 17890 133.754
78.1256 17829 133.525
78.2423 18514 136.066
78.3591 19322 139.004
78.4759 20540 143.318
78.5928 23201 152.319
78.7097 26397 162.472
78.8266 30525 174.714
78.9436 30466 174.545
79.0606 32627 180.629
79.1776 32807 181.127
79.2946 32694 180.815
79.4117 31726 178.118
79.5288 31104 176.363
79.6459 29104 170.599
79.7631 26467 162.687
79.8802 23390 152.938
79.9974 20979 144.841
80.1147 18645 136.547
80.2319 17635 132.797
80.3491 16536 128.592
80.4664 15447 124.286
80.5837 14858 121.893
80.701 14713 121.297
80.8183 14903 122.078
80.9357 15995 126.471
81.053 17585 132.608
81.1704 17888 133.746
81.2877 16795 129.596
81.4051 15685 125.24
81.5225 16291 127.636
81.6399 15476 124.403
81.7573 16694 129.205
81.8747 16907 130.027
81.9922 18046 134.335
82.1096 20170 142.021
82.227 22502 150.007
82.3444 24928 157.886
82.4619 28201 167.932
82.5793 29120 170.646
82.6967 31181 176.581
82.8142 30276 174
82.9316 29697 172.328
83.049 28870 169.912
83.1664 27474 165.753
83.2838 25148 158.581
83.4012 22528 150.093
83.5186 20165 142.004
83.636 17966 134.037
83.7534 16626 128.942
83.8708 15491 124.463
83.9881 14611 120.876
84.1055 14186 119.105
84.2228 13582 116.542
84.3401 13640 116.79
84.4575 14246 119.357
84.5747 15832 125.825
84.692 17290 131.491
84.8093 17651 132.857
84.9265 16098 126.878
85.0437 14824 121.754
85.1609 14556 120.648
85.2781 14959 122.307
85.3952 15957 126.321
85.5123 16864 129.861
85.6294 18753 136.942
85.7465 20823 144.302
85.8636 22983 151.601
85.9806 25369 159.276
86.0976 28763 169.597
86.2145 30800 175.499
86.3315 30777 175.434
86.4484 32706 180.848
86.5652 30990 176.04
86.682 30490 174.614
86.7988 28829 169.791
86.9156 26667 163.3
87.0323 23631 153.724
87.149 21529 146.728
87.2657 19786 140.663
87.3823 18120 134.611
87.4988 16796 129.599
87.6154 16073 126.779
87.7318 15879 126.012
87.8483 15850 125.897
87.9647 16151 127.087
88.081 17859 133.638
88.1973 19816 140.769
88.3136 20336 142.604
88.4298 18972 137.739
88.546 16726 129.329
88.6621 15595 124.88
88.7781 15204 123.305
88.8942 0 1
89.0101 0 1
89.126 0 1
89.2419 0 1
89.3577 0 1
89.4734 0 1
89.5891 0 1
89.7047 0 1
89.8203 0 1
89.9358 0 1
92.3269 0 1
92.4424 0 1
92.558 0 1
92.6736 0 1
92.7893 0 1
92.905 0 1
93.0208 0 1
93.1366 0 1
93.2525 0 1
93.3685 0 1
93.4845 0 1
93.6005 17302 131.537
93.7167 18113 134.585
93.8328 18065 134.406
93.949 16991 130.35
94.0653 16441 128.222
94.1816 16403 128.074
94.2979 16915 130.058
94.4143 17639 132.812
94.5307 18976 137.753
94.6472 20257 142.327
94.7637 21745 147.462
94.8803 24471 156.432
94.9969 27032 164.414
95.1135 29822 172.69
95.2302 31999 178.883
95.3469 33280 182.428
95.4637 33596 183.292
95.5805 33360 182.647
95.6973 33540 183.139
95.8142 32779 181.05
95.9311 30981 176.014
96.048 28901 170.003
96.1649 26397 162.472
96.2819 24417 156.259
96.3989 22206 149.017
96.516 20805 144.239
96.633 19100 138.203
96.7501 18438 135.787
96.8673 18011 134.205
96.9844 17671 132.932
97.1016 18058 134.38
97.2188 18263 135.141
97.336 19809 140.744
97.4532 20391 142.797
97.5704 19993 141.397
97.6877 18369 135.532
97.805 16777 129.526
97.9223 16134 127.02
98.0396 16476 128.359
98.1569 17411 131.951
98.2743 18832 137.23
98.3916 20328 142.576
98.509 22535 150.117
98.6264 24975 158.035
98.7438 27903 167.042
98.8612 30944 175.909
98.9786 33889 184.09
99.096 34479 185.685
99.2134 34583 185.965
99.3308 33997 184.383
99.4482 33832 183.935
99.5656 32165 179.346
99.6831 29903 172.925
99.8005 27604 166.145
99.9179 24512 156.563
100.035 22539 150.13
100.153 20572 143.429
100.27 19404 139.298
100.388 18711 136.788
100.505 18297 135.266
100.622 18373 135.547
100.74 18305 135.296
100.857 18979 137.764
100.975 20245 142.285
101.092 20320 142.548
101.209 18905 137.495
101.327 16949 130.188
101.444 16370 127.945
101.561 16754 129.437
101.679 17676 132.951
101.796 19143 138.358
101.913 20949 144.738
102.03 23281 152.581
102.148 26268 162.074
102.265 31987 178.849
102.382 32827 181.182
102.499 35967 189.65
102.616 36409 190.811
102.733 36718 191.619
102.851 36334 190.615
102.968 36231 190.344
103.085 34376 185.408
103.202 32049 179.022
103.319 29393 171.444
103.436 26366 162.376
103.552 24216 155.615
103.669 23005 151.674
103.786 21547 146.789
103.903 21248 145.767
104.02 20906 144.589
104.137 20374 142.738
104.253 20976 144.831
104.37 20997 144.903
104.487 22554 150.18
104.603 21887 147.943
104.72 20139 141.912
104.836 18672 136.646
104.953 18529 136.121
105.069 19079 138.127
105.186 20438 142.962
105.302 22247 149.154
105.418 24678 157.092
105.535 28418 168.576
105.651 32101 179.168
105.767 35505 188.428
105.883 37373 193.321
105.999 37908 194.7
106.115 0 1
106.231 0 1
106.347 0 1
106.463 0 1
106.579 0 1
106.694 0 1
106.81 0 1
106.926 0 1
107.041 0 1
107.157 0 1
109.576 0 1
109.692 0 1
109.807 0 1
109.923 0 1
110.039 0 1
110.155 0 1
110.27 0 1
110.386 0 1
110.502 0 1
110.618 26628 163.181
110.735 29924 172.986
110.851 33289 182.453
110.967 34847 186.674
111.083 35666 188.854
111.199 35970 189.658
111.316 35882 189.425
111.432 35575 188.613
111.549 34240 185.041
111.665 31926 178.678
111.782 29344 171.301
111.898 27215 164.97
112.015 25874 160.854
112.132 24485 156.477
112.248 23513 153.339
112.365 22358 149.526
112.482 21557 146.823
112.599 20812 144.264
112.716 20298 142.471
112.832 20000 141.421
112.949 19792 140.684
113.066 19602 140.007
113.183 18087 134.488
113.3 16613 128.891
113.417 16189 127.236
113.534 16954 130.208
113.652 18017 134.227
113.769 19878 140.989
113.886 21610 147.003
114.003 23560 153.493
114.12 25879 160.87
114.238 28017 167.383
114.355 30293 174.049
114.472 31106 176.369
114.589 31904 178.617
114.707 32196 179.432
114.824 32427 180.075
114.942 31824 178.393
115.059 30969 175.98
115.176 29033 170.391
115.294 27251 165.079
115.411 26188 161.827
115.529 25047 158.262
115.646 24154 155.416
115.764 23412 153.01
115.881 22313 149.375
115.999 21724 147.391
116.116 20836 144.347
116.234 20688 143.833
116.351 20221 142.201
116.469 20193 142.102
116.586 19629 140.104
116.704 19501 139.646
116.821 17977 134.078
116.939 17565 132.533
117.056 17880 133.716
117.174 19350 139.104
117.291 21095 145.241
117.409 22484 149.947
117.526 23816 154.324
117.644 25563 159.884
117.761 27801 166.736
117.879 30309 174.095
117.996 31810 178.354
118.114 32509 180.303
118.231 33895 184.106
118.349 33326 182.554
118.466 33649 183.437
118.584 32835 181.204
118.701 31288 176.884
118.819 30204 173.793
118.936 28827 169.785
119.053 27972 167.248
119.171 26921 164.076
119.288 26208 161.889
119.405 24965 158.003
119.523 24152 155.409
119.64 23742 154.084
119.757 22679 150.595
119.875 22108 148.688
119.992 21476 146.547
120.109 20906 144.589
120.226 20592 143.499
120.343 19733 140.474
120.46 19193 138.539
120.578 18669 136.635
120.695 19663 140.225
120.812 21354 146.13
120.929 22368 149.559
121.046 23126 152.072
121.163 24200 155.563
121.279 25277 158.987
121.396 27299 165.224
121.513 29354 171.33
121.63 31230 176.72
121.747 31752 178.191
121.863 32468 180.189
121.98 32728 180.909
122.097 32313 179.758
122.213 31921 178.664
122.33 30536 174.746
122.446 29772 172.546
122.563 28758 169.582
122.679 28209 167.955
122.795 27491 165.804
122.912 26499 162.785
123.028 25820 160.686
123.144 24543 156.662
123.26 24142 155.377
123.377 0 1
123.493 0 1
123.609 0 1
123.725 0 1
123.84 0 1
123.956 0 1
124.072 0 1
124.188 0 1
124.303 0 1
124.419 0 1
126.852 0 1
126.968 0 1
127.083 0 1
127.199 0 1
127.315 0 1
127.431 0 1
127.547 0 1
127.663 0 1
127.779 0 1
127.895 0 1
128.011 0 1
128.127 0 1
128.243 0 1
128.359 29244 171.009
128.476 28564 169.009
128.592 27866 166.931
128.708 27973 167.251
128.825 27033 164.417
128.941 26585 163.049
129.058 26196 161.852
129.174 25821 160.689
129.291 25149 158.584
129.408 24692 157.137
129.524 24957 157.978
129.641 25339 159.182
129.758 25611 160.034
129.875 26507 162.81
129.992 27699 166.43
130.108 28649 169.26
130.225 29879 172.855
130.342 31773 178.25
130.459 32041 179
130.576 34653 186.153
130.693 33658 183.461
130.81 33548 183.161
130.928 32606 180.571
131.045 32387 179.964
131.162 32087 179.128
131.279 31987 178.849
131.396 31860 178.494
131.513 30977 176.003
131.631 30511 174.674
131.748 29871 172.832
131.865 29065 170.485
131.983 28154 167.792
132.1 28203 167.937
132.217 27961 167.215
132.335 27862 166.919
132.452 26985 164.271
132.57 26696 163.389
132.687 25224 158.821
132.804 26788 163.67
132.922 25426 159.455
133.039 24746 157.309
133.157 24718 157.22
133.274 25632 160.1
133.392 26077 161.484
133.509 26844 163.841
133.627 28235 168.033
133.744 28555 168.982
133.862 29922 172.98
133.979 31342 177.037
134.097 31810 178.354
134.214 31669 177.958
134.332 30674 175.14
134.449 30537 174.748
134.567 30680 175.157
134.684 31147 176.485
134.802 31151 176.496
134.919 31431 177.288
135.037 31104 176.363
135.154 30905 175.798
135.272 30685 175.171
135.389 29629 172.131
135.507 29679 172.276
135.624 29612 172.081
135.742 29590 172.017
135.859 29140 170.704
135.977 29083 170.537
136.094 28724 169.482
136.211 28388 168.487
136.329 28058 167.505
136.446 27229 165.012
136.564 26503 162.797
136.681 26757 163.576
136.798 26665 163.294
136.915 27244 165.058
137.033 27764 166.625
137.15 28370 168.434
137.267 29368 171.371
137.384 30315 174.112
137.502 31106 176.369
137.619 31351 177.062
137.736 31729 178.126
137.853 30617 174.977
137.97 30264 173.966
138.087 31648 177.899
138.204 30978 176.006
138.321 31627 177.84
138.438 32317 179.769
138.555 31997 178.877
138.672 32284 179.677
138.788 31784 178.281
138.905 31997 178.877
139.022 31472 177.403
139.139 31163 176.53
139.255 31167 176.542
139.372 30671 175.131
139.488 30839 175.61
139.605 30424 174.425
139.721 29969 173.116
139.838 29297 171.164
139.954 29003 170.303
140.071 27801 166.736
140.187 27418 165.584
140.303 26391 162.453
140.419 26180 161.802
140.535 26076 161.481
140.652 26371 162.392
140.768 0 1
140.884 0 1
141 0 1
141.115 0 1
141.231 0 1
141.347 0 1
141.463 0 1
141.578 0 1
141.694 0 1
144.104 0 1
144.219 0 1
144.335 0 1
144.45 0 1
144.566 0 1
144.682 0 1
144.798 0 1
144.914 0 1
145.03 0 1
145.146 25629 160.091
145.262 25664 160.2
145.378 25812 160.661
145.494 25789 160.59
145.61 26478 162.721
145.726 26296 162.16
145.842 26922 164.079
145.959 27412 165.566
146.075 27552 165.988
146.192 28644 169.245
146.308 28639 169.231
146.425 28744 169.541
146.541 29303 171.181
146.658 28983 170.244
146.774 29167 170.783
146.891 29668 172.244
147.008 29919 172.971
147.125 30196 173.77
147.241 30271 173.986
147.358 30244 173.908
147.475 29993 173.185
147.592 29415 171.508
147.709 29216 170.927
147.826 28768 169.611
147.943 28989 170.262
148.06 28488 168.784
148.177 28613 169.154
148.294 28201 167.932
148.411 27517 165.882
148.528 26924 164.085
148.645 25936 161.047
148.762 25659 160.184
148.88 25548 159.837
148.997 24470 156.429
149.114 26533 162.89
149.231 25523 159.759
149.349 25938 161.053
149.466 25582 159.944
149.583 25813 160.664
149.701 26570 163.003
149.818 27250 165.076
149.935 27445 165.665
150.053 27721 166.496
150.17 28107 167.651
150.287 28342 168.351
150.405 28838 169.818
150.522 28822 169.77
150.64 29314 171.213
150.757 29475 171.683
150.875 29785 172.583
150.992 29626 172.122
151.11 28521 168.882
151.227 27955 167.197
151.344 27614 166.175
151.462 27772 166.649
151.579 27261 165.109
151.697 27055 164.484
151.814 27243 165.055
151.932 26789 163.673
152.049 26200 161.864
152.167 25428 159.462
152.284 25158 158.613
152.402 24800 157.48
152.519 24624 156.92
152.636 25153 158.597
152.754 25456 159.549
152.871 25427 159.458
152.989 25448 159.524
153.106 26103 161.564
153.223 26477 162.718
153.341 26941 164.137
153.458 27709 166.46
153.575 28363 168.413
153.693 28936 170.106
153.81 29538 171.866
153.927 30262 173.96
154.044 30887 175.747
154.162 31305 176.932
154.279 31868 178.516
154.396 31889 178.575
154.513 32550 180.416
154.63 32325 179.792
154.747 31840 178.438
154.864 31340 177.031
154.981 30916 175.829
155.098 30223 173.848
155.215 29844 172.754
155.332 29306 171.19
155.449 28671 169.325
155.566 28594 169.098
155.683 27509 165.858
155.8 26966 164.213
155.917 25921 161
156.033 25454 159.543
156.15 0 1
156.267 0 1
156.383 0 1
156.5 0 1
156.617 0 1
156.733 0 1
156.85 0 1
156.966 0 1
157.082 0 1
157.199 0 1
157.315 0 1
157.431 0 1
157.547 0 1
157.664 0 1
157.78 0 1
157.896 0 1
158.012 0 1
158.128 0 1
158.244 0 1
158.359 0 1
158.475 0 1
158.591 0 1
158.706 0 1
