
6.15755 0 1
6.2731 0 1
6.3887 0 1
6.50437 0 1
6.62009 0 1
6.73587 0 1
6.8517 0 1
6.96759 0 1
7.08353 0 1
7.19952 0 1
7.31557 0 1
7.43166 0 1
7.54781 0 1
7.664 0 1
7.78024 0 1
7.89653 0 1
8.01286 0 1
8.12924 0 1
8.24567 0 1
8.36213 0 1
8.47864 0 1
8.59519 0 1
8.71178 0 1
8.82841 0 1
8.94508 0 1
9.06179 0 1
9.17853 0 1
9.29531 0 1
9.41212 0 1
9.52897 0 1
9.64584 0 1
9.76276 0 1
9.8797 0 1
9.99667 0 1
10.1137 0 1
10.2307 0 1
10.3478 0 1
10.4648 0 1
10.5819 0 1
10.6991 0 1
10.8162 0 1
10.9334 0 1
11.0506 0 1
11.1678 0 1
11.285 0 1
11.4023 0 1
11.5196 0 1
11.6369 0 1
11.7542 0 1
11.8715 0 1
11.9888 0 1
12.1062 0 1
12.2235 0 1
12.3409 0 1
12.4582 0 1
12.5756 0 1
12.693 0 1
12.8104 0 1
12.9278 0 1
13.0452 0 1
13.1626 0 1
13.28 0 1
13.3974 0 1
13.5149 0 1
13.6323 0 1
13.7497 0 1
13.8671 0 1
13.9845 0 1
14.1019 0 1
14.2193 0 1
14.3367 0 1
14.4541 0 1
14.5714 0 1
14.6888 0 1
14.8062 0 1
14.9235 0 1
15.0408 0 0
15.1581 0 0
15.2755 0 0
15.3927 0 0
15.51 0 0
15.6273 0 0
15.7445 0 0
15.8617 0 0
15.9789 0 0
16.0961 0 0
16.2132 0 0
16.3304 0 0
16.4475 0 0
16.5646 0 0
16.6816 0 0
16.7986 0 0
16.9156 0 0
17.0326 0 0
17.1496 0 0
17.2665 0 0
17.3833 0 0
17.5002 0 0
17.617 0 0
17.7338 0 0
17.8505 0 0
17.9672 0 0
18.0839 0 0
18.2005 0 0
18.3171 0 0
18.4337 0 0
18.5502 0 0
18.6666 0 0
18.7831 0 0
18.8994 0 0
19.0158 0 0
19.1321 0 0
19.2483 0 0
19.3645 0 0
19.4806 0 0
19.5967 0 0
19.7128 0 0
19.8288 0 0
19.9447 0 0
20.0606 0 1
20.1764 0 1
20.2922 0 1
20.4079 0 1
20.5236 0 1
20.6392 0 1
20.7548 0 1
20.8702 0 1
23.3078 0 1
23.4233 0 1
23.539 0 1
23.6547 0 1
23.7704 0 1
23.8862 0 1
24.0021 0 1
24.118 0 1
24.234 0 1
24.35 0 1
24.4661 1047 32.3574
24.5822 1093 33.0606
24.6984 1077 32.8177
24.8146 1087 32.9697
24.9309 1034 32.1559
25.0472 1066 32.6497
25.1636 1190 34.4964
25.28 1142 33.7935
25.3965 1152 33.9411
25.513 1141 33.7787
25.6296 1174 34.2637
25.7462 1121 33.4813
25.8628 1218 34.8999
25.9795 1205 34.7131
26.0962 1172 34.2345
26.213 1199 34.6266
26.3298 1146 33.8526
26.4466 1127 33.5708
26.5635 1198 34.6121
26.6804 1123 33.5112
26.7973 1088 32.9848
26.9143 1029 32.078
27.0313 1045 32.3265
27.1483 1021 31.9531
27.2653 1016 31.8748
27.3824 1048 32.3728
27.4996 1037 32.2025
27.6167 1060 32.5576
27.7339 1048 32.3728
27.8511 1000 31.6228
27.9683 1002 31.6544
28.0855 970 31.1448
28.2028 1051 32.4191
28.3201 935 30.5778
28.4374 1037 32.2025
28.5547 1053 32.45
28.6721 1137 33.7194
28.7894 1111 33.3317
28.9068 1086 32.9545
29.0242 1112 33.3467
29.1416 1111 33.3317
29.259 1125 33.541
29.3764 1140 33.7639
29.4939 1002 31.6544
29.6113 1099 33.1512
29.7288 1102 33.1964
29.8463 1103 33.2114
29.9638 1083 32.909
30.0812 1103 33.2114
30.1987 1155 33.9853
30.3162 1064 32.619
30.4337 942 30.692
30.5512 915 30.249
30.6687 960 30.9839
30.7862 972 31.1769
30.9037 993 31.5119
31.0212 1019 31.9218
31.1387 1034 32.1559
31.2562 947 30.7734
31.3737 1037 32.2025
31.4912 994 31.5278
31.6087 944 30.7246
31.7262 935 30.5778
31.8436 957 30.9354
31.9611 981 31.3209
32.0785 1015 31.8591
32.1959 1084 32.9242
32.3134 1050 32.4037
32.4308 1105 33.2415
32.5482 1023 31.9844
32.6655 1058 32.5269
32.7829 1053 32.45
32.9002 1093 33.0606
33.0176 1067 32.665
33.1349 1074 32.7719
33.2522 1075 32.7872
33.3694 1105 33.2415
33.4867 1028 32.0624
33.6039 1036 32.187
33.7211 1028 32.0624
33.8383 1080 32.8634
33.9554 974 31.209
34.0725 1025 32.0156
34.1896 945 30.7409
34.3067 848 29.1204
34.4237 862 29.3598
34.5407 901 30.0167
34.6577 971 31.1609
34.7746 954 30.8869
34.8915 959 30.9677
35.0084 915 30.249
35.1252 921 30.348
35.242 933 30.545
35.3587 943 30.7083
35.4755 941 30.6757
35.5921 946 30.7571
35.7088 972 31.1769
35.8254 1055 32.4808
35.9419 1038 32.218
36.0584 1020 31.9374
36.1749 1027 32.0468
36.2913 1035 32.1714
36.4077 1055 32.4808
36.524 1017 31.8904
36.6403 1007 31.7333
36.7565 1114 33.3766
36.8727 1035 32.1714
36.9889 1008 31.749
37.1049 1039 32.2335
37.221 0 1
37.3369 0 1
37.4529 0 1
37.5687 0 1
37.6845 0 1
37.8003 0 1
37.916 0 1
38.0316 0 1
38.1472 0 1
40.5851 0 1
40.7008 0 1
40.8164 0 1
40.9322 0 1
41.048 0 1
41.1639 0 1
41.2798 0 1
41.3958 0 1
41.5118 0 1
41.6279 0 1
41.744 803 28.3373
41.8602 907 30.1164
41.9765 874 29.5635
42.0928 866 29.4279
42.2091 855 29.2404
42.3255 869 29.4788
42.4419 868 29.4618
42.5584 834 28.8791
42.675 939 30.6431
42.7915 807 28.4077
42.9081 829 28.7924
43.0248 819 28.6182
43.1415 730 27.0185
43.2582 824 28.7054
43.375 773 27.8029
43.4918 844 29.0517
43.6087 769 27.7308
43.7256 741 27.2213
43.8425 832 28.8444
43.9595 781 27.9464
44.0765 744 27.2764
44.1935 813 28.5132
44.3106 750 27.3861
44.4277 817 28.5832
44.5448 761 27.5862
44.6619 762 27.6043
44.7791 838 28.9482
44.8963 789 28.0891
45.0136 759 27.55
45.1308 740 27.2029
45.2481 752 27.4226
45.3654 806 28.3901
45.4827 759 27.55
45.6001 708 26.6083
45.7174 746 27.313
45.8348 724 26.9072
45.9522 739 27.1846
46.0697 698 26.4197
46.1871 740 27.2029
46.3046 724 26.9072
46.422 713 26.7021
46.5395 641 25.318
46.657 599 24.4745
46.7745 581 24.1039
46.892 560 23.6643
47.0096 623 24.96
47.1271 657 25.632
47.2446 605 24.5967
47.3622 563 23.7276
47.4797 544 23.3238
47.5973 556 23.5797
47.7149 548 23.4094
47.8324 575 23.9792
47.95 557 23.6008
48.0675 610 24.6982
48.1851 597 24.4336
48.3027 580 24.0832
48.4202 553 23.516
48.5378 611 24.7184
48.6554 613 24.7588
48.7729 561 23.6854
48.8904 543 23.3024
49.008 597 24.4336
49.1255 604 24.5764
49.243 587 24.2281
49.3605 571 23.8956
49.478 616 24.8193
49.5955 646 25.4165
49.713 605 24.5967
49.8304 596 24.4131
49.9479 579 24.0624
50.0653 635 25.1992
50.1827 585 24.1868
50.3001 524 22.891
50.4175 524 22.891
50.5348 547 23.388
50.6521 574 23.9583
50.7694 558 23.622
50.8867 624 24.98
51.004 654 25.5734
51.1212 612 24.7386
51.2384 592 24.3311
51.3556 672 25.923
51.4727 665 25.7876
51.5899 707 26.5895
51.707 764 27.6405
51.824 723 26.8887
51.9411 737 27.1477
52.0581 742 27.2397
52.175 783 27.9821
52.2919 726 26.9444
52.4088 736 27.1293
52.5257 754 27.4591
52.6425 793 28.1603
52.7593 794 28.178
52.876 836 28.9137
52.9927 834 28.8791
53.1094 799 28.2666
53.226 805 28.3725
53.3426 776 27.8568
53.4591 820 28.6356
53.5756 838 28.9482
53.692 853 29.2062
53.8084 746 27.313
53.9248 702 26.4953
54.0411 732 27.0555
54.1573 722 26.8701
54.2735 0 1
54.3896 0 1
54.5057 0 1
54.6217 0 1
54.7377 0 1
54.8537 0 1
54.9695 0 1
55.0853 0 1
55.2011 0 1
55.3168 0 1
55.4324 0 1
57.824 0 1
57.9396 0 1
58.0553 0 1
58.1711 0 1
58.2869 0 1
58.4028 0 1
58.5187 0 1
58.6347 0 1
58.7508 0 1
58.8669 0 1
58.983 829 28.7924
59.0992 799 28.2666
59.2155 772 27.7849
59.3318 831 28.8271
59.4482 815 28.5482
59.5646 818 28.6007
59.681 876 29.5973
59.7975 894 29.8998
59.9141 834 28.8791
60.0306 853 29.2062
60.1473 896 29.9333
60.2639 867 29.4449
60.3807 855 29.2404
60.4974 859 29.3087
60.6142 857 29.2746
60.731 820 28.6356
60.8479 841 29
60.9648 856 29.2575
61.0818 799 28.2666
61.1987 822 28.6705
61.3158 802 28.3196
61.4328 816 28.5657
61.5499 825 28.7228
61.667 832 28.8444
61.7841 779 27.9106
61.9013 842 29.0172
62.0185 833 28.8617
62.1357 770 27.7489
62.253 854 29.2233
62.3702 759 27.55
62.4875 753 27.4408
62.6049 713 26.7021
62.7222 688 26.2298
62.8396 692 26.3059
62.9569 755 27.4773
63.0743 755 27.4773
63.1918 719 26.8142
63.3092 725 26.9258
63.4267 733 27.074
63.5441 797 28.2312
63.6616 752 27.4226
63.7791 734 27.0924
63.8966 760 27.5681
64.0142 742 27.2397
64.1317 777 27.8747
64.2492 717 26.7769
64.3668 753 27.4408
64.4843 701 26.4764
64.6019 744 27.2764
64.7195 746 27.313
64.837 751 27.4044
64.9546 687 26.2107
65.0722 721 26.8514
65.1898 704 26.533
65.3074 752 27.4226
65.4249 681 26.096
65.5425 705 26.5518
65.6601 703 26.5141
65.7777 741 27.2213
65.8952 710 26.6458
66.0128 704 26.533
66.1304 651 25.5147
66.2479 588 24.2487
66.3655 607 24.6374
66.483 637 25.2389
66.6005 623 24.96
66.718 656 25.6125
66.8355 652 25.5343
66.953 650 25.4951
67.0705 666 25.807
67.1879 667 25.8263
67.3054 689 26.2488
67.4228 684 26.1534
67.5402 649 25.4755
67.6576 669 25.865
67.7749 658 25.6515
67.8923 664 25.7682
68.0096 688 26.2298
68.1269 704 26.533
68.2442 669 25.865
68.3614 680 26.0768
68.4787 610 24.6982
68.5958 649 25.4755
68.713 623 24.96
68.8302 635 25.1992
68.9473 630 25.0998
69.0643 643 25.3574
69.1814 648 25.4558
69.2984 675 25.9808
69.4154 637 25.2389
69.5323 606 24.6171
69.6492 672 25.923
69.7661 626 25.02
69.8829 600 24.4949
69.9997 574 23.9583
70.1165 588 24.2487
70.2332 552 23.4947
70.3499 594 24.3721
70.4665 543 23.3024
70.5831 580 24.0832
70.6996 611 24.7184
70.8161 586 24.2074
70.9326 634 25.1794
71.049 597 24.4336
71.1653 572 23.9165
71.2817 602 24.5357
71.3979 569 23.8537
71.5141 613 24.7588
71.6303 544 23.3238
71.7464 501 22.383
71.8624 0 1
71.9784 0 1
72.0944 0 1
72.2102 0 1
72.3261 0 1
72.4418 0 1
72.5575 0 1
72.6732 0 1
75.1054 0 1
75.2209 0 1
75.3365 0 1
75.4521 0 1
75.5678 0 1
75.6835 0 1
75.7993 0 1
75.9151 0 1
76.031 0 1
76.147 503 22.4277
76.263 472 21.7256
76.3791 471 21.7025
76.4952 474 21.7715
76.6113 483 21.9773
76.7276 469 21.6564
76.8438 479 21.8861
76.9601 460 21.4476
77.0765 485 22.0227
77.1929 470 21.6795
77.3093 467 21.6102
77.4258 453 21.2838
77.5423 401 20.025
77.6589 469 21.6564
77.7755 422 20.5426
77.8921 418 20.445
78.0088 409 20.2237
78.1256 398 19.9499
78.2423 443 21.0476
78.3591 388 19.6977
78.4759 389 19.7231
78.5928 382 19.5448
78.7097 393 19.8242
78.8266 400 20
78.9436 363 19.0526
79.0606 338 18.3848
79.1776 281 16.7631
79.2946 296 17.2047
79.4117 313 17.6918
79.5288 324 18
79.6459 347 18.6279
79.7631 350 18.7083
79.8802 322 17.9444
79.9974 321 17.9165
80.1147 333 18.2483
80.2319 285 16.8819
80.3491 291 17.0587
80.4664 304 17.4356
80.5837 287 16.9411
80.701 272 16.4924
80.8183 283 16.8226
80.9357 281 16.7631
81.053 264 16.2481
81.1704 283 16.8226
81.2877 244 15.6205
81.4051 241 15.5242
81.5225 244 15.6205
81.6399 224 14.9666
81.7573 216 14.6969
81.8747 242 15.5563
81.9922 200 14.1421
82.1096 206 14.3527
82.227 217 14.7309
82.3444 189 13.7477
82.4619 183 13.5277
82.5793 183 13.5277
82.6967 186 13.6382
82.8142 158 12.5698
82.9316 114 10.6771
83.049 129 11.3578
83.1664 137 11.7047
83.2838 139 11.7898
83.4012 131 11.4455
83.5186 136 11.6619
83.636 138 11.7473
83.7534 121 11
83.8708 132 11.4891
83.9881 111 10.5357
84.1055 120 10.9545
84.2228 95 9.74679
84.3401 84 9.16515
84.4575 92 9.59166
84.5747 92 9.59166
84.692 95 9.74679
84.8093 85 9.21954
84.9265 106 10.2956
85.0437 95 9.74679
85.1609 85 9.21954
85.2781 68 8.24621
85.3952 82 9.05539
85.5123 93 9.64365
85.6294 83 9.11043
85.7465 86 9.27362
85.8636 78 8.83176
85.9806 71 8.42615
86.0976 70 8.3666
86.2145 41 6.40312
86.3315 70 8.3666
86.4484 97 9.84886
86.5652 99 9.94987
86.682 103 10.1489
86.7988 114 10.6771
86.9156 126 11.225
87.0323 118 10.8628
87.149 129 11.3578
87.2657 112 10.583
87.3823 99 9.94987
87.4988 155 12.4499
87.6154 133 11.5326
87.7318 143 11.9583
87.8483 135 11.619
87.9647 168 12.9615
88.081 159 12.6095
88.1973 173 13.1529
88.3136 170 13.0384
88.4298 161 12.6886
88.546 189 13.7477
88.6621 204 14.2829
88.7781 203 14.2478
88.8942 0 1
89.0101 0 1
89.126 0 1
89.2419 0 1
89.3577 0 1
89.4734 0 1
89.5891 0 1
89.7047 0 1
89.8203 0 1
89.9358 0 1
92.3269 0 1
92.4424 0 1
92.558 0 1
92.6736 0 1
92.7893 0 1
92.905 0 1
93.0208 0 1
93.1366 0 1
93.2525 0 1
93.3685 0 1
93.4845 0 1
93.6005 330 18.1659
93.7167 331 18.1934
93.8328 329 18.1384
93.949 312 17.6635
94.0653 332 18.2209
94.1816 315 17.7482
94.2979 289 17
94.4143 268 16.3707
94.5307 266 16.3095
94.6472 278 16.6733
94.7637 275 16.5831
94.8803 248 15.748
94.9969 268 16.3707
95.1135 266 16.3095
95.2302 277 16.6433
95.3469 229 15.1327
95.4637 180 13.4164
95.5805 193 13.8924
95.6973 250 15.8114
95.8142 287 16.9411
95.9311 292 17.088
96.048 306 17.4929
96.1649 312 17.6635
96.2819 307 17.5214
96.3989 299 17.2916
96.516 334 18.2757
96.633 309 17.5784
96.7501 332 18.2209
96.8673 344 18.5472
96.9844 341 18.4662
97.1016 365 19.105
97.2188 346 18.6011
97.336 418 20.445
97.4532 394 19.8494
97.5704 413 20.3224
97.6877 435 20.8567
97.805 434 20.8327
97.9223 423 20.567
98.0396 442 21.0238
98.1569 419 20.4695
98.2743 452 21.2603
98.3916 445 21.095
98.509 476 21.8174
98.6264 463 21.5174
98.7438 500 22.3607
98.8612 500 22.3607
98.9786 427 20.664
99.096 354 18.8149
99.2134 339 18.412
99.3308 491 22.1585
99.4482 547 23.388
99.5656 531 23.0434
99.6831 566 23.7908
99.8005 597 24.4336
99.9179 535 23.1301
100.035 567 23.8118
100.153 560 23.6643
100.27 595 24.3926
100.388 589 24.2693
100.505 651 25.5147
100.622 661 25.7099
100.74 615 24.7992
100.857 634 25.1794
100.975 601 24.5153
101.092 659 25.671
101.209 635 25.1992
101.327 634 25.1794
101.444 657 25.632
101.561 655 25.593
101.679 637 25.2389
101.796 663 25.7488
101.913 636 25.219
102.03 699 26.4386
102.148 718 26.7955
102.265 706 26.5707
102.382 648 25.4558
102.499 602 24.5357
102.616 535 23.1301
102.733 432 20.7846
102.851 521 22.8254
102.968 682 26.1151
103.085 718 26.7955
103.202 678 26.0384
103.319 649 25.4755
103.436 723 26.8887
103.552 717 26.7769
103.669 753 27.4408
103.786 643 25.3574
103.903 689 26.2488
104.02 698 26.4197
104.137 719 26.8142
104.253 687 26.2107
104.37 651 25.5147
104.487 727 26.9629
104.603 735 27.1109
104.72 711 26.6646
104.836 770 27.7489
104.953 690 26.2679
105.069 742 27.2397
105.186 714 26.7208
105.302 734 27.0924
105.418 762 27.6043
105.535 721 26.8514
105.651 736 27.1293
105.767 710 26.6458
105.883 699 26.4386
105.999 582 24.1247
106.115 0 1
106.231 0 1
106.347 0 1
106.463 0 1
106.579 0 1
106.694 0 1
106.81 0 1
106.926 0 1
107.041 0 1
107.157 0 1
109.576 0 1
109.692 0 1
109.807 0 1
109.923 0 1
110.039 0 1
110.155 0 1
110.27 0 1
110.386 0 1
110.502 0 1
110.618 566 23.7908
110.735 552 23.4947
110.851 588 24.2487
110.967 509 22.561
111.083 458 21.4009
111.199 459 21.4243
111.316 458 21.4009
111.432 513 22.6495
111.549 541 23.2594
111.665 577 24.0208
111.782 504 22.4499
111.898 534 23.1084
112.015 476 21.8174
112.132 473 21.7486
112.248 487 22.0681
112.365 519 22.7816
112.482 522 22.8473
112.599 470 21.6795
112.716 424 20.5913
112.832 479 21.8861
112.949 449 21.1896
113.066 481 21.9317
113.183 459 21.4243
113.3 432 20.7846
113.417 480 21.9089
113.534 434 20.8327
113.652 468 21.6333
113.769 415 20.3715
113.886 421 20.5183
114.003 454 21.3073
114.12 411 20.2731
114.238 415 20.3715
114.355 416 20.3961
114.472 409 20.2237
114.589 406 20.1494
114.707 372 19.2873
114.824 345 18.5742
114.942 334 18.2757
115.059 416 20.3961
115.176 429 20.7123
115.294 391 19.7737
115.411 422 20.5426
115.529 406 20.1494
115.646 382 19.5448
115.764 393 19.8242
115.881 406 20.1494
115.999 402 20.0499
116.116 401 20.025
116.234 338 18.3848
116.351 398 19.9499
116.469 367 19.1572
116.586 387 19.6723
116.704 405 20.1246
116.821 391 19.7737
116.939 375 19.3649
117.056 423 20.567
117.174 379 19.4679
117.291 392 19.799
117.409 429 20.7123
117.526 410 20.2485
117.644 394 19.8494
117.761 399 19.975
117.879 357 18.8944
117.996 306 17.4929
118.114 310 17.6068
118.231 347 18.6279
118.349 394 19.8494
118.466 416 20.3961
118.584 351 18.735
118.701 398 19.9499
118.819 398 19.9499
118.936 398 19.9499
119.053 421 20.5183
119.171 407 20.1742
119.288 412 20.2978
119.405 398 19.9499
119.523 381 19.5192
119.64 414 20.347
119.757 397 19.9249
119.875 440 20.9762
119.992 407 20.1742
120.109 392 19.799
120.226 411 20.2731
120.343 401 20.025
120.46 431 20.7605
120.578 439 20.9523
120.695 405 20.1246
120.812 424 20.5913
120.929 433 20.8087
121.046 404 20.0998
121.163 410 20.2485
121.279 366 19.1311
121.396 411 20.2731
121.513 416 20.3961
121.63 379 19.4679
121.747 318 17.8326
121.863 296 17.2047
121.98 366 19.1311
122.097 371 19.2614
122.213 432 20.7846
122.33 450 21.2132
122.446 426 20.6398
122.563 400 20
122.679 414 20.347
122.795 425 20.6155
122.912 451 21.2368
123.028 477 21.8403
123.144 457 21.3776
123.26 424 20.5913
123.377 0 1
123.493 0 1
123.609 0 1
123.725 0 1
123.84 0 1
123.956 0 1
124.072 0 1
124.188 0 1
124.303 0 1
124.419 0 1
126.852 0 1
126.968 0 1
127.083 0 1
127.199 0 1
127.315 0 1
127.431 0 1
127.547 0 1
127.663 0 1
127.779 0 1
127.895 0 1
128.011 0 1
128.127 0 1
128.243 0 1
128.359 577 24.0208
128.476 551 23.4734
128.592 586 24.2074
128.708 557 23.6008
128.825 585 24.1868
128.941 583 24.1454
129.058 610 24.6982
129.174 573 23.9374
129.291 612 24.7386
129.408 611 24.7184
129.524 572 23.9165
129.641 573 23.9374
129.758 559 23.6432
129.875 582 24.1247
129.992 604 24.5764
130.108 564 23.7487
130.225 544 23.3238
130.342 482 21.9545
130.459 498 22.3159
130.576 420 20.4939
130.693 415 20.3715
130.81 416 20.3961
130.928 420 20.4939
131.045 478 21.8632
131.162 582 24.1247
131.279 625 25
131.396 592 24.3311
131.513 621 24.9199
131.631 586 24.2074
131.748 601 24.5153
131.865 626 25.02
131.983 662 25.7294
132.1 641 25.318
132.217 630 25.0998
132.335 620 24.8998
132.452 625 25
132.57 638 25.2587
132.687 639 25.2784
132.804 645 25.3969
132.922 635 25.1992
133.039 622 24.9399
133.157 626 25.02
133.274 647 25.4362
133.392 675 25.9808
133.509 582 24.1247
133.627 620 24.8998
133.744 595 24.3926
133.862 576 24
133.979 547 23.388
134.097 484 22
134.214 507 22.5167
134.332 439 20.9523
134.449 466 21.587
134.567 506 22.4944
134.684 550 23.4521
134.802 666 25.807
134.919 628 25.0599
135.037 650 25.4951
135.154 637 25.2389
135.272 695 26.3629
135.389 683 26.1343
135.507 684 26.1534
135.624 707 26.5895
135.742 712 26.6833
135.859 685 26.1725
135.977 685 26.1725
136.094 706 26.5707
136.211 704 26.533
136.329 721 26.8514
136.446 738 27.1662
136.564 740 27.2029
136.681 731 27.037
136.798 690 26.2679
136.915 713 26.7021
137.033 727 26.9629
137.15 672 25.923
137.267 678 26.0384
137.384 672 25.923
137.502 676 26
137.619 595 24.3926
137.736 562 23.7065
137.853 544 23.3238
137.97 514 22.6716
138.087 559 23.6432
138.204 578 24.0416
138.321 586 24.2074
138.438 660 25.6905
138.555 709 26.6271
138.672 782 27.9643
138.788 749 27.3679
138.905 771 27.7669
139.022 758 27.5318
139.139 788 28.0713
139.255 778 27.8927
139.372 784 28
139.488 799 28.2666
139.605 776 27.8568
139.721 807 28.4077
139.838 763 27.6225
139.954 773 27.8029
140.071 773 27.8029
140.187 754 27.4591
140.303 741 27.2213
140.419 762 27.6043
140.535 765 27.6586
140.652 773 27.8029
140.768 0 1
140.884 0 1
141 0 1
141.115 0 1
141.231 0 1
141.347 0 1
141.463 0 1
141.578 0 1
141.694 0 1
144.104 0 1
144.219 0 1
144.335 0 1
144.45 0 1
144.566 0 1
144.682 0 1
144.798 0 1
144.914 0 1
145.03 0 1
145.146 761 27.5862
145.262 714 26.7208
145.378 733 27.074
145.494 698 26.4197
145.61 745 27.2947
145.726 707 26.5895
145.842 655 25.593
145.959 671 25.9037
146.075 683 26.1343
146.192 638 25.2587
146.308 598 24.454
146.425 597 24.4336
146.541 585 24.1868
146.658 596 24.4131
146.774 560 23.6643
146.891 597 24.4336
147.008 672 25.923
147.125 677 26.0192
147.241 706 26.5707
147.358 718 26.7955
147.475 756 27.4955
147.592 738 27.1662
147.709 699 26.4386
147.826 732 27.0555
147.943 784 28
148.06 737 27.1477
148.177 725 26.9258
148.294 799 28.2666
148.411 765 27.6586
148.528 668 25.8457
148.645 666 25.807
148.762 711 26.6646
148.88 710 26.6458
148.997 670 25.8844
149.114 690 26.2679
149.231 683 26.1343
149.349 738 27.1662
149.466 655 25.593
149.583 675 25.9808
149.701 649 25.4755
149.818 638 25.2587
149.935 595 24.3926
150.053 648 25.4558
150.17 584 24.1661
150.287 577 24.0208
150.405 581 24.1039
150.522 633 25.1595
150.64 633 25.1595
150.757 641 25.318
150.875 669 25.865
150.992 698 26.4197
151.11 713 26.7021
151.227 738 27.1662
151.344 714 26.7208
151.462 725 26.9258
151.579 752 27.4226
151.697 768 27.7128
151.814 714 26.7208
151.932 742 27.2397
152.049 782 27.9643
152.167 742 27.2397
152.284 734 27.0924
152.402 736 27.1293
152.519 810 28.4605
152.636 783 27.9821
152.754 687 26.2107
152.871 742 27.2397
152.989 701 26.4764
153.106 702 26.4953
153.223 666 25.807
153.341 668 25.8457
153.458 657 25.632
153.575 616 24.8193
153.693 640 25.2982
153.81 604 24.5764
153.927 625 25
154.044 648 25.4558
154.162 704 26.533
154.279 734 27.0924
154.396 739 27.1846
154.513 698 26.4197
154.63 708 26.6083
154.747 709 26.6271
154.864 807 28.4077
154.981 799 28.2666
155.098 800 28.2843
155.215 773 27.8029
155.332 777 27.8747
155.449 746 27.313
155.566 807 28.4077
155.683 824 28.7054
155.8 872 29.5296
155.917 786 28.0357
156.033 793 28.1603
156.15 0 1
156.267 0 1
156.383 0 1
156.5 0 1
156.617 0 1
156.733 0 1
156.85 0 1
156.966 0 1
157.082 0 1
157.199 0 1
157.315 0 1
157.431 0 1
157.547 0 1
157.664 0 1
157.78 0 1
157.896 0 1
158.012 0 1
158.128 0 1
158.244 0 1
158.359 0 1
158.475 0 1
158.591 0 1
158.706 0 1
