
6.15755 0 1
6.2731 0 1
6.3887 0 1
6.50437 0 1
6.62009 0 1
6.73587 0 1
6.8517 0 1
6.96759 0 1
7.08353 0 1
7.19952 0 1
7.31557 0 1
7.43166 0 1
7.54781 0 1
7.664 0 1
7.78024 0 1
7.89653 0 1
8.01286 0 1
8.12924 0 1
8.24567 0 1
8.36213 0 1
8.47864 0 1
8.59519 0 1
8.71178 0 1
8.82841 0 1
8.94508 0 1
9.06179 0 1
9.17853 0 1
9.29531 0 1
9.41212 0 1
9.52897 0 1
9.64584 0 1
9.76276 0 1
9.8797 0 1
9.99667 0 1
10.1137 0 1
10.2307 0 1
10.3478 0 1
10.4648 0 1
10.5819 0 1
10.6991 0 1
10.8162 0 1
10.9334 0 1
11.0506 0 1
11.1678 0 1
11.285 0 1
11.4023 0 1
11.5196 0 1
11.6369 0 1
11.7542 0 1
11.8715 0 1
11.9888 0 1
12.1062 0 1
12.2235 0 1
12.3409 0 1
12.4582 0 1
12.5756 0 1
12.693 0 1
12.8104 0 1
12.9278 0 1
13.0452 0 1
13.1626 0 1
13.28 0 1
13.3974 0 1
13.5149 0 1
13.6323 0 1
13.7497 0 1
13.8671 0 1
13.9845 0 1
14.1019 0 1
14.2193 0 1
14.3367 0 1
14.4541 0 1
14.5714 0 1
14.6888 0 1
14.8062 0 1
14.9235 0 1
15.0408 0 0
15.1581 0 0
15.2755 0 0
15.3927 0 0
15.51 0 0
15.6273 0 0
15.7445 0 0
15.8617 0 0
15.9789 0 0
16.0961 0 0
16.2132 0 0
16.3304 0 0
16.4475 0 0
16.5646 0 0
16.6816 0 0
16.7986 0 0
16.9156 0 0
17.0326 0 0
17.1496 0 0
17.2665 0 0
17.3833 0 0
17.5002 0 0
17.617 0 0
17.7338 0 0
17.8505 0 0
17.9672 0 0
18.0839 0 0
18.2005 0 0
18.3171 0 0
18.4337 0 0
18.5502 0 0
18.6666 0 0
18.7831 0 0
18.8994 0 0
19.0158 0 0
19.1321 0 0
19.2483 0 0
19.3645 0 0
19.4806 0 0
19.5967 0 0
19.7128 0 0
19.8288 0 0
19.9447 0 0
20.0606 0 1
20.1764 0 1
20.2922 0 1
20.4079 0 1
20.5236 0 1
20.6392 0 1
20.7548 0 1
20.8702 0 1
23.3078 0 1
23.4233 0 1
23.539 0 1
23.6547 0 1
23.7704 0 1
23.8862 0 1
24.0021 0 1
24.118 0 1
24.234 0 1
24.35 0 1
24.4661 175444 418.86
24.5822 180551 424.913
24.6984 183243 428.069
24.8146 188546 434.219
24.9309 193099 439.43
25.0472 194401 440.909
25.1636 194165 440.642
25.28 193410 439.784
25.3965 191015 437.053
25.513 187416 432.916
25.6296 185395 430.575
25.7462 184090 429.057
25.8628 179260 423.391
25.9795 175893 419.396
26.0962 171749 414.426
26.213 168482 410.466
26.3298 162199 402.739
26.4466 160379 400.473
26.5635 156443 395.529
26.6804 152050 389.936
26.7973 148596 385.482
26.9143 143432 378.724
27.0313 136902 370.003
27.1483 131760 362.988
27.2653 127755 357.428
27.3824 124892 353.401
27.4996 121172 348.098
27.6167 114882 338.942
27.7339 109644 331.125
27.8511 103995 322.483
27.9683 101367 318.382
28.0855 100362 316.8
28.2028 100481 316.987
28.3201 105063 324.134
28.4374 107193 327.403
28.5547 110739 332.775
28.6721 112161 334.904
28.7894 114252 338.012
28.9068 113719 337.222
29.0242 114007 337.649
29.1416 112829 335.9
29.259 112887 335.987
29.3764 112434 335.312
29.4939 111868 334.467
29.6113 111527 333.957
29.7288 111216 333.491
29.8463 110846 332.935
29.9638 110667 332.666
30.0812 110945 333.084
30.1987 109636 331.113
30.3162 109020 330.182
30.4337 108165 328.884
30.5512 106833 326.853
30.6687 104102 322.648
30.7862 100738 317.393
30.9037 101097 317.958
31.0212 100279 316.669
31.1387 98065 313.153
31.2562 94591 307.556
31.3737 91997 303.31
31.4912 90057 300.095
31.6087 89211 298.682
31.7262 91027 301.707
31.8436 94634 307.626
31.9611 98505 313.855
32.0785 102292 319.831
32.1959 104185 322.777
32.3134 105875 325.384
32.4308 106133 325.781
32.5482 106052 325.656
32.6655 106319 326.066
32.7829 105291 324.486
32.9002 106626 326.536
33.0176 106081 325.701
33.1349 105639 325.022
33.2522 103849 322.256
33.3694 106795 326.795
33.4867 105493 324.797
33.6039 105648 325.035
33.7211 104596 323.413
33.8383 104743 323.64
33.9554 104712 323.592
34.0725 103801 322.182
34.1896 102971 320.891
34.3067 101611 318.765
34.4237 98343 313.597
34.5407 96161 310.098
34.6577 94354 307.171
34.7746 92120 303.513
34.8915 89297 298.826
35.0084 86535 294.168
35.1252 83429 288.841
35.242 84346 290.424
35.3587 84887 291.354
35.4755 88817 298.022
35.5921 93408 305.627
35.7088 96711 310.984
35.8254 100707 317.344
35.9419 102635 320.367
36.0584 101931 319.266
36.1749 101501 318.592
36.2913 102125 319.57
36.4077 101491 318.577
36.524 100810 317.506
36.6403 100475 316.978
36.7565 100966 317.751
36.8727 100958 317.739
36.9889 100477 316.981
37.1049 99766 315.858
37.221 0 1
37.3369 0 1
37.4529 0 1
37.5687 0 1
37.6845 0 1
37.8003 0 1
37.916 0 1
38.0316 0 1
38.1472 0 1
40.5851 0 1
40.7008 0 1
40.8164 0 1
40.9322 0 1
41.048 0 1
41.1639 0 1
41.2798 0 1
41.3958 0 1
41.5118 0 1
41.6279 0 1
41.744 80935 284.491
41.8602 83483 288.934
41.9765 83538 289.029
42.0928 84085 289.974
42.2091 83711 289.329
42.3255 83965 289.767
42.4419 82606 287.413
42.5584 83027 288.144
42.675 82270 286.827
42.7915 81563 285.592
42.9081 81077 284.74
43.0248 80012 282.864
43.1415 78018 279.317
43.2582 75750 275.227
43.375 74224 272.441
43.4918 74094 272.202
43.6087 71247 266.921
43.7256 67693 260.179
43.8425 64525 254.018
43.9595 63032 251.062
44.0765 63887 252.759
44.1935 66989 258.822
44.3106 69211 263.08
44.4277 70603 265.712
44.5448 71325 267.067
44.6619 70043 264.656
44.7791 69485 263.6
44.8963 69091 262.852
45.0136 67375 259.567
45.1308 66628 258.124
45.2481 65747 256.412
45.3654 65137 255.22
45.4827 64827 254.611
45.6001 62889 250.777
45.7174 62942 250.882
45.8348 62443 249.886
45.9522 61825 248.646
46.0697 60866 246.71
46.1871 59887 244.718
46.3046 59239 243.391
46.422 58748 242.38
46.5395 58143 241.129
46.657 57492 239.775
46.7745 55595 235.786
46.892 53613 231.545
47.0096 52168 228.403
47.1271 51500 226.936
47.2446 50443 224.595
47.3622 47260 217.394
47.4797 45012 212.16
47.5973 45064 212.283
47.7149 46618 215.912
47.8324 48143 219.415
47.95 49031 221.429
48.0675 49707 222.951
48.1851 48339 219.861
48.3027 48644 220.554
48.4202 48305 219.784
48.5378 47815 218.666
48.6554 47149 217.138
48.7729 46452 215.527
48.8904 46968 216.721
49.008 46910 216.587
49.1255 46884 216.527
49.243 46741 216.197
49.3605 47118 217.067
49.478 46881 216.52
49.5955 47244 217.357
49.713 47330 217.555
49.8304 48242 219.641
49.9479 48320 219.818
50.0653 49352 222.153
50.1827 49182 221.77
50.3001 48866 221.057
50.4175 47354 217.61
50.5348 46512 215.666
50.6521 45425 213.131
50.7694 46086 214.677
50.8867 45774 213.949
51.004 46606 215.884
51.1212 49804 223.168
51.2384 54307 233.039
51.3556 57559 239.915
51.4727 59191 243.292
51.5899 60707 246.388
51.707 61514 248.02
51.824 63331 251.657
51.9411 63897 252.779
52.0581 65375 255.685
52.175 66546 257.965
52.2919 66839 258.532
52.4088 68261 261.268
52.5257 69188 263.036
52.6425 70025 264.622
52.7593 70455 265.434
52.876 71789 267.935
52.9927 72183 268.669
53.1094 73196 270.548
53.226 73976 271.985
53.3426 74600 273.13
53.4591 75064 273.978
53.5756 75496 274.765
53.692 76370 276.351
53.8084 76633 276.827
53.9248 75830 275.372
54.0411 73632 271.352
54.1573 70976 266.413
54.2735 0 1
54.3896 0 1
54.5057 0 1
54.6217 0 1
54.7377 0 1
54.8537 0 1
54.9695 0 1
55.0853 0 1
55.2011 0 1
55.3168 0 1
55.4324 0 1
57.824 0 1
57.9396 0 1
58.0553 0 1
58.1711 0 1
58.2869 0 1
58.4028 0 1
58.5187 0 1
58.6347 0 1
58.7508 0 1
58.8669 0 1
58.983 84239 290.24
59.0992 83350 288.704
59.2155 79942 282.74
59.3318 74802 273.5
59.4482 72960 270.111
59.5646 73154 270.47
59.681 75937 275.567
59.7975 79524 282
59.9141 81474 285.437
60.0306 82587 287.38
60.1473 82824 287.792
60.2639 82039 286.425
60.3807 81416 285.335
60.4974 80499 283.723
60.6142 79850 282.577
60.731 79992 282.829
60.8479 78800 280.713
60.9648 78478 280.139
61.0818 78613 280.38
61.1987 77412 278.23
61.3158 77798 278.923
61.4328 76720 276.984
61.5499 76176 276
61.667 76523 276.628
61.7841 75925 275.545
61.9013 75223 274.268
62.0185 74752 273.408
62.1357 74699 273.311
62.253 73804 271.669
62.3702 73554 271.208
62.4875 72957 270.106
62.6049 70477 265.475
62.7222 68506 261.737
62.8396 64500 253.969
62.9569 63312 251.619
63.0743 64478 253.925
63.1918 66637 258.141
63.3092 69500 263.629
63.4267 70293 265.128
63.5441 70570 265.65
63.6616 70053 264.675
63.7791 69543 263.71
63.8966 69016 262.709
64.0142 68602 261.92
64.1317 67704 260.2
64.2492 67563 259.929
64.3668 66830 258.515
64.4843 66765 258.389
64.6019 65832 256.577
64.7195 65900 256.71
64.837 65571 256.068
64.9546 64826 254.61
65.0722 64281 253.537
65.1898 64327 253.628
65.3074 65319 255.576
65.4249 64096 253.172
65.5425 63804 252.595
65.6601 62969 250.936
65.7777 63176 251.348
65.8952 63315 251.625
66.0128 62921 250.841
66.1304 62453 249.906
66.2479 60275 245.51
66.3655 56495 237.687
66.483 53538 231.383
66.6005 54119 232.635
66.718 57167 239.096
66.8355 60262 245.483
66.953 61449 247.889
67.0705 61772 248.54
67.1879 61358 247.705
67.3054 61035 247.053
67.4228 60913 246.806
67.5402 60344 245.65
67.6576 59737 244.412
67.7749 60031 245.012
67.8923 59017 242.934
68.0096 59199 243.308
68.1269 59159 243.226
68.2442 58856 242.603
68.3614 58730 242.343
68.4787 58993 242.885
68.5958 57887 240.597
68.713 58677 242.233
68.8302 58049 240.934
68.9473 58480 241.826
69.0643 58272 241.396
69.1814 57974 240.778
69.2984 58032 240.898
69.4154 57627 240.056
69.5323 57718 240.246
69.6492 57015 238.778
69.7661 56785 238.296
69.8829 57229 239.226
69.9997 54514 233.482
70.1165 49933 223.457
70.2332 48713 220.71
70.3499 51837 227.677
70.4665 54189 232.785
70.5831 54856 234.214
70.6996 54642 233.756
70.8161 53994 232.366
70.9326 53352 230.981
71.049 52369 228.843
71.1653 51623 227.207
71.2817 50281 224.234
71.3979 49434 222.338
71.5141 47832 218.705
71.6303 46525 215.697
71.7464 42773 206.816
71.8624 0 1
71.9784 0 1
72.0944 0 1
72.2102 0 1
72.3261 0 1
72.4418 0 1
72.5575 0 1
72.6732 0 1
75.1054 0 1
75.2209 0 1
75.3365 0 1
75.4521 0 1
75.5678 0 1
75.6835 0 1
75.7993 0 1
75.9151 0 1
76.031 0 1
76.147 26172 161.778
76.263 27189 164.891
76.3791 26310 162.204
76.4952 25470 159.593
76.6113 24386 156.16
76.7276 23204 152.329
76.8438 22567 150.223
76.9601 21620 147.037
77.0765 21131 145.365
77.1929 20563 143.398
77.3093 20303 142.489
77.4258 20357 142.678
77.5423 20176 142.042
77.6589 20164 142
77.7755 20361 142.692
77.8921 20354 142.667
78.0088 20286 142.429
78.1256 20745 144.031
78.2423 21020 144.983
78.3591 21743 147.455
78.4759 22444 149.813
78.5928 23602 153.629
78.7097 24558 156.71
78.8266 25758 160.493
78.9436 26469 162.693
79.0606 23417 153.026
79.1776 18835 137.241
79.2946 24658 157.029
79.4117 29940 173.032
79.5288 30971 175.986
79.6459 30442 174.476
79.7631 30529 174.725
79.8802 32716 180.876
79.9974 33599 183.3
80.1147 33891 184.095
80.2319 34283 185.157
80.3491 34683 186.234
80.4664 35357 188.035
80.5837 35358 188.037
80.701 35249 187.747
80.8183 35585 188.64
80.9357 36246 190.384
81.053 36546 191.17
81.1704 36863 191.997
81.2877 37374 193.324
81.4051 37348 193.256
81.5225 37521 193.703
81.6399 36310 190.552
81.7573 37425 193.455
81.8747 36895 192.081
81.9922 37795 194.409
82.1096 37990 194.91
82.227 38507 196.232
82.3444 38792 196.957
82.4619 39350 198.368
82.5793 39163 197.896
82.6967 34696 186.269
82.8142 29872 172.835
82.9316 31773 178.25
83.049 38191 195.425
83.1664 39465 198.658
83.2838 38620 196.52
83.4012 36987 192.32
83.5186 37511 193.678
83.636 39305 198.255
83.7534 40561 201.398
83.8708 40796 201.98
83.9881 40816 202.03
84.1055 41318 203.268
84.2228 41561 203.865
84.3401 41985 204.902
84.4575 42821 206.932
84.5747 43558 208.706
84.692 44011 209.788
84.8093 45112 212.396
84.9265 45206 212.617
85.0437 45908 214.262
85.1609 46313 215.205
85.2781 46784 216.296
85.3952 47616 218.211
85.5123 47610 218.197
85.6294 48286 219.741
85.7465 48886 221.102
85.8636 49793 223.143
85.9806 50116 223.866
86.0976 49619 222.753
86.2145 44668 211.348
86.3315 38493 196.196
86.4484 40923 202.294
86.5652 48856 221.034
86.682 53687 231.705
86.7988 54972 234.461
86.9156 54786 234.064
87.0323 54987 234.493
87.149 54868 234.239
87.2657 56414 237.516
87.3823 56787 238.3
87.4988 57363 239.506
87.6154 57156 239.073
87.7318 57793 240.402
87.8483 58141 241.124
87.9647 58386 241.632
88.081 59661 244.256
88.1973 59657 244.248
88.3136 60638 246.248
88.4298 60137 245.228
88.546 59887 244.718
88.6621 60162 245.279
88.7781 59699 244.334
88.8942 0 1
89.0101 0 1
89.126 0 1
89.2419 0 1
89.3577 0 1
89.4734 0 1
89.5891 0 1
89.7047 0 1
89.8203 0 1
89.9358 0 1
92.3269 0 1
92.4424 0 1
92.558 0 1
92.6736 0 1
92.7893 0 1
92.905 0 1
93.0208 0 1
93.1366 0 1
93.2525 0 1
93.3685 0 1
93.4845 0 1
93.6005 47386 217.683
93.7167 47614 218.206
93.8328 46638 215.958
93.949 46006 214.49
94.0653 45183 212.563
94.1816 44922 211.948
94.2979 43805 209.296
94.4143 43127 207.67
94.5307 42819 206.928
94.6472 41799 204.448
94.7637 41345 203.335
94.8803 40516 201.286
94.9969 40865 202.151
95.1135 40041 200.102
95.2302 39838 199.595
95.3469 38265 195.614
95.4637 36069 189.918
95.5805 31600 177.764
95.6973 30408 174.379
95.8142 32820 181.163
95.9311 34976 187.019
96.048 35387 188.114
96.1649 34907 186.834
96.2819 33898 184.114
96.3989 32658 180.715
96.516 32664 180.732
96.633 31321 176.977
96.7501 30824 175.568
96.8673 30375 174.284
96.9844 29414 171.505
97.1016 28934 170.1
97.2188 28912 170.035
97.336 28217 167.979
97.4532 28159 167.806
97.5704 27314 165.269
97.6877 26996 164.305
97.805 25976 161.171
97.9223 25390 159.342
98.0396 25105 158.446
98.1569 24546 156.672
98.2743 24086 155.197
98.3916 23951 154.761
98.509 23654 153.799
98.6264 22712 150.705
98.7438 22478 149.927
98.8612 22572 150.24
98.9786 23190 152.283
99.096 23031 151.76
99.2134 22403 149.676
99.3308 21282 145.884
99.4482 21566 146.854
99.5656 21616 147.024
99.6831 21644 147.119
99.8005 20674 143.785
99.9179 20399 142.825
100.035 20376 142.745
100.153 20095 141.757
100.27 19806 140.734
100.388 19709 140.389
100.505 19781 140.645
100.622 19677 140.275
100.74 19876 140.982
100.857 19813 140.759
100.975 19978 141.344
101.092 20215 142.179
101.209 20110 141.81
101.327 20064 141.647
101.444 19750 140.535
101.561 19901 141.071
101.679 19892 141.039
101.796 20028 141.52
101.913 19791 140.68
102.03 19531 139.753
102.148 18430 135.757
102.265 17253 131.351
102.382 14298 119.574
102.499 17627 132.767
102.616 20879 144.496
102.733 22281 149.268
102.851 22268 149.225
102.968 21959 148.186
103.085 21954 148.169
103.202 21850 147.817
103.319 22207 149.02
103.436 21824 147.729
103.552 21916 148.041
103.669 21813 147.692
103.786 21803 147.658
103.903 22312 149.372
104.02 22761 150.867
104.137 22886 151.281
104.253 23790 154.24
104.37 22757 150.854
104.487 24192 155.538
104.603 24758 157.347
104.72 24870 157.702
104.836 25249 158.899
104.953 25370 159.28
105.069 25548 159.837
105.186 26085 161.509
105.302 26651 163.251
105.418 26249 162.015
105.535 24911 157.832
105.651 21768 147.54
105.767 17612 132.71
105.883 16337 127.816
105.999 21151 145.434
106.115 0 1
106.231 0 1
106.347 0 1
106.463 0 1
106.579 0 1
106.694 0 1
106.81 0 1
106.926 0 1
107.041 0 1
107.157 0 1
109.576 0 1
109.692 0 1
109.807 0 1
109.923 0 1
110.039 0 1
110.155 0 1
110.27 0 1
110.386 0 1
110.502 0 1
110.618 31519 177.536
110.735 28667 169.313
110.851 24715 157.21
110.967 22756 150.851
111.083 25123 158.502
111.199 32890 181.356
111.316 39098 197.732
111.432 41180 202.929
111.549 41519 203.762
111.665 41830 204.524
111.782 41651 204.086
111.898 41598 203.956
112.015 41541 203.816
112.132 41507 203.733
112.248 41478 203.661
112.365 41351 203.349
112.482 42292 205.65
112.599 41407 203.487
112.716 42458 206.053
112.832 43015 207.401
112.949 43164 207.759
113.066 43595 208.794
113.183 44076 209.943
113.3 44174 210.176
113.417 44279 210.426
113.534 44640 211.282
113.652 45029 212.2
113.769 45145 212.474
113.886 45682 213.733
114.003 43475 208.507
114.12 41290 203.199
114.238 37765 194.332
114.355 33418 182.806
114.472 31631 177.851
114.589 28301 168.229
114.707 34171 184.854
114.824 43413 208.358
114.942 48433 220.075
115.059 50249 224.163
115.176 50878 225.562
115.294 51459 226.846
115.411 51415 226.749
115.529 51068 225.982
115.646 51468 226.866
115.764 51265 226.418
115.881 51203 226.281
115.999 51725 227.431
116.116 51630 227.222
116.234 52204 228.482
116.351 52895 229.989
116.469 53185 230.619
116.586 53651 231.627
116.704 53917 232.2
116.821 54327 233.082
116.939 53939 232.248
117.056 54584 233.632
117.174 55256 235.066
117.291 55278 235.113
117.409 55137 234.813
117.526 54211 232.833
117.644 52040 228.123
117.761 48742 220.776
117.879 45266 212.758
117.996 41914 204.729
118.114 39988 199.97
118.231 40506 201.261
118.349 43611 208.832
118.466 50812 225.415
118.584 56636 237.983
118.701 59381 243.682
118.819 60010 244.969
118.936 60380 245.723
119.053 60830 246.637
119.171 60721 246.416
119.288 60084 245.12
119.405 60408 245.78
119.523 59925 244.796
119.64 59761 244.461
119.757 60251 245.461
119.875 60489 245.945
119.992 60660 246.293
120.109 61108 247.2
120.226 61450 247.891
120.343 61273 247.534
120.46 61593 248.179
120.578 61851 248.699
120.695 62325 249.65
120.812 62960 250.918
120.929 62769 250.537
121.046 62597 250.194
121.163 61604 248.202
121.279 59501 243.928
121.396 56552 237.807
121.513 52984 230.183
121.63 49269 221.966
121.747 47502 217.95
121.863 46557 215.771
121.98 47446 217.821
122.097 50652 225.06
122.213 56284 237.242
122.33 62668 250.336
122.446 65533 255.994
122.563 65658 256.238
122.679 66206 257.305
122.795 66455 257.789
122.912 66331 257.548
123.028 66052 257.006
123.144 65268 255.476
123.26 65228 255.398
123.377 0 1
123.493 0 1
123.609 0 1
123.725 0 1
123.84 0 1
123.956 0 1
124.072 0 1
124.188 0 1
124.303 0 1
124.419 0 1
126.852 0 1
126.968 0 1
127.083 0 1
127.199 0 1
127.315 0 1
127.431 0 1
127.547 0 1
127.663 0 1
127.779 0 1
127.895 0 1
128.011 0 1
128.127 0 1
128.243 0 1
128.359 78698 280.532
128.476 79220 281.46
128.592 79539 282.027
128.708 79769 282.434
128.825 80955 284.526
128.941 81327 285.179
129.058 80733 284.136
129.174 82085 286.505
129.291 81945 286.26
129.408 82164 286.643
129.524 82580 287.367
129.641 82912 287.944
129.758 81921 286.218
129.875 81874 286.136
129.992 79792 282.475
130.108 78134 279.525
130.225 74804 273.503
130.342 70716 265.925
130.459 66551 257.975
130.576 66171 257.237
130.693 64214 253.405
130.81 64858 254.672
130.928 66330 257.546
131.045 70074 264.715
131.162 75141 274.119
131.279 81185 284.93
131.396 85351 292.149
131.513 86186 293.575
131.631 86842 294.69
131.748 87559 295.904
131.865 86493 294.097
131.983 87129 295.176
132.1 87323 295.505
132.217 86353 293.859
132.335 86680 294.415
132.452 87024 294.998
132.57 87721 296.177
132.687 84626 290.905
132.804 90392 300.653
132.922 87524 295.845
133.039 87463 295.741
133.157 88074 296.773
133.274 87775 296.268
133.392 87064 295.066
133.509 85556 292.5
133.627 83517 288.993
133.744 80457 283.649
133.862 76735 277.011
133.979 73437 270.993
134.097 71428 267.26
134.214 70319 265.177
134.332 69265 263.182
134.449 71447 267.296
134.567 74153 272.31
134.684 77976 279.242
134.802 82376 287.012
134.919 87497 295.799
135.037 89930 299.883
135.154 90736 301.224
135.272 90865 301.438
135.389 91598 302.652
135.507 90863 301.435
135.624 91471 302.442
135.742 90752 301.251
135.859 91243 302.065
135.977 90609 301.013
136.094 91143 301.899
136.211 91031 301.713
136.329 91620 302.688
136.446 91011 301.68
136.564 92149 303.561
136.681 91571 302.607
136.798 92303 303.814
136.915 91370 302.275
137.033 90646 301.075
137.15 88425 297.363
137.267 85903 293.092
137.384 82996 288.09
137.502 79422 281.819
137.619 76980 277.453
137.736 74417 272.795
137.853 73082 270.337
137.97 75449 274.68
138.087 74424 272.808
138.204 78299 279.82
138.321 81987 286.334
138.438 85939 293.154
138.555 91405 302.333
138.672 93313 305.472
138.788 95716 309.38
138.905 96608 310.818
139.022 96630 310.854
139.139 96846 311.201
139.255 96364 310.426
139.372 97583 312.383
139.488 96979 311.415
139.605 97548 312.327
139.721 96540 310.709
139.838 96612 310.825
139.954 97069 311.559
140.071 95587 309.171
140.187 96568 310.754
140.303 96000 309.839
140.419 95478 308.995
140.535 95001 308.222
140.652 93394 305.604
140.768 0 1
140.884 0 1
141 0 1
141.115 0 1
141.231 0 1
141.347 0 1
141.463 0 1
141.578 0 1
141.694 0 1
144.104 0 1
144.219 0 1
144.335 0 1
144.45 0 1
144.566 0 1
144.682 0 1
144.798 0 1
144.914 0 1
145.03 0 1
145.146 85163 291.827
145.262 86716 294.476
145.378 86620 294.313
145.494 86656 294.374
145.61 85018 291.578
145.726 83889 289.636
145.842 81392 285.293
145.959 79238 281.492
146.075 76009 275.697
146.192 74216 272.426
146.308 71757 267.875
146.425 70667 265.833
146.541 70823 266.126
146.658 71779 267.916
146.774 72659 269.553
146.891 75841 275.392
147.008 78162 279.575
147.125 83207 288.456
147.241 84140 290.069
147.358 84536 290.751
147.475 85615 292.6
147.592 87513 295.826
147.709 88494 297.479
147.826 88670 297.775
147.943 88930 298.211
148.06 87568 295.919
148.177 88404 297.328
148.294 86988 294.937
148.411 87350 295.55
148.528 87953 296.569
148.645 86556 294.204
148.762 86884 294.761
148.88 86735 294.508
148.997 84798 291.201
149.114 88373 297.276
149.231 85830 292.968
149.349 84503 290.694
149.466 80720 284.113
149.583 79681 282.278
149.701 76149 275.951
149.818 74272 272.529
149.935 71992 268.313
150.053 71171 266.779
150.17 70576 265.661
150.287 71320 267.058
150.405 73176 270.511
150.522 74327 272.63
150.64 77740 278.819
150.757 81352 285.223
150.875 82738 287.642
150.992 81889 286.163
151.11 83189 288.425
151.227 85140 291.788
151.344 86085 293.402
151.462 85739 292.812
151.579 87436 295.696
151.697 87440 295.703
151.814 86789 294.6
151.932 87193 295.285
152.049 87205 295.305
152.167 86539 294.175
152.284 87230 295.347
152.402 86730 294.5
152.519 85999 293.256
152.636 86091 293.413
152.754 85500 292.404
152.871 84133 290.057
152.989 83518 288.995
153.106 81152 284.872
153.223 77823 278.968
153.341 75828 275.369
153.458 73456 271.028
153.575 71703 267.774
153.693 70879 266.231
153.81 71318 267.054
153.927 71828 268.007
154.044 73855 271.763
154.162 75964 275.616
154.279 79378 281.741
154.396 82871 287.873
154.513 84796 291.198
154.63 84578 290.823
154.747 84784 291.177
154.864 85968 293.203
154.981 86679 294.413
155.098 87928 296.527
155.215 87393 295.623
155.332 87559 295.904
155.449 87140 295.195
155.566 87180 295.263
155.683 87933 296.535
155.8 87875 296.437
155.917 87641 296.042
156.033 87651 296.059
156.15 0 1
156.267 0 1
156.383 0 1
156.5 0 1
156.617 0 1
156.733 0 1
156.85 0 1
156.966 0 1
157.082 0 1
157.199 0 1
157.315 0 1
157.431 0 1
157.547 0 1
157.664 0 1
157.78 0 1
157.896 0 1
158.012 0 1
158.128 0 1
158.244 0 1
158.359 0 1
158.475 0 1
158.591 0 1
158.706 0 1
