
6.15755 0 1
6.2731 0 1
6.3887 0 1
6.50437 0 1
6.62009 0 1
6.73587 0 1
6.8517 0 1
6.96759 0 1
7.08353 0 1
7.19952 0 1
7.31557 0 1
7.43166 0 1
7.54781 0 1
7.664 0 1
7.78024 0 1
7.89653 0 1
8.01286 0 1
8.12924 0 1
8.24567 0 1
8.36213 0 1
8.47864 0 1
8.59519 0 1
8.71178 0 1
8.82841 0 1
8.94508 0 1
9.06179 0 1
9.17853 0 1
9.29531 0 1
9.41212 0 1
9.52897 0 1
9.64584 0 1
9.76276 0 1
9.8797 0 1
9.99667 0 1
10.1137 0 1
10.2307 0 1
10.3478 0 1
10.4648 0 1
10.5819 0 1
10.6991 0 1
10.8162 0 1
10.9334 0 1
11.0506 0 1
11.1678 0 1
11.285 0 1
11.4023 0 1
11.5196 0 1
11.6369 0 1
11.7542 0 1
11.8715 0 1
11.9888 0 1
12.1062 0 1
12.2235 0 1
12.3409 0 1
12.4582 0 1
12.5756 0 1
12.693 0 1
12.8104 0 1
12.9278 0 1
13.0452 0 1
13.1626 0 1
13.28 0 1
13.3974 0 1
13.5149 0 1
13.6323 0 1
13.7497 0 1
13.8671 0 1
13.9845 0 1
14.1019 0 1
14.2193 0 1
14.3367 0 1
14.4541 0 1
14.5714 0 1
14.6888 0 1
14.8062 0 1
14.9235 0 1
15.0408 3378 58.1206
15.1581 3649 60.407
15.2755 3524 59.3633
15.3927 3663 60.5227
15.51 3633 60.2744
15.6273 3704 60.8605
15.7445 3674 60.6135
15.8617 3730 61.0737
15.9789 3676 60.63
16.0961 3664 60.531
16.2132 3686 60.7124
16.3304 3613 60.1082
16.4475 3750 61.2372
16.5646 3821 61.8142
16.6816 3859 62.1208
16.7986 3816 61.7738
16.9156 3893 62.3939
17.0326 3849 62.0403
17.1496 4048 63.6239
17.2665 4038 63.5453
17.3833 3967 62.9841
17.5002 3910 62.53
17.617 4030 63.4823
17.7338 3892 62.3859
17.8505 3766 61.3677
17.9672 3710 60.9098
18.0839 3445 58.6941
18.2005 3447 58.7112
18.3171 3458 58.8048
18.4337 3876 62.2575
18.5502 4080 63.8749
18.6666 4339 65.8711
18.7831 4417 66.4605
18.8994 4336 65.8483
19.0158 4328 65.7875
19.1321 4555 67.4907
19.2483 4320 65.7267
19.3645 4515 67.1937
19.4806 4415 66.4455
19.5967 4384 66.2118
19.7128 4423 66.5056
19.8288 4193 64.7534
19.9447 3970 63.0079
20.0606 0 1
20.1764 0 1
20.2922 0 1
20.4079 0 1
20.5236 0 1
20.6392 0 1
20.7548 0 1
20.8702 0 1
23.3078 0 1
23.4233 0 1
23.539 0 1
23.6547 0 1
23.7704 0 1
23.8862 0 1
24.0021 0 1
24.118 0 1
24.234 0 1
24.35 0 1
24.4661 4788 69.1954
24.5822 4859 69.7065
24.6984 4842 69.5845
24.8146 4795 69.2459
24.9309 4876 69.8284
25.0472 4785 69.1737
25.1636 4573 67.624
25.28 4492 67.0224
25.3965 4821 69.4334
25.513 4624 68
25.6296 4708 68.6149
25.7462 4958 70.4131
25.8628 5045 71.0282
25.9795 5072 71.218
26.0962 5088 71.3302
26.213 5183 71.9931
26.3298 5244 72.4155
26.4466 5042 71.007
26.5635 5128 71.6101
26.6804 4644 68.1469
26.7973 4592 67.7643
26.9143 4402 66.3476
27.0313 4369 66.0984
27.1483 4392 66.2722
27.2653 4697 68.5347
27.3824 4779 69.1303
27.4996 4864 69.7424
27.6167 5026 70.8943
27.7339 5081 71.2811
27.8511 4862 69.728
27.9683 5076 71.2461
28.0855 5034 70.9507
28.2028 4906 70.0428
28.3201 4910 70.0714
28.4374 4995 70.6753
28.5547 4782 69.152
28.6721 4653 68.2129
28.7894 4667 68.3154
28.9068 4763 69.0145
29.0242 4657 68.2422
29.1416 4854 69.6707
29.259 4978 70.5549
29.3764 4957 70.406
29.4939 4987 70.6187
29.6113 5213 72.2011
29.7288 5076 71.2461
29.8463 5005 70.746
29.9638 5039 70.9859
30.0812 5013 70.8025
30.1987 4844 69.5989
30.3162 4629 68.0368
30.4337 4391 66.2646
30.5512 4376 66.1513
30.6687 4409 66.4003
30.7862 4520 67.2309
30.9037 4646 68.1616
31.0212 4875 69.8212
31.1387 4938 70.2709
31.2562 5066 71.1758
31.3737 5066 71.1758
31.4912 5012 70.7955
31.6087 5054 71.0915
31.7262 5101 71.4213
31.8436 5071 71.211
31.9611 4950 70.3562
32.0785 4823 69.4478
32.1959 4770 69.0652
32.3134 4679 68.4032
32.4308 4858 69.6994
32.5482 4851 69.6491
32.6655 4913 70.0928
32.7829 5003 70.7319
32.9002 5016 70.8237
33.0176 4980 70.5691
33.1349 5010 70.7814
33.2522 5222 72.2634
33.3694 5023 70.8731
33.4867 4984 70.5975
33.6039 5037 70.9718
33.7211 5061 71.1407
33.8383 4995 70.6753
33.9554 4839 69.5629
34.0725 4524 67.2607
34.1896 4404 66.3626
34.3067 4315 65.6887
34.4237 4328 65.7875
34.5407 4464 66.8132
34.6577 4623 67.9926
34.7746 4700 68.5565
34.8915 4740 68.8477
35.0084 4809 69.347
35.1252 4935 70.2496
35.242 4889 69.9214
35.3587 5036 70.9648
35.4755 4815 69.3902
35.5921 4943 70.3065
35.7088 4707 68.6076
35.8254 4748 68.9057
35.9419 4615 67.9338
36.0584 4646 68.1616
36.1749 4627 68.0221
36.2913 4677 68.3886
36.4077 4624 68
36.524 4888 69.9142
36.6403 4853 69.6635
36.7565 4970 70.4982
36.8727 4906 70.0428
36.9889 4901 70.0071
37.1049 4904 70.0286
37.221 0 1
37.3369 0 1
37.4529 0 1
37.5687 0 1
37.6845 0 1
37.8003 0 1
37.916 0 1
38.0316 0 1
38.1472 0 1
40.5851 0 1
40.7008 0 1
40.8164 0 1
40.9322 0 1
41.048 0 1
41.1639 0 1
41.2798 0 1
41.3958 0 1
41.5118 0 1
41.6279 0 1
41.744 3984 63.1189
41.8602 4095 63.9922
41.9765 4208 64.8691
42.0928 4314 65.681
42.2091 4443 66.6558
42.3255 4357 66.0076
42.4419 4227 65.0154
42.5584 4318 65.7115
42.675 4129 64.2573
42.7915 4152 64.436
42.9081 3993 63.1902
43.0248 3915 62.57
43.1415 3830 61.887
43.2582 3901 62.458
43.375 3921 62.6179
43.4918 3980 63.0872
43.6087 3944 62.8013
43.7256 3965 62.9682
43.8425 3913 62.554
43.9595 3793 61.5873
44.0765 3875 62.2495
44.1935 3891 62.3779
44.3106 3850 62.0484
44.4277 3842 61.9839
44.5448 3725 61.0328
44.6619 3681 60.6712
44.7791 3504 59.1946
44.8963 3430 58.5662
45.0136 3513 59.2706
45.1308 3447 58.7112
45.2481 3510 59.2453
45.3654 3491 59.0847
45.4827 3515 59.2874
45.6001 3634 60.2827
45.7174 3451 58.7452
45.8348 3536 59.4643
45.9522 3494 59.1101
46.0697 3359 57.9569
46.1871 3418 58.4637
46.3046 3369 58.0431
46.422 3191 56.4889
46.5395 3189 56.4712
46.657 3060 55.3173
46.7745 2989 54.6717
46.892 3003 54.7996
47.0096 2996 54.7357
47.1271 3130 55.9464
47.2446 3189 56.4712
47.3622 3014 54.8999
47.4797 2951 54.3231
47.5973 3006 54.827
47.7149 2911 53.9537
47.8324 2976 54.5527
47.95 2984 54.626
48.0675 2839 53.2823
48.1851 2828 53.1789
48.3027 2703 51.9904
48.4202 2667 51.643
48.5378 2728 52.2303
48.6554 2808 52.9906
48.7729 2955 54.3599
48.8904 2942 54.2402
49.008 2919 54.0278
49.1255 2981 54.5985
49.243 2975 54.5436
49.3605 2991 54.69
49.478 2996 54.7357
49.5955 3057 55.2901
49.713 2989 54.6717
49.8304 2952 54.3323
49.9479 2925 54.0833
50.0653 2835 53.2447
50.1827 2796 52.8772
50.3001 2725 52.2015
50.4175 2866 53.535
50.5348 2927 54.1018
50.6521 2917 54.0093
50.7694 3021 54.9636
50.8867 3062 55.3353
51.004 3038 55.1181
51.1212 3199 56.5597
51.2384 3304 57.4804
51.3556 3289 57.3498
51.4727 3322 57.6368
51.5899 3374 58.0861
51.707 3324 57.6541
51.824 3357 57.9396
51.9411 3489 59.0678
52.0581 3479 58.983
52.175 3565 59.7076
52.2919 3850 62.0484
52.4088 3873 62.2334
52.5257 3896 62.4179
52.6425 4005 63.2851
52.7593 3996 63.2139
52.876 4012 63.3404
52.9927 4038 63.5453
53.1094 3982 63.1031
53.226 4065 63.7574
53.3426 4137 64.3195
53.4591 4035 63.5216
53.5756 4000 63.2456
53.692 3893 62.3939
53.8084 3939 62.7615
53.9248 3858 62.1128
54.0411 3883 62.3137
54.1573 3982 63.1031
54.2735 0 1
54.3896 0 1
54.5057 0 1
54.6217 0 1
54.7377 0 1
54.8537 0 1
54.9695 0 1
55.0853 0 1
55.2011 0 1
55.3168 0 1
55.4324 0 1
57.824 0 1
57.9396 0 1
58.0553 0 1
58.1711 0 1
58.2869 0 1
58.4028 0 1
58.5187 0 1
58.6347 0 1
58.7508 0 1
58.8669 0 1
58.983 4660 68.2642
59.0992 4566 67.5722
59.2155 4601 67.8307
59.3318 4529 67.2978
59.4482 4719 68.695
59.5646 4727 68.7532
59.681 4674 68.3667
59.7975 4607 67.8749
59.9141 4538 67.3647
60.0306 4622 67.9853
60.1473 4555 67.4907
60.2639 4596 67.7938
60.3807 4391 66.2646
60.4974 4430 66.5582
60.6142 4517 67.2086
60.731 4470 66.8581
60.8479 4537 67.3573
60.9648 4666 68.3081
61.0818 4748 68.9057
61.1987 4783 69.1592
61.3158 4796 69.2532
61.4328 4705 68.593
61.5499 4501 67.0895
61.667 4576 67.6461
61.7841 4587 67.7274
61.9013 4497 67.0597
62.0185 4451 66.7158
62.1357 4566 67.5722
62.253 4362 66.0454
62.3702 4440 66.6333
62.4875 4509 67.1491
62.6049 4288 65.4828
62.7222 4449 66.7008
62.8396 4547 67.4314
62.9569 4574 67.6314
63.0743 4309 65.643
63.1918 4231 65.0461
63.3092 4129 64.2573
63.4267 4154 64.4515
63.5441 4082 63.8905
63.6616 4127 64.2417
63.7791 4122 64.2028
63.8966 4014 63.3561
64.0142 4123 64.2106
64.1317 4065 63.7574
64.2492 4112 64.1249
64.3668 4229 65.0308
64.4843 4353 65.9773
64.6019 4368 66.0908
64.7195 4434 66.5883
64.837 4278 65.4064
64.9546 4303 65.5973
65.0722 4234 65.0692
65.1898 4124 64.2184
65.3074 4264 65.2993
65.4249 4229 65.0308
65.5425 4182 64.6684
65.6601 4235 65.0769
65.7777 4239 65.1076
65.8952 4208 64.8691
66.0128 4138 64.3273
66.1304 4065 63.7574
66.2479 4147 64.3972
66.3655 4267 65.3223
66.483 4195 64.7688
66.6005 4204 64.8383
66.718 4046 63.6082
66.8355 3908 62.514
66.953 3877 62.2656
67.0705 3801 61.6523
67.1879 3952 62.8649
67.3054 4087 63.9296
67.4228 3784 61.5142
67.5402 3916 62.578
67.6576 3913 62.554
67.7749 3871 62.2174
67.8923 4077 63.8514
68.0096 4139 64.3351
68.1269 4145 64.3817
68.2442 4204 64.8383
68.3614 4332 65.8179
68.4787 4333 65.8255
68.5958 4293 65.521
68.713 4429 66.5507
68.8302 4280 65.4217
68.9473 4338 65.8635
69.0643 4239 65.1076
69.1814 4234 65.0692
69.2984 4268 65.3299
69.4154 4289 65.4905
69.5323 4342 65.8939
69.6492 4429 66.5507
69.7661 4495 67.0448
69.8829 4367 66.0833
69.9997 4408 66.3928
70.1165 4544 67.4092
70.2332 4461 66.7907
70.3499 4392 66.2722
70.4665 4169 64.5678
70.5831 4000 63.2456
70.6996 3951 62.857
70.8161 3919 62.6019
70.9326 3893 62.3939
71.049 3938 62.7535
71.1653 3878 62.2736
71.2817 3896 62.4179
71.3979 3897 62.426
71.5141 3872 62.2254
71.6303 3921 62.6179
71.7464 3832 61.9032
71.8624 0 1
71.9784 0 1
72.0944 0 1
72.2102 0 1
72.3261 0 1
72.4418 0 1
72.5575 0 1
72.6732 0 1
75.1054 0 1
75.2209 0 1
75.3365 0 1
75.4521 0 1
75.5678 0 1
75.6835 0 1
75.7993 0 1
75.9151 0 1
76.031 0 1
76.147 3438 58.6345
76.263 3730 61.0737
76.3791 3795 61.6036
76.4952 3802 61.6604
76.6113 3752 61.2536
76.7276 3955 62.8888
76.8438 4010 63.3246
76.9601 4178 64.6375
77.0765 4266 65.3146
77.1929 4382 66.1967
77.3093 4441 66.6408
77.4258 4353 65.9773
77.5423 4369 66.0984
77.6589 4431 66.5658
77.7755 4447 66.6858
77.8921 4215 64.923
78.0088 4139 64.3351
78.1256 4074 63.8279
78.2423 4276 65.3911
78.3591 4365 66.0681
78.4759 4305 65.6125
78.5928 4306 65.6201
78.7097 4378 66.1665
78.8266 4101 64.0391
78.9436 4567 67.5796
79.0606 4282 65.437
79.1776 4295 65.5362
79.2946 4321 65.7343
79.4117 4305 65.6125
79.5288 4071 63.8044
79.6459 3833 61.9112
79.7631 3680 60.663
79.8802 3608 60.0666
79.9974 3668 60.564
80.1147 3637 60.3075
80.2319 3704 60.8605
80.3491 3803 61.6685
80.4664 3935 62.7296
80.5837 3903 62.474
80.701 4083 63.8984
80.8183 4120 64.1872
80.9357 4101 64.0391
81.053 4263 65.2917
81.1704 4124 64.2184
81.2877 4132 64.2806
81.4051 4151 64.4283
81.5225 4027 63.4586
81.6399 4069 63.7887
81.7573 3983 63.111
81.8747 3969 63
81.9922 3936 62.7375
82.1096 3901 62.458
82.227 4084 63.9062
82.3444 4149 64.4127
82.4619 3993 63.1902
82.5793 3927 62.6658
82.6967 4000 63.2456
82.8142 3982 63.1031
82.9316 4018 63.3877
83.049 3834 61.9193
83.1664 3773 61.4248
83.2838 3379 58.1292
83.4012 3231 56.8419
83.5186 3017 54.9272
83.636 3066 55.3715
83.7534 3105 55.7225
83.8708 3260 57.0964
83.9881 3409 58.3866
84.1055 3563 59.6909
84.2228 3753 61.2617
84.3401 3727 61.0492
84.4575 3829 61.8789
84.5747 3904 62.482
84.692 3880 62.2896
84.8093 3863 62.153
84.9265 3774 61.4329
85.0437 3828 61.8708
85.1609 3802 61.6604
85.2781 3779 61.4736
85.3952 3785 61.5224
85.5123 3826 61.8547
85.6294 3871 62.2174
85.7465 4019 63.3956
85.8636 4082 63.8905
85.9806 4052 63.6553
86.0976 4217 64.9384
86.2145 4098 64.0156
86.3315 4351 65.9621
86.4484 4137 64.3195
86.5652 4242 65.1306
86.682 4088 63.9375
86.7988 3893 62.3939
86.9156 3611 60.0916
87.0323 3517 59.3043
87.149 3316 57.5847
87.2657 3269 57.1752
87.3823 3552 59.5987
87.4988 3860 62.1289
87.6154 3924 62.6418
87.7318 4146 64.3894
87.8483 4264 65.2993
87.9647 4327 65.7799
88.081 4381 66.1891
88.1973 4401 66.34
88.3136 4419 66.4756
88.4298 4463 66.8057
88.546 4181 64.6607
88.6621 4210 64.8845
88.7781 4188 64.7148
88.8942 0 1
89.0101 0 1
89.126 0 1
89.2419 0 1
89.3577 0 1
89.4734 0 1
89.5891 0 1
89.7047 0 1
89.8203 0 1
89.9358 0 1
92.3269 0 1
92.4424 0 1
92.558 0 1
92.6736 0 1
92.7893 0 1
92.905 0 1
93.0208 0 1
93.1366 0 1
93.2525 0 1
93.3685 0 1
93.4845 0 1
93.6005 4298 65.5591
93.7167 4363 66.053
93.8328 4421 66.4906
93.949 4163 64.5213
94.0653 4149 64.4127
94.1816 4180 64.6529
94.2979 4142 64.3584
94.4143 4126 64.2339
94.5307 4119 64.1794
94.6472 4197 64.7843
94.7637 4307 65.6277
94.8803 4373 66.1287
94.9969 4400 66.3325
95.1135 4555 67.4907
95.2302 4619 67.9632
95.3469 4566 67.5722
95.4637 4646 68.1616
95.5805 4454 66.7383
95.6973 4582 67.6905
95.8142 4557 67.5056
95.9311 4145 64.3817
96.048 3883 62.3137
96.1649 3547 59.5567
96.2819 3403 58.3352
96.3989 3310 57.5326
96.516 3286 57.3236
96.633 3591 59.925
96.7501 4049 63.6318
96.8673 4253 65.215
96.9844 4371 66.1135
97.1016 4465 66.8207
97.2188 4478 66.9179
97.336 4688 68.469
97.4532 4671 68.3447
97.5704 4615 67.9338
97.6877 4425 66.5207
97.805 4400 66.3325
97.9223 4309 65.643
98.0396 4351 65.9621
98.1569 4340 65.8787
98.2743 4415 66.4455
98.3916 4481 66.9403
98.509 4496 67.0522
98.6264 4545 67.4166
98.7438 4722 68.7168
98.8612 4566 67.5722
98.9786 4746 68.8912
99.096 4704 68.5857
99.2134 4719 68.695
99.3308 4877 69.8355
99.4482 4530 67.3053
99.5656 4433 66.5808
99.6831 4193 64.7534
99.8005 3791 61.5711
99.9179 3646 60.3821
100.035 3511 59.2537
100.153 3546 59.5483
100.27 3899 62.442
100.388 4222 64.9769
100.505 4426 66.5282
100.622 4622 67.9853
100.74 4643 68.1396
100.857 4705 68.593
100.975 4527 67.283
101.092 4584 67.7052
101.209 4560 67.5278
101.327 4515 67.1937
101.444 4400 66.3325
101.561 4365 66.0681
101.679 4511 67.164
101.796 4498 67.0671
101.913 4557 67.5056
102.03 4671 68.3447
102.148 4687 68.4617
102.265 4739 68.8404
102.382 5084 71.3022
102.499 4957 70.406
102.616 4995 70.6753
102.733 4945 70.3207
102.851 5030 70.9225
102.968 4905 70.0357
103.085 4811 69.3614
103.202 4504 67.1118
103.319 4140 64.3428
103.436 3760 61.3188
103.552 3510 59.2453
103.669 3522 59.3464
103.786 3866 62.1772
103.903 4363 66.053
104.02 4690 68.4836
104.137 4863 69.7352
104.253 4847 69.6204
104.37 5084 71.3022
104.487 4980 70.5691
104.603 5013 70.8025
104.72 4898 69.9857
104.836 4733 68.7968
104.953 4779 69.1303
105.069 4679 68.4032
105.186 4607 67.8749
105.302 4916 70.1142
105.418 4963 70.4486
105.535 4922 70.157
105.651 5130 71.624
105.767 5077 71.2531
105.883 5228 72.3049
105.999 5311 72.8766
106.115 0 1
106.231 0 1
106.347 0 1
106.463 0 1
106.579 0 1
106.694 0 1
106.81 0 1
106.926 0 1
107.041 0 1
107.157 0 1
109.576 0 1
109.692 0 1
109.807 0 1
109.923 0 1
110.039 0 1
110.155 0 1
110.27 0 1
110.386 0 1
110.502 0 1
110.618 4738 68.8331
110.735 4852 69.6563
110.851 4910 70.0714
110.967 5121 71.5612
111.083 4986 70.6116
111.199 5004 70.739
111.316 4953 70.3776
111.432 5087 71.3232
111.549 5074 71.232
111.665 4792 69.2243
111.782 4452 66.7233
111.898 4025 63.4429
112.015 3489 59.0678
112.132 3123 55.8838
112.248 3212 56.6745
112.365 3708 60.8933
112.482 4173 64.5988
112.599 4692 68.4982
112.716 4695 68.5201
112.832 4695 68.5201
112.949 4803 69.3037
113.066 4619 67.9632
113.183 4604 67.8528
113.3 4639 68.1102
113.417 4491 67.0149
113.534 4389 66.2495
113.652 4306 65.6201
113.769 4384 66.2118
113.886 4490 67.0075
114.003 4488 66.9925
114.12 4414 66.4379
114.238 4832 69.5126
114.355 4816 69.3974
114.472 4699 68.5493
114.589 4866 69.7567
114.707 4847 69.6204
114.824 4894 69.9571
114.942 4794 69.2387
115.059 4906 70.0428
115.176 4772 69.0797
115.294 4468 66.8431
115.411 4219 64.9538
115.529 3670 60.5805
115.646 3238 56.9034
115.764 2918 54.0185
115.881 3365 58.0086
115.999 3933 62.7136
116.116 4361 66.0379
116.234 4390 66.2571
116.351 4437 66.6108
116.469 4549 67.4463
116.586 4421 66.4906
116.704 4475 66.8954
116.821 4273 65.3682
116.939 4186 64.6993
117.056 4144 64.3739
117.174 4197 64.7843
117.291 4086 63.9218
117.409 4179 64.6452
117.526 4322 65.7419
117.644 4460 66.7832
117.761 4389 66.2495
117.879 4541 67.3869
117.996 4516 67.2012
118.114 4584 67.7052
118.231 4502 67.0969
118.349 4610 67.897
118.466 4608 67.8823
118.584 4703 68.5784
118.701 4410 66.4078
118.819 4405 66.3702
118.936 4307 65.6277
119.053 3793 61.5873
119.171 3332 57.7235
119.288 2823 53.1319
119.405 2781 52.7352
119.523 2980 54.5894
119.64 3580 59.8331
119.757 3918 62.5939
119.875 4121 64.195
119.992 4138 64.3273
120.109 4199 64.7997
120.226 4230 65.0385
120.343 4072 63.8122
120.46 4051 63.6475
120.578 3950 62.849
120.695 3902 62.466
120.812 3854 62.0806
120.929 3914 62.562
121.046 3971 63.0159
121.163 3922 62.6259
121.279 4062 63.7338
121.396 4116 64.1561
121.513 4124 64.2184
121.63 4336 65.8483
121.747 4279 65.4141
121.863 4422 66.4981
121.98 4338 65.8635
122.097 4373 66.1287
122.213 4377 66.1589
122.33 4390 66.2571
122.446 4181 64.6607
122.563 4115 64.1483
122.679 3821 61.8142
122.795 3659 60.4897
122.912 3323 57.6455
123.028 2701 51.9711
123.144 2477 49.7695
123.26 2747 52.4118
123.377 0 1
123.493 0 1
123.609 0 1
123.725 0 1
123.84 0 1
123.956 0 1
124.072 0 1
124.188 0 1
124.303 0 1
124.419 0 1
126.852 0 1
126.968 0 1
127.083 0 1
127.199 0 1
127.315 0 1
127.431 0 1
127.547 0 1
127.663 0 1
127.779 0 1
127.895 0 1
128.011 0 1
128.127 0 1
128.243 0 1
128.359 2534 50.3389
128.476 2751 52.45
128.592 3182 56.4092
128.708 3968 62.9921
128.825 4186 64.6993
128.941 4249 65.1844
129.058 4234 65.0692
129.174 4311 65.6582
129.291 4110 64.1093
129.408 4128 64.2495
129.524 4035 63.5216
129.641 3936 62.7375
129.758 3899 62.442
129.875 3811 61.7333
129.992 4012 63.3404
130.108 4054 63.671
130.225 4096 64
130.342 4113 64.1327
130.459 3990 63.1664
130.576 4410 66.4078
130.693 4256 65.238
130.81 4255 65.2304
130.928 4236 65.0846
131.045 4176 64.622
131.162 4199 64.7997
131.279 4342 65.8939
131.396 4116 64.1561
131.513 4137 64.3195
131.631 3834 61.9193
131.748 3272 57.2014
131.865 2506 50.06
131.983 2431 49.3052
132.1 2889 53.7494
132.217 3678 60.6465
132.335 3975 63.0476
132.452 4120 64.1872
132.57 3948 62.8331
132.687 3869 62.2013
132.804 4151 64.4283
132.922 3992 63.1823
133.039 3866 62.1772
133.157 3786 61.5305
133.274 3698 60.8112
133.392 3749 61.2291
133.509 3822 61.8223
133.627 3852 62.0645
133.744 3867 62.1852
133.862 3886 62.3378
133.979 3989 63.1585
134.097 3990 63.1664
134.214 3981 63.0952
134.332 4149 64.4127
134.449 4087 63.9296
134.567 3970 63.0079
134.684 3989 63.1585
134.802 3979 63.0793
134.919 4059 63.7103
135.037 4104 64.0625
135.154 3877 62.2656
135.272 3383 58.1636
135.389 2787 52.792
135.507 2299 47.9479
135.624 2441 49.4065
135.742 3096 55.6417
135.859 3616 60.1332
135.977 3848 62.0322
136.094 3815 61.7657
136.211 3902 62.466
136.329 3889 62.3618
136.446 3771 61.4085
136.564 3773 61.4248
136.681 3621 60.1747
136.798 3612 60.0999
136.915 3548 59.5651
137.033 3669 60.5723
137.15 3601 60.0083
137.267 3657 60.4731
137.384 3673 60.6053
137.502 3809 61.7171
137.619 3743 61.1801
137.736 3733 61.0983
137.853 3734 61.1065
137.97 3927 62.6658
138.087 3884 62.3217
138.204 3830 61.887
138.321 3885 62.3298
138.438 3900 62.45
138.555 4006 63.293
138.672 3930 62.6897
138.788 3776 61.4492
138.905 3519 59.3212
139.022 2975 54.5436
139.139 2311 48.0729
139.255 2486 49.8598
139.372 2953 54.3415
139.488 3478 58.9746
139.605 3899 62.442
139.721 3793 61.5873
139.838 3903 62.474
139.954 3883 62.3137
140.071 3707 60.8851
140.187 3603 60.025
140.303 3559 59.6574
140.419 3560 59.6657
140.535 3400 58.3095
140.652 3506 59.2115
140.768 0 1
140.884 0 1
141 0 1
141.115 0 1
141.231 0 1
141.347 0 1
141.463 0 1
141.578 0 1
141.694 0 1
144.104 0 1
144.219 0 1
144.335 0 1
144.45 0 1
144.566 0 1
144.682 0 1
144.798 0 1
144.914 0 1
145.03 0 1
145.146 2567 50.6656
145.262 2822 53.1225
145.378 2827 53.1695
145.494 2735 52.2972
145.61 2615 51.1371
145.726 2709 52.0481
145.842 2745 52.3927
145.959 2639 51.3712
146.075 2725 52.2015
146.192 2823 53.1319
146.308 2887 53.7308
146.425 2994 54.7175
146.541 2821 53.1131
146.658 2889 53.7494
146.774 2887 53.7308
146.891 3020 54.9545
147.008 3046 55.1906
147.125 2918 54.0185
147.241 3039 55.1271
147.358 3060 55.3173
147.475 3089 55.5788
147.592 3006 54.827
147.709 2852 53.4041
147.826 2688 51.8459
147.943 2263 47.571
148.06 1845 42.9535
148.177 1812 42.5676
148.294 2216 47.0744
148.411 2725 52.2015
148.528 2913 53.9722
148.645 3004 54.8088
148.762 2870 53.5724
148.88 2914 53.9815
148.997 2823 53.1319
149.114 2881 53.6749
149.231 2801 52.9245
149.349 2790 52.8205
149.466 2721 52.1632
149.583 2727 52.2207
149.701 2683 51.7977
149.818 2703 51.9904
149.935 2734 52.2877
150.053 2798 52.8961
150.17 2802 52.9339
150.287 2865 53.5257
150.405 2908 53.9259
150.522 2940 54.2218
150.64 2980 54.5894
150.757 3049 55.2178
150.875 3079 55.4887
150.992 3132 55.9643
151.11 3128 55.9285
151.227 3183 56.4181
151.344 3114 55.8032
151.462 3113 55.7943
151.579 2914 53.9815
151.697 2326 48.2286
151.814 2002 44.7437
151.932 2084 45.6508
152.049 2661 51.5849
152.167 2894 53.7959
152.284 3317 57.5934
152.402 3151 56.1338
152.519 3258 57.0789
152.636 3109 55.7584
152.754 3149 56.116
152.871 3127 55.9196
152.989 3087 55.5608
153.106 2964 54.4426
153.223 3039 55.1271
153.341 3011 54.8726
153.458 2953 54.3415
153.575 3073 55.4346
153.693 3108 55.7494
153.81 3242 56.9386
153.927 3254 57.0438
154.044 3201 56.5774
154.162 3274 57.2189
154.279 3389 58.2151
154.396 3362 57.9828
154.513 3483 59.0169
154.63 3502 59.1777
154.747 3511 59.2537
154.864 3546 59.5483
154.981 3458 58.8048
155.098 3363 57.9914
155.215 2948 54.2955
155.332 2501 50.01
155.449 2426 49.2544
155.566 2915 53.9907
155.683 3448 58.7197
155.8 3508 59.2284
155.917 3585 59.8749
156.033 3507 59.2199
156.15 0 1
156.267 0 1
156.383 0 1
156.5 0 1
156.617 0 1
156.733 0 1
156.85 0 1
156.966 0 1
157.082 0 1
157.199 0 1
157.315 0 1
157.431 0 1
157.547 0 1
157.664 0 1
157.78 0 1
157.896 0 1
158.012 0 1
158.128 0 1
158.244 0 1
158.359 0 1
158.475 0 1
158.591 0 1
158.706 0 1
