
6.15755 0 1
6.2731 0 1
6.3887 0 1
6.50437 0 1
6.62009 0 1
6.73587 0 1
6.8517 0 1
6.96759 0 1
7.08353 0 1
7.19952 0 1
7.31557 0 1
7.43166 0 1
7.54781 0 1
7.664 0 1
7.78024 0 1
7.89653 0 1
8.01286 0 1
8.12924 0 1
8.24567 0 1
8.36213 0 1
8.47864 0 1
8.59519 0 1
8.71178 0 1
8.82841 0 1
8.94508 0 1
9.06179 0 1
9.17853 0 1
9.29531 0 1
9.41212 0 1
9.52897 0 1
9.64584 0 1
9.76276 0 1
9.8797 0 1
9.99667 0 1
10.1137 0 1
10.2307 0 1
10.3478 0 1
10.4648 0 1
10.5819 0 1
10.6991 0 1
10.8162 0 1
10.9334 0 1
11.0506 0 1
11.1678 0 1
11.285 0 1
11.4023 0 1
11.5196 0 1
11.6369 0 1
11.7542 0 1
11.8715 0 1
11.9888 0 1
12.1062 0 1
12.2235 0 1
12.3409 0 1
12.4582 0 1
12.5756 0 1
12.693 0 1
12.8104 0 1
12.9278 0 1
13.0452 0 1
13.1626 0 1
13.28 0 1
13.3974 0 1
13.5149 0 1
13.6323 0 1
13.7497 0 1
13.8671 0 1
13.9845 0 1
14.1019 0 1
14.2193 0 1
14.3367 0 1
14.4541 0 1
14.5714 0 1
14.6888 0 1
14.8062 0 1
14.9235 0 1
15.0408 840 28.9828
15.1581 900 30
15.2755 926 30.4302
15.3927 944 30.7246
15.51 927 30.4467
15.6273 969 31.1288
15.7445 853 29.2062
15.8617 891 29.8496
15.9789 826 28.7402
16.0961 850 29.1548
16.2132 899 29.9833
16.3304 827 28.7576
16.4475 872 29.5296
16.5646 828 28.775
16.6816 829 28.7924
16.7986 764 27.6405
16.9156 756 27.4955
17.0326 802 28.3196
17.1496 767 27.6948
17.2665 781 27.9464
17.3833 706 26.5707
17.5002 697 26.4008
17.617 781 27.9464
17.7338 755 27.4773
17.8505 766 27.6767
17.9672 747 27.3313
18.0839 745 27.2947
18.2005 727 26.9629
18.3171 761 27.5862
18.4337 742 27.2397
18.5502 788 28.0713
18.6666 740 27.2029
18.7831 718 26.7955
18.8994 801 28.3019
19.0158 747 27.3313
19.1321 743 27.258
19.2483 673 25.9422
19.3645 680 26.0768
19.4806 657 25.632
19.5967 569 23.8537
19.7128 580 24.0832
19.8288 543 23.3024
19.9447 472 21.7256
20.0606 0 1
20.1764 0 1
20.2922 0 1
20.4079 0 1
20.5236 0 1
20.6392 0 1
20.7548 0 1
20.8702 0 1
23.3078 0 1
23.4233 0 1
23.539 0 1
23.6547 0 1
23.7704 0 1
23.8862 0 1
24.0021 0 1
24.118 0 1
24.234 0 1
24.35 0 1
24.4661 332 18.2209
24.5822 396 19.8997
24.6984 406 20.1494
24.8146 535 23.1301
24.9309 594 24.3721
25.0472 696 26.3818
25.1636 747 27.3313
25.28 819 28.6182
25.3965 813 28.5132
25.513 840 28.9828
25.6296 846 29.0861
25.7462 880 29.6648
25.8628 911 30.1828
25.9795 868 29.4618
26.0962 868 29.4618
26.213 808 28.4253
26.3298 788 28.0713
26.4466 755 27.4773
26.5635 692 26.3059
26.6804 731 27.037
26.7973 684 26.1534
26.9143 695 26.3629
27.0313 657 25.632
27.1483 727 26.9629
27.2653 698 26.4197
27.3824 666 25.807
27.4996 781 27.9464
27.6167 684 26.1534
27.7339 738 27.1662
27.8511 811 28.4781
27.9683 693 26.3249
28.0855 682 26.1151
28.2028 745 27.2947
28.3201 817 28.5832
28.4374 766 27.6767
28.5547 745 27.2947
28.6721 763 27.6225
28.7894 740 27.2029
28.9068 772 27.7849
29.0242 730 27.0185
29.1416 721 26.8514
29.259 699 26.4386
29.3764 745 27.2947
29.4939 724 26.9072
29.6113 685 26.1725
29.7288 691 26.2869
29.8463 611 24.7184
29.9638 597 24.4336
30.0812 627 25.04
30.1987 627 25.04
30.3162 655 25.593
30.4337 626 25.02
30.5512 652 25.5343
30.6687 639 25.2784
30.7862 645 25.3969
30.9037 721 26.8514
31.0212 713 26.7021
31.1387 697 26.4008
31.2562 781 27.9464
31.3737 723 26.8887
31.4912 692 26.3059
31.6087 738 27.1662
31.7262 706 26.5707
31.8436 698 26.4197
31.9611 721 26.8514
32.0785 665 25.7876
32.1959 717 26.7769
32.3134 699 26.4386
32.4308 653 25.5539
32.5482 660 25.6905
32.6655 649 25.4755
32.7829 677 26.0192
32.9002 632 25.1396
33.0176 654 25.5734
33.1349 607 24.6374
33.2522 646 25.4165
33.3694 622 24.9399
33.4867 541 23.2594
33.6039 598 24.454
33.7211 596 24.4131
33.8383 624 24.98
33.9554 620 24.8998
34.0725 650 25.4951
34.1896 618 24.8596
34.3067 630 25.0998
34.4237 633 25.1595
34.5407 633 25.1595
34.6577 672 25.923
34.7746 629 25.0799
34.8915 647 25.4362
35.0084 610 24.6982
35.1252 665 25.7876
35.242 622 24.9399
35.3587 655 25.593
35.4755 608 24.6577
35.5921 618 24.8596
35.7088 618 24.8596
35.8254 644 25.3772
35.9419 679 26.0576
36.0584 670 25.8844
36.1749 575 23.9792
36.2913 603 24.5561
36.4077 555 23.5584
36.524 541 23.2594
36.6403 541 23.2594
36.7565 470 21.6795
36.8727 444 21.0713
36.9889 397 19.9249
37.1049 352 18.7617
37.221 0 1
37.3369 0 1
37.4529 0 1
37.5687 0 1
37.6845 0 1
37.8003 0 1
37.916 0 1
38.0316 0 1
38.1472 0 1
40.5851 0 1
40.7008 0 1
40.8164 0 1
40.9322 0 1
41.048 0 1
41.1639 0 1
41.2798 0 1
41.3958 0 1
41.5118 0 1
41.6279 0 1
41.744 252 15.8745
41.8602 328 18.1108
41.9765 357 18.8944
42.0928 401 20.025
42.2091 437 20.9045
42.3255 394 19.8494
42.4419 442 21.0238
42.5584 471 21.7025
42.675 465 21.5639
42.7915 486 22.0454
42.9081 504 22.4499
43.0248 450 21.2132
43.1415 483 21.9773
43.2582 429 20.7123
43.375 484 22
43.4918 455 21.3307
43.6087 503 22.4277
43.7256 482 21.9545
43.8425 468 21.6333
43.9595 478 21.8632
44.0765 460 21.4476
44.1935 443 21.0476
44.3106 485 22.0227
44.4277 477 21.8403
44.5448 472 21.7256
44.6619 497 22.2935
44.7791 504 22.4499
44.8963 525 22.9129
45.0136 531 23.0434
45.1308 502 22.4054
45.2481 509 22.561
45.3654 528 22.9783
45.4827 485 22.0227
45.6001 498 22.3159
45.7174 449 21.1896
45.8348 487 22.0681
45.9522 469 21.6564
46.0697 445 21.095
46.1871 446 21.1187
46.3046 473 21.7486
46.422 537 23.1733
46.5395 474 21.7715
46.657 448 21.166
46.7745 459 21.4243
46.892 496 22.2711
47.0096 505 22.4722
47.1271 481 21.9317
47.2446 498 22.3159
47.3622 472 21.7256
47.4797 501 22.383
47.5973 504 22.4499
47.7149 440 20.9762
47.8324 451 21.2368
47.95 422 20.5426
48.0675 482 21.9545
48.1851 539 23.2164
48.3027 491 22.1585
48.4202 513 22.6495
48.5378 525 22.9129
48.6554 519 22.7816
48.7729 498 22.3159
48.8904 474 21.7715
49.008 485 22.0227
49.1255 455 21.3307
49.243 441 21
49.3605 426 20.6398
49.478 398 19.9499
49.5955 460 21.4476
49.713 399 19.975
49.8304 441 21
49.9479 456 21.3542
50.0653 475 21.7945
50.1827 429 20.7123
50.3001 434 20.8327
50.4175 371 19.2614
50.5348 450 21.2132
50.6521 503 22.4277
50.7694 460 21.4476
50.8867 424 20.5913
51.004 445 21.095
51.1212 442 21.0238
51.2384 453 21.2838
51.3556 480 21.9089
51.4727 493 22.2036
51.5899 440 20.9762
51.707 496 22.2711
51.824 449 21.1896
51.9411 451 21.2368
52.0581 497 22.2935
52.175 481 21.9317
52.2919 452 21.2603
52.4088 437 20.9045
52.5257 483 21.9773
52.6425 437 20.9045
52.7593 459 21.4243
52.876 451 21.2368
52.9927 423 20.567
53.1094 384 19.5959
53.226 424 20.5913
53.3426 398 19.9499
53.4591 427 20.664
53.5756 385 19.6214
53.692 396 19.8997
53.8084 361 19
53.9248 333 18.2483
54.0411 285 16.8819
54.1573 254 15.9374
54.2735 0 1
54.3896 0 1
54.5057 0 1
54.6217 0 1
54.7377 0 1
54.8537 0 1
54.9695 0 1
55.0853 0 1
55.2011 0 1
55.3168 0 1
55.4324 0 1
57.824 0 1
57.9396 0 1
58.0553 0 1
58.1711 0 1
58.2869 0 1
58.4028 0 1
58.5187 0 1
58.6347 0 1
58.7508 0 1
58.8669 0 1
58.983 411 20.2731
59.0992 530 23.0217
59.2155 486 22.0454
59.3318 590 24.2899
59.4482 628 25.0599
59.5646 631 25.1197
59.681 625 25
59.7975 710 26.6458
59.9141 673 25.9422
60.0306 650 25.4951
60.1473 716 26.7582
60.2639 755 27.4773
60.3807 741 27.2213
60.4974 716 26.7582
60.6142 711 26.6646
60.731 741 27.2213
60.8479 653 25.5539
60.9648 686 26.1916
61.0818 669 25.865
61.1987 628 25.0599
61.3158 633 25.1595
61.4328 597 24.4336
61.5499 569 23.8537
61.667 525 22.9129
61.7841 587 24.2281
61.9013 572 23.9165
62.0185 557 23.6008
62.1357 611 24.7184
62.253 571 23.8956
62.3702 598 24.454
62.4875 601 24.5153
62.6049 601 24.5153
62.7222 589 24.2693
62.8396 626 25.02
62.9569 618 24.8596
63.0743 582 24.1247
63.1918 541 23.2594
63.3092 536 23.1517
63.4267 520 22.8035
63.5441 593 24.3516
63.6616 564 23.7487
63.7791 603 24.5561
63.8966 586 24.2074
64.0142 583 24.1454
64.1317 606 24.6171
64.2492 593 24.3516
64.3668 550 23.4521
64.4843 570 23.8747
64.6019 560 23.6643
64.7195 553 23.516
64.837 534 23.1084
64.9546 497 22.2935
65.0722 507 22.5167
65.1898 497 22.2935
65.3074 491 22.1585
65.4249 491 22.1585
65.5425 519 22.7816
65.6601 509 22.561
65.7777 516 22.7156
65.8952 529 23
66.0128 571 23.8956
66.1304 537 23.1733
66.2479 576 24
66.3655 554 23.5372
66.483 587 24.2281
66.6005 531 23.0434
66.718 533 23.0868
66.8355 561 23.6854
66.953 526 22.9347
67.0705 523 22.8692
67.1879 573 23.9374
67.3054 545 23.3452
67.4228 543 23.3024
67.5402 530 23.0217
67.6576 598 24.454
67.7749 552 23.4947
67.8923 538 23.1948
68.0096 574 23.9583
68.1269 511 22.6053
68.2442 516 22.7156
68.3614 497 22.2935
68.4787 513 22.6495
68.5958 487 22.0681
68.713 509 22.561
68.8302 479 21.8861
68.9473 445 21.095
69.0643 500 22.3607
69.1814 459 21.4243
69.2984 463 21.5174
69.4154 511 22.6053
69.5323 513 22.6495
69.6492 533 23.0868
69.7661 514 22.6716
69.8829 503 22.4277
69.9997 456 21.3542
70.1165 530 23.0217
70.2332 457 21.3776
70.3499 493 22.2036
70.4665 433 20.8087
70.5831 403 20.0749
70.6996 403 20.0749
70.8161 389 19.7231
70.9326 397 19.9249
71.049 329 18.1384
71.1653 326 18.0555
71.2817 300 17.3205
71.3979 278 16.6733
71.5141 254 15.9374
71.6303 258 16.0624
71.7464 199 14.1067
71.8624 0 1
71.9784 0 1
72.0944 0 1
72.2102 0 1
72.3261 0 1
72.4418 0 1
72.5575 0 1
72.6732 0 1
75.1054 0 1
75.2209 0 1
75.3365 0 1
75.4521 0 1
75.5678 0 1
75.6835 0 1
75.7993 0 1
75.9151 0 1
76.031 0 1
76.147 313 17.6918
76.263 371 19.2614
76.3791 414 20.347
76.4952 416 20.3961
76.6113 442 21.0238
76.7276 472 21.7256
76.8438 438 20.9284
76.9601 452 21.2603
77.0765 473 21.7486
77.1929 447 21.1424
77.3093 467 21.6102
77.4258 464 21.5407
77.5423 422 20.5426
77.6589 473 21.7486
77.7755 408 20.199
77.8921 383 19.5704
78.0088 394 19.8494
78.1256 414 20.347
78.2423 410 20.2485
78.3591 431 20.7605
78.4759 456 21.3542
78.5928 466 21.587
78.7097 486 22.0454
78.8266 466 21.587
78.9436 463 21.5174
79.0606 473 21.7486
79.1776 475 21.7945
79.2946 469 21.6564
79.4117 486 22.0454
79.5288 457 21.3776
79.6459 462 21.4942
79.7631 498 22.3159
79.8802 474 21.7715
79.9974 481 21.9317
80.1147 546 23.3666
80.2319 521 22.8254
80.3491 505 22.4722
80.4664 497 22.2935
80.5837 474 21.7715
80.701 476 21.8174
80.8183 454 21.3073
80.9357 499 22.3383
81.053 448 21.166
81.1704 444 21.0713
81.2877 485 22.0227
81.4051 466 21.587
81.5225 477 21.8403
81.6399 394 19.8494
81.7573 411 20.2731
81.8747 408 20.199
81.9922 455 21.3307
82.1096 486 22.0454
82.227 450 21.2132
82.3444 483 21.9773
82.4619 480 21.9089
82.5793 500 22.3607
82.6967 518 22.7596
82.8142 455 21.3307
82.9316 505 22.4722
83.049 504 22.4499
83.1664 503 22.4277
83.2838 450 21.2132
83.4012 456 21.3542
83.5186 435 20.8567
83.636 467 21.6102
83.7534 505 22.4722
83.8708 492 22.1811
83.9881 573 23.9374
84.1055 512 22.6274
84.2228 541 23.2594
84.3401 554 23.5372
84.4575 474 21.7715
84.5747 499 22.3383
84.692 498 22.3159
84.8093 505 22.4722
84.9265 501 22.383
85.0437 480 21.9089
85.1609 442 21.0238
85.2781 443 21.0476
85.3952 425 20.6155
85.5123 457 21.3776
85.6294 471 21.7025
85.7465 505 22.4722
85.8636 503 22.4277
85.9806 453 21.2838
86.0976 499 22.3383
86.2145 548 23.4094
86.3315 504 22.4499
86.4484 508 22.5389
86.5652 504 22.4499
86.682 514 22.6716
86.7988 507 22.5167
86.9156 481 21.9317
87.0323 487 22.0681
87.149 519 22.7816
87.2657 489 22.1133
87.3823 451 21.2368
87.4988 518 22.7596
87.6154 533 23.0868
87.7318 484 22
87.8483 460 21.4476
87.9647 436 20.8806
88.081 370 19.2354
88.1973 400 20
88.3136 372 19.2873
88.4298 326 18.0555
88.546 290 17.0294
88.6621 267 16.3401
88.7781 230 15.1658
88.8942 0 1
89.0101 0 1
89.126 0 1
89.2419 0 1
89.3577 0 1
89.4734 0 1
89.5891 0 1
89.7047 0 1
89.8203 0 1
89.9358 0 1
92.3269 0 1
92.4424 0 1
92.558 0 1
92.6736 0 1
92.7893 0 1
92.905 0 1
93.0208 0 1
93.1366 0 1
93.2525 0 1
93.3685 0 1
93.4845 0 1
93.6005 393 19.8242
93.7167 404 20.0998
93.8328 463 21.5174
93.949 465 21.5639
94.0653 539 23.2164
94.1816 474 21.7715
94.2979 498 22.3159
94.4143 451 21.2368
94.5307 447 21.1424
94.6472 436 20.8806
94.7637 459 21.4243
94.8803 514 22.6716
94.9969 540 23.2379
95.1135 531 23.0434
95.2302 542 23.2809
95.3469 518 22.7596
95.4637 548 23.4094
95.5805 535 23.1301
95.6973 530 23.0217
95.8142 490 22.1359
95.9311 523 22.8692
96.048 513 22.6495
96.1649 531 23.0434
96.2819 483 21.9773
96.3989 504 22.4499
96.516 568 23.8328
96.633 594 24.3721
96.7501 546 23.3666
96.8673 586 24.2074
96.9844 540 23.2379
97.1016 594 24.3721
97.2188 548 23.4094
97.336 548 23.4094
97.4532 547 23.388
97.5704 539 23.2164
97.6877 525 22.9129
97.805 536 23.1517
97.9223 483 21.9773
98.0396 453 21.2838
98.1569 479 21.8861
98.2743 486 22.0454
98.3916 510 22.5832
98.509 521 22.8254
98.6264 556 23.5797
98.7438 587 24.2281
98.8612 574 23.9583
98.9786 617 24.8395
99.096 563 23.7276
99.2134 592 24.3311
99.3308 591 24.3105
99.4482 592 24.3311
99.5656 596 24.4131
99.6831 608 24.6577
99.8005 579 24.0624
99.9179 599 24.4745
100.035 571 23.8956
100.153 585 24.1868
100.27 605 24.5967
100.388 675 25.9808
100.505 640 25.2982
100.622 577 24.0208
100.74 593 24.3516
100.857 604 24.5764
100.975 571 23.8956
101.092 556 23.5797
101.209 572 23.9165
101.327 585 24.1868
101.444 522 22.8473
101.561 561 23.6854
101.679 518 22.7596
101.796 520 22.8035
101.913 510 22.5832
102.03 569 23.8537
102.148 590 24.2899
102.265 654 25.5734
102.382 645 25.3969
102.499 635 25.1992
102.616 646 25.4165
102.733 594 24.3721
102.851 632 25.1396
102.968 661 25.7099
103.085 597 24.4336
103.202 634 25.1794
103.319 599 24.4745
103.436 633 25.1595
103.552 621 24.9199
103.669 619 24.8797
103.786 676 26
103.903 666 25.807
104.02 648 25.4558
104.137 661 25.7099
104.253 683 26.1343
104.37 672 25.923
104.487 645 25.3969
104.603 641 25.318
104.72 619 24.8797
104.836 583 24.1454
104.953 609 24.6779
105.069 568 23.8328
105.186 487 22.0681
105.302 470 21.6795
105.418 457 21.3776
105.535 413 20.3224
105.651 413 20.3224
105.767 404 20.0998
105.883 388 19.6977
105.999 332 18.2209
106.115 0 1
106.231 0 1
106.347 0 1
106.463 0 1
106.579 0 1
106.694 0 1
106.81 0 1
106.926 0 1
107.041 0 1
107.157 0 1
109.576 0 1
109.692 0 1
109.807 0 1
109.923 0 1
110.039 0 1
110.155 0 1
110.27 0 1
110.386 0 1
110.502 0 1
110.618 241 15.5242
110.735 295 17.1756
110.851 414 20.347
110.967 479 21.8861
111.083 518 22.7596
111.199 523 22.8692
111.316 546 23.3666
111.432 551 23.4734
111.549 604 24.5764
111.665 551 23.4734
111.782 544 23.3238
111.898 547 23.388
112.015 538 23.1948
112.132 560 23.6643
112.248 493 22.2036
112.365 545 23.3452
112.482 580 24.0832
112.599 583 24.1454
112.716 591 24.3105
112.832 528 22.9783
112.949 539 23.2164
113.066 549 23.4307
113.183 544 23.3238
113.3 523 22.8692
113.417 578 24.0416
113.534 565 23.7697
113.652 559 23.6432
113.769 530 23.0217
113.886 518 22.7596
114.003 455 21.3307
114.12 445 21.095
114.238 451 21.2368
114.355 479 21.8861
114.472 474 21.7715
114.589 534 23.1084
114.707 536 23.1517
114.824 478 21.8632
114.942 515 22.6936
115.059 509 22.561
115.176 485 22.0227
115.294 492 22.1811
115.411 498 22.3159
115.529 451 21.2368
115.646 485 22.0227
115.764 454 21.3073
115.881 504 22.4499
115.999 530 23.0217
116.116 494 22.2261
116.234 490 22.1359
116.351 489 22.1133
116.469 488 22.0907
116.586 469 21.6564
116.704 487 22.0681
116.821 454 21.3073
116.939 478 21.8632
117.056 419 20.4695
117.174 458 21.4009
117.291 467 21.6102
117.409 463 21.5174
117.526 451 21.2368
117.644 467 21.6102
117.761 385 19.6214
117.879 423 20.567
117.996 430 20.7364
118.114 469 21.6564
118.231 431 20.7605
118.349 455 21.3307
118.466 470 21.6795
118.584 456 21.3542
118.701 506 22.4944
118.819 459 21.4243
118.936 469 21.6564
119.053 440 20.9762
119.171 418 20.445
119.288 471 21.7025
119.405 456 21.3542
119.523 438 20.9284
119.64 468 21.6333
119.757 435 20.8567
119.875 443 21.0476
119.992 476 21.8174
120.109 431 20.7605
120.226 449 21.1896
120.343 435 20.8567
120.46 483 21.9773
120.578 440 20.9762
120.695 458 21.4009
120.812 472 21.7256
120.929 437 20.9045
121.046 439 20.9523
121.163 381 19.5192
121.279 385 19.6214
121.396 417 20.4206
121.513 360 18.9737
121.63 369 19.2094
121.747 355 18.8414
121.863 354 18.8149
121.98 373 19.3132
122.097 364 19.0788
122.213 397 19.9249
122.33 341 18.4662
122.446 338 18.3848
122.563 342 18.4932
122.679 266 16.3095
122.795 291 17.0587
122.912 273 16.5227
123.028 260 16.1245
123.144 238 15.4272
123.26 229 15.1327
123.377 0 1
123.493 0 1
123.609 0 1
123.725 0 1
123.84 0 1
123.956 0 1
124.072 0 1
124.188 0 1
124.303 0 1
124.419 0 1
126.852 0 1
126.968 0 1
127.083 0 1
127.199 0 1
127.315 0 1
127.431 0 1
127.547 0 1
127.663 0 1
127.779 0 1
127.895 0 1
128.011 0 1
128.127 0 1
128.243 0 1
128.359 426 20.6398
128.476 443 21.0476
128.592 461 21.4709
128.708 461 21.4709
128.825 481 21.9317
128.941 535 23.1301
129.058 520 22.8035
129.174 527 22.9565
129.291 482 21.9545
129.408 494 22.2261
129.524 527 22.9565
129.641 492 22.1811
129.758 520 22.8035
129.875 473 21.7486
129.992 513 22.6495
130.108 501 22.383
130.225 466 21.587
130.342 512 22.6274
130.459 479 21.8861
130.576 474 21.7715
130.693 433 20.8087
130.81 525 22.9129
130.928 492 22.1811
131.045 519 22.7816
131.162 619 24.8797
131.279 618 24.8596
131.396 619 24.8797
131.513 692 26.3059
131.631 682 26.1151
131.748 661 25.7099
131.865 677 26.0192
131.983 716 26.7582
132.1 737 27.1477
132.217 809 28.4429
132.335 837 28.931
132.452 820 28.6356
132.57 831 28.8271
132.687 936 30.5941
132.804 942 30.692
132.922 961 31
133.039 999 31.607
133.157 1022 31.9687
133.274 1022 31.9687
133.392 1062 32.5883
133.509 1095 33.0908
133.627 1036 32.187
133.744 1088 32.9848
133.862 1109 33.3017
133.979 983 31.3528
134.097 1057 32.5115
134.214 948 30.7896
134.332 865 29.4109
134.449 892 29.8664
134.567 1058 32.5269
134.684 1111 33.3317
134.802 1213 34.8281
134.919 1176 34.2929
135.037 1235 35.1426
135.154 1235 35.1426
135.272 1212 34.8138
135.389 1194 34.5543
135.507 1140 33.7639
135.624 1185 34.4238
135.742 1142 33.7935
135.859 1114 33.3766
135.977 1237 35.171
136.094 1338 36.5787
136.211 1327 36.428
136.329 1469 38.3275
136.446 1532 39.1408
136.564 1525 39.0512
136.681 1560 39.4968
136.798 1605 40.0625
136.915 1626 40.3237
137.033 1629 40.3609
137.15 1576 39.6989
137.267 1590 39.8748
137.384 1608 40.0999
137.502 1583 39.7869
137.619 1543 39.281
137.736 1451 38.092
137.853 1166 34.1467
137.97 1138 33.7343
138.087 1254 35.4119
138.204 1489 38.5876
138.321 1520 38.9872
138.438 1507 38.8201
138.555 1580 39.7492
138.672 1516 38.9358
138.788 1341 36.6197
138.905 1391 37.2961
139.022 1248 35.327
139.139 1174 34.2637
139.255 1068 32.6803
139.372 943 30.7083
139.488 920 30.3315
139.605 932 30.5287
139.721 937 30.6105
139.838 891 29.8496
139.954 884 29.7321
140.071 805 28.3725
140.187 784 28
140.303 703 26.5141
140.419 689 26.2488
140.535 642 25.3377
140.652 623 24.96
140.768 0 1
140.884 0 1
141 0 1
141.115 0 1
141.231 0 1
141.347 0 1
141.463 0 1
141.578 0 1
141.694 0 1
144.104 0 1
144.219 0 1
144.335 0 1
144.45 0 1
144.566 0 1
144.682 0 1
144.798 0 1
144.914 0 1
145.03 0 1
145.146 1115 33.3916
145.262 1040 32.249
145.378 1123 33.5112
145.494 1217 34.8855
145.61 1270 35.6371
145.726 1215 34.8569
145.842 1340 36.606
145.959 1321 36.3456
146.075 1346 36.6879
146.192 1409 37.5366
146.308 1405 37.4833
146.425 1353 36.7831
146.541 1146 33.8526
146.658 1051 32.4191
146.774 1046 32.3419
146.891 1238 35.1852
147.008 1408 37.5233
147.125 1484 38.5227
147.241 1625 40.3113
147.358 1627 40.3361
147.475 1595 39.9375
147.592 1604 40.05
147.709 1597 39.9625
147.826 1554 39.4208
147.943 1512 38.8844
148.06 1542 39.2683
148.177 1527 39.0768
148.294 1622 40.2741
148.411 1662 40.7676
148.528 1640 40.4969
148.645 1626 40.3237
148.762 1646 40.5709
148.88 1668 40.8412
148.997 1710 41.3521
149.114 1641 40.5093
149.231 1666 40.8167
149.349 1673 40.9023
149.466 1602 40.025
149.583 1625 40.3113
149.701 1675 40.9268
149.818 1665 40.8044
149.935 1577 39.7115
150.053 1530 39.1152
150.17 1374 37.0675
150.287 1203 34.6843
150.405 1160 34.0588
150.522 1274 35.6931
150.64 1443 37.9868
150.757 1468 38.3145
150.875 1529 39.1024
150.992 1680 40.9878
151.11 1664 40.7922
151.227 1586 39.8246
151.344 1576 39.6989
151.462 1553 39.4081
151.579 1476 38.4187
151.697 1576 39.6989
151.814 1549 39.3573
151.932 1575 39.6863
152.049 1618 40.2244
152.167 1635 40.4351
152.284 1657 40.7063
152.402 1790 42.3084
152.519 1760 41.9524
152.636 1815 42.6028
152.754 1917 43.7836
152.871 1868 43.2204
152.989 1856 43.0813
153.106 2065 45.4423
153.223 2073 45.5302
153.341 2138 46.2385
153.458 2231 47.2335
153.575 2322 48.1871
153.693 2328 48.2494
153.81 2299 47.9479
153.927 2357 48.5489
154.044 2212 47.0319
154.162 2202 46.9255
154.279 2230 47.2229
154.396 2568 50.6754
154.513 3163 56.2406
154.63 3404 58.3438
154.747 3578 59.8164
154.864 3676 60.63
154.981 3727 61.0492
155.098 3827 61.8628
155.215 3991 63.1744
155.332 4048 63.6239
155.449 4173 64.5988
155.566 4397 66.3099
155.683 4288 65.4828
155.8 4500 67.082
155.917 4496 67.0522
156.033 4654 68.2202
156.15 0 1
156.267 0 1
156.383 0 1
156.5 0 1
156.617 0 1
156.733 0 1
156.85 0 1
156.966 0 1
157.082 0 1
157.199 0 1
157.315 0 1
157.431 0 1
157.547 0 1
157.664 0 1
157.78 0 1
157.896 0 1
158.012 0 1
158.128 0 1
158.244 0 1
158.359 0 1
158.475 0 1
158.591 0 1
158.706 0 1
