
6.15755 0 1
6.2731 0 1
6.3887 0 1
6.50437 0 1
6.62009 0 1
6.73587 0 1
6.8517 0 1
6.96759 0 1
7.08353 0 1
7.19952 0 1
7.31557 0 1
7.43166 0 1
7.54781 0 1
7.664 0 1
7.78024 0 1
7.89653 0 1
8.01286 0 1
8.12924 0 1
8.24567 0 1
8.36213 0 1
8.47864 0 1
8.59519 0 1
8.71178 0 1
8.82841 0 1
8.94508 0 1
9.06179 0 1
9.17853 0 1
9.29531 0 1
9.41212 0 1
9.52897 0 1
9.64584 0 1
9.76276 0 1
9.8797 0 1
9.99667 0 1
10.1137 0 1
10.2307 0 1
10.3478 0 1
10.4648 0 1
10.5819 0 1
10.6991 0 1
10.8162 0 1
10.9334 0 1
11.0506 0 1
11.1678 0 1
11.285 0 1
11.4023 0 1
11.5196 0 1
11.6369 0 1
11.7542 0 1
11.8715 0 1
11.9888 0 1
12.1062 0 1
12.2235 0 1
12.3409 0 1
12.4582 0 1
12.5756 0 1
12.693 0 1
12.8104 0 1
12.9278 0 1
13.0452 0 1
13.1626 0 1
13.28 0 1
13.3974 0 1
13.5149 0 1
13.6323 0 1
13.7497 0 1
13.8671 0 1
13.9845 0 1
14.1019 0 1
14.2193 0 1
14.3367 0 1
14.4541 0 1
14.5714 0 1
14.6888 0 1
14.8062 0 1
14.9235 0 1
15.0408 1225 35
15.1581 1328 36.4417
15.2755 1302 36.0832
15.3927 1280 35.7771
15.51 1356 36.8239
15.6273 1306 36.1386
15.7445 1305 36.1248
15.8617 1317 36.2905
15.9789 1280 35.7771
16.0961 1203 34.6843
16.2132 1198 34.6121
16.3304 1143 33.8083
16.4475 1208 34.7563
16.5646 1108 33.2866
16.6816 1173 34.2491
16.7986 1059 32.5423
16.9156 1137 33.7194
17.0326 1130 33.6155
17.1496 1179 34.3366
17.2665 1148 33.8821
17.3833 1181 34.3657
17.5002 1151 33.9264
17.617 1150 33.9116
17.7338 1184 34.4093
17.8505 1200 34.641
17.9672 1161 34.0735
18.0839 1222 34.9571
18.2005 1183 34.3948
18.3171 1094 33.0757
18.4337 1058 32.5269
18.5502 1084 32.9242
18.6666 1176 34.2929
18.7831 1170 34.2053
18.8994 1113 33.3617
19.0158 1040 32.249
19.1321 1059 32.5423
19.2483 1024 32
19.3645 1038 32.218
19.4806 1023 31.9844
19.5967 922 30.3645
19.7128 872 29.5296
19.8288 753 27.4408
19.9447 717 26.7769
20.0606 0 1
20.1764 0 1
20.2922 0 1
20.4079 0 1
20.5236 0 1
20.6392 0 1
20.7548 0 1
20.8702 0 1
23.3078 0 1
23.4233 0 1
23.539 0 1
23.6547 0 1
23.7704 0 1
23.8862 0 1
24.0021 0 1
24.118 0 1
24.234 0 1
24.35 0 1
24.4661 499 22.3383
24.5822 577 24.0208
24.6984 620 24.8998
24.8146 736 27.1293
24.9309 825 28.7228
25.0472 926 30.4302
25.1636 1062 32.5883
25.28 1136 33.7046
25.3965 1193 34.5398
25.513 1270 35.6371
25.6296 1245 35.2846
25.7462 1282 35.805
25.8628 1263 35.5387
25.9795 1344 36.6606
26.0962 1264 35.5528
26.213 1234 35.1283
26.3298 1246 35.2987
26.4466 1173 34.2491
26.5635 1190 34.4964
26.6804 1136 33.7046
26.7973 1131 33.6303
26.9143 1028 32.0624
27.0313 982 31.3369
27.1483 955 30.9031
27.2653 1077 32.8177
27.3824 1057 32.5115
27.4996 1160 34.0588
27.6167 1083 32.909
27.7339 1077 32.8177
27.8511 1187 34.4529
27.9683 1185 34.4238
28.0855 1105 33.2415
28.2028 1173 34.2491
28.3201 1135 33.6898
28.4374 1057 32.5115
28.5547 1046 32.3419
28.6721 1022 31.9687
28.7894 1040 32.249
28.9068 985 31.3847
29.0242 1114 33.3766
29.1416 1104 33.2265
29.259 1093 33.0606
29.3764 1137 33.7194
29.4939 1059 32.5423
29.6113 1087 32.9697
29.7288 1064 32.619
29.8463 1081 32.8786
29.9638 1105 33.2415
30.0812 1040 32.249
30.1987 1137 33.7194
30.3162 1058 32.5269
30.4337 998 31.5911
30.5512 1014 31.8434
30.6687 987 31.4166
30.7862 1010 31.7805
30.9037 1123 33.5112
31.0212 1158 34.0294
31.1387 1124 33.5261
31.2562 1161 34.0735
31.3737 1154 33.9706
31.4912 1219 34.9142
31.6087 1124 33.5261
31.7262 1120 33.4664
31.8436 1040 32.249
31.9611 1068 32.6803
32.0785 1016 31.8748
32.1959 987 31.4166
32.3134 899 29.9833
32.4308 994 31.5278
32.5482 1058 32.5269
32.6655 1045 32.3265
32.7829 1047 32.3574
32.9002 979 31.289
33.0176 1024 32
33.1349 995 31.5436
33.2522 1008 31.749
33.3694 996 31.5595
33.4867 988 31.4325
33.6039 1035 32.1714
33.7211 1125 33.541
33.8383 1068 32.6803
33.9554 1036 32.187
34.0725 952 30.8545
34.1896 896 29.9333
34.3067 880 29.6648
34.4237 1064 32.619
34.5407 1095 33.0908
34.6577 1090 33.0151
34.7746 1043 32.2955
34.8915 1014 31.8434
35.0084 1012 31.8119
35.1252 1032 32.1248
35.242 1029 32.078
35.3587 1009 31.7648
35.4755 1015 31.8591
35.5921 962 31.0161
35.7088 918 30.2985
35.8254 805 28.3725
35.9419 906 30.0998
36.0584 877 29.6142
36.1749 861 29.3428
36.2913 949 30.8058
36.4077 931 30.5123
36.524 863 29.3769
36.6403 858 29.2916
36.7565 839 28.9655
36.8727 750 27.3861
36.9889 690 26.2679
37.1049 664 25.7682
37.221 0 1
37.3369 0 1
37.4529 0 1
37.5687 0 1
37.6845 0 1
37.8003 0 1
37.916 0 1
38.0316 0 1
38.1472 0 1
40.5851 0 1
40.7008 0 1
40.8164 0 1
40.9322 0 1
41.048 0 1
41.1639 0 1
41.2798 0 1
41.3958 0 1
41.5118 0 1
41.6279 0 1
41.744 386 19.6469
41.8602 537 23.1733
41.9765 568 23.8328
42.0928 658 25.6515
42.2091 711 26.6646
42.3255 721 26.8514
42.4419 772 27.7849
42.5584 764 27.6405
42.675 789 28.0891
42.7915 774 27.8209
42.9081 736 27.1293
43.0248 704 26.533
43.1415 715 26.7395
43.2582 769 27.7308
43.375 738 27.1662
43.4918 833 28.8617
43.6087 758 27.5318
43.7256 800 28.2843
43.8425 821 28.6531
43.9595 701 26.4764
44.0765 760 27.5681
44.1935 747 27.3313
44.3106 745 27.2947
44.4277 715 26.7395
44.5448 656 25.6125
44.6619 697 26.4008
44.7791 715 26.7395
44.8963 772 27.7849
45.0136 765 27.6586
45.1308 798 28.2489
45.2481 826 28.7402
45.3654 801 28.3019
45.4827 831 28.8271
45.6001 834 28.8791
45.7174 864 29.3939
45.8348 852 29.189
45.9522 879 29.6479
46.0697 840 28.9828
46.1871 908 30.133
46.3046 864 29.3939
46.422 761 27.5862
46.5395 730 27.0185
46.657 733 27.074
46.7745 734 27.0924
46.892 835 28.8964
47.0096 857 29.2746
47.1271 849 29.1376
47.2446 902 30.0333
47.3622 901 30.0167
47.4797 914 30.2324
47.5973 870 29.4958
47.7149 834 28.8791
47.8324 820 28.6356
47.95 802 28.3196
48.0675 777 27.8747
48.1851 746 27.313
48.3027 786 28.0357
48.4202 785 28.0179
48.5378 868 29.4618
48.6554 837 28.931
48.7729 816 28.5657
48.8904 873 29.5466
49.008 850 29.1548
49.1255 814 28.5307
49.243 844 29.0517
49.3605 896 29.9333
49.478 845 29.0689
49.5955 822 28.6705
49.713 842 29.0172
49.8304 779 27.9106
49.9479 707 26.5895
50.0653 715 26.7395
50.1827 664 25.7682
50.3001 736 27.1293
50.4175 739 27.1846
50.5348 744 27.2764
50.6521 791 28.1247
50.7694 735 27.1109
50.8867 772 27.7849
51.004 772 27.7849
51.1212 734 27.0924
51.2384 736 27.1293
51.3556 730 27.0185
51.4727 676 26
51.5899 666 25.807
51.707 646 25.4165
51.824 703 26.5141
51.9411 713 26.7021
52.0581 725 26.9258
52.175 709 26.6271
52.2919 719 26.8142
52.4088 748 27.3496
52.5257 677 26.0192
52.6425 727 26.9629
52.7593 743 27.258
52.876 726 26.9444
52.9927 708 26.6083
53.1094 740 27.2029
53.226 763 27.6225
53.3426 677 26.0192
53.4591 652 25.5343
53.5756 583 24.1454
53.692 584 24.1661
53.8084 500 22.3607
53.9248 522 22.8473
54.0411 520 22.8035
54.1573 516 22.7156
54.2735 0 1
54.3896 0 1
54.5057 0 1
54.6217 0 1
54.7377 0 1
54.8537 0 1
54.9695 0 1
55.0853 0 1
55.2011 0 1
55.3168 0 1
55.4324 0 1
57.824 0 1
57.9396 0 1
58.0553 0 1
58.1711 0 1
58.2869 0 1
58.4028 0 1
58.5187 0 1
58.6347 0 1
58.7508 0 1
58.8669 0 1
58.983 2187 46.7654
59.0992 2661 51.5849
59.2155 2800 52.915
59.3318 2875 53.619
59.4482 2791 52.8299
59.5646 2690 51.8652
59.681 2580 50.7937
59.7975 2526 50.2593
59.9141 2261 47.55
60.0306 2079 45.5961
60.1473 1802 42.45
60.2639 1588 39.8497
60.3807 1635 40.4351
60.4974 1573 39.6611
60.6142 1581 39.7618
60.731 1651 40.6325
60.8479 1617 40.2119
60.9648 1568 39.598
61.0818 1533 39.1535
61.1987 1548 39.3446
61.3158 1577 39.7115
61.4328 1441 37.9605
61.5499 1407 37.51
61.667 1433 37.855
61.7841 1369 37
61.9013 1306 36.1386
62.0185 1178 34.322
62.1357 1116 33.4066
62.253 1085 32.9393
62.3702 1089 33
62.4875 1027 32.0468
62.6049 1032 32.1248
62.7222 977 31.257
62.8396 979 31.289
62.9569 995 31.5436
63.0743 981 31.3209
63.1918 928 30.4631
63.3092 929 30.4795
63.4267 847 29.1033
63.5441 861 29.3428
63.6616 790 28.1069
63.7791 843 29.0345
63.8966 795 28.1957
64.0142 766 27.6767
64.1317 823 28.688
64.2492 816 28.5657
64.3668 810 28.4605
64.4843 853 29.2062
64.6019 748 27.3496
64.7195 786 28.0357
64.837 788 28.0713
64.9546 813 28.5132
65.0722 812 28.4956
65.1898 758 27.5318
65.3074 863 29.3769
65.4249 822 28.6705
65.5425 754 27.4591
65.6601 719 26.8142
65.7777 727 26.9629
65.8952 699 26.4386
66.0128 679 26.0576
66.1304 726 26.9444
66.2479 778 27.8927
66.3655 797 28.2312
66.483 817 28.5832
66.6005 809 28.4429
66.718 793 28.1603
66.8355 794 28.178
66.953 779 27.9106
67.0705 775 27.8388
67.1879 789 28.0891
67.3054 747 27.3313
67.4228 727 26.9629
67.5402 734 27.0924
67.6576 750 27.3861
67.7749 749 27.3679
67.8923 770 27.7489
68.0096 799 28.2666
68.1269 795 28.1957
68.2442 776 27.8568
68.3614 764 27.6405
68.4787 795 28.1957
68.5958 746 27.313
68.713 785 28.0179
68.8302 815 28.5482
68.9473 795 28.1957
69.0643 738 27.1662
69.1814 772 27.7849
69.2984 717 26.7769
69.4154 744 27.2764
69.5323 716 26.7582
69.6492 666 25.807
69.7661 684 26.1534
69.8829 765 27.6586
69.9997 772 27.7849
70.1165 722 26.8701
70.2332 759 27.55
70.3499 726 26.9444
70.4665 666 25.807
70.5831 649 25.4755
70.6996 623 24.96
70.8161 529 23
70.9326 505 22.4722
71.049 446 21.1187
71.1653 429 20.7123
71.2817 414 20.347
71.3979 389 19.7231
71.5141 347 18.6279
71.6303 358 18.9209
71.7464 309 17.5784
71.8624 0 1
71.9784 0 1
72.0944 0 1
72.2102 0 1
72.3261 0 1
72.4418 0 1
72.5575 0 1
72.6732 0 1
75.1054 0 1
75.2209 0 1
75.3365 0 1
75.4521 0 1
75.5678 0 1
75.6835 0 1
75.7993 0 1
75.9151 0 1
76.031 0 1
76.147 422 20.5426
76.263 435 20.8567
76.3791 493 22.2036
76.4952 578 24.0416
76.6113 608 24.6577
76.7276 652 25.5343
76.8438 592 24.3311
76.9601 660 25.6905
77.0765 622 24.9399
77.1929 704 26.533
77.3093 614 24.779
77.4258 665 25.7876
77.5423 666 25.807
77.6589 637 25.2389
77.7755 663 25.7488
77.8921 688 26.2298
78.0088 680 26.0768
78.1256 610 24.6982
78.2423 596 24.4131
78.3591 587 24.2281
78.4759 574 23.9583
78.5928 576 24
78.7097 619 24.8797
78.8266 644 25.3772
78.9436 627 25.04
79.0606 631 25.1197
79.1776 651 25.5147
79.2946 647 25.4362
79.4117 598 24.454
79.5288 639 25.2784
79.6459 603 24.5561
79.7631 689 26.2488
79.8802 618 24.8596
79.9974 624 24.98
80.1147 652 25.5343
80.2319 651 25.5147
80.3491 616 24.8193
80.4664 688 26.2298
80.5837 647 25.4362
80.701 683 26.1343
80.8183 643 25.3574
80.9357 622 24.9399
81.053 662 25.7294
81.1704 673 25.9422
81.2877 699 26.4386
81.4051 723 26.8887
81.5225 693 26.3249
81.6399 662 25.7294
81.7573 640 25.2982
81.8747 620 24.8998
81.9922 598 24.454
82.1096 607 24.6374
82.227 569 23.8537
82.3444 617 24.8395
82.4619 642 25.3377
82.5793 647 25.4362
82.6967 676 26
82.8142 662 25.7294
82.9316 715 26.7395
83.049 696 26.3818
83.1664 644 25.3772
83.2838 650 25.4951
83.4012 610 24.6982
83.5186 671 25.9037
83.636 632 25.1396
83.7534 653 25.5539
83.8708 670 25.8844
83.9881 712 26.6833
84.1055 660 25.6905
84.2228 708 26.6083
84.3401 692 26.3059
84.4575 712 26.6833
84.5747 673 25.9422
84.692 656 25.6125
84.8093 655 25.593
84.9265 672 25.923
85.0437 723 26.8887
85.1609 666 25.807
85.2781 681 26.096
85.3952 666 25.807
85.5123 693 26.3249
85.6294 626 25.02
85.7465 653 25.5539
85.8636 608 24.6577
85.9806 604 24.5764
86.0976 657 25.632
86.2145 693 26.3249
86.3315 726 26.9444
86.4484 678 26.0384
86.5652 716 26.7582
86.682 700 26.4575
86.7988 673 25.9422
86.9156 691 26.2869
87.0323 592 24.3311
87.149 682 26.1151
87.2657 619 24.8797
87.3823 677 26.0192
87.4988 652 25.5343
87.6154 651 25.5147
87.7318 615 24.7992
87.8483 596 24.4131
87.9647 601 24.5153
88.081 575 23.9792
88.1973 531 23.0434
88.3136 462 21.4942
88.4298 414 20.347
88.546 403 20.0749
88.6621 398 19.9499
88.7781 379 19.4679
88.8942 0 1
89.0101 0 1
89.126 0 1
89.2419 0 1
89.3577 0 1
89.4734 0 1
89.5891 0 1
89.7047 0 1
89.8203 0 1
89.9358 0 1
92.3269 0 1
92.4424 0 1
92.558 0 1
92.6736 0 1
92.7893 0 1
92.905 0 1
93.0208 0 1
93.1366 0 1
93.2525 0 1
93.3685 0 1
93.4845 0 1
93.6005 546 23.3666
93.7167 587 24.2281
93.8328 623 24.96
93.949 663 25.7488
94.0653 693 26.3249
94.1816 704 26.533
94.2979 720 26.8328
94.4143 662 25.7294
94.5307 706 26.5707
94.6472 696 26.3818
94.7637 669 25.865
94.8803 661 25.7099
94.9969 689 26.2488
95.1135 639 25.2784
95.2302 683 26.1343
95.3469 730 27.0185
95.4637 732 27.0555
95.5805 781 27.9464
95.6973 713 26.7021
95.8142 717 26.7769
95.9311 724 26.9072
96.048 661 25.7099
96.1649 655 25.593
96.2819 674 25.9615
96.3989 737 27.1477
96.516 677 26.0192
96.633 718 26.7955
96.7501 750 27.3861
96.8673 746 27.313
96.9844 733 27.074
97.1016 684 26.1534
97.2188 709 26.6271
97.336 709 26.6271
97.4532 656 25.6125
97.5704 740 27.2029
97.6877 673 25.9422
97.805 707 26.5895
97.9223 718 26.7955
98.0396 677 26.0192
98.1569 734 27.0924
98.2743 714 26.7208
98.3916 699 26.4386
98.509 647 25.4362
98.6264 694 26.3439
98.7438 673 25.9422
98.8612 714 26.7208
98.9786 730 27.0185
99.096 797 28.2312
99.2134 750 27.3861
99.3308 822 28.6705
99.4482 762 27.6043
99.5656 699 26.4386
99.6831 711 26.6646
99.8005 741 27.2213
99.9179 748 27.3496
100.035 713 26.7021
100.153 772 27.7849
100.27 775 27.8388
100.388 702 26.4953
100.505 763 27.6225
100.622 740 27.2029
100.74 735 27.1109
100.857 715 26.7395
100.975 721 26.8514
101.092 722 26.8701
101.209 776 27.8568
101.327 798 28.2489
101.444 728 26.9815
101.561 747 27.3313
101.679 729 27
101.796 696 26.3818
101.913 767 27.6948
102.03 748 27.3496
102.148 717 26.7769
102.265 742 27.2397
102.382 766 27.6767
102.499 775 27.8388
102.616 817 28.5832
102.733 753 27.4408
102.851 811 28.4781
102.968 870 29.4958
103.085 743 27.258
103.202 748 27.3496
103.319 746 27.313
103.436 761 27.5862
103.552 788 28.0713
103.669 863 29.3769
103.786 808 28.4253
103.903 820 28.6356
104.02 741 27.2213
104.137 785 28.0179
104.253 779 27.9106
104.37 724 26.9072
104.487 794 28.178
104.603 780 27.9285
104.72 758 27.5318
104.836 760 27.5681
104.953 788 28.0713
105.069 677 26.0192
105.186 668 25.8457
105.302 696 26.3818
105.418 578 24.0416
105.535 566 23.7908
105.651 499 22.3383
105.767 517 22.7376
105.883 466 21.587
105.999 406 20.1494
106.115 0 1
106.231 0 1
106.347 0 1
106.463 0 1
106.579 0 1
106.694 0 1
106.81 0 1
106.926 0 1
107.041 0 1
107.157 0 1
109.576 0 1
109.692 0 1
109.807 0 1
109.923 0 1
110.039 0 1
110.155 0 1
110.27 0 1
110.386 0 1
110.502 0 1
110.618 360 18.9737
110.735 442 21.0238
110.851 519 22.7816
110.967 644 25.3772
111.083 618 24.8596
111.199 695 26.3629
111.316 728 26.9815
111.432 776 27.8568
111.549 771 27.7669
111.665 710 26.6458
111.782 759 27.55
111.898 727 26.9629
112.015 740 27.2029
112.132 727 26.9629
112.248 730 27.0185
112.365 788 28.0713
112.482 774 27.8209
112.599 712 26.6833
112.716 712 26.6833
112.832 763 27.6225
112.949 734 27.0924
113.066 754 27.4591
113.183 713 26.7021
113.3 702 26.4953
113.417 709 26.6271
113.534 678 26.0384
113.652 696 26.3818
113.769 724 26.9072
113.886 727 26.9629
114.003 689 26.2488
114.12 670 25.8844
114.238 720 26.8328
114.355 675 25.9808
114.472 652 25.5343
114.589 710 26.6458
114.707 720 26.8328
114.824 717 26.7769
114.942 729 27
115.059 717 26.7769
115.176 713 26.7021
115.294 703 26.5141
115.411 684 26.1534
115.529 669 25.865
115.646 657 25.632
115.764 731 27.037
115.881 733 27.074
115.999 725 26.9258
116.116 723 26.8887
116.234 772 27.7849
116.351 672 25.923
116.469 658 25.6515
116.586 665 25.7876
116.704 670 25.8844
116.821 688 26.2298
116.939 654 25.5734
117.056 662 25.7294
117.174 636 25.219
117.291 690 26.2679
117.409 653 25.5539
117.526 622 24.9399
117.644 665 25.7876
117.761 660 25.6905
117.879 605 24.5967
117.996 623 24.96
118.114 634 25.1794
118.231 675 25.9808
118.349 656 25.6125
118.466 712 26.6833
118.584 666 25.807
118.701 715 26.7395
118.819 690 26.2679
118.936 676 26
119.053 602 24.5357
119.171 615 24.7992
119.288 675 25.9808
119.405 707 26.5895
119.523 661 25.7099
119.64 661 25.7099
119.757 686 26.1916
119.875 624 24.98
119.992 702 26.4953
120.109 703 26.5141
120.226 676 26
120.343 634 25.1794
120.46 640 25.2982
120.578 616 24.8193
120.695 602 24.5357
120.812 651 25.5147
120.929 640 25.2982
121.046 650 25.4951
121.163 620 24.8998
121.279 611 24.7184
121.396 610 24.6982
121.513 558 23.622
121.63 564 23.7487
121.747 599 24.4745
121.863 531 23.0434
121.98 536 23.1517
122.097 588 24.2487
122.213 541 23.2594
122.33 520 22.8035
122.446 506 22.4944
122.563 464 21.5407
122.679 462 21.4942
122.795 413 20.3224
122.912 381 19.5192
123.028 357 18.8944
123.144 356 18.868
123.26 333 18.2483
123.377 0 1
123.493 0 1
123.609 0 1
123.725 0 1
123.84 0 1
123.956 0 1
124.072 0 1
124.188 0 1
124.303 0 1
124.419 0 1
126.852 0 1
126.968 0 1
127.083 0 1
127.199 0 1
127.315 0 1
127.431 0 1
127.547 0 1
127.663 0 1
127.779 0 1
127.895 0 1
128.011 0 1
128.127 0 1
128.243 0 1
128.359 682 26.1151
128.476 657 25.632
128.592 703 26.5141
128.708 709 26.6271
128.825 718 26.7955
128.941 791 28.1247
129.058 813 28.5132
129.174 761 27.5862
129.291 761 27.5862
129.408 743 27.258
129.524 776 27.8568
129.641 765 27.6586
129.758 686 26.1916
129.875 711 26.6646
129.992 775 27.8388
130.108 804 28.3549
130.225 740 27.2029
130.342 791 28.1247
130.459 726 26.9444
130.576 775 27.8388
130.693 763 27.6225
130.81 768 27.7128
130.928 807 28.4077
131.045 855 29.2404
131.162 846 29.0861
131.279 952 30.8545
131.396 965 31.0644
131.513 1030 32.0936
131.631 1014 31.8434
131.748 1061 32.573
131.865 1025 32.0156
131.983 1112 33.3467
132.1 1083 32.909
132.217 1204 34.6987
132.335 1251 35.3695
132.452 1265 35.5668
132.57 1259 35.4824
132.687 1312 36.2215
132.804 1363 36.9188
132.922 1413 37.5899
133.039 1433 37.855
133.157 1382 37.1753
133.274 1416 37.6298
133.392 1455 38.1445
133.509 1380 37.1484
133.627 1411 37.5633
133.744 1380 37.1484
133.862 1365 36.9459
133.979 1339 36.5923
134.097 1339 36.5923
134.214 1203 34.6843
134.332 1159 34.0441
134.449 1261 35.5106
134.567 1320 36.3318
134.684 1282 35.805
134.802 1448 38.0526
134.919 1491 38.6135
135.037 1512 38.8844
135.154 1415 37.6165
135.272 1404 37.47
135.389 1397 37.3765
135.507 1310 36.1939
135.624 1379 37.1349
135.742 1463 38.2492
135.859 1411 37.5633
135.977 1525 39.0512
136.094 1474 38.3927
136.211 1408 37.5233
136.329 1457 38.1707
136.446 1426 37.7624
136.564 1443 37.9868
136.681 1397 37.3765
136.798 1406 37.4967
136.915 1402 37.4433
137.033 1398 37.3898
137.15 1415 37.6165
137.267 1356 36.8239
137.384 1301 36.0694
137.502 1272 35.6651
137.619 1360 36.8782
137.736 1240 35.2136
137.853 1134 33.6749
137.97 1147 33.8674
138.087 1134 33.6749
138.204 1258 35.4683
138.321 1225 35
138.438 1326 36.4143
138.555 1348 36.7151
138.672 1354 36.7967
138.788 1396 37.3631
138.905 1369 37
139.022 1273 35.6791
139.139 1176 34.2929
139.255 1109 33.3017
139.372 1079 32.8481
139.488 1092 33.0454
139.605 1041 32.2645
139.721 1004 31.686
139.838 1016 31.8748
139.954 898 29.9666
140.071 867 29.4449
140.187 837 28.931
140.303 822 28.6705
140.419 730 27.0185
140.535 763 27.6225
140.652 699 26.4386
140.768 0 1
140.884 0 1
141 0 1
141.115 0 1
141.231 0 1
141.347 0 1
141.463 0 1
141.578 0 1
141.694 0 1
144.104 0 1
144.219 0 1
144.335 0 1
144.45 0 1
144.566 0 1
144.682 0 1
144.798 0 1
144.914 0 1
145.03 0 1
145.146 4107 64.0859
145.262 4223 64.9846
145.378 4219 64.9538
145.494 4153 64.4438
145.61 4050 63.6396
145.726 3884 62.3217
145.842 3855 62.0886
145.959 3844 62
146.075 3578 59.8164
146.192 3586 59.8832
146.308 3446 58.7026
146.425 3262 57.1139
146.541 3029 55.0364
146.658 2725 52.2015
146.774 2583 50.8232
146.891 2510 50.0999
147.008 2590 50.892
147.125 2870 53.5724
147.241 2975 54.5436
147.358 3126 55.9106
147.475 3146 56.0892
147.592 3219 56.7362
147.709 3269 57.1752
147.826 3204 56.6039
147.943 3095 55.6327
148.06 3043 55.1634
148.177 2906 53.9073
148.294 3019 54.9454
148.411 3149 56.116
148.528 3094 55.6237
148.645 3037 55.109
148.762 3061 55.3263
148.88 3021 54.9636
148.997 3059 55.3082
149.114 3030 55.0454
149.231 2876 53.6284
149.349 3024 54.9909
149.466 2928 54.111
149.583 3043 55.1634
149.701 2979 54.5802
149.818 2873 53.6004
149.935 2857 53.4509
150.053 2742 52.3641
150.17 2715 52.1057
150.287 2588 50.8724
150.405 2508 50.0799
150.522 2375 48.734
150.64 2308 48.0416
150.757 2467 49.6689
150.875 2497 49.97
150.992 2443 49.4267
151.11 2608 51.0686
151.227 2509 50.0899
151.344 2682 51.788
151.462 2607 51.0588
151.579 2335 48.3218
151.697 2309 48.0521
151.814 2369 48.6724
151.932 2363 48.6107
152.049 2437 49.366
152.167 2465 49.6488
152.284 2518 50.1797
152.402 2476 49.7594
152.519 2423 49.224
152.636 2504 50.04
152.754 2475 49.7494
152.871 2357 48.5489
152.989 2393 48.9183
153.106 2327 48.239
153.223 2446 49.4571
153.341 2311 48.0729
153.458 2282 47.7703
153.575 2207 46.9787
153.693 2069 45.4863
153.81 2055 45.3321
153.927 2020 44.9444
154.044 1947 44.1248
154.162 1870 43.2435
154.279 1743 41.7493
154.396 1806 42.4971
154.513 1843 42.9302
154.63 1899 43.5775
154.747 2021 44.9555
154.864 1981 44.5084
154.981 1910 43.7035
155.098 1776 42.1426
155.215 1810 42.5441
155.332 1723 41.509
155.449 1723 41.509
155.566 1809 42.5323
155.683 1871 43.2551
155.8 1844 42.9418
155.917 1817 42.6263
156.033 1876 43.3128
156.15 0 1
156.267 0 1
156.383 0 1
156.5 0 1
156.617 0 1
156.733 0 1
156.85 0 1
156.966 0 1
157.082 0 1
157.199 0 1
157.315 0 1
157.431 0 1
157.547 0 1
157.664 0 1
157.78 0 1
157.896 0 1
158.012 0 1
158.128 0 1
158.244 0 1
158.359 0 1
158.475 0 1
158.591 0 1
158.706 0 1
