
6.15755 0 1
6.2731 0 1
6.3887 0 1
6.50437 0 1
6.62009 0 1
6.73587 0 1
6.8517 0 1
6.96759 0 1
7.08353 0 1
7.19952 0 1
7.31557 0 1
7.43166 0 1
7.54781 0 1
7.664 0 1
7.78024 0 1
7.89653 0 1
8.01286 0 1
8.12924 0 1
8.24567 0 1
8.36213 0 1
8.47864 0 1
8.59519 0 1
8.71178 0 1
8.82841 0 1
8.94508 0 1
9.06179 0 1
9.17853 0 1
9.29531 0 1
9.41212 0 1
9.52897 0 1
9.64584 0 1
9.76276 0 1
9.8797 0 1
9.99667 0 1
10.1137 0 1
10.2307 0 1
10.3478 0 1
10.4648 0 1
10.5819 0 1
10.6991 0 1
10.8162 0 1
10.9334 0 1
11.0506 0 1
11.1678 0 1
11.285 0 1
11.4023 0 1
11.5196 0 1
11.6369 0 1
11.7542 0 1
11.8715 0 1
11.9888 0 1
12.1062 0 1
12.2235 0 1
12.3409 0 1
12.4582 0 1
12.5756 0 1
12.693 0 1
12.8104 0 1
12.9278 0 1
13.0452 0 1
13.1626 0 1
13.28 0 1
13.3974 0 1
13.5149 0 1
13.6323 0 1
13.7497 0 1
13.8671 0 1
13.9845 0 1
14.1019 0 1
14.2193 0 1
14.3367 0 1
14.4541 0 1
14.5714 0 1
14.6888 0 1
14.8062 0 1
14.9235 0 1
15.0408 0 0
15.1581 0 0
15.2755 0 0
15.3927 0 0
15.51 0 0
15.6273 0 0
15.7445 0 0
15.8617 0 0
15.9789 0 0
16.0961 0 0
16.2132 0 0
16.3304 0 0
16.4475 0 0
16.5646 0 0
16.6816 0 0
16.7986 0 0
16.9156 0 0
17.0326 0 0
17.1496 0 0
17.2665 0 0
17.3833 0 0
17.5002 0 0
17.617 0 0
17.7338 0 0
17.8505 0 0
17.9672 0 0
18.0839 0 0
18.2005 0 0
18.3171 0 0
18.4337 0 0
18.5502 0 0
18.6666 0 0
18.7831 0 0
18.8994 0 0
19.0158 0 0
19.1321 0 0
19.2483 0 0
19.3645 0 0
19.4806 0 0
19.5967 0 0
19.7128 0 0
19.8288 0 0
19.9447 0 0
20.0606 0 1
20.1764 0 1
20.2922 0 1
20.4079 0 1
20.5236 0 1
20.6392 0 1
20.7548 0 1
20.8702 0 1
23.3078 0 1
23.4233 0 1
23.539 0 1
23.6547 0 1
23.7704 0 1
23.8862 0 1
24.0021 0 1
24.118 0 1
24.234 0 1
24.35 0 1
24.4661 1147 33.8674
24.5822 1211 34.7994
24.6984 1247 35.3129
24.8146 1344 36.6606
24.9309 1522 39.0128
25.0472 1555 39.4335
25.1636 1842 42.9185
25.28 1926 43.8862
25.3965 2179 46.6798
25.513 2321 48.1768
25.6296 2411 49.1019
25.7462 2605 51.0392
25.8628 2743 52.3737
25.9795 2775 52.6783
26.0962 2792 52.8394
26.213 2775 52.6783
26.3298 2622 51.2055
26.4466 2682 51.788
26.5635 2662 51.5946
26.6804 2588 50.8724
26.7973 2597 50.9608
26.9143 2609 51.0784
27.0313 2553 50.5272
27.1483 2530 50.2991
27.2653 2646 51.4393
27.3824 2619 51.1762
27.4996 2662 51.5946
27.6167 2681 51.7784
27.7339 2570 50.6952
27.8511 2438 49.3761
27.9683 2338 48.3529
28.0855 2272 47.6655
28.2028 2153 46.4004
28.3201 2024 44.9889
28.4374 1944 44.0908
28.5547 2019 44.9333
28.6721 2107 45.9021
28.7894 2390 48.8876
28.9068 2381 48.7955
29.0242 2405 49.0408
29.1416 2379 48.775
29.259 2275 47.697
29.3764 2473 49.7293
29.4939 2389 48.8774
29.6113 2439 49.3862
29.7288 2325 48.2183
29.8463 2433 49.3254
29.9638 2437 49.366
30.0812 2459 49.5883
30.1987 2451 49.5076
30.3162 2500 50
30.4337 2489 49.8899
30.5512 2509 50.0899
30.6687 2522 50.2195
30.7862 2516 50.1597
30.9037 2544 50.4381
31.0212 2546 50.4579
31.1387 2473 49.7293
31.2562 2484 49.8397
31.3737 2386 48.8467
31.4912 2301 47.9687
31.6087 2176 46.6476
31.7262 2076 45.5631
31.8436 1888 43.4511
31.9611 1881 43.3705
32.0785 2006 44.7884
32.1959 2038 45.1442
32.3134 2229 47.2123
32.4308 2345 48.4252
32.5482 2258 47.5184
32.6655 2346 48.4355
32.7829 2263 47.571
32.9002 2237 47.2969
33.0176 2223 47.1487
33.1349 2292 47.8748
33.2522 2262 47.5605
33.3694 2262 47.5605
33.4867 2359 48.5695
33.6039 2314 48.1041
33.7211 2328 48.2494
33.8383 2398 48.9694
33.9554 2385 48.8365
34.0725 2392 48.9081
34.1896 2389 48.8774
34.3067 2472 49.7192
34.4237 2435 49.3457
34.5407 2499 49.99
34.6577 2527 50.2693
34.7746 2447 49.4672
34.8915 2362 48.6004
35.0084 2337 48.3425
35.1252 2273 47.676
35.242 2177 46.6583
35.3587 2145 46.3141
35.4755 1881 43.3705
35.5921 1754 41.8808
35.7088 1787 42.2729
35.8254 1817 42.6263
35.9419 1866 43.1972
36.0584 2092 45.7384
36.1749 2145 46.3141
36.2913 2102 45.8476
36.4077 2045 45.2217
36.524 2029 45.0444
36.6403 1959 44.2606
36.7565 1925 43.8748
36.8727 1879 43.3474
36.9889 1734 41.6413
37.1049 1687 41.0731
37.221 0 1
37.3369 0 1
37.4529 0 1
37.5687 0 1
37.6845 0 1
37.8003 0 1
37.916 0 1
38.0316 0 1
38.1472 0 1
40.5851 0 1
40.7008 0 1
40.8164 0 1
40.9322 0 1
41.048 0 1
41.1639 0 1
41.2798 0 1
41.3958 0 1
41.5118 0 1
41.6279 0 1
41.744 1068 32.6803
41.8602 1179 34.3366
41.9765 1222 34.9571
42.0928 1324 36.3868
42.2091 1433 37.855
42.3255 1464 38.2623
42.4419 1516 38.9358
42.5584 1676 40.939
42.675 1673 40.9023
42.7915 1754 41.8808
42.9081 1928 43.909
43.0248 1960 44.2719
43.1415 2099 45.8148
43.2582 2031 45.0666
43.375 2080 45.607
43.4918 2061 45.3982
43.6087 2135 46.2061
43.7256 2091 45.7275
43.8425 2153 46.4004
43.9595 2088 45.6946
44.0765 2059 45.3762
44.1935 1937 44.0114
44.3106 1800 42.4264
44.4277 1689 41.0974
44.5448 1653 40.6571
44.6619 1754 41.8808
44.7791 1829 42.7668
44.8963 1929 43.9204
45.0136 2010 44.833
45.1308 1956 44.2267
45.2481 1994 44.6542
45.3654 1933 43.9659
45.4827 1881 43.3705
45.6001 1848 42.9884
45.7174 1880 43.359
45.8348 1976 44.4522
45.9522 1916 43.7721
46.0697 1966 44.3396
46.1871 1907 43.6692
46.3046 1981 44.5084
46.422 2018 44.9222
46.5395 2118 46.0217
46.657 2145 46.3141
46.7745 2212 47.0319
46.892 2268 47.6235
47.0096 2191 46.8081
47.1271 2248 47.4131
47.2446 2259 47.5289
47.3622 2189 46.7868
47.4797 2105 45.8803
47.5973 2183 46.7226
47.7149 2109 45.9239
47.8324 1915 43.7607
47.95 1812 42.5676
48.0675 1756 41.9047
48.1851 1699 41.2189
48.3027 1857 43.0929
48.4202 1894 43.5201
48.5378 1950 44.1588
48.6554 1941 44.0568
48.7729 2002 44.7437
48.8904 2029 45.0444
49.008 1896 43.5431
49.1255 1806 42.4971
49.243 1818 42.638
49.3605 1896 43.5431
49.478 1841 42.9069
49.5955 1915 43.7607
49.713 1902 43.6119
49.8304 1982 44.5197
49.9479 2027 45.0222
50.0653 2044 45.2106
50.1827 2113 45.9674
50.3001 2237 47.2969
50.4175 2282 47.7703
50.5348 2230 47.2229
50.6521 2225 47.1699
50.7694 2310 48.0625
50.8867 2244 47.3709
51.004 2260 47.5395
51.1212 2252 47.4552
51.2384 2182 46.7119
51.3556 2047 45.2438
51.4727 1982 44.5197
51.5899 1776 42.1426
51.707 1708 41.328
51.824 1789 42.2966
51.9411 1964 44.317
52.0581 1936 44
52.175 1978 44.4747
52.2919 1876 43.3128
52.4088 1890 43.4741
52.5257 1746 41.7852
52.6425 1776 42.1426
52.7593 1707 41.3159
52.876 1755 41.8927
52.9927 1760 41.9524
53.1094 1704 41.2795
53.226 1723 41.509
53.3426 1685 41.0488
53.4591 1663 40.7799
53.5756 1751 41.845
53.692 1931 43.9431
53.8084 1832 42.8019
53.9248 1837 42.8602
54.0411 1715 41.4126
54.1573 1640 40.4969
54.2735 0 1
54.3896 0 1
54.5057 0 1
54.6217 0 1
54.7377 0 1
54.8537 0 1
54.9695 0 1
55.0853 0 1
55.2011 0 1
55.3168 0 1
55.4324 0 1
57.824 0 1
57.9396 0 1
58.0553 0 1
58.1711 0 1
58.2869 0 1
58.4028 0 1
58.5187 0 1
58.6347 0 1
58.7508 0 1
58.8669 0 1
58.983 1381 37.1618
59.0992 1517 38.9487
59.2155 1713 41.3884
59.3318 1831 42.7902
59.4482 2017 44.911
59.5646 2116 46
59.681 2301 47.9687
59.7975 2257 47.5079
59.9141 2370 48.6826
60.0306 2217 47.085
60.1473 2179 46.6798
60.2639 2108 45.913
60.3807 2019 44.9333
60.4974 1966 44.3396
60.6142 2110 45.9347
60.731 2228 47.2017
60.8479 2236 47.2864
60.9648 2155 46.422
61.0818 2159 46.465
61.1987 2264 47.5815
61.3158 2139 46.2493
61.4328 2103 45.8585
61.5499 2141 46.2709
61.667 2004 44.7661
61.7841 2106 45.8912
61.9013 2092 45.7384
62.0185 2153 46.4004
62.1357 2270 47.6445
62.253 2354 48.518
62.3702 2404 49.0306
62.4875 2554 50.5371
62.6049 2709 52.0481
62.7222 2747 52.4118
62.8396 2881 53.6749
62.9569 3009 54.8544
63.0743 2967 54.4702
63.1918 2941 54.231
63.3092 2989 54.6717
63.4267 2888 53.7401
63.5441 2741 52.3546
63.6616 2527 50.2693
63.7791 2363 48.6107
63.8966 2246 47.392
64.0142 2326 48.2286
64.1317 2168 46.5618
64.2492 2181 46.7012
64.3668 2159 46.465
64.4843 2082 45.6289
64.6019 2225 47.1699
64.7195 2116 46
64.837 2053 45.31
64.9546 1959 44.2606
65.0722 2051 45.288
65.1898 2009 44.8219
65.3074 2027 45.0222
65.4249 2050 45.2769
65.5425 2029 45.0444
65.6601 2082 45.6289
65.7777 2247 47.4025
65.8952 2380 48.7852
66.0128 2512 50.1199
66.1304 2645 51.4296
66.2479 2736 52.3068
66.3655 2932 54.1479
66.483 2855 53.4322
66.6005 2956 54.3691
66.718 2922 54.0555
66.8355 2923 54.0648
66.953 2788 52.8015
67.0705 2687 51.8363
67.1879 2524 50.2394
67.3054 2440 49.3964
67.4228 2289 47.8435
67.5402 2084 45.6508
67.6576 1932 43.9545
67.7749 1961 44.2832
67.8923 1931 43.9431
68.0096 2039 45.1553
68.1269 2066 45.4533
68.2442 2137 46.2277
68.3614 2107 45.9021
68.4787 2035 45.111
68.5958 2037 45.1331
68.713 2029 45.0444
68.8302 2010 44.833
68.9473 1980 44.4972
69.0643 1934 43.9773
69.1814 1931 43.9431
69.2984 1788 42.2847
69.4154 1999 44.7102
69.5323 2125 46.0977
69.6492 2196 46.8615
69.7661 2317 48.1352
69.8829 2523 50.2295
69.9997 2526 50.2593
70.1165 2472 49.7192
70.2332 2558 50.5767
70.3499 2433 49.3254
70.4665 2264 47.5815
70.5831 2335 48.3218
70.6996 2142 46.2817
70.8161 1990 44.6094
70.9326 1756 41.9047
71.049 1611 40.1373
71.1653 1546 39.3192
71.2817 1266 35.5809
71.3979 1217 34.8855
71.5141 1178 34.322
71.6303 1048 32.3728
71.7464 1012 31.8119
71.8624 0 1
71.9784 0 1
72.0944 0 1
72.2102 0 1
72.3261 0 1
72.4418 0 1
72.5575 0 1
72.6732 0 1
75.1054 0 1
75.2209 0 1
75.3365 0 1
75.4521 0 1
75.5678 0 1
75.6835 0 1
75.7993 0 1
75.9151 0 1
76.031 0 1
76.147 1386 37.229
76.263 1435 37.8814
76.3791 1459 38.1969
76.4952 1445 38.0132
76.6113 1350 36.7423
76.7276 1263 35.5387
76.8438 1433 37.855
76.9601 1436 37.8946
77.0765 1486 38.5487
77.1929 1644 40.5463
77.3093 1715 41.4126
77.4258 1800 42.4264
77.5423 1774 42.1189
77.6589 1826 42.7317
77.7755 1804 42.4735
77.8921 1752 41.8569
78.0088 1722 41.497
78.1256 1746 41.7852
78.2423 1733 41.6293
78.3591 1730 41.5933
78.4759 1806 42.4971
78.5928 2000 44.7214
78.7097 2206 46.9681
78.8266 2292 47.8748
78.9436 2466 49.6588
79.0606 2480 49.7996
79.1776 2541 50.4083
79.2946 2613 51.1175
79.4117 2639 51.3712
79.5288 2541 50.4083
79.6459 2546 50.4579
79.7631 2419 49.1833
79.8802 2232 47.244
79.9974 2066 45.4533
80.1147 1815 42.6028
80.2319 1727 41.5572
80.3491 1709 41.3401
80.4664 1758 41.9285
80.5837 1681 41
80.701 1787 42.2729
80.8183 1844 42.9418
80.9357 1857 43.0929
81.053 1912 43.7264
81.1704 1917 43.7836
81.2877 1876 43.3128
81.4051 1792 42.332
81.5225 1776 42.1426
81.6399 1765 42.0119
81.7573 1709 41.3401
81.8747 1682 41.0122
81.9922 1742 41.7373
82.1096 1868 43.2204
82.227 1978 44.4747
82.3444 2156 46.4327
82.4619 2402 49.0102
82.5793 2548 50.4777
82.6967 2581 50.8035
82.8142 2706 52.0192
82.9316 2630 51.2835
83.049 2587 50.8626
83.1664 2646 51.4393
83.2838 2544 50.4381
83.4012 2398 48.9694
83.5186 2163 46.5081
83.636 2059 45.3762
83.7534 1988 44.587
83.8708 1865 43.1856
83.9881 1770 42.0714
84.1055 1752 41.8569
84.2228 1646 40.5709
84.3401 1693 41.1461
84.4575 1809 42.5323
84.5747 1984 44.5421
84.692 2131 46.1628
84.8093 2059 45.3762
84.9265 1931 43.9431
85.0437 1919 43.8064
85.1609 1776 42.1426
85.2781 1705 41.2916
85.3952 1645 40.5586
85.5123 1712 41.3763
85.6294 1741 41.7253
85.7465 1872 43.2666
85.8636 1986 44.5646
85.9806 2108 45.913
86.0976 2337 48.3425
86.2145 2601 51
86.3315 2402 49.0102
86.4484 2701 51.9711
86.5652 2574 50.7346
86.682 2456 49.558
86.7988 2454 49.5379
86.9156 2384 48.8262
87.0323 2216 47.0744
87.149 2093 45.7493
87.2657 2107 45.9021
87.3823 1964 44.317
87.4988 1780 42.19
87.6154 1684 41.0366
87.7318 1658 40.7185
87.8483 1598 39.975
87.9647 1506 38.8072
88.081 1615 40.1871
88.1973 1719 41.4608
88.3136 1563 39.5348
88.4298 1493 38.6394
88.546 1189 34.4819
88.6621 1033 32.1403
88.7781 961 31
88.8942 0 1
89.0101 0 1
89.126 0 1
89.2419 0 1
89.3577 0 1
89.4734 0 1
89.5891 0 1
89.7047 0 1
89.8203 0 1
89.9358 0 1
92.3269 0 1
92.4424 0 1
92.558 0 1
92.6736 0 1
92.7893 0 1
92.905 0 1
93.0208 0 1
93.1366 0 1
93.2525 0 1
93.3685 0 1
93.4845 0 1
93.6005 1182 34.3802
93.7167 1386 37.229
93.8328 1652 40.6448
93.949 1768 42.0476
94.0653 1783 42.2256
94.1816 1870 43.2435
94.2979 1891 43.4856
94.4143 1916 43.7721
94.5307 1829 42.7668
94.6472 1856 43.0813
94.7637 1856 43.0813
94.8803 1936 44
94.9969 2033 45.0888
95.1135 2247 47.4025
95.2302 2461 49.6085
95.3469 2575 50.7445
95.4637 2793 52.8488
95.5805 2832 53.2165
95.6973 2872 53.591
95.8142 2896 53.8145
95.9311 2778 52.7067
96.048 2756 52.4976
96.1649 2614 51.1273
96.2819 2381 48.7955
96.3989 2265 47.592
96.516 2212 47.0319
96.633 2036 45.1221
96.7501 1934 43.9773
96.8673 1750 41.833
96.9844 1752 41.8569
97.1016 1738 41.6893
97.2188 1702 41.2553
97.336 1843 42.9302
97.4532 2100 45.8258
97.5704 2237 47.2969
97.6877 2290 47.8539
97.805 2159 46.465
97.9223 1993 44.643
98.0396 1896 43.5431
98.1569 1866 43.1972
98.2743 1789 42.2966
98.3916 1775 42.1307
98.509 1872 43.2666
98.6264 1958 44.2493
98.7438 2235 47.2758
98.8612 2297 47.927
98.9786 2472 49.7192
99.096 2685 51.817
99.2134 2694 51.9038
99.3308 2730 52.2494
99.4482 2857 53.4509
99.5656 2848 53.3667
99.6831 2847 53.3573
99.8005 2764 52.5738
99.9179 2534 50.3389
100.035 2421 49.2037
100.153 2164 46.5188
100.27 2146 46.3249
100.388 1941 44.0568
100.505 1825 42.72
100.622 1741 41.7253
100.74 1760 41.9524
100.857 1864 43.1741
100.975 1992 44.6318
101.092 2275 47.697
101.209 2292 47.8748
101.327 2174 46.6262
101.444 2099 45.8148
101.561 2053 45.31
101.679 1989 44.5982
101.796 1939 44.0341
101.913 1908 43.6807
102.03 1997 44.6878
102.148 2109 45.9239
102.265 2240 47.3286
102.382 2547 50.4678
102.499 2664 51.614
102.616 2847 53.3573
102.733 2983 54.6168
102.851 2992 54.6992
102.968 2928 54.111
103.085 3088 55.5698
103.202 3121 55.8659
103.319 2921 54.0463
103.436 2804 52.9528
103.552 2513 50.1298
103.669 2363 48.6107
103.786 2214 47.0532
103.903 2107 45.9021
104.02 1944 44.0908
104.137 1875 43.3013
104.253 1904 43.6348
104.37 1945 44.1022
104.487 2118 46.0217
104.603 2161 46.4866
104.72 2113 45.9674
104.836 2033 45.0888
104.953 1795 42.3674
105.069 1743 41.7493
105.186 1626 40.3237
105.302 1585 39.8121
105.418 1462 38.2361
105.535 1422 37.7094
105.651 1410 37.55
105.767 1415 37.6165
105.883 1510 38.8587
105.999 1535 39.1791
106.115 0 1
106.231 0 1
106.347 0 1
106.463 0 1
106.579 0 1
106.694 0 1
106.81 0 1
106.926 0 1
107.041 0 1
107.157 0 1
109.576 0 1
109.692 0 1
109.807 0 1
109.923 0 1
110.039 0 1
110.155 0 1
110.27 0 1
110.386 0 1
110.502 0 1
110.618 1140 33.7639
110.735 1280 35.7771
110.851 1513 38.8973
110.967 1679 40.9756
111.083 1857 43.0929
111.199 1957 44.238
111.316 2212 47.0319
111.432 2281 47.7598
111.549 2254 47.4763
111.665 2419 49.1833
111.782 2471 49.7092
111.898 2366 48.6415
112.015 2287 47.8226
112.132 2103 45.8585
112.248 1999 44.7102
112.365 1822 42.6849
112.482 1857 43.0929
112.599 1788 42.2847
112.716 1730 41.5933
112.832 1707 41.3159
112.949 1705 41.2916
113.066 1729 41.5812
113.183 1851 43.0232
113.3 2011 44.8442
113.417 1933 43.9659
113.534 1926 43.8862
113.652 1885 43.4166
113.769 1957 44.238
113.886 1908 43.6807
114.003 1914 43.7493
114.12 1846 42.9651
114.238 1943 44.0795
114.355 2133 46.1844
114.472 2402 49.0102
114.589 2456 49.558
114.707 2832 53.2165
114.824 2834 53.2353
114.942 2854 53.4228
115.059 2816 53.066
115.176 2849 53.376
115.294 2871 53.5817
115.411 2928 54.111
115.529 2746 52.4023
115.646 2460 49.5984
115.764 2239 47.3181
115.881 2079 45.5961
115.999 2031 45.0666
116.116 1884 43.4051
116.234 1807 42.5088
116.351 1830 42.7785
116.469 1758 41.9285
116.586 1733 41.6293
116.704 1995 44.6654
116.821 2073 45.5302
116.939 2040 45.1664
117.056 2001 44.7325
117.174 2078 45.5851
117.291 2061 45.3982
117.409 2048 45.2548
117.526 1984 44.5421
117.644 1960 44.2719
117.761 2134 46.1952
117.879 2273 47.676
117.996 2417 49.163
118.114 2786 52.7826
118.231 2790 52.8205
118.349 3041 55.1453
118.466 2972 54.5161
118.584 3003 54.7996
118.701 3020 54.9545
118.819 2969 54.4885
118.936 2977 54.5619
119.053 2832 53.2165
119.171 2565 50.6458
119.288 2504 50.04
119.405 2162 46.4973
119.523 2185 46.744
119.64 2069 45.4863
119.757 1961 44.2832
119.875 1855 43.0697
119.992 1827 42.7434
120.109 1692 41.1339
120.226 1745 41.7732
120.343 1866 43.1972
120.46 1961 44.2832
120.578 1953 44.1928
120.695 1889 43.4626
120.812 1927 43.8976
120.929 1877 43.3244
121.046 1876 43.3128
121.163 1727 41.5572
121.279 1861 43.1393
121.396 1868 43.2204
121.513 1826 42.7317
121.63 2051 45.288
121.747 2104 45.8694
121.863 2273 47.676
121.98 2358 48.5592
122.097 2281 47.7598
122.213 2193 46.8295
122.33 2266 47.6025
122.446 2145 46.3141
122.563 2049 45.2659
122.679 1976 44.4522
122.795 1928 43.909
122.912 1704 41.2795
123.028 1448 38.0526
123.144 1370 37.0135
123.26 1245 35.2846
123.377 0 1
123.493 0 1
123.609 0 1
123.725 0 1
123.84 0 1
123.956 0 1
124.072 0 1
124.188 0 1
124.303 0 1
124.419 0 1
126.852 0 1
126.968 0 1
127.083 0 1
127.199 0 1
127.315 0 1
127.431 0 1
127.547 0 1
127.663 0 1
127.779 0 1
127.895 0 1
128.011 0 1
128.127 0 1
128.243 0 1
128.359 2344 48.4149
128.476 2235 47.2758
128.592 2172 46.6047
128.708 2123 46.076
128.825 2093 45.7493
128.941 2026 45.0111
129.058 1957 44.238
129.174 1961 44.2832
129.291 2022 44.9667
129.408 1999 44.7102
129.524 2115 45.9891
129.641 2221 47.1275
129.758 2247 47.4025
129.875 2224 47.1593
129.992 2307 48.0312
130.108 2395 48.9387
130.225 2280 47.7493
130.342 2297 47.927
130.459 2348 48.4562
130.576 2208 46.9894
130.693 2524 50.2394
130.81 2544 50.4381
130.928 2615 51.1371
131.045 2690 51.8652
131.162 2645 51.4296
131.279 2722 52.1728
131.396 2676 51.7301
131.513 2683 51.7977
131.631 2640 51.3809
131.748 2645 51.4296
131.865 2450 49.4975
131.983 2440 49.3964
132.1 2368 48.6621
132.217 2189 46.7868
132.335 2240 47.3286
132.452 2082 45.6289
132.57 1953 44.1928
132.687 2019 44.9333
132.804 1965 44.3283
132.922 1997 44.6878
133.039 2023 44.9778
133.157 2088 45.6946
133.274 2183 46.7226
133.392 2181 46.7012
133.509 2306 48.0208
133.627 2197 46.8722
133.744 2207 46.9787
133.862 2152 46.3897
133.979 2169 46.5725
134.097 2115 45.9891
134.214 2224 47.1593
134.332 2414 49.1325
134.449 2492 49.9199
134.567 2577 50.7642
134.684 2503 50.03
134.802 2515 50.1498
134.919 2608 51.0686
135.037 2665 51.6236
135.154 2582 50.8134
135.272 2620 51.1859
135.389 2460 49.5984
135.507 2532 50.319
135.624 2343 48.4045
135.742 2363 48.6107
135.859 2289 47.8435
135.977 2138 46.2385
136.094 2147 46.3357
136.211 2118 46.0217
136.329 2060 45.3872
136.446 2049 45.2659
136.564 2038 45.1442
136.681 2133 46.1844
136.798 2198 46.8828
136.915 2315 48.1144
137.033 2258 47.5184
137.15 2402 49.0102
137.267 2328 48.2494
137.384 2280 47.7493
137.502 2216 47.0744
137.619 2214 47.0532
137.736 2169 46.5725
137.853 2191 46.8081
137.97 2229 47.2123
138.087 2453 49.5278
138.204 2420 49.1935
138.321 2346 48.4355
138.438 2440 49.3964
138.555 2443 49.4267
138.672 2299 47.9479
138.788 2336 48.3322
138.905 2200 46.9042
139.022 2130 46.1519
139.139 2037 45.1331
139.255 1929 43.9204
139.372 1889 43.4626
139.488 1777 42.1545
139.605 1672 40.8901
139.721 1623 40.2865
139.838 1563 39.5348
139.954 1407 37.51
140.071 1324 36.3868
140.187 1246 35.2987
140.303 1284 35.8329
140.419 1158 34.0294
140.535 1134 33.6749
140.652 1100 33.1662
140.768 0 1
140.884 0 1
141 0 1
141.115 0 1
141.231 0 1
141.347 0 1
141.463 0 1
141.578 0 1
141.694 0 1
144.104 0 1
144.219 0 1
144.335 0 1
144.45 0 1
144.566 0 1
144.682 0 1
144.798 0 1
144.914 0 1
145.03 0 1
145.146 1459 38.1969
145.262 1522 39.0128
145.378 1615 40.1871
145.494 1619 40.2368
145.61 1756 41.9047
145.726 1833 42.8135
145.842 1841 42.9069
145.959 1825 42.72
146.075 1758 41.9285
146.192 1718 41.4488
146.308 1847 42.9767
146.425 1735 41.6533
146.541 1725 41.5331
146.658 1775 42.1307
146.774 1899 43.5775
146.891 1980 44.4972
147.008 2056 45.3431
147.125 2023 44.9778
147.241 2006 44.7884
147.358 2044 45.2106
147.475 2054 45.3211
147.592 2033 45.0888
147.709 2033 45.0888
147.826 2079 45.5961
147.943 1948 44.1362
148.06 1880 43.359
148.177 1950 44.1588
148.294 1944 44.0908
148.411 1836 42.8486
148.528 1907 43.6692
148.645 1932 43.9545
148.762 1746 41.7852
148.88 1849 43
148.997 1839 42.8836
149.114 1728 41.5692
149.231 1829 42.7668
149.349 1844 42.9418
149.466 1896 43.5431
149.583 1953 44.1928
149.701 1898 43.566
149.818 1824 42.7083
149.935 1903 43.6234
150.053 1761 41.9643
150.17 1759 41.9404
150.287 1809 42.5323
150.405 1861 43.1393
150.522 1910 43.7035
150.64 2053 45.31
150.757 2008 44.8107
150.875 2049 45.2659
150.992 2162 46.4973
151.11 2090 45.7165
151.227 2069 45.4863
151.344 2177 46.6583
151.462 2149 46.3573
151.579 2126 46.1086
151.697 1992 44.6318
151.814 2058 45.3652
151.932 1932 43.9545
152.049 1935 43.9886
152.167 1896 43.5431
152.284 1898 43.566
152.402 1872 43.2666
152.519 1836 42.8486
152.636 1862 43.1509
152.754 1968 44.3621
152.871 1955 44.2154
152.989 1963 44.3058
153.106 1990 44.6094
153.223 1979 44.486
153.341 1966 44.3396
153.458 1974 44.4297
153.575 1931 43.9431
153.693 1921 43.8292
153.81 1960 44.2719
153.927 1977 44.4635
154.044 2092 45.7384
154.162 2133 46.1844
154.279 2227 47.1911
154.396 2295 47.9062
154.513 2299 47.9479
154.63 2341 48.3839
154.747 2318 48.1456
154.864 2307 48.0312
154.981 2378 48.7647
155.098 2320 48.1664
155.215 2238 47.3075
155.332 2206 46.9681
155.449 2150 46.3681
155.566 2038 45.1442
155.683 2060 45.3872
155.8 1995 44.6654
155.917 1916 43.7721
156.033 1747 41.7971
156.15 0 1
156.267 0 1
156.383 0 1
156.5 0 1
156.617 0 1
156.733 0 1
156.85 0 1
156.966 0 1
157.082 0 1
157.199 0 1
157.315 0 1
157.431 0 1
157.547 0 1
157.664 0 1
157.78 0 1
157.896 0 1
158.012 0 1
158.128 0 1
158.244 0 1
158.359 0 1
158.475 0 1
158.591 0 1
158.706 0 1
