
6.15755 0 1
6.2731 0 1
6.3887 0 1
6.50437 0 1
6.62009 0 1
6.73587 0 1
6.8517 0 1
6.96759 0 1
7.08353 0 1
7.19952 0 1
7.31557 0 1
7.43166 0 1
7.54781 0 1
7.664 0 1
7.78024 0 1
7.89653 0 1
8.01286 0 1
8.12924 0 1
8.24567 0 1
8.36213 0 1
8.47864 0 1
8.59519 0 1
8.71178 0 1
8.82841 0 1
8.94508 0 1
9.06179 0 1
9.17853 0 1
9.29531 0 1
9.41212 0 1
9.52897 0 1
9.64584 0 1
9.76276 0 1
9.8797 0 1
9.99667 0 1
10.1137 0 1
10.2307 0 1
10.3478 0 1
10.4648 0 1
10.5819 0 1
10.6991 0 1
10.8162 0 1
10.9334 0 1
11.0506 0 1
11.1678 0 1
11.285 0 1
11.4023 0 1
11.5196 0 1
11.6369 0 1
11.7542 0 1
11.8715 0 1
11.9888 0 1
12.1062 0 1
12.2235 0 1
12.3409 0 1
12.4582 0 1
12.5756 0 1
12.693 0 1
12.8104 0 1
12.9278 0 1
13.0452 0 1
13.1626 0 1
13.28 0 1
13.3974 0 1
13.5149 0 1
13.6323 0 1
13.7497 0 1
13.8671 0 1
13.9845 0 1
14.1019 0 1
14.2193 0 1
14.3367 0 1
14.4541 0 1
14.5714 0 1
14.6888 0 1
14.8062 0 1
14.9235 0 1
15.0408 821 28.6531
15.1581 890 29.8329
15.2755 873 29.5466
15.3927 878 29.6311
15.51 892 29.8664
15.6273 862 29.3598
15.7445 885 29.7489
15.8617 838 28.9482
15.9789 786 28.0357
16.0961 817 28.5832
16.2132 760 27.5681
16.3304 821 28.6531
16.4475 831 28.8271
16.5646 774 27.8209
16.6816 797 28.2312
16.7986 740 27.2029
16.9156 728 26.9815
17.0326 721 26.8514
17.1496 728 26.9815
17.2665 750 27.3861
17.3833 724 26.9072
17.5002 747 27.3313
17.617 782 27.9643
17.7338 717 26.7769
17.8505 755 27.4773
17.9672 720 26.8328
18.0839 744 27.2764
18.2005 707 26.5895
18.3171 713 26.7021
18.4337 771 27.7669
18.5502 736 27.1293
18.6666 749 27.3679
18.7831 787 28.0535
18.8994 742 27.2397
19.0158 744 27.2764
19.1321 668 25.8457
19.2483 716 26.7582
19.3645 584 24.1661
19.4806 579 24.0624
19.5967 560 23.6643
19.7128 548 23.4094
19.8288 535 23.1301
19.9447 488 22.0907
20.0606 0 1
20.1764 0 1
20.2922 0 1
20.4079 0 1
20.5236 0 1
20.6392 0 1
20.7548 0 1
20.8702 0 1
23.3078 0 1
23.4233 0 1
23.539 0 1
23.6547 0 1
23.7704 0 1
23.8862 0 1
24.0021 0 1
24.118 0 1
24.234 0 1
24.35 0 1
24.4661 299 17.2916
24.5822 369 19.2094
24.6984 434 20.8327
24.8146 521 22.8254
24.9309 514 22.6716
25.0472 571 23.8956
25.1636 621 24.9199
25.28 727 26.9629
25.3965 717 26.7769
25.513 780 27.9285
25.6296 804 28.3549
25.7462 779 27.9106
25.8628 834 28.8791
25.9795 811 28.4781
26.0962 830 28.8097
26.213 787 28.0535
26.3298 717 26.7769
26.4466 715 26.7395
26.5635 685 26.1725
26.6804 620 24.8998
26.7973 658 25.6515
26.9143 669 25.865
27.0313 635 25.1992
27.1483 621 24.9199
27.2653 657 25.632
27.3824 724 26.9072
27.4996 764 27.6405
27.6167 726 26.9444
27.7339 725 26.9258
27.8511 641 25.318
27.9683 682 26.1151
28.0855 677 26.0192
28.2028 630 25.0998
28.3201 680 26.0768
28.4374 766 27.6767
28.5547 682 26.1151
28.6721 724 26.9072
28.7894 780 27.9285
28.9068 771 27.7669
29.0242 710 26.6458
29.1416 686 26.1916
29.259 745 27.2947
29.3764 695 26.3629
29.4939 676 26
29.6113 668 25.8457
29.7288 695 26.3629
29.8463 683 26.1343
29.9638 656 25.6125
30.0812 614 24.779
30.1987 659 25.671
30.3162 691 26.2869
30.4337 681 26.096
30.5512 660 25.6905
30.6687 665 25.7876
30.7862 689 26.2488
30.9037 753 27.4408
31.0212 739 27.1846
31.1387 719 26.8142
31.2562 695 26.3629
31.3737 644 25.3772
31.4912 670 25.8844
31.6087 678 26.0384
31.7262 690 26.2679
31.8436 730 27.0185
31.9611 771 27.7669
32.0785 659 25.671
32.1959 712 26.6833
32.3134 664 25.7682
32.4308 688 26.2298
32.5482 662 25.7294
32.6655 623 24.96
32.7829 654 25.5734
32.9002 609 24.6779
33.0176 659 25.671
33.1349 595 24.3926
33.2522 629 25.0799
33.3694 588 24.2487
33.4867 605 24.5967
33.6039 619 24.8797
33.7211 580 24.0832
33.8383 578 24.0416
33.9554 576 24
34.0725 655 25.593
34.1896 607 24.6374
34.3067 616 24.8193
34.4237 629 25.0799
34.5407 701 26.4764
34.6577 720 26.8328
34.7746 660 25.6905
34.8915 641 25.318
35.0084 600 24.4949
35.1252 593 24.3516
35.242 553 23.516
35.3587 638 25.2587
35.4755 593 24.3516
35.5921 680 26.0768
35.7088 579 24.0624
35.8254 653 25.5539
35.9419 675 25.9808
36.0584 655 25.593
36.1749 587 24.2281
36.2913 566 23.7908
36.4077 533 23.0868
36.524 560 23.6643
36.6403 538 23.1948
36.7565 489 22.1133
36.8727 516 22.7156
36.9889 459 21.4243
37.1049 433 20.8087
37.221 0 1
37.3369 0 1
37.4529 0 1
37.5687 0 1
37.6845 0 1
37.8003 0 1
37.916 0 1
38.0316 0 1
38.1472 0 1
40.5851 0 1
40.7008 0 1
40.8164 0 1
40.9322 0 1
41.048 0 1
41.1639 0 1
41.2798 0 1
41.3958 0 1
41.5118 0 1
41.6279 0 1
41.744 294 17.1464
41.8602 308 17.5499
41.9765 373 19.3132
42.0928 377 19.4165
42.2091 416 20.3961
42.3255 443 21.0476
42.4419 435 20.8567
42.5584 429 20.7123
42.675 437 20.9045
42.7915 478 21.8632
42.9081 466 21.587
43.0248 486 22.0454
43.1415 466 21.587
43.2582 464 21.5407
43.375 456 21.3542
43.4918 496 22.2711
43.6087 459 21.4243
43.7256 477 21.8403
43.8425 471 21.7025
43.9595 405 20.1246
44.0765 423 20.567
44.1935 431 20.7605
44.3106 473 21.7486
44.4277 465 21.5639
44.5448 464 21.5407
44.6619 512 22.6274
44.7791 469 21.6564
44.8963 505 22.4722
45.0136 519 22.7816
45.1308 496 22.2711
45.2481 509 22.561
45.3654 508 22.5389
45.4827 503 22.4277
45.6001 511 22.6053
45.7174 541 23.2594
45.8348 502 22.4054
45.9522 509 22.561
46.0697 479 21.8861
46.1871 466 21.587
46.3046 475 21.7945
46.422 484 22
46.5395 409 20.2237
46.657 426 20.6398
46.7745 485 22.0227
46.892 494 22.2261
47.0096 506 22.4944
47.1271 460 21.4476
47.2446 492 22.1811
47.3622 448 21.166
47.4797 413 20.3224
47.5973 433 20.8087
47.7149 412 20.2978
47.8324 458 21.4009
47.95 469 21.6564
48.0675 500 22.3607
48.1851 480 21.9089
48.3027 469 21.6564
48.4202 484 22
48.5378 468 21.6333
48.6554 481 21.9317
48.7729 490 22.1359
48.8904 474 21.7715
49.008 511 22.6053
49.1255 465 21.5639
49.243 486 22.0454
49.3605 432 20.7846
49.478 485 22.0227
49.5955 453 21.2838
49.713 390 19.7484
49.8304 400 20
49.9479 400 20
50.0653 421 20.5183
50.1827 411 20.2731
50.3001 444 21.0713
50.4175 429 20.7123
50.5348 476 21.8174
50.6521 436 20.8806
50.7694 475 21.7945
50.8867 480 21.9089
51.004 416 20.3961
51.1212 401 20.025
51.2384 426 20.6398
51.3556 421 20.5183
51.4727 486 22.0454
51.5899 475 21.7945
51.707 459 21.4243
51.824 525 22.9129
51.9411 483 21.9773
52.0581 466 21.587
52.175 464 21.5407
52.2919 451 21.2368
52.4088 488 22.0907
52.5257 456 21.3542
52.6425 456 21.3542
52.7593 471 21.7025
52.876 474 21.7715
52.9927 497 22.2935
53.1094 422 20.5426
53.226 435 20.8567
53.3426 409 20.2237
53.4591 396 19.8997
53.5756 392 19.799
53.692 397 19.9249
53.8084 374 19.3391
53.9248 359 18.9473
54.0411 322 17.9444
54.1573 311 17.6352
54.2735 0 1
54.3896 0 1
54.5057 0 1
54.6217 0 1
54.7377 0 1
54.8537 0 1
54.9695 0 1
55.0853 0 1
55.2011 0 1
55.3168 0 1
55.4324 0 1
57.824 0 1
57.9396 0 1
58.0553 0 1
58.1711 0 1
58.2869 0 1
58.4028 0 1
58.5187 0 1
58.6347 0 1
58.7508 0 1
58.8669 0 1
58.983 523 22.8692
59.0992 668 25.8457
59.2155 733 27.074
59.3318 833 28.8617
59.4482 936 30.5941
59.5646 997 31.5753
59.681 942 30.692
59.7975 1000 31.6228
59.9141 1007 31.7333
60.0306 962 31.0161
60.1473 1063 32.6037
60.2639 1044 32.311
60.3807 1041 32.2645
60.4974 1117 33.4215
60.6142 1023 31.9844
60.731 1009 31.7648
60.8479 1018 31.9061
60.9648 950 30.8221
61.0818 953 30.8707
61.1987 929 30.4795
61.3158 954 30.8869
61.4328 938 30.6268
61.5499 938 30.6268
61.667 834 28.8791
61.7841 816 28.5657
61.9013 816 28.5657
62.0185 714 26.7208
62.1357 741 27.2213
62.253 754 27.4591
62.3702 722 26.8701
62.4875 709 26.6271
62.6049 742 27.2397
62.7222 788 28.0713
62.8396 744 27.2764
62.9569 742 27.2397
63.0743 730 27.0185
63.1918 676 26
63.3092 628 25.0599
63.4267 626 25.02
63.5441 623 24.96
63.6616 616 24.8193
63.7791 597 24.4336
63.8966 599 24.4745
64.0142 606 24.6171
64.1317 595 24.3926
64.2492 642 25.3377
64.3668 554 23.5372
64.4843 567 23.8118
64.6019 564 23.7487
64.7195 553 23.516
64.837 502 22.4054
64.9546 526 22.9347
65.0722 573 23.9374
65.1898 550 23.4521
65.3074 548 23.4094
65.4249 537 23.1733
65.5425 508 22.5389
65.6601 536 23.1517
65.7777 483 21.9773
65.8952 509 22.561
66.0128 522 22.8473
66.1304 511 22.6053
66.2479 509 22.561
66.3655 544 23.3238
66.483 558 23.622
66.6005 528 22.9783
66.718 548 23.4094
66.8355 532 23.0651
66.953 550 23.4521
67.0705 507 22.5167
67.1879 485 22.0227
67.3054 513 22.6495
67.4228 527 22.9565
67.5402 560 23.6643
67.6576 527 22.9565
67.7749 544 23.3238
67.8923 568 23.8328
68.0096 520 22.8035
68.1269 512 22.6274
68.2442 512 22.6274
68.3614 572 23.9165
68.4787 529 23
68.5958 526 22.9347
68.713 510 22.5832
68.8302 526 22.9347
68.9473 487 22.0681
69.0643 515 22.6936
69.1814 458 21.4009
69.2984 488 22.0907
69.4154 470 21.6795
69.5323 475 21.7945
69.6492 486 22.0454
69.7661 487 22.0681
69.8829 491 22.1585
69.9997 549 23.4307
70.1165 467 21.6102
70.2332 532 23.0651
70.3499 492 22.1811
70.4665 426 20.6398
70.5831 424 20.5913
70.6996 433 20.8087
70.8161 357 18.8944
70.9326 342 18.4932
71.049 352 18.7617
71.1653 325 18.0278
71.2817 289 17
71.3979 279 16.7033
71.5141 263 16.2173
71.6303 210 14.4914
71.7464 183 13.5277
71.8624 0 1
71.9784 0 1
72.0944 0 1
72.2102 0 1
72.3261 0 1
72.4418 0 1
72.5575 0 1
72.6732 0 1
75.1054 0 1
75.2209 0 1
75.3365 0 1
75.4521 0 1
75.5678 0 1
75.6835 0 1
75.7993 0 1
75.9151 0 1
76.031 0 1
76.147 311 17.6352
76.263 350 18.7083
76.3791 386 19.6469
76.4952 420 20.4939
76.6113 420 20.4939
76.7276 489 22.1133
76.8438 430 20.7364
76.9601 408 20.199
77.0765 424 20.5913
77.1929 427 20.664
77.3093 426 20.6398
77.4258 415 20.3715
77.5423 450 21.2132
77.6589 408 20.199
77.7755 424 20.5913
77.8921 450 21.2132
78.0088 434 20.8327
78.1256 411 20.2731
78.2423 393 19.8242
78.3591 382 19.5448
78.4759 380 19.4936
78.5928 384 19.5959
78.7097 399 19.975
78.8266 379 19.4679
78.9436 404 20.0998
79.0606 423 20.567
79.1776 410 20.2485
79.2946 430 20.7364
79.4117 514 22.6716
79.5288 452 21.2603
79.6459 459 21.4243
79.7631 422 20.5426
79.8802 422 20.5426
79.9974 433 20.8087
80.1147 400 20
80.2319 476 21.8174
80.3491 454 21.3073
80.4664 429 20.7123
80.5837 484 22
80.701 468 21.6333
80.8183 460 21.4476
80.9357 445 21.095
81.053 453 21.2838
81.1704 440 20.9762
81.2877 434 20.8327
81.4051 439 20.9523
81.5225 465 21.5639
81.6399 453 21.2838
81.7573 487 22.0681
81.8747 437 20.9045
81.9922 444 21.0713
82.1096 423 20.567
82.227 418 20.445
82.3444 390 19.7484
82.4619 445 21.095
82.5793 404 20.0998
82.6967 438 20.9284
82.8142 483 21.9773
82.9316 491 22.1585
83.049 486 22.0454
83.1664 502 22.4054
83.2838 502 22.4054
83.4012 437 20.9045
83.5186 503 22.4277
83.636 472 21.7256
83.7534 500 22.3607
83.8708 464 21.5407
83.9881 459 21.4243
84.1055 496 22.2711
84.2228 486 22.0454
84.3401 480 21.9089
84.4575 457 21.3776
84.5747 449 21.1896
84.692 466 21.587
84.8093 439 20.9523
84.9265 476 21.8174
85.0437 471 21.7025
85.1609 423 20.567
85.2781 489 22.1133
85.3952 484 22
85.5123 509 22.561
85.6294 420 20.4939
85.7465 450 21.2132
85.8636 396 19.8997
85.9806 403 20.0749
86.0976 405 20.1246
86.2145 439 20.9523
86.3315 495 22.2486
86.4484 444 21.0713
86.5652 425 20.6155
86.682 535 23.1301
86.7988 468 21.6333
86.9156 528 22.9783
87.0323 465 21.5639
87.149 472 21.7256
87.2657 415 20.3715
87.3823 468 21.6333
87.4988 490 22.1359
87.6154 427 20.664
87.7318 443 21.0476
87.8483 434 20.8327
87.9647 370 19.2354
88.081 379 19.4679
88.1973 329 18.1384
88.3136 299 17.2916
88.4298 321 17.9165
88.546 300 17.3205
88.6621 262 16.1864
88.7781 271 16.4621
88.8942 0 1
89.0101 0 1
89.126 0 1
89.2419 0 1
89.3577 0 1
89.4734 0 1
89.5891 0 1
89.7047 0 1
89.8203 0 1
89.9358 0 1
92.3269 0 1
92.4424 0 1
92.558 0 1
92.6736 0 1
92.7893 0 1
92.905 0 1
93.0208 0 1
93.1366 0 1
93.2525 0 1
93.3685 0 1
93.4845 0 1
93.6005 418 20.445
93.7167 423 20.567
93.8328 415 20.3715
93.949 434 20.8327
94.0653 468 21.6333
94.1816 523 22.8692
94.2979 452 21.2603
94.4143 479 21.8861
94.5307 468 21.6333
94.6472 450 21.2132
94.7637 466 21.587
94.8803 451 21.2368
94.9969 449 21.1896
95.1135 442 21.0238
95.2302 434 20.8327
95.3469 482 21.9545
95.4637 453 21.2838
95.5805 469 21.6564
95.6973 500 22.3607
95.8142 504 22.4499
95.9311 536 23.1517
96.048 482 21.9545
96.1649 511 22.6053
96.2819 447 21.1424
96.3989 493 22.2036
96.516 517 22.7376
96.633 510 22.5832
96.7501 479 21.8861
96.8673 514 22.6716
96.9844 530 23.0217
97.1016 501 22.383
97.2188 472 21.7256
97.336 481 21.9317
97.4532 462 21.4942
97.5704 470 21.6795
97.6877 499 22.3383
97.805 483 21.9773
97.9223 507 22.5167
98.0396 514 22.6716
98.1569 515 22.6936
98.2743 472 21.7256
98.3916 483 21.9773
98.509 485 22.0227
98.6264 458 21.4009
98.7438 469 21.6564
98.8612 499 22.3383
98.9786 532 23.0651
99.096 530 23.0217
99.2134 515 22.6936
99.3308 497 22.2935
99.4482 524 22.891
99.5656 532 23.0651
99.6831 531 23.0434
99.8005 544 23.3238
99.9179 565 23.7697
100.035 544 23.3238
100.153 485 22.0227
100.27 496 22.2711
100.388 513 22.6495
100.505 539 23.2164
100.622 515 22.6936
100.74 506 22.4944
100.857 537 23.1733
100.975 508 22.5389
101.092 505 22.4722
101.209 567 23.8118
101.327 531 23.0434
101.444 544 23.3238
101.561 514 22.6716
101.679 509 22.561
101.796 523 22.8692
101.913 491 22.1585
102.03 534 23.1084
102.148 514 22.6716
102.265 509 22.561
102.382 490 22.1359
102.499 559 23.6432
102.616 528 22.9783
102.733 566 23.7908
102.851 565 23.7697
102.968 551 23.4734
103.085 592 24.3311
103.202 555 23.5584
103.319 598 24.454
103.436 596 24.4131
103.552 544 23.3238
103.669 563 23.7276
103.786 506 22.4944
103.903 585 24.1868
104.02 604 24.5764
104.137 525 22.9129
104.253 533 23.0868
104.37 565 23.7697
104.487 540 23.2379
104.603 553 23.516
104.72 575 23.9792
104.836 508 22.5389
104.953 525 22.9129
105.069 540 23.2379
105.186 493 22.2036
105.302 445 21.095
105.418 398 19.9499
105.535 352 18.7617
105.651 374 19.3391
105.767 354 18.8149
105.883 288 16.9706
105.999 291 17.0587
106.115 0 1
106.231 0 1
106.347 0 1
106.463 0 1
106.579 0 1
106.694 0 1
106.81 0 1
106.926 0 1
107.041 0 1
107.157 0 1
109.576 0 1
109.692 0 1
109.807 0 1
109.923 0 1
110.039 0 1
110.155 0 1
110.27 0 1
110.386 0 1
110.502 0 1
110.618 300 17.3205
110.735 329 18.1384
110.851 365 19.105
110.967 425 20.6155
111.083 415 20.3715
111.199 450 21.2132
111.316 496 22.2711
111.432 446 21.1187
111.549 501 22.383
111.665 528 22.9783
111.782 540 23.2379
111.898 547 23.388
112.015 526 22.9347
112.132 504 22.4499
112.248 463 21.5174
112.365 497 22.2935
112.482 513 22.6495
112.599 508 22.5389
112.716 505 22.4722
112.832 526 22.9347
112.949 492 22.1811
113.066 470 21.6795
113.183 481 21.9317
113.3 464 21.5407
113.417 500 22.3607
113.534 443 21.0476
113.652 507 22.5167
113.769 492 22.1811
113.886 458 21.4009
114.003 457 21.3776
114.12 472 21.7256
114.238 457 21.3776
114.355 433 20.8087
114.472 406 20.1494
114.589 445 21.095
114.707 430 20.7364
114.824 461 21.4709
114.942 505 22.4722
115.059 485 22.0227
115.176 474 21.7715
115.294 567 23.8118
115.411 488 22.0907
115.529 518 22.7596
115.646 450 21.2132
115.764 463 21.5174
115.881 448 21.166
115.999 462 21.4942
116.116 465 21.5639
116.234 475 21.7945
116.351 472 21.7256
116.469 456 21.3542
116.586 470 21.6795
116.704 446 21.1187
116.821 464 21.5407
116.939 445 21.095
117.056 443 21.0476
117.174 415 20.3715
117.291 422 20.5426
117.409 435 20.8567
117.526 471 21.7025
117.644 429 20.7123
117.761 448 21.166
117.879 431 20.7605
117.996 415 20.3715
118.114 422 20.5426
118.231 433 20.8087
118.349 446 21.1187
118.466 473 21.7486
118.584 414 20.347
118.701 489 22.1133
118.819 509 22.561
118.936 448 21.166
119.053 433 20.8087
119.171 482 21.9545
119.288 484 22
119.405 445 21.095
119.523 426 20.6398
119.64 439 20.9523
119.757 458 21.4009
119.875 404 20.0998
119.992 433 20.8087
120.109 447 21.1424
120.226 470 21.6795
120.343 388 19.6977
120.46 402 20.0499
120.578 457 21.3776
120.695 403 20.0749
120.812 386 19.6469
120.929 400 20
121.046 385 19.6214
121.163 372 19.2873
121.279 391 19.7737
121.396 431 20.7605
121.513 421 20.5183
121.63 411 20.2731
121.747 384 19.5959
121.863 361 19
121.98 321 17.9165
122.097 371 19.2614
122.213 348 18.6548
122.33 337 18.3576
122.446 367 19.1572
122.563 317 17.8045
122.679 301 17.3494
122.795 279 16.7033
122.912 254 15.9374
123.028 266 16.3095
123.144 270 16.4317
123.26 219 14.7986
123.377 0 1
123.493 0 1
123.609 0 1
123.725 0 1
123.84 0 1
123.956 0 1
124.072 0 1
124.188 0 1
124.303 0 1
124.419 0 1
126.852 0 1
126.968 0 1
127.083 0 1
127.199 0 1
127.315 0 1
127.431 0 1
127.547 0 1
127.663 0 1
127.779 0 1
127.895 0 1
128.011 0 1
128.127 0 1
128.243 0 1
128.359 454 21.3073
128.476 427 20.664
128.592 439 20.9523
128.708 548 23.4094
128.825 490 22.1359
128.941 451 21.2368
129.058 501 22.383
129.174 472 21.7256
129.291 532 23.0651
129.408 480 21.9089
129.524 475 21.7945
129.641 465 21.5639
129.758 431 20.7605
129.875 472 21.7256
129.992 465 21.5639
130.108 518 22.7596
130.225 462 21.4942
130.342 518 22.7596
130.459 523 22.8692
130.576 582 24.1247
130.693 581 24.1039
130.81 573 23.9374
130.928 582 24.1247
131.045 620 24.8998
131.162 622 24.9399
131.279 671 25.9037
131.396 655 25.593
131.513 698 26.4197
131.631 801 28.3019
131.748 753 27.4408
131.865 830 28.8097
131.983 868 29.4618
132.1 934 30.5614
132.217 961 31
132.335 1029 32.078
132.452 1026 32.0312
132.57 1023 31.9844
132.687 1078 32.8329
132.804 1192 34.5254
132.922 1121 33.4813
133.039 1272 35.6651
133.157 1159 34.0441
133.274 1244 35.2704
133.392 1233 35.1141
133.509 1295 35.9861
133.627 1320 36.3318
133.744 1319 36.318
133.862 1318 36.3043
133.979 1419 37.6696
134.097 1359 36.8646
134.214 1471 38.3536
134.332 1376 37.0945
134.449 1296 36
134.567 1371 37.027
134.684 1418 37.6563
134.802 1473 38.3797
134.919 1478 38.4448
135.037 1301 36.0694
135.154 1433 37.855
135.272 1562 39.5221
135.389 1644 40.5463
135.507 1733 41.6293
135.624 1857 43.0929
135.742 1740 41.7133
135.859 1906 43.6578
135.977 1934 43.9773
136.094 2098 45.8039
136.211 2147 46.3357
136.329 2231 47.2335
136.446 2282 47.7703
136.564 2424 49.2341
136.681 2597 50.9608
136.798 2613 51.1175
136.915 2830 53.1977
137.033 2937 54.1941
137.15 2966 54.461
137.267 3120 55.857
137.384 3378 58.1206
137.502 3449 58.7282
137.619 3665 60.5392
137.736 3816 61.7738
137.853 4033 63.5059
137.97 4150 64.4205
138.087 4181 64.6607
138.204 4471 66.8655
138.321 4526 67.2756
138.438 4757 68.971
138.555 4681 68.4178
138.672 4075 63.8357
138.788 3421 58.4893
138.905 4024 63.435
139.022 5061 71.1407
139.139 5393 73.437
139.255 5767 75.9408
139.372 5660 75.233
139.488 5889 76.7398
139.605 5488 74.081
139.721 4504 67.1118
139.838 4255 65.2304
139.954 3994 63.1981
140.071 3869 62.2013
140.187 3852 62.0645
140.303 3682 60.6795
140.419 3528 59.397
140.535 3516 59.2959
140.652 3306 57.4978
140.768 0 1
140.884 0 1
141 0 1
141.115 0 1
141.231 0 1
141.347 0 1
141.463 0 1
141.578 0 1
141.694 0 1
144.104 0 1
144.219 0 1
144.335 0 1
144.45 0 1
144.566 0 1
144.682 0 1
144.798 0 1
144.914 0 1
145.03 0 1
145.146 12854 113.375
145.262 13508 116.224
145.378 13517 116.263
145.494 12619 112.334
145.61 10346 101.715
145.726 7623 87.3098
145.842 5694 75.4586
145.959 4793 69.2315
146.075 4239 65.1076
146.192 4669 68.3301
146.308 5669 75.2928
146.425 7108 84.309
146.541 7394 85.9884
146.658 7001 83.672
146.774 6440 80.2496
146.891 5790 76.092
147.008 5350 73.1437
147.125 4953 70.3776
147.241 4453 66.7308
147.358 4159 64.4903
147.475 3814 61.7576
147.592 3332 57.7235
147.709 2954 54.3507
147.826 2855 53.4322
147.943 2897 53.8238
148.06 2848 53.3667
148.177 2689 51.8556
148.294 2605 51.0392
148.411 2576 50.7543
148.528 2531 50.309
148.645 2477 49.7695
148.762 2376 48.7442
148.88 2226 47.1805
148.997 2324 48.2079
149.114 2141 46.2709
149.231 2148 46.3465
149.349 2128 46.1303
149.466 2032 45.0777
149.583 1910 43.7035
149.701 1905 43.6463
149.818 1840 42.8952
149.935 1892 43.4971
150.053 1743 41.7493
150.17 1580 39.7492
150.287 1619 40.2368
150.405 1567 39.5854
150.522 1709 41.3401
150.64 1728 41.5692
150.757 1666 40.8167
150.875 1690 41.1096
150.992 1835 42.8369
151.11 1793 42.3438
151.227 1717 41.4367
151.344 1615 40.1871
151.462 1487 38.5616
151.579 1661 40.7554
151.697 1718 41.4488
151.814 1750 41.833
151.932 1823 42.6966
152.049 1719 41.4608
152.167 1711 41.3642
152.284 1792 42.332
152.402 1717 41.4367
152.519 1724 41.5211
152.636 1771 42.0833
152.754 1729 41.5812
152.871 1744 41.7612
152.989 1693 41.1461
153.106 1713 41.3884
153.223 1643 40.5339
153.341 1623 40.2865
153.458 1498 38.704
153.575 1376 37.0945
153.693 1274 35.6931
153.81 1246 35.2987
153.927 1373 37.054
154.044 1498 38.704
154.162 1617 40.2119
154.279 1485 38.5357
154.396 1565 39.5601
154.513 1582 39.7744
154.63 1630 40.3733
154.747 1594 39.9249
154.864 1451 38.092
154.981 1318 36.3043
155.098 1431 37.8286
155.215 1329 36.4555
155.332 1483 38.5097
155.449 1477 38.4318
155.566 1517 38.9487
155.683 1443 37.9868
155.8 1439 37.9342
155.917 1356 36.8239
156.033 1268 35.609
156.15 0 1
156.267 0 1
156.383 0 1
156.5 0 1
156.617 0 1
156.733 0 1
156.85 0 1
156.966 0 1
157.082 0 1
157.199 0 1
157.315 0 1
157.431 0 1
157.547 0 1
157.664 0 1
157.78 0 1
157.896 0 1
158.012 0 1
158.128 0 1
158.244 0 1
158.359 0 1
158.475 0 1
158.591 0 1
158.706 0 1
