
6.15755 0 1
6.2731 0 1
6.3887 0 1
6.50437 0 1
6.62009 0 1
6.73587 0 1
6.8517 0 1
6.96759 0 1
7.08353 0 1
7.19952 0 1
7.31557 0 1
7.43166 0 1
7.54781 0 1
7.664 0 1
7.78024 0 1
7.89653 0 1
8.01286 0 1
8.12924 0 1
8.24567 0 1
8.36213 0 1
8.47864 0 1
8.59519 0 1
8.71178 0 1
8.82841 0 1
8.94508 0 1
9.06179 0 1
9.17853 0 1
9.29531 0 1
9.41212 0 1
9.52897 0 1
9.64584 0 1
9.76276 0 1
9.8797 0 1
9.99667 0 1
10.1137 0 1
10.2307 0 1
10.3478 0 1
10.4648 0 1
10.5819 0 1
10.6991 0 1
10.8162 0 1
10.9334 0 1
11.0506 0 1
11.1678 0 1
11.285 0 1
11.4023 0 1
11.5196 0 1
11.6369 0 1
11.7542 0 1
11.8715 0 1
11.9888 0 1
12.1062 0 1
12.2235 0 1
12.3409 0 1
12.4582 0 1
12.5756 0 1
12.693 0 1
12.8104 0 1
12.9278 0 1
13.0452 0 1
13.1626 0 1
13.28 0 1
13.3974 0 1
13.5149 0 1
13.6323 0 1
13.7497 0 1
13.8671 0 1
13.9845 0 1
14.1019 0 1
14.2193 0 1
14.3367 0 1
14.4541 0 1
14.5714 0 1
14.6888 0 1
14.8062 0 1
14.9235 0 1
15.0408 0 0
15.1581 0 0
15.2755 0 0
15.3927 0 0
15.51 0 0
15.6273 0 0
15.7445 0 0
15.8617 0 0
15.9789 0 0
16.0961 0 0
16.2132 0 0
16.3304 0 0
16.4475 0 0
16.5646 0 0
16.6816 0 0
16.7986 0 0
16.9156 0 0
17.0326 0 0
17.1496 0 0
17.2665 0 0
17.3833 0 0
17.5002 0 0
17.617 0 0
17.7338 0 0
17.8505 0 0
17.9672 0 0
18.0839 0 0
18.2005 0 0
18.3171 0 0
18.4337 0 0
18.5502 0 0
18.6666 0 0
18.7831 0 0
18.8994 0 0
19.0158 0 0
19.1321 0 0
19.2483 0 0
19.3645 0 0
19.4806 0 0
19.5967 0 0
19.7128 0 0
19.8288 0 0
19.9447 0 0
20.0606 0 1
20.1764 0 1
20.2922 0 1
20.4079 0 1
20.5236 0 1
20.6392 0 1
20.7548 0 1
20.8702 0 1
23.3078 0 1
23.4233 0 1
23.539 0 1
23.6547 0 1
23.7704 0 1
23.8862 0 1
24.0021 0 1
24.118 0 1
24.234 0 1
24.35 0 1
24.4661 933 30.545
24.5822 927 30.4467
24.6984 940 30.6594
24.8146 957 30.9354
24.9309 933 30.545
25.0472 943 30.7083
25.1636 948 30.7896
25.28 980 31.305
25.3965 895 29.9166
25.513 923 30.3809
25.6296 1054 32.4654
25.7462 1033 32.1403
25.8628 1047 32.3574
25.9795 1047 32.3574
26.0962 1084 32.9242
26.213 1053 32.45
26.3298 987 31.4166
26.4466 1049 32.3883
26.5635 1056 32.4962
26.6804 1056 32.4962
26.7973 987 31.4166
26.9143 1010 31.7805
27.0313 969 31.1288
27.1483 1004 31.686
27.2653 1027 32.0468
27.3824 1037 32.2025
27.4996 1101 33.1813
27.6167 1072 32.7414
27.7339 1048 32.3728
27.8511 1006 31.7175
27.9683 992 31.496
28.0855 967 31.0966
28.2028 1002 31.6544
28.3201 908 30.133
28.4374 847 29.1033
28.5547 882 29.6985
28.6721 871 29.5127
28.7894 889 29.8161
28.9068 873 29.5466
29.0242 884 29.7321
29.1416 854 29.2233
29.259 942 30.692
29.3764 876 29.5973
29.4939 916 30.2655
29.6113 972 31.1769
29.7288 1008 31.749
29.8463 964 31.0483
29.9638 977 31.257
30.0812 994 31.5278
30.1987 967 31.0966
30.3162 935 30.5778
30.4337 931 30.5123
30.5512 987 31.4166
30.6687 940 30.6594
30.7862 958 30.9516
30.9037 968 31.1127
31.0212 946 30.7571
31.1387 1025 32.0156
31.2562 985 31.3847
31.3737 1002 31.6544
31.4912 973 31.1929
31.6087 953 30.8707
31.7262 942 30.692
31.8436 919 30.315
31.9611 901 30.0167
32.0785 884 29.7321
32.1959 916 30.2655
32.3134 830 28.8097
32.4308 884 29.7321
32.5482 856 29.2575
32.6655 922 30.3645
32.7829 904 30.0666
32.9002 898 29.9666
33.0176 924 30.3974
33.1349 924 30.3974
33.2522 966 31.0805
33.3694 995 31.5436
33.4867 965 31.0644
33.6039 962 31.0161
33.7211 943 30.7083
33.8383 894 29.8998
33.9554 957 30.9354
34.0725 875 29.5804
34.1896 912 30.1993
34.3067 921 30.348
34.4237 913 30.2159
34.5407 971 31.1609
34.6577 1016 31.8748
34.7746 912 30.1993
34.8915 993 31.5119
35.0084 945 30.7409
35.1252 949 30.8058
35.242 949 30.8058
35.3587 934 30.5614
35.4755 923 30.3809
35.5921 960 30.9839
35.7088 893 29.8831
35.8254 889 29.8161
35.9419 858 29.2916
36.0584 824 28.7054
36.1749 839 28.9655
36.2913 832 28.8444
36.4077 841 29
36.524 880 29.6648
36.6403 887 29.7825
36.7565 903 30.05
36.8727 872 29.5296
36.9889 956 30.9192
37.1049 906 30.0998
37.221 0 1
37.3369 0 1
37.4529 0 1
37.5687 0 1
37.6845 0 1
37.8003 0 1
37.916 0 1
38.0316 0 1
38.1472 0 1
40.5851 0 1
40.7008 0 1
40.8164 0 1
40.9322 0 1
41.048 0 1
41.1639 0 1
41.2798 0 1
41.3958 0 1
41.5118 0 1
41.6279 0 1
41.744 730 27.0185
41.8602 767 27.6948
41.9765 770 27.7489
42.0928 810 28.4605
42.2091 853 29.2062
42.3255 868 29.4618
42.4419 873 29.5466
42.5584 863 29.3769
42.675 870 29.4958
42.7915 816 28.5657
42.9081 770 27.7489
43.0248 754 27.4591
43.1415 816 28.5657
43.2582 810 28.4605
43.375 843 29.0345
43.4918 850 29.1548
43.6087 837 28.931
43.7256 800 28.2843
43.8425 807 28.4077
43.9595 763 27.6225
44.0765 817 28.5832
44.1935 724 26.9072
44.3106 780 27.9285
44.4277 743 27.258
44.5448 750 27.3861
44.6619 654 25.5734
44.7791 667 25.8263
44.8963 609 24.6779
45.0136 628 25.0599
45.1308 658 25.6515
45.2481 643 25.3574
45.3654 659 25.671
45.4827 661 25.7099
45.6001 674 25.9615
45.7174 650 25.4951
45.8348 727 26.9629
45.9522 714 26.7208
46.0697 659 25.671
46.1871 629 25.0799
46.3046 653 25.5539
46.422 618 24.8596
46.5395 614 24.779
46.657 627 25.04
46.7745 648 25.4558
46.892 673 25.9422
47.0096 656 25.6125
47.1271 703 26.5141
47.2446 632 25.1396
47.3622 637 25.2389
47.4797 618 24.8596
47.5973 603 24.5561
47.7149 570 23.8747
47.8324 575 23.9792
47.95 558 23.622
48.0675 549 23.4307
48.1851 563 23.7276
48.3027 530 23.0217
48.4202 517 22.7376
48.5378 479 21.8861
48.6554 473 21.7486
48.7729 508 22.5389
48.8904 498 22.3159
49.008 520 22.8035
49.1255 549 23.4307
49.243 600 24.4949
49.3605 565 23.7697
49.478 575 23.9792
49.5955 533 23.0868
49.713 515 22.6936
49.8304 556 23.5797
49.9479 492 22.1811
50.0653 570 23.8747
50.1827 558 23.622
50.3001 609 24.6779
50.4175 584 24.1661
50.5348 611 24.7184
50.6521 665 25.7876
50.7694 612 24.7386
50.8867 674 25.9615
51.004 648 25.4558
51.1212 720 26.8328
51.2384 695 26.3629
51.3556 665 25.7876
51.4727 647 25.4362
51.5899 664 25.7682
51.707 610 24.6982
51.824 633 25.1595
51.9411 670 25.8844
52.0581 601 24.5153
52.175 642 25.3377
52.2919 650 25.4951
52.4088 654 25.5734
52.5257 679 26.0576
52.6425 751 27.4044
52.7593 729 27
52.876 747 27.3313
52.9927 777 27.8747
53.1094 795 28.1957
53.226 806 28.3901
53.3426 762 27.6043
53.4591 760 27.5681
53.5756 760 27.5681
53.692 802 28.3196
53.8084 813 28.5132
53.9248 866 29.4279
54.0411 881 29.6816
54.1573 918 30.2985
54.2735 0 1
54.3896 0 1
54.5057 0 1
54.6217 0 1
54.7377 0 1
54.8537 0 1
54.9695 0 1
55.0853 0 1
55.2011 0 1
55.3168 0 1
55.4324 0 1
57.824 0 1
57.9396 0 1
58.0553 0 1
58.1711 0 1
58.2869 0 1
58.4028 0 1
58.5187 0 1
58.6347 0 1
58.7508 0 1
58.8669 0 1
58.983 893 29.8831
59.0992 982 31.3369
59.2155 1112 33.3467
59.3318 1050 32.4037
59.4482 1098 33.1361
59.5646 1202 34.6699
59.681 1150 33.9116
59.7975 1116 33.4066
59.9141 1056 32.4962
60.0306 1069 32.6956
60.1473 958 30.9516
60.2639 965 31.0644
60.3807 895 29.9166
60.4974 900 30
60.6142 852 29.189
60.731 857 29.2746
60.8479 849 29.1376
60.9648 816 28.5657
61.0818 885 29.7489
61.1987 927 30.4467
61.3158 892 29.8664
61.4328 940 30.6594
61.5499 980 31.305
61.667 966 31.0805
61.7841 909 30.1496
61.9013 917 30.282
62.0185 863 29.3769
62.1357 888 29.7993
62.253 887 29.7825
62.3702 884 29.7321
62.4875 965 31.0644
62.6049 959 30.9677
62.7222 1035 32.1714
62.8396 1034 32.1559
62.9569 1006 31.7175
63.0743 1060 32.5576
63.1918 1014 31.8434
63.3092 1010 31.7805
63.4267 956 30.9192
63.5441 940 30.6594
63.6616 936 30.5941
63.7791 850 29.1548
63.8966 809 28.4429
64.0142 825 28.7228
64.1317 753 27.4408
64.2492 786 28.0357
64.3668 704 26.533
64.4843 749 27.3679
64.6019 728 26.9815
64.7195 788 28.0713
64.837 857 29.2746
64.9546 834 28.8791
65.0722 836 28.9137
65.1898 834 28.8791
65.3074 838 28.9482
65.4249 816 28.5657
65.5425 848 29.1204
65.6601 813 28.5132
65.7777 786 28.0357
65.8952 808 28.4253
66.0128 847 29.1033
66.1304 849 29.1376
66.2479 870 29.4958
66.3655 897 29.95
66.483 932 30.5287
66.6005 962 31.0161
66.718 969 31.1288
66.8355 907 30.1164
66.953 889 29.8161
67.0705 869 29.4788
67.1879 911 30.1828
67.3054 790 28.1069
67.4228 828 28.775
67.5402 785 28.0179
67.6576 693 26.3249
67.7749 712 26.6833
67.8923 662 25.7294
68.0096 708 26.6083
68.1269 712 26.6833
68.2442 790 28.1069
68.3614 773 27.8029
68.4787 798 28.2489
68.5958 786 28.0357
68.713 785 28.0179
68.8302 899 29.9833
68.9473 930 30.4959
69.0643 895 29.9166
69.1814 773 27.8029
69.2984 835 28.8964
69.4154 787 28.0535
69.5323 871 29.5127
69.6492 905 30.0832
69.7661 959 30.9677
69.8829 955 30.9031
69.9997 1050 32.4037
70.1165 1022 31.9687
70.2332 1097 33.121
70.3499 1057 32.5115
70.4665 1034 32.1559
70.5831 1015 31.8591
70.6996 967 31.0966
70.8161 968 31.1127
70.9326 862 29.3598
71.049 897 29.95
71.1653 815 28.5482
71.2817 824 28.7054
71.3979 714 26.7208
71.5141 768 27.7128
71.6303 693 26.3249
71.7464 678 26.0384
71.8624 0 1
71.9784 0 1
72.0944 0 1
72.2102 0 1
72.3261 0 1
72.4418 0 1
72.5575 0 1
72.6732 0 1
75.1054 0 1
75.2209 0 1
75.3365 0 1
75.4521 0 1
75.5678 0 1
75.6835 0 1
75.7993 0 1
75.9151 0 1
76.031 0 1
76.147 1121 33.4813
76.263 1251 35.3695
76.3791 1272 35.6651
76.4952 1187 34.4529
76.6113 1139 33.7491
76.7276 1069 32.6956
76.8438 1064 32.619
76.9601 1123 33.5112
77.0765 1127 33.5708
77.1929 1241 35.2278
77.3093 1371 37.027
77.4258 1368 36.9865
77.5423 1396 37.3631
77.6589 1372 37.0405
77.7755 1423 37.7227
77.8921 1407 37.51
78.0088 1309 36.1801
78.1256 1322 36.3593
78.2423 1190 34.4964
78.3591 1127 33.5708
78.4759 1199 34.6266
78.5928 1157 34.0147
78.7097 1322 36.3593
78.8266 1332 36.4966
78.9436 1428 37.7889
79.0606 1424 37.7359
79.1776 1511 38.8716
79.2946 1410 37.55
79.4117 1458 38.1838
79.5288 1385 37.2156
79.6459 1403 37.4566
79.7631 1307 36.1525
79.8802 1305 36.1248
79.9974 1184 34.4093
80.1147 1154 33.9706
80.2319 1107 33.2716
80.3491 958 30.9516
80.4664 957 30.9354
80.5837 914 30.2324
80.701 956 30.9192
80.8183 909 30.1496
80.9357 979 31.289
81.053 1041 32.2645
81.1704 1050 32.4037
81.2877 1041 32.2645
81.4051 1005 31.7017
81.5225 934 30.5614
81.6399 976 31.241
81.7573 944 30.7246
81.8747 777 27.8747
81.9922 801 28.3019
82.1096 738 27.1662
82.227 845 29.0689
82.3444 848 29.1204
82.4619 853 29.2062
82.5793 967 31.0966
82.6967 1008 31.749
82.8142 910 30.1662
82.9316 937 30.6105
83.049 903 30.05
83.1664 955 30.9031
83.2838 865 29.4109
83.4012 834 28.8791
83.5186 760 27.5681
83.636 729 27
83.7534 709 26.6271
83.8708 672 25.923
83.9881 603 24.5561
84.1055 567 23.8118
84.2228 610 24.6982
84.3401 607 24.6374
84.4575 641 25.318
84.5747 654 25.5734
84.692 726 26.9444
84.8093 695 26.3629
84.9265 704 26.533
85.0437 710 26.6458
85.1609 712 26.6833
85.2781 719 26.8142
85.3952 684 26.1534
85.5123 692 26.3059
85.6294 654 25.5734
85.7465 678 26.0384
85.8636 743 27.258
85.9806 810 28.4605
86.0976 894 29.8998
86.2145 874 29.5635
86.3315 919 30.315
86.4484 976 31.241
86.5652 938 30.6268
86.682 981 31.3209
86.7988 952 30.8545
86.9156 922 30.3645
87.0323 928 30.4631
87.149 843 29.0345
87.2657 813 28.5132
87.3823 829 28.7924
87.4988 725 26.9258
87.6154 727 26.9629
87.7318 714 26.7208
87.8483 760 27.5681
87.9647 779 27.9106
88.081 827 28.7576
88.1973 950 30.8221
88.3136 918 30.2985
88.4298 933 30.545
88.546 933 30.545
88.6621 869 29.4788
88.7781 938 30.6268
88.8942 0 1
89.0101 0 1
89.126 0 1
89.2419 0 1
89.3577 0 1
89.4734 0 1
89.5891 0 1
89.7047 0 1
89.8203 0 1
89.9358 0 1
92.3269 0 1
92.4424 0 1
92.558 0 1
92.6736 0 1
92.7893 0 1
92.905 0 1
93.0208 0 1
93.1366 0 1
93.2525 0 1
93.3685 0 1
93.4845 0 1
93.6005 908 30.133
93.7167 878 29.6311
93.8328 895 29.9166
93.949 932 30.5287
94.0653 870 29.4958
94.1816 904 30.0666
94.2979 863 29.3769
94.4143 877 29.6142
94.5307 822 28.6705
94.6472 825 28.7228
94.7637 867 29.4449
94.8803 868 29.4618
94.9969 923 30.3809
95.1135 1045 32.3265
95.2302 1052 32.4345
95.3469 1047 32.3574
95.4637 1100 33.1662
95.5805 1109 33.3017
95.6973 1141 33.7787
95.8142 1004 31.686
95.9311 1048 32.3728
96.048 942 30.692
96.1649 1003 31.6702
96.2819 1002 31.6544
96.3989 917 30.282
96.516 902 30.0333
96.633 804 28.3549
96.7501 788 28.0713
96.8673 728 26.9815
96.9844 823 28.688
97.1016 801 28.3019
97.2188 915 30.249
97.336 898 29.9666
97.4532 941 30.6757
97.5704 893 29.8831
97.6877 875 29.5804
97.805 868 29.4618
97.9223 883 29.7153
98.0396 856 29.2575
98.1569 787 28.0535
98.2743 821 28.6531
98.3916 782 27.9643
98.509 846 29.0861
98.6264 890 29.8329
98.7438 919 30.315
98.8612 990 31.4643
98.9786 1033 32.1403
99.096 1039 32.2335
99.2134 1078 32.8329
99.3308 1136 33.7046
99.4482 1107 33.2716
99.5656 1055 32.4808
99.6831 966 31.0805
99.8005 985 31.3847
99.9179 945 30.7409
100.035 893 29.8831
100.153 891 29.8496
100.27 861 29.3428
100.388 762 27.6043
100.505 790 28.1069
100.622 776 27.8568
100.74 809 28.4429
100.857 889 29.8161
100.975 897 29.95
101.092 979 31.289
101.209 950 30.8221
101.327 896 29.9333
101.444 881 29.6816
101.561 892 29.8664
101.679 888 29.7993
101.796 911 30.1828
101.913 844 29.0517
102.03 921 30.348
102.148 948 30.7896
102.265 1089 33
102.382 960 30.9839
102.499 1102 33.1964
102.616 1086 32.9545
102.733 1159 34.0441
102.851 1197 34.5977
102.968 1196 34.5832
103.085 1238 35.1852
103.202 1139 33.7491
103.319 1059 32.5423
103.436 1024 32
103.552 997 31.5753
103.669 961 31
103.786 965 31.0644
103.903 862 29.3598
104.02 899 29.9833
104.137 987 31.4166
104.253 1021 31.9531
104.37 1040 32.249
104.487 1137 33.7194
104.603 1126 33.5559
104.72 1031 32.1092
104.836 984 31.3688
104.953 1036 32.187
105.069 1026 32.0312
105.186 1004 31.686
105.302 1009 31.7648
105.418 1056 32.4962
105.535 1015 31.8591
105.651 1175 34.2783
105.767 1175 34.2783
105.883 1258 35.4683
105.999 1292 35.9444
106.115 0 1
106.231 0 1
106.347 0 1
106.463 0 1
106.579 0 1
106.694 0 1
106.81 0 1
106.926 0 1
107.041 0 1
107.157 0 1
109.576 0 1
109.692 0 1
109.807 0 1
109.923 0 1
110.039 0 1
110.155 0 1
110.27 0 1
110.386 0 1
110.502 0 1
110.618 969 31.1288
110.735 1135 33.6898
110.851 1229 35.0571
110.967 1251 35.3695
111.083 1264 35.5528
111.199 1289 35.9026
111.316 1345 36.6742
111.432 1297 36.0139
111.549 1332 36.4966
111.665 1325 36.4005
111.782 1289 35.9026
111.898 1228 35.0428
112.015 1221 34.9428
112.132 1120 33.4664
112.248 1107 33.2716
112.365 1029 32.078
112.482 1005 31.7017
112.599 1018 31.9061
112.716 1102 33.1964
112.832 1159 34.0441
112.949 1164 34.1174
113.066 1186 34.4384
113.183 1206 34.7275
113.3 1161 34.0735
113.417 1174 34.2637
113.534 1115 33.3916
113.652 1120 33.4664
113.769 1050 32.4037
113.886 1062 32.5883
114.003 1048 32.3728
114.12 1112 33.3467
114.238 1222 34.9571
114.355 1228 35.0428
114.472 1389 37.2693
114.589 1248 35.327
114.707 1422 37.7094
114.824 1450 38.0789
114.942 1415 37.6165
115.059 1468 38.3145
115.176 1459 38.1969
115.294 1369 37
115.411 1418 37.6563
115.529 1376 37.0945
115.646 1350 36.7423
115.764 1293 35.9583
115.881 1199 34.6266
115.999 1127 33.5708
116.116 1180 34.3511
116.234 1216 34.8712
116.351 1298 36.0278
116.469 1320 36.3318
116.586 1393 37.3229
116.704 1346 36.6879
116.821 1358 36.8511
116.939 1336 36.5513
117.056 1273 35.6791
117.174 1274 35.6931
117.291 1229 35.0571
117.409 1281 35.7911
117.526 1256 35.4401
117.644 1273 35.6791
117.761 1352 36.7696
117.879 1407 37.51
117.996 1468 38.3145
118.114 1619 40.2368
118.231 1619 40.2368
118.349 1631 40.3856
118.466 1796 42.3792
118.584 1749 41.821
118.701 1682 41.0122
118.819 1652 40.6448
118.936 1691 41.1218
119.053 1616 40.1995
119.171 1557 39.4588
119.288 1431 37.8286
119.405 1394 37.3363
119.523 1379 37.1349
119.64 1345 36.6742
119.757 1369 37
119.875 1510 38.8587
119.992 1495 38.6652
120.109 1573 39.6611
120.226 1564 39.5474
120.343 1526 39.064
120.46 1582 39.7744
120.578 1554 39.4208
120.695 1597 39.9625
120.812 1499 38.7169
120.929 1486 38.5487
121.046 1479 38.4578
121.163 1409 37.5366
121.279 1506 38.8072
121.396 1559 39.4842
121.513 1645 40.5586
121.63 1632 40.398
121.747 1732 41.6173
121.863 1718 41.4488
121.98 1753 41.8688
122.097 1758 41.9285
122.213 1821 42.6732
122.33 1754 41.8808
122.446 1722 41.497
122.563 1689 41.0974
122.679 1650 40.6202
122.795 1686 41.0609
122.912 1584 39.7995
123.028 1614 40.1746
123.144 1511 38.8716
123.26 1347 36.7015
123.377 0 1
123.493 0 1
123.609 0 1
123.725 0 1
123.84 0 1
123.956 0 1
124.072 0 1
124.188 0 1
124.303 0 1
124.419 0 1
126.852 0 1
126.968 0 1
127.083 0 1
127.199 0 1
127.315 0 1
127.431 0 1
127.547 0 1
127.663 0 1
127.779 0 1
127.895 0 1
128.011 0 1
128.127 0 1
128.243 0 1
128.359 1646 40.5709
128.476 1622 40.2741
128.592 1447 38.0395
128.708 1491 38.6135
128.825 1521 39
128.941 1597 39.9625
129.058 1605 40.0625
129.174 1619 40.2368
129.291 1698 41.2068
129.408 1676 40.939
129.524 1572 39.6485
129.641 1582 39.7744
129.758 1578 39.724
129.875 1449 38.0657
129.992 1450 38.0789
130.108 1393 37.3229
130.225 1411 37.5633
130.342 1541 39.2556
130.459 1426 37.7624
130.576 1590 39.8748
130.693 1578 39.724
130.81 1647 40.5832
130.928 1604 40.05
131.045 1649 40.6079
131.162 1582 39.7744
131.279 1667 40.8289
131.396 1609 40.1123
131.513 1526 39.064
131.631 1474 38.3927
131.748 1495 38.6652
131.865 1441 37.9605
131.983 1316 36.2767
132.1 1269 35.623
132.217 1311 36.2077
132.335 1318 36.3043
132.452 1395 37.3497
132.57 1423 37.7227
132.687 1334 36.524
132.804 1451 38.092
132.922 1420 37.6829
133.039 1401 37.4299
133.157 1375 37.081
133.274 1277 35.7351
133.392 1304 36.1109
133.509 1229 35.0571
133.627 1245 35.2846
133.744 1227 35.0286
133.862 1246 35.2987
133.979 1329 36.4555
134.097 1294 35.9722
134.214 1368 36.9865
134.332 1417 37.6431
134.449 1398 37.3898
134.567 1488 38.5746
134.684 1469 38.3275
134.802 1464 38.2623
134.919 1471 38.3536
135.037 1451 38.092
135.154 1387 37.2424
135.272 1321 36.3456
135.389 1340 36.606
135.507 1276 35.7211
135.624 1230 35.0714
135.742 1210 34.7851
135.859 1240 35.2136
135.977 1250 35.3553
136.094 1340 36.606
136.211 1335 36.5377
136.329 1322 36.3593
136.446 1287 35.8748
136.564 1331 36.4829
136.681 1300 36.0555
136.798 1242 35.242
136.915 1190 34.4964
137.033 1176 34.2929
137.15 1149 33.8969
137.267 1124 33.5261
137.384 1175 34.2783
137.502 1097 33.121
137.619 1203 34.6843
137.736 1199 34.6266
137.853 1198 34.6121
137.97 1246 35.2987
138.087 1175 34.2783
138.204 1260 35.4965
138.321 1265 35.5668
138.438 1184 34.4093
138.555 1258 35.4683
138.672 1263 35.5387
138.788 1198 34.6121
138.905 1303 36.0971
139.022 1172 34.2345
139.139 1070 32.7109
139.255 1162 34.0881
139.372 1076 32.8024
139.488 1206 34.7275
139.605 1154 33.9706
139.721 1180 34.3511
139.838 1186 34.4384
139.954 1217 34.8855
140.071 1144 33.8231
140.187 1211 34.7994
140.303 1144 33.8231
140.419 1155 33.9853
140.535 1108 33.2866
140.652 1128 33.5857
140.768 0 1
140.884 0 1
141 0 1
141.115 0 1
141.231 0 1
141.347 0 1
141.463 0 1
141.578 0 1
141.694 0 1
144.104 0 1
144.219 0 1
144.335 0 1
144.45 0 1
144.566 0 1
144.682 0 1
144.798 0 1
144.914 0 1
145.03 0 1
145.146 1133 33.6601
145.262 1152 33.9411
145.378 1086 32.9545
145.494 1126 33.5559
145.61 1026 32.0312
145.726 1077 32.8177
145.842 1010 31.7805
145.959 1037 32.2025
146.075 1016 31.8748
146.192 1067 32.665
146.308 1073 32.7567
146.425 1184 34.4093
146.541 1107 33.2716
146.658 1196 34.5832
146.774 1207 34.7419
146.891 1173 34.2491
147.008 1205 34.7131
147.125 1199 34.6266
147.241 1228 35.0428
147.358 1152 33.9411
147.475 1170 34.2053
147.592 1203 34.6843
147.709 1119 33.4515
147.826 1121 33.4813
147.943 1030 32.0936
148.06 1066 32.6497
148.177 1102 33.1964
148.294 1128 33.5857
148.411 1165 34.1321
148.528 1186 34.4384
148.645 1205 34.7131
148.762 1209 34.7707
148.88 1140 33.7639
148.997 1112 33.3467
149.114 1113 33.3617
149.231 1093 33.0606
149.349 1137 33.7194
149.466 1057 32.5115
149.583 1052 32.4345
149.701 1081 32.8786
149.818 1118 33.4365
149.935 1046 32.3419
150.053 1057 32.5115
150.17 1101 33.1813
150.287 1103 33.2114
150.405 1223 34.9714
150.522 1169 34.1906
150.64 1253 35.3977
150.757 1246 35.2987
150.875 1246 35.2987
150.992 1150 33.9116
151.11 1180 34.3511
151.227 1213 34.8281
151.344 1214 34.8425
151.462 1090 33.0151
151.579 1112 33.3467
151.697 1122 33.4963
151.814 1188 34.4674
151.932 1198 34.6121
152.049 1197 34.5977
152.167 1223 34.9714
152.284 1224 34.9857
152.402 1238 35.1852
152.519 1181 34.3657
152.636 1202 34.6699
152.754 1224 34.9857
152.871 1161 34.0735
152.989 1151 33.9264
153.106 1107 33.2716
153.223 1117 33.4215
153.341 1197 34.5977
153.458 1219 34.9142
153.575 1194 34.5543
153.693 1210 34.7851
153.81 1255 35.426
153.927 1336 36.5513
154.044 1407 37.51
154.162 1346 36.6879
154.279 1436 37.8946
154.396 1407 37.51
154.513 1435 37.8814
154.63 1450 38.0789
154.747 1433 37.855
154.864 1414 37.6032
154.981 1371 37.027
155.098 1315 36.2629
155.215 1344 36.6606
155.332 1297 36.0139
155.449 1403 37.4566
155.566 1354 36.7967
155.683 1449 38.0657
155.8 1409 37.5366
155.917 1436 37.8946
156.033 1341 36.6197
156.15 0 1
156.267 0 1
156.383 0 1
156.5 0 1
156.617 0 1
156.733 0 1
156.85 0 1
156.966 0 1
157.082 0 1
157.199 0 1
157.315 0 1
157.431 0 1
157.547 0 1
157.664 0 1
157.78 0 1
157.896 0 1
158.012 0 1
158.128 0 1
158.244 0 1
158.359 0 1
158.475 0 1
158.591 0 1
158.706 0 1
