
6.15755 0 1
6.2731 0 1
6.3887 0 1
6.50437 0 1
6.62009 0 1
6.73587 0 1
6.8517 0 1
6.96759 0 1
7.08353 0 1
7.19952 0 1
7.31557 0 1
7.43166 0 1
7.54781 0 1
7.664 0 1
7.78024 0 1
7.89653 0 1
8.01286 0 1
8.12924 0 1
8.24567 0 1
8.36213 0 1
8.47864 0 1
8.59519 0 1
8.71178 0 1
8.82841 0 1
8.94508 0 1
9.06179 0 1
9.17853 0 1
9.29531 0 1
9.41212 0 1
9.52897 0 1
9.64584 0 1
9.76276 0 1
9.8797 0 1
9.99667 0 1
10.1137 0 1
10.2307 0 1
10.3478 0 1
10.4648 0 1
10.5819 0 1
10.6991 0 1
10.8162 0 1
10.9334 0 1
11.0506 0 1
11.1678 0 1
11.285 0 1
11.4023 0 1
11.5196 0 1
11.6369 0 1
11.7542 0 1
11.8715 0 1
11.9888 0 1
12.1062 0 1
12.2235 0 1
12.3409 0 1
12.4582 0 1
12.5756 0 1
12.693 0 1
12.8104 0 1
12.9278 0 1
13.0452 0 1
13.1626 0 1
13.28 0 1
13.3974 0 1
13.5149 0 1
13.6323 0 1
13.7497 0 1
13.8671 0 1
13.9845 0 1
14.1019 0 1
14.2193 0 1
14.3367 0 1
14.4541 0 1
14.5714 0 1
14.6888 0 1
14.8062 0 1
14.9235 0 1
15.0408 0 0
15.1581 0 0
15.2755 0 0
15.3927 0 0
15.51 0 0
15.6273 0 0
15.7445 0 0
15.8617 0 0
15.9789 0 0
16.0961 0 0
16.2132 0 0
16.3304 0 0
16.4475 0 0
16.5646 0 0
16.6816 0 0
16.7986 0 0
16.9156 0 0
17.0326 0 0
17.1496 0 0
17.2665 0 0
17.3833 0 0
17.5002 0 0
17.617 0 0
17.7338 0 0
17.8505 0 0
17.9672 0 0
18.0839 0 0
18.2005 0 0
18.3171 0 0
18.4337 0 0
18.5502 0 0
18.6666 0 0
18.7831 0 0
18.8994 0 0
19.0158 0 0
19.1321 0 0
19.2483 0 0
19.3645 0 0
19.4806 0 0
19.5967 0 0
19.7128 0 0
19.8288 0 0
19.9447 0 0
20.0606 0 1
20.1764 0 1
20.2922 0 1
20.4079 0 1
20.5236 0 1
20.6392 0 1
20.7548 0 1
20.8702 0 1
23.3078 0 1
23.4233 0 1
23.539 0 1
23.6547 0 1
23.7704 0 1
23.8862 0 1
24.0021 0 1
24.118 0 1
24.234 0 1
24.35 0 1
24.4661 1379 37.1349
24.5822 1408 37.5233
24.6984 1363 36.9188
24.8146 1365 36.9459
24.9309 1329 36.4555
25.0472 1348 36.7151
25.1636 1387 37.2424
25.28 1351 36.756
25.3965 1349 36.7287
25.513 1355 36.8103
25.6296 1452 38.1051
25.7462 1498 38.704
25.8628 1450 38.0789
25.9795 1462 38.2361
26.0962 1465 38.2753
26.213 1447 38.0395
26.3298 1400 37.4166
26.4466 1333 36.5103
26.5635 1296 36
26.6804 1213 34.8281
26.7973 1263 35.5387
26.9143 1216 34.8712
27.0313 1303 36.0971
27.1483 1329 36.4555
27.2653 1416 37.6298
27.3824 1395 37.3497
27.4996 1410 37.55
27.6167 1407 37.51
27.7339 1388 37.2559
27.8511 1427 37.7757
27.9683 1405 37.4833
28.0855 1419 37.6696
28.2028 1330 36.4692
28.3201 1331 36.4829
28.4374 1304 36.1109
28.5547 1325 36.4005
28.6721 1327 36.428
28.7894 1324 36.3868
28.9068 1315 36.2629
29.0242 1307 36.1525
29.1416 1270 35.6371
29.259 1273 35.6791
29.3764 1353 36.7831
29.4939 1303 36.0971
29.6113 1340 36.606
29.7288 1364 36.9324
29.8463 1316 36.2767
29.9638 1281 35.7911
30.0812 1137 33.7194
30.1987 1113 33.3617
30.3162 1104 33.2265
30.4337 1164 34.1174
30.5512 1214 34.8425
30.6687 1220 34.9285
30.7862 1322 36.3593
30.9037 1347 36.7015
31.0212 1404 37.47
31.1387 1387 37.2424
31.2562 1426 37.7624
31.3737 1354 36.7967
31.4912 1337 36.565
31.6087 1316 36.2767
31.7262 1384 37.2022
31.8436 1249 35.3412
31.9611 1314 36.2491
32.0785 1316 36.2767
32.1959 1186 34.4384
32.3134 1265 35.5668
32.4308 1249 35.3412
32.5482 1234 35.1283
32.6655 1288 35.8887
32.7829 1284 35.8329
32.9002 1342 36.6333
33.0176 1260 35.4965
33.1349 1313 36.2353
33.2522 1287 35.8748
33.3694 1246 35.2987
33.4867 1252 35.3836
33.6039 1262 35.5246
33.7211 1149 33.8969
33.8383 1173 34.2491
33.9554 1080 32.8634
34.0725 1058 32.5269
34.1896 1149 33.8969
34.3067 1130 33.6155
34.4237 1201 34.6554
34.5407 1256 35.4401
34.6577 1327 36.428
34.7746 1298 36.0278
34.8915 1292 35.9444
35.0084 1284 35.8329
35.1252 1251 35.3695
35.242 1274 35.6931
35.3587 1312 36.2215
35.4755 1259 35.4824
35.5921 1247 35.3129
35.7088 1264 35.5528
35.8254 1251 35.3695
35.9419 1193 34.5398
36.0584 1186 34.4384
36.1749 1138 33.7343
36.2913 1241 35.2278
36.4077 1222 34.9571
36.524 1195 34.5688
36.6403 1149 33.8969
36.7565 1234 35.1283
36.8727 1217 34.8855
36.9889 1232 35.0999
37.1049 1200 34.641
37.221 0 1
37.3369 0 1
37.4529 0 1
37.5687 0 1
37.6845 0 1
37.8003 0 1
37.916 0 1
38.0316 0 1
38.1472 0 1
40.5851 0 1
40.7008 0 1
40.8164 0 1
40.9322 0 1
41.048 0 1
41.1639 0 1
41.2798 0 1
41.3958 0 1
41.5118 0 1
41.6279 0 1
41.744 922 30.3645
41.8602 949 30.8058
41.9765 929 30.4795
42.0928 974 31.209
42.2091 1022 31.9687
42.3255 943 30.7083
42.4419 940 30.6594
42.5584 857 29.2746
42.675 728 26.9815
42.7915 721 26.8514
42.9081 792 28.1425
43.0248 912 30.1993
43.1415 883 29.7153
43.2582 915 30.249
43.375 883 29.7153
43.4918 927 30.4467
43.6087 914 30.2324
43.7256 858 29.2916
43.8425 919 30.315
43.9595 922 30.3645
44.0765 833 28.8617
44.1935 883 29.7153
44.3106 850 29.1548
44.4277 828 28.775
44.5448 771 27.7669
44.6619 716 26.7582
44.7791 700 26.4575
44.8963 696 26.3818
45.0136 727 26.9629
45.1308 741 27.2213
45.2481 679 26.0576
45.3654 723 26.8887
45.4827 713 26.7021
45.6001 709 26.6271
45.7174 740 27.2029
45.8348 665 25.7876
45.9522 716 26.7582
46.0697 583 24.1454
46.1871 627 25.04
46.3046 514 22.6716
46.422 566 23.7908
46.5395 591 24.3105
46.657 591 24.3105
46.7745 669 25.865
46.892 699 26.4386
47.0096 674 25.9615
47.1271 698 26.4197
47.2446 687 26.2107
47.3622 644 25.3772
47.4797 638 25.2587
47.5973 649 25.4755
47.7149 633 25.1595
47.8324 590 24.2899
47.95 594 24.3721
48.0675 544 23.3238
48.1851 565 23.7697
48.3027 540 23.2379
48.4202 536 23.1517
48.5378 525 22.9129
48.6554 501 22.383
48.7729 508 22.5389
48.8904 520 22.8035
49.008 514 22.6716
49.1255 564 23.7487
49.243 550 23.4521
49.3605 513 22.6495
49.478 528 22.9783
49.5955 473 21.7486
49.713 450 21.2132
49.8304 389 19.7231
49.9479 444 21.0713
50.0653 506 22.4944
50.1827 551 23.4734
50.3001 588 24.2487
50.4175 617 24.8395
50.5348 607 24.6374
50.6521 682 26.1151
50.7694 678 26.0384
50.8867 706 26.5707
51.004 704 26.533
51.1212 708 26.6083
51.2384 709 26.6271
51.3556 716 26.7582
51.4727 744 27.2764
51.5899 715 26.7395
51.707 702 26.4953
51.824 719 26.8142
51.9411 737 27.1477
52.0581 666 25.807
52.175 737 27.1477
52.2919 757 27.5136
52.4088 795 28.1957
52.5257 816 28.5657
52.6425 912 30.1993
52.7593 893 29.8831
52.876 906 30.0998
52.9927 884 29.7321
53.1094 868 29.4618
53.226 759 27.55
53.3426 710 26.6458
53.4591 715 26.7395
53.5756 703 26.5141
53.692 782 27.9643
53.8084 950 30.8221
53.9248 1009 31.7648
54.0411 1056 32.4962
54.1573 1088 32.9848
54.2735 0 1
54.3896 0 1
54.5057 0 1
54.6217 0 1
54.7377 0 1
54.8537 0 1
54.9695 0 1
55.0853 0 1
55.2011 0 1
55.3168 0 1
55.4324 0 1
57.824 0 1
57.9396 0 1
58.0553 0 1
58.1711 0 1
58.2869 0 1
58.4028 0 1
58.5187 0 1
58.6347 0 1
58.7508 0 1
58.8669 0 1
58.983 1022 31.9687
59.0992 1088 32.9848
59.2155 1210 34.7851
59.3318 1273 35.6791
59.4482 1237 35.171
59.5646 1189 34.4819
59.681 1256 35.4401
59.7975 1209 34.7707
59.9141 1194 34.5543
60.0306 1150 33.9116
60.1473 1064 32.619
60.2639 1119 33.4515
60.3807 1154 33.9706
60.4974 1093 33.0606
60.6142 1019 31.9218
60.731 1012 31.8119
60.8479 1024 32
60.9648 975 31.225
61.0818 1029 32.078
61.1987 1053 32.45
61.3158 989 31.4484
61.4328 1079 32.8481
61.5499 1047 32.3574
61.667 895 29.9166
61.7841 824 28.7054
61.9013 756 27.4955
62.0185 731 27.037
62.1357 861 29.3428
62.253 920 30.3315
62.3702 1030 32.0936
62.4875 1089 33
62.6049 1155 33.9853
62.7222 1137 33.7194
62.8396 1145 33.8378
62.9569 1185 34.4238
63.0743 1196 34.5832
63.1918 1259 35.4824
63.3092 1140 33.7639
63.4267 1139 33.7491
63.5441 1149 33.8969
63.6616 1144 33.8231
63.7791 1054 32.4654
63.8966 1098 33.1361
64.0142 1069 32.6956
64.1317 1072 32.7414
64.2492 1059 32.5423
64.3668 1017 31.8904
64.4843 1021 31.9531
64.6019 1104 33.2265
64.7195 1118 33.4365
64.837 1061 32.573
64.9546 1112 33.3467
65.0722 1052 32.4345
65.1898 1032 32.1248
65.3074 940 30.6594
65.4249 835 28.8964
65.5425 791 28.1247
65.6601 770 27.7489
65.7777 928 30.4631
65.8952 1025 32.0156
66.0128 1107 33.2716
66.1304 1186 34.4384
66.2479 1244 35.2704
66.3655 1258 35.4683
66.483 1267 35.5949
66.6005 1305 36.1248
66.718 1257 35.4542
66.8355 1214 34.8425
66.953 1217 34.8855
67.0705 1165 34.1321
67.1879 1130 33.6155
67.3054 1102 33.1964
67.4228 1053 32.45
67.5402 983 31.3528
67.6576 990 31.4643
67.7749 957 30.9354
67.8923 991 31.4802
68.0096 1007 31.7333
68.1269 1000 31.6228
68.2442 1048 32.3728
68.3614 1064 32.619
68.4787 1124 33.5261
68.5958 1074 32.7719
68.713 1016 31.8748
68.8302 1005 31.7017
68.9473 766 27.6767
69.0643 761 27.5862
69.1814 748 27.3496
69.2984 719 26.8142
69.4154 857 29.2746
69.5323 947 30.7734
69.6492 1005 31.7017
69.7661 1094 33.0757
69.8829 1139 33.7491
69.9997 1195 34.5688
70.1165 1206 34.7275
70.2332 1241 35.2278
70.3499 1195 34.5688
70.4665 1172 34.2345
70.5831 1212 34.8138
70.6996 1189 34.4819
70.8161 1053 32.45
70.9326 1045 32.3265
71.049 1004 31.686
71.1653 952 30.8545
71.2817 969 31.1288
71.3979 879 29.6479
71.5141 940 30.6594
71.6303 883 29.7153
71.7464 809 28.4429
71.8624 0 1
71.9784 0 1
72.0944 0 1
72.2102 0 1
72.3261 0 1
72.4418 0 1
72.5575 0 1
72.6732 0 1
75.1054 0 1
75.2209 0 1
75.3365 0 1
75.4521 0 1
75.5678 0 1
75.6835 0 1
75.7993 0 1
75.9151 0 1
76.031 0 1
76.147 962 31.0161
76.263 1012 31.8119
76.3791 1018 31.9061
76.4952 971 31.1609
76.6113 978 31.273
76.7276 892 29.8664
76.8438 937 30.6105
76.9601 902 30.0333
77.0765 1016 31.8748
77.1929 996 31.5595
77.3093 1019 31.9218
77.4258 1053 32.45
77.5423 1033 32.1403
77.6589 1026 32.0312
77.7755 906 30.0998
77.8921 826 28.7402
78.0088 694 26.3439
78.1256 717 26.7769
78.2423 636 25.219
78.3591 675 25.9808
78.4759 815 28.5482
78.5928 960 30.9839
78.7097 1085 32.9393
78.8266 999 31.607
78.9436 1128 33.5857
79.0606 1113 33.3617
79.1776 1128 33.5857
79.2946 1128 33.5857
79.4117 1103 33.2114
79.5288 1121 33.4813
79.6459 1040 32.249
79.7631 1067 32.665
79.8802 1039 32.2335
79.9974 917 30.282
80.1147 872 29.5296
80.2319 788 28.0713
80.3491 843 29.0345
80.4664 798 28.2489
80.5837 842 29.0172
80.701 862 29.3598
80.8183 837 28.931
80.9357 899 29.9833
81.053 881 29.6816
81.1704 902 30.0333
81.2877 872 29.5296
81.4051 845 29.0689
81.5225 788 28.0713
81.6399 650 25.4951
81.7573 585 24.1868
81.8747 572 23.9165
81.9922 610 24.6982
82.1096 736 27.1293
82.227 848 29.1204
82.3444 893 29.8831
82.4619 917 30.282
82.5793 952 30.8545
82.6967 979 31.289
82.8142 954 30.8869
82.9316 937 30.6105
83.049 945 30.7409
83.1664 914 30.2324
83.2838 893 29.8831
83.4012 826 28.7402
83.5186 738 27.1662
83.636 832 28.8444
83.7534 785 28.0179
83.8708 688 26.2298
83.9881 681 26.096
84.1055 697 26.4008
84.2228 676 26
84.3401 760 27.5681
84.4575 790 28.1069
84.5747 768 27.7128
84.692 868 29.4618
84.8093 826 28.7402
84.9265 799 28.2666
85.0437 682 26.1151
85.1609 621 24.9199
85.2781 579 24.0624
85.3952 552 23.4947
85.5123 569 23.8537
85.6294 656 25.6125
85.7465 755 27.4773
85.8636 860 29.3258
85.9806 900 30
86.0976 989 31.4484
86.2145 1019 31.9218
86.3315 1086 32.9545
86.4484 1036 32.187
86.5652 1078 32.8329
86.682 1072 32.7414
86.7988 1078 32.8329
86.9156 1038 32.218
87.0323 989 31.4484
87.149 974 31.209
87.2657 901 30.0167
87.3823 839 28.9655
87.4988 784 28
87.6154 853 29.2062
87.7318 976 31.241
87.8483 951 30.8383
87.9647 919 30.315
88.081 1049 32.3883
88.1973 1072 32.7414
88.3136 1010 31.7805
88.4298 1041 32.2645
88.546 917 30.282
88.6621 853 29.2062
88.7781 756 27.4955
88.8942 0 1
89.0101 0 1
89.126 0 1
89.2419 0 1
89.3577 0 1
89.4734 0 1
89.5891 0 1
89.7047 0 1
89.8203 0 1
89.9358 0 1
92.3269 0 1
92.4424 0 1
92.558 0 1
92.6736 0 1
92.7893 0 1
92.905 0 1
93.0208 0 1
93.1366 0 1
93.2525 0 1
93.3685 0 1
93.4845 0 1
93.6005 1007 31.7333
93.7167 1050 32.4037
93.8328 1058 32.5269
93.949 985 31.3847
94.0653 863 29.3769
94.1816 831 28.8271
94.2979 725 26.9258
94.4143 720 26.8328
94.5307 686 26.1916
94.6472 680 26.0768
94.7637 827 28.7576
94.8803 940 30.6594
94.9969 1040 32.249
95.1135 1091 33.0303
95.2302 1083 32.909
95.3469 1080 32.8634
95.4637 1185 34.4238
95.5805 1210 34.7851
95.6973 1203 34.6843
95.8142 1253 35.3977
95.9311 1192 34.5254
96.048 1103 33.2114
96.1649 1084 32.9242
96.2819 1036 32.187
96.3989 994 31.5278
96.516 918 30.2985
96.633 923 30.3809
96.7501 927 30.4467
96.8673 931 30.5123
96.9844 985 31.3847
97.1016 995 31.5436
97.2188 1042 32.28
97.336 1136 33.7046
97.4532 1076 32.8024
97.5704 1007 31.7333
97.6877 959 30.9677
97.805 823 28.688
97.9223 730 27.0185
98.0396 716 26.7582
98.1569 686 26.1916
98.2743 780 27.9285
98.3916 775 27.8388
98.509 940 30.6594
98.6264 1034 32.1559
98.7438 1055 32.4808
98.8612 1161 34.0735
98.9786 1230 35.0714
99.096 1244 35.2704
99.2134 1151 33.9264
99.3308 1304 36.1109
99.4482 1241 35.2278
99.5656 1201 34.6554
99.6831 1163 34.1028
99.8005 1153 33.9559
99.9179 1092 33.0454
100.035 1052 32.4345
100.153 979 31.289
100.27 902 30.0333
100.388 948 30.7896
100.505 974 31.209
100.622 1021 31.9531
100.74 1056 32.4962
100.857 1123 33.5112
100.975 1108 33.2866
101.092 997 31.5753
101.209 1006 31.7175
101.327 939 30.6431
101.444 859 29.3087
101.561 796 28.2135
101.679 767 27.6948
101.796 792 28.1425
101.913 797 28.2312
102.03 947 30.7734
102.148 1059 32.5423
102.265 1055 32.4808
102.382 1220 34.9285
102.499 1270 35.6371
102.616 1313 36.2353
102.733 1337 36.565
102.851 1251 35.3695
102.968 1311 36.2077
103.085 1283 35.819
103.202 1213 34.8281
103.319 1238 35.1852
103.436 1160 34.0588
103.552 1107 33.2716
103.669 1047 32.3574
103.786 1031 32.1092
103.903 960 30.9839
104.02 1083 32.909
104.137 1149 33.8969
104.253 1193 34.5398
104.37 1161 34.0735
104.487 1175 34.2783
104.603 1166 34.1467
104.72 1085 32.9393
104.836 977 31.257
104.953 940 30.6594
105.069 875 29.5804
105.186 900 30
105.302 837 28.931
105.418 916 30.2655
105.535 1055 32.4808
105.651 1246 35.2987
105.767 1301 36.0694
105.883 1364 36.9324
105.999 1413 37.5899
106.115 0 1
106.231 0 1
106.347 0 1
106.463 0 1
106.579 0 1
106.694 0 1
106.81 0 1
106.926 0 1
107.041 0 1
107.157 0 1
109.576 0 1
109.692 0 1
109.807 0 1
109.923 0 1
110.039 0 1
110.155 0 1
110.27 0 1
110.386 0 1
110.502 0 1
110.618 1009 31.7648
110.735 1187 34.4529
110.851 1211 34.7994
110.967 1320 36.3318
111.083 1311 36.2077
111.199 1382 37.1753
111.316 1391 37.2961
111.432 1410 37.55
111.549 1278 35.7491
111.665 1392 37.3095
111.782 1251 35.3695
111.898 1168 34.176
112.015 1114 33.3766
112.132 1118 33.4365
112.248 969 31.1288
112.365 1020 31.9374
112.482 971 31.1609
112.599 1050 32.4037
112.716 1110 33.3167
112.832 1099 33.1512
112.949 1144 33.8231
113.066 1092 33.0454
113.183 1170 34.2053
113.3 1061 32.573
113.417 1038 32.218
113.534 908 30.133
113.652 807 28.4077
113.769 863 29.3769
113.886 855 29.2404
114.003 840 28.9828
114.12 1029 32.078
114.238 1112 33.3467
114.355 1191 34.5109
114.472 1223 34.9714
114.589 1284 35.8329
114.707 1267 35.5949
114.824 1287 35.8748
114.942 1289 35.9026
115.059 1313 36.2353
115.176 1288 35.8887
115.294 1220 34.9285
115.411 1218 34.8999
115.529 1120 33.4664
115.646 1161 34.0735
115.764 1085 32.9393
115.881 1009 31.7648
115.999 1097 33.121
116.116 1118 33.4365
116.234 1119 33.4515
116.351 1167 34.1614
116.469 1166 34.1467
116.586 1225 35
116.704 1207 34.7419
116.821 1091 33.0303
116.939 1100 33.1662
117.056 982 31.3369
117.174 956 30.9192
117.291 896 29.9333
117.409 862 29.3598
117.526 853 29.2062
117.644 1039 32.2335
117.761 1162 34.0881
117.879 1196 34.5832
117.996 1309 36.1801
118.114 1287 35.8748
118.231 1453 38.1182
118.349 1339 36.5923
118.466 1373 37.054
118.584 1454 38.1314
118.701 1450 38.0789
118.819 1386 37.229
118.936 1264 35.5528
119.053 1267 35.5949
119.171 1250 35.3553
119.288 1135 33.6898
119.405 1131 33.6303
119.523 1124 33.5261
119.64 1091 33.0303
119.757 1102 33.1964
119.875 1165 34.1321
119.992 1176 34.2929
120.109 1170 34.2053
120.226 1160 34.0588
120.343 1112 33.3467
120.46 1139 33.7491
120.578 1107 33.2716
120.695 1068 32.6803
120.812 986 31.4006
120.929 918 30.2985
121.046 943 30.7083
121.163 931 30.5123
121.279 1007 31.7333
121.396 1029 32.078
121.513 1268 35.609
121.63 1268 35.609
121.747 1304 36.1109
121.863 1334 36.524
121.98 1315 36.2629
122.097 1400 37.4166
122.213 1396 37.3631
122.33 1364 36.9324
122.446 1347 36.7015
122.563 1337 36.565
122.679 1212 34.8138
122.795 1215 34.8569
122.912 1129 33.6006
123.028 1146 33.8526
123.144 1073 32.7567
123.26 1053 32.45
123.377 0 1
123.493 0 1
123.609 0 1
123.725 0 1
123.84 0 1
123.956 0 1
124.072 0 1
124.188 0 1
124.303 0 1
124.419 0 1
126.852 0 1
126.968 0 1
127.083 0 1
127.199 0 1
127.315 0 1
127.431 0 1
127.547 0 1
127.663 0 1
127.779 0 1
127.895 0 1
128.011 0 1
128.127 0 1
128.243 0 1
128.359 1200 34.641
128.476 1180 34.3511
128.592 1178 34.322
128.708 1215 34.8569
128.825 1299 36.0416
128.941 1258 35.4683
129.058 1273 35.6791
129.174 1270 35.6371
129.291 1250 35.3553
129.408 1202 34.6699
129.524 1274 35.6931
129.641 1162 34.0881
129.758 1145 33.8378
129.875 1121 33.4813
129.992 989 31.4484
130.108 1002 31.6544
130.225 1088 32.9848
130.342 1131 33.6303
130.459 1190 34.4964
130.576 1284 35.8329
130.693 1302 36.0832
130.81 1364 36.9324
130.928 1372 37.0405
131.045 1410 37.55
131.162 1385 37.2156
131.279 1424 37.7359
131.396 1350 36.7423
131.513 1359 36.8646
131.631 1278 35.7491
131.748 1296 36
131.865 1242 35.242
131.983 1234 35.1283
132.1 1194 34.5543
132.217 1217 34.8855
132.335 1257 35.4542
132.452 1319 36.318
132.57 1335 36.5377
132.687 1296 36
132.804 1326 36.4143
132.922 1329 36.4555
133.039 1166 34.1467
133.157 1208 34.7563
133.274 1143 33.8083
133.392 1134 33.6749
133.509 1092 33.0454
133.627 1005 31.7017
133.744 1034 32.1559
133.862 1124 33.5261
133.979 1151 33.9264
134.097 1249 35.3412
134.214 1283 35.819
134.332 1412 37.5766
134.449 1306 36.1386
134.567 1379 37.1349
134.684 1316 36.2767
134.802 1390 37.2827
134.919 1374 37.0675
135.037 1331 36.4829
135.154 1409 37.5366
135.272 1251 35.3695
135.389 1353 36.7831
135.507 1261 35.5106
135.624 1199 34.6266
135.742 1241 35.2278
135.859 1177 34.3074
135.977 1295 35.9861
136.094 1376 37.0945
136.211 1350 36.7423
136.329 1322 36.3593
136.446 1353 36.7831
136.564 1297 36.0139
136.681 1359 36.8646
136.798 1328 36.4417
136.915 1180 34.3511
137.033 1192 34.5254
137.15 1083 32.909
137.267 1021 31.9531
137.384 1151 33.9264
137.502 1108 33.2866
137.619 1131 33.6303
137.736 1206 34.7275
137.853 1185 34.4238
137.97 1303 36.0971
138.087 1330 36.4692
138.204 1378 37.1214
138.321 1282 35.805
138.438 1338 36.5787
138.555 1346 36.6879
138.672 1384 37.2022
138.788 1353 36.7831
138.905 1360 36.8782
139.022 1354 36.7967
139.139 1299 36.0416
139.255 1136 33.7046
139.372 1245 35.2846
139.488 1267 35.5949
139.605 1276 35.7211
139.721 1336 36.5513
139.838 1314 36.2491
139.954 1335 36.5377
140.071 1279 35.7631
140.187 1264 35.5528
140.303 1210 34.7851
140.419 1240 35.2136
140.535 1168 34.176
140.652 1169 34.1906
140.768 0 1
140.884 0 1
141 0 1
141.115 0 1
141.231 0 1
141.347 0 1
141.463 0 1
141.578 0 1
141.694 0 1
144.104 0 1
144.219 0 1
144.335 0 1
144.45 0 1
144.566 0 1
144.682 0 1
144.798 0 1
144.914 0 1
145.03 0 1
145.146 860 29.3258
145.262 930 30.4959
145.378 1001 31.6386
145.494 954 30.8869
145.61 978 31.273
145.726 983 31.3528
145.842 955 30.9031
145.959 892 29.8664
146.075 875 29.5804
146.192 798 28.2489
146.308 860 29.3258
146.425 854 29.2233
146.541 951 30.8383
146.658 922 30.3645
146.774 951 30.8383
146.891 1007 31.7333
147.008 1055 32.4808
147.125 1035 32.1714
147.241 1073 32.7567
147.358 1031 32.1092
147.475 1046 32.3419
147.592 1025 32.0156
147.709 1059 32.5423
147.826 1020 31.9374
147.943 1039 32.2335
148.06 985 31.3847
148.177 920 30.3315
148.294 911 30.1828
148.411 990 31.4643
148.528 991 31.4802
148.645 1026 32.0312
148.762 1080 32.8634
148.88 1043 32.2955
148.997 969 31.1288
149.114 1003 31.6702
149.231 1016 31.8748
149.349 969 31.1288
149.466 1017 31.8904
149.583 1013 31.8277
149.701 939 30.6431
149.818 902 30.0333
149.935 925 30.4138
150.053 855 29.2404
150.17 915 30.249
150.287 882 29.6985
150.405 949 30.8058
150.522 910 30.1662
150.64 1042 32.28
150.757 1091 33.0303
150.875 1072 32.7414
150.992 1126 33.5559
151.11 1138 33.7343
151.227 1090 33.0151
151.344 1091 33.0303
151.462 1065 32.6343
151.579 1063 32.6037
151.697 1020 31.9374
151.814 1023 31.9844
151.932 909 30.1496
152.049 993 31.5119
152.167 1050 32.4037
152.284 1072 32.7414
152.402 1023 31.9844
152.519 1061 32.573
152.636 1146 33.8526
152.754 1026 32.0312
152.871 1037 32.2025
152.989 1099 33.1512
153.106 1086 32.9545
153.223 1077 32.8177
153.341 1033 32.1403
153.458 1027 32.0468
153.575 988 31.4325
153.693 918 30.2985
153.81 997 31.5753
153.927 969 31.1288
154.044 1023 31.9844
154.162 1049 32.3883
154.279 1121 33.4813
154.396 1097 33.121
154.513 1127 33.5708
154.63 1203 34.6843
154.747 1243 35.2562
154.864 1274 35.6931
154.981 1214 34.8425
155.098 1186 34.4384
155.215 1168 34.176
155.332 1171 34.2199
155.449 1135 33.6898
155.566 1119 33.4515
155.683 1171 34.2199
155.8 1278 35.7491
155.917 1151 33.9264
156.033 1180 34.3511
156.15 0 1
156.267 0 1
156.383 0 1
156.5 0 1
156.617 0 1
156.733 0 1
156.85 0 1
156.966 0 1
157.082 0 1
157.199 0 1
157.315 0 1
157.431 0 1
157.547 0 1
157.664 0 1
157.78 0 1
157.896 0 1
158.012 0 1
158.128 0 1
158.244 0 1
158.359 0 1
158.475 0 1
158.591 0 1
158.706 0 1
