
6.15755 0 1
6.2731 0 1
6.3887 0 1
6.50437 0 1
6.62009 0 1
6.73587 0 1
6.8517 0 1
6.96759 0 1
7.08353 0 1
7.19952 0 1
7.31557 0 1
7.43166 0 1
7.54781 0 1
7.664 0 1
7.78024 0 1
7.89653 0 1
8.01286 0 1
8.12924 0 1
8.24567 0 1
8.36213 0 1
8.47864 0 1
8.59519 0 1
8.71178 0 1
8.82841 0 1
8.94508 0 1
9.06179 0 1
9.17853 0 1
9.29531 0 1
9.41212 0 1
9.52897 0 1
9.64584 0 1
9.76276 0 1
9.8797 0 1
9.99667 0 1
10.1137 0 1
10.2307 0 1
10.3478 0 1
10.4648 0 1
10.5819 0 1
10.6991 0 1
10.8162 0 1
10.9334 0 1
11.0506 0 1
11.1678 0 1
11.285 0 1
11.4023 0 1
11.5196 0 1
11.6369 0 1
11.7542 0 1
11.8715 0 1
11.9888 0 1
12.1062 0 1
12.2235 0 1
12.3409 0 1
12.4582 0 1
12.5756 0 1
12.693 0 1
12.8104 0 1
12.9278 0 1
13.0452 0 1
13.1626 0 1
13.28 0 1
13.3974 0 1
13.5149 0 1
13.6323 0 1
13.7497 0 1
13.8671 0 1
13.9845 0 1
14.1019 0 1
14.2193 0 1
14.3367 0 1
14.4541 0 1
14.5714 0 1
14.6888 0 1
14.8062 0 1
14.9235 0 1
15.0408 4797 69.2604
15.1581 4989 70.6329
15.2755 5413 73.5731
15.3927 5215 72.215
15.51 5314 72.8972
15.6273 5291 72.7393
15.7445 5150 71.7635
15.8617 5214 72.208
15.9789 5016 70.8237
16.0961 5156 71.8053
16.2132 5240 72.3878
16.3304 5335 73.0411
16.4475 5183 71.9931
16.5646 5277 72.643
16.6816 5304 72.8286
16.7986 5485 74.0608
16.9156 5405 73.5187
17.0326 5372 73.2939
17.1496 5374 73.3076
17.2665 5385 73.3826
17.3833 5587 74.7462
17.5002 5449 73.8173
17.617 5499 74.1552
17.7338 5511 74.2361
17.8505 5454 73.8512
17.9672 5547 74.4782
18.0839 5403 73.5051
18.2005 5448 73.8106
18.3171 5562 74.5788
18.4337 5848 76.4722
18.5502 5803 76.1774
18.6666 6041 77.7239
18.7831 5870 76.6159
18.8994 6062 77.8588
19.0158 5738 75.7496
19.1321 5534 74.3909
19.2483 5381 73.3553
19.3645 5154 71.7914
19.4806 4902 70.0143
19.5967 4818 69.4118
19.7128 4585 67.7126
19.8288 4315 65.6887
19.9447 3731 61.0819
20.0606 0 1
20.1764 0 1
20.2922 0 1
20.4079 0 1
20.5236 0 1
20.6392 0 1
20.7548 0 1
20.8702 0 1
23.3078 0 1
23.4233 0 1
23.539 0 1
23.6547 0 1
23.7704 0 1
23.8862 0 1
24.0021 0 1
24.118 0 1
24.234 0 1
24.35 0 1
24.4661 2945 54.2679
24.5822 3331 57.7148
24.6984 3668 60.564
24.8146 4207 64.8614
24.9309 4524 67.2607
25.0472 4804 69.3109
25.1636 5198 72.0972
25.28 5180 71.9722
25.3965 5613 74.92
25.513 5712 75.5778
25.6296 5943 77.0909
25.7462 6061 77.8524
25.8628 6023 77.608
25.9795 6033 77.6724
26.0962 6168 78.5366
26.213 6363 79.7684
26.3298 6349 79.6806
26.4466 6408 80.05
26.5635 6336 79.599
26.6804 6335 79.5927
26.7973 6371 79.8185
26.9143 6354 79.712
27.0313 6450 80.3119
27.1483 6504 80.6474
27.2653 6829 82.6378
27.3824 6912 83.1384
27.4996 6765 82.2496
27.6167 6746 82.134
27.7339 6640 81.4862
27.8511 6622 81.3757
27.9683 6466 80.4114
28.0855 6355 79.7183
28.2028 6356 79.7245
28.3201 6388 79.925
28.4374 6418 80.1124
28.5547 6279 79.2401
28.6721 6345 79.6555
28.7894 6048 77.7689
28.9068 5879 76.6746
29.0242 5876 76.6551
29.1416 5838 76.4068
29.259 5754 75.8551
29.3764 5730 75.6968
29.4939 5927 76.987
29.6113 6097 78.0833
29.7288 6197 78.721
29.8463 6172 78.5621
29.9638 6327 79.5424
30.0812 6399 79.9937
30.1987 6355 79.7183
30.3162 6302 79.3851
30.4337 6436 80.2247
30.5512 6544 80.895
30.6687 6598 81.2281
30.7862 6886 82.9819
30.9037 6791 82.4075
31.0212 6891 83.012
31.1387 6964 83.4506
31.2562 6815 82.553
31.3737 6556 80.9691
31.4912 6573 81.074
31.6087 6440 80.2496
31.7262 6490 80.5605
31.8436 6454 80.3368
31.9611 6391 79.9437
32.0785 6424 80.1499
32.1959 6290 79.3095
32.3134 6079 77.9679
32.4308 6000 77.4597
32.5482 5945 77.1038
32.6655 5896 76.7854
32.7829 5936 77.0454
32.9002 5767 75.9408
33.0176 5882 76.6942
33.1349 6000 77.4597
33.2522 6120 78.2304
33.3694 6154 78.4474
33.4867 6350 79.6869
33.6039 6423 80.1436
33.7211 6235 78.962
33.8383 6380 79.8749
33.9554 6263 79.1391
34.0725 6495 80.5916
34.1896 6559 80.9877
34.3067 6700 81.8535
34.4237 6702 81.8657
34.5407 7137 84.4808
34.6577 6855 82.7949
34.7746 6715 81.9451
34.8915 6983 83.5643
35.0084 6727 82.0183
35.1252 6519 80.7403
35.242 6525 80.7775
35.3587 6675 81.7007
35.4755 6561 81
35.5921 6470 80.4363
35.7088 6269 79.177
35.8254 6127 78.2752
35.9419 5807 76.2037
36.0584 5678 75.3525
36.1749 5284 72.6911
36.2913 5164 71.861
36.4077 4921 70.1498
36.524 4757 68.971
36.6403 4812 69.3686
36.7565 4628 68.0294
36.8727 4526 67.2756
36.9889 4484 66.9627
37.1049 4359 66.0227
37.221 0 1
37.3369 0 1
37.4529 0 1
37.5687 0 1
37.6845 0 1
37.8003 0 1
37.916 0 1
38.0316 0 1
38.1472 0 1
40.5851 0 1
40.7008 0 1
40.8164 0 1
40.9322 0 1
41.048 0 1
41.1639 0 1
41.2798 0 1
41.3958 0 1
41.5118 0 1
41.6279 0 1
41.744 2831 53.2071
41.8602 3194 56.5155
41.9765 3596 59.9667
42.0928 3919 62.6019
42.2091 4307 65.6277
42.3255 4639 68.1102
42.4419 5214 72.208
42.5584 5505 74.1957
42.675 5575 74.6659
42.7915 5563 74.5855
42.9081 5744 75.7892
43.0248 6152 78.4347
43.1415 6226 78.905
43.2582 6400 80
43.375 6745 82.1279
43.4918 6943 83.3247
43.6087 6886 82.9819
43.7256 6653 81.5659
43.8425 6900 83.0662
43.9595 6632 81.4371
44.0765 6328 79.5487
44.1935 6583 81.1357
44.3106 6861 82.8312
44.4277 6642 81.4985
44.5448 6502 80.635
44.6619 6276 79.2212
44.7791 5864 76.5768
44.8963 5733 75.7166
45.0136 5298 72.7874
45.1308 5184 72
45.2481 4992 70.6541
45.3654 5076 71.2461
45.4827 5239 72.3809
45.6001 5496 74.135
45.7174 5498 74.1485
45.8348 5961 77.2075
45.9522 6422 80.1374
46.0697 6577 81.0987
46.1871 6629 81.4187
46.3046 6471 80.4425
46.422 6612 81.3142
46.5395 6636 81.4616
46.657 6909 83.1204
46.7745 6971 83.4925
46.892 7185 84.7644
47.0096 7308 85.4868
47.1271 7366 85.8254
47.2446 7318 85.5453
47.3622 7315 85.5278
47.4797 7286 85.3581
47.5973 7055 83.994
47.7149 7180 84.7349
47.8324 7092 84.214
47.95 7277 85.3053
48.0675 6939 83.3007
48.1851 6744 82.1219
48.3027 6253 79.0759
48.4202 5878 76.6681
48.5378 5406 73.5255
48.6554 5117 71.5332
48.7729 5033 70.9436
48.8904 5045 71.0282
49.008 5176 71.9444
49.1255 5477 74.0068
49.243 5849 76.4788
49.3605 6339 79.6178
49.478 6727 82.0183
49.5955 6835 82.6741
49.713 6951 83.3727
49.8304 6843 82.7224
49.9479 6713 81.9329
50.0653 6950 83.3667
50.1827 7163 84.6345
50.3001 7274 85.2877
50.4175 7568 86.9943
50.5348 7759 88.0852
50.6521 7679 87.6299
50.7694 7730 87.9204
50.8867 7797 88.3006
51.004 7571 87.0115
51.1212 7393 85.9826
51.2384 7190 84.7939
51.3556 7415 86.1104
51.4727 7331 85.6213
51.5899 7255 85.1763
51.707 7020 83.7854
51.824 6450 80.3119
51.9411 6114 78.1921
52.0581 5533 74.3841
52.175 5162 71.8471
52.2919 5109 71.4773
52.4088 5031 70.9295
52.5257 5208 72.1665
52.6425 5448 73.8106
52.7593 5804 76.184
52.876 6291 79.3158
52.9927 6534 80.8332
53.1094 6480 80.4984
53.226 6492 80.5729
53.3426 6349 79.6806
53.4591 6196 78.7147
53.5756 5969 77.2593
53.692 5858 76.5376
53.8084 5716 75.6042
53.9248 5695 75.4652
54.0411 5569 74.6257
54.1573 5228 72.3049
54.2735 0 1
54.3896 0 1
54.5057 0 1
54.6217 0 1
54.7377 0 1
54.8537 0 1
54.9695 0 1
55.0853 0 1
55.2011 0 1
55.3168 0 1
55.4324 0 1
57.824 0 1
57.9396 0 1
58.0553 0 1
58.1711 0 1
58.2869 0 1
58.4028 0 1
58.5187 0 1
58.6347 0 1
58.7508 0 1
58.8669 0 1
58.983 6222 78.8797
59.0992 6795 82.4318
59.2155 7477 86.4696
59.3318 8005 89.4707
59.4482 8475 92.0598
59.5646 8707 93.3113
59.681 8846 94.0532
59.7975 9136 95.5824
59.9141 9260 96.2289
60.0306 9424 97.0773
60.1473 9661 98.2904
60.2639 9550 97.7241
60.3807 9099 95.3887
60.4974 8460 91.9783
60.6142 8160 90.3327
60.731 7382 85.9186
60.8479 6691 81.7985
60.9648 6379 79.8686
61.0818 6191 78.6829
61.1987 6650 81.5475
61.3158 7184 84.7585
61.4328 8084 89.9111
61.5499 8895 94.3133
61.667 9746 98.7218
61.7841 10038 100.19
61.9013 10015 100.075
62.0185 10137 100.683
62.1357 10007 100.035
62.253 10132 100.658
62.3702 10489 102.416
62.4875 10611 103.01
62.6049 10812 103.981
62.7222 10982 104.795
62.8396 10999 104.876
62.9569 11002 104.89
63.0743 11081 105.266
63.1918 11053 105.133
63.3092 10963 104.704
63.4267 10843 104.13
63.5441 11074 105.233
63.6616 10920 104.499
63.7791 10549 102.708
63.8966 10264 101.311
64.0142 9342 96.654
64.1317 8381 91.5478
64.2492 7534 86.7986
64.3668 6654 81.5721
64.4843 6304 79.3977
64.6019 6193 78.6956
64.7195 6358 79.7371
64.837 6902 83.0783
64.9546 8082 89.8999
65.0722 9007 94.9052
65.1898 9782 98.904
65.3074 10710 103.489
65.4249 10601 102.961
65.5425 10704 103.46
65.6601 10572 102.82
65.7777 10687 103.378
65.8952 10834 104.087
66.0128 11016 104.957
66.1304 11147 105.579
66.2479 11440 106.958
66.3655 11588 107.648
66.483 11725 108.282
66.6005 11475 107.121
66.718 11839 108.807
66.8355 11342 106.499
66.953 11369 106.626
67.0705 11301 106.306
67.1879 11264 106.132
67.3054 11368 106.621
67.4228 10932 104.556
67.5402 10145 100.722
67.6576 9494 97.4372
67.7749 8694 93.2416
67.8923 7361 85.7963
68.0096 6595 81.2096
68.1269 6162 78.4984
68.2442 6126 78.2688
68.3614 6310 79.4355
68.4787 7192 84.8057
68.5958 8240 90.7744
68.713 9594 97.949
68.8302 10665 103.271
68.9473 11116 105.432
69.0643 11492 107.201
69.1814 11104 105.376
69.2984 10719 103.533
69.4154 10537 102.65
69.5323 10689 103.388
69.6492 10520 102.567
69.7661 10576 102.84
69.8829 10837 104.101
69.9997 10581 102.864
70.1165 10677 103.33
70.2332 10217 101.079
70.3499 10187 100.931
70.4665 9723 98.6053
70.5831 9225 96.0469
70.6996 8896 94.3186
70.8161 8926 94.4775
70.9326 8499 92.19
71.049 7848 88.5889
71.1653 7180 84.7349
71.2817 6363 79.7684
71.3979 5610 74.8999
71.5141 4644 68.1469
71.6303 3613 60.1082
71.7464 2443 49.4267
71.8624 0 1
71.9784 0 1
72.0944 0 1
72.2102 0 1
72.3261 0 1
72.4418 0 1
72.5575 0 1
72.6732 0 1
75.1054 0 1
75.2209 0 1
75.3365 0 1
75.4521 0 1
75.5678 0 1
75.6835 0 1
75.7993 0 1
75.9151 0 1
76.031 0 1
76.147 8386 91.5751
76.263 8972 94.7206
76.3791 9100 95.3939
76.4952 8469 92.0272
76.6113 7941 89.1123
76.7276 7465 86.4002
76.8438 6845 82.7345
76.9601 6205 78.7718
77.0765 5586 74.7395
77.1929 5561 74.5721
77.3093 5667 75.2795
77.4258 6534 80.8332
77.5423 7922 89.0056
77.6589 9678 98.3768
77.7755 10946 104.623
77.8921 11679 108.069
78.0088 12205 110.476
78.1256 11901 109.092
78.2423 11681 108.079
78.3591 11814 108.692
78.4759 11884 109.014
78.5928 11997 109.531
78.7097 12264 110.743
78.8266 12451 111.584
78.9436 13133 114.599
79.0606 12838 113.305
79.1776 13119 114.538
79.2946 13281 115.243
79.4117 12974 113.903
79.5288 13041 114.197
79.6459 13023 114.118
79.7631 13169 114.756
79.8802 13442 115.94
79.9974 13476 116.086
80.1147 12502 111.812
80.2319 11828 108.757
80.3491 10551 102.718
80.4664 9205 95.9427
80.5837 7948 89.1516
80.701 6746 82.134
80.8183 6139 78.3518
80.9357 6374 79.8373
81.053 6920 83.1865
81.1704 8034 89.6326
81.2877 10174 100.866
81.4051 12200 110.454
81.5225 13567 116.477
81.6399 13875 117.792
81.7573 13942 118.076
81.8747 13738 117.209
81.9922 13473 116.073
82.1096 13550 116.404
82.227 13823 117.571
82.3444 13999 118.317
82.4619 14571 120.71
82.5793 14945 122.25
82.6967 15117 122.951
82.8142 15247 123.479
82.9316 15328 123.806
83.049 15094 122.858
83.1664 14953 122.282
83.2838 14822 121.746
83.4012 14856 121.885
83.5186 14976 122.376
83.636 14906 122.09
83.7534 13803 117.486
83.8708 12414 111.418
83.9881 11444 106.977
84.1055 10444 102.196
84.2228 9108 95.4358
84.3401 7751 88.0398
84.4575 6846 82.7406
84.5747 6871 82.8915
84.692 7550 86.8907
84.8093 9433 97.1236
84.9265 11894 109.06
85.0437 13517 116.263
85.1609 15126 122.988
85.2781 15773 125.591
85.3952 15638 125.052
85.5123 15417 124.165
85.6294 15038 122.63
85.7465 15272 123.58
85.8636 15858 125.929
85.9806 15920 126.174
86.0976 16318 127.742
86.2145 16681 129.155
86.3315 17349 131.716
86.4484 16613 128.891
86.5652 16852 129.815
86.682 16188 127.232
86.7988 15544 124.676
86.9156 14953 122.282
87.0323 15273 123.584
87.149 15543 124.672
87.2657 15209 123.325
87.3823 13984 118.254
87.4988 12551 112.031
87.6154 11111 105.409
87.7318 9570 97.8264
87.8483 7735 87.9488
87.9647 6429 80.181
88.081 5763 75.9144
88.1973 5624 74.9933
88.3136 5980 77.3305
88.4298 7339 85.668
88.546 8730 93.4345
88.6621 10192 100.955
88.7781 10870 104.259
88.8942 0 1
89.0101 0 1
89.126 0 1
89.2419 0 1
89.3577 0 1
89.4734 0 1
89.5891 0 1
89.7047 0 1
89.8203 0 1
89.9358 0 1
92.3269 0 1
92.4424 0 1
92.558 0 1
92.6736 0 1
92.7893 0 1
92.905 0 1
93.0208 0 1
93.1366 0 1
93.2525 0 1
93.3685 0 1
93.4845 0 1
93.6005 6977 83.5284
93.7167 8280 90.9945
93.8328 10445 102.201
93.949 12739 112.867
94.0653 14858 121.893
94.1816 16201 127.283
94.2979 17115 130.824
94.4143 17260 131.377
94.5307 17681 132.97
94.6472 17964 134.03
94.7637 18069 134.421
94.8803 18688 136.704
94.9969 19150 138.384
95.1135 19420 139.356
95.2302 20001 141.425
95.3469 20336 142.604
95.4637 20253 142.313
95.5805 20085 141.722
95.6973 19981 141.354
95.8142 19751 140.538
95.9311 19366 139.162
96.048 19708 140.385
96.1649 19653 140.189
96.2819 19472 139.542
96.3989 18521 136.092
96.516 17171 131.038
96.633 15283 123.624
96.7501 13801 117.478
96.8673 12430 111.49
96.9844 10816 104
97.1016 9702 98.4987
97.2188 9153 95.6713
97.336 9751 98.7472
97.4532 11005 104.905
97.5704 13547 116.392
97.6877 16085 126.827
97.805 18128 134.64
97.9223 19071 138.098
98.0396 19750 140.535
98.1569 19758 140.563
98.2743 19409 139.316
98.3916 19500 139.642
98.509 19827 140.808
98.6264 19978 141.344
98.7438 20585 143.475
98.8612 20610 143.562
98.9786 21037 145.041
99.096 21075 145.172
99.2134 21421 146.359
99.3308 21111 145.296
99.4482 21034 145.031
99.5656 21137 145.386
99.6831 21028 145.01
99.8005 21209 145.633
99.9179 20430 142.934
100.035 19438 139.42
100.153 17489 132.246
100.27 15438 124.25
100.388 13837 117.631
100.505 12158 110.263
100.622 10768 103.769
100.74 9878 99.3881
100.857 9933 99.6644
100.975 11031 105.029
101.092 13215 114.957
101.209 15935 126.234
101.327 18739 136.89
101.444 20218 142.19
101.561 20652 143.708
101.679 20621 143.6
101.796 19989 141.382
101.913 19997 141.411
102.03 20032 141.534
102.148 20635 143.649
102.265 21367 146.175
102.382 20865 144.447
102.499 21672 147.214
102.616 21756 147.499
102.733 21801 147.652
102.851 21710 147.343
102.968 21749 147.475
103.085 21512 146.67
103.202 21046 145.072
103.319 21589 146.932
103.436 21135 145.379
103.552 20559 143.384
103.669 18893 137.452
103.786 16770 129.499
103.903 15026 122.581
104.02 13466 116.043
104.137 11794 108.6
104.253 10591 102.913
104.37 9995 99.975
104.487 10359 101.779
104.603 11637 107.875
104.72 13198 114.883
104.836 14661 121.083
104.953 16047 126.677
105.069 16584 128.779
105.186 16449 128.254
105.302 15882 126.024
105.418 15282 123.62
105.535 14516 120.482
105.651 13803 117.486
105.767 13030 114.149
105.883 12393 111.324
105.999 11666 108.009
106.115 0 1
106.231 0 1
106.347 0 1
106.463 0 1
106.579 0 1
106.694 0 1
106.81 0 1
106.926 0 1
107.041 0 1
107.157 0 1
109.576 0 1
109.692 0 1
109.807 0 1
109.923 0 1
110.039 0 1
110.155 0 1
110.27 0 1
110.386 0 1
110.502 0 1
110.618 11435 106.935
110.735 12947 113.785
110.851 14354 119.808
110.967 15500 124.499
111.083 16096 126.87
111.199 17079 130.687
111.316 17653 132.865
111.432 18368 135.529
111.549 18497 136.004
111.665 18934 137.601
111.782 18685 136.693
111.898 18791 137.08
112.015 19270 138.816
112.132 19477 139.56
112.248 18873 137.379
112.365 17176 131.057
112.482 14957 122.299
112.599 13190 114.848
112.716 11875 108.972
112.832 10454 102.245
112.949 9424 97.0773
113.066 9268 96.2705
113.183 9789 98.9394
113.3 11214 105.896
113.417 13605 116.64
113.534 15774 125.595
113.652 17403 131.92
113.769 17964 134.03
113.886 18052 134.358
114.003 17554 132.492
114.12 17298 131.522
114.238 17391 131.875
114.355 17857 133.63
114.472 18553 136.209
114.589 18562 136.242
114.707 18702 136.755
114.824 18714 136.799
114.942 19163 138.43
115.059 18743 136.905
115.176 18836 137.244
115.294 18289 135.237
115.411 18143 134.696
115.529 18328 135.381
115.646 18535 136.143
115.764 18195 134.889
115.881 16867 129.873
115.999 15244 123.467
116.116 13756 117.286
116.234 12233 110.603
116.351 10854 104.183
116.469 9842 99.2069
116.586 9559 97.7701
116.704 9424 97.0773
116.821 10086 100.429
116.939 11565 107.541
117.056 13469 116.056
117.174 15314 123.75
117.291 16362 127.914
117.409 16477 128.363
117.526 16378 127.977
117.644 16063 126.74
117.761 16000 126.491
117.879 16424 128.156
117.996 17074 130.668
118.114 17152 130.966
118.231 17088 130.721
118.349 17461 132.14
118.466 17220 131.225
118.584 17533 132.412
118.701 17254 131.354
118.819 17143 130.931
118.936 16842 129.777
119.053 16398 128.055
119.171 16309 127.707
119.288 16606 128.864
119.405 16344 127.844
119.523 15771 125.583
119.64 14279 119.495
119.757 12907 113.609
119.875 11602 107.713
119.992 10592 102.917
120.109 9597 97.9643
120.226 9336 96.623
120.343 8984 94.784
120.46 9452 97.2214
120.578 10003 100.015
120.695 11828 108.757
120.812 13010 114.061
120.929 13703 117.06
121.046 13855 117.707
121.163 13753 117.273
121.279 13502 116.198
121.396 13085 114.39
121.513 12888 113.525
121.63 13003 114.031
121.747 13164 114.734
121.863 13076 114.35
121.98 13174 114.778
122.097 12907 113.609
122.213 13112 114.508
122.33 12411 111.405
122.446 12250 110.68
122.563 11489 107.187
122.679 10892 104.365
122.795 10359 101.779
122.912 9957 99.7848
123.028 9475 97.3396
123.144 8891 94.2921
123.26 7905 88.9101
123.377 0 1
123.493 0 1
123.609 0 1
123.725 0 1
123.84 0 1
123.956 0 1
124.072 0 1
124.188 0 1
124.303 0 1
124.419 0 1
126.852 0 1
126.968 0 1
127.083 0 1
127.199 0 1
127.315 0 1
127.431 0 1
127.547 0 1
127.663 0 1
127.779 0 1
127.895 0 1
128.011 0 1
128.127 0 1
128.243 0 1
128.359 15446 124.282
128.476 15853 125.909
128.592 15490 124.459
128.708 14850 121.861
128.825 14397 119.987
128.941 13033 114.162
129.058 12093 109.968
129.174 11579 107.606
129.291 11029 105.019
129.408 10900 104.403
129.524 10950 104.642
129.641 11518 107.322
129.758 12675 112.583
129.875 13905 117.919
129.992 14704 121.26
130.108 14929 122.184
130.225 15208 123.321
130.342 15054 122.695
130.459 14903 122.078
130.576 15754 125.515
130.693 15948 126.285
130.81 16302 127.679
130.928 16716 129.29
131.045 16726 129.329
131.162 16973 130.28
131.279 17284 131.469
131.396 17205 131.168
131.513 17154 130.973
131.631 16909 130.035
131.748 16615 128.899
131.865 16975 130.288
131.983 16678 129.143
132.1 16408 128.094
132.217 15798 125.69
132.335 14847 121.848
132.452 14050 118.533
132.57 13126 114.569
132.687 11910 109.133
132.804 11873 108.963
132.922 11344 106.508
133.039 11307 106.334
133.157 11412 106.827
133.274 12236 110.616
133.392 13043 114.206
133.509 14013 118.377
133.627 14734 121.384
133.744 14559 120.661
133.862 14824 121.754
133.979 14788 121.606
134.097 14668 121.112
134.214 15503 124.511
134.332 15876 126
134.449 15823 125.79
134.567 16215 127.338
134.684 16358 127.898
134.802 16638 128.988
134.919 16839 129.765
135.037 16438 128.211
135.154 16196 127.264
135.272 15987 126.44
135.389 16092 126.854
135.507 15996 126.475
135.624 16104 126.902
135.742 15954 126.309
135.859 15161 123.13
135.977 14241 119.336
136.094 13425 115.866
136.211 12711 112.743
136.329 12376 111.247
136.446 11853 108.871
136.564 11798 108.619
136.681 11629 107.838
136.798 11519 107.327
136.915 12107 110.032
137.033 12697 112.681
137.15 13711 117.094
137.267 13765 117.324
137.384 13975 118.216
137.502 14060 118.575
137.619 13858 117.72
137.736 14084 118.676
137.853 13813 117.529
137.97 15051 122.683
138.087 14918 122.139
138.204 15015 122.536
138.321 15012 122.523
138.438 14698 121.235
138.555 14712 121.293
138.672 14578 120.739
138.788 14061 118.579
138.905 13559 116.443
139.022 13034 114.167
139.139 12832 113.278
139.255 12352 111.14
139.372 11804 108.646
139.488 11056 105.148
139.605 10273 101.356
139.721 9546 97.7036
139.838 8430 91.815
139.954 7842 88.5551
140.071 7230 85.0294
140.187 6719 81.9695
140.303 6198 78.7274
140.419 5850 76.4853
140.535 5528 74.3505
140.652 5428 73.675
140.768 0 1
140.884 0 1
141 0 1
141.115 0 1
141.231 0 1
141.347 0 1
141.463 0 1
141.578 0 1
141.694 0 1
144.104 0 1
144.219 0 1
144.335 0 1
144.45 0 1
144.566 0 1
144.682 0 1
144.798 0 1
144.914 0 1
145.03 0 1
145.146 8797 93.7923
145.262 9046 95.1105
145.378 9092 95.352
145.494 9284 96.3535
145.61 8950 94.6044
145.726 9312 96.4987
145.842 9528 97.6115
145.959 9932 99.6594
146.075 9737 98.6762
146.192 10033 100.165
146.308 9952 99.7597
146.425 9823 99.111
146.541 9887 99.4334
146.658 10378 101.872
146.774 10444 102.196
146.891 10501 102.474
147.008 11015 104.952
147.125 11155 105.617
147.241 11264 106.132
147.358 11237 106.005
147.475 11117 105.437
147.592 10940 104.594
147.709 11006 104.909
147.826 10827 104.053
147.943 10910 104.451
148.06 10761 103.735
148.177 10836 104.096
148.294 10556 102.742
148.411 10441 102.181
148.528 10345 101.71
148.645 9871 99.3529
148.762 10172 100.856
148.88 9789 98.9394
148.997 9718 98.5799
149.114 9254 96.1977
149.231 9430 97.1082
149.349 9634 98.1529
149.466 9330 96.5919
149.583 9347 96.6799
149.701 9728 98.6306
149.818 9490 97.4166
149.935 9628 98.1224
150.053 9648 98.2242
150.17 9705 98.514
150.287 9659 98.2802
150.405 9905 99.5239
150.522 10190 100.946
150.64 10435 102.152
150.757 10547 102.699
150.875 10943 104.609
150.992 10975 104.762
151.11 11055 105.143
151.227 10890 104.355
151.344 10794 103.894
151.462 10240 101.193
151.579 10186 100.926
151.697 10338 101.676
151.814 10319 101.582
151.932 10207 101.03
152.049 10079 100.394
152.167 10001 100.005
152.284 9747 98.7269
152.402 9624 98.102
152.519 9540 97.6729
152.636 9332 96.6023
152.754 9263 96.2445
152.871 9346 96.6747
152.989 8991 94.8209
153.106 9234 96.0937
153.223 9189 95.8593
153.341 9070 95.2365
153.458 9122 95.5092
153.575 8978 94.7523
153.693 8835 93.9947
153.81 9017 94.9579
153.927 9026 95.0053
154.044 9270 96.2808
154.162 9394 96.9226
154.279 9591 97.9337
154.396 10135 100.673
154.513 10138 100.688
154.63 10188 100.936
154.747 10122 100.608
154.864 9876 99.3781
154.981 9637 98.1682
155.098 9191 95.8697
155.215 9395 96.9278
155.332 9513 97.5346
155.449 9322 96.5505
155.566 9252 96.1873
155.683 9017 94.9579
155.8 8761 93.6002
155.917 8637 92.9355
156.033 8295 91.0769
156.15 0 1
156.267 0 1
156.383 0 1
156.5 0 1
156.617 0 1
156.733 0 1
156.85 0 1
156.966 0 1
157.082 0 1
157.199 0 1
157.315 0 1
157.431 0 1
157.547 0 1
157.664 0 1
157.78 0 1
157.896 0 1
158.012 0 1
158.128 0 1
158.244 0 1
158.359 0 1
158.475 0 1
158.591 0 1
158.706 0 1
