
6.15755 0 1
6.2731 0 1
6.3887 0 1
6.50437 0 1
6.62009 0 1
6.73587 0 1
6.8517 0 1
6.96759 0 1
7.08353 0 1
7.19952 0 1
7.31557 0 1
7.43166 0 1
7.54781 0 1
7.664 0 1
7.78024 0 1
7.89653 0 1
8.01286 0 1
8.12924 0 1
8.24567 0 1
8.36213 0 1
8.47864 0 1
8.59519 0 1
8.71178 0 1
8.82841 0 1
8.94508 0 1
9.06179 0 1
9.17853 0 1
9.29531 0 1
9.41212 0 1
9.52897 0 1
9.64584 0 1
9.76276 0 1
9.8797 0 1
9.99667 0 1
10.1137 0 1
10.2307 0 1
10.3478 0 1
10.4648 0 1
10.5819 0 1
10.6991 0 1
10.8162 0 1
10.9334 0 1
11.0506 0 1
11.1678 0 1
11.285 0 1
11.4023 0 1
11.5196 0 1
11.6369 0 1
11.7542 0 1
11.8715 0 1
11.9888 0 1
12.1062 0 1
12.2235 0 1
12.3409 0 1
12.4582 0 1
12.5756 0 1
12.693 0 1
12.8104 0 1
12.9278 0 1
13.0452 0 1
13.1626 0 1
13.28 0 1
13.3974 0 1
13.5149 0 1
13.6323 0 1
13.7497 0 1
13.8671 0 1
13.9845 0 1
14.1019 0 1
14.2193 0 1
14.3367 0 1
14.4541 0 1
14.5714 0 1
14.6888 0 1
14.8062 0 1
14.9235 0 1
15.0408 0 0
15.1581 0 0
15.2755 0 0
15.3927 0 0
15.51 0 0
15.6273 0 0
15.7445 0 0
15.8617 0 0
15.9789 0 0
16.0961 0 0
16.2132 0 0
16.3304 0 0
16.4475 0 0
16.5646 0 0
16.6816 0 0
16.7986 0 0
16.9156 0 0
17.0326 0 0
17.1496 0 0
17.2665 0 0
17.3833 0 0
17.5002 0 0
17.617 0 0
17.7338 0 0
17.8505 0 0
17.9672 0 0
18.0839 0 0
18.2005 0 0
18.3171 0 0
18.4337 0 0
18.5502 0 0
18.6666 0 0
18.7831 0 0
18.8994 0 0
19.0158 0 0
19.1321 0 0
19.2483 0 0
19.3645 0 0
19.4806 0 0
19.5967 0 0
19.7128 0 0
19.8288 0 0
19.9447 0 0
20.0606 0 1
20.1764 0 1
20.2922 0 1
20.4079 0 1
20.5236 0 1
20.6392 0 1
20.7548 0 1
20.8702 0 1
23.3078 0 1
23.4233 0 1
23.539 0 1
23.6547 0 1
23.7704 0 1
23.8862 0 1
24.0021 0 1
24.118 0 1
24.234 0 1
24.35 0 1
24.4661 160106 400.132
24.5822 159378 399.222
24.6984 160934 401.166
24.8146 164421 405.489
24.9309 169746 412.002
25.0472 175547 418.983
25.1636 178593 422.603
25.28 182094 426.725
25.3965 184606 429.658
25.513 185376 430.553
25.6296 187068 432.514
25.7462 189237 435.014
25.8628 188580 434.258
25.9795 189039 434.786
26.0962 188478 434.141
26.213 189952 435.835
26.3298 188014 433.606
26.4466 189277 435.06
26.5635 186930 432.354
26.6804 183749 428.66
26.7973 179865 424.105
26.9143 176274 419.85
27.0313 172467 415.291
27.1483 173905 417.019
27.2653 174378 417.586
27.3824 175329 418.723
27.4996 174066 417.212
27.6167 171646 414.302
27.7339 166089 407.54
27.8511 159053 398.814
27.9683 157393 396.728
28.0855 154819 393.47
28.2028 157235 396.529
28.3201 155504 394.34
28.4374 163258 404.052
28.5547 168668 410.692
28.6721 174692 417.962
28.7894 178040 421.948
28.9068 180317 424.637
29.0242 179612 423.807
29.1416 181859 426.449
29.259 180491 424.842
29.3764 181849 426.438
29.4939 180688 425.074
29.6113 180823 425.233
29.7288 180957 425.39
29.8463 180507 424.861
29.9638 181636 426.188
30.0812 180400 424.735
30.1987 177572 421.393
30.3162 172960 415.885
30.4337 168403 410.369
30.5512 165402 406.696
30.6687 163863 404.8
30.7862 166995 408.65
30.9037 166163 407.631
31.0212 170265 412.632
31.1387 168280 410.219
31.2562 164761 405.908
31.3737 161672 402.085
31.4912 158419 398.019
31.6087 158024 397.522
31.7262 159182 398.976
31.8436 164019 404.993
31.9611 170278 412.648
32.0785 177151 420.893
32.1959 183604 428.49
32.3134 186283 431.605
32.4308 188881 434.604
32.5482 191665 437.796
32.6655 193013 439.332
32.7829 193472 439.855
32.9002 195488 442.14
33.0176 194688 441.235
33.1349 196919 443.756
33.2522 196257 443.009
33.3694 197490 444.398
33.4867 197269 444.15
33.6039 197886 444.844
33.7211 197802 444.749
33.8383 196791 443.611
33.9554 192632 438.899
34.0725 186752 432.148
34.1896 181355 425.858
34.3067 178684 422.71
34.4237 177714 421.561
34.5407 178792 422.838
34.6577 180962 425.396
34.7746 178043 421.951
34.8915 175931 419.441
35.0084 168569 410.572
35.1252 165560 406.891
35.242 162473 403.079
35.3587 164284 405.32
35.4755 166647 408.224
35.5921 172101 414.851
35.7088 176223 419.789
35.8254 180810 425.218
35.9419 183606 428.493
36.0584 182500 427.2
36.1749 182438 427.128
36.2913 181889 426.484
36.4077 180076 424.354
36.524 179345 423.491
36.6403 178412 422.388
36.7565 176978 420.688
36.8727 175818 419.307
36.9889 174805 418.097
37.1049 171453 414.069
37.221 0 1
37.3369 0 1
37.4529 0 1
37.5687 0 1
37.6845 0 1
37.8003 0 1
37.916 0 1
38.0316 0 1
38.1472 0 1
40.5851 0 1
40.7008 0 1
40.8164 0 1
40.9322 0 1
41.048 0 1
41.1639 0 1
41.2798 0 1
41.3958 0 1
41.5118 0 1
41.6279 0 1
41.744 137152 370.34
41.8602 139493 373.488
41.9765 140599 374.965
42.0928 140502 374.836
42.2091 141360 375.979
42.3255 141038 375.55
42.4419 141577 376.267
42.5584 140957 375.442
42.675 140918 375.39
42.7915 137716 371.101
42.9081 133349 365.17
43.0248 129172 359.405
43.1415 126385 355.507
43.2582 125872 354.784
43.375 127730 357.393
43.4918 130798 361.66
43.6087 128010 357.785
43.7256 124069 352.234
43.8425 118904 344.825
43.9595 115658 340.085
44.0765 114864 338.916
44.1935 116282 341.001
44.3106 120032 346.456
44.4277 123017 350.738
44.5448 125556 354.339
44.6619 124747 353.195
44.7791 125207 353.846
44.8963 124233 352.467
45.0136 122677 350.253
45.1308 121752 348.93
45.2481 120446 347.053
45.3654 119033 345.012
45.4827 118878 344.787
45.6001 117373 342.597
45.7174 116425 341.211
45.8348 115853 340.372
45.9522 115326 339.597
46.0697 113830 337.387
46.1871 112253 335.042
46.3046 111064 333.263
46.422 108341 329.152
46.5395 103264 321.347
46.657 99501 315.438
46.7745 96902 311.291
46.892 95748 309.432
47.0096 96946 311.362
47.1271 98206 313.378
47.2446 96963 311.389
47.3622 92304 303.816
47.4797 88506 297.5
47.5973 87017 294.986
47.7149 86693 294.437
47.8324 88927 298.206
47.95 91863 303.089
48.0675 93073 305.079
48.1851 93012 304.979
48.3027 93062 305.061
48.4202 93321 305.485
48.5378 93271 305.403
48.6554 93027 305.003
48.7729 92779 304.596
48.8904 93425 305.655
49.008 94258 307.015
49.1255 93933 306.485
49.243 94798 307.893
49.3605 95457 308.961
49.478 96832 311.178
49.5955 98360 313.624
49.713 99269 315.07
49.8304 99917 316.097
49.9479 99741 315.818
50.0653 97980 313.018
50.1827 95941 309.743
50.3001 92859 304.728
50.4175 93667 306.051
50.5348 94591 307.556
50.6521 101004 317.811
50.7694 104320 322.986
50.8867 104185 322.777
51.004 104143 322.712
51.1212 106067 325.679
51.2384 112110 334.828
51.3556 117819 343.248
51.4727 123300 351.141
51.5899 128662 358.695
51.707 130399 361.108
51.824 132072 363.417
51.9411 133746 365.713
52.0581 134873 367.251
52.175 136329 369.228
52.2919 137267 370.496
52.4088 138603 372.294
52.5257 141267 375.855
52.6425 141584 376.276
52.7593 143040 378.206
52.876 144590 380.25
52.9927 145776 381.806
53.1094 146256 382.434
53.226 147366 383.883
53.3426 149791 387.028
53.4591 150740 388.252
53.5756 150066 387.384
53.692 147522 384.086
53.8084 141409 376.044
53.9248 137086 370.251
54.0411 133899 365.922
54.1573 135996 368.776
54.2735 0 1
54.3896 0 1
54.5057 0 1
54.6217 0 1
54.7377 0 1
54.8537 0 1
54.9695 0 1
55.0853 0 1
55.2011 0 1
55.3168 0 1
55.4324 0 1
57.824 0 1
57.9396 0 1
58.0553 0 1
58.1711 0 1
58.2869 0 1
58.4028 0 1
58.5187 0 1
58.6347 0 1
58.7508 0 1
58.8669 0 1
58.983 162809 403.496
59.0992 160181 400.226
59.2155 157903 397.37
59.3318 156569 395.688
59.4482 159922 399.902
59.5646 161361 401.698
59.681 163428 404.262
59.7975 166641 408.217
59.9141 170597 413.034
60.0306 174686 417.955
60.1473 176661 420.311
60.2639 176869 420.558
60.3807 175874 419.373
60.4974 175419 418.831
60.6142 174897 418.207
60.731 173761 416.846
60.8479 173801 416.894
60.9648 172301 415.092
61.0818 171917 414.629
61.1987 170213 412.569
61.3158 170610 413.05
61.4328 169413 411.598
61.5499 169072 411.184
61.667 168269 410.206
61.7841 169096 411.213
61.9013 168263 410.199
62.0185 167696 409.507
62.1357 166494 408.037
62.253 163933 404.886
62.3702 159548 399.435
62.4875 152888 391.009
62.6049 148587 385.47
62.7222 148108 384.848
62.8396 149531 386.692
62.9569 150862 388.41
63.0743 149698 386.908
63.1918 152466 390.469
63.3092 154830 393.484
63.4267 160186 400.232
63.5441 161669 402.081
63.6616 162485 403.094
63.7791 161431 401.785
63.8966 161801 402.245
64.0142 160423 400.528
64.1317 159315 399.143
64.2492 158764 398.452
64.3668 157239 396.534
64.4843 156725 395.885
64.6019 156753 395.92
64.7195 156487 395.584
64.837 155732 394.629
64.9546 155495 394.329
65.0722 154489 393.051
65.1898 153990 392.416
65.3074 156679 395.827
65.4249 153806 392.181
65.5425 154928 393.609
65.6601 154012 392.444
65.7777 154377 392.908
65.8952 151862 389.695
66.0128 146505 382.76
66.1304 138856 372.634
66.2479 133092 364.818
66.3655 132441 363.924
66.483 135519 368.129
66.6005 138932 372.736
66.718 141610 376.311
66.8355 145460 381.392
66.953 150190 387.544
67.0705 153672 392.01
67.1879 153739 392.096
67.3054 154214 392.701
67.4228 153523 391.82
67.5402 152191 390.117
67.6576 153685 392.027
67.7749 150094 387.42
67.8923 154012 392.444
68.0096 153398 391.661
68.1269 153133 391.322
68.2442 152225 390.16
68.3614 153185 391.389
68.4787 152921 391.051
68.5958 153495 391.784
68.713 153893 392.292
68.8302 153727 392.08
68.9473 154646 393.251
69.0643 154211 392.697
69.1814 155215 393.973
69.2984 156095 395.089
69.4154 156742 395.907
69.5323 156265 395.304
69.6492 155380 394.183
69.7661 148743 385.672
69.8829 140022 374.195
69.9997 136725 369.763
70.1165 139170 373.055
70.2332 143398 378.679
70.3499 145880 381.942
70.4665 151500 389.23
70.5831 156678 395.826
70.6996 158467 398.079
70.8161 158802 398.5
70.9326 158937 398.669
71.049 157613 397.005
71.1653 156857 396.052
71.2817 153290 391.523
71.3979 151756 389.559
71.5141 149238 386.313
71.6303 146748 383.077
71.7464 134191 366.321
71.8624 0 1
71.9784 0 1
72.0944 0 1
72.2102 0 1
72.3261 0 1
72.4418 0 1
72.5575 0 1
72.6732 0 1
75.1054 0 1
75.2209 0 1
75.3365 0 1
75.4521 0 1
75.5678 0 1
75.6835 0 1
75.7993 0 1
75.9151 0 1
76.031 0 1
76.147 131924 363.213
76.263 142851 377.956
76.3791 145839 381.889
76.4952 144832 380.568
76.6113 144974 380.755
76.7276 145662 381.657
76.8438 142880 377.995
76.9601 143087 378.268
77.0765 142535 377.538
77.1929 142213 377.111
77.3093 143393 378.673
77.4258 142025 376.862
77.5423 141223 375.796
77.6589 140579 374.939
77.7755 139594 373.623
77.8921 139094 372.953
78.0088 138924 372.725
78.1256 137197 370.401
78.2423 136917 370.023
78.3591 136330 369.229
78.4759 135813 368.528
78.5928 135261 367.778
78.7097 134312 366.486
78.8266 134815 367.172
78.9436 109074 330.264
79.0606 94898 308.055
79.1776 91719 302.851
79.2946 106921 326.988
79.4117 123157 350.937
79.5288 129927 360.454
79.6459 129761 360.224
79.7631 128788 358.87
79.8802 127199 356.65
79.9974 126055 355.042
80.1147 124146 352.344
80.2319 124253 352.495
80.3491 122417 349.881
80.4664 121713 348.874
80.5837 119988 346.393
80.701 119197 345.249
80.8183 119076 345.074
80.9357 117536 342.835
81.053 117859 343.306
81.1704 116585 341.445
81.2877 116231 340.927
81.4051 114235 337.987
81.5225 114992 339.105
81.6399 109865 331.459
81.7573 110402 332.268
81.8747 108109 328.799
81.9922 108567 329.495
82.1096 107583 327.998
82.227 106296 326.031
82.3444 105870 325.377
82.4619 104550 323.342
82.5793 95756 309.445
82.6967 82153 286.623
82.8142 69998 264.571
82.9316 82093 286.519
83.049 94147 306.834
83.1664 97391 312.075
83.2838 96791 311.113
83.4012 95286 308.684
83.5186 93200 305.287
83.636 91585 302.63
83.7534 90419 300.698
83.8708 88395 297.313
83.9881 87263 295.403
84.1055 86573 294.233
84.2228 84249 290.257
84.3401 83476 288.922
84.4575 82413 287.077
84.5747 82556 287.326
84.692 81632 285.713
84.8093 80765 284.192
84.9265 79336 281.666
85.0437 78354 279.918
85.1609 76524 276.63
85.2781 75131 274.1
85.3952 73976 271.985
85.5123 72840 269.889
85.6294 72089 268.494
85.7465 71002 266.462
85.8636 70153 264.864
85.9806 69311 263.27
86.0976 67320 259.461
86.2145 60040 245.031
86.3315 45389 213.047
86.4484 47902 218.865
86.5652 57527 239.848
86.682 60235 245.428
86.7988 59084 243.072
86.9156 58280 241.413
87.0323 54938 234.389
87.149 53348 230.972
87.2657 50247 224.158
87.3823 48163 219.461
87.4988 46364 215.323
87.6154 43842 209.385
87.7318 41664 204.118
87.8483 39683 199.206
87.9647 38306 195.719
88.081 37112 192.645
88.1973 36611 191.34
88.3136 35275 187.816
88.4298 33963 184.291
88.546 32490 180.25
88.6621 32058 179.047
88.7781 30905 175.798
88.8942 0 1
89.0101 0 1
89.126 0 1
89.2419 0 1
89.3577 0 1
89.4734 0 1
89.5891 0 1
89.7047 0 1
89.8203 0 1
89.9358 0 1
92.3269 0 1
92.4424 0 1
92.558 0 1
92.6736 0 1
92.7893 0 1
92.905 0 1
93.0208 0 1
93.1366 0 1
93.2525 0 1
93.3685 0 1
93.4845 0 1
93.6005 78349 279.909
93.7167 80923 284.47
93.8328 82559 287.331
93.949 84664 290.971
94.0653 85794 292.906
94.1816 86828 294.666
94.2979 87669 296.09
94.4143 88645 297.733
94.5307 90912 301.516
94.6472 91525 302.531
94.7637 92768 304.578
94.8803 95526 309.073
94.9969 95664 309.296
95.1135 98408 313.7
95.2302 95896 309.671
95.3469 90367 300.611
95.4637 78994 281.059
95.5805 75132 274.102
95.6973 91768 302.932
95.8142 106560 326.435
95.9311 111287 333.597
96.048 113245 336.519
96.1649 114672 338.633
96.2819 114716 338.698
96.3989 115154 339.343
96.516 116546 341.388
96.633 115869 340.395
96.7501 116617 341.492
96.8673 117295 342.484
96.9844 118100 343.657
97.1016 118693 344.519
97.2188 118866 344.769
97.336 121040 347.908
97.4532 120401 346.988
97.5704 120968 347.805
97.6877 120289 346.827
97.805 120027 346.449
97.9223 119723 346.01
98.0396 119328 345.439
98.1569 120503 347.135
98.2743 119307 345.408
98.3916 119963 346.357
98.509 120089 346.539
98.6264 118717 344.553
98.7438 118606 344.392
98.8612 116516 341.344
98.9786 109747 331.281
99.096 96362 310.422
99.2134 88947 298.24
99.3308 101821 319.094
99.4482 118563 344.33
99.5656 125651 354.473
99.6831 127026 356.407
99.8005 127940 357.687
99.9179 127707 357.361
100.035 128261 358.135
100.153 128198 358.047
100.27 129831 360.321
100.388 129920 360.444
100.505 130882 361.776
100.622 131695 362.898
100.74 132008 363.329
100.857 133271 365.063
100.975 134818 367.176
101.092 134293 366.46
101.209 135581 368.213
101.327 135980 368.755
101.444 136043 368.84
101.561 136441 369.379
101.679 138178 371.723
101.796 137278 370.51
101.913 137458 370.753
102.03 138235 371.8
102.148 136632 369.638
102.265 142893 378.012
102.382 127610 357.225
102.499 123176 350.964
102.616 107420 327.75
102.733 104465 323.21
102.851 111197 333.462
102.968 123598 351.565
103.085 131325 362.388
103.202 131704 362.91
103.319 130940 361.856
103.436 128870 358.985
103.552 128682 358.723
103.669 126397 355.524
103.786 124216 352.443
103.903 122449 349.927
104.02 121438 348.48
104.137 119834 346.17
104.253 121521 348.599
104.37 115451 339.781
104.487 117230 342.389
104.603 116919 341.934
104.72 114219 337.963
104.836 113079 336.272
104.953 110900 333.017
105.069 109439 330.816
105.186 108430 329.287
105.302 107908 328.494
105.418 105987 325.556
105.535 104889 323.866
105.651 102884 320.755
105.767 101737 318.962
105.883 99989 316.21
105.999 93198 305.283
106.115 0 1
106.231 0 1
106.347 0 1
106.463 0 1
106.579 0 1
106.694 0 1
106.81 0 1
106.926 0 1
107.041 0 1
107.157 0 1
109.576 0 1
109.692 0 1
109.807 0 1
109.923 0 1
110.039 0 1
110.155 0 1
110.27 0 1
110.386 0 1
110.502 0 1
110.618 55218 234.985
110.735 55371 235.31
110.851 54539 233.536
110.967 55014 234.551
111.083 55125 234.787
111.199 53874 232.108
111.316 50548 224.829
111.432 49223 221.863
111.549 49121 221.633
111.665 50244 224.152
111.782 50915 225.644
111.898 50256 224.179
112.015 49221 221.858
112.132 48807 220.923
112.248 48542 220.322
112.365 48066 219.24
112.482 47173 217.193
112.599 45646 213.649
112.716 45801 214.012
112.832 45392 213.054
112.949 45191 212.582
113.066 45093 212.351
113.183 44721 211.473
113.3 44514 210.983
113.417 44478 210.898
113.534 44566 211.107
113.652 44582 211.145
113.769 45020 212.179
113.886 44758 211.561
114.003 44767 211.582
114.12 43697 209.038
114.238 40512 201.276
114.355 35187 187.582
114.472 33963 184.291
114.589 38546 196.331
114.707 44705 211.436
114.824 47317 217.525
114.942 48380 219.955
115.059 47771 218.566
115.176 46504 215.648
115.294 48471 220.161
115.411 49087 221.556
115.529 49460 222.396
115.646 49357 222.164
115.764 50498 224.718
115.881 50245 224.154
115.999 50540 224.811
116.116 50738 225.251
116.234 51105 226.064
116.351 51160 226.186
116.469 52361 228.825
116.586 52770 229.717
116.704 53935 232.239
116.821 53639 231.601
116.939 54431 233.305
117.056 55091 234.715
117.174 54962 234.44
117.291 56593 237.893
117.409 58034 240.902
117.526 58042 240.919
117.644 58013 240.859
117.761 55682 235.97
117.879 49944 223.482
117.996 40930 202.312
118.114 38803 196.985
118.231 47310 217.509
118.349 57107 238.971
118.466 63663 252.315
118.584 65651 256.225
118.701 66357 257.599
118.819 65094 255.135
118.936 64953 254.859
119.053 67078 258.994
119.171 68422 261.576
119.288 67956 260.684
119.405 69412 263.462
119.523 69261 263.175
119.64 70201 264.955
119.757 69787 264.172
119.875 70180 264.915
119.992 70371 265.275
120.109 70302 265.145
120.226 71675 267.722
120.343 71511 267.415
120.46 72347 268.974
120.578 72890 269.981
120.695 74173 272.347
120.812 74724 273.357
120.929 75638 275.024
121.046 76472 276.536
121.163 76912 277.33
121.279 75941 275.574
121.396 73148 270.459
121.513 65946 256.8
121.63 57773 240.36
121.747 49797 223.152
121.863 49455 222.385
121.98 59261 243.436
122.097 71455 267.311
122.213 79819 282.523
122.33 83169 288.39
122.446 83815 289.508
122.563 83222 288.482
122.679 82583 287.373
122.795 83859 289.584
122.912 85804 292.923
123.028 85674 292.701
123.144 85892 293.073
123.26 85923 293.126
123.377 0 1
123.493 0 1
123.609 0 1
123.725 0 1
123.84 0 1
123.956 0 1
124.072 0 1
124.188 0 1
124.303 0 1
124.419 0 1
126.852 0 1
126.968 0 1
127.083 0 1
127.199 0 1
127.315 0 1
127.431 0 1
127.547 0 1
127.663 0 1
127.779 0 1
127.895 0 1
128.011 0 1
128.127 0 1
128.243 0 1
128.359 109894 331.503
128.476 110496 332.409
128.592 110463 332.36
128.708 111499 333.915
128.825 112065 334.761
128.941 112497 335.406
129.058 112792 335.845
129.174 113194 336.443
129.291 113417 336.774
129.408 113384 336.725
129.524 113885 337.469
129.641 114507 338.389
129.758 114920 338.999
129.875 116086 340.714
129.992 115950 340.514
130.108 113269 336.555
130.225 109329 330.649
130.342 101805 319.069
130.459 89919 299.865
130.576 84589 290.842
130.693 77667 278.688
130.81 78221 279.68
130.928 83768 289.427
131.045 96404 310.49
131.162 111036 333.221
131.279 118899 344.817
131.396 120835 347.613
131.513 121415 348.447
131.631 121876 349.107
131.748 122852 350.502
131.865 121653 348.788
131.983 121644 348.775
132.1 122130 349.471
132.217 122428 349.897
132.335 123387 351.265
132.452 121980 349.256
132.57 122925 350.607
132.687 118407 344.103
132.804 126221 355.276
132.922 122885 350.55
133.039 122862 350.517
133.157 123462 351.372
133.274 124254 352.497
133.392 124204 352.426
133.509 123733 351.757
133.627 122564 350.091
133.744 118914 344.839
133.862 110788 332.848
133.979 103116 321.117
134.097 94806 307.906
134.214 91943 303.221
134.332 88261 297.088
134.449 92944 304.867
134.567 99241 315.025
134.684 109640 331.119
134.802 121325 348.317
134.919 127277 356.759
135.037 128957 359.106
135.154 129679 360.11
135.272 130427 361.147
135.389 129474 359.825
135.507 129812 360.294
135.624 129851 360.348
135.742 129761 360.224
135.859 130233 360.878
135.977 129970 360.514
136.094 130682 361.5
136.211 129896 360.411
136.329 131227 362.253
136.446 130868 361.757
136.564 131040 361.994
136.681 133032 364.736
136.798 130250 360.902
136.915 131911 363.196
137.033 131194 362.207
137.15 130444 361.17
137.267 127852 357.564
137.384 122758 350.368
137.502 114817 338.847
137.619 106386 326.169
137.736 100458 316.951
137.853 95432 308.921
137.97 95482 309.002
138.087 103305 321.411
138.204 107639 328.084
138.321 114416 338.254
138.438 122841 350.487
138.555 131279 362.324
138.672 135346 367.894
138.788 135653 368.311
138.905 137402 370.678
139.022 137335 370.587
139.139 137469 370.768
139.255 137648 371.009
139.372 137113 370.288
139.488 137269 370.498
139.605 136934 370.046
139.721 137383 370.652
139.838 137442 370.732
139.954 137321 370.568
140.071 135126 367.595
140.187 138048 371.548
140.303 135476 368.071
140.419 137310 370.554
140.535 136423 369.355
140.652 135399 367.966
140.768 0 1
140.884 0 1
141 0 1
141.115 0 1
141.231 0 1
141.347 0 1
141.463 0 1
141.578 0 1
141.694 0 1
144.104 0 1
144.219 0 1
144.335 0 1
144.45 0 1
144.566 0 1
144.682 0 1
144.798 0 1
144.914 0 1
145.03 0 1
145.146 124661 353.074
145.262 126762 356.037
145.378 126296 355.381
145.494 126827 356.128
145.61 125875 354.789
145.726 124554 352.922
145.842 121488 348.551
145.959 116859 341.846
146.075 111459 333.855
146.192 104979 324.005
146.308 100043 316.296
146.425 97446 312.163
146.541 97575 312.37
146.658 98627 314.049
146.774 102907 320.791
146.891 108161 328.878
147.008 113138 336.36
147.125 117750 343.147
147.241 120661 347.363
147.358 124443 352.765
147.475 126092 355.094
147.592 125916 354.846
147.709 125428 354.158
147.826 125441 354.177
147.943 125800 354.683
148.06 123673 351.672
148.177 124258 352.502
148.294 123647 351.635
148.411 124069 352.234
148.528 124218 352.446
148.645 122479 349.97
148.762 123700 351.71
148.88 123114 350.876
148.997 118133 343.705
149.114 126656 355.888
149.231 122774 350.391
149.349 120841 347.622
149.466 117299 342.489
149.583 112253 335.042
149.701 107136 327.316
149.818 101875 319.179
149.935 98029 313.096
150.053 96876 311.249
150.17 96460 310.58
150.287 99391 315.263
150.405 102288 319.825
150.522 108288 329.071
150.64 112417 335.286
150.757 115927 340.481
150.875 117401 342.638
150.992 119271 345.356
151.11 120087 346.536
151.227 124338 352.616
151.344 123516 351.448
151.462 123643 351.629
151.579 123644 351.63
151.697 124196 352.415
151.814 124033 352.183
151.932 123950 352.065
152.049 124180 352.392
152.167 124197 352.416
152.284 124779 353.241
152.402 124428 352.744
152.519 124406 352.712
152.636 124706 353.137
152.754 124536 352.897
152.871 123258 351.081
152.989 120624 347.31
153.106 117817 343.245
153.223 112544 335.476
153.341 108156 328.871
153.458 103412 321.577
153.575 99806 315.921
153.693 100081 316.356
153.81 101462 318.531
153.927 104224 322.837
154.044 108585 329.522
154.162 113404 336.755
154.279 119228 345.294
154.396 123049 350.783
154.513 125485 354.239
154.63 125155 353.773
154.747 127452 357.004
154.864 129309 359.596
154.981 130015 360.576
155.098 130065 360.645
155.215 129038 359.219
155.332 129014 359.185
155.449 128647 358.674
155.566 129217 359.468
155.683 128623 358.64
155.8 129470 359.819
155.917 128979 359.136
156.033 129820 360.305
156.15 0 1
156.267 0 1
156.383 0 1
156.5 0 1
156.617 0 1
156.733 0 1
156.85 0 1
156.966 0 1
157.082 0 1
157.199 0 1
157.315 0 1
157.431 0 1
157.547 0 1
157.664 0 1
157.78 0 1
157.896 0 1
158.012 0 1
158.128 0 1
158.244 0 1
158.359 0 1
158.475 0 1
158.591 0 1
158.706 0 1
