
6.15755 0 1
6.2731 0 1
6.3887 0 1
6.50437 0 1
6.62009 0 1
6.73587 0 1
6.8517 0 1
6.96759 0 1
7.08353 0 1
7.19952 0 1
7.31557 0 1
7.43166 0 1
7.54781 0 1
7.664 0 1
7.78024 0 1
7.89653 0 1
8.01286 0 1
8.12924 0 1
8.24567 0 1
8.36213 0 1
8.47864 0 1
8.59519 0 1
8.71178 0 1
8.82841 0 1
8.94508 0 1
9.06179 0 1
9.17853 0 1
9.29531 0 1
9.41212 0 1
9.52897 0 1
9.64584 0 1
9.76276 0 1
9.8797 0 1
9.99667 0 1
10.1137 0 1
10.2307 0 1
10.3478 0 1
10.4648 0 1
10.5819 0 1
10.6991 0 1
10.8162 0 1
10.9334 0 1
11.0506 0 1
11.1678 0 1
11.285 0 1
11.4023 0 1
11.5196 0 1
11.6369 0 1
11.7542 0 1
11.8715 0 1
11.9888 0 1
12.1062 0 1
12.2235 0 1
12.3409 0 1
12.4582 0 1
12.5756 0 1
12.693 0 1
12.8104 0 1
12.9278 0 1
13.0452 0 1
13.1626 0 1
13.28 0 1
13.3974 0 1
13.5149 0 1
13.6323 0 1
13.7497 0 1
13.8671 0 1
13.9845 0 1
14.1019 0 1
14.2193 0 1
14.3367 0 1
14.4541 0 1
14.5714 0 1
14.6888 0 1
14.8062 0 1
14.9235 0 1
15.0408 1860 43.1277
15.1581 1910 43.7035
15.2755 1946 44.1135
15.3927 2063 45.4203
15.51 2035 45.111
15.6273 2011 44.8442
15.7445 2053 45.31
15.8617 1911 43.715
15.9789 1951 44.1701
16.0961 2031 45.0666
16.2132 1969 44.3734
16.3304 1971 44.3959
16.4475 2037 45.1331
16.5646 2188 46.7761
16.6816 2268 47.6235
16.7986 2340 48.3735
16.9156 2330 48.2701
17.0326 2383 48.816
17.1496 2369 48.6724
17.2665 2465 49.6488
17.3833 2281 47.7598
17.5002 2313 48.0937
17.617 2316 48.1248
17.7338 2164 46.5188
17.8505 2062 45.4093
17.9672 1981 44.5084
18.0839 2029 45.0444
18.2005 2063 45.4203
18.3171 2195 46.8508
18.4337 2141 46.2709
18.5502 2277 47.7179
18.6666 2223 47.1487
18.7831 2406 49.051
18.8994 2339 48.3632
19.0158 2243 47.3603
19.1321 2230 47.2229
19.2483 2139 46.2493
19.3645 1981 44.5084
19.4806 1960 44.2719
19.5967 1868 43.2204
19.7128 1633 40.4104
19.8288 1509 38.8458
19.9447 1481 38.4838
20.0606 0 1
20.1764 0 1
20.2922 0 1
20.4079 0 1
20.5236 0 1
20.6392 0 1
20.7548 0 1
20.8702 0 1
23.3078 0 1
23.4233 0 1
23.539 0 1
23.6547 0 1
23.7704 0 1
23.8862 0 1
24.0021 0 1
24.118 0 1
24.234 0 1
24.35 0 1
24.4661 1000 31.6228
24.5822 1151 33.9264
24.6984 1286 35.8608
24.8146 1383 37.1887
24.9309 1552 39.3954
25.0472 1713 41.3884
25.1636 1835 42.8369
25.28 1994 44.6542
25.3965 2121 46.0543
25.513 2275 47.697
25.6296 2408 49.0714
25.7462 2521 50.2096
25.8628 2438 49.3761
25.9795 2629 51.2738
26.0962 2564 50.636
26.213 2463 49.6286
26.3298 2363 48.6107
26.4466 2290 47.8539
26.5635 2137 46.2277
26.6804 2173 46.6154
26.7973 2185 46.744
26.9143 2243 47.3603
27.0313 2214 47.0532
27.1483 2361 48.5901
27.2653 2325 48.2183
27.3824 2460 49.5984
27.4996 2483 49.8297
27.6167 2411 49.1019
27.7339 2378 48.7647
27.8511 2259 47.5289
27.9683 2188 46.7761
28.0855 2141 46.2709
28.2028 2136 46.2169
28.3201 2007 44.7996
28.4374 2063 45.4203
28.5547 2134 46.1952
28.6721 2136 46.2169
28.7894 2201 46.9148
28.9068 2320 48.1664
29.0242 2402 49.0102
29.1416 2537 50.3686
29.259 2422 49.2138
29.3764 2469 49.689
29.4939 2431 49.3052
29.6113 2425 49.2443
29.7288 2292 47.8748
29.8463 2128 46.1303
29.9638 2084 45.6508
30.0812 1987 44.5758
30.1987 2037 45.1331
30.3162 2084 45.6508
30.4337 2136 46.2169
30.5512 2185 46.744
30.6687 2247 47.4025
30.7862 2223 47.1487
30.9037 2331 48.2804
31.0212 2353 48.5077
31.1387 2325 48.2183
31.2562 2353 48.5077
31.3737 2262 47.5605
31.4912 2249 47.4236
31.6087 2142 46.2817
31.7262 2016 44.8999
31.8436 2000 44.7214
31.9611 1992 44.6318
32.0785 1999 44.7102
32.1959 2000 44.7214
32.3134 2223 47.1487
32.4308 2169 46.5725
32.5482 2268 47.6235
32.6655 2377 48.7545
32.7829 2382 48.8057
32.9002 2352 48.4974
33.0176 2327 48.239
33.1349 2379 48.775
33.2522 2342 48.3942
33.3694 2168 46.5618
33.4867 2103 45.8585
33.6039 1990 44.6094
33.7211 1960 44.2719
33.8383 1926 43.8862
33.9554 1868 43.2204
34.0725 2038 45.1442
34.1896 2154 46.4112
34.3067 2117 46.0109
34.4237 2137 46.2277
34.5407 2162 46.4973
34.6577 2246 47.392
34.7746 2153 46.4004
34.8915 2244 47.3709
35.0084 2171 46.594
35.1252 2110 45.9347
35.242 1983 44.5309
35.3587 1978 44.4747
35.4755 1927 43.8976
35.5921 1928 43.909
35.7088 1871 43.2551
35.8254 1910 43.7035
35.9419 1920 43.8178
36.0584 2099 45.8148
36.1749 1976 44.4522
36.2913 2047 45.2438
36.4077 2143 46.2925
36.524 2003 44.7549
36.6403 1968 44.3621
36.7565 1962 44.2945
36.8727 1739 41.7013
36.9889 1693 41.1461
37.1049 1488 38.5746
37.221 0 1
37.3369 0 1
37.4529 0 1
37.5687 0 1
37.6845 0 1
37.8003 0 1
37.916 0 1
38.0316 0 1
38.1472 0 1
40.5851 0 1
40.7008 0 1
40.8164 0 1
40.9322 0 1
41.048 0 1
41.1639 0 1
41.2798 0 1
41.3958 0 1
41.5118 0 1
41.6279 0 1
41.744 1153 33.9559
41.8602 1211 34.7994
41.9765 1280 35.7771
42.0928 1371 37.027
42.2091 1314 36.2491
42.3255 1250 35.3553
42.4419 1306 36.1386
42.5584 1318 36.3043
42.675 1444 38
42.7915 1548 39.3446
42.9081 1629 40.3609
43.0248 1731 41.6053
43.1415 1769 42.0595
43.2582 1841 42.9069
43.375 1739 41.7013
43.4918 1886 43.4281
43.6087 1832 42.8019
43.7256 1804 42.4735
43.8425 1762 41.9762
43.9595 1667 40.8289
44.0765 1703 41.2674
44.1935 1655 40.6817
44.3106 1567 39.5854
44.4277 1488 38.5746
44.5448 1537 39.2046
44.6619 1546 39.3192
44.7791 1665 40.8044
44.8963 1747 41.7971
45.0136 1804 42.4735
45.1308 1885 43.4166
45.2481 1882 43.382
45.3654 1861 43.1393
45.4827 1992 44.6318
45.6001 1873 43.2782
45.7174 1786 42.2611
45.8348 1683 41.0244
45.9522 1579 39.7366
46.0697 1574 39.6737
46.1871 1528 39.0896
46.3046 1472 38.3667
46.422 1667 40.8289
46.5395 1686 41.0609
46.657 1841 42.9069
46.7745 1728 41.5692
46.892 1823 42.6966
47.0096 1919 43.8064
47.1271 1875 43.3013
47.2446 1922 43.8406
47.3622 1863 43.1625
47.4797 1820 42.6615
47.5973 1807 42.5088
47.7149 1722 41.497
47.8324 1731 41.6053
47.95 1616 40.1995
48.0675 1566 39.5727
48.1851 1496 38.6782
48.3027 1651 40.6325
48.4202 1676 40.939
48.5378 1861 43.1393
48.6554 1910 43.7035
48.7729 1924 43.8634
48.8904 1912 43.7264
49.008 1856 43.0813
49.1255 1945 44.1022
49.243 1710 41.3521
49.3605 1700 41.2311
49.478 1533 39.1535
49.5955 1536 39.1918
49.713 1388 37.2559
49.8304 1508 38.833
49.9479 1583 39.7869
50.0653 1643 40.5339
50.1827 1747 41.7971
50.3001 1765 42.0119
50.4175 1808 42.5206
50.5348 1783 42.2256
50.6521 1913 43.7379
50.7694 1904 43.6348
50.8867 1930 43.9318
51.004 1781 42.2019
51.1212 1811 42.5558
51.2384 1674 40.9145
51.3556 1788 42.2847
51.4727 1662 40.7676
51.5899 1608 40.0999
51.707 1627 40.3361
51.824 1810 42.5441
51.9411 1838 42.8719
52.0581 2043 45.1996
52.175 2162 46.4973
52.2919 2226 47.1805
52.4088 2201 46.9148
52.5257 2281 47.7598
52.6425 2260 47.5395
52.7593 2308 48.0416
52.876 2268 47.6235
52.9927 2082 45.6289
53.1094 1977 44.4635
53.226 1923 43.852
53.3426 1840 42.8952
53.4591 1798 42.4028
53.5756 2015 44.8888
53.692 1964 44.317
53.8084 1921 43.8292
53.9248 1802 42.45
54.0411 1788 42.2847
54.1573 1651 40.6325
54.2735 0 1
54.3896 0 1
54.5057 0 1
54.6217 0 1
54.7377 0 1
54.8537 0 1
54.9695 0 1
55.0853 0 1
55.2011 0 1
55.3168 0 1
55.4324 0 1
57.824 0 1
57.9396 0 1
58.0553 0 1
58.1711 0 1
58.2869 0 1
58.4028 0 1
58.5187 0 1
58.6347 0 1
58.7508 0 1
58.8669 0 1
58.983 1553 39.4081
59.0992 1777 42.1545
59.2155 1986 44.5646
59.3318 2009 44.8219
59.4482 2127 46.1194
59.5646 2063 45.4203
59.681 2048 45.2548
59.7975 2255 47.4868
59.9141 2121 46.0543
60.0306 2155 46.422
60.1473 2138 46.2385
60.2639 1987 44.5758
60.3807 2020 44.9444
60.4974 2025 45
60.6142 2227 47.1911
60.731 2186 46.7547
60.8479 2310 48.0625
60.9648 2434 49.3356
61.0818 2386 48.8467
61.1987 2374 48.7237
61.3158 2317 48.1352
61.4328 2314 48.1041
61.5499 2140 46.2601
61.667 2024 44.9889
61.7841 1929 43.9204
61.9013 1803 42.4617
62.0185 1771 42.0833
62.1357 1944 44.0908
62.253 2034 45.0999
62.3702 2097 45.793
62.4875 2200 46.9042
62.6049 2200 46.9042
62.7222 2350 48.4768
62.8396 2360 48.5798
62.9569 2267 47.613
63.0743 2229 47.2123
63.1918 2275 47.697
63.3092 2201 46.9148
63.4267 2293 47.8853
63.5441 2099 45.8148
63.6616 1988 44.587
63.7791 1862 43.1509
63.8966 1882 43.382
64.0142 1904 43.6348
64.1317 1977 44.4635
64.2492 2135 46.2061
64.3668 2253 47.4658
64.4843 2215 47.0638
64.6019 2293 47.8853
64.7195 2325 48.2183
64.837 2384 48.8262
64.9546 2241 47.3392
65.0722 2168 46.5618
65.1898 2126 46.1086
65.3074 1911 43.715
65.4249 1768 42.0476
65.5425 1798 42.4028
65.6601 1742 41.7373
65.7777 1799 42.4146
65.8952 2026 45.0111
66.0128 1955 44.2154
66.1304 2217 47.085
66.2479 2146 46.3249
66.3655 2164 46.5188
66.483 2228 47.2017
66.6005 2297 47.927
66.718 2168 46.5618
66.8355 2229 47.2123
66.953 2164 46.5188
67.0705 2151 46.3789
67.1879 2094 45.7602
67.3054 2008 44.8107
67.4228 1802 42.45
67.5402 1798 42.4028
67.6576 1853 43.0465
67.7749 1919 43.8064
67.8923 1988 44.587
68.0096 2110 45.9347
68.1269 2227 47.1911
68.2442 2239 47.3181
68.3614 2218 47.0956
68.4787 2323 48.1975
68.5958 2174 46.6262
68.713 2028 45.0333
68.8302 1941 44.0568
68.9473 1816 42.6146
69.0643 1688 41.0853
69.1814 1609 40.1123
69.2984 1595 39.9375
69.4154 1743 41.7493
69.5323 1889 43.4626
69.6492 2019 44.9333
69.7661 2080 45.607
69.8829 2093 45.7493
69.9997 2053 45.31
70.1165 2019 44.9333
70.2332 1943 44.0795
70.3499 1924 43.8634
70.4665 1839 42.8836
70.5831 1763 41.9881
70.6996 1603 40.0375
70.8161 1460 38.2099
70.9326 1417 37.6431
71.049 1214 34.8425
71.1653 1012 31.8119
71.2817 955 30.9031
71.3979 877 29.6142
71.5141 829 28.7924
71.6303 819 28.6182
71.7464 763 27.6225
71.8624 0 1
71.9784 0 1
72.0944 0 1
72.2102 0 1
72.3261 0 1
72.4418 0 1
72.5575 0 1
72.6732 0 1
75.1054 0 1
75.2209 0 1
75.3365 0 1
75.4521 0 1
75.5678 0 1
75.6835 0 1
75.7993 0 1
75.9151 0 1
76.031 0 1
76.147 1282 35.805
76.263 1405 37.4833
76.3791 1413 37.5899
76.4952 1339 36.5923
76.6113 1493 38.6394
76.7276 1491 38.6135
76.8438 1725 41.5331
76.9601 1849 43
77.0765 1900 43.589
77.1929 1880 43.359
77.3093 1851 43.0232
77.4258 1889 43.4626
77.5423 1945 44.1022
77.6589 1796 42.3792
77.7755 1610 40.1248
77.8921 1518 38.9615
78.0088 1413 37.5899
78.1256 1352 36.7696
78.2423 1342 36.6333
78.3591 1416 37.6298
78.4759 1516 38.9358
78.5928 1760 41.9524
78.7097 1777 42.1545
78.8266 1886 43.4281
78.9436 1865 43.1856
79.0606 1830 42.7785
79.1776 1878 43.3359
79.2946 1958 44.2493
79.4117 1949 44.1475
79.5288 1818 42.638
79.6459 1867 43.2088
79.7631 1846 42.9651
79.8802 1768 42.0476
79.9974 1630 40.3733
80.1147 1552 39.3954
80.2319 1623 40.2865
80.3491 1567 39.5854
80.4664 1667 40.8289
80.5837 1875 43.3013
80.701 1870 43.2435
80.8183 1966 44.3396
80.9357 1993 44.643
81.053 1940 44.0454
81.1704 1958 44.2493
81.2877 2022 44.9667
81.4051 1898 43.566
81.5225 1730 41.5933
81.6399 1623 40.2865
81.7573 1418 37.6563
81.8747 1415 37.6165
81.9922 1375 37.081
82.1096 1506 38.8072
82.227 1666 40.8167
82.3444 1825 42.72
82.4619 1874 43.2897
82.5793 1883 43.3935
82.6967 1921 43.8292
82.8142 2002 44.7437
82.9316 1997 44.6878
83.049 2030 45.0555
83.1664 1924 43.8634
83.2838 1965 44.3283
83.4012 1868 43.2204
83.5186 1861 43.1393
83.636 1840 42.8952
83.7534 1645 40.5586
83.8708 1611 40.1373
83.9881 1573 39.6611
84.1055 1668 40.8412
84.2228 1698 41.2068
84.3401 1951 44.1701
84.4575 1999 44.7102
84.5747 2035 45.111
84.692 2029 45.0444
84.8093 1974 44.4297
84.9265 1983 44.5309
85.0437 1872 43.2666
85.1609 1659 40.7308
85.2781 1561 39.5095
85.3952 1424 37.7359
85.5123 1339 36.5923
85.6294 1435 37.8814
85.7465 1568 39.598
85.8636 1661 40.7554
85.9806 1858 43.1045
86.0976 1912 43.7264
86.2145 1972 44.4072
86.3315 1923 43.852
86.4484 2050 45.2769
86.5652 2128 46.1303
86.682 2033 45.0888
86.7988 2014 44.8776
86.9156 2068 45.4753
87.0323 1861 43.1393
87.149 1890 43.4741
87.2657 1728 41.5692
87.3823 1622 40.2741
87.4988 1408 37.5233
87.6154 1369 37
87.7318 1463 38.2492
87.8483 1463 38.2492
87.9647 1648 40.5956
88.081 1621 40.2616
88.1973 1563 39.5348
88.3136 1487 38.5616
88.4298 1435 37.8814
88.546 1382 37.1753
88.6621 1158 34.0294
88.7781 950 30.8221
88.8942 0 1
89.0101 0 1
89.126 0 1
89.2419 0 1
89.3577 0 1
89.4734 0 1
89.5891 0 1
89.7047 0 1
89.8203 0 1
89.9358 0 1
92.3269 0 1
92.4424 0 1
92.558 0 1
92.6736 0 1
92.7893 0 1
92.905 0 1
93.0208 0 1
93.1366 0 1
93.2525 0 1
93.3685 0 1
93.4845 0 1
93.6005 1534 39.1663
93.7167 1624 40.2989
93.8328 1782 42.2137
93.949 1831 42.7902
94.0653 1770 42.0714
94.1816 1737 41.6773
94.2979 1613 40.1622
94.4143 1581 39.7618
94.5307 1469 38.3275
94.6472 1414 37.6032
94.7637 1492 38.6264
94.8803 1622 40.2741
94.9969 1828 42.7551
95.1135 1858 43.1045
95.2302 1907 43.6692
95.3469 1921 43.8292
95.4637 2015 44.8888
95.5805 2058 45.3652
95.6973 2105 45.8803
95.8142 2054 45.3211
95.9311 1915 43.7607
96.048 2025 45
96.1649 1977 44.4635
96.2819 1908 43.6807
96.3989 1920 43.8178
96.516 1789 42.2966
96.633 1739 41.7013
96.7501 1748 41.8091
96.8673 1685 41.0488
96.9844 1753 41.8688
97.1016 1830 42.7785
97.2188 1986 44.5646
97.336 2091 45.7275
97.4532 2069 45.4863
97.5704 2072 45.5192
97.6877 2108 45.913
97.805 2035 45.111
97.9223 1853 43.0465
98.0396 1736 41.6653
98.1569 1548 39.3446
98.2743 1509 38.8458
98.3916 1428 37.7889
98.509 1606 40.0749
98.6264 1814 42.5911
98.7438 1811 42.5558
98.8612 1990 44.6094
98.9786 1934 43.9773
99.096 2067 45.4643
99.2134 2198 46.8828
99.3308 2132 46.1736
99.4482 2124 46.0869
99.5656 2269 47.634
99.6831 2105 45.8803
99.8005 2183 46.7226
99.9179 2171 46.594
100.035 1973 44.4185
100.153 1875 43.3013
100.27 1790 42.3084
100.388 1763 41.9881
100.505 1952 44.1814
100.622 1994 44.6542
100.74 2127 46.1194
100.857 2222 47.1381
100.975 2072 45.5192
101.092 2236 47.2864
101.209 2203 46.9361
101.327 2222 47.1381
101.444 2107 45.9021
101.561 1871 43.2551
101.679 1671 40.8779
101.796 1554 39.4208
101.913 1567 39.5854
102.03 1654 40.6694
102.148 1801 42.4382
102.265 1889 43.4626
102.382 2075 45.5522
102.499 2212 47.0319
102.616 2266 47.6025
102.733 2246 47.392
102.851 2271 47.655
102.968 2241 47.3392
103.085 2338 48.3529
103.202 2312 48.0833
103.319 2248 47.4131
103.436 2194 46.8402
103.552 2146 46.3249
103.669 2003 44.7549
103.786 1919 43.8064
103.903 1886 43.4281
104.02 1878 43.3359
104.137 2014 44.8776
104.253 2159 46.465
104.37 2249 47.4236
104.487 2365 48.6313
104.603 2342 48.3942
104.72 2325 48.2183
104.836 2173 46.6154
104.953 2066 45.4533
105.069 1796 42.3792
105.186 1628 40.3485
105.302 1455 38.1445
105.418 1425 37.7492
105.535 1382 37.1753
105.651 1445 38.0132
105.767 1416 37.6298
105.883 1405 37.4833
105.999 1368 36.9865
106.115 0 1
106.231 0 1
106.347 0 1
106.463 0 1
106.579 0 1
106.694 0 1
106.81 0 1
106.926 0 1
107.041 0 1
107.157 0 1
109.576 0 1
109.692 0 1
109.807 0 1
109.923 0 1
110.039 0 1
110.155 0 1
110.27 0 1
110.386 0 1
110.502 0 1
110.618 932 30.5287
110.735 1243 35.2562
110.851 1485 38.5357
110.967 1676 40.939
111.083 1744 41.7612
111.199 1877 43.3244
111.316 2032 45.0777
111.432 1986 44.5646
111.549 2055 45.3321
111.665 2055 45.3321
111.782 2149 46.3573
111.898 2053 45.31
112.015 2005 44.7772
112.132 1923 43.852
112.248 1828 42.7551
112.365 1742 41.7373
112.482 1781 42.2019
112.599 1920 43.8178
112.716 1923 43.852
112.832 2103 45.8585
112.949 2018 44.9222
113.066 2067 45.4643
113.183 2196 46.8615
113.3 2160 46.4758
113.417 2136 46.2169
113.534 1937 44.0114
113.652 1771 42.0833
113.769 1606 40.0749
113.886 1465 38.2753
114.003 1429 37.8021
114.12 1626 40.3237
114.238 1689 41.0974
114.355 1879 43.3474
114.472 1901 43.6005
114.589 2088 45.6946
114.707 2074 45.5412
114.824 2134 46.1952
114.942 2083 45.6399
115.059 2152 46.3897
115.176 2098 45.8039
115.294 2128 46.1303
115.411 2094 45.7602
115.529 2025 45
115.646 1926 43.8862
115.764 1906 43.6578
115.881 1822 42.6849
115.999 1838 42.8719
116.116 1886 43.4281
116.234 1985 44.5533
116.351 2034 45.0999
116.469 2130 46.1519
116.586 2109 45.9239
116.704 2241 47.3392
116.821 2095 45.7712
116.939 2098 45.8039
117.056 2103 45.8585
117.174 1953 44.1928
117.291 1757 41.9166
117.409 1517 38.9487
117.526 1535 39.1791
117.644 1543 39.281
117.761 1608 40.0999
117.879 1769 42.0595
117.996 1824 42.7083
118.114 1917 43.7836
118.231 2007 44.7996
118.349 2042 45.1885
118.466 2101 45.8367
118.584 2054 45.3211
118.701 2089 45.7056
118.819 2048 45.2548
118.936 2054 45.3211
119.053 2002 44.7437
119.171 1970 44.3847
119.288 1891 43.4856
119.405 1799 42.4146
119.523 1723 41.509
119.64 1725 41.5331
119.757 1705 41.2916
119.875 1848 42.9884
119.992 1962 44.2945
120.109 2030 45.0555
120.226 1967 44.3509
120.343 2011 44.8442
120.46 2052 45.299
120.578 2057 45.3542
120.695 2080 45.607
120.812 1867 43.2088
120.929 1731 41.6053
121.046 1539 39.2301
121.163 1459 38.1969
121.279 1395 37.3497
121.396 1450 38.0789
121.513 1484 38.5227
121.63 1602 40.025
121.747 1664 40.7922
121.863 1611 40.1373
121.98 1658 40.7185
122.097 1639 40.4846
122.213 1660 40.7431
122.33 1572 39.6485
122.446 1538 39.2173
122.563 1513 38.8973
122.679 1369 37
122.795 1298 36.0278
122.912 1124 33.5261
123.028 1099 33.1512
123.144 907 30.1164
123.26 833 28.8617
123.377 0 1
123.493 0 1
123.609 0 1
123.725 0 1
123.84 0 1
123.956 0 1
124.072 0 1
124.188 0 1
124.303 0 1
124.419 0 1
126.852 0 1
126.968 0 1
127.083 0 1
127.199 0 1
127.315 0 1
127.431 0 1
127.547 0 1
127.663 0 1
127.779 0 1
127.895 0 1
128.011 0 1
128.127 0 1
128.243 0 1
128.359 1890 43.4741
128.476 1878 43.3359
128.592 1989 44.5982
128.708 1934 43.9773
128.825 1962 44.2945
128.941 2021 44.9555
129.058 2055 45.3321
129.174 2270 47.6445
129.291 2230 47.2229
129.408 2147 46.3357
129.524 2200 46.9042
129.641 2153 46.4004
129.758 2245 47.3814
129.875 1942 44.0681
129.992 1885 43.4166
130.108 1716 41.4246
130.225 1573 39.6611
130.342 1552 39.3954
130.459 1747 41.7971
130.576 1840 42.8952
130.693 1925 43.8748
130.81 1903 43.6234
130.928 2178 46.669
131.045 2048 45.2548
131.162 2100 45.8258
131.279 2233 47.2546
131.396 2151 46.3789
131.513 2090 45.7165
131.631 2185 46.744
131.748 2091 45.7275
131.865 2172 46.6047
131.983 2082 45.6289
132.1 1928 43.909
132.217 1903 43.6234
132.335 1947 44.1248
132.452 2016 44.8999
132.57 2090 45.7165
132.687 2187 46.7654
132.804 2224 47.1593
132.922 2227 47.1911
133.039 2275 47.697
133.157 2365 48.6313
133.274 2218 47.0956
133.392 2089 45.7056
133.509 1957 44.238
133.627 1872 43.2666
133.744 1696 41.1825
133.862 1651 40.6325
133.979 1732 41.6173
134.097 1781 42.2019
134.214 1953 44.1928
134.332 2017 44.911
134.449 2084 45.6508
134.567 2127 46.1194
134.684 2148 46.3465
134.802 2207 46.9787
134.919 2251 47.4447
135.037 2218 47.0956
135.154 2075 45.5522
135.272 2146 46.3249
135.389 2003 44.7549
135.507 2049 45.2659
135.624 2005 44.7772
135.742 1927 43.8976
135.859 1938 44.0227
135.977 1966 44.3396
136.094 2050 45.2769
136.211 2096 45.7821
136.329 2091 45.7275
136.446 2163 46.5081
136.564 2257 47.5079
136.681 2357 48.5489
136.798 2265 47.592
136.915 2237 47.2969
137.033 2206 46.9681
137.15 1927 43.8976
137.267 1858 43.1045
137.384 1646 40.5709
137.502 1593 39.9124
137.619 1733 41.6293
137.736 1833 42.8135
137.853 1881 43.3705
137.97 1967 44.3509
138.087 1971 44.3959
138.204 2090 45.7165
138.321 2149 46.3573
138.438 2166 46.5403
138.555 2179 46.6798
138.672 2144 46.3033
138.788 2019 44.9333
138.905 2050 45.2769
139.022 1866 43.1972
139.139 1797 42.391
139.255 1759 41.9404
139.372 1613 40.1622
139.488 1510 38.8587
139.605 1456 38.1576
139.721 1502 38.7556
139.838 1431 37.8286
139.954 1502 38.7556
140.071 1426 37.7624
140.187 1294 35.9722
140.303 1230 35.0714
140.419 1177 34.3074
140.535 1160 34.0588
140.652 990 31.4643
140.768 0 1
140.884 0 1
141 0 1
141.115 0 1
141.231 0 1
141.347 0 1
141.463 0 1
141.578 0 1
141.694 0 1
144.104 0 1
144.219 0 1
144.335 0 1
144.45 0 1
144.566 0 1
144.682 0 1
144.798 0 1
144.914 0 1
145.03 0 1
145.146 1512 38.8844
145.262 1703 41.2674
145.378 1745 41.7732
145.494 1821 42.6732
145.61 1723 41.509
145.726 1729 41.5812
145.842 1611 40.1373
145.959 1517 38.9487
146.075 1436 37.8946
146.192 1399 37.4032
146.308 1392 37.3095
146.425 1350 36.7423
146.541 1427 37.7757
146.658 1611 40.1373
146.774 1526 39.064
146.891 1582 39.7744
147.008 1623 40.2865
147.125 1596 39.95
147.241 1704 41.2795
147.358 1686 41.0609
147.475 1690 41.1096
147.592 1692 41.1339
147.709 1606 40.0749
147.826 1574 39.6737
147.943 1535 39.1791
148.06 1509 38.8458
148.177 1555 39.4335
148.294 1485 38.5357
148.411 1549 39.3573
148.528 1601 40.0125
148.645 1664 40.7922
148.762 1750 41.833
148.88 1695 41.1704
148.997 1747 41.7971
149.114 1706 41.3038
149.231 1764 42
149.349 1663 40.7799
149.466 1706 41.3038
149.583 1565 39.5601
149.701 1435 37.8814
149.818 1396 37.3631
149.935 1408 37.5233
150.053 1326 36.4143
150.17 1354 36.7967
150.287 1451 38.092
150.405 1480 38.4708
150.522 1573 39.6611
150.64 1630 40.3733
150.757 1545 39.3065
150.875 1718 41.4488
150.992 1636 40.4475
151.11 1671 40.8779
151.227 1694 41.1582
151.344 1604 40.05
151.462 1568 39.598
151.579 1503 38.7685
151.697 1481 38.4838
151.814 1416 37.6298
151.932 1462 38.2361
152.049 1425 37.7492
152.167 1559 39.4842
152.284 1581 39.7618
152.402 1619 40.2368
152.519 1673 40.9023
152.636 1778 42.1663
152.754 1694 41.1582
152.871 1740 41.7133
152.989 1601 40.0125
153.106 1546 39.3192
153.223 1477 38.4318
153.341 1381 37.1618
153.458 1318 36.3043
153.575 1280 35.7771
153.693 1242 35.242
153.81 1333 36.5103
153.927 1343 36.647
154.044 1432 37.8418
154.162 1428 37.7889
154.279 1500 38.7298
154.396 1545 39.3065
154.513 1480 38.4708
154.63 1515 38.923
154.747 1541 39.2556
154.864 1513 38.8973
154.981 1491 38.6135
155.098 1499 38.7169
155.215 1405 37.4833
155.332 1367 36.973
155.449 1347 36.7015
155.566 1348 36.7151
155.683 1400 37.4166
155.8 1424 37.7359
155.917 1397 37.3765
156.033 1438 37.921
156.15 0 1
156.267 0 1
156.383 0 1
156.5 0 1
156.617 0 1
156.733 0 1
156.85 0 1
156.966 0 1
157.082 0 1
157.199 0 1
157.315 0 1
157.431 0 1
157.547 0 1
157.664 0 1
157.78 0 1
157.896 0 1
158.012 0 1
158.128 0 1
158.244 0 1
158.359 0 1
158.475 0 1
158.591 0 1
158.706 0 1
