
6.15755 0 1
6.2731 0 1
6.3887 0 1
6.50437 0 1
6.62009 0 1
6.73587 0 1
6.8517 0 1
6.96759 0 1
7.08353 0 1
7.19952 0 1
7.31557 0 1
7.43166 0 1
7.54781 0 1
7.664 0 1
7.78024 0 1
7.89653 0 1
8.01286 0 1
8.12924 0 1
8.24567 0 1
8.36213 0 1
8.47864 0 1
8.59519 0 1
8.71178 0 1
8.82841 0 1
8.94508 0 1
9.06179 0 1
9.17853 0 1
9.29531 0 1
9.41212 0 1
9.52897 0 1
9.64584 0 1
9.76276 0 1
9.8797 0 1
9.99667 0 1
10.1137 0 1
10.2307 0 1
10.3478 0 1
10.4648 0 1
10.5819 0 1
10.6991 0 1
10.8162 0 1
10.9334 0 1
11.0506 0 1
11.1678 0 1
11.285 0 1
11.4023 0 1
11.5196 0 1
11.6369 0 1
11.7542 0 1
11.8715 0 1
11.9888 0 1
12.1062 0 1
12.2235 0 1
12.3409 0 1
12.4582 0 1
12.5756 0 1
12.693 0 1
12.8104 0 1
12.9278 0 1
13.0452 0 1
13.1626 0 1
13.28 0 1
13.3974 0 1
13.5149 0 1
13.6323 0 1
13.7497 0 1
13.8671 0 1
13.9845 0 1
14.1019 0 1
14.2193 0 1
14.3367 0 1
14.4541 0 1
14.5714 0 1
14.6888 0 1
14.8062 0 1
14.9235 0 1
15.0408 0 0
15.1581 0 0
15.2755 0 0
15.3927 0 0
15.51 0 0
15.6273 0 0
15.7445 0 0
15.8617 0 0
15.9789 0 0
16.0961 0 0
16.2132 0 0
16.3304 0 0
16.4475 0 0
16.5646 0 0
16.6816 0 0
16.7986 0 0
16.9156 0 0
17.0326 0 0
17.1496 0 0
17.2665 0 0
17.3833 0 0
17.5002 0 0
17.617 0 0
17.7338 0 0
17.8505 0 0
17.9672 0 0
18.0839 0 0
18.2005 0 0
18.3171 0 0
18.4337 0 0
18.5502 0 0
18.6666 0 0
18.7831 0 0
18.8994 0 0
19.0158 0 0
19.1321 0 0
19.2483 0 0
19.3645 0 0
19.4806 0 0
19.5967 0 0
19.7128 0 0
19.8288 0 0
19.9447 0 0
20.0606 0 1
20.1764 0 1
20.2922 0 1
20.4079 0 1
20.5236 0 1
20.6392 0 1
20.7548 0 1
20.8702 0 1
23.3078 0 1
23.4233 0 1
23.539 0 1
23.6547 0 1
23.7704 0 1
23.8862 0 1
24.0021 0 1
24.118 0 1
24.234 0 1
24.35 0 1
24.4661 32475 180.208
24.5822 32208 179.466
24.6984 32166 179.349
24.8146 32016 178.93
24.9309 31997 178.877
25.0472 31702 178.051
25.1636 31729 178.126
25.28 32233 179.536
25.3965 32964 181.56
25.513 34411 185.502
25.6296 35926 189.542
25.7462 37463 193.554
25.8628 38404 195.969
25.9795 38956 197.373
26.0962 40004 200.01
26.213 40036 200.09
26.3298 39598 198.992
26.4466 39933 199.832
26.5635 39334 198.328
26.6804 38533 196.298
26.7973 37057 192.502
26.9143 36455 190.932
27.0313 36986 192.317
27.1483 38607 196.487
27.2653 39299 198.24
27.3824 39818 199.544
27.4996 39342 198.348
27.6167 38927 197.299
27.7339 38246 195.566
27.8511 36907 192.112
27.9683 35976 189.673
28.0855 35061 187.246
28.2028 33662 183.472
28.3201 33429 182.836
28.4374 32273 179.647
28.5547 31718 178.095
28.6721 31321 176.977
28.7894 31815 178.368
28.9068 32328 179.8
29.0242 33575 183.235
29.1416 34494 185.726
29.259 35872 189.399
29.3764 36742 191.682
29.4939 38125 195.256
29.6113 38872 197.16
29.7288 39115 197.775
29.8463 39445 198.608
29.9638 39349 198.366
30.0812 39085 197.699
30.1987 37796 194.412
30.3162 35888 189.441
30.4337 34892 186.794
30.5512 36108 190.021
30.6687 37582 193.861
30.7862 38190 195.423
30.9037 39358 198.389
31.0212 39103 197.745
31.1387 39326 198.308
31.2562 38609 196.492
31.3737 37681 194.116
31.4912 37025 192.419
31.6087 35885 189.433
31.7262 34794 186.531
31.8436 33610 183.33
31.9611 32969 181.574
32.0785 32559 180.441
32.1959 31729 178.126
32.3134 31749 178.182
32.4308 31962 178.779
32.5482 33185 182.168
32.6655 34506 185.758
32.7829 35340 187.989
32.9002 37017 192.398
33.0176 37367 193.305
33.1349 38300 195.704
33.2522 38776 196.916
33.3694 39457 198.638
33.4867 39620 199.048
33.6039 39445 198.608
33.7211 39226 198.056
33.8383 37987 194.903
33.9554 35763 189.111
34.0725 34122 184.721
34.1896 34957 186.968
34.3067 36564 191.217
34.4237 38184 195.407
34.5407 38704 196.733
34.6577 38640 196.571
34.7746 39042 197.59
34.8915 38460 196.112
35.0084 38352 195.837
35.1252 37121 192.668
35.242 36438 190.887
35.3587 35163 187.518
35.4755 34149 184.794
35.5921 33470 182.948
35.7088 32533 180.369
35.8254 31579 177.705
35.9419 30637 175.034
36.0584 30579 174.869
36.1749 31429 177.282
36.2913 32482 180.228
36.4077 33354 182.631
36.524 34605 186.024
36.6403 35884 189.431
36.7565 36815 191.872
36.8727 38726 196.789
36.9889 38926 197.297
37.1049 38852 197.109
37.221 0 1
37.3369 0 1
37.4529 0 1
37.5687 0 1
37.6845 0 1
37.8003 0 1
37.916 0 1
38.0316 0 1
38.1472 0 1
40.5851 0 1
40.7008 0 1
40.8164 0 1
40.9322 0 1
41.048 0 1
41.1639 0 1
41.2798 0 1
41.3958 0 1
41.5118 0 1
41.6279 0 1
41.744 30388 174.322
41.8602 32557 180.436
41.9765 34278 185.143
42.0928 35329 187.96
42.2091 36040 189.842
42.3255 36472 190.976
42.4419 36627 191.382
42.5584 35657 188.831
42.675 33179 182.151
42.7915 31282 176.867
42.9081 29661 172.224
43.0248 30718 175.266
43.1415 32777 181.044
43.2582 33802 183.853
43.375 33812 183.88
43.4918 34387 185.437
43.6087 33544 183.15
43.7256 33236 182.307
43.8425 32524 180.344
43.9595 31145 176.479
44.0765 29838 172.737
44.1935 28968 170.2
44.3106 27984 167.284
44.4277 26407 162.502
44.5448 25200 158.745
44.6619 23782 154.214
44.7791 22756 150.851
44.8963 23039 151.786
45.0136 23112 152.026
45.1308 23458 153.16
45.2481 24152 155.409
45.3654 24742 157.296
45.4827 25962 161.127
45.6001 25804 160.636
45.7174 26062 161.437
45.8348 26061 161.434
45.9522 25725 160.39
46.0697 25640 160.125
46.1871 24126 155.325
46.3046 22785 150.947
46.422 20810 144.257
46.5395 20477 143.098
46.657 21345 146.099
46.7745 22968 151.552
46.892 23109 152.016
47.0096 23310 152.676
47.1271 23422 153.042
47.2446 22897 151.318
47.3622 22451 149.837
47.4797 21947 148.145
47.5973 21409 146.318
47.7149 20793 144.198
47.8324 19633 140.118
47.95 18911 137.517
48.0675 18499 136.011
48.1851 17312 131.575
48.3027 16673 129.124
48.4202 16531 128.573
48.5378 16715 129.287
48.6554 17180 131.072
48.7729 17738 133.184
48.8904 18542 136.169
49.008 19245 138.726
49.1255 19812 140.755
49.243 20254 142.317
49.3605 20302 142.485
49.478 20738 144.007
49.5955 20037 141.552
49.713 19340 139.068
49.8304 17824 133.507
49.9479 16985 130.327
50.0653 17098 130.759
50.1827 18766 136.989
50.3001 20306 142.499
50.4175 21663 147.184
50.5348 22665 150.549
50.6521 23239 152.443
50.7694 23653 153.795
50.8867 24071 155.148
51.004 24384 156.154
51.1212 24489 156.49
51.2384 24276 155.808
51.3556 24371 156.112
51.4727 23760 154.143
51.5899 23471 153.202
51.707 23039 151.786
51.824 22213 149.04
51.9411 22406 149.686
52.0581 23334 152.755
52.175 24932 157.899
52.2919 26648 163.242
52.4088 28197 167.92
52.5257 30108 173.517
52.6425 31248 176.771
52.7593 31627 177.84
52.876 31997 178.877
52.9927 32627 180.629
53.1094 32913 181.419
53.226 32483 180.23
53.3426 30789 175.468
53.4591 29132 170.681
53.5756 27683 166.382
53.692 27785 166.688
53.8084 30745 175.343
53.9248 32740 180.942
54.0411 34619 186.062
54.1573 35841 189.317
54.2735 0 1
54.3896 0 1
54.5057 0 1
54.6217 0 1
54.7377 0 1
54.8537 0 1
54.9695 0 1
55.0853 0 1
55.2011 0 1
55.3168 0 1
55.4324 0 1
57.824 0 1
57.9396 0 1
58.0553 0 1
58.1711 0 1
58.2869 0 1
58.4028 0 1
58.5187 0 1
58.6347 0 1
58.7508 0 1
58.8669 0 1
58.983 34926 186.885
59.0992 38452 196.092
59.2155 40458 201.142
59.3318 41964 204.851
59.4482 42285 205.633
59.5646 42774 206.819
59.681 42015 204.976
59.7975 41762 204.358
59.9141 40411 201.025
60.0306 38557 196.359
60.1473 37441 193.497
60.2639 35254 187.76
60.3807 33809 183.872
60.4974 32109 179.19
60.6142 31267 176.825
60.731 31330 177.003
60.8479 32019 178.939
60.9648 33544 183.15
61.0818 35702 188.95
61.1987 37252 193.008
61.3158 38668 196.642
61.4328 38796 196.967
61.5499 39119 197.785
61.667 38553 196.349
61.7841 37265 193.041
61.9013 35225 187.683
62.0185 33135 182.03
62.1357 32126 179.237
62.253 31761 178.216
62.3702 33517 183.076
62.4875 35355 188.029
62.6049 36954 192.234
62.7222 38524 196.275
62.8396 38515 196.252
62.9569 39206 198.005
63.0743 39067 197.654
63.1918 39280 198.192
63.3092 38180 195.397
63.4267 37088 192.582
63.5441 35671 188.868
63.6616 34329 185.281
63.7791 32867 181.293
63.8966 30828 175.579
64.0142 28952 170.153
64.1317 28420 168.582
64.2492 28522 168.885
64.3668 29085 170.543
64.4843 31078 176.29
64.6019 33123 181.997
64.7195 34540 185.849
64.837 35594 188.664
64.9546 36062 189.9
65.0722 35688 188.913
65.1898 35882 189.425
65.3074 35482 188.367
65.4249 32968 181.571
65.5425 31048 176.204
65.6601 29042 170.417
65.7777 28319 168.283
65.8952 29505 171.77
66.0128 31511 177.513
66.1304 33284 182.439
66.2479 35327 187.955
66.3655 36037 189.834
66.483 36524 191.113
66.6005 36999 192.351
66.718 37063 192.518
66.8355 37091 192.59
66.953 36261 190.423
67.0705 35025 187.15
67.1879 33962 184.288
67.3054 32254 179.594
67.4228 31053 176.219
67.5402 29153 170.742
67.6576 27547 165.973
67.7749 26967 164.216
67.8923 26916 164.061
68.0096 28268 168.131
68.1269 30405 174.37
68.2442 32480 180.222
68.3614 34445 185.594
68.4787 35820 189.262
68.5958 36117 190.045
68.713 36382 190.741
68.8302 36571 191.235
68.9473 36142 190.11
69.0643 34151 184.8
69.1814 31976 178.818
69.2984 30125 173.566
69.4154 29433 171.56
69.5323 30653 175.08
69.6492 33025 181.728
69.7661 35333 187.971
69.8829 37552 193.783
69.9997 38708 196.743
70.1165 39450 198.62
70.2332 40084 200.21
70.3499 39983 199.957
70.4665 40172 200.43
70.5831 39340 198.343
70.6996 38475 196.15
70.8161 37039 192.455
70.9326 35911 189.502
71.049 34061 184.556
71.1653 31688 178.011
71.2817 29361 171.351
71.3979 27053 164.478
71.5141 26904 164.024
71.6303 27284 165.179
71.7464 26355 162.342
71.8624 0 1
71.9784 0 1
72.0944 0 1
72.2102 0 1
72.3261 0 1
72.4418 0 1
72.5575 0 1
72.6732 0 1
75.1054 0 1
75.2209 0 1
75.3365 0 1
75.4521 0 1
75.5678 0 1
75.6835 0 1
75.7993 0 1
75.9151 0 1
76.031 0 1
76.147 33765 183.753
76.263 35579 188.624
76.3791 34756 186.43
76.4952 33096 181.923
76.6113 30600 174.929
76.7276 28415 168.567
76.8438 28599 169.112
76.9601 29225 170.953
77.0765 31202 176.641
77.1929 33232 182.296
77.3093 36132 190.084
77.4258 37948 194.802
77.5423 38124 195.254
77.6589 38632 196.55
77.7755 38228 195.52
77.8921 37913 194.713
78.0088 36256 190.41
78.1256 33749 183.709
78.2423 30838 175.608
78.3591 29421 171.526
78.4759 28840 169.823
78.5928 30147 173.629
78.7097 32560 180.444
78.8266 34486 185.704
78.9436 37108 192.634
79.0606 37397 193.383
79.1776 38278 195.648
79.2946 38548 196.336
79.4117 38995 197.472
79.5288 38786 196.942
79.6459 38467 196.13
79.7631 36741 191.679
79.8802 36033 189.824
79.9974 34275 185.135
80.1147 32426 180.072
80.2319 29859 172.798
80.3491 27695 166.418
80.4664 26742 163.53
80.5837 27619 166.19
80.701 28820 169.765
80.8183 30848 175.636
80.9357 33471 182.951
81.053 34692 186.258
81.1704 35216 187.659
81.2877 35160 187.51
81.4051 35108 187.371
81.5225 35611 188.709
81.6399 33315 182.524
81.7573 31612 177.798
81.8747 28638 169.228
81.9922 26631 163.19
82.1096 26143 161.688
82.227 26913 164.052
82.3444 28997 170.285
82.4619 31356 177.076
82.5793 32895 181.37
82.6967 33420 182.811
82.8142 34232 185.019
82.9316 34577 185.949
83.049 34841 186.657
83.1664 34217 184.978
83.2838 33706 183.592
83.4012 32670 180.748
83.5186 31706 178.062
83.636 30238 173.891
83.7534 28871 169.915
83.8708 26499 162.785
83.9881 24891 157.769
84.1055 23958 154.784
84.2228 24430 156.301
84.3401 25709 160.34
84.4575 27576 166.06
84.5747 30474 174.568
84.692 31492 177.46
84.8093 32269 179.636
84.9265 32469 180.192
85.0437 32543 180.397
85.1609 32462 180.172
85.2781 30262 173.96
85.3952 28432 168.618
85.5123 26492 162.764
85.6294 25440 159.499
85.7465 26427 162.564
85.8636 28711 169.443
85.9806 30970 175.983
86.0976 33184 182.165
86.2145 34854 186.692
86.3315 36015 189.776
86.4484 37360 193.287
86.5652 38293 195.686
86.682 38295 195.691
86.7988 38222 195.504
86.9156 37634 193.995
87.0323 36865 192.003
87.149 35764 189.114
87.2657 34899 186.813
87.3823 33106 181.951
87.4988 30871 175.701
87.6154 29642 172.169
87.7318 30111 173.525
87.8483 31261 176.808
87.9647 33719 183.627
88.081 36767 191.747
88.1973 38628 196.54
88.3136 39448 198.615
88.4298 39582 198.952
88.546 39761 199.402
88.6621 39010 197.509
88.7781 37456 193.536
88.8942 0 1
89.0101 0 1
89.126 0 1
89.2419 0 1
89.3577 0 1
89.4734 0 1
89.5891 0 1
89.7047 0 1
89.8203 0 1
89.9358 0 1
92.3269 0 1
92.4424 0 1
92.558 0 1
92.6736 0 1
92.7893 0 1
92.905 0 1
93.0208 0 1
93.1366 0 1
93.2525 0 1
93.3685 0 1
93.4845 0 1
93.6005 37312 193.163
93.7167 38218 195.494
93.8328 39066 197.651
93.949 39071 197.664
94.0653 38642 196.576
94.1816 37935 194.769
94.2979 35824 189.272
94.4143 34145 184.784
94.5307 32390 179.972
94.6472 31313 176.955
94.7637 31075 176.281
94.8803 32428 180.078
94.9969 34803 186.556
95.1135 36341 190.633
95.2302 37674 194.098
95.3469 39016 197.525
95.4637 39958 199.895
95.5805 40890 202.213
95.6973 42048 205.056
95.8142 42355 205.803
95.9311 41857 204.59
96.048 41141 202.832
96.1649 40418 201.042
96.2819 39454 198.63
96.3989 37834 194.51
96.516 35988 189.705
96.633 33945 184.242
96.7501 31877 178.541
96.8673 31631 177.851
96.9844 32736 180.931
97.1016 34213 184.968
97.2188 36829 191.909
97.336 38506 196.229
97.4532 39444 198.605
97.5704 39755 199.387
97.6877 39034 197.57
97.805 38805 196.99
97.9223 36437 190.885
98.0396 34491 185.718
98.1569 32490 180.25
98.2743 31133 176.445
98.3916 30547 174.777
98.509 31707 178.065
98.6264 33721 183.633
98.7438 35642 188.791
98.8612 36996 192.343
98.9786 38687 196.69
99.096 40177 200.442
99.2134 40942 202.341
99.3308 41611 203.988
99.4482 42039 205.034
99.5656 41522 203.769
99.6831 41033 202.566
99.8005 39842 199.605
99.9179 39023 197.542
100.035 37201 192.876
100.153 35800 189.209
100.27 33894 184.103
100.388 32368 179.911
100.505 32882 181.334
100.622 34617 186.056
100.74 36881 192.044
100.857 39286 198.207
100.975 39734 199.334
101.092 40114 200.285
101.209 40058 200.145
101.327 39738 199.344
101.444 39063 197.644
101.561 36763 191.737
101.679 34358 185.359
101.796 32956 181.538
101.913 31730 178.129
102.03 32063 179.061
102.148 34094 184.646
102.265 38501 196.217
102.382 35649 188.809
102.499 39551 198.874
102.616 41055 202.62
102.733 42037 205.029
102.851 42957 207.261
102.968 42682 206.596
103.085 43107 207.622
103.202 42597 206.39
103.319 41780 204.402
103.436 40766 201.906
103.552 39474 198.681
103.669 37616 193.948
103.786 35203 187.625
103.903 34312 185.235
104.02 34802 186.553
104.137 36849 191.961
104.253 39462 198.65
104.37 39648 199.118
104.487 42291 205.648
104.603 42130 205.256
104.72 42220 205.475
104.836 41651 204.086
104.953 40582 201.45
105.069 38026 195.003
105.186 36268 190.442
105.302 34633 186.099
105.418 33920 184.174
105.535 35168 187.531
105.651 37387 193.357
105.767 39444 198.605
105.883 40965 202.398
105.999 42981 207.319
106.115 0 1
106.231 0 1
106.347 0 1
106.463 0 1
106.579 0 1
106.694 0 1
106.81 0 1
106.926 0 1
107.041 0 1
107.157 0 1
109.576 0 1
109.692 0 1
109.807 0 1
109.923 0 1
110.039 0 1
110.155 0 1
110.27 0 1
110.386 0 1
110.502 0 1
110.618 34548 185.871
110.735 37193 192.855
110.851 39100 197.737
110.967 40493 201.229
111.083 41477 203.659
111.199 42928 207.191
111.316 43986 209.728
111.432 44495 210.938
111.549 44524 211.007
111.665 43877 209.468
111.782 43433 208.406
111.898 42558 206.296
112.015 41642 204.064
112.132 40005 200.012
112.248 37503 193.657
112.365 36401 190.79
112.482 36276 190.463
112.599 36871 192.018
112.716 38953 197.365
112.832 40450 201.122
112.949 41171 202.906
113.066 41929 204.766
113.183 41807 204.468
113.3 41438 203.563
113.417 40272 200.679
113.534 38933 197.314
113.652 37091 192.59
113.769 35468 188.329
113.886 34283 185.157
114.003 33455 182.907
114.12 34613 186.046
114.238 36523 191.11
114.355 37814 194.458
114.472 41066 202.647
114.589 38106 195.208
114.707 41265 203.138
114.824 42332 205.747
114.942 43331 208.161
115.059 43759 209.187
115.176 43441 208.425
115.294 43129 207.675
115.411 42300 205.67
115.529 41931 204.771
115.646 40664 201.653
115.764 38688 196.693
115.881 37156 192.759
115.999 36456 190.935
116.116 37312 193.163
116.234 39008 197.504
116.351 40111 200.277
116.469 41595 203.949
116.586 41471 203.644
116.704 41800 204.45
116.821 41218 203.022
116.939 40857 202.131
117.056 39771 199.427
117.174 38287 195.671
117.291 37012 192.385
117.409 35466 188.324
117.526 34984 187.04
117.644 34925 186.882
117.761 36204 190.273
117.879 37482 193.603
117.996 38597 196.461
118.114 40044 200.11
118.231 41174 202.914
118.349 41898 204.69
118.466 42223 205.482
118.584 42581 206.352
118.701 43114 207.639
118.819 42526 206.218
118.936 41955 204.829
119.053 41297 203.217
119.171 40591 201.472
119.288 39544 198.857
119.405 37625 193.972
119.523 36176 190.2
119.64 36302 190.531
119.757 36956 192.239
119.875 38319 195.752
119.992 39259 198.139
120.109 40496 201.236
120.226 40126 200.315
120.343 40745 201.854
120.46 40150 200.375
120.578 40105 200.262
120.695 38671 196.649
120.812 38337 195.798
120.929 36936 192.187
121.046 35651 188.815
121.163 34669 186.196
121.279 34637 186.11
121.396 35514 188.452
121.513 36873 192.023
121.63 37333 193.217
121.747 38878 197.175
121.863 39377 198.436
121.98 40011 200.027
122.097 40967 202.403
122.213 41449 203.59
122.33 42093 205.166
122.446 41628 204.029
122.563 41095 202.719
122.679 40251 200.627
122.795 39942 199.855
122.912 38719 196.771
123.028 38383 195.916
123.144 36795 191.82
123.26 35542 188.526
123.377 0 1
123.493 0 1
123.609 0 1
123.725 0 1
123.84 0 1
123.956 0 1
124.072 0 1
124.188 0 1
124.303 0 1
124.419 0 1
126.852 0 1
126.968 0 1
127.083 0 1
127.199 0 1
127.315 0 1
127.431 0 1
127.547 0 1
127.663 0 1
127.779 0 1
127.895 0 1
128.011 0 1
128.127 0 1
128.243 0 1
128.359 40987 202.452
128.476 40147 200.367
128.592 40779 201.938
128.708 41827 204.517
128.825 43560 208.71
128.941 44125 210.06
129.058 44518 210.993
129.174 44523 211.005
129.291 44182 210.195
129.408 44168 210.162
129.524 43305 208.099
129.641 42184 205.387
129.758 40846 202.104
129.875 39760 199.399
129.992 38697 196.716
130.108 38259 195.599
130.225 38955 197.37
130.342 39157 197.881
130.459 39976 199.94
130.576 41829 204.521
130.693 42374 205.849
130.81 42969 207.29
130.928 43454 208.456
131.045 44156 210.133
131.162 44922 211.948
131.279 45186 212.57
131.396 45122 212.419
131.513 45126 212.429
131.631 43696 209.036
131.748 43560 208.71
131.865 42494 206.141
131.983 41619 204.007
132.1 42300 205.67
132.217 43389 208.3
132.335 44254 210.366
132.452 44561 211.095
132.57 45144 212.471
132.687 43554 208.696
132.804 46076 214.653
132.922 44687 211.393
133.039 44293 210.459
133.157 43097 207.598
133.274 42104 205.193
133.392 40547 201.363
133.509 39801 199.502
133.627 39174 197.924
133.744 39036 197.575
133.862 39528 198.816
133.979 40404 201.007
134.097 41077 202.675
134.214 42190 205.402
134.332 42140 205.28
134.449 43454 208.456
134.567 43871 209.454
134.684 45054 212.259
134.802 45744 213.878
134.919 45601 213.544
135.037 44916 211.934
135.154 43716 209.084
135.272 43189 207.82
135.389 43515 208.602
135.507 41924 204.754
135.624 42297 205.662
135.742 43059 207.507
135.859 44324 210.533
135.977 44758 211.561
136.094 44927 211.96
136.211 44921 211.946
136.329 44976 212.075
136.446 45184 212.565
136.564 44840 211.755
136.681 43324 208.144
136.798 42846 206.993
136.915 41758 204.348
137.033 40535 201.333
137.15 39736 199.339
137.267 39068 197.656
137.384 38995 197.472
137.502 39417 198.537
137.619 40197 200.492
137.736 40784 201.95
137.853 40882 202.193
137.97 43061 207.511
138.087 42144 205.29
138.204 43638 208.897
138.321 44137 210.088
138.438 44408 210.732
138.555 45679 213.726
138.672 45413 213.103
138.788 44550 211.069
138.905 43630 208.878
139.022 43288 208.058
139.139 43178 207.793
139.255 43570 208.734
139.372 44685 211.388
139.488 46024 214.532
139.605 46020 214.523
139.721 46309 215.195
139.838 46176 214.886
139.954 46294 215.16
140.071 46181 214.898
140.187 46188 214.914
140.303 44742 211.523
140.419 43407 208.343
140.535 42071 205.112
140.652 40812 202.02
140.768 0 1
140.884 0 1
141 0 1
141.115 0 1
141.231 0 1
141.347 0 1
141.463 0 1
141.578 0 1
141.694 0 1
144.104 0 1
144.219 0 1
144.335 0 1
144.45 0 1
144.566 0 1
144.682 0 1
144.798 0 1
144.914 0 1
145.03 0 1
145.146 40867 202.156
145.262 40520 201.296
145.378 39535 198.834
145.494 39252 198.121
145.61 38093 195.174
145.726 37550 193.778
145.842 37268 193.049
145.959 36968 192.271
146.075 37057 192.502
146.192 37475 193.585
146.308 38159 195.343
146.425 38827 197.046
146.541 38967 197.401
146.658 39723 199.306
146.774 39917 199.792
146.891 40525 201.308
147.008 41040 202.583
147.125 42167 205.346
147.241 41994 204.924
147.358 40975 202.423
147.475 40154 200.385
147.592 39260 198.141
147.709 39400 198.494
147.826 39397 198.487
147.943 41129 202.803
148.06 41425 203.531
148.177 42567 206.318
148.294 42293 205.653
148.411 42333 205.75
148.528 42204 205.436
148.645 42054 205.071
148.762 41792 204.431
148.88 41192 202.958
148.997 39337 198.336
149.114 40532 201.326
149.231 39025 197.547
149.349 38211 195.476
149.466 36859 191.987
149.583 36968 192.271
149.701 37008 192.375
149.818 37606 193.923
149.935 37904 194.689
150.053 38255 195.589
150.17 38562 196.372
150.287 38669 196.644
150.405 39896 199.74
150.522 40181 200.452
150.64 41147 202.847
150.757 41458 203.612
150.875 41921 204.746
150.992 40580 201.445
151.11 39821 199.552
151.227 38871 197.157
151.344 38128 195.264
151.462 38536 196.306
151.579 41110 202.756
151.697 41810 204.475
151.814 42830 206.954
151.932 42793 206.865
152.049 42720 206.688
152.167 41975 204.878
152.284 42445 206.022
152.402 41574 203.897
152.519 41384 203.431
152.636 40040 200.1
152.754 39612 199.028
152.871 38830 197.053
152.989 38598 196.464
153.106 37697 194.157
153.223 37480 193.598
153.341 37603 193.915
153.458 37809 194.445
153.575 38515 196.252
153.693 38623 196.527
153.81 39486 198.711
153.927 39760 199.399
154.044 40763 201.898
154.162 40913 202.27
154.279 41796 204.441
154.396 42435 205.998
154.513 43217 207.887
154.63 42460 206.058
154.747 42018 204.983
154.864 41131 202.808
154.981 40417 201.04
155.098 40934 202.322
155.215 42122 205.236
155.332 43211 207.873
155.449 43771 209.215
155.566 43657 208.943
155.683 43780 209.237
155.8 43481 208.521
155.917 42981 207.319
156.033 42806 206.896
156.15 0 1
156.267 0 1
156.383 0 1
156.5 0 1
156.617 0 1
156.733 0 1
156.85 0 1
156.966 0 1
157.082 0 1
157.199 0 1
157.315 0 1
157.431 0 1
157.547 0 1
157.664 0 1
157.78 0 1
157.896 0 1
158.012 0 1
158.128 0 1
158.244 0 1
158.359 0 1
158.475 0 1
158.591 0 1
158.706 0 1
