
6.15755 0 1
6.2731 0 1
6.3887 0 1
6.50437 0 1
6.62009 0 1
6.73587 0 1
6.8517 0 1
6.96759 0 1
7.08353 0 1
7.19952 0 1
7.31557 0 1
7.43166 0 1
7.54781 0 1
7.664 0 1
7.78024 0 1
7.89653 0 1
8.01286 0 1
8.12924 0 1
8.24567 0 1
8.36213 0 1
8.47864 0 1
8.59519 0 1
8.71178 0 1
8.82841 0 1
8.94508 0 1
9.06179 0 1
9.17853 0 1
9.29531 0 1
9.41212 0 1
9.52897 0 1
9.64584 0 1
9.76276 0 1
9.8797 0 1
9.99667 0 1
10.1137 0 1
10.2307 0 1
10.3478 0 1
10.4648 0 1
10.5819 0 1
10.6991 0 1
10.8162 0 1
10.9334 0 1
11.0506 0 1
11.1678 0 1
11.285 0 1
11.4023 0 1
11.5196 0 1
11.6369 0 1
11.7542 0 1
11.8715 0 1
11.9888 0 1
12.1062 0 1
12.2235 0 1
12.3409 0 1
12.4582 0 1
12.5756 0 1
12.693 0 1
12.8104 0 1
12.9278 0 1
13.0452 0 1
13.1626 0 1
13.28 0 1
13.3974 0 1
13.5149 0 1
13.6323 0 1
13.7497 0 1
13.8671 0 1
13.9845 0 1
14.1019 0 1
14.2193 0 1
14.3367 0 1
14.4541 0 1
14.5714 0 1
14.6888 0 1
14.8062 0 1
14.9235 0 1
15.0408 0 0
15.1581 0 0
15.2755 0 0
15.3927 0 0
15.51 0 0
15.6273 0 0
15.7445 0 0
15.8617 0 0
15.9789 0 0
16.0961 0 0
16.2132 0 0
16.3304 0 0
16.4475 0 0
16.5646 0 0
16.6816 0 0
16.7986 0 0
16.9156 0 0
17.0326 0 0
17.1496 0 0
17.2665 0 0
17.3833 0 0
17.5002 0 0
17.617 0 0
17.7338 0 0
17.8505 0 0
17.9672 0 0
18.0839 0 0
18.2005 0 0
18.3171 0 0
18.4337 0 0
18.5502 0 0
18.6666 0 0
18.7831 0 0
18.8994 0 0
19.0158 0 0
19.1321 0 0
19.2483 0 0
19.3645 0 0
19.4806 0 0
19.5967 0 0
19.7128 0 0
19.8288 0 0
19.9447 0 0
20.0606 0 1
20.1764 0 1
20.2922 0 1
20.4079 0 1
20.5236 0 1
20.6392 0 1
20.7548 0 1
20.8702 0 1
23.3078 0 1
23.4233 0 1
23.539 0 1
23.6547 0 1
23.7704 0 1
23.8862 0 1
24.0021 0 1
24.118 0 1
24.234 0 1
24.35 0 1
24.4661 1767 42.0357
24.5822 1720 41.4729
24.6984 1677 40.9512
24.8146 1691 41.1218
24.9309 1578 39.724
25.0472 1666 40.8167
25.1636 1602 40.025
25.28 1630 40.3733
25.3965 1819 42.6497
25.513 1846 42.9651
25.6296 1989 44.5982
25.7462 1985 44.5533
25.8628 1931 43.9431
25.9795 1927 43.8976
26.0962 1945 44.1022
26.213 2018 44.9222
26.3298 1840 42.8952
26.4466 1807 42.5088
26.5635 1778 42.1663
26.6804 1764 42
26.7973 1678 40.9634
26.9143 1762 41.9762
27.0313 1797 42.391
27.1483 1886 43.4281
27.2653 1885 43.4166
27.3824 1980 44.4972
27.4996 1937 44.0114
27.6167 1888 43.4511
27.7339 1918 43.795
27.8511 1844 42.9418
27.9683 1806 42.4971
28.0855 1763 41.9881
28.2028 1801 42.4382
28.3201 1687 41.0731
28.4374 1583 39.7869
28.5547 1556 39.4462
28.6721 1575 39.6863
28.7894 1568 39.598
28.9068 1641 40.5093
29.0242 1724 41.5211
29.1416 1745 41.7732
29.259 1778 42.1663
29.3764 1866 43.1972
29.4939 1809 42.5323
29.6113 1846 42.9651
29.7288 1913 43.7379
29.8463 1739 41.7013
29.9638 1740 41.7133
30.0812 1608 40.0999
30.1987 1704 41.2795
30.3162 1634 40.4228
30.4337 1722 41.497
30.5512 1758 41.9285
30.6687 1785 42.2493
30.7862 1865 43.1856
30.9037 1896 43.5431
31.0212 1852 43.0349
31.1387 1876 43.3128
31.2562 1782 42.2137
31.3737 1755 41.8927
31.4912 1800 42.4264
31.6087 1753 41.8688
31.7262 1736 41.6653
31.8436 1681 41
31.9611 1662 40.7676
32.0785 1537 39.2046
32.1959 1512 38.8844
32.3134 1677 40.9512
32.4308 1658 40.7185
32.5482 1756 41.9047
32.6655 1843 42.9302
32.7829 1803 42.4617
32.9002 1852 43.0349
33.0176 1906 43.6578
33.1349 1877 43.3244
33.2522 1879 43.3474
33.3694 1855 43.0697
33.4867 1845 42.9535
33.6039 1798 42.4028
33.7211 1661 40.7554
33.8383 1646 40.5709
33.9554 1691 41.1218
34.0725 1671 40.8779
34.1896 1723 41.509
34.3067 1755 41.8927
34.4237 1871 43.2551
34.5407 1833 42.8135
34.6577 1965 44.3283
34.7746 1837 42.8602
34.8915 1923 43.852
35.0084 1790 42.3084
35.1252 1809 42.5323
35.242 1819 42.6497
35.3587 1789 42.2966
35.4755 1834 42.8252
35.5921 1614 40.1746
35.7088 1534 39.1663
35.8254 1519 38.9744
35.9419 1517 38.9487
36.0584 1592 39.8999
36.1749 1587 39.8372
36.2913 1711 41.3642
36.4077 1802 42.45
36.524 1822 42.6849
36.6403 1828 42.7551
36.7565 1822 42.6849
36.8727 1774 42.1189
36.9889 1789 42.2966
37.1049 1769 42.0595
37.221 0 1
37.3369 0 1
37.4529 0 1
37.5687 0 1
37.6845 0 1
37.8003 0 1
37.916 0 1
38.0316 0 1
38.1472 0 1
40.5851 0 1
40.7008 0 1
40.8164 0 1
40.9322 0 1
41.048 0 1
41.1639 0 1
41.2798 0 1
41.3958 0 1
41.5118 0 1
41.6279 0 1
41.744 1505 38.7943
41.8602 1588 39.8497
41.9765 1612 40.1497
42.0928 1608 40.0999
42.2091 1596 39.95
42.3255 1601 40.0125
42.4419 1530 39.1152
42.5584 1451 38.092
42.675 1384 37.2022
42.7915 1424 37.7359
42.9081 1473 38.3797
43.0248 1594 39.9249
43.1415 1494 38.6523
43.2582 1577 39.7115
43.375 1589 39.8623
43.4918 1641 40.5093
43.6087 1690 41.1096
43.7256 1579 39.7366
43.8425 1614 40.1746
43.9595 1665 40.8044
44.0765 1500 38.7298
44.1935 1453 38.1182
44.3106 1439 37.9342
44.4277 1346 36.6879
44.5448 1243 35.2562
44.6619 1202 34.6699
44.7791 1185 34.4238
44.8963 1229 35.0571
45.0136 1227 35.0286
45.1308 1396 37.3631
45.2481 1338 36.5787
45.3654 1370 37.0135
45.4827 1409 37.5366
45.6001 1354 36.7967
45.7174 1385 37.2156
45.8348 1317 36.2905
45.9522 1323 36.3731
46.0697 1329 36.4555
46.1871 1197 34.5977
46.3046 1121 33.4813
46.422 1154 33.9706
46.5395 1235 35.1426
46.657 1278 35.7491
46.7745 1283 35.819
46.892 1293 35.9583
47.0096 1196 34.5832
47.1271 1303 36.0971
47.2446 1285 35.8469
47.3622 1236 35.1568
47.4797 1208 34.7563
47.5973 1148 33.8821
47.7149 1103 33.2114
47.8324 1133 33.6601
47.95 1006 31.7175
48.0675 968 31.1127
48.1851 918 30.2985
48.3027 927 30.4467
48.4202 925 30.4138
48.5378 1027 32.0468
48.6554 1099 33.1512
48.7729 1006 31.7175
48.8904 1133 33.6601
49.008 1095 33.0908
49.1255 1145 33.8378
49.243 1102 33.1964
49.3605 1090 33.0151
49.478 1092 33.0454
49.5955 1123 33.5112
49.713 985 31.3847
49.8304 1050 32.4037
49.9479 1086 32.9545
50.0653 1072 32.7414
50.1827 1310 36.1939
50.3001 1302 36.0832
50.4175 1238 35.1852
50.5348 1330 36.4692
50.6521 1334 36.524
50.7694 1372 37.0405
50.8867 1491 38.6135
51.004 1414 37.6032
51.1212 1406 37.4967
51.2384 1449 38.0657
51.3556 1462 38.2361
51.4727 1312 36.2215
51.5899 1305 36.1248
51.707 1270 35.6371
51.824 1195 34.5688
51.9411 1294 35.9722
52.0581 1431 37.8286
52.175 1579 39.7366
52.2919 1614 40.1746
52.4088 1678 40.9634
52.5257 1753 41.8688
52.6425 1659 40.7308
52.7593 1689 41.0974
52.876 1698 41.2068
52.9927 1743 41.7493
53.1094 1625 40.3113
53.226 1674 40.9145
53.3426 1570 39.6232
53.4591 1571 39.6358
53.5756 1657 40.7063
53.692 1787 42.2729
53.8084 1822 42.6849
53.9248 1869 43.2319
54.0411 1913 43.7379
54.1573 1928 43.909
54.2735 0 1
54.3896 0 1
54.5057 0 1
54.6217 0 1
54.7377 0 1
54.8537 0 1
54.9695 0 1
55.0853 0 1
55.2011 0 1
55.3168 0 1
55.4324 0 1
57.824 0 1
57.9396 0 1
58.0553 0 1
58.1711 0 1
58.2869 0 1
58.4028 0 1
58.5187 0 1
58.6347 0 1
58.7508 0 1
58.8669 0 1
58.983 2267 47.613
59.0992 2353 48.5077
59.2155 2482 49.8197
59.3318 2436 49.3559
59.4482 2455 49.548
59.5646 2562 50.6162
59.681 2415 49.1426
59.7975 2375 48.734
59.9141 2307 48.0312
60.0306 2167 46.551
60.1473 2066 45.4533
60.2639 1818 42.638
60.3807 1839 42.8836
60.4974 1766 42.0238
60.6142 1850 43.0116
60.731 1903 43.6234
60.8479 2085 45.6618
60.9648 2257 47.5079
61.0818 2236 47.2864
61.1987 2336 48.3322
61.3158 2326 48.2286
61.4328 2247 47.4025
61.5499 2150 46.3681
61.667 2140 46.2601
61.7841 2104 45.8694
61.9013 2100 45.8258
62.0185 2089 45.7056
62.1357 2108 45.913
62.253 2154 46.4112
62.3702 2084 45.6508
62.4875 2351 48.4871
62.6049 2385 48.8365
62.7222 2422 49.2138
62.8396 2398 48.9694
62.9569 2375 48.734
63.0743 2406 49.051
63.1918 2411 49.1019
63.3092 2276 47.7074
63.4267 2124 46.0869
63.5441 2116 46
63.6616 1948 44.1362
63.7791 1852 43.0349
63.8966 1747 41.7971
64.0142 1699 41.2189
64.1317 1799 42.4146
64.2492 1939 44.0341
64.3668 2082 45.6289
64.4843 2135 46.2061
64.6019 2280 47.7493
64.7195 2267 47.613
64.837 2249 47.4236
64.9546 2290 47.8539
65.0722 2156 46.4327
65.1898 2048 45.2548
65.3074 2100 45.8258
65.4249 2025 45
65.5425 2003 44.7549
65.6601 2014 44.8776
65.7777 2062 45.4093
65.8952 2164 46.5188
66.0128 2276 47.7074
66.1304 2382 48.8057
66.2479 2422 49.2138
66.3655 2345 48.4252
66.483 2477 49.7695
66.6005 2440 49.3964
66.718 2425 49.2443
66.8355 2433 49.3254
66.953 2532 50.319
67.0705 2320 48.1664
67.1879 2157 46.4435
67.3054 2081 45.618
67.4228 1851 43.0232
67.5402 1647 40.5832
67.6576 1673 40.9023
67.7749 1759 41.9404
67.8923 2018 44.9222
68.0096 2170 46.5833
68.1269 2308 48.0416
68.2442 2410 49.0918
68.3614 2442 49.4166
68.4787 2541 50.4083
68.5958 2528 50.2792
68.713 2419 49.1833
68.8302 2439 49.3862
68.9473 2374 48.7237
69.0643 2297 47.927
69.1814 2182 46.7119
69.2984 2276 47.7074
69.4154 2253 47.4658
69.5323 2424 49.2341
69.6492 2526 50.2593
69.7661 2671 51.6817
69.8829 2633 51.3128
69.9997 2653 51.5073
70.1165 2808 52.9906
70.2332 2707 52.0288
70.3499 2734 52.2877
70.4665 2783 52.7541
70.5831 2698 51.9423
70.6996 2666 51.6333
70.8161 2475 49.7494
70.9326 2398 48.9694
71.049 2161 46.4866
71.1653 1876 43.3128
71.2817 1864 43.1741
71.3979 1855 43.0697
71.5141 1936 44
71.6303 2176 46.6476
71.7464 2230 47.2229
71.8624 0 1
71.9784 0 1
72.0944 0 1
72.2102 0 1
72.3261 0 1
72.4418 0 1
72.5575 0 1
72.6732 0 1
75.1054 0 1
75.2209 0 1
75.3365 0 1
75.4521 0 1
75.5678 0 1
75.6835 0 1
75.7993 0 1
75.9151 0 1
76.031 0 1
76.147 2516 50.1597
76.263 2452 49.5177
76.3791 2393 48.9183
76.4952 2063 45.4203
76.6113 2047 45.2438
76.7276 2136 46.2169
76.8438 2391 48.8979
76.9601 2534 50.3389
77.0765 2847 53.3573
77.1929 3002 54.7905
77.3093 3056 55.2811
77.4258 3027 55.0182
77.5423 3135 55.9911
77.6589 3074 55.4437
77.7755 3043 55.1634
77.8921 3005 54.8179
78.0088 2912 53.963
78.1256 2746 52.4023
78.2423 2805 52.9623
78.3591 2741 52.3546
78.4759 2799 52.9056
78.5928 2901 53.8609
78.7097 3099 55.6687
78.8266 3141 56.0446
78.9436 3126 55.9106
79.0606 3251 57.0175
79.1776 3232 56.8507
79.2946 3309 57.5239
79.4117 3221 56.7539
79.5288 3188 56.4624
79.6459 3238 56.9034
79.7631 3080 55.4977
79.8802 2927 54.1018
79.9974 2759 52.5262
80.1147 2434 49.3356
80.2319 2266 47.6025
80.3491 2191 46.8081
80.4664 2498 49.98
80.5837 2799 52.9056
80.701 2971 54.5069
80.8183 3198 56.5509
80.9357 3262 57.1139
81.053 3252 57.0263
81.1704 3303 57.4717
81.2877 3395 58.2666
81.4051 3298 57.4282
81.5225 3245 56.9649
81.6399 2981 54.5985
81.7573 3037 55.109
81.8747 2986 54.6443
81.9922 2925 54.0833
82.1096 2837 53.2635
82.227 3047 55.1996
82.3444 3264 57.1314
82.4619 3264 57.1314
82.5793 3325 57.6628
82.6967 3547 59.5567
82.8142 3466 58.8727
82.9316 3445 58.6941
83.049 3478 58.9746
83.1664 3391 58.2323
83.2838 3349 57.8705
83.4012 3175 56.3471
83.5186 3113 55.7943
83.636 2820 53.1037
83.7534 2476 49.7594
83.8708 2321 48.1768
83.9881 2263 47.571
84.1055 2395 48.9387
84.2228 2726 52.2111
84.3401 3017 54.9272
84.4575 3263 57.1227
84.5747 3464 58.8558
84.692 3603 60.025
84.8093 3545 59.5399
84.9265 3593 59.9416
85.0437 3521 59.338
85.1609 3477 58.9661
85.2781 3407 58.3695
85.3952 3294 57.3934
85.5123 3140 56.0357
85.6294 3202 56.5862
85.7465 3288 57.3411
85.8636 3441 58.66
85.9806 3777 61.4573
86.0976 3906 62.498
86.2145 4031 63.4902
86.3315 3973 63.0317
86.4484 4309 65.643
86.5652 4040 63.561
86.682 4233 65.0615
86.7988 4138 64.3273
86.9156 4009 63.3167
87.0323 3949 62.8411
87.149 3798 61.6279
87.2657 3468 58.8897
87.3823 3024 54.9909
87.4988 2932 54.1479
87.6154 3048 55.2087
87.7318 3436 58.6174
87.8483 3952 62.8649
87.9647 4239 65.1076
88.081 4361 66.0379
88.1973 4614 67.9264
88.3136 4549 67.4463
88.4298 4676 68.3813
88.546 4630 68.0441
88.6621 4576 67.6461
88.7781 4362 66.0454
88.8942 0 1
89.0101 0 1
89.126 0 1
89.2419 0 1
89.3577 0 1
89.4734 0 1
89.5891 0 1
89.7047 0 1
89.8203 0 1
89.9358 0 1
92.3269 0 1
92.4424 0 1
92.558 0 1
92.6736 0 1
92.7893 0 1
92.905 0 1
93.0208 0 1
93.1366 0 1
93.2525 0 1
93.3685 0 1
93.4845 0 1
93.6005 5000 70.7107
93.7167 5038 70.9789
93.8328 5214 72.208
93.949 5206 72.1526
94.0653 5097 71.3933
94.1816 4974 70.5266
94.2979 4929 70.2068
94.4143 4779 69.1303
94.5307 4714 68.6586
94.6472 4515 67.1937
94.7637 4641 68.1249
94.8803 4999 70.7036
94.9969 5039 70.9859
95.1135 5342 73.089
95.2302 5388 73.403
95.3469 5492 74.108
95.4637 5586 74.7395
95.5805 5735 75.7298
95.6973 5660 75.233
95.8142 5764 75.921
95.9311 5774 75.9868
96.048 5576 74.6726
96.1649 5331 73.0137
96.2819 5130 71.624
96.3989 4778 69.1231
96.516 4389 66.2495
96.633 4042 63.5767
96.7501 3838 61.9516
96.8673 4031 63.4902
96.9844 4543 67.4018
97.1016 5141 71.7008
97.2188 5664 75.2596
97.336 5891 76.7529
97.4532 5902 76.8245
97.5704 5944 77.0973
97.6877 5925 76.974
97.805 5866 76.5898
97.9223 5841 76.4264
98.0396 5596 74.8064
98.1569 5478 74.0135
98.2743 5229 72.3118
98.3916 5270 72.5948
98.509 5238 72.374
98.6264 5515 74.263
98.7438 5664 75.2596
98.8612 5863 76.5702
98.9786 6168 78.5366
99.096 6225 78.8987
99.2134 6432 80.1998
99.3308 6305 79.404
99.4482 6351 79.6932
99.5656 6432 80.1998
99.6831 6237 78.9747
99.8005 5966 77.2399
99.9179 5732 75.71
100.035 5575 74.6659
100.153 4880 69.857
100.27 4601 67.8307
100.388 4499 67.0746
100.505 5035 70.9577
100.622 5570 74.6324
100.74 6142 78.3709
100.857 6354 79.712
100.975 6567 81.037
101.092 6519 80.7403
101.209 6647 81.5291
101.327 6732 82.0488
101.444 6585 81.148
101.561 6434 80.2122
101.679 6225 78.8987
101.796 6105 78.1345
101.913 5923 76.961
102.03 5858 76.5376
102.148 5976 77.3046
102.265 6596 81.2158
102.382 6408 80.05
102.499 6825 82.6136
102.616 6969 83.4805
102.733 7086 84.1784
102.851 7126 84.4156
102.968 7061 84.0298
103.085 7042 83.9166
103.202 6985 83.5763
103.319 6745 82.1279
103.436 6455 80.343
103.552 6037 77.6981
103.669 5653 75.1864
103.786 5109 71.4773
103.903 5054 71.0915
104.02 5418 73.6071
104.137 6149 78.4156
104.253 7094 84.2259
104.37 7023 83.8033
104.487 7396 86
104.603 7445 86.2844
104.72 7379 85.9011
104.836 7467 86.4118
104.953 7426 86.1742
105.069 7150 84.5577
105.186 6833 82.662
105.302 6808 82.5106
105.418 6697 81.8352
105.535 6756 82.1949
105.651 6889 83
105.767 7056 84
105.883 7119 84.3742
105.999 7392 85.9767
106.115 0 1
106.231 0 1
106.347 0 1
106.463 0 1
106.579 0 1
106.694 0 1
106.81 0 1
106.926 0 1
107.041 0 1
107.157 0 1
109.576 0 1
109.692 0 1
109.807 0 1
109.923 0 1
110.039 0 1
110.155 0 1
110.27 0 1
110.386 0 1
110.502 0 1
110.618 6274 79.2086
110.735 6428 80.1748
110.851 6614 81.3265
110.967 6776 82.3165
111.083 6836 82.6801
111.199 7004 83.6899
111.316 7167 84.6581
111.432 7139 84.4926
111.549 6960 83.4266
111.665 6903 83.0843
111.782 6635 81.4555
111.898 6329 79.555
112.015 5862 76.5637
112.132 5372 73.2939
112.248 4903 70.0214
112.365 4898 69.9857
112.482 4903 70.0214
112.599 5474 73.9865
112.716 5956 77.1751
112.832 6214 78.8289
112.949 6483 80.5171
113.066 6324 79.5236
113.183 6389 79.9312
113.3 6330 79.5613
113.417 6248 79.0443
113.534 6110 78.1665
113.652 5931 77.013
113.769 5745 75.7958
113.886 5589 74.7596
114.003 5462 73.9053
114.12 5545 74.4648
114.238 5529 74.3572
114.355 5723 75.6505
114.472 5706 75.5381
114.589 5871 76.6225
114.707 5915 76.909
114.824 5953 77.1557
114.942 6117 78.2113
115.059 6066 77.8845
115.176 5768 75.9474
115.294 5739 75.7562
115.411 5623 74.9867
115.529 5341 73.0821
115.646 5004 70.739
115.764 4704 68.5857
115.881 4361 66.0379
115.999 4339 65.8711
116.116 4712 68.644
116.234 5164 71.861
116.351 5572 74.6458
116.469 5846 76.4591
116.586 5928 76.9935
116.704 5915 76.909
116.821 5846 76.4591
116.939 5895 76.7789
117.056 5729 75.6902
117.174 5692 75.4453
117.291 5619 74.96
117.409 5490 74.0945
117.526 5166 71.8749
117.644 5296 72.7736
117.761 5248 72.4431
117.879 5523 74.3169
117.996 5540 74.4312
118.114 5651 75.1731
118.231 5689 75.4255
118.349 5778 76.0132
118.466 5970 77.2658
118.584 5849 76.4788
118.701 5970 77.2658
118.819 5653 75.1864
118.936 5759 75.8881
119.053 5536 74.4043
119.171 5370 73.2803
119.288 4909 70.0643
119.405 4468 66.8431
119.523 4027 63.4586
119.64 4146 64.3894
119.757 4447 66.6858
119.875 4821 69.4334
119.992 5299 72.7942
120.109 5579 74.6927
120.226 5606 74.8732
120.343 5741 75.7694
120.46 5601 74.8398
120.578 5617 74.9466
120.695 5482 74.0405
120.812 5505 74.1957
120.929 5311 72.8766
121.046 5201 72.118
121.163 5044 71.0211
121.279 5090 71.3442
121.396 5071 71.211
121.513 5044 71.0211
121.63 5295 72.7668
121.747 5347 73.1232
121.863 5366 73.253
121.98 5304 72.8286
122.097 5407 73.5323
122.213 5584 74.7262
122.33 5446 73.797
122.446 5526 74.3371
122.563 5375 73.3144
122.679 5333 73.0274
122.795 5163 71.854
122.912 4917 70.1213
123.028 4683 68.4324
123.144 4129 64.2573
123.26 3926 62.6578
123.377 0 1
123.493 0 1
123.609 0 1
123.725 0 1
123.84 0 1
123.956 0 1
124.072 0 1
124.188 0 1
124.303 0 1
124.419 0 1
126.852 0 1
126.968 0 1
127.083 0 1
127.199 0 1
127.315 0 1
127.431 0 1
127.547 0 1
127.663 0 1
127.779 0 1
127.895 0 1
128.011 0 1
128.127 0 1
128.243 0 1
128.359 4589 67.7422
128.476 4178 64.6375
128.592 4216 64.9307
128.708 4678 68.3959
128.825 5104 71.4423
128.941 5504 74.1889
129.058 5953 77.1557
129.174 5910 76.8765
129.291 5833 76.3741
129.408 5911 76.883
129.524 5802 76.1709
129.641 5676 75.3392
129.758 5675 75.3326
129.875 5575 74.6659
129.992 5264 72.5534
130.108 5340 73.0753
130.225 5297 72.7805
130.342 5360 73.212
130.459 5366 73.253
130.576 5463 73.9121
130.693 5525 74.3303
130.81 5457 73.8715
130.928 5574 74.6592
131.045 5434 73.7157
131.162 5628 75.02
131.279 5613 74.92
131.396 5652 75.1798
131.513 5537 74.411
131.631 5474 73.9865
131.748 5136 71.6659
131.865 4799 69.2748
131.983 4254 65.2227
132.1 4134 64.2962
132.217 4253 65.215
132.335 4670 68.3374
132.452 5080 71.2741
132.57 5539 74.4245
132.687 5229 72.3118
132.804 5708 75.5513
132.922 5561 74.5721
133.039 5598 74.8198
133.157 5448 73.8106
133.274 5280 72.6636
133.392 5350 73.1437
133.509 5117 71.5332
133.627 5070 71.2039
133.744 5037 70.9718
133.862 4994 70.6682
133.979 5151 71.7705
134.097 5199 72.1041
134.214 5278 72.6498
134.332 5167 71.8818
134.449 5240 72.3878
134.567 5248 72.4431
134.684 5457 73.8715
134.802 5310 72.8697
134.919 5546 74.4715
135.037 5207 72.1595
135.154 5159 71.8262
135.272 4985 70.6045
135.389 4655 68.2276
135.507 4419 66.4756
135.624 4023 63.4271
135.742 4007 63.3009
135.859 4250 65.192
135.977 4745 68.884
136.094 5076 71.2461
136.211 5163 71.854
136.329 5378 73.3348
136.446 5386 73.3894
136.564 5395 73.4507
136.681 5366 73.253
136.798 5264 72.5534
136.915 5283 72.6842
137.033 5199 72.1041
137.15 5026 70.8943
137.267 4992 70.6541
137.384 4836 69.5414
137.502 4893 69.95
137.619 4931 70.2211
137.736 5055 71.0985
137.853 5008 70.7672
137.97 5006 70.7531
138.087 5163 71.854
138.204 5079 71.2671
138.321 5074 71.232
138.438 5180 71.9722
138.555 5095 71.3793
138.672 5129 71.617
138.788 5054 71.0915
138.905 4928 70.1997
139.022 4613 67.9191
139.139 4310 65.6506
139.255 3960 62.9285
139.372 3938 62.7535
139.488 4264 65.2993
139.605 4598 67.8086
139.721 4918 70.1285
139.838 5172 71.9166
139.954 5307 72.8492
140.071 5312 72.8835
140.187 5176 71.9444
140.303 5123 71.5751
140.419 5006 70.7531
140.535 4948 70.342
140.652 4841 69.5773
140.768 0 1
140.884 0 1
141 0 1
141.115 0 1
141.231 0 1
141.347 0 1
141.463 0 1
141.578 0 1
141.694 0 1
144.104 0 1
144.219 0 1
144.335 0 1
144.45 0 1
144.566 0 1
144.682 0 1
144.798 0 1
144.914 0 1
145.03 0 1
145.146 4422 66.4981
145.262 4420 66.4831
145.378 4484 66.9627
145.494 4379 66.174
145.61 4435 66.5958
145.726 4214 64.9153
145.842 4093 63.9766
145.959 4142 64.3584
146.075 4049 63.6318
146.192 4221 64.9692
146.308 4165 64.5368
146.425 4369 66.0984
146.541 4194 64.7611
146.658 4086 63.9218
146.774 4199 64.7997
146.891 4388 66.242
147.008 4315 65.6887
147.125 4307 65.6277
147.241 4251 65.1997
147.358 4161 64.5058
147.475 4030 63.4823
147.592 3966 62.9762
147.709 3594 59.95
147.826 3420 58.4808
147.943 3238 56.9034
148.06 3456 58.7878
148.177 3761 61.327
148.294 4050 63.6396
148.411 4088 63.9375
148.528 4263 65.2917
148.645 4058 63.7024
148.762 4110 64.1093
148.88 4181 64.6607
148.997 4034 63.5138
149.114 4185 64.6916
149.231 4040 63.561
149.349 4054 63.671
149.466 3844 62
149.583 3735 61.1146
149.701 3730 61.0737
149.818 3762 61.3351
149.935 3713 60.9344
150.053 3946 62.8172
150.17 3846 62.0161
150.287 3917 62.5859
150.405 3865 62.1691
150.522 3851 62.0564
150.64 4036 63.5295
150.757 3848 62.0322
150.875 4042 63.5767
150.992 3991 63.1744
151.11 3706 60.8769
151.227 3586 59.8832
151.344 3455 58.7792
151.462 3196 56.5332
151.579 3156 56.1783
151.697 3253 57.0351
151.814 3446 58.7026
151.932 3793 61.5873
152.049 3894 62.4019
152.167 4074 63.8279
152.284 3936 62.7375
152.402 4186 64.6993
152.519 4025 63.4429
152.636 3977 63.0635
152.754 4004 63.2772
152.871 3987 63.1427
152.989 3916 62.578
153.106 3858 62.1128
153.223 3753 61.2617
153.341 3689 60.7371
153.458 3698 60.8112
153.575 3678 60.6465
153.693 3869 62.2013
153.81 3721 61
153.927 3859 62.1208
154.044 3847 62.0242
154.162 3960 62.9285
154.279 4093 63.9766
154.396 4113 64.1327
154.513 4096 64
154.63 3976 63.0555
154.747 3918 62.5939
154.864 3875 62.2495
154.981 3705 60.8687
155.098 3334 57.7408
155.215 3464 58.8558
155.332 3480 58.9915
155.449 3657 60.4731
155.566 3865 62.1691
155.683 4134 64.2962
155.8 4004 63.2772
155.917 4121 64.195
156.033 4062 63.7338
156.15 0 1
156.267 0 1
156.383 0 1
156.5 0 1
156.617 0 1
156.733 0 1
156.85 0 1
156.966 0 1
157.082 0 1
157.199 0 1
157.315 0 1
157.431 0 1
157.547 0 1
157.664 0 1
157.78 0 1
157.896 0 1
158.012 0 1
158.128 0 1
158.244 0 1
158.359 0 1
158.475 0 1
158.591 0 1
158.706 0 1
