
6.15755 0 1
6.2731 0 1
6.3887 0 1
6.50437 0 1
6.62009 0 1
6.73587 0 1
6.8517 0 1
6.96759 0 1
7.08353 0 1
7.19952 0 1
7.31557 0 1
7.43166 0 1
7.54781 0 1
7.664 0 1
7.78024 0 1
7.89653 0 1
8.01286 0 1
8.12924 0 1
8.24567 0 1
8.36213 0 1
8.47864 0 1
8.59519 0 1
8.71178 0 1
8.82841 0 1
8.94508 0 1
9.06179 0 1
9.17853 0 1
9.29531 0 1
9.41212 0 1
9.52897 0 1
9.64584 0 1
9.76276 0 1
9.8797 0 1
9.99667 0 1
10.1137 0 1
10.2307 0 1
10.3478 0 1
10.4648 0 1
10.5819 0 1
10.6991 0 1
10.8162 0 1
10.9334 0 1
11.0506 0 1
11.1678 0 1
11.285 0 1
11.4023 0 1
11.5196 0 1
11.6369 0 1
11.7542 0 1
11.8715 0 1
11.9888 0 1
12.1062 0 1
12.2235 0 1
12.3409 0 1
12.4582 0 1
12.5756 0 1
12.693 0 1
12.8104 0 1
12.9278 0 1
13.0452 0 1
13.1626 0 1
13.28 0 1
13.3974 0 1
13.5149 0 1
13.6323 0 1
13.7497 0 1
13.8671 0 1
13.9845 0 1
14.1019 0 1
14.2193 0 1
14.3367 0 1
14.4541 0 1
14.5714 0 1
14.6888 0 1
14.8062 0 1
14.9235 0 1
15.0408 4628 68.0294
15.1581 5007 70.7602
15.2755 5278 72.6498
15.3927 5533 74.3841
15.51 5460 73.8918
15.6273 5304 72.8286
15.7445 4957 70.406
15.8617 4563 67.55
15.9789 4354 65.9848
16.0961 4621 67.9779
16.2132 5207 72.1595
16.3304 5862 76.5637
16.4475 6517 80.7279
16.5646 7079 84.1368
16.6816 7323 85.5745
16.7986 7638 87.3957
16.9156 7592 87.1321
17.0326 7526 86.7525
17.1496 7765 88.1192
17.2665 7582 87.0747
17.3833 7508 86.6487
17.5002 7527 86.7583
17.617 7469 86.4234
17.7338 7643 87.4243
17.8505 7452 86.325
17.9672 7650 87.4643
18.0839 7654 87.4871
18.2005 7697 87.7325
18.3171 7918 88.9831
18.4337 7767 88.1306
18.5502 7999 89.4371
18.6666 8202 90.5649
18.7831 7943 89.1235
18.8994 7899 88.8763
19.0158 7780 88.2043
19.1321 7342 85.6855
19.2483 6637 81.4678
19.3645 6143 78.3773
19.4806 5329 73
19.5967 4985 70.6045
19.7128 5158 71.8192
19.8288 5578 74.686
19.9447 5544 74.458
20.0606 0 1
20.1764 0 1
20.2922 0 1
20.4079 0 1
20.5236 0 1
20.6392 0 1
20.7548 0 1
20.8702 0 1
23.3078 0 1
23.4233 0 1
23.539 0 1
23.6547 0 1
23.7704 0 1
23.8862 0 1
24.0021 0 1
24.118 0 1
24.234 0 1
24.35 0 1
24.4661 6578 81.1049
24.5822 6209 78.7972
24.6984 5658 75.2197
24.8146 5086 71.3162
24.9309 5064 71.1618
25.0472 5670 75.2994
25.1636 6120 78.2304
25.28 7133 84.4571
25.3965 7836 88.5212
25.513 8281 91
25.6296 8882 94.2444
25.7462 8938 94.541
25.8628 8805 93.835
25.9795 8889 94.2815
26.0962 8997 94.8525
26.213 8950 94.6044
26.3298 9007 94.9052
26.4466 8877 94.2178
26.5635 8504 92.2171
26.6804 8862 94.1382
26.7973 8769 93.6429
26.9143 8762 93.6056
27.0313 8801 93.8136
27.1483 8815 93.8882
27.2653 8823 93.9308
27.3824 8804 93.8296
27.4996 8820 93.9149
27.6167 8972 94.7206
27.7339 8767 93.6323
27.8511 8472 92.0435
27.9683 8126 90.1443
28.0855 7184 84.7585
28.2028 6339 79.6178
28.3201 5218 72.2357
28.4374 4605 67.8602
28.5547 4606 67.8675
28.6721 5296 72.7736
28.7894 6121 78.2368
28.9068 7159 84.6109
29.0242 7935 89.0786
29.1416 8313 91.1757
29.259 8593 92.6984
29.3764 8757 93.5788
29.4939 8777 93.6856
29.6113 8857 94.1116
29.7288 8616 92.8224
29.8463 8578 92.6175
29.9638 8396 91.6297
30.0812 8253 90.846
30.1987 8492 92.152
30.3162 8539 92.4067
30.4337 8458 91.9674
30.5512 8465 92.0054
30.6687 8610 92.7901
30.7862 8595 92.7092
30.9037 8613 92.8062
31.0212 8722 93.3916
31.1387 8486 92.1195
31.2562 8682 93.1773
31.3737 8401 91.657
31.4912 8045 89.6939
31.6087 7431 86.2032
31.7262 6741 82.1036
31.8436 5847 76.4657
31.9611 4618 67.9559
32.0785 4353 65.9773
32.1959 4905 70.0357
32.3134 5843 76.4395
32.4308 6916 83.1625
32.5482 7559 86.9425
32.6655 8294 91.0714
32.7829 8330 91.2688
32.9002 8575 92.6013
33.0176 8220 90.6642
33.1349 8443 91.8858
33.2522 8540 92.4121
33.3694 8244 90.7965
33.4867 8449 91.9184
33.6039 8261 90.89
33.7211 8124 90.1332
33.8383 8099 89.9944
33.9554 8300 91.1043
34.0725 8308 91.1482
34.1896 8278 90.9835
34.3067 8135 90.1942
34.4237 8225 90.6918
34.5407 8120 90.111
34.6577 8282 91.0055
34.7746 8359 91.4276
34.8915 8063 89.7942
35.0084 8414 91.7279
35.1252 8015 89.5265
35.242 7630 87.3499
35.3587 7047 83.9464
35.4755 6312 79.4481
35.5921 5004 70.739
35.7088 4128 64.2495
35.8254 3949 62.8411
35.9419 4477 66.9104
36.0584 5208 72.1665
36.1749 6198 78.7274
36.2913 7139 84.4926
36.4077 7738 87.9659
36.524 7908 88.9269
36.6403 8065 89.8053
36.7565 8053 89.7385
36.8727 8087 89.9277
36.9889 7970 89.2749
37.1049 7788 88.2496
37.221 0 1
37.3369 0 1
37.4529 0 1
37.5687 0 1
37.6845 0 1
37.8003 0 1
37.916 0 1
38.0316 0 1
38.1472 0 1
40.5851 0 1
40.7008 0 1
40.8164 0 1
40.9322 0 1
41.048 0 1
41.1639 0 1
41.2798 0 1
41.3958 0 1
41.5118 0 1
41.6279 0 1
41.744 5719 75.6241
41.8602 6144 78.3837
41.9765 6607 81.2835
42.0928 6682 81.7435
42.2091 6490 80.5605
42.3255 6448 80.2994
42.4419 6387 79.9187
42.5584 6302 79.3851
42.675 6409 80.0562
42.7915 6301 79.3788
42.9081 6142 78.3709
43.0248 6213 78.8226
43.1415 6129 78.2879
43.2582 6153 78.4411
43.375 6070 77.9102
43.4918 6071 77.9166
43.6087 6164 78.5111
43.7256 6039 77.711
43.8425 5948 77.1233
43.9595 5955 77.1686
44.0765 5737 75.743
44.1935 5401 73.4915
44.3106 4543 67.4018
44.4277 3506 59.2115
44.5448 2783 52.7541
44.6619 2681 51.7784
44.7791 3126 55.9106
44.8963 3596 59.9667
45.0136 4328 65.7875
45.1308 5032 70.9366
45.2481 5233 72.3395
45.3654 4998 70.6965
45.4827 4847 69.6204
45.6001 4936 70.2567
45.7174 4893 69.95
45.8348 4736 68.8186
45.9522 4588 67.7348
46.0697 4459 66.7757
46.1871 4394 66.2873
46.3046 4454 66.7383
46.422 4258 65.2534
46.5395 4188 64.7148
46.657 4232 65.0538
46.7745 4268 65.3299
46.892 4242 65.1306
47.0096 4273 65.3682
47.1271 4230 65.0385
47.2446 4159 64.4903
47.3622 3974 63.0397
47.4797 4086 63.9218
47.5973 3954 62.8808
47.7149 3862 62.145
47.8324 3414 58.4294
47.95 2902 53.8702
48.0675 2126 46.1086
48.1851 1867 43.2088
48.3027 1996 44.6766
48.4202 2448 49.4773
48.5378 3009 54.8544
48.6554 3568 59.7327
48.7729 3610 60.0833
48.8904 3512 59.2621
49.008 3622 60.1831
49.1255 3540 59.4979
49.243 3511 59.2537
49.3605 3517 59.3043
49.478 3540 59.4979
49.5955 3486 59.0424
49.713 3412 58.4123
49.8304 3531 59.4222
49.9479 3559 59.6574
50.0653 3521 59.338
50.1827 3748 61.2209
50.3001 3720 60.9918
50.4175 3816 61.7738
50.5348 4018 63.3877
50.6521 4093 63.9766
50.7694 4160 64.4981
50.8867 4202 64.8228
51.004 4429 66.5507
51.1212 4240 65.1153
51.2384 4307 65.6277
51.3556 4045 63.6003
51.4727 3477 58.9661
51.5899 2534 50.3389
51.707 2255 47.4868
51.824 2529 50.2892
51.9411 3360 57.9655
52.0581 4196 64.7765
52.175 4871 69.7925
52.2919 5143 71.7147
52.4088 5258 72.5121
52.5257 5330 73.0068
52.6425 5451 73.8309
52.7593 5449 73.8173
52.876 5555 74.5319
52.9927 5575 74.6659
53.1094 5519 74.29
53.226 5366 73.253
53.3426 5322 72.952
53.4591 5461 73.8986
53.5756 5848 76.4722
53.692 5712 75.5778
53.8084 5803 76.1774
53.9248 6071 77.9166
54.0411 6090 78.0385
54.1573 6257 79.1012
54.2735 0 1
54.3896 0 1
54.5057 0 1
54.6217 0 1
54.7377 0 1
54.8537 0 1
54.9695 0 1
55.0853 0 1
55.2011 0 1
55.3168 0 1
55.4324 0 1
57.824 0 1
57.9396 0 1
58.0553 0 1
58.1711 0 1
58.2869 0 1
58.4028 0 1
58.5187 0 1
58.6347 0 1
58.7508 0 1
58.8669 0 1
58.983 6461 80.3803
59.0992 7056 84
59.2155 6920 83.1865
59.3318 6971 83.4925
59.4482 7177 84.7172
59.5646 6986 83.5823
59.681 7197 84.8351
59.7975 6910 83.1264
59.9141 6529 80.8022
60.0306 6055 77.8139
60.1473 5202 72.1249
60.2639 4347 65.9318
60.3807 3820 61.8061
60.4974 3864 62.1611
60.6142 4368 66.0908
60.731 5258 72.5121
60.8479 5828 76.3413
60.9648 6315 79.467
61.0818 6425 80.1561
61.1987 6333 79.5801
61.3158 6278 79.2338
61.4328 6182 78.6257
61.5499 6030 77.6531
61.667 5907 76.857
61.7841 5932 77.0195
61.9013 5678 75.3525
62.0185 5662 75.2463
62.1357 5819 76.2824
62.253 5875 76.6485
62.3702 5991 77.4016
62.4875 6017 77.5693
62.6049 5993 77.4145
62.7222 6306 79.4103
62.8396 6355 79.7183
62.9569 6196 78.7147
63.0743 6333 79.5801
63.1918 6157 78.4666
63.3092 5997 77.4403
63.4267 5770 75.9605
63.5441 5226 72.2911
63.6616 4522 67.2458
63.7791 3629 60.2412
63.8966 3131 55.9553
64.0142 3270 57.1839
64.1317 3794 61.5955
64.2492 4689 68.4763
64.3668 5099 71.4073
64.4843 5477 74.0068
64.6019 5604 74.8599
64.7195 5546 74.4715
64.837 5646 75.1399
64.9546 5619 74.96
65.0722 5491 74.1013
65.1898 5260 72.5259
65.3074 5241 72.3948
65.4249 4969 70.4911
65.5425 5162 71.8471
65.6601 5264 72.5534
65.7777 5299 72.7942
65.8952 5417 73.6003
66.0128 5412 73.5663
66.1304 5375 73.3144
66.2479 5658 75.2197
66.3655 5514 74.2563
66.483 5663 75.2529
66.6005 5791 76.0986
66.718 5704 75.5248
66.8355 5686 75.4056
66.953 5644 75.1266
67.0705 5598 74.8198
67.1879 5062 71.1477
67.3054 4178 64.6375
67.4228 3246 56.9737
67.5402 2834 53.2353
67.6576 2981 54.5985
67.7749 3519 59.3212
67.8923 4622 67.9853
68.0096 5112 71.4983
68.1269 5415 73.5867
68.2442 5269 72.5879
68.3614 5499 74.1552
68.4787 5639 75.0933
68.5958 5513 74.2496
68.713 5520 74.2967
68.8302 5233 72.3395
68.9473 5241 72.3948
69.0643 5196 72.0833
69.1814 5178 71.9583
69.2984 5186 72.0139
69.4154 5433 73.7089
69.5323 5537 74.411
69.6492 5685 75.3989
69.7661 5807 76.2037
69.8829 5965 77.2334
69.9997 6078 77.9615
70.1165 6216 78.8416
70.2332 6186 78.6511
70.3499 6305 79.404
70.4665 6230 78.9303
70.5831 6147 78.4028
70.6996 5901 76.818
70.8161 5707 75.5447
70.9326 5169 71.8958
71.049 4035 63.5216
71.1653 3182 56.4092
71.2817 2881 53.6749
71.3979 3255 57.0526
71.5141 3853 62.0725
71.6303 4688 68.469
71.7464 4632 68.0588
71.8624 0 1
71.9784 0 1
72.0944 0 1
72.2102 0 1
72.3261 0 1
72.4418 0 1
72.5575 0 1
72.6732 0 1
75.1054 0 1
75.2209 0 1
75.3365 0 1
75.4521 0 1
75.5678 0 1
75.6835 0 1
75.7993 0 1
75.9151 0 1
76.031 0 1
76.147 5406 73.5255
76.263 5290 72.7324
76.3791 4090 63.9531
76.4952 2950 54.3139
76.6113 2756 52.4976
76.7276 3360 57.9655
76.8438 4643 68.1396
76.9601 5528 74.3505
77.0765 5973 77.2852
77.1929 5960 77.201
77.3093 5979 77.324
77.4258 6146 78.3964
77.5423 6093 78.0577
77.6589 5895 76.7789
77.7755 5497 74.1418
77.8921 5481 74.0338
78.0088 5285 72.698
78.1256 5236 72.3602
78.2423 5221 72.2565
78.3591 5656 75.2064
78.4759 5553 74.5185
78.5928 5681 75.3724
78.7097 5912 76.8895
78.8266 5767 75.9408
78.9436 6379 79.8686
79.0606 6136 78.3326
79.1776 6340 79.6241
79.2946 6133 78.3135
79.4117 6219 78.8606
79.5288 6094 78.0641
79.6459 6163 78.5048
79.7631 5796 76.1315
79.8802 5457 73.8715
79.9974 4305 65.6125
80.1147 3083 55.5248
80.2319 2772 52.6498
80.3491 3356 57.931
80.4664 4510 67.1565
80.5837 5356 73.1847
80.701 5722 75.6439
80.8183 5519 74.29
80.9357 5806 76.1971
81.053 5777 76.0066
81.1704 5846 76.4591
81.2877 5493 74.1148
81.4051 5359 73.2052
81.5225 5115 71.5192
81.6399 5011 70.7884
81.7573 4990 70.6399
81.8747 4833 69.5198
81.9922 4982 70.5833
82.1096 5296 72.7736
82.227 5391 73.4234
82.3444 5435 73.7225
82.4619 5887 76.7268
82.5793 5698 75.4851
82.6967 5629 75.0267
82.8142 5680 75.3658
82.9316 5694 75.4586
83.049 5626 75.0067
83.1664 5761 75.9013
83.2838 5644 75.1266
83.4012 5321 72.9452
83.5186 4924 70.1712
83.636 3901 62.458
83.7534 2786 52.7826
83.8708 2552 50.5173
83.9881 2872 53.591
84.1055 3597 59.975
84.2228 4710 68.6294
84.3401 5260 72.5259
84.4575 5413 73.5731
84.5747 5428 73.675
84.692 5381 73.3553
84.8093 5271 72.6017
84.9265 5299 72.7942
85.0437 4927 70.1926
85.1609 4828 69.4838
85.2781 4817 69.4046
85.3952 4889 69.9214
85.5123 5142 71.7077
85.6294 5170 71.9027
85.7465 5392 73.4302
85.8636 5519 74.29
85.9806 5792 76.1052
86.0976 6010 77.5242
86.2145 6228 78.9177
86.3315 6448 80.2994
86.4484 6213 78.8226
86.5652 6376 79.8499
86.682 6448 80.2994
86.7988 6454 80.3368
86.9156 6298 79.3599
87.0323 6046 77.756
87.149 5113 71.5052
87.2657 4123 64.2106
87.3823 3334 57.7408
87.4988 3603 60.025
87.6154 4538 67.3647
87.7318 5750 75.8288
87.8483 6380 79.8749
87.9647 6482 80.5109
88.081 6726 82.0122
88.1973 6785 82.3711
88.3136 6725 82.0061
88.4298 6621 81.3695
88.546 6343 79.643
88.6621 6251 79.0633
88.7781 5972 77.2787
88.8942 0 1
89.0101 0 1
89.126 0 1
89.2419 0 1
89.3577 0 1
89.4734 0 1
89.5891 0 1
89.7047 0 1
89.8203 0 1
89.9358 0 1
92.3269 0 1
92.4424 0 1
92.558 0 1
92.6736 0 1
92.7893 0 1
92.905 0 1
93.0208 0 1
93.1366 0 1
93.2525 0 1
93.3685 0 1
93.4845 0 1
93.6005 6793 82.4197
93.7167 6752 82.1706
93.8328 6714 81.939
93.949 6680 81.7313
94.0653 6530 80.8084
94.1816 6190 78.6766
94.2979 6206 78.7782
94.4143 6181 78.6193
94.5307 6289 79.3032
94.6472 6301 79.3788
94.7637 6422 80.1374
94.8803 6995 83.6361
94.9969 6855 82.7949
95.1135 7172 84.6877
95.2302 7143 84.5163
95.3469 7367 85.8312
95.4637 7429 86.1916
95.5805 7304 85.4634
95.6973 7418 86.1278
95.8142 7325 85.5862
95.9311 7313 85.5161
96.048 7136 84.4748
96.1649 6787 82.3833
96.2819 5857 76.531
96.3989 4815 69.3902
96.516 4195 64.7688
96.633 4155 64.4593
96.7501 4806 69.3253
96.8673 5900 76.8115
96.9844 6740 82.0975
97.1016 7055 83.994
97.2188 7218 84.9588
97.336 7257 85.188
97.4532 7347 85.7146
97.5704 6896 83.0422
97.6877 6762 82.2314
97.805 6543 80.8888
97.9223 6475 80.4674
98.0396 6122 78.2432
98.1569 6204 78.7655
98.2743 6410 80.0625
98.3916 6834 82.668
98.509 7081 84.1487
98.6264 7128 84.4275
98.7438 7262 85.2174
98.8612 7270 85.2643
98.9786 7507 86.6429
99.096 7506 86.6372
99.2134 7660 87.5214
99.3308 7529 86.7698
99.4482 7827 88.4703
99.5656 7422 86.151
99.6831 7075 84.113
99.8005 6705 81.8841
99.9179 5680 75.3658
100.035 4831 69.5054
100.153 4740 68.8477
100.27 5283 72.6842
100.388 6184 78.6384
100.505 7020 83.7854
100.622 7284 85.3464
100.74 7240 85.0882
100.857 7450 86.3134
100.975 7503 86.6199
101.092 7366 85.8254
101.209 7146 84.534
101.327 6956 83.4026
101.444 6564 81.0185
101.561 6532 80.8208
101.679 6590 81.1788
101.796 6531 80.8146
101.913 6942 83.3187
102.03 7229 85.0235
102.148 7412 86.093
102.265 7365 85.8196
102.382 8094 89.9667
102.499 7891 88.8313
102.616 8006 89.4763
102.733 7965 89.2468
102.851 7985 89.3588
102.968 7773 88.1646
103.085 7906 88.9157
103.202 7483 86.5043
103.319 7064 84.0476
103.436 6244 79.019
103.552 5448 73.8106
103.669 4997 70.6895
103.786 5669 75.2928
103.903 6715 81.9451
104.02 7262 85.2174
104.137 7799 88.3119
104.253 8056 89.7552
104.37 8111 90.0611
104.487 8063 89.7942
104.603 8050 89.7218
104.72 7747 88.017
104.836 7505 86.6314
104.953 7280 85.3229
105.069 7164 84.6404
105.186 7171 84.6818
105.302 7430 86.1974
105.418 7721 87.8692
105.535 8073 89.8499
105.651 8309 91.1537
105.767 8358 91.4221
105.883 8532 92.3688
105.999 8762 93.6056
106.115 0 1
106.231 0 1
106.347 0 1
106.463 0 1
106.579 0 1
106.694 0 1
106.81 0 1
106.926 0 1
107.041 0 1
107.157 0 1
109.576 0 1
109.692 0 1
109.807 0 1
109.923 0 1
110.039 0 1
110.155 0 1
110.27 0 1
110.386 0 1
110.502 0 1
110.618 8015 89.5265
110.735 8302 91.1153
110.851 8465 92.0054
110.967 8733 93.4505
111.083 8650 93.0054
111.199 8518 92.293
111.316 8586 92.6607
111.432 8803 93.8243
111.549 8455 91.9511
111.665 8104 90.0222
111.782 7670 87.5785
111.898 6847 82.7466
112.015 6036 77.6917
112.132 5709 75.5579
112.248 6042 77.7303
112.365 6856 82.801
112.482 7195 84.8233
112.599 8191 90.5041
112.716 8206 90.587
112.832 8118 90.0999
112.949 8131 90.1721
113.066 8164 90.3549
113.183 7937 89.0898
113.3 7589 87.1149
113.417 7446 86.2902
113.534 6967 83.4686
113.652 7241 85.0941
113.769 7032 83.857
113.886 7404 86.0465
114.003 7525 86.7468
114.12 7961 89.2244
114.238 8202 90.5649
114.355 8183 90.4599
114.472 7997 89.4259
114.589 8194 90.5207
114.707 8485 92.1141
114.824 8534 92.3797
114.942 8335 91.2962
115.059 8240 90.7744
115.176 8107 90.0389
115.294 7964 89.2412
115.411 7254 85.1704
115.529 6568 81.0432
115.646 6019 77.5822
115.764 6166 78.5239
115.881 6789 82.3954
115.999 7426 86.1742
116.116 7957 89.202
116.234 8084 89.9111
116.351 8555 92.4932
116.469 8222 90.6752
116.586 8199 90.5483
116.704 8178 90.4323
116.821 8011 89.5042
116.939 7519 86.7122
117.056 7385 85.936
117.174 7358 85.7788
117.291 7240 85.0882
117.409 7045 83.9345
117.526 7503 86.6199
117.644 7782 88.2156
117.761 8044 89.6883
117.879 8255 90.857
117.996 8179 90.4378
118.114 8222 90.6752
118.231 8605 92.7631
118.349 8512 92.2605
118.466 8416 91.7388
118.584 8513 92.2659
118.701 8139 90.2164
118.819 7833 88.5042
118.936 7710 87.8066
119.053 7069 84.0773
119.171 6337 79.6053
119.288 6195 78.7083
119.405 6557 80.9753
119.523 7061 84.0298
119.64 7592 87.1321
119.757 7775 88.176
119.875 8016 89.5321
119.992 8166 90.3659
120.109 7936 89.0842
120.226 7685 87.6641
120.343 7718 87.8521
120.46 7936 89.0842
120.578 7608 87.2238
120.695 7367 85.8312
120.812 6903 83.0843
120.929 7105 84.2912
121.046 7145 84.5281
121.163 7240 85.0882
121.279 7684 87.6584
121.396 7864 88.6792
121.513 8088 89.9333
121.63 8166 90.3659
121.747 8131 90.1721
121.863 8329 91.2634
121.98 8233 90.7359
122.097 8346 91.3564
122.213 8284 91.0165
122.33 7911 88.9438
122.446 8209 90.6035
122.563 7753 88.0511
122.679 7252 85.1587
122.795 6573 81.074
122.912 6446 80.287
123.028 6375 79.8436
123.144 6708 81.9024
123.26 6848 82.7526
123.377 0 1
123.493 0 1
123.609 0 1
123.725 0 1
123.84 0 1
123.956 0 1
124.072 0 1
124.188 0 1
124.303 0 1
124.419 0 1
126.852 0 1
126.968 0 1
127.083 0 1
127.199 0 1
127.315 0 1
127.431 0 1
127.547 0 1
127.663 0 1
127.779 0 1
127.895 0 1
128.011 0 1
128.127 0 1
128.243 0 1
128.359 7587 87.1034
128.476 7983 89.3476
128.592 8459 91.9728
128.708 8727 93.4184
128.825 8838 94.0106
128.941 8953 94.6203
129.058 8747 93.5254
129.174 9152 95.6661
129.291 8728 93.4238
129.408 8590 92.6823
129.524 8093 89.9611
129.641 7921 89
129.758 7780 88.2043
129.875 7730 87.9204
129.992 7698 87.7382
130.108 7961 89.2244
130.225 8493 92.1575
130.342 8658 93.0484
130.459 8609 92.7847
130.576 8960 94.6573
130.693 8705 93.3006
130.81 8981 94.7681
130.928 8708 93.3167
131.045 8789 93.7497
131.162 8554 92.4878
131.279 8700 93.2738
131.396 8476 92.0652
131.513 7866 88.6905
131.631 7814 88.3968
131.748 7568 86.9943
131.865 7931 89.0562
131.983 8059 89.7719
132.1 8448 91.913
132.217 8826 93.9468
132.335 8772 93.659
132.452 8960 94.6573
132.57 8685 93.1933
132.687 8704 93.2952
132.804 8950 94.6044
132.922 8567 92.5581
133.039 8564 92.5419
133.157 8167 90.3715
133.274 7771 88.1533
133.392 7712 87.818
133.509 7829 88.4816
133.627 7730 87.9204
133.744 8045 89.6939
133.862 8415 91.7333
133.979 8779 93.6963
134.097 8885 94.2603
134.214 8635 92.9247
134.332 8926 94.4775
134.449 8704 93.2952
134.567 8568 92.5635
134.684 8401 91.657
134.802 8555 92.4932
134.919 8394 91.6188
135.037 8132 90.1776
135.154 7687 87.6755
135.272 7510 86.6603
135.389 7822 88.4421
135.507 8126 90.1443
135.624 8279 90.989
135.742 8587 92.6661
135.859 8698 93.2631
135.977 8848 94.0638
136.094 8865 94.1541
136.211 8649 93
136.329 8690 93.2202
136.446 8694 93.2416
136.564 8490 92.1412
136.681 8251 90.835
136.798 8044 89.6883
136.915 7865 88.6848
137.033 7647 87.4471
137.15 7502 86.6141
137.267 7790 88.261
137.384 8003 89.4595
137.502 8518 92.293
137.619 8523 92.3201
137.736 8647 92.9892
137.853 8293 91.0659
137.97 8516 92.2822
138.087 8096 89.9778
138.204 8182 90.4544
138.321 8355 91.4057
138.438 8310 91.1592
138.555 8223 90.6808
138.672 8096 89.9778
138.788 7983 89.3476
138.905 7896 88.8594
139.022 7985 89.3588
139.139 8258 90.8735
139.255 8608 92.7793
139.372 8757 93.5788
139.488 8669 93.1075
139.605 8838 94.0106
139.721 8775 93.675
139.838 8720 93.3809
139.954 8689 93.2148
140.071 8682 93.1773
140.187 8719 93.3756
140.303 8223 90.6808
140.419 8258 90.8735
140.535 7670 87.5785
140.652 7703 87.7667
140.768 0 1
140.884 0 1
141 0 1
141.115 0 1
141.231 0 1
141.347 0 1
141.463 0 1
141.578 0 1
141.694 0 1
144.104 0 1
144.219 0 1
144.335 0 1
144.45 0 1
144.566 0 1
144.682 0 1
144.798 0 1
144.914 0 1
145.03 0 1
145.146 5955 77.1686
145.262 6416 80.0999
145.378 6505 80.6536
145.494 6114 78.1921
145.61 6197 78.721
145.726 6096 78.0769
145.842 5895 76.7789
145.959 5911 76.883
146.075 5992 77.408
146.192 6134 78.3199
146.308 6335 79.5927
146.425 6333 79.5801
146.541 6569 81.0494
146.658 6420 80.1249
146.774 6444 80.2745
146.891 6283 79.2654
147.008 6324 79.5236
147.125 6233 78.9494
147.241 6279 79.2401
147.358 6404 80.025
147.475 6377 79.8561
147.592 6440 80.2496
147.709 6316 79.4733
147.826 6471 80.4425
147.943 6662 81.6211
148.06 6725 82.0061
148.177 6734 82.061
148.294 6846 82.7406
148.411 6825 82.6136
148.528 6976 83.5225
148.645 6929 83.2406
148.762 6915 83.1565
148.88 6943 83.3247
148.997 6725 82.0061
149.114 7123 84.3979
149.231 6783 82.359
149.349 6670 81.6701
149.466 6553 80.9506
149.583 6430 80.1873
149.701 6285 79.278
149.818 6233 78.9494
149.935 6255 79.0886
150.053 6470 80.4363
150.17 6555 80.963
150.287 6660 81.6088
150.405 6684 81.7557
150.522 6578 81.1049
150.64 6496 80.5978
150.757 6539 80.8641
150.875 6495 80.5916
150.992 6550 80.9321
151.11 6624 81.388
151.227 6923 83.2046
151.344 6709 81.9085
151.462 6747 82.1401
151.579 7104 84.2852
151.697 7197 84.8351
151.814 7041 83.9107
151.932 7125 84.4097
152.049 7244 85.1117
152.167 7317 85.5395
152.284 7208 84.8999
152.402 7351 85.738
152.519 7334 85.6388
152.636 7434 86.2206
152.754 7495 86.5737
152.871 7425 86.1684
152.989 7205 84.8823
153.106 6912 83.1384
153.223 6888 82.994
153.341 6735 82.067
153.458 6612 81.3142
153.575 6744 82.1219
153.693 6898 83.0542
153.81 6918 83.1745
153.927 7060 84.0238
154.044 7048 83.9524
154.162 6893 83.0241
154.279 6849 82.7587
154.396 6861 82.8312
154.513 6993 83.6242
154.63 7151 84.5636
154.747 7565 86.977
154.864 7443 86.2728
154.981 7883 88.7863
155.098 7816 88.4081
155.215 7724 87.8863
155.332 7920 88.9944
155.449 7912 88.9494
155.566 7905 88.9101
155.683 7948 89.1516
155.8 7859 88.651
155.917 8063 89.7942
156.033 8048 89.7106
156.15 0 1
156.267 0 1
156.383 0 1
156.5 0 1
156.617 0 1
156.733 0 1
156.85 0 1
156.966 0 1
157.082 0 1
157.199 0 1
157.315 0 1
157.431 0 1
157.547 0 1
157.664 0 1
157.78 0 1
157.896 0 1
158.012 0 1
158.128 0 1
158.244 0 1
158.359 0 1
158.475 0 1
158.591 0 1
158.706 0 1
