
6.15755 0 1
6.2731 0 1
6.3887 0 1
6.50437 0 1
6.62009 0 1
6.73587 0 1
6.8517 0 1
6.96759 0 1
7.08353 0 1
7.19952 0 1
7.31557 0 1
7.43166 0 1
7.54781 0 1
7.664 0 1
7.78024 0 1
7.89653 0 1
8.01286 0 1
8.12924 0 1
8.24567 0 1
8.36213 0 1
8.47864 0 1
8.59519 0 1
8.71178 0 1
8.82841 0 1
8.94508 0 1
9.06179 0 1
9.17853 0 1
9.29531 0 1
9.41212 0 1
9.52897 0 1
9.64584 0 1
9.76276 0 1
9.8797 0 1
9.99667 0 1
10.1137 0 1
10.2307 0 1
10.3478 0 1
10.4648 0 1
10.5819 0 1
10.6991 0 1
10.8162 0 1
10.9334 0 1
11.0506 0 1
11.1678 0 1
11.285 0 1
11.4023 0 1
11.5196 0 1
11.6369 0 1
11.7542 0 1
11.8715 0 1
11.9888 0 1
12.1062 0 1
12.2235 0 1
12.3409 0 1
12.4582 0 1
12.5756 0 1
12.693 0 1
12.8104 0 1
12.9278 0 1
13.0452 0 1
13.1626 0 1
13.28 0 1
13.3974 0 1
13.5149 0 1
13.6323 0 1
13.7497 0 1
13.8671 0 1
13.9845 0 1
14.1019 0 1
14.2193 0 1
14.3367 0 1
14.4541 0 1
14.5714 0 1
14.6888 0 1
14.8062 0 1
14.9235 0 1
15.0408 22130 148.762
15.1581 23642 153.76
15.2755 24521 156.592
15.3927 24911 157.832
15.51 24986 158.07
15.6273 25066 158.322
15.7445 24225 155.644
15.8617 23930 154.693
15.9789 23188 152.276
16.0961 22656 150.519
16.2132 21705 147.326
16.3304 21635 147.088
16.4475 21691 147.279
16.5646 21600 146.969
16.6816 21806 147.669
16.7986 21653 147.15
16.9156 21582 146.908
17.0326 21008 144.941
17.1496 20622 143.604
17.2665 20520 143.248
17.3833 20488 143.136
17.5002 20633 143.642
17.617 20502 143.185
17.7338 21174 145.513
17.8505 21070 145.155
17.9672 21466 146.513
18.0839 21839 147.78
18.2005 22431 149.77
18.3171 23322 152.715
18.4337 23028 151.75
18.5502 23640 153.753
18.6666 23456 153.154
18.7831 23863 154.477
18.8994 23294 152.624
19.0158 22546 150.153
19.1321 21440 146.424
19.2483 20412 142.871
19.3645 19310 138.96
19.4806 17459 132.133
19.5967 16322 127.758
19.7128 14871 121.947
19.8288 13797 117.461
19.9447 12596 112.232
20.0606 0 1
20.1764 0 1
20.2922 0 1
20.4079 0 1
20.5236 0 1
20.6392 0 1
20.7548 0 1
20.8702 0 1
23.3078 0 1
23.4233 0 1
23.539 0 1
23.6547 0 1
23.7704 0 1
23.8862 0 1
24.0021 0 1
24.118 0 1
24.234 0 1
24.35 0 1
24.4661 9506 97.4987
24.5822 10585 102.883
24.6984 11411 106.822
24.8146 11972 109.417
24.9309 12913 113.635
25.0472 13963 118.165
25.1636 15259 123.527
25.28 16604 128.857
25.3965 17966 134.037
25.513 19327 139.022
25.6296 20588 143.485
25.7462 21674 147.221
25.8628 22296 149.318
25.9795 22945 151.476
26.0962 23013 151.7
26.213 22807 151.02
26.3298 22382 149.606
26.4466 21816 147.702
26.5635 21259 145.805
26.6804 21052 145.093
26.7973 21339 146.079
26.9143 21504 146.642
27.0313 21579 146.898
27.1483 22118 148.721
27.2653 22513 150.043
27.3824 22439 149.797
27.4996 22246 149.151
27.6167 22276 149.251
27.7339 21562 146.84
27.8511 21063 145.131
27.9683 20435 142.951
28.0855 19808 140.741
28.2028 18917 137.539
28.3201 17595 132.646
28.4374 16898 129.992
28.5547 16784 129.553
28.6721 17555 132.495
28.7894 18264 135.144
28.9068 19469 139.531
29.0242 20222 142.204
29.1416 20401 142.832
29.259 20596 143.513
29.3764 20898 144.561
29.4939 20790 144.187
29.6113 20869 144.461
29.7288 20983 144.855
29.8463 20765 144.101
29.9638 20462 143.045
30.0812 19937 141.198
30.1987 20140 141.915
30.3162 20239 142.264
30.4337 20950 144.741
30.5512 21138 145.389
30.6687 21498 146.622
30.7862 21735 147.428
30.9037 21840 147.784
31.0212 21901 147.99
31.1387 21751 147.482
31.2562 21196 145.588
31.3737 20676 143.792
31.4912 19867 140.95
31.6087 19780 140.641
31.7262 18450 135.831
31.8436 17654 132.868
31.9611 16914 130.054
32.0785 16884 129.938
32.1959 16979 130.303
32.3134 18183 134.844
32.4308 18977 137.757
32.5482 19683 140.296
32.6655 20084 141.718
32.7829 19812 140.755
32.9002 20033 141.538
33.0176 20198 142.12
33.1349 20322 142.555
33.2522 20533 143.293
33.3694 20594 143.506
33.4867 20224 142.211
33.6039 20048 141.591
33.7211 19537 139.775
33.8383 19479 139.567
33.9554 20211 142.165
34.0725 20470 143.073
34.1896 20658 143.729
34.3067 21457 146.482
34.4237 21455 146.475
34.5407 21418 146.349
34.6577 21611 147.007
34.7746 21319 146.01
34.8915 20746 144.035
35.0084 20229 142.229
35.1252 19986 141.372
35.242 19480 139.571
35.3587 18781 137.044
35.4755 17810 133.454
35.5921 16497 128.441
35.7088 15844 125.873
35.8254 15838 125.849
35.9419 16641 129
36.0584 17138 130.912
36.1749 17916 133.851
36.2913 18499 136.011
36.4077 18298 135.27
36.524 17804 133.432
36.6403 17702 133.049
36.7565 17350 131.719
36.8727 17083 130.702
36.9889 16438 128.211
37.1049 15396 124.081
37.221 0 1
37.3369 0 1
37.4529 0 1
37.5687 0 1
37.6845 0 1
37.8003 0 1
37.916 0 1
38.0316 0 1
38.1472 0 1
40.5851 0 1
40.7008 0 1
40.8164 0 1
40.9322 0 1
41.048 0 1
41.1639 0 1
41.2798 0 1
41.3958 0 1
41.5118 0 1
41.6279 0 1
41.744 9131 95.5563
41.8602 10296 101.469
41.9765 11323 106.41
42.0928 12139 110.177
42.2091 12714 112.756
42.3255 13560 116.447
42.4419 13904 117.915
42.5584 14163 119.008
42.675 15059 122.715
42.7915 16664 129.089
42.9081 17804 133.432
43.0248 18381 135.577
43.1415 18835 137.241
43.2582 19182 138.499
43.375 19258 138.773
43.4918 19741 140.503
43.6087 19526 139.735
43.7256 19313 138.971
43.8425 19095 138.185
43.9595 18706 136.77
44.0765 18606 136.404
44.1935 18043 134.324
44.3106 17388 131.864
44.4277 16183 127.212
44.5448 15074 122.776
44.6619 15117 122.951
44.7791 15516 124.563
44.8963 16744 129.399
45.0136 17802 133.424
45.1308 18172 134.804
45.2481 18333 135.399
45.3654 18710 136.785
45.4827 18906 137.499
45.6001 18846 137.281
45.7174 18894 137.455
45.8348 19107 138.228
45.9522 18661 136.605
46.0697 18741 136.898
46.1871 18354 135.477
46.3046 18551 136.202
46.422 19850 140.89
46.5395 20257 142.327
46.657 20792 144.194
46.7745 20859 144.426
46.892 21152 145.437
47.0096 21551 146.803
47.1271 21768 147.54
47.2446 21715 147.36
47.3622 21638 147.099
47.4797 21075 145.172
47.5973 20568 143.415
47.7149 20249 142.299
47.8324 19254 138.759
47.95 18152 134.729
48.0675 16663 129.085
48.1851 16483 128.386
48.3027 17128 130.874
48.4202 18073 134.436
48.5378 19450 139.463
48.6554 19988 141.379
48.7729 20545 143.335
48.8904 20385 142.776
49.008 20674 143.785
49.1255 20599 143.524
49.243 20790 144.187
49.3605 20486 143.129
49.478 20234 142.246
49.5955 20372 142.731
49.713 20293 142.454
49.8304 20526 143.269
49.9479 21219 145.667
50.0653 22192 148.97
50.1827 22840 151.129
50.3001 22926 151.413
50.4175 23586 153.577
50.5348 23743 154.088
50.6521 23424 153.049
50.7694 23849 154.431
50.8867 23605 153.639
51.004 23581 153.561
51.1212 22776 150.917
51.2384 22043 148.469
51.3556 20666 143.757
51.4727 19177 138.481
51.5899 18112 134.581
51.707 18195 134.889
51.824 19381 139.216
51.9411 20396 142.815
52.0581 22419 149.73
52.175 22794 150.977
52.2919 23104 152
52.4088 22597 150.323
52.5257 22925 151.41
52.6425 23251 152.483
52.7593 23093 151.964
52.876 23308 152.67
52.9927 23352 152.814
53.1094 22612 150.373
53.226 22407 149.69
53.3426 22280 149.265
53.4591 22517 150.057
53.5756 22973 151.568
53.692 23035 151.773
53.8084 22715 150.715
53.9248 22324 149.412
54.0411 21369 146.181
54.1573 20429 142.93
54.2735 0 1
54.3896 0 1
54.5057 0 1
54.6217 0 1
54.7377 0 1
54.8537 0 1
54.9695 0 1
55.0853 0 1
55.2011 0 1
55.3168 0 1
55.4324 0 1
57.824 0 1
57.9396 0 1
58.0553 0 1
58.1711 0 1
58.2869 0 1
58.4028 0 1
58.5187 0 1
58.6347 0 1
58.7508 0 1
58.8669 0 1
58.983 17815 133.473
59.0992 21020 144.983
59.2155 23716 154
59.3318 26253 162.028
59.4482 28406 168.541
59.5646 30657 175.091
59.681 32080 179.109
59.7975 32673 180.757
59.9141 33142 182.049
60.0306 32827 181.182
60.1473 31736 178.146
60.2639 30251 173.928
60.3807 29284 171.126
60.4974 29751 172.485
60.6142 31366 177.104
60.731 34292 185.181
60.8479 36337 190.623
60.9648 38025 195
61.0818 38588 196.438
61.1987 38653 196.604
61.3158 39393 198.477
61.4328 39305 198.255
61.5499 39606 199.013
61.667 39770 199.424
61.7841 39432 198.575
61.9013 38818 197.023
62.0185 38695 196.71
62.1357 39163 197.896
62.253 40601 201.497
62.3702 41507 203.733
62.4875 41859 204.595
62.6049 43070 207.533
62.7222 43478 208.514
62.8396 45091 212.346
62.9569 45767 213.932
63.0743 44699 211.421
63.1918 44735 211.507
63.3092 43200 207.846
63.4267 41420 203.519
63.5441 39262 198.146
63.6616 36285 190.486
63.7791 33068 181.846
63.8966 31461 177.372
64.0142 31785 178.283
64.1317 33676 183.51
64.2492 37346 193.251
64.3668 39564 198.907
64.4843 41174 202.914
64.6019 42187 205.395
64.7195 42056 205.076
64.837 42924 207.181
64.9546 42845 206.99
65.0722 42772 206.814
65.1898 42646 206.509
65.3074 42624 206.456
65.4249 41691 204.184
65.5425 41557 203.855
65.6601 42015 204.976
65.7777 42462 206.063
65.8952 43345 208.195
66.0128 44515 210.986
66.1304 45163 212.516
66.2479 45835 214.091
66.3655 47234 217.334
66.483 47132 217.099
66.6005 47440 217.807
66.718 47066 216.947
66.8355 46171 214.874
66.953 44532 211.026
67.0705 42442 206.015
67.1879 39518 198.791
67.3054 35409 188.173
67.4228 32096 179.154
67.5402 31673 177.969
67.6576 32519 180.33
67.7749 35441 188.258
67.8923 38684 196.682
68.0096 41553 203.846
68.1269 43047 207.478
68.2442 43563 208.718
68.3614 44030 209.833
68.4787 43880 209.476
68.5958 44038 209.852
68.713 44226 210.3
68.8302 44055 209.893
68.9473 43057 207.502
69.0643 42555 206.289
69.1814 41638 204.054
69.2984 41788 204.421
69.4154 42350 205.791
69.5323 42850 207.002
69.6492 43767 209.206
69.7661 44420 210.761
69.8829 44443 210.815
69.9997 45411 213.099
70.1165 45391 213.052
70.2332 44801 211.662
70.3499 43585 208.77
70.4665 41692 204.186
70.5831 38874 197.165
70.6996 36254 190.405
70.8161 32844 181.229
70.9326 27964 167.224
71.049 22661 150.536
71.1653 18512 136.059
71.2817 17136 130.905
71.3979 16791 129.58
71.5141 16326 127.773
71.6303 16410 128.102
71.7464 14960 122.311
71.8624 0 1
71.9784 0 1
72.0944 0 1
72.2102 0 1
72.3261 0 1
72.4418 0 1
72.5575 0 1
72.6732 0 1
75.1054 0 1
75.2209 0 1
75.3365 0 1
75.4521 0 1
75.5678 0 1
75.6835 0 1
75.7993 0 1
75.9151 0 1
76.031 0 1
76.147 22632 150.439
76.263 23193 152.292
76.3791 22778 150.924
76.4952 22649 150.496
76.6113 24349 156.042
76.7276 27225 165
76.8438 31238 176.743
76.9601 35050 187.216
77.0765 36901 192.096
77.1929 38166 195.361
77.3093 39019 197.532
77.4258 39616 199.038
77.5423 39480 198.696
77.6589 39290 198.217
77.7755 39281 198.194
77.8921 38965 197.396
78.0088 38106 195.208
78.1256 37692 194.144
78.2423 37475 193.585
78.3591 37207 192.891
78.4759 37719 194.214
78.5928 38479 196.161
78.7097 39678 199.193
78.8266 39778 199.444
78.9436 42587 206.366
79.0606 42000 204.939
79.1776 42341 205.769
79.2946 43097 207.598
79.4117 43321 208.137
79.5288 41513 203.747
79.6459 40366 200.913
79.7631 37980 194.885
79.8802 34286 185.165
79.9974 30695 175.2
80.1147 27952 167.189
80.2319 27591 166.105
80.3491 29996 173.194
80.4664 33680 183.521
80.5837 36883 192.049
80.701 39198 197.985
80.8183 39271 198.169
80.9357 40673 201.675
81.053 40803 201.998
81.1704 41097 202.724
81.2877 41350 203.347
81.4051 40737 201.834
81.5225 41160 202.879
81.6399 39722 199.304
81.7573 39869 199.672
81.8747 38434 196.046
81.9922 38564 196.377
82.1096 39415 198.532
82.227 40121 200.302
82.3444 41015 202.522
82.4619 42592 206.378
82.5793 43370 208.255
82.6967 43990 209.738
82.8142 44932 211.972
82.9316 45037 212.219
83.049 44044 209.867
83.1664 43276 208.029
83.2838 41591 203.939
83.4012 39098 197.732
83.5186 35885 189.433
83.636 31987 178.849
83.7534 27976 167.26
83.8708 27305 165.242
83.9881 29810 172.656
84.1055 32844 181.229
84.2228 36696 191.562
84.3401 39529 198.819
84.4575 41387 203.438
84.5747 42458 206.053
84.692 42686 206.606
84.8093 42885 207.087
84.9265 42295 205.657
85.0437 41923 204.751
85.1609 41410 203.494
85.2781 40604 201.504
85.3952 39483 198.703
85.5123 39452 198.625
85.6294 39231 198.068
85.7465 40182 200.454
85.8636 41107 202.749
85.9806 42485 206.119
86.0976 43737 209.134
86.2145 44235 210.321
86.3315 45913 214.273
86.4484 43991 209.74
86.5652 44843 211.762
86.682 44831 211.733
86.7988 43771 209.215
86.9156 41529 203.787
87.0323 38988 197.454
87.149 34907 186.834
87.2657 30851 175.645
87.3823 27981 167.275
87.4988 28838 169.818
87.6154 30544 174.768
87.7318 33811 183.878
87.8483 36304 190.536
87.9647 37086 192.577
88.081 36652 191.447
88.1973 36247 190.386
88.3136 34681 186.228
88.4298 32143 179.285
88.546 28076 167.559
88.6621 23808 154.298
88.7781 20356 142.674
88.8942 0 1
89.0101 0 1
89.126 0 1
89.2419 0 1
89.3577 0 1
89.4734 0 1
89.5891 0 1
89.7047 0 1
89.8203 0 1
89.9358 0 1
92.3269 0 1
92.4424 0 1
92.558 0 1
92.6736 0 1
92.7893 0 1
92.905 0 1
93.0208 0 1
93.1366 0 1
93.2525 0 1
93.3685 0 1
93.4845 0 1
93.6005 28850 169.853
93.7167 32157 179.324
93.8328 34534 185.833
93.949 37181 192.824
94.0653 39095 197.725
94.1816 40575 201.432
94.2979 41528 203.784
94.4143 42196 205.417
94.5307 41917 204.736
94.6472 42276 205.611
94.7637 42539 206.25
94.8803 43044 207.47
94.9969 43777 209.23
95.1135 44834 211.74
95.2302 46425 215.465
95.3469 47021 216.843
95.4637 47741 218.497
95.5805 47790 218.609
95.6973 47045 216.899
95.8142 45718 213.818
95.9311 44171 210.169
96.048 42283 205.628
96.1649 39874 199.685
96.2819 37234 192.961
96.3989 34256 185.084
96.516 33100 181.934
96.633 33327 182.557
96.7501 34858 186.703
96.8673 37794 194.407
96.9844 40218 200.544
97.1016 42078 205.129
97.2188 43634 208.888
97.336 44825 211.719
97.4532 44439 210.806
97.5704 44486 210.917
97.6877 43662 208.955
97.805 42960 207.268
97.9223 42581 206.352
98.0396 42196 205.417
98.1569 41725 204.267
98.2743 41483 203.674
98.3916 41737 204.296
98.509 43570 208.734
98.6264 43861 209.43
98.7438 45603 213.549
98.8612 46543 215.738
98.9786 48039 219.178
99.096 48532 220.3
99.2134 48828 220.971
99.3308 47474 217.885
99.4482 47384 217.679
99.5656 45507 213.324
99.6831 42788 206.853
99.8005 40256 200.639
99.9179 37641 194.013
100.035 36426 190.856
100.153 36391 190.764
100.27 38057 195.082
100.388 39703 199.256
100.505 42151 205.307
100.622 43514 208.6
100.74 44585 211.152
100.857 45328 212.904
100.975 45209 212.624
101.092 45428 213.138
101.209 45112 212.396
101.327 44202 210.243
101.444 43472 208.499
101.561 43020 207.413
101.679 43150 207.726
101.796 42238 205.519
101.913 42631 206.473
102.03 43663 208.957
102.148 45265 212.756
102.265 47010 216.818
102.382 46886 216.532
102.499 48613 220.484
102.616 48845 221.009
102.733 49863 223.3
102.851 48548 220.336
102.968 48468 220.154
103.085 46248 215.053
103.202 44237 210.326
103.319 41373 203.404
103.436 38344 195.816
103.552 36603 191.319
103.669 36144 190.116
103.786 37599 193.905
103.903 39764 199.409
104.02 41824 204.509
104.137 43304 208.096
104.253 44782 211.618
104.37 44729 211.492
104.487 44986 212.099
104.603 44140 210.095
104.72 43487 208.535
104.836 42153 205.312
104.953 40254 200.634
105.069 38936 197.322
105.186 37769 194.342
105.302 36725 191.638
105.418 35778 189.151
105.535 35149 187.481
105.651 33827 183.921
105.767 32265 179.625
105.883 29888 172.881
105.999 25977 161.174
106.115 0 1
106.231 0 1
106.347 0 1
106.463 0 1
106.579 0 1
106.694 0 1
106.81 0 1
106.926 0 1
107.041 0 1
107.157 0 1
109.576 0 1
109.692 0 1
109.807 0 1
109.923 0 1
110.039 0 1
110.155 0 1
110.27 0 1
110.386 0 1
110.502 0 1
110.618 20503 143.189
110.735 24929 157.889
110.851 28755 169.573
110.967 32089 179.134
111.083 35687 188.91
111.199 38228 195.52
111.316 40782 201.946
111.432 42103 205.19
111.549 43663 208.957
111.665 43219 207.892
111.782 42168 205.348
111.898 40271 200.676
112.015 37654 194.046
112.132 34501 185.744
112.248 32158 179.327
112.365 32731 180.917
112.482 35075 187.283
112.599 37750 194.294
112.716 40327 200.816
112.832 40768 201.911
112.949 40781 201.943
113.066 41022 202.539
113.183 41074 202.667
113.3 40732 201.822
113.417 40163 200.407
113.534 38649 196.593
113.652 38715 196.761
113.769 37033 192.44
113.886 36848 191.958
114.003 36649 191.439
114.12 38129 195.266
114.238 39482 198.701
114.355 40702 201.747
114.472 42115 205.219
114.589 42750 206.761
114.707 43193 207.829
114.824 43371 208.257
114.942 43555 208.698
115.059 43834 209.366
115.176 43010 207.389
115.294 41356 203.362
115.411 39300 198.242
115.529 37744 194.278
115.646 35003 187.091
115.764 32195 179.43
115.881 31996 178.874
115.999 33551 183.169
116.116 36487 191.016
116.234 38639 196.568
116.351 39139 197.836
116.469 39315 198.28
116.586 39443 198.603
116.704 39542 198.852
116.821 39435 198.582
116.939 38740 196.825
117.056 38011 194.964
117.174 36736 191.666
117.291 35733 189.032
117.409 34994 187.067
117.526 35343 187.997
117.644 35958 189.626
117.761 37581 193.858
117.879 38683 196.68
117.996 39840 199.6
118.114 40582 201.45
118.231 40669 201.666
118.349 41340 203.322
118.466 41603 203.968
118.584 41517 203.757
118.701 41169 202.901
118.819 39982 199.955
118.936 38220 195.499
119.053 36500 191.05
119.171 34791 186.523
119.288 32216 179.488
119.405 30667 175.12
119.523 31083 176.304
119.64 32801 181.11
119.757 35240 187.723
119.875 36924 192.156
119.992 36707 191.591
120.109 36850 191.964
120.226 36918 192.141
120.343 37112 192.645
120.46 36540 191.154
120.578 36440 190.893
120.695 35527 188.486
120.812 34544 185.86
120.929 33026 181.731
121.046 32452 180.144
121.163 32551 180.419
121.279 32476 180.211
121.396 33499 183.027
121.513 34357 185.356
121.63 35252 187.755
121.747 34977 187.021
121.863 34981 187.032
121.98 34902 186.821
122.097 34862 186.714
122.213 34222 184.992
122.33 32845 181.232
122.446 31074 176.278
122.563 29077 170.52
122.679 26462 162.671
122.795 23455 153.15
122.912 20285 142.425
123.028 17744 133.207
123.144 16470 128.335
123.26 15821 125.782
123.377 0 1
123.493 0 1
123.609 0 1
123.725 0 1
123.84 0 1
123.956 0 1
124.072 0 1
124.188 0 1
124.303 0 1
124.419 0 1
126.852 0 1
126.968 0 1
127.083 0 1
127.199 0 1
127.315 0 1
127.431 0 1
127.547 0 1
127.663 0 1
127.779 0 1
127.895 0 1
128.011 0 1
128.127 0 1
128.243 0 1
128.359 35007 187.102
128.476 34041 184.502
128.592 34297 185.194
128.708 36243 190.376
128.825 38591 196.446
128.941 40522 201.301
129.058 40649 201.616
129.174 41200 202.978
129.291 40944 202.346
129.408 41604 203.971
129.524 41374 203.406
129.641 40337 200.841
129.758 39132 197.818
129.875 37757 194.312
129.992 37248 192.997
130.108 36467 190.963
130.225 36245 190.381
130.342 37600 193.907
130.459 39154 197.874
130.576 42534 206.238
130.693 42716 206.678
130.81 42800 206.882
130.928 42349 205.789
131.045 42721 206.691
131.162 43295 208.075
131.279 43581 208.761
131.396 42925 207.183
131.513 42389 205.886
131.631 41463 203.625
131.748 40366 200.913
131.865 38439 196.059
131.983 35805 189.222
132.1 35448 188.276
132.217 36548 191.175
132.335 38547 196.334
132.452 40555 201.383
132.57 41153 202.862
132.687 40364 200.908
132.804 41356 203.362
132.922 41139 202.828
133.039 41239 203.074
133.157 41070 202.657
133.274 39879 199.697
133.392 38647 196.588
133.509 36974 192.286
133.627 36467 190.963
133.744 36239 190.365
133.862 37827 194.492
133.979 39403 198.502
134.097 41096 202.721
134.214 42006 204.954
134.332 42099 205.18
134.449 41848 204.568
134.567 41941 204.795
134.684 42466 206.073
134.802 43049 207.483
134.919 42717 206.681
135.037 42729 206.71
135.154 41597 203.953
135.272 40151 200.377
135.389 38869 197.152
135.507 36273 190.455
135.624 35543 188.529
135.742 36280 190.473
135.859 37749 194.291
135.977 39922 199.805
136.094 41286 203.19
136.211 41048 202.603
136.329 40818 202.035
136.446 40548 201.365
136.564 40363 200.905
136.681 40679 201.69
136.798 39969 199.922
136.915 38604 196.479
137.033 37250 193.003
137.15 36491 191.026
137.267 35964 189.642
137.384 35814 189.246
137.502 36971 192.278
137.619 38869 197.152
137.736 40389 200.97
137.853 39525 198.809
137.97 40474 201.182
138.087 39845 199.612
138.204 39824 199.56
138.321 40112 200.28
138.438 40360 200.898
138.555 40777 201.933
138.672 39543 198.854
138.788 37888 194.648
138.905 35832 189.293
139.022 34523 185.804
139.139 32032 178.975
139.255 30302 174.075
139.372 29733 172.433
139.488 29941 173.035
139.605 30704 175.226
139.721 30147 173.629
139.838 28741 169.532
139.954 26121 161.62
140.071 23831 154.373
140.187 22396 149.653
140.303 21175 145.516
140.419 19938 141.202
140.535 18732 136.865
140.652 17103 130.778
140.768 0 1
140.884 0 1
141 0 1
141.115 0 1
141.231 0 1
141.347 0 1
141.463 0 1
141.578 0 1
141.694 0 1
144.104 0 1
144.219 0 1
144.335 0 1
144.45 0 1
144.566 0 1
144.682 0 1
144.798 0 1
144.914 0 1
145.03 0 1
145.146 28183 167.878
145.262 30009 173.231
145.378 30312 174.103
145.494 30795 175.485
145.61 30212 173.816
145.726 28808 169.729
145.842 28421 168.585
145.959 27626 166.211
146.075 27235 165.03
146.192 27407 165.551
146.308 27951 167.186
146.425 29607 172.067
146.541 30109 173.519
146.658 30363 174.25
146.774 30786 175.459
146.891 30770 175.414
147.008 30897 175.775
147.125 30454 174.511
147.241 31193 176.615
147.358 31529 177.564
147.475 31424 177.268
147.592 31222 176.697
147.709 29678 172.273
147.826 28961 170.179
147.943 27674 166.355
148.06 27086 164.578
148.177 27076 164.548
148.294 28614 169.157
148.411 30046 173.338
148.528 30694 175.197
148.645 30860 175.67
148.762 30906 175.801
148.88 30485 174.6
148.997 30823 175.565
149.114 30073 173.416
149.231 30095 173.479
149.349 29902 172.922
149.466 28231 168.021
149.583 27315 165.273
149.701 26856 163.878
149.818 26632 163.193
149.935 27265 165.121
150.053 28458 168.695
150.17 29103 170.596
150.287 29925 172.988
150.405 30302 174.075
150.522 30000 173.205
150.64 30355 174.227
150.757 29849 172.769
150.875 30436 174.459
150.992 30911 175.815
151.11 30854 175.653
151.227 30360 174.241
151.344 29616 172.093
151.462 28756 169.576
151.579 26831 163.802
151.697 26329 162.262
151.814 27352 165.384
151.932 28106 167.648
152.049 28751 169.561
152.167 29611 172.078
152.284 29884 172.87
152.402 29967 173.11
152.519 29568 171.953
152.636 29363 171.356
152.754 29304 171.184
152.871 28824 169.776
152.989 27577 166.063
153.106 26865 163.905
153.223 26027 161.329
153.341 25469 159.59
153.458 25702 160.318
153.575 26019 161.304
153.693 27355 165.393
153.81 27575 166.057
153.927 28128 167.714
154.044 27854 166.895
154.162 27854 166.895
154.279 28004 167.344
154.396 28705 169.425
154.513 28902 170.006
154.63 29200 170.88
154.747 29273 171.094
154.864 28841 169.826
154.981 27177 164.854
155.098 26503 162.797
155.215 25332 159.16
155.332 25375 159.295
155.449 25686 160.269
155.566 27087 164.581
155.683 27060 164.499
155.8 26684 163.352
155.917 26117 161.608
156.033 25648 160.15
156.15 0 1
156.267 0 1
156.383 0 1
156.5 0 1
156.617 0 1
156.733 0 1
156.85 0 1
156.966 0 1
157.082 0 1
157.199 0 1
157.315 0 1
157.431 0 1
157.547 0 1
157.664 0 1
157.78 0 1
157.896 0 1
158.012 0 1
158.128 0 1
158.244 0 1
158.359 0 1
158.475 0 1
158.591 0 1
158.706 0 1
