
6.15755 0 1
6.2731 0 1
6.3887 0 1
6.50437 0 1
6.62009 0 1
6.73587 0 1
6.8517 0 1
6.96759 0 1
7.08353 0 1
7.19952 0 1
7.31557 0 1
7.43166 0 1
7.54781 0 1
7.664 0 1
7.78024 0 1
7.89653 0 1
8.01286 0 1
8.12924 0 1
8.24567 0 1
8.36213 0 1
8.47864 0 1
8.59519 0 1
8.71178 0 1
8.82841 0 1
8.94508 0 1
9.06179 0 1
9.17853 0 1
9.29531 0 1
9.41212 0 1
9.52897 0 1
9.64584 0 1
9.76276 0 1
9.8797 0 1
9.99667 0 1
10.1137 0 1
10.2307 0 1
10.3478 0 1
10.4648 0 1
10.5819 0 1
10.6991 0 1
10.8162 0 1
10.9334 0 1
11.0506 0 1
11.1678 0 1
11.285 0 1
11.4023 0 1
11.5196 0 1
11.6369 0 1
11.7542 0 1
11.8715 0 1
11.9888 0 1
12.1062 0 1
12.2235 0 1
12.3409 0 1
12.4582 0 1
12.5756 0 1
12.693 0 1
12.8104 0 1
12.9278 0 1
13.0452 0 1
13.1626 0 1
13.28 0 1
13.3974 0 1
13.5149 0 1
13.6323 0 1
13.7497 0 1
13.8671 0 1
13.9845 0 1
14.1019 0 1
14.2193 0 1
14.3367 0 1
14.4541 0 1
14.5714 0 1
14.6888 0 1
14.8062 0 1
14.9235 0 1
15.0408 942 30.692
15.1581 953 30.8707
15.2755 998 31.5911
15.3927 1041 32.2645
15.51 1005 31.7017
15.6273 1080 32.8634
15.7445 1068 32.6803
15.8617 1031 32.1092
15.9789 968 31.1127
16.0961 925 30.4138
16.2132 949 30.8058
16.3304 867 29.4449
16.4475 1029 32.078
16.5646 995 31.5436
16.6816 1147 33.8674
16.7986 1104 33.2265
16.9156 1174 34.2637
17.0326 1102 33.1964
17.1496 1094 33.0757
17.2665 1214 34.8425
17.3833 1183 34.3948
17.5002 1182 34.3802
17.617 1057 32.5115
17.7338 1002 31.6544
17.8505 1015 31.8591
17.9672 947 30.7734
18.0839 986 31.4006
18.2005 1018 31.9061
18.3171 1047 32.3574
18.4337 1105 33.2415
18.5502 1075 32.7872
18.6666 1122 33.4963
18.7831 1141 33.7787
18.8994 1176 34.2929
19.0158 1143 33.8083
19.1321 1102 33.1964
19.2483 1099 33.1512
19.3645 974 31.209
19.4806 866 29.4279
19.5967 823 28.688
19.7128 826 28.7402
19.8288 711 26.6646
19.9447 669 25.865
20.0606 0 1
20.1764 0 1
20.2922 0 1
20.4079 0 1
20.5236 0 1
20.6392 0 1
20.7548 0 1
20.8702 0 1
23.3078 0 1
23.4233 0 1
23.539 0 1
23.6547 0 1
23.7704 0 1
23.8862 0 1
24.0021 0 1
24.118 0 1
24.234 0 1
24.35 0 1
24.4661 438 20.9284
24.5822 572 23.9165
24.6984 573 23.9374
24.8146 680 26.0768
24.9309 723 26.8887
25.0472 756 27.4955
25.1636 863 29.3769
25.28 890 29.8329
25.3965 965 31.0644
25.513 1078 32.8329
25.6296 1051 32.4191
25.7462 1180 34.3511
25.8628 1203 34.6843
25.9795 1183 34.3948
26.0962 1204 34.6987
26.213 1174 34.2637
26.3298 1059 32.5423
26.4466 987 31.4166
26.5635 1025 32.0156
26.6804 1000 31.6228
26.7973 1068 32.6803
26.9143 1061 32.573
27.0313 1051 32.4191
27.1483 1065 32.6343
27.2653 1140 33.7639
27.3824 1146 33.8526
27.4996 1122 33.4963
27.6167 1069 32.6956
27.7339 1017 31.8904
27.8511 1064 32.619
27.9683 1099 33.1512
28.0855 1004 31.686
28.2028 984 31.3688
28.3201 951 30.8383
28.4374 904 30.0666
28.5547 953 30.8707
28.6721 955 30.9031
28.7894 1115 33.3916
28.9068 1147 33.8674
29.0242 1089 33
29.1416 1084 32.9242
29.259 1159 34.0441
29.3764 1224 34.9857
29.4939 1143 33.8083
29.6113 1123 33.5112
29.7288 1039 32.2335
29.8463 1008 31.749
29.9638 995 31.5436
30.0812 906 30.0998
30.1987 1031 32.1092
30.3162 954 30.8869
30.4337 1033 32.1403
30.5512 1083 32.909
30.6687 1082 32.8938
30.7862 1079 32.8481
30.9037 1121 33.4813
31.0212 1157 34.0147
31.1387 1119 33.4515
31.2562 1042 32.28
31.3737 1010 31.7805
31.4912 1042 32.28
31.6087 994 31.5278
31.7262 945 30.7409
31.8436 924 30.3974
31.9611 917 30.282
32.0785 908 30.133
32.1959 918 30.2985
32.3134 1009 31.7648
32.4308 1021 31.9531
32.5482 1049 32.3883
32.6655 1085 32.9393
32.7829 1101 33.1813
32.9002 1064 32.619
33.0176 1066 32.6497
33.1349 1105 33.2415
33.2522 1110 33.3167
33.3694 925 30.4138
33.4867 995 31.5436
33.6039 820 28.6356
33.7211 878 29.6311
33.8383 876 29.5973
33.9554 941 30.6757
34.0725 980 31.305
34.1896 1032 32.1248
34.3067 1023 31.9844
34.4237 996 31.5595
34.5407 1040 32.249
34.6577 1007 31.7333
34.7746 1001 31.6386
34.8915 1061 32.573
35.0084 933 30.545
35.1252 965 31.0644
35.242 943 30.7083
35.3587 929 30.4795
35.4755 935 30.5778
35.5921 867 29.4449
35.7088 895 29.9166
35.8254 821 28.6531
35.9419 881 29.6816
36.0584 855 29.2404
36.1749 966 31.0805
36.2913 960 30.9839
36.4077 869 29.4788
36.524 990 31.4643
36.6403 865 29.4109
36.7565 827 28.7576
36.8727 827 28.7576
36.9889 787 28.0535
37.1049 682 26.1151
37.221 0 1
37.3369 0 1
37.4529 0 1
37.5687 0 1
37.6845 0 1
37.8003 0 1
37.916 0 1
38.0316 0 1
38.1472 0 1
40.5851 0 1
40.7008 0 1
40.8164 0 1
40.9322 0 1
41.048 0 1
41.1639 0 1
41.2798 0 1
41.3958 0 1
41.5118 0 1
41.6279 0 1
41.744 467 21.6102
41.8602 534 23.1084
41.9765 574 23.9583
42.0928 677 26.0192
42.2091 618 24.8596
42.3255 614 24.779
42.4419 581 24.1039
42.5584 560 23.6643
42.675 626 25.02
42.7915 708 26.6083
42.9081 778 27.8927
43.0248 817 28.5832
43.1415 776 27.8568
43.2582 874 29.5635
43.375 889 29.8161
43.4918 870 29.4958
43.6087 795 28.1957
43.7256 827 28.7576
43.8425 871 29.5127
43.9595 801 28.3019
44.0765 800 28.2843
44.1935 806 28.3901
44.3106 747 27.3313
44.4277 668 25.8457
44.5448 698 26.4197
44.6619 714 26.7208
44.7791 733 27.074
44.8963 786 28.0357
45.0136 830 28.8097
45.1308 837 28.931
45.2481 877 29.6142
45.3654 894 29.8998
45.4827 838 28.9482
45.6001 888 29.7993
45.7174 909 30.1496
45.8348 834 28.8791
45.9522 793 28.1603
46.0697 715 26.7395
46.1871 719 26.8142
46.3046 732 27.0555
46.422 826 28.7402
46.5395 787 28.0535
46.657 777 27.8747
46.7745 835 28.8964
46.892 891 29.8496
47.0096 865 29.4109
47.1271 848 29.1204
47.2446 928 30.4631
47.3622 897 29.95
47.4797 887 29.7825
47.5973 781 27.9464
47.7149 798 28.2489
47.8324 798 28.2489
47.95 757 27.5136
48.0675 712 26.6833
48.1851 657 25.632
48.3027 711 26.6646
48.4202 735 27.1109
48.5378 831 28.8271
48.6554 837 28.931
48.7729 874 29.5635
48.8904 846 29.0861
49.008 839 28.9655
49.1255 889 29.8161
49.243 803 28.3373
49.3605 788 28.0713
49.478 715 26.7395
49.5955 668 25.8457
49.713 619 24.8797
49.8304 666 25.807
49.9479 749 27.3679
50.0653 801 28.3019
50.1827 805 28.3725
50.3001 837 28.931
50.4175 816 28.5657
50.5348 873 29.5466
50.6521 851 29.1719
50.7694 911 30.1828
50.8867 853 29.2062
51.004 807 28.4077
51.1212 836 28.9137
51.2384 850 29.1548
51.3556 827 28.7576
51.4727 764 27.6405
51.5899 715 26.7395
51.707 656 25.6125
51.824 711 26.6646
51.9411 731 27.037
52.0581 784 28
52.175 810 28.4605
52.2919 890 29.8329
52.4088 887 29.7825
52.5257 876 29.5973
52.6425 935 30.5778
52.7593 861 29.3428
52.876 831 28.8271
52.9927 778 27.8927
53.1094 724 26.9072
53.226 729 27
53.3426 661 25.7099
53.4591 672 25.923
53.5756 666 25.807
53.692 673 25.9422
53.8084 671 25.9037
53.9248 658 25.6515
54.0411 607 24.6374
54.1573 618 24.8596
54.2735 0 1
54.3896 0 1
54.5057 0 1
54.6217 0 1
54.7377 0 1
54.8537 0 1
54.9695 0 1
55.0853 0 1
55.2011 0 1
55.3168 0 1
55.4324 0 1
57.824 0 1
57.9396 0 1
58.0553 0 1
58.1711 0 1
58.2869 0 1
58.4028 0 1
58.5187 0 1
58.6347 0 1
58.7508 0 1
58.8669 0 1
58.983 554 23.5372
59.0992 697 26.4008
59.2155 743 27.258
59.3318 850 29.1548
59.4482 896 29.9333
59.5646 899 29.9833
59.681 965 31.0644
59.7975 959 30.9677
59.9141 995 31.5436
60.0306 1010 31.7805
60.1473 975 31.225
60.2639 882 29.6985
60.3807 859 29.3087
60.4974 909 30.1496
60.6142 941 30.6757
60.731 1006 31.7175
60.8479 1063 32.6037
60.9648 1096 33.1059
61.0818 1111 33.3317
61.1987 1103 33.2114
61.3158 1164 34.1174
61.4328 1018 31.9061
61.5499 1019 31.9218
61.667 950 30.8221
61.7841 931 30.5123
61.9013 852 29.189
62.0185 796 28.2135
62.1357 910 30.1662
62.253 995 31.5436
62.3702 968 31.1127
62.4875 990 31.4643
62.6049 1136 33.7046
62.7222 1043 32.2955
62.8396 1135 33.6898
62.9569 1077 32.8177
63.0743 1075 32.7872
63.1918 1075 32.7872
63.3092 1096 33.1059
63.4267 1041 32.2645
63.5441 1044 32.311
63.6616 984 31.3688
63.7791 904 30.0666
63.8966 894 29.8998
64.0142 897 29.95
64.1317 930 30.4959
64.2492 928 30.4631
64.3668 975 31.225
64.4843 1108 33.2866
64.6019 1111 33.3317
64.7195 1128 33.5857
64.837 1137 33.7194
64.9546 1041 32.2645
65.0722 1102 33.1964
65.1898 921 30.348
65.3074 909 30.1496
65.4249 886 29.7658
65.5425 796 28.2135
65.6601 867 29.4449
65.7777 894 29.8998
65.8952 955 30.9031
66.0128 1054 32.4654
66.1304 983 31.3528
66.2479 1044 32.311
66.3655 1090 33.0151
66.483 1145 33.8378
66.6005 1118 33.4365
66.718 1121 33.4813
66.8355 1121 33.4813
66.953 1069 32.6956
67.0705 1112 33.3467
67.1879 1037 32.2025
67.3054 950 30.8221
67.4228 888 29.7993
67.5402 846 29.0861
67.6576 906 30.0998
67.7749 946 30.7571
67.8923 895 29.9166
68.0096 1097 33.121
68.1269 1122 33.4963
68.2442 1148 33.8821
68.3614 1150 33.9116
68.4787 1152 33.9411
68.5958 1146 33.8526
68.713 1119 33.4515
68.8302 1101 33.1813
68.9473 956 30.9192
69.0643 944 30.7246
69.1814 925 30.4138
69.2984 949 30.8058
69.4154 966 31.0805
69.5323 1080 32.8634
69.6492 1109 33.3017
69.7661 1168 34.176
69.8829 1178 34.322
69.9997 1190 34.4964
70.1165 1250 35.3553
70.2332 1110 33.3167
70.3499 1117 33.4215
70.4665 1058 32.5269
70.5831 1042 32.28
70.6996 1007 31.7333
70.8161 967 31.0966
70.9326 843 29.0345
71.049 717 26.7769
71.1653 597 24.4336
71.2817 523 22.8692
71.3979 506 22.4944
71.5141 486 22.0454
71.6303 455 21.3307
71.7464 412 20.2978
71.8624 0 1
71.9784 0 1
72.0944 0 1
72.2102 0 1
72.3261 0 1
72.4418 0 1
72.5575 0 1
72.6732 0 1
75.1054 0 1
75.2209 0 1
75.3365 0 1
75.4521 0 1
75.5678 0 1
75.6835 0 1
75.7993 0 1
75.9151 0 1
76.031 0 1
76.147 809 28.4429
76.263 893 29.8831
76.3791 883 29.7153
76.4952 804 28.3549
76.6113 790 28.1069
76.7276 862 29.3598
76.8438 933 30.545
76.9601 1009 31.7648
77.0765 1063 32.6037
77.1929 1086 32.9545
77.3093 1112 33.3467
77.4258 1083 32.909
77.5423 1121 33.4813
77.6589 1058 32.5269
77.7755 962 31.0161
77.8921 901 30.0167
78.0088 847 29.1033
78.1256 759 27.55
78.2423 704 26.533
78.3591 747 27.3313
78.4759 879 29.6479
78.5928 910 30.1662
78.7097 943 30.7083
78.8266 908 30.133
78.9436 961 31
79.0606 997 31.5753
79.1776 1037 32.2025
79.2946 1049 32.3883
79.4117 998 31.5911
79.5288 1024 32
79.6459 1012 31.8119
79.7631 945 30.7409
79.8802 895 29.9166
79.9974 845 29.0689
80.1147 764 27.6405
80.2319 804 28.3549
80.3491 754 27.4591
80.4664 790 28.1069
80.5837 861 29.3428
80.701 948 30.7896
80.8183 933 30.545
80.9357 980 31.305
81.053 994 31.5278
81.1704 946 30.7571
81.2877 975 31.225
81.4051 970 31.1448
81.5225 880 29.6648
81.6399 841 29
81.7573 722 26.8701
81.8747 718 26.7955
81.9922 725 26.9258
82.1096 791 28.1247
82.227 866 29.4279
82.3444 867 29.4449
82.4619 935 30.5778
82.5793 997 31.5753
82.6967 932 30.5287
82.8142 1019 31.9218
82.9316 1063 32.6037
83.049 999 31.607
83.1664 981 31.3209
83.2838 986 31.4006
83.4012 985 31.3847
83.5186 935 30.5778
83.636 919 30.315
83.7534 858 29.2916
83.8708 754 27.4591
83.9881 749 27.3679
84.1055 768 27.7128
84.2228 858 29.2916
84.3401 892 29.8664
84.4575 938 30.6268
84.5747 991 31.4802
84.692 997 31.5753
84.8093 1017 31.8904
84.9265 966 31.0805
85.0437 963 31.0322
85.1609 826 28.7402
85.2781 812 28.4956
85.3952 736 27.1293
85.5123 717 26.7769
85.6294 735 27.1109
85.7465 864 29.3939
85.8636 906 30.0998
85.9806 858 29.2916
86.0976 966 31.0805
86.2145 957 30.9354
86.3315 1015 31.8591
86.4484 1026 32.0312
86.5652 986 31.4006
86.682 1072 32.7414
86.7988 994 31.5278
86.9156 971 31.1609
87.0323 997 31.5753
87.149 970 31.1448
87.2657 844 29.0517
87.3823 796 28.2135
87.4988 693 26.3249
87.6154 636 25.219
87.7318 682 26.1151
87.8483 727 26.9629
87.9647 757 27.5136
88.081 777 27.8747
88.1973 778 27.8927
88.3136 752 27.4226
88.4298 720 26.8328
88.546 671 25.9037
88.6621 588 24.2487
88.7781 446 21.1187
88.8942 0 1
89.0101 0 1
89.126 0 1
89.2419 0 1
89.3577 0 1
89.4734 0 1
89.5891 0 1
89.7047 0 1
89.8203 0 1
89.9358 0 1
92.3269 0 1
92.4424 0 1
92.558 0 1
92.6736 0 1
92.7893 0 1
92.905 0 1
93.0208 0 1
93.1366 0 1
93.2525 0 1
93.3685 0 1
93.4845 0 1
93.6005 700 26.4575
93.7167 744 27.2764
93.8328 812 28.4956
93.949 794 28.178
94.0653 840 28.9828
94.1816 857 29.2746
94.2979 789 28.0891
94.4143 724 26.9072
94.5307 793 28.1603
94.6472 683 26.1343
94.7637 706 26.5707
94.8803 758 27.5318
94.9969 852 29.189
95.1135 933 30.545
95.2302 846 29.0861
95.3469 932 30.5287
95.4637 954 30.8869
95.5805 971 31.1609
95.6973 1019 31.9218
95.8142 980 31.305
95.9311 997 31.5753
96.048 983 31.3528
96.1649 991 31.4802
96.2819 919 30.315
96.3989 880 29.6648
96.516 856 29.2575
96.633 855 29.2404
96.7501 745 27.2947
96.8673 711 26.6646
96.9844 779 27.9106
97.1016 779 27.9106
97.2188 851 29.1719
97.336 947 30.7734
97.4532 958 30.9516
97.5704 1016 31.8748
97.6877 1001 31.6386
97.805 1045 32.3265
97.9223 941 30.6757
98.0396 810 28.4605
98.1569 761 27.5862
98.2743 740 27.2029
98.3916 696 26.3818
98.509 747 27.3313
98.6264 855 29.2404
98.7438 886 29.7658
98.8612 965 31.0644
98.9786 976 31.241
99.096 1035 32.1714
99.2134 979 31.289
99.3308 1010 31.7805
99.4482 1014 31.8434
99.5656 1027 32.0468
99.6831 1007 31.7333
99.8005 970 31.1448
99.9179 1016 31.8748
100.035 947 30.7734
100.153 867 29.4449
100.27 841 29
100.388 783 27.9821
100.505 845 29.0689
100.622 845 29.0689
100.74 963 31.0322
100.857 959 30.9677
100.975 1014 31.8434
101.092 1085 32.9393
101.209 1064 32.619
101.327 1007 31.7333
101.444 974 31.209
101.561 850 29.1548
101.679 866 29.4279
101.796 787 28.0535
101.913 744 27.2764
102.03 799 28.2666
102.148 844 29.0517
102.265 907 30.1164
102.382 1046 32.3419
102.499 1079 32.8481
102.616 1013 31.8277
102.733 1043 32.2955
102.851 1135 33.6898
102.968 1145 33.8378
103.085 1097 33.121
103.202 1102 33.1964
103.319 1094 33.0757
103.436 1015 31.8591
103.552 1041 32.2645
103.669 1032 32.1248
103.786 910 30.1662
103.903 809 28.4429
104.02 903 30.05
104.137 949 30.8058
104.253 1026 32.0312
104.37 1145 33.8378
104.487 1064 32.619
104.603 1139 33.7491
104.72 1116 33.4066
104.836 1044 32.311
104.953 950 30.8221
105.069 848 29.1204
105.186 829 28.7924
105.302 729 27
105.418 690 26.2679
105.535 697 26.4008
105.651 710 26.6458
105.767 728 26.9815
105.883 748 27.3496
105.999 670 25.8844
106.115 0 1
106.231 0 1
106.347 0 1
106.463 0 1
106.579 0 1
106.694 0 1
106.81 0 1
106.926 0 1
107.041 0 1
107.157 0 1
109.576 0 1
109.692 0 1
109.807 0 1
109.923 0 1
110.039 0 1
110.155 0 1
110.27 0 1
110.386 0 1
110.502 0 1
110.618 431 20.7605
110.735 542 23.2809
110.851 654 25.5734
110.967 717 26.7769
111.083 858 29.2916
111.199 922 30.3645
111.316 904 30.0666
111.432 952 30.8545
111.549 961 31
111.665 998 31.5911
111.782 1012 31.8119
111.898 958 30.9516
112.015 1020 31.9374
112.132 904 30.0666
112.248 902 30.0333
112.365 802 28.3196
112.482 755 27.4773
112.599 877 29.6142
112.716 833 28.8617
112.832 949 30.8058
112.949 989 31.4484
113.066 983 31.3528
113.183 978 31.273
113.3 1006 31.7175
113.417 1000 31.6228
113.534 919 30.315
113.652 807 28.4077
113.769 817 28.5832
113.886 746 27.313
114.003 690 26.2679
114.12 755 27.4773
114.238 835 28.8964
114.355 879 29.6479
114.472 847 29.1033
114.589 957 30.9354
114.707 1042 32.28
114.824 1002 31.6544
114.942 987 31.4166
115.059 987 31.4166
115.176 1038 32.218
115.294 992 31.496
115.411 1008 31.749
115.529 953 30.8707
115.646 905 30.0832
115.764 930 30.4959
115.881 740 27.2029
115.999 787 28.0535
116.116 837 28.931
116.234 857 29.2746
116.351 911 30.1828
116.469 968 31.1127
116.586 979 31.289
116.704 973 31.1929
116.821 972 31.1769
116.939 946 30.7571
117.056 943 30.7083
117.174 909 30.1496
117.291 817 28.5832
117.409 804 28.3549
117.526 720 26.8328
117.644 781 27.9464
117.761 777 27.8747
117.879 870 29.4958
117.996 896 29.9333
118.114 907 30.1164
118.231 975 31.225
118.349 1034 32.1559
118.466 971 31.1609
118.584 976 31.241
118.701 976 31.241
118.819 966 31.0805
118.936 893 29.8831
119.053 942 30.692
119.171 896 29.9333
119.288 893 29.8831
119.405 834 28.8791
119.523 829 28.7924
119.64 765 27.6586
119.757 781 27.9464
119.875 868 29.4618
119.992 859 29.3087
120.109 1003 31.6702
120.226 977 31.257
120.343 935 30.5778
120.46 957 30.9354
120.578 960 30.9839
120.695 958 30.9516
120.812 879 29.6479
120.929 827 28.7576
121.046 784 28
121.163 743 27.258
121.279 718 26.7955
121.396 728 26.9815
121.513 737 27.1477
121.63 809 28.4429
121.747 797 28.2312
121.863 798 28.2489
121.98 776 27.8568
122.097 854 29.2233
122.213 841 29
122.33 786 28.0357
122.446 740 27.2029
122.563 720 26.8328
122.679 666 25.807
122.795 621 24.9199
122.912 592 24.3311
123.028 505 22.4722
123.144 482 21.9545
123.26 366 19.1311
123.377 0 1
123.493 0 1
123.609 0 1
123.725 0 1
123.84 0 1
123.956 0 1
124.072 0 1
124.188 0 1
124.303 0 1
124.419 0 1
126.852 0 1
126.968 0 1
127.083 0 1
127.199 0 1
127.315 0 1
127.431 0 1
127.547 0 1
127.663 0 1
127.779 0 1
127.895 0 1
128.011 0 1
128.127 0 1
128.243 0 1
128.359 1080 32.8634
128.476 1062 32.5883
128.592 983 31.3528
128.708 997 31.5753
128.825 983 31.3528
128.941 1041 32.2645
129.058 1108 33.2866
129.174 1176 34.2929
129.291 1150 33.9116
129.408 1190 34.4964
129.524 1214 34.8425
129.641 1165 34.1321
129.758 1185 34.4238
129.875 1122 33.4963
129.992 1088 32.9848
130.108 1019 31.9218
130.225 888 29.7993
130.342 892 29.8664
130.459 969 31.1288
130.576 995 31.5436
130.693 1100 33.1662
130.81 1086 32.9545
130.928 1095 33.0908
131.045 1156 34
131.162 1208 34.7563
131.279 1214 34.8425
131.396 1202 34.6699
131.513 1199 34.6266
131.631 1151 33.9264
131.748 1141 33.7787
131.865 1149 33.8969
131.983 1115 33.3916
132.1 1040 32.249
132.217 977 31.257
132.335 967 31.0966
132.452 976 31.241
132.57 1108 33.2866
132.687 1105 33.2415
132.804 1168 34.176
132.922 1176 34.2929
133.039 1195 34.5688
133.157 1232 35.0999
133.274 1191 34.5109
133.392 1132 33.6452
133.509 1105 33.2415
133.627 1012 31.8119
133.744 1009 31.7648
133.862 883 29.7153
133.979 934 30.5614
134.097 1014 31.8434
134.214 1118 33.4365
134.332 1106 33.2566
134.449 1139 33.7491
134.567 1148 33.8821
134.684 1193 34.5398
134.802 1151 33.9264
134.919 1118 33.4365
135.037 1194 34.5543
135.154 1162 34.0881
135.272 1135 33.6898
135.389 1171 34.2199
135.507 1100 33.1662
135.624 1023 31.9844
135.742 1017 31.8904
135.859 995 31.5436
135.977 1030 32.0936
136.094 973 31.1929
136.211 1156 34
136.329 1174 34.2637
136.446 1165 34.1321
136.564 1212 34.8138
136.681 1261 35.5106
136.798 1262 35.5246
136.915 1175 34.2783
137.033 1161 34.0735
137.15 1031 32.1092
137.267 1040 32.249
137.384 922 30.3645
137.502 838 28.9482
137.619 939 30.6431
137.736 998 31.5911
137.853 1022 31.9687
137.97 1013 31.8277
138.087 1125 33.541
138.204 1107 33.2716
138.321 1135 33.6898
138.438 1103 33.2114
138.555 1194 34.5543
138.672 1195 34.5688
138.788 1133 33.6601
138.905 1103 33.2114
139.022 1020 31.9374
139.139 974 31.209
139.255 893 29.8831
139.372 771 27.7669
139.488 778 27.8927
139.605 800 28.2843
139.721 786 28.0357
139.838 789 28.0891
139.954 733 27.074
140.071 733 27.074
140.187 686 26.1916
140.303 692 26.3059
140.419 580 24.0832
140.535 542 23.2809
140.652 504 22.4499
140.768 0 1
140.884 0 1
141 0 1
141.115 0 1
141.231 0 1
141.347 0 1
141.463 0 1
141.578 0 1
141.694 0 1
144.104 0 1
144.219 0 1
144.335 0 1
144.45 0 1
144.566 0 1
144.682 0 1
144.798 0 1
144.914 0 1
145.03 0 1
145.146 763 27.6225
145.262 788 28.0713
145.378 830 28.8097
145.494 872 29.5296
145.61 913 30.2159
145.726 841 29
145.842 783 27.9821
145.959 755 27.4773
146.075 703 26.5141
146.192 732 27.0555
146.308 665 25.7876
146.425 660 25.6905
146.541 722 26.8701
146.658 743 27.258
146.774 699 26.4386
146.891 757 27.5136
147.008 763 27.6225
147.125 787 28.0535
147.241 833 28.8617
147.358 823 28.688
147.475 779 27.9106
147.592 862 29.3598
147.709 794 28.178
147.826 706 26.5707
147.943 722 26.8701
148.06 674 25.9615
148.177 708 26.6083
148.294 699 26.4386
148.411 680 26.0768
148.528 678 26.0384
148.645 732 27.0555
148.762 785 28.0179
148.88 796 28.2135
148.997 795 28.1957
149.114 733 27.074
149.231 772 27.7849
149.349 795 28.1957
149.466 764 27.6405
149.583 695 26.3629
149.701 655 25.593
149.818 673 25.9422
149.935 639 25.2784
150.053 647 25.4362
150.17 661 25.7099
150.287 699 26.4386
150.405 707 26.5895
150.522 713 26.7021
150.64 745 27.2947
150.757 741 27.2213
150.875 747 27.3313
150.992 749 27.3679
151.11 724 26.9072
151.227 767 27.6948
151.344 708 26.6083
151.462 716 26.7582
151.579 702 26.4953
151.697 717 26.7769
151.814 697 26.4008
151.932 654 25.5734
152.049 681 26.096
152.167 691 26.2869
152.284 628 25.0599
152.402 675 25.9808
152.519 750 27.3861
152.636 714 26.7208
152.754 812 28.4956
152.871 686 26.1916
152.989 742 27.2397
153.106 728 26.9815
153.223 658 25.6515
153.341 640 25.2982
153.458 614 24.779
153.575 562 23.7065
153.693 596 24.4131
153.81 624 24.98
153.927 645 25.3969
154.044 693 26.3249
154.162 671 25.9037
154.279 628 25.0599
154.396 730 27.0185
154.513 683 26.1343
154.63 725 26.9258
154.747 749 27.3679
154.864 716 26.7582
154.981 655 25.593
155.098 643 25.3574
155.215 672 25.923
155.332 644 25.3772
155.449 607 24.6374
155.566 603 24.5561
155.683 582 24.1247
155.8 659 25.671
155.917 661 25.7099
156.033 658 25.6515
156.15 0 1
156.267 0 1
156.383 0 1
156.5 0 1
156.617 0 1
156.733 0 1
156.85 0 1
156.966 0 1
157.082 0 1
157.199 0 1
157.315 0 1
157.431 0 1
157.547 0 1
157.664 0 1
157.78 0 1
157.896 0 1
158.012 0 1
158.128 0 1
158.244 0 1
158.359 0 1
158.475 0 1
158.591 0 1
158.706 0 1
