
6.15755 0 1
6.2731 0 1
6.3887 0 1
6.50437 0 1
6.62009 0 1
6.73587 0 1
6.8517 0 1
6.96759 0 1
7.08353 0 1
7.19952 0 1
7.31557 0 1
7.43166 0 1
7.54781 0 1
7.664 0 1
7.78024 0 1
7.89653 0 1
8.01286 0 1
8.12924 0 1
8.24567 0 1
8.36213 0 1
8.47864 0 1
8.59519 0 1
8.71178 0 1
8.82841 0 1
8.94508 0 1
9.06179 0 1
9.17853 0 1
9.29531 0 1
9.41212 0 1
9.52897 0 1
9.64584 0 1
9.76276 0 1
9.8797 0 1
9.99667 0 1
10.1137 0 1
10.2307 0 1
10.3478 0 1
10.4648 0 1
10.5819 0 1
10.6991 0 1
10.8162 0 1
10.9334 0 1
11.0506 0 1
11.1678 0 1
11.285 0 1
11.4023 0 1
11.5196 0 1
11.6369 0 1
11.7542 0 1
11.8715 0 1
11.9888 0 1
12.1062 0 1
12.2235 0 1
12.3409 0 1
12.4582 0 1
12.5756 0 1
12.693 0 1
12.8104 0 1
12.9278 0 1
13.0452 0 1
13.1626 0 1
13.28 0 1
13.3974 0 1
13.5149 0 1
13.6323 0 1
13.7497 0 1
13.8671 0 1
13.9845 0 1
14.1019 0 1
14.2193 0 1
14.3367 0 1
14.4541 0 1
14.5714 0 1
14.6888 0 1
14.8062 0 1
14.9235 0 1
15.0408 1310 36.1939
15.1581 1416 37.6298
15.2755 1390 37.2827
15.3927 1451 38.092
15.51 1379 37.1349
15.6273 1476 38.4187
15.7445 1436 37.8946
15.8617 1390 37.2827
15.9789 1268 35.609
16.0961 1347 36.7015
16.2132 1253 35.3977
16.3304 1227 35.0286
16.4475 1235 35.1426
16.5646 1224 34.9857
16.6816 1120 33.4664
16.7986 1097 33.121
16.9156 1018 31.9061
17.0326 1078 32.8329
17.1496 1039 32.2335
17.2665 1085 32.9393
17.3833 977 31.257
17.5002 1060 32.5576
17.617 1075 32.7872
17.7338 1122 33.4963
17.8505 1106 33.2566
17.9672 1061 32.573
18.0839 1119 33.4515
18.2005 1172 34.2345
18.3171 1201 34.6554
18.4337 1281 35.7911
18.5502 1218 34.8999
18.6666 1239 35.1994
18.7831 1302 36.0832
18.8994 1298 36.0278
19.0158 1199 34.6266
19.1321 1186 34.4384
19.2483 1082 32.8938
19.3645 1042 32.28
19.4806 962 31.0161
19.5967 952 30.8545
19.7128 857 29.2746
19.8288 873 29.5466
19.9447 750 27.3861
20.0606 0 1
20.1764 0 1
20.2922 0 1
20.4079 0 1
20.5236 0 1
20.6392 0 1
20.7548 0 1
20.8702 0 1
23.3078 0 1
23.4233 0 1
23.539 0 1
23.6547 0 1
23.7704 0 1
23.8862 0 1
24.0021 0 1
24.118 0 1
24.234 0 1
24.35 0 1
24.4661 578 24.0416
24.5822 627 25.04
24.6984 720 26.8328
24.8146 776 27.8568
24.9309 835 28.8964
25.0472 954 30.8869
25.1636 1035 32.1714
25.28 1030 32.0936
25.3965 1074 32.7719
25.513 1141 33.7787
25.6296 1186 34.4384
25.7462 1111 33.3317
25.8628 1187 34.4529
25.9795 1189 34.4819
26.0962 1221 34.9428
26.213 1179 34.3366
26.3298 1227 35.0286
26.4466 1194 34.5543
26.5635 1208 34.7563
26.6804 1178 34.322
26.7973 1176 34.2929
26.9143 1167 34.1614
27.0313 1235 35.1426
27.1483 1262 35.5246
27.2653 1263 35.5387
27.3824 1261 35.5106
27.4996 1335 36.5377
27.6167 1271 35.6511
27.7339 1264 35.5528
27.8511 1188 34.4674
27.9683 1235 35.1426
28.0855 1171 34.2199
28.2028 1228 35.0428
28.3201 1194 34.5543
28.4374 1164 34.1174
28.5547 1214 34.8425
28.6721 1175 34.2783
28.7894 1113 33.3617
28.9068 1276 35.7211
29.0242 1169 34.1906
29.1416 1180 34.3511
29.259 1141 33.7787
29.3764 1123 33.5112
29.4939 1189 34.4819
29.6113 1125 33.541
29.7288 1187 34.4529
29.8463 1208 34.7563
29.9638 1197 34.5977
30.0812 1193 34.5398
30.1987 1203 34.6843
30.3162 1257 35.4542
30.4337 1199 34.6266
30.5512 1233 35.1141
30.6687 1263 35.5387
30.7862 1250 35.3553
30.9037 1345 36.6742
31.0212 1322 36.3593
31.1387 1269 35.623
31.2562 1242 35.242
31.3737 1241 35.2278
31.4912 1221 34.9428
31.6087 1177 34.3074
31.7262 1099 33.1512
31.8436 1172 34.2345
31.9611 1224 34.9857
32.0785 1242 35.242
32.1959 1181 34.3657
32.3134 1188 34.4674
32.4308 1199 34.6266
32.5482 1198 34.6121
32.6655 1125 33.541
32.7829 1263 35.5387
32.9002 1169 34.1906
33.0176 1190 34.4964
33.1349 1121 33.4813
33.2522 1165 34.1321
33.3694 1162 34.0881
33.4867 1233 35.1141
33.6039 1293 35.9583
33.7211 1157 34.0147
33.8383 1124 33.5261
33.9554 1213 34.8281
34.0725 1237 35.171
34.1896 1229 35.0571
34.3067 1314 36.2491
34.4237 1329 36.4555
34.5407 1239 35.1994
34.6577 1311 36.2077
34.7746 1396 37.3631
34.8915 1247 35.3129
35.0084 1292 35.9444
35.1252 1247 35.3129
35.242 1256 35.4401
35.3587 1170 34.2053
35.4755 1177 34.3074
35.5921 1205 34.7131
35.7088 1199 34.6266
35.8254 1276 35.7211
35.9419 1251 35.3695
36.0584 1226 35.0143
36.1749 1262 35.5246
36.2913 1164 34.1174
36.4077 1068 32.6803
36.524 980 31.305
36.6403 975 31.225
36.7565 897 29.95
36.8727 880 29.6648
36.9889 804 28.3549
37.1049 715 26.7395
37.221 0 1
37.3369 0 1
37.4529 0 1
37.5687 0 1
37.6845 0 1
37.8003 0 1
37.916 0 1
38.0316 0 1
38.1472 0 1
40.5851 0 1
40.7008 0 1
40.8164 0 1
40.9322 0 1
41.048 0 1
41.1639 0 1
41.2798 0 1
41.3958 0 1
41.5118 0 1
41.6279 0 1
41.744 683 26.1343
41.8602 760 27.5681
41.9765 825 28.7228
42.0928 878 29.6311
42.2091 898 29.9666
42.3255 944 30.7246
42.4419 997 31.5753
42.5584 948 30.7896
42.675 955 30.9031
42.7915 1017 31.8904
42.9081 1120 33.4664
43.0248 1075 32.7872
43.1415 1191 34.5109
43.2582 1175 34.2783
43.375 1181 34.3657
43.4918 1253 35.3977
43.6087 1264 35.5528
43.7256 1293 35.9583
43.8425 1264 35.5528
43.9595 1223 34.9714
44.0765 1290 35.9166
44.1935 1276 35.7211
44.3106 1331 36.4829
44.4277 1325 36.4005
44.5448 1318 36.3043
44.6619 1378 37.1214
44.7791 1310 36.1939
44.8963 1457 38.1707
45.0136 1498 38.704
45.1308 1437 37.9078
45.2481 1438 37.921
45.3654 1462 38.2361
45.4827 1536 39.1918
45.6001 1491 38.6135
45.7174 1600 40
45.8348 1580 39.7492
45.9522 1486 38.5487
46.0697 1486 38.5487
46.1871 1362 36.9053
46.3046 1455 38.1445
46.422 1473 38.3797
46.5395 1725 41.5331
46.657 1806 42.4971
46.7745 1789 42.2966
46.892 1973 44.4185
47.0096 2158 46.4543
47.1271 2102 45.8476
47.2446 2143 46.2925
47.3622 2213 47.0425
47.4797 2290 47.8539
47.5973 2238 47.3075
47.7149 2230 47.2229
47.8324 2204 46.9468
47.95 2286 47.8121
48.0675 2275 47.697
48.1851 2162 46.4973
48.3027 2202 46.9255
48.4202 2228 47.2017
48.5378 2212 47.0319
48.6554 2140 46.2601
48.7729 2022 44.9667
48.8904 2077 45.5741
49.008 2035 45.111
49.1255 1909 43.6921
49.243 1840 42.8952
49.3605 1667 40.8289
49.478 1571 39.6358
49.5955 1483 38.5097
49.713 1392 37.3095
49.8304 1401 37.4299
49.9479 1421 37.6962
50.0653 1545 39.3065
50.1827 1607 40.0874
50.3001 1597 39.9625
50.4175 1674 40.9145
50.5348 1703 41.2674
50.6521 1769 42.0595
50.7694 1663 40.7799
50.8867 1630 40.3733
51.004 1652 40.6448
51.1212 1704 41.2795
51.2384 1600 40
51.3556 1480 38.4708
51.4727 1509 38.8458
51.5899 1455 38.1445
51.707 1499 38.7169
51.824 1350 36.7423
51.9411 1405 37.4833
52.0581 1419 37.6696
52.175 1307 36.1525
52.2919 1274 35.6931
52.4088 1289 35.9026
52.5257 1266 35.5809
52.6425 1287 35.8748
52.7593 1202 34.6699
52.876 1256 35.4401
52.9927 1130 33.6155
53.1094 1126 33.5559
53.226 1019 31.9218
53.3426 1033 32.1403
53.4591 1061 32.573
53.5756 1032 32.1248
53.692 1000 31.6228
53.8084 973 31.1929
53.9248 984 31.3688
54.0411 959 30.9677
54.1573 863 29.3769
54.2735 0 1
54.3896 0 1
54.5057 0 1
54.6217 0 1
54.7377 0 1
54.8537 0 1
54.9695 0 1
55.0853 0 1
55.2011 0 1
55.3168 0 1
55.4324 0 1
57.824 0 1
57.9396 0 1
58.0553 0 1
58.1711 0 1
58.2869 0 1
58.4028 0 1
58.5187 0 1
58.6347 0 1
58.7508 0 1
58.8669 0 1
58.983 1170 34.2053
59.0992 1290 35.9166
59.2155 1402 37.4433
59.3318 1581 39.7618
59.4482 1702 41.2553
59.5646 1844 42.9418
59.681 1857 43.0929
59.7975 1900 43.589
59.9141 1855 43.0697
60.0306 1841 42.9069
60.1473 1870 43.2435
60.2639 1819 42.6497
60.3807 1798 42.4028
60.4974 1891 43.4856
60.6142 1787 42.2729
60.731 1813 42.5793
60.8479 1717 41.4367
60.9648 1694 41.1582
61.0818 1754 41.8808
61.1987 1676 40.939
61.3158 1808 42.5206
61.4328 1670 40.8656
61.5499 1670 40.8656
61.667 1556 39.4462
61.7841 1633 40.4104
61.9013 1573 39.6611
62.0185 1608 40.0999
62.1357 1706 41.3038
62.253 1717 41.4367
62.3702 1775 42.1307
62.4875 1859 43.1161
62.6049 1926 43.8862
62.7222 2043 45.1996
62.8396 2077 45.5741
62.9569 2194 46.8402
63.0743 2236 47.2864
63.1918 2148 46.3465
63.3092 2092 45.7384
63.4267 2077 45.5741
63.5441 2002 44.7437
63.6616 2013 44.8665
63.7791 1940 44.0454
63.8966 1998 44.699
64.0142 1955 44.2154
64.1317 1920 43.8178
64.2492 1775 42.1307
64.3668 1727 41.5572
64.4843 1716 41.4246
64.6019 1758 41.9285
64.7195 1725 41.5331
64.837 1828 42.7551
64.9546 1742 41.7373
65.0722 1703 41.2674
65.1898 1592 39.8999
65.3074 1494 38.6523
65.4249 1517 38.9487
65.5425 1544 39.2938
65.6601 1657 40.7063
65.7777 1731 41.6053
65.8952 1819 42.6497
66.0128 1885 43.4166
66.1304 1953 44.1928
66.2479 1949 44.1475
66.3655 2140 46.2601
66.483 2225 47.1699
66.6005 2147 46.3357
66.718 2126 46.1086
66.8355 2217 47.085
66.953 2090 45.7165
67.0705 2211 47.0213
67.1879 2002 44.7437
67.3054 1960 44.2719
67.4228 2015 44.8888
67.5402 1920 43.8178
67.6576 1878 43.3359
67.7749 1887 43.4396
67.8923 1769 42.0595
68.0096 1755 41.8927
68.1269 1724 41.5211
68.2442 1878 43.3359
68.3614 1849 43
68.4787 1816 42.6146
68.5958 1784 42.2374
68.713 1697 41.1947
68.8302 1644 40.5463
68.9473 1593 39.9124
69.0643 1474 38.3927
69.1814 1531 39.128
69.2984 1570 39.6232
69.4154 1673 40.9023
69.5323 1718 41.4488
69.6492 1817 42.6263
69.7661 1817 42.6263
69.8829 1930 43.9318
69.9997 1963 44.3058
70.1165 1982 44.5197
70.2332 1893 43.5086
70.3499 1800 42.4264
70.4665 1730 41.5933
70.5831 1691 41.1218
70.6996 1545 39.3065
70.8161 1412 37.5766
70.9326 1282 35.805
71.049 1200 34.641
71.1653 1143 33.8083
71.2817 1045 32.3265
71.3979 989 31.4484
71.5141 966 31.0805
71.6303 842 29.0172
71.7464 796 28.2135
71.8624 0 1
71.9784 0 1
72.0944 0 1
72.2102 0 1
72.3261 0 1
72.4418 0 1
72.5575 0 1
72.6732 0 1
75.1054 0 1
75.2209 0 1
75.3365 0 1
75.4521 0 1
75.5678 0 1
75.6835 0 1
75.7993 0 1
75.9151 0 1
76.031 0 1
76.147 1513 38.8973
76.263 1593 39.9124
76.3791 1655 40.6817
76.4952 1661 40.7554
76.6113 1724 41.5211
76.7276 1691 41.1218
76.8438 1809 42.5323
76.9601 1706 41.3038
77.0765 1708 41.328
77.1929 1742 41.7373
77.3093 1883 43.3935
77.4258 1818 42.638
77.5423 1834 42.8252
77.6589 1740 41.7133
77.7755 1706 41.3038
77.8921 1616 40.1995
78.0088 1528 39.0896
78.1256 1466 38.2884
78.2423 1484 38.5227
78.3591 1615 40.1871
78.4759 1677 40.9512
78.5928 1753 41.8688
78.7097 1988 44.587
78.8266 2198 46.8828
78.9436 2208 46.9894
79.0606 2236 47.2864
79.1776 2274 47.6865
79.2946 2398 48.9694
79.4117 2316 48.1248
79.5288 2380 48.7852
79.6459 2350 48.4768
79.7631 2269 47.634
79.8802 2198 46.8828
79.9974 2018 44.9222
80.1147 2036 45.1221
80.2319 2108 45.913
80.3491 2080 45.607
80.4664 2037 45.1331
80.5837 2006 44.7884
80.701 1987 44.5758
80.8183 1980 44.4972
80.9357 2053 45.31
81.053 2072 45.5192
81.1704 2062 45.4093
81.2877 2104 45.8694
81.4051 2155 46.422
81.5225 1852 43.0349
81.6399 1827 42.7434
81.7573 1688 41.0853
81.8747 1711 41.3642
81.9922 1761 41.9643
82.1096 1764 42
82.227 1973 44.4185
82.3444 2062 45.4093
82.4619 2324 48.2079
82.5793 2512 50.1199
82.6967 2539 50.3885
82.8142 2569 50.6853
82.9316 2655 51.5267
83.049 2637 51.3517
83.1664 2498 49.98
83.2838 2552 50.5173
83.4012 2526 50.2593
83.5186 2287 47.8226
83.636 2227 47.1911
83.7534 2239 47.3181
83.8708 2226 47.1805
83.9881 2340 48.3735
84.1055 2289 47.8435
84.2228 2244 47.3709
84.3401 2293 47.8853
84.4575 2240 47.3286
84.5747 2314 48.1041
84.692 2370 48.6826
84.8093 2436 49.3559
84.9265 2410 49.0918
85.0437 2225 47.1699
85.1609 2070 45.4973
85.2781 1836 42.8486
85.3952 1832 42.8019
85.5123 1793 42.3438
85.6294 1851 43.0232
85.7465 2007 44.7996
85.8636 2195 46.8508
85.9806 2387 48.8569
86.0976 2518 50.1797
86.2145 2677 51.7397
86.3315 2636 51.342
86.4484 2828 53.1789
86.5652 2799 52.9056
86.682 2782 52.7447
86.7988 2808 52.9906
86.9156 2696 51.923
87.0323 2514 50.1398
87.149 2528 50.2792
87.2657 2439 49.3862
87.3823 2288 47.833
87.4988 2248 47.4131
87.6154 2161 46.4866
87.7318 2093 45.7493
87.8483 1944 44.0908
87.9647 1914 43.7493
88.081 1811 42.5558
88.1973 1727 41.5572
88.3136 1659 40.7308
88.4298 1547 39.3319
88.546 1335 36.5377
88.6621 1271 35.6511
88.7781 1021 31.9531
88.8942 0 1
89.0101 0 1
89.126 0 1
89.2419 0 1
89.3577 0 1
89.4734 0 1
89.5891 0 1
89.7047 0 1
89.8203 0 1
89.9358 0 1
92.3269 0 1
92.4424 0 1
92.558 0 1
92.6736 0 1
92.7893 0 1
92.905 0 1
93.0208 0 1
93.1366 0 1
93.2525 0 1
93.3685 0 1
93.4845 0 1
93.6005 2137 46.2277
93.7167 2385 48.8365
93.8328 2463 49.6286
93.949 2639 51.3712
94.0653 2640 51.3809
94.1816 2712 52.0769
94.2979 2571 50.705
94.4143 2391 48.8979
94.5307 2207 46.9787
94.6472 2145 46.3141
94.7637 2272 47.6655
94.8803 2254 47.4763
94.9969 2448 49.4773
95.1135 2559 50.5866
95.2302 2824 53.1413
95.3469 3008 54.8452
95.4637 3197 56.542
95.5805 3235 56.8771
95.6973 3302 57.463
95.8142 3320 57.6194
95.9311 3229 56.8243
96.048 3182 56.4092
96.1649 3234 56.8683
96.2819 3055 55.2721
96.3989 2898 53.8331
96.516 2988 54.6626
96.633 2982 54.6077
96.7501 2907 53.9166
96.8673 2951 54.3231
96.9844 2924 54.074
97.1016 2827 53.1695
97.2188 2923 54.0648
97.336 2986 54.6443
97.4532 2994 54.7175
97.5704 3127 55.9196
97.6877 3103 55.7046
97.805 3039 55.1271
97.9223 2886 53.7215
98.0396 2736 52.3068
98.1569 2520 50.1996
98.2743 2387 48.8569
98.3916 2332 48.2908
98.509 2318 48.1456
98.6264 2605 51.0392
98.7438 2751 52.45
98.8612 2913 53.9722
98.9786 3251 57.0175
99.096 3363 57.9914
99.2134 3385 58.1808
99.3308 3545 59.5399
99.4482 3481 59
99.5656 3595 59.9583
99.6831 3518 59.3127
99.8005 3445 58.6941
99.9179 3318 57.6021
100.035 3275 57.2276
100.153 3229 56.8243
100.27 3196 56.5332
100.388 3264 57.1314
100.505 3211 56.6657
100.622 3071 55.4166
100.74 3103 55.7046
100.857 3099 55.6687
100.975 3113 55.7943
101.092 3211 56.6657
101.209 3263 57.1227
101.327 3264 57.1314
101.444 3298 57.4282
101.561 3009 54.8544
101.679 2789 52.811
101.796 2494 49.94
101.913 2411 49.1019
102.03 2403 49.0204
102.148 2585 50.8429
102.265 2721 52.1632
102.382 3164 56.2494
102.499 3456 58.7878
102.616 3593 59.9416
102.733 3622 60.1831
102.851 3655 60.4566
102.968 3832 61.9032
103.085 3978 63.0714
103.202 3754 61.2699
103.319 3708 60.8933
103.436 3588 59.8999
103.552 3598 59.9833
103.669 3347 57.8533
103.786 3376 58.1034
103.903 3408 58.3781
104.02 3322 57.6368
104.137 3363 57.9914
104.253 3256 57.0614
104.37 3427 58.5406
104.487 3316 57.5847
104.603 3375 58.0948
104.72 3327 57.6802
104.836 3165 56.2583
104.953 2993 54.7083
105.069 2621 51.1957
105.186 2334 48.3115
105.302 2028 45.0333
105.418 1855 43.0697
105.535 1653 40.6571
105.651 1663 40.7799
105.767 1617 40.2119
105.883 1662 40.7676
105.999 1717 41.4367
106.115 0 1
106.231 0 1
106.347 0 1
106.463 0 1
106.579 0 1
106.694 0 1
106.81 0 1
106.926 0 1
107.041 0 1
107.157 0 1
109.576 0 1
109.692 0 1
109.807 0 1
109.923 0 1
110.039 0 1
110.155 0 1
110.27 0 1
110.386 0 1
110.502 0 1
110.618 1313 36.2353
110.735 1639 40.4846
110.851 1968 44.3621
110.967 2279 47.7389
111.083 2599 50.9804
111.199 2782 52.7447
111.316 2967 54.4702
111.432 3063 55.3444
111.549 3067 55.3805
111.665 3052 55.2449
111.782 3087 55.5608
111.898 3044 55.1725
112.015 2870 53.5724
112.132 2879 53.6563
112.248 2840 53.2917
112.365 2760 52.5357
112.482 2643 51.4101
112.599 2707 52.0288
112.716 2697 51.9326
112.832 2632 51.303
112.949 2593 50.9215
113.066 2604 51.0294
113.183 2727 52.2207
113.3 2641 51.3907
113.417 2697 51.9326
113.534 2675 51.7204
113.652 2578 50.774
113.769 2557 50.5668
113.886 2363 48.6107
114.003 2164 46.5188
114.12 2079 45.5961
114.238 2095 45.7712
114.355 2114 45.9783
114.472 2263 47.571
114.589 2784 52.7636
114.707 2789 52.811
114.824 2949 54.3047
114.942 2930 54.1295
115.059 3086 55.5518
115.176 2967 54.4702
115.294 3034 55.0818
115.411 2941 54.231
115.529 2912 53.963
115.646 2755 52.4881
115.764 2727 52.2207
115.881 2683 51.7977
115.999 2576 50.7543
116.116 2547 50.4678
116.234 2371 48.6929
116.351 2453 49.5278
116.469 2413 49.1223
116.586 2387 48.8569
116.704 2341 48.3839
116.821 2497 49.97
116.939 2594 50.9313
117.056 2561 50.6063
117.174 2380 48.7852
117.291 2474 49.7393
117.409 2447 49.4672
117.526 2292 47.8748
117.644 2096 45.7821
117.761 2017 44.911
117.879 1994 44.6542
117.996 2144 46.3033
118.114 2487 49.8698
118.231 2645 51.4296
118.349 2770 52.6308
118.466 2871 53.5817
118.584 2935 54.1756
118.701 2886 53.7215
118.819 2936 54.1849
118.936 2808 52.9906
119.053 2888 53.7401
119.171 2824 53.1413
119.288 2665 51.6236
119.405 2649 51.4684
119.523 2537 50.3686
119.64 2553 50.5272
119.757 2506 50.06
119.875 2426 49.2544
119.992 2406 49.051
120.109 2302 47.9792
120.226 2385 48.8365
120.343 2368 48.6621
120.46 2482 49.8197
120.578 2421 49.2037
120.695 2474 49.7393
120.812 2534 50.3389
120.929 2448 49.4773
121.046 2373 48.7134
121.163 2295 47.9062
121.279 2016 44.8999
121.396 1924 43.8634
121.513 1746 41.7852
121.63 1846 42.9651
121.747 1907 43.6692
121.863 2043 45.1996
121.98 2124 46.0869
122.097 2177 46.6583
122.213 2139 46.2493
122.33 2037 45.1331
122.446 1855 43.0697
122.563 1957 44.238
122.679 1738 41.6893
122.795 1701 41.2432
122.912 1531 39.128
123.028 1476 38.4187
123.144 1301 36.0694
123.26 1250 35.3553
123.377 0 1
123.493 0 1
123.609 0 1
123.725 0 1
123.84 0 1
123.956 0 1
124.072 0 1
124.188 0 1
124.303 0 1
124.419 0 1
126.852 0 1
126.968 0 1
127.083 0 1
127.199 0 1
127.315 0 1
127.431 0 1
127.547 0 1
127.663 0 1
127.779 0 1
127.895 0 1
128.011 0 1
128.127 0 1
128.243 0 1
128.359 2846 53.3479
128.476 2712 52.0769
128.592 2708 52.0384
128.708 2631 51.2933
128.825 2656 51.5364
128.941 2557 50.5668
129.058 2574 50.7346
129.174 2584 50.8331
129.291 2466 49.6588
129.408 2551 50.5074
129.524 2455 49.548
129.641 2601 51
129.758 2668 51.6527
129.875 2472 49.7192
129.992 2680 51.7687
130.108 2583 50.8232
130.225 2554 50.5371
130.342 2354 48.518
130.459 2184 46.7333
130.576 2126 46.1086
130.693 2026 45.0111
130.81 2115 45.9891
130.928 2346 48.4355
131.045 2510 50.0999
131.162 2670 51.672
131.279 2714 52.0961
131.396 2705 52.0096
131.513 2774 52.6688
131.631 2808 52.9906
131.748 2721 52.1632
131.865 2733 52.2781
131.983 2603 51.0196
132.1 2586 50.8527
132.217 2520 50.1996
132.335 2464 49.6387
132.452 2439 49.3862
132.57 2438 49.3761
132.687 2428 49.2747
132.804 2401 49
132.922 2404 49.0306
133.039 2465 49.6488
133.157 2465 49.6488
133.274 2499 49.99
133.392 2531 50.309
133.509 2429 49.2849
133.627 2538 50.3786
133.744 2475 49.7494
133.862 2363 48.6107
133.979 2173 46.6154
134.097 2073 45.5302
134.214 1981 44.5084
134.332 1969 44.3734
134.449 2131 46.1628
134.567 2293 47.8853
134.684 2495 49.95
134.802 2579 50.7839
134.919 2499 49.99
135.037 2607 51.0588
135.154 2524 50.2394
135.272 2446 49.4571
135.389 2646 51.4393
135.507 2538 50.3786
135.624 2391 48.8979
135.742 2519 50.1896
135.859 2504 50.04
135.977 2409 49.0816
136.094 2356 48.5386
136.211 2293 47.8853
136.329 2414 49.1325
136.446 2321 48.1768
136.564 2369 48.6724
136.681 2352 48.4974
136.798 2319 48.156
136.915 2380 48.7852
137.033 2448 49.4773
137.15 2339 48.3632
137.267 2491 49.9099
137.384 2331 48.2804
137.502 2350 48.4768
137.619 2185 46.744
137.736 2081 45.618
137.853 1938 44.0227
137.97 1946 44.1135
138.087 1913 43.7379
138.204 2193 46.8295
138.321 2193 46.8295
138.438 2332 48.2908
138.555 2381 48.7955
138.672 2409 49.0816
138.788 2407 49.0612
138.905 2360 48.5798
139.022 2230 47.2229
139.139 2079 45.5961
139.255 2034 45.0999
139.372 1793 42.3438
139.488 1727 41.5572
139.605 1656 40.694
139.721 1486 38.5487
139.838 1403 37.4566
139.954 1406 37.4967
140.071 1364 36.9324
140.187 1275 35.7071
140.303 1248 35.327
140.419 1194 34.5543
140.535 1129 33.6006
140.652 1112 33.3467
140.768 0 1
140.884 0 1
141 0 1
141.115 0 1
141.231 0 1
141.347 0 1
141.463 0 1
141.578 0 1
141.694 0 1
144.104 0 1
144.219 0 1
144.335 0 1
144.45 0 1
144.566 0 1
144.682 0 1
144.798 0 1
144.914 0 1
145.03 0 1
145.146 1757 41.9166
145.262 1875 43.3013
145.378 1891 43.4856
145.494 1814 42.5911
145.61 1872 43.2666
145.726 1863 43.1625
145.842 1907 43.6692
145.959 1819 42.6497
146.075 1859 43.1161
146.192 1845 42.9535
146.308 1869 43.2319
146.425 1803 42.4617
146.541 1711 41.3642
146.658 1605 40.0625
146.774 1530 39.1152
146.891 1608 40.0999
147.008 1730 41.5933
147.125 1763 41.9881
147.241 1891 43.4856
147.358 1978 44.4747
147.475 1959 44.2606
147.592 1980 44.4972
147.709 2012 44.8553
147.826 2008 44.8107
147.943 1940 44.0454
148.06 2046 45.2327
148.177 1944 44.0908
148.294 1949 44.1475
148.411 1929 43.9204
148.528 1985 44.5533
148.645 1921 43.8292
148.762 1897 43.5546
148.88 1889 43.4626
148.997 1881 43.3705
149.114 1750 41.833
149.231 1822 42.6849
149.349 1837 42.8602
149.466 1770 42.0714
149.583 1799 42.4146
149.701 1816 42.6146
149.818 1892 43.4971
149.935 1847 42.9767
150.053 1893 43.5086
150.17 1744 41.7612
150.287 1681 41
150.405 1608 40.0999
150.522 1558 39.4715
150.64 1639 40.4846
150.757 1703 41.2674
150.875 1766 42.0238
150.992 1823 42.6966
151.11 1925 43.8748
151.227 1933 43.9659
151.344 1917 43.7836
151.462 1869 43.2319
151.579 1965 44.3283
151.697 1838 42.8719
151.814 1893 43.5086
151.932 1889 43.4626
152.049 1971 44.3959
152.167 1766 42.0238
152.284 1897 43.5546
152.402 1805 42.4853
152.519 1766 42.0238
152.636 1714 41.4005
152.754 1827 42.7434
152.871 1754 41.8808
152.989 1760 41.9524
153.106 1743 41.7493
153.223 1819 42.6497
153.341 1806 42.4971
153.458 1702 41.2553
153.575 1861 43.1393
153.693 1772 42.0951
153.81 1648 40.5956
153.927 1699 41.2189
154.044 1575 39.6863
154.162 1558 39.4715
154.279 1734 41.6413
154.396 1737 41.6773
154.513 1754 41.8808
154.63 1898 43.566
154.747 1820 42.6615
154.864 1879 43.3474
154.981 1854 43.0581
155.098 1880 43.359
155.215 1840 42.8952
155.332 1814 42.5911
155.449 1832 42.8019
155.566 1746 41.7852
155.683 1717 41.4367
155.8 1701 41.2432
155.917 1670 40.8656
156.033 1633 40.4104
156.15 0 1
156.267 0 1
156.383 0 1
156.5 0 1
156.617 0 1
156.733 0 1
156.85 0 1
156.966 0 1
157.082 0 1
157.199 0 1
157.315 0 1
157.431 0 1
157.547 0 1
157.664 0 1
157.78 0 1
157.896 0 1
158.012 0 1
158.128 0 1
158.244 0 1
158.359 0 1
158.475 0 1
158.591 0 1
158.706 0 1
