
6.15755 0 1
6.2731 0 1
6.3887 0 1
6.50437 0 1
6.62009 0 1
6.73587 0 1
6.8517 0 1
6.96759 0 1
7.08353 0 1
7.19952 0 1
7.31557 0 1
7.43166 0 1
7.54781 0 1
7.664 0 1
7.78024 0 1
7.89653 0 1
8.01286 0 1
8.12924 0 1
8.24567 0 1
8.36213 0 1
8.47864 0 1
8.59519 0 1
8.71178 0 1
8.82841 0 1
8.94508 0 1
9.06179 0 1
9.17853 0 1
9.29531 0 1
9.41212 0 1
9.52897 0 1
9.64584 0 1
9.76276 0 1
9.8797 0 1
9.99667 0 1
10.1137 0 1
10.2307 0 1
10.3478 0 1
10.4648 0 1
10.5819 0 1
10.6991 0 1
10.8162 0 1
10.9334 0 1
11.0506 0 1
11.1678 0 1
11.285 0 1
11.4023 0 1
11.5196 0 1
11.6369 0 1
11.7542 0 1
11.8715 0 1
11.9888 0 1
12.1062 0 1
12.2235 0 1
12.3409 0 1
12.4582 0 1
12.5756 0 1
12.693 0 1
12.8104 0 1
12.9278 0 1
13.0452 0 1
13.1626 0 1
13.28 0 1
13.3974 0 1
13.5149 0 1
13.6323 0 1
13.7497 0 1
13.8671 0 1
13.9845 0 1
14.1019 0 1
14.2193 0 1
14.3367 0 1
14.4541 0 1
14.5714 0 1
14.6888 0 1
14.8062 0 1
14.9235 0 1
15.0408 1919 43.8064
15.1581 2051 45.288
15.2755 2064 45.4313
15.3927 2139 46.2493
15.51 2096 45.7821
15.6273 2027 45.0222
15.7445 1904 43.6348
15.8617 1935 43.9886
15.9789 1871 43.2551
16.0961 1898 43.566
16.2132 1860 43.1277
16.3304 1821 42.6732
16.4475 1792 42.332
16.5646 1803 42.4617
16.6816 1762 41.9762
16.7986 1681 41
16.9156 1691 41.1218
17.0326 1680 40.9878
17.1496 1545 39.3065
17.2665 1515 38.923
17.3833 1529 39.1024
17.5002 1498 38.704
17.617 1515 38.923
17.7338 1612 40.1497
17.8505 1641 40.5093
17.9672 1744 41.7612
18.0839 1817 42.6263
18.2005 1864 43.1741
18.3171 1875 43.3013
18.4337 1885 43.4166
18.5502 1946 44.1135
18.6666 1817 42.6263
18.7831 1997 44.6878
18.8994 1906 43.6578
19.0158 1801 42.4382
19.1321 1805 42.4853
19.2483 1710 41.3521
19.3645 1579 39.7366
19.4806 1521 39
19.5967 1502 38.7556
19.7128 1527 39.0768
19.8288 1579 39.7366
19.9447 1368 36.9865
20.0606 0 1
20.1764 0 1
20.2922 0 1
20.4079 0 1
20.5236 0 1
20.6392 0 1
20.7548 0 1
20.8702 0 1
23.3078 0 1
23.4233 0 1
23.539 0 1
23.6547 0 1
23.7704 0 1
23.8862 0 1
24.0021 0 1
24.118 0 1
24.234 0 1
24.35 0 1
24.4661 1382 37.1753
24.5822 1374 37.0675
24.6984 1419 37.6696
24.8146 1365 36.9459
24.9309 1515 38.923
25.0472 1568 39.598
25.1636 1614 40.1746
25.28 1584 39.7995
25.3965 1575 39.6863
25.513 1605 40.0625
25.6296 1625 40.3113
25.7462 1616 40.1995
25.8628 1565 39.5601
25.9795 1506 38.8072
26.0962 1475 38.4057
26.213 1436 37.8946
26.3298 1369 37
26.4466 1444 38
26.5635 1446 38.0263
26.6804 1564 39.5474
26.7973 1493 38.6394
26.9143 1512 38.8844
27.0313 1583 39.7869
27.1483 1645 40.5586
27.2653 1632 40.398
27.3824 1634 40.4228
27.4996 1563 39.5348
27.6167 1640 40.4969
27.7339 1555 39.4335
27.8511 1529 39.1024
27.9683 1456 38.1576
28.0855 1455 38.1445
28.2028 1470 38.3406
28.3201 1357 36.8375
28.4374 1363 36.9188
28.5547 1416 37.6298
28.6721 1544 39.2938
28.7894 1455 38.1445
28.9068 1535 39.1791
29.0242 1429 37.8021
29.1416 1461 38.223
29.259 1424 37.7359
29.3764 1473 38.3797
29.4939 1301 36.0694
29.6113 1242 35.242
29.7288 1319 36.318
29.8463 1288 35.8887
29.9638 1245 35.2846
30.0812 1341 36.6197
30.1987 1386 37.229
30.3162 1391 37.2961
30.4337 1388 37.2559
30.5512 1406 37.4967
30.6687 1487 38.5616
30.7862 1494 38.6523
30.9037 1565 39.5601
31.0212 1565 39.5601
31.1387 1461 38.223
31.2562 1484 38.5227
31.3737 1475 38.4057
31.4912 1514 38.9102
31.6087 1412 37.5766
31.7262 1347 36.7015
31.8436 1415 37.6165
31.9611 1332 36.4966
32.0785 1432 37.8418
32.1959 1358 36.8511
32.3134 1429 37.8021
32.4308 1366 36.9594
32.5482 1375 37.081
32.6655 1381 37.1618
32.7829 1377 37.108
32.9002 1321 36.3456
33.0176 1337 36.565
33.1349 1271 35.6511
33.2522 1322 36.3593
33.3694 1218 34.8999
33.4867 1306 36.1386
33.6039 1222 34.9571
33.7211 1277 35.7351
33.8383 1317 36.2905
33.9554 1360 36.8782
34.0725 1320 36.3318
34.1896 1491 38.6135
34.3067 1419 37.6696
34.4237 1471 38.3536
34.5407 1442 37.9737
34.6577 1397 37.3765
34.7746 1461 38.223
34.8915 1512 38.8844
35.0084 1431 37.8286
35.1252 1454 38.1314
35.242 1375 37.081
35.3587 1309 36.1801
35.4755 1277 35.7351
35.5921 1288 35.8887
35.7088 1378 37.1214
35.8254 1257 35.4542
35.9419 1378 37.1214
36.0584 1356 36.8239
36.1749 1369 37
36.2913 1338 36.5787
36.4077 1351 36.756
36.524 1288 35.8887
36.6403 1299 36.0416
36.7565 1270 35.6371
36.8727 1247 35.3129
36.9889 1225 35
37.1049 1210 34.7851
37.221 0 1
37.3369 0 1
37.4529 0 1
37.5687 0 1
37.6845 0 1
37.8003 0 1
37.916 0 1
38.0316 0 1
38.1472 0 1
40.5851 0 1
40.7008 0 1
40.8164 0 1
40.9322 0 1
41.048 0 1
41.1639 0 1
41.2798 0 1
41.3958 0 1
41.5118 0 1
41.6279 0 1
41.744 927 30.4467
41.8602 1030 32.0936
41.9765 1007 31.7333
42.0928 993 31.5119
42.2091 993 31.5119
42.3255 962 31.0161
42.4419 981 31.3209
42.5584 952 30.8545
42.675 965 31.0644
42.7915 1044 32.311
42.9081 1001 31.6386
43.0248 1048 32.3728
43.1415 1091 33.0303
43.2582 1008 31.749
43.375 1121 33.4813
43.4918 1053 32.45
43.6087 1088 32.9848
43.7256 1091 33.0303
43.8425 1051 32.4191
43.9595 1029 32.078
44.0765 1002 31.6544
44.1935 949 30.8058
44.3106 876 29.5973
44.4277 890 29.8329
44.5448 821 28.6531
44.6619 811 28.4781
44.7791 836 28.9137
44.8963 862 29.3598
45.0136 840 28.9828
45.1308 821 28.6531
45.2481 799 28.2666
45.3654 820 28.6356
45.4827 784 28
45.6001 796 28.2135
45.7174 755 27.4773
45.8348 741 27.2213
45.9522 728 26.9815
46.0697 706 26.5707
46.1871 683 26.1343
46.3046 748 27.3496
46.422 743 27.258
46.5395 755 27.4773
46.657 755 27.4773
46.7745 723 26.8887
46.892 747 27.3313
47.0096 808 28.4253
47.1271 760 27.5681
47.2446 756 27.4955
47.3622 740 27.2029
47.4797 704 26.533
47.5973 745 27.2947
47.7149 732 27.0555
47.8324 671 25.9037
47.95 665 25.7876
48.0675 641 25.318
48.1851 572 23.9165
48.3027 644 25.3772
48.4202 662 25.7294
48.5378 666 25.807
48.6554 662 25.7294
48.7729 645 25.3969
48.8904 661 25.7099
49.008 604 24.5764
49.1255 643 25.3574
49.243 621 24.9199
49.3605 602 24.5357
49.478 617 24.8395
49.5955 658 25.6515
49.713 667 25.8263
49.8304 715 26.7395
49.9479 639 25.2784
50.0653 739 27.1846
50.1827 739 27.1846
50.3001 711 26.6646
50.4175 719 26.8142
50.5348 774 27.8209
50.6521 832 28.8444
50.7694 730 27.0185
50.8867 844 29.0517
51.004 829 28.7924
51.1212 871 29.5127
51.2384 848 29.1204
51.3556 803 28.3373
51.4727 813 28.5132
51.5899 825 28.7228
51.707 816 28.5657
51.824 891 29.8496
51.9411 860 29.3258
52.0581 916 30.2655
52.175 926 30.4302
52.2919 950 30.8221
52.4088 983 31.3528
52.5257 990 31.4643
52.6425 1040 32.249
52.7593 986 31.4006
52.876 998 31.5911
52.9927 946 30.7571
53.1094 966 31.0805
53.226 963 31.0322
53.3426 951 30.8383
53.4591 1045 32.3265
53.5756 1042 32.28
53.692 1051 32.4191
53.8084 1108 33.2866
53.9248 1110 33.3167
54.0411 1193 34.5398
54.1573 1132 33.6452
54.2735 0 1
54.3896 0 1
54.5057 0 1
54.6217 0 1
54.7377 0 1
54.8537 0 1
54.9695 0 1
55.0853 0 1
55.2011 0 1
55.3168 0 1
55.4324 0 1
57.824 0 1
57.9396 0 1
58.0553 0 1
58.1711 0 1
58.2869 0 1
58.4028 0 1
58.5187 0 1
58.6347 0 1
58.7508 0 1
58.8669 0 1
58.983 1324 36.3868
59.0992 1466 38.2884
59.2155 1515 38.923
59.3318 1484 38.5227
59.4482 1493 38.6394
59.5646 1479 38.4578
59.681 1528 39.0896
59.7975 1530 39.1152
59.9141 1435 37.8814
60.0306 1407 37.51
60.1473 1525 39.0512
60.2639 1350 36.7423
60.3807 1322 36.3593
60.4974 1303 36.0971
60.6142 1391 37.2961
60.731 1442 37.9737
60.8479 1432 37.8418
60.9648 1449 38.0657
61.0818 1465 38.2753
61.1987 1454 38.1314
61.3158 1478 38.4448
61.4328 1404 37.47
61.5499 1412 37.5766
61.667 1342 36.6333
61.7841 1294 35.9722
61.9013 1244 35.2704
62.0185 1294 35.9722
62.1357 1288 35.8887
62.253 1306 36.1386
62.3702 1313 36.2353
62.4875 1417 37.6431
62.6049 1363 36.9188
62.7222 1356 36.8239
62.8396 1373 37.054
62.9569 1334 36.524
63.0743 1292 35.9444
63.1918 1284 35.8329
63.3092 1291 35.9305
63.4267 1344 36.6606
63.5441 1289 35.9026
63.6616 1307 36.1525
63.7791 1249 35.3412
63.8966 1125 33.541
64.0142 1177 34.3074
64.1317 1164 34.1174
64.2492 1213 34.8281
64.3668 1268 35.609
64.4843 1245 35.2846
64.6019 1236 35.1568
64.7195 1282 35.805
64.837 1261 35.5106
64.9546 1258 35.4683
65.0722 1258 35.4683
65.1898 1239 35.1994
65.3074 1243 35.2562
65.4249 1173 34.2491
65.5425 1106 33.2566
65.6601 1140 33.7639
65.7777 1154 33.9706
65.8952 1190 34.4964
66.0128 1213 34.8281
66.1304 1277 35.7351
66.2479 1298 36.0278
66.3655 1230 35.0714
66.483 1266 35.5809
66.6005 1284 35.8329
66.718 1248 35.327
66.8355 1220 34.9285
66.953 1318 36.3043
67.0705 1289 35.9026
67.1879 1251 35.3695
67.3054 1196 34.5832
67.4228 1293 35.9583
67.5402 1166 34.1467
67.6576 1193 34.5398
67.7749 1208 34.7563
67.8923 1257 35.4542
68.0096 1270 35.6371
68.1269 1398 37.3898
68.2442 1392 37.3095
68.3614 1329 36.4555
68.4787 1368 36.9865
68.5958 1465 38.2753
68.713 1398 37.3898
68.8302 1374 37.0675
68.9473 1299 36.0416
69.0643 1255 35.426
69.1814 1264 35.5528
69.2984 1227 35.0286
69.4154 1226 35.0143
69.5323 1227 35.0286
69.6492 1370 37.0135
69.7661 1345 36.6742
69.8829 1352 36.7696
69.9997 1394 37.3363
70.1165 1482 38.4968
70.2332 1393 37.3229
70.3499 1447 38.0395
70.4665 1431 37.8286
70.5831 1456 38.1576
70.6996 1447 38.0395
70.8161 1384 37.2022
70.9326 1440 37.9473
71.049 1311 36.2077
71.1653 1378 37.1214
71.2817 1355 36.8103
71.3979 1295 35.9861
71.5141 1300 36.0555
71.6303 1337 36.565
71.7464 1321 36.3456
71.8624 0 1
71.9784 0 1
72.0944 0 1
72.2102 0 1
72.3261 0 1
72.4418 0 1
72.5575 0 1
72.6732 0 1
75.1054 0 1
75.2209 0 1
75.3365 0 1
75.4521 0 1
75.5678 0 1
75.6835 0 1
75.7993 0 1
75.9151 0 1
76.031 0 1
76.147 1349 36.7287
76.263 1422 37.7094
76.3791 1486 38.5487
76.4952 1443 37.9868
76.6113 1407 37.51
76.7276 1439 37.9342
76.8438 1462 38.2361
76.9601 1535 39.1791
77.0765 1640 40.4969
77.1929 1689 41.0974
77.3093 1552 39.3954
77.4258 1680 40.9878
77.5423 1580 39.7492
77.6589 1634 40.4228
77.7755 1559 39.4842
77.8921 1490 38.6005
78.0088 1459 38.1969
78.1256 1423 37.7227
78.2423 1411 37.5633
78.3591 1355 36.8103
78.4759 1408 37.5233
78.5928 1493 38.6394
78.7097 1465 38.2753
78.8266 1404 37.47
78.9436 1596 39.95
79.0606 1497 38.6911
79.1776 1511 38.8716
79.2946 1500 38.7298
79.4117 1578 39.724
79.5288 1483 38.5097
79.6459 1533 39.1535
79.7631 1462 38.2361
79.8802 1471 38.3536
79.9974 1473 38.3797
80.1147 1513 38.8973
80.2319 1434 37.8682
80.3491 1347 36.7015
80.4664 1401 37.4299
80.5837 1450 38.0789
80.701 1601 40.0125
80.8183 1570 39.6232
80.9357 1490 38.6005
81.053 1485 38.5357
81.1704 1481 38.4838
81.2877 1443 37.9868
81.4051 1495 38.6652
81.5225 1440 37.9473
81.6399 1341 36.6197
81.7573 1339 36.5923
81.8747 1296 36
81.9922 1262 35.5246
82.1096 1198 34.6121
82.227 1260 35.4965
82.3444 1332 36.4966
82.4619 1413 37.5899
82.5793 1345 36.6742
82.6967 1408 37.5233
82.8142 1463 38.2492
82.9316 1351 36.756
83.049 1407 37.51
83.1664 1341 36.6197
83.2838 1415 37.6165
83.4012 1446 38.0263
83.5186 1474 38.3927
83.636 1452 38.1051
83.7534 1399 37.4032
83.8708 1274 35.6931
83.9881 1332 36.4966
84.1055 1308 36.1663
84.2228 1400 37.4166
84.3401 1412 37.5766
84.4575 1447 38.0395
84.5747 1571 39.6358
84.692 1453 38.1182
84.8093 1589 39.8623
84.9265 1500 38.7298
85.0437 1411 37.5633
85.1609 1409 37.5366
85.2781 1327 36.428
85.3952 1369 37
85.5123 1344 36.6606
85.6294 1330 36.4692
85.7465 1320 36.3318
85.8636 1380 37.1484
85.9806 1433 37.855
86.0976 1421 37.6962
86.2145 1473 38.3797
86.3315 1467 38.3014
86.4484 1532 39.1408
86.5652 1576 39.6989
86.682 1550 39.37
86.7988 1581 39.7618
86.9156 1516 38.9358
87.0323 1540 39.2428
87.149 1482 38.4968
87.2657 1499 38.7169
87.3823 1491 38.6135
87.4988 1463 38.2492
87.6154 1481 38.4838
87.7318 1472 38.3667
87.8483 1555 39.4335
87.9647 1588 39.8497
88.081 1556 39.4462
88.1973 1592 39.8999
88.3136 1604 40.05
88.4298 1623 40.2865
88.546 1543 39.281
88.6621 1514 38.9102
88.7781 1400 37.4166
88.8942 0 1
89.0101 0 1
89.126 0 1
89.2419 0 1
89.3577 0 1
89.4734 0 1
89.5891 0 1
89.7047 0 1
89.8203 0 1
89.9358 0 1
92.3269 0 1
92.4424 0 1
92.558 0 1
92.6736 0 1
92.7893 0 1
92.905 0 1
93.0208 0 1
93.1366 0 1
93.2525 0 1
93.3685 0 1
93.4845 0 1
93.6005 1403 37.4566
93.7167 1451 38.092
93.8328 1558 39.4715
93.949 1450 38.0789
94.0653 1494 38.6523
94.1816 1379 37.1349
94.2979 1364 36.9324
94.4143 1307 36.1525
94.5307 1279 35.7631
94.6472 1267 35.5949
94.7637 1366 36.9594
94.8803 1330 36.4692
94.9969 1467 38.3014
95.1135 1415 37.6165
95.2302 1375 37.081
95.3469 1476 38.4187
95.4637 1505 38.7943
95.5805 1479 38.4578
95.6973 1541 39.2556
95.8142 1507 38.8201
95.9311 1509 38.8458
96.048 1509 38.8458
96.1649 1430 37.8153
96.2819 1513 38.8973
96.3989 1439 37.9342
96.516 1454 38.1314
96.633 1371 37.027
96.7501 1428 37.7889
96.8673 1416 37.6298
96.9844 1443 37.9868
97.1016 1448 38.0526
97.2188 1508 38.833
97.336 1451 38.092
97.4532 1471 38.3536
97.5704 1529 39.1024
97.6877 1531 39.128
97.805 1446 38.0263
97.9223 1393 37.3229
98.0396 1327 36.428
98.1569 1282 35.805
98.2743 1239 35.1994
98.3916 1275 35.7071
98.509 1281 35.7911
98.6264 1289 35.9026
98.7438 1311 36.2077
98.8612 1395 37.3497
98.9786 1374 37.0675
99.096 1360 36.8782
99.2134 1415 37.6165
99.3308 1412 37.5766
99.4482 1406 37.4967
99.5656 1381 37.1618
99.6831 1376 37.0945
99.8005 1362 36.9053
99.9179 1327 36.428
100.035 1370 37.0135
100.153 1333 36.5103
100.27 1313 36.2353
100.388 1327 36.428
100.505 1332 36.4966
100.622 1375 37.081
100.74 1420 37.6829
100.857 1413 37.5899
100.975 1471 38.3536
101.092 1500 38.7298
101.209 1450 38.0789
101.327 1487 38.5616
101.444 1384 37.2022
101.561 1372 37.0405
101.679 1344 36.6606
101.796 1281 35.7911
101.913 1261 35.5106
102.03 1217 34.8855
102.148 1315 36.2629
102.265 1256 35.4401
102.382 1525 39.0512
102.499 1452 38.1051
102.616 1421 37.6962
102.733 1496 38.6782
102.851 1540 39.2428
102.968 1539 39.2301
103.085 1449 38.0657
103.202 1508 38.833
103.319 1535 39.1791
103.436 1508 38.833
103.552 1484 38.5227
103.669 1473 38.3797
103.786 1426 37.7624
103.903 1459 38.1969
104.02 1474 38.3927
104.137 1471 38.3536
104.253 1565 39.5601
104.37 1548 39.3446
104.487 1536 39.1918
104.603 1581 39.7618
104.72 1577 39.7115
104.836 1564 39.5474
104.953 1521 39
105.069 1444 38
105.186 1479 38.4578
105.302 1335 36.5377
105.418 1248 35.327
105.535 1397 37.3765
105.651 1382 37.1753
105.767 1411 37.5633
105.883 1500 38.7298
105.999 1471 38.3536
106.115 0 1
106.231 0 1
106.347 0 1
106.463 0 1
106.579 0 1
106.694 0 1
106.81 0 1
106.926 0 1
107.041 0 1
107.157 0 1
109.576 0 1
109.692 0 1
109.807 0 1
109.923 0 1
110.039 0 1
110.155 0 1
110.27 0 1
110.386 0 1
110.502 0 1
110.618 1249 35.3412
110.735 1201 34.6554
110.851 1259 35.4824
110.967 1351 36.756
111.083 1340 36.606
111.199 1403 37.4566
111.316 1330 36.4692
111.432 1340 36.606
111.549 1418 37.6563
111.665 1349 36.7287
111.782 1407 37.51
111.898 1312 36.2215
112.015 1358 36.8511
112.132 1261 35.5106
112.248 1250 35.3553
112.365 1212 34.8138
112.482 1246 35.2987
112.599 1177 34.3074
112.716 1218 34.8999
112.832 1216 34.8712
112.949 1319 36.318
113.066 1255 35.426
113.183 1237 35.171
113.3 1361 36.8917
113.417 1404 37.47
113.534 1249 35.3412
113.652 1163 34.1028
113.769 1167 34.1614
113.886 1100 33.1662
114.003 1004 31.686
114.12 1021 31.9531
114.238 1049 32.3883
114.355 1165 34.1321
114.472 1144 33.8231
114.589 1145 33.8378
114.707 1178 34.322
114.824 1102 33.1964
114.942 1131 33.6303
115.059 1138 33.7343
115.176 1102 33.1964
115.294 1117 33.4215
115.411 1112 33.3467
115.529 1047 32.3574
115.646 1055 32.4808
115.764 1035 32.1714
115.881 992 31.496
115.999 950 30.8221
116.116 925 30.4138
116.234 968 31.1127
116.351 891 29.8496
116.469 995 31.5436
116.586 899 29.9833
116.704 1024 32
116.821 994 31.5278
116.939 1040 32.249
117.056 1062 32.5883
117.174 950 30.8221
117.291 983 31.3528
117.409 905 30.0832
117.526 854 29.2233
117.644 893 29.8831
117.761 885 29.7489
117.879 959 30.9677
117.996 956 30.9192
118.114 964 31.0483
118.231 1051 32.4191
118.349 1005 31.7017
118.466 982 31.3369
118.584 963 31.0322
118.701 992 31.496
118.819 965 31.0644
118.936 994 31.5278
119.053 950 30.8221
119.171 981 31.3209
119.288 923 30.3809
119.405 964 31.0483
119.523 964 31.0483
119.64 927 30.4467
119.757 936 30.5941
119.875 977 31.257
119.992 976 31.241
120.109 995 31.5436
120.226 1042 32.28
120.343 1037 32.2025
120.46 1111 33.3317
120.578 1075 32.7872
120.695 1106 33.2566
120.812 1108 33.2866
120.929 1079 32.8481
121.046 1097 33.121
121.163 977 31.257
121.279 935 30.5778
121.396 966 31.0805
121.513 1043 32.2955
121.63 1020 31.9374
121.747 1088 32.9848
121.863 1103 33.2114
121.98 1098 33.1361
122.097 1160 34.0588
122.213 1147 33.8674
122.33 1215 34.8569
122.446 1199 34.6266
122.563 1210 34.7851
122.679 1095 33.0908
122.795 1128 33.5857
122.912 1176 34.2929
123.028 1149 33.8969
123.144 1124 33.5261
123.26 1090 33.0151
123.377 0 1
123.493 0 1
123.609 0 1
123.725 0 1
123.84 0 1
123.956 0 1
124.072 0 1
124.188 0 1
124.303 0 1
124.419 0 1
126.852 0 1
126.968 0 1
127.083 0 1
127.199 0 1
127.315 0 1
127.431 0 1
127.547 0 1
127.663 0 1
127.779 0 1
127.895 0 1
128.011 0 1
128.127 0 1
128.243 0 1
128.359 1361 36.8917
128.476 1301 36.0694
128.592 1344 36.6606
128.708 1217 34.8855
128.825 1302 36.0832
128.941 1225 35
129.058 1325 36.4005
129.174 1440 37.9473
129.291 1322 36.3593
129.408 1392 37.3095
129.524 1396 37.3631
129.641 1372 37.0405
129.758 1446 38.0263
129.875 1411 37.5633
129.992 1252 35.3836
130.108 1316 36.2767
130.225 1254 35.4119
130.342 1229 35.0571
130.459 1275 35.7071
130.576 1241 35.2278
130.693 1234 35.1283
130.81 1345 36.6742
130.928 1315 36.2629
131.045 1450 38.0789
131.162 1314 36.2491
131.279 1378 37.1214
131.396 1389 37.2693
131.513 1336 36.5513
131.631 1307 36.1525
131.748 1364 36.9324
131.865 1244 35.2704
131.983 1267 35.5949
132.1 1179 34.3366
132.217 1245 35.2846
132.335 1137 33.7194
132.452 1217 34.8855
132.57 1268 35.609
132.687 1266 35.5809
132.804 1343 36.647
132.922 1291 35.9305
133.039 1360 36.8782
133.157 1383 37.1887
133.274 1314 36.2491
133.392 1396 37.3631
133.509 1306 36.1386
133.627 1279 35.7631
133.744 1202 34.6699
133.862 1152 33.9411
133.979 1220 34.9285
134.097 1163 34.1028
134.214 1249 35.3412
134.332 1273 35.6791
134.449 1310 36.1939
134.567 1380 37.1484
134.684 1411 37.5633
134.802 1337 36.565
134.919 1440 37.9473
135.037 1242 35.242
135.154 1291 35.9305
135.272 1318 36.3043
135.389 1253 35.3977
135.507 1190 34.4964
135.624 1187 34.4529
135.742 1137 33.7194
135.859 1103 33.2114
135.977 1038 32.218
136.094 1117 33.4215
136.211 1060 32.5576
136.329 1185 34.4238
136.446 1166 34.1467
136.564 1131 33.6303
136.681 1150 33.9116
136.798 1190 34.4964
136.915 1163 34.1028
137.033 1226 35.0143
137.15 1139 33.7491
137.267 1113 33.3617
137.384 1037 32.2025
137.502 1029 32.078
137.619 972 31.1769
137.736 1063 32.6037
137.853 1125 33.541
137.97 1151 33.9264
138.087 1221 34.9428
138.204 1248 35.327
138.321 1253 35.3977
138.438 1324 36.3868
138.555 1281 35.7911
138.672 1306 36.1386
138.788 1331 36.4829
138.905 1276 35.7211
139.022 1262 35.5246
139.139 1207 34.7419
139.255 1249 35.3412
139.372 1231 35.0856
139.488 1202 34.6699
139.605 1193 34.5398
139.721 1229 35.0571
139.838 1208 34.7563
139.954 1302 36.0832
140.071 1263 35.5387
140.187 1363 36.9188
140.303 1411 37.5633
140.419 1431 37.8286
140.535 1479 38.4578
140.652 1429 37.8021
140.768 0 1
140.884 0 1
141 0 1
141.115 0 1
141.231 0 1
141.347 0 1
141.463 0 1
141.578 0 1
141.694 0 1
144.104 0 1
144.219 0 1
144.335 0 1
144.45 0 1
144.566 0 1
144.682 0 1
144.798 0 1
144.914 0 1
145.03 0 1
145.146 1604 40.05
145.262 1764 42
145.378 1945 44.1022
145.494 2051 45.288
145.61 2135 46.2061
145.726 2143 46.2925
145.842 2327 48.239
145.959 2399 48.9796
146.075 2406 49.051
146.192 2426 49.2544
146.308 2413 49.1223
146.425 2420 49.1935
146.541 2684 51.8073
146.658 2894 53.7959
146.774 3144 56.0714
146.891 3603 60.025
147.008 3764 61.3514
147.125 4173 64.5988
147.241 4316 65.6963
147.358 4517 67.2086
147.475 4615 67.9338
147.592 4756 68.9638
147.709 4863 69.7352
147.826 4920 70.1427
147.943 5052 71.0774
148.06 4905 70.0357
148.177 4945 70.3207
148.294 4883 69.8785
148.411 5166 71.8749
148.528 5333 73.0274
148.645 5445 73.7902
148.762 5667 75.2795
148.88 5977 77.3111
148.997 6382 79.8874
149.114 5870 76.6159
149.231 6196 78.7147
149.349 6188 78.6638
149.466 6175 78.5812
149.583 6112 78.1793
149.701 5715 75.5976
149.818 5321 72.9452
149.935 5178 71.9583
150.053 5034 70.9507
150.17 5227 72.298
150.287 5373 73.3008
150.405 5767 75.9408
150.522 6034 77.6788
150.64 5974 77.2917
150.757 5934 77.0325
150.875 6259 79.1138
150.992 6085 78.0064
151.11 6356 79.7245
151.227 5997 77.4403
151.344 6166 78.5239
151.462 6058 77.8332
151.579 5958 77.1881
151.697 5783 76.046
151.814 5694 75.4586
151.932 5548 74.4849
152.049 5547 74.4782
152.167 5678 75.3525
152.284 6053 77.801
152.402 6279 79.2401
152.519 6553 80.9506
152.636 6645 81.5169
152.754 6831 82.6499
152.871 6954 83.3906
152.989 6782 82.3529
153.106 6677 81.7129
153.223 6440 80.2496
153.341 6033 77.6724
153.458 5703 75.5182
153.575 5481 74.0338
153.693 5680 75.3658
153.81 5947 77.1168
153.927 6123 78.2496
154.044 6574 81.0802
154.162 6636 81.4616
154.279 6940 83.3067
154.396 7106 84.2971
154.513 7176 84.7113
154.63 7350 85.7321
154.747 7391 85.9709
154.864 7370 85.8487
154.981 7241 85.0941
155.098 7100 84.2615
155.215 7108 84.309
155.332 7016 83.7616
155.449 6958 83.4146
155.566 6696 81.8291
155.683 6801 82.4682
155.8 7048 83.9524
155.917 7307 85.481
156.033 7621 87.2983
156.15 0 1
156.267 0 1
156.383 0 1
156.5 0 1
156.617 0 1
156.733 0 1
156.85 0 1
156.966 0 1
157.082 0 1
157.199 0 1
157.315 0 1
157.431 0 1
157.547 0 1
157.664 0 1
157.78 0 1
157.896 0 1
158.012 0 1
158.128 0 1
158.244 0 1
158.359 0 1
158.475 0 1
158.591 0 1
158.706 0 1
