
6.15755 0 1
6.2731 0 1
6.3887 0 1
6.50437 0 1
6.62009 0 1
6.73587 0 1
6.8517 0 1
6.96759 0 1
7.08353 0 1
7.19952 0 1
7.31557 0 1
7.43166 0 1
7.54781 0 1
7.664 0 1
7.78024 0 1
7.89653 0 1
8.01286 0 1
8.12924 0 1
8.24567 0 1
8.36213 0 1
8.47864 0 1
8.59519 0 1
8.71178 0 1
8.82841 0 1
8.94508 0 1
9.06179 0 1
9.17853 0 1
9.29531 0 1
9.41212 0 1
9.52897 0 1
9.64584 0 1
9.76276 0 1
9.8797 0 1
9.99667 0 1
10.1137 0 1
10.2307 0 1
10.3478 0 1
10.4648 0 1
10.5819 0 1
10.6991 0 1
10.8162 0 1
10.9334 0 1
11.0506 0 1
11.1678 0 1
11.285 0 1
11.4023 0 1
11.5196 0 1
11.6369 0 1
11.7542 0 1
11.8715 0 1
11.9888 0 1
12.1062 0 1
12.2235 0 1
12.3409 0 1
12.4582 0 1
12.5756 0 1
12.693 0 1
12.8104 0 1
12.9278 0 1
13.0452 0 1
13.1626 0 1
13.28 0 1
13.3974 0 1
13.5149 0 1
13.6323 0 1
13.7497 0 1
13.8671 0 1
13.9845 0 1
14.1019 0 1
14.2193 0 1
14.3367 0 1
14.4541 0 1
14.5714 0 1
14.6888 0 1
14.8062 0 1
14.9235 0 1
15.0408 0 0
15.1581 0 0
15.2755 0 0
15.3927 0 0
15.51 0 0
15.6273 0 0
15.7445 0 0
15.8617 0 0
15.9789 0 0
16.0961 0 0
16.2132 0 0
16.3304 0 0
16.4475 0 0
16.5646 0 0
16.6816 0 0
16.7986 0 0
16.9156 0 0
17.0326 0 0
17.1496 0 0
17.2665 0 0
17.3833 0 0
17.5002 0 0
17.617 0 0
17.7338 0 0
17.8505 0 0
17.9672 0 0
18.0839 0 0
18.2005 0 0
18.3171 0 0
18.4337 0 0
18.5502 0 0
18.6666 0 0
18.7831 0 0
18.8994 0 0
19.0158 0 0
19.1321 0 0
19.2483 0 0
19.3645 0 0
19.4806 0 0
19.5967 0 0
19.7128 0 0
19.8288 0 0
19.9447 0 0
20.0606 0 1
20.1764 0 1
20.2922 0 1
20.4079 0 1
20.5236 0 1
20.6392 0 1
20.7548 0 1
20.8702 0 1
23.3078 0 1
23.4233 0 1
23.539 0 1
23.6547 0 1
23.7704 0 1
23.8862 0 1
24.0021 0 1
24.118 0 1
24.234 0 1
24.35 0 1
24.4661 1119 33.4515
24.5822 1044 32.311
24.6984 1094 33.0757
24.8146 1060 32.5576
24.9309 1155 33.9853
25.0472 1110 33.3167
25.1636 1151 33.9264
25.28 1154 33.9706
25.3965 1117 33.4215
25.513 1194 34.5543
25.6296 1137 33.7194
25.7462 1155 33.9853
25.8628 1199 34.6266
25.9795 1155 33.9853
26.0962 1087 32.9697
26.213 1187 34.4529
26.3298 1175 34.2783
26.4466 1186 34.4384
26.5635 1170 34.2053
26.6804 1162 34.0881
26.7973 1080 32.8634
26.9143 1051 32.4191
27.0313 963 31.0322
27.1483 1023 31.9844
27.2653 1099 33.1512
27.3824 1087 32.9697
27.4996 1116 33.4066
27.6167 1093 33.0606
27.7339 1016 31.8748
27.8511 951 30.8383
27.9683 1003 31.6702
28.0855 977 31.257
28.2028 999 31.607
28.3201 938 30.6268
28.4374 1035 32.1714
28.5547 1014 31.8434
28.6721 1024 32
28.7894 1055 32.4808
28.9068 1107 33.2716
29.0242 1124 33.5261
29.1416 1134 33.6749
29.259 1131 33.6303
29.3764 1124 33.5261
29.4939 1118 33.4365
29.6113 1099 33.1512
29.7288 1113 33.3617
29.8463 1104 33.2265
29.9638 1175 34.2783
30.0812 1038 32.218
30.1987 1049 32.3883
30.3162 1026 32.0312
30.4337 1026 32.0312
30.5512 960 30.9839
30.6687 865 29.4109
30.7862 962 31.0161
30.9037 974 31.209
31.0212 1004 31.686
31.1387 980 31.305
31.2562 990 31.4643
31.3737 924 30.3974
31.4912 979 31.289
31.6087 1014 31.8434
31.7262 990 31.4643
31.8436 1021 31.9531
31.9611 1001 31.6386
32.0785 1008 31.749
32.1959 988 31.4325
32.3134 1117 33.4215
32.4308 1074 32.7719
32.5482 1066 32.6497
32.6655 1043 32.2955
32.7829 1043 32.2955
32.9002 1001 31.6386
33.0176 1053 32.45
33.1349 1045 32.3265
33.2522 1157 34.0147
33.3694 1143 33.8083
33.4867 1081 32.8786
33.6039 1091 33.0303
33.7211 1071 32.7261
33.8383 1061 32.573
33.9554 1082 32.8938
34.0725 1025 32.0156
34.1896 938 30.6268
34.3067 906 30.0998
34.4237 900 30
34.5407 954 30.8869
34.6577 964 31.0483
34.7746 1004 31.686
34.8915 992 31.496
35.0084 961 31
35.1252 870 29.4958
35.242 916 30.2655
35.3587 938 30.6268
35.4755 970 31.1448
35.5921 980 31.305
35.7088 980 31.305
35.8254 1041 32.2645
35.9419 1004 31.686
36.0584 1013 31.8277
36.1749 1094 33.0757
36.2913 1063 32.6037
36.4077 1089 33
36.524 1077 32.8177
36.6403 1028 32.0624
36.7565 980 31.305
36.8727 1037 32.2025
36.9889 1074 32.7719
37.1049 1019 31.9218
37.221 0 1
37.3369 0 1
37.4529 0 1
37.5687 0 1
37.6845 0 1
37.8003 0 1
37.916 0 1
38.0316 0 1
38.1472 0 1
40.5851 0 1
40.7008 0 1
40.8164 0 1
40.9322 0 1
41.048 0 1
41.1639 0 1
41.2798 0 1
41.3958 0 1
41.5118 0 1
41.6279 0 1
41.744 854 29.2233
41.8602 827 28.7576
41.9765 821 28.6531
42.0928 869 29.4788
42.2091 860 29.3258
42.3255 851 29.1719
42.4419 829 28.7924
42.5584 864 29.3939
42.675 875 29.5804
42.7915 850 29.1548
42.9081 805 28.3725
43.0248 790 28.1069
43.1415 710 26.6458
43.2582 750 27.3861
43.375 740 27.2029
43.4918 831 28.8271
43.6087 767 27.6948
43.7256 822 28.6705
43.8425 765 27.6586
43.9595 726 26.9444
44.0765 723 26.8887
44.1935 731 27.037
44.3106 736 27.1293
44.4277 796 28.2135
44.5448 778 27.8927
44.6619 773 27.8029
44.7791 848 29.1204
44.8963 813 28.5132
45.0136 816 28.5657
45.1308 743 27.258
45.2481 759 27.55
45.3654 740 27.2029
45.4827 732 27.0555
45.6001 723 26.8887
45.7174 729 27
45.8348 734 27.0924
45.9522 728 26.9815
46.0697 682 26.1151
46.1871 746 27.313
46.3046 683 26.1343
46.422 707 26.5895
46.5395 639 25.2784
46.657 591 24.3105
46.7745 584 24.1661
46.892 579 24.0624
47.0096 636 25.219
47.1271 605 24.5967
47.2446 610 24.6982
47.3622 602 24.5357
47.4797 564 23.7487
47.5973 542 23.2809
47.7149 578 24.0416
47.8324 582 24.1247
47.95 580 24.0832
48.0675 604 24.5764
48.1851 550 23.4521
48.3027 595 24.3926
48.4202 594 24.3721
48.5378 623 24.96
48.6554 553 23.516
48.7729 614 24.779
48.8904 587 24.2281
49.008 612 24.7386
49.1255 613 24.7588
49.243 658 25.6515
49.3605 612 24.7386
49.478 575 23.9792
49.5955 604 24.5764
49.713 613 24.7588
49.8304 612 24.7386
49.9479 581 24.1039
50.0653 579 24.0624
50.1827 591 24.3105
50.3001 532 23.0651
50.4175 529 23
50.5348 543 23.3024
50.6521 604 24.5764
50.7694 561 23.6854
50.8867 663 25.7488
51.004 696 26.3818
51.1212 648 25.4558
51.2384 678 26.0384
51.3556 674 25.9615
51.4727 759 27.55
51.5899 769 27.7308
51.707 763 27.6225
51.824 739 27.1846
51.9411 766 27.6767
52.0581 742 27.2397
52.175 767 27.6948
52.2919 752 27.4226
52.4088 740 27.2029
52.5257 751 27.4044
52.6425 786 28.0357
52.7593 735 27.1109
52.876 772 27.7849
52.9927 783 27.9821
53.1094 813 28.5132
53.226 811 28.4781
53.3426 773 27.8029
53.4591 816 28.5657
53.5756 846 29.0861
53.692 775 27.8388
53.8084 813 28.5132
53.9248 725 26.9258
54.0411 721 26.8514
54.1573 678 26.0384
54.2735 0 1
54.3896 0 1
54.5057 0 1
54.6217 0 1
54.7377 0 1
54.8537 0 1
54.9695 0 1
55.0853 0 1
55.2011 0 1
55.3168 0 1
55.4324 0 1
57.824 0 1
57.9396 0 1
58.0553 0 1
58.1711 0 1
58.2869 0 1
58.4028 0 1
58.5187 0 1
58.6347 0 1
58.7508 0 1
58.8669 0 1
58.983 806 28.3901
59.0992 808 28.4253
59.2155 753 27.4408
59.3318 810 28.4605
59.4482 798 28.2489
59.5646 793 28.1603
59.681 851 29.1719
59.7975 865 29.4109
59.9141 796 28.2135
60.0306 870 29.4958
60.1473 888 29.7993
60.2639 879 29.6479
60.3807 899 29.9833
60.4974 894 29.8998
60.6142 910 30.1662
60.731 861 29.3428
60.8479 862 29.3598
60.9648 859 29.3087
61.0818 872 29.5296
61.1987 903 30.05
61.3158 839 28.9655
61.4328 847 29.1033
61.5499 828 28.775
61.667 826 28.7402
61.7841 832 28.8444
61.9013 885 29.7489
62.0185 831 28.8271
62.1357 765 27.6586
62.253 789 28.0891
62.3702 841 29
62.4875 751 27.4044
62.6049 742 27.2397
62.7222 707 26.5895
62.8396 709 26.6271
62.9569 704 26.533
63.0743 737 27.1477
63.1918 727 26.9629
63.3092 767 27.6948
63.4267 819 28.6182
63.5441 769 27.7308
63.6616 783 27.9821
63.7791 799 28.2666
63.8966 766 27.6767
64.0142 811 28.4781
64.1317 845 29.0689
64.2492 765 27.6586
64.3668 771 27.7669
64.4843 769 27.7308
64.6019 758 27.5318
64.7195 745 27.2947
64.837 736 27.1293
64.9546 706 26.5707
65.0722 644 25.3772
65.1898 680 26.0768
65.3074 697 26.4008
65.4249 714 26.7208
65.5425 745 27.2947
65.6601 678 26.0384
65.7777 695 26.3629
65.8952 718 26.7955
66.0128 709 26.6271
66.1304 638 25.2587
66.2479 596 24.4131
66.3655 553 23.516
66.483 597 24.4336
66.6005 647 25.4362
66.718 614 24.779
66.8355 661 25.7099
66.953 649 25.4755
67.0705 667 25.8263
67.1879 653 25.5539
67.3054 680 26.0768
67.4228 642 25.3377
67.5402 689 26.2488
67.6576 705 26.5518
67.7749 654 25.5734
67.8923 644 25.3772
68.0096 697 26.4008
68.1269 633 25.1595
68.2442 635 25.1992
68.3614 625 25
68.4787 689 26.2488
68.5958 660 25.6905
68.713 601 24.5153
68.8302 697 26.4008
68.9473 677 26.0192
69.0643 612 24.7386
69.1814 623 24.96
69.2984 600 24.4949
69.4154 686 26.1916
69.5323 642 25.3377
69.6492 652 25.5343
69.7661 606 24.6171
69.8829 646 25.4165
69.9997 540 23.2379
70.1165 564 23.7487
70.2332 573 23.9374
70.3499 543 23.3024
70.4665 595 24.3926
70.5831 613 24.7588
70.6996 565 23.7697
70.8161 582 24.1247
70.9326 600 24.4949
71.049 591 24.3105
71.1653 603 24.5561
71.2817 614 24.779
71.3979 615 24.7992
71.5141 573 23.9374
71.6303 555 23.5584
71.7464 535 23.1301
71.8624 0 1
71.9784 0 1
72.0944 0 1
72.2102 0 1
72.3261 0 1
72.4418 0 1
72.5575 0 1
72.6732 0 1
75.1054 0 1
75.2209 0 1
75.3365 0 1
75.4521 0 1
75.5678 0 1
75.6835 0 1
75.7993 0 1
75.9151 0 1
76.031 0 1
76.147 433 20.8087
76.263 469 21.6564
76.3791 533 23.0868
76.4952 474 21.7715
76.6113 496 22.2711
76.7276 438 20.9284
76.8438 479 21.8861
76.9601 439 20.9523
77.0765 479 21.8861
77.1929 483 21.9773
77.3093 459 21.4243
77.4258 469 21.6564
77.5423 444 21.0713
77.6589 425 20.6155
77.7755 413 20.3224
77.8921 413 20.3224
78.0088 419 20.4695
78.1256 419 20.4695
78.2423 412 20.2978
78.3591 396 19.8997
78.4759 414 20.347
78.5928 370 19.2354
78.7097 381 19.5192
78.8266 402 20.0499
78.9436 361 19
79.0606 349 18.6815
79.1776 256 16
79.2946 271 16.4621
79.4117 356 18.868
79.5288 330 18.1659
79.6459 346 18.6011
79.7631 331 18.1934
79.8802 333 18.2483
79.9974 342 18.4932
80.1147 299 17.2916
80.2319 321 17.9165
80.3491 275 16.5831
80.4664 283 16.8226
80.5837 293 17.1172
80.701 304 17.4356
80.8183 244 15.6205
80.9357 253 15.906
81.053 271 16.4621
81.1704 242 15.5563
81.2877 267 16.3401
81.4051 253 15.906
81.5225 263 16.2173
81.6399 214 14.6287
81.7573 231 15.1987
81.8747 231 15.1987
81.9922 219 14.7986
82.1096 224 14.9666
82.227 220 14.8324
82.3444 196 14
82.4619 172 13.1149
82.5793 179 13.3791
82.6967 163 12.7671
82.8142 152 12.3288
82.9316 136 11.6619
83.049 136 11.6619
83.1664 179 13.3791
83.2838 145 12.0416
83.4012 131 11.4455
83.5186 151 12.2882
83.636 133 11.5326
83.7534 125 11.1803
83.8708 120 10.9545
83.9881 114 10.6771
84.1055 112 10.583
84.2228 116 10.7703
84.3401 105 10.247
84.4575 104 10.198
84.5747 90 9.48683
84.692 109 10.4403
84.8093 100 10
84.9265 115 10.7238
85.0437 89 9.43398
85.1609 84 9.16515
85.2781 66 8.12404
85.3952 96 9.79796
85.5123 69 8.30662
85.6294 83 9.11043
85.7465 76 8.7178
85.8636 88 9.38083
85.9806 79 8.88819
86.0976 87 9.32738
86.2145 73 8.544
86.3315 78 8.83176
86.4484 92 9.59166
86.5652 104 10.198
86.682 107 10.3441
86.7988 107 10.3441
86.9156 100 10
87.0323 139 11.7898
87.149 137 11.7047
87.2657 129 11.3578
87.3823 111 10.5357
87.4988 114 10.6771
87.6154 146 12.083
87.7318 153 12.3693
87.8483 153 12.3693
87.9647 151 12.2882
88.081 183 13.5277
88.1973 205 14.3178
88.3136 187 13.6748
88.4298 181 13.4536
88.546 210 14.4914
88.6621 191 13.8203
88.7781 198 14.0712
88.8942 0 1
89.0101 0 1
89.126 0 1
89.2419 0 1
89.3577 0 1
89.4734 0 1
89.5891 0 1
89.7047 0 1
89.8203 0 1
89.9358 0 1
92.3269 0 1
92.4424 0 1
92.558 0 1
92.6736 0 1
92.7893 0 1
92.905 0 1
93.0208 0 1
93.1366 0 1
93.2525 0 1
93.3685 0 1
93.4845 0 1
93.6005 324 18
93.7167 341 18.4662
93.8328 343 18.5203
93.949 326 18.0555
94.0653 284 16.8523
94.1816 306 17.4929
94.2979 300 17.3205
94.4143 286 16.9115
94.5307 288 16.9706
94.6472 289 17
94.7637 241 15.5242
94.8803 282 16.7929
94.9969 273 16.5227
95.1135 262 16.1864
95.2302 252 15.8745
95.3469 243 15.5885
95.4637 231 15.1987
95.5805 204 14.2829
95.6973 255 15.9687
95.8142 270 16.4317
95.9311 289 17
96.048 324 18
96.1649 306 17.4929
96.2819 337 18.3576
96.3989 312 17.6635
96.516 346 18.6011
96.633 354 18.8149
96.7501 350 18.7083
96.8673 370 19.2354
96.9844 368 19.1833
97.1016 362 19.0263
97.2188 349 18.6815
97.336 382 19.5448
97.4532 400 20
97.5704 434 20.8327
97.6877 411 20.2731
97.805 412 20.2978
97.9223 435 20.8567
98.0396 448 21.166
98.1569 444 21.0713
98.2743 491 22.1585
98.3916 492 22.1811
98.509 481 21.9317
98.6264 444 21.0713
98.7438 486 22.0454
98.8612 477 21.8403
98.9786 428 20.6882
99.096 377 19.4165
99.2134 300 17.3205
99.3308 455 21.3307
99.4482 536 23.1517
99.5656 567 23.8118
99.6831 529 23
99.8005 569 23.8537
99.9179 593 24.3516
100.035 588 24.2487
100.153 578 24.0416
100.27 615 24.7992
100.388 583 24.1454
100.505 593 24.3516
100.622 573 23.9374
100.74 643 25.3574
100.857 595 24.3926
100.975 587 24.2281
101.092 633 25.1595
101.209 634 25.1794
101.327 653 25.5539
101.444 661 25.7099
101.561 611 24.7184
101.679 650 25.4951
101.796 654 25.5734
101.913 674 25.9615
102.03 652 25.5343
102.148 653 25.5539
102.265 722 26.8701
102.382 648 25.4558
102.499 622 24.9399
102.616 532 23.0651
102.733 440 20.9762
102.851 542 23.2809
102.968 686 26.1916
103.085 745 27.2947
103.202 745 27.2947
103.319 704 26.533
103.436 650 25.4951
103.552 696 26.3818
103.669 669 25.865
103.786 707 26.5895
103.903 659 25.671
104.02 710 26.6458
104.137 696 26.3818
104.253 756 27.4955
104.37 702 26.4953
104.487 769 27.7308
104.603 738 27.1662
104.72 707 26.5895
104.836 724 26.9072
104.953 737 27.1477
105.069 723 26.8887
105.186 739 27.1846
105.302 816 28.5657
105.418 706 26.5707
105.535 781 27.9464
105.651 733 27.074
105.767 730 27.0185
105.883 728 26.9815
105.999 593 24.3516
106.115 0 1
106.231 0 1
106.347 0 1
106.463 0 1
106.579 0 1
106.694 0 1
106.81 0 1
106.926 0 1
107.041 0 1
107.157 0 1
109.576 0 1
109.692 0 1
109.807 0 1
109.923 0 1
110.039 0 1
110.155 0 1
110.27 0 1
110.386 0 1
110.502 0 1
110.618 536 23.1517
110.735 586 24.2074
110.851 629 25.0799
110.967 512 22.6274
111.083 490 22.1359
111.199 435 20.8567
111.316 472 21.7256
111.432 481 21.9317
111.549 513 22.6495
111.665 543 23.3024
111.782 500 22.3607
111.898 517 22.7376
112.015 490 22.1359
112.132 528 22.9783
112.248 479 21.8861
112.365 578 24.0416
112.482 471 21.7025
112.599 532 23.0651
112.716 475 21.7945
112.832 467 21.6102
112.949 477 21.8403
113.066 511 22.6053
113.183 467 21.6102
113.3 412 20.2978
113.417 477 21.8403
113.534 460 21.4476
113.652 464 21.5407
113.769 439 20.9523
113.886 476 21.8174
114.003 450 21.2132
114.12 441 21
114.238 413 20.3224
114.355 415 20.3715
114.472 376 19.3907
114.589 443 21.0476
114.707 369 19.2094
114.824 366 19.1311
114.942 325 18.0278
115.059 404 20.0998
115.176 439 20.9523
115.294 423 20.567
115.411 453 21.2838
115.529 376 19.3907
115.646 430 20.7364
115.764 385 19.6214
115.881 427 20.664
115.999 414 20.347
116.116 389 19.7231
116.234 429 20.7123
116.351 346 18.6011
116.469 406 20.1494
116.586 406 20.1494
116.704 444 21.0713
116.821 413 20.3224
116.939 431 20.7605
117.056 389 19.7231
117.174 393 19.8242
117.291 412 20.2978
117.409 423 20.567
117.526 416 20.3961
117.644 416 20.3961
117.761 421 20.5183
117.879 356 18.868
117.996 328 18.1108
118.114 330 18.1659
118.231 383 19.5704
118.349 371 19.2614
118.466 442 21.0238
118.584 373 19.3132
118.701 370 19.2354
118.819 419 20.4695
118.936 411 20.2731
119.053 442 21.0238
119.171 421 20.5183
119.288 401 20.025
119.405 395 19.8746
119.523 400 20
119.64 405 20.1246
119.757 422 20.5426
119.875 411 20.2731
119.992 423 20.567
120.109 375 19.3649
120.226 394 19.8494
120.343 396 19.8997
120.46 426 20.6398
120.578 399 19.975
120.695 410 20.2485
120.812 401 20.025
120.929 411 20.2731
121.046 463 21.5174
121.163 397 19.9249
121.279 434 20.8327
121.396 412 20.2978
121.513 416 20.3961
121.63 336 18.3303
121.747 279 16.7033
121.863 308 17.5499
121.98 336 18.3303
122.097 401 20.025
122.213 428 20.6882
122.33 443 21.0476
122.446 402 20.0499
122.563 376 19.3907
122.679 447 21.1424
122.795 465 21.5639
122.912 460 21.4476
123.028 472 21.7256
123.144 423 20.567
123.26 442 21.0238
123.377 0 1
123.493 0 1
123.609 0 1
123.725 0 1
123.84 0 1
123.956 0 1
124.072 0 1
124.188 0 1
124.303 0 1
124.419 0 1
126.852 0 1
126.968 0 1
127.083 0 1
127.199 0 1
127.315 0 1
127.431 0 1
127.547 0 1
127.663 0 1
127.779 0 1
127.895 0 1
128.011 0 1
128.127 0 1
128.243 0 1
128.359 511 22.6053
128.476 579 24.0624
128.592 581 24.1039
128.708 567 23.8118
128.825 511 22.6053
128.941 605 24.5967
129.058 608 24.6577
129.174 574 23.9583
129.291 603 24.5561
129.408 631 25.1197
129.524 560 23.6643
129.641 579 24.0624
129.758 578 24.0416
129.875 601 24.5153
129.992 550 23.4521
130.108 575 23.9792
130.225 560 23.6643
130.342 544 23.3238
130.459 452 21.2603
130.576 469 21.6564
130.693 411 20.2731
130.81 416 20.3961
130.928 417 20.4206
131.045 483 21.9773
131.162 613 24.7588
131.279 588 24.2487
131.396 561 23.6854
131.513 604 24.5764
131.631 639 25.2784
131.748 637 25.2389
131.865 645 25.3969
131.983 613 24.7588
132.1 641 25.318
132.217 623 24.96
132.335 543 23.3024
132.452 627 25.04
132.57 645 25.3969
132.687 573 23.9374
132.804 664 25.7682
132.922 644 25.3772
133.039 632 25.1396
133.157 636 25.219
133.274 682 26.1151
133.392 648 25.4558
133.509 639 25.2784
133.627 649 25.4755
133.744 643 25.3574
133.862 561 23.6854
133.979 573 23.9374
134.097 500 22.3607
134.214 482 21.9545
134.332 432 20.7846
134.449 422 20.5426
134.567 524 22.891
134.684 564 23.7487
134.802 663 25.7488
134.919 646 25.4165
135.037 644 25.3772
135.154 701 26.4764
135.272 686 26.1916
135.389 680 26.0768
135.507 670 25.8844
135.624 639 25.2784
135.742 656 25.6125
135.859 726 26.9444
135.977 681 26.096
136.094 709 26.6271
136.211 693 26.3249
136.329 675 25.9808
136.446 676 26
136.564 689 26.2488
136.681 729 27
136.798 751 27.4044
136.915 724 26.9072
137.033 698 26.4197
137.15 677 26.0192
137.267 667 25.8263
137.384 666 25.807
137.502 698 26.4197
137.619 604 24.5764
137.736 541 23.2594
137.853 538 23.1948
137.97 530 23.0217
138.087 544 23.3238
138.204 578 24.0416
138.321 604 24.5764
138.438 687 26.2107
138.555 736 27.1293
138.672 759 27.55
138.788 699 26.4386
138.905 796 28.2135
139.022 759 27.55
139.139 739 27.1846
139.255 762 27.6043
139.372 798 28.2489
139.488 741 27.2213
139.605 753 27.4408
139.721 745 27.2947
139.838 758 27.5318
139.954 784 28
140.071 716 26.7582
140.187 793 28.1603
140.303 771 27.7669
140.419 778 27.8927
140.535 725 26.9258
140.652 719 26.8142
140.768 0 1
140.884 0 1
141 0 1
141.115 0 1
141.231 0 1
141.347 0 1
141.463 0 1
141.578 0 1
141.694 0 1
144.104 0 1
144.219 0 1
144.335 0 1
144.45 0 1
144.566 0 1
144.682 0 1
144.798 0 1
144.914 0 1
145.03 0 1
145.146 743 27.258
145.262 776 27.8568
145.378 742 27.2397
145.494 757 27.5136
145.61 755 27.4773
145.726 692 26.3059
145.842 734 27.0924
145.959 691 26.2869
146.075 655 25.593
146.192 584 24.1661
146.308 602 24.5357
146.425 601 24.5153
146.541 580 24.0832
146.658 590 24.2899
146.774 583 24.1454
146.891 612 24.7386
147.008 647 25.4362
147.125 646 25.4165
147.241 740 27.2029
147.358 755 27.4773
147.475 744 27.2764
147.592 711 26.6646
147.709 744 27.2764
147.826 756 27.4955
147.943 771 27.7669
148.06 715 26.7395
148.177 699 26.4386
148.294 768 27.7128
148.411 745 27.2947
148.528 748 27.3496
148.645 729 27
148.762 734 27.0924
148.88 756 27.4955
148.997 692 26.3059
149.114 710 26.6458
149.231 722 26.8701
149.349 712 26.6833
149.466 661 25.7099
149.583 668 25.8457
149.701 693 26.3249
149.818 693 26.3249
149.935 614 24.779
150.053 621 24.9199
150.17 602 24.5357
150.287 594 24.3721
150.405 617 24.8395
150.522 639 25.2784
150.64 632 25.1396
150.757 716 26.7582
150.875 650 25.4951
150.992 713 26.7021
151.11 725 26.9258
151.227 748 27.3496
151.344 753 27.4408
151.462 749 27.3679
151.579 724 26.9072
151.697 733 27.074
151.814 750 27.3861
151.932 710 26.6458
152.049 745 27.2947
152.167 712 26.6833
152.284 753 27.4408
152.402 720 26.8328
152.519 756 27.4955
152.636 776 27.8568
152.754 716 26.7582
152.871 762 27.6043
152.989 671 25.9037
153.106 723 26.8887
153.223 657 25.632
153.341 667 25.8263
153.458 706 26.5707
153.575 668 25.8457
153.693 603 24.5561
153.81 649 25.4755
153.927 633 25.1595
154.044 643 25.3574
154.162 693 26.3249
154.279 722 26.8701
154.396 755 27.4773
154.513 725 26.9258
154.63 755 27.4773
154.747 797 28.2312
154.864 760 27.5681
154.981 808 28.4253
155.098 776 27.8568
155.215 762 27.6043
155.332 802 28.3196
155.449 791 28.1247
155.566 766 27.6767
155.683 829 28.7924
155.8 798 28.2489
155.917 807 28.4077
156.033 766 27.6767
156.15 0 1
156.267 0 1
156.383 0 1
156.5 0 1
156.617 0 1
156.733 0 1
156.85 0 1
156.966 0 1
157.082 0 1
157.199 0 1
157.315 0 1
157.431 0 1
157.547 0 1
157.664 0 1
157.78 0 1
157.896 0 1
158.012 0 1
158.128 0 1
158.244 0 1
158.359 0 1
158.475 0 1
158.591 0 1
158.706 0 1
