
6.15755 0 1
6.2731 0 1
6.3887 0 1
6.50437 0 1
6.62009 0 1
6.73587 0 1
6.8517 0 1
6.96759 0 1
7.08353 0 1
7.19952 0 1
7.31557 0 1
7.43166 0 1
7.54781 0 1
7.664 0 1
7.78024 0 1
7.89653 0 1
8.01286 0 1
8.12924 0 1
8.24567 0 1
8.36213 0 1
8.47864 0 1
8.59519 0 1
8.71178 0 1
8.82841 0 1
8.94508 0 1
9.06179 0 1
9.17853 0 1
9.29531 0 1
9.41212 0 1
9.52897 0 1
9.64584 0 1
9.76276 0 1
9.8797 0 1
9.99667 0 1
10.1137 0 1
10.2307 0 1
10.3478 0 1
10.4648 0 1
10.5819 0 1
10.6991 0 1
10.8162 0 1
10.9334 0 1
11.0506 0 1
11.1678 0 1
11.285 0 1
11.4023 0 1
11.5196 0 1
11.6369 0 1
11.7542 0 1
11.8715 0 1
11.9888 0 1
12.1062 0 1
12.2235 0 1
12.3409 0 1
12.4582 0 1
12.5756 0 1
12.693 0 1
12.8104 0 1
12.9278 0 1
13.0452 0 1
13.1626 0 1
13.28 0 1
13.3974 0 1
13.5149 0 1
13.6323 0 1
13.7497 0 1
13.8671 0 1
13.9845 0 1
14.1019 0 1
14.2193 0 1
14.3367 0 1
14.4541 0 1
14.5714 0 1
14.6888 0 1
14.8062 0 1
14.9235 0 1
15.0408 789 28.0891
15.1581 876 29.5973
15.2755 888 29.7993
15.3927 870 29.4958
15.51 863 29.3769
15.6273 871 29.5127
15.7445 915 30.249
15.8617 864 29.3939
15.9789 867 29.4449
16.0961 808 28.4253
16.2132 884 29.7321
16.3304 877 29.6142
16.4475 881 29.6816
16.5646 918 30.2985
16.6816 966 31.0805
16.7986 1038 32.218
16.9156 1003 31.6702
17.0326 1050 32.4037
17.1496 971 31.1609
17.2665 1026 32.0312
17.3833 978 31.273
17.5002 1011 31.7962
17.617 968 31.1127
17.7338 895 29.9166
17.8505 829 28.7924
17.9672 856 29.2575
18.0839 856 29.2575
18.2005 907 30.1164
18.3171 918 30.2985
18.4337 959 30.9677
18.5502 944 30.7246
18.6666 993 31.5119
18.7831 990 31.4643
18.8994 935 30.5778
19.0158 1004 31.686
19.1321 933 30.545
19.2483 898 29.9666
19.3645 863 29.3769
19.4806 820 28.6356
19.5967 786 28.0357
19.7128 705 26.5518
19.8288 658 25.6515
19.9447 541 23.2594
20.0606 0 1
20.1764 0 1
20.2922 0 1
20.4079 0 1
20.5236 0 1
20.6392 0 1
20.7548 0 1
20.8702 0 1
23.3078 0 1
23.4233 0 1
23.539 0 1
23.6547 0 1
23.7704 0 1
23.8862 0 1
24.0021 0 1
24.118 0 1
24.234 0 1
24.35 0 1
24.4661 367 19.1572
24.5822 436 20.8806
24.6984 468 21.6333
24.8146 591 24.3105
24.9309 639 25.2784
25.0472 694 26.3439
25.1636 734 27.0924
25.28 796 28.2135
25.3965 882 29.6985
25.513 887 29.7825
25.6296 967 31.0966
25.7462 977 31.257
25.8628 1046 32.3419
25.9795 1079 32.8481
26.0962 1048 32.3728
26.213 1000 31.6228
26.3298 1005 31.7017
26.4466 871 29.5127
26.5635 910 30.1662
26.6804 858 29.2916
26.7973 870 29.4958
26.9143 929 30.4795
27.0313 914 30.2324
27.1483 914 30.2324
27.2653 1009 31.7648
27.3824 1007 31.7333
27.4996 1013 31.8277
27.6167 898 29.9666
27.7339 1036 32.187
27.8511 940 30.6594
27.9683 900 30
28.0855 908 30.133
28.2028 886 29.7658
28.3201 807 28.4077
28.4374 827 28.7576
28.5547 854 29.2233
28.6721 792 28.1425
28.7894 829 28.7924
28.9068 877 29.6142
29.0242 915 30.249
29.1416 962 31.0161
29.259 928 30.4631
29.3764 1004 31.686
29.4939 950 30.8221
29.6113 948 30.7896
29.7288 916 30.2655
29.8463 871 29.5127
29.9638 818 28.6007
30.0812 811 28.4781
30.1987 829 28.7924
30.3162 900 30
30.4337 902 30.0333
30.5512 850 29.1548
30.6687 930 30.4959
30.7862 899 29.9833
30.9037 919 30.315
31.0212 964 31.0483
31.1387 940 30.6594
31.2562 872 29.5296
31.3737 903 30.05
31.4912 868 29.4618
31.6087 861 29.3428
31.7262 877 29.6142
31.8436 768 27.7128
31.9611 770 27.7489
32.0785 770 27.7489
32.1959 811 28.4781
32.3134 830 28.8097
32.4308 874 29.5635
32.5482 929 30.4795
32.6655 939 30.6431
32.7829 885 29.7489
32.9002 950 30.8221
33.0176 923 30.3809
33.1349 950 30.8221
33.2522 877 29.6142
33.3694 898 29.9666
33.4867 826 28.7402
33.6039 806 28.3901
33.7211 774 27.8209
33.8383 791 28.1247
33.9554 820 28.6356
34.0725 848 29.1204
34.1896 864 29.3939
34.3067 869 29.4788
34.4237 888 29.7993
34.5407 914 30.2324
34.6577 822 28.6705
34.7746 929 30.4795
34.8915 899 29.9833
35.0084 858 29.2916
35.1252 853 29.2062
35.242 794 28.178
35.3587 805 28.3725
35.4755 838 28.9482
35.5921 703 26.5141
35.7088 719 26.8142
35.8254 743 27.258
35.9419 782 27.9643
36.0584 775 27.8388
36.1749 829 28.7924
36.2913 844 29.0517
36.4077 831 28.8271
36.524 821 28.6531
36.6403 826 28.7402
36.7565 732 27.0555
36.8727 748 27.3496
36.9889 735 27.1109
37.1049 594 24.3721
37.221 0 1
37.3369 0 1
37.4529 0 1
37.5687 0 1
37.6845 0 1
37.8003 0 1
37.916 0 1
38.0316 0 1
38.1472 0 1
40.5851 0 1
40.7008 0 1
40.8164 0 1
40.9322 0 1
41.048 0 1
41.1639 0 1
41.2798 0 1
41.3958 0 1
41.5118 0 1
41.6279 0 1
41.744 443 21.0476
41.8602 487 22.0681
41.9765 525 22.9129
42.0928 564 23.7487
42.2091 531 23.0434
42.3255 539 23.2164
42.4419 531 23.0434
42.5584 544 23.3238
42.675 566 23.7908
42.7915 594 24.3721
42.9081 668 25.8457
43.0248 711 26.6646
43.1415 741 27.2213
43.2582 677 26.0192
43.375 697 26.4008
43.4918 717 26.7769
43.6087 777 27.8747
43.7256 723 26.8887
43.8425 704 26.533
43.9595 644 25.3772
44.0765 648 25.4558
44.1935 642 25.3377
44.3106 659 25.671
44.4277 615 24.7992
44.5448 596 24.4131
44.6619 579 24.0624
44.7791 626 25.02
44.8963 628 25.0599
45.0136 688 26.2298
45.1308 753 27.4408
45.2481 754 27.4591
45.3654 778 27.8927
45.4827 724 26.9072
45.6001 796 28.2135
45.7174 728 26.9815
45.8348 681 26.096
45.9522 657 25.632
46.0697 585 24.1868
46.1871 600 24.4949
46.3046 600 24.4949
46.422 657 25.632
46.5395 740 27.2029
46.657 675 25.9808
46.7745 723 26.8887
46.892 700 26.4575
47.0096 751 27.4044
47.1271 712 26.6833
47.2446 747 27.3313
47.3622 781 27.9464
47.4797 767 27.6948
47.5973 719 26.8142
47.7149 742 27.2397
47.8324 721 26.8514
47.95 649 25.4755
48.0675 610 24.6982
48.1851 603 24.5561
48.3027 675 25.9808
48.4202 628 25.0599
48.5378 683 26.1343
48.6554 706 26.5707
48.7729 732 27.0555
48.8904 781 27.9464
49.008 708 26.6083
49.1255 734 27.0924
49.243 742 27.2397
49.3605 688 26.2298
49.478 637 25.2389
49.5955 621 24.9199
49.713 574 23.9583
49.8304 613 24.7588
49.9479 640 25.2982
50.0653 656 25.6125
50.1827 654 25.5734
50.3001 708 26.6083
50.4175 750 27.3861
50.5348 755 27.4773
50.6521 725 26.9258
50.7694 758 27.5318
50.8867 716 26.7582
51.004 721 26.8514
51.1212 754 27.4591
51.2384 685 26.1725
51.3556 638 25.2587
51.4727 642 25.3377
51.5899 614 24.779
51.707 563 23.7276
51.824 607 24.6374
51.9411 703 26.5141
52.0581 660 25.6905
52.175 755 27.4773
52.2919 785 28.0179
52.4088 767 27.6948
52.5257 756 27.4955
52.6425 788 28.0713
52.7593 763 27.6225
52.876 703 26.5141
52.9927 646 25.4165
53.1094 668 25.8457
53.226 606 24.6171
53.3426 555 23.5584
53.4591 590 24.2899
53.5756 596 24.4131
53.692 604 24.5764
53.8084 584 24.1661
53.9248 585 24.1868
54.0411 583 24.1454
54.1573 544 23.3238
54.2735 0 1
54.3896 0 1
54.5057 0 1
54.6217 0 1
54.7377 0 1
54.8537 0 1
54.9695 0 1
55.0853 0 1
55.2011 0 1
55.3168 0 1
55.4324 0 1
57.824 0 1
57.9396 0 1
58.0553 0 1
58.1711 0 1
58.2869 0 1
58.4028 0 1
58.5187 0 1
58.6347 0 1
58.7508 0 1
58.8669 0 1
58.983 501 22.383
59.0992 599 24.4745
59.2155 683 26.1343
59.3318 704 26.533
59.4482 750 27.3861
59.5646 781 27.9464
59.681 844 29.0517
59.7975 854 29.2233
59.9141 868 29.4618
60.0306 880 29.6648
60.1473 863 29.3769
60.2639 792 28.1425
60.3807 793 28.1603
60.4974 776 27.8568
60.6142 793 28.1603
60.731 873 29.5466
60.8479 904 30.0666
60.9648 968 31.1127
61.0818 941 30.6757
61.1987 998 31.5911
61.3158 947 30.7734
61.4328 893 29.8831
61.5499 901 30.0167
61.667 827 28.7576
61.7841 746 27.313
61.9013 765 27.6586
62.0185 710 26.6458
62.1357 740 27.2029
62.253 849 29.1376
62.3702 866 29.4279
62.4875 852 29.189
62.6049 933 30.545
62.7222 894 29.8998
62.8396 961 31
62.9569 976 31.241
63.0743 943 30.7083
63.1918 964 31.0483
63.3092 934 30.5614
63.4267 906 30.0998
63.5441 894 29.8998
63.6616 918 30.2985
63.7791 801 28.3019
63.8966 759 27.55
64.0142 723 26.8887
64.1317 794 28.178
64.2492 818 28.6007
64.3668 942 30.692
64.4843 943 30.7083
64.6019 984 31.3688
64.7195 908 30.133
64.837 958 30.9516
64.9546 936 30.5941
65.0722 948 30.7896
65.1898 859 29.3087
65.3074 796 28.2135
65.4249 707 26.5895
65.5425 731 27.037
65.6601 729 27
65.7777 827 28.7576
65.8952 799 28.2666
66.0128 871 29.5127
66.1304 919 30.315
66.2479 884 29.7321
66.3655 934 30.5614
66.483 896 29.9333
66.6005 963 31.0322
66.718 922 30.3645
66.8355 939 30.6431
66.953 972 31.1769
67.0705 937 30.6105
67.1879 907 30.1164
67.3054 909 30.1496
67.4228 817 28.5832
67.5402 684 26.1534
67.6576 777 27.8747
67.7749 810 28.4605
67.8923 829 28.7924
68.0096 967 31.0966
68.1269 971 31.1609
68.2442 986 31.4006
68.3614 993 31.5119
68.4787 1017 31.8904
68.5958 995 31.5436
68.713 933 30.545
68.8302 940 30.6594
68.9473 850 29.1548
69.0643 843 29.0345
69.1814 757 27.5136
69.2984 845 29.0689
69.4154 917 30.282
69.5323 1019 31.9218
69.6492 967 31.0966
69.7661 978 31.273
69.8829 1044 32.311
69.9997 998 31.5911
70.1165 1074 32.7719
70.2332 1002 31.6544
70.3499 1045 32.3265
70.4665 965 31.0644
70.5831 953 30.8707
70.6996 910 30.1662
70.8161 845 29.0689
70.9326 752 27.4226
71.049 639 25.2784
71.1653 548 23.4094
71.2817 458 21.4009
71.3979 464 21.5407
71.5141 429 20.7123
71.6303 403 20.0749
71.7464 386 19.6469
71.8624 0 1
71.9784 0 1
72.0944 0 1
72.2102 0 1
72.3261 0 1
72.4418 0 1
72.5575 0 1
72.6732 0 1
75.1054 0 1
75.2209 0 1
75.3365 0 1
75.4521 0 1
75.5678 0 1
75.6835 0 1
75.7993 0 1
75.9151 0 1
76.031 0 1
76.147 696 26.3818
76.263 733 27.074
76.3791 708 26.6083
76.4952 694 26.3439
76.6113 763 27.6225
76.7276 726 26.9444
76.8438 811 28.4781
76.9601 859 29.3087
77.0765 914 30.2324
77.1929 939 30.6431
77.3093 1006 31.7175
77.4258 931 30.5123
77.5423 958 30.9516
77.6589 900 30
77.7755 817 28.5832
77.8921 763 27.6225
78.0088 689 26.2488
78.1256 647 25.4362
78.2423 625 25
78.3591 664 25.7682
78.4759 710 26.6458
78.5928 755 27.4773
78.7097 812 28.4956
78.8266 852 29.189
78.9436 835 28.8964
79.0606 845 29.0689
79.1776 860 29.3258
79.2946 868 29.4618
79.4117 852 29.189
79.5288 861 29.3428
79.6459 840 28.9828
79.7631 767 27.6948
79.8802 785 28.0179
79.9974 728 26.9815
80.1147 680 26.0768
80.2319 602 24.5357
80.3491 644 25.3772
80.4664 655 25.593
80.5837 716 26.7582
80.701 736 27.1293
80.8183 806 28.3901
80.9357 797 28.2312
81.053 853 29.2062
81.1704 857 29.2746
81.2877 883 29.7153
81.4051 806 28.3901
81.5225 775 27.8388
81.6399 680 26.0768
81.7573 617 24.8395
81.8747 612 24.7386
81.9922 589 24.2693
82.1096 665 25.7876
82.227 720 26.8328
82.3444 750 27.3861
82.4619 791 28.1247
82.5793 855 29.2404
82.6967 842 29.0172
82.8142 834 28.8791
82.9316 805 28.3725
83.049 847 29.1033
83.1664 871 29.5127
83.2838 858 29.2916
83.4012 825 28.7228
83.5186 819 28.6182
83.636 747 27.3313
83.7534 724 26.9072
83.8708 651 25.5147
83.9881 600 24.4949
84.1055 634 25.1794
84.2228 694 26.3439
84.3401 768 27.7128
84.4575 822 28.6705
84.5747 855 29.2404
84.692 829 28.7924
84.8093 914 30.2324
84.9265 852 29.189
85.0437 873 29.5466
85.1609 756 27.4955
85.2781 690 26.2679
85.3952 685 26.1725
85.5123 618 24.8596
85.6294 637 25.2389
85.7465 688 26.2298
85.8636 777 27.8747
85.9806 765 27.6586
86.0976 906 30.0998
86.2145 840 28.9828
86.3315 853 29.2062
86.4484 907 30.1164
86.5652 913 30.2159
86.682 879 29.6479
86.7988 902 30.0333
86.9156 886 29.7658
87.0323 843 29.0345
87.149 787 28.0535
87.2657 746 27.313
87.3823 689 26.2488
87.4988 566 23.7908
87.6154 599 24.4745
87.7318 597 24.4336
87.8483 614 24.779
87.9647 739 27.1846
88.081 692 26.3059
88.1973 681 26.096
88.3136 649 25.4755
88.4298 630 25.0998
88.546 603 24.5561
88.6621 480 21.9089
88.7781 402 20.0499
88.8942 0 1
89.0101 0 1
89.126 0 1
89.2419 0 1
89.3577 0 1
89.4734 0 1
89.5891 0 1
89.7047 0 1
89.8203 0 1
89.9358 0 1
92.3269 0 1
92.4424 0 1
92.558 0 1
92.6736 0 1
92.7893 0 1
92.905 0 1
93.0208 0 1
93.1366 0 1
93.2525 0 1
93.3685 0 1
93.4845 0 1
93.6005 607 24.6374
93.7167 628 25.0599
93.8328 697 26.4008
93.949 706 26.5707
94.0653 715 26.7395
94.1816 737 27.1477
94.2979 696 26.3818
94.4143 675 25.9808
94.5307 646 25.4165
94.6472 630 25.0998
94.7637 580 24.0832
94.8803 655 25.593
94.9969 737 27.1477
95.1135 818 28.6007
95.2302 809 28.4429
95.3469 813 28.5132
95.4637 803 28.3373
95.5805 869 29.4788
95.6973 814 28.5307
95.8142 876 29.5973
95.9311 799 28.2666
96.048 852 29.189
96.1649 788 28.0713
96.2819 858 29.2916
96.3989 822 28.6705
96.516 688 26.2298
96.633 657 25.632
96.7501 668 25.8457
96.8673 629 25.0799
96.9844 663 25.7488
97.1016 729 27
97.2188 767 27.6948
97.336 764 27.6405
97.4532 814 28.5307
97.5704 820 28.6356
97.6877 857 29.2746
97.805 814 28.5307
97.9223 806 28.3901
98.0396 760 27.5681
98.1569 697 26.4008
98.2743 658 25.6515
98.3916 603 24.5561
98.509 654 25.5734
98.6264 774 27.8209
98.7438 775 27.8388
98.8612 781 27.9464
98.9786 844 29.0517
99.096 853 29.2062
99.2134 874 29.5635
99.3308 908 30.133
99.4482 890 29.8329
99.5656 953 30.8707
99.6831 863 29.3769
99.8005 892 29.8664
99.9179 829 28.7924
100.035 814 28.5307
100.153 767 27.6948
100.27 708 26.6083
100.388 728 26.9815
100.505 747 27.3313
100.622 757 27.5136
100.74 840 28.9828
100.857 906 30.0998
100.975 911 30.1828
101.092 847 29.1033
101.209 925 30.4138
101.327 885 29.7489
101.444 871 29.5127
101.561 839 28.9655
101.679 768 27.7128
101.796 658 25.6515
101.913 681 26.096
102.03 718 26.7955
102.148 735 27.1109
102.265 794 28.178
102.382 901 30.0167
102.499 937 30.6105
102.616 880 29.6648
102.733 883 29.7153
102.851 928 30.4631
102.968 952 30.8545
103.085 950 30.8221
103.202 935 30.5778
103.319 917 30.282
103.436 916 30.2655
103.552 873 29.5466
103.669 815 28.5482
103.786 793 28.1603
103.903 710 26.6458
104.02 798 28.2489
104.137 810 28.4605
104.253 898 29.9666
104.37 944 30.7246
104.487 995 31.5436
104.603 1018 31.9061
104.72 983 31.3528
104.836 923 30.3809
104.953 837 28.931
105.069 796 28.2135
105.186 717 26.7769
105.302 670 25.8844
105.418 619 24.8797
105.535 636 25.219
105.651 612 24.7386
105.767 640 25.2982
105.883 626 25.02
105.999 587 24.2281
106.115 0 1
106.231 0 1
106.347 0 1
106.463 0 1
106.579 0 1
106.694 0 1
106.81 0 1
106.926 0 1
107.041 0 1
107.157 0 1
109.576 0 1
109.692 0 1
109.807 0 1
109.923 0 1
110.039 0 1
110.155 0 1
110.27 0 1
110.386 0 1
110.502 0 1
110.618 367 19.1572
110.735 512 22.6274
110.851 639 25.2784
110.967 653 25.5539
111.083 735 27.1109
111.199 788 28.0713
111.316 797 28.2312
111.432 836 28.9137
111.549 889 29.8161
111.665 884 29.7321
111.782 859 29.3087
111.898 877 29.6142
112.015 894 29.8998
112.132 806 28.3901
112.248 735 27.1109
112.365 686 26.1916
112.482 690 26.2679
112.599 725 26.9258
112.716 762 27.6043
112.832 810 28.4605
112.949 903 30.05
113.066 855 29.2404
113.183 804 28.3549
113.3 864 29.3939
113.417 864 29.3939
113.534 839 28.9655
113.652 739 27.1846
113.769 697 26.4008
113.886 637 25.2389
114.003 606 24.6171
114.12 624 24.98
114.238 723 26.8887
114.355 739 27.1846
114.472 714 26.7208
114.589 833 28.8617
114.707 937 30.6105
114.824 815 28.5482
114.942 816 28.5657
115.059 897 29.95
115.176 871 29.5127
115.294 866 29.4279
115.411 771 27.7669
115.529 805 28.3725
115.646 825 28.7228
115.764 754 27.4591
115.881 773 27.8029
115.999 686 26.1916
116.116 685 26.1725
116.234 777 27.8747
116.351 787 28.0535
116.469 832 28.8444
116.586 834 28.8791
116.704 876 29.5973
116.821 830 28.8097
116.939 927 30.4467
117.056 818 28.6007
117.174 775 27.8388
117.291 727 26.9629
117.409 644 25.3772
117.526 601 24.5153
117.644 629 25.0799
117.761 709 26.6271
117.879 735 27.1109
117.996 735 27.1109
118.114 770 27.7489
118.231 829 28.7924
118.349 845 29.0689
118.466 878 29.6311
118.584 895 29.9166
118.701 876 29.5973
118.819 894 29.8998
118.936 889 29.8161
119.053 830 28.8097
119.171 778 27.8927
119.288 810 28.4605
119.405 714 26.7208
119.523 692 26.3059
119.64 664 25.7682
119.757 645 25.3969
119.875 739 27.1846
119.992 750 27.3861
120.109 752 27.4226
120.226 814 28.5307
120.343 833 28.8617
120.46 836 28.9137
120.578 843 29.0345
120.695 831 28.8271
120.812 776 27.8568
120.929 715 26.7395
121.046 644 25.3772
121.163 647 25.4362
121.279 642 25.3377
121.396 619 24.8797
121.513 686 26.1916
121.63 651 25.5147
121.747 709 26.6271
121.863 738 27.1662
121.98 703 26.5141
122.097 706 26.5707
122.213 733 27.074
122.33 652 25.5343
122.446 668 25.8457
122.563 673 25.9422
122.679 642 25.3377
122.795 559 23.6432
122.912 503 22.4277
123.028 409 20.2237
123.144 380 19.4936
123.26 349 18.6815
123.377 0 1
123.493 0 1
123.609 0 1
123.725 0 1
123.84 0 1
123.956 0 1
124.072 0 1
124.188 0 1
124.303 0 1
124.419 0 1
126.852 0 1
126.968 0 1
127.083 0 1
127.199 0 1
127.315 0 1
127.431 0 1
127.547 0 1
127.663 0 1
127.779 0 1
127.895 0 1
128.011 0 1
128.127 0 1
128.243 0 1
128.359 893 29.8831
128.476 945 30.7409
128.592 881 29.6816
128.708 911 30.1828
128.825 874 29.5635
128.941 915 30.249
129.058 969 31.1288
129.174 980 31.305
129.291 1068 32.6803
129.408 1108 33.2866
129.524 1073 32.7567
129.641 1030 32.0936
129.758 997 31.5753
129.875 969 31.1288
129.992 928 30.4631
130.108 836 28.9137
130.225 777 27.8747
130.342 814 28.5307
130.459 798 28.2489
130.576 928 30.4631
130.693 926 30.4302
130.81 974 31.209
130.928 946 30.7571
131.045 952 30.8545
131.162 997 31.5753
131.279 1037 32.2025
131.396 1082 32.8938
131.513 1089 33
131.631 1012 31.8119
131.748 1015 31.8591
131.865 989 31.4484
131.983 976 31.241
132.1 923 30.3809
132.217 878 29.6311
132.335 911 30.1828
132.452 923 30.3809
132.57 961 31
132.687 1043 32.2955
132.804 1065 32.6343
132.922 1047 32.3574
133.039 1053 32.45
133.157 1033 32.1403
133.274 1082 32.8938
133.392 1002 31.6544
133.509 970 31.1448
133.627 861 29.3428
133.744 870 29.4958
133.862 829 28.7924
133.979 878 29.6311
134.097 875 29.5804
134.214 927 30.4467
134.332 922 30.3645
134.449 982 31.3369
134.567 1035 32.1714
134.684 1064 32.619
134.802 1021 31.9531
134.919 1103 33.2114
135.037 1054 32.4654
135.154 1066 32.6497
135.272 975 31.225
135.389 996 31.5595
135.507 1000 31.6228
135.624 970 31.1448
135.742 948 30.7896
135.859 902 30.0333
135.977 918 30.2985
136.094 978 31.273
136.211 1001 31.6386
136.329 1053 32.45
136.446 1012 31.8119
136.564 1049 32.3883
136.681 997 31.5753
136.798 1049 32.3883
136.915 1014 31.8434
137.033 985 31.3847
137.15 924 30.3974
137.267 893 29.8831
137.384 820 28.6356
137.502 758 27.5318
137.619 821 28.6531
137.736 854 29.2233
137.853 940 30.6594
137.97 935 30.5778
138.087 939 30.6431
138.204 1037 32.2025
138.321 1004 31.686
138.438 1018 31.9061
138.555 1054 32.4654
138.672 934 30.5614
138.788 960 30.9839
138.905 908 30.133
139.022 855 29.2404
139.139 833 28.8617
139.255 822 28.6705
139.372 743 27.258
139.488 664 25.7682
139.605 674 25.9615
139.721 620 24.8998
139.838 661 25.7099
139.954 683 26.1343
140.071 639 25.2784
140.187 593 24.3516
140.303 525 22.9129
140.419 523 22.8692
140.535 481 21.9317
140.652 437 20.9045
140.768 0 1
140.884 0 1
141 0 1
141.115 0 1
141.231 0 1
141.347 0 1
141.463 0 1
141.578 0 1
141.694 0 1
144.104 0 1
144.219 0 1
144.335 0 1
144.45 0 1
144.566 0 1
144.682 0 1
144.798 0 1
144.914 0 1
145.03 0 1
145.146 654 25.5734
145.262 668 25.8457
145.378 673 25.9422
145.494 729 27
145.61 755 27.4773
145.726 672 25.923
145.842 663 25.7488
145.959 625 25
146.075 596 24.4131
146.192 614 24.779
146.308 589 24.2693
146.425 584 24.1661
146.541 619 24.8797
146.658 568 23.8328
146.774 634 25.1794
146.891 636 25.219
147.008 669 25.865
147.125 663 25.7488
147.241 678 26.0384
147.358 678 26.0384
147.475 674 25.9615
147.592 683 26.1343
147.709 690 26.2679
147.826 682 26.1151
147.943 592 24.3311
148.06 595 24.3926
148.177 560 23.6643
148.294 580 24.0832
148.411 595 24.3926
148.528 614 24.779
148.645 648 25.4558
148.762 637 25.2389
148.88 665 25.7876
148.997 725 26.9258
149.114 645 25.3969
149.231 675 25.9808
149.349 734 27.0924
149.466 662 25.7294
149.583 611 24.7184
149.701 587 24.2281
149.818 534 23.1084
149.935 567 23.8118
150.053 546 23.3666
150.17 572 23.9165
150.287 628 25.0599
150.405 609 24.6779
150.522 608 24.6577
150.64 603 24.5561
150.757 620 24.8998
150.875 646 25.4165
150.992 649 25.4755
151.11 649 25.4755
151.227 617 24.8395
151.344 637 25.2389
151.462 624 24.98
151.579 642 25.3377
151.697 566 23.7908
151.814 549 23.4307
151.932 560 23.6643
152.049 558 23.622
152.167 582 24.1247
152.284 606 24.6171
152.402 674 25.9615
152.519 617 24.8395
152.636 635 25.1992
152.754 619 24.8797
152.871 660 25.6905
152.989 645 25.3969
153.106 614 24.779
153.223 573 23.9374
153.341 521 22.8254
153.458 524 22.891
153.575 483 21.9773
153.693 534 23.1084
153.81 518 22.7596
153.927 537 23.1733
154.044 577 24.0208
154.162 584 24.1661
154.279 535 23.1301
154.396 621 24.9199
154.513 602 24.5357
154.63 597 24.4336
154.747 592 24.3311
154.864 602 24.5357
154.981 560 23.6643
155.098 576 24
155.215 531 23.0434
155.332 531 23.0434
155.449 530 23.0217
155.566 505 22.4722
155.683 504 22.4499
155.8 518 22.7596
155.917 525 22.9129
156.033 567 23.8118
156.15 0 1
156.267 0 1
156.383 0 1
156.5 0 1
156.617 0 1
156.733 0 1
156.85 0 1
156.966 0 1
157.082 0 1
157.199 0 1
157.315 0 1
157.431 0 1
157.547 0 1
157.664 0 1
157.78 0 1
157.896 0 1
158.012 0 1
158.128 0 1
158.244 0 1
158.359 0 1
158.475 0 1
158.591 0 1
158.706 0 1
