
6.15755 0 1
6.2731 0 1
6.3887 0 1
6.50437 0 1
6.62009 0 1
6.73587 0 1
6.8517 0 1
6.96759 0 1
7.08353 0 1
7.19952 0 1
7.31557 0 1
7.43166 0 1
7.54781 0 1
7.664 0 1
7.78024 0 1
7.89653 0 1
8.01286 0 1
8.12924 0 1
8.24567 0 1
8.36213 0 1
8.47864 0 1
8.59519 0 1
8.71178 0 1
8.82841 0 1
8.94508 0 1
9.06179 0 1
9.17853 0 1
9.29531 0 1
9.41212 0 1
9.52897 0 1
9.64584 0 1
9.76276 0 1
9.8797 0 1
9.99667 0 1
10.1137 0 1
10.2307 0 1
10.3478 0 1
10.4648 0 1
10.5819 0 1
10.6991 0 1
10.8162 0 1
10.9334 0 1
11.0506 0 1
11.1678 0 1
11.285 0 1
11.4023 0 1
11.5196 0 1
11.6369 0 1
11.7542 0 1
11.8715 0 1
11.9888 0 1
12.1062 0 1
12.2235 0 1
12.3409 0 1
12.4582 0 1
12.5756 0 1
12.693 0 1
12.8104 0 1
12.9278 0 1
13.0452 0 1
13.1626 0 1
13.28 0 1
13.3974 0 1
13.5149 0 1
13.6323 0 1
13.7497 0 1
13.8671 0 1
13.9845 0 1
14.1019 0 1
14.2193 0 1
14.3367 0 1
14.4541 0 1
14.5714 0 1
14.6888 0 1
14.8062 0 1
14.9235 0 1
15.0408 1116 33.4066
15.1581 1183 34.3948
15.2755 1166 34.1467
15.3927 1178 34.322
15.51 1170 34.2053
15.6273 1161 34.0735
15.7445 1146 33.8526
15.8617 1085 32.9393
15.9789 1046 32.3419
16.0961 1067 32.665
16.2132 1029 32.078
16.3304 1064 32.619
16.4475 1109 33.3017
16.5646 1136 33.7046
16.6816 1048 32.3728
16.7986 1048 32.3728
16.9156 1072 32.7414
17.0326 1075 32.7872
17.1496 1079 32.8481
17.2665 1077 32.8177
17.3833 1113 33.3617
17.5002 1149 33.8969
17.617 1206 34.7275
17.7338 1121 33.4813
17.8505 1266 35.5809
17.9672 1267 35.5949
18.0839 1288 35.8887
18.2005 1356 36.8239
18.3171 1426 37.7624
18.4337 1457 38.1707
18.5502 1374 37.0675
18.6666 1374 37.0675
18.7831 1360 36.8782
18.8994 1345 36.6742
19.0158 1285 35.8469
19.1321 1221 34.9428
19.2483 1214 34.8425
19.3645 1152 33.9411
19.4806 1140 33.7639
19.5967 1083 32.909
19.7128 1057 32.5115
19.8288 1072 32.7414
19.9447 917 30.282
20.0606 0 1
20.1764 0 1
20.2922 0 1
20.4079 0 1
20.5236 0 1
20.6392 0 1
20.7548 0 1
20.8702 0 1
23.3078 0 1
23.4233 0 1
23.539 0 1
23.6547 0 1
23.7704 0 1
23.8862 0 1
24.0021 0 1
24.118 0 1
24.234 0 1
24.35 0 1
24.4661 1131 33.6303
24.5822 1153 33.9559
24.6984 1120 33.4664
24.8146 1131 33.6303
24.9309 1082 32.8938
25.0472 1095 33.0908
25.1636 1053 32.45
25.28 1040 32.249
25.3965 1086 32.9545
25.513 1107 33.2716
25.6296 1174 34.2637
25.7462 1203 34.6843
25.8628 1255 35.426
25.9795 1199 34.6266
26.0962 1265 35.5668
26.213 1217 34.8855
26.3298 1206 34.7275
26.4466 1248 35.327
26.5635 1267 35.5949
26.6804 1287 35.8748
26.7973 1312 36.2215
26.9143 1363 36.9188
27.0313 1278 35.7491
27.1483 1362 36.9053
27.2653 1260 35.4965
27.3824 1260 35.4965
27.4996 1291 35.9305
27.6167 1194 34.5543
27.7339 1205 34.7131
27.8511 1167 34.1614
27.9683 1104 33.2265
28.0855 1108 33.2866
28.2028 1105 33.2415
28.3201 1124 33.5261
28.4374 1050 32.4037
28.5547 1025 32.0156
28.6721 1033 32.1403
28.7894 1076 32.8024
28.9068 1063 32.6037
29.0242 1092 33.0454
29.1416 1095 33.0908
29.259 1059 32.5423
29.3764 1111 33.3317
29.4939 1109 33.3017
29.6113 1109 33.3017
29.7288 1145 33.8378
29.8463 1158 34.0294
29.9638 1196 34.5832
30.0812 1252 35.3836
30.1987 1225 35
30.3162 1222 34.9571
30.4337 1310 36.1939
30.5512 1276 35.7211
30.6687 1225 35
30.7862 1313 36.2353
30.9037 1220 34.9285
31.0212 1217 34.8855
31.1387 1183 34.3948
31.2562 1150 33.9116
31.3737 1085 32.9393
31.4912 1088 32.9848
31.6087 956 30.9192
31.7262 994 31.5278
31.8436 1014 31.8434
31.9611 1030 32.0936
32.0785 982 31.3369
32.1959 1089 33
32.3134 1085 32.9393
32.4308 1036 32.187
32.5482 1110 33.3167
32.6655 1021 31.9531
32.7829 1074 32.7719
32.9002 1061 32.573
33.0176 1078 32.8329
33.1349 1082 32.8938
33.2522 1061 32.573
33.3694 1093 33.0606
33.4867 1148 33.8821
33.6039 1149 33.8969
33.7211 1180 34.3511
33.8383 1217 34.8855
33.9554 1213 34.8281
34.0725 1232 35.0999
34.1896 1271 35.6511
34.3067 1126 33.5559
34.4237 1222 34.9571
34.5407 1108 33.2866
34.6577 1106 33.2566
34.7746 1064 32.619
34.8915 1070 32.7109
35.0084 1024 32
35.1252 985 31.3847
35.242 1015 31.8591
35.3587 927 30.4467
35.4755 983 31.3528
35.5921 978 31.273
35.7088 1041 32.2645
35.8254 1081 32.8786
35.9419 1034 32.1559
36.0584 1026 32.0312
36.1749 1134 33.6749
36.2913 1057 32.5115
36.4077 1059 32.5423
36.524 1053 32.45
36.6403 1016 31.8748
36.7565 954 30.8869
36.8727 1008 31.749
36.9889 1072 32.7414
37.1049 1058 32.5269
37.221 0 1
37.3369 0 1
37.4529 0 1
37.5687 0 1
37.6845 0 1
37.8003 0 1
37.916 0 1
38.0316 0 1
38.1472 0 1
40.5851 0 1
40.7008 0 1
40.8164 0 1
40.9322 0 1
41.048 0 1
41.1639 0 1
41.2798 0 1
41.3958 0 1
41.5118 0 1
41.6279 0 1
41.744 853 29.2062
41.8602 865 29.4109
41.9765 868 29.4618
42.0928 859 29.3087
42.2091 951 30.8383
42.3255 885 29.7489
42.4419 947 30.7734
42.5584 943 30.7083
42.675 940 30.6594
42.7915 966 31.0805
42.9081 1008 31.749
43.0248 997 31.5753
43.1415 1002 31.6544
43.2582 962 31.0161
43.375 984 31.3688
43.4918 950 30.8221
43.6087 985 31.3847
43.7256 997 31.5753
43.8425 911 30.1828
43.9595 865 29.4109
44.0765 1005 31.7017
44.1935 928 30.4631
44.3106 912 30.1993
44.4277 955 30.9031
44.5448 912 30.1993
44.6619 837 28.931
44.7791 856 29.2575
44.8963 881 29.6816
45.0136 856 29.2575
45.1308 863 29.3769
45.2481 893 29.8831
45.3654 843 29.0345
45.4827 801 28.3019
45.6001 831 28.8271
45.7174 822 28.6705
45.8348 738 27.1662
45.9522 729 27
46.0697 746 27.313
46.1871 726 26.9444
46.3046 695 26.3629
46.422 657 25.632
46.5395 712 26.6833
46.657 719 26.8142
46.7745 709 26.6271
46.892 695 26.3629
47.0096 646 25.4165
47.1271 690 26.2679
47.2446 678 26.0384
47.3622 622 24.9399
47.4797 658 25.6515
47.5973 627 25.04
47.7149 631 25.1197
47.8324 645 25.3969
47.95 660 25.6905
48.0675 593 24.3516
48.1851 601 24.5153
48.3027 567 23.8118
48.4202 596 24.4131
48.5378 590 24.2899
48.6554 635 25.1992
48.7729 569 23.8537
48.8904 603 24.5561
49.008 533 23.0868
49.1255 582 24.1247
49.243 554 23.5372
49.3605 590 24.2899
49.478 542 23.2809
49.5955 562 23.7065
49.713 545 23.3452
49.8304 529 23
49.9479 586 24.2074
50.0653 587 24.2281
50.1827 588 24.2487
50.3001 596 24.4131
50.4175 636 25.219
50.5348 629 25.0799
50.6521 613 24.7588
50.7694 670 25.8844
50.8867 683 26.1343
51.004 672 25.923
51.1212 695 26.3629
51.2384 738 27.1662
51.3556 746 27.313
51.4727 757 27.5136
51.5899 731 27.037
51.707 752 27.4226
51.824 772 27.7849
51.9411 727 26.9629
52.0581 777 27.8747
52.175 697 26.4008
52.2919 733 27.074
52.4088 784 28
52.5257 730 27.0185
52.6425 725 26.9258
52.7593 733 27.074
52.876 707 26.5895
52.9927 745 27.2947
53.1094 728 26.9815
53.226 732 27.0555
53.3426 759 27.55
53.4591 819 28.6182
53.5756 777 27.8747
53.692 829 28.7924
53.8084 845 29.0689
53.9248 901 30.0167
54.0411 888 29.7993
54.1573 887 29.7825
54.2735 0 1
54.3896 0 1
54.5057 0 1
54.6217 0 1
54.7377 0 1
54.8537 0 1
54.9695 0 1
55.0853 0 1
55.2011 0 1
55.3168 0 1
55.4324 0 1
57.824 0 1
57.9396 0 1
58.0553 0 1
58.1711 0 1
58.2869 0 1
58.4028 0 1
58.5187 0 1
58.6347 0 1
58.7508 0 1
58.8669 0 1
58.983 1045 32.3265
59.0992 1051 32.4191
59.2155 1085 32.9393
59.3318 1044 32.311
59.4482 1128 33.5857
59.5646 1100 33.1662
59.681 1155 33.9853
59.7975 1207 34.7419
59.9141 1271 35.6511
60.0306 1265 35.5668
60.1473 1134 33.6749
60.2639 1150 33.9116
60.3807 1170 34.2053
60.4974 1070 32.7109
60.6142 973 31.1929
60.731 972 31.1769
60.8479 918 30.2985
60.9648 865 29.4109
61.0818 906 30.0998
61.1987 892 29.8664
61.3158 915 30.249
61.4328 933 30.545
61.5499 888 29.7993
61.667 921 30.348
61.7841 932 30.5287
61.9013 930 30.4959
62.0185 917 30.282
62.1357 924 30.3974
62.253 969 31.1288
62.3702 936 30.5941
62.4875 1012 31.8119
62.6049 965 31.0644
62.7222 1044 32.311
62.8396 1060 32.5576
62.9569 1084 32.9242
63.0743 1101 33.1813
63.1918 1123 33.5112
63.3092 1107 33.2716
63.4267 1134 33.6749
63.5441 1126 33.5559
63.6616 1098 33.1361
63.7791 1035 32.1714
63.8966 1006 31.7175
64.0142 1013 31.8277
64.1317 936 30.5941
64.2492 903 30.05
64.3668 820 28.6356
64.4843 887 29.7825
64.6019 815 28.5482
64.7195 809 28.4429
64.837 810 28.4605
64.9546 862 29.3598
65.0722 880 29.6648
65.1898 821 28.6531
65.3074 842 29.0172
65.4249 881 29.6816
65.5425 878 29.6311
65.6601 887 29.7825
65.7777 935 30.5778
65.8952 940 30.6594
66.0128 948 30.7896
66.1304 974 31.209
66.2479 938 30.6268
66.3655 999 31.607
66.483 1091 33.0303
66.6005 1119 33.4515
66.718 1112 33.3467
66.8355 1189 34.4819
66.953 1063 32.6037
67.0705 1065 32.6343
67.1879 1033 32.1403
67.3054 1034 32.1559
67.4228 1024 32
67.5402 925 30.4138
67.6576 863 29.3769
67.7749 834 28.8791
67.8923 777 27.8747
68.0096 791 28.1247
68.1269 777 27.8747
68.2442 725 26.9258
68.3614 796 28.2135
68.4787 786 28.0357
68.5958 847 29.1033
68.713 882 29.6985
68.8302 843 29.0345
68.9473 849 29.1376
69.0643 902 30.0333
69.1814 885 29.7489
69.2984 919 30.315
69.4154 979 31.289
69.5323 974 31.209
69.6492 1014 31.8434
69.7661 1009 31.7648
69.8829 1028 32.0624
69.9997 1145 33.8378
70.1165 1150 33.9116
70.2332 1166 34.1467
70.3499 1101 33.1813
70.4665 1182 34.3802
70.5831 1142 33.7935
70.6996 1273 35.6791
70.8161 1212 34.8138
70.9326 1058 32.5269
71.049 956 30.9192
71.1653 887 29.7825
71.2817 888 29.7993
71.3979 814 28.5307
71.5141 772 27.7849
71.6303 751 27.4044
71.7464 662 25.7294
71.8624 0 1
71.9784 0 1
72.0944 0 1
72.2102 0 1
72.3261 0 1
72.4418 0 1
72.5575 0 1
72.6732 0 1
75.1054 0 1
75.2209 0 1
75.3365 0 1
75.4521 0 1
75.5678 0 1
75.6835 0 1
75.7993 0 1
75.9151 0 1
76.031 0 1
76.147 1049 32.3883
76.263 992 31.496
76.3791 926 30.4302
76.4952 884 29.7321
76.6113 894 29.8998
76.7276 905 30.0832
76.8438 848 29.1204
76.9601 844 29.0517
77.0765 838 28.9482
77.1929 852 29.189
77.3093 772 27.7849
77.4258 857 29.2746
77.5423 896 29.9333
77.6589 940 30.6594
77.7755 943 30.7083
77.8921 881 29.6816
78.0088 856 29.2575
78.1256 927 30.4467
78.2423 943 30.7083
78.3591 1003 31.6702
78.4759 955 30.9031
78.5928 996 31.5595
78.7097 1023 31.9844
78.8266 1035 32.1714
78.9436 1109 33.3017
79.0606 1140 33.7639
79.1776 1132 33.6452
79.2946 1143 33.8083
79.4117 1178 34.322
79.5288 1126 33.5559
79.6459 1161 34.0735
79.7631 1067 32.665
79.8802 1000 31.6228
79.9974 968 31.1127
80.1147 895 29.9166
80.2319 885 29.7489
80.3491 826 28.7402
80.4664 836 28.9137
80.5837 865 29.4109
80.701 884 29.7321
80.8183 850 29.1548
80.9357 816 28.5657
81.053 802 28.3196
81.1704 902 30.0333
81.2877 963 31.0322
81.4051 914 30.2324
81.5225 939 30.6431
81.6399 841 29
81.7573 914 30.2324
81.8747 900 30
81.9922 918 30.2985
82.1096 998 31.5911
82.227 1072 32.7414
82.3444 1105 33.2415
82.4619 1079 32.8481
82.5793 1165 34.1321
82.6967 1181 34.3657
82.8142 1125 33.541
82.9316 1142 33.7935
83.049 1170 34.2053
83.1664 1187 34.4529
83.2838 1166 34.1467
83.4012 1087 32.9697
83.5186 986 31.4006
83.636 977 31.257
83.7534 888 29.7993
83.8708 930 30.4959
83.9881 908 30.133
84.1055 840 28.9828
84.2228 890 29.8329
84.3401 889 29.8161
84.4575 888 29.7993
84.5747 878 29.6311
84.692 936 30.5941
84.8093 1040 32.249
84.9265 1018 31.9061
85.0437 1023 31.9844
85.1609 903 30.05
85.2781 881 29.6816
85.3952 965 31.0644
85.5123 981 31.3209
85.6294 1057 32.5115
85.7465 1161 34.0735
85.8636 1164 34.1174
85.9806 1191 34.5109
86.0976 1221 34.9428
86.2145 1296 36
86.3315 1251 35.3695
86.4484 1262 35.5246
86.5652 1287 35.8748
86.682 1359 36.8646
86.7988 1297 36.0139
86.9156 1212 34.8138
87.0323 1115 33.3916
87.149 1075 32.7872
87.2657 1058 32.5269
87.3823 1036 32.187
87.4988 970 31.1448
87.6154 969 31.1288
87.7318 992 31.496
87.8483 927 30.4467
87.9647 907 30.1164
88.081 940 30.6594
88.1973 993 31.5119
88.3136 1016 31.8748
88.4298 1098 33.1361
88.546 989 31.4484
88.6621 922 30.3645
88.7781 974 31.209
88.8942 0 1
89.0101 0 1
89.126 0 1
89.2419 0 1
89.3577 0 1
89.4734 0 1
89.5891 0 1
89.7047 0 1
89.8203 0 1
89.9358 0 1
92.3269 0 1
92.4424 0 1
92.558 0 1
92.6736 0 1
92.7893 0 1
92.905 0 1
93.0208 0 1
93.1366 0 1
93.2525 0 1
93.3685 0 1
93.4845 0 1
93.6005 927 30.4467
93.7167 961 31
93.8328 905 30.0832
93.949 907 30.1164
94.0653 960 30.9839
94.1816 960 30.9839
94.2979 1033 32.1403
94.4143 990 31.4643
94.5307 1038 32.218
94.6472 1076 32.8024
94.7637 1136 33.7046
94.8803 1239 35.1994
94.9969 1236 35.1568
95.1135 1221 34.9428
95.2302 1190 34.4964
95.3469 1181 34.3657
95.4637 1209 34.7707
95.5805 1219 34.9142
95.6973 1161 34.0735
95.8142 1199 34.6266
95.9311 1174 34.2637
96.048 1022 31.9687
96.1649 991 31.4802
96.2819 1028 32.0624
96.3989 1033 32.1403
96.516 1052 32.4345
96.633 945 30.7409
96.7501 964 31.0483
96.8673 883 29.7153
96.9844 894 29.8998
97.1016 937 30.6105
97.2188 1004 31.686
97.336 979 31.289
97.4532 984 31.3688
97.5704 991 31.4802
97.6877 920 30.3315
97.805 918 30.2985
97.9223 888 29.7993
98.0396 921 30.348
98.1569 945 30.7409
98.2743 1027 32.0468
98.3916 1032 32.1248
98.509 1052 32.4345
98.6264 1146 33.8526
98.7438 1113 33.3617
98.8612 1180 34.3511
98.9786 1140 33.7639
99.096 1197 34.5977
99.2134 1204 34.6987
99.3308 1159 34.0441
99.4482 1168 34.176
99.5656 1176 34.2929
99.6831 1035 32.1714
99.8005 1062 32.5883
99.9179 1006 31.7175
100.035 975 31.225
100.153 921 30.348
100.27 927 30.4467
100.388 899 29.9833
100.505 875 29.5804
100.622 863 29.3769
100.74 893 29.8831
100.857 885 29.7489
100.975 964 31.0483
101.092 940 30.6594
101.209 904 30.0666
101.327 852 29.189
101.444 911 30.1828
101.561 962 31.0161
101.679 968 31.1127
101.796 989 31.4484
101.913 977 31.257
102.03 1081 32.8786
102.148 1172 34.2345
102.265 1106 33.2566
102.382 1276 35.7211
102.499 1204 34.6987
102.616 1145 33.8378
102.733 1211 34.7994
102.851 1239 35.1994
102.968 1346 36.6879
103.085 1208 34.7563
103.202 1181 34.3657
103.319 1130 33.6155
103.436 1117 33.4215
103.552 1055 32.4808
103.669 1097 33.121
103.786 961 31
103.903 1010 31.7805
104.02 961 31
104.137 988 31.4325
104.253 985 31.3847
104.37 1058 32.5269
104.487 1045 32.3265
104.603 1011 31.7962
104.72 934 30.5614
104.836 1006 31.7175
104.953 938 30.6268
105.069 985 31.3847
105.186 960 30.9839
105.302 1078 32.8329
105.418 1081 32.8786
105.535 1218 34.8999
105.651 1242 35.242
105.767 1278 35.7491
105.883 1207 34.7419
105.999 1210 34.7851
106.115 0 1
106.231 0 1
106.347 0 1
106.463 0 1
106.579 0 1
106.694 0 1
106.81 0 1
106.926 0 1
107.041 0 1
107.157 0 1
109.576 0 1
109.692 0 1
109.807 0 1
109.923 0 1
110.039 0 1
110.155 0 1
110.27 0 1
110.386 0 1
110.502 0 1
110.618 966 31.0805
110.735 1118 33.4365
110.851 1094 33.0757
110.967 1076 32.8024
111.083 1037 32.2025
111.199 1032 32.1248
111.316 1161 34.0735
111.432 1176 34.2929
111.549 1176 34.2929
111.665 1096 33.1059
111.782 1044 32.311
111.898 1019 31.9218
112.015 1017 31.8904
112.132 1024 32
112.248 913 30.2159
112.365 908 30.133
112.482 893 29.8831
112.599 834 28.8791
112.716 797 28.2312
112.832 841 29
112.949 844 29.0517
113.066 783 27.9821
113.183 758 27.5318
113.3 749 27.3679
113.417 785 28.0179
113.534 763 27.6225
113.652 780 27.9285
113.769 838 28.9482
113.886 894 29.8998
114.003 875 29.5804
114.12 871 29.5127
114.238 934 30.5614
114.355 952 30.8545
114.472 922 30.3645
114.589 824 28.7054
114.707 802 28.3196
114.824 859 29.3087
114.942 934 30.5614
115.059 1000 31.6228
115.176 913 30.2159
115.294 868 29.4618
115.411 829 28.7924
115.529 770 27.7489
115.646 752 27.4226
115.764 813 28.5132
115.881 740 27.2029
115.999 690 26.2679
116.116 650 25.4951
116.234 664 25.7682
116.351 641 25.318
116.469 645 25.3969
116.586 576 24
116.704 578 24.0416
116.821 627 25.04
116.939 598 24.454
117.056 581 24.1039
117.174 611 24.7184
117.291 628 25.0599
117.409 654 25.5734
117.526 662 25.7294
117.644 668 25.8457
117.761 726 26.9444
117.879 747 27.3313
117.996 707 26.5895
118.114 678 26.0384
118.231 652 25.5343
118.349 764 27.6405
118.466 770 27.7489
118.584 785 28.0179
118.701 783 27.9821
118.819 792 28.1425
118.936 777 27.8747
119.053 756 27.4955
119.171 808 28.4253
119.288 711 26.6646
119.405 778 27.8927
119.523 699 26.4386
119.64 684 26.1534
119.757 704 26.533
119.875 697 26.4008
119.992 613 24.7588
120.109 673 25.9422
120.226 617 24.8395
120.343 654 25.5734
120.46 665 25.7876
120.578 675 25.9808
120.695 723 26.8887
120.812 755 27.4773
120.929 769 27.7308
121.046 746 27.313
121.163 794 28.178
121.279 810 28.4605
121.396 778 27.8927
121.513 773 27.8029
121.63 818 28.6007
121.747 735 27.1109
121.863 678 26.0384
121.98 753 27.4408
122.097 794 28.178
122.213 823 28.688
122.33 889 29.8161
122.446 890 29.8329
122.563 937 30.6105
122.679 953 30.8707
122.795 912 30.1993
122.912 884 29.7321
123.028 850 29.1548
123.144 876 29.5973
123.26 845 29.0689
123.377 0 1
123.493 0 1
123.609 0 1
123.725 0 1
123.84 0 1
123.956 0 1
124.072 0 1
124.188 0 1
124.303 0 1
124.419 0 1
126.852 0 1
126.968 0 1
127.083 0 1
127.199 0 1
127.315 0 1
127.431 0 1
127.547 0 1
127.663 0 1
127.779 0 1
127.895 0 1
128.011 0 1
128.127 0 1
128.243 0 1
128.359 920 30.3315
128.476 1013 31.8277
128.592 1026 32.0312
128.708 944 30.7246
128.825 927 30.4467
128.941 907 30.1164
129.058 864 29.3939
129.174 844 29.0517
129.291 814 28.5307
129.408 856 29.2575
129.524 824 28.7054
129.641 905 30.0832
129.758 863 29.3769
129.875 833 28.8617
129.992 864 29.3939
130.108 883 29.7153
130.225 932 30.5287
130.342 912 30.1993
130.459 869 29.4788
130.576 828 28.775
130.693 714 26.7208
130.81 639 25.2784
130.928 698 26.4197
131.045 819 28.6182
131.162 875 29.5804
131.279 897 29.95
131.396 940 30.6594
131.513 907 30.1164
131.631 881 29.6816
131.748 884 29.7321
131.865 818 28.6007
131.983 865 29.4109
132.1 880 29.6648
132.217 807 28.4077
132.335 850 29.1548
132.452 770 27.7489
132.57 785 28.0179
132.687 812 28.4956
132.804 805 28.3725
132.922 704 26.533
133.039 755 27.4773
133.157 722 26.8701
133.274 747 27.3313
133.392 697 26.4008
133.509 756 27.4955
133.627 756 27.4955
133.744 730 27.0185
133.862 692 26.3059
133.979 739 27.1846
134.097 701 26.4764
134.214 666 25.807
134.332 481 21.9317
134.449 496 22.2711
134.567 654 25.5734
134.684 698 26.4197
134.802 682 26.1151
134.919 728 26.9815
135.037 729 27
135.154 750 27.3861
135.272 718 26.7955
135.389 683 26.1343
135.507 647 25.4362
135.624 700 26.4575
135.742 639 25.2784
135.859 680 26.0768
135.977 592 24.3311
136.094 574 23.9583
136.211 608 24.6577
136.329 612 24.7386
136.446 633 25.1595
136.564 617 24.8395
136.681 599 24.4745
136.798 589 24.2693
136.915 627 25.04
137.033 575 23.9792
137.15 594 24.3721
137.267 608 24.6577
137.384 592 24.3311
137.502 560 23.6643
137.619 579 24.0624
137.736 534 23.1084
137.853 510 22.5832
137.97 408 20.199
138.087 483 21.9773
138.204 511 22.6053
138.321 601 24.5153
138.438 615 24.7992
138.555 639 25.2784
138.672 628 25.0599
138.788 635 25.1992
138.905 653 25.5539
139.022 637 25.2389
139.139 685 26.1725
139.255 671 25.9037
139.372 681 26.096
139.488 646 25.4165
139.605 691 26.2869
139.721 653 25.5539
139.838 659 25.671
139.954 610 24.6982
140.071 650 25.4951
140.187 649 25.4755
140.303 585 24.1868
140.419 686 26.1916
140.535 685 26.1725
140.652 631 25.1197
140.768 0 1
140.884 0 1
141 0 1
141.115 0 1
141.231 0 1
141.347 0 1
141.463 0 1
141.578 0 1
141.694 0 1
144.104 0 1
144.219 0 1
144.335 0 1
144.45 0 1
144.566 0 1
144.682 0 1
144.798 0 1
144.914 0 1
145.03 0 1
145.146 537 23.1733
145.262 514 22.6716
145.378 564 23.7487
145.494 535 23.1301
145.61 526 22.9347
145.726 518 22.7596
145.842 459 21.4243
145.959 510 22.5832
146.075 479 21.8861
146.192 464 21.5407
146.308 457 21.3776
146.425 461 21.4709
146.541 462 21.4942
146.658 402 20.0499
146.774 363 19.0526
146.891 434 20.8327
147.008 433 20.8087
147.125 466 21.587
147.241 440 20.9762
147.358 473 21.7486
147.475 445 21.095
147.592 441 21
147.709 393 19.8242
147.826 448 21.166
147.943 425 20.6155
148.06 383 19.5704
148.177 409 20.2237
148.294 426 20.6398
148.411 357 18.8944
148.528 415 20.3715
148.645 400 20
148.762 390 19.7484
148.88 357 18.8944
148.997 379 19.4679
149.114 365 19.105
149.231 359 18.9473
149.349 364 19.0788
149.466 348 18.6548
149.583 342 18.4932
149.701 359 18.9473
149.818 356 18.868
149.935 360 18.9737
150.053 356 18.868
150.17 380 19.4936
150.287 327 18.0831
150.405 350 18.7083
150.522 373 19.3132
150.64 347 18.6279
150.757 367 19.1572
150.875 436 20.8806
150.992 394 19.8494
151.11 414 20.347
151.227 416 20.3961
151.344 390 19.7484
151.462 372 19.2873
151.579 382 19.5448
151.697 385 19.6214
151.814 379 19.4679
151.932 417 20.4206
152.049 384 19.5959
152.167 381 19.5192
152.284 395 19.8746
152.402 383 19.5704
152.519 322 17.9444
152.636 371 19.2614
152.754 363 19.0526
152.871 412 20.2978
152.989 369 19.2094
153.106 394 19.8494
153.223 364 19.0788
153.341 387 19.6723
153.458 384 19.5959
153.575 355 18.8414
153.693 420 20.4939
153.81 414 20.347
153.927 424 20.5913
154.044 407 20.1742
154.162 423 20.567
154.279 443 21.0476
154.396 468 21.6333
154.513 469 21.6564
154.63 492 22.1811
154.747 506 22.4944
154.864 480 21.9089
154.981 552 23.4947
155.098 521 22.8254
155.215 489 22.1133
155.332 492 22.1811
155.449 486 22.0454
155.566 504 22.4499
155.683 491 22.1585
155.8 467 21.6102
155.917 463 21.5174
156.033 478 21.8632
156.15 0 1
156.267 0 1
156.383 0 1
156.5 0 1
156.617 0 1
156.733 0 1
156.85 0 1
156.966 0 1
157.082 0 1
157.199 0 1
157.315 0 1
157.431 0 1
157.547 0 1
157.664 0 1
157.78 0 1
157.896 0 1
158.012 0 1
158.128 0 1
158.244 0 1
158.359 0 1
158.475 0 1
158.591 0 1
158.706 0 1
