
6.15755 0 1
6.2731 0 1
6.3887 0 1
6.50437 0 1
6.62009 0 1
6.73587 0 1
6.8517 0 1
6.96759 0 1
7.08353 0 1
7.19952 0 1
7.31557 0 1
7.43166 0 1
7.54781 0 1
7.664 0 1
7.78024 0 1
7.89653 0 1
8.01286 0 1
8.12924 0 1
8.24567 0 1
8.36213 0 1
8.47864 0 1
8.59519 0 1
8.71178 0 1
8.82841 0 1
8.94508 0 1
9.06179 0 1
9.17853 0 1
9.29531 0 1
9.41212 0 1
9.52897 0 1
9.64584 0 1
9.76276 0 1
9.8797 0 1
9.99667 0 1
10.1137 0 1
10.2307 0 1
10.3478 0 1
10.4648 0 1
10.5819 0 1
10.6991 0 1
10.8162 0 1
10.9334 0 1
11.0506 0 1
11.1678 0 1
11.285 0 1
11.4023 0 1
11.5196 0 1
11.6369 0 1
11.7542 0 1
11.8715 0 1
11.9888 0 1
12.1062 0 1
12.2235 0 1
12.3409 0 1
12.4582 0 1
12.5756 0 1
12.693 0 1
12.8104 0 1
12.9278 0 1
13.0452 0 1
13.1626 0 1
13.28 0 1
13.3974 0 1
13.5149 0 1
13.6323 0 1
13.7497 0 1
13.8671 0 1
13.9845 0 1
14.1019 0 1
14.2193 0 1
14.3367 0 1
14.4541 0 1
14.5714 0 1
14.6888 0 1
14.8062 0 1
14.9235 0 1
15.0408 700 26.4575
15.1581 759 27.55
15.2755 843 29.0345
15.3927 835 28.8964
15.51 838 28.9482
15.6273 783 27.9821
15.7445 809 28.4429
15.8617 825 28.7228
15.9789 814 28.5307
16.0961 784 28
16.2132 755 27.4773
16.3304 766 27.6767
16.4475 760 27.5681
16.5646 899 29.9833
16.6816 950 30.8221
16.7986 919 30.315
16.9156 985 31.3847
17.0326 1001 31.6386
17.1496 982 31.3369
17.2665 908 30.133
17.3833 968 31.1127
17.5002 881 29.6816
17.617 871 29.5127
17.7338 889 29.8161
17.8505 754 27.4591
17.9672 794 28.178
18.0839 841 29
18.2005 785 28.0179
18.3171 858 29.2916
18.4337 887 29.7825
18.5502 891 29.8496
18.6666 909 30.1496
18.7831 963 31.0322
18.8994 931 30.5123
19.0158 853 29.2062
19.1321 918 30.2985
19.2483 876 29.5973
19.3645 888 29.7993
19.4806 731 27.037
19.5967 724 26.9072
19.7128 606 24.6171
19.8288 599 24.4745
19.9447 559 23.6432
20.0606 0 1
20.1764 0 1
20.2922 0 1
20.4079 0 1
20.5236 0 1
20.6392 0 1
20.7548 0 1
20.8702 0 1
23.3078 0 1
23.4233 0 1
23.539 0 1
23.6547 0 1
23.7704 0 1
23.8862 0 1
24.0021 0 1
24.118 0 1
24.234 0 1
24.35 0 1
24.4661 355 18.8414
24.5822 435 20.8567
24.6984 511 22.6053
24.8146 532 23.0651
24.9309 602 24.5357
25.0472 610 24.6982
25.1636 679 26.0576
25.28 761 27.5862
25.3965 765 27.6586
25.513 870 29.4958
25.6296 912 30.1993
25.7462 974 31.209
25.8628 977 31.257
25.9795 944 30.7246
26.0962 958 30.9516
26.213 950 30.8221
26.3298 951 30.8383
26.4466 828 28.775
26.5635 819 28.6182
26.6804 870 29.4958
26.7973 814 28.5307
26.9143 827 28.7576
27.0313 887 29.7825
27.1483 902 30.0333
27.2653 902 30.0333
27.3824 936 30.5941
27.4996 898 29.9666
27.6167 923 30.3809
27.7339 901 30.0167
27.8511 865 29.4109
27.9683 877 29.6142
28.0855 840 28.9828
28.2028 792 28.1425
28.3201 777 27.8747
28.4374 710 26.6458
28.5547 693 26.3249
28.6721 760 27.5681
28.7894 768 27.7128
28.9068 845 29.0689
29.0242 891 29.8496
29.1416 880 29.6648
29.259 933 30.545
29.3764 930 30.4959
29.4939 934 30.5614
29.6113 941 30.6757
29.7288 894 29.8998
29.8463 844 29.0517
29.9638 783 27.9821
30.0812 765 27.6586
30.1987 779 27.9106
30.3162 788 28.0713
30.4337 862 29.3598
30.5512 803 28.3373
30.6687 837 28.931
30.7862 841 29
30.9037 901 30.0167
31.0212 825 28.7228
31.1387 894 29.8998
31.2562 872 29.5296
31.3737 866 29.4279
31.4912 795 28.1957
31.6087 811 28.4781
31.7262 797 28.2312
31.8436 775 27.8388
31.9611 749 27.3679
32.0785 753 27.4408
32.1959 715 26.7395
32.3134 749 27.3679
32.4308 844 29.0517
32.5482 838 28.9482
32.6655 904 30.0666
32.7829 928 30.4631
32.9002 867 29.4449
33.0176 829 28.7924
33.1349 877 29.6142
33.2522 855 29.2404
33.3694 859 29.3087
33.4867 767 27.6948
33.6039 759 27.55
33.7211 672 25.923
33.8383 722 26.8701
33.9554 742 27.2397
34.0725 790 28.1069
34.1896 822 28.6705
34.3067 779 27.9106
34.4237 850 29.1548
34.5407 818 28.6007
34.6577 845 29.0689
34.7746 853 29.2062
34.8915 874 29.5635
35.0084 875 29.5804
35.1252 851 29.1719
35.242 797 28.2312
35.3587 757 27.5136
35.4755 774 27.8209
35.5921 703 26.5141
35.7088 624 24.98
35.8254 698 26.4197
35.9419 699 26.4386
36.0584 726 26.9444
36.1749 760 27.5681
36.2913 807 28.4077
36.4077 763 27.6225
36.524 819 28.6182
36.6403 758 27.5318
36.7565 746 27.313
36.8727 699 26.4386
36.9889 621 24.9199
37.1049 563 23.7276
37.221 0 1
37.3369 0 1
37.4529 0 1
37.5687 0 1
37.6845 0 1
37.8003 0 1
37.916 0 1
38.0316 0 1
38.1472 0 1
40.5851 0 1
40.7008 0 1
40.8164 0 1
40.9322 0 1
41.048 0 1
41.1639 0 1
41.2798 0 1
41.3958 0 1
41.5118 0 1
41.6279 0 1
41.744 377 19.4165
41.8602 433 20.8087
41.9765 475 21.7945
42.0928 508 22.5389
42.2091 523 22.8692
42.3255 513 22.6495
42.4419 478 21.8632
42.5584 477 21.8403
42.675 485 22.0227
42.7915 624 24.98
42.9081 626 25.02
43.0248 636 25.219
43.1415 700 26.4575
43.2582 668 25.8457
43.375 691 26.2869
43.4918 713 26.7021
43.6087 670 25.8844
43.7256 683 26.1343
43.8425 698 26.4197
43.9595 715 26.7395
44.0765 710 26.6458
44.1935 664 25.7682
44.3106 629 25.0799
44.4277 578 24.0416
44.5448 562 23.7065
44.6619 520 22.8035
44.7791 590 24.2899
44.8963 618 24.8596
45.0136 643 25.3574
45.1308 690 26.2679
45.2481 703 26.5141
45.3654 702 26.4953
45.4827 741 27.2213
45.6001 658 25.6515
45.7174 715 26.7395
45.8348 657 25.632
45.9522 640 25.2982
46.0697 540 23.2379
46.1871 574 23.9583
46.3046 547 23.388
46.422 583 24.1454
46.5395 628 25.0599
46.657 695 26.3629
46.7745 622 24.9399
46.892 697 26.4008
47.0096 684 26.1534
47.1271 744 27.2764
47.2446 725 26.9258
47.3622 715 26.7395
47.4797 703 26.5141
47.5973 636 25.219
47.7149 688 26.2298
47.8324 653 25.5539
47.95 628 25.0599
48.0675 608 24.6577
48.1851 560 23.6643
48.3027 546 23.3666
48.4202 641 25.318
48.5378 710 26.6458
48.6554 736 27.1293
48.7729 707 26.5895
48.8904 700 26.4575
49.008 684 26.1534
49.1255 741 27.2213
49.243 702 26.4953
49.3605 639 25.2784
49.478 626 25.02
49.5955 607 24.6374
49.713 564 23.7487
49.8304 569 23.8537
49.9479 561 23.6854
50.0653 601 24.5153
50.1827 646 25.4165
50.3001 655 25.593
50.4175 685 26.1725
50.5348 697 26.4008
50.6521 716 26.7582
50.7694 677 26.0192
50.8867 716 26.7582
51.004 694 26.3439
51.1212 630 25.0998
51.2384 681 26.096
51.3556 644 25.3772
51.4727 640 25.2982
51.5899 536 23.1517
51.707 531 23.0434
51.824 536 23.1517
51.9411 587 24.2281
52.0581 669 25.865
52.175 723 26.8887
52.2919 649 25.4755
52.4088 676 26
52.5257 760 27.5681
52.6425 741 27.2213
52.7593 713 26.7021
52.876 650 25.4951
52.9927 638 25.2587
53.1094 602 24.5357
53.226 584 24.1661
53.3426 571 23.8956
53.4591 538 23.1948
53.5756 564 23.7487
53.692 573 23.9374
53.8084 559 23.6432
53.9248 548 23.4094
54.0411 516 22.7156
54.1573 532 23.0651
54.2735 0 1
54.3896 0 1
54.5057 0 1
54.6217 0 1
54.7377 0 1
54.8537 0 1
54.9695 0 1
55.0853 0 1
55.2011 0 1
55.3168 0 1
55.4324 0 1
57.824 0 1
57.9396 0 1
58.0553 0 1
58.1711 0 1
58.2869 0 1
58.4028 0 1
58.5187 0 1
58.6347 0 1
58.7508 0 1
58.8669 0 1
58.983 462 21.4942
59.0992 564 23.7487
59.2155 634 25.1794
59.3318 662 25.7294
59.4482 749 27.3679
59.5646 791 28.1247
59.681 802 28.3196
59.7975 785 28.0179
59.9141 778 27.8927
60.0306 799 28.2666
60.1473 819 28.6182
60.2639 731 27.037
60.3807 681 26.096
60.4974 716 26.7582
60.6142 758 27.5318
60.731 793 28.1603
60.8479 861 29.3428
60.9648 880 29.6648
61.0818 936 30.5941
61.1987 923 30.3809
61.3158 947 30.7734
61.4328 895 29.9166
61.5499 839 28.9655
61.667 805 28.3725
61.7841 724 26.9072
61.9013 716 26.7582
62.0185 653 25.5539
62.1357 725 26.9258
62.253 761 27.5862
62.3702 780 27.9285
62.4875 773 27.8029
62.6049 903 30.05
62.7222 869 29.4788
62.8396 819 28.6182
62.9569 864 29.3939
63.0743 887 29.7825
63.1918 861 29.3428
63.3092 855 29.2404
63.4267 834 28.8791
63.5441 829 28.7924
63.6616 768 27.7128
63.7791 723 26.8887
63.8966 748 27.3496
64.0142 707 26.5895
64.1317 726 26.9444
64.2492 774 27.8209
64.3668 813 28.5132
64.4843 864 29.3939
64.6019 858 29.2916
64.7195 894 29.8998
64.837 902 30.0333
64.9546 861 29.3428
65.0722 827 28.7576
65.1898 810 28.4605
65.3074 697 26.4008
65.4249 685 26.1725
65.5425 660 25.6905
65.6601 703 26.5141
65.7777 722 26.8701
65.8952 780 27.9285
66.0128 854 29.2233
66.1304 837 28.931
66.2479 876 29.5973
66.3655 923 30.3809
66.483 897 29.95
66.6005 885 29.7489
66.718 879 29.6479
66.8355 849 29.1376
66.953 897 29.95
67.0705 823 28.688
67.1879 832 28.8444
67.3054 851 29.1719
67.4228 737 27.1477
67.5402 684 26.1534
67.6576 721 26.8514
67.7749 724 26.9072
67.8923 761 27.5862
68.0096 818 28.6007
68.1269 897 29.95
68.2442 987 31.4166
68.3614 932 30.5287
68.4787 960 30.9839
68.5958 945 30.7409
68.713 896 29.9333
68.8302 864 29.3939
68.9473 788 28.0713
69.0643 798 28.2489
69.1814 698 26.4197
69.2984 796 28.2135
69.4154 821 28.6531
69.5323 872 29.5296
69.6492 910 30.1662
69.7661 969 31.1288
69.8829 991 31.4802
69.9997 951 30.8383
70.1165 1032 32.1248
70.2332 944 30.7246
70.3499 948 30.7896
70.4665 921 30.348
70.5831 874 29.5635
70.6996 836 28.9137
70.8161 797 28.2312
70.9326 709 26.6271
71.049 624 24.98
71.1653 460 21.4476
71.2817 418 20.445
71.3979 463 21.5174
71.5141 380 19.4936
71.6303 401 20.025
71.7464 353 18.7883
71.8624 0 1
71.9784 0 1
72.0944 0 1
72.2102 0 1
72.3261 0 1
72.4418 0 1
72.5575 0 1
72.6732 0 1
75.1054 0 1
75.2209 0 1
75.3365 0 1
75.4521 0 1
75.5678 0 1
75.6835 0 1
75.7993 0 1
75.9151 0 1
76.031 0 1
76.147 610 24.6982
76.263 670 25.8844
76.3791 680 26.0768
76.4952 668 25.8457
76.6113 662 25.7294
76.7276 707 26.5895
76.8438 736 27.1293
76.9601 827 28.7576
77.0765 870 29.4958
77.1929 869 29.4788
77.3093 845 29.0689
77.4258 880 29.6648
77.5423 862 29.3598
77.6589 865 29.4109
77.7755 763 27.6225
77.8921 649 25.4755
78.0088 627 25.04
78.1256 596 24.4131
78.2423 550 23.4521
78.3591 619 24.8797
78.4759 679 26.0576
78.5928 725 26.9258
78.7097 661 25.7099
78.8266 708 26.6083
78.9436 768 27.7128
79.0606 802 28.3196
79.1776 785 28.0179
79.2946 827 28.7576
79.4117 756 27.4955
79.5288 780 27.9285
79.6459 763 27.6225
79.7631 728 26.9815
79.8802 703 26.5141
79.9974 697 26.4008
80.1147 621 24.9199
80.2319 568 23.8328
80.3491 604 24.5764
80.4664 649 25.4755
80.5837 727 26.9629
80.701 742 27.2397
80.8183 727 26.9629
80.9357 824 28.7054
81.053 809 28.4429
81.1704 754 27.4591
81.2877 789 28.0891
81.4051 813 28.5132
81.5225 699 26.4386
81.6399 642 25.3377
81.7573 560 23.6643
81.8747 564 23.7487
81.9922 550 23.4521
82.1096 615 24.7992
82.227 649 25.4755
82.3444 722 26.8701
82.4619 742 27.2397
82.5793 762 27.6043
82.6967 772 27.7849
82.8142 773 27.8029
82.9316 837 28.931
83.049 819 28.6182
83.1664 812 28.4956
83.2838 816 28.5657
83.4012 779 27.9106
83.5186 700 26.4575
83.636 736 27.1293
83.7534 733 27.074
83.8708 594 24.3721
83.9881 608 24.6577
84.1055 614 24.779
84.2228 655 25.593
84.3401 731 27.037
84.4575 836 28.9137
84.5747 827 28.7576
84.692 839 28.9655
84.8093 811 28.4781
84.9265 844 29.0517
85.0437 794 28.178
85.1609 659 25.671
85.2781 631 25.1197
85.3952 631 25.1197
85.5123 578 24.0416
85.6294 608 24.6577
85.7465 640 25.2982
85.8636 753 27.4408
85.9806 748 27.3496
86.0976 808 28.4253
86.2145 808 28.4253
86.3315 782 27.9643
86.4484 801 28.3019
86.5652 898 29.9666
86.682 810 28.4605
86.7988 868 29.4618
86.9156 814 28.5307
87.0323 842 29.0172
87.149 786 28.0357
87.2657 729 27
87.3823 640 25.2982
87.4988 545 23.3452
87.6154 497 22.2935
87.7318 602 24.5357
87.8483 607 24.6374
87.9647 606 24.6171
88.081 653 25.5539
88.1973 659 25.671
88.3136 627 25.04
88.4298 602 24.5357
88.546 552 23.4947
88.6621 465 21.5639
88.7781 328 18.1108
88.8942 0 1
89.0101 0 1
89.126 0 1
89.2419 0 1
89.3577 0 1
89.4734 0 1
89.5891 0 1
89.7047 0 1
89.8203 0 1
89.9358 0 1
92.3269 0 1
92.4424 0 1
92.558 0 1
92.6736 0 1
92.7893 0 1
92.905 0 1
93.0208 0 1
93.1366 0 1
93.2525 0 1
93.3685 0 1
93.4845 0 1
93.6005 591 24.3105
93.7167 618 24.8596
93.8328 630 25.0998
93.949 680 26.0768
94.0653 686 26.1916
94.1816 696 26.3818
94.2979 687 26.2107
94.4143 662 25.7294
94.5307 588 24.2487
94.6472 591 24.3105
94.7637 629 25.0799
94.8803 638 25.2587
94.9969 671 25.9037
95.1135 747 27.3313
95.2302 719 26.8142
95.3469 818 28.6007
95.4637 804 28.3549
95.5805 804 28.3549
95.6973 775 27.8388
95.8142 794 28.178
95.9311 788 28.0713
96.048 803 28.3373
96.1649 801 28.3019
96.2819 803 28.3373
96.3989 720 26.8328
96.516 754 27.4591
96.633 670 25.8844
96.7501 593 24.3516
96.8673 573 23.9374
96.9844 640 25.2982
97.1016 681 26.096
97.2188 789 28.0891
97.336 814 28.5307
97.4532 788 28.0713
97.5704 775 27.8388
97.6877 810 28.4605
97.805 802 28.3196
97.9223 737 27.1477
98.0396 661 25.7099
98.1569 622 24.9399
98.2743 587 24.2281
98.3916 585 24.1868
98.509 652 25.5343
98.6264 690 26.2679
98.7438 684 26.1534
98.8612 780 27.9285
98.9786 795 28.1957
99.096 825 28.7228
99.2134 833 28.8617
99.3308 852 29.189
99.4482 840 28.9828
99.5656 810 28.4605
99.6831 835 28.8964
99.8005 800 28.2843
99.9179 800 28.2843
100.035 757 27.5136
100.153 776 27.8568
100.27 703 26.5141
100.388 637 25.2389
100.505 694 26.3439
100.622 756 27.4955
100.74 799 28.2666
100.857 814 28.5307
100.975 803 28.3373
101.092 870 29.4958
101.209 888 29.7993
101.327 826 28.7402
101.444 836 28.9137
101.561 736 27.1293
101.679 700 26.4575
101.796 680 26.0768
101.913 630 25.0998
102.03 611 24.7184
102.148 741 27.2213
102.265 729 27
102.382 782 27.9643
102.499 815 28.5482
102.616 851 29.1719
102.733 867 29.4449
102.851 900 30
102.968 927 30.4467
103.085 878 29.6311
103.202 875 29.5804
103.319 868 29.4618
103.436 810 28.4605
103.552 799 28.2666
103.669 744 27.2764
103.786 701 26.4764
103.903 733 27.074
104.02 748 27.3496
104.137 748 27.3496
104.253 803 28.3373
104.37 915 30.249
104.487 859 29.3087
104.603 896 29.9333
104.72 949 30.8058
104.836 863 29.3769
104.953 804 28.3549
105.069 688 26.2298
105.186 650 25.4951
105.302 621 24.9199
105.418 572 23.9165
105.535 629 25.0799
105.651 609 24.6779
105.767 589 24.2693
105.883 608 24.6577
105.999 570 23.8747
106.115 0 1
106.231 0 1
106.347 0 1
106.463 0 1
106.579 0 1
106.694 0 1
106.81 0 1
106.926 0 1
107.041 0 1
107.157 0 1
109.576 0 1
109.692 0 1
109.807 0 1
109.923 0 1
110.039 0 1
110.155 0 1
110.27 0 1
110.386 0 1
110.502 0 1
110.618 340 18.4391
110.735 441 21
110.851 553 23.516
110.967 613 24.7588
111.083 679 26.0576
111.199 739 27.1846
111.316 733 27.074
111.432 770 27.7489
111.549 775 27.8388
111.665 830 28.8097
111.782 736 27.1293
111.898 811 28.4781
112.015 799 28.2666
112.132 745 27.2947
112.248 677 26.0192
112.365 662 25.7294
112.482 620 24.8998
112.599 667 25.8263
112.716 671 25.9037
112.832 758 27.5318
112.949 782 27.9643
113.066 829 28.7924
113.183 797 28.2312
113.3 815 28.5482
113.417 807 28.4077
113.534 721 26.8514
113.652 676 26
113.769 661 25.7099
113.886 570 23.8747
114.003 562 23.7065
114.12 608 24.6577
114.238 655 25.593
114.355 698 26.4197
114.472 725 26.9258
114.589 800 28.2843
114.707 806 28.3901
114.824 806 28.3901
114.942 813 28.5132
115.059 806 28.3901
115.176 816 28.5657
115.294 814 28.5307
115.411 778 27.8927
115.529 797 28.2312
115.646 757 27.5136
115.764 742 27.2397
115.881 634 25.1794
115.999 629 25.0799
116.116 640 25.2982
116.234 716 26.7582
116.351 703 26.5141
116.469 744 27.2764
116.586 793 28.1603
116.704 843 29.0345
116.821 821 28.6531
116.939 833 28.8617
117.056 756 27.4955
117.174 728 26.9815
117.291 750 27.3861
117.409 647 25.4362
117.526 607 24.6374
117.644 532 23.0651
117.761 637 25.2389
117.879 681 26.096
117.996 702 26.4953
118.114 739 27.1846
118.231 832 28.8444
118.349 760 27.5681
118.466 812 28.4956
118.584 809 28.4429
118.701 806 28.3901
118.819 774 27.8209
118.936 784 28
119.053 758 27.5318
119.171 752 27.4226
119.288 686 26.1916
119.405 705 26.5518
119.523 671 25.9037
119.64 643 25.3574
119.757 632 25.1396
119.875 677 26.0192
119.992 717 26.7769
120.109 758 27.5318
120.226 819 28.6182
120.343 796 28.2135
120.46 765 27.6586
120.578 803 28.3373
120.695 768 27.7128
120.812 740 27.2029
120.929 665 25.7876
121.046 604 24.5764
121.163 580 24.0832
121.279 552 23.4947
121.396 593 24.3516
121.513 617 24.8395
121.63 687 26.2107
121.747 679 26.0576
121.863 717 26.7769
121.98 686 26.1916
122.097 661 25.7099
122.213 648 25.4558
122.33 679 26.0576
122.446 612 24.7386
122.563 622 24.9399
122.679 598 24.454
122.795 539 23.2164
122.912 452 21.2603
123.028 418 20.445
123.144 348 18.6548
123.26 309 17.5784
123.377 0 1
123.493 0 1
123.609 0 1
123.725 0 1
123.84 0 1
123.956 0 1
124.072 0 1
124.188 0 1
124.303 0 1
124.419 0 1
126.852 0 1
126.968 0 1
127.083 0 1
127.199 0 1
127.315 0 1
127.431 0 1
127.547 0 1
127.663 0 1
127.779 0 1
127.895 0 1
128.011 0 1
128.127 0 1
128.243 0 1
128.359 825 28.7228
128.476 826 28.7402
128.592 863 29.3769
128.708 804 28.3549
128.825 856 29.2575
128.941 856 29.2575
129.058 871 29.5127
129.174 1010 31.7805
129.291 961 31
129.408 979 31.289
129.524 998 31.5911
129.641 1007 31.7333
129.758 1030 32.0936
129.875 976 31.241
129.992 890 29.8329
130.108 780 27.9285
130.225 734 27.0924
130.342 745 27.2947
130.459 794 28.178
130.576 883 29.7153
130.693 954 30.8869
130.81 851 29.1719
130.928 932 30.5287
131.045 925 30.4138
131.162 973 31.1929
131.279 1017 31.8904
131.396 1034 32.1559
131.513 988 31.4325
131.631 952 30.8545
131.748 936 30.5941
131.865 944 30.7246
131.983 902 30.0333
132.1 837 28.931
132.217 847 29.1033
132.335 824 28.7054
132.452 872 29.5296
132.57 882 29.6985
132.687 952 30.8545
132.804 994 31.5278
132.922 1037 32.2025
133.039 1007 31.7333
133.157 986 31.4006
133.274 949 30.8058
133.392 1021 31.9531
133.509 898 29.9666
133.627 840 28.9828
133.744 767 27.6948
133.862 799 28.2666
133.979 769 27.7308
134.097 899 29.9833
134.214 863 29.3769
134.332 848 29.1204
134.449 937 30.6105
134.567 1015 31.8591
134.684 1023 31.9844
134.802 982 31.3369
134.919 979 31.289
135.037 1007 31.7333
135.154 979 31.289
135.272 948 30.7896
135.389 906 30.0998
135.507 863 29.3769
135.624 887 29.7825
135.742 803 28.3373
135.859 802 28.3196
135.977 849 29.1376
136.094 937 30.6105
136.211 889 29.8161
136.329 1005 31.7017
136.446 993 31.5119
136.564 983 31.3528
136.681 1015 31.8591
136.798 970 31.1448
136.915 1008 31.749
137.033 900 30
137.15 890 29.8329
137.267 805 28.3725
137.384 790 28.1069
137.502 729 27
137.619 742 27.2397
137.736 867 29.4449
137.853 836 28.9137
137.97 883 29.7153
138.087 914 30.2324
138.204 912 30.1993
138.321 929 30.4795
138.438 957 30.9354
138.555 929 30.4795
138.672 886 29.7658
138.788 922 30.3645
138.905 844 29.0517
139.022 853 29.2062
139.139 799 28.2666
139.255 745 27.2947
139.372 650 25.4951
139.488 634 25.1794
139.605 644 25.3772
139.721 566 23.7908
139.838 591 24.3105
139.954 597 24.4336
140.071 550 23.4521
140.187 545 23.3452
140.303 507 22.5167
140.419 458 21.4009
140.535 462 21.4942
140.652 390 19.7484
140.768 0 1
140.884 0 1
141 0 1
141.115 0 1
141.231 0 1
141.347 0 1
141.463 0 1
141.578 0 1
141.694 0 1
144.104 0 1
144.219 0 1
144.335 0 1
144.45 0 1
144.566 0 1
144.682 0 1
144.798 0 1
144.914 0 1
145.03 0 1
145.146 584 24.1661
145.262 638 25.2587
145.378 628 25.0599
145.494 590 24.2899
145.61 689 26.2488
145.726 668 25.8457
145.842 617 24.8395
145.959 609 24.6779
146.075 563 23.7276
146.192 534 23.1084
146.308 558 23.622
146.425 519 22.7816
146.541 585 24.1868
146.658 566 23.7908
146.774 626 25.02
146.891 600 24.4949
147.008 619 24.8797
147.125 617 24.8395
147.241 672 25.923
147.358 605 24.5967
147.475 604 24.5764
147.592 623 24.96
147.709 675 25.9808
147.826 595 24.3926
147.943 560 23.6643
148.06 592 24.3311
148.177 518 22.7596
148.294 525 22.9129
148.411 513 22.6495
148.528 616 24.8193
148.645 579 24.0624
148.762 617 24.8395
148.88 682 26.1151
148.997 641 25.318
149.114 616 24.8193
149.231 666 25.807
149.349 589 24.2693
149.466 626 25.02
149.583 586 24.2074
149.701 534 23.1084
149.818 543 23.3024
149.935 518 22.7596
150.053 534 23.1084
150.17 490 22.1359
150.287 565 23.7697
150.405 545 23.3452
150.522 569 23.8537
150.64 577 24.0208
150.757 597 24.4336
150.875 563 23.7276
150.992 591 24.3105
151.11 650 25.4951
151.227 598 24.454
151.344 608 24.6577
151.462 594 24.3721
151.579 547 23.388
151.697 561 23.6854
151.814 515 22.6936
151.932 541 23.2594
152.049 555 23.5584
152.167 511 22.6053
152.284 556 23.5797
152.402 574 23.9583
152.519 636 25.219
152.636 592 24.3311
152.754 630 25.0998
152.871 602 24.5357
152.989 615 24.7992
153.106 585 24.1868
153.223 504 22.4499
153.341 497 22.2935
153.458 478 21.8632
153.575 458 21.4009
153.693 526 22.9347
153.81 482 21.9545
153.927 564 23.7487
154.044 471 21.7025
154.162 560 23.6643
154.279 532 23.0651
154.396 517 22.7376
154.513 594 24.3721
154.63 572 23.9165
154.747 614 24.779
154.864 582 24.1247
154.981 600 24.4949
155.098 543 23.3024
155.215 496 22.2711
155.332 478 21.8632
155.449 529 23
155.566 480 21.9089
155.683 468 21.6333
155.8 517 22.7376
155.917 518 22.7596
156.033 495 22.2486
156.15 0 1
156.267 0 1
156.383 0 1
156.5 0 1
156.617 0 1
156.733 0 1
156.85 0 1
156.966 0 1
157.082 0 1
157.199 0 1
157.315 0 1
157.431 0 1
157.547 0 1
157.664 0 1
157.78 0 1
157.896 0 1
158.012 0 1
158.128 0 1
158.244 0 1
158.359 0 1
158.475 0 1
158.591 0 1
158.706 0 1
