
6.15755 0 1
6.2731 0 1
6.3887 0 1
6.50437 0 1
6.62009 0 1
6.73587 0 1
6.8517 0 1
6.96759 0 1
7.08353 0 1
7.19952 0 1
7.31557 0 1
7.43166 0 1
7.54781 0 1
7.664 0 1
7.78024 0 1
7.89653 0 1
8.01286 0 1
8.12924 0 1
8.24567 0 1
8.36213 0 1
8.47864 0 1
8.59519 0 1
8.71178 0 1
8.82841 0 1
8.94508 0 1
9.06179 0 1
9.17853 0 1
9.29531 0 1
9.41212 0 1
9.52897 0 1
9.64584 0 1
9.76276 0 1
9.8797 0 1
9.99667 0 1
10.1137 0 1
10.2307 0 1
10.3478 0 1
10.4648 0 1
10.5819 0 1
10.6991 0 1
10.8162 0 1
10.9334 0 1
11.0506 0 1
11.1678 0 1
11.285 0 1
11.4023 0 1
11.5196 0 1
11.6369 0 1
11.7542 0 1
11.8715 0 1
11.9888 0 1
12.1062 0 1
12.2235 0 1
12.3409 0 1
12.4582 0 1
12.5756 0 1
12.693 0 1
12.8104 0 1
12.9278 0 1
13.0452 0 1
13.1626 0 1
13.28 0 1
13.3974 0 1
13.5149 0 1
13.6323 0 1
13.7497 0 1
13.8671 0 1
13.9845 0 1
14.1019 0 1
14.2193 0 1
14.3367 0 1
14.4541 0 1
14.5714 0 1
14.6888 0 1
14.8062 0 1
14.9235 0 1
15.0408 1113 33.3617
15.1581 1202 34.6699
15.2755 1276 35.7211
15.3927 1141 33.7787
15.51 1192 34.5254
15.6273 1200 34.641
15.7445 1146 33.8526
15.8617 1178 34.322
15.9789 1142 33.7935
16.0961 1107 33.2716
16.2132 1038 32.218
16.3304 1072 32.7414
16.4475 1158 34.0294
16.5646 1093 33.0606
16.6816 1083 32.909
16.7986 1092 33.0454
16.9156 1106 33.2566
17.0326 1130 33.6155
17.1496 1135 33.6898
17.2665 1089 33
17.3833 1153 33.9559
17.5002 1157 34.0147
17.617 1169 34.1906
17.7338 1221 34.9428
17.8505 1278 35.7491
17.9672 1369 37
18.0839 1351 36.756
18.2005 1346 36.6879
18.3171 1423 37.7227
18.4337 1436 37.8946
18.5502 1424 37.7359
18.6666 1446 38.0263
18.7831 1404 37.47
18.8994 1403 37.4566
19.0158 1317 36.2905
19.1321 1356 36.8239
19.2483 1282 35.805
19.3645 1222 34.9571
19.4806 1151 33.9264
19.5967 1123 33.5112
19.7128 1107 33.2716
19.8288 1085 32.9393
19.9447 990 31.4643
20.0606 0 1
20.1764 0 1
20.2922 0 1
20.4079 0 1
20.5236 0 1
20.6392 0 1
20.7548 0 1
20.8702 0 1
23.3078 0 1
23.4233 0 1
23.539 0 1
23.6547 0 1
23.7704 0 1
23.8862 0 1
24.0021 0 1
24.118 0 1
24.234 0 1
24.35 0 1
24.4661 1166 34.1467
24.5822 1117 33.4215
24.6984 1138 33.7343
24.8146 1139 33.7491
24.9309 1061 32.573
25.0472 1164 34.1174
25.1636 1176 34.2929
25.28 1188 34.4674
25.3965 1164 34.1174
25.513 1227 35.0286
25.6296 1165 34.1321
25.7462 1232 35.0999
25.8628 1255 35.426
25.9795 1240 35.2136
26.0962 1235 35.1426
26.213 1200 34.641
26.3298 1342 36.6333
26.4466 1276 35.7211
26.5635 1350 36.7423
26.6804 1305 36.1248
26.7973 1370 37.0135
26.9143 1365 36.9459
27.0313 1386 37.229
27.1483 1373 37.054
27.2653 1357 36.8375
27.3824 1366 36.9594
27.4996 1302 36.0832
27.6167 1284 35.8329
27.7339 1261 35.5106
27.8511 1234 35.1283
27.9683 1129 33.6006
28.0855 1195 34.5688
28.2028 1129 33.6006
28.3201 1096 33.1059
28.4374 1150 33.9116
28.5547 1123 33.5112
28.6721 1102 33.1964
28.7894 1106 33.2566
28.9068 1134 33.6749
29.0242 1189 34.4819
29.1416 1075 32.7872
29.259 1181 34.3657
29.3764 1193 34.5398
29.4939 1198 34.6121
29.6113 1228 35.0428
29.7288 1180 34.3511
29.8463 1146 33.8526
29.9638 1178 34.322
30.0812 1276 35.7211
30.1987 1310 36.1939
30.3162 1357 36.8375
30.4337 1361 36.8917
30.5512 1296 36
30.6687 1392 37.3095
30.7862 1261 35.5106
30.9037 1272 35.6651
31.0212 1240 35.2136
31.1387 1240 35.2136
31.2562 1169 34.1906
31.3737 1170 34.2053
31.4912 1125 33.541
31.6087 1054 32.4654
31.7262 1057 32.5115
31.8436 1059 32.5423
31.9611 1118 33.4365
32.0785 1044 32.311
32.1959 1130 33.6155
32.3134 1070 32.7109
32.4308 1095 33.0908
32.5482 1146 33.8526
32.6655 1100 33.1662
32.7829 1062 32.5883
32.9002 1095 33.0908
33.0176 1089 33
33.1349 1041 32.2645
33.2522 1113 33.3617
33.3694 1135 33.6898
33.4867 1180 34.3511
33.6039 1222 34.9571
33.7211 1315 36.2629
33.8383 1227 35.0286
33.9554 1235 35.1426
34.0725 1142 33.7935
34.1896 1272 35.6651
34.3067 1261 35.5106
34.4237 1248 35.327
34.5407 1170 34.2053
34.6577 1224 34.9857
34.7746 1204 34.6987
34.8915 1061 32.573
35.0084 1014 31.8434
35.1252 1001 31.6386
35.242 1041 32.2645
35.3587 971 31.1609
35.4755 1018 31.9061
35.5921 1020 31.9374
35.7088 1106 33.2566
35.8254 1095 33.0908
35.9419 1070 32.7109
36.0584 1112 33.3467
36.1749 1132 33.6452
36.2913 1140 33.7639
36.4077 1065 32.6343
36.524 1103 33.2114
36.6403 1074 32.7719
36.7565 1108 33.2866
36.8727 1094 33.0757
36.9889 1017 31.8904
37.1049 1078 32.8329
37.221 0 1
37.3369 0 1
37.4529 0 1
37.5687 0 1
37.6845 0 1
37.8003 0 1
37.916 0 1
38.0316 0 1
38.1472 0 1
40.5851 0 1
40.7008 0 1
40.8164 0 1
40.9322 0 1
41.048 0 1
41.1639 0 1
41.2798 0 1
41.3958 0 1
41.5118 0 1
41.6279 0 1
41.744 905 30.0832
41.8602 955 30.9031
41.9765 893 29.8831
42.0928 984 31.3688
42.2091 982 31.3369
42.3255 957 30.9354
42.4419 942 30.692
42.5584 960 30.9839
42.675 1010 31.7805
42.7915 1001 31.6386
42.9081 1031 32.1092
43.0248 1035 32.1714
43.1415 1047 32.3574
43.2582 1072 32.7414
43.375 1051 32.4191
43.4918 1043 32.2955
43.6087 1044 32.311
43.7256 1054 32.4654
43.8425 960 30.9839
43.9595 994 31.5278
44.0765 988 31.4325
44.1935 970 31.1448
44.3106 967 31.0966
44.4277 947 30.7734
44.5448 923 30.3809
44.6619 920 30.3315
44.7791 925 30.4138
44.8963 880 29.6648
45.0136 867 29.4449
45.1308 899 29.9833
45.2481 906 30.0998
45.3654 869 29.4788
45.4827 831 28.8271
45.6001 874 29.5635
45.7174 799 28.2666
45.8348 813 28.5132
45.9522 743 27.258
46.0697 771 27.7669
46.1871 769 27.7308
46.3046 791 28.1247
46.422 792 28.1425
46.5395 760 27.5681
46.657 775 27.8388
46.7745 757 27.5136
46.892 754 27.4591
47.0096 729 27
47.1271 663 25.7488
47.2446 653 25.5539
47.3622 684 26.1534
47.4797 669 25.865
47.5973 729 27
47.7149 664 25.7682
47.8324 700 26.4575
47.95 671 25.9037
48.0675 726 26.9444
48.1851 621 24.9199
48.3027 622 24.9399
48.4202 589 24.2693
48.5378 660 25.6905
48.6554 621 24.9199
48.7729 622 24.9399
48.8904 656 25.6125
49.008 571 23.8956
49.1255 594 24.3721
49.243 590 24.2899
49.3605 598 24.454
49.478 612 24.7386
49.5955 557 23.6008
49.713 598 24.454
49.8304 629 25.0799
49.9479 667 25.8263
50.0653 599 24.4745
50.1827 601 24.5153
50.3001 666 25.807
50.4175 664 25.7682
50.5348 696 26.3818
50.6521 702 26.4953
50.7694 640 25.2982
50.8867 718 26.7955
51.004 713 26.7021
51.1212 745 27.2947
51.2384 815 28.5482
51.3556 856 29.2575
51.4727 797 28.2312
51.5899 850 29.1548
51.707 871 29.5127
51.824 838 28.9482
51.9411 798 28.2489
52.0581 772 27.7849
52.175 745 27.2947
52.2919 819 28.6182
52.4088 796 28.2135
52.5257 833 28.8617
52.6425 794 28.178
52.7593 782 27.9643
52.876 806 28.3901
52.9927 799 28.2666
53.1094 842 29.0172
53.226 805 28.3725
53.3426 809 28.4429
53.4591 794 28.178
53.5756 872 29.5296
53.692 864 29.3939
53.8084 914 30.2324
53.9248 950 30.8221
54.0411 1004 31.686
54.1573 1007 31.7333
54.2735 0 1
54.3896 0 1
54.5057 0 1
54.6217 0 1
54.7377 0 1
54.8537 0 1
54.9695 0 1
55.0853 0 1
55.2011 0 1
55.3168 0 1
55.4324 0 1
57.824 0 1
57.9396 0 1
58.0553 0 1
58.1711 0 1
58.2869 0 1
58.4028 0 1
58.5187 0 1
58.6347 0 1
58.7508 0 1
58.8669 0 1
58.983 1046 32.3419
59.0992 1055 32.4808
59.2155 1130 33.6155
59.3318 1154 33.9706
59.4482 1172 34.2345
59.5646 1237 35.171
59.681 1235 35.1426
59.7975 1302 36.0832
59.9141 1216 34.8712
60.0306 1220 34.9285
60.1473 1202 34.6699
60.2639 1259 35.4824
60.3807 1141 33.7787
60.4974 1102 33.1964
60.6142 1087 32.9697
60.731 1022 31.9687
60.8479 973 31.1929
60.9648 948 30.7896
61.0818 942 30.692
61.1987 960 30.9839
61.3158 929 30.4795
61.4328 1000 31.6228
61.5499 1009 31.7648
61.667 998 31.5911
61.7841 983 31.3528
61.9013 1002 31.6544
62.0185 897 29.95
62.1357 1020 31.9374
62.253 1065 32.6343
62.3702 1047 32.3574
62.4875 1011 31.7962
62.6049 1059 32.5423
62.7222 1103 33.2114
62.8396 1099 33.1512
62.9569 1177 34.3074
63.0743 1120 33.4664
63.1918 1234 35.1283
63.3092 1240 35.2136
63.4267 1281 35.7911
63.5441 1185 34.4238
63.6616 1175 34.2783
63.7791 1128 33.5857
63.8966 1114 33.3766
64.0142 1013 31.8277
64.1317 995 31.5436
64.2492 920 30.3315
64.3668 911 30.1828
64.4843 915 30.249
64.6019 864 29.3939
64.7195 898 29.9666
64.837 896 29.9333
64.9546 849 29.1376
65.0722 862 29.3598
65.1898 923 30.3809
65.3074 938 30.6268
65.4249 865 29.4109
65.5425 960 30.9839
65.6601 939 30.6431
65.7777 943 30.7083
65.8952 985 31.3847
66.0128 929 30.4795
66.1304 1000 31.6228
66.2479 1094 33.0757
66.3655 1041 32.2645
66.483 1116 33.4066
66.6005 1197 34.5977
66.718 1231 35.0856
66.8355 1225 35
66.953 1104 33.2265
67.0705 1131 33.6303
67.1879 1239 35.1994
67.3054 1215 34.8569
67.4228 1091 33.0303
67.5402 972 31.1769
67.6576 891 29.8496
67.7749 897 29.95
67.8923 839 28.9655
68.0096 842 29.0172
68.1269 922 30.3645
68.2442 831 28.8271
68.3614 852 29.189
68.4787 868 29.4618
68.5958 911 30.1828
68.713 945 30.7409
68.8302 950 30.8221
68.9473 914 30.2324
69.0643 953 30.8707
69.1814 970 31.1448
69.2984 1013 31.8277
69.4154 1035 32.1714
69.5323 1042 32.28
69.6492 1010 31.7805
69.7661 1026 32.0312
69.8829 1110 33.3167
69.9997 1165 34.1321
70.1165 1139 33.7491
70.2332 1215 34.8569
70.3499 1261 35.5106
70.4665 1290 35.9166
70.5831 1239 35.1994
70.6996 1253 35.3977
70.8161 1264 35.5528
70.9326 1154 33.9706
71.049 1027 32.0468
71.1653 1001 31.6386
71.2817 914 30.2324
71.3979 910 30.1662
71.5141 833 28.8617
71.6303 879 29.6479
71.7464 802 28.3196
71.8624 0 1
71.9784 0 1
72.0944 0 1
72.2102 0 1
72.3261 0 1
72.4418 0 1
72.5575 0 1
72.6732 0 1
75.1054 0 1
75.2209 0 1
75.3365 0 1
75.4521 0 1
75.5678 0 1
75.6835 0 1
75.7993 0 1
75.9151 0 1
76.031 0 1
76.147 1063 32.6037
76.263 1125 33.541
76.3791 1016 31.8748
76.4952 949 30.8058
76.6113 885 29.7489
76.7276 926 30.4302
76.8438 962 31.0161
76.9601 912 30.1993
77.0765 990 31.4643
77.1929 898 29.9666
77.3093 836 28.9137
77.4258 924 30.3974
77.5423 1004 31.686
77.6589 989 31.4484
77.7755 996 31.5595
77.8921 932 30.5287
78.0088 988 31.4325
78.1256 926 30.4302
78.2423 964 31.0483
78.3591 1060 32.5576
78.4759 1070 32.7109
78.5928 1020 31.9374
78.7097 1153 33.9559
78.8266 1063 32.6037
78.9436 1213 34.8281
79.0606 1175 34.2783
79.1776 1227 35.0286
79.2946 1251 35.3695
79.4117 1220 34.9285
79.5288 1324 36.3868
79.6459 1245 35.2846
79.7631 1161 34.0735
79.8802 1076 32.8024
79.9974 1024 32
80.1147 956 30.9192
80.2319 913 30.2159
80.3491 958 30.9516
80.4664 960 30.9839
80.5837 913 30.2159
80.701 933 30.545
80.8183 947 30.7734
80.9357 883 29.7153
81.053 961 31
81.1704 984 31.3688
81.2877 992 31.496
81.4051 991 31.4802
81.5225 948 30.7896
81.6399 932 30.5287
81.7573 951 30.8383
81.8747 1029 32.078
81.9922 1020 31.9374
82.1096 1049 32.3883
82.227 1163 34.1028
82.3444 1094 33.0757
82.4619 1244 35.2704
82.5793 1237 35.171
82.6967 1250 35.3553
82.8142 1315 36.2629
82.9316 1271 35.6511
83.049 1290 35.9166
83.1664 1256 35.4401
83.2838 1201 34.6554
83.4012 1123 33.5112
83.5186 1048 32.3728
83.636 1006 31.7175
83.7534 973 31.1929
83.8708 973 31.1929
83.9881 940 30.6594
84.1055 957 30.9354
84.2228 955 30.9031
84.3401 994 31.5278
84.4575 972 31.1769
84.5747 960 30.9839
84.692 1008 31.749
84.8093 1081 32.8786
84.9265 1078 32.8329
85.0437 1057 32.5115
85.1609 963 31.0322
85.2781 1052 32.4345
85.3952 1001 31.6386
85.5123 1022 31.9687
85.6294 1097 33.121
85.7465 1096 33.1059
85.8636 1150 33.9116
85.9806 1281 35.7911
86.0976 1224 34.9857
86.2145 1320 36.3318
86.3315 1263 35.5387
86.4484 1373 37.054
86.5652 1380 37.1484
86.682 1397 37.3765
86.7988 1375 37.081
86.9156 1288 35.8887
87.0323 1333 36.5103
87.149 1191 34.5109
87.2657 1110 33.3167
87.3823 1053 32.45
87.4988 1109 33.3017
87.6154 1056 32.4962
87.7318 983 31.3528
87.8483 1038 32.218
87.9647 1018 31.9061
88.081 1055 32.4808
88.1973 1054 32.4654
88.3136 1099 33.1512
88.4298 1163 34.1028
88.546 1075 32.7872
88.6621 1063 32.6037
88.7781 1021 31.9531
88.8942 0 1
89.0101 0 1
89.126 0 1
89.2419 0 1
89.3577 0 1
89.4734 0 1
89.5891 0 1
89.7047 0 1
89.8203 0 1
89.9358 0 1
92.3269 0 1
92.4424 0 1
92.558 0 1
92.6736 0 1
92.7893 0 1
92.905 0 1
93.0208 0 1
93.1366 0 1
93.2525 0 1
93.3685 0 1
93.4845 0 1
93.6005 960 30.9839
93.7167 1036 32.187
93.8328 1032 32.1248
93.949 1005 31.7017
94.0653 1014 31.8434
94.1816 984 31.3688
94.2979 1030 32.0936
94.4143 1069 32.6956
94.5307 1086 32.9545
94.6472 1191 34.5109
94.7637 1212 34.8138
94.8803 1220 34.9285
94.9969 1220 34.9285
95.1135 1310 36.1939
95.2302 1210 34.7851
95.3469 1282 35.805
95.4637 1253 35.3977
95.5805 1330 36.4692
95.6973 1359 36.8646
95.8142 1299 36.0416
95.9311 1249 35.3412
96.048 1130 33.6155
96.1649 1117 33.4215
96.2819 1082 32.8938
96.3989 1073 32.7567
96.516 1082 32.8938
96.633 1072 32.7414
96.7501 1004 31.686
96.8673 1080 32.8634
96.9844 1013 31.8277
97.1016 1055 32.4808
97.2188 1000 31.6228
97.336 1081 32.8786
97.4532 1057 32.5115
97.5704 985 31.3847
97.6877 995 31.5436
97.805 937 30.6105
97.9223 980 31.305
98.0396 938 30.6268
98.1569 1026 32.0312
98.2743 1043 32.2955
98.3916 1135 33.6898
98.509 1158 34.0294
98.6264 1130 33.6155
98.7438 1287 35.8748
98.8612 1269 35.623
98.9786 1211 34.7994
99.096 1301 36.0694
99.2134 1324 36.3868
99.3308 1316 36.2767
99.4482 1236 35.1568
99.5656 1216 34.8712
99.6831 1208 34.7563
99.8005 1172 34.2345
99.9179 1095 33.0908
100.035 1025 32.0156
100.153 919 30.315
100.27 977 31.257
100.388 989 31.4484
100.505 982 31.3369
100.622 929 30.4795
100.74 992 31.496
100.857 1000 31.6228
100.975 1070 32.7109
101.092 1003 31.6702
101.209 986 31.4006
101.327 1020 31.9374
101.444 998 31.5911
101.561 955 30.9031
101.679 995 31.5436
101.796 999 31.607
101.913 1084 32.9242
102.03 1203 34.6843
102.148 1199 34.6266
102.265 1209 34.7707
102.382 1397 37.3765
102.499 1270 35.6371
102.616 1278 35.7491
102.733 1336 36.5513
102.851 1359 36.8646
102.968 1411 37.5633
103.085 1309 36.1801
103.202 1250 35.3553
103.319 1192 34.5254
103.436 1179 34.3366
103.552 1181 34.3657
103.669 1105 33.2415
103.786 1075 32.7872
103.903 1081 32.8786
104.02 1045 32.3265
104.137 1073 32.7567
104.253 1059 32.5423
104.37 1137 33.7194
104.487 1140 33.7639
104.603 1132 33.6452
104.72 976 31.241
104.836 1063 32.6037
104.953 1072 32.7414
105.069 1067 32.665
105.186 1050 32.4037
105.302 1112 33.3467
105.418 1114 33.3766
105.535 1317 36.2905
105.651 1308 36.1663
105.767 1339 36.5923
105.883 1349 36.7287
105.999 1285 35.8469
106.115 0 1
106.231 0 1
106.347 0 1
106.463 0 1
106.579 0 1
106.694 0 1
106.81 0 1
106.926 0 1
107.041 0 1
107.157 0 1
109.576 0 1
109.692 0 1
109.807 0 1
109.923 0 1
110.039 0 1
110.155 0 1
110.27 0 1
110.386 0 1
110.502 0 1
110.618 1090 33.0151
110.735 1203 34.6843
110.851 1227 35.0286
110.967 1168 34.176
111.083 1130 33.6155
111.199 1124 33.5261
111.316 1191 34.5109
111.432 1253 35.3977
111.549 1175 34.2783
111.665 1172 34.2345
111.782 1133 33.6601
111.898 1095 33.0908
112.015 1066 32.6497
112.132 1078 32.8329
112.248 981 31.3209
112.365 970 31.1448
112.482 961 31
112.599 938 30.6268
112.716 878 29.6311
112.832 854 29.2233
112.949 939 30.6431
113.066 870 29.4958
113.183 847 29.1033
113.3 764 27.6405
113.417 839 28.9655
113.534 800 28.2843
113.652 859 29.3087
113.769 911 30.1828
113.886 913 30.2159
114.003 900 30
114.12 1025 32.0156
114.238 1007 31.7333
114.355 961 31
114.472 975 31.225
114.589 901 30.0167
114.707 853 29.2062
114.824 958 30.9516
114.942 1005 31.7017
115.059 1024 32
115.176 892 29.8664
115.294 959 30.9677
115.411 933 30.545
115.529 884 29.7321
115.646 920 30.3315
115.764 829 28.7924
115.881 794 28.178
115.999 733 27.074
116.116 715 26.7395
116.234 754 27.4591
116.351 678 26.0384
116.469 713 26.7021
116.586 704 26.533
116.704 699 26.4386
116.821 631 25.1197
116.939 671 25.9037
117.056 666 25.807
117.174 729 27
117.291 712 26.6833
117.409 696 26.3818
117.526 761 27.5862
117.644 734 27.0924
117.761 765 27.6586
117.879 822 28.6705
117.996 757 27.5136
118.114 738 27.1662
118.231 765 27.6586
118.349 803 28.3373
118.466 850 29.1548
118.584 837 28.931
118.701 832 28.8444
118.819 835 28.8964
118.936 831 28.8271
119.053 841 29
119.171 835 28.8964
119.288 829 28.7924
119.405 766 27.6767
119.523 744 27.2764
119.64 771 27.7669
119.757 750 27.3861
119.875 755 27.4773
119.992 713 26.7021
120.109 707 26.5895
120.226 685 26.1725
120.343 681 26.096
120.46 690 26.2679
120.578 722 26.8701
120.695 760 27.5681
120.812 758 27.5318
120.929 768 27.7128
121.046 795 28.1957
121.163 845 29.0689
121.279 788 28.0713
121.396 848 29.1204
121.513 860 29.3258
121.63 861 29.3428
121.747 727 26.9629
121.863 760 27.5681
121.98 715 26.7395
122.097 878 29.6311
122.213 930 30.4959
122.33 879 29.6479
122.446 962 31.0161
122.563 952 30.8545
122.679 950 30.8221
122.795 985 31.3847
122.912 956 30.9192
123.028 916 30.2655
123.144 927 30.4467
123.26 851 29.1719
123.377 0 1
123.493 0 1
123.609 0 1
123.725 0 1
123.84 0 1
123.956 0 1
124.072 0 1
124.188 0 1
124.303 0 1
124.419 0 1
126.852 0 1
126.968 0 1
127.083 0 1
127.199 0 1
127.315 0 1
127.431 0 1
127.547 0 1
127.663 0 1
127.779 0 1
127.895 0 1
128.011 0 1
128.127 0 1
128.243 0 1
128.359 1060 32.5576
128.476 1074 32.7719
128.592 1110 33.3167
128.708 993 31.5119
128.825 971 31.1609
128.941 946 30.7571
129.058 993 31.5119
129.174 918 30.2985
129.291 923 30.3809
129.408 955 30.9031
129.524 926 30.4302
129.641 889 29.8161
129.758 962 31.0161
129.875 891 29.8496
129.992 904 30.0666
130.108 952 30.8545
130.225 954 30.8869
130.342 909 30.1496
130.459 960 30.9839
130.576 963 31.0322
130.693 818 28.6007
130.81 683 26.1343
130.928 707 26.5895
131.045 834 28.8791
131.162 935 30.5778
131.279 994 31.5278
131.396 967 31.0966
131.513 980 31.305
131.631 1001 31.6386
131.748 896 29.9333
131.865 949 30.8058
131.983 952 30.8545
132.1 939 30.6431
132.217 843 29.0345
132.335 948 30.7896
132.452 853 29.2062
132.57 820 28.6356
132.687 772 27.7849
132.804 847 29.1033
132.922 814 28.5307
133.039 824 28.7054
133.157 807 28.4077
133.274 767 27.6948
133.392 800 28.2843
133.509 830 28.8097
133.627 783 27.9821
133.744 810 28.4605
133.862 811 28.4781
133.979 763 27.6225
134.097 725 26.9258
134.214 661 25.7099
134.332 531 23.0434
134.449 576 24
134.567 677 26.0192
134.684 721 26.8514
134.802 783 27.9821
134.919 773 27.8029
135.037 733 27.074
135.154 790 28.1069
135.272 776 27.8568
135.389 729 27
135.507 801 28.3019
135.624 754 27.4591
135.742 753 27.4408
135.859 733 27.074
135.977 701 26.4764
136.094 716 26.7582
136.211 676 26
136.329 670 25.8844
136.446 620 24.8998
136.564 658 25.6515
136.681 621 24.9199
136.798 628 25.0599
136.915 659 25.671
137.033 660 25.6905
137.15 588 24.2487
137.267 646 25.4165
137.384 619 24.8797
137.502 665 25.7876
137.619 635 25.1992
137.736 592 24.3311
137.853 498 22.3159
137.97 435 20.8567
138.087 529 23
138.204 610 24.6982
138.321 629 25.0799
138.438 666 25.807
138.555 663 25.7488
138.672 679 26.0576
138.788 696 26.3818
138.905 725 26.9258
139.022 696 26.3818
139.139 707 26.5895
139.255 684 26.1534
139.372 654 25.5734
139.488 691 26.2869
139.605 718 26.7955
139.721 741 27.2213
139.838 737 27.1477
139.954 723 26.8887
140.071 747 27.3313
140.187 719 26.8142
140.303 746 27.313
140.419 719 26.8142
140.535 714 26.7208
140.652 689 26.2488
140.768 0 1
140.884 0 1
141 0 1
141.115 0 1
141.231 0 1
141.347 0 1
141.463 0 1
141.578 0 1
141.694 0 1
144.104 0 1
144.219 0 1
144.335 0 1
144.45 0 1
144.566 0 1
144.682 0 1
144.798 0 1
144.914 0 1
145.03 0 1
145.146 588 24.2487
145.262 587 24.2281
145.378 535 23.1301
145.494 567 23.8118
145.61 505 22.4722
145.726 567 23.8118
145.842 556 23.5797
145.959 541 23.2594
146.075 480 21.9089
146.192 531 23.0434
146.308 540 23.2379
146.425 507 22.5167
146.541 481 21.9317
146.658 415 20.3715
146.774 428 20.6882
146.891 459 21.4243
147.008 483 21.9773
147.125 467 21.6102
147.241 491 22.1585
147.358 462 21.4942
147.475 494 22.2261
147.592 455 21.3307
147.709 490 22.1359
147.826 466 21.587
147.943 439 20.9523
148.06 488 22.0907
148.177 458 21.4009
148.294 437 20.9045
148.411 445 21.095
148.528 449 21.1896
148.645 434 20.8327
148.762 407 20.1742
148.88 398 19.9499
148.997 430 20.7364
149.114 391 19.7737
149.231 375 19.3649
149.349 376 19.3907
149.466 352 18.7617
149.583 410 20.2485
149.701 400 20
149.818 392 19.799
149.935 396 19.8997
150.053 377 19.4165
150.17 396 19.8997
150.287 377 19.4165
150.405 391 19.7737
150.522 375 19.3649
150.64 397 19.9249
150.757 423 20.567
150.875 413 20.3224
150.992 423 20.567
151.11 426 20.6398
151.227 425 20.6155
151.344 444 21.0713
151.462 393 19.8242
151.579 416 20.3961
151.697 417 20.4206
151.814 378 19.4422
151.932 446 21.1187
152.049 413 20.3224
152.167 447 21.1424
152.284 444 21.0713
152.402 441 21
152.519 403 20.0749
152.636 414 20.347
152.754 434 20.8327
152.871 413 20.3224
152.989 433 20.8087
153.106 439 20.9523
153.223 408 20.199
153.341 381 19.5192
153.458 423 20.567
153.575 396 19.8997
153.693 415 20.3715
153.81 424 20.5913
153.927 466 21.587
154.044 437 20.9045
154.162 534 23.1084
154.279 476 21.8174
154.396 525 22.9129
154.513 531 23.0434
154.63 509 22.561
154.747 573 23.9374
154.864 592 24.3311
154.981 506 22.4944
155.098 551 23.4734
155.215 549 23.4307
155.332 545 23.3452
155.449 522 22.8473
155.566 564 23.7487
155.683 555 23.5584
155.8 521 22.8254
155.917 524 22.891
156.033 449 21.1896
156.15 0 1
156.267 0 1
156.383 0 1
156.5 0 1
156.617 0 1
156.733 0 1
156.85 0 1
156.966 0 1
157.082 0 1
157.199 0 1
157.315 0 1
157.431 0 1
157.547 0 1
157.664 0 1
157.78 0 1
157.896 0 1
158.012 0 1
158.128 0 1
158.244 0 1
158.359 0 1
158.475 0 1
158.591 0 1
158.706 0 1
