
6.15755 0 1
6.2731 0 1
6.3887 0 1
6.50437 0 1
6.62009 0 1
6.73587 0 1
6.8517 0 1
6.96759 0 1
7.08353 0 1
7.19952 0 1
7.31557 0 1
7.43166 0 1
7.54781 0 1
7.664 0 1
7.78024 0 1
7.89653 0 1
8.01286 0 1
8.12924 0 1
8.24567 0 1
8.36213 0 1
8.47864 0 1
8.59519 0 1
8.71178 0 1
8.82841 0 1
8.94508 0 1
9.06179 0 1
9.17853 0 1
9.29531 0 1
9.41212 0 1
9.52897 0 1
9.64584 0 1
9.76276 0 1
9.8797 0 1
9.99667 0 1
10.1137 0 1
10.2307 0 1
10.3478 0 1
10.4648 0 1
10.5819 0 1
10.6991 0 1
10.8162 0 1
10.9334 0 1
11.0506 0 1
11.1678 0 1
11.285 0 1
11.4023 0 1
11.5196 0 1
11.6369 0 1
11.7542 0 1
11.8715 0 1
11.9888 0 1
12.1062 0 1
12.2235 0 1
12.3409 0 1
12.4582 0 1
12.5756 0 1
12.693 0 1
12.8104 0 1
12.9278 0 1
13.0452 0 1
13.1626 0 1
13.28 0 1
13.3974 0 1
13.5149 0 1
13.6323 0 1
13.7497 0 1
13.8671 0 1
13.9845 0 1
14.1019 0 1
14.2193 0 1
14.3367 0 1
14.4541 0 1
14.5714 0 1
14.6888 0 1
14.8062 0 1
14.9235 0 1
15.0408 0 0
15.1581 0 0
15.2755 0 0
15.3927 0 0
15.51 0 0
15.6273 0 0
15.7445 0 0
15.8617 0 0
15.9789 0 0
16.0961 0 0
16.2132 0 0
16.3304 0 0
16.4475 0 0
16.5646 0 0
16.6816 0 0
16.7986 0 0
16.9156 0 0
17.0326 0 0
17.1496 0 0
17.2665 0 0
17.3833 0 0
17.5002 0 0
17.617 0 0
17.7338 0 0
17.8505 0 0
17.9672 0 0
18.0839 0 0
18.2005 0 0
18.3171 0 0
18.4337 0 0
18.5502 0 0
18.6666 0 0
18.7831 0 0
18.8994 0 0
19.0158 0 0
19.1321 0 0
19.2483 0 0
19.3645 0 0
19.4806 0 0
19.5967 0 0
19.7128 0 0
19.8288 0 0
19.9447 0 0
20.0606 0 1
20.1764 0 1
20.2922 0 1
20.4079 0 1
20.5236 0 1
20.6392 0 1
20.7548 0 1
20.8702 0 1
23.3078 0 1
23.4233 0 1
23.539 0 1
23.6547 0 1
23.7704 0 1
23.8862 0 1
24.0021 0 1
24.118 0 1
24.234 0 1
24.35 0 1
24.4661 22030 148.425
24.5822 22880 151.261
24.6984 22295 149.315
24.8146 22908 151.354
24.9309 22574 150.246
25.0472 22700 150.665
25.1636 23174 152.23
25.28 23453 153.144
25.3965 23293 152.62
25.513 23607 153.646
25.6296 23667 153.841
25.7462 23955 154.774
25.8628 23982 154.861
25.9795 24051 155.084
26.0962 24065 155.129
26.213 23796 154.26
26.3298 23088 151.947
26.4466 22817 151.053
26.5635 21124 145.341
26.6804 19705 140.374
26.7973 18828 137.215
26.9143 19194 138.542
27.0313 20053 141.609
27.1483 21566 146.854
27.2653 22358 149.526
27.3824 23011 151.694
27.4996 22857 151.185
27.6167 23121 152.056
27.7339 22826 151.083
27.8511 22506 150.02
27.9683 22423 149.743
28.0855 22171 148.899
28.2028 22385 149.616
28.3201 22002 148.331
28.4374 21796 147.635
28.5547 22082 148.6
28.6721 22767 150.887
28.7894 22681 150.602
28.9068 22858 151.189
29.0242 22706 150.685
29.1416 22626 150.419
29.259 22726 150.751
29.3764 22680 150.599
29.4939 22632 150.439
29.6113 22724 150.745
29.7288 22235 149.114
29.8463 22414 149.713
29.9638 21463 146.503
30.0812 20018 141.485
30.1987 18699 136.744
30.3162 17700 133.041
30.4337 17873 133.69
30.5512 19250 138.744
30.6687 20297 142.468
30.7862 21545 146.782
30.9037 22388 149.626
31.0212 22788 150.957
31.1387 22764 150.877
31.2562 22353 149.509
31.3737 22371 149.569
31.4912 22492 149.973
31.6087 22244 149.144
31.7262 22269 149.228
31.8436 21945 148.138
31.9611 22072 148.566
32.0785 21999 148.321
32.1959 22533 150.11
32.3134 22713 150.708
32.4308 22542 150.14
32.5482 22859 151.192
32.6655 22996 151.644
32.7829 22934 151.44
32.9002 22952 151.499
33.0176 22632 150.439
33.1349 23266 152.532
33.2522 22762 150.871
33.3694 22725 150.748
33.4867 22965 151.542
33.6039 21836 147.77
33.7211 20456 143.024
33.8383 18945 137.641
33.9554 17643 132.827
34.0725 17965 134.034
34.1896 19043 137.996
34.3067 20412 142.871
34.4237 21678 147.235
34.5407 21948 148.149
34.6577 22731 150.768
34.7746 22902 151.334
34.8915 23327 152.732
35.0084 22981 151.595
35.1252 22650 150.499
35.242 22410 149.7
35.3587 22752 150.838
35.4755 22244 149.144
35.5921 22496 149.987
35.7088 22601 150.336
35.8254 22475 149.917
35.9419 22779 150.927
36.0584 22925 151.41
36.1749 23302 152.65
36.2913 23218 152.375
36.4077 23159 152.181
36.524 23068 151.882
36.6403 22966 151.545
36.7565 23291 152.614
36.8727 23246 152.466
36.9889 23065 151.872
37.1049 22684 150.612
37.221 0 1
37.3369 0 1
37.4529 0 1
37.5687 0 1
37.6845 0 1
37.8003 0 1
37.916 0 1
38.0316 0 1
38.1472 0 1
40.5851 0 1
40.7008 0 1
40.8164 0 1
40.9322 0 1
41.048 0 1
41.1639 0 1
41.2798 0 1
41.3958 0 1
41.5118 0 1
41.6279 0 1
41.744 19273 138.827
41.8602 19694 140.335
41.9765 19836 140.84
42.0928 20074 141.683
42.2091 19961 141.283
42.3255 19733 140.474
42.4419 18679 136.671
42.5584 17244 131.316
42.675 15763 125.551
42.7915 14888 122.016
42.9081 15477 124.407
43.0248 16939 130.15
43.1415 18092 134.507
43.2582 18958 137.688
43.375 19325 139.014
43.4918 19988 141.379
43.6087 19273 138.827
43.7256 19631 140.111
43.8425 19434 139.406
43.9595 18880 137.405
44.0765 18732 136.865
44.1935 18277 135.192
44.3106 17823 133.503
44.4277 17758 133.259
44.5448 17413 131.958
44.6619 17594 132.642
44.7791 17642 132.823
44.8963 17842 133.574
45.0136 18252 135.1
45.1308 18117 134.599
45.2481 17989 134.123
45.3654 17859 133.638
45.4827 17865 133.66
45.6001 17861 133.645
45.7174 17794 133.394
45.8348 17621 132.744
45.9522 17475 132.193
46.0697 16097 126.874
46.1871 14479 120.329
46.3046 13134 114.604
46.422 12917 113.653
46.5395 13872 117.779
46.657 14981 122.397
46.7745 16039 126.645
46.892 16469 128.332
47.0096 16700 129.228
47.1271 16533 128.581
47.2446 16644 129.012
47.3622 16769 129.495
47.4797 16013 126.542
47.5973 15759 125.535
47.7149 15151 123.089
47.8324 14916 122.131
47.95 14577 120.735
48.0675 14337 119.737
48.1851 14712 121.293
48.3027 14621 120.917
48.4202 14791 121.618
48.5378 15542 124.668
48.6554 15546 124.684
48.7729 15614 124.956
48.8904 15933 126.226
49.008 16202 127.287
49.1255 16257 127.503
49.243 16338 127.82
49.3605 16357 127.894
49.478 15896 126.079
49.5955 14709 121.281
49.713 13539 116.357
49.8304 12320 110.995
49.9479 12342 111.095
50.0653 13878 117.805
50.1827 15961 126.337
50.3001 17099 130.763
50.4175 18351 135.466
50.5348 18885 137.423
50.6521 19758 140.563
50.7694 19949 141.241
50.8867 20411 142.867
51.004 20781 144.156
51.1212 20924 144.651
51.2384 20976 144.831
51.3556 20870 144.465
51.4727 21074 145.169
51.5899 20795 144.205
51.707 21687 147.265
51.824 22088 148.62
51.9411 22737 150.788
52.0581 23907 154.619
52.175 24518 156.582
52.2919 24775 157.401
52.4088 25511 159.722
52.5257 25779 160.558
52.6425 26368 162.382
52.7593 26163 161.75
52.876 26741 163.527
52.9927 27146 164.76
53.1094 26247 162.009
53.226 24060 155.113
53.3426 22339 149.462
53.4591 20538 143.311
53.5756 20412 142.871
53.692 23033 151.766
53.8084 25899 160.932
53.9248 27594 166.114
54.0411 28996 170.282
54.1573 30035 173.306
54.2735 0 1
54.3896 0 1
54.5057 0 1
54.6217 0 1
54.7377 0 1
54.8537 0 1
54.9695 0 1
55.0853 0 1
55.2011 0 1
55.3168 0 1
55.4324 0 1
57.824 0 1
57.9396 0 1
58.0553 0 1
58.1711 0 1
58.2869 0 1
58.4028 0 1
58.5187 0 1
58.6347 0 1
58.7508 0 1
58.8669 0 1
58.983 37194 192.857
59.0992 40142 200.355
59.2155 41925 204.756
59.3318 43221 207.897
59.4482 43606 208.82
59.5646 43946 209.633
59.681 43880 209.476
59.7975 42749 206.758
59.9141 41960 204.841
60.0306 40948 202.356
60.1473 40440 201.097
60.2639 40094 200.235
60.3807 40240 200.599
60.4974 41149 202.852
60.6142 41938 204.788
60.731 42936 207.21
60.8479 44543 211.052
60.9648 44867 211.818
61.0818 45372 213.007
61.1987 45331 212.911
61.3158 45548 213.42
61.4328 45127 212.431
61.5499 44643 211.289
61.667 42901 207.126
61.7841 39764 199.409
61.9013 36218 190.31
62.0185 34357 185.356
62.1357 34552 185.882
62.253 37118 192.66
62.3702 41514 203.75
62.4875 44393 210.696
62.6049 46125 214.767
62.7222 47688 218.376
62.8396 48286 219.741
62.9569 48790 220.885
63.0743 48783 220.869
63.1918 48299 219.77
63.3092 47179 217.207
63.4267 46492 215.62
63.5441 45754 213.902
63.6616 44357 210.611
63.7791 43357 208.223
63.8966 43266 208.005
64.0142 44265 210.392
64.1317 45813 214.04
64.2492 47540 218.037
64.3668 48790 220.885
64.4843 49206 221.824
64.6019 50049 223.716
64.7195 50482 224.682
64.837 50282 224.236
64.9546 50593 224.929
65.0722 50082 223.79
65.1898 48696 220.672
65.3074 46762 216.245
65.4249 42320 205.718
65.5425 38430 196.036
65.6601 37088 192.582
65.7777 38819 197.025
65.8952 42669 206.565
66.0128 47142 217.122
66.1304 50800 225.389
66.2479 52334 228.766
66.3655 52938 230.083
66.483 54383 233.202
66.6005 54749 233.985
66.718 55051 234.629
66.8355 54044 232.474
66.953 53509 231.32
67.0705 52186 228.443
67.1879 50813 225.417
67.3054 49332 222.108
67.4228 47843 218.73
67.5402 48355 219.898
67.6576 49760 223.069
67.7749 51048 225.938
67.8923 54137 232.674
68.0096 55495 235.574
68.1269 57127 239.013
68.2442 58371 241.601
68.3614 58727 242.337
68.4787 59028 242.957
68.5958 59785 244.51
68.713 59524 243.975
68.8302 58151 241.145
68.9473 55434 235.444
69.0643 50542 224.815
69.1814 45977 214.422
69.2984 43550 208.686
69.4154 45095 212.356
69.5323 50209 224.074
69.6492 56242 237.154
69.7661 60630 246.232
69.8829 62688 250.376
69.9997 64084 253.148
70.1165 64856 254.668
70.2332 65965 256.837
70.3499 65591 256.107
70.4665 65455 255.842
70.5831 64417 253.805
70.6996 62731 250.462
70.8161 60641 246.254
70.9326 58632 242.14
71.049 56531 237.762
71.1653 55242 235.036
71.2817 54940 234.393
71.3979 56743 238.208
71.5141 57965 240.759
71.6303 59156 243.22
71.7464 56876 238.487
71.8624 0 1
71.9784 0 1
72.0944 0 1
72.2102 0 1
72.3261 0 1
72.4418 0 1
72.5575 0 1
72.6732 0 1
75.1054 0 1
75.2209 0 1
75.3365 0 1
75.4521 0 1
75.5678 0 1
75.6835 0 1
75.7993 0 1
75.9151 0 1
76.031 0 1
76.147 59073 243.049
76.263 61457 247.905
76.3791 60916 246.812
76.4952 58318 241.491
76.6113 59027 242.955
76.7276 61642 248.278
76.8438 62699 250.398
76.9601 66944 258.735
77.0765 69642 263.898
77.1929 71099 266.644
77.3093 71444 267.29
77.4258 71510 267.414
77.5423 71939 268.214
77.6589 71809 267.972
77.7755 70181 264.917
77.8921 66893 258.637
78.0088 61259 247.506
78.1256 55299 235.157
78.2423 51414 226.747
78.3591 48628 220.518
78.4759 50521 224.769
78.5928 55911 236.455
78.7097 61925 248.847
78.8266 69260 263.173
78.9436 66432 257.744
79.0606 70475 265.471
79.1776 70421 265.37
79.2946 71473 267.344
79.4117 70452 265.428
79.5288 70195 264.943
79.6459 69021 262.718
79.7631 67104 259.044
79.8802 64432 253.835
79.9974 61597 248.187
80.1147 59203 243.317
80.2319 57720 240.25
80.3491 58953 242.802
80.4664 61843 248.683
80.5837 64763 254.486
80.701 67438 259.688
80.8183 68568 261.855
80.9357 69088 262.846
81.053 69536 263.697
81.1704 69363 263.369
81.2877 69355 263.353
81.4051 69060 262.793
81.5225 68131 261.019
81.6399 61739 248.473
81.7573 57267 239.305
81.8747 51866 227.741
81.9922 49130 221.653
82.1096 49701 222.937
82.227 53199 230.649
82.3444 57965 240.759
82.4619 63071 251.139
82.5793 64193 253.363
82.6967 68281 261.306
82.8142 67140 259.114
82.9316 67013 258.869
83.049 67045 258.93
83.1664 65565 256.057
83.2838 64328 253.63
83.4012 62897 250.793
83.5186 60338 245.638
83.636 57518 239.829
83.7534 54614 233.696
83.8708 52809 229.802
83.9881 52700 229.565
84.1055 55977 236.595
84.2228 58509 241.886
84.3401 62117 249.233
84.4575 64508 253.984
84.5747 65828 256.57
84.692 66835 258.525
84.8093 66842 258.538
84.9265 66920 258.689
85.0437 66039 256.981
85.1609 62949 250.896
85.2781 57727 240.264
85.3952 53774 231.892
85.5123 50658 225.073
85.6294 49449 222.371
85.7465 52779 229.737
85.8636 57263 239.297
85.9806 61764 248.524
86.0976 66238 257.367
86.2145 69372 263.386
86.3315 69198 263.055
86.4484 74158 272.32
86.5652 73280 270.703
86.682 73285 270.712
86.7988 72088 268.492
86.9156 71247 266.921
87.0323 69359 263.361
87.149 67706 260.204
87.2657 63902 252.788
87.3823 61605 248.204
87.4988 59775 244.489
87.6154 62592 250.184
87.7318 66208 257.309
87.8483 70933 266.332
87.9647 75079 274.005
88.081 76499 276.585
88.1973 78507 280.191
88.3136 78062 279.396
88.4298 77812 278.948
88.546 77624 278.611
88.6621 75857 275.421
88.7781 71290 267.002
88.8942 0 1
89.0101 0 1
89.126 0 1
89.2419 0 1
89.3577 0 1
89.4734 0 1
89.5891 0 1
89.7047 0 1
89.8203 0 1
89.9358 0 1
92.3269 0 1
92.4424 0 1
92.558 0 1
92.6736 0 1
92.7893 0 1
92.905 0 1
93.0208 0 1
93.1366 0 1
93.2525 0 1
93.3685 0 1
93.4845 0 1
93.6005 75998 275.677
93.7167 77518 278.421
93.8328 77320 278.065
93.949 76514 276.612
94.0653 76565 276.704
94.1816 73957 271.95
94.2979 71050 266.552
94.4143 65784 256.484
94.5307 62228 249.455
94.6472 60153 245.261
94.7637 59846 244.634
94.8803 62929 250.857
94.9969 67120 259.075
95.1135 70092 264.749
95.2302 72832 269.874
95.3469 75603 274.96
95.4637 77913 279.129
95.5805 79132 281.304
95.6973 80459 283.653
95.8142 81179 284.919
95.9311 79830 282.542
96.048 78296 279.814
96.1649 77226 277.896
96.2819 74936 273.744
96.3989 71562 267.511
96.516 67243 259.313
96.633 63801 252.589
96.7501 63201 251.398
96.8673 65934 256.776
96.9844 70266 265.077
97.1016 75672 275.085
97.2188 79123 281.288
97.336 81498 285.479
97.4532 81703 285.837
97.5704 81817 286.037
97.6877 81343 285.207
97.805 79922 282.705
97.9223 77604 278.575
98.0396 72859 269.924
98.1569 67876 260.53
98.2743 64012 253.006
98.3916 62647 250.294
98.509 64197 253.371
98.6264 67160 259.152
98.7438 72184 268.671
98.8612 74597 273.125
98.9786 78459 280.105
99.096 81009 284.621
99.2134 82647 287.484
99.3308 83732 289.365
99.4482 84282 290.314
99.5656 83873 289.608
99.6831 82916 287.951
99.8005 80226 283.242
99.9179 77843 279.004
100.035 74628 273.181
100.153 68830 262.355
100.27 65858 256.628
100.388 66512 257.899
100.505 71958 268.25
100.622 77818 278.959
100.74 82726 287.621
100.857 84096 289.993
100.975 85147 291.8
101.092 84579 290.825
101.209 85378 292.195
101.327 85281 292.029
101.444 84182 290.141
101.561 81122 284.819
101.679 76221 276.082
101.796 70423 265.373
101.913 67035 258.911
102.03 67363 259.544
102.148 70372 265.277
102.265 79535 282.02
102.382 75065 273.98
102.499 81267 285.074
102.616 84341 290.415
102.733 87178 295.259
102.851 88765 297.935
102.968 89887 299.812
103.085 90248 300.413
103.202 88005 296.656
103.319 86708 294.462
103.436 84602 290.864
103.552 80230 283.249
103.669 74645 273.212
103.786 69512 263.651
103.903 70180 264.915
104.02 76303 276.23
104.137 83345 288.695
104.253 91375 302.283
104.37 89632 299.386
104.487 92959 304.892
104.603 93183 305.259
104.72 92963 304.898
104.836 92667 304.413
104.953 91379 302.29
105.069 87446 295.713
105.186 82188 286.684
105.302 76909 277.325
105.418 73375 270.878
105.535 74874 273.631
105.651 79615 282.161
105.767 84138 290.066
105.883 86851 294.705
105.999 89647 299.411
106.115 0 1
106.231 0 1
106.347 0 1
106.463 0 1
106.579 0 1
106.694 0 1
106.81 0 1
106.926 0 1
107.041 0 1
107.157 0 1
109.576 0 1
109.692 0 1
109.807 0 1
109.923 0 1
110.039 0 1
110.155 0 1
110.27 0 1
110.386 0 1
110.502 0 1
110.618 71277 266.978
110.735 77200 277.849
110.851 81005 284.614
110.967 83011 288.116
111.083 84483 290.66
111.199 86848 294.7
111.316 88932 298.215
111.432 89270 298.781
111.549 89294 298.821
111.665 89254 298.754
111.782 86287 293.746
111.898 82724 287.618
112.015 79376 281.737
112.132 72243 268.781
112.248 66094 257.088
112.365 65037 255.024
112.482 68884 262.458
112.599 73774 271.614
112.716 80475 283.681
112.832 83331 288.671
112.949 83570 289.085
113.066 83779 289.446
113.183 83125 288.314
113.3 81843 286.082
113.417 81050 284.693
113.534 80009 282.859
113.652 76097 275.857
113.769 72369 269.015
113.886 67432 259.677
114.003 65285 255.509
114.12 65225 255.392
114.238 68095 260.95
114.355 70890 266.252
114.472 73187 270.531
114.589 73328 270.791
114.707 74150 272.305
114.824 76856 277.229
114.942 78579 280.319
115.059 79151 281.338
115.176 79044 281.148
115.294 78183 279.612
115.411 76572 276.716
115.529 73524 271.153
115.646 69186 263.032
115.764 63112 251.221
115.881 58964 242.825
115.999 60103 245.159
116.116 66121 257.14
116.234 72585 269.416
116.351 76774 277.081
116.469 78601 280.359
116.586 78511 280.198
116.704 79785 282.462
116.821 79075 281.203
116.939 79647 282.218
117.056 79080 281.212
117.174 76468 276.528
117.291 74617 273.161
117.409 71240 266.908
117.526 67342 259.503
117.644 66074 257.049
117.761 66756 258.372
117.879 69626 263.867
117.996 72105 268.524
118.114 74468 272.888
118.231 76451 276.498
118.349 76551 276.679
118.466 78424 280.043
118.584 79858 282.592
118.701 80981 284.572
118.819 80673 284.03
118.936 79276 281.56
119.053 77552 278.482
119.171 74208 272.411
119.288 68997 262.673
119.405 62918 250.835
119.523 58529 241.928
119.64 61534 248.06
119.757 66119 257.136
119.875 72420 269.11
119.992 76441 276.48
120.109 77574 278.521
120.226 78881 280.858
120.343 79138 281.315
120.46 79667 282.253
120.578 78839 280.783
120.695 79118 281.279
120.812 78102 279.467
120.929 75890 275.481
121.046 72808 269.83
121.163 70281 265.106
121.279 67553 259.91
121.396 66210 257.313
121.513 66931 258.71
121.63 70071 264.709
121.747 71582 267.548
121.863 73865 271.781
121.98 74787 273.472
122.097 74986 273.836
122.213 77082 277.636
122.33 78252 279.736
122.446 79019 281.103
122.563 78241 279.716
122.679 77591 278.552
122.795 75770 275.264
122.912 73022 270.226
123.028 67085 259.008
123.144 61501 247.994
123.26 57913 240.651
123.377 0 1
123.493 0 1
123.609 0 1
123.725 0 1
123.84 0 1
123.956 0 1
124.072 0 1
124.188 0 1
124.303 0 1
124.419 0 1
126.852 0 1
126.968 0 1
127.083 0 1
127.199 0 1
127.315 0 1
127.431 0 1
127.547 0 1
127.663 0 1
127.779 0 1
127.895 0 1
128.011 0 1
128.127 0 1
128.243 0 1
128.359 67986 260.741
128.476 63426 251.845
128.592 65185 255.314
128.708 72720 269.666
128.825 80406 283.56
128.941 85612 292.595
129.058 88345 297.229
129.174 88710 297.842
129.291 88305 297.162
129.408 88248 297.066
129.524 87950 296.564
129.641 87237 295.359
129.758 86430 293.99
129.875 85057 291.645
129.992 81700 285.832
130.108 79101 281.249
130.225 76146 275.946
130.342 75431 274.647
130.459 73080 270.333
130.576 78237 279.709
130.693 79651 282.225
130.81 81659 285.76
130.928 82044 286.433
131.045 81703 285.837
131.162 83802 289.486
131.279 85505 292.412
131.396 85376 292.192
131.513 84405 290.525
131.631 82969 288.043
131.748 78639 280.426
131.865 70388 265.307
131.983 63881 252.747
132.1 63202 251.4
132.217 68525 261.773
132.335 75140 274.117
132.452 80563 283.836
132.57 83954 289.748
132.687 81659 285.76
132.804 87241 295.366
132.922 84410 290.534
133.039 84788 291.184
133.157 84253 290.264
133.274 83689 289.291
133.392 83282 288.586
133.509 80077 282.979
133.627 78871 280.84
133.744 76223 276.085
133.862 73170 270.5
133.979 72782 269.781
134.097 73012 270.207
134.214 76389 276.386
134.332 76607 276.78
134.449 79265 281.54
134.567 80017 282.873
134.684 80246 283.277
134.802 81772 285.958
134.919 82703 287.581
135.037 82052 286.447
135.154 80864 284.366
135.272 78447 280.084
135.389 72071 268.46
135.507 64567 254.1
135.624 61057 247.097
135.742 62693 250.386
135.859 69145 262.954
135.977 74805 273.505
136.094 80557 283.826
136.211 81792 285.993
136.329 83058 288.198
136.446 83416 288.818
136.564 83171 288.394
136.681 83984 289.8
136.798 82740 287.646
136.915 82684 287.548
137.033 81507 285.494
137.15 80428 283.598
137.267 77380 278.173
137.384 75651 275.047
137.502 73382 270.891
137.619 71776 267.91
137.736 72470 269.203
137.853 71903 268.147
137.97 73465 271.044
138.087 79236 281.489
138.204 78365 279.937
138.321 79469 281.902
138.438 80466 283.665
138.555 80802 284.257
138.672 81542 285.556
138.788 80299 283.371
138.905 78318 279.854
139.022 73208 270.57
139.139 65888 256.687
139.255 61809 248.614
139.372 62615 250.23
139.488 67975 260.72
139.605 74197 272.391
139.721 78866 280.831
139.838 82361 286.986
139.954 81821 286.044
140.071 81358 285.233
140.187 82861 287.856
140.303 81939 286.25
140.419 81228 285.005
140.535 81420 285.342
140.652 80214 283.221
140.768 0 1
140.884 0 1
141 0 1
141.115 0 1
141.231 0 1
141.347 0 1
141.463 0 1
141.578 0 1
141.694 0 1
144.104 0 1
144.219 0 1
144.335 0 1
144.45 0 1
144.566 0 1
144.682 0 1
144.798 0 1
144.914 0 1
145.03 0 1
145.146 69620 263.856
145.262 71022 266.5
145.378 70993 266.445
145.494 70956 266.376
145.61 70051 264.671
145.726 69099 262.867
145.842 68639 261.99
145.959 67058 258.956
146.075 65394 255.723
146.192 64039 253.059
146.308 62894 250.787
146.425 62708 250.416
146.541 62530 250.06
146.658 63941 252.866
146.774 65616 256.156
146.891 66656 258.178
147.008 66545 257.963
147.125 66512 257.899
147.241 65805 256.525
147.358 65474 255.879
147.475 63254 251.503
147.592 60489 245.945
147.709 54953 234.421
147.826 50249 224.163
147.943 50080 223.786
148.06 53372 231.024
148.177 58917 242.728
148.294 63481 251.954
148.411 65117 255.18
148.528 66572 258.016
148.645 65468 255.867
148.762 65910 256.729
148.88 65542 256.012
148.997 62586 250.172
149.114 67129 259.093
149.231 64823 254.604
149.349 64166 253.31
149.466 62776 250.551
149.583 61575 248.143
149.701 60815 246.607
149.818 59236 243.384
149.935 58853 242.596
150.053 57459 239.706
150.17 58002 240.836
150.287 59100 243.105
150.405 60314 245.589
150.522 61927 248.851
150.64 61694 248.383
150.757 61648 248.29
150.875 61270 247.528
150.992 60476 245.919
151.11 57564 239.925
151.227 55896 236.423
151.344 51772 227.535
151.462 47355 217.612
151.579 47736 218.486
151.697 50673 225.107
151.814 56059 236.768
151.932 60392 245.748
152.049 62696 250.392
152.167 63401 251.796
152.284 63449 251.891
152.402 63108 251.213
152.519 63119 251.235
152.636 63735 252.458
152.754 63083 251.163
152.871 62752 250.503
152.989 61916 248.829
153.106 62114 249.227
153.223 61185 247.356
153.341 59959 244.865
153.458 58993 242.885
153.575 57921 240.668
153.693 57732 240.275
153.81 58214 241.276
153.927 58243 241.336
154.044 59933 244.812
154.162 61280 247.548
154.279 62872 250.743
154.396 62664 250.328
154.513 62228 249.455
154.63 61720 248.435
154.747 59580 244.09
154.864 57624 240.05
154.981 54795 234.083
155.098 50728 225.229
155.215 50071 223.766
155.332 53746 231.832
155.449 58340 241.537
155.566 61841 248.679
155.683 63411 251.815
155.8 64215 253.407
155.917 63369 251.732
156.033 63888 252.761
156.15 0 1
156.267 0 1
156.383 0 1
156.5 0 1
156.617 0 1
156.733 0 1
156.85 0 1
156.966 0 1
157.082 0 1
157.199 0 1
157.315 0 1
157.431 0 1
157.547 0 1
157.664 0 1
157.78 0 1
157.896 0 1
158.012 0 1
158.128 0 1
158.244 0 1
158.359 0 1
158.475 0 1
158.591 0 1
158.706 0 1
