
6.15755 0 1
6.2731 0 1
6.3887 0 1
6.50437 0 1
6.62009 0 1
6.73587 0 1
6.8517 0 1
6.96759 0 1
7.08353 0 1
7.19952 0 1
7.31557 0 1
7.43166 0 1
7.54781 0 1
7.664 0 1
7.78024 0 1
7.89653 0 1
8.01286 0 1
8.12924 0 1
8.24567 0 1
8.36213 0 1
8.47864 0 1
8.59519 0 1
8.71178 0 1
8.82841 0 1
8.94508 0 1
9.06179 0 1
9.17853 0 1
9.29531 0 1
9.41212 0 1
9.52897 0 1
9.64584 0 1
9.76276 0 1
9.8797 0 1
9.99667 0 1
10.1137 0 1
10.2307 0 1
10.3478 0 1
10.4648 0 1
10.5819 0 1
10.6991 0 1
10.8162 0 1
10.9334 0 1
11.0506 0 1
11.1678 0 1
11.285 0 1
11.4023 0 1
11.5196 0 1
11.6369 0 1
11.7542 0 1
11.8715 0 1
11.9888 0 1
12.1062 0 1
12.2235 0 1
12.3409 0 1
12.4582 0 1
12.5756 0 1
12.693 0 1
12.8104 0 1
12.9278 0 1
13.0452 0 1
13.1626 0 1
13.28 0 1
13.3974 0 1
13.5149 0 1
13.6323 0 1
13.7497 0 1
13.8671 0 1
13.9845 0 1
14.1019 0 1
14.2193 0 1
14.3367 0 1
14.4541 0 1
14.5714 0 1
14.6888 0 1
14.8062 0 1
14.9235 0 1
15.0408 1200 34.641
15.1581 1174 34.2637
15.2755 1337 36.565
15.3927 1243 35.2562
15.51 1308 36.1663
15.6273 1304 36.1109
15.7445 1231 35.0856
15.8617 1187 34.4529
15.9789 1071 32.7261
16.0961 1119 33.4515
16.2132 1082 32.8938
16.3304 1151 33.9264
16.4475 1154 33.9706
16.5646 1089 33
16.6816 1078 32.8329
16.7986 1119 33.4515
16.9156 1094 33.0757
17.0326 1051 32.4191
17.1496 1021 31.9531
17.2665 995 31.5436
17.3833 991 31.4802
17.5002 985 31.3847
17.617 1003 31.6702
17.7338 1041 32.2645
17.8505 1103 33.2114
17.9672 1129 33.6006
18.0839 1099 33.1512
18.2005 1230 35.0714
18.3171 1227 35.0286
18.4337 1197 34.5977
18.5502 1236 35.1568
18.6666 1260 35.4965
18.7831 1287 35.8748
18.8994 1237 35.171
19.0158 1159 34.0441
19.1321 1258 35.4683
19.2483 1099 33.1512
19.3645 1106 33.2566
19.4806 1034 32.1559
19.5967 990 31.4643
19.7128 994 31.5278
19.8288 985 31.3847
19.9447 938 30.6268
20.0606 0 1
20.1764 0 1
20.2922 0 1
20.4079 0 1
20.5236 0 1
20.6392 0 1
20.7548 0 1
20.8702 0 1
23.3078 0 1
23.4233 0 1
23.539 0 1
23.6547 0 1
23.7704 0 1
23.8862 0 1
24.0021 0 1
24.118 0 1
24.234 0 1
24.35 0 1
24.4661 985 31.3847
24.5822 913 30.2159
24.6984 1007 31.7333
24.8146 942 30.692
24.9309 1002 31.6544
25.0472 1052 32.4345
25.1636 1074 32.7719
25.28 1044 32.311
25.3965 1077 32.8177
25.513 1046 32.3419
25.6296 1071 32.7261
25.7462 1094 33.0757
25.8628 1016 31.8748
25.9795 1019 31.9218
26.0962 990 31.4643
26.213 995 31.5436
26.3298 930 30.4959
26.4466 955 30.9031
26.5635 991 31.4802
26.6804 1043 32.2955
26.7973 1133 33.6601
26.9143 1144 33.8231
27.0313 1080 32.8634
27.1483 1098 33.1361
27.2653 1141 33.7787
27.3824 1121 33.4813
27.4996 1121 33.4813
27.6167 1080 32.8634
27.7339 1033 32.1403
27.8511 1062 32.5883
27.9683 1054 32.4654
28.0855 964 31.0483
28.2028 968 31.1127
28.3201 938 30.6268
28.4374 962 31.0161
28.5547 990 31.4643
28.6721 999 31.607
28.7894 1112 33.3467
28.9068 1031 32.1092
29.0242 977 31.257
29.1416 1028 32.0624
29.259 969 31.1288
29.3764 946 30.7571
29.4939 914 30.2324
29.6113 900 30
29.7288 898 29.9666
29.8463 870 29.4958
29.9638 916 30.2655
30.0812 918 30.2985
30.1987 950 30.8221
30.3162 961 31
30.4337 1024 32
30.5512 985 31.3847
30.6687 1043 32.2955
30.7862 992 31.496
30.9037 1028 32.0624
31.0212 1071 32.7261
31.1387 1110 33.3167
31.2562 1002 31.6544
31.3737 1011 31.7962
31.4912 1046 32.3419
31.6087 954 30.8869
31.7262 903 30.05
31.8436 917 30.282
31.9611 908 30.133
32.0785 955 30.9031
32.1959 1023 31.9844
32.3134 1066 32.6497
32.4308 968 31.1127
32.5482 988 31.4325
32.6655 923 30.3809
32.7829 946 30.7571
32.9002 1007 31.7333
33.0176 881 29.6816
33.1349 926 30.4302
33.2522 901 30.0167
33.3694 868 29.4618
33.4867 928 30.4631
33.6039 875 29.5804
33.7211 842 29.0172
33.8383 944 30.7246
33.9554 969 31.1288
34.0725 980 31.305
34.1896 946 30.7571
34.3067 1000 31.6228
34.4237 1034 32.1559
34.5407 1095 33.0908
34.6577 1000 31.6228
34.7746 1024 32
34.8915 1066 32.6497
35.0084 1058 32.5269
35.1252 963 31.0322
35.242 942 30.692
35.3587 939 30.6431
35.4755 881 29.6816
35.5921 880 29.6648
35.7088 864 29.3939
35.8254 981 31.3209
35.9419 943 30.7083
36.0584 943 30.7083
36.1749 920 30.3315
36.2913 981 31.3209
36.4077 909 30.1496
36.524 906 30.0998
36.6403 886 29.7658
36.7565 885 29.7489
36.8727 929 30.4795
36.9889 845 29.0689
37.1049 867 29.4449
37.221 0 1
37.3369 0 1
37.4529 0 1
37.5687 0 1
37.6845 0 1
37.8003 0 1
37.916 0 1
38.0316 0 1
38.1472 0 1
40.5851 0 1
40.7008 0 1
40.8164 0 1
40.9322 0 1
41.048 0 1
41.1639 0 1
41.2798 0 1
41.3958 0 1
41.5118 0 1
41.6279 0 1
41.744 727 26.9629
41.8602 798 28.2489
41.9765 741 27.2213
42.0928 729 27
42.2091 709 26.6271
42.3255 759 27.55
42.4419 725 26.9258
42.5584 714 26.7208
42.675 742 27.2397
42.7915 746 27.313
42.9081 774 27.8209
43.0248 706 26.5707
43.1415 730 27.0185
43.2582 738 27.1662
43.375 807 28.4077
43.4918 824 28.7054
43.6087 772 27.7849
43.7256 789 28.0891
43.8425 814 28.5307
43.9595 748 27.3496
44.0765 727 26.9629
44.1935 712 26.6833
44.3106 674 25.9615
44.4277 693 26.3249
44.5448 618 24.8596
44.6619 627 25.04
44.7791 661 25.7099
44.8963 648 25.4558
45.0136 649 25.4755
45.1308 605 24.5967
45.2481 662 25.7294
45.3654 669 25.865
45.4827 617 24.8395
45.6001 638 25.2587
45.7174 584 24.1661
45.8348 548 23.4094
45.9522 554 23.5372
46.0697 529 23
46.1871 582 24.1247
46.3046 585 24.1868
46.422 544 23.3238
46.5395 598 24.454
46.657 591 24.3105
46.7745 567 23.8118
46.892 590 24.2899
47.0096 609 24.6779
47.1271 589 24.2693
47.2446 624 24.98
47.3622 607 24.6374
47.4797 582 24.1247
47.5973 604 24.5764
47.7149 562 23.7065
47.8324 574 23.9583
47.95 490 22.1359
48.0675 481 21.9317
48.1851 500 22.3607
48.3027 478 21.8632
48.4202 539 23.2164
48.5378 483 21.9773
48.6554 513 22.6495
48.7729 487 22.0681
48.8904 570 23.8747
49.008 491 22.1585
49.1255 496 22.2711
49.243 483 21.9773
49.3605 491 22.1585
49.478 499 22.3383
49.5955 486 22.0454
49.713 474 21.7715
49.8304 528 22.9783
49.9479 552 23.4947
50.0653 535 23.1301
50.1827 544 23.3238
50.3001 574 23.9583
50.4175 606 24.6171
50.5348 637 25.2389
50.6521 625 25
50.7694 642 25.3377
50.8867 716 26.7582
51.004 653 25.5539
51.1212 674 25.9615
51.2384 651 25.5147
51.3556 628 25.0599
51.4727 597 24.4336
51.5899 628 25.0599
51.707 672 25.923
51.824 686 26.1916
51.9411 700 26.4575
52.0581 772 27.7849
52.175 741 27.2213
52.2919 728 26.9815
52.4088 800 28.2843
52.5257 762 27.6043
52.6425 716 26.7582
52.7593 740 27.2029
52.876 747 27.3313
52.9927 665 25.7876
53.1094 711 26.6646
53.226 754 27.4591
53.3426 714 26.7208
53.4591 758 27.5318
53.5756 846 29.0861
53.692 849 29.1376
53.8084 883 29.7153
53.9248 901 30.0167
54.0411 854 29.2233
54.1573 875 29.5804
54.2735 0 1
54.3896 0 1
54.5057 0 1
54.6217 0 1
54.7377 0 1
54.8537 0 1
54.9695 0 1
55.0853 0 1
55.2011 0 1
55.3168 0 1
55.4324 0 1
57.824 0 1
57.9396 0 1
58.0553 0 1
58.1711 0 1
58.2869 0 1
58.4028 0 1
58.5187 0 1
58.6347 0 1
58.7508 0 1
58.8669 0 1
58.983 1052 32.4345
59.0992 1121 33.4813
59.2155 1103 33.2114
59.3318 1153 33.9559
59.4482 1086 32.9545
59.5646 1171 34.2199
59.681 1192 34.5254
59.7975 1182 34.3802
59.9141 1100 33.1662
60.0306 1109 33.3017
60.1473 1080 32.8634
60.2639 1004 31.686
60.3807 1053 32.45
60.4974 1037 32.2025
60.6142 1017 31.8904
60.731 1046 32.3419
60.8479 1001 31.6386
60.9648 1006 31.7175
61.0818 1042 32.28
61.1987 1059 32.5423
61.3158 1034 32.1559
61.4328 1037 32.2025
61.5499 1005 31.7017
61.667 969 31.1288
61.7841 885 29.7489
61.9013 941 30.6757
62.0185 939 30.6431
62.1357 963 31.0322
62.253 939 30.6431
62.3702 1013 31.8277
62.4875 1032 32.1248
62.6049 995 31.5436
62.7222 1029 32.078
62.8396 1041 32.2645
62.9569 972 31.1769
63.0743 1024 32
63.1918 989 31.4484
63.3092 1067 32.665
63.4267 982 31.3369
63.5441 1023 31.9844
63.6616 969 31.1288
63.7791 889 29.8161
63.8966 833 28.8617
64.0142 891 29.8496
64.1317 930 30.4959
64.2492 921 30.348
64.3668 944 30.7246
64.4843 920 30.3315
64.6019 1026 32.0312
64.7195 974 31.209
64.837 952 30.8545
64.9546 944 30.7246
65.0722 928 30.4631
65.1898 942 30.692
65.3074 938 30.6268
65.4249 807 28.4077
65.5425 822 28.6705
65.6601 855 29.2404
65.7777 885 29.7489
65.8952 982 31.3369
66.0128 934 30.5614
66.1304 950 30.8221
66.2479 948 30.7896
66.3655 973 31.1929
66.483 993 31.5119
66.6005 943 30.7083
66.718 1044 32.311
66.8355 1019 31.9218
66.953 980 31.305
67.0705 1022 31.9687
67.1879 985 31.3847
67.3054 1033 32.1403
67.4228 923 30.3809
67.5402 921 30.348
67.6576 942 30.692
67.7749 886 29.7658
67.8923 972 31.1769
68.0096 1015 31.8591
68.1269 1039 32.2335
68.2442 1045 32.3265
68.3614 1002 31.6544
68.4787 992 31.496
68.5958 1062 32.5883
68.713 1053 32.45
68.8302 1052 32.4345
68.9473 940 30.6594
69.0643 905 30.0832
69.1814 911 30.1828
69.2984 906 30.0998
69.4154 993 31.5119
69.5323 1009 31.7648
69.6492 1015 31.8591
69.7661 1028 32.0624
69.8829 1000 31.6228
69.9997 1048 32.3728
70.1165 1052 32.4345
70.2332 1046 32.3419
70.3499 1113 33.3617
70.4665 1107 33.2716
70.5831 1117 33.4215
70.6996 1154 33.9706
70.8161 1077 32.8177
70.9326 1048 32.3728
71.049 1048 32.3728
71.1653 995 31.5436
71.2817 1045 32.3265
71.3979 915 30.249
71.5141 944 30.7246
71.6303 964 31.0483
71.7464 925 30.4138
71.8624 0 1
71.9784 0 1
72.0944 0 1
72.2102 0 1
72.3261 0 1
72.4418 0 1
72.5575 0 1
72.6732 0 1
75.1054 0 1
75.2209 0 1
75.3365 0 1
75.4521 0 1
75.5678 0 1
75.6835 0 1
75.7993 0 1
75.9151 0 1
76.031 0 1
76.147 1010 31.7805
76.263 1114 33.3766
76.3791 1096 33.1059
76.4952 1058 32.5269
76.6113 1058 32.5269
76.7276 1112 33.3467
76.8438 1193 34.5398
76.9601 1182 34.3802
77.0765 1139 33.7491
77.1929 1149 33.8969
77.3093 1136 33.7046
77.4258 1116 33.4066
77.5423 1156 34
77.6589 1207 34.7419
77.7755 1130 33.6155
77.8921 1129 33.6006
78.0088 1082 32.8938
78.1256 1004 31.686
78.2423 1007 31.7333
78.3591 986 31.4006
78.4759 1068 32.6803
78.5928 1048 32.3728
78.7097 1124 33.5261
78.8266 1111 33.3317
78.9436 1174 34.2637
79.0606 1125 33.541
79.1776 1136 33.7046
79.2946 1130 33.6155
79.4117 1137 33.7194
79.5288 1203 34.6843
79.6459 1102 33.1964
79.7631 1177 34.3074
79.8802 1116 33.4066
79.9974 1076 32.8024
80.1147 1058 32.5269
80.2319 1014 31.8434
80.3491 976 31.241
80.4664 1041 32.2645
80.5837 1033 32.1403
80.701 1128 33.5857
80.8183 1159 34.0441
80.9357 1072 32.7414
81.053 1074 32.7719
81.1704 1025 32.0156
81.2877 1107 33.2716
81.4051 1065 32.6343
81.5225 995 31.5436
81.6399 969 31.1288
81.7573 1007 31.7333
81.8747 923 30.3809
81.9922 952 30.8545
82.1096 1002 31.6544
82.227 974 31.209
82.3444 1040 32.249
82.4619 1078 32.8329
82.5793 1062 32.5883
82.6967 1101 33.1813
82.8142 1086 32.9545
82.9316 1108 33.2866
83.049 1115 33.3916
83.1664 1093 33.0606
83.2838 1118 33.4365
83.4012 1096 33.1059
83.5186 1158 34.0294
83.636 1126 33.5559
83.7534 1078 32.8329
83.8708 955 30.9031
83.9881 1005 31.7017
84.1055 952 30.8545
84.2228 1045 32.3265
84.3401 1047 32.3574
84.4575 1105 33.2415
84.5747 1088 32.9848
84.692 1083 32.909
84.8093 1086 32.9545
84.9265 1128 33.5857
85.0437 1098 33.1361
85.1609 1073 32.7567
85.2781 984 31.3688
85.3952 972 31.1769
85.5123 960 30.9839
85.6294 980 31.305
85.7465 1045 32.3265
85.8636 1067 32.665
85.9806 1132 33.6452
86.0976 1087 32.9697
86.2145 1089 33
86.3315 1154 33.9706
86.4484 1205 34.7131
86.5652 1143 33.8083
86.682 1207 34.7419
86.7988 1220 34.9285
86.9156 1199 34.6266
87.0323 1095 33.0908
87.149 1175 34.2783
87.2657 1168 34.176
87.3823 1120 33.4664
87.4988 1084 32.9242
87.6154 1079 32.8481
87.7318 1094 33.0757
87.8483 1080 32.8634
87.9647 1116 33.4066
88.081 1154 33.9706
88.1973 1149 33.8969
88.3136 1147 33.8674
88.4298 1168 34.176
88.546 1237 35.171
88.6621 1168 34.176
88.7781 1137 33.7194
88.8942 0 1
89.0101 0 1
89.126 0 1
89.2419 0 1
89.3577 0 1
89.4734 0 1
89.5891 0 1
89.7047 0 1
89.8203 0 1
89.9358 0 1
92.3269 0 1
92.4424 0 1
92.558 0 1
92.6736 0 1
92.7893 0 1
92.905 0 1
93.0208 0 1
93.1366 0 1
93.2525 0 1
93.3685 0 1
93.4845 0 1
93.6005 1105 33.2415
93.7167 1206 34.7275
93.8328 1147 33.8674
93.949 1097 33.121
94.0653 1052 32.4345
94.1816 984 31.3688
94.2979 968 31.1127
94.4143 990 31.4643
94.5307 983 31.3528
94.6472 1014 31.8434
94.7637 1051 32.4191
94.8803 1013 31.8277
94.9969 1135 33.6898
95.1135 1074 32.7719
95.2302 1118 33.4365
95.3469 1100 33.1662
95.4637 1111 33.3317
95.5805 1141 33.7787
95.6973 1132 33.6452
95.8142 1199 34.6266
95.9311 1152 33.9411
96.048 1136 33.7046
96.1649 1183 34.3948
96.2819 1196 34.5832
96.3989 1073 32.7567
96.516 1107 33.2716
96.633 1037 32.2025
96.7501 1005 31.7017
96.8673 1068 32.6803
96.9844 1021 31.9531
97.1016 1100 33.1662
97.2188 1155 33.9853
97.336 1113 33.3617
97.4532 1136 33.7046
97.5704 1096 33.1059
97.6877 1110 33.3167
97.805 1067 32.665
97.9223 1028 32.0624
98.0396 1025 32.0156
98.1569 957 30.9354
98.2743 922 30.3645
98.3916 1019 31.9218
98.509 987 31.4166
98.6264 1004 31.686
98.7438 1050 32.4037
98.8612 1011 31.7962
98.9786 1102 33.1964
99.096 1017 31.8904
99.2134 1070 32.7109
99.3308 1176 34.2929
99.4482 1104 33.2265
99.5656 1084 32.9242
99.6831 1074 32.7719
99.8005 1111 33.3317
99.9179 1088 32.9848
100.035 1105 33.2415
100.153 948 30.7896
100.27 959 30.9677
100.388 965 31.0644
100.505 1025 32.0156
100.622 1113 33.3617
100.74 1074 32.7719
100.857 1091 33.0303
100.975 1061 32.573
101.092 1098 33.1361
101.209 1096 33.1059
101.327 1093 33.0606
101.444 1047 32.3574
101.561 1040 32.249
101.679 1028 32.0624
101.796 987 31.4166
101.913 993 31.5119
102.03 1033 32.1403
102.148 1051 32.4191
102.265 997 31.5753
102.382 1201 34.6554
102.499 1140 33.7639
102.616 1114 33.3766
102.733 1197 34.5977
102.851 1196 34.5832
102.968 1227 35.0286
103.085 1197 34.5977
103.202 1218 34.8999
103.319 1211 34.7994
103.436 1164 34.1174
103.552 1153 33.9559
103.669 1087 32.9697
103.786 1048 32.3728
103.903 1125 33.541
104.02 1088 32.9848
104.137 1096 33.1059
104.253 1134 33.6749
104.37 1153 33.9559
104.487 1172 34.2345
104.603 1188 34.4674
104.72 1163 34.1028
104.836 1178 34.322
104.953 1124 33.5261
105.069 1131 33.6303
105.186 1053 32.45
105.302 1036 32.187
105.418 1044 32.311
105.535 1031 32.1092
105.651 1089 33
105.767 1159 34.0441
105.883 1112 33.3467
105.999 1209 34.7707
106.115 0 1
106.231 0 1
106.347 0 1
106.463 0 1
106.579 0 1
106.694 0 1
106.81 0 1
106.926 0 1
107.041 0 1
107.157 0 1
109.576 0 1
109.692 0 1
109.807 0 1
109.923 0 1
110.039 0 1
110.155 0 1
110.27 0 1
110.386 0 1
110.502 0 1
110.618 896 29.9333
110.735 973 31.1929
110.851 1063 32.6037
110.967 1033 32.1403
111.083 1065 32.6343
111.199 1151 33.9264
111.316 1074 32.7719
111.432 1127 33.5708
111.549 1128 33.5857
111.665 1037 32.2025
111.782 1092 33.0454
111.898 1042 32.28
112.015 1023 31.9844
112.132 923 30.3809
112.248 940 30.6594
112.365 902 30.0333
112.482 948 30.7896
112.599 977 31.257
112.716 931 30.5123
112.832 1010 31.7805
112.949 978 31.273
113.066 1008 31.749
113.183 959 30.9677
113.3 1007 31.7333
113.417 1029 32.078
113.534 948 30.7896
113.652 933 30.545
113.769 866 29.4279
113.886 795 28.1957
114.003 838 28.9482
114.12 859 29.3087
114.238 830 28.8097
114.355 877 29.6142
114.472 937 30.6105
114.589 846 29.0861
114.707 895 29.9166
114.824 909 30.1496
114.942 871 29.5127
115.059 902 30.0333
115.176 960 30.9839
115.294 867 29.4449
115.411 864 29.3939
115.529 858 29.2916
115.646 854 29.2233
115.764 800 28.2843
115.881 715 26.7395
115.999 772 27.7849
116.116 735 27.1109
116.234 731 27.037
116.351 767 27.6948
116.469 768 27.7128
116.586 804 28.3549
116.704 840 28.9828
116.821 805 28.3725
116.939 805 28.3725
117.056 797 28.2312
117.174 704 26.533
117.291 737 27.1477
117.409 680 26.0768
117.526 718 26.7955
117.644 685 26.1725
117.761 676 26
117.879 693 26.3249
117.996 694 26.3439
118.114 782 27.9643
118.231 828 28.775
118.349 776 27.8568
118.466 801 28.3019
118.584 812 28.4956
118.701 784 28
118.819 785 28.0179
118.936 809 28.4429
119.053 754 27.4591
119.171 776 27.8568
119.288 725 26.9258
119.405 780 27.9285
119.523 734 27.0924
119.64 726 26.9444
119.757 774 27.8209
119.875 765 27.6586
119.992 761 27.5862
120.109 835 28.8964
120.226 769 27.7308
120.343 821 28.6531
120.46 853 29.2062
120.578 810 28.4605
120.695 849 29.1376
120.812 861 29.3428
120.929 805 28.3725
121.046 778 27.8927
121.163 749 27.3679
121.279 743 27.258
121.396 737 27.1477
121.513 815 28.5482
121.63 895 29.9166
121.747 914 30.2324
121.863 883 29.7153
121.98 954 30.8869
122.097 925 30.4138
122.213 926 30.4302
122.33 935 30.5778
122.446 924 30.3974
122.563 970 31.1448
122.679 935 30.5778
122.795 934 30.5614
122.912 918 30.2985
123.028 930 30.4959
123.144 907 30.1164
123.26 838 28.9482
123.377 0 1
123.493 0 1
123.609 0 1
123.725 0 1
123.84 0 1
123.956 0 1
124.072 0 1
124.188 0 1
124.303 0 1
124.419 0 1
126.852 0 1
126.968 0 1
127.083 0 1
127.199 0 1
127.315 0 1
127.431 0 1
127.547 0 1
127.663 0 1
127.779 0 1
127.895 0 1
128.011 0 1
128.127 0 1
128.243 0 1
128.359 1095 33.0908
128.476 1143 33.8083
128.592 973 31.1929
128.708 989 31.4484
128.825 976 31.241
128.941 1051 32.4191
129.058 1053 32.45
129.174 1045 32.3265
129.291 1086 32.9545
129.408 1073 32.7567
129.524 1116 33.4066
129.641 1100 33.1662
129.758 1137 33.7194
129.875 1082 32.8938
129.992 1012 31.8119
130.108 974 31.209
130.225 978 31.273
130.342 989 31.4484
130.459 900 30
130.576 965 31.0644
130.693 1024 32
130.81 1087 32.9697
130.928 1077 32.8177
131.045 1087 32.9697
131.162 1109 33.3017
131.279 1068 32.6803
131.396 1091 33.0303
131.513 1048 32.3728
131.631 1057 32.5115
131.748 1045 32.3265
131.865 974 31.209
131.983 1006 31.7175
132.1 929 30.4795
132.217 981 31.3209
132.335 915 30.249
132.452 948 30.7896
132.57 954 30.8869
132.687 956 30.9192
132.804 1011 31.7962
132.922 1015 31.8591
133.039 1028 32.0624
133.157 1006 31.7175
133.274 1054 32.4654
133.392 1077 32.8177
133.509 963 31.0322
133.627 1029 32.078
133.744 924 30.3974
133.862 891 29.8496
133.979 932 30.5287
134.097 918 30.2985
134.214 988 31.4325
134.332 1015 31.8591
134.449 1107 33.2716
134.567 1028 32.0624
134.684 1050 32.4037
134.802 1026 32.0312
134.919 1048 32.3728
135.037 1079 32.8481
135.154 1074 32.7719
135.272 953 30.8707
135.389 949 30.8058
135.507 953 30.8707
135.624 926 30.4302
135.742 918 30.2985
135.859 870 29.4958
135.977 828 28.775
136.094 860 29.3258
136.211 849 29.1376
136.329 870 29.4958
136.446 936 30.5941
136.564 869 29.4788
136.681 856 29.2575
136.798 931 30.5123
136.915 838 28.9482
137.033 820 28.6356
137.15 859 29.3087
137.267 841 29
137.384 811 28.4781
137.502 773 27.8029
137.619 750 27.3861
137.736 836 28.9137
137.853 841 29
137.97 903 30.05
138.087 913 30.2159
138.204 971 31.1609
138.321 942 30.692
138.438 948 30.7896
138.555 988 31.4325
138.672 973 31.1929
138.788 955 30.9031
138.905 974 31.209
139.022 938 30.6268
139.139 964 31.0483
139.255 998 31.5911
139.372 953 30.8707
139.488 896 29.9333
139.605 984 31.3688
139.721 956 30.9192
139.838 983 31.3528
139.954 979 31.289
140.071 995 31.5436
140.187 1063 32.6037
140.303 1043 32.2955
140.419 1073 32.7567
140.535 1085 32.9393
140.652 1021 31.9531
140.768 0 1
140.884 0 1
141 0 1
141.115 0 1
141.231 0 1
141.347 0 1
141.463 0 1
141.578 0 1
141.694 0 1
144.104 0 1
144.219 0 1
144.335 0 1
144.45 0 1
144.566 0 1
144.682 0 1
144.798 0 1
144.914 0 1
145.03 0 1
145.146 1397 37.3765
145.262 1518 38.9615
145.378 1556 39.4462
145.494 1703 41.2674
145.61 1728 41.5692
145.726 1883 43.3935
145.842 1952 44.1814
145.959 1930 43.9318
146.075 1930 43.9318
146.192 1886 43.4281
146.308 1794 42.3556
146.425 1935 43.9886
146.541 2120 46.0435
146.658 2282 47.7703
146.774 2473 49.7293
146.891 2672 51.6914
147.008 2816 53.066
147.125 3017 54.9272
147.241 3118 55.8391
147.358 3302 57.463
147.475 3406 58.3609
147.592 3353 57.9051
147.709 3397 58.2838
147.826 3389 58.2151
147.943 3342 57.81
148.06 3173 56.3294
148.177 3206 56.6216
148.294 3250 57.0088
148.411 3169 56.2939
148.528 3303 57.4717
148.645 3375 58.0948
148.762 3552 59.5987
148.88 3739 61.1474
148.997 3984 63.1189
149.114 3560 59.6657
149.231 3744 61.1882
149.349 3728 61.0574
149.466 3605 60.0417
149.583 3530 59.4138
149.701 3294 57.3934
149.818 3071 55.4166
149.935 2979 54.5802
150.053 2957 54.3783
150.17 3059 55.3082
150.287 3201 56.5774
150.405 3244 56.9561
150.522 3378 58.1206
150.64 3474 58.9406
150.757 3662 60.5145
150.875 3710 60.9098
150.992 3640 60.3324
151.11 3660 60.4979
151.227 3657 60.4731
151.344 3488 59.0593
151.462 3522 59.3464
151.579 3519 59.3212
151.697 3329 57.6975
151.814 3263 57.1227
151.932 3334 57.7408
152.049 3332 57.7235
152.167 3427 58.5406
152.284 3646 60.3821
152.402 3701 60.8358
152.519 3777 61.4573
152.636 3934 62.7216
152.754 3898 62.434
152.871 3980 63.0872
152.989 4002 63.2614
153.106 3821 61.8142
153.223 3585 59.8749
153.341 3487 59.0508
153.458 3396 58.2752
153.575 3265 57.1402
153.693 3255 57.0526
153.81 3526 59.3801
153.927 3531 59.4222
154.044 3763 61.3433
154.162 3897 62.426
154.279 4039 63.5531
154.396 4233 65.0615
154.513 4133 64.2884
154.63 4403 66.3551
154.747 4280 65.4217
154.864 4345 65.9166
154.981 4307 65.6277
155.098 4318 65.7115
155.215 4112 64.1249
155.332 4188 64.7148
155.449 4011 63.3325
155.566 4003 63.2693
155.683 4137 64.3195
155.8 4128 64.2495
155.917 4403 66.3551
156.033 4545 67.4166
156.15 0 1
156.267 0 1
156.383 0 1
156.5 0 1
156.617 0 1
156.733 0 1
156.85 0 1
156.966 0 1
157.082 0 1
157.199 0 1
157.315 0 1
157.431 0 1
157.547 0 1
157.664 0 1
157.78 0 1
157.896 0 1
158.012 0 1
158.128 0 1
158.244 0 1
158.359 0 1
158.475 0 1
158.591 0 1
158.706 0 1
