
6.15755 0 1
6.2731 0 1
6.3887 0 1
6.50437 0 1
6.62009 0 1
6.73587 0 1
6.8517 0 1
6.96759 0 1
7.08353 0 1
7.19952 0 1
7.31557 0 1
7.43166 0 1
7.54781 0 1
7.664 0 1
7.78024 0 1
7.89653 0 1
8.01286 0 1
8.12924 0 1
8.24567 0 1
8.36213 0 1
8.47864 0 1
8.59519 0 1
8.71178 0 1
8.82841 0 1
8.94508 0 1
9.06179 0 1
9.17853 0 1
9.29531 0 1
9.41212 0 1
9.52897 0 1
9.64584 0 1
9.76276 0 1
9.8797 0 1
9.99667 0 1
10.1137 0 1
10.2307 0 1
10.3478 0 1
10.4648 0 1
10.5819 0 1
10.6991 0 1
10.8162 0 1
10.9334 0 1
11.0506 0 1
11.1678 0 1
11.285 0 1
11.4023 0 1
11.5196 0 1
11.6369 0 1
11.7542 0 1
11.8715 0 1
11.9888 0 1
12.1062 0 1
12.2235 0 1
12.3409 0 1
12.4582 0 1
12.5756 0 1
12.693 0 1
12.8104 0 1
12.9278 0 1
13.0452 0 1
13.1626 0 1
13.28 0 1
13.3974 0 1
13.5149 0 1
13.6323 0 1
13.7497 0 1
13.8671 0 1
13.9845 0 1
14.1019 0 1
14.2193 0 1
14.3367 0 1
14.4541 0 1
14.5714 0 1
14.6888 0 1
14.8062 0 1
14.9235 0 1
15.0408 482 21.9545
15.1581 485 22.0227
15.2755 541 23.2594
15.3927 551 23.4734
15.51 555 23.5584
15.6273 504 22.4499
15.7445 529 23
15.8617 504 22.4499
15.9789 512 22.6274
16.0961 515 22.6936
16.2132 425 20.6155
16.3304 468 21.6333
16.4475 461 21.4709
16.5646 494 22.2261
16.6816 524 22.891
16.7986 547 23.388
16.9156 569 23.8537
17.0326 571 23.8956
17.1496 577 24.0208
17.2665 568 23.8328
17.3833 501 22.383
17.5002 528 22.9783
17.617 572 23.9165
17.7338 489 22.1133
17.8505 488 22.0907
17.9672 459 21.4243
18.0839 527 22.9565
18.2005 483 21.9773
18.3171 514 22.6716
18.4337 528 22.9783
18.5502 507 22.5167
18.6666 516 22.7156
18.7831 504 22.4499
18.8994 531 23.0434
19.0158 506 22.4944
19.1321 526 22.9347
19.2483 481 21.9317
19.3645 452 21.2603
19.4806 391 19.7737
19.5967 357 18.8944
19.7128 343 18.5203
19.8288 352 18.7617
19.9447 305 17.4642
20.0606 0 1
20.1764 0 1
20.2922 0 1
20.4079 0 1
20.5236 0 1
20.6392 0 1
20.7548 0 1
20.8702 0 1
23.3078 0 1
23.4233 0 1
23.539 0 1
23.6547 0 1
23.7704 0 1
23.8862 0 1
24.0021 0 1
24.118 0 1
24.234 0 1
24.35 0 1
24.4661 198 14.0712
24.5822 228 15.0997
24.6984 216 14.6969
24.8146 253 15.906
24.9309 265 16.2788
25.0472 274 16.5529
25.1636 301 17.3494
25.28 395 19.8746
25.3965 382 19.5448
25.513 423 20.567
25.6296 466 21.587
25.7462 464 21.5407
25.8628 479 21.8861
25.9795 467 21.6102
26.0962 462 21.4942
26.213 469 21.6564
26.3298 452 21.2603
26.4466 397 19.9249
26.5635 393 19.8242
26.6804 408 20.199
26.7973 409 20.2237
26.9143 428 20.6882
27.0313 375 19.3649
27.1483 434 20.8327
27.2653 443 21.0476
27.3824 470 21.6795
27.4996 470 21.6795
27.6167 406 20.1494
27.7339 451 21.2368
27.8511 437 20.9045
27.9683 412 20.2978
28.0855 400 20
28.2028 404 20.0998
28.3201 346 18.6011
28.4374 337 18.3576
28.5547 365 19.105
28.6721 356 18.868
28.7894 385 19.6214
28.9068 397 19.9249
29.0242 400 20
29.1416 426 20.6398
29.259 417 20.4206
29.3764 439 20.9523
29.4939 436 20.8806
29.6113 411 20.2731
29.7288 384 19.5959
29.8463 371 19.2614
29.9638 377 19.4165
30.0812 390 19.7484
30.1987 385 19.6214
30.3162 363 19.0526
30.4337 384 19.5959
30.5512 403 20.0749
30.6687 454 21.3073
30.7862 412 20.2978
30.9037 366 19.1311
31.0212 419 20.4695
31.1387 417 20.4206
31.2562 395 19.8746
31.3737 405 20.1246
31.4912 371 19.2614
31.6087 353 18.7883
31.7262 334 18.2757
31.8436 334 18.2757
31.9611 323 17.9722
32.0785 318 17.8326
32.1959 312 17.6635
32.3134 362 19.0263
32.4308 385 19.6214
32.5482 353 18.7883
32.6655 396 19.8997
32.7829 408 20.199
32.9002 404 20.0998
33.0176 407 20.1742
33.1349 417 20.4206
33.2522 389 19.7231
33.3694 349 18.6815
33.4867 341 18.4662
33.6039 363 19.0526
33.7211 351 18.735
33.8383 340 18.4391
33.9554 358 18.9209
34.0725 361 19
34.1896 308 17.5499
34.3067 362 19.0263
34.4237 383 19.5704
34.5407 368 19.1833
34.6577 365 19.105
34.7746 390 19.7484
34.8915 323 17.9722
35.0084 371 19.2614
35.1252 408 20.199
35.242 367 19.1572
35.3587 324 18
35.4755 304 17.4356
35.5921 291 17.0587
35.7088 288 16.9706
35.8254 272 16.4924
35.9419 319 17.8606
36.0584 332 18.2209
36.1749 334 18.2757
36.2913 355 18.8414
36.4077 340 18.4391
36.524 327 18.0831
36.6403 299 17.2916
36.7565 339 18.412
36.8727 330 18.1659
36.9889 294 17.1464
37.1049 253 15.906
37.221 0 1
37.3369 0 1
37.4529 0 1
37.5687 0 1
37.6845 0 1
37.8003 0 1
37.916 0 1
38.0316 0 1
38.1472 0 1
40.5851 0 1
40.7008 0 1
40.8164 0 1
40.9322 0 1
41.048 0 1
41.1639 0 1
41.2798 0 1
41.3958 0 1
41.5118 0 1
41.6279 0 1
41.744 173 13.1529
41.8602 209 14.4568
41.9765 211 14.5258
42.0928 219 14.7986
42.2091 215 14.6629
42.3255 232 15.2315
42.4419 212 14.5602
42.5584 225 15
42.675 225 15
42.7915 269 16.4012
42.9081 295 17.1756
43.0248 307 17.5214
43.1415 315 17.7482
43.2582 324 18
43.375 313 17.6918
43.4918 337 18.3576
43.6087 324 18
43.7256 318 17.8326
43.8425 277 16.6433
43.9595 298 17.2627
44.0765 292 17.088
44.1935 276 16.6132
44.3106 273 16.5227
44.4277 250 15.8114
44.5448 239 15.4596
44.6619 256 16
44.7791 243 15.5885
44.8963 260 16.1245
45.0136 275 16.5831
45.1308 303 17.4069
45.2481 290 17.0294
45.3654 328 18.1108
45.4827 299 17.2916
45.6001 329 18.1384
45.7174 328 18.1108
45.8348 287 16.9411
45.9522 301 17.3494
46.0697 268 16.3707
46.1871 299 17.2916
46.3046 269 16.4012
46.422 304 17.4356
46.5395 287 16.9411
46.657 311 17.6352
46.7745 310 17.6068
46.892 323 17.9722
47.0096 318 17.8326
47.1271 306 17.4929
47.2446 335 18.303
47.3622 335 18.303
47.4797 296 17.2047
47.5973 306 17.4929
47.7149 286 16.9115
47.8324 286 16.9115
47.95 259 16.0935
48.0675 225 15
48.1851 231 15.1987
48.3027 260 16.1245
48.4202 250 15.8114
48.5378 261 16.1555
48.6554 287 16.9411
48.7729 314 17.72
48.8904 318 17.8326
49.008 340 18.4391
49.1255 317 17.8045
49.243 307 17.5214
49.3605 273 16.5227
49.478 269 16.4012
49.5955 300 17.3205
49.713 269 16.4012
49.8304 278 16.6733
49.9479 278 16.6733
50.0653 303 17.4069
50.1827 288 16.9706
50.3001 313 17.6918
50.4175 333 18.2483
50.5348 328 18.1108
50.6521 316 17.7764
50.7694 324 18
50.8867 340 18.4391
51.004 322 17.9444
51.1212 333 18.2483
51.2384 306 17.4929
51.3556 308 17.5499
51.4727 267 16.3401
51.5899 263 16.2173
51.707 234 15.2971
51.824 276 16.6132
51.9411 277 16.6433
52.0581 287 16.9411
52.175 321 17.9165
52.2919 344 18.5472
52.4088 353 18.7883
52.5257 362 19.0263
52.6425 347 18.6279
52.7593 351 18.735
52.876 335 18.303
52.9927 275 16.5831
53.1094 309 17.5784
53.226 289 17
53.3426 310 17.6068
53.4591 295 17.1756
53.5756 246 15.6844
53.692 283 16.8226
53.8084 276 16.6132
53.9248 289 17
54.0411 256 16
54.1573 236 15.3623
54.2735 0 1
54.3896 0 1
54.5057 0 1
54.6217 0 1
54.7377 0 1
54.8537 0 1
54.9695 0 1
55.0853 0 1
55.2011 0 1
55.3168 0 1
55.4324 0 1
57.824 0 1
57.9396 0 1
58.0553 0 1
58.1711 0 1
58.2869 0 1
58.4028 0 1
58.5187 0 1
58.6347 0 1
58.7508 0 1
58.8669 0 1
58.983 197 14.0357
59.0992 257 16.0312
59.2155 245 15.6525
59.3318 322 17.9444
59.4482 343 18.5203
59.5646 362 19.0263
59.681 364 19.0788
59.7975 403 20.0749
59.9141 418 20.445
60.0306 390 19.7484
60.1473 382 19.5448
60.2639 376 19.3907
60.3807 365 19.105
60.4974 316 17.7764
60.6142 331 18.1934
60.731 364 19.0788
60.8479 414 20.347
60.9648 430 20.7364
61.0818 443 21.0476
61.1987 461 21.4709
61.3158 468 21.6333
61.4328 453 21.2838
61.5499 427 20.664
61.667 422 20.5426
61.7841 405 20.1246
61.9013 424 20.5913
62.0185 370 19.2354
62.1357 421 20.5183
62.253 459 21.4243
62.3702 470 21.6795
62.4875 456 21.3542
62.6049 457 21.3776
62.7222 467 21.6102
62.8396 471 21.7025
62.9569 488 22.0907
63.0743 483 21.9773
63.1918 494 22.2261
63.3092 455 21.3307
63.4267 519 22.7816
63.5441 441 21
63.6616 423 20.567
63.7791 434 20.8327
63.8966 390 19.7484
64.0142 374 19.3391
64.1317 354 18.8149
64.2492 403 20.0749
64.3668 417 20.4206
64.4843 463 21.5174
64.6019 543 23.3024
64.7195 504 22.4499
64.837 485 22.0227
64.9546 497 22.2935
65.0722 513 22.6495
65.1898 489 22.1133
65.3074 483 21.9773
65.4249 436 20.8806
65.5425 445 21.095
65.6601 417 20.4206
65.7777 477 21.8403
65.8952 482 21.9545
66.0128 459 21.4243
66.1304 477 21.8403
66.2479 532 23.0651
66.3655 507 22.5167
66.483 506 22.4944
66.6005 568 23.8328
66.718 575 23.9792
66.8355 514 22.6716
66.953 535 23.1301
67.0705 521 22.8254
67.1879 518 22.7596
67.3054 513 22.6495
67.4228 518 22.7596
67.5402 404 20.0998
67.6576 361 19
67.7749 407 20.1742
67.8923 450 21.2132
68.0096 430 20.7364
68.1269 525 22.9129
68.2442 548 23.4094
68.3614 577 24.0208
68.4787 564 23.7487
68.5958 604 24.5764
68.713 542 23.2809
68.8302 574 23.9583
68.9473 548 23.4094
69.0643 551 23.4734
69.1814 422 20.5426
69.2984 489 22.1133
69.4154 516 22.7156
69.5323 568 23.8328
69.6492 532 23.0651
69.7661 606 24.6171
69.8829 568 23.8328
69.9997 604 24.5764
70.1165 574 23.9583
70.2332 592 24.3311
70.3499 548 23.4094
70.4665 523 22.8692
70.5831 496 22.2711
70.6996 527 22.9565
70.8161 530 23.0217
70.9326 456 21.3542
71.049 362 19.0263
71.1653 319 17.8606
71.2817 278 16.6733
71.3979 210 14.4914
71.5141 207 14.3875
71.6303 191 13.8203
71.7464 178 13.3417
71.8624 0 1
71.9784 0 1
72.0944 0 1
72.2102 0 1
72.3261 0 1
72.4418 0 1
72.5575 0 1
72.6732 0 1
75.1054 0 1
75.2209 0 1
75.3365 0 1
75.4521 0 1
75.5678 0 1
75.6835 0 1
75.7993 0 1
75.9151 0 1
76.031 0 1
76.147 369 19.2094
76.263 443 21.0476
76.3791 383 19.5704
76.4952 381 19.5192
76.6113 363 19.0526
76.7276 389 19.7231
76.8438 419 20.4695
76.9601 406 20.1494
77.0765 517 22.7376
77.1929 557 23.6008
77.3093 603 24.5561
77.4258 587 24.2281
77.5423 524 22.891
77.6589 592 24.3311
77.7755 537 23.1733
77.8921 513 22.6495
78.0088 496 22.2711
78.1256 449 21.1896
78.2423 438 20.9284
78.3591 441 21
78.4759 479 21.8861
78.5928 503 22.4277
78.7097 513 22.6495
78.8266 564 23.7487
78.9436 555 23.5584
79.0606 580 24.0832
79.1776 593 24.3516
79.2946 590 24.2899
79.4117 557 23.6008
79.5288 528 22.9783
79.6459 545 23.3452
79.7631 563 23.7276
79.8802 571 23.8956
79.9974 503 22.4277
80.1147 494 22.2261
80.2319 404 20.0998
80.3491 422 20.5426
80.4664 400 20
80.5837 430 20.7364
80.701 447 21.1424
80.8183 499 22.3383
80.9357 498 22.3159
81.053 559 23.6432
81.1704 558 23.622
81.2877 535 23.1301
81.4051 524 22.891
81.5225 506 22.4944
81.6399 465 21.5639
81.7573 422 20.5426
81.8747 405 20.1246
81.9922 390 19.7484
82.1096 403 20.0749
82.227 447 21.1424
82.3444 494 22.2261
82.4619 455 21.3307
82.5793 471 21.7025
82.6967 473 21.7486
82.8142 523 22.8692
82.9316 492 22.1811
83.049 543 23.3024
83.1664 491 22.1585
83.2838 531 23.0434
83.4012 476 21.8174
83.5186 503 22.4277
83.636 451 21.2368
83.7534 403 20.0749
83.8708 385 19.6214
83.9881 314 17.72
84.1055 303 17.4069
84.2228 336 18.3303
84.3401 354 18.8149
84.4575 381 19.5192
84.5747 430 20.7364
84.692 446 21.1187
84.8093 476 21.8174
84.9265 446 21.1187
85.0437 471 21.7025
85.1609 420 20.4939
85.2781 390 19.7484
85.3952 353 18.7883
85.5123 356 18.868
85.6294 352 18.7617
85.7465 373 19.3132
85.8636 407 20.1742
85.9806 392 19.799
86.0976 404 20.0998
86.2145 419 20.4695
86.3315 489 22.1133
86.4484 459 21.4243
86.5652 424 20.5913
86.682 429 20.7123
86.7988 449 21.1896
86.9156 455 21.3307
87.0323 387 19.6723
87.149 433 20.8087
87.2657 393 19.8242
87.3823 329 18.1384
87.4988 260 16.1245
87.6154 273 16.5227
87.7318 283 16.8226
87.8483 251 15.843
87.9647 274 16.5529
88.081 286 16.9115
88.1973 328 18.1108
88.3136 309 17.5784
88.4298 317 17.8045
88.546 281 16.7631
88.6621 266 16.3095
88.7781 238 15.4272
88.8942 0 1
89.0101 0 1
89.126 0 1
89.2419 0 1
89.3577 0 1
89.4734 0 1
89.5891 0 1
89.7047 0 1
89.8203 0 1
89.9358 0 1
92.3269 0 1
92.4424 0 1
92.558 0 1
92.6736 0 1
92.7893 0 1
92.905 0 1
93.0208 0 1
93.1366 0 1
93.2525 0 1
93.3685 0 1
93.4845 0 1
93.6005 219 14.7986
93.7167 249 15.7797
93.8328 258 16.0624
93.949 268 16.3707
94.0653 306 17.4929
94.1816 313 17.6918
94.2979 304 17.4356
94.4143 321 17.9165
94.5307 290 17.0294
94.6472 323 17.9722
94.7637 301 17.3494
94.8803 262 16.1864
94.9969 308 17.5499
95.1135 356 18.868
95.2302 335 18.303
95.3469 362 19.0263
95.4637 330 18.1659
95.5805 387 19.6723
95.6973 376 19.3907
95.8142 385 19.6214
95.9311 350 18.7083
96.048 380 19.4936
96.1649 371 19.2614
96.2819 377 19.4165
96.3989 319 17.8606
96.516 320 17.8885
96.633 285 16.8819
96.7501 303 17.4069
96.8673 255 15.9687
96.9844 241 15.5242
97.1016 281 16.7631
97.2188 245 15.6525
97.336 314 17.72
97.4532 311 17.6352
97.5704 306 17.4929
97.6877 347 18.6279
97.805 357 18.8944
97.9223 342 18.4932
98.0396 339 18.412
98.1569 312 17.6635
98.2743 279 16.7033
98.3916 265 16.2788
98.509 252 15.8745
98.6264 320 17.8885
98.7438 344 18.5472
98.8612 348 18.6548
98.9786 352 18.7617
99.096 387 19.6723
99.2134 367 19.1572
99.3308 354 18.8149
99.4482 397 19.9249
99.5656 358 18.9209
99.6831 356 18.868
99.8005 337 18.3576
99.9179 342 18.4932
100.035 331 18.1934
100.153 292 17.088
100.27 338 18.3848
100.388 282 16.7929
100.505 223 14.9332
100.622 273 16.5227
100.74 274 16.5529
100.857 292 17.088
100.975 326 18.0555
101.092 355 18.8414
101.209 380 19.4936
101.327 382 19.5448
101.444 362 19.0263
101.561 372 19.2873
101.679 322 17.9444
101.796 298 17.2627
101.913 247 15.7162
102.03 292 17.088
102.148 289 17
102.265 289 17
102.382 328 18.1108
102.499 340 18.4391
102.616 362 19.0263
102.733 371 19.2614
102.851 362 19.0263
102.968 396 19.8997
103.085 406 20.1494
103.202 373 19.3132
103.319 325 18.0278
103.436 371 19.2614
103.552 341 18.4662
103.669 338 18.3848
103.786 306 17.4929
103.903 298 17.2627
104.02 247 15.7162
104.137 285 16.8819
104.253 268 16.3707
104.37 307 17.5214
104.487 368 19.1833
104.603 340 18.4391
104.72 375 19.3649
104.836 366 19.1311
104.953 398 19.9499
105.069 305 17.4642
105.186 269 16.4012
105.302 283 16.8226
105.418 266 16.3095
105.535 198 14.0712
105.651 243 15.5885
105.767 209 14.4568
105.883 235 15.3297
105.999 240 15.4919
106.115 0 1
106.231 0 1
106.347 0 1
106.463 0 1
106.579 0 1
106.694 0 1
106.81 0 1
106.926 0 1
107.041 0 1
107.157 0 1
109.576 0 1
109.692 0 1
109.807 0 1
109.923 0 1
110.039 0 1
110.155 0 1
110.27 0 1
110.386 0 1
110.502 0 1
110.618 120 10.9545
110.735 174 13.1909
110.851 202 14.2127
110.967 196 14
111.083 225 15
111.199 282 16.7929
111.316 276 16.6132
111.432 312 17.6635
111.549 344 18.5472
111.665 308 17.5499
111.782 331 18.1934
111.898 261 16.1555
112.015 285 16.8819
112.132 308 17.5499
112.248 272 16.4924
112.365 224 14.9666
112.482 235 15.3297
112.599 251 15.843
112.716 242 15.5563
112.832 262 16.1864
112.949 268 16.3707
113.066 281 16.7631
113.183 338 18.3848
113.3 282 16.7929
113.417 327 18.0831
113.534 299 17.2916
113.652 280 16.7332
113.769 259 16.0935
113.886 254 15.9374
114.003 250 15.8114
114.12 254 15.9374
114.238 245 15.6525
114.355 279 16.7033
114.472 243 15.5885
114.589 332 18.2209
114.707 323 17.9722
114.824 327 18.0831
114.942 340 18.4391
115.059 310 17.6068
115.176 302 17.3781
115.294 336 18.3303
115.411 300 17.3205
115.529 310 17.6068
115.646 327 18.0831
115.764 328 18.1108
115.881 280 16.7332
115.999 241 15.5242
116.116 229 15.1327
116.234 269 16.4012
116.351 247 15.7162
116.469 256 16
116.586 270 16.4317
116.704 277 16.6433
116.821 280 16.7332
116.939 301 17.3494
117.056 296 17.2047
117.174 319 17.8606
117.291 271 16.4621
117.409 281 16.7631
117.526 239 15.4596
117.644 234 15.2971
117.761 228 15.0997
117.879 270 16.4317
117.996 290 17.0294
118.114 347 18.6279
118.231 331 18.1934
118.349 325 18.0278
118.466 337 18.3576
118.584 297 17.2337
118.701 343 18.5203
118.819 351 18.735
118.936 311 17.6352
119.053 291 17.0587
119.171 285 16.8819
119.288 271 16.4621
119.405 270 16.4317
119.523 243 15.5885
119.64 238 15.4272
119.757 229 15.1327
119.875 219 14.7986
119.992 235 15.3297
120.109 282 16.7929
120.226 255 15.9687
120.343 282 16.7929
120.46 286 16.9115
120.578 311 17.6352
120.695 282 16.7929
120.812 290 17.0294
120.929 289 17
121.046 258 16.0624
121.163 226 15.0333
121.279 218 14.7648
121.396 208 14.4222
121.513 216 14.6969
121.63 238 15.4272
121.747 258 16.0624
121.863 212 14.5602
121.98 244 15.6205
122.097 234 15.2971
122.213 268 16.3707
122.33 219 14.7986
122.446 227 15.0665
122.563 188 13.7113
122.679 211 14.5258
122.795 191 13.8203
122.912 169 13
123.028 169 13
123.144 118 10.8628
123.26 107 10.3441
123.377 0 1
123.493 0 1
123.609 0 1
123.725 0 1
123.84 0 1
123.956 0 1
124.072 0 1
124.188 0 1
124.303 0 1
124.419 0 1
126.852 0 1
126.968 0 1
127.083 0 1
127.199 0 1
127.315 0 1
127.431 0 1
127.547 0 1
127.663 0 1
127.779 0 1
127.895 0 1
128.011 0 1
128.127 0 1
128.243 0 1
128.359 252 15.8745
128.476 277 16.6433
128.592 269 16.4012
128.708 251 15.843
128.825 255 15.9687
128.941 261 16.1555
129.058 252 15.8745
129.174 289 17
129.291 289 17
129.408 302 17.3781
129.524 352 18.7617
129.641 346 18.6011
129.758 305 17.4642
129.875 284 16.8523
129.992 296 17.2047
130.108 279 16.7033
130.225 254 15.9374
130.342 241 15.5242
130.459 255 15.9687
130.576 255 15.9687
130.693 289 17
130.81 317 17.8045
130.928 325 18.0278
131.045 291 17.0587
131.162 341 18.4662
131.279 322 17.9444
131.396 320 17.8885
131.513 346 18.6011
131.631 310 17.6068
131.748 301 17.3494
131.865 297 17.2337
131.983 289 17
132.1 271 16.4621
132.217 291 17.0587
132.335 257 16.0312
132.452 290 17.0294
132.57 299 17.2916
132.687 251 15.843
132.804 285 16.8819
132.922 304 17.4356
133.039 335 18.303
133.157 333 18.2483
133.274 324 18
133.392 344 18.5472
133.509 305 17.4642
133.627 295 17.1756
133.744 298 17.2627
133.862 281 16.7631
133.979 264 16.2481
134.097 260 16.1245
134.214 299 17.2916
134.332 309 17.5784
134.449 325 18.0278
134.567 311 17.6352
134.684 317 17.8045
134.802 307 17.5214
134.919 319 17.8606
135.037 342 18.4932
135.154 327 18.0831
135.272 304 17.4356
135.389 296 17.2047
135.507 307 17.5214
135.624 297 17.2337
135.742 299 17.2916
135.859 266 16.3095
135.977 272 16.4924
136.094 259 16.0935
136.211 248 15.748
136.329 297 17.2337
136.446 323 17.9722
136.564 316 17.7764
136.681 333 18.2483
136.798 290 17.0294
136.915 302 17.3781
137.033 321 17.9165
137.15 332 18.2209
137.267 286 16.9115
137.384 280 16.7332
137.502 265 16.2788
137.619 240 15.4919
137.736 295 17.1756
137.853 267 16.3401
137.97 296 17.2047
138.087 289 17
138.204 314 17.72
138.321 322 17.9444
138.438 324 18
138.555 332 18.2209
138.672 319 17.8606
138.788 301 17.3494
138.905 329 18.1384
139.022 271 16.4621
139.139 252 15.8745
139.255 229 15.1327
139.372 223 14.9332
139.488 188 13.7113
139.605 199 14.1067
139.721 206 14.3527
139.838 172 13.1149
139.954 166 12.8841
140.071 209 14.4568
140.187 159 12.6095
140.303 146 12.083
140.419 154 12.4097
140.535 121 11
140.652 137 11.7047
140.768 0 1
140.884 0 1
141 0 1
141.115 0 1
141.231 0 1
141.347 0 1
141.463 0 1
141.578 0 1
141.694 0 1
144.104 0 1
144.219 0 1
144.335 0 1
144.45 0 1
144.566 0 1
144.682 0 1
144.798 0 1
144.914 0 1
145.03 0 1
145.146 190 13.784
145.262 228 15.0997
145.378 252 15.8745
145.494 264 16.2481
145.61 254 15.9374
145.726 249 15.7797
145.842 227 15.0665
145.959 262 16.1864
146.075 210 14.4914
146.192 225 15
146.308 227 15.0665
146.425 202 14.2127
146.541 178 13.3417
146.658 223 14.9332
146.774 235 15.3297
146.891 218 14.7648
147.008 238 15.4272
147.125 241 15.5242
147.241 239 15.4596
147.358 250 15.8114
147.475 262 16.1864
147.592 288 16.9706
147.709 246 15.6844
147.826 264 16.2481
147.943 222 14.8997
148.06 240 15.4919
148.177 227 15.0665
148.294 206 14.3527
148.411 202 14.2127
148.528 227 15.0665
148.645 216 14.6969
148.762 212 14.5602
148.88 226 15.0333
148.997 232 15.2315
149.114 250 15.8114
149.231 255 15.9687
149.349 278 16.6733
149.466 249 15.7797
149.583 232 15.2315
149.701 210 14.4914
149.818 191 13.8203
149.935 216 14.6969
150.053 198 14.0712
150.17 228 15.0997
150.287 233 15.2643
150.405 216 14.6969
150.522 251 15.843
150.64 238 15.4272
150.757 258 16.0624
150.875 227 15.0665
150.992 227 15.0665
151.11 235 15.3297
151.227 235 15.3297
151.344 202 14.2127
151.462 243 15.5885
151.579 200 14.1421
151.697 211 14.5258
151.814 207 14.3875
151.932 197 14.0357
152.049 202 14.2127
152.167 205 14.3178
152.284 201 14.1774
152.402 209 14.4568
152.519 246 15.6844
152.636 236 15.3623
152.754 268 16.3707
152.871 238 15.4272
152.989 230 15.1658
153.106 236 15.3623
153.223 234 15.2971
153.341 209 14.4568
153.458 223 14.9332
153.575 237 15.3948
153.693 194 13.9284
153.81 230 15.1658
153.927 216 14.6969
154.044 230 15.1658
154.162 239 15.4596
154.279 238 15.4272
154.396 229 15.1327
154.513 218 14.7648
154.63 253 15.906
154.747 246 15.6844
154.864 253 15.906
154.981 259 16.0935
155.098 225 15
155.215 201 14.1774
155.332 207 14.3875
155.449 225 15
155.566 236 15.3623
155.683 213 14.5945
155.8 204 14.2829
155.917 235 15.3297
156.033 215 14.6629
156.15 0 1
156.267 0 1
156.383 0 1
156.5 0 1
156.617 0 1
156.733 0 1
156.85 0 1
156.966 0 1
157.082 0 1
157.199 0 1
157.315 0 1
157.431 0 1
157.547 0 1
157.664 0 1
157.78 0 1
157.896 0 1
158.012 0 1
158.128 0 1
158.244 0 1
158.359 0 1
158.475 0 1
158.591 0 1
158.706 0 1
