
6.15755 0 1
6.2731 0 1
6.3887 0 1
6.50437 0 1
6.62009 0 1
6.73587 0 1
6.8517 0 1
6.96759 0 1
7.08353 0 1
7.19952 0 1
7.31557 0 1
7.43166 0 1
7.54781 0 1
7.664 0 1
7.78024 0 1
7.89653 0 1
8.01286 0 1
8.12924 0 1
8.24567 0 1
8.36213 0 1
8.47864 0 1
8.59519 0 1
8.71178 0 1
8.82841 0 1
8.94508 0 1
9.06179 0 1
9.17853 0 1
9.29531 0 1
9.41212 0 1
9.52897 0 1
9.64584 0 1
9.76276 0 1
9.8797 0 1
9.99667 0 1
10.1137 0 1
10.2307 0 1
10.3478 0 1
10.4648 0 1
10.5819 0 1
10.6991 0 1
10.8162 0 1
10.9334 0 1
11.0506 0 1
11.1678 0 1
11.285 0 1
11.4023 0 1
11.5196 0 1
11.6369 0 1
11.7542 0 1
11.8715 0 1
11.9888 0 1
12.1062 0 1
12.2235 0 1
12.3409 0 1
12.4582 0 1
12.5756 0 1
12.693 0 1
12.8104 0 1
12.9278 0 1
13.0452 0 1
13.1626 0 1
13.28 0 1
13.3974 0 1
13.5149 0 1
13.6323 0 1
13.7497 0 1
13.8671 0 1
13.9845 0 1
14.1019 0 1
14.2193 0 1
14.3367 0 1
14.4541 0 1
14.5714 0 1
14.6888 0 1
14.8062 0 1
14.9235 0 1
15.0408 4068 63.7809
15.1581 4136 64.3117
15.2755 4271 65.3529
15.3927 4278 65.4064
15.51 4129 64.2573
15.6273 4108 64.0937
15.7445 4079 63.867
15.8617 4120 64.1872
15.9789 4090 63.9531
16.0961 4004 63.2772
16.2132 3939 62.7615
16.3304 3893 62.3939
16.4475 3761 61.327
16.5646 3811 61.7333
16.6816 3739 61.1474
16.7986 3728 61.0574
16.9156 3775 61.441
17.0326 3754 61.2699
17.1496 3655 60.4566
17.2665 3663 60.5227
17.3833 3709 60.9016
17.5002 3668 60.564
17.617 3809 61.7171
17.7338 3728 61.0574
17.8505 3840 61.9677
17.9672 3849 62.0403
18.0839 3829 61.8789
18.2005 3806 61.6928
18.3171 3678 60.6465
18.4337 3705 60.8687
18.5502 3766 61.3677
18.6666 3734 61.1065
18.7831 3750 61.2372
18.8994 3715 60.9508
19.0158 3507 59.2199
19.1321 3235 56.8771
19.2483 3306 57.4978
19.3645 3240 56.921
19.4806 3199 56.5597
19.5967 3042 55.1543
19.7128 2741 52.3546
19.8288 2631 51.2933
19.9447 2288 47.833
20.0606 0 1
20.1764 0 1
20.2922 0 1
20.4079 0 1
20.5236 0 1
20.6392 0 1
20.7548 0 1
20.8702 0 1
23.3078 0 1
23.4233 0 1
23.539 0 1
23.6547 0 1
23.7704 0 1
23.8862 0 1
24.0021 0 1
24.118 0 1
24.234 0 1
24.35 0 1
24.4661 1545 39.3065
24.5822 1748 41.8091
24.6984 2040 45.1664
24.8146 2205 46.9574
24.9309 2531 50.309
25.0472 2842 53.3104
25.1636 3038 55.1181
25.28 3492 59.0931
25.3965 3741 61.1637
25.513 3819 61.7981
25.6296 3953 62.8729
25.7462 4094 63.9844
25.8628 4045 63.6003
25.9795 4058 63.7024
26.0962 3963 62.9524
26.213 3953 62.8729
26.3298 3854 62.0806
26.4466 3759 61.3107
26.5635 3656 60.4649
26.6804 3439 58.643
26.7973 3489 59.0678
26.9143 3559 59.6574
27.0313 3387 58.1979
27.1483 3234 56.8683
27.2653 3343 57.8187
27.3824 3497 59.1354
27.4996 3672 60.597
27.6167 3534 59.4475
27.7339 3261 57.1052
27.8511 3282 57.2887
27.9683 3506 59.2115
28.0855 3552 59.5987
28.2028 3617 60.1415
28.3201 3581 59.8415
28.4374 3340 57.7927
28.5547 3318 57.6021
28.6721 3462 58.8388
28.7894 3431 58.5747
28.9068 3485 59.0339
29.0242 3418 58.4637
29.1416 3601 60.0083
29.259 3528 59.397
29.3764 3526 59.3801
29.4939 3596 59.9667
29.6113 3445 58.6941
29.7288 3363 57.9914
29.8463 3469 58.8982
29.9638 3406 58.3609
30.0812 3315 57.576
30.1987 3304 57.4804
30.3162 3226 56.7979
30.4337 3362 57.9828
30.5512 3212 56.6745
30.6687 3110 55.7674
30.7862 3320 57.6194
30.9037 3512 59.2621
31.0212 3601 60.0083
31.1387 3630 60.2495
31.2562 3528 59.397
31.3737 3484 59.0254
31.4912 3582 59.8498
31.6087 3564 59.6992
31.7262 3657 60.4731
31.8436 3621 60.1747
31.9611 3219 56.7362
32.0785 3193 56.5066
32.1959 3259 57.0877
32.3134 3142 56.0535
32.4308 3275 57.2276
32.5482 3232 56.8507
32.6655 3274 57.2189
32.7829 3226 56.7979
32.9002 3319 57.6108
33.0176 3238 56.9034
33.1349 3238 56.9034
33.2522 3280 57.2713
33.3694 3265 57.1402
33.4867 3204 56.6039
33.6039 3325 57.6628
33.7211 3209 56.648
33.8383 3217 56.7186
33.9554 3231 56.8419
34.0725 3200 56.5685
34.1896 3101 55.6866
34.3067 2978 54.5711
34.4237 3132 55.9643
34.5407 3302 57.463
34.6577 3247 56.9825
34.7746 3251 57.0175
34.8915 3181 56.4004
35.0084 3137 56.0089
35.1252 3280 57.2713
35.242 3275 57.2276
35.3587 3259 57.0877
35.4755 3172 56.3205
35.5921 3056 55.2811
35.7088 2792 52.8394
35.8254 2766 52.5928
35.9419 2884 53.7029
36.0584 2818 53.0848
36.1749 2826 53.1601
36.2913 2924 54.074
36.4077 2921 54.0463
36.524 2820 53.1037
36.6403 2753 52.469
36.7565 2457 49.5681
36.8727 2384 48.8262
36.9889 2241 47.3392
37.1049 2041 45.1774
37.221 0 1
37.3369 0 1
37.4529 0 1
37.5687 0 1
37.6845 0 1
37.8003 0 1
37.916 0 1
38.0316 0 1
38.1472 0 1
40.5851 0 1
40.7008 0 1
40.8164 0 1
40.9322 0 1
41.048 0 1
41.1639 0 1
41.2798 0 1
41.3958 0 1
41.5118 0 1
41.6279 0 1
41.744 1211 34.7994
41.8602 1488 38.5746
41.9765 1824 42.7083
42.0928 1986 44.5646
42.2091 2161 46.4866
42.3255 2326 48.2286
42.4419 2339 48.3632
42.5584 2350 48.4768
42.675 2369 48.6724
42.7915 2462 49.6185
42.9081 2352 48.4974
43.0248 2232 47.244
43.1415 2158 46.4543
43.2582 2300 47.9583
43.375 2419 49.1833
43.4918 2453 49.5278
43.6087 2454 49.5379
43.7256 2358 48.5592
43.8425 2410 49.0918
43.9595 2410 49.0918
44.0765 2377 48.7545
44.1935 2356 48.5386
44.3106 2315 48.1144
44.4277 2249 47.4236
44.5448 2053 45.31
44.6619 2099 45.8148
44.7791 2152 46.3897
44.8963 2219 47.1063
45.0136 2299 47.9479
45.1308 2380 48.7852
45.2481 2466 49.6588
45.3654 2435 49.3457
45.4827 2461 49.6085
45.6001 2466 49.6588
45.7174 2523 50.2295
45.8348 2456 49.558
45.9522 2637 51.3517
46.0697 2435 49.3457
46.1871 2430 49.295
46.3046 2359 48.5695
46.422 2198 46.8828
46.5395 2128 46.1303
46.657 1971 44.3959
46.7745 2225 47.1699
46.892 2326 48.2286
47.0096 2265 47.592
47.1271 2442 49.4166
47.2446 2475 49.7494
47.3622 2347 48.4458
47.4797 2421 49.2037
47.5973 2342 48.3942
47.7149 2378 48.7647
47.8324 2354 48.518
47.95 2265 47.592
48.0675 2133 46.1844
48.1851 2075 45.5522
48.3027 2107 45.9021
48.4202 2156 46.4327
48.5378 2280 47.7493
48.6554 2309 48.0521
48.7729 2398 48.9694
48.8904 2409 49.0816
49.008 2412 49.1121
49.1255 2505 50.05
49.243 2338 48.3529
49.3605 2368 48.6621
49.478 2416 49.1528
49.5955 2325 48.2183
49.713 2345 48.4252
49.8304 2210 47.0106
49.9479 2038 45.1442
50.0653 1917 43.7836
50.1827 1933 43.9659
50.3001 2020 44.9444
50.4175 2118 46.0217
50.5348 2153 46.4004
50.6521 2186 46.7547
50.7694 2326 48.2286
50.8867 2413 49.1223
51.004 2375 48.734
51.1212 2298 47.9375
51.2384 2309 48.0521
51.3556 2268 47.6235
51.4727 2099 45.8148
51.5899 2036 45.1221
51.707 1970 44.3847
51.824 2079 45.5961
51.9411 2182 46.7119
52.0581 2199 46.8935
52.175 2378 48.7647
52.2919 2316 48.1248
52.4088 2316 48.1248
52.5257 2264 47.5815
52.6425 2390 48.8876
52.7593 2446 49.4571
52.876 2380 48.7852
52.9927 2329 48.2597
53.1094 2365 48.6313
53.226 2395 48.9387
53.3426 2373 48.7134
53.4591 2226 47.1805
53.5756 2121 46.0543
53.692 1900 43.589
53.8084 1835 42.8369
53.9248 1793 42.3438
54.0411 1761 41.9643
54.1573 1793 42.3438
54.2735 0 1
54.3896 0 1
54.5057 0 1
54.6217 0 1
54.7377 0 1
54.8537 0 1
54.9695 0 1
55.0853 0 1
55.2011 0 1
55.3168 0 1
55.4324 0 1
57.824 0 1
57.9396 0 1
58.0553 0 1
58.1711 0 1
58.2869 0 1
58.4028 0 1
58.5187 0 1
58.6347 0 1
58.7508 0 1
58.8669 0 1
58.983 11837 108.798
59.0992 16269 127.55
59.2155 21140 145.396
59.3318 25784 160.574
59.4482 29266 171.073
59.5646 32332 179.811
59.681 35692 188.923
59.7975 39703 199.256
59.9141 44642 211.287
60.0306 49180 221.766
60.1473 50581 224.902
60.2639 45869 214.17
60.3807 37397 193.383
60.4974 32203 179.452
60.6142 37107 192.632
60.731 53080 230.391
60.8479 74879 273.64
60.9648 93499 305.776
61.0818 104170 322.754
61.1987 109551 330.985
61.3158 111587 334.046
61.4328 112491 335.397
61.5499 113407 336.76
61.667 113836 337.396
61.7841 113312 336.618
61.9013 114389 338.214
62.0185 116048 340.658
62.1357 117788 343.203
62.253 118580 344.354
62.3702 119382 345.517
62.4875 120284 346.82
62.6049 120054 346.488
62.7222 116535 341.372
62.8396 111571 334.022
62.9569 103560 321.807
63.0743 91038 301.725
63.1918 73219 270.59
63.3092 55726 236.064
63.4267 43294 208.072
63.5441 33596 183.292
63.6616 26042 161.375
63.7791 19472 139.542
63.8966 14650 121.037
64.0142 11179 105.731
64.1317 8474 92.0543
64.2492 6543 80.8888
64.3668 5065 71.1688
64.4843 4454 66.7383
64.6019 4112 64.1249
64.7195 3840 61.9677
64.837 3835 61.9274
64.9546 3801 61.6523
65.0722 3824 61.8385
65.1898 3925 62.6498
65.3074 3921 62.6179
65.4249 3861 62.1369
65.5425 3660 60.4979
65.6601 3488 59.0593
65.7777 3323 57.6455
65.8952 3065 55.3624
66.0128 2961 54.4151
66.1304 2978 54.5711
66.2479 3012 54.8817
66.3655 3103 55.7046
66.483 3097 55.6507
66.6005 3127 55.9196
66.718 3075 55.4527
66.8355 3040 55.1362
66.953 3203 56.5951
67.0705 3399 58.3009
67.1879 3188 56.4624
67.3054 3131 55.9553
67.4228 2844 53.3292
67.5402 2664 51.614
67.6576 2707 52.0288
67.7749 2934 54.1664
67.8923 3103 55.7046
68.0096 3143 56.0625
68.1269 3025 55
68.2442 3074 55.4437
68.3614 2952 54.3323
68.4787 2952 54.3323
68.5958 2970 54.4977
68.713 2910 53.9444
68.8302 3031 55.0545
68.9473 2966 54.461
69.0643 2943 54.2494
69.1814 2917 54.0093
69.2984 2749 52.4309
69.4154 2597 50.9608
69.5323 2460 49.5984
69.6492 2453 49.5278
69.7661 2561 50.6063
69.8829 2623 51.2152
69.9997 2678 51.7494
70.1165 2683 51.7977
70.2332 2684 51.8073
70.3499 2692 51.8845
70.4665 2433 49.3254
70.5831 2278 47.7284
70.6996 2203 46.9361
70.8161 1956 44.2267
70.9326 1775 42.1307
71.049 1558 39.4715
71.1653 1403 37.4566
71.2817 1297 36.0139
71.3979 1300 36.0555
71.5141 1240 35.2136
71.6303 1104 33.2265
71.7464 975 31.225
71.8624 0 1
71.9784 0 1
72.0944 0 1
72.2102 0 1
72.3261 0 1
72.4418 0 1
72.5575 0 1
72.6732 0 1
75.1054 0 1
75.2209 0 1
75.3365 0 1
75.4521 0 1
75.5678 0 1
75.6835 0 1
75.7993 0 1
75.9151 0 1
76.031 0 1
76.147 1695 41.1704
76.263 1771 42.0833
76.3791 1830 42.7785
76.4952 1803 42.4617
76.6113 1913 43.7379
76.7276 2053 45.31
76.8438 2086 45.6727
76.9601 2198 46.8828
77.0765 2251 47.4447
77.1929 2280 47.7493
77.3093 2327 48.239
77.4258 2316 48.1248
77.5423 2286 47.8121
77.6589 2310 48.0625
77.7755 2369 48.6724
77.8921 2403 49.0204
78.0088 2423 49.224
78.1256 2295 47.9062
78.2423 2085 45.6618
78.3591 2156 46.4327
78.4759 2030 45.0555
78.5928 1961 44.2832
78.7097 2064 45.4313
78.8266 2029 45.0444
78.9436 2168 46.5618
79.0606 2250 47.4342
79.1776 2216 47.0744
79.2946 2251 47.4447
79.4117 2329 48.2597
79.5288 2400 48.9898
79.6459 2370 48.6826
79.7631 2265 47.592
79.8802 2220 47.1169
79.9974 2113 45.9674
80.1147 2079 45.5961
80.2319 2044 45.2106
80.3491 2144 46.3033
80.4664 2364 48.621
80.5837 2174 46.6262
80.701 2268 47.6235
80.8183 2249 47.4236
80.9357 2274 47.6865
81.053 2207 46.9787
81.1704 2259 47.5289
81.2877 2396 48.949
81.4051 2387 48.8569
81.5225 2423 49.224
81.6399 2427 49.2646
81.7573 2364 48.621
81.8747 2267 47.613
81.9922 2227 47.1911
82.1096 2033 45.0888
82.227 1952 44.1814
82.3444 1969 44.3734
82.4619 2155 46.422
82.5793 2214 47.0532
82.6967 2352 48.4974
82.8142 2306 48.0208
82.9316 2340 48.3735
83.049 2399 48.9796
83.1664 2355 48.5283
83.2838 2290 47.8539
83.4012 2325 48.2183
83.5186 2218 47.0956
83.636 2180 46.6905
83.7534 2028 45.0333
83.8708 2101 45.8367
83.9881 2171 46.594
84.1055 2246 47.392
84.2228 2299 47.9479
84.3401 2334 48.3115
84.4575 2350 48.4768
84.5747 2238 47.3075
84.692 2305 48.0104
84.8093 2356 48.5386
84.9265 2348 48.4562
85.0437 2457 49.5681
85.1609 2468 49.679
85.2781 2456 49.558
85.3952 2350 48.4768
85.5123 2190 46.7974
85.6294 2115 45.9891
85.7465 2043 45.1996
85.8636 2069 45.4863
85.9806 2120 46.0435
86.0976 2214 47.0532
86.2145 2218 47.0956
86.3315 2392 48.9081
86.4484 2255 47.4868
86.5652 2369 48.6724
86.682 2466 49.6588
86.7988 2518 50.1797
86.9156 2449 49.4874
87.0323 2380 48.7852
87.149 2182 46.7119
87.2657 2108 45.913
87.3823 2159 46.465
87.4988 2079 45.5961
87.6154 2146 46.3249
87.7318 2154 46.4112
87.8483 2031 45.0666
87.9647 1927 43.8976
88.081 1874 43.2897
88.1973 1852 43.0349
88.3136 1643 40.5339
88.4298 1593 39.9124
88.546 1457 38.1707
88.6621 1392 37.3095
88.7781 1310 36.1939
88.8942 0 1
89.0101 0 1
89.126 0 1
89.2419 0 1
89.3577 0 1
89.4734 0 1
89.5891 0 1
89.7047 0 1
89.8203 0 1
89.9358 0 1
92.3269 0 1
92.4424 0 1
92.558 0 1
92.6736 0 1
92.7893 0 1
92.905 0 1
93.0208 0 1
93.1366 0 1
93.2525 0 1
93.3685 0 1
93.4845 0 1
93.6005 1740 41.7133
93.7167 1898 43.566
93.8328 2092 45.7384
93.949 2216 47.0744
94.0653 2284 47.7912
94.1816 2319 48.156
94.2979 2320 48.1664
94.4143 2394 48.9285
94.5307 2212 47.0319
94.6472 2254 47.4763
94.7637 2185 46.744
94.8803 2086 45.6727
94.9969 2153 46.4004
95.1135 2131 46.1628
95.2302 2295 47.9062
95.3469 2280 47.7493
95.4637 2385 48.8365
95.5805 2413 49.1223
95.6973 2448 49.4773
95.8142 2352 48.4974
95.9311 2312 48.0833
96.048 2292 47.8748
96.1649 2306 48.0208
96.2819 2146 46.3249
96.3989 2225 47.1699
96.516 2142 46.2817
96.633 2330 48.2701
96.7501 2347 48.4458
96.8673 2294 47.8957
96.9844 2369 48.6724
97.1016 2313 48.0937
97.2188 2289 47.8435
97.336 2328 48.2494
97.4532 2376 48.7442
97.5704 2351 48.4871
97.6877 2312 48.0833
97.805 2379 48.775
97.9223 2498 49.98
98.0396 2350 48.4768
98.1569 2359 48.5695
98.2743 2286 47.8121
98.3916 2281 47.7598
98.509 2164 46.5188
98.6264 2266 47.6025
98.7438 2297 47.927
98.8612 2419 49.1833
98.9786 2480 49.7996
99.096 2512 50.1199
99.2134 2600 50.9902
99.3308 2537 50.3686
99.4482 2522 50.2195
99.5656 2544 50.4381
99.6831 2343 48.4045
99.8005 2472 49.7192
99.9179 2348 48.4562
100.035 2378 48.7647
100.153 2416 49.1528
100.27 2526 50.2593
100.388 2560 50.5964
100.505 2474 49.7393
100.622 2440 49.3964
100.74 2311 48.0729
100.857 2331 48.2804
100.975 2387 48.8569
101.092 2444 49.4368
101.209 2421 49.2037
101.327 2526 50.2593
101.444 2551 50.5074
101.561 2563 50.6261
101.679 2493 49.93
101.796 2432 49.3153
101.913 2426 49.2544
102.03 2318 48.1456
102.148 2418 49.1732
102.265 2376 48.7442
102.382 2479 49.7896
102.499 2740 52.345
102.616 2652 51.4976
102.733 2747 52.4118
102.851 2826 53.1601
102.968 2781 52.7352
103.085 2702 51.9808
103.202 2684 51.8073
103.319 2562 50.6162
103.436 2689 51.8556
103.552 2657 51.5461
103.669 2732 52.2685
103.786 2747 52.4118
103.903 2715 52.1057
104.02 2784 52.7636
104.137 2666 51.6333
104.253 2610 51.0882
104.37 2659 51.5655
104.487 2670 51.672
104.603 2670 51.672
104.72 2626 51.2445
104.836 2607 51.0588
104.953 2465 49.6488
105.069 2362 48.6004
105.186 2273 47.676
105.302 2153 46.4004
105.418 2058 45.3652
105.535 1937 44.0114
105.651 1729 41.5812
105.767 1617 40.2119
105.883 1451 38.092
105.999 1385 37.2156
106.115 0 1
106.231 0 1
106.347 0 1
106.463 0 1
106.579 0 1
106.694 0 1
106.81 0 1
106.926 0 1
107.041 0 1
107.157 0 1
109.576 0 1
109.692 0 1
109.807 0 1
109.923 0 1
110.039 0 1
110.155 0 1
110.27 0 1
110.386 0 1
110.502 0 1
110.618 1086 32.9545
110.735 1394 37.3363
110.851 1665 40.8044
110.967 1772 42.0951
111.083 1872 43.2666
111.199 2130 46.1519
111.316 2301 47.9687
111.432 2410 49.0918
111.549 2423 49.224
111.665 2458 49.5782
111.782 2229 47.2123
111.898 2169 46.5725
112.015 2297 47.927
112.132 2271 47.655
112.248 2330 48.2701
112.365 2380 48.7852
112.482 2400 48.9898
112.599 2332 48.2908
112.716 2316 48.1248
112.832 2228 47.2017
112.949 2204 46.9468
113.066 2191 46.8081
113.183 2166 46.5403
113.3 2175 46.6369
113.417 2111 45.9456
113.534 2209 47
113.652 2171 46.594
113.769 2177 46.6583
113.886 2192 46.8188
114.003 2067 45.4643
114.12 2082 45.6289
114.238 2006 44.7884
114.355 1956 44.2267
114.472 2097 45.793
114.589 2068 45.4753
114.707 2195 46.8508
114.824 2168 46.5618
114.942 2222 47.1381
115.059 2274 47.6865
115.176 2281 47.7598
115.294 2192 46.8188
115.411 2013 44.8665
115.529 2004 44.7661
115.646 2066 45.4533
115.764 2102 45.8476
115.881 2124 46.0869
115.999 2118 46.0217
116.116 2144 46.3033
116.234 2156 46.4327
116.351 2034 45.0999
116.469 2029 45.0444
116.586 2054 45.3211
116.704 1971 44.3959
116.821 2056 45.3431
116.939 2019 44.9333
117.056 2140 46.2601
117.174 2024 44.9889
117.291 2028 45.0333
117.409 2034 45.0999
117.526 1933 43.9659
117.644 1923 43.852
117.761 1907 43.6692
117.879 1805 42.4853
117.996 1876 43.3128
118.114 2030 45.0555
118.231 1956 44.2267
118.349 2127 46.1194
118.466 2074 45.5412
118.584 2109 45.9239
118.701 2059 45.3762
118.819 2049 45.2659
118.936 1922 43.8406
119.053 1957 44.238
119.171 1955 44.2154
119.288 1912 43.7264
119.405 2068 45.4753
119.523 2016 44.8999
119.64 1970 44.3847
119.757 1999 44.7102
119.875 1971 44.3959
119.992 2032 45.0777
120.109 1965 44.3283
120.226 1928 43.909
120.343 1924 43.8634
120.46 1907 43.6692
120.578 1996 44.6766
120.695 1962 44.2945
120.812 1929 43.9204
120.929 2011 44.8442
121.046 1972 44.4072
121.163 1846 42.9651
121.279 1830 42.7785
121.396 1736 41.6653
121.513 1709 41.3401
121.63 1656 40.694
121.747 1719 41.4608
121.863 1766 42.0238
121.98 1723 41.509
122.097 1731 41.6053
122.213 1692 41.1339
122.33 1596 39.95
122.446 1674 40.9145
122.563 1452 38.1051
122.679 1300 36.0555
122.795 1188 34.4674
122.912 1151 33.9264
123.028 1179 34.3366
123.144 1116 33.4066
123.26 1064 32.619
123.377 0 1
123.493 0 1
123.609 0 1
123.725 0 1
123.84 0 1
123.956 0 1
124.072 0 1
124.188 0 1
124.303 0 1
124.419 0 1
126.852 0 1
126.968 0 1
127.083 0 1
127.199 0 1
127.315 0 1
127.431 0 1
127.547 0 1
127.663 0 1
127.779 0 1
127.895 0 1
128.011 0 1
128.127 0 1
128.243 0 1
128.359 2303 47.9896
128.476 2502 50.02
128.592 2697 51.9326
128.708 2918 54.0185
128.825 3005 54.8179
128.941 3158 56.1961
129.058 3389 58.2151
129.174 3653 60.4401
129.291 4031 63.4902
129.408 4644 68.1469
129.524 5880 76.6812
129.641 7173 84.6936
129.758 8969 94.7048
129.875 11199 105.825
129.992 13931 118.03
130.108 16928 130.108
130.225 21002 144.921
130.342 25412 159.411
130.459 29249 171.023
130.576 34210 184.959
130.693 37567 193.822
130.81 38593 196.451
130.928 37641 194.013
131.045 35775 189.143
131.162 35738 189.045
131.279 36351 190.659
131.396 36741 191.679
131.513 36828 191.906
131.631 35904 189.484
131.748 35081 187.299
131.865 34600 186.011
131.983 33505 183.044
132.1 32093 179.145
132.217 31320 176.975
132.335 30546 174.774
132.452 29273 171.094
132.57 28484 168.772
132.687 26823 163.777
132.804 26371 162.392
132.922 24566 156.735
133.039 23656 153.805
133.157 22517 150.057
133.274 21305 145.962
133.392 20048 141.591
133.509 19394 139.262
133.627 18225 135
133.744 17585 132.608
133.862 16257 127.503
133.979 15390 124.056
134.097 14792 121.622
134.214 14243 119.344
134.332 13603 116.632
134.449 12928 113.701
134.567 11963 109.375
134.684 10593 102.922
134.802 11166 105.669
134.919 11881 109
135.037 11307 106.334
135.154 11004 104.9
135.272 10255 101.267
135.389 9406 96.9845
135.507 9338 96.6333
135.624 9399 96.9484
135.742 9195 95.8906
135.859 9077 95.2733
135.977 8885 94.2603
136.094 8677 93.1504
136.211 8607 92.7739
136.329 8216 90.6422
136.446 7891 88.8313
136.564 7663 87.5386
136.681 7624 87.3155
136.798 7520 86.7179
136.915 7212 84.9235
137.033 7093 84.22
137.15 6958 83.4146
137.267 6786 82.3772
137.384 6496 80.5978
137.502 6135 78.3262
137.619 5804 76.184
137.736 5659 75.2263
137.853 5468 73.9459
137.97 5631 75.04
138.087 5759 75.8881
138.204 5807 76.2037
138.321 5989 77.3886
138.438 6117 78.2113
138.555 6359 79.7433
138.672 6330 79.5613
138.788 6206 78.7782
138.905 5797 76.138
139.022 5466 73.9324
139.139 5076 71.2461
139.255 4949 70.3491
139.372 5035 70.9577
139.488 5219 72.2426
139.605 4955 70.3918
139.721 4747 68.8985
139.838 4407 66.3852
139.954 4092 63.9687
140.071 3782 61.498
140.187 3764 61.3514
140.303 3469 58.8982
140.419 3431 58.5747
140.535 3287 57.3324
140.652 3121 55.8659
140.768 0 1
140.884 0 1
141 0 1
141.115 0 1
141.231 0 1
141.347 0 1
141.463 0 1
141.578 0 1
141.694 0 1
144.104 0 1
144.219 0 1
144.335 0 1
144.45 0 1
144.566 0 1
144.682 0 1
144.798 0 1
144.914 0 1
145.03 0 1
145.146 5980 77.3305
145.262 6217 78.848
145.378 6396 79.975
145.494 6318 79.4858
145.61 6590 81.1788
145.726 6720 81.9756
145.842 6703 81.8719
145.959 6829 82.6378
146.075 6786 82.3772
146.192 6819 82.5772
146.308 6832 82.6559
146.425 6575 81.0864
146.541 6664 81.6333
146.658 6701 81.8596
146.774 6625 81.3941
146.891 6895 83.0361
147.008 7067 84.0655
147.125 7090 84.2021
147.241 7441 86.2612
147.358 7616 87.2697
147.475 7602 87.1894
147.592 7403 86.0407
147.709 7068 84.0714
147.826 6796 82.4379
147.943 6595 81.2096
148.06 6745 82.1279
148.177 6784 82.365
148.294 7073 84.1011
148.411 7477 86.4696
148.528 7663 87.5386
148.645 7416 86.1162
148.762 7555 86.9195
148.88 7662 87.5329
148.997 7685 87.6641
149.114 7488 86.5332
149.231 7532 86.7871
149.349 7597 87.1608
149.466 7389 85.9593
149.583 7513 86.6776
149.701 7405 86.0523
149.818 7344 85.6971
149.935 7121 84.386
150.053 6831 82.6499
150.17 6583 81.1357
150.287 6360 79.7496
150.405 6489 80.5543
150.522 6271 79.1896
150.64 6583 81.1357
150.757 6547 80.9135
150.875 6769 82.2739
150.992 6767 82.2618
151.11 6590 81.1788
151.227 6412 80.075
151.344 6252 79.0696
151.462 5897 76.7919
151.579 5755 75.8617
151.697 5848 76.4722
151.814 6113 78.1857
151.932 6294 79.3347
152.049 6351 79.6932
152.167 6448 80.2994
152.284 6624 81.388
152.402 6439 80.2434
152.519 6469 80.4301
152.636 6309 79.4292
152.754 6301 79.3788
152.871 6416 80.0999
152.989 6111 78.1729
153.106 6362 79.7621
153.223 5927 76.987
153.341 6257 79.1012
153.458 5994 77.4209
153.575 5894 76.7724
153.693 5717 75.6108
153.81 5675 75.3326
153.927 5508 74.2159
154.044 5259 72.519
154.162 5060 71.1337
154.279 5280 72.6636
154.396 5546 74.4715
154.513 5726 75.6703
154.63 5830 76.3544
154.747 5810 76.2234
154.864 5824 76.3151
154.981 5852 76.4984
155.098 5494 74.1215
155.215 5609 74.8933
155.332 5552 74.5117
155.449 5779 76.0197
155.566 5952 77.1492
155.683 6010 77.5242
155.8 6097 78.0833
155.917 6011 77.5306
156.033 6029 77.6466
156.15 0 1
156.267 0 1
156.383 0 1
156.5 0 1
156.617 0 1
156.733 0 1
156.85 0 1
156.966 0 1
157.082 0 1
157.199 0 1
157.315 0 1
157.431 0 1
157.547 0 1
157.664 0 1
157.78 0 1
157.896 0 1
158.012 0 1
158.128 0 1
158.244 0 1
158.359 0 1
158.475 0 1
158.591 0 1
158.706 0 1
