
6.15755 0 1
6.2731 0 1
6.3887 0 1
6.50437 0 1
6.62009 0 1
6.73587 0 1
6.8517 0 1
6.96759 0 1
7.08353 0 1
7.19952 0 1
7.31557 0 1
7.43166 0 1
7.54781 0 1
7.664 0 1
7.78024 0 1
7.89653 0 1
8.01286 0 1
8.12924 0 1
8.24567 0 1
8.36213 0 1
8.47864 0 1
8.59519 0 1
8.71178 0 1
8.82841 0 1
8.94508 0 1
9.06179 0 1
9.17853 0 1
9.29531 0 1
9.41212 0 1
9.52897 0 1
9.64584 0 1
9.76276 0 1
9.8797 0 1
9.99667 0 1
10.1137 0 1
10.2307 0 1
10.3478 0 1
10.4648 0 1
10.5819 0 1
10.6991 0 1
10.8162 0 1
10.9334 0 1
11.0506 0 1
11.1678 0 1
11.285 0 1
11.4023 0 1
11.5196 0 1
11.6369 0 1
11.7542 0 1
11.8715 0 1
11.9888 0 1
12.1062 0 1
12.2235 0 1
12.3409 0 1
12.4582 0 1
12.5756 0 1
12.693 0 1
12.8104 0 1
12.9278 0 1
13.0452 0 1
13.1626 0 1
13.28 0 1
13.3974 0 1
13.5149 0 1
13.6323 0 1
13.7497 0 1
13.8671 0 1
13.9845 0 1
14.1019 0 1
14.2193 0 1
14.3367 0 1
14.4541 0 1
14.5714 0 1
14.6888 0 1
14.8062 0 1
14.9235 0 1
15.0408 25025 158.193
15.1581 26569 163
15.2755 27957 167.203
15.3927 28104 167.642
15.51 28060 167.511
15.6273 28057 167.502
15.7445 27680 166.373
15.8617 27552 165.988
15.9789 26942 164.14
16.0961 26631 163.19
16.2132 27047 164.46
16.3304 26761 163.588
16.4475 26876 163.939
16.5646 26818 163.762
16.6816 26781 163.649
16.7986 26794 163.689
16.9156 26785 163.661
17.0326 26532 162.886
17.1496 26640 163.218
17.2665 26433 162.582
17.3833 26193 161.843
17.5002 26695 163.386
17.617 26865 163.905
17.7338 27898 167.027
17.8505 28346 168.363
17.9672 29133 170.684
18.0839 29173 170.801
18.2005 29523 171.823
18.3171 29109 170.614
18.4337 29848 172.766
18.5502 29695 172.322
18.6666 29861 172.803
18.7831 29645 172.177
18.8994 28097 167.622
19.0158 27441 165.653
19.1321 26622 163.162
19.2483 25721 160.378
19.3645 25601 160.003
19.4806 25911 160.969
19.5967 25918 160.991
19.7128 26236 161.975
19.8288 26634 163.199
19.9447 24678 157.092
20.0606 0 1
20.1764 0 1
20.2922 0 1
20.4079 0 1
20.5236 0 1
20.6392 0 1
20.7548 0 1
20.8702 0 1
23.3078 0 1
23.4233 0 1
23.539 0 1
23.6547 0 1
23.7704 0 1
23.8862 0 1
24.0021 0 1
24.118 0 1
24.234 0 1
24.35 0 1
24.4661 25612 160.037
24.5822 25873 160.851
24.6984 26208 161.889
24.8146 26625 163.172
24.9309 26928 164.098
25.0472 27553 165.991
25.1636 28557 168.988
25.28 29351 171.321
25.3965 29817 172.676
25.513 30076 173.424
25.6296 30107 173.514
25.7462 30502 174.648
25.8628 29984 173.159
25.9795 30213 173.819
26.0962 30190 173.753
26.213 30205 173.796
26.3298 30041 173.323
26.4466 30301 174.072
26.5635 30123 173.56
26.6804 30557 174.806
26.7973 30042 173.326
26.9143 29385 171.421
27.0313 28763 169.597
27.1483 28744 169.541
27.2653 28373 168.443
27.3824 28929 170.085
27.4996 28598 169.109
27.6167 28328 168.309
27.7339 27670 166.343
27.8511 27197 164.915
27.9683 26510 162.819
28.0855 26462 162.671
28.2028 26011 161.279
28.3201 26346 162.315
28.4374 26538 162.905
28.5547 27126 164.7
28.6721 27777 166.664
28.7894 28158 167.803
28.9068 28067 167.532
29.0242 28219 167.985
29.1416 28569 169.024
29.259 28675 169.337
29.3764 28328 168.309
29.4939 28951 170.15
29.6113 28603 169.124
29.7288 28941 170.121
29.8463 29315 171.216
29.9638 29292 171.149
30.0812 29842 172.748
30.1987 29633 172.142
30.3162 29623 172.113
30.4337 28803 169.714
30.5512 27993 167.311
30.6687 27677 166.364
30.7862 26592 163.071
30.9037 27901 167.036
31.0212 27950 167.183
31.1387 27880 166.973
31.2562 27567 166.033
31.3737 27017 164.368
31.4912 26952 164.171
31.6087 26441 162.607
31.7262 26337 162.287
31.8436 26507 162.81
31.9611 26727 163.484
32.0785 27042 164.445
32.1959 27577 166.063
32.3134 28101 167.634
32.4308 28110 167.66
32.5482 28393 168.502
32.6655 28386 168.481
32.7829 28222 167.994
32.9002 28456 168.689
33.0176 28199 167.926
33.1349 28467 168.722
33.2522 28207 167.949
33.3694 29143 170.713
33.4867 28961 170.179
33.6039 29369 171.374
33.7211 29703 172.346
33.8383 30086 173.453
33.9554 29832 172.719
34.0725 28955 170.162
34.1896 28383 168.473
34.3067 27812 166.769
34.4237 26608 163.12
34.5407 26993 164.295
34.6577 27478 165.765
34.7746 27478 165.765
34.8915 27075 164.545
35.0084 26710 163.432
35.1252 26459 162.662
35.242 26313 162.213
35.3587 26051 161.403
35.4755 26538 162.905
35.5921 26763 163.594
35.7088 26888 163.976
35.8254 27484 165.783
35.9419 28071 167.544
36.0584 27879 166.97
36.1749 28249 168.074
36.2913 27880 166.973
36.4077 27861 166.916
36.524 27609 166.16
36.6403 27534 165.934
36.7565 27643 166.262
36.8727 27544 165.964
36.9889 28070 167.541
37.1049 28067 167.532
37.221 0 1
37.3369 0 1
37.4529 0 1
37.5687 0 1
37.6845 0 1
37.8003 0 1
37.916 0 1
38.0316 0 1
38.1472 0 1
40.5851 0 1
40.7008 0 1
40.8164 0 1
40.9322 0 1
41.048 0 1
41.1639 0 1
41.2798 0 1
41.3958 0 1
41.5118 0 1
41.6279 0 1
41.744 22455 149.85
41.8602 23046 151.809
41.9765 23737 154.068
42.0928 23977 154.845
42.2091 24215 155.612
42.3255 24673 157.076
42.4419 25224 158.821
42.5584 25239 158.868
42.675 25587 159.959
42.7915 25009 158.142
42.9081 24898 157.791
43.0248 23873 154.509
43.1415 23259 152.509
43.2582 23102 151.993
43.375 23111 152.023
43.4918 23579 153.555
43.6087 23448 153.127
43.7256 22683 150.609
43.8425 21789 147.611
43.9595 21801 147.652
44.0765 21280 145.877
44.1935 21147 145.42
44.3106 21228 145.698
44.4277 21738 147.438
44.5448 21641 147.109
44.6619 21637 147.095
44.7791 21192 145.575
44.8963 21105 145.276
45.0136 20115 141.827
45.1308 19796 140.698
45.2481 19438 139.42
45.3654 19025 137.931
45.4827 19047 138.011
45.6001 18578 136.301
45.7174 19029 137.946
45.8348 19164 138.434
45.9522 19535 139.768
46.0697 19443 139.438
46.1871 19565 139.875
46.3046 19354 139.119
46.422 19604 140.014
46.5395 19073 138.105
46.657 18329 135.385
46.7745 17757 133.255
46.892 17543 132.45
47.0096 17533 132.412
47.1271 17873 133.69
47.2446 17569 132.548
47.3622 16836 129.754
47.4797 16588 128.794
47.5973 16107 126.913
47.7149 15903 126.107
47.8324 15758 125.531
47.95 15658 125.132
48.0675 15977 126.4
48.1851 15284 123.628
48.3027 15326 123.798
48.4202 14921 122.152
48.5378 14909 122.102
48.6554 14664 121.095
48.7729 14162 119.004
48.8904 14073 118.63
49.008 13831 117.605
49.1255 14156 118.979
49.243 14467 120.279
49.3605 14849 121.856
49.478 15135 123.024
49.5955 15276 123.596
49.713 15887 126.044
49.8304 15982 126.42
49.9479 16317 127.738
50.0653 16306 127.695
50.1827 15748 125.491
50.3001 15612 124.948
50.4175 15473 124.391
50.5348 16371 127.949
50.6521 17180 131.072
50.7694 17791 133.383
50.8867 17919 133.862
51.004 17998 134.157
51.1212 18285 135.222
51.2384 18912 137.521
51.3556 19654 140.193
51.4727 19928 141.167
51.5899 20371 142.727
51.707 21281 145.88
51.824 21184 145.547
51.9411 21134 145.375
52.0581 21233 145.715
52.175 21450 146.458
52.2919 21383 146.229
52.4088 21490 146.595
52.5257 21927 148.078
52.6425 21933 148.098
52.7593 22850 151.162
52.876 23907 154.619
52.9927 24244 155.705
53.1094 25603 160.009
53.226 25963 161.13
53.3426 26536 162.899
53.4591 27329 165.315
53.5756 27803 166.742
53.692 27587 166.093
53.8084 27154 164.785
53.9248 26232 161.963
54.0411 26338 162.29
54.1573 27073 164.539
54.2735 0 1
54.3896 0 1
54.5057 0 1
54.6217 0 1
54.7377 0 1
54.8537 0 1
54.9695 0 1
55.0853 0 1
55.2011 0 1
55.3168 0 1
55.4324 0 1
57.824 0 1
57.9396 0 1
58.0553 0 1
58.1711 0 1
58.2869 0 1
58.4028 0 1
58.5187 0 1
58.6347 0 1
58.7508 0 1
58.8669 0 1
58.983 31103 176.36
59.0992 31144 176.477
59.2155 30804 175.511
59.3318 31081 176.298
59.4482 31483 177.434
59.5646 32011 178.916
59.681 32310 179.75
59.7975 31861 178.496
59.9141 31954 178.757
60.0306 31498 177.477
60.1473 31582 177.713
60.2639 31402 177.206
60.3807 30748 175.351
60.4974 30364 174.253
60.6142 30606 174.946
60.731 30129 173.577
60.8479 28980 170.235
60.9648 29461 171.642
61.0818 29108 170.611
61.1987 28793 169.685
61.3158 29032 170.388
61.4328 28306 168.244
61.5499 28569 169.024
61.667 28843 169.832
61.7841 28918 170.053
61.9013 29651 172.195
62.0185 29449 171.607
62.1357 29433 171.56
62.253 29477 171.689
62.3702 29453 171.619
62.4875 28484 168.772
62.6049 28037 167.443
62.7222 28834 169.806
62.8396 29002 170.3
62.9569 29153 170.742
63.0743 29092 170.564
63.1918 29112 170.622
63.3092 28319 168.283
63.4267 28297 168.217
63.5441 28037 167.443
63.6616 27945 167.168
63.7791 27904 167.045
63.8966 27281 165.17
64.0142 26922 164.079
64.1317 26552 162.948
64.2492 26342 162.302
64.3668 26129 161.645
64.4843 25923 161.006
64.6019 26070 161.462
64.7195 26194 161.846
64.837 25839 160.745
64.9546 25767 160.521
65.0722 25274 158.978
65.1898 25472 159.599
65.3074 26064 161.443
65.4249 25455 159.546
65.5425 26082 161.499
65.6601 26576 163.021
65.7777 27056 164.487
65.8952 26872 163.927
66.0128 26683 163.349
66.1304 26350 162.327
66.2479 26046 161.388
66.3655 25846 160.767
66.483 26821 163.771
66.6005 27142 164.748
66.718 26906 164.03
66.8355 26732 163.499
66.953 26460 162.665
67.0705 26852 163.866
67.1879 26262 162.056
67.3054 25942 161.065
67.4228 25801 160.627
67.5402 25744 160.449
67.6576 25164 158.632
67.7749 25317 159.113
67.8923 25252 158.909
68.0096 25002 158.12
68.1269 25443 159.509
68.2442 25889 160.901
68.3614 26724 163.475
68.4787 26480 162.727
68.5958 26167 161.762
68.713 26024 161.32
68.8302 26058 161.425
68.9473 26195 161.849
69.0643 26321 162.237
69.1814 26722 163.469
69.2984 27222 164.991
69.4154 28023 167.401
69.5323 28326 168.303
69.6492 28437 168.633
69.7661 28356 168.392
69.8829 27915 167.078
69.9997 27950 167.183
70.1165 28326 168.303
70.2332 29103 170.596
70.3499 28866 169.9
70.4665 28689 169.378
70.5831 28529 168.905
70.6996 28195 167.914
70.8161 28167 167.83
70.9326 27547 165.973
71.049 27631 166.226
71.1653 27293 165.206
71.2817 27035 164.423
71.3979 26831 163.802
71.5141 26518 162.843
71.6303 25779 160.558
71.7464 23776 154.195
71.8624 0 1
71.9784 0 1
72.0944 0 1
72.2102 0 1
72.3261 0 1
72.4418 0 1
72.5575 0 1
72.6732 0 1
75.1054 0 1
75.2209 0 1
75.3365 0 1
75.4521 0 1
75.5678 0 1
75.6835 0 1
75.7993 0 1
75.9151 0 1
76.031 0 1
76.147 25872 160.848
76.263 27417 165.581
76.3791 27547 165.973
76.4952 27301 165.23
76.6113 27115 164.666
76.7276 26735 163.508
76.8438 26835 163.814
76.9601 26361 162.361
77.0765 26307 162.194
77.1929 27177 164.854
77.3093 28284 168.178
77.4258 28886 169.959
77.5423 28231 168.021
77.6589 27655 166.298
77.7755 26749 163.551
77.8921 26311 162.207
78.0088 26588 163.058
78.1256 25775 160.546
78.2423 26127 161.638
78.3591 26225 161.941
78.4759 26619 163.153
78.5928 27003 164.326
78.7097 27601 166.135
78.8266 27892 167.009
78.9436 27223 164.994
79.0606 24396 156.192
79.1776 24230 155.66
79.2946 25484 159.637
79.4117 26169 161.768
79.5288 26490 162.757
79.6459 26628 163.181
79.7631 25628 160.087
79.8802 25123 158.502
79.9974 24350 156.045
80.1147 24088 155.203
80.2319 23685 153.899
80.3491 23516 153.349
80.4664 23327 152.732
80.5837 22733 150.775
80.701 22700 150.665
80.8183 23042 151.796
80.9357 23776 154.195
81.053 24490 156.493
81.1704 24048 155.074
81.2877 23793 154.25
81.4051 22587 150.29
81.5225 22111 148.698
81.6399 21255 145.791
81.7573 21699 147.306
81.8747 21339 146.079
81.9922 21063 145.131
82.1096 21817 147.706
82.227 21793 147.625
82.3444 22543 150.143
82.4619 23580 153.558
82.5793 23893 154.574
82.6967 21580 146.901
82.8142 20139 141.912
82.9316 20294 142.457
83.049 20870 144.465
83.1664 20582 143.464
83.2838 20894 144.548
83.4012 20236 142.253
83.5186 19523 139.725
83.636 19159 138.416
83.7534 19167 138.445
83.8708 19000 137.84
83.9881 18487 135.967
84.1055 18304 135.292
84.2228 18085 134.48
84.3401 18155 134.74
84.4575 18708 136.777
84.5747 19670 140.25
84.692 20252 142.31
84.8093 20026 141.513
84.9265 19617 140.061
85.0437 18903 137.488
85.1609 18466 135.89
85.2781 18430 135.757
85.3952 18535 136.143
85.5123 18371 135.54
85.6294 18641 136.532
85.7465 19087 138.156
85.8636 19417 139.345
85.9806 20229 142.229
86.0976 21182 145.54
86.2145 21768 147.54
86.3315 20782 144.16
86.4484 19817 140.773
86.5652 20463 143.049
86.682 21096 145.245
86.7988 21270 145.842
86.9156 20267 142.362
87.0323 19735 140.481
87.149 19143 138.358
87.2657 19257 138.77
87.3823 18901 137.481
87.4988 18958 137.688
87.6154 18373 135.547
87.7318 18509 136.048
87.8483 18291 135.244
87.9647 18599 136.378
88.081 19981 141.354
88.1973 20664 143.75
88.3136 21098 145.252
88.4298 20605 143.544
88.546 19632 140.114
88.6621 19391 139.252
88.7781 18807 137.139
88.8942 0 1
89.0101 0 1
89.126 0 1
89.2419 0 1
89.3577 0 1
89.4734 0 1
89.5891 0 1
89.7047 0 1
89.8203 0 1
89.9358 0 1
92.3269 0 1
92.4424 0 1
92.558 0 1
92.6736 0 1
92.7893 0 1
92.905 0 1
93.0208 0 1
93.1366 0 1
93.2525 0 1
93.3685 0 1
93.4845 0 1
93.6005 14647 121.025
93.7167 15070 122.76
93.8328 14543 120.594
93.949 14117 118.815
94.0653 13212 114.943
94.1816 13081 114.372
94.2979 12595 112.227
94.4143 12207 110.485
94.5307 12109 110.041
94.6472 12075 109.886
94.7637 11978 109.444
94.8803 12091 109.959
94.9969 12732 112.836
95.1135 13262 115.161
95.2302 13943 118.08
95.3469 14179 119.076
95.4637 14441 120.171
95.5805 13913 117.953
95.6973 13401 115.763
95.8142 12997 114.004
95.9311 12694 112.668
96.048 11720 108.259
96.1649 10777 103.812
96.2819 10053 100.265
96.3989 9571 97.8315
96.516 9325 96.566
96.633 8661 93.0645
96.7501 8323 91.2305
96.8673 8115 90.0833
96.9844 7938 89.0955
97.1016 7974 89.2973
97.2188 8692 93.2309
97.336 9322 96.5505
97.4532 9689 98.4327
97.5704 9440 97.1597
97.6877 8657 93.043
97.805 7983 89.3476
97.9223 7616 87.2697
98.0396 7456 86.3481
98.1569 7541 86.8389
98.2743 7363 85.8079
98.3916 7346 85.7088
98.509 7452 86.325
98.6264 8057 89.7608
98.7438 8654 93.0269
98.8612 9462 97.2728
98.9786 10455 102.25
99.096 10735 103.61
99.2134 11087 105.295
99.3308 11409 106.813
99.4482 11376 106.658
99.5656 10635 103.126
99.6831 9685 98.4124
99.8005 9230 96.0729
99.9179 8866 94.1594
100.035 8663 93.0752
100.153 8217 90.6477
100.27 8069 89.8276
100.388 8075 89.861
100.505 8186 90.4765
100.622 8527 92.3418
100.74 9195 95.8906
100.857 10196 100.975
100.975 11870 108.95
101.092 12124 110.109
101.209 12111 110.05
101.327 12021 109.64
101.444 12369 111.216
101.561 12832 113.278
101.679 13555 116.426
101.796 14036 118.474
101.913 14445 120.187
102.03 15604 124.916
102.148 16470 128.335
102.265 19374 139.191
102.382 18432 135.765
102.499 20493 143.154
102.616 19256 138.766
102.733 17953 133.989
102.851 21511 146.666
102.968 23680 153.883
103.085 24444 156.346
103.202 23970 154.822
103.319 23870 154.499
103.436 23414 153.016
103.552 23118 152.046
103.669 22472 149.907
103.786 22586 150.286
103.903 22605 150.35
104.02 22390 149.633
104.137 22426 149.753
104.253 23329 152.738
104.37 22801 151
104.487 24769 157.382
104.603 24750 157.321
104.72 24283 155.83
104.836 23681 153.886
104.953 23139 152.115
105.069 23243 152.457
105.186 23366 152.859
105.302 23370 152.872
105.418 23525 153.379
105.535 23435 153.085
105.651 23762 154.149
105.767 24096 155.229
105.883 25077 158.357
105.999 24781 157.42
106.115 0 1
106.231 0 1
106.347 0 1
106.463 0 1
106.579 0 1
106.694 0 1
106.81 0 1
106.926 0 1
107.041 0 1
107.157 0 1
109.576 0 1
109.692 0 1
109.807 0 1
109.923 0 1
110.039 0 1
110.155 0 1
110.27 0 1
110.386 0 1
110.502 0 1
110.618 25697 160.303
110.735 26819 163.765
110.851 27629 166.22
110.967 28343 168.354
111.083 27644 166.265
111.199 24480 156.461
111.316 23044 151.803
111.432 26904 164.024
111.549 29483 171.706
111.665 29612 172.081
111.782 28965 170.191
111.898 28013 167.371
112.015 27474 165.753
112.132 26765 163.6
112.248 26181 161.805
112.365 25818 160.68
112.482 25436 159.487
112.599 25092 158.405
112.716 24883 157.743
112.832 24842 157.613
112.949 25011 158.149
113.066 25729 160.403
113.183 25437 159.49
113.3 25252 158.909
113.417 25376 159.298
113.534 25891 160.907
113.652 25864 160.823
113.769 26090 161.524
113.886 26559 162.969
114.003 26656 163.267
114.12 27305 165.242
114.238 28115 167.675
114.355 28605 169.13
114.472 30039 173.318
114.589 26477 162.718
114.707 25093 158.408
114.824 22065 148.543
114.942 24763 157.363
115.059 28795 169.691
115.176 29598 172.041
115.294 29855 172.786
115.411 29716 172.383
115.529 28341 168.348
115.646 27820 166.793
115.764 27395 165.514
115.881 26974 164.238
115.999 26510 162.819
116.116 25989 161.211
116.234 26265 162.065
116.351 25776 160.549
116.469 25778 160.555
116.586 25694 160.293
116.704 25780 160.562
116.821 26176 161.79
116.939 25851 160.782
117.056 26502 162.794
117.174 26880 163.951
117.291 27154 164.785
117.409 27929 167.12
117.526 27903 167.042
117.644 28631 169.207
117.761 28622 169.18
117.879 29410 171.493
117.996 29394 171.447
118.114 29221 170.942
118.231 27372 165.445
118.349 24433 156.311
118.466 23529 153.392
118.584 26409 162.508
118.701 29035 170.397
118.819 29729 172.421
118.936 29476 171.686
119.053 29054 170.452
119.171 28604 169.127
119.288 27730 166.523
119.405 26907 164.034
119.523 26375 162.404
119.64 25899 160.932
119.757 25163 158.628
119.875 24738 157.283
119.992 24012 154.958
120.109 23469 153.196
120.226 23252 152.486
120.343 23027 151.746
120.46 22674 150.579
120.578 22963 151.535
120.695 23315 152.693
120.812 24007 154.942
120.929 24272 155.795
121.046 25041 158.243
121.163 25260 158.934
121.279 25717 160.365
121.396 26156 161.728
121.513 26075 161.478
121.63 26055 161.416
121.747 26299 162.17
121.863 25789 160.59
121.98 23717 154.003
122.097 21517 146.687
122.213 20219 142.194
122.33 22221 149.067
122.446 24001 154.923
122.563 24232 155.666
122.679 24452 156.371
122.795 24006 154.939
122.912 23208 152.342
123.028 22616 150.386
123.144 21851 147.821
123.26 21324 146.027
123.377 0 1
123.493 0 1
123.609 0 1
123.725 0 1
123.84 0 1
123.956 0 1
124.072 0 1
124.188 0 1
124.303 0 1
124.419 0 1
126.852 0 1
126.968 0 1
127.083 0 1
127.199 0 1
127.315 0 1
127.431 0 1
127.547 0 1
127.663 0 1
127.779 0 1
127.895 0 1
128.011 0 1
128.127 0 1
128.243 0 1
128.359 19250 138.744
128.476 18530 136.125
128.592 18142 134.692
128.708 17308 131.56
128.825 16612 128.888
128.941 16041 126.653
129.058 15374 123.992
129.174 14568 120.698
129.291 14052 118.541
129.408 13417 115.832
129.524 14118 118.819
129.641 14574 120.723
129.758 15363 123.948
129.875 15954 126.309
129.992 16705 129.248
130.108 17363 131.769
130.225 17999 134.16
130.342 17826 133.514
130.459 17812 133.462
130.576 17605 132.684
130.693 16982 130.315
130.81 17285 131.472
130.928 17460 132.136
131.045 17195 131.13
131.162 17512 132.333
131.279 16814 129.669
131.396 17531 132.405
131.513 18135 134.666
131.631 18121 134.614
131.748 18085 134.48
131.865 17789 133.375
131.983 17595 132.646
132.1 16881 129.927
132.217 16344 127.844
132.335 15768 125.571
132.452 15026 122.581
132.57 14458 120.241
132.687 13330 115.456
132.804 13794 117.448
132.922 12916 113.649
133.039 13235 115.043
133.157 13484 116.121
133.274 14167 119.025
133.392 15018 122.548
133.509 15908 126.127
133.627 16792 129.584
133.744 17329 131.64
133.862 17439 132.057
133.979 17172 131.042
134.097 16466 128.32
134.214 15039 122.634
134.332 14582 120.756
134.449 15548 124.692
134.567 16757 129.449
134.684 17304 131.545
134.802 17016 130.445
134.919 17372 131.803
135.037 17706 133.064
135.154 17854 133.619
135.272 17828 133.522
135.389 18089 134.495
135.507 18030 134.276
135.624 17766 133.289
135.742 17365 131.776
135.859 16881 129.927
135.977 16567 128.713
136.094 15711 125.344
136.211 15145 123.065
136.329 14804 121.672
136.446 14343 119.762
136.564 14337 119.737
136.681 14525 120.52
136.798 14930 122.188
136.915 15559 124.736
137.033 15930 126.214
137.15 16790 129.576
137.267 17567 132.541
137.384 17895 133.772
137.502 17969 134.048
137.619 17451 132.102
137.736 16297 127.66
137.853 14648 121.029
137.97 14340 119.75
138.087 14986 122.417
138.204 17318 131.598
138.321 18183 134.844
138.438 18752 136.938
138.555 18969 137.728
138.672 19434 139.406
138.788 19386 139.234
138.905 19729 140.46
139.022 20006 141.443
139.139 19925 141.156
139.255 19783 140.652
139.372 19536 139.771
139.488 19297 138.914
139.605 18921 137.554
139.721 18239 135.052
139.838 17353 131.731
139.954 17300 131.529
140.071 16662 129.081
140.187 16946 130.177
140.303 16595 128.822
140.419 16870 129.885
140.535 16957 130.219
140.652 17470 132.174
140.768 0 1
140.884 0 1
141 0 1
141.115 0 1
141.231 0 1
141.347 0 1
141.463 0 1
141.578 0 1
141.694 0 1
144.104 0 1
144.219 0 1
144.335 0 1
144.45 0 1
144.566 0 1
144.682 0 1
144.798 0 1
144.914 0 1
145.03 0 1
145.146 17713 133.09
145.262 18194 134.885
145.378 18595 136.363
145.494 18687 136.7
145.61 18686 136.697
145.726 19353 139.115
145.842 19663 140.225
145.959 19777 140.631
146.075 19628 140.1
146.192 19341 139.072
146.308 18444 135.809
146.425 17531 132.405
146.541 17129 130.878
146.658 16661 129.077
146.774 16490 128.413
146.891 17429 132.019
147.008 19641 140.146
147.125 21655 147.156
147.241 21460 146.492
147.358 21409 146.318
147.475 21479 146.557
147.592 21514 146.677
147.709 21688 147.268
147.826 21987 148.28
147.943 21997 148.314
148.06 21469 146.523
148.177 21628 147.065
148.294 21149 145.427
148.411 20877 144.489
148.528 20344 142.632
148.645 20041 141.566
148.762 20251 142.306
148.88 20378 142.752
148.997 19992 141.393
149.114 20809 144.253
149.231 20729 143.976
149.349 21016 144.969
149.466 20472 143.08
149.583 20628 143.625
149.701 20214 142.176
149.818 20314 142.527
149.935 19545 139.803
150.053 19046 138.007
150.17 18339 135.422
150.287 18244 135.07
150.405 18055 134.369
150.522 18672 136.646
150.64 20123 141.856
150.757 21977 148.246
150.875 22657 150.522
150.992 22834 151.109
151.11 22611 150.37
151.227 22722 150.738
151.344 22494 149.98
151.462 22808 151.023
151.579 23044 151.803
151.697 22785 150.947
151.814 23118 152.046
151.932 22617 150.389
152.049 22548 150.16
152.167 22200 148.997
152.284 21979 148.253
152.402 21920 148.054
152.519 22029 148.422
152.636 21853 147.828
152.754 22137 148.785
152.871 22021 148.395
152.989 21875 147.902
153.106 21703 147.319
153.223 21356 146.137
153.341 21295 145.928
153.458 20498 143.171
153.575 20036 141.549
153.693 19600 140
153.81 19446 139.449
153.927 19456 139.485
154.044 19716 140.414
154.162 20030 141.527
154.279 21174 145.513
154.396 22692 150.639
154.513 24285 155.836
154.63 24483 156.47
154.747 24328 155.974
154.864 24618 156.901
154.981 24154 155.416
155.098 25017 158.168
155.215 24333 155.99
155.332 24541 156.656
155.449 24497 156.515
155.566 23749 154.107
155.683 24311 155.92
155.8 23712 153.987
155.917 23588 153.584
156.033 23949 154.755
156.15 0 1
156.267 0 1
156.383 0 1
156.5 0 1
156.617 0 1
156.733 0 1
156.85 0 1
156.966 0 1
157.082 0 1
157.199 0 1
157.315 0 1
157.431 0 1
157.547 0 1
157.664 0 1
157.78 0 1
157.896 0 1
158.012 0 1
158.128 0 1
158.244 0 1
158.359 0 1
158.475 0 1
158.591 0 1
158.706 0 1
