
6.15755 0 1
6.2731 0 1
6.3887 0 1
6.50437 0 1
6.62009 0 1
6.73587 0 1
6.8517 0 1
6.96759 0 1
7.08353 0 1
7.19952 0 1
7.31557 0 1
7.43166 0 1
7.54781 0 1
7.664 0 1
7.78024 0 1
7.89653 0 1
8.01286 0 1
8.12924 0 1
8.24567 0 1
8.36213 0 1
8.47864 0 1
8.59519 0 1
8.71178 0 1
8.82841 0 1
8.94508 0 1
9.06179 0 1
9.17853 0 1
9.29531 0 1
9.41212 0 1
9.52897 0 1
9.64584 0 1
9.76276 0 1
9.8797 0 1
9.99667 0 1
10.1137 0 1
10.2307 0 1
10.3478 0 1
10.4648 0 1
10.5819 0 1
10.6991 0 1
10.8162 0 1
10.9334 0 1
11.0506 0 1
11.1678 0 1
11.285 0 1
11.4023 0 1
11.5196 0 1
11.6369 0 1
11.7542 0 1
11.8715 0 1
11.9888 0 1
12.1062 0 1
12.2235 0 1
12.3409 0 1
12.4582 0 1
12.5756 0 1
12.693 0 1
12.8104 0 1
12.9278 0 1
13.0452 0 1
13.1626 0 1
13.28 0 1
13.3974 0 1
13.5149 0 1
13.6323 0 1
13.7497 0 1
13.8671 0 1
13.9845 0 1
14.1019 0 1
14.2193 0 1
14.3367 0 1
14.4541 0 1
14.5714 0 1
14.6888 0 1
14.8062 0 1
14.9235 0 1
15.0408 0 0
15.1581 0 0
15.2755 0 0
15.3927 0 0
15.51 0 0
15.6273 0 0
15.7445 0 0
15.8617 0 0
15.9789 0 0
16.0961 0 0
16.2132 0 0
16.3304 0 0
16.4475 0 0
16.5646 0 0
16.6816 0 0
16.7986 0 0
16.9156 0 0
17.0326 0 0
17.1496 0 0
17.2665 0 0
17.3833 0 0
17.5002 0 0
17.617 0 0
17.7338 0 0
17.8505 0 0
17.9672 0 0
18.0839 0 0
18.2005 0 0
18.3171 0 0
18.4337 0 0
18.5502 0 0
18.6666 0 0
18.7831 0 0
18.8994 0 0
19.0158 0 0
19.1321 0 0
19.2483 0 0
19.3645 0 0
19.4806 0 0
19.5967 0 0
19.7128 0 0
19.8288 0 0
19.9447 0 0
20.0606 0 1
20.1764 0 1
20.2922 0 1
20.4079 0 1
20.5236 0 1
20.6392 0 1
20.7548 0 1
20.8702 0 1
23.3078 0 1
23.4233 0 1
23.539 0 1
23.6547 0 1
23.7704 0 1
23.8862 0 1
24.0021 0 1
24.118 0 1
24.234 0 1
24.35 0 1
24.4661 1337 36.565
24.5822 1247 35.3129
24.6984 1309 36.1801
24.8146 1348 36.7151
24.9309 1232 35.0999
25.0472 1197 34.5977
25.1636 1246 35.2987
25.28 1327 36.428
25.3965 1342 36.6333
25.513 1264 35.5528
25.6296 1263 35.5387
25.7462 1400 37.4166
25.8628 1388 37.2559
25.9795 1324 36.3868
26.0962 1329 36.4555
26.213 1379 37.1349
26.3298 1326 36.4143
26.4466 1349 36.7287
26.5635 1226 35.0143
26.6804 1244 35.2704
26.7973 1279 35.7631
26.9143 1317 36.2905
27.0313 1296 36
27.1483 1412 37.5766
27.2653 1392 37.3095
27.3824 1399 37.4032
27.4996 1391 37.2961
27.6167 1448 38.0526
27.7339 1346 36.6879
27.8511 1421 37.6962
27.9683 1336 36.5513
28.0855 1330 36.4692
28.2028 1306 36.1386
28.3201 1184 34.4093
28.4374 1240 35.2136
28.5547 1205 34.7131
28.6721 1161 34.0735
28.7894 1191 34.5109
28.9068 1182 34.3802
29.0242 1133 33.6601
29.1416 1167 34.1614
29.259 1187 34.4529
29.3764 1208 34.7563
29.4939 1182 34.3802
29.6113 1209 34.7707
29.7288 1176 34.2929
29.8463 1235 35.1426
29.9638 1219 34.9142
30.0812 1169 34.1906
30.1987 1104 33.2265
30.3162 1154 33.9706
30.4337 1173 34.2491
30.5512 1269 35.623
30.6687 1199 34.6266
30.7862 1380 37.1484
30.9037 1293 35.9583
31.0212 1357 36.8375
31.1387 1341 36.6197
31.2562 1260 35.4965
31.3737 1275 35.7071
31.4912 1324 36.3868
31.6087 1285 35.8469
31.7262 1262 35.5246
31.8436 1207 34.7419
31.9611 1187 34.4529
32.0785 1210 34.7851
32.1959 1153 33.9559
32.3134 1163 34.1028
32.4308 1130 33.6155
32.5482 1142 33.7935
32.6655 1127 33.5708
32.7829 1162 34.0881
32.9002 1174 34.2637
33.0176 1134 33.6749
33.1349 1231 35.0856
33.2522 1165 34.1321
33.3694 1201 34.6554
33.4867 1203 34.6843
33.6039 1235 35.1426
33.7211 1075 32.7872
33.8383 1118 33.4365
33.9554 1178 34.322
34.0725 1126 33.5559
34.1896 1222 34.9571
34.3067 1280 35.7771
34.4237 1299 36.0416
34.5407 1278 35.7491
34.6577 1286 35.8608
34.7746 1285 35.8469
34.8915 1260 35.4965
35.0084 1339 36.5923
35.1252 1264 35.5528
35.242 1228 35.0428
35.3587 1253 35.3977
35.4755 1199 34.6266
35.5921 1115 33.3916
35.7088 1141 33.7787
35.8254 1062 32.5883
35.9419 1165 34.1321
36.0584 1052 32.4345
36.1749 1072 32.7414
36.2913 1114 33.3766
36.4077 1063 32.6037
36.524 1102 33.1964
36.6403 1106 33.2566
36.7565 1081 32.8786
36.8727 1112 33.3467
36.9889 1086 32.9545
37.1049 1113 33.3617
37.221 0 1
37.3369 0 1
37.4529 0 1
37.5687 0 1
37.6845 0 1
37.8003 0 1
37.916 0 1
38.0316 0 1
38.1472 0 1
40.5851 0 1
40.7008 0 1
40.8164 0 1
40.9322 0 1
41.048 0 1
41.1639 0 1
41.2798 0 1
41.3958 0 1
41.5118 0 1
41.6279 0 1
41.744 792 28.1425
41.8602 911 30.1828
41.9765 855 29.2404
42.0928 910 30.1662
42.2091 948 30.7896
42.3255 900 30
42.4419 921 30.348
42.5584 824 28.7054
42.675 864 29.3939
42.7915 794 28.178
42.9081 873 29.5466
43.0248 881 29.6816
43.1415 884 29.7321
43.2582 970 31.1448
43.375 930 30.4959
43.4918 928 30.4631
43.6087 924 30.3974
43.7256 912 30.1993
43.8425 849 29.1376
43.9595 891 29.8496
44.0765 867 29.4449
44.1935 875 29.5804
44.3106 768 27.7128
44.4277 778 27.8927
44.5448 705 26.5518
44.6619 692 26.3059
44.7791 676 26
44.8963 673 25.9422
45.0136 610 24.6982
45.1308 648 25.4558
45.2481 597 24.4336
45.3654 642 25.3377
45.4827 619 24.8797
45.6001 688 26.2298
45.7174 652 25.5343
45.8348 675 25.9808
45.9522 678 26.0384
46.0697 642 25.3377
46.1871 613 24.7588
46.3046 584 24.1661
46.422 616 24.8193
46.5395 673 25.9422
46.657 615 24.7992
46.7745 664 25.7682
46.892 636 25.219
47.0096 628 25.0599
47.1271 690 26.2679
47.2446 656 25.6125
47.3622 667 25.8263
47.4797 661 25.7099
47.5973 598 24.454
47.7149 628 25.0599
47.8324 582 24.1247
47.95 595 24.3926
48.0675 490 22.1359
48.1851 478 21.8632
48.3027 447 21.1424
48.4202 465 21.5639
48.5378 453 21.2838
48.6554 432 20.7846
48.7729 441 21
48.8904 465 21.5639
49.008 504 22.4499
49.1255 491 22.1585
49.243 482 21.9545
49.3605 507 22.5167
49.478 481 21.9317
49.5955 493 22.2036
49.713 483 21.9773
49.8304 442 21.0238
49.9479 465 21.5639
50.0653 547 23.388
50.1827 543 23.3024
50.3001 582 24.1247
50.4175 575 23.9792
50.5348 619 24.8797
50.6521 661 25.7099
50.7694 658 25.6515
50.8867 652 25.5343
51.004 655 25.593
51.1212 659 25.671
51.2384 670 25.8844
51.3556 640 25.2982
51.4727 661 25.7099
51.5899 598 24.454
51.707 616 24.8193
51.824 570 23.8747
51.9411 589 24.2693
52.0581 581 24.1039
52.175 623 24.96
52.2919 692 26.3059
52.4088 675 25.9808
52.5257 716 26.7582
52.6425 744 27.2764
52.7593 785 28.0179
52.876 804 28.3549
52.9927 819 28.6182
53.1094 772 27.7849
53.226 800 28.2843
53.3426 813 28.5132
53.4591 806 28.3901
53.5756 848 29.1204
53.692 896 29.9333
53.8084 932 30.5287
53.9248 947 30.7734
54.0411 1068 32.6803
54.1573 996 31.5595
54.2735 0 1
54.3896 0 1
54.5057 0 1
54.6217 0 1
54.7377 0 1
54.8537 0 1
54.9695 0 1
55.0853 0 1
55.2011 0 1
55.3168 0 1
55.4324 0 1
57.824 0 1
57.9396 0 1
58.0553 0 1
58.1711 0 1
58.2869 0 1
58.4028 0 1
58.5187 0 1
58.6347 0 1
58.7508 0 1
58.8669 0 1
58.983 1142 33.7935
59.0992 1111 33.3317
59.2155 1211 34.7994
59.3318 1212 34.8138
59.4482 1227 35.0286
59.5646 1190 34.4964
59.681 1230 35.0714
59.7975 1206 34.7275
59.9141 1157 34.0147
60.0306 1064 32.619
60.1473 997 31.5753
60.2639 932 30.5287
60.3807 848 29.1204
60.4974 898 29.9666
60.6142 822 28.6705
60.731 790 28.1069
60.8479 836 28.9137
60.9648 908 30.133
61.0818 860 29.3258
61.1987 934 30.5614
61.3158 978 31.273
61.4328 945 30.7409
61.5499 905 30.0832
61.667 961 31
61.7841 892 29.8664
61.9013 934 30.5614
62.0185 986 31.4006
62.1357 938 30.6268
62.253 1010 31.7805
62.3702 991 31.4802
62.4875 1092 33.0454
62.6049 1052 32.4345
62.7222 1070 32.7109
62.8396 1136 33.7046
62.9569 1131 33.6303
63.0743 1213 34.8281
63.1918 1154 33.9706
63.3092 1135 33.6898
63.4267 1124 33.5261
63.5441 1028 32.0624
63.6616 1004 31.686
63.7791 937 30.6105
63.8966 909 30.1496
64.0142 835 28.8964
64.1317 831 28.8271
64.2492 813 28.5132
64.3668 865 29.4109
64.4843 885 29.7489
64.6019 902 30.0333
64.7195 969 31.1288
64.837 992 31.496
64.9546 995 31.5436
65.0722 942 30.692
65.1898 996 31.5595
65.3074 974 31.209
65.4249 923 30.3809
65.5425 931 30.5123
65.6601 1028 32.0624
65.7777 940 30.6594
65.8952 1027 32.0468
66.0128 1059 32.5423
66.1304 1081 32.8786
66.2479 1220 34.9285
66.3655 1195 34.5688
66.483 1192 34.5254
66.6005 1195 34.5688
66.718 1243 35.2562
66.8355 1157 34.0147
66.953 1158 34.0294
67.0705 1077 32.8177
67.1879 1037 32.2025
67.3054 946 30.7571
67.4228 887 29.7825
67.5402 824 28.7054
67.6576 745 27.2947
67.7749 744 27.2764
67.8923 794 28.178
68.0096 770 27.7489
68.1269 855 29.2404
68.2442 960 30.9839
68.3614 945 30.7409
68.4787 961 31
68.5958 1070 32.7109
68.713 982 31.3369
68.8302 990 31.4643
68.9473 968 31.1127
69.0643 898 29.9666
69.1814 897 29.95
69.2984 896 29.9333
69.4154 921 30.348
69.5323 963 31.0322
69.6492 1046 32.3419
69.7661 1053 32.45
69.8829 1107 33.2716
69.9997 1178 34.322
70.1165 1201 34.6554
70.2332 1226 35.0143
70.3499 1220 34.9285
70.4665 1187 34.4529
70.5831 1197 34.5977
70.6996 1006 31.7175
70.8161 973 31.1929
70.9326 923 30.3809
71.049 831 28.8271
71.1653 803 28.3373
71.2817 708 26.6083
71.3979 692 26.3059
71.5141 695 26.3629
71.6303 729 27
71.7464 688 26.2298
71.8624 0 1
71.9784 0 1
72.0944 0 1
72.2102 0 1
72.3261 0 1
72.4418 0 1
72.5575 0 1
72.6732 0 1
75.1054 0 1
75.2209 0 1
75.3365 0 1
75.4521 0 1
75.5678 0 1
75.6835 0 1
75.7993 0 1
75.9151 0 1
76.031 0 1
76.147 970 31.1448
76.263 877 29.6142
76.3791 947 30.7734
76.4952 825 28.7228
76.6113 768 27.7128
76.7276 701 26.4764
76.8438 715 26.7395
76.9601 771 27.7669
77.0765 874 29.5635
77.1929 901 30.0167
77.3093 955 30.9031
77.4258 1098 33.1361
77.5423 1053 32.45
77.6589 1034 32.1559
77.7755 1043 32.2955
77.8921 972 31.1769
78.0088 886 29.7658
78.1256 849 29.1376
78.2423 908 30.133
78.3591 896 29.9333
78.4759 929 30.4795
78.5928 983 31.3528
78.7097 1032 32.1248
78.8266 1033 32.1403
78.9436 1109 33.3017
79.0606 1126 33.5559
79.1776 1108 33.2866
79.2946 1191 34.5109
79.4117 1136 33.7046
79.5288 1076 32.8024
79.6459 1116 33.4066
79.7631 942 30.692
79.8802 913 30.2159
79.9974 859 29.3087
80.1147 755 27.4773
80.2319 691 26.2869
80.3491 675 25.9808
80.4664 657 25.632
80.5837 685 26.1725
80.701 692 26.3059
80.8183 785 28.0179
80.9357 824 28.7054
81.053 859 29.3087
81.1704 846 29.0861
81.2877 869 29.4788
81.4051 930 30.4959
81.5225 815 28.5482
81.6399 815 28.5482
81.7573 767 27.6948
81.8747 788 28.0713
81.9922 806 28.3901
82.1096 759 27.55
82.227 813 28.5132
82.3444 949 30.8058
82.4619 938 30.6268
82.5793 980 31.305
82.6967 950 30.8221
82.8142 937 30.6105
82.9316 1023 31.9844
83.049 1006 31.7175
83.1664 905 30.0832
83.2838 850 29.1548
83.4012 795 28.1957
83.5186 730 27.0185
83.636 601 24.5153
83.7534 588 24.2487
83.8708 560 23.6643
83.9881 483 21.9773
84.1055 550 23.4521
84.2228 551 23.4734
84.3401 604 24.5764
84.4575 665 25.7876
84.5747 723 26.8887
84.692 786 28.0357
84.8093 777 27.8747
84.9265 795 28.1957
85.0437 767 27.6948
85.1609 736 27.1293
85.2781 682 26.1151
85.3952 755 27.4773
85.5123 719 26.8142
85.6294 751 27.4044
85.7465 838 28.9482
85.8636 845 29.0689
85.9806 982 31.3369
86.0976 954 30.8869
86.2145 972 31.1769
86.3315 1012 31.8119
86.4484 1025 32.0156
86.5652 1078 32.8329
86.682 1024 32
86.7988 1058 32.5269
86.9156 1014 31.8434
87.0323 892 29.8664
87.149 876 29.5973
87.2657 789 28.0891
87.3823 669 25.865
87.4988 645 25.3969
87.6154 674 25.9615
87.7318 719 26.8142
87.8483 724 26.9072
87.9647 820 28.6356
88.081 854 29.2233
88.1973 956 30.9192
88.3136 941 30.6757
88.4298 900 30
88.546 929 30.4795
88.6621 941 30.6757
88.7781 919 30.315
88.8942 0 1
89.0101 0 1
89.126 0 1
89.2419 0 1
89.3577 0 1
89.4734 0 1
89.5891 0 1
89.7047 0 1
89.8203 0 1
89.9358 0 1
92.3269 0 1
92.4424 0 1
92.558 0 1
92.6736 0 1
92.7893 0 1
92.905 0 1
93.0208 0 1
93.1366 0 1
93.2525 0 1
93.3685 0 1
93.4845 0 1
93.6005 1016 31.8748
93.7167 989 31.4484
93.8328 1001 31.6386
93.949 974 31.209
94.0653 926 30.4302
94.1816 963 31.0322
94.2979 884 29.7321
94.4143 907 30.1164
94.5307 827 28.7576
94.6472 938 30.6268
94.7637 901 30.0167
94.8803 1017 31.8904
94.9969 1036 32.187
95.1135 1166 34.1467
95.2302 1096 33.1059
95.3469 1202 34.6699
95.4637 1129 33.6006
95.5805 1144 33.8231
95.6973 1236 35.1568
95.8142 1219 34.9142
95.9311 1156 34
96.048 1075 32.7872
96.1649 1038 32.218
96.2819 954 30.8869
96.3989 900 30
96.516 790 28.1069
96.633 760 27.5681
96.7501 697 26.4008
96.8673 721 26.8514
96.9844 730 27.0185
97.1016 832 28.8444
97.2188 909 30.1496
97.336 1000 31.6228
97.4532 993 31.5119
97.5704 1005 31.7017
97.6877 914 30.2324
97.805 932 30.5287
97.9223 967 31.0966
98.0396 861 29.3428
98.1569 906 30.0998
98.2743 875 29.5804
98.3916 966 31.0805
98.509 972 31.1769
98.6264 1107 33.2716
98.7438 1067 32.665
98.8612 1233 35.1141
98.9786 1161 34.0735
99.096 1173 34.2491
99.2134 1227 35.0286
99.3308 1232 35.0999
99.4482 1194 34.5543
99.5656 1147 33.8674
99.6831 1116 33.4066
99.8005 1050 32.4037
99.9179 936 30.5941
100.035 892 29.8664
100.153 811 28.4781
100.27 770 27.7489
100.388 651 25.5147
100.505 788 28.0713
100.622 858 29.2916
100.74 884 29.7321
100.857 933 30.545
100.975 1046 32.3419
101.092 980 31.305
101.209 1015 31.8591
101.327 948 30.7896
101.444 980 31.305
101.561 925 30.4138
101.679 927 30.4467
101.796 979 31.289
101.913 991 31.4802
102.03 1021 31.9531
102.148 1047 32.3574
102.265 1111 33.3317
102.382 1198 34.6121
102.499 1213 34.8281
102.616 1265 35.5668
102.733 1269 35.623
102.851 1265 35.5668
102.968 1226 35.0143
103.085 1259 35.4824
103.202 1165 34.1321
103.319 1050 32.4037
103.436 1057 32.5115
103.552 918 30.2985
103.669 831 28.8271
103.786 762 27.6043
103.903 780 27.9285
104.02 810 28.4605
104.137 945 30.7409
104.253 1060 32.5576
104.37 1110 33.3167
104.487 1096 33.1059
104.603 1129 33.6006
104.72 1103 33.2114
104.836 1042 32.28
104.953 1066 32.6497
105.069 1068 32.6803
105.186 1104 33.2265
105.302 1080 32.8634
105.418 1043 32.2955
105.535 1115 33.3916
105.651 1254 35.4119
105.767 1328 36.4417
105.883 1337 36.565
105.999 1370 37.0135
106.115 0 1
106.231 0 1
106.347 0 1
106.463 0 1
106.579 0 1
106.694 0 1
106.81 0 1
106.926 0 1
107.041 0 1
107.157 0 1
109.576 0 1
109.692 0 1
109.807 0 1
109.923 0 1
110.039 0 1
110.155 0 1
110.27 0 1
110.386 0 1
110.502 0 1
110.618 1093 33.0606
110.735 1217 34.8855
110.851 1247 35.3129
110.967 1294 35.9722
111.083 1306 36.1386
111.199 1253 35.3977
111.316 1380 37.1484
111.432 1350 36.7423
111.549 1337 36.565
111.665 1241 35.2278
111.782 1226 35.0143
111.898 1138 33.7343
112.015 1079 32.8481
112.132 938 30.6268
112.248 879 29.6479
112.365 797 28.2312
112.482 742 27.2397
112.599 902 30.0333
112.716 930 30.4959
112.832 928 30.4631
112.949 997 31.5753
113.066 984 31.3688
113.183 1038 32.218
113.3 948 30.7896
113.417 961 31
113.534 952 30.8545
113.652 1007 31.7333
113.769 911 30.1828
113.886 962 31.0161
114.003 995 31.5436
114.12 1081 32.8786
114.238 1104 33.2265
114.355 1248 35.327
114.472 1180 34.3511
114.589 1320 36.3318
114.707 1302 36.0832
114.824 1280 35.7771
114.942 1334 36.524
115.059 1308 36.1663
115.176 1309 36.1801
115.294 1209 34.7707
115.411 1160 34.0588
115.529 1131 33.6303
115.646 986 31.4006
115.764 964 31.0483
115.881 910 30.1662
115.999 849 29.1376
116.116 963 31.0322
116.234 919 30.315
116.351 980 31.305
116.469 1074 32.7719
116.586 1027 32.0468
116.704 1014 31.8434
116.821 1009 31.7648
116.939 1034 32.1559
117.056 984 31.3688
117.174 1034 32.1559
117.291 1032 32.1248
117.409 1099 33.1512
117.526 1099 33.1512
117.644 1148 33.8821
117.761 1187 34.4529
117.879 1252 35.3836
117.996 1263 35.5387
118.114 1249 35.3412
118.231 1403 37.4566
118.349 1422 37.7094
118.466 1385 37.2156
118.584 1409 37.5366
118.701 1361 36.8917
118.819 1301 36.0694
118.936 1267 35.5949
119.053 1218 34.8999
119.171 1223 34.9714
119.288 1104 33.2265
119.405 975 31.225
119.523 905 30.0832
119.64 893 29.8831
119.757 902 30.0333
119.875 992 31.496
119.992 982 31.3369
120.109 1029 32.078
120.226 1064 32.619
120.343 1001 31.6386
120.46 1057 32.5115
120.578 1040 32.249
120.695 963 31.0322
120.812 1078 32.8329
120.929 1067 32.665
121.046 1105 33.2415
121.163 1126 33.5559
121.279 1120 33.4664
121.396 1322 36.3593
121.513 1313 36.2353
121.63 1263 35.5387
121.747 1336 36.5513
121.863 1333 36.5103
121.98 1348 36.7151
122.097 1438 37.921
122.213 1319 36.318
122.33 1315 36.2629
122.446 1269 35.623
122.563 1291 35.9305
122.679 1243 35.2562
122.795 1157 34.0147
122.912 1142 33.7935
123.028 1131 33.6303
123.144 939 30.6431
123.26 950 30.8221
123.377 0 1
123.493 0 1
123.609 0 1
123.725 0 1
123.84 0 1
123.956 0 1
124.072 0 1
124.188 0 1
124.303 0 1
124.419 0 1
126.852 0 1
126.968 0 1
127.083 0 1
127.199 0 1
127.315 0 1
127.431 0 1
127.547 0 1
127.663 0 1
127.779 0 1
127.895 0 1
128.011 0 1
128.127 0 1
128.243 0 1
128.359 1125 33.541
128.476 1063 32.6037
128.592 1044 32.311
128.708 1028 32.0624
128.825 1124 33.5261
128.941 1143 33.8083
129.058 1080 32.8634
129.174 1152 33.9411
129.291 1131 33.6303
129.408 1113 33.3617
129.524 1102 33.1964
129.641 1123 33.5112
129.758 1121 33.4813
129.875 1105 33.2415
129.992 1149 33.8969
130.108 1252 35.3836
130.225 1328 36.4417
130.342 1367 36.973
130.459 1310 36.1939
130.576 1402 37.4433
130.693 1369 37
130.81 1341 36.6197
130.928 1335 36.5377
131.045 1372 37.0405
131.162 1369 37
131.279 1346 36.6879
131.396 1372 37.0405
131.513 1361 36.8917
131.631 1327 36.428
131.748 1211 34.7994
131.865 1088 32.9848
131.983 1038 32.218
132.1 1014 31.8434
132.217 1003 31.6702
132.335 1068 32.6803
132.452 1199 34.6266
132.57 1107 33.2716
132.687 1043 32.2955
132.804 1108 33.2866
132.922 1086 32.9545
133.039 1014 31.8434
133.157 1114 33.3766
133.274 1188 34.4674
133.392 1099 33.1512
133.509 1099 33.1512
133.627 1218 34.8999
133.744 1251 35.3695
133.862 1312 36.2215
133.979 1263 35.5387
134.097 1361 36.8917
134.214 1332 36.4966
134.332 1347 36.7015
134.449 1368 36.9865
134.567 1367 36.973
134.684 1367 36.973
134.802 1327 36.428
134.919 1352 36.7696
135.037 1333 36.5103
135.154 1284 35.8329
135.272 1227 35.0286
135.389 1120 33.4664
135.507 1100 33.1662
135.624 1028 32.0624
135.742 1072 32.7414
135.859 1015 31.8591
135.977 1094 33.0757
136.094 1159 34.0441
136.211 1220 34.9285
136.329 1132 33.6452
136.446 1153 33.9559
136.564 1140 33.7639
136.681 1153 33.9559
136.798 1083 32.909
136.915 1035 32.1714
137.033 1188 34.4674
137.15 1146 33.8526
137.267 1209 34.7707
137.384 1267 35.5949
137.502 1291 35.9305
137.619 1312 36.2215
137.736 1263 35.5387
137.853 1220 34.9285
137.97 1257 35.4542
138.087 1355 36.8103
138.204 1303 36.0971
138.321 1250 35.3553
138.438 1394 37.3363
138.555 1325 36.4005
138.672 1361 36.8917
138.788 1268 35.609
138.905 1248 35.327
139.022 1257 35.4542
139.139 1215 34.8569
139.255 1050 32.4037
139.372 1053 32.45
139.488 1044 32.311
139.605 1125 33.541
139.721 1205 34.7131
139.838 1137 33.7194
139.954 1164 34.1174
140.071 1163 34.1028
140.187 1172 34.2345
140.303 1160 34.0588
140.419 1074 32.7719
140.535 1074 32.7719
140.652 1126 33.5559
140.768 0 1
140.884 0 1
141 0 1
141.115 0 1
141.231 0 1
141.347 0 1
141.463 0 1
141.578 0 1
141.694 0 1
144.104 0 1
144.219 0 1
144.335 0 1
144.45 0 1
144.566 0 1
144.682 0 1
144.798 0 1
144.914 0 1
145.03 0 1
145.146 817 28.5832
145.262 896 29.9333
145.378 873 29.5466
145.494 862 29.3598
145.61 899 29.9833
145.726 887 29.7825
145.842 930 30.4959
145.959 882 29.6985
146.075 861 29.3428
146.192 924 30.3974
146.308 959 30.9677
146.425 951 30.8383
146.541 1007 31.7333
146.658 991 31.4802
146.774 974 31.209
146.891 1020 31.9374
147.008 997 31.5753
147.125 993 31.5119
147.241 1006 31.7175
147.358 1049 32.3883
147.475 1039 32.2335
147.592 1102 33.1964
147.709 975 31.225
147.826 939 30.6431
147.943 885 29.7489
148.06 893 29.8831
148.177 873 29.5466
148.294 843 29.0345
148.411 851 29.1719
148.528 965 31.0644
148.645 994 31.5278
148.762 958 30.9516
148.88 977 31.257
148.997 953 30.8707
149.114 949 30.8058
149.231 915 30.249
149.349 901 30.0167
149.466 943 30.7083
149.583 962 31.0161
149.701 968 31.1127
149.818 896 29.9333
149.935 955 30.9031
150.053 966 31.0805
150.17 911 30.1828
150.287 1010 31.7805
150.405 1024 32
150.522 1003 31.6702
150.64 984 31.3688
150.757 997 31.5753
150.875 1048 32.3728
150.992 1031 32.1092
151.11 1097 33.121
151.227 1068 32.6803
151.344 1055 32.4808
151.462 1023 31.9844
151.579 1029 32.078
151.697 926 30.4302
151.814 932 30.5287
151.932 893 29.8831
152.049 910 30.1662
152.167 923 30.3809
152.284 911 30.1828
152.402 1060 32.5576
152.519 1001 31.6386
152.636 1055 32.4808
152.754 958 30.9516
152.871 942 30.692
152.989 1004 31.686
153.106 1030 32.0936
153.223 953 30.8707
153.341 1003 31.6702
153.458 1073 32.7567
153.575 1025 32.0156
153.693 983 31.3528
153.81 1076 32.8024
153.927 1083 32.909
154.044 1044 32.311
154.162 1083 32.909
154.279 1147 33.8674
154.396 1122 33.4963
154.513 1154 33.9706
154.63 1164 34.1174
154.747 1240 35.2136
154.864 1140 33.7639
154.981 1191 34.5109
155.098 1161 34.0735
155.215 1154 33.9706
155.332 1083 32.909
155.449 1007 31.7333
155.566 1006 31.7175
155.683 1045 32.3265
155.8 1098 33.1361
155.917 1143 33.8083
156.033 1097 33.121
156.15 0 1
156.267 0 1
156.383 0 1
156.5 0 1
156.617 0 1
156.733 0 1
156.85 0 1
156.966 0 1
157.082 0 1
157.199 0 1
157.315 0 1
157.431 0 1
157.547 0 1
157.664 0 1
157.78 0 1
157.896 0 1
158.012 0 1
158.128 0 1
158.244 0 1
158.359 0 1
158.475 0 1
158.591 0 1
158.706 0 1
