
6.15755 0 1
6.2731 0 1
6.3887 0 1
6.50437 0 1
6.62009 0 1
6.73587 0 1
6.8517 0 1
6.96759 0 1
7.08353 0 1
7.19952 0 1
7.31557 0 1
7.43166 0 1
7.54781 0 1
7.664 0 1
7.78024 0 1
7.89653 0 1
8.01286 0 1
8.12924 0 1
8.24567 0 1
8.36213 0 1
8.47864 0 1
8.59519 0 1
8.71178 0 1
8.82841 0 1
8.94508 0 1
9.06179 0 1
9.17853 0 1
9.29531 0 1
9.41212 0 1
9.52897 0 1
9.64584 0 1
9.76276 0 1
9.8797 0 1
9.99667 0 1
10.1137 0 1
10.2307 0 1
10.3478 0 1
10.4648 0 1
10.5819 0 1
10.6991 0 1
10.8162 0 1
10.9334 0 1
11.0506 0 1
11.1678 0 1
11.285 0 1
11.4023 0 1
11.5196 0 1
11.6369 0 1
11.7542 0 1
11.8715 0 1
11.9888 0 1
12.1062 0 1
12.2235 0 1
12.3409 0 1
12.4582 0 1
12.5756 0 1
12.693 0 1
12.8104 0 1
12.9278 0 1
13.0452 0 1
13.1626 0 1
13.28 0 1
13.3974 0 1
13.5149 0 1
13.6323 0 1
13.7497 0 1
13.8671 0 1
13.9845 0 1
14.1019 0 1
14.2193 0 1
14.3367 0 1
14.4541 0 1
14.5714 0 1
14.6888 0 1
14.8062 0 1
14.9235 0 1
15.0408 890 29.8329
15.1581 916 30.2655
15.2755 942 30.692
15.3927 930 30.4959
15.51 909 30.1496
15.6273 979 31.289
15.7445 903 30.05
15.8617 916 30.2655
15.9789 930 30.4959
16.0961 901 30.0167
16.2132 800 28.2843
16.3304 856 29.2575
16.4475 830 28.8097
16.5646 775 27.8388
16.6816 840 28.9828
16.7986 836 28.9137
16.9156 792 28.1425
17.0326 799 28.2666
17.1496 845 29.0689
17.2665 831 28.8271
17.3833 834 28.8791
17.5002 802 28.3196
17.617 837 28.931
17.7338 785 28.0179
17.8505 870 29.4958
17.9672 832 28.8444
18.0839 818 28.6007
18.2005 811 28.4781
18.3171 713 26.7021
18.4337 753 27.4408
18.5502 755 27.4773
18.6666 775 27.8388
18.7831 782 27.9643
18.8994 810 28.4605
19.0158 771 27.7669
19.1321 778 27.8927
19.2483 690 26.2679
19.3645 760 27.5681
19.4806 689 26.2488
19.5967 633 25.1595
19.7128 580 24.0832
19.8288 502 22.4054
19.9447 431 20.7605
20.0606 0 1
20.1764 0 1
20.2922 0 1
20.4079 0 1
20.5236 0 1
20.6392 0 1
20.7548 0 1
20.8702 0 1
23.3078 0 1
23.4233 0 1
23.539 0 1
23.6547 0 1
23.7704 0 1
23.8862 0 1
24.0021 0 1
24.118 0 1
24.234 0 1
24.35 0 1
24.4661 347 18.6279
24.5822 390 19.7484
24.6984 378 19.4422
24.8146 484 22
24.9309 592 24.3311
25.0472 644 25.3772
25.1636 665 25.7876
25.28 716 26.7582
25.3965 801 28.3019
25.513 771 27.7669
25.6296 757 27.5136
25.7462 864 29.3939
25.8628 882 29.6985
25.9795 896 29.9333
26.0962 853 29.2062
26.213 815 28.5482
26.3298 795 28.1957
26.4466 812 28.4956
26.5635 751 27.4044
26.6804 743 27.258
26.7973 706 26.5707
26.9143 656 25.6125
27.0313 594 24.3721
27.1483 663 25.7488
27.2653 656 25.6125
27.3824 684 26.1534
27.4996 744 27.2764
27.6167 669 25.865
27.7339 771 27.7669
27.8511 740 27.2029
27.9683 708 26.6083
28.0855 690 26.2679
28.2028 737 27.1477
28.3201 676 26
28.4374 683 26.1343
28.5547 676 26
28.6721 725 26.9258
28.7894 691 26.2869
28.9068 716 26.7582
29.0242 697 26.4008
29.1416 688 26.2298
29.259 749 27.3679
29.3764 715 26.7395
29.4939 749 27.3679
29.6113 678 26.0384
29.7288 739 27.1846
29.8463 667 25.8263
29.9638 709 26.6271
30.0812 686 26.1916
30.1987 635 25.1992
30.3162 635 25.1992
30.4337 623 24.96
30.5512 593 24.3516
30.6687 673 25.9422
30.7862 691 26.2869
30.9037 655 25.593
31.0212 770 27.7489
31.1387 760 27.5681
31.2562 744 27.2764
31.3737 760 27.5681
31.4912 786 28.0357
31.6087 753 27.4408
31.7262 750 27.3861
31.8436 706 26.5707
31.9611 687 26.2107
32.0785 626 25.02
32.1959 703 26.5141
32.3134 682 26.1151
32.4308 684 26.1534
32.5482 660 25.6905
32.6655 674 25.9615
32.7829 649 25.4755
32.9002 658 25.6515
33.0176 649 25.4755
33.1349 659 25.671
33.2522 642 25.3377
33.3694 692 26.3059
33.4867 679 26.0576
33.6039 680 26.0768
33.7211 645 25.3969
33.8383 633 25.1595
33.9554 638 25.2587
34.0725 604 24.5764
34.1896 596 24.4131
34.3067 641 25.318
34.4237 642 25.3377
34.5407 712 26.6833
34.6577 680 26.0768
34.7746 710 26.6458
34.8915 656 25.6125
35.0084 693 26.3249
35.1252 704 26.533
35.242 673 25.9422
35.3587 634 25.1794
35.4755 648 25.4558
35.5921 613 24.7588
35.7088 573 23.9374
35.8254 568 23.8328
35.9419 577 24.0208
36.0584 617 24.8395
36.1749 643 25.3574
36.2913 616 24.8193
36.4077 617 24.8395
36.524 546 23.3666
36.6403 524 22.891
36.7565 496 22.2711
36.8727 502 22.4054
36.9889 443 21.0476
37.1049 442 21.0238
37.221 0 1
37.3369 0 1
37.4529 0 1
37.5687 0 1
37.6845 0 1
37.8003 0 1
37.916 0 1
38.0316 0 1
38.1472 0 1
40.5851 0 1
40.7008 0 1
40.8164 0 1
40.9322 0 1
41.048 0 1
41.1639 0 1
41.2798 0 1
41.3958 0 1
41.5118 0 1
41.6279 0 1
41.744 257 16.0312
41.8602 301 17.3494
41.9765 446 21.1187
42.0928 434 20.8327
42.2091 445 21.095
42.3255 505 22.4722
42.4419 450 21.2132
42.5584 492 22.1811
42.675 500 22.3607
42.7915 471 21.7025
42.9081 463 21.5174
43.0248 478 21.8632
43.1415 469 21.6564
43.2582 525 22.9129
43.375 533 23.0868
43.4918 466 21.587
43.6087 514 22.6716
43.7256 488 22.0907
43.8425 462 21.4942
43.9595 469 21.6564
44.0765 485 22.0227
44.1935 464 21.5407
44.3106 461 21.4709
44.4277 433 20.8087
44.5448 426 20.6398
44.6619 467 21.6102
44.7791 465 21.5639
44.8963 511 22.6053
45.0136 526 22.9347
45.1308 519 22.7816
45.2481 499 22.3383
45.3654 550 23.4521
45.4827 474 21.7715
45.6001 475 21.7945
45.7174 522 22.8473
45.8348 535 23.1301
45.9522 539 23.2164
46.0697 488 22.0907
46.1871 489 22.1133
46.3046 463 21.5174
46.422 447 21.1424
46.5395 407 20.1742
46.657 441 21
46.7745 450 21.2132
46.892 503 22.4277
47.0096 481 21.9317
47.1271 489 22.1133
47.2446 485 22.0227
47.3622 465 21.5639
47.4797 520 22.8035
47.5973 470 21.6795
47.7149 459 21.4243
47.8324 446 21.1187
47.95 428 20.6882
48.0675 433 20.8087
48.1851 470 21.6795
48.3027 456 21.3542
48.4202 501 22.383
48.5378 467 21.6102
48.6554 446 21.1187
48.7729 465 21.5639
48.8904 517 22.7376
49.008 515 22.6936
49.1255 493 22.2036
49.243 475 21.7945
49.3605 483 21.9773
49.478 492 22.1811
49.5955 459 21.4243
49.713 433 20.8087
49.8304 365 19.105
49.9479 394 19.8494
50.0653 356 18.868
50.1827 405 20.1246
50.3001 432 20.7846
50.4175 429 20.7123
50.5348 446 21.1187
50.6521 425 20.6155
50.7694 449 21.1896
50.8867 456 21.3542
51.004 454 21.3073
51.1212 443 21.0476
51.2384 410 20.2485
51.3556 414 20.347
51.4727 430 20.7364
51.5899 477 21.8403
51.707 412 20.2978
51.824 467 21.6102
51.9411 420 20.4939
52.0581 485 22.0227
52.175 462 21.4942
52.2919 487 22.0681
52.4088 430 20.7364
52.5257 450 21.2132
52.6425 436 20.8806
52.7593 448 21.166
52.876 503 22.4277
52.9927 448 21.166
53.1094 420 20.4939
53.226 426 20.6398
53.3426 424 20.5913
53.4591 399 19.975
53.5756 363 19.0526
53.692 373 19.3132
53.8084 343 18.5203
53.9248 390 19.7484
54.0411 366 19.1311
54.1573 298 17.2627
54.2735 0 1
54.3896 0 1
54.5057 0 1
54.6217 0 1
54.7377 0 1
54.8537 0 1
54.9695 0 1
55.0853 0 1
55.2011 0 1
55.3168 0 1
55.4324 0 1
57.824 0 1
57.9396 0 1
58.0553 0 1
58.1711 0 1
58.2869 0 1
58.4028 0 1
58.5187 0 1
58.6347 0 1
58.7508 0 1
58.8669 0 1
58.983 449 21.1896
59.0992 532 23.0651
59.2155 684 26.1534
59.3318 729 27
59.4482 731 27.037
59.5646 821 28.6531
59.681 855 29.2404
59.7975 744 27.2764
59.9141 803 28.3373
60.0306 825 28.7228
60.1473 904 30.0666
60.2639 900 30
60.3807 933 30.545
60.4974 996 31.5595
60.6142 967 31.0966
60.731 914 30.2324
60.8479 962 31.0161
60.9648 889 29.8161
61.0818 924 30.3974
61.1987 865 29.4109
61.3158 905 30.0832
61.4328 809 28.4429
61.5499 844 29.0517
61.667 799 28.2666
61.7841 745 27.2947
61.9013 703 26.5141
62.0185 711 26.6646
62.1357 641 25.318
62.253 658 25.6515
62.3702 629 25.0799
62.4875 635 25.1992
62.6049 660 25.6905
62.7222 639 25.2784
62.8396 618 24.8596
62.9569 599 24.4745
63.0743 609 24.6779
63.1918 620 24.8998
63.3092 558 23.622
63.4267 532 23.0651
63.5441 579 24.0624
63.6616 576 24
63.7791 572 23.9165
63.8966 504 22.4499
64.0142 576 24
64.1317 549 23.4307
64.2492 523 22.8692
64.3668 549 23.4307
64.4843 541 23.2594
64.6019 549 23.4307
64.7195 557 23.6008
64.837 515 22.6936
64.9546 534 23.1084
65.0722 507 22.5167
65.1898 533 23.0868
65.3074 540 23.2379
65.4249 482 21.9545
65.5425 485 22.0227
65.6601 466 21.587
65.7777 447 21.1424
65.8952 471 21.7025
66.0128 518 22.7596
66.1304 476 21.8174
66.2479 578 24.0416
66.3655 537 23.1733
66.483 503 22.4277
66.6005 559 23.6432
66.718 532 23.0651
66.8355 534 23.1084
66.953 492 22.1811
67.0705 532 23.0651
67.1879 521 22.8254
67.3054 530 23.0217
67.4228 538 23.1948
67.5402 529 23
67.6576 527 22.9565
67.7749 534 23.1084
67.8923 520 22.8035
68.0096 549 23.4307
68.1269 476 21.8174
68.2442 512 22.6274
68.3614 504 22.4499
68.4787 514 22.6716
68.5958 525 22.9129
68.713 460 21.4476
68.8302 489 22.1133
68.9473 484 22
69.0643 513 22.6495
69.1814 476 21.8174
69.2984 471 21.7025
69.4154 449 21.1896
69.5323 487 22.0681
69.6492 466 21.587
69.7661 489 22.1133
69.8829 533 23.0868
69.9997 546 23.3666
70.1165 514 22.6716
70.2332 480 21.9089
70.3499 479 21.8861
70.4665 424 20.5913
70.5831 414 20.347
70.6996 403 20.0749
70.8161 390 19.7484
70.9326 351 18.735
71.049 309 17.5784
71.1653 340 18.4391
71.2817 293 17.1172
71.3979 252 15.8745
71.5141 238 15.4272
71.6303 253 15.906
71.7464 192 13.8564
71.8624 0 1
71.9784 0 1
72.0944 0 1
72.2102 0 1
72.3261 0 1
72.4418 0 1
72.5575 0 1
72.6732 0 1
75.1054 0 1
75.2209 0 1
75.3365 0 1
75.4521 0 1
75.5678 0 1
75.6835 0 1
75.7993 0 1
75.9151 0 1
76.031 0 1
76.147 313 17.6918
76.263 338 18.3848
76.3791 352 18.7617
76.4952 419 20.4695
76.6113 428 20.6882
76.7276 394 19.8494
76.8438 465 21.5639
76.9601 429 20.7123
77.0765 444 21.0713
77.1929 443 21.0476
77.3093 462 21.4942
77.4258 471 21.7025
77.5423 442 21.0238
77.6589 435 20.8567
77.7755 404 20.0998
77.8921 453 21.2838
78.0088 426 20.6398
78.1256 360 18.9737
78.2423 424 20.5913
78.3591 403 20.0749
78.4759 430 20.7364
78.5928 406 20.1494
78.7097 399 19.975
78.8266 392 19.799
78.9436 474 21.7715
79.0606 452 21.2603
79.1776 457 21.3776
79.2946 444 21.0713
79.4117 462 21.4942
79.5288 427 20.664
79.6459 420 20.4939
79.7631 423 20.567
79.8802 494 22.2261
79.9974 448 21.166
80.1147 502 22.4054
80.2319 446 21.1187
80.3491 473 21.7486
80.4664 482 21.9545
80.5837 479 21.8861
80.701 474 21.7715
80.8183 482 21.9545
80.9357 484 22
81.053 497 22.2935
81.1704 471 21.7025
81.2877 506 22.4944
81.4051 459 21.4243
81.5225 472 21.7256
81.6399 458 21.4009
81.7573 450 21.2132
81.8747 418 20.445
81.9922 425 20.6155
82.1096 412 20.2978
82.227 428 20.6882
82.3444 452 21.2603
82.4619 467 21.6102
82.5793 450 21.2132
82.6967 490 22.1359
82.8142 495 22.2486
82.9316 474 21.7715
83.049 466 21.587
83.1664 457 21.3776
83.2838 462 21.4942
83.4012 430 20.7364
83.5186 449 21.1896
83.636 480 21.9089
83.7534 509 22.561
83.8708 515 22.6936
83.9881 553 23.516
84.1055 532 23.0651
84.2228 491 22.1585
84.3401 477 21.8403
84.4575 503 22.4277
84.5747 516 22.7156
84.692 500 22.3607
84.8093 474 21.7715
84.9265 453 21.2838
85.0437 498 22.3159
85.1609 454 21.3073
85.2781 530 23.0217
85.3952 482 21.9545
85.5123 442 21.0238
85.6294 469 21.6564
85.7465 444 21.0713
85.8636 486 22.0454
85.9806 443 21.0476
86.0976 524 22.891
86.2145 520 22.8035
86.3315 565 23.7697
86.4484 494 22.2261
86.5652 512 22.6274
86.682 500 22.3607
86.7988 528 22.9783
86.9156 476 21.8174
87.0323 525 22.9129
87.149 471 21.7025
87.2657 540 23.2379
87.3823 531 23.0434
87.4988 522 22.8473
87.6154 472 21.7256
87.7318 467 21.6102
87.8483 457 21.3776
87.9647 423 20.567
88.081 411 20.2731
88.1973 374 19.3391
88.3136 340 18.4391
88.4298 335 18.303
88.546 281 16.7631
88.6621 290 17.0294
88.7781 299 17.2916
88.8942 0 1
89.0101 0 1
89.126 0 1
89.2419 0 1
89.3577 0 1
89.4734 0 1
89.5891 0 1
89.7047 0 1
89.8203 0 1
89.9358 0 1
92.3269 0 1
92.4424 0 1
92.558 0 1
92.6736 0 1
92.7893 0 1
92.905 0 1
93.0208 0 1
93.1366 0 1
93.2525 0 1
93.3685 0 1
93.4845 0 1
93.6005 412 20.2978
93.7167 469 21.6564
93.8328 473 21.7486
93.949 510 22.5832
94.0653 561 23.6854
94.1816 509 22.561
94.2979 549 23.4307
94.4143 512 22.6274
94.5307 529 23
94.6472 518 22.7596
94.7637 470 21.6795
94.8803 511 22.6053
94.9969 480 21.9089
95.1135 526 22.9347
95.2302 518 22.7596
95.3469 523 22.8692
95.4637 493 22.2036
95.5805 552 23.4947
95.6973 549 23.4307
95.8142 571 23.8956
95.9311 489 22.1133
96.048 531 23.0434
96.1649 534 23.1084
96.2819 548 23.4094
96.3989 525 22.9129
96.516 541 23.2594
96.633 545 23.3452
96.7501 543 23.3024
96.8673 582 24.1247
96.9844 582 24.1247
97.1016 582 24.1247
97.2188 547 23.388
97.336 550 23.4521
97.4532 507 22.5167
97.5704 512 22.6274
97.6877 561 23.6854
97.805 538 23.1948
97.9223 561 23.6854
98.0396 562 23.7065
98.1569 525 22.9129
98.2743 481 21.9317
98.3916 527 22.9565
98.509 539 23.2164
98.6264 521 22.8254
98.7438 492 22.1811
98.8612 509 22.561
98.9786 525 22.9129
99.096 589 24.2693
99.2134 523 22.8692
99.3308 553 23.516
99.4482 590 24.2899
99.5656 560 23.6643
99.6831 561 23.6854
99.8005 532 23.0651
99.9179 518 22.7596
100.035 551 23.4734
100.153 587 24.2281
100.27 603 24.5561
100.388 577 24.0208
100.505 568 23.8328
100.622 564 23.7487
100.74 581 24.1039
100.857 562 23.7065
100.975 577 24.0208
101.092 584 24.1661
101.209 553 23.516
101.327 540 23.2379
101.444 555 23.5584
101.561 552 23.4947
101.679 563 23.7276
101.796 577 24.0208
101.913 534 23.1084
102.03 540 23.2379
102.148 542 23.2809
102.265 553 23.516
102.382 601 24.5153
102.499 564 23.7487
102.616 584 24.1661
102.733 590 24.2899
102.851 627 25.04
102.968 668 25.8457
103.085 600 24.4949
103.202 613 24.7588
103.319 575 23.9792
103.436 584 24.1661
103.552 612 24.7386
103.669 575 23.9792
103.786 634 25.1794
103.903 631 25.1197
104.02 629 25.0799
104.137 571 23.8956
104.253 628 25.0599
104.37 547 23.388
104.487 612 24.7386
104.603 587 24.2281
104.72 576 24
104.836 538 23.1948
104.953 587 24.2281
105.069 524 22.891
105.186 485 22.0227
105.302 465 21.5639
105.418 449 21.1896
105.535 389 19.7231
105.651 401 20.025
105.767 382 19.5448
105.883 323 17.9722
105.999 246 15.6844
106.115 0 1
106.231 0 1
106.347 0 1
106.463 0 1
106.579 0 1
106.694 0 1
106.81 0 1
106.926 0 1
107.041 0 1
107.157 0 1
109.576 0 1
109.692 0 1
109.807 0 1
109.923 0 1
110.039 0 1
110.155 0 1
110.27 0 1
110.386 0 1
110.502 0 1
110.618 310 17.6068
110.735 317 17.8045
110.851 399 19.975
110.967 407 20.1742
111.083 429 20.7123
111.199 467 21.6102
111.316 494 22.2261
111.432 538 23.1948
111.549 554 23.5372
111.665 543 23.3024
111.782 562 23.7065
111.898 571 23.8956
112.015 506 22.4944
112.132 517 22.7376
112.248 499 22.3383
112.365 553 23.516
112.482 551 23.4734
112.599 526 22.9347
112.716 524 22.891
112.832 584 24.1661
112.949 525 22.9129
113.066 505 22.4722
113.183 482 21.9545
113.3 513 22.6495
113.417 522 22.8473
113.534 526 22.9347
113.652 482 21.9545
113.769 510 22.5832
113.886 529 23
114.003 513 22.6495
114.12 488 22.0907
114.238 439 20.9523
114.355 481 21.9317
114.472 497 22.2935
114.589 422 20.5426
114.707 460 21.4476
114.824 505 22.4722
114.942 527 22.9565
115.059 442 21.0238
115.176 551 23.4734
115.294 486 22.0454
115.411 520 22.8035
115.529 506 22.4944
115.646 430 20.7364
115.764 521 22.8254
115.881 479 21.8861
115.999 485 22.0227
116.116 469 21.6564
116.234 451 21.2368
116.351 495 22.2486
116.469 435 20.8567
116.586 465 21.5639
116.704 423 20.567
116.821 458 21.4009
116.939 404 20.0998
117.056 460 21.4476
117.174 442 21.0238
117.291 466 21.587
117.409 465 21.5639
117.526 433 20.8087
117.644 432 20.7846
117.761 417 20.4206
117.879 407 20.1742
117.996 385 19.6214
118.114 425 20.6155
118.231 425 20.6155
118.349 443 21.0476
118.466 511 22.6053
118.584 418 20.445
118.701 465 21.5639
118.819 496 22.2711
118.936 493 22.2036
119.053 445 21.095
119.171 450 21.2132
119.288 436 20.8806
119.405 433 20.8087
119.523 422 20.5426
119.64 421 20.5183
119.757 451 21.2368
119.875 455 21.3307
119.992 420 20.4939
120.109 431 20.7605
120.226 452 21.2603
120.343 403 20.0749
120.46 409 20.2237
120.578 443 21.0476
120.695 429 20.7123
120.812 413 20.3224
120.929 433 20.8087
121.046 432 20.7846
121.163 420 20.4939
121.279 445 21.095
121.396 394 19.8494
121.513 364 19.0788
121.63 375 19.3649
121.747 359 18.9473
121.863 338 18.3848
121.98 370 19.2354
122.097 346 18.6011
122.213 378 19.4422
122.33 318 17.8326
122.446 285 16.8819
122.563 321 17.9165
122.679 311 17.6352
122.795 260 16.1245
122.912 305 17.4642
123.028 261 16.1555
123.144 216 14.6969
123.26 211 14.5258
123.377 0 1
123.493 0 1
123.609 0 1
123.725 0 1
123.84 0 1
123.956 0 1
124.072 0 1
124.188 0 1
124.303 0 1
124.419 0 1
126.852 0 1
126.968 0 1
127.083 0 1
127.199 0 1
127.315 0 1
127.431 0 1
127.547 0 1
127.663 0 1
127.779 0 1
127.895 0 1
128.011 0 1
128.127 0 1
128.243 0 1
128.359 456 21.3542
128.476 443 21.0476
128.592 481 21.9317
128.708 469 21.6564
128.825 494 22.2261
128.941 478 21.8632
129.058 485 22.0227
129.174 482 21.9545
129.291 442 21.0238
129.408 476 21.8174
129.524 468 21.6333
129.641 456 21.3542
129.758 488 22.0907
129.875 504 22.4499
129.992 518 22.7596
130.108 489 22.1133
130.225 545 23.3452
130.342 504 22.4499
130.459 520 22.8035
130.576 528 22.9783
130.693 477 21.8403
130.81 538 23.1948
130.928 589 24.2693
131.045 637 25.2389
131.162 650 25.4951
131.279 689 26.2488
131.396 789 28.0891
131.513 895 29.9166
131.631 909 30.1496
131.748 959 30.9677
131.865 974 31.209
131.983 1057 32.5115
132.1 1127 33.5708
132.217 1155 33.9853
132.335 1173 34.2491
132.452 1253 35.3977
132.57 1241 35.2278
132.687 1378 37.1214
132.804 1371 37.027
132.922 1420 37.6829
133.039 1455 38.1445
133.157 1469 38.3275
133.274 1484 38.5227
133.392 1591 39.8873
133.509 1533 39.1535
133.627 1568 39.598
133.744 1524 39.0384
133.862 1539 39.2301
133.979 1468 38.3145
134.097 1406 37.4967
134.214 1332 36.4966
134.332 1320 36.3318
134.449 1351 36.756
134.567 1453 38.1182
134.684 1647 40.5832
134.802 1736 41.6653
134.919 1886 43.4281
135.037 2108 45.913
135.154 2253 47.4658
135.272 2326 48.2286
135.389 2436 49.3559
135.507 2650 51.4782
135.624 2895 53.8052
135.742 3190 56.4801
135.859 3609 60.075
135.977 3856 62.0967
136.094 4229 65.0308
136.211 4410 66.4078
136.329 4521 67.2384
136.446 4762 69.0072
136.564 4969 70.4911
136.681 5204 72.1388
136.798 5368 73.2666
136.915 5410 73.5527
137.033 5620 74.9667
137.15 5930 77.0065
137.267 6054 77.8075
137.384 6329 79.555
137.502 6130 78.2943
137.619 5678 75.3525
137.736 4632 68.0588
137.853 2758 52.5167
137.97 2625 51.2348
138.087 4058 63.7024
138.204 5805 76.1906
138.321 6416 80.0999
138.438 6453 80.3306
138.555 6736 82.0731
138.672 6846 82.7406
138.788 6768 82.2679
138.905 6657 81.5904
139.022 6184 78.6384
139.139 5541 74.4379
139.255 5316 72.9109
139.372 5005 70.746
139.488 4867 69.7639
139.605 5029 70.9154
139.721 4947 70.3349
139.838 5048 71.0493
139.954 5033 70.9436
140.071 5008 70.7672
140.187 5070 71.2039
140.303 5063 71.1548
140.419 5119 71.5472
140.535 5226 72.2911
140.652 5191 72.0486
140.768 0 1
140.884 0 1
141 0 1
141.115 0 1
141.231 0 1
141.347 0 1
141.463 0 1
141.578 0 1
141.694 0 1
144.104 0 1
144.219 0 1
144.335 0 1
144.45 0 1
144.566 0 1
144.682 0 1
144.798 0 1
144.914 0 1
145.03 0 1
145.146 18612 136.426
145.262 22946 151.479
145.378 25704 160.325
145.494 27317 165.279
145.61 28725 169.485
145.726 29482 171.703
145.842 30172 173.701
145.959 31101 176.355
146.075 31090 176.324
146.192 29821 172.688
146.308 27839 166.85
146.425 24949 157.953
146.541 23267 152.535
146.658 22423 149.743
146.774 24221 155.631
146.891 27514 165.873
147.008 31631 177.851
147.125 33981 184.339
147.241 36025 189.803
147.358 37658 194.057
147.475 39405 198.507
147.592 40315 200.786
147.709 40631 201.571
147.826 41134 202.815
147.943 40387 200.965
148.06 39445 198.608
148.177 38961 197.385
148.294 37995 194.923
148.411 37290 193.106
148.528 36248 190.389
148.645 35051 187.219
148.762 34437 185.572
148.88 33182 182.159
148.997 33212 182.242
149.114 31759 178.211
149.231 31094 176.335
149.349 29943 173.04
149.466 27618 166.187
149.583 24746 157.309
149.701 21894 147.966
149.818 19101 138.206
149.935 17991 134.131
150.053 18751 136.934
150.17 20421 142.902
150.287 21923 148.064
150.405 22255 149.181
150.522 21515 146.68
150.64 19934 141.188
150.757 17717 133.105
150.875 16753 129.433
150.992 17456 132.121
151.11 17088 130.721
151.227 16556 128.67
151.344 15452 124.306
151.462 14397 119.987
151.579 13387 115.702
151.697 12892 113.543
151.814 12262 110.734
151.932 11725 108.282
152.049 11262 106.123
152.167 10699 103.436
152.284 10156 100.777
152.402 9635 98.158
152.519 9466 97.2934
152.636 9123 95.5144
152.754 9025 95
152.871 8712 93.3381
152.989 7671 87.5842
153.106 6810 82.5227
153.223 5769 75.9539
153.341 4928 70.1997
153.458 4488 66.9925
153.575 4705 68.593
153.693 5464 73.9189
153.81 6005 77.4919
153.927 6011 77.5306
154.044 5524 74.3236
154.162 4864 69.7424
154.279 4974 70.5266
154.396 5307 72.8492
154.513 5426 73.6614
154.63 5242 72.4017
154.747 5075 71.239
154.864 4934 70.2424
154.981 4674 68.3667
155.098 4477 66.9104
155.215 4293 65.521
155.332 4299 65.5668
155.449 4048 63.6239
155.566 3923 62.6339
155.683 3773 61.4248
155.8 3677 60.6383
155.917 3507 59.2199
156.033 3438 58.6345
156.15 0 1
156.267 0 1
156.383 0 1
156.5 0 1
156.617 0 1
156.733 0 1
156.85 0 1
156.966 0 1
157.082 0 1
157.199 0 1
157.315 0 1
157.431 0 1
157.547 0 1
157.664 0 1
157.78 0 1
157.896 0 1
158.012 0 1
158.128 0 1
158.244 0 1
158.359 0 1
158.475 0 1
158.591 0 1
158.706 0 1
