
6.15755 0 1
6.2731 0 1
6.3887 0 1
6.50437 0 1
6.62009 0 1
6.73587 0 1
6.8517 0 1
6.96759 0 1
7.08353 0 1
7.19952 0 1
7.31557 0 1
7.43166 0 1
7.54781 0 1
7.664 0 1
7.78024 0 1
7.89653 0 1
8.01286 0 1
8.12924 0 1
8.24567 0 1
8.36213 0 1
8.47864 0 1
8.59519 0 1
8.71178 0 1
8.82841 0 1
8.94508 0 1
9.06179 0 1
9.17853 0 1
9.29531 0 1
9.41212 0 1
9.52897 0 1
9.64584 0 1
9.76276 0 1
9.8797 0 1
9.99667 0 1
10.1137 0 1
10.2307 0 1
10.3478 0 1
10.4648 0 1
10.5819 0 1
10.6991 0 1
10.8162 0 1
10.9334 0 1
11.0506 0 1
11.1678 0 1
11.285 0 1
11.4023 0 1
11.5196 0 1
11.6369 0 1
11.7542 0 1
11.8715 0 1
11.9888 0 1
12.1062 0 1
12.2235 0 1
12.3409 0 1
12.4582 0 1
12.5756 0 1
12.693 0 1
12.8104 0 1
12.9278 0 1
13.0452 0 1
13.1626 0 1
13.28 0 1
13.3974 0 1
13.5149 0 1
13.6323 0 1
13.7497 0 1
13.8671 0 1
13.9845 0 1
14.1019 0 1
14.2193 0 1
14.3367 0 1
14.4541 0 1
14.5714 0 1
14.6888 0 1
14.8062 0 1
14.9235 0 1
15.0408 1639 40.4846
15.1581 1744 41.7612
15.2755 1784 42.2374
15.3927 1834 42.8252
15.51 1828 42.7551
15.6273 1830 42.7785
15.7445 1824 42.7083
15.8617 1846 42.9651
15.9789 1836 42.8486
16.0961 1879 43.3474
16.2132 1843 42.9302
16.3304 1889 43.4626
16.4475 1933 43.9659
16.5646 2011 44.8442
16.6816 2071 45.5082
16.7986 2180 46.6905
16.9156 2199 46.8935
17.0326 2206 46.9681
17.1496 2150 46.3681
17.2665 2220 47.1169
17.3833 2140 46.2601
17.5002 2074 45.5412
17.617 1959 44.2606
17.7338 2027 45.0222
17.8505 1885 43.4166
17.9672 1883 43.3935
18.0839 1890 43.4741
18.2005 1979 44.486
18.3171 2049 45.2659
18.4337 2026 45.0111
18.5502 2109 45.9239
18.6666 2183 46.7226
18.7831 2146 46.3249
18.8994 2107 45.9021
19.0158 2125 46.0977
19.1321 2110 45.9347
19.2483 2064 45.4313
19.3645 1947 44.1248
19.4806 1734 41.6413
19.5967 1674 40.9145
19.7128 1528 39.0896
19.8288 1439 37.9342
19.9447 1379 37.1349
20.0606 0 1
20.1764 0 1
20.2922 0 1
20.4079 0 1
20.5236 0 1
20.6392 0 1
20.7548 0 1
20.8702 0 1
23.3078 0 1
23.4233 0 1
23.539 0 1
23.6547 0 1
23.7704 0 1
23.8862 0 1
24.0021 0 1
24.118 0 1
24.234 0 1
24.35 0 1
24.4661 895 29.9166
24.5822 1069 32.6956
24.6984 1217 34.8855
24.8146 1294 35.9722
24.9309 1394 37.3363
25.0472 1577 39.7115
25.1636 1725 41.5331
25.28 1904 43.6348
25.3965 1981 44.5084
25.513 2104 45.8694
25.6296 2225 47.1699
25.7462 2264 47.5815
25.8628 2383 48.816
25.9795 2365 48.6313
26.0962 2315 48.1144
26.213 2267 47.613
26.3298 2128 46.1303
26.4466 2021 44.9555
26.5635 2051 45.288
26.6804 1982 44.5197
26.7973 1991 44.6206
26.9143 2081 45.618
27.0313 2091 45.7275
27.1483 2198 46.8828
27.2653 2245 47.3814
27.3824 2266 47.6025
27.4996 2258 47.5184
27.6167 2265 47.592
27.7339 2141 46.2709
27.8511 2097 45.793
27.9683 2136 46.2169
28.0855 2015 44.8888
28.2028 1934 43.9773
28.3201 1920 43.8178
28.4374 1892 43.4971
28.5547 1866 43.1972
28.6721 1981 44.5084
28.7894 2037 45.1331
28.9068 2212 47.0319
29.0242 2121 46.0543
29.1416 2259 47.5289
29.259 2281 47.7598
29.3764 2271 47.655
29.4939 2264 47.5815
29.6113 2245 47.3814
29.7288 2097 45.793
29.8463 1953 44.1928
29.9638 1950 44.1588
30.0812 2005 44.7772
30.1987 1961 44.2832
30.3162 1949 44.1475
30.4337 1929 43.9204
30.5512 2132 46.1736
30.6687 2018 44.9222
30.7862 2046 45.2327
30.9037 2179 46.6798
31.0212 2209 47
31.1387 2196 46.8615
31.2562 2126 46.1086
31.3737 2117 46.0109
31.4912 1982 44.5197
31.6087 1887 43.4396
31.7262 1893 43.5086
31.8436 1905 43.6463
31.9611 1816 42.6146
32.0785 1889 43.4626
32.1959 1934 43.9773
32.3134 2088 45.6946
32.4308 2091 45.7275
32.5482 2162 46.4973
32.6655 2200 46.9042
32.7829 2209 47
32.9002 2138 46.2385
33.0176 2183 46.7226
33.1349 2247 47.4025
33.2522 2073 45.5302
33.3694 2067 45.4643
33.4867 1941 44.0568
33.6039 1855 43.0697
33.7211 1799 42.4146
33.8383 1789 42.2966
33.9554 1800 42.4264
34.0725 2006 44.7884
34.1896 1969 44.3734
34.3067 1927 43.8976
34.4237 2008 44.8107
34.5407 2047 45.2438
34.6577 2148 46.3465
34.7746 2038 45.1442
34.8915 2078 45.5851
35.0084 2042 45.1885
35.1252 2099 45.8148
35.242 1944 44.0908
35.3587 1810 42.5441
35.4755 1875 43.3013
35.5921 1857 43.0929
35.7088 1838 42.8719
35.8254 1760 41.9524
35.9419 1879 43.3474
36.0584 1938 44.0227
36.1749 1945 44.1022
36.2913 1890 43.4741
36.4077 1916 43.7721
36.524 1963 44.3058
36.6403 1830 42.7785
36.7565 1740 41.7133
36.8727 1707 41.3159
36.9889 1557 39.4588
37.1049 1441 37.9605
37.221 0 1
37.3369 0 1
37.4529 0 1
37.5687 0 1
37.6845 0 1
37.8003 0 1
37.916 0 1
38.0316 0 1
38.1472 0 1
40.5851 0 1
40.7008 0 1
40.8164 0 1
40.9322 0 1
41.048 0 1
41.1639 0 1
41.2798 0 1
41.3958 0 1
41.5118 0 1
41.6279 0 1
41.744 1022 31.9687
41.8602 1102 33.1964
41.9765 1227 35.0286
42.0928 1252 35.3836
42.2091 1234 35.1283
42.3255 1163 34.1028
42.4419 1239 35.1994
42.5584 1187 34.4529
42.675 1415 37.6165
42.7915 1451 38.092
42.9081 1601 40.0125
43.0248 1573 39.6611
43.1415 1635 40.4351
43.2582 1666 40.8167
43.375 1706 41.3038
43.4918 1709 41.3401
43.6087 1663 40.7799
43.7256 1742 41.7373
43.8425 1704 41.2795
43.9595 1639 40.4846
44.0765 1614 40.1746
44.1935 1527 39.0768
44.3106 1452 38.1051
44.4277 1435 37.8814
44.5448 1491 38.6135
44.6619 1478 38.4448
44.7791 1519 38.9744
44.8963 1559 39.4842
45.0136 1721 41.4849
45.1308 1756 41.9047
45.2481 1699 41.2189
45.3654 1781 42.2019
45.4827 1743 41.7493
45.6001 1765 42.0119
45.7174 1713 41.3884
45.8348 1618 40.2244
45.9522 1511 38.8716
46.0697 1399 37.4032
46.1871 1420 37.6829
46.3046 1491 38.6135
46.422 1518 38.9615
46.5395 1676 40.939
46.657 1684 41.0366
46.7745 1723 41.509
46.892 1669 40.8534
47.0096 1778 42.1663
47.1271 1821 42.6732
47.2446 1764 42
47.3622 1652 40.6448
47.4797 1685 41.0488
47.5973 1699 41.2189
47.7149 1687 41.0731
47.8324 1629 40.3609
47.95 1543 39.281
48.0675 1517 38.9487
48.1851 1468 38.3145
48.3027 1460 38.2099
48.4202 1638 40.4722
48.5378 1726 41.5452
48.6554 1777 42.1545
48.7729 1815 42.6028
48.8904 1836 42.8486
49.008 1799 42.4146
49.1255 1700 41.2311
49.243 1603 40.0375
49.3605 1617 40.2119
49.478 1470 38.3406
49.5955 1404 37.47
49.713 1320 36.3318
49.8304 1430 37.8153
49.9479 1527 39.0768
50.0653 1546 39.3192
50.1827 1590 39.8748
50.3001 1658 40.7185
50.4175 1770 42.0714
50.5348 1799 42.4146
50.6521 1843 42.9302
50.7694 1748 41.8091
50.8867 1809 42.5323
51.004 1850 43.0116
51.1212 1854 43.0581
51.2384 1776 42.1426
51.3556 1753 41.8688
51.4727 1654 40.6694
51.5899 1564 39.5474
51.707 1654 40.6694
51.824 1687 41.0731
51.9411 1839 42.8836
52.0581 2019 44.9333
52.175 2084 45.6508
52.2919 2150 46.3681
52.4088 2178 46.669
52.5257 2221 47.1275
52.6425 2214 47.0532
52.7593 2214 47.0532
52.876 2118 46.0217
52.9927 1900 43.589
53.1094 1936 44
53.226 1868 43.2204
53.3426 1715 41.4126
53.4591 1758 41.9285
53.5756 1788 42.2847
53.692 1781 42.2019
53.8084 1734 41.6413
53.9248 1657 40.7063
54.0411 1661 40.7554
54.1573 1597 39.9625
54.2735 0 1
54.3896 0 1
54.5057 0 1
54.6217 0 1
54.7377 0 1
54.8537 0 1
54.9695 0 1
55.0853 0 1
55.2011 0 1
55.3168 0 1
55.4324 0 1
57.824 0 1
57.9396 0 1
58.0553 0 1
58.1711 0 1
58.2869 0 1
58.4028 0 1
58.5187 0 1
58.6347 0 1
58.7508 0 1
58.8669 0 1
58.983 1364 36.9324
59.0992 1534 39.1663
59.2155 1669 40.8534
59.3318 1791 42.3202
59.4482 1877 43.3244
59.5646 1938 44.0227
59.681 2001 44.7325
59.7975 2104 45.8694
59.9141 1980 44.4972
60.0306 2023 44.9778
60.1473 1958 44.2493
60.2639 1884 43.4051
60.3807 1860 43.1277
60.4974 1908 43.6807
60.6142 2012 44.8553
60.731 2082 45.6289
60.8479 2208 46.9894
60.9648 2230 47.2229
61.0818 2316 48.1248
61.1987 2198 46.8828
61.3158 2154 46.4112
61.4328 2109 45.9239
61.5499 1960 44.2719
61.667 1796 42.3792
61.7841 1761 41.9643
61.9013 1619 40.2368
62.0185 1707 41.3159
62.1357 1767 42.0357
62.253 1983 44.5309
62.3702 1968 44.3621
62.4875 2075 45.5522
62.6049 2165 46.5296
62.7222 2194 46.8402
62.8396 2127 46.1194
62.9569 2144 46.3033
63.0743 2142 46.2817
63.1918 2145 46.3141
63.3092 2114 45.9783
63.4267 2019 44.9333
63.5441 2040 45.1664
63.6616 1970 44.3847
63.7791 1802 42.45
63.8966 1817 42.6263
64.0142 1824 42.7083
64.1317 1895 43.5316
64.2492 2014 44.8776
64.3668 2186 46.7547
64.4843 2106 45.8912
64.6019 2180 46.6905
64.7195 2188 46.7761
64.837 2245 47.3814
64.9546 2103 45.8585
65.0722 1942 44.0681
65.1898 1850 43.0116
65.3074 1778 42.1663
65.4249 1644 40.5463
65.5425 1557 39.4588
65.6601 1682 41.0122
65.7777 1774 42.1189
65.8952 1873 43.2782
66.0128 1909 43.6921
66.1304 1943 44.0795
66.2479 2080 45.607
66.3655 2074 45.5412
66.483 2082 45.6289
66.6005 2272 47.6655
66.718 2095 45.7712
66.8355 2113 45.9674
66.953 2118 46.0217
67.0705 2077 45.5741
67.1879 1949 44.1475
67.3054 1894 43.5201
67.4228 1775 42.1307
67.5402 1755 41.8927
67.6576 1630 40.3733
67.7749 1790 42.3084
67.8923 1842 42.9185
68.0096 2100 45.8258
68.1269 2087 45.6837
68.2442 2039 45.1553
68.3614 2140 46.2601
68.4787 2156 46.4327
68.5958 2098 45.8039
68.713 2058 45.3652
68.8302 1918 43.795
68.9473 1717 41.4367
69.0643 1557 39.4588
69.1814 1557 39.4588
69.2984 1540 39.2428
69.4154 1640 40.4969
69.5323 1776 42.1426
69.6492 1897 43.5546
69.7661 1915 43.7607
69.8829 1934 43.9773
69.9997 1928 43.909
70.1165 1957 44.238
70.2332 1858 43.1045
70.3499 1762 41.9762
70.4665 1693 41.1461
70.5831 1581 39.7618
70.6996 1504 38.7814
70.8161 1405 37.4833
70.9326 1272 35.6651
71.049 1158 34.0294
71.1653 938 30.6268
71.2817 864 29.3939
71.3979 811 28.4781
71.5141 778 27.8927
71.6303 779 27.9106
71.7464 691 26.2869
71.8624 0 1
71.9784 0 1
72.0944 0 1
72.2102 0 1
72.3261 0 1
72.4418 0 1
72.5575 0 1
72.6732 0 1
75.1054 0 1
75.2209 0 1
75.3365 0 1
75.4521 0 1
75.5678 0 1
75.6835 0 1
75.7993 0 1
75.9151 0 1
76.031 0 1
76.147 1332 36.4966
76.263 1303 36.0971
76.3791 1375 37.081
76.4952 1375 37.081
76.6113 1389 37.2693
76.7276 1516 38.9358
76.8438 1691 41.1218
76.9601 1732 41.6173
77.0765 1749 41.821
77.1929 1856 43.0813
77.3093 1752 41.8569
77.4258 1900 43.589
77.5423 1774 42.1189
77.6589 1711 41.3642
77.7755 1550 39.37
77.8921 1437 37.9078
78.0088 1334 36.524
78.1256 1254 35.4119
78.2423 1243 35.2562
78.3591 1383 37.1887
78.4759 1556 39.4462
78.5928 1544 39.2938
78.7097 1719 41.4608
78.8266 1693 41.1461
78.9436 1786 42.2611
79.0606 1731 41.6053
79.1776 1846 42.9651
79.2946 1838 42.8719
79.4117 1824 42.7083
79.5288 1878 43.3359
79.6459 1783 42.2256
79.7631 1744 41.7612
79.8802 1712 41.3763
79.9974 1582 39.7744
80.1147 1476 38.4187
80.2319 1415 37.6165
80.3491 1547 39.3319
80.4664 1608 40.0999
80.5837 1771 42.0833
80.701 1889 43.4626
80.8183 1804 42.4735
80.9357 1979 44.486
81.053 1977 44.4635
81.1704 1913 43.7379
81.2877 1804 42.4735
81.4051 1822 42.6849
81.5225 1609 40.1123
81.6399 1514 38.9102
81.7573 1371 37.027
81.8747 1351 36.756
81.9922 1302 36.0832
82.1096 1546 39.3192
82.227 1639 40.4846
82.3444 1694 41.1582
82.4619 1816 42.6146
82.5793 1836 42.8486
82.6967 1804 42.4735
82.8142 1873 43.2782
82.9316 1902 43.6119
83.049 1885 43.4166
83.1664 1850 43.0116
83.2838 1951 44.1701
83.4012 1785 42.2493
83.5186 1836 42.8486
83.636 1675 40.9268
83.7534 1563 39.5348
83.8708 1531 39.128
83.9881 1467 38.3014
84.1055 1600 40
84.2228 1735 41.6533
84.3401 1879 43.3474
84.4575 1869 43.2319
84.5747 1939 44.0341
84.692 1931 43.9431
84.8093 1922 43.8406
84.9265 1920 43.8178
85.0437 1754 41.8808
85.1609 1656 40.694
85.2781 1477 38.4318
85.3952 1380 37.1484
85.5123 1396 37.3631
85.6294 1370 37.0135
85.7465 1621 40.2616
85.8636 1645 40.5586
85.9806 1729 41.5812
86.0976 1831 42.7902
86.2145 1873 43.2782
86.3315 1910 43.7035
86.4484 2006 44.7884
86.5652 1929 43.9204
86.682 1903 43.6234
86.7988 1860 43.1277
86.9156 1875 43.3013
87.0323 1953 44.1928
87.149 1783 42.2256
87.2657 1709 41.3401
87.3823 1507 38.8201
87.4988 1389 37.2693
87.6154 1356 36.8239
87.7318 1344 36.6606
87.8483 1486 38.5487
87.9647 1519 38.9744
88.081 1492 38.6264
88.1973 1473 38.3797
88.3136 1381 37.1618
88.4298 1403 37.4566
88.546 1285 35.8469
88.6621 1085 32.9393
88.7781 808 28.4253
88.8942 0 1
89.0101 0 1
89.126 0 1
89.2419 0 1
89.3577 0 1
89.4734 0 1
89.5891 0 1
89.7047 0 1
89.8203 0 1
89.9358 0 1
92.3269 0 1
92.4424 0 1
92.558 0 1
92.6736 0 1
92.7893 0 1
92.905 0 1
93.0208 0 1
93.1366 0 1
93.2525 0 1
93.3685 0 1
93.4845 0 1
93.6005 1463 38.2492
93.7167 1590 39.8748
93.8328 1583 39.7869
93.949 1692 41.1339
94.0653 1670 40.8656
94.1816 1632 40.398
94.2979 1571 39.6358
94.4143 1479 38.4578
94.5307 1420 37.6829
94.6472 1402 37.4433
94.7637 1445 38.0132
94.8803 1582 39.7744
94.9969 1686 41.0609
95.1135 1777 42.1545
95.2302 1776 42.1426
95.3469 1911 43.715
95.4637 1974 44.4297
95.5805 1958 44.2493
95.6973 1976 44.4522
95.8142 2011 44.8442
95.9311 1910 43.7035
96.048 1968 44.3621
96.1649 1972 44.4072
96.2819 1782 42.2137
96.3989 1849 43
96.516 1771 42.0833
96.633 1625 40.3113
96.7501 1575 39.6863
96.8673 1569 39.6106
96.9844 1679 40.9756
97.1016 1891 43.4856
97.2188 1911 43.715
97.336 2040 45.1664
97.4532 1994 44.6542
97.5704 2012 44.8553
97.6877 2016 44.8999
97.805 1965 44.3283
97.9223 1699 41.2189
98.0396 1541 39.2556
98.1569 1485 38.5357
98.2743 1377 37.108
98.3916 1424 37.7359
98.509 1569 39.6106
98.6264 1704 41.2795
98.7438 1780 42.19
98.8612 1906 43.6578
98.9786 1919 43.8064
99.096 1965 44.3283
99.2134 1995 44.6654
99.3308 2066 45.4533
99.4482 2043 45.1996
99.5656 2042 45.1885
99.6831 2047 45.2438
99.8005 2014 44.8776
99.9179 1958 44.2493
100.035 1943 44.0795
100.153 1780 42.19
100.27 1676 40.939
100.388 1725 41.5331
100.505 1794 42.3556
100.622 1893 43.5086
100.74 1947 44.1248
100.857 2077 45.5741
100.975 2064 45.4313
101.092 2114 45.9783
101.209 2097 45.793
101.327 2107 45.9021
101.444 1944 44.0908
101.561 1805 42.4853
101.679 1643 40.5339
101.796 1539 39.2301
101.913 1421 37.6962
102.03 1546 39.3192
102.148 1702 41.2553
102.265 1838 42.8719
102.382 1881 43.3705
102.499 2025 45
102.616 2096 45.7821
102.733 2252 47.4552
102.851 2170 46.5833
102.968 2152 46.3897
103.085 2264 47.5815
103.202 2186 46.7547
103.319 2167 46.551
103.436 2121 46.0543
103.552 1960 44.2719
103.669 1962 44.2945
103.786 1763 41.9881
103.903 1788 42.2847
104.02 1916 43.7721
104.137 1966 44.3396
104.253 2016 44.8999
104.37 2314 48.1041
104.487 2221 47.1275
104.603 2190 46.7974
104.72 2156 46.4327
104.836 2041 45.1774
104.953 1957 44.238
105.069 1716 41.4246
105.186 1559 39.4842
105.302 1426 37.7624
105.418 1271 35.6511
105.535 1337 36.565
105.651 1326 36.4143
105.767 1299 36.0416
105.883 1365 36.9459
105.999 1229 35.0571
106.115 0 1
106.231 0 1
106.347 0 1
106.463 0 1
106.579 0 1
106.694 0 1
106.81 0 1
106.926 0 1
107.041 0 1
107.157 0 1
109.576 0 1
109.692 0 1
109.807 0 1
109.923 0 1
110.039 0 1
110.155 0 1
110.27 0 1
110.386 0 1
110.502 0 1
110.618 912 30.1993
110.735 1214 34.8425
110.851 1389 37.2693
110.967 1520 38.9872
111.083 1729 41.5812
111.199 1822 42.6849
111.316 1882 43.382
111.432 1973 44.4185
111.549 2053 45.31
111.665 2125 46.0977
111.782 2016 44.8999
111.898 2010 44.833
112.015 2059 45.3762
112.132 1897 43.5546
112.248 1737 41.6773
112.365 1736 41.6653
112.482 1701 41.2432
112.599 1756 41.9047
112.716 1978 44.4747
112.832 2070 45.4973
112.949 2054 45.3211
113.066 2066 45.4533
113.183 2020 44.9444
113.3 2030 45.0555
113.417 2010 44.833
113.534 1843 42.9302
113.652 1639 40.4846
113.769 1519 38.9744
113.886 1410 37.55
114.003 1430 37.8153
114.12 1537 39.2046
114.238 1711 41.3642
114.355 1895 43.5316
114.472 1799 42.4146
114.589 1999 44.7102
114.707 2059 45.3762
114.824 2020 44.9444
114.942 2043 45.1996
115.059 2022 44.9667
115.176 2084 45.6508
115.294 2109 45.9239
115.411 2011 44.8442
115.529 2059 45.3762
115.646 1949 44.1475
115.764 1854 43.0581
115.881 1882 43.382
115.999 1780 42.19
116.116 1732 41.6173
116.234 1923 43.852
116.351 1931 43.9431
116.469 2046 45.2327
116.586 2072 45.5192
116.704 2026 45.0111
116.821 2098 45.8039
116.939 2099 45.8148
117.056 1859 43.1161
117.174 1742 41.7373
117.291 1619 40.2368
117.409 1549 39.3573
117.526 1419 37.6696
117.644 1490 38.6005
117.761 1620 40.2492
117.879 1767 42.0357
117.996 1871 43.2551
118.114 1866 43.1972
118.231 1976 44.4522
118.349 1963 44.3058
118.466 2061 45.3982
118.584 2006 44.7884
118.701 1996 44.6766
118.819 2035 45.111
118.936 2030 45.0555
119.053 1948 44.1362
119.171 1931 43.9431
119.288 1888 43.4511
119.405 1823 42.6966
119.523 1717 41.4367
119.64 1660 40.7431
119.757 1722 41.497
119.875 1814 42.5911
119.992 1841 42.9069
120.109 2000 44.7214
120.226 1839 42.8836
120.343 1915 43.7607
120.46 1997 44.6878
120.578 2018 44.9222
120.695 1959 44.2606
120.812 1775 42.1307
120.929 1621 40.2616
121.046 1500 38.7298
121.163 1370 37.0135
121.279 1348 36.7151
121.396 1340 36.606
121.513 1427 37.7757
121.63 1537 39.2046
121.747 1527 39.0768
121.863 1520 38.9872
121.98 1521 39
122.097 1624 40.2989
122.213 1462 38.2361
122.33 1478 38.4448
122.446 1432 37.8418
122.563 1381 37.1618
122.679 1278 35.7491
122.795 1218 34.8999
122.912 1090 33.0151
123.028 1016 31.8748
123.144 836 28.9137
123.26 778 27.8927
123.377 0 1
123.493 0 1
123.609 0 1
123.725 0 1
123.84 0 1
123.956 0 1
124.072 0 1
124.188 0 1
124.303 0 1
124.419 0 1
126.852 0 1
126.968 0 1
127.083 0 1
127.199 0 1
127.315 0 1
127.431 0 1
127.547 0 1
127.663 0 1
127.779 0 1
127.895 0 1
128.011 0 1
128.127 0 1
128.243 0 1
128.359 1850 43.0116
128.476 1875 43.3013
128.592 1758 41.9285
128.708 1832 42.8019
128.825 1836 42.8486
128.941 2003 44.7549
129.058 2062 45.4093
129.174 1976 44.4522
129.291 2154 46.4112
129.408 2137 46.2277
129.524 2157 46.4435
129.641 2061 45.3982
129.758 2039 45.1553
129.875 1889 43.4626
129.992 1684 41.0366
130.108 1666 40.8167
130.225 1505 38.7943
130.342 1498 38.704
130.459 1735 41.6533
130.576 1791 42.3202
130.693 1872 43.2666
130.81 1889 43.4626
130.928 2008 44.8107
131.045 2010 44.833
131.162 2077 45.5741
131.279 2141 46.2709
131.396 2096 45.7821
131.513 2025 45
131.631 2001 44.7325
131.748 2048 45.2548
131.865 2003 44.7549
131.983 2017 44.911
132.1 1940 44.0454
132.217 1877 43.3244
132.335 1865 43.1856
132.452 1942 44.0681
132.57 2047 45.2438
132.687 2038 45.1442
132.804 2074 45.5412
132.922 2143 46.2925
133.039 2157 46.4435
133.157 2098 45.8039
133.274 2137 46.2277
133.392 1970 44.3847
133.509 1814 42.5911
133.627 1752 41.8569
133.744 1634 40.4228
133.862 1579 39.7366
133.979 1597 39.9625
134.097 1844 42.9418
134.214 1898 43.566
134.332 1962 44.2945
134.449 1976 44.4522
134.567 2022 44.9667
134.684 2058 45.3652
134.802 2034 45.0999
134.919 2096 45.7821
135.037 2041 45.1774
135.154 2040 45.1664
135.272 2031 45.0666
135.389 2008 44.8107
135.507 1982 44.5197
135.624 1945 44.1022
135.742 1867 43.2088
135.859 1907 43.6692
135.977 1915 43.7607
136.094 1929 43.9204
136.211 2049 45.2659
136.329 2190 46.7974
136.446 2128 46.1303
136.564 2181 46.7012
136.681 2229 47.2123
136.798 2180 46.6905
136.915 2050 45.2769
137.033 2073 45.5302
137.15 1839 42.8836
137.267 1743 41.7493
137.384 1671 40.8779
137.502 1521 39
137.619 1649 40.6079
137.736 1721 41.4849
137.853 1770 42.0714
137.97 1934 43.9773
138.087 2058 45.3652
138.204 2058 45.3652
138.321 2032 45.0777
138.438 2078 45.5851
138.555 2098 45.8039
138.672 2069 45.4863
138.788 2008 44.8107
138.905 1930 43.9318
139.022 1840 42.8952
139.139 1708 41.328
139.255 1618 40.2244
139.372 1470 38.3406
139.488 1397 37.3765
139.605 1357 36.8375
139.721 1338 36.5787
139.838 1400 37.4166
139.954 1390 37.2827
140.071 1296 36
140.187 1210 34.7851
140.303 1041 32.2645
140.419 1003 31.6702
140.535 1085 32.9393
140.652 893 29.8831
140.768 0 1
140.884 0 1
141 0 1
141.115 0 1
141.231 0 1
141.347 0 1
141.463 0 1
141.578 0 1
141.694 0 1
144.104 0 1
144.219 0 1
144.335 0 1
144.45 0 1
144.566 0 1
144.682 0 1
144.798 0 1
144.914 0 1
145.03 0 1
145.146 1542 39.2683
145.262 1624 40.2989
145.378 1617 40.2119
145.494 1639 40.4846
145.61 1674 40.9145
145.726 1591 39.8873
145.842 1572 39.6485
145.959 1488 38.5746
146.075 1371 37.027
146.192 1291 35.9305
146.308 1251 35.3695
146.425 1349 36.7287
146.541 1423 37.7227
146.658 1485 38.5357
146.774 1508 38.833
146.891 1531 39.128
147.008 1564 39.5474
147.125 1627 40.3361
147.241 1619 40.2368
147.358 1731 41.6053
147.475 1705 41.2916
147.592 1600 40
147.709 1596 39.95
147.826 1528 39.0896
147.943 1436 37.8946
148.06 1501 38.7427
148.177 1466 38.2884
148.294 1491 38.6135
148.411 1521 39
148.528 1513 38.8973
148.645 1661 40.7554
148.762 1684 41.0366
148.88 1654 40.6694
148.997 1752 41.8569
149.114 1658 40.7185
149.231 1603 40.0375
149.349 1655 40.6817
149.466 1591 39.8873
149.583 1480 38.4708
149.701 1370 37.0135
149.818 1308 36.1663
149.935 1235 35.1426
150.053 1377 37.108
150.17 1406 37.4967
150.287 1441 37.9605
150.405 1423 37.7227
150.522 1591 39.8873
150.64 1561 39.5095
150.757 1663 40.7799
150.875 1641 40.5093
150.992 1598 39.975
151.11 1641 40.5093
151.227 1596 39.95
151.344 1596 39.95
151.462 1518 38.9615
151.579 1552 39.3954
151.697 1513 38.8973
151.814 1422 37.7094
151.932 1485 38.5357
152.049 1383 37.1887
152.167 1502 38.7556
152.284 1567 39.5854
152.402 1623 40.2865
152.519 1559 39.4842
152.636 1625 40.3113
152.754 1585 39.8121
152.871 1592 39.8999
152.989 1595 39.9375
153.106 1538 39.2173
153.223 1494 38.6523
153.341 1336 36.5513
153.458 1262 35.5246
153.575 1354 36.7967
153.693 1279 35.7631
153.81 1302 36.0832
153.927 1325 36.4005
154.044 1417 37.6431
154.162 1394 37.3363
154.279 1438 37.921
154.396 1418 37.6563
154.513 1484 38.5227
154.63 1494 38.6523
154.747 1550 39.37
154.864 1482 38.4968
154.981 1393 37.3229
155.098 1407 37.51
155.215 1402 37.4433
155.332 1363 36.9188
155.449 1302 36.0832
155.566 1317 36.2905
155.683 1301 36.0694
155.8 1389 37.2693
155.917 1372 37.0405
156.033 1330 36.4692
156.15 0 1
156.267 0 1
156.383 0 1
156.5 0 1
156.617 0 1
156.733 0 1
156.85 0 1
156.966 0 1
157.082 0 1
157.199 0 1
157.315 0 1
157.431 0 1
157.547 0 1
157.664 0 1
157.78 0 1
157.896 0 1
158.012 0 1
158.128 0 1
158.244 0 1
158.359 0 1
158.475 0 1
158.591 0 1
158.706 0 1
