
6.15755 0 1
6.2731 0 1
6.3887 0 1
6.50437 0 1
6.62009 0 1
6.73587 0 1
6.8517 0 1
6.96759 0 1
7.08353 0 1
7.19952 0 1
7.31557 0 1
7.43166 0 1
7.54781 0 1
7.664 0 1
7.78024 0 1
7.89653 0 1
8.01286 0 1
8.12924 0 1
8.24567 0 1
8.36213 0 1
8.47864 0 1
8.59519 0 1
8.71178 0 1
8.82841 0 1
8.94508 0 1
9.06179 0 1
9.17853 0 1
9.29531 0 1
9.41212 0 1
9.52897 0 1
9.64584 0 1
9.76276 0 1
9.8797 0 1
9.99667 0 1
10.1137 0 1
10.2307 0 1
10.3478 0 1
10.4648 0 1
10.5819 0 1
10.6991 0 1
10.8162 0 1
10.9334 0 1
11.0506 0 1
11.1678 0 1
11.285 0 1
11.4023 0 1
11.5196 0 1
11.6369 0 1
11.7542 0 1
11.8715 0 1
11.9888 0 1
12.1062 0 1
12.2235 0 1
12.3409 0 1
12.4582 0 1
12.5756 0 1
12.693 0 1
12.8104 0 1
12.9278 0 1
13.0452 0 1
13.1626 0 1
13.28 0 1
13.3974 0 1
13.5149 0 1
13.6323 0 1
13.7497 0 1
13.8671 0 1
13.9845 0 1
14.1019 0 1
14.2193 0 1
14.3367 0 1
14.4541 0 1
14.5714 0 1
14.6888 0 1
14.8062 0 1
14.9235 0 1
15.0408 0 0
15.1581 0 0
15.2755 0 0
15.3927 0 0
15.51 0 0
15.6273 0 0
15.7445 0 0
15.8617 0 0
15.9789 0 0
16.0961 0 0
16.2132 0 0
16.3304 0 0
16.4475 0 0
16.5646 0 0
16.6816 0 0
16.7986 0 0
16.9156 0 0
17.0326 0 0
17.1496 0 0
17.2665 0 0
17.3833 0 0
17.5002 0 0
17.617 0 0
17.7338 0 0
17.8505 0 0
17.9672 0 0
18.0839 0 0
18.2005 0 0
18.3171 0 0
18.4337 0 0
18.5502 0 0
18.6666 0 0
18.7831 0 0
18.8994 0 0
19.0158 0 0
19.1321 0 0
19.2483 0 0
19.3645 0 0
19.4806 0 0
19.5967 0 0
19.7128 0 0
19.8288 0 0
19.9447 0 0
20.0606 0 1
20.1764 0 1
20.2922 0 1
20.4079 0 1
20.5236 0 1
20.6392 0 1
20.7548 0 1
20.8702 0 1
23.3078 0 1
23.4233 0 1
23.539 0 1
23.6547 0 1
23.7704 0 1
23.8862 0 1
24.0021 0 1
24.118 0 1
24.234 0 1
24.35 0 1
24.4661 74982 273.828
24.5822 85491 292.388
24.6984 89387 298.977
24.8146 90200 300.333
24.9309 88859 298.092
25.0472 87973 296.602
25.1636 86857 294.715
25.28 86853 294.708
25.3965 86647 294.359
25.513 86287 293.746
25.6296 86772 294.571
25.7462 86225 293.641
25.8628 84375 290.474
25.9795 83388 288.77
26.0962 82721 287.613
26.213 81523 285.522
26.3298 78787 280.69
26.4466 78558 280.282
26.5635 76479 276.548
26.6804 73823 271.704
26.7973 72103 268.52
26.9143 70043 264.656
27.0313 69615 263.847
27.1483 69127 262.92
27.2653 68294 261.331
27.3824 68626 261.966
27.4996 66841 258.536
27.6167 62522 250.044
27.7339 54728 233.94
27.8511 49288 222.009
27.9683 51061 225.967
28.0855 55468 235.516
28.2028 61888 248.773
28.3201 65572 256.07
28.4374 69609 263.835
28.5547 70987 266.434
28.6721 72598 269.44
28.7894 73145 270.453
28.9068 74583 273.099
29.0242 74503 272.952
29.1416 75395 274.581
29.259 75666 275.075
29.3764 76160 275.971
29.4939 75776 275.274
29.6113 76864 277.244
29.7288 76572 276.716
29.8463 75728 275.187
29.9638 76536 276.651
30.0812 74985 273.834
30.1987 74955 273.779
30.3162 74468 272.888
30.4337 75086 274.018
30.5512 75505 274.782
30.6687 73687 271.453
30.7862 73957 271.95
30.9037 71931 268.2
31.0212 70880 266.233
31.1387 65905 256.72
31.2562 58955 242.807
31.3737 58427 241.717
31.4912 57127 239.013
31.6087 56098 236.85
31.7262 57931 240.689
31.8436 61257 247.502
31.9611 63126 251.249
32.0785 62426 249.852
32.1959 61988 248.974
32.3134 61145 247.275
32.4308 60498 245.963
32.5482 59223 243.358
32.6655 58579 242.031
32.7829 57135 239.029
32.9002 57423 239.631
33.0176 56477 237.649
33.1349 56175 237.013
33.2522 55665 235.934
33.3694 55466 235.512
33.4867 53991 232.36
33.6039 52532 229.199
33.7211 51357 226.621
33.8383 51180 226.23
33.9554 51438 226.799
34.0725 51980 227.991
34.1896 51540 227.024
34.3067 50693 225.151
34.4237 50218 224.094
34.5407 50126 223.888
34.6577 50374 224.442
34.7746 50096 223.821
34.8915 47914 218.893
35.0084 44703 211.431
35.1252 41353 203.354
35.242 37288 193.101
35.3587 36242 190.373
35.4755 37573 193.838
35.5921 41797 204.443
35.7088 44118 210.043
35.8254 45451 213.192
35.9419 45890 214.22
36.0584 45785 213.974
36.1749 45321 212.887
36.2913 45504 213.317
36.4077 45165 212.521
36.524 45521 213.357
36.6403 45437 213.16
36.7565 45801 214.012
36.8727 46066 214.63
36.9889 45151 212.488
37.1049 44402 210.718
37.221 0 1
37.3369 0 1
37.4529 0 1
37.5687 0 1
37.6845 0 1
37.8003 0 1
37.916 0 1
38.0316 0 1
38.1472 0 1
40.5851 0 1
40.7008 0 1
40.8164 0 1
40.9322 0 1
41.048 0 1
41.1639 0 1
41.2798 0 1
41.3958 0 1
41.5118 0 1
41.6279 0 1
41.744 52387 228.882
41.8602 54393 233.223
41.9765 54574 233.611
42.0928 55195 234.936
42.2091 54328 233.084
42.3255 54478 233.405
42.4419 55900 236.432
42.5584 56611 237.931
42.675 58745 242.374
42.7915 58867 242.625
42.9081 58893 242.679
43.0248 59256 243.426
43.1415 59171 243.251
43.2582 58013 240.859
43.375 56999 238.745
43.4918 57916 240.657
43.6087 60625 246.221
43.7256 61796 248.588
43.8425 62220 249.439
43.9595 60793 246.562
44.0765 57075 238.904
44.1935 52418 228.95
44.3106 51462 226.852
44.4277 53897 232.157
44.5448 56692 238.101
44.6619 57788 240.391
44.7791 58855 242.6
44.8963 58437 241.737
45.0136 57966 240.761
45.1308 57275 239.322
45.2481 56975 238.694
45.3654 57114 238.985
45.4827 56719 238.158
45.6001 55535 235.659
45.7174 54576 233.615
45.8348 53398 231.08
45.9522 53426 231.141
46.0697 53540 231.387
46.1871 54351 233.133
46.3046 54256 232.929
46.422 53434 231.158
46.5395 52343 228.786
46.657 51217 226.312
46.7745 50229 224.118
46.892 48481 220.184
47.0096 48268 219.7
47.1271 50454 224.62
47.2446 52132 228.324
47.3622 52015 228.068
47.4797 51924 227.868
47.5973 51098 226.049
47.7149 48161 219.456
47.8324 44258 210.376
47.95 43476 208.509
48.0675 44741 211.521
48.1851 47236 217.338
48.3027 48515 220.261
48.4202 48886 221.102
48.5378 49180 221.766
48.6554 49497 222.479
48.7729 49534 222.562
48.8904 49561 222.623
49.008 49497 222.479
49.1255 48911 221.158
49.243 49477 222.434
49.3605 49562 222.625
49.478 50012 223.634
49.5955 51763 227.515
49.713 52760 229.695
49.8304 53203 230.658
49.9479 53258 230.777
50.0653 53563 231.437
50.1827 52629 229.41
50.3001 50358 224.406
50.4175 49129 221.651
50.5348 51485 226.903
50.6521 57891 240.605
50.7694 60596 246.163
50.8867 63983 252.949
51.004 65585 256.096
51.1212 66919 258.687
51.2384 66918 258.685
51.3556 63277 251.549
51.4727 62188 249.375
51.5899 63508 252.008
51.707 67569 259.94
51.824 70383 265.298
51.9411 71826 268.004
52.0581 72884 269.97
52.175 74545 273.029
52.2919 75384 274.561
52.4088 75386 274.565
52.5257 75675 275.091
52.6425 74703 273.318
52.7593 74744 273.393
52.876 75911 275.52
52.9927 77071 277.617
53.1094 78615 280.384
53.226 79516 281.986
53.3426 80535 283.787
53.4591 79377 281.739
53.5756 79038 281.137
53.692 77037 277.555
53.8084 74230 272.452
53.9248 71481 267.359
54.0411 71252 266.931
54.1573 76312 276.246
54.2735 0 1
54.3896 0 1
54.5057 0 1
54.6217 0 1
54.7377 0 1
54.8537 0 1
54.9695 0 1
55.0853 0 1
55.2011 0 1
55.3168 0 1
55.4324 0 1
57.824 0 1
57.9396 0 1
58.0553 0 1
58.1711 0 1
58.2869 0 1
58.4028 0 1
58.5187 0 1
58.6347 0 1
58.7508 0 1
58.8669 0 1
58.983 79927 282.714
59.0992 82086 286.507
59.2155 85016 291.575
59.3318 89912 299.853
59.4482 94229 306.967
59.5646 97029 311.495
59.681 97825 312.77
59.7975 96783 311.1
59.9141 95733 309.407
60.0306 92719 304.498
60.1473 90679 301.13
60.2639 88698 297.822
60.3807 87185 295.271
60.4974 86912 294.808
60.6142 87144 295.202
60.731 86379 293.903
60.8479 87014 294.981
60.9648 85588 292.554
61.0818 86177 293.559
61.1987 85046 291.626
61.3158 85486 292.38
61.4328 84988 291.527
61.5499 85040 291.616
61.667 85039 291.614
61.7841 84192 290.159
61.9013 83072 288.222
62.0185 80664 284.014
62.1357 76406 276.416
62.253 73711 271.498
62.3702 71465 267.329
62.4875 71693 267.755
62.6049 75859 275.425
62.7222 80619 283.935
62.8396 83387 288.768
62.9569 86003 293.263
63.0743 86749 294.532
63.1918 87751 296.228
63.3092 86659 294.379
63.4267 85277 292.022
63.5441 83521 289
63.6616 81768 285.951
63.7791 80329 283.424
63.8966 79729 282.363
64.0142 78327 279.87
64.1317 77194 277.838
64.2492 76889 277.289
64.3668 75860 275.427
64.4843 75833 275.378
64.6019 75912 275.521
64.7195 76019 275.715
64.837 76213 276.067
64.9546 76902 277.312
65.0722 76587 276.744
65.1898 76133 275.922
65.3074 77335 278.092
65.4249 74707 273.326
65.5425 72468 269.199
65.6601 68865 262.421
65.7777 65381 255.697
65.8952 62705 250.41
66.0128 63285 251.565
66.1304 67759 260.306
66.2479 72290 268.868
66.3655 76769 277.072
66.483 79492 281.943
66.6005 82082 286.5
66.718 83032 288.153
66.8355 83289 288.598
66.953 82860 287.854
67.0705 81389 285.288
67.1879 79382 281.748
67.3054 78416 280.029
67.4228 77213 277.872
67.5402 75521 274.811
67.6576 74906 273.69
67.7749 73143 270.45
67.8923 73591 271.277
68.0096 72556 269.362
68.1269 73261 270.668
68.2442 74723 273.355
68.3614 75293 274.396
68.4787 76323 276.266
68.5958 77246 277.932
68.713 77847 279.011
68.8302 77652 278.661
68.9473 77228 277.899
69.0643 75146 274.128
69.1814 72306 268.898
69.2984 69147 262.958
69.4154 66405 257.692
69.5323 64286 253.547
69.6492 66796 258.449
69.7661 72179 268.661
69.8829 77084 277.64
69.9997 81134 284.84
70.1165 84118 290.031
70.2332 86362 293.874
70.3499 87658 296.071
70.4665 88779 297.958
70.5831 87746 296.22
70.6996 86442 294.01
70.8161 84246 290.252
70.9326 81661 285.764
71.049 80315 283.399
71.1653 79100 281.247
71.2817 76128 275.913
71.3979 74557 273.051
71.5141 72720 269.666
71.6303 70486 265.492
71.7464 64291 253.557
71.8624 0 1
71.9784 0 1
72.0944 0 1
72.2102 0 1
72.3261 0 1
72.4418 0 1
72.5575 0 1
72.6732 0 1
75.1054 0 1
75.2209 0 1
75.3365 0 1
75.4521 0 1
75.5678 0 1
75.6835 0 1
75.7993 0 1
75.9151 0 1
76.031 0 1
76.147 76891 277.292
76.263 80458 283.651
76.3791 80552 283.817
76.4952 78366 279.939
76.6113 77698 278.744
76.7276 76266 276.163
76.8438 73751 271.571
76.9601 73047 270.272
77.0765 72494 269.247
77.1929 73557 271.214
77.3093 75235 274.29
77.4258 77187 277.825
77.5423 77556 278.489
77.6589 77414 278.234
77.7755 76983 277.458
77.8921 75869 275.443
78.0088 73391 270.908
78.1256 69073 262.817
78.2423 64024 253.03
78.3591 59706 244.348
78.4759 57308 239.391
78.5928 58616 242.107
78.7097 63771 252.529
78.8266 73566 271.231
78.9436 71523 267.438
79.0606 77787 278.903
79.1776 81261 285.063
79.2946 84527 290.735
79.4117 84383 290.488
79.5288 85491 292.388
79.6459 84533 290.746
79.7631 83146 288.35
79.8802 81188 284.935
79.9974 79612 282.156
80.1147 77176 277.806
80.2319 75540 274.845
80.3491 74199 272.395
80.4664 71589 267.561
80.5837 70357 265.249
80.701 69565 263.752
80.8183 68746 262.195
80.9357 70854 266.184
81.053 72325 268.933
81.1704 72515 269.286
81.2877 73703 271.483
81.4051 72433 269.134
81.5225 72520 269.295
81.6399 68138 261.033
81.7573 65662 256.246
81.8747 60749 246.473
81.9922 56735 238.191
82.1096 55503 235.591
82.227 56279 237.232
82.3444 61762 248.52
82.4619 66795 258.447
82.5793 68268 261.281
82.6967 74154 272.312
82.8142 75887 275.476
82.9316 78438 280.068
83.049 78199 279.641
83.1664 77919 279.14
83.2838 76905 277.318
83.4012 75637 275.022
83.5186 74223 272.439
83.636 72856 269.919
83.7534 71902 268.145
83.8708 69209 263.076
83.9881 67370 259.557
84.1055 65643 256.209
84.2228 62772 250.543
84.3401 63050 251.098
84.4575 64215 253.407
84.5747 65511 255.951
84.692 67324 259.469
84.8093 67669 260.133
84.9265 67603 260.006
85.0437 67412 259.638
85.1609 65835 256.583
85.2781 62365 249.73
85.3952 59010 242.92
85.5123 54913 234.335
85.6294 53248 230.755
85.7465 55342 235.249
85.8636 60423 245.811
85.9806 66876 258.604
86.0976 70303 265.147
86.2145 74567 273.07
86.3315 76698 276.944
86.4484 84462 290.623
86.5652 83983 289.798
86.682 84776 291.163
86.7988 83748 289.392
86.9156 83529 289.014
87.0323 82474 287.183
87.149 81737 285.897
87.2657 80932 284.486
87.3823 80058 282.945
87.4988 77598 278.564
87.6154 74943 273.757
87.7318 72650 269.537
87.8483 71501 267.397
87.9647 72630 269.5
88.081 74242 272.474
88.1973 76937 277.375
88.3136 77689 278.727
88.4298 77039 277.559
88.546 75753 275.233
88.6621 73653 271.391
88.7781 70373 265.279
88.8942 0 1
89.0101 0 1
89.126 0 1
89.2419 0 1
89.3577 0 1
89.4734 0 1
89.5891 0 1
89.7047 0 1
89.8203 0 1
89.9358 0 1
92.3269 0 1
92.4424 0 1
92.558 0 1
92.6736 0 1
92.7893 0 1
92.905 0 1
93.0208 0 1
93.1366 0 1
93.2525 0 1
93.3685 0 1
93.4845 0 1
93.6005 71666 267.705
93.7167 72970 270.13
93.8328 73436 270.991
93.949 72560 269.37
94.0653 71502 267.399
94.1816 69255 263.163
94.2979 67697 260.186
94.4143 63806 252.598
94.5307 60576 246.122
94.6472 58550 241.971
94.7637 58933 242.761
94.8803 63061 251.119
94.9969 67859 260.498
95.1135 72617 269.475
95.2302 75190 274.208
95.3469 78789 280.694
95.4637 81941 286.253
95.5805 85893 293.075
95.6973 88000 296.648
95.8142 89863 299.772
95.9311 88453 297.41
96.048 87029 295.007
96.1649 86435 293.998
96.2819 84980 291.513
96.3989 83074 288.226
96.516 82099 286.529
96.633 80276 283.33
96.7501 78407 280.012
96.8673 75319 274.443
96.9844 73020 270.222
97.1016 71552 267.492
97.2188 72270 268.831
97.336 73749 271.568
97.4532 74991 273.845
97.5704 74728 273.364
97.6877 73276 270.695
97.805 71635 267.647
97.9223 70016 264.605
98.0396 65973 256.852
98.1569 61694 248.383
98.2743 58630 242.136
98.3916 58854 242.598
98.509 62554 250.108
98.6264 67045 258.93
98.7438 72976 270.141
98.8612 76663 276.881
98.9786 80461 283.656
99.096 84335 290.405
99.2134 88796 297.987
99.3308 89715 299.525
99.4482 90062 300.103
99.5656 90619 301.03
99.6831 88750 297.909
99.8005 87194 295.286
99.9179 85588 292.554
100.035 84196 290.165
100.153 82874 287.878
100.27 82128 286.58
100.388 80513 283.748
100.505 77420 278.244
100.622 74432 272.822
100.74 72892 269.985
100.857 73889 271.825
100.975 75567 274.895
101.092 76727 276.996
101.209 76525 276.632
101.327 74934 273.741
101.444 73398 270.921
101.561 71113 266.67
101.679 66583 258.037
101.796 62308 249.616
101.913 60700 246.374
102.03 62496 249.992
102.148 68241 261.23
102.265 78755 280.633
102.382 75485 274.745
102.499 82255 286.801
102.616 87480 295.77
102.733 91728 302.866
102.851 93322 305.486
102.968 94473 307.365
103.085 94095 306.749
103.202 92739 304.531
103.319 91125 301.869
103.436 88918 298.191
103.552 86636 294.34
103.669 85628 292.623
103.786 85406 292.243
103.903 84629 290.911
104.02 80726 284.123
104.137 77234 277.91
104.253 77469 278.333
104.37 74437 272.831
104.487 78727 280.583
104.603 80101 283.021
104.72 79794 282.478
104.836 78649 280.444
104.953 77551 278.48
105.069 73979 271.991
105.186 68334 261.408
105.302 64345 253.663
105.418 64833 254.623
105.535 68862 262.416
105.651 76199 276.042
105.767 80911 284.449
105.883 85086 291.695
105.999 89824 299.707
106.115 0 1
106.231 0 1
106.347 0 1
106.463 0 1
106.579 0 1
106.694 0 1
106.81 0 1
106.926 0 1
107.041 0 1
107.157 0 1
109.576 0 1
109.692 0 1
109.807 0 1
109.923 0 1
110.039 0 1
110.155 0 1
110.27 0 1
110.386 0 1
110.502 0 1
110.618 65243 255.427
110.735 72304 268.894
110.851 77411 278.228
110.967 80949 284.515
111.083 85428 292.281
111.199 89147 298.575
111.316 91103 301.833
111.432 91791 302.97
111.549 90686 301.141
111.665 89164 298.603
111.782 88022 296.685
111.898 85912 293.107
112.015 82707 287.588
112.132 79491 281.941
112.248 78449 280.087
112.365 79088 281.226
112.482 77070 277.615
112.599 72234 268.764
112.716 69906 264.397
112.832 68125 261.008
112.949 67371 259.559
113.066 68811 262.319
113.183 69536 263.697
113.3 68641 261.994
113.417 67198 259.226
113.534 65834 256.581
113.652 63242 251.48
113.769 58474 241.814
113.886 54725 233.934
114.003 53899 232.162
114.12 57651 240.106
114.238 62168 249.335
114.355 66304 257.496
114.472 69232 263.12
114.589 73141 270.446
114.707 77476 278.345
114.824 79857 282.59
114.942 80208 283.21
115.059 80754 284.172
115.176 79933 282.724
115.294 79452 281.872
115.411 78087 279.441
115.529 75848 275.405
115.646 73045 270.268
115.764 71418 267.241
115.881 72058 268.436
115.999 72021 268.367
116.116 71563 267.513
116.234 68799 262.296
116.351 66587 258.045
116.469 65062 255.073
116.586 65727 256.373
116.704 67149 259.131
116.821 67518 259.842
116.939 67558 259.919
117.056 65917 256.743
117.174 63842 252.67
117.291 61140 247.265
117.409 56851 238.434
117.526 54262 232.942
117.644 56077 236.806
117.761 60198 245.353
117.879 65216 255.374
117.996 67589 259.979
118.114 71591 267.565
118.231 76300 276.225
118.349 79324 281.645
118.466 81442 285.38
118.584 81511 285.501
118.701 82223 286.746
118.819 82023 286.397
118.936 80426 283.595
119.053 79168 281.368
119.171 76514 276.612
119.288 73200 270.555
119.405 71769 267.897
119.523 71133 266.708
119.64 72996 270.178
119.757 72812 269.837
119.875 71846 268.041
119.992 68411 261.555
120.109 66511 257.897
120.226 66342 257.569
120.343 66446 257.771
120.46 67507 259.821
120.578 68055 260.874
120.695 66976 258.797
120.812 65563 256.053
120.929 62376 249.752
121.046 59278 243.471
121.163 55764 236.144
121.279 54728 233.94
121.396 56550 237.802
121.513 60460 245.886
121.63 65593 256.111
121.747 68343 261.425
121.863 72562 269.373
121.98 76911 277.328
122.097 78184 279.614
122.213 80305 283.381
122.33 80897 284.424
122.446 79807 282.501
122.563 79377 281.739
122.679 79144 281.325
122.795 77056 277.59
122.912 74742 273.39
123.028 71231 266.891
123.144 69150 262.964
123.26 68760 262.221
123.377 0 1
123.493 0 1
123.609 0 1
123.725 0 1
123.84 0 1
123.956 0 1
124.072 0 1
124.188 0 1
124.303 0 1
124.419 0 1
126.852 0 1
126.968 0 1
127.083 0 1
127.199 0 1
127.315 0 1
127.431 0 1
127.547 0 1
127.663 0 1
127.779 0 1
127.895 0 1
128.011 0 1
128.127 0 1
128.243 0 1
128.359 75048 273.949
128.476 74616 273.159
128.592 76779 277.09
128.708 79276 281.56
128.825 80002 282.846
128.941 78934 280.952
129.058 76456 276.507
129.174 75194 274.215
129.291 72901 270.002
129.408 73039 270.257
129.524 73289 270.719
129.641 73920 271.882
129.758 73186 270.529
129.875 69540 263.704
129.992 66003 256.91
130.108 63404 251.802
130.225 61411 247.812
130.342 61172 247.33
130.459 62779 250.557
130.576 69836 264.265
130.693 72561 269.371
130.81 77876 279.063
130.928 83315 288.643
131.045 84419 290.549
131.162 86165 293.539
131.279 85224 291.931
131.396 84812 291.225
131.513 83807 289.494
131.631 81629 285.708
131.748 77873 279.057
131.865 73687 271.453
131.983 71743 267.849
132.1 74363 272.696
132.217 76329 276.277
132.335 77726 278.794
132.452 75500 274.773
132.57 73809 271.678
132.687 69431 263.498
132.804 72127 268.565
132.922 68798 262.294
133.039 68476 261.679
133.157 69494 263.617
133.274 69866 264.322
133.392 69237 263.129
133.509 65665 256.252
133.627 62879 250.757
133.744 61138 247.261
133.862 59212 243.335
133.979 59362 243.643
134.097 62216 249.431
134.214 66322 257.531
134.332 69456 263.545
134.449 76197 276.038
134.567 79405 281.789
134.684 80196 283.189
134.802 80275 283.328
134.919 80685 284.051
135.037 79857 282.59
135.154 78411 280.02
135.272 74753 273.41
135.389 70627 265.757
135.507 68198 261.147
135.624 69296 263.241
135.742 71906 268.153
135.859 73969 271.972
135.977 73577 271.251
136.094 72115 268.542
136.211 69438 263.511
136.329 68937 262.559
136.446 67402 259.619
136.564 66185 257.264
136.681 66195 257.284
136.798 64771 254.501
136.915 65919 256.747
137.033 66523 257.921
137.15 65107 255.161
137.267 62772 250.543
137.384 60831 246.639
137.502 59474 243.873
137.619 57016 238.78
137.736 58598 242.07
137.853 60759 246.493
137.97 65538 256.004
138.087 73617 271.325
138.204 74944 273.759
138.321 76477 276.545
138.438 77178 277.809
138.555 76371 276.353
138.672 76392 276.391
138.788 74160 272.323
138.905 70672 265.842
139.022 67209 259.247
139.139 65810 256.535
139.255 66325 257.536
139.372 68828 262.351
139.488 70564 265.639
139.605 70688 265.872
139.721 68958 262.599
139.838 66470 257.818
139.954 64818 254.594
140.071 63472 251.936
140.187 63593 252.177
140.303 61951 248.9
140.419 60533 246.035
140.535 59998 244.945
140.652 59856 244.655
140.768 0 1
140.884 0 1
141 0 1
141.115 0 1
141.231 0 1
141.347 0 1
141.463 0 1
141.578 0 1
141.694 0 1
144.104 0 1
144.219 0 1
144.335 0 1
144.45 0 1
144.566 0 1
144.682 0 1
144.798 0 1
144.914 0 1
145.03 0 1
145.146 53208 230.669
145.262 53590 231.495
145.378 53082 230.395
145.494 52306 228.705
145.61 51459 226.846
145.726 52048 228.14
145.842 53699 231.73
145.959 53499 231.299
146.075 53511 231.324
146.192 52171 228.41
146.308 49766 223.083
146.425 47899 218.858
146.541 49732 223.007
146.658 54410 233.26
146.774 58543 241.957
146.891 60459 245.884
147.008 61039 247.061
147.125 60591 246.152
147.241 60057 245.065
147.358 57792 240.4
147.475 54952 234.418
147.592 52871 229.937
147.709 51425 226.771
147.826 52430 228.976
147.943 55059 234.647
148.06 55333 235.23
148.177 55986 236.614
148.294 54987 234.493
148.411 53573 231.458
148.528 52878 229.952
148.645 51183 226.237
148.762 50651 225.058
148.88 50236 224.134
148.997 48657 220.583
149.114 50759 225.298
149.231 47940 218.952
149.349 47779 218.584
149.466 47858 218.765
149.583 49198 221.806
149.701 49618 222.751
149.818 48620 220.499
149.935 46847 216.442
150.053 44401 210.715
150.17 45634 213.621
150.287 50537 224.804
150.405 54159 232.721
150.522 56423 237.535
150.64 56183 237.03
150.757 56272 237.217
150.875 55097 234.728
150.992 53481 231.26
151.11 50237 224.136
151.227 49041 221.452
151.344 48606 220.468
151.462 50271 224.212
151.579 52220 228.517
151.697 53560 231.43
151.814 54142 232.684
151.932 52336 228.771
152.049 51213 226.303
152.167 50956 225.734
152.284 49725 222.991
152.402 49314 222.068
152.519 48342 219.868
152.636 48234 219.622
152.754 48306 219.786
152.871 47151 217.143
152.989 46281 215.13
153.106 47177 217.203
153.223 48060 219.226
153.341 48483 220.189
153.458 47859 218.767
153.575 46092 214.69
153.693 44605 211.199
153.81 46109 214.73
153.927 50451 224.613
154.044 53953 232.278
154.162 55609 235.816
154.279 56187 237.038
154.396 55607 235.811
154.513 55419 235.412
154.63 53540 231.387
154.747 51635 227.233
154.864 50795 225.377
154.981 50517 224.76
155.098 51753 227.493
155.215 53047 230.319
155.332 53284 230.833
155.449 52758 229.691
155.566 51554 227.055
155.683 50801 225.391
155.8 50543 224.818
155.917 49645 222.812
156.033 50090 223.808
156.15 0 1
156.267 0 1
156.383 0 1
156.5 0 1
156.617 0 1
156.733 0 1
156.85 0 1
156.966 0 1
157.082 0 1
157.199 0 1
157.315 0 1
157.431 0 1
157.547 0 1
157.664 0 1
157.78 0 1
157.896 0 1
158.012 0 1
158.128 0 1
158.244 0 1
158.359 0 1
158.475 0 1
158.591 0 1
158.706 0 1
