
6.15755 0 1
6.2731 0 1
6.3887 0 1
6.50437 0 1
6.62009 0 1
6.73587 0 1
6.8517 0 1
6.96759 0 1
7.08353 0 1
7.19952 0 1
7.31557 0 1
7.43166 0 1
7.54781 0 1
7.664 0 1
7.78024 0 1
7.89653 0 1
8.01286 0 1
8.12924 0 1
8.24567 0 1
8.36213 0 1
8.47864 0 1
8.59519 0 1
8.71178 0 1
8.82841 0 1
8.94508 0 1
9.06179 0 1
9.17853 0 1
9.29531 0 1
9.41212 0 1
9.52897 0 1
9.64584 0 1
9.76276 0 1
9.8797 0 1
9.99667 0 1
10.1137 0 1
10.2307 0 1
10.3478 0 1
10.4648 0 1
10.5819 0 1
10.6991 0 1
10.8162 0 1
10.9334 0 1
11.0506 0 1
11.1678 0 1
11.285 0 1
11.4023 0 1
11.5196 0 1
11.6369 0 1
11.7542 0 1
11.8715 0 1
11.9888 0 1
12.1062 0 1
12.2235 0 1
12.3409 0 1
12.4582 0 1
12.5756 0 1
12.693 0 1
12.8104 0 1
12.9278 0 1
13.0452 0 1
13.1626 0 1
13.28 0 1
13.3974 0 1
13.5149 0 1
13.6323 0 1
13.7497 0 1
13.8671 0 1
13.9845 0 1
14.1019 0 1
14.2193 0 1
14.3367 0 1
14.4541 0 1
14.5714 0 1
14.6888 0 1
14.8062 0 1
14.9235 0 1
15.0408 0 0
15.1581 0 0
15.2755 0 0
15.3927 0 0
15.51 0 0
15.6273 0 0
15.7445 0 0
15.8617 0 0
15.9789 0 0
16.0961 0 0
16.2132 0 0
16.3304 0 0
16.4475 0 0
16.5646 0 0
16.6816 0 0
16.7986 0 0
16.9156 0 0
17.0326 0 0
17.1496 0 0
17.2665 0 0
17.3833 0 0
17.5002 0 0
17.617 0 0
17.7338 0 0
17.8505 0 0
17.9672 0 0
18.0839 0 0
18.2005 0 0
18.3171 0 0
18.4337 0 0
18.5502 0 0
18.6666 0 0
18.7831 0 0
18.8994 0 0
19.0158 0 0
19.1321 0 0
19.2483 0 0
19.3645 0 0
19.4806 0 0
19.5967 0 0
19.7128 0 0
19.8288 0 0
19.9447 0 0
20.0606 0 1
20.1764 0 1
20.2922 0 1
20.4079 0 1
20.5236 0 1
20.6392 0 1
20.7548 0 1
20.8702 0 1
23.3078 0 1
23.4233 0 1
23.539 0 1
23.6547 0 1
23.7704 0 1
23.8862 0 1
24.0021 0 1
24.118 0 1
24.234 0 1
24.35 0 1
24.4661 23118 152.046
24.5822 23148 152.145
24.6984 22693 150.642
24.8146 23052 151.829
24.9309 22461 149.87
25.0472 21874 147.899
25.1636 22089 148.624
25.28 22643 150.476
25.3965 23038 151.783
25.513 24042 155.055
25.6296 24835 157.591
25.7462 25888 160.897
25.8628 26147 161.7
25.9795 26242 161.994
26.0962 25880 160.873
26.213 26028 161.332
26.3298 25174 158.663
26.4466 24068 155.139
26.5635 23377 152.895
26.6804 23030 151.756
26.7973 23172 152.224
26.9143 24129 155.335
27.0313 24791 157.452
27.1483 25447 159.521
27.2653 25957 161.112
27.3824 26177 161.793
27.4996 26365 162.373
27.6167 25903 160.944
27.7339 25533 159.79
27.8511 24861 157.674
27.9683 24540 156.652
28.0855 24097 155.232
28.2028 23516 153.349
28.3201 23295 152.627
28.4374 22471 149.903
28.5547 21555 146.816
28.6721 21629 147.068
28.7894 21916 148.041
28.9068 22612 150.373
29.0242 22736 150.785
29.1416 23760 154.143
29.259 24270 155.788
29.3764 24524 156.601
29.4939 24703 157.172
29.6113 24773 157.394
29.7288 24622 156.914
29.8463 24033 155.026
29.9638 22722 150.738
30.0812 22385 149.616
30.1987 21716 147.363
30.3162 22078 148.587
30.4337 22831 151.099
30.5512 23526 153.382
30.6687 24441 156.336
30.7862 24511 156.56
30.9037 25362 159.255
31.0212 25391 159.346
31.1387 25560 159.875
31.2562 25273 158.975
31.3737 24933 157.902
31.4912 24434 156.314
31.6087 24030 155.016
31.7262 23802 154.279
31.8436 23218 152.375
31.9611 22654 150.512
32.0785 21596 146.956
32.1959 21163 145.475
32.3134 21562 146.84
32.4308 22071 148.563
32.5482 22422 149.74
32.6655 23307 152.666
32.7829 24212 155.602
32.9002 24262 155.763
33.0176 24308 155.91
33.1349 24501 156.528
33.2522 24388 156.167
33.3694 24812 157.518
33.4867 23857 154.457
33.6039 23340 152.774
33.7211 22301 149.335
33.8383 21554 146.813
33.9554 21754 147.492
34.0725 22651 150.502
34.1896 22924 151.407
34.3067 23714 153.994
34.4237 24197 155.554
34.5407 24608 156.869
34.6577 25081 158.37
34.7746 25004 158.127
34.8915 24932 157.899
35.0084 24364 156.09
35.1252 24318 155.942
35.242 24135 155.354
35.3587 23828 154.363
35.4755 23253 152.489
35.5921 22832 151.103
35.7088 22016 148.378
35.8254 21020 144.983
35.9419 21150 145.43
36.0584 21035 145.034
36.1749 21287 145.901
36.2913 21848 147.811
36.4077 22756 150.851
36.524 23447 153.124
36.6403 23751 154.114
36.7565 24247 155.714
36.8727 24133 155.348
36.9889 24266 155.775
37.1049 23443 153.111
37.221 0 1
37.3369 0 1
37.4529 0 1
37.5687 0 1
37.6845 0 1
37.8003 0 1
37.916 0 1
38.0316 0 1
38.1472 0 1
40.5851 0 1
40.7008 0 1
40.8164 0 1
40.9322 0 1
41.048 0 1
41.1639 0 1
41.2798 0 1
41.3958 0 1
41.5118 0 1
41.6279 0 1
41.744 18892 137.448
41.8602 19572 139.9
41.9765 20219 142.194
42.0928 20896 144.554
42.2091 20798 144.215
42.3255 20078 141.697
42.4419 19128 138.304
42.5584 18564 136.25
42.675 17815 133.473
42.7915 18539 136.158
42.9081 19252 138.752
43.0248 20361 142.692
43.1415 20366 142.709
43.2582 20726 143.965
43.375 20499 143.175
43.4918 21536 146.751
43.6087 20709 143.906
43.7256 20804 144.236
43.8425 20433 142.944
43.9595 20158 141.979
44.0765 19674 140.264
44.1935 19008 137.87
44.3106 18595 136.363
44.4277 17970 134.052
44.5448 17063 130.625
44.6619 15861 125.94
44.7791 15847 125.885
44.8963 16213 127.33
45.0136 16247 127.464
45.1308 16867 129.873
45.2481 17561 132.518
45.3654 17598 132.657
45.4827 18036 134.298
45.6001 17210 131.187
45.7174 17690 133.004
45.8348 17208 131.179
45.9522 16278 127.585
46.0697 15385 124.036
46.1871 14724 121.342
46.3046 14580 120.748
46.422 15139 123.041
46.5395 15633 125.032
46.657 16140 127.043
46.7745 16713 129.279
46.892 16488 128.406
47.0096 16520 128.53
47.1271 16723 129.317
47.2446 16396 128.047
47.3622 16076 126.791
47.4797 15788 125.65
47.5973 15508 124.531
47.7149 15124 122.98
47.8324 14583 120.76
47.95 13798 117.465
48.0675 13355 115.564
48.1851 12648 112.463
48.3027 12076 109.891
48.4202 12377 111.252
48.5378 12492 111.768
48.6554 13107 114.486
48.7729 13407 115.789
48.8904 13939 118.064
49.008 14159 118.992
49.1255 14171 119.042
49.243 14068 118.609
49.3605 13801 117.478
49.478 13121 114.547
49.5955 12628 112.374
49.713 12226 110.571
49.8304 12065 109.841
49.9479 12901 113.583
50.0653 13793 117.444
50.1827 14638 120.988
50.3001 15007 122.503
50.4175 15405 124.117
50.5348 15959 126.329
50.6521 16506 128.476
50.7694 16292 127.64
50.8867 17064 130.629
51.004 17032 130.507
51.1212 17199 131.145
51.2384 17002 130.392
51.3556 17118 130.836
51.4727 16644 129.012
51.5899 15823 125.79
51.707 15352 123.903
51.824 15416 124.161
51.9411 15911 126.139
52.0581 16727 129.333
52.175 17522 132.371
52.2919 18374 135.551
52.4088 18948 137.652
52.5257 19527 139.739
52.6425 19599 139.996
52.7593 19980 141.351
52.876 19997 141.411
52.9927 19793 140.688
53.1094 19115 138.257
53.226 18175 134.815
53.3426 17954 133.993
53.4591 18536 136.147
53.5756 19664 140.228
53.692 20976 144.831
53.8084 21443 146.434
53.9248 22545 150.15
54.0411 23195 152.299
54.1573 23824 154.35
54.2735 0 1
54.3896 0 1
54.5057 0 1
54.6217 0 1
54.7377 0 1
54.8537 0 1
54.9695 0 1
55.0853 0 1
55.2011 0 1
55.3168 0 1
55.4324 0 1
57.824 0 1
57.9396 0 1
58.0553 0 1
58.1711 0 1
58.2869 0 1
58.4028 0 1
58.5187 0 1
58.6347 0 1
58.7508 0 1
58.8669 0 1
58.983 25226 158.827
59.0992 26480 162.727
59.2155 27193 164.903
59.3318 28161 167.812
59.4482 28437 168.633
59.5646 28657 169.284
59.681 28299 168.223
59.7975 27972 167.248
59.9141 27132 164.718
60.0306 26114 161.598
60.1473 25315 159.107
60.2639 23898 154.59
60.3807 22481 149.937
60.4974 22133 148.772
60.6142 21884 147.932
60.731 22035 148.442
60.8479 22792 150.97
60.9648 23778 154.201
61.0818 24665 157.051
61.1987 24692 157.137
61.3158 24587 156.802
61.4328 24344 156.026
61.5499 23486 153.251
61.667 22778 150.924
61.7841 21696 147.296
61.9013 21026 145.003
62.0185 21117 145.317
62.1357 21913 148.03
62.253 22879 151.258
62.3702 23719 154.01
62.4875 24915 157.845
62.6049 25081 158.37
62.7222 26024 161.32
62.8396 25758 160.493
62.9569 26525 162.865
63.0743 25968 161.146
63.1918 25695 160.297
63.3092 25375 159.295
63.4267 24883 157.743
63.5441 23684 153.896
63.6616 23038 151.783
63.7791 21439 146.421
63.8966 20474 143.087
64.0142 19516 139.7
64.1317 19431 139.395
64.2492 20040 141.563
64.3668 20768 144.111
64.4843 21289 145.908
64.6019 22179 148.926
64.7195 22612 150.373
64.837 22503 150.01
64.9546 22689 150.629
65.0722 21902 147.993
65.1898 20989 144.876
65.3074 20106 141.796
65.4249 19147 138.373
65.5425 18776 137.026
65.6601 19187 138.517
65.7777 20472 143.08
65.8952 21349 146.113
66.0128 22698 150.659
66.1304 23506 153.317
66.2479 23873 154.509
66.3655 24169 155.464
66.483 24787 157.439
66.6005 25043 158.25
66.718 24372 156.115
66.8355 24186 155.518
66.953 24066 155.132
67.0705 23474 153.212
67.1879 22456 149.853
67.3054 21543 146.775
67.4228 19942 141.216
67.5402 18677 136.664
67.6576 18525 136.107
67.7749 18584 136.323
67.8923 18990 137.804
68.0096 20182 142.063
68.1269 21270 145.842
68.2442 22097 148.651
68.3614 22725 150.748
68.4787 22937 151.45
68.5958 22701 150.669
68.713 22550 150.167
68.8302 21686 147.262
68.9473 20589 143.489
69.0643 19680 140.285
69.1814 19256 138.766
69.2984 20065 141.651
69.4154 21585 146.918
69.5323 22908 151.354
69.6492 23875 154.515
69.7661 24709 157.191
69.8829 25781 160.565
69.9997 26340 162.296
70.1165 26888 163.976
70.2332 27124 164.694
70.3499 26673 163.319
70.4665 26900 164.012
70.5831 26392 162.456
70.6996 25439 159.496
70.8161 24770 157.385
70.9326 23607 153.646
71.049 22249 149.161
71.1653 20475 143.091
71.2817 19368 139.169
71.3979 19209 138.597
71.5141 19343 139.079
71.6303 19666 140.236
71.7464 18736 136.88
71.8624 0 1
71.9784 0 1
72.0944 0 1
72.2102 0 1
72.3261 0 1
72.4418 0 1
72.5575 0 1
72.6732 0 1
75.1054 0 1
75.2209 0 1
75.3365 0 1
75.4521 0 1
75.5678 0 1
75.6835 0 1
75.7993 0 1
75.9151 0 1
76.031 0 1
76.147 22563 150.21
76.263 23892 154.57
76.3791 23137 152.109
76.4952 21678 147.235
76.6113 20258 142.331
76.7276 19728 140.456
76.8438 20390 142.794
76.9601 20810 144.257
77.0765 22417 149.723
77.1929 23896 154.583
77.3093 25058 158.297
77.4258 25080 158.367
77.5423 24949 157.953
77.6589 24784 157.429
77.7755 24118 155.3
77.8921 22389 149.63
78.0088 21036 145.038
78.1256 19945 141.227
78.2423 19522 139.721
78.3591 19698 140.35
78.4759 21427 146.38
78.5928 22899 151.324
78.7097 24296 155.872
78.8266 25299 159.057
78.9436 26357 162.348
79.0606 26110 161.586
79.1776 26548 162.936
79.2946 26822 163.774
79.4117 26432 162.579
79.5288 26435 162.588
79.6459 26129 161.645
79.7631 24636 156.959
79.8802 24006 154.939
79.9974 22496 149.987
80.1147 21289 145.908
80.2319 19407 139.309
80.3491 18264 135.144
80.4664 18770 137.004
80.5837 19137 138.337
80.701 20440 142.969
80.8183 21688 147.268
80.9357 22682 150.605
81.053 22715 150.715
81.1704 22823 151.073
81.2877 22363 149.543
81.4051 22229 149.094
81.5225 20847 144.385
81.6399 19184 138.506
81.7573 18743 136.905
81.8747 17232 131.271
81.9922 17626 132.763
82.1096 19061 138.062
82.227 20893 144.544
82.3444 21541 146.769
82.4619 22677 150.589
82.5793 23523 153.372
82.6967 23237 152.437
82.8142 23347 152.797
82.9316 23471 153.202
83.049 23310 152.676
83.1664 22864 151.208
83.2838 22292 149.305
83.4012 21518 146.69
83.5186 20540 143.318
83.636 19432 139.399
83.7534 18681 136.678
83.8708 16848 129.8
83.9881 16099 126.882
84.1055 16259 127.511
84.2228 16536 128.592
84.3401 17739 133.188
84.4575 19198 138.557
84.5747 20491 143.147
84.692 20830 144.326
84.8093 21285 145.894
84.9265 20594 143.506
85.0437 20366 142.709
85.1609 18720 136.821
85.2781 17786 133.364
85.3952 17119 130.84
85.5123 16725 129.325
85.6294 17492 132.257
85.7465 19216 138.622
85.8636 20843 144.371
85.9806 22164 148.876
86.0976 23305 152.66
86.2145 24093 155.219
86.3315 24702 157.169
86.4484 25687 160.272
86.5652 25578 159.931
86.682 25796 160.611
86.7988 25342 159.192
86.9156 24966 158.006
87.0323 24446 156.352
87.149 23318 152.702
87.2657 22670 150.566
87.3823 20936 144.693
87.4988 19859 140.922
87.6154 19418 139.348
87.7318 20192 142.099
87.8483 21486 146.581
87.9647 22901 151.331
88.081 24502 156.531
88.1973 25460 159.562
88.3136 25951 161.093
88.4298 25570 159.906
88.546 25298 159.053
88.6621 23752 154.117
88.7781 22397 149.656
88.8942 0 1
89.0101 0 1
89.126 0 1
89.2419 0 1
89.3577 0 1
89.4734 0 1
89.5891 0 1
89.7047 0 1
89.8203 0 1
89.9358 0 1
92.3269 0 1
92.4424 0 1
92.558 0 1
92.6736 0 1
92.7893 0 1
92.905 0 1
93.0208 0 1
93.1366 0 1
93.2525 0 1
93.3685 0 1
93.4845 0 1
93.6005 36538 191.149
93.7167 38627 196.538
93.8328 39918 199.795
93.949 40087 200.217
94.0653 39896 199.74
94.1816 38750 196.85
94.2979 37397 193.383
94.4143 36844 191.948
94.5307 36848 191.958
94.6472 37564 193.814
94.7637 40231 200.577
94.8803 43775 209.225
94.9969 46614 215.903
95.1135 49140 221.675
95.2302 51622 227.205
95.3469 53226 230.708
95.4637 54354 233.139
95.5805 56156 236.973
95.6973 57535 239.865
95.8142 58071 240.979
95.9311 57299 239.372
96.048 56954 238.65
96.1649 55830 236.284
96.2819 53795 231.937
96.3989 52257 228.598
96.516 49265 221.957
96.633 45885 214.208
96.7501 44906 211.91
96.8673 45666 213.696
96.9844 47889 218.836
97.1016 51019 225.874
97.2188 54930 234.371
97.336 56972 238.688
97.4532 57324 239.424
97.5704 57111 238.979
97.6877 55605 235.807
97.805 52478 229.081
97.9223 48892 221.115
98.0396 45262 212.749
98.1569 43619 208.852
98.2743 43213 207.877
98.3916 44618 211.23
98.509 48283 219.734
98.6264 51095 226.042
98.7438 53644 231.612
98.8612 55178 234.9
98.9786 56837 238.405
99.096 58307 241.468
99.2134 58465 241.795
99.3308 59197 243.304
99.4482 59001 242.901
99.5656 58555 241.981
99.6831 56997 238.74
99.8005 54966 234.448
99.9179 53601 231.519
100.035 51119 226.095
100.153 47804 218.641
100.27 44568 211.111
100.388 43996 209.752
100.505 45617 213.581
100.622 49087 221.556
100.74 52612 229.373
100.857 54161 232.725
100.975 55250 235.053
101.092 54738 233.962
101.209 53700 231.733
101.327 51573 227.097
101.444 48981 221.317
101.561 44544 211.054
101.679 41558 203.858
101.796 39662 199.153
101.913 39440 198.595
102.03 41101 202.734
102.148 44461 210.858
102.265 49356 222.162
102.382 44431 210.787
102.499 47554 218.069
102.616 48023 219.142
102.733 47849 218.744
102.851 47523 217.998
102.968 46620 215.917
103.085 45209 212.624
103.202 43265 208.002
103.319 41100 202.731
103.436 39339 198.341
103.552 36574 191.243
103.669 34173 184.859
103.786 30500 174.642
103.903 29311 171.205
104.02 29192 170.857
104.137 30189 173.75
104.253 32352 179.867
104.37 31875 178.536
104.487 33232 182.296
104.603 32316 179.767
104.72 31777 178.261
104.836 30263 173.963
104.953 28087 167.592
105.069 26232 161.963
105.186 25178 158.676
105.302 24041 155.052
105.418 24538 156.646
105.535 26032 161.344
105.651 28041 167.454
105.767 29436 171.569
105.883 30957 175.946
105.999 32304 179.733
106.115 0 1
106.231 0 1
106.347 0 1
106.463 0 1
106.579 0 1
106.694 0 1
106.81 0 1
106.926 0 1
107.041 0 1
107.157 0 1
109.576 0 1
109.692 0 1
109.807 0 1
109.923 0 1
110.039 0 1
110.155 0 1
110.27 0 1
110.386 0 1
110.502 0 1
110.618 24733 157.267
110.735 27256 165.094
110.851 28888 169.965
110.967 30119 173.548
111.083 30642 175.049
111.199 31402 177.206
111.316 31605 177.778
111.432 31846 178.454
111.549 31420 177.257
111.665 31178 176.573
111.782 30086 173.453
111.898 29212 170.915
112.015 28512 168.855
112.132 26951 164.168
112.248 24887 157.756
112.365 23792 154.247
112.482 23511 153.333
112.599 23856 154.454
112.716 25011 158.149
112.832 26609 163.123
112.949 27685 166.388
113.066 28162 167.815
113.183 27606 166.151
113.3 27225 165
113.417 26516 162.837
113.534 25384 159.324
113.652 23725 154.029
113.769 23281 152.581
113.886 22804 151.01
114.003 22608 150.36
114.12 24661 157.038
114.238 26870 163.921
114.355 28159 167.806
114.472 30671 175.131
114.589 28764 169.6
114.707 30401 174.359
114.824 30580 174.871
114.942 31210 176.664
115.059 31428 177.279
115.176 31061 176.241
115.294 30543 174.766
115.411 30075 173.421
115.529 28888 169.965
115.646 27960 167.212
115.764 27005 164.332
115.881 24952 157.962
115.999 24034 155.029
116.116 24113 155.284
116.234 25290 159.028
116.351 26641 163.221
116.469 28060 167.511
116.586 28447 168.662
116.704 28307 168.247
116.821 28038 167.446
116.939 27676 166.361
117.056 26732 163.499
117.174 25551 159.847
117.291 24782 157.423
117.409 24131 155.342
117.526 23599 153.62
117.644 24287 155.843
117.761 26821 163.771
117.879 27847 166.874
117.996 29266 171.073
118.114 30471 174.559
118.231 31166 176.539
118.349 31780 178.269
118.466 31929 178.687
118.584 32374 179.928
118.701 32513 180.314
118.819 32004 178.897
118.936 30797 175.491
119.053 30078 173.43
119.171 29193 170.86
119.288 28271 168.14
119.405 26963 164.204
119.523 25413 159.415
119.64 24448 156.359
119.757 24584 156.793
119.875 25710 160.343
119.992 26572 163.009
120.109 27547 165.973
120.226 28146 167.768
120.343 28120 167.69
120.46 28009 167.359
120.578 27840 166.853
120.695 27212 164.961
120.812 26173 161.781
120.929 25193 158.723
121.046 24661 157.038
121.163 24326 155.968
121.279 24488 156.486
121.396 26166 161.759
121.513 27773 166.652
121.63 29036 170.4
121.747 30121 173.554
121.863 30827 175.576
121.98 31128 176.431
122.097 32112 179.198
122.213 31613 177.8
122.33 32206 179.46
122.446 31673 177.969
122.563 30938 175.892
122.679 30432 174.448
122.795 29486 171.715
122.912 28481 168.763
123.028 27817 166.784
123.144 26357 162.348
123.26 24907 157.82
123.377 0 1
123.493 0 1
123.609 0 1
123.725 0 1
123.84 0 1
123.956 0 1
124.072 0 1
124.188 0 1
124.303 0 1
124.419 0 1
126.852 0 1
126.968 0 1
127.083 0 1
127.199 0 1
127.315 0 1
127.431 0 1
127.547 0 1
127.663 0 1
127.779 0 1
127.895 0 1
128.011 0 1
128.127 0 1
128.243 0 1
128.359 29554 171.913
128.476 27778 166.667
128.592 27245 165.061
128.708 27281 165.17
128.825 28398 168.517
128.941 29273 171.094
129.058 30958 175.949
129.174 31002 176.074
129.291 31280 176.862
129.408 31057 176.23
129.524 30701 175.217
129.641 30117 173.543
129.758 28533 168.917
129.875 27659 166.31
129.992 26969 164.222
130.108 26664 163.291
130.225 26872 163.927
130.342 28119 167.687
130.459 29325 171.245
130.576 31412 177.234
130.693 31822 178.387
130.81 32412 180.033
130.928 32695 180.818
131.045 33020 181.714
131.162 33094 181.918
131.279 33380 182.702
131.396 33162 182.104
131.513 33040 181.769
131.631 31921 178.664
131.748 31375 177.13
131.865 30541 174.76
131.983 28976 170.223
132.1 27558 166.006
132.217 27544 165.964
132.335 27827 166.814
132.452 29174 170.804
132.57 30671 175.131
132.687 30342 174.19
132.804 32294 179.705
132.922 30942 175.903
133.039 30971 175.986
133.157 30608 174.951
133.274 29187 170.842
133.392 28060 167.511
133.509 27479 165.768
133.627 26704 163.414
133.744 26880 163.951
133.862 27602 166.138
133.979 29088 170.552
134.097 30232 173.874
134.214 31443 177.322
134.332 31802 178.331
134.449 32263 179.619
134.567 32265 179.625
134.684 33035 181.755
134.802 32988 181.626
134.919 33349 182.617
135.037 33015 181.7
135.154 32420 180.056
135.272 31466 177.387
135.389 31188 176.601
135.507 29797 172.618
135.624 28371 168.437
135.742 27375 165.454
135.859 27811 166.766
135.977 28283 168.176
136.094 29487 171.718
136.211 30923 175.849
136.329 31240 176.748
136.446 31261 176.808
136.564 30985 176.026
136.681 30986 176.028
136.798 30319 174.124
136.915 29047 170.432
137.033 28064 167.523
137.15 27338 165.342
137.267 27070 164.53
137.384 26665 163.294
137.502 27469 165.738
137.619 28968 170.2
137.736 29889 172.884
137.853 30208 173.804
137.97 31430 177.285
138.087 31331 177.006
138.204 32087 179.128
138.321 32458 180.161
138.438 32987 181.623
138.555 33451 182.896
138.672 33220 182.264
138.788 32523 180.341
138.905 32253 179.591
139.022 31593 177.744
139.139 30512 174.677
139.255 29259 171.053
139.372 28356 168.392
139.488 28133 167.729
139.605 28864 169.894
139.721 30471 174.559
139.838 31307 176.938
139.954 31573 177.688
140.071 31457 177.361
140.187 31554 177.634
140.303 30921 175.844
140.419 30303 174.078
140.535 29295 171.158
140.652 27878 166.967
140.768 0 1
140.884 0 1
141 0 1
141.115 0 1
141.231 0 1
141.347 0 1
141.463 0 1
141.578 0 1
141.694 0 1
144.104 0 1
144.219 0 1
144.335 0 1
144.45 0 1
144.566 0 1
144.682 0 1
144.798 0 1
144.914 0 1
145.03 0 1
145.146 28641 169.237
145.262 28752 169.564
145.378 28374 168.446
145.494 27642 166.259
145.61 26801 163.71
145.726 26255 162.034
145.842 25690 160.281
145.959 25076 158.354
146.075 25153 158.597
146.192 26428 162.567
146.308 27528 165.916
146.425 28266 168.125
146.541 28710 169.44
146.658 28791 169.679
146.774 29350 171.318
146.891 30095 173.479
147.008 29961 173.092
147.125 30918 175.835
147.241 30729 175.297
147.358 29965 173.104
147.475 29949 173.058
147.592 29459 171.636
147.709 28708 169.434
147.826 27378 165.463
147.943 26545 162.926
148.06 26108 161.58
148.177 26702 163.407
148.294 27668 166.337
148.411 28795 169.691
148.528 29343 171.298
148.645 29331 171.263
148.762 29636 172.151
148.88 29378 171.4
148.997 28636 169.222
149.114 29129 170.672
149.231 27507 165.852
149.349 26868 163.915
149.466 25686 160.269
149.583 25615 160.047
149.701 25143 158.565
149.818 26411 162.515
149.935 26906 164.03
150.053 28016 167.38
150.17 28671 169.325
150.287 29013 170.332
150.405 29685 172.293
150.522 29940 173.032
150.64 30667 175.12
150.757 30675 175.143
150.875 31247 176.768
150.992 31062 176.244
151.11 30404 174.367
151.227 30030 173.292
151.344 28783 169.656
151.462 27956 167.2
151.579 27095 164.606
151.697 26689 163.368
151.814 27190 164.894
151.932 27570 166.042
152.049 29371 171.38
152.167 29573 171.968
152.284 30331 174.158
152.402 29819 172.682
152.519 29863 172.809
152.636 29013 170.332
152.754 29102 170.593
152.871 27877 166.964
152.989 27185 164.879
153.106 26420 162.542
153.223 25754 160.481
153.341 25894 160.916
153.458 26533 162.89
153.575 27851 166.886
153.693 28227 168.009
153.81 29087 170.549
153.927 29585 172.003
154.044 30236 173.885
154.162 30648 175.066
154.279 31173 176.559
154.396 31540 177.595
154.513 32078 179.103
154.63 31811 178.356
154.747 31615 177.806
154.864 31111 176.383
154.981 30427 174.433
155.098 29347 171.31
155.215 28116 167.678
155.332 27746 166.571
155.449 28187 167.89
155.566 28973 170.215
155.683 30540 174.757
155.8 30361 174.244
155.917 30428 174.436
156.033 30393 174.336
156.15 0 1
156.267 0 1
156.383 0 1
156.5 0 1
156.617 0 1
156.733 0 1
156.85 0 1
156.966 0 1
157.082 0 1
157.199 0 1
157.315 0 1
157.431 0 1
157.547 0 1
157.664 0 1
157.78 0 1
157.896 0 1
158.012 0 1
158.128 0 1
158.244 0 1
158.359 0 1
158.475 0 1
158.591 0 1
158.706 0 1
