
6.15755 0 1
6.2731 0 1
6.3887 0 1
6.50437 0 1
6.62009 0 1
6.73587 0 1
6.8517 0 1
6.96759 0 1
7.08353 0 1
7.19952 0 1
7.31557 0 1
7.43166 0 1
7.54781 0 1
7.664 0 1
7.78024 0 1
7.89653 0 1
8.01286 0 1
8.12924 0 1
8.24567 0 1
8.36213 0 1
8.47864 0 1
8.59519 0 1
8.71178 0 1
8.82841 0 1
8.94508 0 1
9.06179 0 1
9.17853 0 1
9.29531 0 1
9.41212 0 1
9.52897 0 1
9.64584 0 1
9.76276 0 1
9.8797 0 1
9.99667 0 1
10.1137 0 1
10.2307 0 1
10.3478 0 1
10.4648 0 1
10.5819 0 1
10.6991 0 1
10.8162 0 1
10.9334 0 1
11.0506 0 1
11.1678 0 1
11.285 0 1
11.4023 0 1
11.5196 0 1
11.6369 0 1
11.7542 0 1
11.8715 0 1
11.9888 0 1
12.1062 0 1
12.2235 0 1
12.3409 0 1
12.4582 0 1
12.5756 0 1
12.693 0 1
12.8104 0 1
12.9278 0 1
13.0452 0 1
13.1626 0 1
13.28 0 1
13.3974 0 1
13.5149 0 1
13.6323 0 1
13.7497 0 1
13.8671 0 1
13.9845 0 1
14.1019 0 1
14.2193 0 1
14.3367 0 1
14.4541 0 1
14.5714 0 1
14.6888 0 1
14.8062 0 1
14.9235 0 1
15.0408 1122 33.4963
15.1581 1200 34.641
15.2755 1381 37.1618
15.3927 1305 36.1248
15.51 1316 36.2767
15.6273 1327 36.428
15.7445 1256 35.4401
15.8617 1311 36.2077
15.9789 1260 35.4965
16.0961 1263 35.5387
16.2132 1336 36.5513
16.3304 1267 35.5949
16.4475 1318 36.3043
16.5646 1374 37.0675
16.6816 1396 37.3631
16.7986 1340 36.606
16.9156 1361 36.8917
17.0326 1295 35.9861
17.1496 1389 37.2693
17.2665 1322 36.3593
17.3833 1313 36.2353
17.5002 1362 36.9053
17.617 1327 36.428
17.7338 1315 36.2629
17.8505 1363 36.9188
17.9672 1249 35.3412
18.0839 1255 35.426
18.2005 1268 35.609
18.3171 1221 34.9428
18.4337 1264 35.5528
18.5502 1276 35.7211
18.6666 1348 36.7151
18.7831 1395 37.3497
18.8994 1347 36.7015
19.0158 1282 35.805
19.1321 1326 36.4143
19.2483 1314 36.2491
19.3645 1146 33.8526
19.4806 1160 34.0588
19.5967 1088 32.9848
19.7128 1069 32.6956
19.8288 1007 31.7333
19.9447 961 31
20.0606 0 1
20.1764 0 1
20.2922 0 1
20.4079 0 1
20.5236 0 1
20.6392 0 1
20.7548 0 1
20.8702 0 1
23.3078 0 1
23.4233 0 1
23.539 0 1
23.6547 0 1
23.7704 0 1
23.8862 0 1
24.0021 0 1
24.118 0 1
24.234 0 1
24.35 0 1
24.4661 484 22
24.5822 509 22.561
24.6984 633 25.1595
24.8146 768 27.7128
24.9309 904 30.0666
25.0472 1030 32.0936
25.1636 1143 33.8083
25.28 1290 35.9166
25.3965 1359 36.8646
25.513 1333 36.5103
25.6296 1457 38.1707
25.7462 1481 38.4838
25.8628 1495 38.6652
25.9795 1484 38.5227
26.0962 1469 38.3275
26.213 1469 38.3275
26.3298 1565 39.5601
26.4466 1491 38.6135
26.5635 1383 37.1887
26.6804 1335 36.5377
26.7973 1327 36.428
26.9143 1317 36.2905
27.0313 1326 36.4143
27.1483 1333 36.5103
27.2653 1360 36.8782
27.3824 1390 37.2827
27.4996 1428 37.7889
27.6167 1365 36.9459
27.7339 1325 36.4005
27.8511 1282 35.805
27.9683 1257 35.4542
28.0855 1339 36.5923
28.2028 1310 36.1939
28.3201 1267 35.5949
28.4374 1319 36.318
28.5547 1398 37.3898
28.6721 1450 38.0789
28.7894 1435 37.8814
28.9068 1433 37.855
29.0242 1431 37.8286
29.1416 1477 38.4318
29.259 1383 37.1887
29.3764 1428 37.7889
29.4939 1451 38.092
29.6113 1503 38.7685
29.7288 1388 37.2559
29.8463 1453 38.1182
29.9638 1377 37.108
30.0812 1364 36.9324
30.1987 1346 36.6879
30.3162 1398 37.3898
30.4337 1217 34.8855
30.5512 1209 34.7707
30.6687 1254 35.4119
30.7862 1249 35.3412
30.9037 1326 36.4143
31.0212 1341 36.6197
31.1387 1368 36.9865
31.2562 1349 36.7287
31.3737 1251 35.3695
31.4912 1313 36.2353
31.6087 1257 35.4542
31.7262 1274 35.6931
31.8436 1287 35.8748
31.9611 1315 36.2629
32.0785 1332 36.4966
32.1959 1334 36.524
32.3134 1397 37.3765
32.4308 1386 37.229
32.5482 1408 37.5233
32.6655 1402 37.4433
32.7829 1423 37.7227
32.9002 1345 36.6742
33.0176 1360 36.8782
33.1349 1359 36.8646
33.2522 1386 37.229
33.3694 1360 36.8782
33.4867 1425 37.7492
33.6039 1403 37.4566
33.7211 1345 36.6742
33.8383 1282 35.805
33.9554 1262 35.5246
34.0725 1280 35.7771
34.1896 1242 35.242
34.3067 1165 34.1321
34.4237 1232 35.0999
34.5407 1273 35.6791
34.6577 1338 36.5787
34.7746 1359 36.8646
34.8915 1258 35.4683
35.0084 1228 35.0428
35.1252 1231 35.0856
35.242 1240 35.2136
35.3587 1237 35.171
35.4755 1165 34.1321
35.5921 1219 34.9142
35.7088 1341 36.6197
35.8254 1314 36.2491
35.9419 1355 36.8103
36.0584 1368 36.9865
36.1749 1331 36.4829
36.2913 1312 36.2215
36.4077 1240 35.2136
36.524 1335 36.5377
36.6403 1171 34.2199
36.7565 1156 34
36.8727 1063 32.6037
36.9889 972 31.1769
37.1049 893 29.8831
37.221 0 1
37.3369 0 1
37.4529 0 1
37.5687 0 1
37.6845 0 1
37.8003 0 1
37.916 0 1
38.0316 0 1
38.1472 0 1
40.5851 0 1
40.7008 0 1
40.8164 0 1
40.9322 0 1
41.048 0 1
41.1639 0 1
41.2798 0 1
41.3958 0 1
41.5118 0 1
41.6279 0 1
41.744 480 21.9089
41.8602 645 25.3969
41.9765 709 26.6271
42.0928 815 28.5482
42.2091 905 30.0832
42.3255 1004 31.686
42.4419 1041 32.2645
42.5584 1156 34
42.675 1090 33.0151
42.7915 1079 32.8481
42.9081 1033 32.1403
43.0248 1069 32.6956
43.1415 1005 31.7017
43.2582 1027 32.0468
43.375 1081 32.8786
43.4918 1101 33.1813
43.6087 1029 32.078
43.7256 1124 33.5261
43.8425 1030 32.0936
43.9595 1086 32.9545
44.0765 1050 32.4037
44.1935 1082 32.8938
44.3106 1058 32.5269
44.4277 1079 32.8481
44.5448 1107 33.2716
44.6619 1111 33.3317
44.7791 1113 33.3617
44.8963 1113 33.3617
45.0136 1125 33.541
45.1308 1229 35.0571
45.2481 1165 34.1321
45.3654 1198 34.6121
45.4827 1155 33.9853
45.6001 1172 34.2345
45.7174 1153 33.9559
45.8348 1216 34.8712
45.9522 1133 33.6601
46.0697 1164 34.1174
46.1871 1156 34
46.3046 1115 33.3916
46.422 1060 32.5576
46.5395 1073 32.7567
46.657 1064 32.619
46.7745 1104 33.2265
46.892 1107 33.2716
47.0096 1122 33.4963
47.1271 1163 34.1028
47.2446 1184 34.4093
47.3622 1129 33.6006
47.4797 1144 33.8231
47.5973 1062 32.5883
47.7149 1058 32.5269
47.8324 1063 32.6037
47.95 1147 33.8674
48.0675 1139 33.7491
48.1851 1155 33.9853
48.3027 1135 33.6898
48.4202 1220 34.9285
48.5378 1252 35.3836
48.6554 1189 34.4819
48.7729 1231 35.0856
48.8904 1266 35.5809
49.008 1143 33.8083
49.1255 1174 34.2637
49.243 1145 33.8378
49.3605 1165 34.1321
49.478 1152 33.9411
49.5955 1142 33.7935
49.713 1116 33.4066
49.8304 1154 33.9706
49.9479 1097 33.121
50.0653 1022 31.9687
50.1827 1018 31.9061
50.3001 1070 32.7109
50.4175 1030 32.0936
50.5348 1122 33.4963
50.6521 1044 32.311
50.7694 1106 33.2566
50.8867 1119 33.4515
51.004 1066 32.6497
51.1212 1062 32.5883
51.2384 1061 32.573
51.3556 1109 33.3017
51.4727 1071 32.7261
51.5899 1203 34.6843
51.707 1091 33.0303
51.824 1195 34.5688
51.9411 1168 34.176
52.0581 1128 33.5857
52.175 1193 34.5398
52.2919 1274 35.6931
52.4088 1166 34.1467
52.5257 1158 34.0294
52.6425 1220 34.9285
52.7593 1182 34.3802
52.876 1195 34.5688
52.9927 1254 35.4119
53.1094 1149 33.8969
53.226 1106 33.2566
53.3426 1158 34.0294
53.4591 1121 33.4813
53.5756 1117 33.4215
53.692 1035 32.1714
53.8084 912 30.1993
53.9248 795 28.1957
54.0411 717 26.7769
54.1573 646 25.4165
54.2735 0 1
54.3896 0 1
54.5057 0 1
54.6217 0 1
54.7377 0 1
54.8537 0 1
54.9695 0 1
55.0853 0 1
55.2011 0 1
55.3168 0 1
55.4324 0 1
57.824 0 1
57.9396 0 1
58.0553 0 1
58.1711 0 1
58.2869 0 1
58.4028 0 1
58.5187 0 1
58.6347 0 1
58.7508 0 1
58.8669 0 1
58.983 656 25.6125
59.0992 771 27.7669
59.2155 937 30.6105
59.3318 1098 33.1361
59.4482 1177 34.3074
59.5646 1230 35.0714
59.681 1311 36.2077
59.7975 1375 37.081
59.9141 1481 38.4838
60.0306 1424 37.7359
60.1473 1410 37.55
60.2639 1527 39.0768
60.3807 1569 39.6106
60.4974 1489 38.5876
60.6142 1506 38.8072
60.731 1545 39.3065
60.8479 1538 39.2173
60.9648 1487 38.5616
61.0818 1557 39.4588
61.1987 1439 37.9342
61.3158 1468 38.3145
61.4328 1463 38.2492
61.5499 1391 37.2961
61.667 1475 38.4057
61.7841 1516 38.9358
61.9013 1443 37.9868
62.0185 1438 37.921
62.1357 1465 38.2753
62.253 1430 37.8153
62.3702 1373 37.054
62.4875 1349 36.7287
62.6049 1363 36.9188
62.7222 1399 37.4032
62.8396 1374 37.0675
62.9569 1413 37.5899
63.0743 1335 36.5377
63.1918 1378 37.1214
63.3092 1433 37.855
63.4267 1373 37.054
63.5441 1453 38.1182
63.6616 1499 38.7169
63.7791 1477 38.4318
63.8966 1469 38.3275
64.0142 1504 38.7814
64.1317 1540 39.2428
64.2492 1431 37.8286
64.3668 1457 38.1707
64.4843 1403 37.4566
64.6019 1407 37.51
64.7195 1513 38.8973
64.837 1429 37.8021
64.9546 1427 37.7757
65.0722 1395 37.3497
65.1898 1450 38.0789
65.3074 1414 37.6032
65.4249 1448 38.0526
65.5425 1402 37.4433
65.6601 1488 38.5746
65.7777 1398 37.3898
65.8952 1399 37.4032
66.0128 1377 37.108
66.1304 1355 36.8103
66.2479 1301 36.0694
66.3655 1345 36.6742
66.483 1339 36.5923
66.6005 1363 36.9188
66.718 1345 36.6742
66.8355 1375 37.081
66.953 1359 36.8646
67.0705 1386 37.229
67.1879 1424 37.7359
67.3054 1418 37.6563
67.4228 1426 37.7624
67.5402 1460 38.2099
67.6576 1398 37.3898
67.7749 1407 37.51
67.8923 1398 37.3898
68.0096 1364 36.9324
68.1269 1361 36.8917
68.2442 1461 38.223
68.3614 1440 37.9473
68.4787 1462 38.2361
68.5958 1424 37.7359
68.713 1447 38.0395
68.8302 1377 37.108
68.9473 1370 37.0135
69.0643 1392 37.3095
69.1814 1367 36.973
69.2984 1451 38.092
69.4154 1359 36.8646
69.5323 1339 36.5923
69.6492 1340 36.606
69.7661 1326 36.4143
69.8829 1284 35.8329
69.9997 1320 36.3318
70.1165 1284 35.8329
70.2332 1344 36.6606
70.3499 1252 35.3836
70.4665 1199 34.6266
70.5831 1070 32.7109
70.6996 1076 32.8024
70.8161 942 30.692
70.9326 843 29.0345
71.049 792 28.1425
71.1653 721 26.8514
71.2817 647 25.4362
71.3979 583 24.1454
71.5141 542 23.2809
71.6303 514 22.6716
71.7464 448 21.166
71.8624 0 1
71.9784 0 1
72.0944 0 1
72.2102 0 1
72.3261 0 1
72.4418 0 1
72.5575 0 1
72.6732 0 1
75.1054 0 1
75.2209 0 1
75.3365 0 1
75.4521 0 1
75.5678 0 1
75.6835 0 1
75.7993 0 1
75.9151 0 1
76.031 0 1
76.147 761 27.5862
76.263 951 30.8383
76.3791 1089 33
76.4952 1136 33.7046
76.6113 1159 34.0441
76.7276 1166 34.1467
76.8438 1154 33.9706
76.9601 1159 34.0441
77.0765 1194 34.5543
77.1929 1248 35.327
77.3093 1275 35.7071
77.4258 1235 35.1426
77.5423 1198 34.6121
77.6589 1243 35.2562
77.7755 1225 35
77.8921 1263 35.5387
78.0088 1261 35.5106
78.1256 1268 35.609
78.2423 1243 35.2562
78.3591 1169 34.1906
78.4759 1314 36.2491
78.5928 1332 36.4966
78.7097 1316 36.2767
78.8266 1183 34.3948
78.9436 1155 33.9853
79.0606 1132 33.6452
79.1776 1217 34.8855
79.2946 1203 34.6843
79.4117 1203 34.6843
79.5288 1244 35.2704
79.6459 1327 36.428
79.7631 1335 36.5377
79.8802 1301 36.0694
79.9974 1364 36.9324
80.1147 1295 35.9861
80.2319 1321 36.3456
80.3491 1278 35.7491
80.4664 1327 36.428
80.5837 1264 35.5528
80.701 1295 35.9861
80.8183 1424 37.7359
80.9357 1342 36.6333
81.053 1334 36.524
81.1704 1353 36.7831
81.2877 1432 37.8418
81.4051 1356 36.8239
81.5225 1273 35.6791
81.6399 1303 36.0971
81.7573 1254 35.4119
81.8747 1201 34.6554
81.9922 1237 35.171
82.1096 1255 35.426
82.227 1233 35.1141
82.3444 1236 35.1568
82.4619 1300 36.0555
82.5793 1264 35.5528
82.6967 1163 34.1028
82.8142 1140 33.7639
82.9316 1224 34.9857
83.049 1152 33.9411
83.1664 1172 34.2345
83.2838 1184 34.4093
83.4012 1224 34.9857
83.5186 1349 36.7287
83.636 1290 35.9166
83.7534 1275 35.7071
83.8708 1227 35.0286
83.9881 1196 34.5832
84.1055 1259 35.4824
84.2228 1141 33.7787
84.3401 1183 34.3948
84.4575 1161 34.0735
84.5747 1154 33.9706
84.692 1123 33.5112
84.8093 1142 33.7935
84.9265 1176 34.2929
85.0437 1133 33.6601
85.1609 1032 32.1248
85.2781 1082 32.8938
85.3952 1069 32.6956
85.5123 1033 32.1403
85.6294 1012 31.8119
85.7465 1013 31.8277
85.8636 1003 31.6702
85.9806 996 31.5595
86.0976 973 31.1929
86.2145 930 30.4959
86.3315 884 29.7321
86.4484 877 29.6142
86.5652 900 30
86.682 867 29.4449
86.7988 876 29.5973
86.9156 888 29.7993
87.0323 870 29.4958
87.149 873 29.5466
87.2657 898 29.9666
87.3823 817 28.5832
87.4988 818 28.6007
87.6154 785 28.0179
87.7318 731 27.037
87.8483 719 26.8142
87.9647 643 25.3574
88.081 585 24.1868
88.1973 483 21.9773
88.3136 441 21
88.4298 367 19.1572
88.546 367 19.1572
88.6621 324 18
88.7781 285 16.8819
88.8942 0 1
89.0101 0 1
89.126 0 1
89.2419 0 1
89.3577 0 1
89.4734 0 1
89.5891 0 1
89.7047 0 1
89.8203 0 1
89.9358 0 1
92.3269 0 1
92.4424 0 1
92.558 0 1
92.6736 0 1
92.7893 0 1
92.905 0 1
93.0208 0 1
93.1366 0 1
93.2525 0 1
93.3685 0 1
93.4845 0 1
93.6005 516 22.7156
93.7167 608 24.6577
93.8328 701 26.4764
93.949 765 27.6586
94.0653 792 28.1425
94.1816 826 28.7402
94.2979 801 28.3019
94.4143 828 28.775
94.5307 904 30.0666
94.6472 837 28.931
94.7637 852 29.189
94.8803 927 30.4467
94.9969 928 30.4631
95.1135 938 30.6268
95.2302 947 30.7734
95.3469 973 31.1929
95.4637 912 30.1993
95.5805 883 29.7153
95.6973 921 30.348
95.8142 906 30.0998
95.9311 899 29.9833
96.048 902 30.0333
96.1649 892 29.8664
96.2819 974 31.209
96.3989 1011 31.7962
96.516 1050 32.4037
96.633 1029 32.078
96.7501 1125 33.541
96.8673 1016 31.8748
96.9844 1059 32.5423
97.1016 1113 33.3617
97.2188 1013 31.8277
97.336 1093 33.0606
97.4532 1121 33.4813
97.5704 1102 33.1964
97.6877 1118 33.4365
97.805 1119 33.4515
97.9223 1033 32.1403
98.0396 1078 32.8329
98.1569 1127 33.5708
98.2743 1168 34.176
98.3916 1196 34.5832
98.509 1090 33.0151
98.6264 1196 34.5832
98.7438 1173 34.2491
98.8612 1179 34.3366
98.9786 1108 33.2866
99.096 1141 33.7787
99.2134 1101 33.1813
99.3308 1204 34.6987
99.4482 1199 34.6266
99.5656 1242 35.242
99.6831 1208 34.7563
99.8005 1182 34.3802
99.9179 1216 34.8712
100.035 1212 34.8138
100.153 1292 35.9444
100.27 1293 35.9583
100.388 1239 35.1994
100.505 1234 35.1283
100.622 1264 35.5528
100.74 1300 36.0555
100.857 1239 35.1994
100.975 1228 35.0428
101.092 1288 35.8887
101.209 1259 35.4824
101.327 1277 35.7351
101.444 1293 35.9583
101.561 1238 35.1852
101.679 1228 35.0428
101.796 1236 35.1568
101.913 1265 35.5668
102.03 1242 35.242
102.148 1229 35.0571
102.265 1327 36.428
102.382 1374 37.0675
102.499 1202 34.6699
102.616 1243 35.2562
102.733 1249 35.3412
102.851 1260 35.4965
102.968 1334 36.524
103.085 1257 35.4542
103.202 1290 35.9166
103.319 1265 35.5668
103.436 1349 36.7287
103.552 1262 35.5246
103.669 1405 37.4833
103.786 1410 37.55
103.903 1354 36.7967
104.02 1314 36.2491
104.137 1334 36.524
104.253 1297 36.0139
104.37 1332 36.4966
104.487 1335 36.5377
104.603 1374 37.0675
104.72 1382 37.1753
104.836 1364 36.9324
104.953 1425 37.7492
105.069 1378 37.1214
105.186 1360 36.8782
105.302 1296 36
105.418 1070 32.7109
105.535 1037 32.2025
105.651 848 29.1204
105.767 770 27.7489
105.883 700 26.4575
105.999 606 24.6171
106.115 0 1
106.231 0 1
106.347 0 1
106.463 0 1
106.579 0 1
106.694 0 1
106.81 0 1
106.926 0 1
107.041 0 1
107.157 0 1
109.576 0 1
109.692 0 1
109.807 0 1
109.923 0 1
110.039 0 1
110.155 0 1
110.27 0 1
110.386 0 1
110.502 0 1
110.618 678 26.0384
110.735 843 29.0345
110.851 903 30.05
110.967 911 30.1828
111.083 1034 32.1559
111.199 1106 33.2566
111.316 1125 33.541
111.432 1197 34.5977
111.549 1183 34.3948
111.665 1214 34.8425
111.782 1175 34.2783
111.898 1239 35.1994
112.015 1229 35.0571
112.132 1264 35.5528
112.248 1204 34.6987
112.365 1211 34.7994
112.482 1273 35.6791
112.599 1241 35.2278
112.716 1178 34.322
112.832 1250 35.3553
112.949 1253 35.3977
113.066 1188 34.4674
113.183 1228 35.0428
113.3 1230 35.0714
113.417 1210 34.7851
113.534 1193 34.5398
113.652 1201 34.6554
113.769 1250 35.3553
113.886 1163 34.1028
114.003 1257 35.4542
114.12 1184 34.4093
114.238 1202 34.6699
114.355 1194 34.5543
114.472 1138 33.7343
114.589 1200 34.641
114.707 1185 34.4238
114.824 1179 34.3366
114.942 1173 34.2491
115.059 1253 35.3977
115.176 1165 34.1321
115.294 1198 34.6121
115.411 1130 33.6155
115.529 1190 34.4964
115.646 1230 35.0714
115.764 1140 33.7639
115.881 1253 35.3977
115.999 1199 34.6266
116.116 1216 34.8712
116.234 1174 34.2637
116.351 1170 34.2053
116.469 1144 33.8231
116.586 1143 33.8083
116.704 1243 35.2562
116.821 1188 34.4674
116.939 1194 34.5543
117.056 1272 35.6651
117.174 1231 35.0856
117.291 1178 34.322
117.409 1158 34.0294
117.526 1149 33.8969
117.644 1213 34.8281
117.761 1194 34.5543
117.879 1166 34.1467
117.996 1144 33.8231
118.114 1081 32.8786
118.231 1144 33.8231
118.349 1112 33.3467
118.466 1132 33.6452
118.584 1125 33.541
118.701 1205 34.7131
118.819 1190 34.4964
118.936 1139 33.7491
119.053 1053 32.45
119.171 1110 33.3167
119.288 1054 32.4654
119.405 1170 34.2053
119.523 1181 34.3657
119.64 1149 33.8969
119.757 1115 33.3916
119.875 1162 34.0881
119.992 1120 33.4664
120.109 1090 33.0151
120.226 1167 34.1614
120.343 1155 33.9853
120.46 1137 33.7194
120.578 1139 33.7491
120.695 1182 34.3802
120.812 1115 33.3916
120.929 1157 34.0147
121.046 1117 33.4215
121.163 1096 33.1059
121.279 1121 33.4813
121.396 1147 33.8674
121.513 1103 33.2114
121.63 1132 33.6452
121.747 1042 32.28
121.863 1060 32.5576
121.98 1007 31.7333
122.097 1016 31.8748
122.213 998 31.5911
122.33 905 30.0832
122.446 828 28.775
122.563 715 26.7395
122.679 665 25.7876
122.795 658 25.6515
122.912 541 23.2594
123.028 549 23.4307
123.144 577 24.0208
123.26 516 22.7156
123.377 0 1
123.493 0 1
123.609 0 1
123.725 0 1
123.84 0 1
123.956 0 1
124.072 0 1
124.188 0 1
124.303 0 1
124.419 0 1
126.852 0 1
126.968 0 1
127.083 0 1
127.199 0 1
127.315 0 1
127.431 0 1
127.547 0 1
127.663 0 1
127.779 0 1
127.895 0 1
128.011 0 1
128.127 0 1
128.243 0 1
128.359 1125 33.541
128.476 1229 35.0571
128.592 1261 35.5106
128.708 1290 35.9166
128.825 1286 35.8608
128.941 1315 36.2629
129.058 1281 35.7911
129.174 1291 35.9305
129.291 1316 36.2767
129.408 1316 36.2767
129.524 1307 36.1525
129.641 1281 35.7911
129.758 1246 35.2987
129.875 1259 35.4824
129.992 1364 36.9324
130.108 1365 36.9459
130.225 1273 35.6791
130.342 1251 35.3695
130.459 1203 34.6843
130.576 1150 33.9116
130.693 1231 35.0856
130.81 1192 34.5254
130.928 1132 33.6452
131.045 1192 34.5254
131.162 1202 34.6699
131.279 1164 34.1174
131.396 1169 34.1906
131.513 1227 35.0286
131.631 1213 34.8281
131.748 1184 34.4093
131.865 1174 34.2637
131.983 1211 34.7994
132.1 1214 34.8425
132.217 1296 36
132.335 1168 34.176
132.452 1274 35.6931
132.57 1213 34.8281
132.687 1278 35.7491
132.804 1261 35.5106
132.922 1270 35.6371
133.039 1299 36.0416
133.157 1265 35.5668
133.274 1291 35.9305
133.392 1281 35.7911
133.509 1315 36.2629
133.627 1278 35.7491
133.744 1237 35.171
133.862 1248 35.327
133.979 1245 35.2846
134.097 1300 36.0555
134.214 1196 34.5832
134.332 1217 34.8855
134.449 1168 34.176
134.567 1168 34.176
134.684 1156 34
134.802 1200 34.641
134.919 1236 35.1568
135.037 1276 35.7211
135.154 1221 34.9428
135.272 1221 34.9428
135.389 1161 34.0735
135.507 1124 33.5261
135.624 1240 35.2136
135.742 1235 35.1426
135.859 1322 36.3593
135.977 1320 36.3318
136.094 1326 36.4143
136.211 1343 36.647
136.329 1292 35.9444
136.446 1224 34.9857
136.564 1236 35.1568
136.681 1234 35.1283
136.798 1291 35.9305
136.915 1311 36.2077
137.033 1316 36.2767
137.15 1322 36.3593
137.267 1272 35.6651
137.384 1344 36.6606
137.502 1250 35.3553
137.619 1218 34.8999
137.736 1188 34.4674
137.853 1116 33.4066
137.97 1179 34.3366
138.087 1047 32.3574
138.204 1134 33.6749
138.321 1225 35
138.438 1189 34.4819
138.555 1247 35.3129
138.672 1229 35.0571
138.788 1225 35
138.905 1132 33.6452
139.022 1058 32.5269
139.139 1109 33.3017
139.255 1093 33.0606
139.372 1020 31.9374
139.488 973 31.1929
139.605 944 30.7246
139.721 918 30.2985
139.838 837 28.931
139.954 799 28.2666
140.071 685 26.1725
140.187 663 25.7488
140.303 613 24.7588
140.419 601 24.5153
140.535 534 23.1084
140.652 599 24.4745
140.768 0 1
140.884 0 1
141 0 1
141.115 0 1
141.231 0 1
141.347 0 1
141.463 0 1
141.578 0 1
141.694 0 1
144.104 0 1
144.219 0 1
144.335 0 1
144.45 0 1
144.566 0 1
144.682 0 1
144.798 0 1
144.914 0 1
145.03 0 1
145.146 859 29.3087
145.262 942 30.692
145.378 996 31.5595
145.494 986 31.4006
145.61 1031 32.1092
145.726 958 30.9516
145.842 984 31.3688
145.959 968 31.1127
146.075 983 31.3528
146.192 1004 31.686
146.308 899 29.9833
146.425 933 30.545
146.541 915 30.249
146.658 855 29.2404
146.774 883 29.7153
146.891 968 31.1127
147.008 898 29.9666
147.125 950 30.8221
147.241 938 30.6268
147.358 964 31.0483
147.475 900 30
147.592 901 30.0167
147.709 921 30.348
147.826 919 30.315
147.943 889 29.8161
148.06 894 29.8998
148.177 896 29.9333
148.294 1032 32.1248
148.411 972 31.1769
148.528 951 30.8383
148.645 964 31.0483
148.762 935 30.5778
148.88 1008 31.749
148.997 959 30.9677
149.114 989 31.4484
149.231 983 31.3528
149.349 982 31.3369
149.466 937 30.6105
149.583 954 30.8869
149.701 919 30.315
149.818 979 31.289
149.935 939 30.6431
150.053 895 29.9166
150.17 874 29.5635
150.287 824 28.7054
150.405 833 28.8617
150.522 889 29.8161
150.64 882 29.6985
150.757 844 29.0517
150.875 946 30.7571
150.992 912 30.1993
151.11 942 30.692
151.227 890 29.8329
151.344 930 30.4959
151.462 856 29.2575
151.579 886 29.7658
151.697 872 29.5296
151.814 888 29.7993
151.932 933 30.545
152.049 887 29.7825
152.167 913 30.2159
152.284 937 30.6105
152.402 920 30.3315
152.519 897 29.95
152.636 921 30.348
152.754 880 29.6648
152.871 937 30.6105
152.989 939 30.6431
153.106 924 30.3974
153.223 952 30.8545
153.341 933 30.545
153.458 924 30.3974
153.575 822 28.6705
153.693 885 29.7489
153.81 857 29.2746
153.927 841 29
154.044 806 28.3901
154.162 863 29.3769
154.279 878 29.6311
154.396 884 29.7321
154.513 902 30.0333
154.63 890 29.8329
154.747 942 30.692
154.864 849 29.1376
154.981 838 28.9482
155.098 814 28.5307
155.215 825 28.7228
155.332 813 28.5132
155.449 852 29.189
155.566 877 29.6142
155.683 856 29.2575
155.8 860 29.3258
155.917 858 29.2916
156.033 853 29.2062
156.15 0 1
156.267 0 1
156.383 0 1
156.5 0 1
156.617 0 1
156.733 0 1
156.85 0 1
156.966 0 1
157.082 0 1
157.199 0 1
157.315 0 1
157.431 0 1
157.547 0 1
157.664 0 1
157.78 0 1
157.896 0 1
158.012 0 1
158.128 0 1
158.244 0 1
158.359 0 1
158.475 0 1
158.591 0 1
158.706 0 1
