
6.15755 0 1
6.2731 0 1
6.3887 0 1
6.50437 0 1
6.62009 0 1
6.73587 0 1
6.8517 0 1
6.96759 0 1
7.08353 0 1
7.19952 0 1
7.31557 0 1
7.43166 0 1
7.54781 0 1
7.664 0 1
7.78024 0 1
7.89653 0 1
8.01286 0 1
8.12924 0 1
8.24567 0 1
8.36213 0 1
8.47864 0 1
8.59519 0 1
8.71178 0 1
8.82841 0 1
8.94508 0 1
9.06179 0 1
9.17853 0 1
9.29531 0 1
9.41212 0 1
9.52897 0 1
9.64584 0 1
9.76276 0 1
9.8797 0 1
9.99667 0 1
10.1137 0 1
10.2307 0 1
10.3478 0 1
10.4648 0 1
10.5819 0 1
10.6991 0 1
10.8162 0 1
10.9334 0 1
11.0506 0 1
11.1678 0 1
11.285 0 1
11.4023 0 1
11.5196 0 1
11.6369 0 1
11.7542 0 1
11.8715 0 1
11.9888 0 1
12.1062 0 1
12.2235 0 1
12.3409 0 1
12.4582 0 1
12.5756 0 1
12.693 0 1
12.8104 0 1
12.9278 0 1
13.0452 0 1
13.1626 0 1
13.28 0 1
13.3974 0 1
13.5149 0 1
13.6323 0 1
13.7497 0 1
13.8671 0 1
13.9845 0 1
14.1019 0 1
14.2193 0 1
14.3367 0 1
14.4541 0 1
14.5714 0 1
14.6888 0 1
14.8062 0 1
14.9235 0 1
15.0408 681 26.096
15.1581 693 26.3249
15.2755 713 26.7021
15.3927 759 27.55
15.51 728 26.9815
15.6273 693 26.3249
15.7445 775 27.8388
15.8617 698 26.4197
15.9789 744 27.2764
16.0961 720 26.8328
16.2132 690 26.2679
16.3304 737 27.1477
16.4475 728 26.9815
16.5646 717 26.7769
16.6816 795 28.1957
16.7986 805 28.3725
16.9156 912 30.1993
17.0326 866 29.4279
17.1496 854 29.2233
17.2665 851 29.1719
17.3833 880 29.6648
17.5002 878 29.6311
17.617 804 28.3549
17.7338 744 27.2764
17.8505 753 27.4408
17.9672 738 27.1662
18.0839 718 26.7955
18.2005 742 27.2397
18.3171 867 29.4449
18.4337 802 28.3196
18.5502 845 29.0689
18.6666 827 28.7576
18.7831 810 28.4605
18.8994 840 28.9828
19.0158 808 28.4253
19.1321 763 27.6225
19.2483 809 28.4429
19.3645 746 27.313
19.4806 670 25.8844
19.5967 635 25.1992
19.7128 594 24.3721
19.8288 518 22.7596
19.9447 534 23.1084
20.0606 0 1
20.1764 0 1
20.2922 0 1
20.4079 0 1
20.5236 0 1
20.6392 0 1
20.7548 0 1
20.8702 0 1
23.3078 0 1
23.4233 0 1
23.539 0 1
23.6547 0 1
23.7704 0 1
23.8862 0 1
24.0021 0 1
24.118 0 1
24.234 0 1
24.35 0 1
24.4661 309 17.5784
24.5822 427 20.664
24.6984 438 20.9284
24.8146 475 21.7945
24.9309 512 22.6274
25.0472 588 24.2487
25.1636 619 24.8797
25.28 680 26.0768
25.3965 719 26.8142
25.513 827 28.7576
25.6296 773 27.8029
25.7462 895 29.9166
25.8628 916 30.2655
25.9795 892 29.8664
26.0962 870 29.4958
26.213 881 29.6816
26.3298 797 28.2312
26.4466 793 28.1603
26.5635 746 27.313
26.6804 761 27.5862
26.7973 746 27.313
26.9143 852 29.189
27.0313 761 27.5862
27.1483 853 29.2062
27.2653 855 29.2404
27.3824 824 28.7054
27.4996 893 29.8831
27.6167 840 28.9828
27.7339 835 28.8964
27.8511 806 28.3901
27.9683 778 27.8927
28.0855 763 27.6225
28.2028 732 27.0555
28.3201 659 25.671
28.4374 636 25.219
28.5547 710 26.6458
28.6721 716 26.7582
28.7894 734 27.0924
28.9068 741 27.2213
29.0242 759 27.55
29.1416 832 28.8444
29.259 809 28.4429
29.3764 842 29.0172
29.4939 842 29.0172
29.6113 802 28.3196
29.7288 798 28.2489
29.8463 733 27.074
29.9638 693 26.3249
30.0812 735 27.1109
30.1987 665 25.7876
30.3162 681 26.096
30.4337 754 27.4591
30.5512 793 28.1603
30.6687 741 27.2213
30.7862 757 27.5136
30.9037 803 28.3373
31.0212 779 27.9106
31.1387 731 27.037
31.2562 806 28.3901
31.3737 772 27.7849
31.4912 683 26.1343
31.6087 730 27.0185
31.7262 705 26.5518
31.8436 703 26.5141
31.9611 676 26
32.0785 708 26.6083
32.1959 660 25.6905
32.3134 756 27.4955
32.4308 752 27.4226
32.5482 823 28.688
32.6655 775 27.8388
32.7829 809 28.4429
32.9002 804 28.3549
33.0176 795 28.1957
33.1349 806 28.3901
33.2522 778 27.8927
33.3694 746 27.313
33.4867 752 27.4226
33.6039 703 26.5141
33.7211 600 24.4949
33.8383 659 25.671
33.9554 675 25.9808
34.0725 700 26.4575
34.1896 737 27.1477
34.3067 716 26.7582
34.4237 795 28.1957
34.5407 782 27.9643
34.6577 855 29.2404
34.7746 773 27.8029
34.8915 729 27
35.0084 770 27.7489
35.1252 715 26.7395
35.242 689 26.2488
35.3587 761 27.5862
35.4755 725 26.9258
35.5921 654 25.5734
35.7088 611 24.7184
35.8254 619 24.8797
35.9419 641 25.318
36.0584 692 26.3059
36.1749 684 26.1534
36.2913 703 26.5141
36.4077 666 25.807
36.524 701 26.4764
36.6403 632 25.1396
36.7565 616 24.8193
36.8727 676 26
36.9889 571 23.8956
37.1049 527 22.9565
37.221 0 1
37.3369 0 1
37.4529 0 1
37.5687 0 1
37.6845 0 1
37.8003 0 1
37.916 0 1
38.0316 0 1
38.1472 0 1
40.5851 0 1
40.7008 0 1
40.8164 0 1
40.9322 0 1
41.048 0 1
41.1639 0 1
41.2798 0 1
41.3958 0 1
41.5118 0 1
41.6279 0 1
41.744 328 18.1108
41.8602 419 20.4695
41.9765 442 21.0238
42.0928 453 21.2838
42.2091 467 21.6102
42.3255 462 21.4942
42.4419 398 19.9499
42.5584 432 20.7846
42.675 462 21.4942
42.7915 531 23.0434
42.9081 550 23.4521
43.0248 595 24.3926
43.1415 636 25.219
43.2582 611 24.7184
43.375 600 24.4949
43.4918 650 25.4951
43.6087 626 25.02
43.7256 685 26.1725
43.8425 617 24.8395
43.9595 620 24.8998
44.0765 577 24.0208
44.1935 561 23.6854
44.3106 563 23.7276
44.4277 532 23.0651
44.5448 548 23.4094
44.6619 520 22.8035
44.7791 564 23.7487
44.8963 517 22.7376
45.0136 572 23.9165
45.1308 611 24.7184
45.2481 635 25.1992
45.3654 662 25.7294
45.4827 662 25.7294
45.6001 660 25.6905
45.7174 649 25.4755
45.8348 573 23.9374
45.9522 588 24.2487
46.0697 515 22.6936
46.1871 513 22.6495
46.3046 533 23.0868
46.422 579 24.0624
46.5395 568 23.8328
46.657 615 24.7992
46.7745 666 25.807
46.892 660 25.6905
47.0096 647 25.4362
47.1271 623 24.96
47.2446 642 25.3377
47.3622 631 25.1197
47.4797 685 26.1725
47.5973 613 24.7588
47.7149 570 23.8747
47.8324 611 24.7184
47.95 546 23.3666
48.0675 498 22.3159
48.1851 485 22.0227
48.3027 495 22.2486
48.4202 615 24.7992
48.5378 621 24.9199
48.6554 665 25.7876
48.7729 633 25.1595
48.8904 688 26.2298
49.008 608 24.6577
49.1255 622 24.9399
49.243 638 25.2587
49.3605 538 23.1948
49.478 553 23.516
49.5955 492 22.1811
49.713 520 22.8035
49.8304 485 22.0227
49.9479 541 23.2594
50.0653 610 24.6982
50.1827 641 25.318
50.3001 617 24.8395
50.4175 635 25.1992
50.5348 616 24.8193
50.6521 657 25.632
50.7694 623 24.96
50.8867 613 24.7588
51.004 632 25.1396
51.1212 620 24.8998
51.2384 606 24.6171
51.3556 588 24.2487
51.4727 557 23.6008
51.5899 534 23.1084
51.707 524 22.891
51.824 559 23.6432
51.9411 539 23.2164
52.0581 620 24.8998
52.175 635 25.1992
52.2919 691 26.2869
52.4088 646 25.4165
52.5257 650 25.4951
52.6425 678 26.0384
52.7593 672 25.923
52.876 621 24.9199
52.9927 538 23.1948
53.1094 542 23.2809
53.226 499 22.3383
53.3426 535 23.1301
53.4591 491 22.1585
53.5756 553 23.516
53.692 479 21.8861
53.8084 519 22.7816
53.9248 502 22.4054
54.0411 490 22.1359
54.1573 481 21.9317
54.2735 0 1
54.3896 0 1
54.5057 0 1
54.6217 0 1
54.7377 0 1
54.8537 0 1
54.9695 0 1
55.0853 0 1
55.2011 0 1
55.3168 0 1
55.4324 0 1
57.824 0 1
57.9396 0 1
58.0553 0 1
58.1711 0 1
58.2869 0 1
58.4028 0 1
58.5187 0 1
58.6347 0 1
58.7508 0 1
58.8669 0 1
58.983 443 21.0476
59.0992 505 22.4722
59.2155 575 23.9792
59.3318 629 25.0799
59.4482 648 25.4558
59.5646 689 26.2488
59.681 710 26.6458
59.7975 744 27.2764
59.9141 728 26.9815
60.0306 704 26.533
60.1473 647 25.4362
60.2639 674 25.9615
60.3807 598 24.454
60.4974 681 26.096
60.6142 670 25.8844
60.731 700 26.4575
60.8479 800 28.2843
60.9648 794 28.178
61.0818 761 27.5862
61.1987 748 27.3496
61.3158 904 30.0666
61.4328 783 27.9821
61.5499 721 26.8514
61.667 719 26.8142
61.7841 673 25.9422
61.9013 667 25.8263
62.0185 662 25.7294
62.1357 690 26.2679
62.253 733 27.074
62.3702 717 26.7769
62.4875 790 28.1069
62.6049 818 28.6007
62.7222 811 28.4781
62.8396 824 28.7054
62.9569 845 29.0689
63.0743 840 28.9828
63.1918 854 29.2233
63.3092 816 28.5657
63.4267 817 28.5832
63.5441 746 27.313
63.6616 706 26.5707
63.7791 695 26.3629
63.8966 648 25.4558
64.0142 645 25.3969
64.1317 672 25.923
64.2492 693 26.3249
64.3668 768 27.7128
64.4843 759 27.55
64.6019 834 28.8791
64.7195 807 28.4077
64.837 884 29.7321
64.9546 837 28.931
65.0722 748 27.3496
65.1898 682 26.1151
65.3074 683 26.1343
65.4249 647 25.4362
65.5425 566 23.7908
65.6601 641 25.318
65.7777 705 26.5518
65.8952 680 26.0768
66.0128 777 27.8747
66.1304 788 28.0713
66.2479 780 27.9285
66.3655 819 28.6182
66.483 813 28.5132
66.6005 808 28.4253
66.718 836 28.9137
66.8355 833 28.8617
66.953 771 27.7669
67.0705 807 28.4077
67.1879 780 27.9285
67.3054 729 27
67.4228 683 26.1343
67.5402 664 25.7682
67.6576 607 24.6374
67.7749 680 26.0768
67.8923 731 27.037
68.0096 789 28.0891
68.1269 845 29.0689
68.2442 839 28.9655
68.3614 925 30.4138
68.4787 855 29.2404
68.5958 834 28.8791
68.713 863 29.3769
68.8302 787 28.0535
68.9473 791 28.1247
69.0643 698 26.4197
69.1814 658 25.6515
69.2984 712 26.6833
69.4154 767 27.6948
69.5323 862 29.3598
69.6492 801 28.3019
69.7661 935 30.5778
69.8829 902 30.0333
69.9997 918 30.2985
70.1165 895 29.9166
70.2332 882 29.6985
70.3499 850 29.1548
70.4665 853 29.2062
70.5831 821 28.6531
70.6996 785 28.0179
70.8161 727 26.9629
70.9326 619 24.8797
71.049 589 24.2693
71.1653 476 21.8174
71.2817 404 20.0998
71.3979 425 20.6155
71.5141 340 18.4391
71.6303 402 20.0499
71.7464 305 17.4642
71.8624 0 1
71.9784 0 1
72.0944 0 1
72.2102 0 1
72.3261 0 1
72.4418 0 1
72.5575 0 1
72.6732 0 1
75.1054 0 1
75.2209 0 1
75.3365 0 1
75.4521 0 1
75.5678 0 1
75.6835 0 1
75.7993 0 1
75.9151 0 1
76.031 0 1
76.147 520 22.8035
76.263 605 24.5967
76.3791 602 24.5357
76.4952 526 22.9347
76.6113 585 24.1868
76.7276 609 24.6779
76.8438 691 26.2869
76.9601 641 25.318
77.0765 737 27.1477
77.1929 709 26.6271
77.3093 736 27.1293
77.4258 724 26.9072
77.5423 739 27.1846
77.6589 721 26.8514
77.7755 631 25.1197
77.8921 622 24.9399
78.0088 561 23.6854
78.1256 499 22.3383
78.2423 512 22.6274
78.3591 562 23.7065
78.4759 586 24.2074
78.5928 631 25.1197
78.7097 701 26.4764
78.8266 645 25.3969
78.9436 713 26.7021
79.0606 700 26.4575
79.1776 760 27.5681
79.2946 679 26.0576
79.4117 729 27
79.5288 737 27.1477
79.6459 735 27.1109
79.7631 660 25.6905
79.8802 666 25.807
79.9974 654 25.5734
80.1147 537 23.1733
80.2319 529 23
80.3491 516 22.7156
80.4664 585 24.1868
80.5837 568 23.8328
80.701 658 25.6515
80.8183 732 27.0555
80.9357 724 26.9072
81.053 746 27.313
81.1704 734 27.0924
81.2877 767 27.6948
81.4051 750 27.3861
81.5225 678 26.0384
81.6399 636 25.219
81.7573 544 23.3238
81.8747 503 22.4277
81.9922 533 23.0868
82.1096 564 23.7487
82.227 610 24.6982
82.3444 625 25
82.4619 643 25.3574
82.5793 701 26.4764
82.6967 712 26.6833
82.8142 732 27.0555
82.9316 771 27.7669
83.049 720 26.8328
83.1664 743 27.258
83.2838 767 27.6948
83.4012 694 26.3439
83.5186 677 26.0192
83.636 648 25.4558
83.7534 627 25.04
83.8708 616 24.8193
83.9881 488 22.0907
84.1055 569 23.8537
84.2228 632 25.1396
84.3401 637 25.2389
84.4575 760 27.5681
84.5747 680 26.0768
84.692 768 27.7128
84.8093 776 27.8568
84.9265 756 27.4955
85.0437 663 25.7488
85.1609 623 24.96
85.2781 626 25.02
85.3952 561 23.6854
85.5123 537 23.1733
85.6294 532 23.0651
85.7465 621 24.9199
85.8636 698 26.4197
85.9806 671 25.9037
86.0976 733 27.074
86.2145 777 27.8747
86.3315 807 28.4077
86.4484 770 27.7489
86.5652 733 27.074
86.682 761 27.5862
86.7988 714 26.7208
86.9156 764 27.6405
87.0323 763 27.6225
87.149 651 25.5147
87.2657 691 26.2869
87.3823 568 23.8328
87.4988 513 22.6495
87.6154 454 21.3073
87.7318 511 22.6053
87.8483 500 22.3607
87.9647 568 23.8328
88.081 587 24.2281
88.1973 637 25.2389
88.3136 585 24.1868
88.4298 507 22.5167
88.546 499 22.3383
88.6621 427 20.664
88.7781 348 18.6548
88.8942 0 1
89.0101 0 1
89.126 0 1
89.2419 0 1
89.3577 0 1
89.4734 0 1
89.5891 0 1
89.7047 0 1
89.8203 0 1
89.9358 0 1
92.3269 0 1
92.4424 0 1
92.558 0 1
92.6736 0 1
92.7893 0 1
92.905 0 1
93.0208 0 1
93.1366 0 1
93.2525 0 1
93.3685 0 1
93.4845 0 1
93.6005 476 21.8174
93.7167 561 23.6854
93.8328 642 25.3377
93.949 607 24.6374
94.0653 609 24.6779
94.1816 597 24.4336
94.2979 596 24.4131
94.4143 590 24.2899
94.5307 592 24.3311
94.6472 518 22.7596
94.7637 518 22.7596
94.8803 552 23.4947
94.9969 616 24.8193
95.1135 684 26.1534
95.2302 736 27.1293
95.3469 675 25.9808
95.4637 716 26.7582
95.5805 738 27.1662
95.6973 738 27.1662
95.8142 736 27.1293
95.9311 777 27.8747
96.048 752 27.4226
96.1649 699 26.4386
96.2819 691 26.2869
96.3989 686 26.1916
96.516 647 25.4362
96.633 661 25.7099
96.7501 569 23.8537
96.8673 538 23.1948
96.9844 574 23.9583
97.1016 601 24.5153
97.2188 686 26.1916
97.336 692 26.3059
97.4532 703 26.5141
97.5704 761 27.5862
97.6877 738 27.1662
97.805 729 27
97.9223 709 26.6271
98.0396 615 24.7992
98.1569 596 24.4131
98.2743 534 23.1084
98.3916 567 23.8118
98.509 572 23.9165
98.6264 640 25.2982
98.7438 683 26.1343
98.8612 718 26.7955
98.9786 720 26.8328
99.096 733 27.074
99.2134 740 27.2029
99.3308 771 27.7669
99.4482 743 27.258
99.5656 794 28.178
99.6831 802 28.3196
99.8005 722 26.8701
99.9179 728 26.9815
100.035 715 26.7395
100.153 670 25.8844
100.27 608 24.6577
100.388 577 24.0208
100.505 628 25.0599
100.622 700 26.4575
100.74 728 26.9815
100.857 742 27.2397
100.975 741 27.2213
101.092 795 28.1957
101.209 783 27.9821
101.327 760 27.5681
101.444 725 26.9258
101.561 718 26.7955
101.679 653 25.5539
101.796 588 24.2487
101.913 580 24.0832
102.03 610 24.6982
102.148 649 25.4755
102.265 742 27.2397
102.382 825 28.7228
102.499 759 27.55
102.616 785 28.0179
102.733 808 28.4253
102.851 844 29.0517
102.968 796 28.2135
103.085 817 28.5832
103.202 806 28.3901
103.319 843 29.0345
103.436 763 27.6225
103.552 757 27.5136
103.669 741 27.2213
103.786 648 25.4558
103.903 648 25.4558
104.02 617 24.8395
104.137 676 26
104.253 696 26.3818
104.37 815 28.5482
104.487 829 28.7924
104.603 831 28.8271
104.72 847 29.1033
104.836 713 26.7021
104.953 737 27.1477
105.069 669 25.865
105.186 572 23.9165
105.302 557 23.6008
105.418 557 23.6008
105.535 552 23.4947
105.651 557 23.6008
105.767 550 23.4521
105.883 528 22.9783
105.999 462 21.4942
106.115 0 1
106.231 0 1
106.347 0 1
106.463 0 1
106.579 0 1
106.694 0 1
106.81 0 1
106.926 0 1
107.041 0 1
107.157 0 1
109.576 0 1
109.692 0 1
109.807 0 1
109.923 0 1
110.039 0 1
110.155 0 1
110.27 0 1
110.386 0 1
110.502 0 1
110.618 316 17.7764
110.735 431 20.7605
110.851 487 22.0681
110.967 547 23.388
111.083 591 24.3105
111.199 662 25.7294
111.316 683 26.1343
111.432 699 26.4386
111.549 763 27.6225
111.665 755 27.4773
111.782 705 26.5518
111.898 783 27.9821
112.015 744 27.2764
112.132 682 26.1151
112.248 696 26.3818
112.365 545 23.3452
112.482 605 24.5967
112.599 646 25.4165
112.716 680 26.0768
112.832 715 26.7395
112.949 739 27.1846
113.066 722 26.8701
113.183 731 27.037
113.3 731 27.037
113.417 709 26.6271
113.534 656 25.6125
113.652 655 25.593
113.769 611 24.7184
113.886 557 23.6008
114.003 548 23.4094
114.12 586 24.2074
114.238 574 23.9583
114.355 678 26.0384
114.472 661 25.7099
114.589 760 27.5681
114.707 707 26.5895
114.824 779 27.9106
114.942 758 27.5318
115.059 716 26.7582
115.176 782 27.9643
115.294 733 27.074
115.411 738 27.1662
115.529 750 27.3861
115.646 669 25.865
115.764 644 25.3772
115.881 595 24.3926
115.999 585 24.1868
116.116 608 24.6577
116.234 614 24.779
116.351 683 26.1343
116.469 735 27.1109
116.586 744 27.2764
116.704 752 27.4226
116.821 732 27.0555
116.939 761 27.5862
117.056 732 27.0555
117.174 658 25.6515
117.291 636 25.219
117.409 588 24.2487
117.526 529 23
117.644 543 23.3024
117.761 577 24.0208
117.879 634 25.1794
117.996 677 26.0192
118.114 705 26.5518
118.231 764 27.6405
118.349 663 25.7488
118.466 730 27.0185
118.584 744 27.2764
118.701 743 27.258
118.819 773 27.8029
118.936 720 26.8328
119.053 731 27.037
119.171 690 26.2679
119.288 670 25.8844
119.405 650 25.4951
119.523 561 23.6854
119.64 595 24.3926
119.757 619 24.8797
119.875 605 24.5967
119.992 657 25.632
120.109 703 26.5141
120.226 680 26.0768
120.343 708 26.6083
120.46 666 25.807
120.578 732 27.0555
120.695 713 26.7021
120.812 663 25.7488
120.929 604 24.5764
121.046 604 24.5764
121.163 568 23.8328
121.279 511 22.6053
121.396 523 22.8692
121.513 601 24.5153
121.63 580 24.0832
121.747 646 25.4165
121.863 616 24.8193
121.98 679 26.0576
122.097 627 25.04
122.213 568 23.8328
122.33 603 24.5561
122.446 576 24
122.563 574 23.9583
122.679 513 22.6495
122.795 496 22.2711
122.912 439 20.9523
123.028 346 18.6011
123.144 351 18.735
123.26 295 17.1756
123.377 0 1
123.493 0 1
123.609 0 1
123.725 0 1
123.84 0 1
123.956 0 1
124.072 0 1
124.188 0 1
124.303 0 1
124.419 0 1
126.852 0 1
126.968 0 1
127.083 0 1
127.199 0 1
127.315 0 1
127.431 0 1
127.547 0 1
127.663 0 1
127.779 0 1
127.895 0 1
128.011 0 1
128.127 0 1
128.243 0 1
128.359 789 28.0891
128.476 771 27.7669
128.592 770 27.7489
128.708 733 27.074
128.825 725 26.9258
128.941 837 28.931
129.058 780 27.9285
129.174 899 29.9833
129.291 928 30.4631
129.408 933 30.545
129.524 865 29.4109
129.641 947 30.7734
129.758 898 29.9666
129.875 850 29.1548
129.992 775 27.8388
130.108 798 28.2489
130.225 705 26.5518
130.342 683 26.1343
130.459 709 26.6271
130.576 769 27.7308
130.693 784 28
130.81 846 29.0861
130.928 905 30.0832
131.045 950 30.8221
131.162 877 29.6142
131.279 933 30.545
131.396 911 30.1828
131.513 899 29.9833
131.631 927 30.4467
131.748 905 30.0832
131.865 826 28.7402
131.983 863 29.3769
132.1 818 28.6007
132.217 702 26.4953
132.335 801 28.3019
132.452 810 28.4605
132.57 857 29.2746
132.687 911 30.1828
132.804 901 30.0167
132.922 939 30.6431
133.039 937 30.6105
133.157 939 30.6431
133.274 912 30.1993
133.392 868 29.4618
133.509 807 28.4077
133.627 796 28.2135
133.744 718 26.7955
133.862 714 26.7208
133.979 749 27.3679
134.097 817 28.5832
134.214 754 27.4591
134.332 824 28.7054
134.449 843 29.0345
134.567 887 29.7825
134.684 911 30.1828
134.802 908 30.133
134.919 905 30.0832
135.037 904 30.0666
135.154 859 29.3087
135.272 907 30.1164
135.389 881 29.6816
135.507 804 28.3549
135.624 821 28.6531
135.742 755 27.4773
135.859 720 26.8328
135.977 759 27.55
136.094 830 28.8097
136.211 860 29.3258
136.329 840 28.9828
136.446 870 29.4958
136.564 903 30.05
136.681 926 30.4302
136.798 899 29.9833
136.915 865 29.4109
137.033 800 28.2843
137.15 810 28.4605
137.267 748 27.3496
137.384 696 26.3818
137.502 669 25.865
137.619 666 25.807
137.736 721 26.8514
137.853 722 26.8701
137.97 788 28.0713
138.087 774 27.8209
138.204 806 28.3901
138.321 778 27.8927
138.438 818 28.6007
138.555 853 29.2062
138.672 767 27.6948
138.788 805 28.3725
138.905 707 26.5895
139.022 694 26.3439
139.139 649 25.4755
139.255 678 26.0384
139.372 548 23.4094
139.488 490 22.1359
139.605 503 22.4277
139.721 518 22.7596
139.838 564 23.7487
139.954 508 22.5389
140.071 524 22.891
140.187 493 22.2036
140.303 414 20.347
140.419 403 20.0749
140.535 373 19.3132
140.652 327 18.0831
140.768 0 1
140.884 0 1
141 0 1
141.115 0 1
141.231 0 1
141.347 0 1
141.463 0 1
141.578 0 1
141.694 0 1
144.104 0 1
144.219 0 1
144.335 0 1
144.45 0 1
144.566 0 1
144.682 0 1
144.798 0 1
144.914 0 1
145.03 0 1
145.146 531 23.0434
145.262 590 24.2899
145.378 585 24.1868
145.494 581 24.1039
145.61 608 24.6577
145.726 629 25.0799
145.842 555 23.5584
145.959 518 22.7596
146.075 525 22.9129
146.192 470 21.6795
146.308 508 22.5389
146.425 434 20.8327
146.541 477 21.8403
146.658 543 23.3024
146.774 549 23.4307
146.891 527 22.9565
147.008 582 24.1247
147.125 634 25.1794
147.241 599 24.4745
147.358 557 23.6008
147.475 612 24.7386
147.592 604 24.5764
147.709 553 23.516
147.826 552 23.4947
147.943 567 23.8118
148.06 529 23
148.177 506 22.4944
148.294 502 22.4054
148.411 546 23.3666
148.528 459 21.4243
148.645 571 23.8956
148.762 646 25.4165
148.88 642 25.3377
148.997 616 24.8193
149.114 624 24.98
149.231 540 23.2379
149.349 574 23.9583
149.466 548 23.4094
149.583 552 23.4947
149.701 504 22.4499
149.818 454 21.3073
149.935 465 21.5639
150.053 512 22.6274
150.17 495 22.2486
150.287 505 22.4722
150.405 535 23.1301
150.522 560 23.6643
150.64 542 23.2809
150.757 563 23.7276
150.875 563 23.7276
150.992 561 23.6854
151.11 565 23.7697
151.227 534 23.1084
151.344 561 23.6854
151.462 478 21.8632
151.579 523 22.8692
151.697 497 22.2935
151.814 507 22.5167
151.932 498 22.3159
152.049 500 22.3607
152.167 522 22.8473
152.284 520 22.8035
152.402 530 23.0217
152.519 571 23.8956
152.636 585 24.1868
152.754 557 23.6008
152.871 504 22.4499
152.989 579 24.0624
153.106 550 23.4521
153.223 490 22.1359
153.341 458 21.4009
153.458 477 21.8403
153.575 435 20.8567
153.693 486 22.0454
153.81 479 21.8861
153.927 493 22.2036
154.044 445 21.095
154.162 545 23.3452
154.279 537 23.1733
154.396 506 22.4944
154.513 510 22.5832
154.63 470 21.6795
154.747 527 22.9565
154.864 539 23.2164
154.981 502 22.4054
155.098 496 22.2711
155.215 528 22.9783
155.332 495 22.2486
155.449 492 22.1811
155.566 454 21.3073
155.683 439 20.9523
155.8 449 21.1896
155.917 499 22.3383
156.033 524 22.891
156.15 0 1
156.267 0 1
156.383 0 1
156.5 0 1
156.617 0 1
156.733 0 1
156.85 0 1
156.966 0 1
157.082 0 1
157.199 0 1
157.315 0 1
157.431 0 1
157.547 0 1
157.664 0 1
157.78 0 1
157.896 0 1
158.012 0 1
158.128 0 1
158.244 0 1
158.359 0 1
158.475 0 1
158.591 0 1
158.706 0 1
