
6.15755 0 1
6.2731 0 1
6.3887 0 1
6.50437 0 1
6.62009 0 1
6.73587 0 1
6.8517 0 1
6.96759 0 1
7.08353 0 1
7.19952 0 1
7.31557 0 1
7.43166 0 1
7.54781 0 1
7.664 0 1
7.78024 0 1
7.89653 0 1
8.01286 0 1
8.12924 0 1
8.24567 0 1
8.36213 0 1
8.47864 0 1
8.59519 0 1
8.71178 0 1
8.82841 0 1
8.94508 0 1
9.06179 0 1
9.17853 0 1
9.29531 0 1
9.41212 0 1
9.52897 0 1
9.64584 0 1
9.76276 0 1
9.8797 0 1
9.99667 0 1
10.1137 0 1
10.2307 0 1
10.3478 0 1
10.4648 0 1
10.5819 0 1
10.6991 0 1
10.8162 0 1
10.9334 0 1
11.0506 0 1
11.1678 0 1
11.285 0 1
11.4023 0 1
11.5196 0 1
11.6369 0 1
11.7542 0 1
11.8715 0 1
11.9888 0 1
12.1062 0 1
12.2235 0 1
12.3409 0 1
12.4582 0 1
12.5756 0 1
12.693 0 1
12.8104 0 1
12.9278 0 1
13.0452 0 1
13.1626 0 1
13.28 0 1
13.3974 0 1
13.5149 0 1
13.6323 0 1
13.7497 0 1
13.8671 0 1
13.9845 0 1
14.1019 0 1
14.2193 0 1
14.3367 0 1
14.4541 0 1
14.5714 0 1
14.6888 0 1
14.8062 0 1
14.9235 0 1
15.0408 2897 53.8238
15.1581 2983 54.6168
15.2755 3034 55.0818
15.3927 3086 55.5518
15.51 2912 53.963
15.6273 2966 54.461
15.7445 2904 53.8888
15.8617 2893 53.7866
15.9789 2895 53.8052
16.0961 2744 52.3832
16.2132 2719 52.144
16.3304 2662 51.5946
16.4475 2688 51.8459
16.5646 2594 50.9313
16.6816 2666 51.6333
16.7986 2628 51.264
16.9156 2616 51.1468
17.0326 2573 50.7247
17.1496 2518 50.1797
17.2665 2478 49.7795
17.3833 2579 50.7839
17.5002 2598 50.9706
17.617 2570 50.6952
17.7338 2655 51.5267
17.8505 2683 51.7977
17.9672 2611 51.0979
18.0839 2672 51.6914
18.2005 2632 51.303
18.3171 2613 51.1175
18.4337 2583 50.8232
18.5502 2493 49.93
18.6666 2553 50.5272
18.7831 2623 51.2152
18.8994 2524 50.2394
19.0158 2391 48.8979
19.1321 2326 48.2286
19.2483 2280 47.7493
19.3645 2321 48.1768
19.4806 2204 46.9468
19.5967 2069 45.4863
19.7128 1964 44.317
19.8288 1771 42.0833
19.9447 1630 40.3733
20.0606 0 1
20.1764 0 1
20.2922 0 1
20.4079 0 1
20.5236 0 1
20.6392 0 1
20.7548 0 1
20.8702 0 1
23.3078 0 1
23.4233 0 1
23.539 0 1
23.6547 0 1
23.7704 0 1
23.8862 0 1
24.0021 0 1
24.118 0 1
24.234 0 1
24.35 0 1
24.4661 1159 34.0441
24.5822 1262 35.5246
24.6984 1410 37.55
24.8146 1621 40.2616
24.9309 1747 41.7971
25.0472 2045 45.2217
25.1636 2129 46.1411
25.28 2517 50.1697
25.3965 2648 51.4587
25.513 2708 52.0384
25.6296 2764 52.5738
25.7462 2721 52.1632
25.8628 2800 52.915
25.9795 2817 53.0754
26.0962 2758 52.5167
26.213 2682 51.788
26.3298 2644 51.4198
26.4466 2547 50.4678
26.5635 2500 50
26.6804 2447 49.4672
26.7973 2357 48.5489
26.9143 2356 48.5386
27.0313 2378 48.7647
27.1483 2283 47.7807
27.2653 2273 47.676
27.3824 2514 50.1398
27.4996 2537 50.3686
27.6167 2392 48.9081
27.7339 2195 46.8508
27.8511 2293 47.8853
27.9683 2410 49.0918
28.0855 2574 50.7346
28.2028 2511 50.1099
28.3201 2583 50.8232
28.4374 2405 49.0408
28.5547 2379 48.775
28.6721 2313 48.0937
28.7894 2350 48.4768
28.9068 2437 49.366
29.0242 2398 48.9694
29.1416 2449 49.4874
29.259 2400 48.9898
29.3764 2416 49.1528
29.4939 2373 48.7134
29.6113 2475 49.7494
29.7288 2447 49.4672
29.8463 2382 48.8057
29.9638 2316 48.1248
30.0812 2256 47.4974
30.1987 2374 48.7237
30.3162 2326 48.2286
30.4337 2277 47.7179
30.5512 2243 47.3603
30.6687 2243 47.3603
30.7862 2254 47.4763
30.9037 2410 49.0918
31.0212 2580 50.7937
31.1387 2588 50.8724
31.2562 2409 49.0816
31.3737 2468 49.679
31.4912 2509 50.0899
31.6087 2525 50.2494
31.7262 2483 49.8297
31.8436 2357 48.5489
31.9611 2283 47.7807
32.0785 2238 47.3075
32.1959 2218 47.0956
32.3134 2268 47.6235
32.4308 2267 47.613
32.5482 2251 47.4447
32.6655 2240 47.3286
32.7829 2214 47.0532
32.9002 2289 47.8435
33.0176 2245 47.3814
33.1349 2284 47.7912
33.2522 2233 47.2546
33.3694 2254 47.4763
33.4867 2325 48.2183
33.6039 2302 47.9792
33.7211 2350 48.4768
33.8383 2176 46.6476
33.9554 2281 47.7598
34.0725 2195 46.8508
34.1896 2067 45.4643
34.3067 2048 45.2548
34.4237 2199 46.8935
34.5407 2350 48.4768
34.6577 2363 48.6107
34.7746 2335 48.3218
34.8915 2163 46.5081
35.0084 2268 47.6235
35.1252 2330 48.2701
35.242 2192 46.8188
35.3587 2217 47.085
35.4755 2216 47.0744
35.5921 2154 46.4112
35.7088 2030 45.0555
35.8254 2025 45
35.9419 1907 43.6692
36.0584 1985 44.5533
36.1749 2025 45
36.2913 2060 45.3872
36.4077 1942 44.0681
36.524 1947 44.1248
36.6403 1866 43.1972
36.7565 1822 42.6849
36.8727 1700 41.2311
36.9889 1564 39.5474
37.1049 1445 38.0132
37.221 0 1
37.3369 0 1
37.4529 0 1
37.5687 0 1
37.6845 0 1
37.8003 0 1
37.916 0 1
38.0316 0 1
38.1472 0 1
40.5851 0 1
40.7008 0 1
40.8164 0 1
40.9322 0 1
41.048 0 1
41.1639 0 1
41.2798 0 1
41.3958 0 1
41.5118 0 1
41.6279 0 1
41.744 862 29.3598
41.8602 1081 32.8786
41.9765 1311 36.2077
42.0928 1390 37.2827
42.2091 1498 38.704
42.3255 1640 40.4969
42.4419 1625 40.3113
42.5584 1753 41.8688
42.675 1767 42.0357
42.7915 1698 41.2068
42.9081 1620 40.2492
43.0248 1540 39.2428
43.1415 1602 40.025
43.2582 1591 39.8873
43.375 1776 42.1426
43.4918 1766 42.0238
43.6087 1718 41.4488
43.7256 1736 41.6653
43.8425 1768 42.0476
43.9595 1677 40.9512
44.0765 1696 41.1825
44.1935 1695 41.1704
44.3106 1718 41.4488
44.4277 1593 39.9124
44.5448 1528 39.0896
44.6619 1461 38.223
44.7791 1499 38.7169
44.8963 1579 39.7366
45.0136 1686 41.0609
45.1308 1726 41.5452
45.2481 1768 42.0476
45.3654 1835 42.8369
45.4827 1792 42.332
45.6001 1820 42.6615
45.7174 1843 42.9302
45.8348 1795 42.3674
45.9522 1853 43.0465
46.0697 1789 42.2966
46.1871 1722 41.497
46.3046 1682 41.0122
46.422 1710 41.3521
46.5395 1582 39.7744
46.657 1500 38.7298
46.7745 1394 37.3363
46.892 1569 39.6106
47.0096 1632 40.398
47.1271 1623 40.2865
47.2446 1639 40.4846
47.3622 1685 41.0488
47.4797 1615 40.1871
47.5973 1626 40.3237
47.7149 1599 39.9875
47.8324 1641 40.5093
47.95 1589 39.8623
48.0675 1517 38.9487
48.1851 1514 38.9102
48.3027 1551 39.3827
48.4202 1518 38.9615
48.5378 1668 40.8412
48.6554 1712 41.3763
48.7729 1708 41.328
48.8904 1769 42.0595
49.008 1752 41.8569
49.1255 1775 42.1307
49.243 1744 41.7612
49.3605 1712 41.3763
49.478 1781 42.2019
49.5955 1697 41.1947
49.713 1733 41.6293
49.8304 1560 39.4968
49.9479 1557 39.4588
50.0653 1378 37.1214
50.1827 1340 36.606
50.3001 1482 38.4968
50.4175 1540 39.2428
50.5348 1506 38.8072
50.6521 1654 40.6694
50.7694 1658 40.7185
50.8867 1667 40.8289
51.004 1723 41.509
51.1212 1641 40.5093
51.2384 1707 41.3159
51.3556 1656 40.694
51.4727 1550 39.37
51.5899 1396 37.3631
51.707 1443 37.9868
51.824 1494 38.6523
51.9411 1574 39.6737
52.0581 1618 40.2244
52.175 1642 40.5216
52.2919 1658 40.7185
52.4088 1641 40.5093
52.5257 1748 41.8091
52.6425 1654 40.6694
52.7593 1820 42.6615
52.876 1699 41.2189
52.9927 1690 41.1096
53.1094 1757 41.9166
53.226 1781 42.2019
53.3426 1683 41.0244
53.4591 1617 40.2119
53.5756 1533 39.1535
53.692 1366 36.9594
53.8084 1329 36.4555
53.9248 1257 35.4542
54.0411 1242 35.242
54.1573 1346 36.6879
54.2735 0 1
54.3896 0 1
54.5057 0 1
54.6217 0 1
54.7377 0 1
54.8537 0 1
54.9695 0 1
55.0853 0 1
55.2011 0 1
55.3168 0 1
55.4324 0 1
57.824 0 1
57.9396 0 1
58.0553 0 1
58.1711 0 1
58.2869 0 1
58.4028 0 1
58.5187 0 1
58.6347 0 1
58.7508 0 1
58.8669 0 1
58.983 9396 96.933
59.0992 12103 110.014
59.2155 15087 122.829
59.3318 17962 134.022
59.4482 19577 139.918
59.5646 21232 145.712
59.681 22882 151.268
59.7975 24724 157.239
59.9141 26586 163.052
60.0306 29096 170.575
60.1473 29949 173.058
60.2639 27568 166.036
60.3807 23600 153.623
60.4974 20573 143.433
60.6142 21751 147.482
60.731 28084 167.583
60.8479 38224 195.51
60.9648 48432 220.073
61.0818 55648 235.898
61.1987 59890 244.724
61.3158 63098 251.193
61.4328 65830 256.574
61.5499 66884 258.619
61.667 66522 257.919
61.7841 66248 257.387
61.9013 63938 252.86
62.0185 61012 247.006
62.1357 57468 239.725
62.253 53306 230.881
62.3702 50643 225.04
62.4875 50784 225.353
62.6049 52838 229.865
62.7222 54649 233.771
62.8396 55598 235.792
62.9569 56058 236.766
63.0743 54410 233.26
63.1918 49021 221.407
63.3092 40829 202.062
63.4267 32187 179.407
63.5441 26641 163.221
63.6616 22164 148.876
63.7791 17250 131.339
63.8966 12141 110.186
64.0142 8085 89.9166
64.1317 5303 72.8217
64.2492 3989 63.1585
64.3668 3348 57.8619
64.4843 3035 55.0908
64.6019 2952 54.3323
64.7195 2788 52.8015
64.837 2765 52.5833
64.9546 2780 52.7257
65.0722 2700 51.9615
65.1898 2679 51.7591
65.3074 2798 52.8961
65.4249 2695 51.9134
65.5425 2734 52.2877
65.6601 2746 52.4023
65.7777 2542 50.4183
65.8952 2330 48.2701
66.0128 2224 47.1593
66.1304 2302 47.9792
66.2479 2264 47.5815
66.3655 2292 47.8748
66.483 2307 48.0312
66.6005 2285 47.8017
66.718 2273 47.676
66.8355 2260 47.5395
66.953 2292 47.8748
67.0705 2139 46.2493
67.1879 2233 47.2546
67.3054 2042 45.1885
67.4228 2108 45.913
67.5402 2037 45.1331
67.6576 2128 46.1303
67.7749 2246 47.392
67.8923 2306 48.0208
68.0096 2308 48.0416
68.1269 2377 48.7545
68.2442 2270 47.6445
68.3614 2204 46.9468
68.4787 2189 46.7868
68.5958 2214 47.0532
68.713 2178 46.669
68.8302 2171 46.594
68.9473 2228 47.2017
69.0643 2201 46.9148
69.1814 2172 46.6047
69.2984 2061 45.3982
69.4154 1979 44.486
69.5323 1808 42.5206
69.6492 1806 42.4971
69.7661 1895 43.5316
69.8829 1880 43.359
69.9997 1940 44.0454
70.1165 2073 45.5302
70.2332 1942 44.0681
70.3499 1926 43.8862
70.4665 1812 42.5676
70.5831 1752 41.8569
70.6996 1604 40.05
70.8161 1454 38.1314
70.9326 1349 36.7287
71.049 1245 35.2846
71.1653 1069 32.6956
71.2817 978 31.273
71.3979 956 30.9192
71.5141 841 29
71.6303 844 29.0517
71.7464 751 27.4044
71.8624 0 1
71.9784 0 1
72.0944 0 1
72.2102 0 1
72.3261 0 1
72.4418 0 1
72.5575 0 1
72.6732 0 1
75.1054 0 1
75.2209 0 1
75.3365 0 1
75.4521 0 1
75.5678 0 1
75.6835 0 1
75.7993 0 1
75.9151 0 1
76.031 0 1
76.147 1222 34.9571
76.263 1384 37.2022
76.3791 1427 37.7757
76.4952 1346 36.6879
76.6113 1475 38.4057
76.7276 1466 38.2884
76.8438 1582 39.7744
76.9601 1621 40.2616
77.0765 1653 40.6571
77.1929 1590 39.8748
77.3093 1669 40.8534
77.4258 1602 40.025
77.5423 1604 40.05
77.6589 1716 41.4246
77.7755 1731 41.6053
77.8921 1863 43.1625
78.0088 1782 42.2137
78.1256 1665 40.8044
78.2423 1659 40.7308
78.3591 1535 39.1791
78.4759 1461 38.223
78.5928 1440 37.9473
78.7097 1525 39.0512
78.8266 1516 38.9358
78.9436 1653 40.6571
79.0606 1616 40.1995
79.1776 1711 41.3642
79.2946 1712 41.3763
79.4117 1728 41.5692
79.5288 1748 41.8091
79.6459 1777 42.1545
79.7631 1752 41.8569
79.8802 1658 40.7185
79.9974 1571 39.6358
80.1147 1535 39.1791
80.2319 1564 39.5474
80.3491 1641 40.5093
80.4664 1616 40.1995
80.5837 1732 41.6173
80.701 1685 41.0488
80.8183 1657 40.7063
80.9357 1690 41.1096
81.053 1686 41.0609
81.1704 1674 40.9145
81.2877 1778 42.1663
81.4051 1721 41.4849
81.5225 1817 42.6263
81.6399 1786 42.2611
81.7573 1765 42.0119
81.8747 1693 41.1461
81.9922 1570 39.6232
82.1096 1562 39.5221
82.227 1539 39.2301
82.3444 1432 37.8418
82.4619 1660 40.7431
82.5793 1660 40.7431
82.6967 1623 40.2865
82.8142 1719 41.4608
82.9316 1774 42.1189
83.049 1767 42.0357
83.1664 1803 42.4617
83.2838 1854 43.0581
83.4012 1794 42.3556
83.5186 1699 41.2189
83.636 1633 40.4104
83.7534 1523 39.0256
83.8708 1583 39.7869
83.9881 1558 39.4715
84.1055 1630 40.3733
84.2228 1764 42
84.3401 1777 42.1545
84.4575 1798 42.4028
84.5747 1703 41.2674
84.692 1736 41.6653
84.8093 1755 41.8927
84.9265 1746 41.7852
85.0437 1739 41.7013
85.1609 1756 41.9047
85.2781 1756 41.9047
85.3952 1782 42.2137
85.5123 1751 41.845
85.6294 1658 40.7185
85.7465 1568 39.598
85.8636 1552 39.3954
85.9806 1538 39.2173
86.0976 1674 40.9145
86.2145 1753 41.8688
86.3315 1824 42.7083
86.4484 1716 41.4246
86.5652 1782 42.2137
86.682 1906 43.6578
86.7988 1831 42.7902
86.9156 1883 43.3935
87.0323 1728 41.5692
87.149 1722 41.497
87.2657 1594 39.9249
87.3823 1513 38.8973
87.4988 1634 40.4228
87.6154 1594 39.9249
87.7318 1643 40.5339
87.8483 1542 39.2683
87.9647 1477 38.4318
88.081 1383 37.1887
88.1973 1349 36.7287
88.3136 1321 36.3456
88.4298 1186 34.4384
88.546 1138 33.7343
88.6621 1077 32.8177
88.7781 1036 32.187
88.8942 0 1
89.0101 0 1
89.126 0 1
89.2419 0 1
89.3577 0 1
89.4734 0 1
89.5891 0 1
89.7047 0 1
89.8203 0 1
89.9358 0 1
92.3269 0 1
92.4424 0 1
92.558 0 1
92.6736 0 1
92.7893 0 1
92.905 0 1
93.0208 0 1
93.1366 0 1
93.2525 0 1
93.3685 0 1
93.4845 0 1
93.6005 1373 37.054
93.7167 1501 38.7427
93.8328 1596 39.95
93.949 1694 41.1582
94.0653 1722 41.497
94.1816 1769 42.0595
94.2979 1812 42.5676
94.4143 1736 41.6653
94.5307 1750 41.833
94.6472 1750 41.833
94.7637 1670 40.8656
94.8803 1621 40.2616
94.9969 1649 40.6079
95.1135 1631 40.3856
95.2302 1769 42.0595
95.3469 1733 41.6293
95.4637 1770 42.0714
95.5805 1833 42.8135
95.6973 1873 43.2782
95.8142 1825 42.72
95.9311 1753 41.8688
96.048 1828 42.7551
96.1649 1781 42.2019
96.2819 1677 40.9512
96.3989 1734 41.6413
96.516 1708 41.328
96.633 1730 41.5933
96.7501 1804 42.4735
96.8673 1859 43.1161
96.9844 1828 42.7551
97.1016 1815 42.6028
97.2188 1819 42.6497
97.336 1779 42.1782
97.4532 1848 42.9884
97.5704 1784 42.2374
97.6877 1780 42.19
97.805 1820 42.6615
97.9223 1829 42.7668
98.0396 1853 43.0465
98.1569 1822 42.6849
98.2743 1730 41.5933
98.3916 1711 41.3642
98.509 1746 41.7852
98.6264 1690 41.1096
98.7438 1808 42.5206
98.8612 1757 41.9166
98.9786 1894 43.5201
99.096 1885 43.4166
99.2134 1853 43.0465
99.3308 1983 44.5309
99.4482 2025 45
99.5656 1881 43.3705
99.6831 1891 43.4856
99.8005 1791 42.3202
99.9179 1832 42.8019
100.035 1862 43.1509
100.153 1741 41.7253
100.27 1872 43.2666
100.388 1949 44.1475
100.505 1831 42.7902
100.622 1909 43.6921
100.74 1894 43.5201
100.857 1840 42.8952
100.975 1877 43.3244
101.092 1890 43.4741
101.209 1836 42.8486
101.327 2012 44.8553
101.444 1962 44.2945
101.561 2036 45.1221
101.679 1906 43.6578
101.796 1950 44.1588
101.913 1861 43.1393
102.03 1820 42.6615
102.148 1800 42.4264
102.265 1924 43.8634
102.382 1908 43.6807
102.499 1952 44.1814
102.616 2005 44.7772
102.733 2111 45.9456
102.851 2138 46.2385
102.968 2191 46.8081
103.085 2162 46.4973
103.202 2120 46.0435
103.319 2067 45.4643
103.436 2087 45.6837
103.552 2030 45.0555
103.669 2004 44.7661
103.786 2154 46.4112
103.903 2212 47.0319
104.02 2160 46.4758
104.137 2158 46.4543
104.253 2126 46.1086
104.37 2047 45.2438
104.487 2159 46.465
104.603 2143 46.2925
104.72 2017 44.911
104.836 2142 46.2817
104.953 1982 44.5197
105.069 1895 43.5316
105.186 1800 42.4264
105.302 1648 40.5956
105.418 1564 39.5474
105.535 1471 38.3536
105.651 1319 36.318
105.767 1217 34.8855
105.883 1150 33.9116
105.999 1064 32.619
106.115 0 1
106.231 0 1
106.347 0 1
106.463 0 1
106.579 0 1
106.694 0 1
106.81 0 1
106.926 0 1
107.041 0 1
107.157 0 1
109.576 0 1
109.692 0 1
109.807 0 1
109.923 0 1
110.039 0 1
110.155 0 1
110.27 0 1
110.386 0 1
110.502 0 1
110.618 904 30.0666
110.735 1133 33.6601
110.851 1224 34.9857
110.967 1393 37.3229
111.083 1530 39.1152
111.199 1740 41.7133
111.316 1831 42.7902
111.432 1924 43.8634
111.549 1972 44.4072
111.665 1969 44.3734
111.782 1869 43.2319
111.898 1717 41.4367
112.015 1786 42.2611
112.132 1818 42.638
112.248 1872 43.2666
112.365 1879 43.3474
112.482 1848 42.9884
112.599 1857 43.0929
112.716 1828 42.7551
112.832 1787 42.2729
112.949 1789 42.2966
113.066 1777 42.1545
113.183 1773 42.107
113.3 1757 41.9166
113.417 1719 41.4608
113.534 1841 42.9069
113.652 1813 42.5793
113.769 1780 42.19
113.886 1797 42.391
114.003 1627 40.3361
114.12 1581 39.7618
114.238 1573 39.6611
114.355 1579 39.7366
114.472 1705 41.2916
114.589 1630 40.3733
114.707 1717 41.4367
114.824 1760 41.9524
114.942 1823 42.6966
115.059 1825 42.72
115.176 1792 42.332
115.294 1700 41.2311
115.411 1619 40.2368
115.529 1659 40.7308
115.646 1652 40.6448
115.764 1707 41.3159
115.881 1720 41.4729
115.999 1717 41.4367
116.116 1739 41.7013
116.234 1698 41.2068
116.351 1703 41.2674
116.469 1670 40.8656
116.586 1642 40.5216
116.704 1605 40.0625
116.821 1625 40.3113
116.939 1581 39.7618
117.056 1647 40.5832
117.174 1626 40.3237
117.291 1656 40.694
117.409 1626 40.3237
117.526 1561 39.5095
117.644 1532 39.1408
117.761 1494 38.6523
117.879 1458 38.1838
117.996 1488 38.5746
118.114 1544 39.2938
118.231 1670 40.8656
118.349 1619 40.2368
118.466 1744 41.7612
118.584 1649 40.6079
118.701 1685 41.0488
118.819 1659 40.7308
118.936 1509 38.8458
119.053 1452 38.1051
119.171 1537 39.2046
119.288 1540 39.2428
119.405 1608 40.0999
119.523 1671 40.8779
119.64 1638 40.4722
119.757 1604 40.05
119.875 1612 40.1497
119.992 1594 39.9249
120.109 1617 40.2119
120.226 1665 40.8044
120.343 1461 38.223
120.46 1549 39.3573
120.578 1606 40.0749
120.695 1484 38.5227
120.812 1583 39.7869
120.929 1526 39.064
121.046 1645 40.5586
121.163 1485 38.5357
121.279 1427 37.7757
121.396 1421 37.6962
121.513 1383 37.1887
121.63 1363 36.9188
121.747 1357 36.8375
121.863 1339 36.5923
121.98 1343 36.647
122.097 1394 37.3363
122.213 1327 36.428
122.33 1343 36.647
122.446 1243 35.2562
122.563 1154 33.9706
122.679 1035 32.1714
122.795 950 30.8221
122.912 935 30.5778
123.028 915 30.249
123.144 876 29.5973
123.26 852 29.189
123.377 0 1
123.493 0 1
123.609 0 1
123.725 0 1
123.84 0 1
123.956 0 1
124.072 0 1
124.188 0 1
124.303 0 1
124.419 0 1
126.852 0 1
126.968 0 1
127.083 0 1
127.199 0 1
127.315 0 1
127.431 0 1
127.547 0 1
127.663 0 1
127.779 0 1
127.895 0 1
128.011 0 1
128.127 0 1
128.243 0 1
128.359 1888 43.4511
128.476 2017 44.911
128.592 2151 46.3789
128.708 2316 48.1248
128.825 2490 49.8999
128.941 2654 51.517
129.058 2909 53.9351
129.174 3412 58.4123
129.291 4116 64.1561
129.408 4982 70.5833
129.524 6249 79.0506
129.641 7484 86.5101
129.758 8697 93.2577
129.875 9881 99.4032
129.992 11435 106.935
130.108 13128 114.577
130.225 15713 125.352
130.342 18610 136.418
130.459 22534 150.113
130.576 27169 164.83
130.693 31387 177.164
130.81 34342 185.316
130.928 34603 186.019
131.045 35248 187.745
131.162 36910 192.12
131.279 38563 196.375
131.396 39516 198.786
131.513 39306 198.257
131.631 39303 198.25
131.748 37579 193.853
131.865 36661 191.471
131.983 35860 189.367
132.1 34489 185.712
132.217 32906 181.4
132.335 31591 177.739
132.452 29853 172.78
132.57 28285 168.181
132.687 26474 162.708
132.804 26039 161.366
132.922 24174 155.48
133.039 23233 152.424
133.157 22097 148.651
133.274 20604 143.541
133.392 19729 140.46
133.509 18693 136.722
133.627 17478 132.204
133.744 16447 128.246
133.862 15357 123.923
133.979 13980 118.237
134.097 13214 114.952
134.214 12795 113.115
134.332 12710 112.739
134.449 12022 109.645
134.567 10916 104.48
134.684 9679 98.3819
134.802 10022 100.11
134.919 10687 103.378
135.037 10529 102.611
135.154 10109 100.544
135.272 9300 96.4365
135.389 8755 93.5682
135.507 8414 91.7279
135.624 8577 92.6121
135.742 8453 91.9402
135.859 8020 89.5545
135.977 7849 88.5946
136.094 7434 86.2206
136.211 7259 85.1998
136.329 7061 84.0298
136.446 6954 83.3906
136.564 6760 82.2192
136.681 6648 81.5353
136.798 6242 79.0063
136.915 6181 78.6193
137.033 5992 77.408
137.15 5783 76.046
137.267 5668 75.2861
137.384 5341 73.0821
137.502 5057 71.1126
137.619 4735 68.8113
137.736 4689 68.4763
137.853 4409 66.4003
137.97 4618 67.9559
138.087 4453 66.7308
138.204 4749 68.913
138.321 4778 69.1231
138.438 4700 68.5565
138.555 5000 70.7107
138.672 4845 69.606
138.788 4905 70.0357
138.905 4642 68.1322
139.022 4251 65.1997
139.139 3996 63.2139
139.255 3846 62.0161
139.372 3991 63.1744
139.488 3984 63.1189
139.605 3927 62.6658
139.721 3785 61.5224
139.838 3449 58.7282
139.954 3058 55.2992
140.071 2980 54.5894
140.187 2892 53.7773
140.303 2787 52.792
140.419 2551 50.5074
140.535 2554 50.5371
140.652 2385 48.8365
140.768 0 1
140.884 0 1
141 0 1
141.115 0 1
141.231 0 1
141.347 0 1
141.463 0 1
141.578 0 1
141.694 0 1
144.104 0 1
144.219 0 1
144.335 0 1
144.45 0 1
144.566 0 1
144.682 0 1
144.798 0 1
144.914 0 1
145.03 0 1
145.146 4619 67.9632
145.262 4804 69.3109
145.378 4974 70.5266
145.494 5264 72.5534
145.61 5102 71.4283
145.726 5101 71.4213
145.842 5090 71.3442
145.959 5210 72.1803
146.075 5294 72.7599
146.192 5333 73.0274
146.308 5177 71.9514
146.425 5166 71.8749
146.541 5023 70.8731
146.658 5071 71.211
146.774 5005 70.746
146.891 5325 72.9726
147.008 5375 73.3144
147.125 5535 74.3976
147.241 5712 75.5778
147.358 5859 76.5441
147.475 5845 76.4526
147.592 5694 75.4586
147.709 5266 72.5672
147.826 5133 71.645
147.943 4836 69.5414
148.06 5014 70.8096
148.177 5046 71.0352
148.294 5434 73.7157
148.411 5592 74.7797
148.528 5713 75.5844
148.645 5685 75.3989
148.762 5714 75.591
148.88 5639 75.0933
148.997 5743 75.7826
149.114 5649 75.1598
149.231 5788 76.0789
149.349 5753 75.8485
149.466 5771 75.9671
149.583 5620 74.9667
149.701 5803 76.1774
149.818 5512 74.2428
149.935 5563 74.5855
150.053 5145 71.7287
150.17 5108 71.4703
150.287 4837 69.5485
150.405 4819 69.419
150.522 4815 69.3902
150.64 5016 70.8237
150.757 5099 71.4073
150.875 5113 71.5052
150.992 5270 72.5948
151.11 5174 71.9305
151.227 5002 70.7248
151.344 4825 69.4622
151.462 4712 68.644
151.579 4493 67.0298
151.697 4491 67.0149
151.814 4678 68.3959
151.932 4844 69.5989
152.049 4954 70.3847
152.167 5040 70.993
152.284 5033 70.9436
152.402 4971 70.5053
152.519 4912 70.0857
152.636 4826 69.4694
152.754 4932 70.2282
152.871 4865 69.7496
152.989 5015 70.8167
153.106 4777 69.1158
153.223 4780 69.1375
153.341 4691 68.4909
153.458 4577 67.6535
153.575 4540 67.3795
153.693 4327 65.7799
153.81 4318 65.7115
153.927 4085 63.914
154.044 3878 62.2736
154.162 3781 61.4898
154.279 3984 63.1189
154.396 4089 63.9453
154.513 4335 65.8407
154.63 4327 65.7799
154.747 4292 65.5134
154.864 4420 66.4831
154.981 4290 65.4981
155.098 4216 64.9307
155.215 3970 63.0079
155.332 4092 63.9687
155.449 4099 64.0234
155.566 4403 66.3551
155.683 4536 67.3498
155.8 4469 66.8506
155.917 4555 67.4907
156.033 4598 67.8086
156.15 0 1
156.267 0 1
156.383 0 1
156.5 0 1
156.617 0 1
156.733 0 1
156.85 0 1
156.966 0 1
157.082 0 1
157.199 0 1
157.315 0 1
157.431 0 1
157.547 0 1
157.664 0 1
157.78 0 1
157.896 0 1
158.012 0 1
158.128 0 1
158.244 0 1
158.359 0 1
158.475 0 1
158.591 0 1
158.706 0 1
