
6.15755 0 1
6.2731 0 1
6.3887 0 1
6.50437 0 1
6.62009 0 1
6.73587 0 1
6.8517 0 1
6.96759 0 1
7.08353 0 1
7.19952 0 1
7.31557 0 1
7.43166 0 1
7.54781 0 1
7.664 0 1
7.78024 0 1
7.89653 0 1
8.01286 0 1
8.12924 0 1
8.24567 0 1
8.36213 0 1
8.47864 0 1
8.59519 0 1
8.71178 0 1
8.82841 0 1
8.94508 0 1
9.06179 0 1
9.17853 0 1
9.29531 0 1
9.41212 0 1
9.52897 0 1
9.64584 0 1
9.76276 0 1
9.8797 0 1
9.99667 0 1
10.1137 0 1
10.2307 0 1
10.3478 0 1
10.4648 0 1
10.5819 0 1
10.6991 0 1
10.8162 0 1
10.9334 0 1
11.0506 0 1
11.1678 0 1
11.285 0 1
11.4023 0 1
11.5196 0 1
11.6369 0 1
11.7542 0 1
11.8715 0 1
11.9888 0 1
12.1062 0 1
12.2235 0 1
12.3409 0 1
12.4582 0 1
12.5756 0 1
12.693 0 1
12.8104 0 1
12.9278 0 1
13.0452 0 1
13.1626 0 1
13.28 0 1
13.3974 0 1
13.5149 0 1
13.6323 0 1
13.7497 0 1
13.8671 0 1
13.9845 0 1
14.1019 0 1
14.2193 0 1
14.3367 0 1
14.4541 0 1
14.5714 0 1
14.6888 0 1
14.8062 0 1
14.9235 0 1
15.0408 0 0
15.1581 0 0
15.2755 0 0
15.3927 0 0
15.51 0 0
15.6273 0 0
15.7445 0 0
15.8617 0 0
15.9789 0 0
16.0961 0 0
16.2132 0 0
16.3304 0 0
16.4475 0 0
16.5646 0 0
16.6816 0 0
16.7986 0 0
16.9156 0 0
17.0326 0 0
17.1496 0 0
17.2665 0 0
17.3833 0 0
17.5002 0 0
17.617 0 0
17.7338 0 0
17.8505 0 0
17.9672 0 0
18.0839 0 0
18.2005 0 0
18.3171 0 0
18.4337 0 0
18.5502 0 0
18.6666 0 0
18.7831 0 0
18.8994 0 0
19.0158 0 0
19.1321 0 0
19.2483 0 0
19.3645 0 0
19.4806 0 0
19.5967 0 0
19.7128 0 0
19.8288 0 0
19.9447 0 0
20.0606 0 1
20.1764 0 1
20.2922 0 1
20.4079 0 1
20.5236 0 1
20.6392 0 1
20.7548 0 1
20.8702 0 1
23.3078 0 1
23.4233 0 1
23.539 0 1
23.6547 0 1
23.7704 0 1
23.8862 0 1
24.0021 0 1
24.118 0 1
24.234 0 1
24.35 0 1
24.4661 22259 149.195
24.5822 22401 149.67
24.6984 21983 148.267
24.8146 21750 147.479
24.9309 21503 146.639
25.0472 20121 141.849
25.1636 18872 137.375
25.28 19019 137.909
25.3965 19172 138.463
25.513 19821 140.787
25.6296 21320 146.014
25.7462 22798 150.99
25.8628 23871 154.502
25.9795 24366 156.096
26.0962 24166 155.454
26.213 24476 156.448
26.3298 23957 154.78
26.4466 24227 155.65
26.5635 23864 154.48
26.6804 23427 153.059
26.7973 23431 153.072
26.9143 23594 153.603
27.0313 24071 155.148
27.1483 24584 156.793
27.2653 24714 157.207
27.3824 25124 158.506
27.4996 25167 158.641
27.6167 25082 158.373
27.7339 24847 157.629
27.8511 24477 156.451
27.9683 24026 155.003
28.0855 23495 153.281
28.2028 23462 153.173
28.3201 22133 148.772
28.4374 21822 147.723
28.5547 20133 141.891
28.6721 18390 135.61
28.7894 17747 133.218
28.9068 17534 132.416
29.0242 17773 133.315
29.1416 18670 136.638
29.259 19567 139.882
29.3764 21309 145.976
29.4939 22078 148.587
29.6113 22344 149.479
29.7288 22500 150
29.8463 22727 150.755
29.9638 22702 150.672
30.0812 22607 150.356
30.1987 22632 150.439
30.3162 22327 149.422
30.4337 22601 150.336
30.5512 23109 152.016
30.6687 23520 153.362
30.7862 24095 155.226
30.9037 23614 153.668
31.0212 24314 155.929
31.1387 24227 155.65
31.2562 23453 153.144
31.3737 23761 154.146
31.4912 23080 151.921
31.6087 22995 151.641
31.7262 22925 151.41
31.8436 22140 148.795
31.9611 21610 147.003
32.0785 20246 142.288
32.1959 18336 135.41
32.3134 17601 132.669
32.4308 17451 132.102
32.5482 17349 131.716
32.6655 18101 134.54
32.7829 19363 139.151
32.9002 20825 144.309
33.0176 21287 145.901
33.1349 21928 148.081
33.2522 22127 148.751
33.3694 21840 147.784
33.4867 22121 148.731
33.6039 22455 149.85
33.7211 22167 148.886
33.8383 21900 147.986
33.9554 22130 148.762
34.0725 21819 147.713
34.1896 22482 149.94
34.3067 22904 151.341
34.4237 22839 151.126
34.5407 23614 153.668
34.6577 23525 153.379
34.7746 23417 153.026
34.8915 23290 152.611
35.0084 22950 151.493
35.1252 22603 150.343
35.242 22279 149.262
35.3587 22402 149.673
35.4755 21911 148.024
35.5921 21554 146.813
35.7088 20439 142.965
35.8254 18304 135.292
35.9419 16941 130.158
36.0584 16380 127.984
36.1749 16539 128.604
36.2913 16540 128.608
36.4077 17079 130.687
36.524 18320 135.351
36.6403 19518 139.707
36.7565 20496 143.164
36.8727 20739 144.01
36.9889 21050 145.086
37.1049 20990 144.879
37.221 0 1
37.3369 0 1
37.4529 0 1
37.5687 0 1
37.6845 0 1
37.8003 0 1
37.916 0 1
38.0316 0 1
38.1472 0 1
40.5851 0 1
40.7008 0 1
40.8164 0 1
40.9322 0 1
41.048 0 1
41.1639 0 1
41.2798 0 1
41.3958 0 1
41.5118 0 1
41.6279 0 1
41.744 14228 119.281
41.8602 15660 125.14
41.9765 16477 128.363
42.0928 16933 130.127
42.2091 17634 132.793
42.3255 17909 133.825
42.4419 17952 133.985
42.5584 17600 132.665
42.675 17679 132.962
42.7915 17430 132.023
42.9081 17445 132.08
43.0248 17612 132.71
43.1415 17721 133.12
43.2582 17961 134.019
43.375 17881 133.72
43.4918 17983 134.101
43.6087 17971 134.056
43.7256 17582 132.597
43.8425 17571 132.556
43.9595 17005 130.403
44.0765 16911 130.042
44.1935 16622 128.926
44.3106 16126 126.988
44.4277 15372 123.984
44.5448 14251 119.378
44.6619 12922 113.675
44.7791 11795 108.605
44.8963 11361 106.588
45.0136 11324 106.414
45.1308 11240 106.019
45.2481 11877 108.982
45.3654 12748 112.907
45.4827 13204 114.909
45.6001 13377 115.659
45.7174 13362 115.594
45.8348 13311 115.373
45.9522 13518 116.267
46.0697 13380 115.672
46.1871 12824 113.243
46.3046 12893 113.547
46.422 12770 113.004
46.5395 12807 113.168
46.657 12874 113.464
46.7745 13089 114.407
46.892 13170 114.761
47.0096 13062 114.289
47.1271 13196 114.874
47.2446 13091 114.416
47.3622 12805 113.159
47.4797 12628 112.374
47.5973 12490 111.759
47.7149 12294 110.878
47.8324 11878 108.986
47.95 11318 106.386
48.0675 10419 102.074
48.1851 9828 99.1363
48.3027 8763 93.6109
48.4202 8360 91.433
48.5378 8337 91.3072
48.6554 8439 91.864
48.7729 8859 94.1223
48.8904 9717 98.5748
49.008 10335 101.661
49.1255 10598 102.947
49.243 10557 102.747
49.3605 10700 103.441
49.478 10632 103.112
49.5955 10651 103.204
49.713 10854 104.183
49.8304 10597 102.942
49.9479 10927 104.532
50.0653 10934 104.566
50.1827 11574 107.583
50.3001 11796 108.609
50.4175 12140 110.182
50.5348 12419 111.441
50.6521 12797 113.124
50.7694 13124 114.56
50.8867 13329 115.451
51.004 13479 116.099
51.1212 13774 117.363
51.2384 13658 116.867
51.3556 13823 117.571
51.4727 13527 116.306
51.5899 12752 112.925
51.707 11896 109.069
51.824 11178 105.726
51.9411 11159 105.636
52.0581 11082 105.271
52.175 12024 109.654
52.2919 12951 113.802
52.4088 13863 117.741
52.5257 14548 120.615
52.6425 15209 123.325
52.7593 15506 124.523
52.876 16087 126.835
52.9927 16415 128.121
53.1094 16497 128.441
53.226 16975 130.288
53.3426 16733 129.356
53.4591 17073 130.664
53.5756 17519 132.359
53.692 18110 134.573
53.8084 18320 135.351
53.9248 18860 137.332
54.0411 19501 139.646
54.1573 19900 141.067
54.2735 0 1
54.3896 0 1
54.5057 0 1
54.6217 0 1
54.7377 0 1
54.8537 0 1
54.9695 0 1
55.0853 0 1
55.2011 0 1
55.3168 0 1
55.4324 0 1
57.824 0 1
57.9396 0 1
58.0553 0 1
58.1711 0 1
58.2869 0 1
58.4028 0 1
58.5187 0 1
58.6347 0 1
58.7508 0 1
58.8669 0 1
58.983 20758 144.076
59.0992 21620 147.037
59.2155 22189 148.96
59.3318 22693 150.642
59.4482 23057 151.845
59.5646 23170 152.217
59.681 23306 152.663
59.7975 22732 150.771
59.9141 22064 148.54
60.0306 21261 145.812
60.1473 19872 140.968
60.2639 18491 135.982
60.3807 16839 129.765
60.4974 15893 126.067
60.6142 15330 123.814
60.731 15433 124.23
60.8479 15781 125.622
60.9648 16859 129.842
61.0818 17772 133.312
61.1987 18576 136.294
61.3158 18931 137.59
61.4328 19176 138.477
61.5499 19400 139.284
61.667 19390 139.248
61.7841 19557 139.846
61.9013 19862 140.933
62.0185 19758 140.563
62.1357 20155 141.968
62.253 20206 142.148
62.3702 20743 144.024
62.4875 21324 146.027
62.6049 22181 148.933
62.7222 22568 150.226
62.8396 23387 152.928
62.9569 23392 152.944
63.0743 23531 153.398
63.1918 23404 152.984
63.3092 22946 151.479
63.4267 22638 150.459
63.5441 21218 145.664
63.6616 19966 141.301
63.7791 18369 135.532
63.8966 16948 130.184
64.0142 15577 124.808
64.1317 15359 123.931
64.2492 16020 126.57
64.3668 16458 128.289
64.4843 17591 132.631
64.6019 18696 136.733
64.7195 19377 139.201
64.837 19886 141.018
64.9546 19764 140.584
65.0722 20146 141.937
65.1898 19915 141.121
65.3074 20231 142.236
65.4249 19342 139.076
65.5425 19961 141.283
65.6601 19993 141.397
65.7777 20015 141.474
65.8952 20439 142.965
66.0128 20563 143.398
66.1304 21342 146.089
66.2479 21550 146.799
66.3655 22308 149.359
66.483 22591 150.303
66.6005 22447 149.823
66.718 22180 148.93
66.8355 22229 149.094
66.953 21627 147.061
67.0705 20447 142.993
67.1879 19291 138.892
67.3054 18084 134.477
67.4228 16355 127.887
67.5402 14845 121.84
67.6576 13654 116.85
67.7749 13553 116.417
67.8923 14133 118.882
68.0096 14826 121.762
68.1269 15835 125.837
68.2442 16837 129.757
68.3614 17577 132.578
68.4787 17857 133.63
68.5958 17891 133.757
68.713 18112 134.581
68.8302 17782 133.349
68.9473 17752 133.237
69.0643 17942 133.948
69.1814 17897 133.78
69.2984 17918 133.858
69.4154 18587 136.334
69.5323 18931 137.59
69.6492 19364 139.155
69.7661 19992 141.393
69.8829 20985 144.862
69.9997 21609 147
70.1165 22177 148.919
70.2332 22306 149.352
70.3499 21903 147.997
70.4665 21925 148.071
70.5831 21340 146.082
70.6996 20214 142.176
70.8161 18968 137.724
70.9326 17782 133.349
71.049 16535 128.588
71.1653 14830 121.778
71.2817 13672 116.927
71.3979 13170 114.761
71.5141 13431 115.892
71.6303 13683 116.974
71.7464 13420 115.845
71.8624 0 1
71.9784 0 1
72.0944 0 1
72.2102 0 1
72.3261 0 1
72.4418 0 1
72.5575 0 1
72.6732 0 1
75.1054 0 1
75.2209 0 1
75.3365 0 1
75.4521 0 1
75.5678 0 1
75.6835 0 1
75.7993 0 1
75.9151 0 1
76.031 0 1
76.147 17233 131.275
76.263 17623 132.752
76.3791 16690 129.19
76.4952 15301 123.697
76.6113 13741 117.222
76.7276 13686 116.987
76.8438 14252 119.382
76.9601 15298 123.685
77.0765 16217 127.346
77.1929 17462 132.144
77.3093 18580 136.308
77.4258 18927 137.575
77.5423 19126 138.297
77.6589 18751 136.934
77.7755 18669 136.635
77.8921 18314 135.329
78.0088 17768 133.297
78.1256 17691 133.008
78.2423 17466 132.159
78.3591 17816 133.477
78.4759 18351 135.466
78.5928 18844 137.273
78.7097 19599 139.996
78.8266 19964 141.294
78.9436 21920 148.054
79.0606 21352 146.123
79.1776 21528 146.724
79.2946 22043 148.469
79.4117 21887 147.943
79.5288 21488 146.588
79.6459 20882 144.506
79.7631 19170 138.456
79.8802 18023 134.25
79.9974 16290 127.632
80.1147 14904 122.082
80.2319 13576 116.516
80.3491 13350 115.542
80.4664 13565 116.469
80.5837 14286 119.524
80.701 15510 124.539
80.8183 15798 125.69
80.9357 16550 128.647
81.053 17527 132.39
81.1704 17334 131.659
81.2877 16954 130.208
81.4051 16424 128.156
81.5225 16038 126.641
81.6399 16116 126.949
81.7573 15865 125.956
81.8747 15573 124.792
81.9922 15553 124.712
82.1096 16244 127.452
82.227 17016 130.445
82.3444 18059 134.384
82.4619 18746 136.916
82.5793 19276 138.838
82.6967 18741 136.898
82.8142 19009 137.873
82.9316 19376 139.198
83.049 19074 138.109
83.1664 18646 136.55
83.2838 17377 131.822
83.4012 15816 125.762
83.5186 14885 122.004
83.636 13941 118.072
83.7534 12473 111.683
83.8708 11776 108.517
83.9881 11733 108.319
84.1055 12088 109.945
84.2228 12889 113.53
84.3401 13682 116.97
84.4575 14603 120.843
84.5747 15884 126.032
84.692 16328 127.781
84.8093 16197 127.267
84.9265 15606 124.924
85.0437 15204 123.305
85.1609 15142 123.053
85.2781 14611 120.876
85.3952 14490 120.374
85.5123 14648 121.029
85.6294 15439 124.254
85.7465 16198 127.271
85.8636 17190 131.111
85.9806 18290 135.241
86.0976 19387 139.237
86.2145 20076 141.69
86.3315 20909 144.599
86.4484 20247 142.292
86.5652 21165 145.482
86.682 21098 145.252
86.7988 20292 142.45
86.9156 19149 138.38
87.0323 17654 132.868
87.149 16468 128.328
87.2657 15493 124.471
87.3823 14562 120.673
87.4988 14187 119.109
87.6154 14283 119.512
87.7318 15544 124.676
87.8483 16266 127.538
87.9647 17273 131.427
88.081 18599 136.378
88.1973 19737 140.488
88.3136 20201 142.13
88.4298 19372 139.183
88.546 18547 136.187
88.6621 18090 134.499
88.7781 17834 133.544
88.8942 0 1
89.0101 0 1
89.126 0 1
89.2419 0 1
89.3577 0 1
89.4734 0 1
89.5891 0 1
89.7047 0 1
89.8203 0 1
89.9358 0 1
92.3269 0 1
92.4424 0 1
92.558 0 1
92.6736 0 1
92.7893 0 1
92.905 0 1
93.0208 0 1
93.1366 0 1
93.2525 0 1
93.3685 0 1
93.4845 0 1
93.6005 18421 135.724
93.7167 19251 138.748
93.8328 19044 138
93.949 18777 137.029
94.0653 18179 134.83
94.1816 17981 134.093
94.2979 17558 132.507
94.4143 17458 132.129
94.5307 17371 131.799
94.6472 17803 133.428
94.7637 18265 135.148
94.8803 19617 140.061
94.9969 20662 143.743
95.1135 21724 147.391
95.2302 22649 150.496
95.3469 22783 150.94
95.4637 23036 151.776
95.5805 23400 152.971
95.6973 23623 153.698
95.8142 23515 153.346
95.9311 22347 149.489
96.048 21300 145.945
96.1649 19916 141.124
96.2819 18482 135.949
96.3989 17384 131.848
96.516 16703 129.24
96.633 16236 127.421
96.7501 16005 126.511
96.8673 16817 129.68
96.9844 17585 132.608
97.1016 18268 135.159
97.2188 19441 139.431
97.336 20760 144.083
97.4532 20841 144.364
97.5704 20605 143.544
97.6877 19545 139.803
97.805 18470 135.904
97.9223 17985 134.108
98.0396 17813 133.465
98.1569 17501 132.291
98.2743 17923 133.877
98.3916 18455 135.849
98.509 19000 137.84
98.6264 20557 143.377
98.7438 21806 147.669
98.8612 22581 150.27
98.9786 23230 152.414
99.096 23563 153.502
99.2134 23347 152.797
99.3308 23584 153.571
99.4482 23807 154.295
99.5656 22517 150.057
99.6831 21324 146.027
99.8005 19963 141.29
99.9179 18617 136.444
100.035 17780 133.342
100.153 17122 130.851
100.27 17084 130.706
100.388 17226 131.248
100.505 17736 133.177
100.622 18114 134.588
100.74 19316 138.982
100.857 19944 141.223
100.975 20758 144.076
101.092 20666 143.757
101.209 19955 141.262
101.327 19090 138.167
101.444 18569 136.268
101.561 18350 135.462
101.679 17943 133.951
101.796 18139 134.681
101.913 18604 136.396
102.03 19738 140.492
102.148 21203 145.612
102.265 22388 149.626
102.382 24601 156.847
102.499 24595 156.828
102.616 24790 157.448
102.733 24872 157.709
102.851 25413 159.415
102.968 24994 158.095
103.085 24367 156.099
103.202 23316 152.696
103.319 21581 146.905
103.436 20537 143.307
103.552 19379 139.208
103.669 18461 135.871
103.786 18297 135.266
103.903 18640 136.528
104.02 19258 138.773
104.137 20097 141.764
104.253 21102 145.265
104.37 22217 149.054
104.487 22336 149.452
104.603 22129 148.758
104.72 21539 146.762
104.836 20480 143.108
104.953 19834 140.833
105.069 19723 140.439
105.186 19845 140.872
105.302 19785 140.659
105.418 20703 143.885
105.535 22542 150.14
105.651 24305 155.901
105.767 25951 161.093
105.883 27107 164.642
105.999 26855 163.875
106.115 0 1
106.231 0 1
106.347 0 1
106.463 0 1
106.579 0 1
106.694 0 1
106.81 0 1
106.926 0 1
107.041 0 1
107.157 0 1
109.576 0 1
109.692 0 1
109.807 0 1
109.923 0 1
110.039 0 1
110.155 0 1
110.27 0 1
110.386 0 1
110.502 0 1
110.618 21178 145.527
110.735 22822 151.07
110.851 24656 157.022
110.967 25295 159.044
111.083 25409 159.402
111.199 25524 159.762
111.316 26315 162.219
111.432 26509 162.816
111.549 25822 160.692
111.665 24742 157.296
111.782 23334 152.755
111.898 21912 148.027
112.015 20952 144.748
112.132 20455 143.021
112.248 18926 137.572
112.365 18528 136.118
112.482 18399 135.643
112.599 19918 141.131
112.716 19930 141.174
112.832 20425 142.916
112.949 20913 144.613
113.066 21142 145.403
113.183 20430 142.934
113.3 19418 139.348
113.417 19045 138.004
113.534 18429 135.753
113.652 18248 135.085
113.769 18565 136.253
113.886 18638 136.521
114.003 19334 139.047
114.12 21086 145.21
114.238 23008 151.684
114.355 24115 155.29
114.472 24555 156.7
114.589 25017 158.168
114.707 25201 158.748
114.824 25503 159.697
114.942 25431 159.471
115.059 25597 159.991
115.176 24415 156.253
115.294 23566 153.512
115.411 22470 149.9
115.529 21978 148.25
115.646 21278 145.87
115.764 19838 140.847
115.881 19066 138.08
115.999 19111 138.243
116.116 19537 139.775
116.234 20302 142.485
116.351 20732 143.986
116.469 21177 145.523
116.586 21317 146.003
116.704 21245 145.757
116.821 20442 142.976
116.939 19761 140.574
117.056 19012 137.884
117.174 18975 137.75
117.291 19146 138.369
117.409 19554 139.836
117.526 20443 142.979
117.644 21648 147.133
117.761 22886 151.281
117.879 24404 156.218
117.996 25034 158.221
118.114 25656 160.175
118.231 26157 161.731
118.349 26027 161.329
118.466 26107 161.577
118.584 26445 162.619
118.701 26004 161.258
118.819 25068 158.329
118.936 23794 154.253
119.053 23130 152.086
119.171 22830 151.096
119.288 21601 146.973
119.405 20651 143.705
119.523 19828 140.812
119.64 19598 139.993
119.757 20052 141.605
119.875 20595 143.51
119.992 20876 144.485
120.109 20921 144.641
120.226 21111 145.296
120.343 20855 144.413
120.46 20179 142.053
120.578 19516 139.7
120.695 19519 139.71
120.812 19187 138.517
120.929 19508 139.671
121.046 19918 141.131
121.163 20038 141.556
121.279 21293 145.921
121.396 22618 150.393
121.513 23813 154.315
121.63 25102 158.436
121.747 25140 158.556
121.863 25395 159.358
121.98 25686 160.269
122.097 25803 160.633
122.213 25655 160.172
122.33 25222 158.814
122.446 24453 156.375
122.563 23853 154.444
122.679 23166 152.204
122.795 22650 150.499
122.912 22202 149.003
123.028 21266 145.829
123.144 20043 141.573
123.26 19396 139.27
123.377 0 1
123.493 0 1
123.609 0 1
123.725 0 1
123.84 0 1
123.956 0 1
124.072 0 1
124.188 0 1
124.303 0 1
124.419 0 1
126.852 0 1
126.968 0 1
127.083 0 1
127.199 0 1
127.315 0 1
127.431 0 1
127.547 0 1
127.663 0 1
127.779 0 1
127.895 0 1
128.011 0 1
128.127 0 1
128.243 0 1
128.359 22701 150.669
128.476 21648 147.133
128.592 21472 146.533
128.708 22237 149.121
128.825 22941 151.463
128.941 23454 153.147
129.058 23144 152.132
129.174 22832 151.103
129.291 23265 152.529
129.408 22348 149.492
129.524 21382 146.226
129.641 21431 146.393
129.758 21321 146.017
129.875 21478 146.554
129.992 21680 147.241
130.108 22020 148.391
130.225 23456 153.154
130.342 24658 157.029
130.459 24977 158.041
130.576 26815 163.753
130.693 26267 162.071
130.81 26640 163.218
130.928 26703 163.411
131.045 26599 163.092
131.162 26615 163.141
131.279 26751 163.557
131.396 26769 163.612
131.513 26272 162.086
131.631 25450 159.531
131.748 24914 157.842
131.865 24011 154.955
131.983 22765 150.881
132.1 22211 149.034
132.217 22432 149.773
132.335 23065 151.872
132.452 23665 153.834
132.57 23584 153.571
132.687 23168 152.21
132.804 23810 154.305
132.922 22411 149.703
133.039 22251 149.168
133.157 21705 147.326
133.274 21091 145.227
133.392 21181 145.537
133.509 21408 146.315
133.627 21696 147.296
133.744 22763 150.874
133.862 24304 155.897
133.979 24919 157.858
134.097 25365 159.264
134.214 25508 159.712
134.332 26104 161.567
134.449 25962 161.127
134.567 25763 160.509
134.684 26110 161.586
134.802 26651 163.251
134.919 26784 163.658
135.037 26363 162.367
135.154 25459 159.559
135.272 25263 158.943
135.389 24160 155.435
135.507 23211 152.352
135.624 22377 149.589
135.742 22358 149.526
135.859 22948 151.486
135.977 23717 154.003
136.094 23682 153.89
136.211 23541 153.431
136.329 23602 153.629
136.446 23333 152.751
136.564 22894 151.308
136.681 22098 148.654
136.798 21643 147.116
136.915 21262 145.815
137.033 21597 146.959
137.15 21475 146.544
137.267 21812 147.689
137.384 22998 151.651
137.502 24093 155.219
137.619 24556 156.704
137.736 24958 157.981
137.853 24663 157.045
137.97 25247 158.893
138.087 25284 159.009
138.204 25476 159.612
138.321 25903 160.944
138.438 26411 162.515
138.555 26874 163.933
138.672 26858 163.884
138.788 25968 161.146
138.905 25535 159.797
139.022 24748 157.315
139.139 23580 153.558
139.255 23106 152.007
139.372 22865 151.212
139.488 23312 152.683
139.605 24120 155.306
139.721 24089 155.206
139.838 24474 156.442
139.954 23849 154.431
140.071 23468 153.193
140.187 22985 151.608
140.303 22151 148.832
140.419 21510 146.663
140.535 20889 144.53
140.652 20641 143.67
140.768 0 1
140.884 0 1
141 0 1
141.115 0 1
141.231 0 1
141.347 0 1
141.463 0 1
141.578 0 1
141.694 0 1
144.104 0 1
144.219 0 1
144.335 0 1
144.45 0 1
144.566 0 1
144.682 0 1
144.798 0 1
144.914 0 1
145.03 0 1
145.146 17118 130.836
145.262 18288 135.233
145.378 18023 134.25
145.494 17424 132
145.61 17336 131.666
145.726 17327 131.632
145.842 17026 130.484
145.959 17207 131.175
146.075 17236 131.286
146.192 17973 134.063
146.308 18565 136.253
146.425 18968 137.724
146.541 19544 139.8
146.658 19617 140.061
146.774 19919 141.135
146.891 19870 140.961
147.008 20267 142.362
147.125 20596 143.513
147.241 21657 147.163
147.358 21635 147.088
147.475 21731 147.414
147.592 21587 146.925
147.709 21108 145.286
147.826 20777 144.142
147.943 20050 141.598
148.06 19338 139.061
148.177 18422 135.728
148.294 18641 136.532
148.411 19470 139.535
148.528 19957 141.269
148.645 19839 140.851
148.762 19658 140.207
148.88 19669 140.246
148.997 19198 138.557
149.114 19643 140.153
149.231 19015 137.895
149.349 17858 133.634
149.466 18554 136.213
149.583 17795 133.398
149.701 17953 133.989
149.818 17957 134.004
149.935 17885 133.735
150.053 18487 135.967
150.17 19260 138.78
150.287 19640 140.143
150.405 20148 141.944
150.522 20198 142.12
150.64 20331 142.587
150.757 20871 144.468
150.875 21591 146.939
150.992 22166 148.883
151.11 22142 148.802
151.227 22241 149.134
151.344 21958 148.182
151.462 21518 146.69
151.579 21561 146.837
151.697 20168 142.014
151.814 19587 139.954
151.932 19610 140.036
152.049 19679 140.282
152.167 20539 143.314
152.284 21035 145.034
152.402 20851 144.399
152.519 20792 144.194
152.636 20840 144.361
152.754 20584 143.471
152.871 20100 141.774
152.989 19637 140.132
153.106 19083 138.141
153.223 19025 137.931
153.341 18836 137.244
153.458 19074 138.109
153.575 19428 139.384
153.693 19695 140.339
153.81 20625 143.614
153.927 21114 145.307
154.044 21439 146.421
154.162 21897 147.976
154.279 22545 150.15
154.396 23448 153.127
154.513 24285 155.836
154.63 24488 156.486
154.747 24665 157.051
154.864 24748 157.315
154.981 24936 157.911
155.098 24748 157.315
155.215 23393 152.948
155.332 23169 152.214
155.449 22288 149.292
155.566 22218 149.057
155.683 22939 151.456
155.8 23023 151.733
155.917 23331 152.745
156.033 22689 150.629
156.15 0 1
156.267 0 1
156.383 0 1
156.5 0 1
156.617 0 1
156.733 0 1
156.85 0 1
156.966 0 1
157.082 0 1
157.199 0 1
157.315 0 1
157.431 0 1
157.547 0 1
157.664 0 1
157.78 0 1
157.896 0 1
158.012 0 1
158.128 0 1
158.244 0 1
158.359 0 1
158.475 0 1
158.591 0 1
158.706 0 1
