
6.15755 0 1
6.2731 0 1
6.3887 0 1
6.50437 0 1
6.62009 0 1
6.73587 0 1
6.8517 0 1
6.96759 0 1
7.08353 0 1
7.19952 0 1
7.31557 0 1
7.43166 0 1
7.54781 0 1
7.664 0 1
7.78024 0 1
7.89653 0 1
8.01286 0 1
8.12924 0 1
8.24567 0 1
8.36213 0 1
8.47864 0 1
8.59519 0 1
8.71178 0 1
8.82841 0 1
8.94508 0 1
9.06179 0 1
9.17853 0 1
9.29531 0 1
9.41212 0 1
9.52897 0 1
9.64584 0 1
9.76276 0 1
9.8797 0 1
9.99667 0 1
10.1137 0 1
10.2307 0 1
10.3478 0 1
10.4648 0 1
10.5819 0 1
10.6991 0 1
10.8162 0 1
10.9334 0 1
11.0506 0 1
11.1678 0 1
11.285 0 1
11.4023 0 1
11.5196 0 1
11.6369 0 1
11.7542 0 1
11.8715 0 1
11.9888 0 1
12.1062 0 1
12.2235 0 1
12.3409 0 1
12.4582 0 1
12.5756 0 1
12.693 0 1
12.8104 0 1
12.9278 0 1
13.0452 0 1
13.1626 0 1
13.28 0 1
13.3974 0 1
13.5149 0 1
13.6323 0 1
13.7497 0 1
13.8671 0 1
13.9845 0 1
14.1019 0 1
14.2193 0 1
14.3367 0 1
14.4541 0 1
14.5714 0 1
14.6888 0 1
14.8062 0 1
14.9235 0 1
15.0408 0 0
15.1581 0 0
15.2755 0 0
15.3927 0 0
15.51 0 0
15.6273 0 0
15.7445 0 0
15.8617 0 0
15.9789 0 0
16.0961 0 0
16.2132 0 0
16.3304 0 0
16.4475 0 0
16.5646 0 0
16.6816 0 0
16.7986 0 0
16.9156 0 0
17.0326 0 0
17.1496 0 0
17.2665 0 0
17.3833 0 0
17.5002 0 0
17.617 0 0
17.7338 0 0
17.8505 0 0
17.9672 0 0
18.0839 0 0
18.2005 0 0
18.3171 0 0
18.4337 0 0
18.5502 0 0
18.6666 0 0
18.7831 0 0
18.8994 0 0
19.0158 0 0
19.1321 0 0
19.2483 0 0
19.3645 0 0
19.4806 0 0
19.5967 0 0
19.7128 0 0
19.8288 0 0
19.9447 0 0
20.0606 0 1
20.1764 0 1
20.2922 0 1
20.4079 0 1
20.5236 0 1
20.6392 0 1
20.7548 0 1
20.8702 0 1
23.3078 0 1
23.4233 0 1
23.539 0 1
23.6547 0 1
23.7704 0 1
23.8862 0 1
24.0021 0 1
24.118 0 1
24.234 0 1
24.35 0 1
24.4661 15554 124.716
24.5822 15690 125.26
24.6984 15517 124.567
24.8146 15403 124.109
24.9309 14918 122.139
25.0472 14804 121.672
25.1636 14820 121.737
25.28 14963 122.323
25.3965 15356 123.919
25.513 15721 125.383
25.6296 16426 128.164
25.7462 16639 128.992
25.8628 16698 129.221
25.9795 16702 129.236
26.0962 16806 129.638
26.213 16762 129.468
26.3298 16082 126.815
26.4466 15385 124.036
26.5635 15155 123.106
26.6804 14740 121.408
26.7973 15160 123.126
26.9143 15403 124.109
27.0313 15985 126.432
27.1483 16405 128.082
27.2653 16410 128.102
27.3824 16504 128.468
27.4996 16800 129.615
27.6167 16435 128.199
27.7339 16086 126.831
27.8511 15995 126.471
27.9683 15606 124.924
28.0855 15346 123.879
28.2028 15287 123.641
28.3201 14513 120.47
28.4374 14167 119.025
28.5547 13756 117.286
28.6721 13434 115.905
28.7894 13717 117.12
28.9068 14036 118.474
29.0242 14537 120.569
29.1416 14458 120.241
29.259 14950 122.27
29.3764 15155 123.106
29.4939 15074 122.776
29.6113 15231 123.414
29.7288 14988 122.425
29.8463 14687 121.19
29.9638 14157 118.983
30.0812 13670 116.919
30.1987 13478 116.095
30.3162 13732 117.184
30.4337 14327 119.695
30.5512 14480 120.333
30.6687 14915 122.127
30.7862 15490 124.459
30.9037 15269 123.568
31.0212 15572 124.788
31.1387 15760 125.539
31.2562 15470 124.378
31.3737 15300 123.693
31.4912 14982 122.401
31.6087 14813 121.709
31.7262 14662 121.087
31.8436 13997 118.309
31.9611 13919 117.979
32.0785 13382 115.681
32.1959 13430 115.888
32.3134 13479 116.099
32.4308 13491 116.151
32.5482 13973 118.207
32.6655 14250 119.373
32.7829 14397 119.987
32.9002 14623 120.926
33.0176 14271 119.461
33.1349 14682 121.169
33.2522 14691 121.206
33.3694 14640 120.996
33.4867 14217 119.235
33.6039 13547 116.392
33.7211 13330 115.456
33.8383 13038 114.184
33.9554 13570 116.49
34.0725 13831 117.605
34.1896 14384 119.933
34.3067 14734 121.384
34.4237 14780 121.573
34.5407 15009 122.511
34.6577 15402 124.105
34.7746 15414 124.153
34.8915 15287 123.641
35.0084 15091 122.845
35.1252 14866 121.926
35.242 14611 120.876
35.3587 14455 120.229
35.4755 14065 118.596
35.5921 13824 117.576
35.7088 13299 115.321
35.8254 12736 112.854
35.9419 12610 112.294
36.0584 12728 112.818
36.1749 13227 115.009
36.2913 13381 115.676
36.4077 13523 116.288
36.524 13771 117.35
36.6403 14079 118.655
36.7565 14261 119.419
36.8727 14447 120.196
36.9889 14161 119
37.1049 13602 116.628
37.221 0 1
37.3369 0 1
37.4529 0 1
37.5687 0 1
37.6845 0 1
37.8003 0 1
37.916 0 1
38.0316 0 1
38.1472 0 1
40.5851 0 1
40.7008 0 1
40.8164 0 1
40.9322 0 1
41.048 0 1
41.1639 0 1
41.2798 0 1
41.3958 0 1
41.5118 0 1
41.6279 0 1
41.744 11374 106.649
41.8602 11618 107.787
41.9765 11625 107.819
42.0928 11857 108.89
42.2091 11859 108.899
42.3255 11293 106.269
42.4419 11125 105.475
42.5584 10633 103.116
42.675 10744 103.653
42.7915 11181 105.74
42.9081 11528 107.369
43.0248 11949 109.311
43.1415 12083 109.923
43.2582 12214 110.517
43.375 12498 111.794
43.4918 13041 114.197
43.6087 12647 112.459
43.7256 12266 110.752
43.8425 12352 111.14
43.9595 12089 109.95
44.0765 11777 108.522
44.1935 11619 107.791
44.3106 11142 105.556
44.4277 10467 102.308
44.5448 10061 100.305
44.6619 9614 98.051
44.7791 9717 98.5748
44.8963 9854 99.2673
45.0136 9930 99.6494
45.1308 10368 101.823
45.2481 10254 101.262
45.3654 10561 102.767
45.4827 10636 103.131
45.6001 10534 102.635
45.7174 10247 101.227
45.8348 10126 100.628
45.9522 9708 98.5292
46.0697 9352 96.7057
46.1871 8905 94.3663
46.3046 9035 95.0526
46.422 9483 97.3807
46.5395 9612 98.0408
46.657 9932 99.6594
46.7745 10257 101.277
46.892 10397 101.966
47.0096 10407 102.015
47.1271 10234 101.163
47.2446 10168 100.837
47.3622 9957 99.7848
47.4797 9785 98.9192
47.5973 9635 98.158
47.7149 9485 97.391
47.8324 8965 94.6837
47.95 8548 92.4554
48.0675 8357 91.4166
48.1851 7692 87.704
48.3027 7639 87.4014
48.4202 7771 88.1533
48.5378 7947 89.1459
48.6554 8286 91.0275
48.7729 8395 91.6242
48.8904 8670 93.1128
49.008 8839 94.016
49.1255 8767 93.6323
49.243 8963 94.6731
49.3605 8626 92.8763
49.478 8250 90.8295
49.5955 7895 88.8538
49.713 7779 88.1986
49.8304 7931 89.0562
49.9479 8591 92.6876
50.0653 9178 95.8019
50.1827 9683 98.4022
50.3001 9994 99.97
50.4175 10443 102.191
50.5348 10674 103.315
50.6521 11238 106.009
50.7694 11215 105.901
50.8867 11444 106.977
51.004 11483 107.159
51.1212 11853 108.871
51.2384 11720 108.259
51.3556 11350 106.536
51.4727 10863 104.226
51.5899 10567 102.796
51.707 10164 100.817
51.824 10061 100.305
51.9411 10675 103.32
52.0581 10879 104.302
52.175 11291 106.259
52.2919 11806 108.655
52.4088 11727 108.291
52.5257 11978 109.444
52.6425 12409 111.396
52.7593 12547 112.013
52.876 12484 111.732
52.9927 12168 110.309
53.1094 11754 108.416
53.226 11477 107.131
53.3426 11314 106.367
53.4591 11821 108.724
53.5756 12308 110.941
53.692 13231 115.026
53.8084 13686 116.987
53.9248 14229 119.285
54.0411 14748 121.441
54.1573 14742 121.417
54.2735 0 1
54.3896 0 1
54.5057 0 1
54.6217 0 1
54.7377 0 1
54.8537 0 1
54.9695 0 1
55.0853 0 1
55.2011 0 1
55.3168 0 1
55.4324 0 1
57.824 0 1
57.9396 0 1
58.0553 0 1
58.1711 0 1
58.2869 0 1
58.4028 0 1
58.5187 0 1
58.6347 0 1
58.7508 0 1
58.8669 0 1
58.983 16243 127.448
59.0992 16978 130.3
59.2155 17416 131.97
59.3318 18081 134.466
59.4482 18064 134.402
59.5646 17828 133.522
59.681 17932 133.91
59.7975 17481 132.216
59.9141 17138 130.912
60.0306 16063 126.74
60.1473 15572 124.788
60.2639 14582 120.756
60.3807 13778 117.38
60.4974 13547 116.392
60.6142 13621 116.709
60.731 13891 117.86
60.8479 14636 120.979
60.9648 14895 122.045
61.0818 15339 123.851
61.1987 15336 123.839
61.3158 15467 124.366
61.4328 15112 122.931
61.5499 14387 119.946
61.667 13851 117.69
61.7841 13487 116.134
61.9013 13101 114.46
62.0185 13461 116.022
62.1357 13851 117.69
62.253 14704 121.26
62.3702 15325 123.794
62.4875 15659 125.136
62.6049 16224 127.373
62.7222 16765 129.48
62.8396 16988 130.338
62.9569 16937 130.142
63.0743 16829 129.727
63.1918 16900 130
63.3092 16477 128.363
63.4267 15865 125.956
63.5441 15192 123.256
63.6616 14251 119.378
63.7791 13105 114.477
63.8966 12628 112.374
64.0142 12382 111.274
64.1317 12415 111.423
64.2492 12749 112.911
64.3668 13288 115.274
64.4843 13645 116.812
64.6019 14198 119.155
64.7195 14284 119.516
64.837 14339 119.746
64.9546 14288 119.532
65.0722 13757 117.29
65.1898 12889 113.53
65.3074 12704 112.712
65.4249 12069 109.859
65.5425 11939 109.266
65.6601 12602 112.259
65.7777 13231 115.026
65.8952 14084 118.676
66.0128 14604 120.847
66.1304 15346 123.879
66.2479 15854 125.913
66.3655 16030 126.61
66.483 16258 127.507
66.6005 16433 128.191
66.718 16151 127.087
66.8355 15913 126.147
66.953 15621 124.984
67.0705 15317 123.762
67.1879 14205 119.185
67.3054 13449 115.97
67.4228 12355 111.153
67.5402 11904 109.105
67.6576 11597 107.689
67.7749 11760 108.444
67.8923 12467 111.656
68.0096 13016 114.088
68.1269 13912 117.949
68.2442 14340 119.75
68.3614 14341 119.754
68.4787 14470 120.291
68.5958 14499 120.412
68.713 14037 118.478
68.8302 13316 115.395
68.9473 12924 113.684
69.0643 12351 111.135
69.1814 12456 111.606
69.2984 13001 114.022
69.4154 13727 117.162
69.5323 14475 120.312
69.6492 15241 123.454
69.7661 16018 126.562
69.8829 16564 128.701
69.9997 17096 130.752
70.1165 17561 132.518
70.2332 17463 132.148
70.3499 17448 132.091
70.4665 16765 129.48
70.5831 16452 128.265
70.6996 15901 126.099
70.8161 14946 122.254
70.9326 14036 118.474
71.049 13223 114.991
71.1653 12482 111.723
71.2817 11885 109.018
71.3979 11903 109.101
71.5141 11736 108.333
71.6303 12218 110.535
71.7464 12230 110.589
71.8624 0 1
71.9784 0 1
72.0944 0 1
72.2102 0 1
72.3261 0 1
72.4418 0 1
72.5575 0 1
72.6732 0 1
75.1054 0 1
75.2209 0 1
75.3365 0 1
75.4521 0 1
75.5678 0 1
75.6835 0 1
75.7993 0 1
75.9151 0 1
76.031 0 1
76.147 13865 117.75
76.263 14322 119.675
76.3791 13594 116.593
76.4952 12370 111.221
76.6113 12213 110.512
76.7276 12252 110.689
76.8438 12662 112.526
76.9601 13359 115.581
77.0765 14221 119.252
77.1929 14913 122.119
77.3093 15277 123.6
77.4258 15808 125.73
77.5423 15741 125.463
77.6589 15190 123.248
77.7755 14358 119.825
77.8921 13288 115.274
78.0088 12576 112.143
78.1256 12509 111.844
78.2423 12367 111.207
78.3591 13017 114.092
78.4759 13741 117.222
78.5928 14537 120.569
78.7097 15459 124.334
78.8266 16893 129.973
78.9436 16134 127.02
79.0606 17124 130.859
79.1776 17225 131.244
79.2946 17282 131.461
79.4117 17202 131.156
79.5288 17187 131.099
79.6459 16469 128.332
79.7631 15614 124.956
79.8802 14943 122.242
79.9974 13918 117.975
80.1147 12878 113.481
80.2319 11882 109.005
80.3491 11901 109.092
80.4664 12410 111.4
80.5837 12841 113.318
80.701 13397 115.745
80.8183 14103 118.756
80.9357 14330 119.708
81.053 14960 122.311
81.1704 14970 122.352
81.2877 14506 120.441
81.4051 13831 117.605
81.5225 13206 114.917
81.6399 12096 109.982
81.7573 11942 109.279
81.8747 11471 107.103
81.9922 11889 109.037
82.1096 12986 113.956
82.227 13786 117.414
82.3444 14495 120.395
82.4619 15323 123.786
82.5793 15592 124.868
82.6967 16244 127.452
82.8142 15938 126.246
82.9316 15947 126.281
83.049 16238 127.428
83.1664 15597 124.888
83.2838 15057 122.707
83.4012 14461 120.254
83.5186 13261 115.156
83.636 12830 113.27
83.7534 11629 107.838
83.8708 10917 104.484
83.9881 10661 103.252
84.1055 11314 106.367
84.2228 11579 107.606
84.3401 12616 112.321
84.4575 13353 115.555
84.5747 14079 118.655
84.692 14671 121.124
84.8093 14507 120.445
84.9265 13707 117.077
85.0437 13086 114.394
85.1609 12169 110.313
85.2781 11703 108.18
85.3952 11222 105.934
85.5123 11615 107.773
85.6294 12232 110.598
85.7465 13254 115.126
85.8636 14272 119.465
85.9806 15030 122.597
86.0976 15861 125.94
86.2145 16438 128.211
86.3315 16511 128.495
86.4484 17709 133.075
86.5652 17572 132.559
86.682 17691 133.008
86.7988 17228 131.255
86.9156 16456 128.281
87.0323 15884 126.032
87.149 15188 123.24
87.2657 14195 119.143
87.3823 13426 115.871
87.4988 12921 113.671
87.6154 12978 113.921
87.7318 13368 115.62
87.8483 14504 120.433
87.9647 15675 125.2
88.081 16168 127.153
88.1973 17153 130.969
88.3136 17032 130.507
88.4298 16682 129.159
88.546 15649 125.096
88.6621 14372 119.883
88.7781 13530 116.319
88.8942 0 1
89.0101 0 1
89.126 0 1
89.2419 0 1
89.3577 0 1
89.4734 0 1
89.5891 0 1
89.7047 0 1
89.8203 0 1
89.9358 0 1
92.3269 0 1
92.4424 0 1
92.558 0 1
92.6736 0 1
92.7893 0 1
92.905 0 1
93.0208 0 1
93.1366 0 1
93.2525 0 1
93.3685 0 1
93.4845 0 1
93.6005 23009 151.687
93.7167 24221 155.631
93.8328 25042 158.247
93.949 25340 159.185
94.0653 25312 159.097
94.1816 24816 157.531
94.2979 24690 157.131
94.4143 24332 155.987
94.5307 25119 158.49
94.6472 26206 161.883
94.7637 28115 167.675
94.8803 31653 177.913
94.9969 34078 184.602
95.1135 36017 189.781
95.2302 38045 195.051
95.3469 39689 199.221
95.4637 41509 203.738
95.5805 42710 206.664
95.6973 44366 210.632
95.8142 45368 212.998
95.9311 45138 212.457
96.048 45059 212.271
96.1649 44092 209.981
96.2819 43406 208.341
96.3989 42087 205.151
96.516 39704 199.259
96.633 37535 193.74
96.7501 36819 191.883
96.8673 38268 195.622
96.9844 40573 201.427
97.1016 44385 210.677
97.2188 47178 217.205
97.336 49863 223.3
97.4532 50332 224.348
97.5704 49436 222.342
97.6877 48372 219.936
97.805 45471 213.239
97.9223 41923 204.751
98.0396 39280 198.192
98.1569 37517 193.693
98.2743 37366 193.303
98.3916 38503 196.222
98.509 41418 203.514
98.6264 44232 210.314
98.7438 46399 215.404
98.8612 47445 217.819
98.9786 49640 222.8
99.096 50247 224.158
99.2134 51063 225.971
99.3308 51252 226.389
99.4482 51453 226.833
99.5656 50842 225.482
99.6831 49471 222.421
99.8005 48161 219.456
99.9179 46452 215.527
100.035 44189 210.212
100.153 41330 203.298
100.27 38840 197.079
100.388 38524 196.275
100.505 40941 202.339
100.622 43959 209.664
100.74 47156 217.154
100.857 48386 219.968
100.975 49076 221.531
101.092 48311 219.798
101.209 47971 219.023
101.327 45789 213.984
101.444 42309 205.692
101.561 38662 196.627
101.679 36501 191.052
101.796 34470 185.661
101.913 34764 186.451
102.03 36862 191.995
102.148 39060 197.636
102.265 43129 207.675
102.382 40294 200.734
102.499 42980 207.316
102.616 42671 206.57
102.733 42744 206.746
102.851 42256 205.563
102.968 41452 203.598
103.085 39878 199.695
103.202 37754 194.304
103.319 35870 189.394
103.436 33516 183.074
103.552 30936 175.886
103.669 28229 168.015
103.786 25430 159.468
103.903 24642 156.978
104.02 24712 157.201
104.137 25800 160.624
104.253 26617 163.147
104.37 25122 158.499
104.487 25786 160.58
104.603 25094 158.411
104.72 23356 152.827
104.836 21699 147.306
104.953 19808 140.741
105.069 18029 134.272
105.186 16909 130.035
105.302 16325 127.769
105.418 16300 127.671
105.535 17311 131.571
105.651 18486 135.963
105.767 19327 139.022
105.883 20277 142.397
105.999 20437 142.958
106.115 0 1
106.231 0 1
106.347 0 1
106.463 0 1
106.579 0 1
106.694 0 1
106.81 0 1
106.926 0 1
107.041 0 1
107.157 0 1
109.576 0 1
109.692 0 1
109.807 0 1
109.923 0 1
110.039 0 1
110.155 0 1
110.27 0 1
110.386 0 1
110.502 0 1
110.618 15081 122.805
110.735 16567 128.713
110.851 17663 132.902
110.967 18376 135.558
111.083 18598 136.374
111.199 19034 137.964
111.316 19280 138.852
111.432 19162 138.427
111.549 19085 138.148
111.665 18632 136.499
111.782 17905 133.81
111.898 17083 130.702
112.015 16305 127.691
112.132 15151 123.089
112.248 14118 118.819
112.365 13848 117.678
112.482 13842 117.652
112.599 14113 118.798
112.716 14967 122.34
112.832 15420 124.177
112.949 15700 125.3
113.066 15918 126.167
113.183 15787 125.646
113.3 15158 123.118
113.417 14363 119.846
113.534 13704 117.064
113.652 13098 114.446
113.769 12709 112.734
113.886 12496 111.786
114.003 12934 113.728
114.12 13874 117.788
114.238 14922 122.156
114.355 16021 126.574
114.472 16528 128.561
114.589 16873 129.896
114.707 17068 130.645
114.824 17218 131.217
114.942 17569 132.548
115.059 17470 132.174
115.176 17099 130.763
115.294 16837 129.757
115.411 16232 127.405
115.529 15301 123.697
115.646 15039 122.634
115.764 14221 119.252
115.881 13320 115.412
115.999 13101 114.46
116.116 13596 116.602
116.234 14210 119.206
116.351 15032 122.605
116.469 15291 123.657
116.586 15450 124.298
116.704 15555 124.72
116.821 15491 124.463
116.939 14965 122.332
117.056 14041 118.495
117.174 13478 116.095
117.291 13204 114.909
117.409 13036 114.175
117.526 13234 115.039
117.644 14056 118.558
117.761 14910 122.107
117.879 16139 127.039
117.996 16813 129.665
118.114 17308 131.56
118.231 18148 134.715
118.349 17742 133.199
118.466 18091 134.503
118.584 18105 134.555
118.701 18238 135.048
118.819 17958 134.007
118.936 17487 132.238
119.053 16787 129.565
119.171 16200 127.279
119.288 15495 124.479
119.405 14796 121.639
119.523 13999 118.317
119.64 13949 118.106
119.757 13991 118.284
119.875 14614 120.888
119.992 15374 123.992
120.109 15567 124.768
120.226 15631 125.024
120.343 15527 124.607
120.46 15608 124.932
120.578 15170 123.167
120.695 14703 121.256
120.812 14287 119.528
120.929 13522 116.284
121.046 13917 117.97
121.163 13675 116.94
121.279 13946 118.093
121.396 14830 121.778
121.513 15677 125.208
121.63 16683 129.163
121.747 17015 130.442
121.863 17477 132.201
121.98 17791 133.383
122.097 18059 134.384
122.213 17951 133.981
122.33 17851 133.608
122.446 17880 133.716
122.563 17480 132.212
122.679 16931 130.119
122.795 16652 129.043
122.912 16103 126.898
123.028 15597 124.888
123.144 14746 121.433
123.26 13922 117.992
123.377 0 1
123.493 0 1
123.609 0 1
123.725 0 1
123.84 0 1
123.956 0 1
124.072 0 1
124.188 0 1
124.303 0 1
124.419 0 1
126.852 0 1
126.968 0 1
127.083 0 1
127.199 0 1
127.315 0 1
127.431 0 1
127.547 0 1
127.663 0 1
127.779 0 1
127.895 0 1
128.011 0 1
128.127 0 1
128.243 0 1
128.359 16986 130.33
128.476 16109 126.921
128.592 15929 126.21
128.708 16400 128.062
128.825 16712 129.275
128.941 17385 131.852
129.058 17717 133.105
129.174 18157 134.748
129.291 17772 133.312
129.408 17857 133.63
129.524 17319 131.602
129.641 16725 129.325
129.758 16007 126.519
129.875 15914 126.151
129.992 15632 125.028
130.108 15311 123.738
130.225 15674 125.196
130.342 17001 130.388
130.459 17381 131.837
130.576 18748 136.923
130.693 18886 137.426
130.81 19106 138.224
130.928 19341 139.072
131.045 19337 139.058
131.162 19418 139.348
131.279 19459 139.496
131.396 19322 139.004
131.513 19028 137.942
131.631 18749 136.927
131.748 17956 134
131.865 17261 131.381
131.983 16378 127.977
132.1 15930 126.214
132.217 15866 125.96
132.335 16540 128.608
132.452 16974 130.284
132.57 17882 133.724
132.687 17101 130.771
132.804 18111 134.577
132.922 17652 132.861
133.039 17324 131.621
133.157 16683 129.163
133.274 16240 127.436
133.392 15611 124.944
133.509 15255 123.511
133.627 15556 124.724
133.744 15535 124.639
133.862 16143 127.055
133.979 16991 130.35
134.097 17723 133.128
134.214 18383 135.584
134.332 18273 135.178
134.449 18762 136.974
134.567 18836 137.244
134.684 19579 139.925
134.802 19535 139.768
134.919 19423 139.366
135.037 19245 138.726
135.154 18930 137.586
135.272 18683 136.686
135.389 17753 133.24
135.507 17147 130.947
135.624 16346 127.851
135.742 16238 127.428
135.859 16494 128.429
135.977 17082 130.698
136.094 17555 132.495
136.211 17840 133.566
136.329 17961 134.019
136.446 17928 133.895
136.564 17731 133.158
136.681 17570 132.552
136.798 17059 130.61
136.915 16454 128.273
137.033 16324 127.765
137.15 15989 126.448
137.267 15754 125.515
137.384 16012 126.539
137.502 16540 128.608
137.619 17056 130.599
137.736 18360 135.499
137.853 18085 134.48
137.97 18258 135.122
138.087 19350 139.104
138.204 19149 138.38
138.321 19477 139.56
138.438 19692 140.328
138.555 19650 140.178
138.672 19843 140.865
138.788 19039 137.982
138.905 18735 136.876
139.022 18554 136.213
139.139 17609 132.699
139.255 17117 130.832
139.372 16646 129.019
139.488 16897 129.988
139.605 17385 131.852
139.721 18152 134.729
139.838 18273 135.178
139.954 18477 135.93
140.071 17906 133.813
140.187 18171 134.8
140.303 17546 132.461
140.419 17162 131.004
140.535 16377 127.973
140.652 15627 125.008
140.768 0 1
140.884 0 1
141 0 1
141.115 0 1
141.231 0 1
141.347 0 1
141.463 0 1
141.578 0 1
141.694 0 1
144.104 0 1
144.219 0 1
144.335 0 1
144.45 0 1
144.566 0 1
144.682 0 1
144.798 0 1
144.914 0 1
145.03 0 1
145.146 16700 129.228
145.262 16826 129.715
145.378 16514 128.507
145.494 16026 126.594
145.61 15652 125.108
145.726 15411 124.141
145.842 15305 123.713
145.959 15104 122.898
146.075 15368 123.968
146.192 15686 125.244
146.308 16329 127.785
146.425 16770 129.499
146.541 17345 131.7
146.658 17139 130.916
146.774 17740 133.192
146.891 17796 133.402
147.008 17973 134.063
147.125 18162 134.766
147.241 18259 135.126
147.358 17851 133.608
147.475 17526 132.386
147.592 17125 130.863
147.709 16703 129.24
147.826 15944 126.27
147.943 15514 124.555
148.06 15340 123.855
148.177 16022 126.578
148.294 16435 128.199
148.411 16601 128.845
148.528 16919 130.073
148.645 16890 129.962
148.762 16824 129.707
148.88 16518 128.522
148.997 15573 124.792
149.114 16134 127.02
149.231 15576 124.804
149.349 14905 122.086
149.466 14666 121.103
149.583 14576 120.731
149.701 14363 119.846
149.818 15488 124.451
149.935 15751 125.503
150.053 15947 126.281
150.17 16309 127.707
150.287 16757 129.449
150.405 17038 130.53
150.522 17359 131.754
150.64 17477 132.201
150.757 17487 132.238
150.875 17603 132.676
150.992 17610 132.703
151.11 16816 129.677
151.227 16681 129.155
151.344 16065 126.748
151.462 15736 125.443
151.579 15528 124.611
151.697 15297 123.681
151.814 15966 126.357
151.932 16050 126.689
152.049 16883 129.935
152.167 16852 129.815
152.284 16947 130.181
152.402 16778 129.53
152.519 16581 128.767
152.636 16322 127.758
152.754 15808 125.73
152.871 15598 124.892
152.989 15535 124.639
153.106 14738 121.4
153.223 15121 122.967
153.341 15226 123.394
153.458 15688 125.252
153.575 16240 127.436
153.693 16416 128.125
153.81 17085 130.71
153.927 17301 131.533
154.044 17625 132.759
154.162 17946 133.963
154.279 18434 135.772
154.396 18300 135.277
154.513 18881 137.408
154.63 18821 137.19
154.747 18306 135.3
154.864 17727 133.143
154.981 17508 132.318
155.098 16706 129.252
155.215 16290 127.632
155.332 16689 129.186
155.449 16891 129.965
155.566 17264 131.393
155.683 17487 132.238
155.8 17575 132.571
155.917 17491 132.254
156.033 17372 131.803
156.15 0 1
156.267 0 1
156.383 0 1
156.5 0 1
156.617 0 1
156.733 0 1
156.85 0 1
156.966 0 1
157.082 0 1
157.199 0 1
157.315 0 1
157.431 0 1
157.547 0 1
157.664 0 1
157.78 0 1
157.896 0 1
158.012 0 1
158.128 0 1
158.244 0 1
158.359 0 1
158.475 0 1
158.591 0 1
158.706 0 1
