
6.15755 0 1
6.2731 0 1
6.3887 0 1
6.50437 0 1
6.62009 0 1
6.73587 0 1
6.8517 0 1
6.96759 0 1
7.08353 0 1
7.19952 0 1
7.31557 0 1
7.43166 0 1
7.54781 0 1
7.664 0 1
7.78024 0 1
7.89653 0 1
8.01286 0 1
8.12924 0 1
8.24567 0 1
8.36213 0 1
8.47864 0 1
8.59519 0 1
8.71178 0 1
8.82841 0 1
8.94508 0 1
9.06179 0 1
9.17853 0 1
9.29531 0 1
9.41212 0 1
9.52897 0 1
9.64584 0 1
9.76276 0 1
9.8797 0 1
9.99667 0 1
10.1137 0 1
10.2307 0 1
10.3478 0 1
10.4648 0 1
10.5819 0 1
10.6991 0 1
10.8162 0 1
10.9334 0 1
11.0506 0 1
11.1678 0 1
11.285 0 1
11.4023 0 1
11.5196 0 1
11.6369 0 1
11.7542 0 1
11.8715 0 1
11.9888 0 1
12.1062 0 1
12.2235 0 1
12.3409 0 1
12.4582 0 1
12.5756 0 1
12.693 0 1
12.8104 0 1
12.9278 0 1
13.0452 0 1
13.1626 0 1
13.28 0 1
13.3974 0 1
13.5149 0 1
13.6323 0 1
13.7497 0 1
13.8671 0 1
13.9845 0 1
14.1019 0 1
14.2193 0 1
14.3367 0 1
14.4541 0 1
14.5714 0 1
14.6888 0 1
14.8062 0 1
14.9235 0 1
15.0408 785 28.0179
15.1581 862 29.3598
15.2755 820 28.6356
15.3927 830 28.8097
15.51 866 29.4279
15.6273 831 28.8271
15.7445 839 28.9655
15.8617 841 29
15.9789 819 28.6182
16.0961 726 26.9444
16.2132 705 26.5518
16.3304 741 27.2213
16.4475 727 26.9629
16.5646 781 27.9464
16.6816 750 27.3861
16.7986 758 27.5318
16.9156 788 28.0713
17.0326 751 27.4044
17.1496 758 27.5318
17.2665 778 27.8927
17.3833 699 26.4386
17.5002 760 27.5681
17.617 761 27.5862
17.7338 732 27.0555
17.8505 713 26.7021
17.9672 712 26.6833
18.0839 727 26.9629
18.2005 725 26.9258
18.3171 711 26.6646
18.4337 664 25.7682
18.5502 767 27.6948
18.6666 722 26.8701
18.7831 767 27.6948
18.8994 729 27
19.0158 720 26.8328
19.1321 717 26.7769
19.2483 718 26.7955
19.3645 659 25.671
19.4806 625 25
19.5967 540 23.2379
19.7128 526 22.9347
19.8288 501 22.383
19.9447 443 21.0476
20.0606 0 1
20.1764 0 1
20.2922 0 1
20.4079 0 1
20.5236 0 1
20.6392 0 1
20.7548 0 1
20.8702 0 1
23.3078 0 1
23.4233 0 1
23.539 0 1
23.6547 0 1
23.7704 0 1
23.8862 0 1
24.0021 0 1
24.118 0 1
24.234 0 1
24.35 0 1
24.4661 324 18
24.5822 348 18.6548
24.6984 444 21.0713
24.8146 475 21.7945
24.9309 547 23.388
25.0472 649 25.4755
25.1636 684 26.1534
25.28 767 27.6948
25.3965 771 27.7669
25.513 760 27.5681
25.6296 804 28.3549
25.7462 796 28.2135
25.8628 813 28.5132
25.9795 814 28.5307
26.0962 847 29.1033
26.213 794 28.178
26.3298 746 27.313
26.4466 723 26.8887
26.5635 677 26.0192
26.6804 664 25.7682
26.7973 605 24.5967
26.9143 678 26.0384
27.0313 670 25.8844
27.1483 615 24.7992
27.2653 679 26.0576
27.3824 653 25.5539
27.4996 719 26.8142
27.6167 735 27.1109
27.7339 696 26.3818
27.8511 682 26.1151
27.9683 758 27.5318
28.0855 726 26.9444
28.2028 681 26.096
28.3201 659 25.671
28.4374 662 25.7294
28.5547 701 26.4764
28.6721 747 27.3313
28.7894 743 27.258
28.9068 745 27.2947
29.0242 761 27.5862
29.1416 685 26.1725
29.259 680 26.0768
29.3764 705 26.5518
29.4939 695 26.3629
29.6113 705 26.5518
29.7288 650 25.4951
29.8463 650 25.4951
29.9638 671 25.9037
30.0812 610 24.6982
30.1987 602 24.5357
30.3162 618 24.8596
30.4337 584 24.1661
30.5512 640 25.2982
30.6687 671 25.9037
30.7862 728 26.9815
30.9037 674 25.9615
31.0212 680 26.0768
31.1387 719 26.8142
31.2562 706 26.5707
31.3737 704 26.533
31.4912 718 26.7955
31.6087 637 25.2389
31.7262 676 26
31.8436 664 25.7682
31.9611 667 25.8263
32.0785 682 26.1151
32.1959 685 26.1725
32.3134 677 26.0192
32.4308 659 25.671
32.5482 655 25.593
32.6655 636 25.219
32.7829 668 25.8457
32.9002 644 25.3772
33.0176 612 24.7386
33.1349 609 24.6779
33.2522 651 25.5147
33.3694 600 24.4949
33.4867 574 23.9583
33.6039 584 24.1661
33.7211 586 24.2074
33.8383 556 23.5797
33.9554 549 23.4307
34.0725 572 23.9165
34.1896 603 24.5561
34.3067 625 25
34.4237 640 25.2982
34.5407 730 27.0185
34.6577 614 24.779
34.7746 637 25.2389
34.8915 593 24.3516
35.0084 612 24.7386
35.1252 602 24.5357
35.242 577 24.0208
35.3587 589 24.2693
35.4755 580 24.0832
35.5921 633 25.1595
35.7088 650 25.4951
35.8254 570 23.8747
35.9419 654 25.5734
36.0584 601 24.5153
36.1749 575 23.9792
36.2913 569 23.8537
36.4077 539 23.2164
36.524 545 23.3452
36.6403 470 21.6795
36.7565 514 22.6716
36.8727 483 21.9773
36.9889 431 20.7605
37.1049 385 19.6214
37.221 0 1
37.3369 0 1
37.4529 0 1
37.5687 0 1
37.6845 0 1
37.8003 0 1
37.916 0 1
38.0316 0 1
38.1472 0 1
40.5851 0 1
40.7008 0 1
40.8164 0 1
40.9322 0 1
41.048 0 1
41.1639 0 1
41.2798 0 1
41.3958 0 1
41.5118 0 1
41.6279 0 1
41.744 277 16.6433
41.8602 351 18.735
41.9765 389 19.7231
42.0928 406 20.1494
42.2091 431 20.7605
42.3255 420 20.4939
42.4419 456 21.3542
42.5584 452 21.2603
42.675 452 21.2603
42.7915 447 21.1424
42.9081 411 20.2731
43.0248 410 20.2485
43.1415 468 21.6333
43.2582 472 21.7256
43.375 465 21.5639
43.4918 479 21.8861
43.6087 455 21.3307
43.7256 479 21.8861
43.8425 431 20.7605
43.9595 429 20.7123
44.0765 417 20.4206
44.1935 434 20.8327
44.3106 427 20.664
44.4277 446 21.1187
44.5448 432 20.7846
44.6619 498 22.3159
44.7791 493 22.2036
44.8963 488 22.0907
45.0136 489 22.1133
45.1308 508 22.5389
45.2481 472 21.7256
45.3654 506 22.4944
45.4827 465 21.5639
45.6001 490 22.1359
45.7174 497 22.2935
45.8348 500 22.3607
45.9522 475 21.7945
46.0697 469 21.6564
46.1871 457 21.3776
46.3046 417 20.4206
46.422 430 20.7364
46.5395 444 21.0713
46.657 462 21.4942
46.7745 447 21.1424
46.892 480 21.9089
47.0096 501 22.383
47.1271 465 21.5639
47.2446 440 20.9762
47.3622 451 21.2368
47.4797 436 20.8806
47.5973 436 20.8806
47.7149 446 21.1187
47.8324 411 20.2731
47.95 452 21.2603
48.0675 478 21.8632
48.1851 466 21.587
48.3027 474 21.7715
48.4202 435 20.8567
48.5378 462 21.4942
48.6554 496 22.2711
48.7729 505 22.4722
48.8904 436 20.8806
49.008 474 21.7715
49.1255 462 21.4942
49.243 471 21.7025
49.3605 452 21.2603
49.478 437 20.9045
49.5955 390 19.7484
49.713 432 20.7846
49.8304 404 20.0998
49.9479 403 20.0749
50.0653 382 19.5448
50.1827 403 20.0749
50.3001 430 20.7364
50.4175 431 20.7605
50.5348 483 21.9773
50.6521 467 21.6102
50.7694 466 21.587
50.8867 458 21.4009
51.004 428 20.6882
51.1212 405 20.1246
51.2384 390 19.7484
51.3556 414 20.347
51.4727 436 20.8806
51.5899 437 20.9045
51.707 490 22.1359
51.824 452 21.2603
51.9411 489 22.1133
52.0581 476 21.8174
52.175 422 20.5426
52.2919 465 21.5639
52.4088 454 21.3073
52.5257 398 19.9499
52.6425 439 20.9523
52.7593 460 21.4476
52.876 476 21.8174
52.9927 409 20.2237
53.1094 468 21.6333
53.226 426 20.6398
53.3426 386 19.6469
53.4591 388 19.6977
53.5756 387 19.6723
53.692 346 18.6011
53.8084 334 18.2757
53.9248 374 19.3391
54.0411 312 17.6635
54.1573 311 17.6352
54.2735 0 1
54.3896 0 1
54.5057 0 1
54.6217 0 1
54.7377 0 1
54.8537 0 1
54.9695 0 1
55.0853 0 1
55.2011 0 1
55.3168 0 1
55.4324 0 1
57.824 0 1
57.9396 0 1
58.0553 0 1
58.1711 0 1
58.2869 0 1
58.4028 0 1
58.5187 0 1
58.6347 0 1
58.7508 0 1
58.8669 0 1
58.983 2512 50.1199
59.0992 3450 58.7367
59.2155 4234 65.0692
59.3318 4538 67.3647
59.4482 4962 70.4415
59.5646 5104 71.4423
59.681 5113 71.5052
59.7975 5128 71.6101
59.9141 5077 71.2531
60.0306 4959 70.4202
60.1473 4946 70.3278
60.2639 5019 70.8449
60.3807 4947 70.3349
60.4974 4737 68.8259
60.6142 4724 68.7314
60.731 4542 67.3944
60.8479 4344 65.909
60.9648 3759 61.3107
61.0818 3332 57.7235
61.1987 2914 53.9815
61.3158 2610 51.0882
61.4328 2392 48.9081
61.5499 2111 45.9456
61.667 1834 42.8252
61.7841 1611 40.1373
61.9013 1350 36.7423
62.0185 1129 33.6006
62.1357 949 30.8058
62.253 902 30.0333
62.3702 1122 33.4963
62.4875 1231 35.0856
62.6049 1402 37.4433
62.7222 1544 39.2938
62.8396 1581 39.7618
62.9569 1590 39.8748
63.0743 1524 39.0384
63.1918 1469 38.3275
63.3092 1362 36.9053
63.4267 1173 34.2491
63.5441 983 31.3528
63.6616 833 28.8617
63.7791 772 27.7849
63.8966 671 25.9037
64.0142 632 25.1396
64.1317 643 25.3574
64.2492 595 24.3926
64.3668 630 25.0998
64.4843 611 24.7184
64.6019 612 24.7386
64.7195 589 24.2693
64.837 609 24.6779
64.9546 609 24.6779
65.0722 553 23.516
65.1898 600 24.4949
65.3074 518 22.7596
65.4249 528 22.9783
65.5425 545 23.3452
65.6601 470 21.6795
65.7777 460 21.4476
65.8952 498 22.3159
66.0128 496 22.2711
66.1304 590 24.2899
66.2479 555 23.5584
66.3655 499 22.3383
66.483 543 23.3024
66.6005 575 23.9792
66.718 539 23.2164
66.8355 477 21.8403
66.953 532 23.0651
67.0705 465 21.5639
67.1879 548 23.4094
67.3054 498 22.3159
67.4228 571 23.8956
67.5402 557 23.6008
67.6576 578 24.0416
67.7749 547 23.388
67.8923 537 23.1733
68.0096 536 23.1517
68.1269 576 24
68.2442 544 23.3238
68.3614 521 22.8254
68.4787 503 22.4277
68.5958 493 22.2036
68.713 564 23.7487
68.8302 513 22.6495
68.9473 553 23.516
69.0643 542 23.2809
69.1814 488 22.0907
69.2984 528 22.9783
69.4154 489 22.1133
69.5323 505 22.4722
69.6492 510 22.5832
69.7661 520 22.8035
69.8829 533 23.0868
69.9997 516 22.7156
70.1165 491 22.1585
70.2332 523 22.8692
70.3499 515 22.6936
70.4665 468 21.6333
70.5831 422 20.5426
70.6996 383 19.5704
70.8161 377 19.4165
70.9326 367 19.1572
71.049 335 18.303
71.1653 317 17.8045
71.2817 316 17.7764
71.3979 281 16.7631
71.5141 239 15.4596
71.6303 264 16.2481
71.7464 244 15.6205
71.8624 0 1
71.9784 0 1
72.0944 0 1
72.2102 0 1
72.3261 0 1
72.4418 0 1
72.5575 0 1
72.6732 0 1
75.1054 0 1
75.2209 0 1
75.3365 0 1
75.4521 0 1
75.5678 0 1
75.6835 0 1
75.7993 0 1
75.9151 0 1
76.031 0 1
76.147 273 16.5227
76.263 355 18.8414
76.3791 417 20.4206
76.4952 388 19.6977
76.6113 460 21.4476
76.7276 453 21.2838
76.8438 479 21.8861
76.9601 462 21.4942
77.0765 444 21.0713
77.1929 446 21.1187
77.3093 487 22.0681
77.4258 475 21.7945
77.5423 449 21.1896
77.6589 466 21.587
77.7755 459 21.4243
77.8921 439 20.9523
78.0088 433 20.8087
78.1256 423 20.567
78.2423 433 20.8087
78.3591 400 20
78.4759 417 20.4206
78.5928 438 20.9284
78.7097 431 20.7605
78.8266 425 20.6155
78.9436 421 20.5183
79.0606 459 21.4243
79.1776 458 21.4009
79.2946 491 22.1585
79.4117 471 21.7025
79.5288 482 21.9545
79.6459 463 21.5174
79.7631 465 21.5639
79.8802 422 20.5426
79.9974 463 21.5174
80.1147 523 22.8692
80.2319 505 22.4722
80.3491 471 21.7025
80.4664 529 23
80.5837 501 22.383
80.701 486 22.0454
80.8183 465 21.5639
80.9357 456 21.3542
81.053 505 22.4722
81.1704 455 21.3307
81.2877 490 22.1359
81.4051 453 21.2838
81.5225 477 21.8403
81.6399 436 20.8806
81.7573 475 21.7945
81.8747 480 21.9089
81.9922 456 21.3542
82.1096 462 21.4942
82.227 458 21.4009
82.3444 465 21.5639
82.4619 450 21.2132
82.5793 438 20.9284
82.6967 486 22.0454
82.8142 488 22.0907
82.9316 479 21.8861
83.049 481 21.9317
83.1664 474 21.7715
83.2838 487 22.0681
83.4012 434 20.8327
83.5186 425 20.6155
83.636 463 21.5174
83.7534 463 21.5174
83.8708 463 21.5174
83.9881 496 22.2711
84.1055 494 22.2261
84.2228 443 21.0476
84.3401 494 22.2261
84.4575 475 21.7945
84.5747 461 21.4709
84.692 486 22.0454
84.8093 496 22.2711
84.9265 460 21.4476
85.0437 483 21.9773
85.1609 519 22.7816
85.2781 453 21.2838
85.3952 500 22.3607
85.5123 460 21.4476
85.6294 447 21.1424
85.7465 457 21.3776
85.8636 437 20.9045
85.9806 443 21.0476
86.0976 466 21.587
86.2145 457 21.3776
86.3315 494 22.2261
86.4484 494 22.2261
86.5652 443 21.0476
86.682 481 21.9317
86.7988 499 22.3383
86.9156 482 21.9545
87.0323 465 21.5639
87.149 462 21.4942
87.2657 466 21.587
87.3823 458 21.4009
87.4988 524 22.891
87.6154 435 20.8567
87.7318 462 21.4942
87.8483 452 21.2603
87.9647 420 20.4939
88.081 360 18.9737
88.1973 376 19.3907
88.3136 343 18.5203
88.4298 321 17.9165
88.546 288 16.9706
88.6621 258 16.0624
88.7781 271 16.4621
88.8942 0 1
89.0101 0 1
89.126 0 1
89.2419 0 1
89.3577 0 1
89.4734 0 1
89.5891 0 1
89.7047 0 1
89.8203 0 1
89.9358 0 1
92.3269 0 1
92.4424 0 1
92.558 0 1
92.6736 0 1
92.7893 0 1
92.905 0 1
93.0208 0 1
93.1366 0 1
93.2525 0 1
93.3685 0 1
93.4845 0 1
93.6005 384 19.5959
93.7167 415 20.3715
93.8328 403 20.0749
93.949 486 22.0454
94.0653 476 21.8174
94.1816 441 21
94.2979 432 20.7846
94.4143 493 22.2036
94.5307 467 21.6102
94.6472 434 20.8327
94.7637 436 20.8806
94.8803 488 22.0907
94.9969 421 20.5183
95.1135 399 19.975
95.2302 434 20.8327
95.3469 425 20.6155
95.4637 459 21.4243
95.5805 477 21.8403
95.6973 477 21.8403
95.8142 517 22.7376
95.9311 469 21.6564
96.048 500 22.3607
96.1649 475 21.7945
96.2819 475 21.7945
96.3989 461 21.4709
96.516 503 22.4277
96.633 496 22.2711
96.7501 531 23.0434
96.8673 481 21.9317
96.9844 504 22.4499
97.1016 521 22.8254
97.2188 462 21.4942
97.336 491 22.1585
97.4532 476 21.8174
97.5704 472 21.7256
97.6877 484 22
97.805 512 22.6274
97.9223 492 22.1811
98.0396 490 22.1359
98.1569 459 21.4243
98.2743 499 22.3383
98.3916 444 21.0713
98.509 473 21.7486
98.6264 456 21.3542
98.7438 504 22.4499
98.8612 492 22.1811
98.9786 478 21.8632
99.096 508 22.5389
99.2134 536 23.1517
99.3308 546 23.3666
99.4482 519 22.7816
99.5656 561 23.6854
99.6831 530 23.0217
99.8005 503 22.4277
99.9179 528 22.9783
100.035 543 23.3024
100.153 544 23.3238
100.27 530 23.0217
100.388 491 22.1585
100.505 504 22.4499
100.622 467 21.6102
100.74 495 22.2486
100.857 506 22.4944
100.975 518 22.7596
101.092 491 22.1585
101.209 550 23.4521
101.327 535 23.1301
101.444 543 23.3024
101.561 564 23.7487
101.679 542 23.2809
101.796 506 22.4944
101.913 518 22.7596
102.03 492 22.1811
102.148 508 22.5389
102.265 514 22.6716
102.382 478 21.8632
102.499 549 23.4307
102.616 515 22.6936
102.733 528 22.9783
102.851 557 23.6008
102.968 569 23.8537
103.085 600 24.4949
103.202 582 24.1247
103.319 548 23.4094
103.436 545 23.3452
103.552 534 23.1084
103.669 493 22.2036
103.786 572 23.9165
103.903 578 24.0416
104.02 593 24.3516
104.137 533 23.0868
104.253 550 23.4521
104.37 549 23.4307
104.487 497 22.2935
104.603 561 23.6854
104.72 521 22.8254
104.836 539 23.2164
104.953 525 22.9129
105.069 456 21.3542
105.186 466 21.587
105.302 431 20.7605
105.418 402 20.0499
105.535 348 18.6548
105.651 371 19.2614
105.767 326 18.0555
105.883 275 16.5831
105.999 268 16.3707
106.115 0 1
106.231 0 1
106.347 0 1
106.463 0 1
106.579 0 1
106.694 0 1
106.81 0 1
106.926 0 1
107.041 0 1
107.157 0 1
109.576 0 1
109.692 0 1
109.807 0 1
109.923 0 1
110.039 0 1
110.155 0 1
110.27 0 1
110.386 0 1
110.502 0 1
110.618 268 16.3707
110.735 332 18.2209
110.851 366 19.1311
110.967 378 19.4422
111.083 430 20.7364
111.199 492 22.1811
111.316 454 21.3073
111.432 458 21.4009
111.549 513 22.6495
111.665 499 22.3383
111.782 517 22.7376
111.898 523 22.8692
112.015 512 22.6274
112.132 517 22.7376
112.248 466 21.587
112.365 443 21.0476
112.482 477 21.8403
112.599 499 22.3383
112.716 519 22.7816
112.832 498 22.3159
112.949 482 21.9545
113.066 492 22.1811
113.183 498 22.3159
113.3 479 21.8861
113.417 481 21.9317
113.534 489 22.1133
113.652 507 22.5167
113.769 490 22.1359
113.886 500 22.3607
114.003 446 21.1187
114.12 423 20.567
114.238 457 21.3776
114.355 455 21.3307
114.472 435 20.8567
114.589 430 20.7364
114.707 448 21.166
114.824 459 21.4243
114.942 469 21.6564
115.059 491 22.1585
115.176 477 21.8403
115.294 492 22.1811
115.411 477 21.8403
115.529 430 20.7364
115.646 473 21.7486
115.764 451 21.2368
115.881 452 21.2603
115.999 450 21.2132
116.116 503 22.4277
116.234 440 20.9762
116.351 496 22.2711
116.469 450 21.2132
116.586 494 22.2261
116.704 449 21.1896
116.821 416 20.3961
116.939 418 20.445
117.056 448 21.166
117.174 450 21.2132
117.291 429 20.7123
117.409 440 20.9762
117.526 455 21.3307
117.644 435 20.8567
117.761 371 19.2614
117.879 389 19.7231
117.996 376 19.3907
118.114 390 19.7484
118.231 372 19.2873
118.349 403 20.0749
118.466 430 20.7364
118.584 476 21.8174
118.701 482 21.9545
118.819 411 20.2731
118.936 429 20.7123
119.053 442 21.0238
119.171 404 20.0998
119.288 402 20.0499
119.405 403 20.0749
119.523 417 20.4206
119.64 429 20.7123
119.757 415 20.3715
119.875 442 21.0238
119.992 416 20.3961
120.109 404 20.0998
120.226 407 20.1742
120.343 412 20.2978
120.46 424 20.5913
120.578 457 21.3776
120.695 411 20.2731
120.812 392 19.799
120.929 400 20
121.046 421 20.5183
121.163 396 19.8997
121.279 369 19.2094
121.396 375 19.3649
121.513 381 19.5192
121.63 364 19.0788
121.747 386 19.6469
121.863 358 18.9209
121.98 354 18.8149
122.097 336 18.3303
122.213 349 18.6815
122.33 321 17.9165
122.446 367 19.1572
122.563 304 17.4356
122.679 293 17.1172
122.795 274 16.5529
122.912 268 16.3707
123.028 252 15.8745
123.144 240 15.4919
123.26 193 13.8924
123.377 0 1
123.493 0 1
123.609 0 1
123.725 0 1
123.84 0 1
123.956 0 1
124.072 0 1
124.188 0 1
124.303 0 1
124.419 0 1
126.852 0 1
126.968 0 1
127.083 0 1
127.199 0 1
127.315 0 1
127.431 0 1
127.547 0 1
127.663 0 1
127.779 0 1
127.895 0 1
128.011 0 1
128.127 0 1
128.243 0 1
128.359 490 22.1359
128.476 446 21.1187
128.592 458 21.4009
128.708 457 21.3776
128.825 479 21.8861
128.941 477 21.8403
129.058 540 23.2379
129.174 493 22.2036
129.291 519 22.7816
129.408 497 22.2935
129.524 454 21.3073
129.641 507 22.5167
129.758 494 22.2261
129.875 519 22.7816
129.992 497 22.2935
130.108 533 23.0868
130.225 527 22.9565
130.342 560 23.6643
130.459 599 24.4745
130.576 599 24.4745
130.693 519 22.7816
130.81 543 23.3024
130.928 557 23.6008
131.045 585 24.1868
131.162 602 24.5357
131.279 634 25.1794
131.396 675 25.9808
131.513 770 27.7489
131.631 751 27.4044
131.748 780 27.9285
131.865 788 28.0713
131.983 783 27.9821
132.1 811 28.4781
132.217 809 28.4429
132.335 881 29.6816
132.452 890 29.8329
132.57 960 30.9839
132.687 925 30.4138
132.804 954 30.8869
132.922 972 31.1769
133.039 988 31.4325
133.157 941 30.6757
133.274 886 29.7658
133.392 898 29.9666
133.509 956 30.9192
133.627 887 29.7825
133.744 890 29.8329
133.862 824 28.7054
133.979 875 29.5804
134.097 867 29.4449
134.214 851 29.1719
134.332 782 27.9643
134.449 766 27.6767
134.567 753 27.4408
134.684 795 28.1957
134.802 799 28.2666
134.919 898 29.9666
135.037 876 29.5973
135.154 863 29.3769
135.272 885 29.7489
135.389 876 29.5973
135.507 874 29.5635
135.624 831 28.8271
135.742 842 29.0172
135.859 861 29.3428
135.977 887 29.7825
136.094 871 29.5127
136.211 903 30.05
136.329 873 29.5466
136.446 826 28.7402
136.564 846 29.0861
136.681 858 29.2916
136.798 856 29.2575
136.915 816 28.5657
137.033 824 28.7054
137.15 843 29.0345
137.267 839 28.9655
137.384 840 28.9828
137.502 836 28.9137
137.619 805 28.3725
137.736 798 28.2489
137.853 717 26.7769
137.97 704 26.533
138.087 644 25.3772
138.204 740 27.2029
138.321 748 27.3496
138.438 794 28.178
138.555 870 29.4958
138.672 761 27.5862
138.788 791 28.1247
138.905 812 28.4956
139.022 743 27.258
139.139 792 28.1425
139.255 708 26.6083
139.372 651 25.5147
139.488 665 25.7876
139.605 645 25.3969
139.721 629 25.0799
139.838 555 23.5584
139.954 565 23.7697
140.071 526 22.9347
140.187 537 23.1733
140.303 482 21.9545
140.419 449 21.1896
140.535 417 20.4206
140.652 406 20.1494
140.768 0 1
140.884 0 1
141 0 1
141.115 0 1
141.231 0 1
141.347 0 1
141.463 0 1
141.578 0 1
141.694 0 1
144.104 0 1
144.219 0 1
144.335 0 1
144.45 0 1
144.566 0 1
144.682 0 1
144.798 0 1
144.914 0 1
145.03 0 1
145.146 1254 35.4119
145.262 1396 37.3631
145.378 1492 38.6264
145.494 1560 39.4968
145.61 1626 40.3237
145.726 1700 41.2311
145.842 1670 40.8656
145.959 1735 41.6533
146.075 1714 41.4005
146.192 1841 42.9069
146.308 1900 43.589
146.425 1953 44.1928
146.541 2083 45.6399
146.658 2001 44.7325
146.774 1877 43.3244
146.891 1682 41.0122
147.008 1679 40.9756
147.125 1699 41.2189
147.241 2006 44.7884
147.358 1990 44.6094
147.475 1977 44.4635
147.592 1947 44.1248
147.709 2019 44.9333
147.826 2108 45.913
147.943 2202 46.9255
148.06 2073 45.5302
148.177 2032 45.0777
148.294 2096 45.7821
148.411 2025 45
148.528 2215 47.0638
148.645 2173 46.6154
148.762 2052 45.299
148.88 2151 46.3789
148.997 2150 46.3681
149.114 2020 44.9444
149.231 2144 46.3033
149.349 2121 46.0543
149.466 2074 45.5412
149.583 2018 44.9222
149.701 2018 44.9222
149.818 1996 44.6766
149.935 2010 44.833
150.053 2067 45.4643
150.17 2049 45.2659
150.287 2047 45.2438
150.405 1970 44.3847
150.522 1935 43.9886
150.64 1682 41.0122
150.757 1650 40.6202
150.875 1833 42.8135
150.992 1935 43.9886
151.11 1747 41.7971
151.227 1704 41.2795
151.344 1820 42.6615
151.462 2014 44.8776
151.579 1901 43.6005
151.697 2073 45.5302
151.814 2077 45.5741
151.932 2151 46.3789
152.049 2223 47.1487
152.167 2350 48.4768
152.284 2278 47.7284
152.402 2277 47.7179
152.519 2345 48.4252
152.636 2347 48.4458
152.754 2265 47.592
152.871 2313 48.0937
152.989 2341 48.3839
153.106 2377 48.7545
153.223 2480 49.7996
153.341 2185 46.744
153.458 2111 45.9456
153.575 2054 45.3211
153.693 2194 46.8402
153.81 2292 47.8748
153.927 2606 51.049
154.044 2594 50.9313
154.162 2469 49.689
154.279 2423 49.224
154.396 2418 49.1732
154.513 2498 49.98
154.63 2649 51.4684
154.747 2476 49.7594
154.864 2627 51.2543
154.981 2569 50.6853
155.098 2693 51.8941
155.215 2622 51.2055
155.332 2697 51.9326
155.449 2616 51.1468
155.566 2754 52.4786
155.683 2776 52.6878
155.8 2700 51.9615
155.917 2664 51.614
156.033 2676 51.7301
156.15 0 1
156.267 0 1
156.383 0 1
156.5 0 1
156.617 0 1
156.733 0 1
156.85 0 1
156.966 0 1
157.082 0 1
157.199 0 1
157.315 0 1
157.431 0 1
157.547 0 1
157.664 0 1
157.78 0 1
157.896 0 1
158.012 0 1
158.128 0 1
158.244 0 1
158.359 0 1
158.475 0 1
158.591 0 1
158.706 0 1
