
6.15755 0 1
6.2731 0 1
6.3887 0 1
6.50437 0 1
6.62009 0 1
6.73587 0 1
6.8517 0 1
6.96759 0 1
7.08353 0 1
7.19952 0 1
7.31557 0 1
7.43166 0 1
7.54781 0 1
7.664 0 1
7.78024 0 1
7.89653 0 1
8.01286 0 1
8.12924 0 1
8.24567 0 1
8.36213 0 1
8.47864 0 1
8.59519 0 1
8.71178 0 1
8.82841 0 1
8.94508 0 1
9.06179 0 1
9.17853 0 1
9.29531 0 1
9.41212 0 1
9.52897 0 1
9.64584 0 1
9.76276 0 1
9.8797 0 1
9.99667 0 1
10.1137 0 1
10.2307 0 1
10.3478 0 1
10.4648 0 1
10.5819 0 1
10.6991 0 1
10.8162 0 1
10.9334 0 1
11.0506 0 1
11.1678 0 1
11.285 0 1
11.4023 0 1
11.5196 0 1
11.6369 0 1
11.7542 0 1
11.8715 0 1
11.9888 0 1
12.1062 0 1
12.2235 0 1
12.3409 0 1
12.4582 0 1
12.5756 0 1
12.693 0 1
12.8104 0 1
12.9278 0 1
13.0452 0 1
13.1626 0 1
13.28 0 1
13.3974 0 1
13.5149 0 1
13.6323 0 1
13.7497 0 1
13.8671 0 1
13.9845 0 1
14.1019 0 1
14.2193 0 1
14.3367 0 1
14.4541 0 1
14.5714 0 1
14.6888 0 1
14.8062 0 1
14.9235 0 1
15.0408 2027 45.0222
15.1581 2221 47.1275
15.2755 2199 46.8935
15.3927 2299 47.9479
15.51 2299 47.9479
15.6273 2262 47.5605
15.7445 2284 47.7912
15.8617 2336 48.3322
15.9789 2254 47.4763
16.0961 2275 47.697
16.2132 2281 47.7598
16.3304 2371 48.6929
16.4475 2297 47.927
16.5646 2491 49.9099
16.6816 2606 51.049
16.7986 2648 51.4587
16.9156 2595 50.9411
17.0326 2757 52.5071
17.1496 2676 51.7301
17.2665 2680 51.7687
17.3833 2663 51.6043
17.5002 2579 50.7839
17.617 2509 50.0899
17.7338 2448 49.4773
17.8505 2375 48.734
17.9672 2325 48.2183
18.0839 2318 48.1456
18.2005 2445 49.4469
18.3171 2438 49.3761
18.4337 2460 49.5984
18.5502 2528 50.2792
18.6666 2630 51.2835
18.7831 2703 51.9904
18.8994 2710 52.0577
19.0158 2662 51.5946
19.1321 2477 49.7695
19.2483 2523 50.2295
19.3645 2358 48.5592
19.4806 2180 46.6905
19.5967 1971 44.3959
19.7128 1901 43.6005
19.8288 1788 42.2847
19.9447 1630 40.3733
20.0606 0 1
20.1764 0 1
20.2922 0 1
20.4079 0 1
20.5236 0 1
20.6392 0 1
20.7548 0 1
20.8702 0 1
23.3078 0 1
23.4233 0 1
23.539 0 1
23.6547 0 1
23.7704 0 1
23.8862 0 1
24.0021 0 1
24.118 0 1
24.234 0 1
24.35 0 1
24.4661 1063 32.6037
24.5822 1286 35.8608
24.6984 1513 38.8973
24.8146 1548 39.3446
24.9309 1812 42.5676
25.0472 1943 44.0795
25.1636 2114 45.9783
25.28 2364 48.621
25.3965 2497 49.97
25.513 2535 50.3488
25.6296 2672 51.6914
25.7462 2827 53.1695
25.8628 2794 52.8583
25.9795 2899 53.8424
26.0962 2920 54.037
26.213 2743 52.3737
26.3298 2612 51.1077
26.4466 2564 50.636
26.5635 2486 49.8598
26.6804 2461 49.6085
26.7973 2510 50.0999
26.9143 2632 51.303
27.0313 2661 51.5849
27.1483 2612 51.1077
27.2653 2566 50.6557
27.3824 2703 51.9904
27.4996 2710 52.0577
27.6167 2681 51.7784
27.7339 2749 52.4309
27.8511 2568 50.6754
27.9683 2511 50.1099
28.0855 2423 49.224
28.2028 2359 48.5695
28.3201 2322 48.1871
28.4374 2269 47.634
28.5547 2335 48.3218
28.6721 2493 49.93
28.7894 2553 50.5272
28.9068 2595 50.9411
29.0242 2806 52.9717
29.1416 2837 53.2635
29.259 2725 52.2015
29.3764 2751 52.45
29.4939 2727 52.2207
29.6113 2694 51.9038
29.7288 2607 51.0588
29.8463 2506 50.06
29.9638 2391 48.8979
30.0812 2347 48.4458
30.1987 2427 49.2646
30.3162 2404 49.0306
30.4337 2461 49.6085
30.5512 2510 50.0999
30.6687 2606 51.049
30.7862 2557 50.5668
30.9037 2631 51.2933
31.0212 2630 51.2835
31.1387 2668 51.6527
31.2562 2534 50.3389
31.3737 2522 50.2195
31.4912 2508 50.0799
31.6087 2391 48.8979
31.7262 2369 48.6724
31.8436 2305 48.0104
31.9611 2200 46.9042
32.0785 2209 47
32.1959 2389 48.8774
32.3134 2460 49.5984
32.4308 2490 49.8999
32.5482 2758 52.5167
32.6655 2626 51.2445
32.7829 2631 51.2933
32.9002 2682 51.788
33.0176 2778 52.7067
33.1349 2623 51.2152
33.2522 2614 51.1273
33.3694 2529 50.2892
33.4867 2344 48.4149
33.6039 2243 47.3603
33.7211 2259 47.5289
33.8383 2182 46.7119
33.9554 2251 47.4447
34.0725 2271 47.655
34.1896 2372 48.7032
34.3067 2514 50.1398
34.4237 2488 49.8799
34.5407 2457 49.5681
34.6577 2590 50.892
34.7746 2550 50.4975
34.8915 2577 50.7642
35.0084 2569 50.6853
35.1252 2385 48.8365
35.242 2379 48.775
35.3587 2327 48.239
35.4755 2292 47.8748
35.5921 2142 46.2817
35.7088 2163 46.5081
35.8254 2165 46.5296
35.9419 2199 46.8935
36.0584 2312 48.0833
36.1749 2345 48.4252
36.2913 2451 49.5076
36.4077 2384 48.8262
36.524 2401 49
36.6403 2236 47.2864
36.7565 2188 46.7761
36.8727 2007 44.7996
36.9889 1879 43.3474
37.1049 1759 41.9404
37.221 0 1
37.3369 0 1
37.4529 0 1
37.5687 0 1
37.6845 0 1
37.8003 0 1
37.916 0 1
38.0316 0 1
38.1472 0 1
40.5851 0 1
40.7008 0 1
40.8164 0 1
40.9322 0 1
41.048 0 1
41.1639 0 1
41.2798 0 1
41.3958 0 1
41.5118 0 1
41.6279 0 1
41.744 1216 34.8712
41.8602 1418 37.6563
41.9765 1467 38.3014
42.0928 1562 39.5221
42.2091 1440 37.9473
42.3255 1608 40.0999
42.4419 1418 37.6563
42.5584 1476 38.4187
42.675 1703 41.2674
42.7915 1909 43.6921
42.9081 1854 43.0581
43.0248 1973 44.4185
43.1415 1994 44.6542
43.2582 2035 45.111
43.375 2056 45.3431
43.4918 2047 45.2438
43.6087 2010 44.833
43.7256 2099 45.8148
43.8425 1995 44.6654
43.9595 1929 43.9204
44.0765 1983 44.5309
44.1935 1935 43.9886
44.3106 1759 41.9404
44.4277 1803 42.4617
44.5448 1784 42.2374
44.6619 1833 42.8135
44.7791 1924 43.8634
44.8963 1998 44.699
45.0136 2117 46.0109
45.1308 2205 46.9574
45.2481 2161 46.4866
45.3654 2165 46.5296
45.4827 2164 46.5188
45.6001 2148 46.3465
45.7174 2050 45.2769
45.8348 1892 43.4971
45.9522 1783 42.2256
46.0697 1757 41.9166
46.1871 1737 41.6773
46.3046 1729 41.5812
46.422 1968 44.3621
46.5395 1934 43.9773
46.657 2020 44.9444
46.7745 2110 45.9347
46.892 2155 46.422
47.0096 2162 46.4973
47.1271 2253 47.4658
47.2446 2138 46.2385
47.3622 2244 47.3709
47.4797 2075 45.5522
47.5973 2009 44.8219
47.7149 1975 44.441
47.8324 1931 43.9431
47.95 1887 43.4396
48.0675 1795 42.3674
48.1851 1918 43.795
48.3027 1944 44.0908
48.4202 1876 43.3128
48.5378 2199 46.8935
48.6554 2194 46.8402
48.7729 2255 47.4868
48.8904 2182 46.7119
49.008 2178 46.669
49.1255 2160 46.4758
49.243 2054 45.3211
49.3605 1882 43.382
49.478 1800 42.4264
49.5955 1688 41.0853
49.713 1647 40.5832
49.8304 1784 42.2374
49.9479 1745 41.7732
50.0653 1949 44.1475
50.1827 2015 44.8888
50.3001 2032 45.0777
50.4175 2153 46.4004
50.5348 2208 46.9894
50.6521 2176 46.6476
50.7694 2234 47.2652
50.8867 2199 46.8935
51.004 2162 46.4973
51.1212 2089 45.7056
51.2384 2087 45.6837
51.3556 2022 44.9667
51.4727 1983 44.5309
51.5899 1861 43.1393
51.707 1900 43.589
51.824 2023 44.9778
51.9411 2201 46.9148
52.0581 2389 48.8774
52.175 2447 49.4672
52.2919 2481 49.8096
52.4088 2449 49.4874
52.5257 2519 50.1896
52.6425 2605 51.0392
52.7593 2507 50.07
52.876 2511 50.1099
52.9927 2450 49.4975
53.1094 2336 48.3322
53.226 2153 46.4004
53.3426 2120 46.0435
53.4591 2099 45.8148
53.5756 2101 45.8367
53.692 2079 45.5961
53.8084 2121 46.0543
53.9248 2045 45.2217
54.0411 2010 44.833
54.1573 1809 42.5323
54.2735 0 1
54.3896 0 1
54.5057 0 1
54.6217 0 1
54.7377 0 1
54.8537 0 1
54.9695 0 1
55.0853 0 1
55.2011 0 1
55.3168 0 1
55.4324 0 1
57.824 0 1
57.9396 0 1
58.0553 0 1
58.1711 0 1
58.2869 0 1
58.4028 0 1
58.5187 0 1
58.6347 0 1
58.7508 0 1
58.8669 0 1
58.983 1747 41.7971
59.0992 2005 44.7772
59.2155 2070 45.4973
59.3318 2319 48.156
59.4482 2397 48.9592
59.5646 2483 49.8297
59.681 2532 50.319
59.7975 2540 50.3984
59.9141 2563 50.6261
60.0306 2468 49.679
60.1473 2417 49.163
60.2639 2274 47.6865
60.3807 2368 48.6621
60.4974 2353 48.5077
60.6142 2366 48.6415
60.731 2568 50.6754
60.8479 2713 52.0865
60.9648 2867 53.5444
61.0818 2746 52.4023
61.1987 2803 52.9434
61.3158 2615 51.1371
61.4328 2610 51.0882
61.5499 2479 49.7896
61.667 2319 48.156
61.7841 2100 45.8258
61.9013 2005 44.7772
62.0185 2064 45.4313
62.1357 2168 46.5618
62.253 2263 47.571
62.3702 2399 48.9796
62.4875 2499 49.99
62.6049 2573 50.7247
62.7222 2526 50.2593
62.8396 2617 51.1566
62.9569 2687 51.8363
63.0743 2645 51.4296
63.1918 2605 51.0392
63.3092 2610 51.0882
63.4267 2560 50.5964
63.5441 2432 49.3153
63.6616 2342 48.3942
63.7791 2160 46.4758
63.8966 2146 46.3249
64.0142 2179 46.6798
64.1317 2310 48.0625
64.2492 2436 49.3559
64.3668 2601 51
64.4843 2767 52.6023
64.6019 2719 52.144
64.7195 2712 52.0769
64.837 2609 51.0784
64.9546 2636 51.342
65.0722 2509 50.0899
65.1898 2298 47.9375
65.3074 2204 46.9468
65.4249 1981 44.5084
65.5425 2017 44.911
65.6601 1997 44.6878
65.7777 2086 45.6727
65.8952 2274 47.6865
66.0128 2321 48.1768
66.1304 2482 49.8197
66.2479 2580 50.7937
66.3655 2662 51.5946
66.483 2643 51.4101
66.6005 2589 50.8822
66.718 2563 50.6261
66.8355 2536 50.3587
66.953 2547 50.4678
67.0705 2497 49.97
67.1879 2328 48.2494
67.3054 2259 47.5289
67.4228 2109 45.9239
67.5402 2118 46.0217
67.6576 2059 45.3762
67.7749 2205 46.9574
67.8923 2408 49.0714
68.0096 2558 50.5767
68.1269 2553 50.5272
68.2442 2565 50.6458
68.3614 2589 50.8822
68.4787 2533 50.3289
68.5958 2439 49.3862
68.713 2388 48.8672
68.8302 2364 48.621
68.9473 2027 45.0222
69.0643 2059 45.3762
69.1814 1874 43.2897
69.2984 1890 43.4741
69.4154 2049 45.2659
69.5323 2163 46.5081
69.6492 2299 47.9479
69.7661 2430 49.295
69.8829 2304 48
69.9997 2425 49.2443
70.1165 2431 49.3052
70.2332 2224 47.1593
70.3499 2261 47.55
70.4665 2075 45.5522
70.5831 1997 44.6878
70.6996 1808 42.5206
70.8161 1664 40.7922
70.9326 1592 39.8999
71.049 1415 37.6165
71.1653 1220 34.9285
71.2817 1021 31.9531
71.3979 1010 31.7805
71.5141 945 30.7409
71.6303 942 30.692
71.7464 847 29.1033
71.8624 0 1
71.9784 0 1
72.0944 0 1
72.2102 0 1
72.3261 0 1
72.4418 0 1
72.5575 0 1
72.6732 0 1
75.1054 0 1
75.2209 0 1
75.3365 0 1
75.4521 0 1
75.5678 0 1
75.6835 0 1
75.7993 0 1
75.9151 0 1
76.031 0 1
76.147 1557 39.4588
76.263 1650 40.6202
76.3791 1618 40.2244
76.4952 1675 40.9268
76.6113 1714 41.4005
76.7276 1823 42.6966
76.8438 1968 44.3621
76.9601 2175 46.6369
77.0765 2194 46.8402
77.1929 2157 46.4435
77.3093 2258 47.5184
77.4258 2219 47.1063
77.5423 2127 46.1194
77.6589 2025 45
77.7755 2053 45.31
77.8921 1721 41.4849
78.0088 1661 40.7554
78.1256 1589 39.8623
78.2423 1490 38.6005
78.3591 1695 41.1704
78.4759 1804 42.4735
78.5928 1973 44.4185
78.7097 2025 45
78.8266 2121 46.0543
78.9436 2311 48.0729
79.0606 2230 47.2229
79.1776 2299 47.9479
79.2946 2190 46.7974
79.4117 2184 46.7333
79.5288 2268 47.6235
79.6459 2175 46.6369
79.7631 2126 46.1086
79.8802 2107 45.9021
79.9974 1932 43.9545
80.1147 1802 42.45
80.2319 1849 43
80.3491 1973 44.4185
80.4664 1916 43.7721
80.5837 2127 46.1194
80.701 2208 46.9894
80.8183 2278 47.7284
80.9357 2263 47.571
81.053 2316 48.1248
81.1704 2205 46.9574
81.2877 2355 48.5283
81.4051 2197 46.8722
81.5225 1895 43.5316
81.6399 1846 42.9651
81.7573 1645 40.5586
81.8747 1575 39.6863
81.9922 1601 40.0125
82.1096 1818 42.638
82.227 2007 44.7996
82.3444 2118 46.0217
82.4619 2225 47.1699
82.5793 2183 46.7226
82.6967 2258 47.5184
82.8142 2345 48.4252
82.9316 2304 48
83.049 2378 48.7647
83.1664 2294 47.8957
83.2838 2373 48.7134
83.4012 2313 48.0937
83.5186 2176 46.6476
83.636 2145 46.3141
83.7534 1933 43.9659
83.8708 1807 42.5088
83.9881 1839 42.8836
84.1055 1958 44.2493
84.2228 2035 45.111
84.3401 2184 46.7333
84.4575 2263 47.571
84.5747 2364 48.621
84.692 2326 48.2286
84.8093 2348 48.4562
84.9265 2256 47.4974
85.0437 2154 46.4112
85.1609 1961 44.2832
85.2781 1802 42.45
85.3952 1677 40.9512
85.5123 1566 39.5727
85.6294 1659 40.7308
85.7465 1857 43.0929
85.8636 1954 44.2041
85.9806 2076 45.5631
86.0976 2244 47.3709
86.2145 2230 47.2229
86.3315 2310 48.0625
86.4484 2373 48.7134
86.5652 2421 49.2037
86.682 2306 48.0208
86.7988 2376 48.7442
86.9156 2327 48.239
87.0323 2219 47.1063
87.149 2201 46.9148
87.2657 2044 45.2106
87.3823 1847 42.9767
87.4988 1670 40.8656
87.6154 1543 39.281
87.7318 1690 41.1096
87.8483 1757 41.9166
87.9647 1757 41.9166
88.081 1841 42.9069
88.1973 1799 42.4146
88.3136 1698 41.2068
88.4298 1657 40.7063
88.546 1469 38.3275
88.6621 1342 36.6333
88.7781 1081 32.8786
88.8942 0 1
89.0101 0 1
89.126 0 1
89.2419 0 1
89.3577 0 1
89.4734 0 1
89.5891 0 1
89.7047 0 1
89.8203 0 1
89.9358 0 1
92.3269 0 1
92.4424 0 1
92.558 0 1
92.6736 0 1
92.7893 0 1
92.905 0 1
93.0208 0 1
93.1366 0 1
93.2525 0 1
93.3685 0 1
93.4845 0 1
93.6005 1743 41.7493
93.7167 1843 42.9302
93.8328 1960 44.2719
93.949 2074 45.5412
94.0653 2059 45.3762
94.1816 2050 45.2769
94.2979 1806 42.4971
94.4143 1790 42.3084
94.5307 1696 41.1825
94.6472 1682 41.0122
94.7637 1746 41.7852
94.8803 1876 43.3128
94.9969 2069 45.4863
95.1135 2087 45.6837
95.2302 2147 46.3357
95.3469 2369 48.6724
95.4637 2343 48.4045
95.5805 2441 49.4065
95.6973 2454 49.5379
95.8142 2484 49.8397
95.9311 2317 48.1352
96.048 2414 49.1325
96.1649 2293 47.8853
96.2819 2288 47.833
96.3989 2211 47.0213
96.516 2146 46.3249
96.633 1908 43.6807
96.7501 1948 44.1362
96.8673 2009 44.8219
96.9844 2114 45.9783
97.1016 2140 46.2601
97.2188 2377 48.7545
97.336 2400 48.9898
97.4532 2449 49.4874
97.5704 2371 48.6929
97.6877 2416 49.1528
97.805 2380 48.7852
97.9223 2122 46.0652
98.0396 1949 44.1475
98.1569 1751 41.845
98.2743 1706 41.3038
98.3916 1660 40.7431
98.509 1949 44.1475
98.6264 2068 45.4753
98.7438 2220 47.1169
98.8612 2270 47.6445
98.9786 2423 49.224
99.096 2396 48.949
99.2134 2406 49.051
99.3308 2430 49.295
99.4482 2506 50.06
99.5656 2526 50.2593
99.6831 2404 49.0306
99.8005 2560 50.5964
99.9179 2343 48.4045
100.035 2294 47.8957
100.153 2180 46.6905
100.27 2123 46.076
100.388 2080 45.607
100.505 2135 46.2061
100.622 2242 47.3498
100.74 2473 49.7293
100.857 2553 50.5272
100.975 2552 50.5173
101.092 2631 51.2933
101.209 2617 51.1566
101.327 2679 51.7591
101.444 2382 48.8057
101.561 2200 46.9042
101.679 2021 44.9555
101.796 1900 43.589
101.913 1789 42.2966
102.03 1899 43.5775
102.148 2052 45.299
102.265 2248 47.4131
102.382 2452 49.5177
102.499 2454 49.5379
102.616 2527 50.2693
102.733 2750 52.4404
102.851 2675 51.7204
102.968 2559 50.5866
103.085 2646 51.4393
103.202 2624 51.225
103.319 2673 51.7011
103.436 2589 50.8822
103.552 2390 48.8876
103.669 2364 48.621
103.786 2252 47.4552
103.903 2166 46.5403
104.02 2299 47.9479
104.137 2455 49.548
104.253 2532 50.319
104.37 2668 51.6527
104.487 2671 51.6817
104.603 2763 52.5642
104.72 2726 52.2111
104.836 2647 51.449
104.953 2262 47.5605
105.069 2040 45.1664
105.186 1834 42.8252
105.302 1634 40.4228
105.418 1562 39.5221
105.535 1655 40.6817
105.651 1633 40.4104
105.767 1647 40.5832
105.883 1616 40.1995
105.999 1552 39.3954
106.115 0 1
106.231 0 1
106.347 0 1
106.463 0 1
106.579 0 1
106.694 0 1
106.81 0 1
106.926 0 1
107.041 0 1
107.157 0 1
109.576 0 1
109.692 0 1
109.807 0 1
109.923 0 1
110.039 0 1
110.155 0 1
110.27 0 1
110.386 0 1
110.502 0 1
110.618 1100 33.1662
110.735 1528 39.0896
110.851 1669 40.8534
110.967 1943 44.0795
111.083 2058 45.3652
111.199 2183 46.7226
111.316 2337 48.3425
111.432 2435 49.3457
111.549 2415 49.1426
111.665 2533 50.3289
111.782 2427 49.2646
111.898 2415 49.1426
112.015 2412 49.1121
112.132 2302 47.9792
112.248 2191 46.8081
112.365 2100 45.8258
112.482 2070 45.4973
112.599 2231 47.2335
112.716 2324 48.2079
112.832 2419 49.1833
112.949 2470 49.6991
113.066 2445 49.4469
113.183 2513 50.1298
113.3 2550 50.4975
113.417 2420 49.1935
113.534 2188 46.7761
113.652 2050 45.2769
113.769 1844 42.9418
113.886 1729 41.5812
114.003 1763 41.9881
114.12 1803 42.4617
114.238 2096 45.7821
114.355 2136 46.2169
114.472 2205 46.9574
114.589 2525 50.2494
114.707 2473 49.7293
114.824 2504 50.04
114.942 2460 49.5984
115.059 2480 49.7996
115.176 2502 50.02
115.294 2492 49.9199
115.411 2400 48.9898
115.529 2372 48.7032
115.646 2370 48.6826
115.764 2243 47.3603
115.881 2097 45.793
115.999 2114 45.9783
116.116 2107 45.9021
116.234 2283 47.7807
116.351 2366 48.6415
116.469 2529 50.2892
116.586 2427 49.2646
116.704 2435 49.3457
116.821 2465 49.6488
116.939 2545 50.448
117.056 2405 49.0408
117.174 2142 46.2817
117.291 2074 45.5412
117.409 1836 42.8486
117.526 1703 41.2674
117.644 1668 40.8412
117.761 1946 44.1135
117.879 2096 45.7821
117.996 2147 46.3357
118.114 2283 47.7807
118.231 2429 49.2849
118.349 2448 49.4773
118.466 2351 48.4871
118.584 2358 48.5592
118.701 2428 49.2747
118.819 2448 49.4773
118.936 2340 48.3735
119.053 2362 48.6004
119.171 2309 48.0521
119.288 2220 47.1169
119.405 2135 46.2061
119.523 1932 43.9545
119.64 2032 45.0777
119.757 2061 45.3982
119.875 2218 47.0956
119.992 2275 47.697
120.109 2304 48
120.226 2343 48.4045
120.343 2300 47.9583
120.46 2360 48.5798
120.578 2368 48.6621
120.695 2324 48.2079
120.812 2075 45.5522
120.929 2014 44.8776
121.046 1815 42.6028
121.163 1686 41.0609
121.279 1597 39.9625
121.396 1621 40.2616
121.513 1757 41.9166
121.63 1827 42.7434
121.747 1878 43.3359
121.863 1862 43.1509
121.98 1878 43.3359
122.097 1999 44.7102
122.213 1866 43.1972
122.33 1773 42.107
122.446 1760 41.9524
122.563 1621 40.2616
122.679 1577 39.7115
122.795 1526 39.064
122.912 1339 36.5923
123.028 1209 34.7707
123.144 1042 32.28
123.26 977 31.257
123.377 0 1
123.493 0 1
123.609 0 1
123.725 0 1
123.84 0 1
123.956 0 1
124.072 0 1
124.188 0 1
124.303 0 1
124.419 0 1
126.852 0 1
126.968 0 1
127.083 0 1
127.199 0 1
127.315 0 1
127.431 0 1
127.547 0 1
127.663 0 1
127.779 0 1
127.895 0 1
128.011 0 1
128.127 0 1
128.243 0 1
128.359 2277 47.7179
128.476 2206 46.9681
128.592 2213 47.0425
128.708 2228 47.2017
128.825 2316 48.1248
128.941 2389 48.8774
129.058 2512 50.1199
129.174 2656 51.5364
129.291 2656 51.5364
129.408 2568 50.6754
129.524 2585 50.8429
129.641 2550 50.4975
129.758 2548 50.4777
129.875 2255 47.4868
129.992 2157 46.4435
130.108 1920 43.8178
130.225 1847 42.9767
130.342 1948 44.1362
130.459 2009 44.8219
130.576 2103 45.8585
130.693 2292 47.8748
130.81 2387 48.8569
130.928 2424 49.2341
131.045 2465 49.6488
131.162 2488 49.8799
131.279 2476 49.7594
131.396 2555 50.547
131.513 2427 49.2646
131.631 2403 49.0204
131.748 2460 49.5984
131.865 2428 49.2747
131.983 2465 49.6488
132.1 2226 47.1805
132.217 2375 48.734
132.335 2266 47.6025
132.452 2349 48.4665
132.57 2467 49.6689
132.687 2568 50.6754
132.804 2589 50.8822
132.922 2598 50.9706
133.039 2620 51.1859
133.157 2625 51.2348
133.274 2643 51.4101
133.392 2397 48.9592
133.509 2284 47.7912
133.627 2063 45.4203
133.744 2015 44.8888
133.862 1876 43.3128
133.979 2028 45.0333
134.097 2211 47.0213
134.214 2177 46.6583
134.332 2334 48.3115
134.449 2477 49.7695
134.567 2510 50.0999
134.684 2531 50.309
134.802 2617 51.1566
134.919 2588 50.8724
135.037 2549 50.4876
135.154 2491 49.9099
135.272 2518 50.1797
135.389 2540 50.3984
135.507 2366 48.6415
135.624 2459 49.5883
135.742 2231 47.2335
135.859 2244 47.3709
135.977 2329 48.2597
136.094 2314 48.1041
136.211 2585 50.8429
136.329 2567 50.6656
136.446 2667 51.643
136.564 2620 51.1859
136.681 2595 50.9411
136.798 2607 51.0588
136.915 2535 50.3488
137.033 2436 49.3559
137.15 2260 47.5395
137.267 2065 45.4423
137.384 2026 45.0111
137.502 1845 42.9535
137.619 1938 44.0227
137.736 2141 46.2709
137.853 2203 46.9361
137.97 2382 48.8057
138.087 2283 47.7807
138.204 2410 49.0918
138.321 2432 49.3153
138.438 2536 50.3587
138.555 2509 50.0899
138.672 2517 50.1697
138.788 2406 49.051
138.905 2304 48
139.022 2219 47.1063
139.139 2140 46.2601
139.255 1927 43.8976
139.372 1813 42.5793
139.488 1746 41.7852
139.605 1681 41
139.721 1609 40.1123
139.838 1606 40.0749
139.954 1657 40.7063
140.071 1624 40.2989
140.187 1472 38.3667
140.303 1406 37.4967
140.419 1347 36.7015
140.535 1170 34.2053
140.652 1034 32.1559
140.768 0 1
140.884 0 1
141 0 1
141.115 0 1
141.231 0 1
141.347 0 1
141.463 0 1
141.578 0 1
141.694 0 1
144.104 0 1
144.219 0 1
144.335 0 1
144.45 0 1
144.566 0 1
144.682 0 1
144.798 0 1
144.914 0 1
145.03 0 1
145.146 1864 43.1741
145.262 1941 44.0568
145.378 2018 44.9222
145.494 2065 45.4423
145.61 2042 45.1885
145.726 1872 43.2666
145.842 1893 43.5086
145.959 1734 41.6413
146.075 1702 41.2553
146.192 1582 39.7744
146.308 1571 39.6358
146.425 1617 40.2119
146.541 1653 40.6571
146.658 1744 41.7612
146.774 1833 42.8135
146.891 1881 43.3705
147.008 2001 44.7325
147.125 1864 43.1741
147.241 2016 44.8999
147.358 2051 45.288
147.475 2032 45.0777
147.592 2038 45.1442
147.709 1947 44.1248
147.826 1809 42.5323
147.943 1788 42.2847
148.06 1816 42.6146
148.177 1713 41.3884
148.294 1768 42.0476
148.411 1825 42.72
148.528 1932 43.9545
148.645 1941 44.0568
148.762 2007 44.7996
148.88 2095 45.7712
148.997 2121 46.0543
149.114 2050 45.2769
149.231 2050 45.2769
149.349 2032 45.0777
149.466 1951 44.1701
149.583 1785 42.2493
149.701 1733 41.6293
149.818 1642 40.5216
149.935 1466 38.2884
150.053 1605 40.0625
150.17 1596 39.95
150.287 1747 41.7971
150.405 1725 41.5331
150.522 1752 41.8569
150.64 1846 42.9651
150.757 1881 43.3705
150.875 1902 43.6119
150.992 1848 42.9884
151.11 1905 43.6463
151.227 1983 44.5309
151.344 1877 43.3244
151.462 1792 42.332
151.579 1783 42.2256
151.697 1763 41.9881
151.814 1713 41.3884
151.932 1740 41.7133
152.049 1767 42.0357
152.167 1796 42.3792
152.284 1849 43
152.402 1936 44
152.519 1936 44
152.636 1904 43.6348
152.754 1937 44.0114
152.871 1924 43.8634
152.989 1890 43.4741
153.106 1847 42.9767
153.223 1750 41.833
153.341 1617 40.2119
153.458 1591 39.8873
153.575 1527 39.0768
153.693 1556 39.4462
153.81 1545 39.3065
153.927 1621 40.2616
154.044 1671 40.8779
154.162 1732 41.6173
154.279 1825 42.72
154.396 1783 42.2256
154.513 1749 41.821
154.63 1867 43.2088
154.747 1892 43.4971
154.864 1789 42.2966
154.981 1728 41.5692
155.098 1738 41.6893
155.215 1632 40.398
155.332 1644 40.5463
155.449 1575 39.6863
155.566 1640 40.4969
155.683 1593 39.9124
155.8 1653 40.6571
155.917 1732 41.6173
156.033 1646 40.5709
156.15 0 1
156.267 0 1
156.383 0 1
156.5 0 1
156.617 0 1
156.733 0 1
156.85 0 1
156.966 0 1
157.082 0 1
157.199 0 1
157.315 0 1
157.431 0 1
157.547 0 1
157.664 0 1
157.78 0 1
157.896 0 1
158.012 0 1
158.128 0 1
158.244 0 1
158.359 0 1
158.475 0 1
158.591 0 1
158.706 0 1
