
6.15755 0 1
6.2731 0 1
6.3887 0 1
6.50437 0 1
6.62009 0 1
6.73587 0 1
6.8517 0 1
6.96759 0 1
7.08353 0 1
7.19952 0 1
7.31557 0 1
7.43166 0 1
7.54781 0 1
7.664 0 1
7.78024 0 1
7.89653 0 1
8.01286 0 1
8.12924 0 1
8.24567 0 1
8.36213 0 1
8.47864 0 1
8.59519 0 1
8.71178 0 1
8.82841 0 1
8.94508 0 1
9.06179 0 1
9.17853 0 1
9.29531 0 1
9.41212 0 1
9.52897 0 1
9.64584 0 1
9.76276 0 1
9.8797 0 1
9.99667 0 1
10.1137 0 1
10.2307 0 1
10.3478 0 1
10.4648 0 1
10.5819 0 1
10.6991 0 1
10.8162 0 1
10.9334 0 1
11.0506 0 1
11.1678 0 1
11.285 0 1
11.4023 0 1
11.5196 0 1
11.6369 0 1
11.7542 0 1
11.8715 0 1
11.9888 0 1
12.1062 0 1
12.2235 0 1
12.3409 0 1
12.4582 0 1
12.5756 0 1
12.693 0 1
12.8104 0 1
12.9278 0 1
13.0452 0 1
13.1626 0 1
13.28 0 1
13.3974 0 1
13.5149 0 1
13.6323 0 1
13.7497 0 1
13.8671 0 1
13.9845 0 1
14.1019 0 1
14.2193 0 1
14.3367 0 1
14.4541 0 1
14.5714 0 1
14.6888 0 1
14.8062 0 1
14.9235 0 1
15.0408 2961 54.4151
15.1581 3107 55.7405
15.2755 3138 56.0179
15.3927 3178 56.3738
15.51 3104 55.7136
15.6273 3137 56.0089
15.7445 3081 55.5068
15.8617 3105 55.7225
15.9789 2909 53.9351
16.0961 2979 54.5802
16.2132 2919 54.0278
16.3304 3044 55.1725
16.4475 2995 54.7266
16.5646 3059 55.3082
16.6816 3270 57.1839
16.7986 3151 56.1338
16.9156 3188 56.4624
17.0326 3209 56.648
17.1496 3164 56.2494
17.2665 3053 55.254
17.3833 3043 55.1634
17.5002 2934 54.1664
17.617 2992 54.6992
17.7338 2960 54.4059
17.8505 2978 54.5711
17.9672 3095 55.6327
18.0839 3171 56.3116
18.2005 3301 57.4543
18.3171 3331 57.7148
18.4337 3393 58.2495
18.5502 3462 58.8388
18.6666 3564 59.6992
18.7831 3501 59.1692
18.8994 3571 59.7578
19.0158 3370 58.0517
19.1321 3263 57.1227
19.2483 3238 56.9034
19.3645 3141 56.0446
19.4806 2938 54.2033
19.5967 2917 54.0093
19.7128 2894 53.7959
19.8288 2873 53.6004
19.9447 2556 50.5569
20.0606 0 1
20.1764 0 1
20.2922 0 1
20.4079 0 1
20.5236 0 1
20.6392 0 1
20.7548 0 1
20.8702 0 1
23.3078 0 1
23.4233 0 1
23.539 0 1
23.6547 0 1
23.7704 0 1
23.8862 0 1
24.0021 0 1
24.118 0 1
24.234 0 1
24.35 0 1
24.4661 3012 54.8817
24.5822 2887 53.7308
24.6984 2878 53.647
24.8146 2880 53.6656
24.9309 2847 53.3573
25.0472 2905 53.8981
25.1636 2923 54.0648
25.28 3142 56.0535
25.3965 3217 56.7186
25.513 3166 56.2672
25.6296 3352 57.8965
25.7462 3445 58.6941
25.8628 3416 58.4466
25.9795 3241 56.9298
26.0962 3242 56.9386
26.213 3142 56.0535
26.3298 2895 53.8052
26.4466 3009 54.8544
26.5635 2980 54.5894
26.6804 3016 54.9181
26.7973 3063 55.3444
26.9143 3244 56.9561
27.0313 3284 57.3062
27.1483 3236 56.8859
27.2653 3397 58.2838
27.3824 3362 57.9828
27.4996 3351 57.8878
27.6167 3294 57.3934
27.7339 3231 56.8419
27.8511 3166 56.2672
27.9683 3121 55.8659
28.0855 3046 55.1906
28.2028 2983 54.6168
28.3201 2880 53.6656
28.4374 2796 52.8772
28.5547 2813 53.0377
28.6721 2955 54.3599
28.7894 3035 55.0908
28.9068 2953 54.3415
29.0242 3079 55.4887
29.1416 3029 55.0364
29.259 3133 55.9732
29.3764 3147 56.0981
29.4939 3043 55.1634
29.6113 2970 54.4977
29.7288 2867 53.5444
29.8463 2885 53.7122
29.9638 2809 53
30.0812 2864 53.5164
30.1987 2791 52.8299
30.3162 2959 54.3967
30.4337 2897 53.8238
30.5512 3039 55.1271
30.6687 3119 55.848
30.7862 3185 56.4358
30.9037 3206 56.6216
31.0212 3268 57.1664
31.1387 3236 56.8859
31.2562 3077 55.4707
31.3737 3207 56.6304
31.4912 3052 55.2449
31.6087 3088 55.5698
31.7262 2951 54.3231
31.8436 2932 54.1479
31.9611 2729 52.2398
32.0785 2794 52.8583
32.1959 2818 53.0848
32.3134 2791 52.8299
32.4308 2966 54.461
32.5482 2990 54.6809
32.6655 3161 56.2228
32.7829 3207 56.6304
32.9002 3028 55.0273
33.0176 3125 55.9017
33.1349 3019 54.9454
33.2522 3030 55.0454
33.3694 2864 53.5164
33.4867 2842 53.3104
33.6039 2722 52.1728
33.7211 2704 52
33.8383 2734 52.2877
33.9554 2772 52.6498
34.0725 2890 53.7587
34.1896 2950 54.3139
34.3067 2921 54.0463
34.4237 3067 55.3805
34.5407 3092 55.6058
34.6577 3113 55.7943
34.7746 3160 56.2139
34.8915 3055 55.2721
35.0084 2954 54.3507
35.1252 3138 56.0179
35.242 2968 54.4794
35.3587 2771 52.6403
35.4755 2761 52.5452
35.5921 2694 51.9038
35.7088 2608 51.0686
35.8254 2600 50.9902
35.9419 2676 51.7301
36.0584 2695 51.9134
36.1749 2619 51.1762
36.2913 2840 53.2917
36.4077 2966 54.461
36.524 2908 53.9259
36.6403 2878 53.647
36.7565 2897 53.8238
36.8727 2983 54.6168
36.9889 2816 53.066
37.1049 2620 51.1859
37.221 0 1
37.3369 0 1
37.4529 0 1
37.5687 0 1
37.6845 0 1
37.8003 0 1
37.916 0 1
38.0316 0 1
38.1472 0 1
40.5851 0 1
40.7008 0 1
40.8164 0 1
40.9322 0 1
41.048 0 1
41.1639 0 1
41.2798 0 1
41.3958 0 1
41.5118 0 1
41.6279 0 1
41.744 2345 48.4252
41.8602 2433 49.3254
41.9765 2517 50.1697
42.0928 2525 50.2494
42.2091 2473 49.7293
42.3255 2455 49.548
42.4419 2352 48.4974
42.5584 2262 47.5605
42.675 2276 47.7074
42.7915 2191 46.8081
42.9081 2299 47.9479
43.0248 2353 48.5077
43.1415 2429 49.2849
43.2582 2449 49.4874
43.375 2425 49.2443
43.4918 2461 49.6085
43.6087 2600 50.9902
43.7256 2544 50.4381
43.8425 2479 49.7896
43.9595 2451 49.5076
44.0765 2305 48.0104
44.1935 2324 48.2079
44.3106 2230 47.2229
44.4277 2145 46.3141
44.5448 2081 45.618
44.6619 1941 44.0568
44.7791 1911 43.715
44.8963 1981 44.5084
45.0136 1933 43.9659
45.1308 1948 44.1362
45.2481 2017 44.911
45.3654 1992 44.6318
45.4827 1998 44.699
45.6001 2049 45.2659
45.7174 1918 43.795
45.8348 1912 43.7264
45.9522 1859 43.1161
46.0697 1776 42.1426
46.1871 1797 42.391
46.3046 1700 41.2311
46.422 1701 41.2432
46.5395 1819 42.6497
46.657 1765 42.0119
46.7745 1813 42.5793
46.892 1855 43.0697
47.0096 1875 43.3013
47.1271 1838 42.8719
47.2446 1916 43.7721
47.3622 1893 43.5086
47.4797 1893 43.5086
47.5973 1814 42.5911
47.7149 1754 41.8808
47.8324 1711 41.3642
47.95 1669 40.8534
48.0675 1598 39.975
48.1851 1538 39.2173
48.3027 1532 39.1408
48.4202 1486 38.5487
48.5378 1568 39.598
48.6554 1540 39.2428
48.7729 1690 41.1096
48.8904 1667 40.8289
49.008 1665 40.8044
49.1255 1661 40.7554
49.243 1770 42.0714
49.3605 1665 40.8044
49.478 1689 41.0974
49.5955 1683 41.0244
49.713 1544 39.2938
49.8304 1619 40.2368
49.9479 1555 39.4335
50.0653 1685 41.0488
50.1827 1766 42.0238
50.3001 1867 43.2088
50.4175 1922 43.8406
50.5348 1920 43.8178
50.6521 1938 44.0227
50.7694 2074 45.5412
50.8867 2098 45.8039
51.004 2115 45.9891
51.1212 2126 46.1086
51.2384 2150 46.3681
51.3556 2057 45.3542
51.4727 2165 46.5296
51.5899 2095 45.7712
51.707 2098 45.8039
51.824 1988 44.587
51.9411 1994 44.6542
52.0581 2070 45.4973
52.175 2216 47.0744
52.2919 2386 48.8467
52.4088 2367 48.6518
52.5257 2505 50.05
52.6425 2585 50.8429
52.7593 2560 50.5964
52.876 2625 51.2348
52.9927 2538 50.3786
53.1094 2516 50.1597
53.226 2510 50.0999
53.3426 2356 48.5386
53.4591 2362 48.6004
53.5756 2340 48.3735
53.692 2422 49.2138
53.8084 2622 51.2055
53.9248 2780 52.7257
54.0411 2781 52.7352
54.1573 2841 53.301
54.2735 0 1
54.3896 0 1
54.5057 0 1
54.6217 0 1
54.7377 0 1
54.8537 0 1
54.9695 0 1
55.0853 0 1
55.2011 0 1
55.3168 0 1
55.4324 0 1
57.824 0 1
57.9396 0 1
58.0553 0 1
58.1711 0 1
58.2869 0 1
58.4028 0 1
58.5187 0 1
58.6347 0 1
58.7508 0 1
58.8669 0 1
58.983 3045 55.1815
59.0992 3439 58.643
59.2155 3454 58.7707
59.3318 3365 58.0086
59.4482 3705 60.8687
59.5646 3593 59.9416
59.681 3662 60.5145
59.7975 3560 59.6657
59.9141 3597 59.975
60.0306 3622 60.1831
60.1473 3487 59.0508
60.2639 3413 58.4209
60.3807 3292 57.376
60.4974 3199 56.5597
60.6142 3049 55.2178
60.731 3004 54.8088
60.8479 3075 55.4527
60.9648 3202 56.5862
61.0818 3273 57.2101
61.1987 3406 58.3609
61.3158 3442 58.6686
61.4328 3436 58.6174
61.5499 3517 59.3043
61.667 3369 58.0431
61.7841 3250 57.0088
61.9013 3144 56.0714
62.0185 2986 54.6443
62.1357 2810 53.0094
62.253 2952 54.3323
62.3702 3010 54.8635
62.4875 3111 55.7763
62.6049 3196 56.5332
62.7222 3241 56.9298
62.8396 3378 58.1206
62.9569 3262 57.1139
63.0743 3381 58.1464
63.1918 3320 57.6194
63.3092 3144 56.0714
63.4267 3266 57.1489
63.5441 3210 56.6569
63.6616 3163 56.2406
63.7791 3160 56.2139
63.8966 3012 54.8817
64.0142 2976 54.5527
64.1317 2750 52.4404
64.2492 2864 53.5164
64.3668 2782 52.7447
64.4843 2816 53.066
64.6019 2971 54.5069
64.7195 2963 54.4334
64.837 3005 54.8179
64.9546 3169 56.2939
65.0722 3120 55.857
65.1898 3116 55.8211
65.3074 3262 57.1139
65.4249 3090 55.5878
65.5425 2845 53.3385
65.6601 2759 52.5262
65.7777 2783 52.7541
65.8952 2838 53.2729
66.0128 2857 53.4509
66.1304 2984 54.626
66.2479 3088 55.5698
66.3655 3223 56.7715
66.483 3219 56.7362
66.6005 3258 57.0789
66.718 3371 58.0603
66.8355 3357 57.9396
66.953 3243 56.9473
67.0705 3243 56.9473
67.1879 3237 56.8946
67.3054 3193 56.5066
67.4228 3264 57.1314
67.5402 2994 54.7175
67.6576 2985 54.6352
67.7749 2905 53.8981
67.8923 2783 52.7541
68.0096 2811 53.0189
68.1269 2892 53.7773
68.2442 2956 54.3691
68.3614 3081 55.5068
68.4787 3196 56.5332
68.5958 3294 57.3934
68.713 3337 57.7668
68.8302 3538 59.4811
68.9473 3435 58.6089
69.0643 3225 56.7891
69.1814 3097 55.6507
69.2984 3073 55.4346
69.4154 2994 54.7175
69.5323 2846 53.3479
69.6492 2976 54.5527
69.7661 3151 56.1338
69.8829 3287 57.3324
69.9997 3458 58.8048
70.1165 3396 58.2752
70.2332 3435 58.6089
70.3499 3484 59.0254
70.4665 3482 59.0085
70.5831 3616 60.1332
70.6996 3518 59.3127
70.8161 3409 58.3866
70.9326 3378 58.1206
71.049 3403 58.3352
71.1653 3309 57.5239
71.2817 3262 57.1139
71.3979 3178 56.3738
71.5141 2785 52.7731
71.6303 2782 52.7447
71.7464 2647 51.449
71.8624 0 1
71.9784 0 1
72.0944 0 1
72.2102 0 1
72.3261 0 1
72.4418 0 1
72.5575 0 1
72.6732 0 1
75.1054 0 1
75.2209 0 1
75.3365 0 1
75.4521 0 1
75.5678 0 1
75.6835 0 1
75.7993 0 1
75.9151 0 1
76.031 0 1
76.147 3141 56.0446
76.263 3473 58.9322
76.3791 3361 57.9741
76.4952 3288 57.3411
76.6113 3166 56.2672
76.7276 3005 54.8179
76.8438 2857 53.4509
76.9601 2973 54.5252
77.0765 3037 55.109
77.1929 3140 56.0357
77.3093 3356 57.931
77.4258 3405 58.3524
77.5423 3452 58.7537
77.6589 3516 59.2959
77.7755 3525 59.3717
77.8921 3548 59.5651
78.0088 3349 57.8705
78.1256 3167 56.2761
78.2423 3099 55.6687
78.3591 2892 53.7773
78.4759 2846 53.3479
78.5928 2963 54.4334
78.7097 3040 55.1362
78.8266 3121 55.8659
78.9436 3402 58.3267
79.0606 3445 58.6941
79.1776 3382 58.155
79.2946 3537 59.4727
79.4117 3501 59.1692
79.5288 3468 58.8897
79.6459 3565 59.7076
79.7631 3417 58.4551
79.8802 3338 57.7754
79.9974 3460 58.8218
80.1147 3339 57.7841
80.2319 3321 57.6281
80.3491 3037 55.109
80.4664 2965 54.4518
80.5837 2919 54.0278
80.701 2993 54.7083
80.8183 3296 57.4108
80.9357 3312 57.55
81.053 3336 57.7581
81.1704 3357 57.9396
81.2877 3404 58.3438
81.4051 3560 59.6657
81.5225 3673 60.6053
81.6399 3504 59.1946
81.7573 3468 58.8897
81.8747 3125 55.9017
81.9922 2895 53.8052
82.1096 2835 53.2447
82.227 2842 53.3104
82.3444 3131 55.9553
82.4619 3256 57.0614
82.5793 3355 57.9224
82.6967 3387 58.1979
82.8142 3486 59.0424
82.9316 3543 59.5231
83.049 3471 58.9152
83.1664 3466 58.8727
83.2838 3604 60.0333
83.4012 3496 59.127
83.5186 3466 58.8727
83.636 3561 59.6741
83.7534 3460 58.8218
83.8708 3324 57.6541
83.9881 3147 56.0981
84.1055 2915 53.9907
84.2228 3023 54.9818
84.3401 3037 55.109
84.4575 3224 56.7803
84.5747 3358 57.9483
84.692 3457 58.7963
84.8093 3511 59.2537
84.9265 3595 59.9583
85.0437 3759 61.3107
85.1609 3638 60.3158
85.2781 3579 59.8247
85.3952 3263 57.1227
85.5123 3088 55.5698
85.6294 3009 54.8544
85.7465 2909 53.9351
85.8636 3046 55.1906
85.9806 3309 57.5239
86.0976 3475 58.9491
86.2145 3566 59.716
86.3315 3680 60.663
86.4484 3783 61.5061
86.5652 3793 61.5873
86.682 3848 62.0322
86.7988 3820 61.8061
86.9156 3819 61.7981
87.0323 3817 61.7819
87.149 3771 61.4085
87.2657 3784 61.5142
87.3823 3714 60.9426
87.4988 3479 58.983
87.6154 3233 56.8595
87.7318 3196 56.5332
87.8483 3113 55.7943
87.9647 3316 57.5847
88.081 3390 58.2237
88.1973 3564 59.6992
88.3136 3662 60.5145
88.4298 3863 62.153
88.546 3770 61.4003
88.6621 3862 62.145
88.7781 3838 61.9516
88.8942 0 1
89.0101 0 1
89.126 0 1
89.2419 0 1
89.3577 0 1
89.4734 0 1
89.5891 0 1
89.7047 0 1
89.8203 0 1
89.9358 0 1
92.3269 0 1
92.4424 0 1
92.558 0 1
92.6736 0 1
92.7893 0 1
92.905 0 1
93.0208 0 1
93.1366 0 1
93.2525 0 1
93.3685 0 1
93.4845 0 1
93.6005 3263 57.1227
93.7167 3438 58.6345
93.8328 3641 60.3407
93.949 3670 60.5805
94.0653 3679 60.6548
94.1816 3472 58.9237
94.2979 3275 57.2276
94.4143 3048 55.2087
94.5307 2997 54.7449
94.6472 2919 54.0278
94.7637 3084 55.5338
94.8803 3160 56.2139
94.9969 3325 57.6628
95.1135 3503 59.1861
95.2302 3459 58.8133
95.3469 3506 59.2115
95.4637 3556 59.6322
95.5805 3678 60.6465
95.6973 3686 60.7124
95.8142 3600 60
95.9311 3584 59.8665
96.048 3681 60.6712
96.1649 3582 59.8498
96.2819 3588 59.8999
96.3989 3408 58.3781
96.516 3344 57.8273
96.633 3163 56.2406
96.7501 3071 55.4166
96.8673 2975 54.5436
96.9844 3066 55.3715
97.1016 3179 56.3826
97.2188 3386 58.1893
97.336 3408 58.3781
97.4532 3565 59.7076
97.5704 3617 60.1415
97.6877 3649 60.407
97.805 3604 60.0333
97.9223 3480 58.9915
98.0396 3294 57.3934
98.1569 3096 55.6417
98.2743 2924 54.074
98.3916 2870 53.5724
98.509 2984 54.626
98.6264 3167 56.2761
98.7438 3241 56.9298
98.8612 3421 58.4893
98.9786 3417 58.4551
99.096 3490 59.0762
99.2134 3550 59.5819
99.3308 3589 59.9083
99.4482 3532 59.4306
99.5656 3510 59.2453
99.6831 3527 59.3886
99.8005 3411 58.4038
99.9179 3443 58.6771
100.035 3437 58.6259
100.153 3128 55.9285
100.27 3034 55.0818
100.388 2926 54.0925
100.505 2972 54.5161
100.622 3046 55.1906
100.74 3140 56.0357
100.857 3266 57.1489
100.975 3461 58.8303
101.092 3480 58.9915
101.209 3532 59.4306
101.327 3642 60.349
101.444 3669 60.5723
101.561 3491 59.0847
101.679 3308 57.5152
101.796 3075 55.4527
101.913 2885 53.7122
102.03 2867 53.5444
102.148 3184 56.4269
102.265 3104 55.7136
102.382 3733 61.0983
102.499 3585 59.8749
102.616 3599 59.9917
102.733 3668 60.564
102.851 3771 61.4085
102.968 3829 61.8789
103.085 3829 61.8789
103.202 3772 61.4166
103.319 3709 60.9016
103.436 3699 60.8194
103.552 3638 60.3158
103.669 3464 58.8558
103.786 3207 56.6304
103.903 3229 56.8243
104.02 3227 56.8067
104.137 3303 57.4717
104.253 3500 59.1608
104.37 3583 59.8582
104.487 3661 60.5062
104.603 3737 61.131
104.72 3863 62.153
104.836 3879 62.2816
104.953 3751 61.2454
105.069 3765 61.3596
105.186 3403 58.3352
105.302 3217 56.7186
105.418 3069 55.3986
105.535 3034 55.0818
105.651 3354 57.9137
105.767 3498 59.1439
105.883 3670 60.5805
105.999 3706 60.8769
106.115 0 1
106.231 0 1
106.347 0 1
106.463 0 1
106.579 0 1
106.694 0 1
106.81 0 1
106.926 0 1
107.041 0 1
107.157 0 1
109.576 0 1
109.692 0 1
109.807 0 1
109.923 0 1
110.039 0 1
110.155 0 1
110.27 0 1
110.386 0 1
110.502 0 1
110.618 2747 52.4118
110.735 2973 54.5252
110.851 3149 56.116
110.967 3261 57.1052
111.083 3405 58.3524
111.199 3467 58.8812
111.316 3455 58.7792
111.432 3532 59.4306
111.549 3470 58.9067
111.665 3472 58.9237
111.782 3450 58.7367
111.898 3253 57.0351
112.015 3345 57.836
112.132 3194 56.5155
112.248 3072 55.4256
112.365 2952 54.3323
112.482 2885 53.7122
112.599 2703 51.9904
112.716 2931 54.1387
112.832 2862 53.4977
112.949 2915 53.9907
113.066 3132 55.9643
113.183 3136 56
113.3 3129 55.9375
113.417 3222 56.7627
113.534 3187 56.4535
113.652 3098 55.6597
113.769 2812 53.0283
113.886 2672 51.6914
114.003 2459 49.5883
114.12 2590 50.892
114.238 2624 51.225
114.355 2707 52.0288
114.472 2820 53.1037
114.589 2913 53.9722
114.707 2840 53.2917
114.824 2923 54.0648
114.942 3011 54.8726
115.059 2896 53.8145
115.176 2950 54.3139
115.294 2841 53.301
115.411 2791 52.8299
115.529 2740 52.345
115.646 2678 51.7494
115.764 2622 51.2055
115.881 2479 49.7896
115.999 2191 46.8081
116.116 2250 47.4342
116.234 2339 48.3632
116.351 2238 47.3075
116.469 2397 48.9592
116.586 2495 49.95
116.704 2531 50.309
116.821 2518 50.1797
116.939 2525 50.2494
117.056 2575 50.7445
117.174 2496 49.96
117.291 2385 48.8365
117.409 2277 47.7179
117.526 2122 46.0652
117.644 2087 45.6837
117.761 2090 45.7165
117.879 2200 46.9042
117.996 2363 48.6107
118.114 2389 48.8774
118.231 2422 49.2138
118.349 2470 49.6991
118.466 2583 50.8232
118.584 2558 50.5767
118.701 2505 50.05
118.819 2515 50.1498
118.936 2533 50.3289
119.053 2529 50.2892
119.171 2493 49.93
119.288 2423 49.224
119.405 2407 49.0612
119.523 2379 48.775
119.64 2202 46.9255
119.757 2245 47.3814
119.875 2290 47.8539
119.992 2291 47.8644
120.109 2448 49.4773
120.226 2434 49.3356
120.343 2532 50.319
120.46 2589 50.8822
120.578 2697 51.9326
120.695 2736 52.3068
120.812 2712 52.0769
120.929 2728 52.2303
121.046 2504 50.04
121.163 2459 49.5883
121.279 2380 48.7852
121.396 2283 47.7807
121.513 2454 49.5379
121.63 2621 51.1957
121.747 2771 52.6403
121.863 2798 52.8961
121.98 2900 53.8516
122.097 2954 54.3507
122.213 2988 54.6626
122.33 3080 55.4977
122.446 3117 55.8301
122.563 3061 55.3263
122.679 3072 55.4256
122.795 2910 53.9444
122.912 2912 53.963
123.028 2837 53.2635
123.144 2864 53.5164
123.26 2664 51.614
123.377 0 1
123.493 0 1
123.609 0 1
123.725 0 1
123.84 0 1
123.956 0 1
124.072 0 1
124.188 0 1
124.303 0 1
124.419 0 1
126.852 0 1
126.968 0 1
127.083 0 1
127.199 0 1
127.315 0 1
127.431 0 1
127.547 0 1
127.663 0 1
127.779 0 1
127.895 0 1
128.011 0 1
128.127 0 1
128.243 0 1
128.359 3432 58.5833
128.476 3306 57.4978
128.592 3180 56.3915
128.708 3107 55.7405
128.825 3006 54.827
128.941 3154 56.1605
129.058 3228 56.8155
129.174 3177 56.3649
129.291 3269 57.1752
129.408 3524 59.3633
129.524 3459 58.8133
129.641 3591 59.925
129.758 3520 59.3296
129.875 3541 59.5063
129.992 3423 58.5064
130.108 3223 56.7715
130.225 2973 54.5252
130.342 2934 54.1664
130.459 2847 53.3573
130.576 2934 54.1664
130.693 3109 55.7584
130.81 3307 57.5065
130.928 3326 57.6715
131.045 3367 58.0259
131.162 3500 59.1608
131.279 3480 58.9915
131.396 3404 58.3438
131.513 3487 59.0508
131.631 3283 57.2975
131.748 3352 57.8965
131.865 3247 56.9825
131.983 3368 58.0345
132.1 3141 56.0446
132.217 2947 54.2863
132.335 2915 53.9907
132.452 2899 53.8424
132.57 3074 55.4437
132.687 2939 54.2125
132.804 3203 56.5951
132.922 3300 57.4456
133.039 3221 56.7539
133.157 3263 57.1227
133.274 3363 57.9914
133.392 3262 57.1139
133.509 3235 56.8771
133.627 3066 55.3715
133.744 2850 53.3854
133.862 2838 53.2729
133.979 2638 51.3615
134.097 2784 52.7636
134.214 2954 54.3507
134.332 3072 55.4256
134.449 3123 55.8838
134.567 3173 56.3294
134.684 3144 56.0714
134.802 3169 56.2939
134.919 3232 56.8507
135.037 3098 55.6597
135.154 3063 55.3444
135.272 2954 54.3507
135.389 2961 54.4151
135.507 2809 53
135.624 2730 52.2494
135.742 2709 52.0481
135.859 2516 50.1597
135.977 2528 50.2792
136.094 2511 50.1099
136.211 2596 50.951
136.329 2614 51.1273
136.446 2696 51.923
136.564 2728 52.2303
136.681 2692 51.8845
136.798 2698 51.9423
136.915 2713 52.0865
137.033 2774 52.6688
137.15 2611 51.0979
137.267 2422 49.2138
137.384 2372 48.7032
137.502 2345 48.4252
137.619 2238 47.3075
137.736 2390 48.8876
137.853 2496 49.96
137.97 2622 51.2055
138.087 2718 52.1344
138.204 2833 53.2259
138.321 2790 52.8205
138.438 2932 54.1479
138.555 2966 54.461
138.672 2909 53.9351
138.788 2901 53.8609
138.905 2920 54.037
139.022 2901 53.8609
139.139 2876 53.6284
139.255 2780 52.7257
139.372 2861 53.4883
139.488 2730 52.2494
139.605 2726 52.2111
139.721 2884 53.7029
139.838 2825 53.1507
139.954 2991 54.69
140.071 3020 54.9545
140.187 3210 56.6569
140.303 3240 56.921
140.419 3170 56.3028
140.535 3258 57.0789
140.652 3284 57.3062
140.768 0 1
140.884 0 1
141 0 1
141.115 0 1
141.231 0 1
141.347 0 1
141.463 0 1
141.578 0 1
141.694 0 1
144.104 0 1
144.219 0 1
144.335 0 1
144.45 0 1
144.566 0 1
144.682 0 1
144.798 0 1
144.914 0 1
145.03 0 1
145.146 5056 71.1056
145.262 5462 73.9053
145.378 5707 75.5447
145.494 5979 77.324
145.61 6260 79.1202
145.726 6645 81.5169
145.842 6527 80.7899
145.959 6674 81.6946
146.075 6572 81.0679
146.192 6339 79.6178
146.308 6448 80.2994
146.425 6492 80.5729
146.541 7096 84.2378
146.658 7557 86.931
146.774 7907 88.9213
146.891 8403 91.6679
147.008 8724 93.4024
147.125 8987 94.7998
147.241 9175 95.7862
147.358 9354 96.7161
147.475 9401 96.9588
147.592 9349 96.6902
147.709 9368 96.7884
147.826 9079 95.2838
147.943 9075 95.2628
148.06 8640 92.9516
148.177 8492 92.152
148.294 8332 91.2798
148.411 8392 91.6079
148.528 8652 93.0161
148.645 8666 93.0914
148.762 8935 94.5251
148.88 9052 95.142
148.997 9749 98.737
149.114 8929 94.4934
149.231 8872 94.1913
149.349 8834 93.9894
149.466 8972 94.7206
149.583 8182 90.4544
149.701 7696 87.7268
149.818 7444 86.2786
149.935 7158 84.605
150.053 7238 85.0764
150.17 7571 87.0115
150.287 8138 90.2109
150.405 8236 90.7524
150.522 8577 92.6121
150.64 8481 92.0923
150.757 8795 93.7817
150.875 8767 93.6323
150.992 8823 93.9308
151.11 8909 94.3875
151.227 8803 93.8243
151.344 8637 92.9355
151.462 8477 92.0706
151.579 8527 92.3418
151.697 8343 91.34
151.814 8187 90.482
151.932 8069 89.8276
152.049 8246 90.8075
152.167 8333 91.2853
152.284 8705 93.3006
152.402 9083 95.3048
152.519 9504 97.4885
152.636 9557 97.7599
152.754 9351 96.7006
152.871 9783 98.909
152.989 9559 97.7701
153.106 9202 95.9271
153.223 8786 93.7337
153.341 8237 90.7579
153.458 8046 89.6995
153.575 7988 89.3756
153.693 8029 89.6047
153.81 8473 92.0489
153.927 8983 94.7787
154.044 9287 96.3691
154.162 9574 97.8468
154.279 9978 99.8899
154.396 10330 101.637
154.513 10348 101.725
154.63 10370 101.833
154.747 10362 101.794
154.864 10429 102.122
154.981 10366 101.814
155.098 10279 101.385
155.215 10012 100.06
155.332 9954 99.7697
155.449 9928 99.6393
155.566 9780 98.8939
155.683 9977 99.8849
155.8 10365 101.809
155.917 10866 104.24
156.033 11176 105.717
156.15 0 1
156.267 0 1
156.383 0 1
156.5 0 1
156.617 0 1
156.733 0 1
156.85 0 1
156.966 0 1
157.082 0 1
157.199 0 1
157.315 0 1
157.431 0 1
157.547 0 1
157.664 0 1
157.78 0 1
157.896 0 1
158.012 0 1
158.128 0 1
158.244 0 1
158.359 0 1
158.475 0 1
158.591 0 1
158.706 0 1
