
6.15755 0 1
6.2731 0 1
6.3887 0 1
6.50437 0 1
6.62009 0 1
6.73587 0 1
6.8517 0 1
6.96759 0 1
7.08353 0 1
7.19952 0 1
7.31557 0 1
7.43166 0 1
7.54781 0 1
7.664 0 1
7.78024 0 1
7.89653 0 1
8.01286 0 1
8.12924 0 1
8.24567 0 1
8.36213 0 1
8.47864 0 1
8.59519 0 1
8.71178 0 1
8.82841 0 1
8.94508 0 1
9.06179 0 1
9.17853 0 1
9.29531 0 1
9.41212 0 1
9.52897 0 1
9.64584 0 1
9.76276 0 1
9.8797 0 1
9.99667 0 1
10.1137 0 1
10.2307 0 1
10.3478 0 1
10.4648 0 1
10.5819 0 1
10.6991 0 1
10.8162 0 1
10.9334 0 1
11.0506 0 1
11.1678 0 1
11.285 0 1
11.4023 0 1
11.5196 0 1
11.6369 0 1
11.7542 0 1
11.8715 0 1
11.9888 0 1
12.1062 0 1
12.2235 0 1
12.3409 0 1
12.4582 0 1
12.5756 0 1
12.693 0 1
12.8104 0 1
12.9278 0 1
13.0452 0 1
13.1626 0 1
13.28 0 1
13.3974 0 1
13.5149 0 1
13.6323 0 1
13.7497 0 1
13.8671 0 1
13.9845 0 1
14.1019 0 1
14.2193 0 1
14.3367 0 1
14.4541 0 1
14.5714 0 1
14.6888 0 1
14.8062 0 1
14.9235 0 1
15.0408 0 0
15.1581 0 0
15.2755 0 0
15.3927 0 0
15.51 0 0
15.6273 0 0
15.7445 0 0
15.8617 0 0
15.9789 0 0
16.0961 0 0
16.2132 0 0
16.3304 0 0
16.4475 0 0
16.5646 0 0
16.6816 0 0
16.7986 0 0
16.9156 0 0
17.0326 0 0
17.1496 0 0
17.2665 0 0
17.3833 0 0
17.5002 0 0
17.617 0 0
17.7338 0 0
17.8505 0 0
17.9672 0 0
18.0839 0 0
18.2005 0 0
18.3171 0 0
18.4337 0 0
18.5502 0 0
18.6666 0 0
18.7831 0 0
18.8994 0 0
19.0158 0 0
19.1321 0 0
19.2483 0 0
19.3645 0 0
19.4806 0 0
19.5967 0 0
19.7128 0 0
19.8288 0 0
19.9447 0 0
20.0606 0 1
20.1764 0 1
20.2922 0 1
20.4079 0 1
20.5236 0 1
20.6392 0 1
20.7548 0 1
20.8702 0 1
23.3078 0 1
23.4233 0 1
23.539 0 1
23.6547 0 1
23.7704 0 1
23.8862 0 1
24.0021 0 1
24.118 0 1
24.234 0 1
24.35 0 1
24.4661 1962 44.2945
24.5822 1983 44.5309
24.6984 1926 43.8862
24.8146 1917 43.7836
24.9309 1825 42.72
25.0472 1721 41.4849
25.1636 1652 40.6448
25.28 1767 42.0357
25.3965 1862 43.1509
25.513 2081 45.618
25.6296 2290 47.8539
25.7462 2359 48.5695
25.8628 2467 49.6689
25.9795 2464 49.6387
26.0962 2455 49.548
26.213 2425 49.2443
26.3298 2429 49.2849
26.4466 2426 49.2544
26.5635 2408 49.0714
26.6804 2437 49.366
26.7973 2435 49.3457
26.9143 2446 49.4571
27.0313 2424 49.2341
27.1483 2374 48.7237
27.2653 2432 49.3153
27.3824 2371 48.6929
27.4996 2274 47.6865
27.6167 2295 47.9062
27.7339 2311 48.0729
27.8511 2303 47.9896
27.9683 2146 46.3249
28.0855 2139 46.2493
28.2028 2093 45.7493
28.3201 1895 43.5316
28.4374 1760 41.9524
28.5547 1546 39.3192
28.6721 1510 38.8587
28.7894 1646 40.5709
28.9068 1690 41.1096
29.0242 1908 43.6807
29.1416 1976 44.4522
29.259 2190 46.7974
29.3764 2268 47.6235
29.4939 2326 48.2286
29.6113 2400 48.9898
29.7288 2344 48.4149
29.8463 2318 48.1456
29.9638 2305 48.0104
30.0812 2405 49.0408
30.1987 2444 49.4368
30.3162 2288 47.833
30.4337 2292 47.8748
30.5512 2368 48.6621
30.6687 2278 47.7284
30.7862 2281 47.7598
30.9037 2245 47.3814
31.0212 2346 48.4355
31.1387 2195 46.8508
31.2562 2235 47.2758
31.3737 2193 46.8295
31.4912 2077 45.5741
31.6087 2055 45.3321
31.7262 1955 44.2154
31.8436 1854 43.0581
31.9611 1696 41.1825
32.0785 1506 38.8072
32.1959 1472 38.3667
32.3134 1460 38.2099
32.4308 1680 40.9878
32.5482 1778 42.1663
32.6655 1884 43.4051
32.7829 2161 46.4866
32.9002 2156 46.4327
33.0176 2278 47.7284
33.1349 2304 48
33.2522 2308 48.0416
33.3694 2308 48.0416
33.4867 2331 48.2804
33.6039 2278 47.7284
33.7211 2262 47.5605
33.8383 2234 47.2652
33.9554 2243 47.3603
34.0725 2224 47.1593
34.1896 2265 47.592
34.3067 2296 47.9166
34.4237 2166 46.5403
34.5407 2195 46.8508
34.6577 2259 47.5289
34.7746 2176 46.6476
34.8915 2130 46.1519
35.0084 2048 45.2548
35.1252 2067 45.4643
35.242 1940 44.0454
35.3587 1920 43.8178
35.4755 1798 42.4028
35.5921 1657 40.7063
35.7088 1575 39.6863
35.8254 1354 36.7967
35.9419 1332 36.4966
36.0584 1379 37.1349
36.1749 1497 38.6911
36.2913 1668 40.8412
36.4077 1820 42.6615
36.524 1913 43.7379
36.6403 2103 45.8585
36.7565 2160 46.4758
36.8727 2154 46.4112
36.9889 2129 46.1411
37.1049 2156 46.4327
37.221 0 1
37.3369 0 1
37.4529 0 1
37.5687 0 1
37.6845 0 1
37.8003 0 1
37.916 0 1
38.0316 0 1
38.1472 0 1
40.5851 0 1
40.7008 0 1
40.8164 0 1
40.9322 0 1
41.048 0 1
41.1639 0 1
41.2798 0 1
41.3958 0 1
41.5118 0 1
41.6279 0 1
41.744 1435 37.8814
41.8602 1644 40.5463
41.9765 1729 41.5812
42.0928 1774 42.1189
42.2091 1833 42.8135
42.3255 1868 43.2204
42.4419 1739 41.7013
42.5584 1700 41.2311
42.675 1713 41.3884
42.7915 1712 41.3763
42.9081 1681 41
43.0248 1645 40.5586
43.1415 1706 41.3038
43.2582 1671 40.8779
43.375 1678 40.9634
43.4918 1632 40.398
43.6087 1610 40.1248
43.7256 1604 40.05
43.8425 1515 38.923
43.9595 1379 37.1349
44.0765 1381 37.1618
44.1935 1320 36.3318
44.3106 1210 34.7851
44.4277 1160 34.0588
44.5448 1021 31.9531
44.6619 920 30.3315
44.7791 883 29.7153
44.8963 888 29.7993
45.0136 979 31.289
45.1308 1058 32.5269
45.2481 1163 34.1028
45.3654 1252 35.3836
45.4827 1299 36.0416
45.6001 1299 36.0416
45.7174 1285 35.8469
45.8348 1254 35.4119
45.9522 1213 34.8281
46.0697 1174 34.2637
46.1871 1203 34.6843
46.3046 1175 34.2783
46.422 1176 34.2929
46.5395 1159 34.0441
46.657 1144 33.8231
46.7745 1138 33.7343
46.892 1081 32.8786
47.0096 1009 31.7648
47.1271 1104 33.2265
47.2446 1016 31.8748
47.3622 1028 32.0624
47.4797 997 31.5753
47.5973 970 31.1448
47.7149 909 30.1496
47.8324 893 29.8831
47.95 803 28.3373
48.0675 703 26.5141
48.1851 628 25.0599
48.3027 608 24.6577
48.4202 594 24.3721
48.5378 682 26.1151
48.6554 729 27
48.7729 796 28.2135
48.8904 865 29.4109
49.008 911 30.1828
49.1255 924 30.3974
49.243 882 29.6985
49.3605 892 29.8664
49.478 909 30.1496
49.5955 952 30.8545
49.713 850 29.1548
49.8304 911 30.1828
49.9479 876 29.5973
50.0653 990 31.4643
50.1827 1017 31.8904
50.3001 1002 31.6544
50.4175 1056 32.4962
50.5348 992 31.496
50.6521 1063 32.6037
50.7694 1113 33.3617
50.8867 1119 33.4515
51.004 1131 33.6303
51.1212 1035 32.1714
51.2384 1032 32.1248
51.3556 957 30.9354
51.4727 963 31.0322
51.5899 893 29.8831
51.707 787 28.0535
51.824 772 27.7849
51.9411 899 29.9833
52.0581 946 30.7571
52.175 1087 32.9697
52.2919 1275 35.7071
52.4088 1436 37.8946
52.5257 1530 39.1152
52.6425 1521 39
52.7593 1572 39.6485
52.876 1554 39.4208
52.9927 1550 39.37
53.1094 1590 39.8748
53.226 1592 39.8999
53.3426 1604 40.05
53.4591 1728 41.5692
53.5756 1698 41.2068
53.692 1602 40.025
53.8084 1709 41.3401
53.9248 1775 42.1307
54.0411 1814 42.5911
54.1573 1817 42.6263
54.2735 0 1
54.3896 0 1
54.5057 0 1
54.6217 0 1
54.7377 0 1
54.8537 0 1
54.9695 0 1
55.0853 0 1
55.2011 0 1
55.3168 0 1
55.4324 0 1
57.824 0 1
57.9396 0 1
58.0553 0 1
58.1711 0 1
58.2869 0 1
58.4028 0 1
58.5187 0 1
58.6347 0 1
58.7508 0 1
58.8669 0 1
58.983 2035 45.111
59.0992 2144 46.3033
59.2155 2112 45.9565
59.3318 2078 45.5851
59.4482 2047 45.2438
59.5646 2171 46.594
59.681 2101 45.8367
59.7975 1989 44.5982
59.9141 1987 44.5758
60.0306 1755 41.8927
60.1473 1616 40.1995
60.2639 1411 37.5633
60.3807 1319 36.318
60.4974 1148 33.8821
60.6142 1198 34.6121
60.731 1241 35.2278
60.8479 1531 39.128
60.9648 1616 40.1995
61.0818 1786 42.2611
61.1987 1822 42.6849
61.3158 1883 43.3935
61.4328 1859 43.1161
61.5499 1856 43.0813
61.667 1805 42.4853
61.7841 1864 43.1741
61.9013 1845 42.9535
62.0185 1786 42.2611
62.1357 1878 43.3359
62.253 1924 43.8634
62.3702 1903 43.6234
62.4875 1795 42.3674
62.6049 1926 43.8862
62.7222 1887 43.4396
62.8396 1844 42.9418
62.9569 1907 43.6692
63.0743 1870 43.2435
63.1918 1808 42.5206
63.3092 1814 42.5911
63.4267 1741 41.7253
63.5441 1590 39.8748
63.6616 1377 37.108
63.7791 1252 35.3836
63.8966 1122 33.4963
64.0142 935 30.5778
64.1317 1072 32.7414
64.2492 1119 33.4515
64.3668 1277 35.7351
64.4843 1461 38.223
64.6019 1516 38.9358
64.7195 1631 40.3856
64.837 1662 40.7676
64.9546 1666 40.8167
65.0722 1670 40.8656
65.1898 1733 41.6293
65.3074 1690 41.1096
65.4249 1733 41.6293
65.5425 1703 41.2674
65.6601 1775 42.1307
65.7777 1730 41.5933
65.8952 1655 40.6817
66.0128 1721 41.4849
66.1304 1715 41.4126
66.2479 1719 41.4608
66.3655 1679 40.9756
66.483 1847 42.9767
66.6005 1714 41.4005
66.718 1720 41.4729
66.8355 1725 41.5331
66.953 1689 41.0974
67.0705 1586 39.8246
67.1879 1504 38.7814
67.3054 1284 35.8329
67.4228 1178 34.322
67.5402 1007 31.7333
67.6576 862 29.3598
67.7749 932 30.5287
67.8923 1060 32.5576
68.0096 1228 35.0428
68.1269 1380 37.1484
68.2442 1495 38.6652
68.3614 1604 40.05
68.4787 1698 41.2068
68.5958 1704 41.2795
68.713 1766 42.0238
68.8302 1705 41.2916
68.9473 1709 41.3401
69.0643 1675 40.9268
69.1814 1735 41.6533
69.2984 1730 41.5933
69.4154 1749 41.821
69.5323 1810 42.5441
69.6492 1847 42.9767
69.7661 1769 42.0595
69.8829 1849 43
69.9997 1856 43.0813
70.1165 1919 43.8064
70.2332 1870 43.2435
70.3499 1908 43.6807
70.4665 1829 42.7668
70.5831 1860 43.1277
70.6996 1827 42.7434
70.8161 1724 41.5211
70.9326 1546 39.3192
71.049 1372 37.0405
71.1653 1154 33.9706
71.2817 976 31.241
71.3979 927 30.4467
71.5141 951 30.8383
71.6303 999 31.607
71.7464 1064 32.619
71.8624 0 1
71.9784 0 1
72.0944 0 1
72.2102 0 1
72.3261 0 1
72.4418 0 1
72.5575 0 1
72.6732 0 1
75.1054 0 1
75.2209 0 1
75.3365 0 1
75.4521 0 1
75.5678 0 1
75.6835 0 1
75.7993 0 1
75.9151 0 1
76.031 0 1
76.147 1531 39.128
76.263 1645 40.5586
76.3791 1532 39.1408
76.4952 1311 36.2077
76.6113 1002 31.6544
76.7276 937 30.6105
76.8438 984 31.3688
76.9601 1033 32.1403
77.0765 1373 37.054
77.1929 1604 40.05
77.3093 1767 42.0357
77.4258 1801 42.4382
77.5423 1840 42.8952
77.6589 1917 43.7836
77.7755 1835 42.8369
77.8921 1892 43.4971
78.0088 1856 43.0813
78.1256 1782 42.2137
78.2423 1816 42.6146
78.3591 1746 41.7852
78.4759 1873 43.2782
78.5928 1866 43.1972
78.7097 1787 42.2729
78.8266 1704 41.2795
78.9436 1933 43.9659
79.0606 1855 43.0697
79.1776 1911 43.715
79.2946 1850 43.0116
79.4117 1789 42.2966
79.5288 1778 42.1663
79.6459 1708 41.328
79.7631 1713 41.3884
79.8802 1618 40.2244
79.9974 1446 38.0263
80.1147 1288 35.8887
80.2319 1042 32.28
80.3491 787 28.0535
80.4664 878 29.6311
80.5837 955 30.9031
80.701 1224 34.9857
80.8183 1472 38.3667
80.9357 1690 41.1096
81.053 1699 41.2189
81.1704 1607 40.0874
81.2877 1591 39.8873
81.4051 1632 40.398
81.5225 1628 40.3485
81.6399 1652 40.6448
81.7573 1617 40.2119
81.8747 1587 39.8372
81.9922 1586 39.8246
82.1096 1560 39.4968
82.227 1544 39.2938
82.3444 1562 39.5221
82.4619 1616 40.1995
82.5793 1620 40.2492
82.6967 1581 39.7618
82.8142 1651 40.6325
82.9316 1627 40.3361
83.049 1581 39.7618
83.1664 1549 39.3573
83.2838 1519 38.9744
83.4012 1491 38.6135
83.5186 1386 37.229
83.636 1276 35.7211
83.7534 1125 33.541
83.8708 852 29.189
83.9881 729 27
84.1055 656 25.6125
84.2228 765 27.6586
84.3401 930 30.4959
84.4575 1131 33.6303
84.5747 1344 36.6606
84.692 1437 37.9078
84.8093 1476 38.4187
84.9265 1486 38.5487
85.0437 1475 38.4057
85.1609 1449 38.0657
85.2781 1465 38.2753
85.3952 1554 39.4208
85.5123 1518 38.9615
85.6294 1508 38.833
85.7465 1543 39.281
85.8636 1574 39.6737
85.9806 1557 39.4588
86.0976 1573 39.6611
86.2145 1660 40.7431
86.3315 1702 41.2553
86.4484 1658 40.7185
86.5652 1737 41.6773
86.682 1697 41.1947
86.7988 1671 40.8779
86.9156 1645 40.5586
87.0323 1583 39.7869
87.149 1622 40.2741
87.2657 1389 37.2693
87.3823 1229 35.0571
87.4988 1018 31.9061
87.6154 862 29.3598
87.7318 909 30.1496
87.8483 1116 33.4066
87.9647 1282 35.805
88.081 1644 40.5463
88.1973 1806 42.4971
88.3136 1844 42.9418
88.4298 1775 42.1307
88.546 1753 41.8688
88.6621 1839 42.8836
88.7781 1772 42.0951
88.8942 0 1
89.0101 0 1
89.126 0 1
89.2419 0 1
89.3577 0 1
89.4734 0 1
89.5891 0 1
89.7047 0 1
89.8203 0 1
89.9358 0 1
92.3269 0 1
92.4424 0 1
92.558 0 1
92.6736 0 1
92.7893 0 1
92.905 0 1
93.0208 0 1
93.1366 0 1
93.2525 0 1
93.3685 0 1
93.4845 0 1
93.6005 1737 41.6773
93.7167 1766 42.0238
93.8328 1846 42.9651
93.949 1889 43.4626
94.0653 1841 42.9069
94.1816 1769 42.0595
94.2979 1833 42.8135
94.4143 1832 42.8019
94.5307 1713 41.3884
94.6472 1714 41.4005
94.7637 1703 41.2674
94.8803 1889 43.4626
94.9969 1961 44.2832
95.1135 1768 42.0476
95.2302 1863 43.1625
95.3469 1940 44.0454
95.4637 1944 44.0908
95.5805 1947 44.1248
95.6973 1941 44.0568
95.8142 2009 44.8219
95.9311 1877 43.3244
96.048 1835 42.8369
96.1649 1766 42.0238
96.2819 1665 40.8044
96.3989 1638 40.4722
96.516 1550 39.37
96.633 1316 36.2767
96.7501 1028 32.0624
96.8673 953 30.8707
96.9844 1040 32.249
97.1016 1145 33.8378
97.2188 1357 36.8375
97.336 1631 40.3856
97.4532 1700 41.2311
97.5704 1669 40.8534
97.6877 1748 41.8091
97.805 1733 41.6293
97.9223 1775 42.1307
98.0396 1744 41.7612
98.1569 1782 42.2137
98.2743 1789 42.2966
98.3916 1697 41.1947
98.509 1743 41.7493
98.6264 1793 42.3438
98.7438 1725 41.5331
98.8612 1819 42.6497
98.9786 1826 42.7317
99.096 1906 43.6578
99.2134 1885 43.4166
99.3308 1882 43.382
99.4482 1911 43.715
99.5656 1945 44.1022
99.6831 1847 42.9767
99.8005 1769 42.0595
99.9179 1707 41.3159
100.035 1643 40.5339
100.153 1499 38.7169
100.27 1169 34.1906
100.388 951 30.8383
100.505 959 30.9677
100.622 1123 33.5112
100.74 1365 36.9459
100.857 1616 40.1995
100.975 1719 41.4608
101.092 1772 42.0951
101.209 1703 41.2674
101.327 1816 42.6146
101.444 1722 41.497
101.561 1811 42.5558
101.679 1814 42.5911
101.796 1756 41.9047
101.913 1763 41.9881
102.03 1805 42.4853
102.148 1847 42.9767
102.265 1846 42.9651
102.382 1995 44.6654
102.499 1910 43.7035
102.616 1925 43.8748
102.733 1969 44.3734
102.851 1967 44.3509
102.968 2078 45.5851
103.085 1978 44.4747
103.202 1991 44.6206
103.319 1875 43.3013
103.436 1862 43.1509
103.552 1736 41.6653
103.669 1563 39.5348
103.786 1352 36.7696
103.903 1073 32.7567
104.02 1109 33.3017
104.137 1278 35.7491
104.253 1506 38.8072
104.37 1776 42.1426
104.487 1998 44.699
104.603 2025 45
104.72 2001 44.7325
104.836 1952 44.1814
104.953 1989 44.5982
105.069 2099 45.8148
105.186 1996 44.6766
105.302 2093 45.7493
105.418 1998 44.699
105.535 2008 44.8107
105.651 2133 46.1844
105.767 2153 46.4004
105.883 2121 46.0543
105.999 2210 47.0106
106.115 0 1
106.231 0 1
106.347 0 1
106.463 0 1
106.579 0 1
106.694 0 1
106.81 0 1
106.926 0 1
107.041 0 1
107.157 0 1
109.576 0 1
109.692 0 1
109.807 0 1
109.923 0 1
110.039 0 1
110.155 0 1
110.27 0 1
110.386 0 1
110.502 0 1
110.618 2032 45.0777
110.735 2034 45.0999
110.851 2106 45.8912
110.967 2139 46.2493
111.083 2133 46.1844
111.199 2093 45.7493
111.316 2204 46.9468
111.432 2196 46.8615
111.549 2156 46.4327
111.665 2057 45.3542
111.782 2031 45.0666
111.898 1946 44.1135
112.015 1960 44.2719
112.132 1806 42.4971
112.248 1604 40.05
112.365 1309 36.1801
112.482 1174 34.2637
112.599 1220 34.9285
112.716 1423 37.7227
112.832 1636 40.4475
112.949 1872 43.2666
113.066 1874 43.2897
113.183 1975 44.441
113.3 1971 44.3959
113.417 1939 44.0341
113.534 1933 43.9659
113.652 1920 43.8178
113.769 2123 46.076
113.886 2043 45.1996
114.003 1979 44.486
114.12 2098 45.8039
114.238 2022 44.9667
114.355 2018 44.9222
114.472 2136 46.2169
114.589 2067 45.4643
114.707 2181 46.7012
114.824 2168 46.5618
114.942 2233 47.2546
115.059 2271 47.655
115.176 2295 47.9062
115.294 2201 46.9148
115.411 2183 46.7226
115.529 2158 46.4543
115.646 1919 43.8064
115.764 1811 42.5558
115.881 1699 41.2189
115.999 1500 38.7298
116.116 1406 37.4967
116.234 1516 38.9358
116.351 1707 41.3159
116.469 1984 44.5421
116.586 2142 46.2817
116.704 2276 47.7074
116.821 2213 47.0425
116.939 2176 46.6476
117.056 2229 47.2123
117.174 2166 46.5403
117.291 2222 47.1381
117.409 2274 47.6865
117.526 2266 47.6025
117.644 2303 47.9896
117.761 2231 47.2335
117.879 2281 47.7598
117.996 2354 48.518
118.114 2384 48.8262
118.231 2388 48.8672
118.349 2432 49.3153
118.466 2301 47.9687
118.584 2418 49.1732
118.701 2456 49.558
118.819 2403 49.0204
118.936 2348 48.4562
119.053 2259 47.5289
119.171 2176 46.6476
119.288 2103 45.8585
119.405 1842 42.9185
119.523 1687 41.0731
119.64 1558 39.4715
119.757 1550 39.37
119.875 1602 40.025
119.992 1716 41.4246
120.109 2086 45.6727
120.226 2116 46
120.343 2151 46.3789
120.46 2141 46.2709
120.578 2269 47.634
120.695 2216 47.0744
120.812 2199 46.8935
120.929 2143 46.2925
121.046 2256 47.4974
121.163 2213 47.0425
121.279 2275 47.697
121.396 2198 46.8828
121.513 2234 47.2652
121.63 2248 47.4131
121.747 2174 46.6262
121.863 2226 47.1805
121.98 2360 48.5798
122.097 2324 48.2079
122.213 2271 47.655
122.33 2308 48.0416
122.446 2403 49.0204
122.563 2219 47.1063
122.679 2272 47.6655
122.795 2147 46.3357
122.912 2125 46.0977
123.028 1933 43.9659
123.144 1813 42.5793
123.26 1669 40.8534
123.377 0 1
123.493 0 1
123.609 0 1
123.725 0 1
123.84 0 1
123.956 0 1
124.072 0 1
124.188 0 1
124.303 0 1
124.419 0 1
126.852 0 1
126.968 0 1
127.083 0 1
127.199 0 1
127.315 0 1
127.431 0 1
127.547 0 1
127.663 0 1
127.779 0 1
127.895 0 1
128.011 0 1
128.127 0 1
128.243 0 1
128.359 2067 45.4643
128.476 1902 43.6119
128.592 1636 40.4475
128.708 1653 40.6571
128.825 1821 42.6732
128.941 1920 43.8178
129.058 2240 47.3286
129.174 2221 47.1275
129.291 2289 47.8435
129.408 2374 48.7237
129.524 2415 49.1426
129.641 2476 49.7594
129.758 2279 47.7389
129.875 2313 48.0937
129.992 2468 49.679
130.108 2242 47.3498
130.225 2350 48.4768
130.342 2250 47.4342
130.459 2307 48.0312
130.576 2329 48.2597
130.693 2361 48.5901
130.81 2410 49.0918
130.928 2430 49.295
131.045 2498 49.98
131.162 2370 48.6826
131.279 2555 50.547
131.396 2503 50.03
131.513 2433 49.3254
131.631 2397 48.9592
131.748 2261 47.55
131.865 2200 46.9042
131.983 2119 46.0326
132.1 1862 43.1509
132.217 1751 41.845
132.335 1832 42.8019
132.452 2044 45.2106
132.57 2195 46.8508
132.687 2394 48.9285
132.804 2358 48.5592
132.922 2475 49.7494
133.039 2388 48.8672
133.157 2431 49.3052
133.274 2476 49.7594
133.392 2457 49.5681
133.509 2310 48.0625
133.627 2417 49.163
133.744 2310 48.0625
133.862 2254 47.4763
133.979 2333 48.3011
134.097 2393 48.9183
134.214 2431 49.3052
134.332 2380 48.7852
134.449 2417 49.163
134.567 2454 49.5379
134.684 2407 49.0612
134.802 2411 49.1019
134.919 2564 50.636
135.037 2474 49.7393
135.154 2353 48.5077
135.272 2347 48.4458
135.389 2264 47.5815
135.507 2008 44.8107
135.624 1828 42.7551
135.742 1842 42.9185
135.859 1802 42.45
135.977 1925 43.8748
136.094 2168 46.5618
136.211 2153 46.4004
136.329 2419 49.1833
136.446 2458 49.5782
136.564 2426 49.2544
136.681 2449 49.4874
136.798 2427 49.2646
136.915 2492 49.9199
137.033 2365 48.6313
137.15 2301 47.9687
137.267 2293 47.8853
137.384 2261 47.55
137.502 2292 47.8748
137.619 2236 47.2864
137.736 2267 47.613
137.853 2336 48.3322
137.97 2324 48.2079
138.087 2381 48.7955
138.204 2349 48.4665
138.321 2432 49.3153
138.438 2368 48.6621
138.555 2495 49.95
138.672 2391 48.8979
138.788 2302 47.9792
138.905 2177 46.6583
139.022 2215 47.0638
139.139 2157 46.4435
139.255 1900 43.589
139.372 1763 41.9881
139.488 1858 43.1045
139.605 1957 44.238
139.721 2143 46.2925
139.838 2337 48.3425
139.954 2410 49.0918
140.071 2389 48.8774
140.187 2444 49.4368
140.303 2349 48.4665
140.419 2447 49.4672
140.535 2379 48.775
140.652 2418 49.1732
140.768 0 1
140.884 0 1
141 0 1
141.115 0 1
141.231 0 1
141.347 0 1
141.463 0 1
141.578 0 1
141.694 0 1
144.104 0 1
144.219 0 1
144.335 0 1
144.45 0 1
144.566 0 1
144.682 0 1
144.798 0 1
144.914 0 1
145.03 0 1
145.146 1724 41.5211
145.262 1952 44.1814
145.378 1955 44.2154
145.494 1997 44.6878
145.61 1892 43.4971
145.726 1930 43.9318
145.842 1862 43.1509
145.959 1845 42.9535
146.075 1889 43.4626
146.192 1839 42.8836
146.308 1769 42.0595
146.425 1797 42.391
146.541 1885 43.4166
146.658 1911 43.715
146.774 1866 43.1972
146.891 1916 43.7721
147.008 2046 45.2327
147.125 1959 44.2606
147.241 1998 44.699
147.358 2068 45.4753
147.475 2084 45.6508
147.592 2134 46.1952
147.709 1970 44.3847
147.826 1977 44.4635
147.943 1847 42.9767
148.06 1815 42.6028
148.177 1684 41.0366
148.294 1626 40.3237
148.411 1720 41.4729
148.528 1842 42.9185
148.645 2010 44.833
148.762 2060 45.3872
148.88 2020 44.9444
148.997 2083 45.6399
149.114 2212 47.0319
149.231 2136 46.2169
149.349 2124 46.0869
149.466 2180 46.6905
149.583 1982 44.5197
149.701 2043 45.1996
149.818 2020 44.9444
149.935 1905 43.6463
150.053 1846 42.9651
150.17 1900 43.589
150.287 1888 43.4511
150.405 1992 44.6318
150.522 2121 46.0543
150.64 2058 45.3652
150.757 2128 46.1303
150.875 2203 46.9361
150.992 2195 46.8508
151.11 2206 46.9681
151.227 2191 46.8081
151.344 2076 45.5631
151.462 2116 46
151.579 2036 45.1221
151.697 1843 42.9302
151.814 1911 43.715
151.932 1740 41.7133
152.049 1832 42.8019
152.167 1920 43.8178
152.284 2065 45.4423
152.402 2138 46.2385
152.519 2175 46.6369
152.636 2059 45.3762
152.754 2277 47.7179
152.871 2175 46.6369
152.989 2102 45.8476
153.106 2157 46.4435
153.223 2133 46.1844
153.341 2046 45.2327
153.458 1999 44.7102
153.575 1926 43.8862
153.693 1903 43.6234
153.81 1941 44.0568
153.927 2014 44.8776
154.044 2088 45.6946
154.162 2166 46.5403
154.279 2199 46.8935
154.396 2120 46.0435
154.513 2265 47.592
154.63 2309 48.0521
154.747 2197 46.8722
154.864 2253 47.4658
154.981 2260 47.5395
155.098 2098 45.8039
155.215 2135 46.2061
155.332 2060 45.3872
155.449 2076 45.5631
155.566 1956 44.2267
155.683 2115 45.9891
155.8 2160 46.4758
155.917 2328 48.2494
156.033 2301 47.9687
156.15 0 1
156.267 0 1
156.383 0 1
156.5 0 1
156.617 0 1
156.733 0 1
156.85 0 1
156.966 0 1
157.082 0 1
157.199 0 1
157.315 0 1
157.431 0 1
157.547 0 1
157.664 0 1
157.78 0 1
157.896 0 1
158.012 0 1
158.128 0 1
158.244 0 1
158.359 0 1
158.475 0 1
158.591 0 1
158.706 0 1
