
6.15755 0 1
6.2731 0 1
6.3887 0 1
6.50437 0 1
6.62009 0 1
6.73587 0 1
6.8517 0 1
6.96759 0 1
7.08353 0 1
7.19952 0 1
7.31557 0 1
7.43166 0 1
7.54781 0 1
7.664 0 1
7.78024 0 1
7.89653 0 1
8.01286 0 1
8.12924 0 1
8.24567 0 1
8.36213 0 1
8.47864 0 1
8.59519 0 1
8.71178 0 1
8.82841 0 1
8.94508 0 1
9.06179 0 1
9.17853 0 1
9.29531 0 1
9.41212 0 1
9.52897 0 1
9.64584 0 1
9.76276 0 1
9.8797 0 1
9.99667 0 1
10.1137 0 1
10.2307 0 1
10.3478 0 1
10.4648 0 1
10.5819 0 1
10.6991 0 1
10.8162 0 1
10.9334 0 1
11.0506 0 1
11.1678 0 1
11.285 0 1
11.4023 0 1
11.5196 0 1
11.6369 0 1
11.7542 0 1
11.8715 0 1
11.9888 0 1
12.1062 0 1
12.2235 0 1
12.3409 0 1
12.4582 0 1
12.5756 0 1
12.693 0 1
12.8104 0 1
12.9278 0 1
13.0452 0 1
13.1626 0 1
13.28 0 1
13.3974 0 1
13.5149 0 1
13.6323 0 1
13.7497 0 1
13.8671 0 1
13.9845 0 1
14.1019 0 1
14.2193 0 1
14.3367 0 1
14.4541 0 1
14.5714 0 1
14.6888 0 1
14.8062 0 1
14.9235 0 1
15.0408 0 0
15.1581 0 0
15.2755 0 0
15.3927 0 0
15.51 0 0
15.6273 0 0
15.7445 0 0
15.8617 0 0
15.9789 0 0
16.0961 0 0
16.2132 0 0
16.3304 0 0
16.4475 0 0
16.5646 0 0
16.6816 0 0
16.7986 0 0
16.9156 0 0
17.0326 0 0
17.1496 0 0
17.2665 0 0
17.3833 0 0
17.5002 0 0
17.617 0 0
17.7338 0 0
17.8505 0 0
17.9672 0 0
18.0839 0 0
18.2005 0 0
18.3171 0 0
18.4337 0 0
18.5502 0 0
18.6666 0 0
18.7831 0 0
18.8994 0 0
19.0158 0 0
19.1321 0 0
19.2483 0 0
19.3645 0 0
19.4806 0 0
19.5967 0 0
19.7128 0 0
19.8288 0 0
19.9447 0 0
20.0606 0 1
20.1764 0 1
20.2922 0 1
20.4079 0 1
20.5236 0 1
20.6392 0 1
20.7548 0 1
20.8702 0 1
23.3078 0 1
23.4233 0 1
23.539 0 1
23.6547 0 1
23.7704 0 1
23.8862 0 1
24.0021 0 1
24.118 0 1
24.234 0 1
24.35 0 1
24.4661 1246 35.2987
24.5822 1350 36.7423
24.6984 1430 37.8153
24.8146 1704 41.2795
24.9309 1860 43.1277
25.0472 2153 46.4004
25.1636 2430 49.295
25.28 2579 50.7839
25.3965 2627 51.2543
25.513 2608 51.0686
25.6296 2535 50.3488
25.7462 2576 50.7543
25.8628 2605 51.0392
25.9795 2608 51.0686
26.0962 2686 51.8266
26.213 2675 51.7204
26.3298 2739 52.3355
26.4466 2688 51.8459
26.5635 2694 51.9038
26.6804 2614 51.1273
26.7973 2534 50.3389
26.9143 2503 50.03
27.0313 2390 48.8876
27.1483 2418 49.1732
27.2653 2462 49.6185
27.3824 2414 49.1325
27.4996 2263 47.571
27.6167 2168 46.5618
27.7339 2087 45.6837
27.8511 2257 47.5079
27.9683 2374 48.7237
28.0855 2422 49.2138
28.2028 2425 49.2443
28.3201 2498 49.98
28.4374 2427 49.2646
28.5547 2479 49.7896
28.6721 2377 48.7545
28.7894 2473 49.7293
28.9068 2496 49.96
29.0242 2512 50.1199
29.1416 2523 50.2295
29.259 2453 49.5278
29.3764 2499 49.99
29.4939 2468 49.679
29.6113 2303 47.9896
29.7288 2316 48.1248
29.8463 2292 47.8748
29.9638 2354 48.518
30.0812 2256 47.4974
30.1987 2410 49.0918
30.3162 2422 49.2138
30.4337 2385 48.8365
30.5512 2427 49.2646
30.6687 2433 49.3254
30.7862 2455 49.548
30.9037 2294 47.8957
31.0212 2235 47.2758
31.1387 2239 47.3181
31.2562 2368 48.6621
31.3737 2282 47.7703
31.4912 2479 49.7896
31.6087 2490 49.8999
31.7262 2540 50.3984
31.8436 2474 49.7393
31.9611 2539 50.3885
32.0785 2436 49.3559
32.1959 2480 49.7996
32.3134 2338 48.3529
32.4308 2425 49.2443
32.5482 2336 48.3322
32.6655 2284 47.7912
32.7829 2171 46.594
32.9002 2268 47.6235
33.0176 2064 45.4313
33.1349 2164 46.5188
33.2522 2164 46.5188
33.3694 2147 46.3357
33.4867 2231 47.2335
33.6039 2172 46.6047
33.7211 2246 47.392
33.8383 2243 47.3603
33.9554 2217 47.085
34.0725 2294 47.8957
34.1896 2358 48.5592
34.3067 2410 49.0918
34.4237 2339 48.3632
34.5407 2199 46.8935
34.6577 2164 46.5188
34.7746 2086 45.6727
34.8915 2230 47.2229
35.0084 2358 48.5592
35.1252 2408 49.0714
35.242 2456 49.558
35.3587 2413 49.1223
35.4755 2553 50.5272
35.5921 2433 49.3254
35.7088 2330 48.2701
35.8254 2296 47.9166
35.9419 2135 46.2061
36.0584 2097 45.793
36.1749 2045 45.2217
36.2913 2035 45.111
36.4077 1983 44.5309
36.524 1877 43.3244
36.6403 1620 40.2492
36.7565 1559 39.4842
36.8727 1437 37.9078
36.9889 1504 38.7814
37.1049 1427 37.7757
37.221 0 1
37.3369 0 1
37.4529 0 1
37.5687 0 1
37.6845 0 1
37.8003 0 1
37.916 0 1
38.0316 0 1
38.1472 0 1
40.5851 0 1
40.7008 0 1
40.8164 0 1
40.9322 0 1
41.048 0 1
41.1639 0 1
41.2798 0 1
41.3958 0 1
41.5118 0 1
41.6279 0 1
41.744 1891 43.4856
41.8602 2437 49.366
41.9765 2943 54.2494
42.0928 3110 55.7674
42.2091 3253 57.0351
42.3255 3263 57.1227
42.4419 3216 56.7098
42.5584 3313 57.5587
42.675 3380 58.1378
42.7915 3402 58.3267
42.9081 3315 57.576
43.0248 3401 58.3181
43.1415 3577 59.808
43.2582 3319 57.6108
43.375 3184 56.4269
43.4918 2967 54.4702
43.6087 3120 55.857
43.7256 3212 56.6745
43.8425 3208 56.6392
43.9595 3147 56.0981
44.0765 3022 54.9727
44.1935 3187 56.4535
44.3106 2999 54.7631
44.4277 2848 53.3667
44.5448 2729 52.2398
44.6619 2505 50.05
44.7791 2519 50.1896
44.8963 2376 48.7442
45.0136 2290 47.8539
45.1308 2165 46.5296
45.2481 2047 45.2438
45.3654 1945 44.1022
45.4827 1890 43.4741
45.6001 1879 43.3474
45.7174 1882 43.382
45.8348 1745 41.7732
45.9522 1825 42.72
46.0697 1946 44.1135
46.1871 1948 44.1362
46.3046 2010 44.833
46.422 2046 45.2327
46.5395 2104 45.8694
46.657 2044 45.2106
46.7745 2060 45.3872
46.892 1942 44.0681
47.0096 1844 42.9418
47.1271 1915 43.7607
47.2446 1939 44.0341
47.3622 2027 45.0222
47.4797 2040 45.1664
47.5973 2068 45.4753
47.7149 2049 45.2659
47.8324 2096 45.7821
47.95 1989 44.5982
48.0675 2038 45.1442
48.1851 1849 43
48.3027 1961 44.2832
48.4202 1993 44.643
48.5378 1871 43.2551
48.6554 1842 42.9185
48.7729 1822 42.6849
48.8904 1720 41.4729
49.008 1764 42
49.1255 1762 41.9762
49.243 1732 41.6173
49.3605 1878 43.3359
49.478 1785 42.2493
49.5955 1888 43.4511
49.713 1901 43.6005
49.8304 1992 44.6318
49.9479 2013 44.8665
50.0653 1938 44.0227
50.1827 2050 45.2769
50.3001 1824 42.7083
50.4175 1678 40.9634
50.5348 1624 40.2989
50.6521 1646 40.5709
50.7694 1821 42.6732
50.8867 1896 43.5431
51.004 1932 43.9545
51.1212 2044 45.2106
51.2384 2019 44.9333
51.3556 1964 44.317
51.4727 1968 44.3621
51.5899 1967 44.3509
51.707 2070 45.4973
51.824 1919 43.8064
51.9411 1847 42.9767
52.0581 1939 44.0341
52.175 1947 44.1248
52.2919 1944 44.0908
52.4088 1776 42.1426
52.5257 1812 42.5676
52.6425 1731 41.6053
52.7593 1766 42.0238
52.876 1801 42.4382
52.9927 1738 41.6893
53.1094 1759 41.9404
53.226 1761 41.9643
53.3426 1810 42.5441
53.4591 1767 42.0357
53.5756 1589 39.8623
53.692 1413 37.5899
53.8084 1298 36.0278
53.9248 1130 33.6155
54.0411 1079 32.8481
54.1573 1029 32.078
54.2735 0 1
54.3896 0 1
54.5057 0 1
54.6217 0 1
54.7377 0 1
54.8537 0 1
54.9695 0 1
55.0853 0 1
55.2011 0 1
55.3168 0 1
55.4324 0 1
57.824 0 1
57.9396 0 1
58.0553 0 1
58.1711 0 1
58.2869 0 1
58.4028 0 1
58.5187 0 1
58.6347 0 1
58.7508 0 1
58.8669 0 1
58.983 1617 40.2119
59.0992 1608 40.0999
59.2155 1650 40.6202
59.3318 1744 41.7612
59.4482 1864 43.1741
59.5646 2116 46
59.681 2241 47.3392
59.7975 2335 48.3218
59.9141 2229 47.2123
60.0306 2307 48.0312
60.1473 2390 48.8876
60.2639 2326 48.2286
60.3807 2265 47.592
60.4974 2376 48.7442
60.6142 2317 48.1352
60.731 2312 48.0833
60.8479 2440 49.3964
60.9648 2415 49.1426
61.0818 2300 47.9583
61.1987 2362 48.6004
61.3158 2308 48.0416
61.4328 2175 46.6369
61.5499 2207 46.9787
61.667 2217 47.085
61.7841 2350 48.4768
61.9013 2282 47.7703
62.0185 2256 47.4974
62.1357 2285 47.8017
62.253 2432 49.3153
62.3702 2300 47.9583
62.4875 2189 46.7868
62.6049 2000 44.7214
62.7222 1995 44.6654
62.8396 2113 45.9674
62.9569 2287 47.8226
63.0743 2460 49.5984
63.1918 2401 49
63.3092 2494 49.94
63.4267 2369 48.6724
63.5441 2425 49.2443
63.6616 2462 49.6185
63.7791 2381 48.7955
63.8966 2441 49.4065
64.0142 2408 49.0714
64.1317 2408 49.0714
64.2492 2380 48.7852
64.3668 2290 47.8539
64.4843 2378 48.7647
64.6019 2304 48
64.7195 2232 47.244
64.837 2231 47.2335
64.9546 2225 47.1699
65.0722 2184 46.7333
65.1898 2220 47.1169
65.3074 2219 47.1063
65.4249 2155 46.422
65.5425 2270 47.6445
65.6601 2270 47.6445
65.7777 2319 48.156
65.8952 2286 47.8121
66.0128 2171 46.594
66.1304 1928 43.909
66.2479 1824 42.7083
66.3655 1917 43.7836
66.483 2181 46.7012
66.6005 2313 48.0937
66.718 2295 47.9062
66.8355 2394 48.9285
66.953 2452 49.5177
67.0705 2287 47.8226
67.1879 2359 48.5695
67.3054 2347 48.4458
67.4228 2486 49.8598
67.5402 2358 48.5592
67.6576 2263 47.571
67.7749 2334 48.3115
67.8923 2275 47.697
68.0096 2315 48.1144
68.1269 2267 47.613
68.2442 2251 47.4447
68.3614 2238 47.3075
68.4787 2243 47.3603
68.5958 2189 46.7868
68.713 2093 45.7493
68.8302 2088 45.6946
68.9473 2168 46.5618
69.0643 2150 46.3681
69.1814 2241 47.3392
69.2984 2227 47.1911
69.4154 2168 46.5618
69.5323 2221 47.1275
69.6492 2110 45.9347
69.7661 1880 43.359
69.8829 1702 41.2553
69.9997 1770 42.0714
70.1165 1916 43.7721
70.2332 2003 44.7549
70.3499 1955 44.2154
70.4665 1679 40.9756
70.5831 1669 40.8534
70.6996 1623 40.2865
70.8161 1463 38.2492
70.9326 1429 37.8021
71.049 1405 37.4833
71.1653 1321 36.3456
71.2817 1269 35.623
71.3979 1189 34.4819
71.5141 1185 34.4238
71.6303 1112 33.3467
71.7464 1095 33.0908
71.8624 0 1
71.9784 0 1
72.0944 0 1
72.2102 0 1
72.3261 0 1
72.4418 0 1
72.5575 0 1
72.6732 0 1
75.1054 0 1
75.2209 0 1
75.3365 0 1
75.4521 0 1
75.5678 0 1
75.6835 0 1
75.7993 0 1
75.9151 0 1
76.031 0 1
76.147 1757 41.9166
76.263 1994 44.6542
76.3791 2005 44.7772
76.4952 2021 44.9555
76.6113 2068 45.4753
76.7276 2036 45.1221
76.8438 2167 46.551
76.9601 2127 46.1194
77.0765 2182 46.7119
77.1929 2203 46.9361
77.3093 2103 45.8585
77.4258 2129 46.1411
77.5423 2065 45.4423
77.6589 2102 45.8476
77.7755 2065 45.4423
77.8921 2019 44.9333
78.0088 2045 45.2217
78.1256 1989 44.5982
78.2423 2129 46.1411
78.3591 2160 46.4758
78.4759 2106 45.8912
78.5928 2163 46.5081
78.7097 1911 43.715
78.8266 1599 39.9875
78.9436 1429 37.8021
79.0606 1571 39.6358
79.1776 1748 41.8091
79.2946 1997 44.6878
79.4117 2151 46.3789
79.5288 2213 47.0425
79.6459 2192 46.8188
79.7631 2204 46.9468
79.8802 2126 46.1086
79.9974 2250 47.4342
80.1147 2215 47.0638
80.2319 2213 47.0425
80.3491 2210 47.0106
80.4664 2221 47.1275
80.5837 2268 47.6235
80.701 2300 47.9583
80.8183 2337 48.3425
80.9357 2334 48.3115
81.053 2234 47.2652
81.1704 2191 46.8081
81.2877 2198 46.8828
81.4051 2253 47.4658
81.5225 2239 47.3181
81.6399 2232 47.244
81.7573 2341 48.3839
81.8747 2280 47.7493
81.9922 2417 49.163
82.1096 2556 50.5569
82.227 2561 50.6063
82.3444 2443 49.4267
82.4619 2092 45.7384
82.5793 2050 45.2769
82.6967 2191 46.8081
82.8142 2624 51.225
82.9316 3124 55.8928
83.049 3391 58.2323
83.1664 3567 59.7244
83.2838 3793 61.5873
83.4012 3968 62.9921
83.5186 3709 60.9016
83.636 4044 63.5925
83.7534 4135 64.304
83.8708 4123 64.2106
83.9881 4063 63.7417
84.1055 4194 64.7611
84.2228 4085 63.914
84.3401 4237 65.0922
84.4575 4358 66.0151
84.5747 4249 65.1844
84.692 4137 64.3195
84.8093 4205 64.846
84.9265 4153 64.4438
85.0437 4092 63.9687
85.1609 4131 64.2729
85.2781 4040 63.561
85.3952 4134 64.2962
85.5123 4025 63.4429
85.6294 4171 64.5833
85.7465 4003 63.2693
85.8636 3659 60.4897
85.9806 3130 55.9464
86.0976 2695 51.9134
86.2145 2556 50.5569
86.3315 3029 55.0364
86.4484 3599 59.9917
86.5652 3808 61.709
86.682 4078 63.8592
86.7988 4050 63.6396
86.9156 4150 64.4205
87.0323 4119 64.1794
87.149 4025 63.4429
87.2657 4059 63.7103
87.3823 4063 63.7417
87.4988 3820 61.8061
87.6154 3505 59.203
87.7318 3224 56.7803
87.8483 2912 53.963
87.9647 3011 54.8726
88.081 2921 54.0463
88.1973 2675 51.7204
88.3136 2622 51.2055
88.4298 2655 51.5267
88.546 2452 49.5177
88.6621 2370 48.6826
88.7781 2200 46.9042
88.8942 0 1
89.0101 0 1
89.126 0 1
89.2419 0 1
89.3577 0 1
89.4734 0 1
89.5891 0 1
89.7047 0 1
89.8203 0 1
89.9358 0 1
92.3269 0 1
92.4424 0 1
92.558 0 1
92.6736 0 1
92.7893 0 1
92.905 0 1
93.0208 0 1
93.1366 0 1
93.2525 0 1
93.3685 0 1
93.4845 0 1
93.6005 4376 66.1513
93.7167 4394 66.2873
93.8328 4208 64.8691
93.949 4217 64.9384
94.0653 4156 64.467
94.1816 4215 64.923
94.2979 4201 64.8151
94.4143 4262 65.284
94.5307 4270 65.3452
94.6472 4233 65.0615
94.7637 4118 64.1716
94.8803 3693 60.7701
94.9969 3173 56.3294
95.1135 2934 54.1664
95.2302 3212 56.6745
95.3469 3621 60.1747
95.4637 4054 63.671
95.5805 4312 65.6658
95.6973 4304 65.6049
95.8142 4266 65.3146
95.9311 4406 66.3777
96.048 4449 66.7008
96.1649 4385 66.2193
96.2819 4379 66.174
96.3989 4395 66.2948
96.516 4410 66.4078
96.633 4300 65.5744
96.7501 4385 66.2193
96.8673 4493 67.0298
96.9844 4404 66.3626
97.1016 4453 66.7308
97.2188 4551 67.4611
97.336 4427 66.5357
97.4532 4251 65.1997
97.5704 3951 62.857
97.6877 4077 63.8514
97.805 4045 63.6003
97.9223 3860 62.1289
98.0396 3913 62.554
98.1569 3721 61
98.2743 3608 60.0666
98.3916 3295 57.4021
98.509 2729 52.2398
98.6264 2414 49.1325
98.7438 2430 49.295
98.8612 2750 52.4404
98.9786 2942 54.2402
99.096 2989 54.6717
99.2134 3010 54.8635
99.3308 2877 53.6377
99.4482 2876 53.6284
99.5656 2845 53.3385
99.6831 2786 52.7826
99.8005 2813 53.0377
99.9179 2722 52.1728
100.035 2758 52.5167
100.153 2784 52.7636
100.27 2796 52.8772
100.388 2961 54.4151
100.505 2907 53.9166
100.622 2960 54.4059
100.74 2940 54.2218
100.857 2933 54.1572
100.975 2898 53.8331
101.092 2831 53.2071
101.209 2848 53.3667
101.327 2785 52.7731
101.444 2887 53.7308
101.561 2941 54.231
101.679 2843 53.3198
101.796 2884 53.7029
101.913 2685 51.817
102.03 2593 50.9215
102.148 2291 47.8644
102.265 1999 44.7102
102.382 2372 48.7032
102.499 2506 50.06
102.616 2706 52.0192
102.733 2656 51.5364
102.851 2746 52.4023
102.968 2688 51.8459
103.085 2700 51.9615
103.202 2685 51.817
103.319 2605 51.0392
103.436 2630 51.2835
103.552 2645 51.4296
103.669 2596 50.951
103.786 2526 50.2593
103.903 2665 51.6236
104.02 2624 51.225
104.137 2770 52.6308
104.253 2701 51.9711
104.37 2679 51.7591
104.487 2586 50.8527
104.603 2580 50.7937
104.72 2381 48.7955
104.836 2384 48.8262
104.953 2094 45.7602
105.069 1903 43.6234
105.186 1662 40.7676
105.302 1654 40.6694
105.418 1524 39.0384
105.535 1308 36.1663
105.651 1170 34.2053
105.767 939 30.6431
105.883 797 28.2312
105.999 812 28.4956
106.115 0 1
106.231 0 1
106.347 0 1
106.463 0 1
106.579 0 1
106.694 0 1
106.81 0 1
106.926 0 1
107.041 0 1
107.157 0 1
109.576 0 1
109.692 0 1
109.807 0 1
109.923 0 1
110.039 0 1
110.155 0 1
110.27 0 1
110.386 0 1
110.502 0 1
110.618 2601 51
110.735 2770 52.6308
110.851 2537 50.3686
110.967 2337 48.3425
111.083 2389 48.8774
111.199 2566 50.6557
111.316 2731 52.259
111.432 2893 53.7866
111.549 2848 53.3667
111.665 2965 54.4518
111.782 2884 53.7029
111.898 2924 54.074
112.015 2884 53.7029
112.132 2824 53.1413
112.248 2820 53.1037
112.365 2912 53.963
112.482 2901 53.8609
112.599 3051 55.2359
112.716 3083 55.5248
112.832 3143 56.0625
112.949 3099 55.6687
113.066 3059 55.3082
113.183 3203 56.5951
113.3 3274 57.2189
113.417 3231 56.8419
113.534 3072 55.4256
113.652 3161 56.2228
113.769 3135 55.9911
113.886 3192 56.4978
114.003 3140 56.0357
114.12 3077 55.4707
114.238 2969 54.4885
114.355 2836 53.2541
114.472 2499 49.99
114.589 2512 50.1199
114.707 2540 50.3984
114.824 2792 52.8394
114.942 3020 54.9545
115.059 2975 54.5436
115.176 3078 55.4797
115.294 3093 55.6147
115.411 3029 55.0364
115.529 2998 54.754
115.646 2929 54.1202
115.764 2835 53.2447
115.881 2921 54.0463
115.999 2900 53.8516
116.116 3001 54.7814
116.234 3007 54.8361
116.351 3035 55.0908
116.469 3190 56.4801
116.586 3103 55.7046
116.704 3250 57.0088
116.821 3294 57.3934
116.939 3381 58.1464
117.056 3283 57.2975
117.174 3329 57.6975
117.291 3224 56.7803
117.409 3265 57.1402
117.526 3215 56.701
117.644 3206 56.6216
117.761 3141 56.0446
117.879 3062 55.3353
117.996 2741 52.3546
118.114 2560 50.5964
118.231 2579 50.7839
118.349 2632 51.303
118.466 2934 54.1664
118.584 2964 54.4426
118.701 3027 55.0182
118.819 3003 54.7996
118.936 2908 53.9259
119.053 2890 53.7587
119.171 2919 54.0278
119.288 2916 54
119.405 2944 54.2586
119.523 2879 53.6563
119.64 2813 53.0377
119.757 2923 54.0648
119.875 2814 53.0471
119.992 2936 54.1849
120.109 3027 55.0182
120.226 2993 54.7083
120.343 3066 55.3715
120.46 3026 55.0091
120.578 3079 55.4887
120.695 3087 55.5608
120.812 3052 55.2449
120.929 2899 53.8424
121.046 2922 54.0555
121.163 2962 54.4243
121.279 2989 54.6717
121.396 2904 53.8888
121.513 2765 52.5833
121.63 2517 50.1697
121.747 2359 48.5695
121.863 2175 46.6369
121.98 2042 45.1885
122.097 2014 44.8776
122.213 2095 45.7712
122.33 2019 44.9333
122.446 2150 46.3681
122.563 1970 44.3847
122.679 1969 44.3734
122.795 1809 42.5323
122.912 1829 42.7668
123.028 1776 42.1426
123.144 1777 42.1545
123.26 1761 41.9643
123.377 0 1
123.493 0 1
123.609 0 1
123.725 0 1
123.84 0 1
123.956 0 1
124.072 0 1
124.188 0 1
124.303 0 1
124.419 0 1
126.852 0 1
126.968 0 1
127.083 0 1
127.199 0 1
127.315 0 1
127.431 0 1
127.547 0 1
127.663 0 1
127.779 0 1
127.895 0 1
128.011 0 1
128.127 0 1
128.243 0 1
128.359 3303 57.4717
128.476 3554 59.6154
128.592 3271 57.1927
128.708 3417 58.4551
128.825 3387 58.1979
128.941 3443 58.6771
129.058 3539 59.4895
129.174 3495 59.1185
129.291 3465 58.8643
129.408 3670 60.5805
129.524 3706 60.8769
129.641 3894 62.4019
129.758 3885 62.3298
129.875 3973 63.0317
129.992 4083 63.8984
130.108 4000 63.2456
130.225 4134 64.2962
130.342 4105 64.0703
130.459 3854 62.0806
130.576 3948 62.8331
130.693 3705 60.8687
130.81 3475 58.9491
130.928 3522 59.3464
131.045 3606 60.05
131.162 3797 61.6198
131.279 4010 63.3246
131.396 3878 62.2736
131.513 4037 63.5374
131.631 3994 63.1981
131.748 3967 62.9841
131.865 3893 62.3939
131.983 3813 61.7495
132.1 3781 61.4898
132.217 3849 62.0403
132.335 3660 60.4979
132.452 3737 61.131
132.57 3752 61.2536
132.687 3531 59.4222
132.804 3746 61.2046
132.922 3785 61.5224
133.039 4001 63.2535
133.157 3868 62.1932
133.274 3986 63.1348
133.392 4035 63.5216
133.509 4125 64.2262
133.627 4363 66.053
133.744 4152 64.436
133.862 4205 64.846
133.979 4294 65.5286
134.097 4187 64.707
134.214 4095 63.9922
134.332 3997 63.2218
134.449 3965 62.9682
134.567 3944 62.8013
134.684 4180 64.6529
134.802 4233 65.0615
134.919 4178 64.6375
135.037 4301 65.582
135.154 4145 64.3817
135.272 4116 64.1561
135.389 4159 64.4903
135.507 4074 63.8279
135.624 3999 63.2376
135.742 3946 62.8172
135.859 3866 62.1772
135.977 4004 63.2772
136.094 3964 62.9603
136.211 3850 62.0484
136.329 4082 63.8905
136.446 4001 63.2535
136.564 3947 62.8252
136.681 3898 62.434
136.798 4035 63.5216
136.915 4051 63.6475
137.033 4150 64.4205
137.15 4227 65.0154
137.267 4145 64.3817
137.384 4072 63.8122
137.502 4261 65.2763
137.619 4110 64.1093
137.736 3973 63.0317
137.853 3878 62.2736
137.97 3855 62.0886
138.087 3609 60.075
138.204 3760 61.3188
138.321 3844 62
138.438 3928 62.6738
138.555 3999 63.2376
138.672 3942 62.7853
138.788 3884 62.3217
138.905 3858 62.1128
139.022 3737 61.131
139.139 3691 60.7536
139.255 3519 59.3212
139.372 3377 58.112
139.488 3207 56.6304
139.605 2996 54.7357
139.721 2959 54.3967
139.838 2837 53.2635
139.954 2876 53.6284
140.071 2735 52.2972
140.187 2827 53.1695
140.303 2800 52.915
140.419 2807 52.9811
140.535 2816 53.066
140.652 2891 53.768
140.768 0 1
140.884 0 1
141 0 1
141.115 0 1
141.231 0 1
141.347 0 1
141.463 0 1
141.578 0 1
141.694 0 1
144.104 0 1
144.219 0 1
144.335 0 1
144.45 0 1
144.566 0 1
144.682 0 1
144.798 0 1
144.914 0 1
145.03 0 1
145.146 8392 91.6079
145.262 8751 93.5468
145.378 8552 92.477
145.494 8664 93.0806
145.61 8970 94.7101
145.726 8695 93.247
145.842 8987 94.7998
145.959 8820 93.9149
146.075 8935 94.5251
146.192 8934 94.5198
146.308 8856 94.1063
146.425 8689 93.2148
146.541 7920 88.9944
146.658 6686 81.768
146.774 5802 76.1709
146.891 5736 75.7364
147.008 6488 80.5481
147.125 7779 88.1986
147.241 8343 91.34
147.358 8514 92.2713
147.475 8589 92.6769
147.592 8853 94.0904
147.709 8753 93.5575
147.826 8636 92.9301
147.943 8676 93.145
148.06 8831 93.9734
148.177 9032 95.0368
148.294 8896 94.3186
148.411 8819 93.9095
148.528 8893 94.3027
148.645 8847 94.0585
148.762 8868 94.1701
148.88 8979 94.7576
148.997 8708 93.3167
149.114 9269 96.2756
149.231 8996 94.8472
149.349 9126 95.5301
149.466 8956 94.6361
149.583 9062 95.1945
149.701 8964 94.6784
149.818 9186 95.8436
149.935 9226 96.0521
150.053 9110 95.4463
150.17 8477 92.0706
150.287 7691 87.6983
150.405 6461 80.3803
150.522 6097 78.0833
150.64 6320 79.4984
150.757 7613 87.2525
150.875 8509 92.2442
150.992 8742 93.4987
151.11 8696 93.2523
151.227 8826 93.9468
151.344 8844 94.0425
151.462 8571 92.5797
151.579 8789 93.7497
151.697 8843 94.0372
151.814 8803 93.8243
151.932 8783 93.7177
152.049 8811 93.8669
152.167 9026 95.0053
152.284 8841 94.0266
152.402 8957 94.6414
152.519 9048 95.121
152.636 8970 94.7101
152.754 8921 94.451
152.871 9085 95.3153
152.989 9146 95.6347
153.106 9338 96.6333
153.223 9045 95.1052
153.341 9328 96.5816
153.458 9164 95.7288
153.575 9406 96.9845
153.693 9337 96.6282
153.81 8848 94.0638
153.927 8122 90.1221
154.044 6814 82.547
154.162 6328 79.5487
154.279 6892 83.0181
154.396 8074 89.8554
154.513 8796 93.787
154.63 9148 95.6452
154.747 9186 95.8436
154.864 9120 95.4987
154.981 8805 93.835
155.098 8940 94.5516
155.215 8814 93.8829
155.332 8564 92.5419
155.449 8379 91.5369
155.566 8209 90.6035
155.683 8014 89.5209
155.8 7928 89.0393
155.917 7789 88.2553
156.033 7760 88.0909
156.15 0 1
156.267 0 1
156.383 0 1
156.5 0 1
156.617 0 1
156.733 0 1
156.85 0 1
156.966 0 1
157.082 0 1
157.199 0 1
157.315 0 1
157.431 0 1
157.547 0 1
157.664 0 1
157.78 0 1
157.896 0 1
158.012 0 1
158.128 0 1
158.244 0 1
158.359 0 1
158.475 0 1
158.591 0 1
158.706 0 1
