
6.15755 0 1
6.2731 0 1
6.3887 0 1
6.50437 0 1
6.62009 0 1
6.73587 0 1
6.8517 0 1
6.96759 0 1
7.08353 0 1
7.19952 0 1
7.31557 0 1
7.43166 0 1
7.54781 0 1
7.664 0 1
7.78024 0 1
7.89653 0 1
8.01286 0 1
8.12924 0 1
8.24567 0 1
8.36213 0 1
8.47864 0 1
8.59519 0 1
8.71178 0 1
8.82841 0 1
8.94508 0 1
9.06179 0 1
9.17853 0 1
9.29531 0 1
9.41212 0 1
9.52897 0 1
9.64584 0 1
9.76276 0 1
9.8797 0 1
9.99667 0 1
10.1137 0 1
10.2307 0 1
10.3478 0 1
10.4648 0 1
10.5819 0 1
10.6991 0 1
10.8162 0 1
10.9334 0 1
11.0506 0 1
11.1678 0 1
11.285 0 1
11.4023 0 1
11.5196 0 1
11.6369 0 1
11.7542 0 1
11.8715 0 1
11.9888 0 1
12.1062 0 1
12.2235 0 1
12.3409 0 1
12.4582 0 1
12.5756 0 1
12.693 0 1
12.8104 0 1
12.9278 0 1
13.0452 0 1
13.1626 0 1
13.28 0 1
13.3974 0 1
13.5149 0 1
13.6323 0 1
13.7497 0 1
13.8671 0 1
13.9845 0 1
14.1019 0 1
14.2193 0 1
14.3367 0 1
14.4541 0 1
14.5714 0 1
14.6888 0 1
14.8062 0 1
14.9235 0 1
15.0408 0 0
15.1581 0 0
15.2755 0 0
15.3927 0 0
15.51 0 0
15.6273 0 0
15.7445 0 0
15.8617 0 0
15.9789 0 0
16.0961 0 0
16.2132 0 0
16.3304 0 0
16.4475 0 0
16.5646 0 0
16.6816 0 0
16.7986 0 0
16.9156 0 0
17.0326 0 0
17.1496 0 0
17.2665 0 0
17.3833 0 0
17.5002 0 0
17.617 0 0
17.7338 0 0
17.8505 0 0
17.9672 0 0
18.0839 0 0
18.2005 0 0
18.3171 0 0
18.4337 0 0
18.5502 0 0
18.6666 0 0
18.7831 0 0
18.8994 0 0
19.0158 0 0
19.1321 0 0
19.2483 0 0
19.3645 0 0
19.4806 0 0
19.5967 0 0
19.7128 0 0
19.8288 0 0
19.9447 0 0
20.0606 0 1
20.1764 0 1
20.2922 0 1
20.4079 0 1
20.5236 0 1
20.6392 0 1
20.7548 0 1
20.8702 0 1
23.3078 0 1
23.4233 0 1
23.539 0 1
23.6547 0 1
23.7704 0 1
23.8862 0 1
24.0021 0 1
24.118 0 1
24.234 0 1
24.35 0 1
24.4661 1506 38.8072
24.5822 1511 38.8716
24.6984 1500 38.7298
24.8146 1378 37.1214
24.9309 1341 36.6197
25.0472 1355 36.8103
25.1636 1312 36.2215
25.28 1410 37.55
25.3965 1432 37.8418
25.513 1603 40.0375
25.6296 1583 39.7869
25.7462 1715 41.4126
25.8628 1665 40.8044
25.9795 1686 41.0609
26.0962 1736 41.6653
26.213 1797 42.391
26.3298 1646 40.5709
26.4466 1615 40.1871
26.5635 1649 40.6079
26.6804 1598 39.975
26.7973 1539 39.2301
26.9143 1508 38.833
27.0313 1628 40.3485
27.1483 1649 40.6079
27.2653 1683 41.0244
27.3824 1690 41.1096
27.4996 1724 41.5211
27.6167 1656 40.694
27.7339 1713 41.3884
27.8511 1604 40.05
27.9683 1594 39.9249
28.0855 1566 39.5727
28.2028 1580 39.7492
28.3201 1377 37.108
28.4374 1322 36.3593
28.5547 1240 35.2136
28.6721 1294 35.9722
28.7894 1304 36.1109
28.9068 1420 37.6829
29.0242 1461 38.223
29.1416 1631 40.3856
29.259 1633 40.4104
29.3764 1653 40.6571
29.4939 1577 39.7115
29.6113 1633 40.4104
29.7288 1623 40.2865
29.8463 1548 39.3446
29.9638 1647 40.5832
30.0812 1549 39.3573
30.1987 1569 39.6106
30.3162 1474 38.3927
30.4337 1602 40.025
30.5512 1590 39.8748
30.6687 1626 40.3237
30.7862 1601 40.0125
30.9037 1632 40.398
31.0212 1647 40.5832
31.1387 1629 40.3609
31.2562 1683 41.0244
31.3737 1627 40.3361
31.4912 1613 40.1622
31.6087 1575 39.6863
31.7262 1429 37.8021
31.8436 1417 37.6431
31.9611 1319 36.318
32.0785 1264 35.5528
32.1959 1255 35.426
32.3134 1302 36.0832
32.4308 1425 37.7492
32.5482 1465 38.2753
32.6655 1639 40.4846
32.7829 1609 40.1123
32.9002 1637 40.4599
33.0176 1710 41.3521
33.1349 1698 41.2068
33.2522 1647 40.5832
33.3694 1598 39.975
33.4867 1718 41.4488
33.6039 1643 40.5339
33.7211 1587 39.8372
33.8383 1525 39.0512
33.9554 1531 39.128
34.0725 1525 39.0512
34.1896 1569 39.6106
34.3067 1629 40.3609
34.4237 1584 39.7995
34.5407 1617 40.2119
34.6577 1751 41.845
34.7746 1588 39.8497
34.8915 1682 41.0122
35.0084 1727 41.5572
35.1252 1614 40.1746
35.242 1625 40.3113
35.3587 1512 38.8844
35.4755 1476 38.4187
35.5921 1329 36.4555
35.7088 1286 35.8608
35.8254 1257 35.4542
35.9419 1278 35.7491
36.0584 1332 36.4966
36.1749 1444 38
36.2913 1478 38.4448
36.4077 1630 40.3733
36.524 1691 41.1218
36.6403 1625 40.3113
36.7565 1643 40.5339
36.8727 1698 41.2068
36.9889 1581 39.7618
37.1049 1552 39.3954
37.221 0 1
37.3369 0 1
37.4529 0 1
37.5687 0 1
37.6845 0 1
37.8003 0 1
37.916 0 1
38.0316 0 1
38.1472 0 1
40.5851 0 1
40.7008 0 1
40.8164 0 1
40.9322 0 1
41.048 0 1
41.1639 0 1
41.2798 0 1
41.3958 0 1
41.5118 0 1
41.6279 0 1
41.744 1343 36.647
41.8602 1460 38.2099
41.9765 1470 38.3406
42.0928 1488 38.5746
42.2091 1503 38.7685
42.3255 1501 38.7427
42.4419 1533 39.1535
42.5584 1461 38.223
42.675 1434 37.8682
42.7915 1313 36.2353
42.9081 1401 37.4299
43.0248 1419 37.6696
43.1415 1507 38.8201
43.2582 1464 38.2623
43.375 1520 38.9872
43.4918 1412 37.5766
43.6087 1484 38.5227
43.7256 1463 38.2492
43.8425 1539 39.2301
43.9595 1442 37.9737
44.0765 1341 36.6197
44.1935 1344 36.6606
44.3106 1277 35.7351
44.4277 1112 33.3467
44.5448 998 31.5911
44.6619 983 31.3528
44.7791 1007 31.7333
44.8963 1052 32.4345
45.0136 1167 34.1614
45.1308 1223 34.9714
45.2481 1330 36.4692
45.3654 1241 35.2278
45.4827 1347 36.7015
45.6001 1284 35.8329
45.7174 1343 36.647
45.8348 1254 35.4119
45.9522 1335 36.5377
46.0697 1247 35.3129
46.1871 1237 35.171
46.3046 1244 35.2704
46.422 1208 34.7563
46.5395 1244 35.2704
46.657 1243 35.2562
46.7745 1257 35.4542
46.892 1257 35.4542
47.0096 1287 35.8748
47.1271 1181 34.3657
47.2446 1194 34.5543
47.3622 1192 34.5254
47.4797 1220 34.9285
47.5973 1160 34.0588
47.7149 1109 33.3017
47.8324 1104 33.2265
47.95 998 31.5911
48.0675 899 29.9833
48.1851 756 27.4955
48.3027 819 28.6182
48.4202 842 29.0172
48.5378 943 30.7083
48.6554 1078 32.8329
48.7729 1112 33.3467
48.8904 1143 33.8083
49.008 1119 33.4515
49.1255 1101 33.1813
49.243 1164 34.1174
49.3605 1119 33.4515
49.478 1111 33.3317
49.5955 1200 34.641
49.713 1114 33.3766
49.8304 1165 34.1321
49.9479 1134 33.6749
50.0653 1200 34.641
50.1827 1304 36.1109
50.3001 1236 35.1568
50.4175 1319 36.318
50.5348 1323 36.3731
50.6521 1455 38.1445
50.7694 1400 37.4166
50.8867 1358 36.8511
51.004 1456 38.1576
51.1212 1456 38.1576
51.2384 1483 38.5097
51.3556 1441 37.9605
51.4727 1327 36.428
51.5899 1140 33.7639
51.707 1031 32.1092
51.824 1117 33.4215
51.9411 1266 35.5809
52.0581 1538 39.2173
52.175 1590 39.8748
52.2919 1681 41
52.4088 1790 42.3084
52.5257 1815 42.6028
52.6425 1839 42.8836
52.7593 1889 43.4626
52.876 1915 43.7607
52.9927 1941 44.0568
53.1094 1837 42.8602
53.226 1905 43.6463
53.3426 1894 43.5201
53.4591 1880 43.359
53.5756 1912 43.7264
53.692 1941 44.0568
53.8084 1965 44.3283
53.9248 2051 45.288
54.0411 2049 45.2659
54.1573 2126 46.1086
54.2735 0 1
54.3896 0 1
54.5057 0 1
54.6217 0 1
54.7377 0 1
54.8537 0 1
54.9695 0 1
55.0853 0 1
55.2011 0 1
55.3168 0 1
55.4324 0 1
57.824 0 1
57.9396 0 1
58.0553 0 1
58.1711 0 1
58.2869 0 1
58.4028 0 1
58.5187 0 1
58.6347 0 1
58.7508 0 1
58.8669 0 1
58.983 2755 52.4881
59.0992 2918 54.0185
59.2155 2948 54.2955
59.3318 2916 54
59.4482 2903 53.8795
59.5646 2963 54.4334
59.681 2972 54.5161
59.7975 2973 54.5252
59.9141 2875 53.619
60.0306 2583 50.8232
60.1473 2522 50.2195
60.2639 2198 46.8828
60.3807 2034 45.0999
60.4974 2143 46.2925
60.6142 2316 48.1248
60.731 2475 49.7494
60.8479 2754 52.4786
60.9648 2942 54.2402
61.0818 2992 54.6992
61.1987 2971 54.5069
61.3158 3040 55.1362
61.4328 3077 55.4707
61.5499 3053 55.254
61.667 3159 56.205
61.7841 3085 55.5428
61.9013 2972 54.5161
62.0185 2960 54.4059
62.1357 3091 55.5968
62.253 3021 54.9636
62.3702 3143 56.0625
62.4875 3196 56.5332
62.6049 3221 56.7539
62.7222 3305 57.4891
62.8396 3380 58.1378
62.9569 3168 56.285
63.0743 3196 56.5332
63.1918 3282 57.2887
63.3092 3179 56.3826
63.4267 2945 54.2679
63.5441 2785 52.7731
63.6616 2747 52.4118
63.7791 2309 48.0521
63.8966 2264 47.5815
64.0142 2140 46.2601
64.1317 2603 51.0196
64.2492 2715 52.1057
64.3668 2931 54.1387
64.4843 3216 56.7098
64.6019 3275 57.2276
64.7195 3357 57.9396
64.837 3393 58.2495
64.9546 3462 58.8388
65.0722 3422 58.4979
65.1898 3244 56.9561
65.3074 3568 59.7327
65.4249 3315 57.576
65.5425 3386 58.1893
65.6601 3337 57.7668
65.7777 3381 58.1464
65.8952 3303 57.4717
66.0128 3301 57.4543
66.1304 3454 58.7707
66.2479 3663 60.5227
66.3655 3521 59.338
66.483 3665 60.5392
66.6005 3529 59.4054
66.718 3480 58.9915
66.8355 3510 59.2453
66.953 3472 58.9237
67.0705 3239 56.9122
67.1879 3082 55.5158
67.3054 2877 53.6377
67.4228 2554 50.5371
67.5402 2417 49.163
67.6576 2461 49.6085
67.7749 2676 51.7301
67.8923 3123 55.8838
68.0096 3371 58.0603
68.1269 3655 60.4566
68.2442 3787 61.5386
68.3614 3803 61.6685
68.4787 3827 61.8628
68.5958 3956 62.8967
68.713 3817 61.7819
68.8302 3898 62.434
68.9473 3940 62.7694
69.0643 3912 62.546
69.1814 3882 62.3057
69.2984 3925 62.6498
69.4154 3890 62.3699
69.5323 3810 61.7252
69.6492 3908 62.514
69.7661 3996 63.2139
69.8829 3931 62.6977
69.9997 4243 65.1383
70.1165 4202 64.8228
70.2332 4314 65.681
70.3499 4244 65.146
70.4665 4065 63.7574
70.5831 4054 63.671
70.6996 3887 62.3458
70.8161 3721 61
70.9326 3408 58.3781
71.049 3171 56.3116
71.1653 2788 52.8015
71.2817 2632 51.303
71.3979 2770 52.6308
71.5141 2992 54.6992
71.6303 3319 57.6108
71.7464 3485 59.0339
71.8624 0 1
71.9784 0 1
72.0944 0 1
72.2102 0 1
72.3261 0 1
72.4418 0 1
72.5575 0 1
72.6732 0 1
75.1054 0 1
75.2209 0 1
75.3365 0 1
75.4521 0 1
75.5678 0 1
75.6835 0 1
75.7993 0 1
75.9151 0 1
76.031 0 1
76.147 3336 57.7581
76.263 3668 60.564
76.3791 3410 58.3952
76.4952 2921 54.0463
76.6113 2860 53.479
76.7276 3074 55.4437
76.8438 3335 57.7495
76.9601 3860 62.1289
77.0765 4392 66.2722
77.1929 4493 67.0298
77.3093 4518 67.2161
77.4258 4570 67.6018
77.5423 4539 67.3721
77.6589 4573 67.624
77.7755 4563 67.55
77.8921 4559 67.5204
78.0088 4567 67.5796
78.1256 4517 67.2086
78.2423 4385 66.2193
78.3591 4426 66.5282
78.4759 4353 65.9773
78.5928 4277 65.3988
78.7097 4300 65.5744
78.8266 4558 67.513
78.9436 4332 65.8179
79.0606 4479 66.9253
79.1776 4519 67.2235
79.2946 4584 67.7052
79.4117 4568 67.587
79.5288 4510 67.1565
79.6459 4229 65.0308
79.7631 4085 63.914
79.8802 3650 60.4152
79.9974 3616 60.1332
80.1147 3127 55.9196
80.2319 2846 53.3479
80.3491 2906 53.9073
80.4664 3349 57.8705
80.5837 3774 61.4329
80.701 4028 63.4665
80.8183 4257 65.2457
80.9357 4376 66.1513
81.053 4300 65.5744
81.1704 4331 65.8103
81.2877 4484 66.9627
81.4051 4450 66.7083
81.5225 4400 66.3325
81.6399 4224 64.9923
81.7573 4246 65.1613
81.8747 4272 65.3605
81.9922 4388 66.242
82.1096 4265 65.307
82.227 4184 64.6838
82.3444 4143 64.3661
82.4619 4272 65.3605
82.5793 4148 64.405
82.6967 4413 66.4304
82.8142 4239 65.1076
82.9316 4334 65.8331
83.049 4167 64.5523
83.1664 4082 63.8905
83.2838 4026 63.4508
83.4012 3756 61.2862
83.5186 3529 59.4054
83.636 3305 57.4891
83.7534 2909 53.9351
83.8708 2592 50.9117
83.9881 2712 52.0769
84.1055 3023 54.9818
84.2228 3236 56.8859
84.3401 3775 61.441
84.4575 4076 63.8436
84.5747 4292 65.5134
84.692 4201 64.8151
84.8093 4201 64.8151
84.9265 4266 65.3146
85.0437 4267 65.3223
85.1609 4321 65.7343
85.2781 4225 65
85.3952 4280 65.4217
85.5123 4367 66.0833
85.6294 4186 64.6993
85.7465 4350 65.9545
85.8636 4271 65.3529
85.9806 4320 65.7267
86.0976 4367 66.0833
86.2145 4387 66.2344
86.3315 4377 66.1589
86.4484 4705 68.593
86.5652 4525 67.2681
86.682 4544 67.4092
86.7988 4359 66.0227
86.9156 4366 66.0757
87.0323 4034 63.5138
87.149 3922 62.6259
87.2657 3641 60.3407
87.3823 3261 57.1052
87.4988 3233 56.8595
87.6154 3416 58.4466
87.7318 3893 62.3939
87.8483 4369 66.0984
87.9647 4717 68.6804
88.081 4792 69.2243
88.1973 4893 69.95
88.3136 4996 70.6824
88.4298 5125 71.5891
88.546 4821 69.4334
88.6621 4844 69.5989
88.7781 4765 69.029
88.8942 0 1
89.0101 0 1
89.126 0 1
89.2419 0 1
89.3577 0 1
89.4734 0 1
89.5891 0 1
89.7047 0 1
89.8203 0 1
89.9358 0 1
92.3269 0 1
92.4424 0 1
92.558 0 1
92.6736 0 1
92.7893 0 1
92.905 0 1
93.0208 0 1
93.1366 0 1
93.2525 0 1
93.3685 0 1
93.4845 0 1
93.6005 4902 70.0143
93.7167 4705 68.593
93.8328 4859 69.7065
93.949 4879 69.8498
94.0653 5065 71.1688
94.1816 4885 69.8928
94.2979 4944 70.3136
94.4143 4790 69.2098
94.5307 5037 70.9718
94.6472 4818 69.4118
94.7637 4761 69
94.8803 5024 70.8802
94.9969 4855 69.6778
95.1135 5015 70.8167
95.2302 4943 70.3065
95.3469 4960 70.4273
95.4637 4983 70.5904
95.5805 4991 70.647
95.6973 5021 70.859
95.8142 5162 71.8471
95.9311 4882 69.8713
96.048 4799 69.2748
96.1649 4639 68.1102
96.2819 4342 65.8939
96.3989 3939 62.7615
96.516 3524 59.3633
96.633 3364 58
96.7501 3422 58.4979
96.8673 3789 61.5549
96.9844 4201 64.8151
97.1016 4799 69.2748
97.2188 4930 70.214
97.336 5332 73.0205
97.4532 5321 72.9452
97.5704 5178 71.9583
97.6877 5405 73.5187
97.805 5163 71.854
97.9223 5176 71.9444
98.0396 5176 71.9444
98.1569 5240 72.3878
98.2743 5233 72.3395
98.3916 5130 71.624
98.509 5142 71.7077
98.6264 5099 71.4073
98.7438 5169 71.8958
98.8612 5186 72.0139
98.9786 5175 71.9375
99.096 5221 72.2565
99.2134 5299 72.7942
99.3308 5290 72.7324
99.4482 5287 72.7118
99.5656 5253 72.4776
99.6831 5042 71.007
99.8005 4906 70.0428
99.9179 4451 66.7158
100.035 4142 64.3584
100.153 3770 61.4003
100.27 3759 61.3107
100.388 3895 62.4099
100.505 4337 65.8559
100.622 4911 70.0785
100.74 5094 71.3723
100.857 5520 74.2967
100.975 5360 73.212
101.092 5423 73.641
101.209 5518 74.2832
101.327 5522 74.3102
101.444 5399 73.4779
101.561 5532 74.3774
101.679 5541 74.4379
101.796 5388 73.403
101.913 5636 75.0733
102.03 5577 74.6793
102.148 5571 74.6391
102.265 5710 75.5645
102.382 5203 72.1318
102.499 5611 74.9066
102.616 5588 74.7529
102.733 5612 74.9133
102.851 5759 75.8881
102.968 5779 76.0197
103.085 5622 74.98
103.202 5556 74.5386
103.319 5313 72.8903
103.436 5081 71.2811
103.552 4517 67.2086
103.669 4127 64.2417
103.786 3886 62.3378
103.903 4176 64.622
104.02 4703 68.5784
104.137 5247 72.4362
104.253 5575 74.6659
104.37 5734 75.7232
104.487 5933 77.026
104.603 6089 78.032
104.72 5925 76.974
104.836 5968 77.2528
104.953 5936 77.0454
105.069 6018 77.5758
105.186 6017 77.5693
105.302 5952 77.1492
105.418 6039 77.711
105.535 6060 77.846
105.651 6103 78.1217
105.767 6000 77.4597
105.883 5965 77.2334
105.999 5974 77.2917
106.115 0 1
106.231 0 1
106.347 0 1
106.463 0 1
106.579 0 1
106.694 0 1
106.81 0 1
106.926 0 1
107.041 0 1
107.157 0 1
109.576 0 1
109.692 0 1
109.807 0 1
109.923 0 1
110.039 0 1
110.155 0 1
110.27 0 1
110.386 0 1
110.502 0 1
110.618 5515 74.263
110.735 5687 75.4122
110.851 5833 76.3741
110.967 5596 74.8064
111.083 5874 76.642
111.199 5768 75.9474
111.316 5661 75.2396
111.432 5804 76.184
111.549 5653 75.1864
111.665 5569 74.6257
111.782 5460 73.8918
111.898 5000 70.7107
112.015 4495 67.0448
112.132 3973 63.0317
112.248 3716 60.959
112.365 3859 62.1208
112.482 4436 66.6033
112.599 4688 68.469
112.716 5114 71.5122
112.832 5369 73.2735
112.949 5405 73.5187
113.066 5233 72.3395
113.183 5399 73.4779
113.3 5299 72.7942
113.417 5418 73.6071
113.534 5257 72.5052
113.652 5270 72.5948
113.769 5158 71.8192
113.886 5178 71.9583
114.003 5136 71.6659
114.12 5071 71.211
114.238 4970 70.4982
114.355 4957 70.406
114.472 4978 70.5549
114.589 4982 70.5833
114.707 4991 70.647
114.824 5166 71.8749
114.942 5027 70.9013
115.059 4960 70.4273
115.176 4955 70.3918
115.294 4827 69.4766
115.411 4728 68.7605
115.529 4418 66.468
115.646 3932 62.7057
115.764 3548 59.5651
115.881 3566 59.716
115.999 3782 61.498
116.116 4258 65.2534
116.234 4719 68.695
116.351 4884 69.8856
116.469 5081 71.2811
116.586 5031 70.9295
116.704 5114 71.5122
116.821 5030 70.9225
116.939 5193 72.0625
117.056 4984 70.5975
117.174 5100 71.4143
117.291 5070 71.2039
117.409 5063 71.1548
117.526 4975 70.5337
117.644 5078 71.2601
117.761 5095 71.3793
117.879 5088 71.3302
117.996 5143 71.7147
118.114 4974 70.5266
118.231 5223 72.2703
118.349 5096 71.3863
118.466 5166 71.8749
118.584 5344 73.1027
118.701 5294 72.7599
118.819 5199 72.1041
118.936 4985 70.6045
119.053 4697 68.5347
119.171 4366 66.0757
119.288 3928 62.6738
119.405 3705 60.8687
119.523 3537 59.4727
119.64 3917 62.5859
119.757 4202 64.8228
119.875 4600 67.8233
119.992 4936 70.2567
120.109 4925 70.1783
120.226 5179 71.9653
120.343 5011 70.7884
120.46 5008 70.7672
120.578 4998 70.6965
120.695 5071 71.211
120.812 4958 70.4131
120.929 4996 70.6824
121.046 5050 71.0634
121.163 4910 70.0714
121.279 4969 70.4911
121.396 5094 71.3723
121.513 5036 70.9648
121.63 4971 70.5053
121.747 5021 70.859
121.863 4982 70.5833
121.98 4976 70.5408
122.097 4871 69.7925
122.213 4978 70.5549
122.33 5078 71.2601
122.446 4922 70.157
122.563 4806 69.3253
122.679 4642 68.1322
122.795 4522 67.2458
122.912 4253 65.215
123.028 3937 62.7455
123.144 3621 60.1747
123.26 3480 58.9915
123.377 0 1
123.493 0 1
123.609 0 1
123.725 0 1
123.84 0 1
123.956 0 1
124.072 0 1
124.188 0 1
124.303 0 1
124.419 0 1
126.852 0 1
126.968 0 1
127.083 0 1
127.199 0 1
127.315 0 1
127.431 0 1
127.547 0 1
127.663 0 1
127.779 0 1
127.895 0 1
128.011 0 1
128.127 0 1
128.243 0 1
128.359 4027 63.4586
128.476 3975 63.0476
128.592 4166 64.5446
128.708 4681 68.4178
128.825 5000 70.7107
128.941 5554 74.5252
129.058 5461 73.8986
129.174 5737 75.743
129.291 5627 75.0133
129.408 5712 75.5778
129.524 5607 74.8799
129.641 5436 73.7292
129.758 5641 75.1066
129.875 5620 74.9667
129.992 5608 74.8866
130.108 5413 73.5731
130.225 5394 73.4439
130.342 5401 73.4915
130.459 5339 73.0685
130.576 5442 73.7699
130.693 5391 73.4234
130.81 5393 73.437
130.928 5331 73.0137
131.045 5396 73.4575
131.162 5363 73.2325
131.279 5458 73.8783
131.396 5273 72.6154
131.513 5137 71.6729
131.631 4837 69.5485
131.748 4676 68.3813
131.865 4142 64.3584
131.983 3985 63.1269
132.1 4116 64.1561
132.217 4434 66.5883
132.335 4905 70.0357
132.452 5146 71.7356
132.57 5324 72.9657
132.687 5285 72.698
132.804 5487 74.0743
132.922 5385 73.3826
133.039 5423 73.641
133.157 5328 72.9932
133.274 5399 73.4779
133.392 5464 73.9189
133.509 5268 72.581
133.627 5336 73.0479
133.744 5195 72.0763
133.862 5300 72.8011
133.979 5192 72.0555
134.097 5160 71.8331
134.214 5248 72.4431
134.332 5113 71.5052
134.449 5144 71.7217
134.567 5213 72.2011
134.684 5374 73.3076
134.802 5169 71.8958
134.919 5310 72.8697
135.037 5169 71.8958
135.154 4953 70.3776
135.272 4705 68.593
135.389 4373 66.1287
135.507 4004 63.2772
135.624 3708 60.8933
135.742 4079 63.867
135.859 4568 67.587
135.977 4875 69.8212
136.094 5135 71.6589
136.211 5182 71.9861
136.329 5418 73.6071
136.446 5365 73.2462
136.564 5257 72.5052
136.681 5387 73.3962
136.798 5306 72.8423
136.915 5335 73.0411
137.033 5160 71.8331
137.15 5273 72.6154
137.267 5208 72.1665
137.384 5073 71.225
137.502 5174 71.9305
137.619 5053 71.0845
137.736 5169 71.8958
137.853 5103 71.4353
137.97 4961 70.4344
138.087 5145 71.7287
138.204 5040 70.993
138.321 5114 71.5122
138.438 5044 71.0211
138.555 5198 72.0972
138.672 5117 71.5332
138.788 4931 70.2211
138.905 4786 69.1809
139.022 4506 67.1267
139.139 4224 64.9923
139.255 3982 63.1031
139.372 4015 63.364
139.488 4275 65.3835
139.605 4770 69.0652
139.721 5107 71.4633
139.838 5261 72.5328
139.954 5236 72.3602
140.071 5199 72.1041
140.187 5336 73.0479
140.303 5148 71.7496
140.419 5103 71.4353
140.535 5235 72.3533
140.652 5088 71.3302
140.768 0 1
140.884 0 1
141 0 1
141.115 0 1
141.231 0 1
141.347 0 1
141.463 0 1
141.578 0 1
141.694 0 1
144.104 0 1
144.219 0 1
144.335 0 1
144.45 0 1
144.566 0 1
144.682 0 1
144.798 0 1
144.914 0 1
145.03 0 1
145.146 4599 67.8159
145.262 4500 67.082
145.378 4636 68.0882
145.494 4434 66.5883
145.61 4499 67.0746
145.726 4382 66.1967
145.842 4294 65.5286
145.959 4481 66.9403
146.075 4330 65.8027
146.192 4245 65.1537
146.308 4362 66.0454
146.425 4092 63.9687
146.541 4199 64.7997
146.658 4271 65.3529
146.774 4365 66.0681
146.891 4397 66.3099
147.008 4415 66.4455
147.125 4305 65.6125
147.241 4460 66.7832
147.358 4164 64.5291
147.475 4048 63.6239
147.592 3880 62.2896
147.709 3433 58.5918
147.826 3293 57.3847
147.943 3336 57.7581
148.06 3555 59.6238
148.177 3908 62.514
148.294 4195 64.7688
148.411 4398 66.3174
148.528 4340 65.8787
148.645 4272 65.3605
148.762 4256 65.238
148.88 4299 65.5668
148.997 3997 63.2218
149.114 4450 66.7083
149.231 4232 65.0538
149.349 4176 64.622
149.466 4140 64.3428
149.583 3962 62.9444
149.701 3867 62.1852
149.818 3835 61.9274
149.935 3864 62.1611
150.053 3908 62.514
150.17 3819 61.7981
150.287 3951 62.857
150.405 3903 62.474
150.522 4103 64.0547
150.64 4030 63.4823
150.757 4046 63.6082
150.875 4073 63.8201
150.992 4140 64.3428
151.11 3805 61.6847
151.227 3562 59.6825
151.344 3275 57.2276
151.462 3144 56.0714
151.579 3096 55.6417
151.697 3402 58.3267
151.814 3842 61.9839
151.932 4067 63.773
152.049 4134 64.2962
152.167 4124 64.2184
152.284 4204 64.8383
152.402 4244 65.146
152.519 4154 64.4515
152.636 4200 64.8074
152.754 4097 64.0078
152.871 4076 63.8436
152.989 4137 64.3195
153.106 3968 62.9921
153.223 3905 62.49
153.341 3965 62.9682
153.458 3796 61.6117
153.575 3914 62.562
153.693 3779 61.4736
153.81 3910 62.53
153.927 3827 61.8628
154.044 4014 63.3561
154.162 4115 64.1483
154.279 4160 64.4981
154.396 4171 64.5833
154.513 4100 64.0312
154.63 4208 64.8691
154.747 4085 63.914
154.864 3923 62.6339
154.981 3636 60.2993
155.098 3237 56.8946
155.215 3478 58.9746
155.332 3559 59.6574
155.449 3835 61.9274
155.566 4093 63.9766
155.683 4119 64.1794
155.8 4227 65.0154
155.917 4247 65.169
156.033 4211 64.8922
156.15 0 1
156.267 0 1
156.383 0 1
156.5 0 1
156.617 0 1
156.733 0 1
156.85 0 1
156.966 0 1
157.082 0 1
157.199 0 1
157.315 0 1
157.431 0 1
157.547 0 1
157.664 0 1
157.78 0 1
157.896 0 1
158.012 0 1
158.128 0 1
158.244 0 1
158.359 0 1
158.475 0 1
158.591 0 1
158.706 0 1
