
6.15755 0 1
6.2731 0 1
6.3887 0 1
6.50437 0 1
6.62009 0 1
6.73587 0 1
6.8517 0 1
6.96759 0 1
7.08353 0 1
7.19952 0 1
7.31557 0 1
7.43166 0 1
7.54781 0 1
7.664 0 1
7.78024 0 1
7.89653 0 1
8.01286 0 1
8.12924 0 1
8.24567 0 1
8.36213 0 1
8.47864 0 1
8.59519 0 1
8.71178 0 1
8.82841 0 1
8.94508 0 1
9.06179 0 1
9.17853 0 1
9.29531 0 1
9.41212 0 1
9.52897 0 1
9.64584 0 1
9.76276 0 1
9.8797 0 1
9.99667 0 1
10.1137 0 1
10.2307 0 1
10.3478 0 1
10.4648 0 1
10.5819 0 1
10.6991 0 1
10.8162 0 1
10.9334 0 1
11.0506 0 1
11.1678 0 1
11.285 0 1
11.4023 0 1
11.5196 0 1
11.6369 0 1
11.7542 0 1
11.8715 0 1
11.9888 0 1
12.1062 0 1
12.2235 0 1
12.3409 0 1
12.4582 0 1
12.5756 0 1
12.693 0 1
12.8104 0 1
12.9278 0 1
13.0452 0 1
13.1626 0 1
13.28 0 1
13.3974 0 1
13.5149 0 1
13.6323 0 1
13.7497 0 1
13.8671 0 1
13.9845 0 1
14.1019 0 1
14.2193 0 1
14.3367 0 1
14.4541 0 1
14.5714 0 1
14.6888 0 1
14.8062 0 1
14.9235 0 1
15.0408 0 0
15.1581 0 0
15.2755 0 0
15.3927 0 0
15.51 0 0
15.6273 0 0
15.7445 0 0
15.8617 0 0
15.9789 0 0
16.0961 0 0
16.2132 0 0
16.3304 0 0
16.4475 0 0
16.5646 0 0
16.6816 0 0
16.7986 0 0
16.9156 0 0
17.0326 0 0
17.1496 0 0
17.2665 0 0
17.3833 0 0
17.5002 0 0
17.617 0 0
17.7338 0 0
17.8505 0 0
17.9672 0 0
18.0839 0 0
18.2005 0 0
18.3171 0 0
18.4337 0 0
18.5502 0 0
18.6666 0 0
18.7831 0 0
18.8994 0 0
19.0158 0 0
19.1321 0 0
19.2483 0 0
19.3645 0 0
19.4806 0 0
19.5967 0 0
19.7128 0 0
19.8288 0 0
19.9447 0 0
20.0606 0 1
20.1764 0 1
20.2922 0 1
20.4079 0 1
20.5236 0 1
20.6392 0 1
20.7548 0 1
20.8702 0 1
23.3078 0 1
23.4233 0 1
23.539 0 1
23.6547 0 1
23.7704 0 1
23.8862 0 1
24.0021 0 1
24.118 0 1
24.234 0 1
24.35 0 1
24.4661 5357 73.1915
24.5822 6065 77.8781
24.6984 6814 82.547
24.8146 7492 86.5563
24.9309 8118 90.0999
25.0472 8659 93.0537
25.1636 9168 95.7497
25.28 9638 98.1733
25.3965 10140 100.698
25.513 10255 101.267
25.6296 10865 104.235
25.7462 11236 106
25.8628 11269 106.156
25.9795 11335 106.466
26.0962 11284 106.226
26.213 11196 105.811
26.3298 11050 105.119
26.4466 11094 105.328
26.5635 10835 104.091
26.6804 11164 105.66
26.7973 11332 106.452
26.9143 11417 106.85
27.0313 11422 106.874
27.1483 11858 108.894
27.2653 11955 109.339
27.3824 12111 110.05
27.4996 12397 111.342
27.6167 12233 110.603
27.7339 11725 108.282
27.8511 11678 108.065
27.9683 11203 105.844
28.0855 11278 106.198
28.2028 10917 104.484
28.3201 10982 104.795
28.4374 11000 104.881
28.5547 11036 105.052
28.6721 10981 104.79
28.7894 11103 105.371
28.9068 11072 105.224
29.0242 10783 103.841
29.1416 10759 103.726
29.259 10726 103.566
29.3764 10750 103.682
29.4939 10798 103.913
29.6113 10656 103.228
29.7288 10695 103.417
29.8463 10721 103.542
29.9638 10514 102.538
30.0812 10578 102.849
30.1987 10977 104.771
30.3162 11033 105.038
30.4337 11214 105.896
30.5512 11203 105.844
30.6687 11500 107.238
30.7862 11660 107.981
30.9037 11706 108.194
31.0212 12018 109.627
31.1387 11798 108.619
31.2562 11846 108.839
31.3737 11622 107.805
31.4912 11210 105.877
31.6087 11156 105.622
31.7262 10992 104.843
31.8436 10917 104.484
31.9611 10849 104.159
32.0785 10749 103.677
32.1959 10738 103.624
32.3134 10812 103.981
32.4308 10939 104.59
32.5482 10951 104.647
32.6655 11047 105.105
32.7829 10826 104.048
32.9002 10865 104.235
33.0176 10805 103.947
33.1349 10667 103.281
33.2522 10689 103.388
33.3694 10549 102.708
33.4867 10620 103.053
33.6039 10575 102.835
33.7211 10324 101.607
33.8383 10657 103.233
33.9554 10809 103.966
34.0725 10897 104.389
34.1896 11207 105.863
34.3067 11439 106.953
34.4237 11485 107.168
34.5407 11348 106.527
34.6577 12017 109.622
34.7746 11942 109.279
34.8915 11728 108.296
35.0084 11163 105.655
35.1252 11145 105.57
35.242 11164 105.66
35.3587 11138 105.537
35.4755 10800 103.923
35.5921 10626 103.082
35.7088 10594 102.927
35.8254 10563 102.776
35.9419 10525 102.591
36.0584 10344 101.705
36.1749 9823 99.111
36.2913 9838 99.1867
36.4077 9522 97.5807
36.524 9400 96.9536
36.6403 9007 94.9052
36.7565 8823 93.9308
36.8727 8348 91.3674
36.9889 8133 90.1831
37.1049 7430 86.1974
37.221 0 1
37.3369 0 1
37.4529 0 1
37.5687 0 1
37.6845 0 1
37.8003 0 1
37.916 0 1
38.0316 0 1
38.1472 0 1
40.5851 0 1
40.7008 0 1
40.8164 0 1
40.9322 0 1
41.048 0 1
41.1639 0 1
41.2798 0 1
41.3958 0 1
41.5118 0 1
41.6279 0 1
41.744 5085 71.3092
41.8602 5445 73.7902
41.9765 5923 76.961
42.0928 6221 78.8733
42.2091 6674 81.6946
42.3255 7135 84.4689
42.4419 7549 86.885
42.5584 7727 87.9034
42.675 8200 90.5539
42.7915 8666 93.0914
42.9081 9031 95.0316
43.0248 9081 95.2943
43.1415 9583 97.8928
43.2582 9547 97.7088
43.375 9947 99.7346
43.4918 10071 100.354
43.6087 10018 100.09
43.7256 10138 100.688
43.8425 9879 99.3932
43.9595 9599 97.9745
44.0765 9684 98.4073
44.1935 9455 97.2368
44.3106 9465 97.2882
44.4277 9298 96.4261
44.5448 9275 96.3068
44.6619 9155 95.6818
44.7791 9041 95.0842
44.8963 9093 95.3572
45.0136 9096 95.373
45.1308 8786 93.7337
45.2481 8891 94.2921
45.3654 8788 93.7443
45.4827 8750 93.5414
45.6001 8681 93.1719
45.7174 8799 93.803
45.8348 8687 93.2041
45.9522 8725 93.4077
46.0697 8896 94.3186
46.1871 8989 94.8103
46.3046 9267 96.2653
46.422 9497 97.4526
46.5395 9424 97.0773
46.657 9724 98.6103
46.7745 9795 98.9697
46.892 10068 100.339
47.0096 10162 100.807
47.1271 10530 102.616
47.2446 10291 101.445
47.3622 10190 100.946
47.4797 9997 99.985
47.5973 9850 99.2472
47.7149 9770 98.8433
47.8324 9648 98.2242
47.95 9556 97.7548
48.0675 9477 97.3499
48.1851 9475 97.3396
48.3027 9270 96.2808
48.4202 9165 95.734
48.5378 9155 95.6818
48.6554 9109 95.4411
48.7729 8771 93.6536
48.8904 8617 92.8278
49.008 8509 92.2442
49.1255 8445 91.8967
49.243 8353 91.3947
49.3605 8417 91.7442
49.478 8512 92.2605
49.5955 8762 93.6056
49.713 8720 93.3809
49.8304 9202 95.9271
49.9479 9391 96.9072
50.0653 9380 96.8504
50.1827 9500 97.4679
50.3001 9616 98.0612
50.4175 9941 99.7046
50.5348 10179 100.891
50.6521 10349 101.73
50.7694 10228 101.134
50.8867 10117 100.583
51.004 10056 100.28
51.1212 10106 100.529
51.2384 9637 98.1682
51.3556 9687 98.4226
51.4727 9558 97.765
51.5899 9323 96.5557
51.707 9333 96.6075
51.824 9363 96.7626
51.9411 9328 96.5816
52.0581 9132 95.5615
52.175 9053 95.1473
52.2919 9035 95.0526
52.4088 8812 93.8723
52.5257 9034 95.0474
52.6425 9118 95.4882
52.7593 8798 93.7977
52.876 8771 93.6536
52.9927 8656 93.0376
53.1094 8725 93.4077
53.226 8770 93.6483
53.3426 8699 93.2684
53.4591 8886 94.2656
53.5756 8484 92.1086
53.692 8336 91.3017
53.8084 8121 90.1166
53.9248 7573 87.023
54.0411 7505 86.6314
54.1573 6987 83.5883
54.2735 0 1
54.3896 0 1
54.5057 0 1
54.6217 0 1
54.7377 0 1
54.8537 0 1
54.9695 0 1
55.0853 0 1
55.2011 0 1
55.3168 0 1
55.4324 0 1
57.824 0 1
57.9396 0 1
58.0553 0 1
58.1711 0 1
58.2869 0 1
58.4028 0 1
58.5187 0 1
58.6347 0 1
58.7508 0 1
58.8669 0 1
58.983 7353 85.7496
59.0992 8286 91.0275
59.2155 9479 97.3602
59.3318 10018 100.09
59.4482 10588 102.898
59.5646 11082 105.271
59.681 11575 107.587
59.7975 11592 107.666
59.9141 11679 108.069
60.0306 11808 108.665
60.1473 12013 109.604
60.2639 11976 109.435
60.3807 12056 109.8
60.4974 11749 108.393
60.6142 11589 107.652
60.731 11524 107.35
60.8479 11276 106.189
60.9648 11229 105.967
61.0818 10864 104.231
61.1987 10765 103.755
61.3158 10491 102.426
61.4328 10599 102.951
61.5499 10445 102.201
61.667 10646 103.179
61.7841 11131 105.504
61.9013 11129 105.494
62.0185 11220 105.925
62.1357 11292 106.264
62.253 11763 108.457
62.3702 12179 110.359
62.4875 12213 110.512
62.6049 12491 111.763
62.7222 12725 112.805
62.8396 12900 113.578
62.9569 13015 114.083
63.0743 13117 114.529
63.1918 12627 112.37
63.3092 12545 112.004
63.4267 12375 111.243
63.5441 12358 111.167
63.6616 12141 110.186
63.7791 11880 108.995
63.8966 11699 108.162
64.0142 11974 109.426
64.1317 11786 108.563
64.2492 11562 107.527
64.3668 11217 105.91
64.4843 11015 104.952
64.6019 10679 103.339
64.7195 10719 103.533
64.837 10350 101.735
64.9546 10244 101.213
65.0722 10170 100.846
65.1898 10411 102.034
65.3074 10372 101.843
65.4249 10717 103.523
65.5425 10941 104.599
65.6601 11349 106.532
65.7777 11439 106.953
65.8952 11628 107.833
66.0128 11911 109.138
66.1304 11901 109.092
66.2479 12301 110.91
66.3655 12402 111.364
66.483 12661 112.521
66.6005 12644 112.446
66.718 12528 111.929
66.8355 12581 112.165
66.953 12164 110.291
67.0705 12062 109.827
67.1879 11856 108.885
67.3054 11751 108.402
67.4228 11779 108.531
67.5402 11356 106.565
67.6576 11314 106.367
67.7749 11232 105.981
67.8923 11178 105.726
68.0096 10913 104.465
68.1269 10504 102.489
68.2442 10343 101.701
68.3614 10344 101.705
68.4787 9997 99.985
68.5958 9883 99.4133
68.713 9778 98.8838
68.8302 9882 99.4082
68.9473 9925 99.6243
69.0643 10459 102.269
69.1814 10775 103.803
69.2984 10952 104.652
69.4154 11284 106.226
69.5323 11249 106.061
69.6492 11403 106.785
69.7661 11446 106.986
69.8829 11278 106.198
69.9997 11312 106.358
70.1165 11038 105.062
70.2332 10832 104.077
70.3499 10728 103.576
70.4665 10232 101.153
70.5831 9752 98.7522
70.6996 9453 97.2265
70.8161 8621 92.8493
70.9326 8302 91.1153
71.049 7696 87.7268
71.1653 7265 85.235
71.2817 6702 81.8657
71.3979 5976 77.3046
71.5141 5474 73.9865
71.6303 4848 69.6276
71.7464 4065 63.7574
71.8624 0 1
71.9784 0 1
72.0944 0 1
72.2102 0 1
72.3261 0 1
72.4418 0 1
72.5575 0 1
72.6732 0 1
75.1054 0 1
75.2209 0 1
75.3365 0 1
75.4521 0 1
75.5678 0 1
75.6835 0 1
75.7993 0 1
75.9151 0 1
76.031 0 1
76.147 7629 87.3441
76.263 8376 91.5205
76.3791 8696 93.2523
76.4952 9147 95.6399
76.6113 9250 96.1769
76.7276 9458 97.2522
76.8438 9371 96.8039
76.9601 9287 96.3691
77.0765 9257 96.2133
77.1929 9073 95.2523
77.3093 8790 93.755
77.4258 8858 94.1169
77.5423 8689 93.2148
77.6589 8701 93.2792
77.7755 8710 93.3274
77.8921 8631 92.9032
78.0088 8871 94.186
78.1256 9151 95.6609
78.2423 9370 96.7988
78.3591 9614 98.051
78.4759 10039 100.195
78.5928 10042 100.21
78.7097 10240 101.193
78.8266 10530 102.616
78.9436 10488 102.411
79.0606 10747 103.668
79.1776 10801 103.928
79.2946 11141 105.551
79.4117 10869 104.254
79.5288 10837 104.101
79.6459 10597 102.942
79.7631 10479 102.367
79.8802 10554 102.733
79.9974 10445 102.201
80.1147 10408 102.02
80.2319 10074 100.369
80.3491 10133 100.663
80.4664 9927 99.6343
80.5837 9843 99.2119
80.701 9597 97.9643
80.8183 9705 98.514
80.9357 9624 98.102
81.053 9113 95.462
81.1704 9084 95.31
81.2877 9007 94.9052
81.4051 8908 94.3822
81.5225 8951 94.6097
81.6399 8932 94.5093
81.7573 9362 96.7574
81.8747 9788 98.9343
81.9922 9823 99.111
82.1096 10256 101.272
82.227 10249 101.237
82.3444 10430 102.127
82.4619 11037 105.057
82.5793 11024 104.995
82.6967 11412 106.827
82.8142 11246 106.047
82.9316 11484 107.163
83.049 11329 106.438
83.1664 11365 106.607
83.2838 11077 105.247
83.4012 11096 105.338
83.5186 10933 104.561
83.636 10820 104.019
83.7534 10494 102.44
83.8708 10471 102.328
83.9881 10561 102.767
84.1055 10320 101.587
84.2228 10214 101.064
84.3401 9980 99.8999
84.4575 9681 98.3921
84.5747 9567 97.811
84.692 9267 96.2653
84.8093 9063 95.1998
84.9265 8874 94.2019
85.0437 8820 93.9149
85.1609 9139 95.5981
85.2781 9240 96.1249
85.3952 9500 97.4679
85.5123 9850 99.2472
85.6294 10120 100.598
85.7465 10331 101.642
85.8636 10564 102.781
85.9806 10942 104.604
86.0976 10821 104.024
86.2145 11193 105.797
86.3315 11409 106.813
86.4484 11598 107.694
86.5652 11681 108.079
86.682 11611 107.754
86.7988 11457 107.037
86.9156 11141 105.551
87.0323 10991 104.838
87.149 10409 102.025
87.2657 10440 102.176
87.3823 10045 100.225
87.4988 9504 97.4885
87.6154 9325 96.566
87.7318 8977 94.747
87.8483 8501 92.2009
87.9647 7931 89.0562
88.081 7512 86.6718
88.1973 6965 83.4566
88.3136 6339 79.6178
88.4298 6248 79.0443
88.546 5889 76.7398
88.6621 5523 74.3169
88.7781 5145 71.7287
88.8942 0 1
89.0101 0 1
89.126 0 1
89.2419 0 1
89.3577 0 1
89.4734 0 1
89.5891 0 1
89.7047 0 1
89.8203 0 1
89.9358 0 1
92.3269 0 1
92.4424 0 1
92.558 0 1
92.6736 0 1
92.7893 0 1
92.905 0 1
93.0208 0 1
93.1366 0 1
93.2525 0 1
93.3685 0 1
93.4845 0 1
93.6005 7797 88.3006
93.7167 7820 88.4308
93.8328 8131 90.1721
93.949 8278 90.9835
94.0653 8266 90.9175
94.1816 8584 92.6499
94.2979 8710 93.3274
94.4143 9107 95.4306
94.5307 9324 96.5609
94.6472 9713 98.5546
94.7637 10027 100.135
94.8803 10360 101.784
94.9969 10696 103.421
95.1135 10981 104.79
95.2302 11181 105.74
95.3469 11319 106.391
95.4637 11617 107.782
95.5805 11654 107.954
95.6973 11730 108.305
95.8142 11749 108.393
95.9311 11543 107.438
96.048 11460 107.051
96.1649 11330 106.442
96.2819 11037 105.057
96.3989 11209 105.873
96.516 10953 104.657
96.633 10883 104.322
96.7501 10797 103.909
96.8673 10723 103.552
96.9844 10801 103.928
97.1016 10368 101.823
97.2188 10261 101.297
97.336 9742 98.7016
97.4532 9588 97.9183
97.5704 9260 96.2289
97.6877 9166 95.7392
97.805 9339 96.6385
97.9223 9183 95.828
98.0396 9427 97.0927
98.1569 9458 97.2522
98.2743 9793 98.9596
98.3916 10083 100.414
98.509 10526 102.596
98.6264 10670 103.296
98.7438 10957 104.676
98.8612 11241 106.024
98.9786 11227 105.958
99.096 11788 108.573
99.2134 11699 108.162
99.3308 12012 109.599
99.4482 11943 109.284
99.5656 11800 108.628
99.6831 11661 107.986
99.8005 11916 109.16
99.9179 11532 107.387
100.035 11475 107.121
100.153 11242 106.028
100.27 11221 105.929
100.388 11276 106.189
100.505 11208 105.868
100.622 10773 103.793
100.74 10587 102.893
100.857 10531 102.621
100.975 10419 102.074
101.092 10263 101.306
101.209 9931 99.6544
101.327 9578 97.8673
101.444 9845 99.222
101.561 9803 99.0101
101.679 9721 98.5951
101.796 9976 99.8799
101.913 10179 100.891
102.03 10490 102.421
102.148 10790 103.875
102.265 10846 104.144
102.382 11736 108.333
102.499 11644 107.907
102.616 12032 109.69
102.733 11928 109.215
102.851 12306 110.932
102.968 12075 109.886
103.085 12225 110.567
103.202 11988 109.49
103.319 11987 109.485
103.436 11652 107.944
103.552 11767 108.476
103.669 11501 107.243
103.786 11445 106.981
103.903 11640 107.889
104.02 11244 106.038
104.137 11292 106.264
104.253 10995 104.857
104.37 10681 103.349
104.487 10634 103.121
104.603 10290 101.44
104.72 9835 99.1716
104.836 9709 98.5343
104.953 9506 97.4987
105.069 9170 95.7601
105.186 8972 94.7206
105.302 8893 94.3027
105.418 8754 93.5628
105.535 8520 92.3038
105.651 8237 90.7579
105.767 7932 89.0618
105.883 7403 86.0407
105.999 7090 84.2021
106.115 0 1
106.231 0 1
106.347 0 1
106.463 0 1
106.579 0 1
106.694 0 1
106.81 0 1
106.926 0 1
107.041 0 1
107.157 0 1
109.576 0 1
109.692 0 1
109.807 0 1
109.923 0 1
110.039 0 1
110.155 0 1
110.27 0 1
110.386 0 1
110.502 0 1
110.618 5729 75.6902
110.735 6864 82.8493
110.851 7709 87.8009
110.967 8064 89.7998
111.083 8854 94.0957
111.199 9406 96.9845
111.316 10189 100.941
111.432 10518 102.557
111.549 10564 102.781
111.665 10686 103.373
111.782 10690 103.392
111.898 10584 102.879
112.015 10395 101.956
112.132 10382 101.892
112.248 10282 101.4
112.365 10291 101.445
112.482 10255 101.267
112.599 9949 99.7447
112.716 9798 98.9848
112.832 9856 99.2774
112.949 9509 97.5141
113.066 9233 96.0885
113.183 9185 95.8384
113.3 8755 93.5682
113.417 8991 94.8209
113.534 8641 92.957
113.652 8737 93.4719
113.769 8693 93.2363
113.886 8993 94.8314
114.003 9034 95.0474
114.12 9141 95.6086
114.238 9478 97.355
114.355 9589 97.9234
114.472 10221 101.099
114.589 9943 99.7146
114.707 10386 101.912
114.824 10827 104.053
114.942 10826 104.048
115.059 10867 104.245
115.176 10797 103.909
115.294 10522 102.577
115.411 10370 101.833
115.529 10389 101.926
115.646 10216 101.074
115.764 10145 100.722
115.881 10137 100.683
115.999 9959 99.7948
116.116 9958 99.7898
116.234 9720 98.5901
116.351 9720 98.5901
116.469 9398 96.9433
116.586 9197 95.901
116.704 9152 95.6661
116.821 8992 94.8262
116.939 8885 94.2603
117.056 8894 94.308
117.174 8525 92.3309
117.291 8529 92.3526
117.409 8652 93.0161
117.526 8807 93.8456
117.644 8888 94.2762
117.761 9064 95.205
117.879 9286 96.3639
117.996 9384 96.871
118.114 9779 98.8888
118.231 9888 99.4384
118.349 10192 100.955
118.466 10228 101.134
118.584 10418 102.069
118.701 10395 101.956
118.819 10303 101.504
118.936 10062 100.31
119.053 10051 100.255
119.171 9944 99.7196
119.288 9778 98.8838
119.405 9677 98.3717
119.523 9430 97.1082
119.64 9212 95.9792
119.757 9523 97.5859
119.875 9091 95.3467
119.992 9087 95.3258
120.109 9099 95.3887
120.226 8950 94.6044
120.343 8835 93.9947
120.46 8736 93.4666
120.578 8633 92.9139
120.695 8379 91.5369
120.812 8342 91.3345
120.929 8401 91.657
121.046 8192 90.5097
121.163 8051 89.7274
121.279 8201 90.5594
121.396 8151 90.2829
121.513 8263 90.901
121.63 8260 90.8845
121.747 8154 90.2995
121.863 8228 90.7083
121.98 8251 90.835
122.097 8181 90.4489
122.213 8040 89.666
122.33 7913 88.955
122.446 7576 87.0402
122.563 7377 85.8895
122.679 6875 82.9156
122.795 6358 79.7371
122.912 6070 77.9102
123.028 5595 74.7997
123.144 5168 71.8888
123.26 4759 68.9855
123.377 0 1
123.493 0 1
123.609 0 1
123.725 0 1
123.84 0 1
123.956 0 1
124.072 0 1
124.188 0 1
124.303 0 1
124.419 0 1
126.852 0 1
126.968 0 1
127.083 0 1
127.199 0 1
127.315 0 1
127.431 0 1
127.547 0 1
127.663 0 1
127.779 0 1
127.895 0 1
128.011 0 1
128.127 0 1
128.243 0 1
128.359 9785 98.9192
128.476 9991 99.955
128.592 9939 99.6945
128.708 10055 100.275
128.825 10345 101.71
128.941 10359 101.779
129.058 10119 100.593
129.174 10204 101.015
129.291 9999 99.995
129.408 10072 100.359
129.524 9882 99.4082
129.641 9684 98.4073
129.758 9642 98.1937
129.875 9250 96.1769
129.992 9284 96.3535
130.108 9332 96.6023
130.225 9288 96.3743
130.342 9518 97.5602
130.459 9481 97.3704
130.576 9475 97.3396
130.693 9773 98.8585
130.81 10135 100.673
130.928 10248 101.232
131.045 10503 102.484
131.162 10819 104.014
131.279 10993 104.848
131.396 11142 105.556
131.513 11008 104.919
131.631 10528 102.606
131.748 10541 102.669
131.865 10559 102.757
131.983 10579 102.854
132.1 10325 101.612
132.217 10398 101.971
132.335 10337 101.671
132.452 10221 101.099
132.57 10193 100.96
132.687 10253 101.257
132.804 9897 99.4837
132.922 10205 101.02
133.039 9972 99.8599
133.157 9780 98.8939
133.274 9820 99.0959
133.392 9512 97.5295
133.509 9485 97.391
133.627 9496 97.4474
133.744 9480 97.3653
133.862 9311 96.4935
133.979 9506 97.4987
134.097 9658 98.2751
134.214 9773 98.8585
134.332 9849 99.2421
134.449 10239 101.188
134.567 10305 101.514
134.684 10685 103.368
134.802 10764 103.75
134.919 10918 104.489
135.037 10983 104.8
135.154 10691 103.397
135.272 10579 102.854
135.389 10472 102.333
135.507 10405 102.005
135.624 10261 101.297
135.742 10342 101.696
135.859 10303 101.504
135.977 10277 101.376
136.094 10141 100.703
136.211 10289 101.435
136.329 9944 99.7196
136.446 9948 99.7397
136.564 10102 100.509
136.681 9971 99.8549
136.798 9726 98.6205
136.915 9467 97.2985
137.033 9483 97.3807
137.15 9354 96.7161
137.267 9275 96.3068
137.384 9369 96.7936
137.502 9331 96.5971
137.619 9393 96.9175
137.736 9337 96.6282
137.853 9280 96.3328
137.97 9538 97.6627
138.087 10059 100.295
138.204 10146 100.727
138.321 10406 102.01
138.438 10391 101.936
138.555 10321 101.592
138.672 10359 101.779
138.788 10010 100.05
138.905 9637 98.1682
139.022 9245 96.1509
139.139 8960 94.6573
139.255 8613 92.8062
139.372 8265 90.912
139.488 7795 88.2893
139.605 7466 86.406
139.721 7172 84.6877
139.838 6700 81.8535
139.954 6251 79.0633
140.071 6070 77.9102
140.187 5656 75.2064
140.303 5102 71.4283
140.419 4919 70.1356
140.535 4508 67.1416
140.652 4231 65.0461
140.768 0 1
140.884 0 1
141 0 1
141.115 0 1
141.231 0 1
141.347 0 1
141.463 0 1
141.578 0 1
141.694 0 1
144.104 0 1
144.219 0 1
144.335 0 1
144.45 0 1
144.566 0 1
144.682 0 1
144.798 0 1
144.914 0 1
145.03 0 1
145.146 6967 83.4686
145.262 7342 85.6855
145.378 7347 85.7146
145.494 7545 86.862
145.61 7376 85.8836
145.726 7366 85.8254
145.842 7420 86.1394
145.959 7192 84.8057
146.075 7219 84.9647
146.192 7385 85.936
146.308 7162 84.6286
146.425 7305 85.4693
146.541 7194 84.8175
146.658 7385 85.936
146.774 7364 85.8138
146.891 7673 87.5957
147.008 7725 87.892
147.125 7878 88.7581
147.241 7913 88.955
147.358 8037 89.6493
147.475 8029 89.6047
147.592 8106 90.0333
147.709 7908 88.9269
147.826 7616 87.2697
147.943 7501 86.6083
148.06 7534 86.7986
148.177 7471 86.4349
148.294 7569 87
148.411 7444 86.2786
148.528 7531 86.7813
148.645 7611 87.241
148.762 7678 87.6242
148.88 7641 87.4128
148.997 7896 88.8594
149.114 7519 86.7122
149.231 7460 86.3713
149.349 7675 87.6071
149.466 7431 86.2032
149.583 7350 85.7321
149.701 7265 85.235
149.818 7152 84.5695
149.935 7148 84.5458
150.053 7255 85.1763
150.17 7152 84.5695
150.287 7167 84.6581
150.405 7415 86.1104
150.522 7386 85.9418
150.64 7668 87.5671
150.757 7806 88.3516
150.875 7720 87.8635
150.992 8088 89.9333
151.11 8129 90.161
151.227 7901 88.8876
151.344 7846 88.5776
151.462 7676 87.6128
151.579 7576 87.0402
151.697 7607 87.2181
151.814 7454 86.3366
151.932 7530 86.7756
152.049 7374 85.872
152.167 7560 86.9483
152.284 7478 86.4754
152.402 7559 86.9425
152.519 7425 86.1684
152.636 7624 87.3155
152.754 7572 87.0172
152.871 7292 85.3932
152.989 7278 85.3112
153.106 7213 84.9294
153.223 7019 83.7795
153.341 7048 83.9524
153.458 6910 83.1264
153.575 7097 84.2437
153.693 7001 83.672
153.81 7144 84.5222
153.927 6968 83.4745
154.044 7127 84.4216
154.162 7168 84.664
154.279 7388 85.9535
154.396 7665 87.55
154.513 7592 87.1321
154.63 7745 88.0057
154.747 7625 87.3212
154.864 7701 87.7553
154.981 7351 85.738
155.098 7280 85.3229
155.215 7137 84.4808
155.332 7092 84.214
155.449 7012 83.7377
155.566 6788 82.3893
155.683 7013 83.7437
155.8 6897 83.0482
155.917 6715 81.9451
156.033 6475 80.4674
156.15 0 1
156.267 0 1
156.383 0 1
156.5 0 1
156.617 0 1
156.733 0 1
156.85 0 1
156.966 0 1
157.082 0 1
157.199 0 1
157.315 0 1
157.431 0 1
157.547 0 1
157.664 0 1
157.78 0 1
157.896 0 1
158.012 0 1
158.128 0 1
158.244 0 1
158.359 0 1
158.475 0 1
158.591 0 1
158.706 0 1
