
6.15755 0 1
6.2731 0 1
6.3887 0 1
6.50437 0 1
6.62009 0 1
6.73587 0 1
6.8517 0 1
6.96759 0 1
7.08353 0 1
7.19952 0 1
7.31557 0 1
7.43166 0 1
7.54781 0 1
7.664 0 1
7.78024 0 1
7.89653 0 1
8.01286 0 1
8.12924 0 1
8.24567 0 1
8.36213 0 1
8.47864 0 1
8.59519 0 1
8.71178 0 1
8.82841 0 1
8.94508 0 1
9.06179 0 1
9.17853 0 1
9.29531 0 1
9.41212 0 1
9.52897 0 1
9.64584 0 1
9.76276 0 1
9.8797 0 1
9.99667 0 1
10.1137 0 1
10.2307 0 1
10.3478 0 1
10.4648 0 1
10.5819 0 1
10.6991 0 1
10.8162 0 1
10.9334 0 1
11.0506 0 1
11.1678 0 1
11.285 0 1
11.4023 0 1
11.5196 0 1
11.6369 0 1
11.7542 0 1
11.8715 0 1
11.9888 0 1
12.1062 0 1
12.2235 0 1
12.3409 0 1
12.4582 0 1
12.5756 0 1
12.693 0 1
12.8104 0 1
12.9278 0 1
13.0452 0 1
13.1626 0 1
13.28 0 1
13.3974 0 1
13.5149 0 1
13.6323 0 1
13.7497 0 1
13.8671 0 1
13.9845 0 1
14.1019 0 1
14.2193 0 1
14.3367 0 1
14.4541 0 1
14.5714 0 1
14.6888 0 1
14.8062 0 1
14.9235 0 1
15.0408 0 0
15.1581 0 0
15.2755 0 0
15.3927 0 0
15.51 0 0
15.6273 0 0
15.7445 0 0
15.8617 0 0
15.9789 0 0
16.0961 0 0
16.2132 0 0
16.3304 0 0
16.4475 0 0
16.5646 0 0
16.6816 0 0
16.7986 0 0
16.9156 0 0
17.0326 0 0
17.1496 0 0
17.2665 0 0
17.3833 0 0
17.5002 0 0
17.617 0 0
17.7338 0 0
17.8505 0 0
17.9672 0 0
18.0839 0 0
18.2005 0 0
18.3171 0 0
18.4337 0 0
18.5502 0 0
18.6666 0 0
18.7831 0 0
18.8994 0 0
19.0158 0 0
19.1321 0 0
19.2483 0 0
19.3645 0 0
19.4806 0 0
19.5967 0 0
19.7128 0 0
19.8288 0 0
19.9447 0 0
20.0606 0 1
20.1764 0 1
20.2922 0 1
20.4079 0 1
20.5236 0 1
20.6392 0 1
20.7548 0 1
20.8702 0 1
23.3078 0 1
23.4233 0 1
23.539 0 1
23.6547 0 1
23.7704 0 1
23.8862 0 1
24.0021 0 1
24.118 0 1
24.234 0 1
24.35 0 1
24.4661 14971 122.356
24.5822 14905 122.086
24.6984 14554 120.64
24.8146 14387 119.946
24.9309 14428 120.117
25.0472 13802 117.482
25.1636 14064 118.592
25.28 14243 119.344
25.3965 14888 122.016
25.513 15211 123.333
25.6296 15714 125.355
25.7462 16144 127.059
25.8628 16219 127.354
25.9795 16362 127.914
26.0962 16158 127.114
26.213 15976 126.396
26.3298 15598 124.892
26.4466 15260 123.531
26.5635 14777 121.561
26.6804 14008 118.355
26.7973 14472 120.3
26.9143 14976 122.376
27.0313 15039 122.634
27.1483 15583 124.832
27.2653 16004 126.507
27.3824 15957 126.321
27.4996 16139 127.039
27.6167 15873 125.988
27.7339 15680 125.22
27.8511 15391 124.06
27.9683 15097 122.87
28.0855 14780 121.573
28.2028 14281 119.503
28.3201 14384 119.933
28.4374 13678 116.953
28.5547 13001 114.022
28.6721 12913 113.635
28.7894 13252 115.117
28.9068 13337 115.486
29.0242 13720 117.132
29.1416 14387 119.946
29.259 14380 119.917
29.3764 14601 120.835
29.4939 14613 120.884
29.6113 14657 121.066
29.7288 14807 121.684
29.8463 14494 120.391
29.9638 13893 117.869
30.0812 13244 115.083
30.1987 12983 113.943
30.3162 13261 115.156
30.4337 13539 116.357
30.5512 14045 118.512
30.6687 14488 120.366
30.7862 14562 120.673
30.9037 14940 122.229
31.0212 15070 122.76
31.1387 15075 122.78
31.2562 14931 122.192
31.3737 14952 122.278
31.4912 14673 121.132
31.6087 14221 119.252
31.7262 14282 119.507
31.8436 13639 116.786
31.9611 13301 115.33
32.0785 12882 113.499
32.1959 12691 112.654
32.3134 12797 113.124
32.4308 13008 114.053
32.5482 13091 114.416
32.6655 13773 117.358
32.7829 13924 118
32.9002 14317 119.654
33.0176 14382 119.925
33.1349 14139 118.908
33.2522 14098 118.735
33.3694 14389 119.954
33.4867 14067 118.604
33.6039 13465 116.039
33.7211 13023 114.118
33.8383 12733 112.841
33.9554 12622 112.348
34.0725 12981 113.934
34.1896 13635 116.769
34.3067 13648 116.825
34.4237 14227 119.277
34.5407 14362 119.842
34.6577 14553 120.636
34.7746 14506 120.441
34.8915 14659 121.074
35.0084 14469 120.287
35.1252 14194 119.139
35.242 13931 118.03
35.3587 13628 116.739
35.4755 13569 116.486
35.5921 13108 114.49
35.7088 12715 112.761
35.8254 12217 110.531
35.9419 12057 109.804
36.0584 12195 110.431
36.1749 12364 111.194
36.2913 12567 112.103
36.4077 12995 113.996
36.524 13279 115.235
36.6403 13427 115.875
36.7565 13693 117.017
36.8727 13568 116.482
36.9889 13554 116.422
37.1049 13387 115.702
37.221 0 1
37.3369 0 1
37.4529 0 1
37.5687 0 1
37.6845 0 1
37.8003 0 1
37.916 0 1
38.0316 0 1
38.1472 0 1
40.5851 0 1
40.7008 0 1
40.8164 0 1
40.9322 0 1
41.048 0 1
41.1639 0 1
41.2798 0 1
41.3958 0 1
41.5118 0 1
41.6279 0 1
41.744 10211 101.049
41.8602 10679 103.339
41.9765 11218 105.915
42.0928 11212 105.887
42.2091 10952 104.652
42.3255 10822 104.029
42.4419 10444 102.196
42.5584 10142 100.707
42.675 9737 98.6762
42.7915 9971 99.8549
42.9081 10385 101.907
43.0248 10586 102.888
43.1415 10753 103.697
43.2582 11013 104.943
43.375 11078 105.252
43.4918 11289 106.25
43.6087 11016 104.957
43.7256 11016 104.957
43.8425 10699 103.436
43.9595 10479 102.367
44.0765 10397 101.966
44.1935 10325 101.612
44.3106 9844 99.2169
44.4277 9386 96.8814
44.5448 8869 94.1754
44.6619 8272 90.9505
44.7791 8214 90.6311
44.8963 8339 91.3181
45.0136 8461 91.9837
45.1308 8585 92.6553
45.2481 8911 94.3981
45.3654 8832 93.9787
45.4827 9107 95.4306
45.6001 8813 93.8776
45.7174 8729 93.4291
45.8348 8812 93.8723
45.9522 8272 90.9505
46.0697 7957 89.202
46.1871 7549 86.885
46.3046 7438 86.2438
46.422 7526 86.7525
46.5395 7951 89.1684
46.657 7874 88.7356
46.7745 8033 89.627
46.892 8232 90.7304
47.0096 8234 90.7414
47.1271 8200 90.5539
47.2446 8189 90.4931
47.3622 8064 89.7998
47.4797 7996 89.4204
47.5973 7753 88.0511
47.7149 7423 86.1568
47.8324 7337 85.6563
47.95 6812 82.5348
48.0675 6691 81.7985
48.1851 6037 77.6981
48.3027 5998 77.4468
48.4202 6120 78.2304
48.5378 6119 78.224
48.6554 6408 80.05
48.7729 6583 81.1357
48.8904 6702 81.8657
49.008 6676 81.7068
49.1255 6956 83.4026
49.243 6807 82.5045
49.3605 6507 80.666
49.478 6324 79.5236
49.5955 5902 76.8245
49.713 5880 76.6812
49.8304 6017 77.5693
49.9479 6197 78.721
50.0653 6891 83.012
50.1827 7040 83.9047
50.3001 7305 85.4693
50.4175 7624 87.3155
50.5348 7745 88.0057
50.6521 7953 89.1796
50.7694 8063 89.7942
50.8867 8236 90.7524
51.004 8343 91.34
51.1212 8461 91.9837
51.2384 8384 91.5642
51.3556 8319 91.2086
51.4727 8311 91.1647
51.5899 7759 88.0852
51.707 7484 86.5101
51.824 7645 87.4357
51.9411 7785 88.2326
52.0581 8083 89.9055
52.175 8509 92.2442
52.2919 8909 94.3875
52.4088 9101 95.3992
52.5257 9301 96.4417
52.6425 9558 97.765
52.7593 10018 100.09
52.876 10024 100.12
52.9927 9688 98.4276
53.1094 9366 96.7781
53.226 9241 96.1301
53.3426 8974 94.7312
53.4591 9060 95.184
53.5756 9760 98.7927
53.692 10499 102.465
53.8084 10901 104.408
53.9248 11422 106.874
54.0411 11597 107.689
54.1573 11830 108.766
54.2735 0 1
54.3896 0 1
54.5057 0 1
54.6217 0 1
54.7377 0 1
54.8537 0 1
54.9695 0 1
55.0853 0 1
55.2011 0 1
55.3168 0 1
55.4324 0 1
57.824 0 1
57.9396 0 1
58.0553 0 1
58.1711 0 1
58.2869 0 1
58.4028 0 1
58.5187 0 1
58.6347 0 1
58.7508 0 1
58.8669 0 1
58.983 12942 113.763
59.0992 13601 116.623
59.2155 14081 118.663
59.3318 14515 120.478
59.4482 14806 121.68
59.5646 14847 121.848
59.681 14535 120.561
59.7975 14459 120.246
59.9141 14018 118.398
60.0306 13398 115.75
60.1473 12888 113.525
60.2639 11996 109.526
60.3807 11227 105.958
60.4974 10938 104.585
60.6142 11068 105.205
60.731 11101 105.361
60.8479 11084 105.281
60.9648 11674 108.046
61.0818 12109 110.041
61.1987 12313 110.964
61.3158 12361 111.18
61.4328 12099 109.995
61.5499 11713 108.227
61.667 11388 106.715
61.7841 11017 104.962
61.9013 10514 102.538
62.0185 10581 102.864
62.1357 10974 104.757
62.253 11636 107.87
62.3702 12029 109.677
62.4875 12427 111.476
62.6049 12964 113.86
62.7222 12927 113.697
62.8396 13252 115.117
62.9569 13230 115.022
63.0743 13347 115.529
63.1918 13272 115.204
63.3092 12808 113.172
63.4267 12385 111.288
63.5441 12034 109.7
63.6616 11177 105.721
63.7791 10720 103.537
63.8966 10072 100.359
64.0142 9575 97.8519
64.1317 9511 97.5244
64.2492 9728 98.6306
64.3668 10133 100.663
64.4843 10474 102.343
64.6019 10587 102.893
64.7195 10798 103.913
64.837 10855 104.187
64.9546 11029 105.019
65.0722 10629 103.097
65.1898 10322 101.597
65.3074 10011 100.055
65.4249 9550 97.7241
65.5425 9364 96.7678
65.6601 9643 98.1988
65.7777 10105 100.524
65.8952 10493 102.435
66.0128 10988 104.824
66.1304 11468 107.089
66.2479 11969 109.403
66.3655 12141 110.186
66.483 12535 111.96
66.6005 12376 111.247
66.718 12386 111.292
66.8355 12282 110.824
66.953 12112 110.055
67.0705 11789 108.577
67.1879 11202 105.84
67.3054 10481 102.377
67.4228 9648 98.2242
67.5402 9136 95.5824
67.6576 8918 94.4352
67.7749 8940 94.5516
67.8923 9329 96.5867
68.0096 9625 98.1071
68.1269 10131 100.653
68.2442 10543 102.679
68.3614 10965 104.714
68.4787 11064 105.186
68.5958 11066 105.195
68.713 10827 104.053
68.8302 10605 102.981
68.9473 9986 99.93
69.0643 9638 98.1733
69.1814 9588 97.9183
69.2984 9924 99.6193
69.4154 10334 101.656
69.5323 11316 106.377
69.6492 11928 109.215
69.7661 12431 111.494
69.8829 13181 114.809
69.9997 13548 116.396
70.1165 13562 116.456
70.2332 13499 116.185
70.3499 13774 117.363
70.4665 13329 115.451
70.5831 13379 115.668
70.6996 12955 113.82
70.8161 12253 110.693
70.9326 11288 106.245
71.049 10750 103.682
71.1653 9895 99.4736
71.2817 9500 97.4679
71.3979 9326 96.5712
71.5141 9269 96.2756
71.6303 9464 97.2831
71.7464 9150 95.6556
71.8624 0 1
71.9784 0 1
72.0944 0 1
72.2102 0 1
72.3261 0 1
72.4418 0 1
72.5575 0 1
72.6732 0 1
75.1054 0 1
75.2209 0 1
75.3365 0 1
75.4521 0 1
75.5678 0 1
75.6835 0 1
75.7993 0 1
75.9151 0 1
76.031 0 1
76.147 11263 106.127
76.263 11809 108.669
76.3791 11538 107.415
76.4952 10635 103.126
76.6113 9904 99.5188
76.7276 9490 97.4166
76.8438 9925 99.6243
76.9601 10126 100.628
77.0765 11008 104.919
77.1929 11570 107.564
77.3093 11830 108.766
77.4258 12337 111.072
77.5423 12238 110.625
77.6589 12099 109.995
77.7755 11823 108.734
77.8921 11006 104.909
78.0088 10286 101.42
78.1256 10007 100.035
78.2423 9454 97.2317
78.3591 9485 97.391
78.4759 10319 101.582
78.5928 11158 105.631
78.7097 12036 109.709
78.8266 12416 111.427
78.9436 13089 114.407
79.0606 13154 114.691
79.1776 13013 114.075
79.2946 12982 113.939
79.4117 13038 114.184
79.5288 12687 112.637
79.6459 12690 112.65
79.7631 11891 109.046
79.8802 11389 106.719
79.9974 10775 103.803
80.1147 9713 98.5546
80.2319 8809 93.8563
80.3491 8574 92.5959
80.4664 8721 93.3863
80.5837 8973 94.7259
80.701 9689 98.4327
80.8183 10253 101.257
80.9357 10278 101.38
81.053 10474 102.343
81.1704 10703 103.455
81.2877 10684 103.363
81.4051 10265 101.316
81.5225 9903 99.5138
81.6399 9008 94.9105
81.7573 8798 93.7977
81.8747 8274 90.9615
81.9922 8459 91.9728
82.1096 9056 95.163
82.227 9759 98.7877
82.3444 10307 101.523
82.4619 10840 104.115
82.5793 11264 106.132
82.6967 11203 105.844
82.8142 11298 106.292
82.9316 11266 106.141
83.049 11372 106.64
83.1664 11035 105.048
83.2838 10708 103.479
83.4012 10135 100.673
83.5186 9614 98.051
83.636 9114 95.4673
83.7534 8309 91.1537
83.8708 7543 86.8504
83.9881 7226 85.0059
84.1055 7567 86.9885
84.2228 7881 88.775
84.3401 8359 91.4276
84.4575 8850 94.0744
84.5747 9317 96.5246
84.692 9703 98.5038
84.8093 9568 97.8162
84.9265 9602 97.9898
85.0437 9041 95.0842
85.1609 8864 94.1488
85.2781 8352 91.3893
85.3952 8009 89.493
85.5123 8220 90.6642
85.6294 8251 90.835
85.7465 9209 95.9635
85.8636 10044 100.22
85.9806 10830 104.067
86.0976 11348 106.527
86.2145 11829 108.761
86.3315 11772 108.499
86.4484 12181 110.368
86.5652 12466 111.651
86.682 12374 111.238
86.7988 12433 111.503
86.9156 11926 109.206
87.0323 11347 106.522
87.149 11001 104.886
87.2657 10530 102.616
87.3823 9560 97.7753
87.4988 9015 94.9474
87.6154 8962 94.6678
87.7318 9569 97.8213
87.8483 10301 101.494
87.9647 10860 104.211
88.081 11419 106.86
88.1973 11847 108.844
88.3136 12038 109.718
88.4298 12122 110.1
88.546 11726 108.287
88.6621 11405 106.794
88.7781 10852 104.173
88.8942 0 1
89.0101 0 1
89.126 0 1
89.2419 0 1
89.3577 0 1
89.4734 0 1
89.5891 0 1
89.7047 0 1
89.8203 0 1
89.9358 0 1
92.3269 0 1
92.4424 0 1
92.558 0 1
92.6736 0 1
92.7893 0 1
92.905 0 1
93.0208 0 1
93.1366 0 1
93.2525 0 1
93.3685 0 1
93.4845 0 1
93.6005 19187 138.517
93.7167 20378 142.752
93.8328 21166 145.485
93.949 22155 148.846
94.0653 22414 149.713
94.1816 22231 149.101
94.2979 22121 148.731
94.4143 22137 148.785
94.5307 22218 149.057
94.6472 23583 153.568
94.7637 25143 158.565
94.8803 27807 166.754
94.9969 30275 173.997
95.1135 32770 181.025
95.2302 34344 185.321
95.3469 36263 190.428
95.4637 37436 193.484
95.5805 38751 196.853
95.6973 40413 201.03
95.8142 41137 202.823
95.9311 41151 202.857
96.048 40815 202.027
96.1649 40487 201.214
96.2819 39813 199.532
96.3989 38144 195.305
96.516 36264 190.431
96.633 34243 185.049
96.7501 34055 184.54
96.8673 35414 188.186
96.9844 37716 194.206
97.1016 40598 201.489
97.2188 44057 209.898
97.336 44552 211.073
97.4532 45190 212.579
97.5704 45188 212.575
97.6877 44069 209.926
97.805 41400 203.47
97.9223 38860 197.129
98.0396 36259 190.418
98.1569 34688 186.247
98.2743 33885 184.079
98.3916 35053 187.224
98.509 37854 194.561
98.6264 39551 198.874
98.7438 41907 204.712
98.8612 43004 207.374
98.9786 44448 210.827
99.096 45084 212.33
99.2134 45683 213.736
99.3308 46020 214.523
99.4482 45415 213.108
99.5656 45022 212.184
99.6831 44596 211.178
99.8005 42343 205.774
99.9179 41048 202.603
100.035 39172 197.919
100.153 36674 191.505
100.27 34537 185.841
100.388 34626 186.081
100.505 36631 191.392
100.622 40006 200.015
100.74 42251 205.55
100.857 42958 207.263
100.975 43847 209.397
101.092 43410 208.351
101.209 43081 207.56
101.327 41893 204.678
101.444 39022 197.54
101.561 35811 189.238
101.679 33505 183.044
101.796 32335 179.819
101.913 31505 177.496
102.03 33126 182.005
102.148 36172 190.189
102.265 40138 200.345
102.382 35939 189.576
102.499 38928 197.302
102.616 39072 197.666
102.733 39254 198.126
102.851 38843 197.086
102.968 38325 195.768
103.085 36557 191.199
103.202 34644 186.129
103.319 33015 181.7
103.436 31242 176.754
103.552 29066 170.488
103.669 26401 162.484
103.786 23897 154.587
103.903 22723 150.742
104.02 22984 151.605
104.137 23513 153.339
104.253 24675 157.083
104.37 23083 151.931
104.487 23663 153.828
104.603 22414 149.713
104.72 21178 145.527
104.836 19873 140.972
104.953 18256 135.115
105.069 16369 127.941
105.186 15055 122.699
105.302 14416 120.067
105.418 14119 118.823
105.535 14777 121.561
105.651 15681 125.224
105.767 16546 128.631
105.883 16677 129.139
105.999 17206 131.172
106.115 0 1
106.231 0 1
106.347 0 1
106.463 0 1
106.579 0 1
106.694 0 1
106.81 0 1
106.926 0 1
107.041 0 1
107.157 0 1
109.576 0 1
109.692 0 1
109.807 0 1
109.923 0 1
110.039 0 1
110.155 0 1
110.27 0 1
110.386 0 1
110.502 0 1
110.618 11749 108.393
110.735 13060 114.28
110.851 13984 118.254
110.967 14635 120.975
111.083 14976 122.376
111.199 15191 123.252
111.316 15269 123.568
111.432 15417 124.165
111.549 15474 124.395
111.665 15191 123.252
111.782 14256 119.398
111.898 14086 118.684
112.015 13252 115.117
112.132 12740 112.872
112.248 11564 107.536
112.365 11053 105.133
112.482 11048 105.109
112.599 10829 104.062
112.716 11848 108.849
112.832 12315 110.973
112.949 12691 112.654
113.066 12540 111.982
113.183 12598 112.241
113.3 12396 111.337
113.417 12137 110.168
113.534 11629 107.838
113.652 11113 105.418
113.769 10586 102.888
113.886 10549 102.708
114.003 10542 102.674
114.12 11359 106.579
114.238 12715 112.761
114.355 13502 116.198
114.472 14647 121.025
114.589 13544 116.379
114.707 14651 121.041
114.824 14424 120.1
114.942 14739 121.404
115.059 14781 121.577
115.176 14794 121.631
115.294 14186 119.105
115.411 13689 117
115.529 13258 115.143
115.646 13141 114.634
115.764 12257 110.711
115.881 11278 106.198
115.999 10951 104.647
116.116 11332 106.452
116.234 11750 108.397
116.351 12574 112.134
116.469 12951 113.802
116.586 13111 114.503
116.704 13099 114.451
116.821 13054 114.254
116.939 12634 112.401
117.056 12553 112.04
117.174 11991 109.503
117.291 11718 108.25
117.409 11354 106.555
117.526 11279 106.203
117.644 11871 108.954
117.761 12711 112.743
117.879 13646 116.816
117.996 13998 118.313
118.114 14933 122.201
118.231 15179 123.203
118.349 15410 124.137
118.466 15410 124.137
118.584 15565 124.76
118.701 15846 125.881
118.819 15346 123.879
118.936 14815 121.717
119.053 14447 120.196
119.171 13752 117.269
119.288 13367 115.616
119.405 12844 113.331
119.523 11951 109.321
119.64 11655 107.958
119.757 11703 108.18
119.875 12040 109.727
119.992 12709 112.734
120.109 13090 114.412
120.226 13115 114.521
120.343 13225 115
120.46 12944 113.772
120.578 12815 113.203
120.695 12883 113.503
120.812 12518 111.884
120.929 12171 110.322
121.046 11697 108.153
121.163 11790 108.582
121.279 11975 109.43
121.396 12568 112.107
121.513 13455 115.996
121.63 13942 118.076
121.747 14643 121.008
121.863 14911 122.111
121.98 14969 122.348
122.097 15277 123.6
122.213 15207 123.317
122.33 15382 124.024
122.446 15264 123.548
122.563 14658 121.07
122.679 14395 119.979
122.795 13913 117.953
122.912 13628 116.739
123.028 13246 115.091
123.144 12552 112.036
123.26 11831 108.77
123.377 0 1
123.493 0 1
123.609 0 1
123.725 0 1
123.84 0 1
123.956 0 1
124.072 0 1
124.188 0 1
124.303 0 1
124.419 0 1
126.852 0 1
126.968 0 1
127.083 0 1
127.199 0 1
127.315 0 1
127.431 0 1
127.547 0 1
127.663 0 1
127.779 0 1
127.895 0 1
128.011 0 1
128.127 0 1
128.243 0 1
128.359 14006 118.347
128.476 13293 115.295
128.592 12853 113.371
128.708 13011 114.066
128.825 13375 115.65
128.941 14183 119.092
129.058 14650 121.037
129.174 14983 122.405
129.291 14674 121.136
129.408 14583 120.76
129.524 14332 119.716
129.641 14243 119.344
129.758 13824 117.576
129.875 13159 114.713
129.992 13143 114.643
130.108 12800 113.137
130.225 13056 114.263
130.342 13715 117.111
130.459 14205 119.185
130.576 15121 122.967
130.693 15144 123.061
130.81 15497 124.487
130.928 15373 123.988
131.045 15772 125.587
131.162 15715 125.359
131.279 15682 125.228
131.396 15527 124.607
131.513 15413 124.149
131.631 14589 120.785
131.748 14458 120.241
131.865 13863 117.741
131.983 13110 114.499
132.1 12570 112.116
132.217 12503 111.817
132.335 12697 112.681
132.452 13299 115.321
132.57 13843 117.656
132.687 13381 115.676
132.804 14357 119.821
132.922 13902 117.907
133.039 13837 117.631
133.157 13475 116.082
133.274 12949 113.794
133.392 12487 111.745
133.509 12348 111.122
133.627 12152 110.236
133.744 11857 108.89
133.862 12021 109.64
133.979 12975 113.908
134.097 13173 114.774
134.214 13773 117.358
134.332 13683 116.974
134.449 14001 118.326
134.567 14460 120.25
134.684 14297 119.57
134.802 14535 120.561
134.919 14477 120.32
135.037 14373 119.887
135.154 14266 119.44
135.272 13807 117.503
135.389 13548 116.396
135.507 12959 113.838
135.624 12433 111.503
135.742 12030 109.681
135.859 12458 111.615
135.977 12781 113.053
136.094 13192 114.856
136.211 13741 117.222
136.329 13595 116.598
136.446 13487 116.134
136.564 13604 116.636
136.681 13477 116.09
136.798 13105 114.477
136.915 12793 113.106
137.033 12460 111.624
137.15 12170 110.318
137.267 12057 109.804
137.384 11861 108.908
137.502 12280 110.815
137.619 12935 113.732
137.736 13278 115.23
137.853 13152 114.682
137.97 13852 117.695
138.087 13677 116.949
138.204 14042 118.499
138.321 14042 118.499
138.438 14244 119.348
138.555 14434 120.142
138.672 14544 120.599
138.788 14197 119.151
138.905 13866 117.754
139.022 13564 116.465
139.139 13193 114.861
139.255 12580 112.161
139.372 12425 111.467
139.488 12548 112.018
139.605 13068 114.315
139.721 13649 116.829
139.838 13733 117.188
139.954 13857 117.716
140.071 13543 116.374
140.187 13644 116.808
140.303 13675 116.94
140.419 13348 115.534
140.535 12899 113.574
140.652 12254 110.698
140.768 0 1
140.884 0 1
141 0 1
141.115 0 1
141.231 0 1
141.347 0 1
141.463 0 1
141.578 0 1
141.694 0 1
144.104 0 1
144.219 0 1
144.335 0 1
144.45 0 1
144.566 0 1
144.682 0 1
144.798 0 1
144.914 0 1
145.03 0 1
145.146 11721 108.264
145.262 12094 109.973
145.378 11803 108.642
145.494 11693 108.134
145.61 11211 105.882
145.726 11174 105.707
145.842 10906 104.432
145.959 10556 102.742
146.075 10457 102.259
146.192 10849 104.159
146.308 11321 106.4
146.425 11565 107.541
146.541 11697 108.153
146.658 11783 108.55
146.774 11775 108.513
146.891 12204 110.472
147.008 12235 110.612
147.125 12388 111.301
147.241 12389 111.306
147.358 12489 111.754
147.475 12125 110.114
147.592 11956 109.343
147.709 11711 108.217
147.826 11472 107.107
147.943 10805 103.947
148.06 10767 103.764
148.177 10989 104.828
148.294 11302 106.311
148.411 11847 108.844
148.528 12000 109.545
148.645 11664 108
148.762 11774 108.508
148.88 11855 108.881
148.997 11583 107.624
149.114 11922 109.188
149.231 11249 106.061
149.349 10970 104.738
149.466 10296 101.469
149.583 10298 101.479
149.701 10292 101.449
149.818 10627 103.087
149.935 10758 103.721
150.053 10949 104.637
150.17 11382 106.686
150.287 11477 107.131
150.405 11652 107.944
150.522 11980 109.453
150.64 12073 109.877
150.757 12017 109.622
150.875 12019 109.631
150.992 12031 109.686
151.11 11929 109.22
151.227 11592 107.666
151.344 11500 107.238
151.462 11022 104.986
151.579 10907 104.437
151.697 10538 102.655
151.814 10548 102.703
151.932 11043 105.086
152.049 11637 107.875
152.167 11580 107.61
152.284 11647 107.921
152.402 11671 108.032
152.519 11743 108.365
152.636 11524 107.35
152.754 11302 106.311
152.871 11069 105.209
152.989 10754 103.701
153.106 10343 101.701
153.223 10307 101.523
153.341 10282 101.4
153.458 10629 103.097
153.575 10834 104.087
153.693 11278 106.198
153.81 11871 108.954
153.927 12030 109.681
154.044 12112 110.055
154.162 12373 111.234
154.279 12770 113.004
154.396 13294 115.3
154.513 13098 114.446
154.63 13326 115.438
154.747 13223 114.991
154.864 12945 113.776
154.981 12574 112.134
155.098 12332 111.05
155.215 12032 109.69
155.332 11811 108.678
155.449 11976 109.435
155.566 12239 110.63
155.683 12570 112.116
155.8 12919 113.662
155.917 12834 113.287
156.033 12832 113.278
156.15 0 1
156.267 0 1
156.383 0 1
156.5 0 1
156.617 0 1
156.733 0 1
156.85 0 1
156.966 0 1
157.082 0 1
157.199 0 1
157.315 0 1
157.431 0 1
157.547 0 1
157.664 0 1
157.78 0 1
157.896 0 1
158.012 0 1
158.128 0 1
158.244 0 1
158.359 0 1
158.475 0 1
158.591 0 1
158.706 0 1
