
6.15755 0 1
6.2731 0 1
6.3887 0 1
6.50437 0 1
6.62009 0 1
6.73587 0 1
6.8517 0 1
6.96759 0 1
7.08353 0 1
7.19952 0 1
7.31557 0 1
7.43166 0 1
7.54781 0 1
7.664 0 1
7.78024 0 1
7.89653 0 1
8.01286 0 1
8.12924 0 1
8.24567 0 1
8.36213 0 1
8.47864 0 1
8.59519 0 1
8.71178 0 1
8.82841 0 1
8.94508 0 1
9.06179 0 1
9.17853 0 1
9.29531 0 1
9.41212 0 1
9.52897 0 1
9.64584 0 1
9.76276 0 1
9.8797 0 1
9.99667 0 1
10.1137 0 1
10.2307 0 1
10.3478 0 1
10.4648 0 1
10.5819 0 1
10.6991 0 1
10.8162 0 1
10.9334 0 1
11.0506 0 1
11.1678 0 1
11.285 0 1
11.4023 0 1
11.5196 0 1
11.6369 0 1
11.7542 0 1
11.8715 0 1
11.9888 0 1
12.1062 0 1
12.2235 0 1
12.3409 0 1
12.4582 0 1
12.5756 0 1
12.693 0 1
12.8104 0 1
12.9278 0 1
13.0452 0 1
13.1626 0 1
13.28 0 1
13.3974 0 1
13.5149 0 1
13.6323 0 1
13.7497 0 1
13.8671 0 1
13.9845 0 1
14.1019 0 1
14.2193 0 1
14.3367 0 1
14.4541 0 1
14.5714 0 1
14.6888 0 1
14.8062 0 1
14.9235 0 1
15.0408 420 20.4939
15.1581 455 21.3307
15.2755 462 21.4942
15.3927 491 22.1585
15.51 480 21.9089
15.6273 496 22.2711
15.7445 484 22
15.8617 450 21.2132
15.9789 504 22.4499
16.0961 473 21.7486
16.2132 467 21.6102
16.3304 478 21.8632
16.4475 539 23.2164
16.5646 494 22.2261
16.6816 512 22.6274
16.7986 527 22.9565
16.9156 545 23.3452
17.0326 532 23.0651
17.1496 553 23.516
17.2665 544 23.3238
17.3833 539 23.2164
17.5002 528 22.9783
17.617 472 21.7256
17.7338 489 22.1133
17.8505 462 21.4942
17.9672 480 21.9089
18.0839 472 21.7256
18.2005 518 22.7596
18.3171 523 22.8692
18.4337 522 22.8473
18.5502 523 22.8692
18.6666 574 23.9583
18.7831 513 22.6495
18.8994 572 23.9165
19.0158 503 22.4277
19.1321 483 21.9773
19.2483 490 22.1359
19.3645 447 21.1424
19.4806 445 21.095
19.5967 404 20.0998
19.7128 348 18.6548
19.8288 374 19.3391
19.9447 337 18.3576
20.0606 0 1
20.1764 0 1
20.2922 0 1
20.4079 0 1
20.5236 0 1
20.6392 0 1
20.7548 0 1
20.8702 0 1
23.3078 0 1
23.4233 0 1
23.539 0 1
23.6547 0 1
23.7704 0 1
23.8862 0 1
24.0021 0 1
24.118 0 1
24.234 0 1
24.35 0 1
24.4661 206 14.3527
24.5822 244 15.6205
24.6984 272 16.4924
24.8146 358 18.9209
24.9309 301 17.3494
25.0472 363 19.0526
25.1636 380 19.4936
25.28 426 20.6398
25.3965 474 21.7715
25.513 476 21.8174
25.6296 545 23.3452
25.7462 585 24.1868
25.8628 564 23.7487
25.9795 612 24.7386
26.0962 594 24.3721
26.213 523 22.8692
26.3298 494 22.2261
26.4466 493 22.2036
26.5635 483 21.9773
26.6804 473 21.7486
26.7973 487 22.0681
26.9143 478 21.8632
27.0313 533 23.0868
27.1483 526 22.9347
27.2653 559 23.6432
27.3824 528 22.9783
27.4996 527 22.9565
27.6167 540 23.2379
27.7339 557 23.6008
27.8511 516 22.7156
27.9683 519 22.7816
28.0855 458 21.4009
28.2028 436 20.8806
28.3201 424 20.5913
28.4374 433 20.8087
28.5547 443 21.0476
28.6721 482 21.9545
28.7894 493 22.2036
28.9068 495 22.2486
29.0242 536 23.1517
29.1416 574 23.9583
29.259 508 22.5389
29.3764 540 23.2379
29.4939 545 23.3452
29.6113 495 22.2486
29.7288 546 23.3666
29.8463 526 22.9347
29.9638 493 22.2036
30.0812 441 21
30.1987 452 21.2603
30.3162 464 21.5407
30.4337 483 21.9773
30.5512 486 22.0454
30.6687 492 22.1811
30.7862 490 22.1359
30.9037 461 21.4709
31.0212 535 23.1301
31.1387 475 21.7945
31.2562 523 22.8692
31.3737 522 22.8473
31.4912 499 22.3383
31.6087 468 21.6333
31.7262 454 21.3073
31.8436 447 21.1424
31.9611 430 20.7364
32.0785 396 19.8997
32.1959 461 21.4709
32.3134 489 22.1133
32.4308 460 21.4476
32.5482 517 22.7376
32.6655 552 23.4947
32.7829 483 21.9773
32.9002 531 23.0434
33.0176 544 23.3238
33.1349 527 22.9565
33.2522 537 23.1733
33.3694 437 20.9045
33.4867 445 21.095
33.6039 421 20.5183
33.7211 419 20.4695
33.8383 428 20.6882
33.9554 458 21.4009
34.0725 449 21.1896
34.1896 458 21.4009
34.3067 485 22.0227
34.4237 479 21.8861
34.5407 479 21.8861
34.6577 491 22.1585
34.7746 505 22.4722
34.8915 457 21.3776
35.0084 504 22.4499
35.1252 434 20.8327
35.242 472 21.7256
35.3587 453 21.2838
35.4755 388 19.6977
35.5921 374 19.3391
35.7088 393 19.8242
35.8254 392 19.799
35.9419 440 20.9762
36.0584 435 20.8567
36.1749 402 20.0499
36.2913 469 21.6564
36.4077 417 20.4206
36.524 429 20.7123
36.6403 443 21.0476
36.7565 410 20.2485
36.8727 454 21.3073
36.9889 369 19.2094
37.1049 314 17.72
37.221 0 1
37.3369 0 1
37.4529 0 1
37.5687 0 1
37.6845 0 1
37.8003 0 1
37.916 0 1
38.0316 0 1
38.1472 0 1
40.5851 0 1
40.7008 0 1
40.8164 0 1
40.9322 0 1
41.048 0 1
41.1639 0 1
41.2798 0 1
41.3958 0 1
41.5118 0 1
41.6279 0 1
41.744 237 15.3948
41.8602 263 16.2173
41.9765 285 16.8819
42.0928 309 17.5784
42.2091 320 17.8885
42.3255 287 16.9411
42.4419 307 17.5214
42.5584 289 17
42.675 318 17.8326
42.7915 318 17.8326
42.9081 349 18.6815
43.0248 395 19.8746
43.1415 361 19
43.2582 407 20.1742
43.375 459 21.4243
43.4918 413 20.3224
43.6087 414 20.347
43.7256 397 19.9249
43.8425 366 19.1311
43.9595 390 19.7484
44.0765 376 19.3907
44.1935 369 19.2094
44.3106 337 18.3576
44.4277 376 19.3907
44.5448 322 17.9444
44.6619 308 17.5499
44.7791 371 19.2614
44.8963 395 19.8746
45.0136 402 20.0499
45.1308 396 19.8997
45.2481 401 20.025
45.3654 424 20.5913
45.4827 457 21.3776
45.6001 410 20.2485
45.7174 410 20.2485
45.8348 383 19.5704
45.9522 364 19.0788
46.0697 331 18.1934
46.1871 334 18.2757
46.3046 328 18.1108
46.422 372 19.2873
46.5395 387 19.6723
46.657 412 20.2978
46.7745 420 20.4939
46.892 393 19.8242
47.0096 442 21.0238
47.1271 385 19.6214
47.2446 434 20.8327
47.3622 426 20.6398
47.4797 388 19.6977
47.5973 380 19.4936
47.7149 360 18.9737
47.8324 417 20.4206
47.95 339 18.412
48.0675 356 18.868
48.1851 321 17.9165
48.3027 341 18.4662
48.4202 348 18.6548
48.5378 383 19.5704
48.6554 408 20.199
48.7729 379 19.4679
48.8904 431 20.7605
49.008 402 20.0499
49.1255 419 20.4695
49.243 409 20.2237
49.3605 344 18.5472
49.478 363 19.0526
49.5955 344 18.5472
49.713 325 18.0278
49.8304 299 17.2916
49.9479 361 19
50.0653 347 18.6279
50.1827 376 19.3907
50.3001 428 20.6882
50.4175 365 19.105
50.5348 412 20.2978
50.6521 403 20.0749
50.7694 386 19.6469
50.8867 401 20.025
51.004 421 20.5183
51.1212 374 19.3391
51.2384 384 19.5959
51.3556 330 18.1659
51.4727 340 18.4391
51.5899 356 18.868
51.707 341 18.4662
51.824 336 18.3303
51.9411 342 18.4932
52.0581 403 20.0749
52.175 409 20.2237
52.2919 397 19.9249
52.4088 413 20.3224
52.5257 406 20.1494
52.6425 392 19.799
52.7593 422 20.5426
52.876 439 20.9523
52.9927 404 20.0998
53.1094 371 19.2614
53.226 346 18.6011
53.3426 332 18.2209
53.4591 289 17
53.5756 307 17.5214
53.692 329 18.1384
53.8084 363 19.0526
53.9248 330 18.1659
54.0411 325 18.0278
54.1573 328 18.1108
54.2735 0 1
54.3896 0 1
54.5057 0 1
54.6217 0 1
54.7377 0 1
54.8537 0 1
54.9695 0 1
55.0853 0 1
55.2011 0 1
55.3168 0 1
55.4324 0 1
57.824 0 1
57.9396 0 1
58.0553 0 1
58.1711 0 1
58.2869 0 1
58.4028 0 1
58.5187 0 1
58.6347 0 1
58.7508 0 1
58.8669 0 1
58.983 265 16.2788
59.0992 322 17.9444
59.2155 354 18.8149
59.3318 387 19.6723
59.4482 400 20
59.5646 455 21.3307
59.681 444 21.0713
59.7975 473 21.7486
59.9141 445 21.095
60.0306 449 21.1896
60.1473 448 21.166
60.2639 428 20.6882
60.3807 402 20.0499
60.4974 442 21.0238
60.6142 473 21.7486
60.731 450 21.2132
60.8479 507 22.5167
60.9648 522 22.8473
61.0818 501 22.383
61.1987 543 23.3024
61.3158 489 22.1133
61.4328 467 21.6102
61.5499 476 21.8174
61.667 463 21.5174
61.7841 393 19.8242
61.9013 399 19.975
62.0185 384 19.5959
62.1357 471 21.7025
62.253 441 21
62.3702 450 21.2132
62.4875 482 21.9545
62.6049 501 22.383
62.7222 475 21.7945
62.8396 535 23.1301
62.9569 514 22.6716
63.0743 534 23.1084
63.1918 573 23.9374
63.3092 541 23.2594
63.4267 500 22.3607
63.5441 462 21.4942
63.6616 476 21.8174
63.7791 443 21.0476
63.8966 414 20.347
64.0142 396 19.8997
64.1317 409 20.2237
64.2492 444 21.0713
64.3668 450 21.2132
64.4843 495 22.2486
64.6019 555 23.5584
64.7195 505 22.4722
64.837 474 21.7715
64.9546 502 22.4054
65.0722 514 22.6716
65.1898 487 22.0681
65.3074 415 20.3715
65.4249 385 19.6214
65.5425 417 20.4206
65.6601 402 20.0499
65.7777 444 21.0713
65.8952 435 20.8567
66.0128 462 21.4942
66.1304 466 21.587
66.2479 528 22.9783
66.3655 545 23.3452
66.483 491 22.1585
66.6005 546 23.3666
66.718 501 22.383
66.8355 530 23.0217
66.953 477 21.8403
67.0705 474 21.7715
67.1879 496 22.2711
67.3054 475 21.7945
67.4228 413 20.3224
67.5402 427 20.664
67.6576 381 19.5192
67.7749 426 20.6398
67.8923 478 21.8632
68.0096 572 23.9165
68.1269 506 22.4944
68.2442 549 23.4307
68.3614 551 23.4734
68.4787 608 24.6577
68.5958 580 24.0832
68.713 511 22.6053
68.8302 565 23.7697
68.9473 473 21.7486
69.0643 437 20.9045
69.1814 452 21.2603
69.2984 454 21.3073
69.4154 515 22.6936
69.5323 563 23.7276
69.6492 559 23.6432
69.7661 598 24.454
69.8829 658 25.6515
69.9997 619 24.8797
70.1165 603 24.5561
70.2332 586 24.2074
70.3499 578 24.0416
70.4665 574 23.9583
70.5831 574 23.9583
70.6996 560 23.6643
70.8161 531 23.0434
70.9326 442 21.0238
71.049 420 20.4939
71.1653 339 18.412
71.2817 299 17.2916
71.3979 272 16.4924
71.5141 278 16.6733
71.6303 249 15.7797
71.7464 234 15.2971
71.8624 0 1
71.9784 0 1
72.0944 0 1
72.2102 0 1
72.3261 0 1
72.4418 0 1
72.5575 0 1
72.6732 0 1
75.1054 0 1
75.2209 0 1
75.3365 0 1
75.4521 0 1
75.5678 0 1
75.6835 0 1
75.7993 0 1
75.9151 0 1
76.031 0 1
76.147 361 19
76.263 360 18.9737
76.3791 377 19.4165
76.4952 331 18.1934
76.6113 354 18.8149
76.7276 366 19.1311
76.8438 387 19.6723
76.9601 410 20.2485
77.0765 436 20.8806
77.1929 481 21.9317
77.3093 454 21.3073
77.4258 459 21.4243
77.5423 421 20.5183
77.6589 477 21.8403
77.7755 395 19.8746
77.8921 374 19.3391
78.0088 345 18.5742
78.1256 327 18.0831
78.2423 308 17.5499
78.3591 328 18.1108
78.4759 362 19.0263
78.5928 408 20.199
78.7097 418 20.445
78.8266 419 20.4695
78.9436 398 19.9499
79.0606 402 20.0499
79.1776 442 21.0238
79.2946 440 20.9762
79.4117 448 21.166
79.5288 436 20.8806
79.6459 437 20.9045
79.7631 427 20.664
79.8802 425 20.6155
79.9974 385 19.6214
80.1147 336 18.3303
80.2319 325 18.0278
80.3491 347 18.6279
80.4664 340 18.4391
80.5837 390 19.7484
80.701 427 20.664
80.8183 430 20.7364
80.9357 457 21.3776
81.053 470 21.6795
81.1704 436 20.8806
81.2877 440 20.9762
81.4051 479 21.8861
81.5225 395 19.8746
81.6399 363 19.0526
81.7573 313 17.6918
81.8747 300 17.3205
81.9922 318 17.8326
82.1096 352 18.7617
82.227 399 19.975
82.3444 435 20.8567
82.4619 459 21.4243
82.5793 433 20.8087
82.6967 460 21.4476
82.8142 427 20.664
82.9316 489 22.1133
83.049 461 21.4709
83.1664 452 21.2603
83.2838 524 22.891
83.4012 439 20.9523
83.5186 452 21.2603
83.636 428 20.6882
83.7534 375 19.3649
83.8708 352 18.7617
83.9881 354 18.8149
84.1055 373 19.3132
84.2228 382 19.5448
84.3401 421 20.5183
84.4575 423 20.567
84.5747 444 21.0713
84.692 450 21.2132
84.8093 492 22.1811
84.9265 458 21.4009
85.0437 467 21.6102
85.1609 422 20.5426
85.2781 368 19.1833
85.3952 394 19.8494
85.5123 331 18.1934
85.6294 310 17.6068
85.7465 403 20.0749
85.8636 427 20.664
85.9806 453 21.2838
86.0976 491 22.1585
86.2145 459 21.4243
86.3315 462 21.4942
86.4484 461 21.4709
86.5652 473 21.7486
86.682 506 22.4944
86.7988 473 21.7486
86.9156 438 20.9284
87.0323 442 21.0238
87.149 418 20.445
87.2657 414 20.347
87.3823 380 19.4936
87.4988 372 19.2873
87.6154 300 17.3205
87.7318 325 18.0278
87.8483 339 18.412
87.9647 350 18.7083
88.081 398 19.9499
88.1973 378 19.4422
88.3136 356 18.868
88.4298 295 17.1756
88.546 310 17.6068
88.6621 304 17.4356
88.7781 197 14.0357
88.8942 0 1
89.0101 0 1
89.126 0 1
89.2419 0 1
89.3577 0 1
89.4734 0 1
89.5891 0 1
89.7047 0 1
89.8203 0 1
89.9358 0 1
92.3269 0 1
92.4424 0 1
92.558 0 1
92.6736 0 1
92.7893 0 1
92.905 0 1
93.0208 0 1
93.1366 0 1
93.2525 0 1
93.3685 0 1
93.4845 0 1
93.6005 363 19.0526
93.7167 391 19.7737
93.8328 367 19.1572
93.949 376 19.3907
94.0653 400 20
94.1816 401 20.025
94.2979 385 19.6214
94.4143 351 18.735
94.5307 367 19.1572
94.6472 317 17.8045
94.7637 368 19.1833
94.8803 364 19.0788
94.9969 401 20.025
95.1135 426 20.6398
95.2302 442 21.0238
95.3469 417 20.4206
95.4637 484 22
95.5805 445 21.095
95.6973 443 21.0476
95.8142 491 22.1585
95.9311 456 21.3542
96.048 434 20.8327
96.1649 448 21.166
96.2819 499 22.3383
96.3989 431 20.7605
96.516 436 20.8806
96.633 407 20.1742
96.7501 355 18.8414
96.8673 372 19.2873
96.9844 375 19.3649
97.1016 411 20.2731
97.2188 452 21.2603
97.336 442 21.0238
97.4532 524 22.891
97.5704 445 21.095
97.6877 506 22.4944
97.805 469 21.6564
97.9223 402 20.0499
98.0396 399 19.975
98.1569 368 19.1833
98.2743 342 18.4932
98.3916 324 18
98.509 324 18
98.6264 381 19.5192
98.7438 380 19.4936
98.8612 417 20.4206
98.9786 480 21.9089
99.096 472 21.7256
99.2134 481 21.9317
99.3308 527 22.9565
99.4482 492 22.1811
99.5656 488 22.0907
99.6831 469 21.6564
99.8005 462 21.4942
99.9179 491 22.1585
100.035 473 21.7486
100.153 421 20.5183
100.27 378 19.4422
100.388 381 19.5192
100.505 407 20.1742
100.622 433 20.8087
100.74 401 20.025
100.857 502 22.4054
100.975 504 22.4499
101.092 499 22.3383
101.209 539 23.2164
101.327 488 22.0907
101.444 488 22.0907
101.561 436 20.8806
101.679 434 20.8327
101.796 390 19.7484
101.913 355 18.8414
102.03 358 18.9209
102.148 419 20.4695
102.265 413 20.3224
102.382 475 21.7945
102.499 502 22.4054
102.616 492 22.1811
102.733 518 22.7596
102.851 521 22.8254
102.968 544 23.3238
103.085 517 22.7376
103.202 491 22.1585
103.319 527 22.9565
103.436 513 22.6495
103.552 445 21.095
103.669 469 21.6564
103.786 419 20.4695
103.903 380 19.4936
104.02 398 19.9499
104.137 457 21.3776
104.253 462 21.4942
104.37 554 23.5372
104.487 532 23.0651
104.603 517 22.7376
104.72 535 23.1301
104.836 525 22.9129
104.953 494 22.2261
105.069 410 20.2485
105.186 384 19.5959
105.302 380 19.4936
105.418 319 17.8606
105.535 342 18.4932
105.651 366 19.1311
105.767 366 19.1311
105.883 377 19.4165
105.999 339 18.412
106.115 0 1
106.231 0 1
106.347 0 1
106.463 0 1
106.579 0 1
106.694 0 1
106.81 0 1
106.926 0 1
107.041 0 1
107.157 0 1
109.576 0 1
109.692 0 1
109.807 0 1
109.923 0 1
110.039 0 1
110.155 0 1
110.27 0 1
110.386 0 1
110.502 0 1
110.618 177 13.3041
110.735 285 16.8819
110.851 314 17.72
110.967 352 18.7617
111.083 426 20.6398
111.199 419 20.4695
111.316 428 20.6882
111.432 436 20.8806
111.549 458 21.4009
111.665 464 21.5407
111.782 500 22.3607
111.898 440 20.9762
112.015 473 21.7486
112.132 441 21
112.248 411 20.2731
112.365 376 19.3907
112.482 371 19.2614
112.599 434 20.8327
112.716 426 20.6398
112.832 455 21.3307
112.949 467 21.6102
113.066 503 22.4277
113.183 472 21.7256
113.3 457 21.3776
113.417 484 22
113.534 436 20.8806
113.652 410 20.2485
113.769 355 18.8414
113.886 336 18.3303
114.003 345 18.5742
114.12 332 18.2209
114.238 398 19.9499
114.355 422 20.5426
114.472 459 21.4243
114.589 463 21.5174
114.707 458 21.4009
114.824 484 22
114.942 465 21.5639
115.059 502 22.4054
115.176 480 21.9089
115.294 482 21.9545
115.411 491 22.1585
115.529 484 22
115.646 448 21.166
115.764 457 21.3776
115.881 376 19.3907
115.999 392 19.799
116.116 397 19.9249
116.234 423 20.567
116.351 452 21.2603
116.469 467 21.6102
116.586 450 21.2132
116.704 490 22.1359
116.821 460 21.4476
116.939 515 22.6936
117.056 472 21.7256
117.174 451 21.2368
117.291 405 20.1246
117.409 402 20.0499
117.526 389 19.7231
117.644 363 19.0526
117.761 392 19.799
117.879 390 19.7484
117.996 413 20.3224
118.114 435 20.8567
118.231 459 21.4243
118.349 448 21.166
118.466 533 23.0868
118.584 501 22.383
118.701 505 22.4722
118.819 490 22.1359
118.936 481 21.9317
119.053 476 21.8174
119.171 444 21.0713
119.288 455 21.3307
119.405 372 19.2873
119.523 325 18.0278
119.64 343 18.5203
119.757 392 19.799
119.875 408 20.199
119.992 465 21.5639
120.109 420 20.4939
120.226 451 21.2368
120.343 450 21.2132
120.46 467 21.6102
120.578 430 20.7364
120.695 467 21.6102
120.812 428 20.6882
120.929 363 19.0526
121.046 388 19.6977
121.163 330 18.1659
121.279 331 18.1934
121.396 317 17.8045
121.513 339 18.412
121.63 401 20.025
121.747 338 18.3848
121.863 387 19.6723
121.98 386 19.6469
122.097 369 19.2094
122.213 384 19.5959
122.33 359 18.9473
122.446 362 19.0263
122.563 345 18.5742
122.679 308 17.5499
122.795 319 17.8606
122.912 289 17
123.028 238 15.4272
123.144 217 14.7309
123.26 200 14.1421
123.377 0 1
123.493 0 1
123.609 0 1
123.725 0 1
123.84 0 1
123.956 0 1
124.072 0 1
124.188 0 1
124.303 0 1
124.419 0 1
126.852 0 1
126.968 0 1
127.083 0 1
127.199 0 1
127.315 0 1
127.431 0 1
127.547 0 1
127.663 0 1
127.779 0 1
127.895 0 1
128.011 0 1
128.127 0 1
128.243 0 1
128.359 533 23.0868
128.476 552 23.4947
128.592 526 22.9347
128.708 527 22.9565
128.825 514 22.6716
128.941 557 23.6008
129.058 587 24.2281
129.174 604 24.5764
129.291 649 25.4755
129.408 624 24.98
129.524 629 25.0799
129.641 649 25.4755
129.758 612 24.7386
129.875 624 24.98
129.992 528 22.9783
130.108 514 22.6716
130.225 480 21.9089
130.342 457 21.3776
130.459 494 22.2261
130.576 539 23.2164
130.693 538 23.1948
130.81 562 23.7065
130.928 553 23.516
131.045 600 24.4949
131.162 630 25.0998
131.279 616 24.8193
131.396 620 24.8998
131.513 599 24.4745
131.631 576 24
131.748 615 24.7992
131.865 558 23.622
131.983 516 22.7156
132.1 559 23.6432
132.217 481 21.9317
132.335 503 22.4277
132.452 554 23.5372
132.57 553 23.516
132.687 589 24.2693
132.804 570 23.8747
132.922 581 24.1039
133.039 582 24.1247
133.157 583 24.1454
133.274 552 23.4947
133.392 583 24.1454
133.509 509 22.561
133.627 523 22.8692
133.744 474 21.7715
133.862 437 20.9045
133.979 460 21.4476
134.097 434 20.8327
134.214 462 21.4942
134.332 515 22.6936
134.449 509 22.561
134.567 560 23.6643
134.684 491 22.1585
134.802 512 22.6274
134.919 502 22.4054
135.037 516 22.7156
135.154 483 21.9773
135.272 511 22.6053
135.389 511 22.6053
135.507 461 21.4709
135.624 475 21.7945
135.742 426 20.6398
135.859 465 21.5639
135.977 432 20.7846
136.094 455 21.3307
136.211 462 21.4942
136.329 491 22.1585
136.446 526 22.9347
136.564 528 22.9783
136.681 563 23.7276
136.798 495 22.2486
136.915 484 22
137.033 465 21.5639
137.15 468 21.6333
137.267 429 20.7123
137.384 388 19.6977
137.502 378 19.4422
137.619 364 19.0788
137.736 410 20.2485
137.853 428 20.6882
137.97 467 21.6102
138.087 458 21.4009
138.204 478 21.8632
138.321 493 22.2036
138.438 477 21.8403
138.555 474 21.7715
138.672 458 21.4009
138.788 439 20.9523
138.905 476 21.8174
139.022 422 20.5426
139.139 396 19.8997
139.255 377 19.4165
139.372 320 17.8885
139.488 342 18.4932
139.605 336 18.3303
139.721 345 18.5742
139.838 291 17.0587
139.954 326 18.0555
140.071 348 18.6548
140.187 296 17.2047
140.303 300 17.3205
140.419 246 15.6844
140.535 210 14.4914
140.652 248 15.748
140.768 0 1
140.884 0 1
141 0 1
141.115 0 1
141.231 0 1
141.347 0 1
141.463 0 1
141.578 0 1
141.694 0 1
144.104 0 1
144.219 0 1
144.335 0 1
144.45 0 1
144.566 0 1
144.682 0 1
144.798 0 1
144.914 0 1
145.03 0 1
145.146 322 17.9444
145.262 400 20
145.378 398 19.9499
145.494 374 19.3391
145.61 391 19.7737
145.726 319 17.8606
145.842 345 18.5742
145.959 326 18.0555
146.075 292 17.088
146.192 283 16.8226
146.308 319 17.8606
146.425 294 17.1464
146.541 313 17.6918
146.658 296 17.2047
146.774 406 20.1494
146.891 358 18.9209
147.008 364 19.0788
147.125 365 19.105
147.241 345 18.5742
147.358 342 18.4932
147.475 384 19.5959
147.592 385 19.6214
147.709 302 17.3781
147.826 388 19.6977
147.943 339 18.412
148.06 324 18
148.177 309 17.5784
148.294 300 17.3205
148.411 327 18.0831
148.528 318 17.8326
148.645 323 17.9722
148.762 323 17.9722
148.88 381 19.5192
148.997 397 19.9249
149.114 343 18.5203
149.231 404 20.0998
149.349 377 19.4165
149.466 370 19.2354
149.583 292 17.088
149.701 313 17.6918
149.818 347 18.6279
149.935 304 17.4356
150.053 303 17.4069
150.17 310 17.6068
150.287 310 17.6068
150.405 286 16.9115
150.522 344 18.5472
150.64 353 18.7883
150.757 313 17.6918
150.875 376 19.3907
150.992 353 18.7883
151.11 329 18.1384
151.227 339 18.412
151.344 347 18.6279
151.462 324 18
151.579 351 18.735
151.697 334 18.2757
151.814 312 17.6635
151.932 265 16.2788
152.049 310 17.6068
152.167 302 17.3781
152.284 318 17.8326
152.402 341 18.4662
152.519 371 19.2614
152.636 341 18.4662
152.754 379 19.4679
152.871 365 19.105
152.989 348 18.6548
153.106 367 19.1572
153.223 292 17.088
153.341 277 16.6433
153.458 296 17.2047
153.575 263 16.2173
153.693 317 17.8045
153.81 281 16.7631
153.927 320 17.8885
154.044 316 17.7764
154.162 336 18.3303
154.279 337 18.3576
154.396 307 17.5214
154.513 329 18.1384
154.63 352 18.7617
154.747 372 19.2873
154.864 347 18.6279
154.981 343 18.5203
155.098 325 18.0278
155.215 282 16.7929
155.332 317 17.8045
155.449 322 17.9444
155.566 306 17.4929
155.683 261 16.1555
155.8 316 17.7764
155.917 305 17.4642
156.033 315 17.7482
156.15 0 1
156.267 0 1
156.383 0 1
156.5 0 1
156.617 0 1
156.733 0 1
156.85 0 1
156.966 0 1
157.082 0 1
157.199 0 1
157.315 0 1
157.431 0 1
157.547 0 1
157.664 0 1
157.78 0 1
157.896 0 1
158.012 0 1
158.128 0 1
158.244 0 1
158.359 0 1
158.475 0 1
158.591 0 1
158.706 0 1
