
6.15755 0 1
6.2731 0 1
6.3887 0 1
6.50437 0 1
6.62009 0 1
6.73587 0 1
6.8517 0 1
6.96759 0 1
7.08353 0 1
7.19952 0 1
7.31557 0 1
7.43166 0 1
7.54781 0 1
7.664 0 1
7.78024 0 1
7.89653 0 1
8.01286 0 1
8.12924 0 1
8.24567 0 1
8.36213 0 1
8.47864 0 1
8.59519 0 1
8.71178 0 1
8.82841 0 1
8.94508 0 1
9.06179 0 1
9.17853 0 1
9.29531 0 1
9.41212 0 1
9.52897 0 1
9.64584 0 1
9.76276 0 1
9.8797 0 1
9.99667 0 1
10.1137 0 1
10.2307 0 1
10.3478 0 1
10.4648 0 1
10.5819 0 1
10.6991 0 1
10.8162 0 1
10.9334 0 1
11.0506 0 1
11.1678 0 1
11.285 0 1
11.4023 0 1
11.5196 0 1
11.6369 0 1
11.7542 0 1
11.8715 0 1
11.9888 0 1
12.1062 0 1
12.2235 0 1
12.3409 0 1
12.4582 0 1
12.5756 0 1
12.693 0 1
12.8104 0 1
12.9278 0 1
13.0452 0 1
13.1626 0 1
13.28 0 1
13.3974 0 1
13.5149 0 1
13.6323 0 1
13.7497 0 1
13.8671 0 1
13.9845 0 1
14.1019 0 1
14.2193 0 1
14.3367 0 1
14.4541 0 1
14.5714 0 1
14.6888 0 1
14.8062 0 1
14.9235 0 1
15.0408 0 0
15.1581 0 0
15.2755 0 0
15.3927 0 0
15.51 0 0
15.6273 0 0
15.7445 0 0
15.8617 0 0
15.9789 0 0
16.0961 0 0
16.2132 0 0
16.3304 0 0
16.4475 0 0
16.5646 0 0
16.6816 0 0
16.7986 0 0
16.9156 0 0
17.0326 0 0
17.1496 0 0
17.2665 0 0
17.3833 0 0
17.5002 0 0
17.617 0 0
17.7338 0 0
17.8505 0 0
17.9672 0 0
18.0839 0 0
18.2005 0 0
18.3171 0 0
18.4337 0 0
18.5502 0 0
18.6666 0 0
18.7831 0 0
18.8994 0 0
19.0158 0 0
19.1321 0 0
19.2483 0 0
19.3645 0 0
19.4806 0 0
19.5967 0 0
19.7128 0 0
19.8288 0 0
19.9447 0 0
20.0606 0 1
20.1764 0 1
20.2922 0 1
20.4079 0 1
20.5236 0 1
20.6392 0 1
20.7548 0 1
20.8702 0 1
23.3078 0 1
23.4233 0 1
23.539 0 1
23.6547 0 1
23.7704 0 1
23.8862 0 1
24.0021 0 1
24.118 0 1
24.234 0 1
24.35 0 1
24.4661 39335 198.331
24.5822 38924 197.292
24.6984 38722 196.779
24.8146 39339 198.341
24.9309 39795 199.487
25.0472 40178 200.445
25.1636 41063 202.64
25.28 41534 203.799
25.3965 42155 205.317
25.513 42803 206.889
25.6296 43153 207.733
25.7462 44068 209.924
25.8628 43642 208.907
25.9795 43635 208.89
26.0962 43658 208.945
26.213 43803 209.292
26.3298 43710 209.069
26.4466 44477 210.896
26.5635 44930 211.967
26.6804 44796 211.651
26.7973 44435 210.796
26.9143 43596 208.797
27.0313 42774 206.819
27.1483 43161 207.752
27.2653 43075 207.545
27.3824 43648 208.921
27.4996 44006 209.776
27.6167 42632 206.475
27.7339 42044 205.046
27.8511 41049 202.606
27.9683 40506 201.261
28.0855 39344 198.353
28.2028 39246 198.106
28.3201 38166 195.361
28.4374 39081 197.689
28.5547 39860 199.65
28.6721 40753 201.874
28.7894 41543 203.821
28.9068 42012 204.968
29.0242 42061 205.088
29.1416 42796 206.872
29.259 42398 205.908
29.3764 42390 205.888
29.4939 42116 205.222
29.6113 42027 205.005
29.7288 42619 206.444
29.8463 43121 207.656
29.9638 43594 208.792
30.0812 44231 210.312
30.1987 44405 210.725
30.3162 43578 208.753
30.4337 43258 207.986
30.5512 42569 206.323
30.6687 41330 203.298
30.7862 42582 206.354
30.9037 42495 206.143
31.0212 42701 206.642
31.1387 42808 206.901
31.2562 41888 204.666
31.3737 40953 202.368
31.4912 39795 199.487
31.6087 39480 198.696
31.7262 39061 197.639
31.8436 38742 196.83
31.9611 39779 199.447
32.0785 39808 199.519
32.1959 40747 201.859
32.3134 41479 203.664
32.4308 41891 204.673
32.5482 41642 204.064
32.6655 41918 204.739
32.7829 41821 204.502
32.9002 41919 204.741
33.0176 41126 202.795
33.1349 40963 202.393
33.2522 41231 203.054
33.3694 41548 203.833
33.4867 42221 205.477
33.6039 42467 206.075
33.7211 43045 207.473
33.8383 43479 208.516
33.9554 43270 208.014
34.0725 42450 206.034
34.1896 41282 203.18
34.3067 40465 201.159
34.4237 40732 201.822
34.5407 41416 203.509
34.6577 41735 204.291
34.7746 40998 202.48
34.8915 40901 202.24
35.0084 39675 199.186
35.1252 39388 198.464
35.242 38716 196.764
35.3587 38424 196.02
35.4755 38405 195.972
35.5921 38725 196.787
35.7088 39018 197.53
35.8254 39955 199.887
35.9419 40050 200.125
36.0584 40167 200.417
36.1749 40400 200.998
36.2913 40526 201.311
36.4077 40520 201.296
36.524 40319 200.796
36.6403 40308 200.769
36.7565 40105 200.262
36.8727 40270 200.674
36.9889 40302 200.754
37.1049 40486 201.211
37.221 0 1
37.3369 0 1
37.4529 0 1
37.5687 0 1
37.6845 0 1
37.8003 0 1
37.916 0 1
38.0316 0 1
38.1472 0 1
40.5851 0 1
40.7008 0 1
40.8164 0 1
40.9322 0 1
41.048 0 1
41.1639 0 1
41.2798 0 1
41.3958 0 1
41.5118 0 1
41.6279 0 1
41.744 32920 181.439
41.8602 33751 183.714
41.9765 34129 184.74
42.0928 34255 185.081
42.2091 34427 185.545
42.3255 35005 187.096
42.4419 35256 187.766
42.5584 35735 189.037
42.675 35795 189.196
42.7915 35698 188.939
42.9081 35052 187.222
43.0248 34412 185.505
43.1415 33884 184.076
43.2582 34266 185.111
43.375 34396 185.462
43.4918 34994 187.067
43.6087 34238 185.035
43.7256 33632 183.39
43.8425 32876 181.317
43.9595 32086 179.126
44.0765 31393 177.181
44.1935 31156 176.511
44.3106 31283 176.87
44.4277 31793 178.306
44.5448 31530 177.567
44.6619 31740 178.157
44.7791 32000 178.885
44.8963 31431 177.288
45.0136 30872 175.704
45.1308 30739 175.325
45.2481 30411 174.387
45.3654 30002 173.211
45.4827 29595 172.032
45.6001 29675 172.264
45.7174 29288 171.137
45.8348 29717 172.386
45.9522 29652 172.198
46.0697 29416 171.511
46.1871 29526 171.831
46.3046 28989 170.262
46.422 29265 171.07
46.5395 28715 169.455
46.657 28008 167.356
46.7745 27389 165.496
46.892 27237 165.036
47.0096 27552 165.988
47.1271 28098 167.625
47.2446 27769 166.64
47.3622 26872 163.927
47.4797 26177 161.793
47.5973 25043 158.25
47.7149 24872 157.709
47.8324 24643 156.981
47.95 24667 157.057
48.0675 24421 156.272
48.1851 24692 157.137
48.3027 25209 158.773
48.4202 24849 157.636
48.5378 24546 156.672
48.6554 24401 156.208
48.7729 24157 155.425
48.8904 24158 155.428
49.008 24538 156.646
49.1255 24592 156.818
49.243 24944 157.937
49.3605 25242 158.877
49.478 25643 160.134
49.5955 26125 161.632
49.713 26780 163.646
49.8304 27240 165.045
49.9479 27738 166.547
50.0653 27583 166.081
50.1827 27694 166.415
50.3001 26809 163.735
50.4175 27661 166.316
50.5348 28251 168.08
50.6521 29987 173.168
50.7694 30436 174.459
50.8867 30848 175.636
51.004 30782 175.448
51.1212 31095 176.338
51.2384 31648 177.899
51.3556 32463 180.175
51.4727 33404 182.768
51.5899 34384 185.429
51.707 35045 187.203
51.824 35322 187.941
51.9411 35340 187.989
52.0581 35429 188.226
52.175 35809 189.233
52.2919 35059 187.24
52.4088 35191 187.593
52.5257 36113 190.034
52.6425 36059 189.892
52.7593 36642 191.421
52.876 37394 193.375
52.9927 37710 194.191
53.1094 38336 195.796
53.226 39142 197.843
53.3426 39751 199.377
53.4591 40819 202.037
53.5756 40851 202.116
53.692 41195 202.966
53.8084 40168 200.42
53.9248 39459 198.643
54.0411 39582 198.952
54.1573 40265 200.661
54.2735 0 1
54.3896 0 1
54.5057 0 1
54.6217 0 1
54.7377 0 1
54.8537 0 1
54.9695 0 1
55.0853 0 1
55.2011 0 1
55.3168 0 1
55.4324 0 1
57.824 0 1
57.9396 0 1
58.0553 0 1
58.1711 0 1
58.2869 0 1
58.4028 0 1
58.5187 0 1
58.6347 0 1
58.7508 0 1
58.8669 0 1
58.983 47989 219.064
59.0992 48004 219.098
59.2155 47618 218.215
59.3318 48422 220.05
59.4482 49222 221.86
59.5646 49411 222.286
59.681 49341 222.128
59.7975 48988 221.332
59.9141 49388 222.234
60.0306 49513 222.515
60.1473 49370 222.194
60.2639 49587 222.681
60.3807 49634 222.787
60.4974 49295 222.025
60.6142 48598 220.45
60.731 47769 218.561
60.8479 47999 219.087
60.9648 46781 216.289
61.0818 47317 217.525
61.1987 46872 216.499
61.3158 46808 216.352
61.4328 46981 216.751
61.5499 46546 215.745
61.667 46791 216.312
61.7841 47273 217.424
61.9013 47848 218.742
62.0185 48603 220.461
62.1357 48713 220.71
62.253 48702 220.685
62.3702 48198 219.54
62.4875 47094 217.012
62.6049 46780 216.287
62.7222 47683 218.364
62.8396 47923 218.913
62.9569 48498 220.223
63.0743 48487 220.198
63.1918 47733 218.479
63.3092 47750 218.518
63.4267 48847 221.014
63.5441 48509 220.248
63.6616 48654 220.577
63.7791 48302 219.777
63.8966 48129 219.383
64.0142 47367 217.64
64.1317 47595 218.163
64.2492 46908 216.583
64.3668 46335 215.256
64.4843 45744 213.878
64.6019 45688 213.748
64.7195 45793 213.993
64.837 45773 213.946
64.9546 45670 213.705
65.0722 45016 212.17
65.1898 45356 212.969
65.3074 46147 214.819
65.4249 46112 214.737
65.5425 46885 216.529
65.6601 46979 216.746
65.7777 47714 218.435
65.8952 47682 218.362
66.0128 47198 217.251
66.1304 45711 213.801
66.2479 45116 212.405
66.3655 46204 214.951
66.483 47630 218.243
66.6005 47972 219.025
66.718 47668 218.33
66.8355 47788 218.605
66.953 48919 221.176
67.0705 49161 221.723
67.1879 49336 222.117
67.3054 48837 220.991
67.4228 48487 220.198
67.5402 47872 218.797
67.6576 48072 219.253
67.7749 46820 216.379
67.8923 47969 219.018
68.0096 47636 218.257
68.1269 48158 219.449
68.2442 48305 219.784
68.3614 48401 220.002
68.4787 48389 219.975
68.5958 48651 220.57
68.713 48464 220.145
68.8302 48461 220.139
68.9473 48996 221.35
69.0643 48643 220.552
69.1814 49931 223.452
69.2984 50335 224.355
69.4154 51455 226.837
69.5323 52139 228.34
69.6492 52493 229.114
69.7661 51840 227.684
69.8829 49888 223.356
69.9997 50398 224.495
70.1165 51487 226.907
70.2332 52285 228.659
70.3499 51954 227.934
70.4665 52402 228.915
70.5831 52854 229.9
70.6996 53647 231.618
70.8161 53635 231.592
70.9326 52900 230
71.049 52642 229.438
71.1653 51814 227.627
71.2817 51337 226.577
71.3979 50348 224.384
71.5141 49377 222.209
71.6303 48771 220.842
71.7464 44777 211.606
71.8624 0 1
71.9784 0 1
72.0944 0 1
72.2102 0 1
72.3261 0 1
72.4418 0 1
72.5575 0 1
72.6732 0 1
75.1054 0 1
75.2209 0 1
75.3365 0 1
75.4521 0 1
75.5678 0 1
75.6835 0 1
75.7993 0 1
75.9151 0 1
76.031 0 1
76.147 50935 225.688
76.263 53887 232.136
76.3791 54751 233.989
76.4952 54327 233.082
76.6113 54828 234.154
76.7276 54225 232.863
76.8438 53536 231.378
76.9601 54259 232.936
77.0765 53920 232.207
77.1929 54912 234.333
77.3093 55605 235.807
77.4258 55264 235.083
77.5423 55833 236.29
77.6589 54697 233.874
77.7755 54015 232.411
77.8921 53942 232.254
78.0088 54368 233.169
78.1256 54104 232.603
78.2423 54899 234.305
78.3591 55100 234.734
78.4759 55496 235.576
78.5928 55929 236.493
78.7097 56616 237.941
78.8266 58376 241.611
78.9436 50211 224.078
79.0606 47628 218.238
79.1776 46832 216.407
79.2946 51417 226.753
79.4117 55668 235.941
79.5288 58205 241.257
79.6459 58457 241.779
79.7631 58343 241.543
79.8802 57151 239.063
79.9974 55928 236.491
80.1147 55035 234.595
80.2319 54619 233.707
80.3491 54636 233.743
80.4664 53584 231.482
80.5837 53467 231.229
80.701 53285 230.835
80.8183 53398 231.08
80.9357 54283 232.987
81.053 55661 235.926
81.1704 55652 235.907
81.2877 55051 234.629
81.4051 53496 231.292
81.5225 53667 231.661
81.6399 51900 227.816
81.7573 52744 229.661
81.8747 51890 227.794
81.9922 52499 229.127
82.1096 53680 231.689
82.227 54024 232.431
82.3444 54534 233.525
82.4619 55362 235.291
82.5793 52386 228.88
82.6967 48647 220.561
82.8142 44019 209.807
82.9316 47713 218.433
83.049 53098 230.43
83.1664 54695 233.87
83.2838 54257 232.931
83.4012 54055 232.497
83.5186 52434 228.985
83.636 51610 227.178
83.7534 50937 225.692
83.8708 50557 224.849
83.9881 49611 222.735
84.1055 50062 223.745
84.2228 49130 221.653
84.3401 49577 222.659
84.4575 50260 224.187
84.5747 51419 226.758
84.692 52593 229.332
84.8093 52595 229.336
84.9265 51566 227.081
85.0437 51091 226.033
85.1609 50414 224.531
85.2781 50251 224.167
85.3952 50043 223.703
85.5123 50119 223.873
85.6294 50970 225.765
85.7465 52015 228.068
85.8636 52666 229.491
85.9806 53639 231.601
86.0976 53986 232.349
86.2145 51278 226.446
86.3315 42521 206.206
86.4484 45618 213.584
86.5652 52237 228.554
86.682 56588 237.882
86.7988 56402 237.491
86.9156 56054 236.757
87.0323 54791 234.075
87.149 54127 232.652
87.2657 52977 230.167
87.3823 52904 230.009
87.4988 52091 228.235
87.6154 52237 228.554
87.7318 51721 227.423
87.8483 51593 227.141
87.9647 51655 227.277
88.081 53787 231.92
88.1973 54739 233.964
88.3136 55004 234.529
88.4298 54410 233.26
88.546 53052 230.33
88.6621 51664 227.297
88.7781 49676 222.881
88.8942 0 1
89.0101 0 1
89.126 0 1
89.2419 0 1
89.3577 0 1
89.4734 0 1
89.5891 0 1
89.7047 0 1
89.8203 0 1
89.9358 0 1
92.3269 0 1
92.4424 0 1
92.558 0 1
92.6736 0 1
92.7893 0 1
92.905 0 1
93.0208 0 1
93.1366 0 1
93.2525 0 1
93.3685 0 1
93.4845 0 1
93.6005 39045 197.598
93.7167 40959 202.383
93.8328 41891 204.673
93.949 42936 207.21
94.0653 42548 206.272
94.1816 43117 207.646
94.2979 43496 208.557
94.4143 43488 208.538
94.5307 44439 210.806
94.6472 44708 211.443
94.7637 45315 212.873
94.8803 47024 216.85
94.9969 48922 221.183
95.1135 50222 224.103
95.2302 50668 225.096
95.3469 49426 222.32
95.4637 44847 211.771
95.5805 41430 203.544
95.6973 47985 219.055
95.8142 54754 233.996
95.9311 56474 237.643
96.048 56228 237.124
96.1649 55316 235.194
96.2819 55061 234.651
96.3989 54840 234.179
96.516 54511 233.476
96.633 54116 232.628
96.7501 54354 233.139
96.8673 54205 232.82
96.9844 54190 232.787
97.1016 54688 233.855
97.2188 54783 234.058
97.336 56733 238.187
97.4532 57794 240.404
97.5704 57975 240.78
97.6877 57557 239.91
97.805 57358 239.495
97.9223 56618 237.945
98.0396 56602 237.912
98.1569 56709 238.137
98.2743 56271 237.215
98.3916 55936 236.508
98.509 56861 238.455
98.6264 57761 240.335
98.7438 57932 240.691
98.8612 57907 240.639
98.9786 55871 236.37
99.096 48605 220.465
99.2134 45735 213.857
99.3308 53365 231.009
99.4482 60669 246.311
99.5656 62171 249.341
99.6831 61323 247.635
99.8005 60158 245.271
99.9179 58636 242.149
100.035 58463 241.791
100.153 57107 238.971
100.27 56784 238.294
100.388 56139 236.937
100.505 55808 236.237
100.622 55592 235.78
100.74 55824 236.271
100.857 56359 237.401
100.975 57169 239.1
101.092 57099 238.954
101.209 56983 238.711
101.327 56353 237.388
101.444 55401 235.374
101.561 55540 235.669
101.679 55844 236.313
101.796 55278 235.113
101.913 55754 236.123
102.03 55122 234.781
102.148 54752 233.991
102.265 59002 242.903
102.382 53903 232.17
102.499 55158 234.857
102.616 50477 224.671
102.733 47815 218.666
102.851 51476 226.883
102.968 58004 240.84
103.085 60523 246.014
103.202 59761 244.461
103.319 59188 243.286
103.436 58068 240.973
103.552 57561 239.919
103.669 56332 237.344
103.786 56386 237.457
103.903 55656 235.915
104.02 55352 235.27
104.137 54916 234.342
104.253 56548 237.798
104.37 53994 232.366
104.487 57037 238.824
104.603 56566 237.836
104.72 55877 236.383
104.836 54675 233.827
104.953 53895 232.153
105.069 54114 232.624
105.186 53923 232.213
105.302 54618 233.705
105.418 54138 232.676
105.535 53268 230.799
105.651 52982 230.178
105.767 52590 229.325
105.883 51841 227.686
105.999 48393 219.984
106.115 0 1
106.231 0 1
106.347 0 1
106.463 0 1
106.579 0 1
106.694 0 1
106.81 0 1
106.926 0 1
107.041 0 1
107.157 0 1
109.576 0 1
109.692 0 1
109.807 0 1
109.923 0 1
110.039 0 1
110.155 0 1
110.27 0 1
110.386 0 1
110.502 0 1
110.618 36671 191.497
110.735 37291 193.109
110.851 37570 193.83
110.967 38690 196.698
111.083 38631 196.548
111.199 36773 191.763
111.316 35409 188.173
111.432 35616 188.722
111.549 37229 192.948
111.665 37328 193.205
111.782 35931 189.555
111.898 34986 187.045
112.015 34023 184.453
112.132 33397 182.748
112.248 31969 178.799
112.365 31415 177.243
112.482 30667 175.12
112.599 29263 171.064
112.716 29081 170.532
112.832 28825 169.779
112.949 28611 169.148
113.066 28628 169.198
113.183 28219 167.985
113.3 27776 166.661
113.417 26988 164.28
113.534 27031 164.411
113.652 27452 165.686
113.769 27640 166.253
113.886 27769 166.64
114.003 28408 168.547
114.12 27790 166.703
114.238 27301 165.23
114.355 26385 162.435
114.472 26742 163.53
114.589 28147 167.771
114.707 29683 172.288
114.824 30236 173.885
114.942 29764 172.522
115.059 29833 172.722
115.176 29744 172.464
115.294 29790 172.598
115.411 29162 170.769
115.529 28600 169.115
115.646 28075 167.556
115.764 28299 168.223
115.881 27631 166.226
115.999 27444 165.662
116.116 26972 164.232
116.234 26967 164.216
116.351 26281 162.114
116.469 27136 164.73
116.586 27349 165.375
116.704 27464 165.723
116.821 27245 165.061
116.939 27594 166.114
117.056 27721 166.496
117.174 28111 167.663
117.291 29101 170.59
117.409 29743 172.462
117.526 30312 174.103
117.644 30828 175.579
117.761 30287 174.032
117.879 28661 169.296
117.996 26349 162.324
118.114 27038 164.432
118.231 30372 174.276
118.349 32926 181.455
118.466 34717 186.325
118.584 35000 187.083
118.701 34963 186.984
118.819 34385 185.432
118.936 34088 184.629
119.053 33930 184.201
119.171 33371 182.677
119.288 33238 182.313
119.405 33273 182.409
119.523 32808 181.13
119.64 32840 181.218
119.757 32296 179.711
119.875 32348 179.855
119.992 31553 177.632
120.109 31414 177.24
120.226 31782 178.275
120.343 31689 178.014
120.46 31743 178.166
120.578 32246 179.572
120.695 32272 179.644
120.812 32806 181.124
120.929 33687 183.54
121.046 34345 185.324
121.163 34880 186.762
121.279 34721 186.336
121.396 34165 184.838
121.513 32200 179.444
121.63 29796 172.615
121.747 27596 166.12
121.863 29054 170.452
121.98 33669 183.491
122.097 36309 190.549
122.213 38945 197.345
122.33 39145 197.851
122.446 39037 197.578
122.563 37989 194.908
122.679 37986 194.9
122.795 38150 195.32
122.912 37888 194.648
123.028 37489 193.621
123.144 37546 193.768
123.26 37252 193.008
123.377 0 1
123.493 0 1
123.609 0 1
123.725 0 1
123.84 0 1
123.956 0 1
124.072 0 1
124.188 0 1
124.303 0 1
124.419 0 1
126.852 0 1
126.968 0 1
127.083 0 1
127.199 0 1
127.315 0 1
127.431 0 1
127.547 0 1
127.663 0 1
127.779 0 1
127.895 0 1
128.011 0 1
128.127 0 1
128.243 0 1
128.359 47018 216.836
128.476 46977 216.742
128.592 46479 215.59
128.708 47099 217.023
128.825 46358 215.309
128.941 46580 215.824
129.058 46107 214.725
129.174 46169 214.87
129.291 45877 214.189
129.408 45875 214.184
129.524 46233 215.019
129.641 46395 215.395
129.758 47645 218.277
129.875 47716 218.44
129.992 48349 219.884
130.108 47285 217.451
130.225 45911 214.269
130.342 43761 209.191
130.459 40126 200.315
130.576 39017 197.527
130.693 37188 192.842
130.81 38747 196.843
130.928 41848 204.568
131.045 46658 216.005
131.162 50840 225.477
131.279 51867 227.743
131.396 52134 228.329
131.513 52054 228.153
131.631 51985 228.002
131.748 51687 227.348
131.865 51158 226.181
131.983 50615 224.978
132.1 50601 224.947
132.217 50613 224.973
132.335 50628 225.007
132.452 49865 223.305
132.57 50140 223.92
132.687 48542 220.322
132.804 51602 227.161
132.922 49998 223.602
133.039 50077 223.779
133.157 50390 224.477
133.274 51036 225.911
133.392 51806 227.609
133.509 50994 225.819
133.627 51252 226.389
133.744 49898 223.379
133.862 47905 218.872
133.979 45532 213.382
134.097 43668 208.969
134.214 42927 207.188
134.332 41883 204.653
134.449 43870 209.452
134.567 46374 215.346
134.684 51178 226.226
134.802 54927 234.365
134.919 55901 236.434
135.037 56292 237.259
135.154 56979 238.703
135.272 56398 237.483
135.389 56105 236.865
135.507 56160 236.981
135.624 55813 236.248
135.742 55522 235.631
135.859 55674 235.953
135.977 55441 235.459
136.094 55456 235.491
136.211 54583 233.63
136.329 54923 234.357
136.446 54610 233.688
136.564 55198 234.943
136.681 56074 236.799
136.798 55410 235.393
136.915 56320 237.318
137.033 56564 237.832
137.15 55668 235.941
137.267 54384 233.204
137.384 52569 229.279
137.502 50277 224.225
137.619 47660 218.312
137.736 46673 216.039
137.853 44831 211.733
137.97 45698 213.771
138.087 48752 220.799
138.204 50178 224.004
138.321 53522 231.348
138.438 57705 240.219
138.555 59961 244.869
138.672 59970 244.888
138.788 59970 244.888
138.905 60613 246.197
139.022 60227 245.412
139.139 60406 245.776
139.255 60132 245.218
139.372 59798 244.536
139.488 59494 243.914
139.605 58950 242.796
139.721 59421 243.764
139.838 58956 242.809
139.954 58340 241.537
140.071 56987 238.72
140.187 58584 242.041
140.303 58137 241.116
140.419 57923 240.672
140.535 58188 241.222
140.652 57324 239.424
140.768 0 1
140.884 0 1
141 0 1
141.115 0 1
141.231 0 1
141.347 0 1
141.463 0 1
141.578 0 1
141.694 0 1
144.104 0 1
144.219 0 1
144.335 0 1
144.45 0 1
144.566 0 1
144.682 0 1
144.798 0 1
144.914 0 1
145.03 0 1
145.146 55063 234.655
145.262 56147 236.954
145.378 56220 237.108
145.494 56199 237.063
145.61 55803 236.227
145.726 55082 234.696
145.842 54084 232.56
145.959 51999 228.033
146.075 50281 224.234
146.192 48404 220.009
146.308 46480 215.592
146.425 46320 215.221
146.541 47484 217.908
146.658 48179 219.497
146.774 49637 222.794
146.891 50995 225.821
147.008 53239 230.736
147.125 55969 236.578
147.241 57660 240.125
147.358 58675 242.229
147.475 57773 240.36
147.592 57618 240.037
147.709 57466 239.721
147.826 57269 239.309
147.943 57016 238.78
148.06 56160 236.981
148.177 56053 236.755
148.294 56094 236.842
148.411 55821 236.265
148.528 55658 235.919
148.645 54830 234.158
148.762 55674 235.953
148.88 55228 235.006
148.997 53434 231.158
149.114 56834 238.399
149.231 54984 234.487
149.349 54272 232.964
149.466 52070 228.189
149.583 50640 225.033
149.701 49146 221.689
149.818 47575 218.117
149.935 46484 215.601
150.053 46211 214.967
150.17 47038 216.882
150.287 48365 219.92
150.405 49183 221.772
150.522 51196 226.265
150.64 53467 231.229
150.757 55323 235.208
150.875 56204 237.074
150.992 57832 240.483
151.11 56408 237.504
151.227 57008 238.763
151.344 56561 237.826
151.462 56416 237.521
151.579 56528 237.756
151.697 56946 238.634
151.814 56851 238.434
151.932 55668 235.941
152.049 56484 237.664
152.167 56303 237.283
152.284 56766 238.256
152.402 56873 238.481
152.519 56489 237.674
152.636 56559 237.821
152.754 56012 236.669
152.871 55658 235.919
152.989 54531 233.519
153.106 53132 230.504
153.223 51557 227.062
153.341 50087 223.801
153.458 49014 221.391
153.575 48424 220.055
153.693 49174 221.752
153.81 50401 224.502
153.927 51788 227.57
154.044 53039 230.302
154.162 55294 235.147
154.279 57677 240.16
154.396 59524 243.975
154.513 59920 244.786
154.63 61291 247.57
154.747 61883 248.763
154.864 61449 247.889
154.981 60861 246.7
155.098 60635 246.242
155.215 60065 245.082
155.332 60330 245.622
155.449 60018 244.986
155.566 60116 245.186
155.683 59582 244.094
155.8 59476 243.877
155.917 59826 244.594
156.033 60009 244.967
156.15 0 1
156.267 0 1
156.383 0 1
156.5 0 1
156.617 0 1
156.733 0 1
156.85 0 1
156.966 0 1
157.082 0 1
157.199 0 1
157.315 0 1
157.431 0 1
157.547 0 1
157.664 0 1
157.78 0 1
157.896 0 1
158.012 0 1
158.128 0 1
158.244 0 1
158.359 0 1
158.475 0 1
158.591 0 1
158.706 0 1
