
6.15755 0 1
6.2731 0 1
6.3887 0 1
6.50437 0 1
6.62009 0 1
6.73587 0 1
6.8517 0 1
6.96759 0 1
7.08353 0 1
7.19952 0 1
7.31557 0 1
7.43166 0 1
7.54781 0 1
7.664 0 1
7.78024 0 1
7.89653 0 1
8.01286 0 1
8.12924 0 1
8.24567 0 1
8.36213 0 1
8.47864 0 1
8.59519 0 1
8.71178 0 1
8.82841 0 1
8.94508 0 1
9.06179 0 1
9.17853 0 1
9.29531 0 1
9.41212 0 1
9.52897 0 1
9.64584 0 1
9.76276 0 1
9.8797 0 1
9.99667 0 1
10.1137 0 1
10.2307 0 1
10.3478 0 1
10.4648 0 1
10.5819 0 1
10.6991 0 1
10.8162 0 1
10.9334 0 1
11.0506 0 1
11.1678 0 1
11.285 0 1
11.4023 0 1
11.5196 0 1
11.6369 0 1
11.7542 0 1
11.8715 0 1
11.9888 0 1
12.1062 0 1
12.2235 0 1
12.3409 0 1
12.4582 0 1
12.5756 0 1
12.693 0 1
12.8104 0 1
12.9278 0 1
13.0452 0 1
13.1626 0 1
13.28 0 1
13.3974 0 1
13.5149 0 1
13.6323 0 1
13.7497 0 1
13.8671 0 1
13.9845 0 1
14.1019 0 1
14.2193 0 1
14.3367 0 1
14.4541 0 1
14.5714 0 1
14.6888 0 1
14.8062 0 1
14.9235 0 1
15.0408 0 0
15.1581 0 0
15.2755 0 0
15.3927 0 0
15.51 0 0
15.6273 0 0
15.7445 0 0
15.8617 0 0
15.9789 0 0
16.0961 0 0
16.2132 0 0
16.3304 0 0
16.4475 0 0
16.5646 0 0
16.6816 0 0
16.7986 0 0
16.9156 0 0
17.0326 0 0
17.1496 0 0
17.2665 0 0
17.3833 0 0
17.5002 0 0
17.617 0 0
17.7338 0 0
17.8505 0 0
17.9672 0 0
18.0839 0 0
18.2005 0 0
18.3171 0 0
18.4337 0 0
18.5502 0 0
18.6666 0 0
18.7831 0 0
18.8994 0 0
19.0158 0 0
19.1321 0 0
19.2483 0 0
19.3645 0 0
19.4806 0 0
19.5967 0 0
19.7128 0 0
19.8288 0 0
19.9447 0 0
20.0606 0 1
20.1764 0 1
20.2922 0 1
20.4079 0 1
20.5236 0 1
20.6392 0 1
20.7548 0 1
20.8702 0 1
23.3078 0 1
23.4233 0 1
23.539 0 1
23.6547 0 1
23.7704 0 1
23.8862 0 1
24.0021 0 1
24.118 0 1
24.234 0 1
24.35 0 1
24.4661 1205 34.7131
24.5822 1211 34.7994
24.6984 1231 35.0856
24.8146 1141 33.7787
24.9309 1199 34.6266
25.0472 1238 35.1852
25.1636 1325 36.4005
25.28 1254 35.4119
25.3965 1265 35.5668
25.513 1290 35.9166
25.6296 1331 36.4829
25.7462 1419 37.6696
25.8628 1377 37.108
25.9795 1437 37.9078
26.0962 1393 37.3229
26.213 1408 37.5233
26.3298 1369 37
26.4466 1482 38.4968
26.5635 1409 37.5366
26.6804 1297 36.0139
26.7973 1327 36.428
26.9143 1239 35.1994
27.0313 1337 36.565
27.1483 1393 37.3229
27.2653 1481 38.4838
27.3824 1447 38.0395
27.4996 1434 37.8682
27.6167 1346 36.6879
27.7339 1445 38.0132
27.8511 1357 36.8375
27.9683 1389 37.2693
28.0855 1399 37.4032
28.2028 1402 37.4433
28.3201 1344 36.6606
28.4374 1381 37.1618
28.5547 1338 36.5787
28.6721 1326 36.4143
28.7894 1392 37.3095
28.9068 1381 37.1618
29.0242 1389 37.2693
29.1416 1431 37.8286
29.259 1429 37.8021
29.3764 1521 39
29.4939 1430 37.8153
29.6113 1489 38.5876
29.7288 1519 38.9744
29.8463 1543 39.281
29.9638 1475 38.4057
30.0812 1478 38.4448
30.1987 1411 37.5633
30.3162 1285 35.8469
30.4337 1202 34.6699
30.5512 1283 35.819
30.6687 1335 36.5377
30.7862 1404 37.47
30.9037 1373 37.054
31.0212 1449 38.0657
31.1387 1371 37.027
31.2562 1387 37.2424
31.3737 1331 36.4829
31.4912 1335 36.5377
31.6087 1309 36.1801
31.7262 1378 37.1214
31.8436 1282 35.805
31.9611 1302 36.0832
32.0785 1247 35.3129
32.1959 1236 35.1568
32.3134 1207 34.7419
32.4308 1209 34.7707
32.5482 1235 35.1426
32.6655 1274 35.6931
32.7829 1202 34.6699
32.9002 1286 35.8608
33.0176 1274 35.6931
33.1349 1299 36.0416
33.2522 1310 36.1939
33.3694 1344 36.6606
33.4867 1359 36.8646
33.6039 1285 35.8469
33.7211 1355 36.8103
33.8383 1253 35.3977
33.9554 1255 35.426
34.0725 1115 33.3916
34.1896 1145 33.8378
34.3067 1200 34.641
34.4237 1151 33.9264
34.5407 1286 35.8608
34.6577 1254 35.4119
34.7746 1222 34.9571
34.8915 1206 34.7275
35.0084 1129 33.6006
35.1252 1145 33.8378
35.242 1222 34.9571
35.3587 1202 34.6699
35.4755 1203 34.6843
35.5921 1229 35.0571
35.7088 1210 34.7851
35.8254 1173 34.2491
35.9419 1169 34.1906
36.0584 1161 34.0735
36.1749 1139 33.7491
36.2913 1090 33.0151
36.4077 1199 34.6266
36.524 1213 34.8281
36.6403 1219 34.9142
36.7565 1230 35.0714
36.8727 1243 35.2562
36.9889 1251 35.3695
37.1049 1232 35.0999
37.221 0 1
37.3369 0 1
37.4529 0 1
37.5687 0 1
37.6845 0 1
37.8003 0 1
37.916 0 1
38.0316 0 1
38.1472 0 1
40.5851 0 1
40.7008 0 1
40.8164 0 1
40.9322 0 1
41.048 0 1
41.1639 0 1
41.2798 0 1
41.3958 0 1
41.5118 0 1
41.6279 0 1
41.744 980 31.305
41.8602 1031 32.1092
41.9765 996 31.5595
42.0928 1084 32.9242
42.2091 1047 32.3574
42.3255 1067 32.665
42.4419 1063 32.6037
42.5584 1010 31.7805
42.675 990 31.4643
42.7915 967 31.0966
42.9081 880 29.6648
43.0248 901 30.0167
43.1415 972 31.1769
43.2582 968 31.1127
43.375 1055 32.4808
43.4918 1042 32.28
43.6087 910 30.1662
43.7256 923 30.3809
43.8425 913 30.2159
43.9595 927 30.4467
44.0765 850 29.1548
44.1935 873 29.5466
44.3106 846 29.0861
44.4277 878 29.6311
44.5448 895 29.9166
44.6619 822 28.6705
44.7791 798 28.2489
44.8963 813 28.5132
45.0136 803 28.3373
45.1308 842 29.0172
45.2481 772 27.7849
45.3654 825 28.7228
45.4827 827 28.7576
45.6001 849 29.1376
45.7174 812 28.4956
45.8348 822 28.6705
45.9522 810 28.4605
46.0697 817 28.5832
46.1871 828 28.775
46.3046 802 28.3196
46.422 771 27.7669
46.5395 661 25.7099
46.657 713 26.7021
46.7745 718 26.7955
46.892 728 26.9815
47.0096 787 28.0535
47.1271 784 28
47.2446 770 27.7489
47.3622 699 26.4386
47.4797 675 25.9808
47.5973 685 26.1725
47.7149 687 26.2107
47.8324 663 25.7488
47.95 723 26.8887
48.0675 630 25.0998
48.1851 663 25.7488
48.3027 636 25.219
48.4202 604 24.5764
48.5378 644 25.3772
48.6554 651 25.5147
48.7729 663 25.7488
48.8904 724 26.9072
49.008 625 25
49.1255 652 25.5343
49.243 647 25.4362
49.3605 654 25.5734
49.478 689 26.2488
49.5955 648 25.4558
49.713 652 25.5343
49.8304 629 25.0799
49.9479 561 23.6854
50.0653 529 23
50.1827 590 24.2899
50.3001 650 25.4951
50.4175 679 26.0576
50.5348 686 26.1916
50.6521 726 26.9444
50.7694 719 26.8142
50.8867 690 26.2679
51.004 651 25.5147
51.1212 666 25.807
51.2384 740 27.2029
51.3556 774 27.8209
51.4727 793 28.1603
51.5899 747 27.3313
51.707 777 27.8747
51.824 749 27.3679
51.9411 768 27.7128
52.0581 830 28.8097
52.175 843 29.0345
52.2919 850 29.1548
52.4088 926 30.4302
52.5257 958 30.9516
52.6425 984 31.3688
52.7593 922 30.3645
52.876 943 30.7083
52.9927 962 31.0161
53.1094 966 31.0805
53.226 1012 31.8119
53.3426 976 31.241
53.4591 896 29.9333
53.5756 909 30.1496
53.692 802 28.3196
53.8084 918 30.2985
53.9248 933 30.545
54.0411 954 30.8869
54.1573 1016 31.8748
54.2735 0 1
54.3896 0 1
54.5057 0 1
54.6217 0 1
54.7377 0 1
54.8537 0 1
54.9695 0 1
55.0853 0 1
55.2011 0 1
55.3168 0 1
55.4324 0 1
57.824 0 1
57.9396 0 1
58.0553 0 1
58.1711 0 1
58.2869 0 1
58.4028 0 1
58.5187 0 1
58.6347 0 1
58.7508 0 1
58.8669 0 1
58.983 1041 32.2645
59.0992 1092 33.0454
59.2155 1171 34.2199
59.3318 1165 34.1321
59.4482 1199 34.6266
59.5646 1200 34.641
59.681 1133 33.6601
59.7975 1152 33.9411
59.9141 1078 32.8329
60.0306 1094 33.0757
60.1473 1024 32
60.2639 1068 32.6803
60.3807 1108 33.2866
60.4974 1088 32.9848
60.6142 1049 32.3883
60.731 1073 32.7567
60.8479 1044 32.311
60.9648 1071 32.7261
61.0818 1054 32.4654
61.1987 1103 33.2114
61.3158 1131 33.6303
61.4328 1085 32.9393
61.5499 1101 33.1813
61.667 1079 32.8481
61.7841 1066 32.6497
61.9013 1125 33.541
62.0185 1013 31.8277
62.1357 932 30.5287
62.253 911 30.1828
62.3702 931 30.5123
62.4875 955 30.9031
62.6049 1001 31.6386
62.7222 1025 32.0156
62.8396 1078 32.8329
62.9569 1108 33.2866
63.0743 1061 32.573
63.1918 1063 32.6037
63.3092 1017 31.8904
63.4267 983 31.3528
63.5441 999 31.607
63.6616 1004 31.686
63.7791 919 30.315
63.8966 938 30.6268
64.0142 950 30.8221
64.1317 1022 31.9687
64.2492 915 30.249
64.3668 976 31.241
64.4843 964 31.0483
64.6019 1021 31.9531
64.7195 1045 32.3265
64.837 1011 31.7962
64.9546 985 31.3847
65.0722 992 31.496
65.1898 1010 31.7805
65.3074 1065 32.6343
65.4249 937 30.6105
65.5425 924 30.3974
65.6601 886 29.7658
65.7777 918 30.2985
65.8952 860 29.3258
66.0128 902 30.0333
66.1304 920 30.3315
66.2479 948 30.7896
66.3655 1038 32.218
66.483 1058 32.5269
66.6005 1011 31.7962
66.718 1053 32.45
66.8355 972 31.1769
66.953 944 30.7246
67.0705 906 30.0998
67.1879 885 29.7489
67.3054 903 30.05
67.4228 861 29.3428
67.5402 890 29.8329
67.6576 907 30.1164
67.7749 964 31.0483
67.8923 941 30.6757
68.0096 926 30.4302
68.1269 967 31.0966
68.2442 995 31.5436
68.3614 1062 32.5883
68.4787 983 31.3528
68.5958 985 31.3847
68.713 1067 32.665
68.8302 992 31.496
68.9473 1089 33
69.0643 1045 32.3265
69.1814 983 31.3528
69.2984 1021 31.9531
69.4154 912 30.1993
69.5323 974 31.209
69.6492 954 30.8869
69.7661 947 30.7734
69.8829 1092 33.0454
69.9997 1111 33.3317
70.1165 1146 33.8526
70.2332 1145 33.8378
70.3499 1139 33.7491
70.4665 1158 34.0294
70.5831 1018 31.9061
70.6996 1039 32.2335
70.8161 1000 31.6228
70.9326 984 31.3688
71.049 1010 31.7805
71.1653 934 30.5614
71.2817 935 30.5778
71.3979 1008 31.749
71.5141 938 30.6268
71.6303 950 30.8221
71.7464 907 30.1164
71.8624 0 1
71.9784 0 1
72.0944 0 1
72.2102 0 1
72.3261 0 1
72.4418 0 1
72.5575 0 1
72.6732 0 1
75.1054 0 1
75.2209 0 1
75.3365 0 1
75.4521 0 1
75.5678 0 1
75.6835 0 1
75.7993 0 1
75.9151 0 1
76.031 0 1
76.147 893 29.8831
76.263 884 29.7321
76.3791 971 31.1609
76.4952 1040 32.249
76.6113 1061 32.573
76.7276 1005 31.7017
76.8438 1032 32.1248
76.9601 1023 31.9844
77.0765 1051 32.4191
77.1929 1066 32.6497
77.3093 1183 34.3948
77.4258 1122 33.4963
77.5423 1148 33.8821
77.6589 1075 32.7872
77.7755 1111 33.3317
77.8921 1152 33.9411
78.0088 1048 32.3728
78.1256 984 31.3688
78.2423 981 31.3209
78.3591 953 30.8707
78.4759 876 29.5973
78.5928 891 29.8496
78.7097 965 31.0644
78.8266 1024 32
78.9436 1096 33.1059
79.0606 1080 32.8634
79.1776 1075 32.7872
79.2946 1130 33.6155
79.4117 1110 33.3167
79.5288 1116 33.4066
79.6459 998 31.5911
79.7631 920 30.3315
79.8802 880 29.6648
79.9974 837 28.931
80.1147 898 29.9666
80.2319 907 30.1164
80.3491 948 30.7896
80.4664 983 31.3528
80.5837 993 31.5119
80.701 979 31.289
80.8183 1064 32.619
80.9357 968 31.1127
81.053 983 31.3528
81.1704 993 31.5119
81.2877 1011 31.7962
81.4051 943 30.7083
81.5225 990 31.4643
81.6399 986 31.4006
81.7573 932 30.5287
81.8747 850 29.1548
81.9922 885 29.7489
82.1096 853 29.2062
82.227 849 29.1376
82.3444 883 29.7153
82.4619 917 30.282
82.5793 945 30.7409
82.6967 953 30.8707
82.8142 987 31.4166
82.9316 995 31.5436
83.049 984 31.3688
83.1664 944 30.7246
83.2838 933 30.545
83.4012 857 29.2746
83.5186 756 27.4955
83.636 702 26.4953
83.7534 763 27.6225
83.8708 792 28.1425
83.9881 878 29.6311
84.1055 867 29.4449
84.2228 926 30.4302
84.3401 901 30.0167
84.4575 964 31.0483
84.5747 898 29.9666
84.692 1009 31.7648
84.8093 990 31.4643
84.9265 946 30.7571
85.0437 952 30.8545
85.1609 919 30.315
85.2781 916 30.2655
85.3952 892 29.8664
85.5123 861 29.3428
85.6294 830 28.8097
85.7465 860 29.3258
85.8636 890 29.8329
85.9806 958 30.9516
86.0976 992 31.496
86.2145 1044 32.311
86.3315 1117 33.4215
86.4484 1052 32.4345
86.5652 1108 33.2866
86.682 1111 33.3317
86.7988 1030 32.0936
86.9156 1028 32.0624
87.0323 1013 31.8277
87.149 930 30.4959
87.2657 879 29.6479
87.3823 927 30.4467
87.4988 999 31.607
87.6154 1067 32.665
87.7318 1129 33.6006
87.8483 1075 32.7872
87.9647 1112 33.3467
88.081 1207 34.7419
88.1973 1215 34.8569
88.3136 1208 34.7563
88.4298 1206 34.7275
88.546 1073 32.7567
88.6621 1100 33.1662
88.7781 1095 33.0908
88.8942 0 1
89.0101 0 1
89.126 0 1
89.2419 0 1
89.3577 0 1
89.4734 0 1
89.5891 0 1
89.7047 0 1
89.8203 0 1
89.9358 0 1
92.3269 0 1
92.4424 0 1
92.558 0 1
92.6736 0 1
92.7893 0 1
92.905 0 1
93.0208 0 1
93.1366 0 1
93.2525 0 1
93.3685 0 1
93.4845 0 1
93.6005 1108 33.2866
93.7167 1180 34.3511
93.8328 1137 33.7194
93.949 1164 34.1174
94.0653 1153 33.9559
94.1816 1177 34.3074
94.2979 1116 33.4066
94.4143 992 31.496
94.5307 1054 32.4654
94.6472 993 31.5119
94.7637 960 30.9839
94.8803 1031 32.1092
94.9969 1098 33.1361
95.1135 1146 33.8526
95.2302 1147 33.8674
95.3469 1157 34.0147
95.4637 1267 35.5949
95.5805 1219 34.9142
95.6973 1243 35.2562
95.8142 1233 35.1141
95.9311 1191 34.5109
96.048 1178 34.322
96.1649 1128 33.5857
96.2819 1033 32.1403
96.3989 868 29.4618
96.516 871 29.5127
96.633 1007 31.7333
96.7501 1006 31.7175
96.8673 1146 33.8526
96.9844 1178 34.322
97.1016 1175 34.2783
97.2188 1166 34.1467
97.336 1194 34.5543
97.4532 1181 34.3657
97.5704 1164 34.1174
97.6877 1138 33.7343
97.805 1151 33.9264
97.9223 1113 33.3617
98.0396 942 30.692
98.1569 965 31.0644
98.2743 998 31.5911
98.3916 985 31.3847
98.509 997 31.5753
98.6264 1079 32.8481
98.7438 1075 32.7872
98.8612 1168 34.176
98.9786 1194 34.5543
99.096 1203 34.6843
99.2134 1262 35.5246
99.3308 1214 34.8425
99.4482 1265 35.5668
99.5656 1269 35.623
99.6831 1144 33.8231
99.8005 1114 33.3766
99.9179 1026 32.0312
100.035 952 30.8545
100.153 993 31.5119
100.27 1127 33.5708
100.388 1144 33.8231
100.505 1098 33.1361
100.622 1131 33.6303
100.74 1194 34.5543
100.857 1088 32.9848
100.975 1184 34.4093
101.092 1217 34.8855
101.209 1175 34.2783
101.327 1195 34.5688
101.444 1124 33.5261
101.561 1097 33.121
101.679 1058 32.5269
101.796 1023 31.9844
101.913 1001 31.6386
102.03 1077 32.8177
102.148 1066 32.6497
102.265 1116 33.4066
102.382 1239 35.1994
102.499 1262 35.5246
102.616 1250 35.3553
102.733 1273 35.6791
102.851 1328 36.4417
102.968 1214 34.8425
103.085 1282 35.805
103.202 1224 34.9857
103.319 1160 34.0588
103.436 1094 33.0757
103.552 1022 31.9687
103.669 938 30.6268
103.786 1112 33.3467
103.903 1166 34.1467
104.02 1265 35.5668
104.137 1114 33.3766
104.253 1244 35.2704
104.37 1244 35.2704
104.487 1303 36.0971
104.603 1335 36.5377
104.72 1278 35.7491
104.836 1216 34.8712
104.953 1188 34.4674
105.069 1086 32.9545
105.186 1115 33.3916
105.302 1072 32.7414
105.418 1056 32.4962
105.535 1173 34.2491
105.651 1277 35.7351
105.767 1356 36.8239
105.883 1282 35.805
105.999 1368 36.9865
106.115 0 1
106.231 0 1
106.347 0 1
106.463 0 1
106.579 0 1
106.694 0 1
106.81 0 1
106.926 0 1
107.041 0 1
107.157 0 1
109.576 0 1
109.692 0 1
109.807 0 1
109.923 0 1
110.039 0 1
110.155 0 1
110.27 0 1
110.386 0 1
110.502 0 1
110.618 1116 33.4066
110.735 1134 33.6749
110.851 1258 35.4683
110.967 1245 35.2846
111.083 1319 36.318
111.199 1270 35.6371
111.316 1357 36.8375
111.432 1320 36.3318
111.549 1311 36.2077
111.665 1349 36.7287
111.782 1188 34.4674
111.898 1222 34.9571
112.015 1095 33.0908
112.132 983 31.3528
112.248 1048 32.3728
112.365 1090 33.0151
112.482 1095 33.0908
112.599 1215 34.8569
112.716 1257 35.4542
112.832 1214 34.8425
112.949 1203 34.6843
113.066 1222 34.9571
113.183 1220 34.9285
113.3 1230 35.0714
113.417 1256 35.4401
113.534 1063 32.6037
113.652 1035 32.1714
113.769 975 31.225
113.886 923 30.3809
114.003 1037 32.2025
114.12 1110 33.3167
114.238 1183 34.3948
114.355 1199 34.6266
114.472 1210 34.7851
114.589 1198 34.6121
114.707 1187 34.4529
114.824 1286 35.8608
114.942 1277 35.7351
115.059 1214 34.8425
115.176 1262 35.5246
115.294 1225 35
115.411 1162 34.0881
115.529 1120 33.4664
115.646 1000 31.6228
115.764 985 31.3847
115.881 1024 32
115.999 1133 33.6601
116.116 1161 34.0735
116.234 1220 34.9285
116.351 1177 34.3074
116.469 1133 33.6601
116.586 1229 35.0571
116.704 1217 34.8855
116.821 1217 34.8855
116.939 1154 33.9706
117.056 1088 32.9848
117.174 1032 32.1248
117.291 1022 31.9687
117.409 995 31.5436
117.526 921 30.348
117.644 1035 32.1714
117.761 1139 33.7491
117.879 1205 34.7131
117.996 1239 35.1994
118.114 1317 36.2905
118.231 1202 34.6699
118.349 1245 35.2846
118.466 1254 35.4119
118.584 1328 36.4417
118.701 1298 36.0278
118.819 1346 36.6879
118.936 1218 34.8999
119.053 1201 34.6554
119.171 1085 32.9393
119.288 969 31.1288
119.405 938 30.6268
119.523 1024 32
119.64 1100 33.1662
119.757 1128 33.5857
119.875 1188 34.4674
119.992 1179 34.3366
120.109 1181 34.3657
120.226 1154 33.9706
120.343 1176 34.2929
120.46 1238 35.1852
120.578 1104 33.2265
120.695 1155 33.9853
120.812 1079 32.8481
120.929 1037 32.2025
121.046 949 30.8058
121.163 979 31.289
121.279 1006 31.7175
121.396 1074 32.7719
121.513 1168 34.176
121.63 1307 36.1525
121.747 1197 34.5977
121.863 1234 35.1283
121.98 1230 35.0714
122.097 1177 34.3074
122.213 1147 33.8674
122.33 1199 34.6266
122.446 1173 34.2491
122.563 1160 34.0588
122.679 1171 34.2199
122.795 1157 34.0147
122.912 1016 31.8748
123.028 963 31.0322
123.144 873 29.5466
123.26 892 29.8664
123.377 0 1
123.493 0 1
123.609 0 1
123.725 0 1
123.84 0 1
123.956 0 1
124.072 0 1
124.188 0 1
124.303 0 1
124.419 0 1
126.852 0 1
126.968 0 1
127.083 0 1
127.199 0 1
127.315 0 1
127.431 0 1
127.547 0 1
127.663 0 1
127.779 0 1
127.895 0 1
128.011 0 1
128.127 0 1
128.243 0 1
128.359 1001 31.6386
128.476 946 30.7571
128.592 1073 32.7567
128.708 1181 34.3657
128.825 1272 35.6651
128.941 1220 34.9285
129.058 1331 36.4829
129.174 1274 35.6931
129.291 1222 34.9571
129.408 1236 35.1568
129.524 1218 34.8999
129.641 1239 35.1994
129.758 1166 34.1467
129.875 1125 33.541
129.992 1019 31.9218
130.108 1115 33.3916
130.225 1098 33.1361
130.342 1175 34.2783
130.459 1216 34.8712
130.576 1310 36.1939
130.693 1288 35.8887
130.81 1285 35.8469
130.928 1253 35.3977
131.045 1248 35.327
131.162 1336 36.5513
131.279 1318 36.3043
131.396 1338 36.5787
131.513 1311 36.2077
131.631 1252 35.3836
131.748 1137 33.7194
131.865 1036 32.187
131.983 1031 32.1092
132.1 1079 32.8481
132.217 1237 35.171
132.335 1257 35.4542
132.452 1341 36.6197
132.57 1265 35.5668
132.687 1315 36.2629
132.804 1318 36.3043
132.922 1330 36.4692
133.039 1278 35.7491
133.157 1215 34.8569
133.274 1154 33.9706
133.392 1130 33.6155
133.509 1103 33.2114
133.627 1067 32.665
133.744 1111 33.3317
133.862 1126 33.5559
133.979 1225 35
134.097 1234 35.1283
134.214 1274 35.6931
134.332 1280 35.7771
134.449 1361 36.8917
134.567 1263 35.5387
134.684 1269 35.623
134.802 1373 37.054
134.919 1269 35.623
135.037 1303 36.0971
135.154 1240 35.2136
135.272 1186 34.4384
135.389 1138 33.7343
135.507 1027 32.0468
135.624 1084 32.9242
135.742 1180 34.3511
135.859 1268 35.609
135.977 1200 34.641
136.094 1299 36.0416
136.211 1300 36.0555
136.329 1221 34.9428
136.446 1228 35.0428
136.564 1305 36.1248
136.681 1210 34.7851
136.798 1225 35
136.915 1170 34.2053
137.033 1098 33.1361
137.15 1137 33.7194
137.267 1054 32.4654
137.384 1070 32.7109
137.502 1079 32.8481
137.619 1224 34.9857
137.736 1245 35.2846
137.853 1191 34.5109
137.97 1283 35.819
138.087 1268 35.609
138.204 1303 36.0971
138.321 1311 36.2077
138.438 1308 36.1663
138.555 1296 36
138.672 1317 36.2905
138.788 1254 35.4119
138.905 1283 35.819
139.022 1136 33.7046
139.139 1035 32.1714
139.255 1093 33.0606
139.372 1173 34.2491
139.488 1189 34.4819
139.605 1301 36.0694
139.721 1313 36.2353
139.838 1297 36.0139
139.954 1383 37.1887
140.071 1315 36.2629
140.187 1236 35.1568
140.303 1281 35.7911
140.419 1238 35.1852
140.535 1143 33.8083
140.652 1134 33.6749
140.768 0 1
140.884 0 1
141 0 1
141.115 0 1
141.231 0 1
141.347 0 1
141.463 0 1
141.578 0 1
141.694 0 1
144.104 0 1
144.219 0 1
144.335 0 1
144.45 0 1
144.566 0 1
144.682 0 1
144.798 0 1
144.914 0 1
145.03 0 1
145.146 928 30.4631
145.262 1014 31.8434
145.378 936 30.5941
145.494 962 31.0161
145.61 964 31.0483
145.726 937 30.6105
145.842 898 29.9666
145.959 885 29.7489
146.075 862 29.3598
146.192 880 29.6648
146.308 875 29.5804
146.425 930 30.4959
146.541 933 30.545
146.658 1014 31.8434
146.774 1042 32.28
146.891 1088 32.9848
147.008 1038 32.218
147.125 988 31.4325
147.241 1067 32.665
147.358 1052 32.4345
147.475 1015 31.8591
147.592 1083 32.909
147.709 1035 32.1714
147.826 892 29.8664
147.943 902 30.0333
148.06 785 28.0179
148.177 842 29.0172
148.294 933 30.545
148.411 1017 31.8904
148.528 1007 31.7333
148.645 1014 31.8434
148.762 1030 32.0936
148.88 1045 32.3265
148.997 980 31.305
149.114 1103 33.2114
149.231 1015 31.8591
149.349 1045 32.3265
149.466 980 31.305
149.583 992 31.496
149.701 906 30.0998
149.818 917 30.282
149.935 852 29.189
150.053 867 29.4449
150.17 937 30.6105
150.287 991 31.4802
150.405 1053 32.45
150.522 985 31.3847
150.64 1042 32.28
150.757 1110 33.3167
150.875 1067 32.665
150.992 1066 32.6497
151.11 1049 32.3883
151.227 1111 33.3317
151.344 1048 32.3728
151.462 1063 32.6037
151.579 1006 31.7175
151.697 943 30.7083
151.814 847 29.1033
151.932 870 29.4958
152.049 978 31.273
152.167 1003 31.6702
152.284 1058 32.5269
152.402 1102 33.1964
152.519 1087 32.9697
152.636 1071 32.7261
152.754 1097 33.121
152.871 1091 33.0303
152.989 1098 33.1361
153.106 980 31.305
153.223 952 30.8545
153.341 921 30.348
153.458 964 31.0483
153.575 926 30.4302
153.693 987 31.4166
153.81 1021 31.9531
153.927 1006 31.7175
154.044 1045 32.3265
154.162 1098 33.1361
154.279 1180 34.3511
154.396 1092 33.0454
154.513 1173 34.2491
154.63 1118 33.4365
154.747 1194 34.5543
154.864 1118 33.4365
154.981 1167 34.1614
155.098 1098 33.1361
155.215 1101 33.1813
155.332 1003 31.6702
155.449 1021 31.9531
155.566 1022 31.9687
155.683 1130 33.6155
155.8 1145 33.8378
155.917 1150 33.9116
156.033 1155 33.9853
156.15 0 1
156.267 0 1
156.383 0 1
156.5 0 1
156.617 0 1
156.733 0 1
156.85 0 1
156.966 0 1
157.082 0 1
157.199 0 1
157.315 0 1
157.431 0 1
157.547 0 1
157.664 0 1
157.78 0 1
157.896 0 1
158.012 0 1
158.128 0 1
158.244 0 1
158.359 0 1
158.475 0 1
158.591 0 1
158.706 0 1
