
6.15755 0 1
6.2731 0 1
6.3887 0 1
6.50437 0 1
6.62009 0 1
6.73587 0 1
6.8517 0 1
6.96759 0 1
7.08353 0 1
7.19952 0 1
7.31557 0 1
7.43166 0 1
7.54781 0 1
7.664 0 1
7.78024 0 1
7.89653 0 1
8.01286 0 1
8.12924 0 1
8.24567 0 1
8.36213 0 1
8.47864 0 1
8.59519 0 1
8.71178 0 1
8.82841 0 1
8.94508 0 1
9.06179 0 1
9.17853 0 1
9.29531 0 1
9.41212 0 1
9.52897 0 1
9.64584 0 1
9.76276 0 1
9.8797 0 1
9.99667 0 1
10.1137 0 1
10.2307 0 1
10.3478 0 1
10.4648 0 1
10.5819 0 1
10.6991 0 1
10.8162 0 1
10.9334 0 1
11.0506 0 1
11.1678 0 1
11.285 0 1
11.4023 0 1
11.5196 0 1
11.6369 0 1
11.7542 0 1
11.8715 0 1
11.9888 0 1
12.1062 0 1
12.2235 0 1
12.3409 0 1
12.4582 0 1
12.5756 0 1
12.693 0 1
12.8104 0 1
12.9278 0 1
13.0452 0 1
13.1626 0 1
13.28 0 1
13.3974 0 1
13.5149 0 1
13.6323 0 1
13.7497 0 1
13.8671 0 1
13.9845 0 1
14.1019 0 1
14.2193 0 1
14.3367 0 1
14.4541 0 1
14.5714 0 1
14.6888 0 1
14.8062 0 1
14.9235 0 1
15.0408 22920 151.394
15.1581 24356 156.064
15.2755 24638 156.965
15.3927 24732 157.264
15.51 24960 157.987
15.6273 24334 155.994
15.7445 24660 157.035
15.8617 24680 157.099
15.9789 24460 156.397
16.0961 24975 158.035
16.2132 25315 159.107
16.3304 26413 162.521
16.4475 27224 164.997
16.5646 27829 166.82
16.6816 28950 170.147
16.7986 29191 170.854
16.9156 30413 174.393
17.0326 31568 177.674
17.1496 31699 178.042
17.2665 32276 179.655
17.3833 32908 181.406
17.5002 33032 181.747
17.617 33697 183.567
17.7338 33486 182.992
17.8505 33496 183.019
17.9672 33143 182.052
18.0839 31410 177.229
18.2005 30462 174.534
18.3171 30547 174.777
18.4337 32028 178.964
18.5502 33063 181.832
18.6666 34001 184.394
18.7831 34580 185.957
18.8994 34853 186.69
19.0158 33726 183.646
19.1321 33050 181.797
19.2483 32558 180.438
19.3645 31954 178.757
19.4806 31117 176.4
19.5967 31067 176.258
19.7128 30476 174.574
19.8288 29617 172.096
19.9447 27090 164.59
20.0606 0 1
20.1764 0 1
20.2922 0 1
20.4079 0 1
20.5236 0 1
20.6392 0 1
20.7548 0 1
20.8702 0 1
23.3078 0 1
23.4233 0 1
23.539 0 1
23.6547 0 1
23.7704 0 1
23.8862 0 1
24.0021 0 1
24.118 0 1
24.234 0 1
24.35 0 1
24.4661 30973 175.991
24.5822 31136 176.454
24.6984 30874 175.71
24.8146 30764 175.397
24.9309 30406 174.373
25.0472 30370 174.27
25.1636 30219 173.836
25.28 31091 176.326
25.3965 31834 178.421
25.513 32992 181.637
25.6296 34130 184.743
25.7462 34859 186.706
25.8628 35562 188.579
25.9795 36139 190.103
26.0962 36504 191.06
26.213 36295 190.512
26.3298 36659 191.465
26.4466 36086 189.963
26.5635 35317 187.928
26.6804 34050 184.526
26.7973 32388 179.967
26.9143 31956 178.762
27.0313 33378 182.696
27.1483 34811 186.577
27.2653 35546 188.536
27.3824 35681 188.894
27.4996 35221 187.673
27.6167 34301 185.205
27.7339 33800 183.848
27.8511 33348 182.614
27.9683 32755 180.983
28.0855 32214 179.483
28.2028 32084 179.12
28.3201 31193 176.615
28.4374 31085 176.309
28.5547 30692 175.191
28.6721 30144 173.62
28.7894 30497 174.634
28.9068 30798 175.494
29.0242 31351 177.062
29.1416 32204 179.455
29.259 33026 181.731
29.3764 34021 184.448
29.4939 34553 185.884
29.6113 34946 186.938
29.7288 35607 188.698
29.8463 35338 187.984
29.9638 34922 186.874
30.0812 34524 185.806
30.1987 32505 180.291
30.3162 30918 175.835
30.4337 29958 173.084
30.5512 30765 175.4
30.6687 31942 178.723
30.7862 33787 183.812
30.9037 33614 183.341
31.0212 34044 184.51
31.1387 34038 184.494
31.2562 33090 181.907
31.3737 32880 181.328
31.4912 31996 178.874
31.6087 31709 178.07
31.7262 31138 176.46
31.8436 30851 175.645
31.9611 30324 174.138
32.0785 29937 173.023
32.1959 29576 171.977
32.3134 29533 171.852
32.4308 29464 171.651
32.5482 30483 174.594
32.6655 31420 177.257
32.7829 31842 178.443
32.9002 33030 181.742
33.0176 33791 183.823
33.1349 34011 184.421
33.2522 34852 186.687
33.3694 33761 183.742
33.4867 34376 185.408
33.6039 33965 184.296
33.7211 33817 183.894
33.8383 32536 180.377
33.9554 30244 173.908
34.0725 28956 170.165
34.1896 28006 167.35
34.3067 29630 172.134
34.4237 30938 175.892
34.5407 31686 178.006
34.6577 32453 180.147
34.7746 32123 179.229
34.8915 32334 179.817
35.0084 32089 179.134
35.1252 31185 176.593
35.242 30548 174.78
35.3587 30402 174.362
35.4755 30006 173.222
35.5921 29730 172.424
35.7088 29055 170.455
35.8254 28671 169.325
35.9419 28256 168.095
36.0584 28128 167.714
36.1749 28221 167.991
36.2913 28845 169.838
36.4077 29364 171.359
36.524 29997 173.196
36.6403 30681 175.16
36.7565 31585 177.722
36.8727 32325 179.792
36.9889 32305 179.736
37.1049 32190 179.416
37.221 0 1
37.3369 0 1
37.4529 0 1
37.5687 0 1
37.6845 0 1
37.8003 0 1
37.916 0 1
38.0316 0 1
38.1472 0 1
40.5851 0 1
40.7008 0 1
40.8164 0 1
40.9322 0 1
41.048 0 1
41.1639 0 1
41.2798 0 1
41.3958 0 1
41.5118 0 1
41.6279 0 1
41.744 23217 152.371
41.8602 25366 159.267
41.9765 26427 162.564
42.0928 26960 164.195
42.2091 27508 165.855
42.3255 27373 165.448
42.4419 27224 164.997
42.5584 27047 164.46
42.675 26177 161.793
42.7915 24468 156.423
42.9081 22763 150.874
43.0248 22494 149.98
43.1415 23166 152.204
43.2582 24024 154.997
43.375 24858 157.664
43.4918 25038 158.234
43.6087 25373 159.289
43.7256 25193 158.723
43.8425 24880 157.734
43.9595 24276 155.808
44.0765 23778 154.201
44.1935 23427 153.059
44.3106 22961 151.529
44.4277 22282 149.272
44.5448 21426 146.376
44.6619 20742 144.021
44.7791 19872 140.968
44.8963 19613 140.046
45.0136 19428 139.384
45.1308 19629 140.104
45.2481 20076 141.69
45.3654 20271 142.376
45.4827 20689 143.837
45.6001 21126 145.348
45.7174 21246 145.76
45.8348 21458 146.485
45.9522 21179 145.53
46.0697 20928 144.665
46.1871 20255 142.32
46.3046 19333 139.043
46.422 18029 134.272
46.5395 17027 130.488
46.657 16918 130.069
46.7745 17650 132.853
46.892 18467 135.893
47.0096 19117 138.264
47.1271 19209 138.597
47.2446 19156 138.405
47.3622 19038 137.978
47.4797 18511 136.055
47.5973 18343 135.436
47.7149 17870 133.679
47.8324 17641 132.819
47.95 17378 131.826
48.0675 16743 129.395
48.1851 16210 127.318
48.3027 16227 127.385
48.4202 15855 125.917
48.5378 15418 124.169
48.6554 15668 125.172
48.7729 16018 126.562
48.8904 16513 128.503
49.008 17066 130.637
49.1255 17898 133.783
49.243 17923 133.877
49.3605 18655 136.583
49.478 18529 136.121
49.5955 18652 136.572
49.713 18249 135.089
49.8304 17324 131.621
49.9479 16133 127.016
50.0653 15404 124.113
50.1827 15409 124.133
50.3001 16644 129.012
50.4175 17694 133.019
50.5348 18329 135.385
50.6521 19778 140.634
50.7694 19882 141.004
50.8867 20333 142.594
51.004 20437 142.958
51.1212 20369 142.72
51.2384 20807 144.246
51.3556 20940 144.707
51.4727 20470 143.073
51.5899 20735 143.997
51.707 20747 144.038
51.824 20411 142.867
51.9411 19582 139.936
52.0581 19797 140.702
52.175 20442 142.976
52.2919 21447 146.448
52.4088 22112 148.701
52.5257 23115 152.036
52.6425 24371 156.112
52.7593 24894 157.778
52.876 25029 158.206
52.9927 25244 158.884
53.1094 25541 159.816
53.226 25478 159.618
53.3426 25663 160.197
53.4591 23972 154.829
53.5756 22517 150.057
53.692 21157 145.454
53.8084 21263 145.818
53.9248 22471 149.903
54.0411 23897 154.587
54.1573 25111 158.465
54.2735 0 1
54.3896 0 1
54.5057 0 1
54.6217 0 1
54.7377 0 1
54.8537 0 1
54.9695 0 1
55.0853 0 1
55.2011 0 1
55.3168 0 1
55.4324 0 1
57.824 0 1
57.9396 0 1
58.0553 0 1
58.1711 0 1
58.2869 0 1
58.4028 0 1
58.5187 0 1
58.6347 0 1
58.7508 0 1
58.8669 0 1
58.983 25276 158.984
59.0992 27275 165.151
59.2155 28834 169.806
59.3318 30238 173.891
59.4482 31514 177.522
59.5646 32084 179.12
59.681 32319 179.775
59.7975 32390 179.972
59.9141 32406 180.017
60.0306 31989 178.855
60.1473 31301 176.921
60.2639 30527 174.72
60.3807 30008 173.228
60.4974 29134 170.687
60.6142 27885 166.988
60.731 27330 165.318
60.8479 26985 164.271
60.9648 27290 165.197
61.0818 28078 167.565
61.1987 28783 169.656
61.3158 29930 173.003
61.4328 30731 175.303
61.5499 31642 177.882
61.667 31810 178.354
61.7841 30931 175.872
61.9013 30016 173.251
62.0185 28957 170.168
62.1357 27220 164.985
62.253 25963 161.13
62.3702 25314 159.104
62.4875 25690 160.281
62.6049 27130 164.712
62.7222 28573 169.035
62.8396 29923 172.983
62.9569 30554 174.797
63.0743 31211 176.666
63.1918 31245 176.763
63.3092 31136 176.454
63.4267 30812 175.533
63.5441 30739 175.325
63.6616 30311 174.101
63.7791 29491 171.729
63.8966 28951 170.15
64.0142 27330 165.318
64.1317 26722 163.469
64.2492 25476 159.612
64.3668 25060 158.304
64.4843 25441 159.502
64.6019 25666 160.206
64.7195 27010 164.347
64.837 28623 169.183
64.9546 29340 171.289
65.0722 29687 172.299
65.1898 29977 173.139
65.3074 30541 174.76
65.4249 29593 172.026
65.5425 28786 169.664
65.6601 26885 163.966
65.7777 25081 158.37
65.8952 23784 154.221
66.0128 23711 153.984
66.1304 24720 157.226
66.2479 26406 162.499
66.3655 27532 165.928
66.483 28858 169.876
66.6005 29720 172.395
66.718 30709 175.24
66.8355 30440 174.471
66.953 30423 174.422
67.0705 30349 174.21
67.1879 29789 172.595
67.3054 29529 171.84
67.4228 28784 169.658
67.5402 28148 167.774
67.6576 26848 163.854
67.7749 25673 160.228
67.8923 24800 157.48
68.0096 24406 156.224
68.1269 25118 158.487
68.2442 25848 160.773
68.3614 27164 164.815
68.4787 28210 167.958
68.5958 29491 171.729
68.713 30076 173.424
68.8302 30507 174.663
68.9473 30811 175.531
69.0643 30568 174.837
69.1814 29981 173.15
69.2984 28871 169.915
69.4154 26428 162.567
69.5323 24816 157.531
69.6492 24436 156.32
69.7661 25583 159.947
69.8829 26964 164.207
69.9997 28991 170.267
70.1165 30174 173.707
70.2332 31407 177.22
70.3499 31934 178.701
70.4665 32353 179.869
70.5831 32240 179.555
70.6996 32543 180.397
70.8161 31944 178.729
70.9326 31779 178.267
71.049 30622 174.991
71.1653 29999 173.202
71.2817 29170 170.792
71.3979 27861 166.916
71.5141 25852 160.786
71.6303 24409 156.234
71.7464 22535 150.117
71.8624 0 1
71.9784 0 1
72.0944 0 1
72.2102 0 1
72.3261 0 1
72.4418 0 1
72.5575 0 1
72.6732 0 1
75.1054 0 1
75.2209 0 1
75.3365 0 1
75.4521 0 1
75.5678 0 1
75.6835 0 1
75.7993 0 1
75.9151 0 1
76.031 0 1
76.147 29111 170.619
76.263 30009 173.231
76.3791 30273 173.991
76.4952 28938 170.112
76.6113 28214 167.97
76.7276 26441 162.607
76.8438 25559 159.872
76.9601 25935 161.043
77.0765 26996 164.305
77.1929 28625 169.189
77.3093 30302 174.075
77.4258 31692 178.022
77.5423 32443 180.119
77.6589 32728 180.909
77.7755 32623 180.618
77.8921 32143 179.285
78.0088 30786 175.459
78.1256 28588 169.08
78.2423 26477 162.718
78.3591 24508 156.55
78.4759 23464 153.18
78.5928 24655 157.019
78.7097 26776 163.634
78.8266 28041 167.454
78.9436 30875 175.713
79.0606 31083 176.304
79.1776 31695 178.031
79.2946 32570 180.472
79.4117 32533 180.369
79.5288 32675 180.762
79.6459 32651 180.696
79.7631 31488 177.449
79.8802 31415 177.243
79.9974 30649 175.069
80.1147 29538 171.866
80.2319 28025 167.407
80.3491 26495 162.773
80.4664 24988 158.076
80.5837 25504 159.7
80.701 26528 162.874
80.8183 28211 167.961
80.9357 30254 173.937
81.053 31366 177.104
81.1704 32235 179.541
81.2877 32508 180.3
81.4051 32429 180.081
81.5225 32433 180.092
81.6399 30940 175.898
81.7573 29431 171.555
81.8747 26429 162.57
81.9922 24836 157.594
82.1096 23933 154.703
82.227 24515 156.573
82.3444 26730 163.493
82.4619 29453 171.619
82.5793 30870 175.699
82.6967 30571 174.846
82.8142 31770 178.241
82.9316 32313 179.758
83.049 32891 181.359
83.1664 32556 180.433
83.2838 32396 179.989
83.4012 32163 179.34
83.5186 31371 177.119
83.636 31142 176.471
83.7534 29915 172.96
83.8708 28786 169.664
83.9881 26550 162.942
84.1055 25442 159.505
84.2228 25681 160.253
84.3401 26389 162.447
84.4575 27989 167.299
84.5747 29958 173.084
84.692 32245 179.569
84.8093 32877 181.32
84.9265 33495 183.016
85.0437 33578 183.243
85.1609 32513 180.314
85.2781 30722 175.277
85.3952 28444 168.653
85.5123 26386 162.438
85.6294 24985 158.066
85.7465 24785 157.433
85.8636 26646 163.236
85.9806 28844 169.835
86.0976 30785 175.457
86.2145 32159 179.329
86.3315 33106 181.951
86.4484 34181 184.881
86.5652 34632 186.097
86.682 34321 185.259
86.7988 34436 185.569
86.9156 34844 186.665
87.0323 34199 184.93
87.149 33431 182.841
87.2657 32600 180.555
87.3823 32161 179.335
87.4988 30226 173.856
87.6154 27944 167.165
87.7318 27379 165.466
87.8483 27939 167.15
87.9647 29599 172.044
88.081 31869 178.519
88.1973 33632 183.39
88.3136 34991 187.059
88.4298 35037 187.182
88.546 35169 187.534
88.6621 34666 186.188
88.7781 33075 181.865
88.8942 0 1
89.0101 0 1
89.126 0 1
89.2419 0 1
89.3577 0 1
89.4734 0 1
89.5891 0 1
89.7047 0 1
89.8203 0 1
89.9358 0 1
92.3269 0 1
92.4424 0 1
92.558 0 1
92.6736 0 1
92.7893 0 1
92.905 0 1
93.0208 0 1
93.1366 0 1
93.2525 0 1
93.3685 0 1
93.4845 0 1
93.6005 33104 181.945
93.7167 33114 181.973
93.8328 32997 181.651
93.949 32171 179.363
94.0653 30718 175.266
94.1816 28929 170.085
94.2979 27330 165.318
94.4143 26703 163.411
94.5307 26266 162.068
94.6472 27284 165.179
94.7637 29027 170.373
94.8803 30457 174.519
94.9969 31714 178.084
95.1135 32547 180.408
95.2302 33424 182.822
95.3469 34163 184.832
95.4637 34430 185.553
95.5805 34878 186.757
95.6973 35196 187.606
95.8142 34836 186.644
95.9311 34585 185.97
96.048 34155 184.811
96.1649 33458 182.915
96.2819 32323 179.786
96.3989 30743 175.337
96.516 29178 170.816
96.633 27751 166.586
96.7501 27594 166.114
96.8673 29046 170.429
96.9844 30522 174.705
97.1016 32537 180.38
97.2188 33963 184.291
97.336 34986 187.045
97.4532 34630 186.091
97.5704 34239 185.038
97.6877 32986 181.62
97.805 31366 177.104
97.9223 29298 171.167
98.0396 27374 165.451
98.1569 26313 162.213
98.2743 26456 162.653
98.3916 27319 165.285
98.509 29331 171.263
98.6264 31004 176.08
98.7438 31913 178.642
98.8612 32968 181.571
98.9786 33513 183.066
99.096 33772 183.772
99.2134 34342 185.316
99.3308 34703 186.287
99.4482 34615 186.051
99.5656 34059 184.551
99.6831 33179 182.151
99.8005 32589 180.524
99.9179 31695 178.031
100.035 29893 172.896
100.153 28358 168.398
100.27 26655 163.264
100.388 27441 165.653
100.505 29327 171.251
100.622 31161 176.525
100.74 33065 181.838
100.857 33693 183.557
100.975 34067 184.572
101.092 34378 185.413
101.209 33988 184.358
101.327 32940 181.494
101.444 31094 176.335
101.561 28606 169.133
101.679 27375 165.454
101.796 26704 163.414
101.913 26936 164.122
102.03 28495 168.805
102.148 30615 174.971
102.265 29787 172.589
102.382 36080 189.947
102.499 34466 185.65
102.616 35234 187.707
102.733 35608 188.701
102.851 35841 189.317
102.968 36714 191.609
103.085 36330 190.604
103.202 35618 188.727
103.319 35211 187.646
103.436 34205 184.946
103.552 32732 180.92
103.669 30517 174.691
103.786 29304 171.184
103.903 29359 171.345
104.02 31211 176.666
104.137 34015 184.432
104.253 35936 189.568
104.37 36709 191.596
104.487 37118 192.66
104.603 36734 191.661
104.72 36164 190.168
104.836 34816 186.59
104.953 32549 180.413
105.069 30378 174.293
105.186 29244 171.009
105.302 28666 169.31
105.418 29478 171.692
105.535 31455 177.356
105.651 33065 181.838
105.767 34918 186.864
105.883 35596 188.669
105.999 36248 190.389
106.115 0 1
106.231 0 1
106.347 0 1
106.463 0 1
106.579 0 1
106.694 0 1
106.81 0 1
106.926 0 1
107.041 0 1
107.157 0 1
109.576 0 1
109.692 0 1
109.807 0 1
109.923 0 1
110.039 0 1
110.155 0 1
110.27 0 1
110.386 0 1
110.502 0 1
110.618 27996 167.32
110.735 29929 173
110.851 31040 176.182
110.967 31596 177.753
111.083 31818 178.376
111.199 32826 181.179
111.316 33084 181.89
111.432 33139 182.041
111.549 32151 179.307
111.665 32287 179.686
111.782 31485 177.44
111.898 30060 173.378
112.015 28758 169.582
112.132 26443 162.613
112.248 25220 158.808
112.365 25393 159.352
112.482 27648 166.277
112.599 28410 168.553
112.716 29910 172.945
112.832 30509 174.668
112.949 30482 174.591
113.066 29832 172.719
113.183 29151 170.737
113.3 27685 166.388
113.417 26205 161.88
113.534 24272 155.795
113.652 23010 151.69
113.769 22144 148.809
113.886 21866 147.872
114.003 23093 151.964
114.12 24330 155.981
114.238 25489 159.653
114.355 26234 161.969
114.472 26837 163.82
114.589 25956 161.109
114.707 27049 164.466
114.824 26492 162.764
114.942 26722 163.469
115.059 26504 162.8
115.176 25780 160.562
115.294 25113 158.471
115.411 24277 155.811
115.529 23460 153.167
115.646 21958 148.182
115.764 19973 141.326
115.881 19854 140.904
115.999 20199 142.123
116.116 21794 147.628
116.234 22838 151.122
116.351 22850 151.162
116.469 22794 150.977
116.586 22920 151.394
116.704 22286 149.285
116.821 21889 147.949
116.939 20636 143.652
117.056 19245 138.726
117.174 18167 134.785
117.291 17930 133.903
117.409 17351 131.723
117.526 17949 133.974
117.644 18972 137.739
117.761 19908 141.096
117.879 20569 143.419
117.996 20725 143.962
118.114 21394 146.267
118.231 21745 147.462
118.349 21679 147.238
118.466 22048 148.486
118.584 22037 148.449
118.701 22262 149.205
118.819 21979 148.253
118.936 21724 147.391
119.053 21020 144.983
119.171 20435 142.951
119.288 19084 138.145
119.405 18386 135.595
119.523 18426 135.742
119.64 19715 140.41
119.757 21055 145.103
119.875 21964 148.203
119.992 22604 150.346
120.109 22863 151.205
120.226 22853 151.172
120.343 23266 152.532
120.46 22678 150.592
120.578 21592 146.942
120.695 20903 144.579
120.812 20040 141.563
120.929 19349 139.101
121.046 19054 138.036
121.163 18985 137.786
121.279 20216 142.183
121.396 21402 146.294
121.513 22589 150.296
121.63 23344 152.787
121.747 23800 154.272
121.863 24290 155.852
121.98 25003 158.123
122.097 25486 159.643
122.213 25616 160.05
122.33 25653 160.166
122.446 25944 161.071
122.563 25720 160.375
122.679 25494 159.668
122.795 24734 157.27
122.912 24161 155.438
123.028 22828 151.089
123.144 22090 148.627
123.26 22020 148.391
123.377 0 1
123.493 0 1
123.609 0 1
123.725 0 1
123.84 0 1
123.956 0 1
124.072 0 1
124.188 0 1
124.303 0 1
124.419 0 1
126.852 0 1
126.968 0 1
127.083 0 1
127.199 0 1
127.315 0 1
127.431 0 1
127.547 0 1
127.663 0 1
127.779 0 1
127.895 0 1
128.011 0 1
128.127 0 1
128.243 0 1
128.359 26230 161.957
128.476 25583 159.947
128.592 26811 163.741
128.708 28186 167.887
128.825 29989 173.173
128.941 30938 175.892
129.058 30806 175.516
129.174 30670 175.129
129.291 30961 175.957
129.408 29932 173.009
129.524 28659 169.29
129.641 27008 164.341
129.758 25871 160.845
129.875 25068 158.329
129.992 24081 155.181
130.108 23899 154.593
130.225 24665 157.051
130.342 25598 159.994
130.459 26210 161.895
130.576 26257 162.04
130.693 27042 164.445
130.81 27298 165.221
130.928 27625 166.208
131.045 27904 167.045
131.162 27861 166.916
131.279 28472 168.736
131.396 27975 167.257
131.513 27696 166.421
131.631 26663 163.288
131.748 26094 161.536
131.865 24394 156.186
131.983 23346 152.794
132.1 23820 154.337
132.217 24942 157.93
132.335 25912 160.972
132.452 26308 162.197
132.57 26703 163.411
132.687 25959 161.118
132.804 27089 164.587
132.922 26057 161.422
133.039 24833 157.585
133.157 23598 153.616
133.274 22699 150.662
133.392 21813 147.692
133.509 20876 144.485
133.627 20472 143.08
133.744 20519 143.245
133.862 21551 146.803
133.979 21678 147.235
134.097 21878 147.912
134.214 22819 151.06
134.332 22084 148.607
134.449 22682 150.605
134.567 22528 150.093
134.684 22722 150.738
134.802 22937 151.45
134.919 22503 150.01
135.037 21986 148.277
135.154 21602 146.976
135.272 20438 142.962
135.389 19750 140.535
135.507 18775 137.022
135.624 18206 134.93
135.742 19104 138.217
135.859 19683 140.296
135.977 20284 142.422
136.094 20420 142.899
136.211 20162 141.993
136.329 19951 141.248
136.446 19992 141.393
136.564 19291 138.892
136.681 18262 135.137
136.798 18132 134.655
136.915 17043 130.549
137.033 16599 128.837
137.15 16139 127.039
137.267 15876 126
137.384 16310 127.711
137.502 16760 129.46
137.619 17087 130.717
137.736 17626 132.763
137.853 17715 133.098
137.97 18185 134.852
138.087 18750 136.931
138.204 19113 138.25
138.321 19241 138.712
138.438 19701 140.36
138.555 20189 142.088
138.672 20007 141.446
138.788 19862 140.933
138.905 19471 139.539
139.022 19058 138.051
139.139 18399 135.643
139.255 18401 135.65
139.372 19744 140.513
139.488 21030 145.017
139.605 21985 148.273
139.721 22022 148.398
139.838 22647 150.489
139.954 22901 151.331
140.071 22371 149.569
140.187 22568 150.226
140.303 21556 146.82
140.419 20752 144.056
140.535 20239 142.264
140.652 19870 140.961
140.768 0 1
140.884 0 1
141 0 1
141.115 0 1
141.231 0 1
141.347 0 1
141.463 0 1
141.578 0 1
141.694 0 1
144.104 0 1
144.219 0 1
144.335 0 1
144.45 0 1
144.566 0 1
144.682 0 1
144.798 0 1
144.914 0 1
145.03 0 1
145.146 19354 139.119
145.262 19187 138.517
145.378 18630 136.492
145.494 18015 134.22
145.61 17183 131.084
145.726 16746 129.406
145.842 16139 127.039
145.959 16007 126.519
146.075 16083 126.819
146.192 16145 127.063
146.308 16428 128.172
146.425 16664 129.089
146.541 16670 129.112
146.658 16487 128.402
146.774 16639 128.992
146.891 16706 129.252
147.008 16794 129.592
147.125 16861 129.85
147.241 16824 129.707
147.358 16843 129.781
147.475 16280 127.593
147.592 15707 125.328
147.709 14983 122.405
147.826 14266 119.44
147.943 14497 120.403
148.06 14690 121.202
148.177 15267 123.56
148.294 15720 125.379
148.411 15680 125.22
148.528 15494 124.475
148.645 15478 124.411
148.762 15385 124.036
148.88 14691 121.206
148.997 14995 122.454
149.114 13208 114.926
149.231 13286 115.265
149.349 12964 113.86
149.466 13005 114.039
149.583 12570 112.116
149.701 12837 113.3
149.818 12873 113.459
149.935 12999 114.013
150.053 13545 116.383
150.17 13386 115.698
150.287 13534 116.336
150.405 13784 117.405
150.522 14193 119.134
150.64 14094 118.718
150.757 14355 119.812
150.875 14339 119.746
150.992 14440 120.167
151.11 14349 119.787
151.227 13823 117.571
151.344 13570 116.49
151.462 13406 115.784
151.579 13319 115.408
151.697 14187 119.109
151.814 14867 121.93
151.932 15188 123.24
152.049 15472 124.386
152.167 15618 124.972
152.284 15670 125.18
152.402 15532 124.627
152.519 15231 123.414
152.636 14824 121.754
152.754 14677 121.149
152.871 14432 120.133
152.989 14027 118.436
153.106 14001 118.326
153.223 13855 117.707
153.341 13917 117.97
153.458 14331 119.712
153.575 14639 120.992
153.693 14844 121.836
153.81 15096 122.866
153.927 15540 124.66
154.044 15813 125.75
154.162 15829 125.813
154.279 16359 127.902
154.396 16826 129.715
154.513 17289 131.488
154.63 17366 131.78
154.747 17285 131.472
154.864 16893 129.973
154.981 16400 128.062
155.098 16321 127.754
155.215 16747 129.41
155.332 17691 133.008
155.449 18268 135.159
155.566 18469 135.901
155.683 18644 136.543
155.8 18557 136.224
155.917 18967 137.721
156.033 18729 136.854
156.15 0 1
156.267 0 1
156.383 0 1
156.5 0 1
156.617 0 1
156.733 0 1
156.85 0 1
156.966 0 1
157.082 0 1
157.199 0 1
157.315 0 1
157.431 0 1
157.547 0 1
157.664 0 1
157.78 0 1
157.896 0 1
158.012 0 1
158.128 0 1
158.244 0 1
158.359 0 1
158.475 0 1
158.591 0 1
158.706 0 1
