
6.15755 0 1
6.2731 0 1
6.3887 0 1
6.50437 0 1
6.62009 0 1
6.73587 0 1
6.8517 0 1
6.96759 0 1
7.08353 0 1
7.19952 0 1
7.31557 0 1
7.43166 0 1
7.54781 0 1
7.664 0 1
7.78024 0 1
7.89653 0 1
8.01286 0 1
8.12924 0 1
8.24567 0 1
8.36213 0 1
8.47864 0 1
8.59519 0 1
8.71178 0 1
8.82841 0 1
8.94508 0 1
9.06179 0 1
9.17853 0 1
9.29531 0 1
9.41212 0 1
9.52897 0 1
9.64584 0 1
9.76276 0 1
9.8797 0 1
9.99667 0 1
10.1137 0 1
10.2307 0 1
10.3478 0 1
10.4648 0 1
10.5819 0 1
10.6991 0 1
10.8162 0 1
10.9334 0 1
11.0506 0 1
11.1678 0 1
11.285 0 1
11.4023 0 1
11.5196 0 1
11.6369 0 1
11.7542 0 1
11.8715 0 1
11.9888 0 1
12.1062 0 1
12.2235 0 1
12.3409 0 1
12.4582 0 1
12.5756 0 1
12.693 0 1
12.8104 0 1
12.9278 0 1
13.0452 0 1
13.1626 0 1
13.28 0 1
13.3974 0 1
13.5149 0 1
13.6323 0 1
13.7497 0 1
13.8671 0 1
13.9845 0 1
14.1019 0 1
14.2193 0 1
14.3367 0 1
14.4541 0 1
14.5714 0 1
14.6888 0 1
14.8062 0 1
14.9235 0 1
15.0408 0 0
15.1581 0 0
15.2755 0 0
15.3927 0 0
15.51 0 0
15.6273 0 0
15.7445 0 0
15.8617 0 0
15.9789 0 0
16.0961 0 0
16.2132 0 0
16.3304 0 0
16.4475 0 0
16.5646 0 0
16.6816 0 0
16.7986 0 0
16.9156 0 0
17.0326 0 0
17.1496 0 0
17.2665 0 0
17.3833 0 0
17.5002 0 0
17.617 0 0
17.7338 0 0
17.8505 0 0
17.9672 0 0
18.0839 0 0
18.2005 0 0
18.3171 0 0
18.4337 0 0
18.5502 0 0
18.6666 0 0
18.7831 0 0
18.8994 0 0
19.0158 0 0
19.1321 0 0
19.2483 0 0
19.3645 0 0
19.4806 0 0
19.5967 0 0
19.7128 0 0
19.8288 0 0
19.9447 0 0
20.0606 0 1
20.1764 0 1
20.2922 0 1
20.4079 0 1
20.5236 0 1
20.6392 0 1
20.7548 0 1
20.8702 0 1
23.3078 0 1
23.4233 0 1
23.539 0 1
23.6547 0 1
23.7704 0 1
23.8862 0 1
24.0021 0 1
24.118 0 1
24.234 0 1
24.35 0 1
24.4661 1306 36.1386
24.5822 1443 37.9868
24.6984 1537 39.2046
24.8146 1737 41.6773
24.9309 2009 44.8219
25.0472 2322 48.1871
25.1636 2655 51.5267
25.28 2701 51.9711
25.3965 2738 52.3259
25.513 2733 52.2781
25.6296 2743 52.3737
25.7462 2836 53.2541
25.8628 2803 52.9434
25.9795 2719 52.144
26.0962 2802 52.9339
26.213 2821 53.1131
26.3298 2937 54.1941
26.4466 2867 53.5444
26.5635 2842 53.3104
26.6804 2857 53.4509
26.7973 2806 52.9717
26.9143 2677 51.7397
27.0313 2698 51.9423
27.1483 2565 50.6458
27.2653 2590 50.892
27.3824 2496 49.96
27.4996 2400 48.9898
27.6167 2254 47.4763
27.7339 2260 47.5395
27.8511 2366 48.6415
27.9683 2503 50.03
28.0855 2564 50.636
28.2028 2656 51.5364
28.3201 2570 50.6952
28.4374 2625 51.2348
28.5547 2531 50.309
28.6721 2607 51.0588
28.7894 2564 50.636
28.9068 2634 51.3225
29.0242 2717 52.1249
29.1416 2713 52.0865
29.259 2680 51.7687
29.3764 2614 51.1273
29.4939 2529 50.2892
29.6113 2520 50.1996
29.7288 2427 49.2646
29.8463 2420 49.1935
29.9638 2435 49.3457
30.0812 2532 50.319
30.1987 2520 50.1996
30.3162 2655 51.5267
30.4337 2585 50.8429
30.5512 2643 51.4101
30.6687 2497 49.97
30.7862 2501 50.01
30.9037 2434 49.3356
31.0212 2334 48.3115
31.1387 2416 49.1528
31.2562 2380 48.7852
31.3737 2533 50.3289
31.4912 2693 51.8941
31.6087 2689 51.8556
31.7262 2651 51.4879
31.8436 2670 51.672
31.9611 2788 52.8015
32.0785 2480 49.7996
32.1959 2657 51.5461
32.3134 2506 50.06
32.4308 2563 50.6261
32.5482 2387 48.8569
32.6655 2468 49.679
32.7829 2333 48.3011
32.9002 2324 48.2079
33.0176 2208 46.9894
33.1349 2267 47.613
33.2522 2214 47.0532
33.3694 2230 47.2229
33.4867 2315 48.1144
33.6039 2215 47.0638
33.7211 2429 49.2849
33.8383 2416 49.1528
33.9554 2433 49.3254
34.0725 2470 49.6991
34.1896 2457 49.5681
34.3067 2529 50.2892
34.4237 2436 49.3559
34.5407 2435 49.3457
34.6577 2404 49.0306
34.7746 2274 47.6865
34.8915 2267 47.613
35.0084 2414 49.1325
35.1252 2546 50.4579
35.242 2486 49.8598
35.3587 2599 50.9804
35.4755 2573 50.7247
35.5921 2459 49.5883
35.7088 2435 49.3457
35.8254 2346 48.4355
35.9419 2256 47.4974
36.0584 2225 47.1699
36.1749 2125 46.0977
36.2913 2171 46.594
36.4077 2128 46.1303
36.524 1926 43.8862
36.6403 1705 41.2916
36.7565 1664 40.7922
36.8727 1503 38.7685
36.9889 1458 38.1838
37.1049 1493 38.6394
37.221 0 1
37.3369 0 1
37.4529 0 1
37.5687 0 1
37.6845 0 1
37.8003 0 1
37.916 0 1
38.0316 0 1
38.1472 0 1
40.5851 0 1
40.7008 0 1
40.8164 0 1
40.9322 0 1
41.048 0 1
41.1639 0 1
41.2798 0 1
41.3958 0 1
41.5118 0 1
41.6279 0 1
41.744 1900 43.589
41.8602 2490 49.8999
41.9765 2906 53.9073
42.0928 3276 57.2364
42.2091 3239 56.9122
42.3255 3212 56.6745
42.4419 3128 55.9285
42.5584 3233 56.8595
42.675 3323 57.6455
42.7915 3484 59.0254
42.9081 3521 59.338
43.0248 3470 58.9067
43.1415 3545 59.5399
43.2582 3422 58.4979
43.375 3061 55.3263
43.4918 3219 56.7362
43.6087 3232 56.8507
43.7256 3267 57.1577
43.8425 3257 57.0701
43.9595 3490 59.0762
44.0765 3408 58.3781
44.1935 3516 59.2959
44.3106 3226 56.7979
44.4277 3221 56.7539
44.5448 3218 56.7274
44.6619 3013 54.8908
44.7791 2983 54.6168
44.8963 2764 52.5738
45.0136 2784 52.7636
45.1308 2533 50.3289
45.2481 2417 49.163
45.3654 2438 49.3761
45.4827 2290 47.8539
45.6001 2170 46.5833
45.7174 2083 45.6399
45.8348 2115 45.9891
45.9522 2095 45.7712
46.0697 2106 45.8912
46.1871 2153 46.4004
46.3046 2157 46.4435
46.422 2187 46.7654
46.5395 2260 47.5395
46.657 2208 46.9894
46.7745 2125 46.0977
46.892 2004 44.7661
47.0096 1937 44.0114
47.1271 2079 45.5961
47.2446 2054 45.3211
47.3622 2152 46.3897
47.4797 2116 46
47.5973 2121 46.0543
47.7149 2207 46.9787
47.8324 2238 47.3075
47.95 2233 47.2546
48.0675 2046 45.2327
48.1851 2100 45.8258
48.3027 1997 44.6878
48.4202 2020 44.9444
48.5378 1958 44.2493
48.6554 1929 43.9204
48.7729 1916 43.7721
48.8904 1907 43.6692
49.008 1810 42.5441
49.1255 1841 42.9069
49.243 1890 43.4741
49.3605 1970 44.3847
49.478 1958 44.2493
49.5955 2017 44.911
49.713 2005 44.7772
49.8304 2057 45.3542
49.9479 2136 46.2169
50.0653 2095 45.7712
50.1827 2125 46.0977
50.3001 1976 44.4522
50.4175 1656 40.694
50.5348 1687 41.0731
50.6521 1756 41.9047
50.7694 1882 43.382
50.8867 2057 45.3542
51.004 2069 45.4863
51.1212 2150 46.3681
51.2384 2093 45.7493
51.3556 2084 45.6508
51.4727 2070 45.4973
51.5899 2045 45.2217
51.707 2089 45.7056
51.824 2013 44.8665
51.9411 2055 45.3321
52.0581 1902 43.6119
52.175 2059 45.3762
52.2919 1967 44.3509
52.4088 1904 43.6348
52.5257 1987 44.5758
52.6425 1929 43.9204
52.7593 1960 44.2719
52.876 1839 42.8836
52.9927 1917 43.7836
53.1094 1866 43.1972
53.226 1886 43.4281
53.3426 1943 44.0795
53.4591 1879 43.3474
53.5756 1717 41.4367
53.692 1423 37.7227
53.8084 1317 36.2905
53.9248 1213 34.8281
54.0411 1111 33.3317
54.1573 1095 33.0908
54.2735 0 1
54.3896 0 1
54.5057 0 1
54.6217 0 1
54.7377 0 1
54.8537 0 1
54.9695 0 1
55.0853 0 1
55.2011 0 1
55.3168 0 1
55.4324 0 1
57.824 0 1
57.9396 0 1
58.0553 0 1
58.1711 0 1
58.2869 0 1
58.4028 0 1
58.5187 0 1
58.6347 0 1
58.7508 0 1
58.8669 0 1
58.983 1640 40.4969
59.0992 1719 41.4608
59.2155 1775 42.1307
59.3318 1889 43.4626
59.4482 2049 45.2659
59.5646 2152 46.3897
59.681 2377 48.7545
59.7975 2438 49.3761
59.9141 2493 49.93
60.0306 2460 49.5984
60.1473 2354 48.518
60.2639 2503 50.03
60.3807 2448 49.4773
60.4974 2410 49.0918
60.6142 2541 50.4083
60.731 2474 49.7393
60.8479 2489 49.8899
60.9648 2608 51.0686
61.0818 2483 49.8297
61.1987 2519 50.1896
61.3158 2385 48.8365
61.4328 2403 49.0204
61.5499 2350 48.4768
61.667 2344 48.4149
61.7841 2312 48.0833
61.9013 2467 49.6689
62.0185 2515 50.1498
62.1357 2392 48.9081
62.253 2445 49.4469
62.3702 2464 49.6387
62.4875 2325 48.2183
62.6049 2143 46.2925
62.7222 2137 46.2277
62.8396 2253 47.4658
62.9569 2499 49.99
63.0743 2640 51.3809
63.1918 2593 50.9215
63.3092 2649 51.4684
63.4267 2535 50.3488
63.5441 2551 50.5074
63.6616 2548 50.4777
63.7791 2464 49.6387
63.8966 2530 50.2991
64.0142 2495 49.95
64.1317 2580 50.7937
64.2492 2500 50
64.3668 2505 50.05
64.4843 2535 50.3488
64.6019 2462 49.6185
64.7195 2376 48.7442
64.837 2387 48.8569
64.9546 2379 48.775
65.0722 2336 48.3322
65.1898 2263 47.571
65.3074 2375 48.734
65.4249 2413 49.1223
65.5425 2310 48.0625
65.6601 2462 49.6185
65.7777 2454 49.5379
65.8952 2389 48.8774
66.0128 2278 47.7284
66.1304 2058 45.3652
66.2479 1975 44.441
66.3655 2127 46.1194
66.483 2248 47.4131
66.6005 2335 48.3218
66.718 2418 49.1732
66.8355 2492 49.9199
66.953 2525 50.2494
67.0705 2535 50.3488
67.1879 2528 50.2792
67.3054 2506 50.06
67.4228 2474 49.7393
67.5402 2520 50.1996
67.6576 2479 49.7896
67.7749 2470 49.6991
67.8923 2445 49.4469
68.0096 2390 48.8876
68.1269 2399 48.9796
68.2442 2380 48.7852
68.3614 2312 48.0833
68.4787 2317 48.1352
68.5958 2386 48.8467
68.713 2240 47.3286
68.8302 2219 47.1063
68.9473 2268 47.6235
69.0643 2299 47.9479
69.1814 2318 48.1456
69.2984 2223 47.1487
69.4154 2353 48.5077
69.5323 2286 47.8121
69.6492 2155 46.422
69.7661 1987 44.5758
69.8829 1861 43.1393
69.9997 1912 43.7264
70.1165 2133 46.1844
70.2332 2092 45.7384
70.3499 1989 44.5982
70.4665 1846 42.9651
70.5831 1657 40.7063
70.6996 1595 39.9375
70.8161 1595 39.9375
70.9326 1537 39.2046
71.049 1370 37.0135
71.1653 1352 36.7696
71.2817 1315 36.2629
71.3979 1283 35.819
71.5141 1225 35
71.6303 1265 35.5668
71.7464 1071 32.7261
71.8624 0 1
71.9784 0 1
72.0944 0 1
72.2102 0 1
72.3261 0 1
72.4418 0 1
72.5575 0 1
72.6732 0 1
75.1054 0 1
75.2209 0 1
75.3365 0 1
75.4521 0 1
75.5678 0 1
75.6835 0 1
75.7993 0 1
75.9151 0 1
76.031 0 1
76.147 1869 43.2319
76.263 2129 46.1411
76.3791 2091 45.7275
76.4952 2124 46.0869
76.6113 2206 46.9681
76.7276 2166 46.5403
76.8438 2274 47.6865
76.9601 2265 47.592
77.0765 2274 47.6865
77.1929 2347 48.4458
77.3093 2255 47.4868
77.4258 2258 47.5184
77.5423 2183 46.7226
77.6589 2214 47.0532
77.7755 2205 46.9574
77.8921 2123 46.076
78.0088 2267 47.613
78.1256 2224 47.1593
78.2423 2239 47.3181
78.3591 2308 48.0416
78.4759 2212 47.0319
78.5928 2197 46.8722
78.7097 1920 43.8178
78.8266 1681 41
78.9436 1587 39.8372
79.0606 1582 39.7744
79.1776 1879 43.3474
79.2946 2152 46.3897
79.4117 2342 48.3942
79.5288 2304 48
79.6459 2379 48.775
79.7631 2343 48.4045
79.8802 2282 47.7703
79.9974 2330 48.2701
80.1147 2274 47.6865
80.2319 2325 48.2183
80.3491 2307 48.0312
80.4664 2268 47.6235
80.5837 2371 48.6929
80.701 2357 48.5489
80.8183 2453 49.5278
80.9357 2448 49.4773
81.053 2425 49.2443
81.1704 2397 48.9592
81.2877 2277 47.7179
81.4051 2415 49.1426
81.5225 2362 48.6004
81.6399 2275 47.697
81.7573 2453 49.5278
81.8747 2519 50.1896
81.9922 2572 50.7149
82.1096 2655 51.5267
82.227 2708 52.0384
82.3444 2465 49.6488
82.4619 2276 47.7074
82.5793 2163 46.5081
82.6967 2140 46.2601
82.8142 2770 52.6308
82.9316 3271 57.1927
83.049 3546 59.5483
83.1664 3702 60.8441
83.2838 3711 60.918
83.4012 4002 63.2614
83.5186 3906 62.498
83.636 4024 63.435
83.7534 4083 63.8984
83.8708 4196 64.7765
83.9881 4176 64.622
84.1055 4360 66.0303
84.2228 4204 64.8383
84.3401 4363 66.053
84.4575 4283 65.4446
84.5747 4318 65.7115
84.692 4237 65.0922
84.8093 4293 65.521
84.9265 4308 65.6354
85.0437 4068 63.7809
85.1609 4151 64.4283
85.2781 4069 63.7887
85.3952 4229 65.0308
85.5123 4257 65.2457
85.6294 4117 64.1639
85.7465 4169 64.5678
85.8636 3725 61.0328
85.9806 3202 56.5862
86.0976 2827 53.1695
86.2145 2666 51.6333
86.3315 3152 56.1427
86.4484 3825 61.8466
86.5652 4058 63.7024
86.682 4240 65.1153
86.7988 4067 63.773
86.9156 4092 63.9687
87.0323 4195 64.7688
87.149 4083 63.8984
87.2657 4153 64.4438
87.3823 4116 64.1561
87.4988 3906 62.498
87.6154 3635 60.291
87.7318 3258 57.0789
87.8483 3081 55.5068
87.9647 3061 55.3263
88.081 2979 54.5802
88.1973 2881 53.6749
88.3136 2693 51.8941
88.4298 2532 50.319
88.546 2542 50.4183
88.6621 2464 49.6387
88.7781 2252 47.4552
88.8942 0 1
89.0101 0 1
89.126 0 1
89.2419 0 1
89.3577 0 1
89.4734 0 1
89.5891 0 1
89.7047 0 1
89.8203 0 1
89.9358 0 1
92.3269 0 1
92.4424 0 1
92.558 0 1
92.6736 0 1
92.7893 0 1
92.905 0 1
93.0208 0 1
93.1366 0 1
93.2525 0 1
93.3685 0 1
93.4845 0 1
93.6005 4359 66.0227
93.7167 4400 66.3325
93.8328 4296 65.5439
93.949 4231 65.0461
94.0653 4281 65.4294
94.1816 4247 65.169
94.2979 4320 65.7267
94.4143 4327 65.7799
94.5307 4252 65.2074
94.6472 4099 64.0234
94.7637 4078 63.8592
94.8803 3774 61.4329
94.9969 3417 58.4551
95.1135 3041 55.1453
95.2302 3238 56.9034
95.3469 3681 60.6712
95.4637 4064 63.7495
95.5805 4345 65.9166
95.6973 4395 66.2948
95.8142 4411 66.4154
95.9311 4440 66.6333
96.048 4468 66.8431
96.1649 4365 66.0681
96.2819 4369 66.0984
96.3989 4380 66.1816
96.516 4589 67.7422
96.633 4299 65.5668
96.7501 4568 67.587
96.8673 4461 66.7907
96.9844 4516 67.2012
97.1016 4638 68.1029
97.2188 4554 67.4833
97.336 4544 67.4092
97.4532 4477 66.9104
97.5704 4443 66.6558
97.6877 4294 65.5286
97.805 4381 66.1891
97.9223 4399 66.325
98.0396 4320 65.7267
98.1569 4369 66.0984
98.2743 4259 65.261
98.3916 3962 62.9444
98.509 3385 58.1808
98.6264 3105 55.7225
98.7438 3219 56.7362
98.8612 3618 60.1498
98.9786 4016 63.3719
99.096 4198 64.792
99.2134 4270 65.3452
99.3308 4258 65.2534
99.4482 4055 63.6789
99.5656 4062 63.7338
99.6831 3867 62.1852
99.8005 3933 62.7136
99.9179 3847 62.0242
100.035 3729 61.0655
100.153 3719 60.9836
100.27 3601 60.0083
100.388 3550 59.5819
100.505 3468 58.8897
100.622 3568 59.7327
100.74 3410 58.3952
100.857 3299 57.4369
100.975 3089 55.5788
101.092 3174 56.3383
101.209 3141 56.0446
101.327 3078 55.4797
101.444 2972 54.5161
101.561 3068 55.3895
101.679 3022 54.9727
101.796 3070 55.4076
101.913 2922 54.0555
102.03 2542 50.4183
102.148 2355 48.5283
102.265 2223 47.1487
102.382 2387 48.8569
102.499 2671 51.6817
102.616 2829 53.1883
102.733 2882 53.6843
102.851 2858 53.4603
102.968 2773 52.6593
103.085 2812 53.0283
103.202 2741 52.3546
103.319 2799 52.9056
103.436 2920 54.037
103.552 2789 52.811
103.669 2811 53.0189
103.786 2684 51.8073
103.903 2759 52.5262
104.02 2769 52.6213
104.137 2964 54.4426
104.253 2860 53.479
104.37 2706 52.0192
104.487 2698 51.9423
104.603 2684 51.8073
104.72 2586 50.8527
104.836 2444 49.4368
104.953 2212 47.0319
105.069 1932 43.9545
105.186 1761 41.9643
105.302 1647 40.5832
105.418 1584 39.7995
105.535 1396 37.3631
105.651 1305 36.1248
105.767 1001 31.6386
105.883 857 29.2746
105.999 883 29.7153
106.115 0 1
106.231 0 1
106.347 0 1
106.463 0 1
106.579 0 1
106.694 0 1
106.81 0 1
106.926 0 1
107.041 0 1
107.157 0 1
109.576 0 1
109.692 0 1
109.807 0 1
109.923 0 1
110.039 0 1
110.155 0 1
110.27 0 1
110.386 0 1
110.502 0 1
110.618 2875 53.619
110.735 2884 53.7029
110.851 2701 51.9711
110.967 2458 49.5782
111.083 2433 49.3254
111.199 2588 50.8724
111.316 2793 52.8488
111.432 3024 54.9909
111.549 3180 56.3915
111.665 3155 56.1694
111.782 2974 54.5344
111.898 3097 55.6507
112.015 2995 54.7266
112.132 3013 54.8908
112.248 3056 55.2811
112.365 3172 56.3205
112.482 3059 55.3082
112.599 3119 55.848
112.716 3258 57.0789
112.832 3287 57.3324
112.949 3385 58.1808
113.066 3347 57.8533
113.183 3459 58.8133
113.3 3385 58.1808
113.417 3402 58.3267
113.534 3267 57.1577
113.652 3324 57.6541
113.769 3395 58.2666
113.886 3421 58.4893
114.003 3345 57.836
114.12 3335 57.7495
114.238 3314 57.5674
114.355 3002 54.7905
114.472 2675 51.7204
114.589 2649 51.4684
114.707 2730 52.2494
114.824 2915 53.9907
114.942 3166 56.2672
115.059 3142 56.0535
115.176 3254 57.0438
115.294 3137 56.0089
115.411 3191 56.4889
115.529 3187 56.4535
115.646 3190 56.4801
115.764 3094 55.6237
115.881 3128 55.9285
115.999 3127 55.9196
116.116 3146 56.0892
116.234 3189 56.4712
116.351 3397 58.2838
116.469 3422 58.4979
116.586 3459 58.8133
116.704 3457 58.7963
116.821 3643 60.3573
116.939 3548 59.5651
117.056 3483 59.0169
117.174 3447 58.7112
117.291 3431 58.5747
117.409 3415 58.438
117.526 3413 58.4209
117.644 3450 58.7367
117.761 3407 58.3695
117.879 3289 57.3498
117.996 2926 54.0925
118.114 2670 51.672
118.231 2640 51.3809
118.349 2834 53.2353
118.466 2937 54.1941
118.584 3147 56.0981
118.701 3160 56.2139
118.819 3216 56.7098
118.936 3181 56.4004
119.053 3171 56.3116
119.171 3063 55.3444
119.288 2970 54.4977
119.405 3090 55.5878
119.523 3012 54.8817
119.64 3063 55.3444
119.757 3044 55.1725
119.875 3037 55.109
119.992 3054 55.263
120.109 3182 56.4092
120.226 3249 57
120.343 3247 56.9825
120.46 3310 57.5326
120.578 3163 56.2406
120.695 3343 57.8187
120.812 3105 55.7225
120.929 3155 56.1694
121.046 3137 56.0089
121.163 3219 56.7362
121.279 3153 56.1516
121.396 3108 55.7494
121.513 3063 55.3444
121.63 2699 51.9519
121.747 2503 50.03
121.863 2180 46.6905
121.98 2170 46.5833
122.097 2061 45.3982
122.213 2214 47.0532
122.33 2188 46.7761
122.446 2178 46.669
122.563 2137 46.2277
122.679 2087 45.6837
122.795 1888 43.4511
122.912 1929 43.9204
123.028 1894 43.5201
123.144 1819 42.6497
123.26 1877 43.3244
123.377 0 1
123.493 0 1
123.609 0 1
123.725 0 1
123.84 0 1
123.956 0 1
124.072 0 1
124.188 0 1
124.303 0 1
124.419 0 1
126.852 0 1
126.968 0 1
127.083 0 1
127.199 0 1
127.315 0 1
127.431 0 1
127.547 0 1
127.663 0 1
127.779 0 1
127.895 0 1
128.011 0 1
128.127 0 1
128.243 0 1
128.359 3612 60.0999
128.476 3518 59.3127
128.592 3530 59.4138
128.708 3648 60.3987
128.825 3561 59.6741
128.941 3606 60.05
129.058 3659 60.4897
129.174 3848 62.0322
129.291 3911 62.538
129.408 3765 61.3596
129.524 4077 63.8514
129.641 4112 64.1249
129.758 4086 63.9218
129.875 4267 65.3223
129.992 4295 65.5362
130.108 4378 66.1665
130.225 4282 65.437
130.342 4288 65.4828
130.459 4126 64.2339
130.576 4132 64.2806
130.693 3922 62.6259
130.81 3737 61.131
130.928 3867 62.1852
131.045 3961 62.9365
131.162 4099 64.0234
131.279 4255 65.2304
131.396 4100 64.0312
131.513 4190 64.7302
131.631 4306 65.6201
131.748 4119 64.1794
131.865 4151 64.4283
131.983 4073 63.8201
132.1 4121 64.195
132.217 4075 63.8357
132.335 4101 64.0391
132.452 4009 63.3167
132.57 3982 63.1031
132.687 3877 62.2656
132.804 4076 63.8436
132.922 4176 64.622
133.039 4013 63.3482
133.157 4055 63.6789
133.274 4188 64.7148
133.392 4262 65.284
133.509 4343 65.9014
133.627 4412 66.4229
133.744 4574 67.6314
133.862 4570 67.6018
133.979 4569 67.5944
134.097 4430 66.5582
134.214 4265 65.307
134.332 4268 65.3299
134.449 4197 64.7843
134.567 4175 64.6142
134.684 4275 65.3835
134.802 4454 66.7383
134.919 4402 66.3476
135.037 4449 66.7008
135.154 4498 67.0671
135.272 4467 66.8356
135.389 4453 66.7308
135.507 4148 64.405
135.624 4249 65.1844
135.742 4176 64.622
135.859 4273 65.3682
135.977 4142 64.3584
136.094 4024 63.435
136.211 4201 64.8151
136.329 4188 64.7148
136.446 4206 64.8537
136.564 4200 64.8074
136.681 4143 64.3661
136.798 4344 65.909
136.915 4344 65.909
137.033 4295 65.5362
137.15 4332 65.8179
137.267 4379 66.174
137.384 4342 65.8939
137.502 4277 65.3988
137.619 4385 66.2193
137.736 4239 65.1076
137.853 4016 63.3719
137.97 4079 63.867
138.087 3831 61.8951
138.204 3933 62.7136
138.321 4132 64.2806
138.438 4204 64.8383
138.555 4248 65.1767
138.672 4295 65.5362
138.788 4092 63.9687
138.905 4182 64.6684
139.022 3993 63.1902
139.139 3640 60.3324
139.255 3684 60.696
139.372 3462 58.8388
139.488 3303 57.4717
139.605 3221 56.7539
139.721 3078 55.4797
139.838 3039 55.1271
139.954 2990 54.6809
140.071 2912 53.963
140.187 3032 55.0636
140.303 2855 53.4322
140.419 2876 53.6284
140.535 2996 54.7357
140.652 3051 55.2359
140.768 0 1
140.884 0 1
141 0 1
141.115 0 1
141.231 0 1
141.347 0 1
141.463 0 1
141.578 0 1
141.694 0 1
144.104 0 1
144.219 0 1
144.335 0 1
144.45 0 1
144.566 0 1
144.682 0 1
144.798 0 1
144.914 0 1
145.03 0 1
145.146 8520 92.3038
145.262 8634 92.9193
145.378 8937 94.5357
145.494 9067 95.2208
145.61 8906 94.3716
145.726 9039 95.0737
145.842 9125 95.5249
145.959 9036 95.0579
146.075 8984 94.784
146.192 9035 95.0526
146.308 8755 93.5682
146.425 8565 92.5473
146.541 8097 89.9833
146.658 7212 84.9235
146.774 5901 76.818
146.891 5784 76.0526
147.008 6433 80.206
147.125 7867 88.6961
147.241 8463 91.9946
147.358 8982 94.7734
147.475 8793 93.771
147.592 8843 94.0372
147.709 8743 93.504
147.826 8801 93.8136
147.943 9023 94.9895
148.06 8849 94.0691
148.177 8987 94.7998
148.294 8924 94.4669
148.411 8901 94.3451
148.528 8823 93.9308
148.645 8894 94.308
148.762 8809 93.8563
148.88 9075 95.2628
148.997 8735 93.4612
149.114 9402 96.9639
149.231 9118 95.4882
149.349 9188 95.8541
149.466 9079 95.2838
149.583 9080 95.289
149.701 9078 95.2785
149.818 9118 95.4882
149.935 9139 95.5981
150.053 9181 95.8175
150.17 8765 93.6216
150.287 7761 88.0965
150.405 6763 82.2375
150.522 6162 78.4984
150.64 6670 81.6701
150.757 7406 86.0581
150.875 8416 91.7388
150.992 8918 94.4352
151.11 8640 92.9516
151.227 8901 94.3451
151.344 8914 94.414
151.462 8658 93.0484
151.579 8946 94.5833
151.697 8869 94.1754
151.814 8859 94.1223
151.932 8822 93.9255
152.049 8889 94.2815
152.167 8951 94.6097
152.284 8778 93.691
152.402 9048 95.121
152.519 9210 95.9687
152.636 8992 94.8262
152.754 9009 94.9158
152.871 9308 96.478
152.989 9070 95.2365
153.106 9343 96.6592
153.223 9267 96.2653
153.341 9238 96.1145
153.458 9523 97.5859
153.575 9492 97.4269
153.693 9307 96.4728
153.81 8932 94.5093
153.927 7974 89.2973
154.044 6867 82.8674
154.162 6456 80.3492
154.279 7073 84.1011
154.396 8032 89.6214
154.513 8823 93.9308
154.63 9187 95.8488
154.747 9165 95.734
154.864 9324 96.5609
154.981 9103 95.4096
155.098 8933 94.5145
155.215 8765 93.6216
155.332 8526 92.3363
155.449 8411 91.7115
155.566 8363 91.4494
155.683 8080 89.8888
155.8 7949 89.1572
155.917 7678 87.6242
156.033 7710 87.8066
156.15 0 1
156.267 0 1
156.383 0 1
156.5 0 1
156.617 0 1
156.733 0 1
156.85 0 1
156.966 0 1
157.082 0 1
157.199 0 1
157.315 0 1
157.431 0 1
157.547 0 1
157.664 0 1
157.78 0 1
157.896 0 1
158.012 0 1
158.128 0 1
158.244 0 1
158.359 0 1
158.475 0 1
158.591 0 1
158.706 0 1
