
6.15755 0 1
6.2731 0 1
6.3887 0 1
6.50437 0 1
6.62009 0 1
6.73587 0 1
6.8517 0 1
6.96759 0 1
7.08353 0 1
7.19952 0 1
7.31557 0 1
7.43166 0 1
7.54781 0 1
7.664 0 1
7.78024 0 1
7.89653 0 1
8.01286 0 1
8.12924 0 1
8.24567 0 1
8.36213 0 1
8.47864 0 1
8.59519 0 1
8.71178 0 1
8.82841 0 1
8.94508 0 1
9.06179 0 1
9.17853 0 1
9.29531 0 1
9.41212 0 1
9.52897 0 1
9.64584 0 1
9.76276 0 1
9.8797 0 1
9.99667 0 1
10.1137 0 1
10.2307 0 1
10.3478 0 1
10.4648 0 1
10.5819 0 1
10.6991 0 1
10.8162 0 1
10.9334 0 1
11.0506 0 1
11.1678 0 1
11.285 0 1
11.4023 0 1
11.5196 0 1
11.6369 0 1
11.7542 0 1
11.8715 0 1
11.9888 0 1
12.1062 0 1
12.2235 0 1
12.3409 0 1
12.4582 0 1
12.5756 0 1
12.693 0 1
12.8104 0 1
12.9278 0 1
13.0452 0 1
13.1626 0 1
13.28 0 1
13.3974 0 1
13.5149 0 1
13.6323 0 1
13.7497 0 1
13.8671 0 1
13.9845 0 1
14.1019 0 1
14.2193 0 1
14.3367 0 1
14.4541 0 1
14.5714 0 1
14.6888 0 1
14.8062 0 1
14.9235 0 1
15.0408 703 26.5141
15.1581 818 28.6007
15.2755 832 28.8444
15.3927 848 29.1204
15.51 832 28.8444
15.6273 854 29.2233
15.7445 880 29.6648
15.8617 894 29.8998
15.9789 836 28.9137
16.0961 859 29.3087
16.2132 827 28.7576
16.3304 785 28.0179
16.4475 790 28.1069
16.5646 767 27.6948
16.6816 756 27.4955
16.7986 807 28.4077
16.9156 742 27.2397
17.0326 731 27.037
17.1496 777 27.8747
17.2665 712 26.6833
17.3833 720 26.8328
17.5002 747 27.3313
17.617 724 26.9072
17.7338 734 27.0924
17.8505 754 27.4591
17.9672 817 28.5832
18.0839 860 29.3258
18.2005 881 29.6816
18.3171 840 28.9828
18.4337 836 28.9137
18.5502 914 30.2324
18.6666 924 30.3974
18.7831 911 30.1828
18.8994 903 30.05
19.0158 889 29.8161
19.1321 846 29.0861
19.2483 881 29.6816
19.3645 828 28.775
19.4806 889 29.8161
19.5967 821 28.6531
19.7128 792 28.1425
19.8288 751 27.4044
19.9447 683 26.1343
20.0606 0 1
20.1764 0 1
20.2922 0 1
20.4079 0 1
20.5236 0 1
20.6392 0 1
20.7548 0 1
20.8702 0 1
23.3078 0 1
23.4233 0 1
23.539 0 1
23.6547 0 1
23.7704 0 1
23.8862 0 1
24.0021 0 1
24.118 0 1
24.234 0 1
24.35 0 1
24.4661 862 29.3598
24.5822 788 28.0713
24.6984 815 28.5482
24.8146 774 27.8209
24.9309 766 27.6767
25.0472 804 28.3549
25.1636 872 29.5296
25.28 886 29.7658
25.3965 860 29.3258
25.513 892 29.8664
25.6296 876 29.5973
25.7462 906 30.0998
25.8628 882 29.6985
25.9795 924 30.3974
26.0962 834 28.8791
26.213 842 29.0172
26.3298 903 30.05
26.4466 888 29.7993
26.5635 827 28.7576
26.6804 813 28.5132
26.7973 852 29.189
26.9143 810 28.4605
27.0313 873 29.5466
27.1483 797 28.2312
27.2653 737 27.1477
27.3824 777 27.8747
27.4996 828 28.775
27.6167 826 28.7402
27.7339 810 28.4605
27.8511 802 28.3196
27.9683 825 28.7228
28.0855 859 29.3087
28.2028 842 29.0172
28.3201 763 27.6225
28.4374 779 27.9106
28.5547 827 28.7576
28.6721 783 27.9821
28.7894 862 29.3598
28.9068 769 27.7308
29.0242 857 29.2746
29.1416 834 28.8791
29.259 773 27.8029
29.3764 822 28.6705
29.4939 810 28.4605
29.6113 777 27.8747
29.7288 740 27.2029
29.8463 752 27.4226
29.9638 727 26.9629
30.0812 738 27.1662
30.1987 710 26.6458
30.3162 786 28.0357
30.4337 759 27.55
30.5512 752 27.4226
30.6687 699 26.4386
30.7862 782 27.9643
30.9037 841 29
31.0212 853 29.2062
31.1387 794 28.178
31.2562 840 28.9828
31.3737 838 28.9482
31.4912 847 29.1033
31.6087 803 28.3373
31.7262 845 29.0689
31.8436 849 29.1376
31.9611 781 27.9464
32.0785 744 27.2764
32.1959 837 28.931
32.3134 803 28.3373
32.4308 796 28.2135
32.5482 775 27.8388
32.6655 822 28.6705
32.7829 745 27.2947
32.9002 762 27.6043
33.0176 742 27.2397
33.1349 750 27.3861
33.2522 710 26.6458
33.3694 683 26.1343
33.4867 649 25.4755
33.6039 673 25.9422
33.7211 700 26.4575
33.8383 681 26.096
33.9554 703 26.5141
34.0725 796 28.2135
34.1896 736 27.1293
34.3067 716 26.7582
34.4237 747 27.3313
34.5407 765 27.6586
34.6577 800 28.2843
34.7746 862 29.3598
34.8915 888 29.7993
35.0084 893 29.8831
35.1252 884 29.7321
35.242 846 29.0861
35.3587 852 29.189
35.4755 814 28.5307
35.5921 814 28.5307
35.7088 765 27.6586
35.8254 737 27.1477
35.9419 772 27.7849
36.0584 725 26.9258
36.1749 714 26.7208
36.2913 725 26.9258
36.4077 749 27.3679
36.524 718 26.7955
36.6403 649 25.4755
36.7565 646 25.4165
36.8727 649 25.4755
36.9889 687 26.2107
37.1049 622 24.9399
37.221 0 1
37.3369 0 1
37.4529 0 1
37.5687 0 1
37.6845 0 1
37.8003 0 1
37.916 0 1
38.0316 0 1
38.1472 0 1
40.5851 0 1
40.7008 0 1
40.8164 0 1
40.9322 0 1
41.048 0 1
41.1639 0 1
41.2798 0 1
41.3958 0 1
41.5118 0 1
41.6279 0 1
41.744 562 23.7065
41.8602 594 24.3721
41.9765 546 23.3666
42.0928 526 22.9347
42.2091 556 23.5797
42.3255 560 23.6643
42.4419 525 22.9129
42.5584 521 22.8254
42.675 545 23.3452
42.7915 572 23.9165
42.9081 628 25.0599
43.0248 591 24.3105
43.1415 560 23.6643
43.2582 516 22.7156
43.375 625 25
43.4918 628 25.0599
43.6087 620 24.8998
43.7256 633 25.1595
43.8425 620 24.8998
43.9595 600 24.4949
44.0765 529 23
44.1935 570 23.8747
44.3106 587 24.2281
44.4277 587 24.2281
44.5448 528 22.9783
44.6619 519 22.7816
44.7791 504 22.4499
44.8963 548 23.4094
45.0136 522 22.8473
45.1308 503 22.4277
45.2481 489 22.1133
45.3654 431 20.7605
45.4827 473 21.7486
45.6001 441 21
45.7174 429 20.7123
45.8348 381 19.5192
45.9522 406 20.1494
46.0697 348 18.6548
46.1871 392 19.799
46.3046 431 20.7605
46.422 449 21.1896
46.5395 424 20.5913
46.657 423 20.567
46.7745 379 19.4679
46.892 373 19.3132
47.0096 425 20.6155
47.1271 430 20.7364
47.2446 411 20.2731
47.3622 432 20.7846
47.4797 443 21.0476
47.5973 407 20.1742
47.7149 386 19.6469
47.8324 382 19.5448
47.95 363 19.0526
48.0675 379 19.4679
48.1851 355 18.8414
48.3027 348 18.6548
48.4202 354 18.8149
48.5378 359 18.9473
48.6554 411 20.2731
48.7729 388 19.6977
48.8904 418 20.445
49.008 356 18.868
49.1255 351 18.735
49.243 348 18.6548
49.3605 374 19.3391
49.478 354 18.8149
49.5955 355 18.8414
49.713 387 19.6723
49.8304 391 19.7737
49.9479 373 19.3132
50.0653 413 20.3224
50.1827 381 19.5192
50.3001 339 18.412
50.4175 352 18.7617
50.5348 431 20.7605
50.6521 420 20.4939
50.7694 455 21.3307
50.8867 436 20.8806
51.004 431 20.7605
51.1212 453 21.2838
51.2384 407 20.1742
51.3556 451 21.2368
51.4727 454 21.3073
51.5899 488 22.0907
51.707 490 22.1359
51.824 444 21.0713
51.9411 469 21.6564
52.0581 492 22.1811
52.175 469 21.6564
52.2919 483 21.9773
52.4088 499 22.3383
52.5257 516 22.7156
52.6425 510 22.5832
52.7593 482 21.9545
52.876 485 22.0227
52.9927 509 22.561
53.1094 501 22.383
53.226 460 21.4476
53.3426 500 22.3607
53.4591 529 23
53.5756 564 23.7487
53.692 574 23.9583
53.8084 474 21.7715
53.9248 483 21.9773
54.0411 517 22.7376
54.1573 557 23.6008
54.2735 0 1
54.3896 0 1
54.5057 0 1
54.6217 0 1
54.7377 0 1
54.8537 0 1
54.9695 0 1
55.0853 0 1
55.2011 0 1
55.3168 0 1
55.4324 0 1
57.824 0 1
57.9396 0 1
58.0553 0 1
58.1711 0 1
58.2869 0 1
58.4028 0 1
58.5187 0 1
58.6347 0 1
58.7508 0 1
58.8669 0 1
58.983 541 23.2594
59.0992 597 24.4336
59.2155 580 24.0832
59.3318 664 25.7682
59.4482 671 25.9037
59.5646 700 26.4575
59.681 756 27.4955
59.7975 658 25.6515
59.9141 671 25.9037
60.0306 680 26.0768
60.1473 649 25.4755
60.2639 643 25.3574
60.3807 625 25
60.4974 622 24.9399
60.6142 635 25.1992
60.731 630 25.0998
60.8479 671 25.9037
60.9648 643 25.3574
61.0818 623 24.96
61.1987 621 24.9199
61.3158 608 24.6577
61.4328 579 24.0624
61.5499 562 23.7065
61.667 551 23.4734
61.7841 543 23.3024
61.9013 566 23.7908
62.0185 577 24.0208
62.1357 581 24.1039
62.253 548 23.4094
62.3702 493 22.2036
62.4875 517 22.7376
62.6049 535 23.1301
62.7222 535 23.1301
62.8396 614 24.779
62.9569 588 24.2487
63.0743 617 24.8395
63.1918 581 24.1039
63.3092 596 24.4131
63.4267 597 24.4336
63.5441 595 24.3926
63.6616 569 23.8537
63.7791 612 24.7386
63.8966 566 23.7908
64.0142 554 23.5372
64.1317 590 24.2899
64.2492 617 24.8395
64.3668 576 24
64.4843 583 24.1454
64.6019 557 23.6008
64.7195 535 23.1301
64.837 580 24.0832
64.9546 543 23.3024
65.0722 514 22.6716
65.1898 499 22.3383
65.3074 502 22.4054
65.4249 521 22.8254
65.5425 556 23.5797
65.6601 513 22.6495
65.7777 548 23.4094
65.8952 494 22.2261
66.0128 463 21.5174
66.1304 421 20.5183
66.2479 525 22.9129
66.3655 530 23.0217
66.483 576 24
66.6005 622 24.9399
66.718 596 24.4131
66.8355 634 25.1794
66.953 610 24.6982
67.0705 560 23.6643
67.1879 587 24.2281
67.3054 533 23.0868
67.4228 589 24.2693
67.5402 574 23.9583
67.6576 586 24.2074
67.7749 608 24.6577
67.8923 605 24.5967
68.0096 584 24.1661
68.1269 616 24.8193
68.2442 612 24.7386
68.3614 589 24.2693
68.4787 535 23.1301
68.5958 554 23.5372
68.713 536 23.1517
68.8302 520 22.8035
68.9473 502 22.4054
69.0643 532 23.0651
69.1814 553 23.516
69.2984 545 23.3452
69.4154 550 23.4521
69.5323 527 22.9565
69.6492 511 22.6053
69.7661 456 21.3542
69.8829 526 22.9347
69.9997 563 23.7276
70.1165 640 25.2982
70.2332 643 25.3574
70.3499 668 25.8457
70.4665 631 25.1197
70.5831 653 25.5539
70.6996 673 25.9422
70.8161 647 25.4362
70.9326 638 25.2587
71.049 644 25.3772
71.1653 617 24.8395
71.2817 627 25.04
71.3979 582 24.1247
71.5141 641 25.318
71.6303 576 24
71.7464 573 23.9374
71.8624 0 1
71.9784 0 1
72.0944 0 1
72.2102 0 1
72.3261 0 1
72.4418 0 1
72.5575 0 1
72.6732 0 1
75.1054 0 1
75.2209 0 1
75.3365 0 1
75.4521 0 1
75.5678 0 1
75.6835 0 1
75.7993 0 1
75.9151 0 1
76.031 0 1
76.147 553 23.516
76.263 595 24.3926
76.3791 588 24.2487
76.4952 609 24.6779
76.6113 639 25.2784
76.7276 673 25.9422
76.8438 604 24.5764
76.9601 687 26.2107
77.0765 672 25.923
77.1929 673 25.9422
77.3093 660 25.6905
77.4258 607 24.6374
77.5423 568 23.8328
77.6589 565 23.7697
77.7755 563 23.7276
77.8921 556 23.5797
78.0088 538 23.1948
78.1256 531 23.0434
78.2423 585 24.1868
78.3591 632 25.1396
78.4759 574 23.9583
78.5928 533 23.0868
78.7097 464 21.5407
78.8266 425 20.6155
78.9436 516 22.7156
79.0606 592 24.3311
79.1776 665 25.7876
79.2946 670 25.8844
79.4117 687 26.2107
79.5288 625 25
79.6459 595 24.3926
79.7631 597 24.4336
79.8802 607 24.6374
79.9974 575 23.9792
80.1147 598 24.454
80.2319 607 24.6374
80.3491 562 23.7065
80.4664 617 24.8395
80.5837 595 24.3926
80.701 620 24.8998
80.8183 610 24.6982
80.9357 599 24.4745
81.053 605 24.5967
81.1704 557 23.6008
81.2877 596 24.4131
81.4051 550 23.4521
81.5225 472 21.7256
81.6399 523 22.8692
81.7573 514 22.6716
81.8747 568 23.8328
81.9922 609 24.6779
82.1096 565 23.7697
82.227 454 21.3073
82.3444 407 20.1742
82.4619 428 20.6882
82.5793 484 22
82.6967 504 22.4499
82.8142 612 24.7386
82.9316 577 24.0208
83.049 571 23.8956
83.1664 602 24.5357
83.2838 610 24.6982
83.4012 592 24.3311
83.5186 558 23.622
83.636 561 23.6854
83.7534 567 23.8118
83.8708 534 23.1084
83.9881 547 23.388
84.1055 554 23.5372
84.2228 615 24.7992
84.3401 608 24.6577
84.4575 625 25
84.5747 594 24.3721
84.692 556 23.5797
84.8093 571 23.8956
84.9265 539 23.2164
85.0437 510 22.5832
85.1609 501 22.383
85.2781 517 22.7376
85.3952 547 23.388
85.5123 567 23.8118
85.6294 602 24.5357
85.7465 565 23.7697
85.8636 558 23.622
85.9806 497 22.2935
86.0976 477 21.8403
86.2145 558 23.622
86.3315 636 25.219
86.4484 602 24.5357
86.5652 678 26.0384
86.682 670 25.8844
86.7988 720 26.8328
86.9156 668 25.8457
87.0323 675 25.9808
87.149 686 26.1916
87.2657 617 24.8395
87.3823 677 26.0192
87.4988 686 26.1916
87.6154 698 26.4197
87.7318 719 26.8142
87.8483 746 27.313
87.9647 797 28.2312
88.081 791 28.1247
88.1973 683 26.1343
88.3136 714 26.7208
88.4298 658 25.6515
88.546 676 26
88.6621 619 24.8797
88.7781 609 24.6779
88.8942 0 1
89.0101 0 1
89.126 0 1
89.2419 0 1
89.3577 0 1
89.4734 0 1
89.5891 0 1
89.7047 0 1
89.8203 0 1
89.9358 0 1
92.3269 0 1
92.4424 0 1
92.558 0 1
92.6736 0 1
92.7893 0 1
92.905 0 1
93.0208 0 1
93.1366 0 1
93.2525 0 1
93.3685 0 1
93.4845 0 1
93.6005 801 28.3019
93.7167 795 28.1957
93.8328 767 27.6948
93.949 718 26.7955
94.0653 690 26.2679
94.1816 680 26.0768
94.2979 670 25.8844
94.4143 735 27.1109
94.5307 747 27.3313
94.6472 764 27.6405
94.7637 739 27.1846
94.8803 737 27.1477
94.9969 712 26.6833
95.1135 750 27.3861
95.2302 659 25.671
95.3469 711 26.6646
95.4637 728 26.9815
95.5805 843 29.0345
95.6973 830 28.8097
95.8142 840 28.9828
95.9311 826 28.7402
96.048 814 28.5307
96.1649 857 29.2746
96.2819 791 28.1247
96.3989 765 27.6586
96.516 763 27.6225
96.633 770 27.7489
96.7501 817 28.5832
96.8673 839 28.9655
96.9844 880 29.6648
97.1016 825 28.7228
97.2188 854 29.2233
97.336 870 29.4958
97.4532 813 28.5132
97.5704 818 28.6007
97.6877 782 27.9643
97.805 682 26.1151
97.9223 710 26.6458
98.0396 726 26.9444
98.1569 749 27.3679
98.2743 826 28.7402
98.3916 850 29.1548
98.509 792 28.1425
98.6264 750 27.3861
98.7438 742 27.2397
98.8612 707 26.5895
98.9786 757 27.5136
99.096 824 28.7054
99.2134 884 29.7321
99.3308 854 29.2233
99.4482 841 29
99.5656 841 29
99.6831 874 29.5635
99.8005 860 29.3258
99.9179 918 30.2985
100.035 826 28.7402
100.153 836 28.9137
100.27 817 28.5832
100.388 831 28.8271
100.505 842 29.0172
100.622 929 30.4795
100.74 956 30.9192
100.857 919 30.315
100.975 934 30.5614
101.092 887 29.7825
101.209 853 29.2062
101.327 840 28.9828
101.444 813 28.5132
101.561 775 27.8388
101.679 813 28.5132
101.796 884 29.7321
101.913 885 29.7489
102.03 876 29.5973
102.148 858 29.2916
102.265 844 29.0517
102.382 872 29.5296
102.499 836 28.9137
102.616 893 29.8831
102.733 906 30.0998
102.851 963 31.0322
102.968 991 31.4802
103.085 938 30.6268
103.202 968 31.1127
103.319 963 31.0322
103.436 943 30.7083
103.552 915 30.249
103.669 920 30.3315
103.786 918 30.2985
103.903 960 30.9839
104.02 978 31.273
104.137 1021 31.9531
104.253 1078 32.8329
104.37 1085 32.9393
104.487 1048 32.3728
104.603 1062 32.5883
104.72 1024 32
104.836 961 31
104.953 907 30.1164
105.069 954 30.8869
105.186 1024 32
105.302 1026 32.0312
105.418 1074 32.7719
105.535 1085 32.9393
105.651 1069 32.6956
105.767 1027 32.0468
105.883 1012 31.8119
105.999 1008 31.749
106.115 0 1
106.231 0 1
106.347 0 1
106.463 0 1
106.579 0 1
106.694 0 1
106.81 0 1
106.926 0 1
107.041 0 1
107.157 0 1
109.576 0 1
109.692 0 1
109.807 0 1
109.923 0 1
110.039 0 1
110.155 0 1
110.27 0 1
110.386 0 1
110.502 0 1
110.618 1078 32.8329
110.735 1051 32.4191
110.851 981 31.3209
110.967 980 31.305
111.083 999 31.607
111.199 1070 32.7109
111.316 1121 33.4813
111.432 1107 33.2716
111.549 1137 33.7194
111.665 1134 33.6749
111.782 1055 32.4808
111.898 1059 32.5423
112.015 1072 32.7414
112.132 995 31.5436
112.248 980 31.305
112.365 1028 32.0624
112.482 971 31.1609
112.599 1080 32.8634
112.716 1114 33.3766
112.832 1133 33.6601
112.949 1174 34.2637
113.066 1172 34.2345
113.183 1103 33.2114
113.3 1154 33.9706
113.417 1045 32.3265
113.534 1040 32.249
113.652 999 31.607
113.769 951 30.8383
113.886 1051 32.4191
114.003 1034 32.1559
114.12 1068 32.6803
114.238 1065 32.6343
114.355 1026 32.0312
114.472 977 31.257
114.589 906 30.0998
114.707 993 31.5119
114.824 1106 33.2566
114.942 1138 33.7343
115.059 1074 32.7719
115.176 1039 32.2335
115.294 1095 33.0908
115.411 1130 33.6155
115.529 1116 33.4066
115.646 1060 32.5576
115.764 1041 32.2645
115.881 1012 31.8119
115.999 1038 32.218
116.116 1095 33.0908
116.234 1137 33.7194
116.351 1144 33.8231
116.469 1145 33.8378
116.586 1247 35.3129
116.704 1237 35.171
116.821 1220 34.9285
116.939 1133 33.6601
117.056 1111 33.3317
117.174 1072 32.7414
117.291 1112 33.3467
117.409 1148 33.8821
117.526 1126 33.5559
117.644 1210 34.7851
117.761 1138 33.7343
117.879 1166 34.1467
117.996 1078 32.8329
118.114 1056 32.4962
118.231 1100 33.1662
118.349 1100 33.1662
118.466 1105 33.2415
118.584 1179 34.3366
118.701 1167 34.1614
118.819 1106 33.2566
118.936 1126 33.5559
119.053 1187 34.4529
119.171 1116 33.4066
119.288 1080 32.8634
119.405 1038 32.218
119.523 1075 32.7872
119.64 1105 33.2415
119.757 1145 33.8378
119.875 1143 33.8083
119.992 1135 33.6898
120.109 1176 34.2929
120.226 1190 34.4964
120.343 1252 35.3836
120.46 1232 35.0999
120.578 1265 35.5668
120.695 1201 34.6554
120.812 1165 34.1321
120.929 1160 34.0588
121.046 1149 33.8969
121.163 1171 34.2199
121.279 1160 34.0588
121.396 1201 34.6554
121.513 1175 34.2783
121.63 1183 34.3948
121.747 1184 34.4093
121.863 1069 32.6956
121.98 1036 32.187
122.097 1125 33.541
122.213 1120 33.4664
122.33 1131 33.6303
122.446 1153 33.9559
122.563 1133 33.6601
122.679 1135 33.6898
122.795 1064 32.619
122.912 1051 32.4191
123.028 1031 32.1092
123.144 1034 32.1559
123.26 995 31.5436
123.377 0 1
123.493 0 1
123.609 0 1
123.725 0 1
123.84 0 1
123.956 0 1
124.072 0 1
124.188 0 1
124.303 0 1
124.419 0 1
126.852 0 1
126.968 0 1
127.083 0 1
127.199 0 1
127.315 0 1
127.431 0 1
127.547 0 1
127.663 0 1
127.779 0 1
127.895 0 1
128.011 0 1
128.127 0 1
128.243 0 1
128.359 1256 35.4401
128.476 1307 36.1525
128.592 1313 36.2353
128.708 1304 36.1109
128.825 1277 35.7351
128.941 1315 36.2629
129.058 1324 36.3868
129.174 1329 36.4555
129.291 1296 36
129.408 1357 36.8375
129.524 1349 36.7287
129.641 1362 36.9053
129.758 1420 37.6829
129.875 1380 37.1484
129.992 1437 37.9078
130.108 1522 39.0128
130.225 1457 38.1707
130.342 1534 39.1663
130.459 1508 38.833
130.576 1474 38.3927
130.693 1403 37.4566
130.81 1388 37.2559
130.928 1353 36.7831
131.045 1402 37.4433
131.162 1456 38.1576
131.279 1542 39.2683
131.396 1503 38.7685
131.513 1537 39.2046
131.631 1503 38.7685
131.748 1475 38.4057
131.865 1445 38.0132
131.983 1401 37.4299
132.1 1369 37
132.217 1422 37.7094
132.335 1449 38.0657
132.452 1416 37.6298
132.57 1396 37.3631
132.687 1348 36.7151
132.804 1480 38.4708
132.922 1421 37.6962
133.039 1402 37.4433
133.157 1448 38.0526
133.274 1508 38.833
133.392 1441 37.9605
133.509 1510 38.8587
133.627 1511 38.8716
133.744 1527 39.0768
133.862 1586 39.8246
133.979 1683 41.0244
134.097 1572 39.6485
134.214 1512 38.8844
134.332 1599 39.9875
134.449 1524 39.0384
134.567 1644 40.5463
134.684 1565 39.5601
134.802 1643 40.5339
134.919 1632 40.398
135.037 1650 40.6202
135.154 1640 40.4969
135.272 1648 40.5956
135.389 1623 40.2865
135.507 1564 39.5474
135.624 1486 38.5487
135.742 1515 38.923
135.859 1477 38.4318
135.977 1489 38.5876
136.094 1509 38.8458
136.211 1452 38.1051
136.329 1461 38.223
136.446 1493 38.6394
136.564 1591 39.8873
136.681 1552 39.3954
136.798 1536 39.1918
136.915 1507 38.8201
137.033 1451 38.092
137.15 1456 38.1576
137.267 1524 39.0384
137.384 1536 39.1918
137.502 1520 38.9872
137.619 1577 39.7115
137.736 1629 40.3609
137.853 1642 40.5216
137.97 1645 40.5586
138.087 1601 40.0125
138.204 1629 40.3609
138.321 1695 41.1704
138.438 1796 42.3792
138.555 1732 41.6173
138.672 1732 41.6173
138.788 1830 42.7785
138.905 1810 42.5441
139.022 1759 41.9404
139.139 1750 41.833
139.255 1630 40.3733
139.372 1610 40.1248
139.488 1652 40.6448
139.605 1593 39.9124
139.721 1630 40.3733
139.838 1582 39.7744
139.954 1610 40.1248
140.071 1608 40.0999
140.187 1663 40.7799
140.303 1595 39.9375
140.419 1553 39.4081
140.535 1516 38.9358
140.652 1476 38.4187
140.768 0 1
140.884 0 1
141 0 1
141.115 0 1
141.231 0 1
141.347 0 1
141.463 0 1
141.578 0 1
141.694 0 1
144.104 0 1
144.219 0 1
144.335 0 1
144.45 0 1
144.566 0 1
144.682 0 1
144.798 0 1
144.914 0 1
145.03 0 1
145.146 1272 35.6651
145.262 1335 36.5377
145.378 1442 37.9737
145.494 1374 37.0675
145.61 1471 38.3536
145.726 1373 37.054
145.842 1415 37.6165
145.959 1422 37.7094
146.075 1425 37.7492
146.192 1372 37.0405
146.308 1309 36.1801
146.425 1422 37.7094
146.541 1414 37.6032
146.658 1342 36.6333
146.774 1333 36.5103
146.891 1279 35.7631
147.008 1309 36.1801
147.125 1250 35.3553
147.241 1354 36.7967
147.358 1367 36.973
147.475 1331 36.4829
147.592 1435 37.8814
147.709 1366 36.9594
147.826 1449 38.0657
147.943 1459 38.1969
148.06 1405 37.4833
148.177 1484 38.5227
148.294 1435 37.8814
148.411 1472 38.3667
148.528 1478 38.4448
148.645 1596 39.95
148.762 1535 39.1791
148.88 1559 39.4842
148.997 1516 38.9358
149.114 1610 40.1248
149.231 1624 40.2989
149.349 1609 40.1123
149.466 1580 39.7492
149.583 1585 39.8121
149.701 1624 40.2989
149.818 1652 40.6448
149.935 1547 39.3319
150.053 1608 40.0999
150.17 1543 39.281
150.287 1473 38.3797
150.405 1560 39.4968
150.522 1401 37.4299
150.64 1466 38.2884
150.757 1458 38.1838
150.875 1342 36.6333
150.992 1356 36.8239
151.11 1293 35.9583
151.227 1301 36.0694
151.344 1269 35.623
151.462 1294 35.9722
151.579 1280 35.7771
151.697 1224 34.9857
151.814 1250 35.3553
151.932 1261 35.5106
152.049 1269 35.623
152.167 1333 36.5103
152.284 1286 35.8608
152.402 1352 36.7696
152.519 1403 37.4566
152.636 1416 37.6298
152.754 1464 38.2623
152.871 1526 39.064
152.989 1433 37.855
153.106 1478 38.4448
153.223 1515 38.923
153.341 1606 40.0749
153.458 1554 39.4208
153.575 1539 39.2301
153.693 1568 39.598
153.81 1680 40.9878
153.927 1568 39.598
154.044 1577 39.7115
154.162 1611 40.1373
154.279 1607 40.0874
154.396 1540 39.2428
154.513 1614 40.1746
154.63 1596 39.95
154.747 1623 40.2865
154.864 1596 39.95
154.981 1591 39.8873
155.098 1663 40.7799
155.215 1573 39.6611
155.332 1486 38.5487
155.449 1446 38.0263
155.566 1388 37.2559
155.683 1329 36.4555
155.8 1303 36.0971
155.917 1321 36.3456
156.033 1229 35.0571
156.15 0 1
156.267 0 1
156.383 0 1
156.5 0 1
156.617 0 1
156.733 0 1
156.85 0 1
156.966 0 1
157.082 0 1
157.199 0 1
157.315 0 1
157.431 0 1
157.547 0 1
157.664 0 1
157.78 0 1
157.896 0 1
158.012 0 1
158.128 0 1
158.244 0 1
158.359 0 1
158.475 0 1
158.591 0 1
158.706 0 1
