
6.15755 0 1
6.2731 0 1
6.3887 0 1
6.50437 0 1
6.62009 0 1
6.73587 0 1
6.8517 0 1
6.96759 0 1
7.08353 0 1
7.19952 0 1
7.31557 0 1
7.43166 0 1
7.54781 0 1
7.664 0 1
7.78024 0 1
7.89653 0 1
8.01286 0 1
8.12924 0 1
8.24567 0 1
8.36213 0 1
8.47864 0 1
8.59519 0 1
8.71178 0 1
8.82841 0 1
8.94508 0 1
9.06179 0 1
9.17853 0 1
9.29531 0 1
9.41212 0 1
9.52897 0 1
9.64584 0 1
9.76276 0 1
9.8797 0 1
9.99667 0 1
10.1137 0 1
10.2307 0 1
10.3478 0 1
10.4648 0 1
10.5819 0 1
10.6991 0 1
10.8162 0 1
10.9334 0 1
11.0506 0 1
11.1678 0 1
11.285 0 1
11.4023 0 1
11.5196 0 1
11.6369 0 1
11.7542 0 1
11.8715 0 1
11.9888 0 1
12.1062 0 1
12.2235 0 1
12.3409 0 1
12.4582 0 1
12.5756 0 1
12.693 0 1
12.8104 0 1
12.9278 0 1
13.0452 0 1
13.1626 0 1
13.28 0 1
13.3974 0 1
13.5149 0 1
13.6323 0 1
13.7497 0 1
13.8671 0 1
13.9845 0 1
14.1019 0 1
14.2193 0 1
14.3367 0 1
14.4541 0 1
14.5714 0 1
14.6888 0 1
14.8062 0 1
14.9235 0 1
15.0408 0 0
15.1581 0 0
15.2755 0 0
15.3927 0 0
15.51 0 0
15.6273 0 0
15.7445 0 0
15.8617 0 0
15.9789 0 0
16.0961 0 0
16.2132 0 0
16.3304 0 0
16.4475 0 0
16.5646 0 0
16.6816 0 0
16.7986 0 0
16.9156 0 0
17.0326 0 0
17.1496 0 0
17.2665 0 0
17.3833 0 0
17.5002 0 0
17.617 0 0
17.7338 0 0
17.8505 0 0
17.9672 0 0
18.0839 0 0
18.2005 0 0
18.3171 0 0
18.4337 0 0
18.5502 0 0
18.6666 0 0
18.7831 0 0
18.8994 0 0
19.0158 0 0
19.1321 0 0
19.2483 0 0
19.3645 0 0
19.4806 0 0
19.5967 0 0
19.7128 0 0
19.8288 0 0
19.9447 0 0
20.0606 0 1
20.1764 0 1
20.2922 0 1
20.4079 0 1
20.5236 0 1
20.6392 0 1
20.7548 0 1
20.8702 0 1
23.3078 0 1
23.4233 0 1
23.539 0 1
23.6547 0 1
23.7704 0 1
23.8862 0 1
24.0021 0 1
24.118 0 1
24.234 0 1
24.35 0 1
24.4661 557 23.6008
24.5822 573 23.9374
24.6984 652 25.5343
24.8146 766 27.6767
24.9309 929 30.4795
25.0472 1058 32.5269
25.1636 1170 34.2053
25.28 1112 33.3467
25.3965 1136 33.7046
25.513 1102 33.1964
25.6296 1045 32.3265
25.7462 1000 31.6228
25.8628 965 31.0644
25.9795 934 30.5614
26.0962 930 30.4959
26.213 868 29.4618
26.3298 874 29.5635
26.4466 826 28.7402
26.5635 794 28.178
26.6804 795 28.1957
26.7973 731 27.037
26.9143 731 27.037
27.0313 649 25.4755
27.1483 566 23.7908
27.2653 618 24.8596
27.3824 594 24.3721
27.4996 558 23.622
27.6167 549 23.4307
27.7339 549 23.4307
27.8511 601 24.5153
27.9683 653 25.5539
28.0855 691 26.2869
28.2028 727 26.9629
28.3201 659 25.671
28.4374 670 25.8844
28.5547 753 27.4408
28.6721 738 27.1662
28.7894 759 27.55
28.9068 825 28.7228
29.0242 870 29.4958
29.1416 766 27.6767
29.259 775 27.8388
29.3764 813 28.5132
29.4939 795 28.1957
29.6113 717 26.7769
29.7288 705 26.5518
29.8463 692 26.3059
29.9638 636 25.219
30.0812 699 26.4386
30.1987 663 25.7488
30.3162 659 25.671
30.4337 748 27.3496
30.5512 689 26.2488
30.6687 702 26.4953
30.7862 700 26.4575
30.9037 598 24.454
31.0212 612 24.7386
31.1387 663 25.7488
31.2562 681 26.096
31.3737 701 26.4764
31.4912 758 27.5318
31.6087 700 26.4575
31.7262 767 27.6948
31.8436 702 26.4953
31.9611 737 27.1477
32.0785 749 27.3679
32.1959 702 26.4953
32.3134 710 26.6458
32.4308 721 26.8514
32.5482 648 25.4558
32.6655 634 25.1794
32.7829 657 25.632
32.9002 603 24.5561
33.0176 607 24.6374
33.1349 552 23.4947
33.2522 576 24
33.3694 568 23.8328
33.4867 585 24.1868
33.6039 580 24.0832
33.7211 626 25.02
33.8383 601 24.5153
33.9554 681 26.096
34.0725 628 25.0599
34.1896 690 26.2679
34.3067 643 25.3574
34.4237 655 25.593
34.5407 628 25.0599
34.6577 636 25.219
34.7746 667 25.8263
34.8915 661 25.7099
35.0084 691 26.2869
35.1252 661 25.7099
35.242 703 26.5141
35.3587 712 26.6833
35.4755 701 26.4764
35.5921 684 26.1534
35.7088 669 25.865
35.8254 625 25
35.9419 579 24.0624
36.0584 574 23.9583
36.1749 548 23.4094
36.2913 513 22.6495
36.4077 508 22.5389
36.524 437 20.9045
36.6403 367 19.1572
36.7565 388 19.6977
36.8727 361 19
36.9889 328 18.1108
37.1049 269 16.4012
37.221 0 1
37.3369 0 1
37.4529 0 1
37.5687 0 1
37.6845 0 1
37.8003 0 1
37.916 0 1
38.0316 0 1
38.1472 0 1
40.5851 0 1
40.7008 0 1
40.8164 0 1
40.9322 0 1
41.048 0 1
41.1639 0 1
41.2798 0 1
41.3958 0 1
41.5118 0 1
41.6279 0 1
41.744 268 16.3707
41.8602 348 18.6548
41.9765 399 19.975
42.0928 421 20.5183
42.2091 434 20.8327
42.3255 453 21.2838
42.4419 481 21.9317
42.5584 509 22.561
42.675 537 23.1733
42.7915 486 22.0454
42.9081 568 23.8328
43.0248 601 24.5153
43.1415 607 24.6374
43.2582 630 25.0998
43.375 587 24.2281
43.4918 576 24
43.6087 592 24.3311
43.7256 558 23.622
43.8425 574 23.9583
43.9595 561 23.6854
44.0765 544 23.3238
44.1935 516 22.7156
44.3106 491 22.1585
44.4277 534 23.1084
44.5448 541 23.2594
44.6619 515 22.6936
44.7791 533 23.0868
44.8963 482 21.9545
45.0136 499 22.3383
45.1308 467 21.6102
45.2481 501 22.383
45.3654 423 20.567
45.4827 464 21.5407
45.6001 476 21.8174
45.7174 533 23.0868
45.8348 556 23.5797
45.9522 570 23.8747
46.0697 607 24.6374
46.1871 672 25.923
46.3046 770 27.7489
46.422 794 28.178
46.5395 861 29.3428
46.657 839 28.9655
46.7745 852 29.189
46.892 843 29.0345
47.0096 786 28.0357
47.1271 862 29.3598
47.2446 868 29.4618
47.3622 939 30.6431
47.4797 968 31.1127
47.5973 975 31.225
47.7149 978 31.273
47.8324 1010 31.7805
47.95 1020 31.9374
48.0675 977 31.257
48.1851 977 31.257
48.3027 996 31.5595
48.4202 1011 31.7962
48.5378 945 30.7409
48.6554 918 30.2985
48.7729 976 31.241
48.8904 915 30.249
49.008 904 30.0666
49.1255 868 29.4618
49.243 937 30.6105
49.3605 1014 31.8434
49.478 983 31.3528
49.5955 1024 32
49.713 927 30.4467
49.8304 981 31.3209
49.9479 963 31.0322
50.0653 922 30.3645
50.1827 887 29.7825
50.3001 774 27.8209
50.4175 580 24.0832
50.5348 566 23.7908
50.6521 525 22.9129
50.7694 642 25.3377
50.8867 621 24.9199
51.004 664 25.7682
51.1212 604 24.5764
51.2384 648 25.4558
51.3556 506 22.4944
51.4727 582 24.1247
51.5899 505 22.4722
51.707 509 22.561
51.824 526 22.9347
51.9411 522 22.8473
52.0581 480 21.9089
52.175 458 21.4009
52.2919 505 22.4722
52.4088 486 22.0454
52.5257 456 21.3542
52.6425 439 20.9523
52.7593 440 20.9762
52.876 408 20.199
52.9927 456 21.3542
53.1094 434 20.8327
53.226 453 21.2838
53.3426 415 20.3715
53.4591 390 19.7484
53.5756 379 19.4679
53.692 332 18.2209
53.8084 296 17.2047
53.9248 224 14.9666
54.0411 208 14.4222
54.1573 196 14
54.2735 0 1
54.3896 0 1
54.5057 0 1
54.6217 0 1
54.7377 0 1
54.8537 0 1
54.9695 0 1
55.0853 0 1
55.2011 0 1
55.3168 0 1
55.4324 0 1
57.824 0 1
57.9396 0 1
58.0553 0 1
58.1711 0 1
58.2869 0 1
58.4028 0 1
58.5187 0 1
58.6347 0 1
58.7508 0 1
58.8669 0 1
58.983 384 19.5959
59.0992 398 19.9499
59.2155 379 19.4679
59.3318 396 19.8997
59.4482 420 20.4939
59.5646 487 22.0681
59.681 541 23.2594
59.7975 524 22.891
59.9141 515 22.6936
60.0306 572 23.9165
60.1473 523 22.8692
60.2639 517 22.7376
60.3807 530 23.0217
60.4974 543 23.3024
60.6142 517 22.7376
60.731 514 22.6716
60.8479 531 23.0434
60.9648 561 23.6854
61.0818 532 23.0651
61.1987 575 23.9792
61.3158 513 22.6495
61.4328 528 22.9783
61.5499 492 22.1811
61.667 531 23.0434
61.7841 504 22.4499
61.9013 477 21.8403
62.0185 545 23.3452
62.1357 507 22.5167
62.253 507 22.5167
62.3702 523 22.8692
62.4875 486 22.0454
62.6049 461 21.4709
62.7222 430 20.7364
62.8396 486 22.0454
62.9569 508 22.5389
63.0743 539 23.2164
63.1918 547 23.388
63.3092 515 22.6936
63.4267 531 23.0434
63.5441 501 22.383
63.6616 516 22.7156
63.7791 547 23.388
63.8966 526 22.9347
64.0142 545 23.3452
64.1317 516 22.7156
64.2492 580 24.0832
64.3668 535 23.1301
64.4843 549 23.4307
64.6019 537 23.1733
64.7195 512 22.6274
64.837 475 21.7945
64.9546 503 22.4277
65.0722 512 22.6274
65.1898 501 22.383
65.3074 491 22.1585
65.4249 496 22.2711
65.5425 527 22.9565
65.6601 512 22.6274
65.7777 522 22.8473
65.8952 524 22.891
66.0128 478 21.8632
66.1304 454 21.3073
66.2479 388 19.6977
66.3655 415 20.3715
66.483 478 21.8632
66.6005 554 23.5372
66.718 564 23.7487
66.8355 530 23.0217
66.953 589 24.2693
67.0705 631 25.1197
67.1879 675 25.9808
67.3054 653 25.5539
67.4228 853 29.2062
67.5402 976 31.241
67.6576 1011 31.7962
67.7749 1146 33.8526
67.8923 1285 35.8469
68.0096 1363 36.9188
68.1269 1517 38.9487
68.2442 1575 39.6863
68.3614 1769 42.0595
68.4787 1811 42.5558
68.5958 1912 43.7264
68.713 2005 44.7772
68.8302 2092 45.7384
68.9473 2175 46.6369
69.0643 2213 47.0425
69.1814 2215 47.0638
69.2984 2328 48.2494
69.4154 2306 48.0208
69.5323 2388 48.8672
69.6492 2203 46.9361
69.7661 2033 45.0888
69.8829 1761 41.9643
69.9997 1875 43.3013
70.1165 2039 45.1553
70.2332 2135 46.2061
70.3499 1949 44.1475
70.4665 1799 42.4146
70.5831 1591 39.8873
70.6996 1489 38.5876
70.8161 1408 37.5233
70.9326 1415 37.6165
71.049 1309 36.1801
71.1653 1218 34.8999
71.2817 1274 35.6931
71.3979 1104 33.2265
71.5141 1066 32.6497
71.6303 1065 32.6343
71.7464 1020 31.9374
71.8624 0 1
71.9784 0 1
72.0944 0 1
72.2102 0 1
72.3261 0 1
72.4418 0 1
72.5575 0 1
72.6732 0 1
75.1054 0 1
75.2209 0 1
75.3365 0 1
75.4521 0 1
75.5678 0 1
75.6835 0 1
75.7993 0 1
75.9151 0 1
76.031 0 1
76.147 2446 49.4571
76.263 2626 51.2445
76.3791 2571 50.705
76.4952 2567 50.6656
76.6113 2467 49.6689
76.7276 2425 49.2443
76.8438 2402 49.0102
76.9601 2300 47.9583
77.0765 2225 47.1699
77.1929 2193 46.8295
77.3093 2042 45.1885
77.4258 2074 45.5412
77.5423 2052 45.299
77.6589 1947 44.1248
77.7755 1885 43.4166
77.8921 2003 44.7549
78.0088 1908 43.6807
78.1256 1903 43.6234
78.2423 1910 43.7035
78.3591 1816 42.6146
78.4759 1918 43.795
78.5928 1698 41.2068
78.7097 1567 39.5854
78.8266 1162 34.0881
78.9436 952 30.8545
79.0606 1030 32.0936
79.1776 1261 35.5106
79.2946 1560 39.4968
79.4117 1629 40.3609
79.5288 1606 40.0749
79.6459 1656 40.694
79.7631 1681 41
79.8802 1645 40.5586
79.9974 1657 40.7063
80.1147 1676 40.939
80.2319 1655 40.6817
80.3491 1564 39.5474
80.4664 1557 39.4588
80.5837 1531 39.128
80.701 1448 38.0526
80.8183 1496 38.6782
80.9357 1497 38.6911
81.053 1454 38.1314
81.1704 1360 36.8782
81.2877 1453 38.1182
81.4051 1314 36.2491
81.5225 1424 37.7359
81.6399 1305 36.1248
81.7573 1351 36.756
81.8747 1335 36.5377
81.9922 1339 36.5923
82.1096 1301 36.0694
82.227 1292 35.9444
82.3444 1153 33.9559
82.4619 995 31.5436
82.5793 809 28.4429
82.6967 856 29.2575
82.8142 1010 31.7805
82.9316 1187 34.4529
83.049 1279 35.7631
83.1664 1336 36.5513
83.2838 1320 36.3318
83.4012 1345 36.6742
83.5186 1312 36.2215
83.636 1298 36.0278
83.7534 1289 35.9026
83.8708 1230 35.0714
83.9881 1204 34.6987
84.1055 1256 35.4401
84.2228 1270 35.6371
84.3401 1186 34.4384
84.4575 1177 34.3074
84.5747 1082 32.8938
84.692 1072 32.7414
84.8093 994 31.5278
84.9265 919 30.315
85.0437 841 29
85.1609 818 28.6007
85.2781 790 28.1069
85.3952 719 26.8142
85.5123 700 26.4575
85.6294 648 25.4558
85.7465 628 25.0599
85.8636 601 24.5153
85.9806 506 22.4944
86.0976 465 21.5639
86.2145 407 20.1742
86.3315 477 21.8403
86.4484 559 23.6432
86.5652 526 22.9347
86.682 588 24.2487
86.7988 592 24.3311
86.9156 613 24.7588
87.0323 607 24.6374
87.149 554 23.5372
87.2657 563 23.7276
87.3823 552 23.4947
87.4988 530 23.0217
87.6154 538 23.1948
87.7318 473 21.7486
87.8483 444 21.0713
87.9647 434 20.8327
88.081 384 19.5959
88.1973 383 19.5704
88.3136 406 20.1494
88.4298 356 18.868
88.546 334 18.2757
88.6621 364 19.0788
88.7781 354 18.8149
88.8942 0 1
89.0101 0 1
89.126 0 1
89.2419 0 1
89.3577 0 1
89.4734 0 1
89.5891 0 1
89.7047 0 1
89.8203 0 1
89.9358 0 1
92.3269 0 1
92.4424 0 1
92.558 0 1
92.6736 0 1
92.7893 0 1
92.905 0 1
93.0208 0 1
93.1366 0 1
93.2525 0 1
93.3685 0 1
93.4845 0 1
93.6005 1031 32.1092
93.7167 1234 35.1283
93.8328 1286 35.8608
93.949 1411 37.5633
94.0653 1512 38.8844
94.1816 1636 40.4475
94.2979 1669 40.8534
94.4143 1751 41.845
94.5307 1869 43.2319
94.6472 1826 42.7317
94.7637 1834 42.8252
94.8803 1768 42.0476
94.9969 1600 40
95.1135 1463 38.2492
95.2302 1527 39.0768
95.3469 1680 40.9878
95.4637 1828 42.7551
95.5805 1955 44.2154
95.6973 1953 44.1928
95.8142 2028 45.0333
95.9311 1989 44.5982
96.048 1878 43.3359
96.1649 1818 42.638
96.2819 1779 42.1782
96.3989 1781 42.2019
96.516 1686 41.0609
96.633 1655 40.6817
96.7501 1646 40.5709
96.8673 1746 41.7852
96.9844 1681 41
97.1016 1632 40.398
97.2188 1637 40.4599
97.336 1657 40.7063
97.4532 1884 43.4051
97.5704 1810 42.5441
97.6877 1878 43.3359
97.805 1889 43.4626
97.9223 2012 44.8553
98.0396 2095 45.7712
98.1569 2080 45.607
98.2743 2048 45.2548
98.3916 1880 43.359
98.509 1726 41.5452
98.6264 1543 39.281
98.7438 1585 39.8121
98.8612 1826 42.7317
98.9786 1979 44.486
99.096 2161 46.4866
99.2134 2122 46.0652
99.3308 2078 45.5851
99.4482 2079 45.5961
99.5656 2032 45.0777
99.6831 2030 45.0555
99.8005 1950 44.1588
99.9179 1899 43.5775
100.035 1847 42.9767
100.153 1777 42.1545
100.27 1945 44.1022
100.388 1843 42.9302
100.505 1771 42.0833
100.622 1899 43.5775
100.74 1883 43.3935
100.857 1997 44.6878
100.975 2136 46.2169
101.092 2137 46.2277
101.209 2131 46.1628
101.327 2211 47.0213
101.444 2186 46.7547
101.561 2127 46.1194
101.679 2083 45.6399
101.796 2188 46.7761
101.913 2085 45.6618
102.03 1870 43.2435
102.148 1564 39.5474
102.265 1382 37.1753
102.382 1489 38.5876
102.499 1681 41
102.616 1788 42.2847
102.733 1888 43.4511
102.851 1913 43.7379
102.968 1820 42.6615
103.085 1841 42.9069
103.202 1783 42.2256
103.319 1843 42.9302
103.436 1882 43.382
103.552 1846 42.9651
103.669 1766 42.0238
103.786 1820 42.6615
103.903 1826 42.7317
104.02 1691 41.1218
104.137 1667 40.8289
104.253 1703 41.2674
104.37 1603 40.0375
104.487 1569 39.6106
104.603 1546 39.3192
104.72 1470 38.3406
104.836 1398 37.3898
104.953 1152 33.9411
105.069 1002 31.6544
105.186 849 29.1376
105.302 716 26.7582
105.418 661 25.7099
105.535 621 24.9199
105.651 505 22.4722
105.767 450 21.2132
105.883 365 19.105
105.999 361 19
106.115 0 1
106.231 0 1
106.347 0 1
106.463 0 1
106.579 0 1
106.694 0 1
106.81 0 1
106.926 0 1
107.041 0 1
107.157 0 1
109.576 0 1
109.692 0 1
109.807 0 1
109.923 0 1
110.039 0 1
110.155 0 1
110.27 0 1
110.386 0 1
110.502 0 1
110.618 3101 55.6866
110.735 3342 57.81
110.851 3257 57.0701
110.967 3259 57.0877
111.083 3213 56.6833
111.199 3406 58.3609
111.316 3586 59.8832
111.432 3904 62.482
111.549 3987 63.1427
111.665 4070 63.7966
111.782 4215 64.923
111.898 4114 64.1405
112.015 4159 64.4903
112.132 4049 63.6318
112.248 4140 64.3428
112.365 4070 63.7966
112.482 4051 63.6475
112.599 4321 65.7343
112.716 4383 66.2042
112.832 4555 67.4907
112.949 4917 70.1213
113.066 5148 71.7496
113.183 5188 72.0278
113.3 4945 70.3207
113.417 5074 71.232
113.534 4937 70.2638
113.652 4976 70.5408
113.769 4772 69.0797
113.886 4964 70.4557
114.003 4770 69.0652
114.12 4888 69.9142
114.238 4770 69.0652
114.355 4801 69.2892
114.472 4267 65.3223
114.589 4422 66.4981
114.707 4473 66.8805
114.824 4418 66.468
114.942 4691 68.4909
115.059 4719 68.695
115.176 4562 67.5426
115.294 4716 68.6731
115.411 4555 67.4907
115.529 4542 67.3944
115.646 4242 65.1306
115.764 4179 64.6452
115.881 4078 63.8592
115.999 4140 64.3428
116.116 4100 64.0312
116.234 4274 65.3758
116.351 4624 68
116.469 4791 69.217
116.586 5041 71
116.704 4960 70.4273
116.821 4958 70.4131
116.939 4952 70.3704
117.056 4601 67.8307
117.174 4483 66.9552
117.291 4353 65.9773
117.409 4414 66.4379
117.526 4408 66.3928
117.644 4596 67.7938
117.761 4756 68.9638
117.879 4719 68.695
117.996 4302 65.5896
118.114 4255 65.2304
118.231 4336 65.8483
118.349 4430 66.5582
118.466 4415 66.4455
118.584 4610 67.897
118.701 4456 66.7533
118.819 4473 66.8805
118.936 4389 66.2495
119.053 4125 64.2262
119.171 4077 63.8514
119.288 3928 62.6738
119.405 3938 62.7535
119.523 3816 61.7738
119.64 3925 62.6498
119.757 4052 63.6553
119.875 4227 65.0154
119.992 4600 67.8233
120.109 4705 68.593
120.226 4866 69.7567
120.343 4834 69.527
120.46 4678 68.3959
120.578 4545 67.4166
120.695 4316 65.6963
120.812 4112 64.1249
120.929 3981 63.0952
121.046 3913 62.554
121.163 3953 62.8729
121.279 3973 63.0317
121.396 3998 63.2297
121.513 3825 61.8466
121.63 3740 61.1555
121.747 3327 57.6802
121.863 3161 56.2228
121.98 2811 53.0189
122.097 2816 53.066
122.213 2661 51.5849
122.33 2646 51.4393
122.446 2629 51.2738
122.563 2530 50.2991
122.679 2379 48.775
122.795 2177 46.6583
122.912 1957 44.238
123.028 1845 42.9535
123.144 1779 42.1782
123.26 1586 39.8246
123.377 0 1
123.493 0 1
123.609 0 1
123.725 0 1
123.84 0 1
123.956 0 1
124.072 0 1
124.188 0 1
124.303 0 1
124.419 0 1
126.852 0 1
126.968 0 1
127.083 0 1
127.199 0 1
127.315 0 1
127.431 0 1
127.547 0 1
127.663 0 1
127.779 0 1
127.895 0 1
128.011 0 1
128.127 0 1
128.243 0 1
128.359 2158 46.4543
128.476 2319 48.156
128.592 2142 46.2817
128.708 2068 45.4753
128.825 1952 44.1814
128.941 1895 43.5316
129.058 1862 43.1509
129.174 1926 43.8862
129.291 1971 44.3959
129.408 1981 44.5084
129.524 2105 45.8803
129.641 2183 46.7226
129.758 2412 49.1121
129.875 2207 46.9787
129.992 2280 47.7493
130.108 2227 47.1911
130.225 2049 45.2659
130.342 1980 44.4972
130.459 1791 42.3202
130.576 1608 40.0999
130.693 1475 38.4057
130.81 1298 36.0278
130.928 1229 35.0571
131.045 1456 38.1576
131.162 1491 38.6135
131.279 1613 40.1622
131.396 1645 40.5586
131.513 1625 40.3113
131.631 1673 40.9023
131.748 1661 40.7554
131.865 1690 41.1096
131.983 1661 40.7554
132.1 1681 41
132.217 1683 41.0244
132.335 1711 41.3642
132.452 1724 41.5211
132.57 1695 41.1704
132.687 1527 39.0768
132.804 1674 40.9145
132.922 1619 40.2368
133.039 1711 41.3642
133.157 1774 42.1189
133.274 1806 42.4971
133.392 1789 42.2966
133.509 1828 42.7551
133.627 1871 43.2551
133.744 1823 42.6966
133.862 1906 43.6578
133.979 1845 42.9535
134.097 1860 43.1277
134.214 1736 41.6653
134.332 1670 40.8656
134.449 1689 41.0974
134.567 1662 40.7676
134.684 1942 44.0681
134.802 2160 46.4758
134.919 2253 47.4658
135.037 2373 48.7134
135.154 2401 49
135.272 2594 50.9313
135.389 2677 51.7397
135.507 2633 51.3128
135.624 2797 52.8867
135.742 2758 52.5167
135.859 2822 53.1225
135.977 2919 54.0278
136.094 2854 53.4228
136.211 2834 53.2353
136.329 2888 53.7401
136.446 2963 54.4334
136.564 2965 54.4518
136.681 3054 55.263
136.798 3085 55.5428
136.915 3102 55.6956
137.033 3174 56.3383
137.15 3239 56.9122
137.267 3144 56.0714
137.384 3068 55.3895
137.502 3009 54.8544
137.619 3007 54.8361
137.736 2822 53.1225
137.853 2800 52.915
137.97 2782 52.7447
138.087 2452 49.5177
138.204 2702 51.9808
138.321 2717 52.1249
138.438 2736 52.3068
138.555 2855 53.4322
138.672 2955 54.3599
138.788 2854 53.4228
138.905 2839 53.2823
139.022 2866 53.535
139.139 2665 51.6236
139.255 2510 50.0999
139.372 2437 49.366
139.488 2303 47.9896
139.605 2184 46.7333
139.721 2077 45.5741
139.838 2020 44.9444
139.954 1885 43.4166
140.071 1852 43.0349
140.187 1854 43.0581
140.303 1820 42.6615
140.419 1849 43
140.535 1882 43.382
140.652 1959 44.2606
140.768 0 1
140.884 0 1
141 0 1
141.115 0 1
141.231 0 1
141.347 0 1
141.463 0 1
141.578 0 1
141.694 0 1
144.104 0 1
144.219 0 1
144.335 0 1
144.45 0 1
144.566 0 1
144.682 0 1
144.798 0 1
144.914 0 1
145.03 0 1
145.146 2337 48.3425
145.262 2407 49.0612
145.378 2390 48.8876
145.494 2474 49.7393
145.61 2527 50.2693
145.726 2507 50.07
145.842 2520 50.1996
145.959 2724 52.192
146.075 2512 50.1199
146.192 2625 51.2348
146.308 2505 50.05
146.425 2492 49.9199
146.541 2376 48.7442
146.658 2298 47.9375
146.774 2228 47.2017
146.891 2219 47.1063
147.008 2195 46.8508
147.125 2269 47.634
147.241 2455 49.548
147.358 2565 50.6458
147.475 2543 50.4282
147.592 2793 52.8488
147.709 2778 52.7067
147.826 2826 53.1601
147.943 2827 53.1695
148.06 2858 53.4603
148.177 2961 54.4151
148.294 2702 51.9808
148.411 2760 52.5357
148.528 2763 52.5642
148.645 2744 52.3832
148.762 2831 53.2071
148.88 2855 53.4322
148.997 2790 52.8205
149.114 2947 54.2863
149.231 2865 53.5257
149.349 2840 53.2917
149.466 2892 53.7773
149.583 2842 53.3104
149.701 2811 53.0189
149.818 2906 53.9073
149.935 2814 53.0471
150.053 2748 52.4214
150.17 2820 53.1037
150.287 2775 52.6783
150.405 2637 51.3517
150.522 2548 50.4777
150.64 2447 49.4672
150.757 2439 49.3862
150.875 2495 49.95
150.992 2492 49.9199
151.11 2471 49.7092
151.227 2439 49.3862
151.344 2323 48.1975
151.462 2380 48.7852
151.579 2404 49.0306
151.697 2554 50.5371
151.814 2705 52.0096
151.932 2918 54.0185
152.049 3077 55.4707
152.167 3160 56.2139
152.284 3280 57.2713
152.402 3212 56.6745
152.519 3375 58.0948
152.636 3380 58.1378
152.754 3534 59.4475
152.871 3559 59.6574
152.989 3811 61.7333
153.106 3709 60.9016
153.223 3816 61.7738
153.341 3894 62.4019
153.458 4022 63.4192
153.575 3986 63.1348
153.693 4127 64.2417
153.81 4040 63.561
153.927 3847 62.0242
154.044 3464 58.8558
154.162 3291 57.3672
154.279 3352 57.8965
154.396 3616 60.1332
154.513 3750 61.2372
154.63 3865 62.1691
154.747 3831 61.8951
154.864 3640 60.3324
154.981 3606 60.05
155.098 3429 58.5577
155.215 3276 57.2364
155.332 3185 56.4358
155.449 3075 55.4527
155.566 2920 54.037
155.683 2786 52.7826
155.8 2568 50.6754
155.917 2470 49.6991
156.033 2415 49.1426
156.15 0 1
156.267 0 1
156.383 0 1
156.5 0 1
156.617 0 1
156.733 0 1
156.85 0 1
156.966 0 1
157.082 0 1
157.199 0 1
157.315 0 1
157.431 0 1
157.547 0 1
157.664 0 1
157.78 0 1
157.896 0 1
158.012 0 1
158.128 0 1
158.244 0 1
158.359 0 1
158.475 0 1
158.591 0 1
158.706 0 1
