
6.15755 0 1
6.2731 0 1
6.3887 0 1
6.50437 0 1
6.62009 0 1
6.73587 0 1
6.8517 0 1
6.96759 0 1
7.08353 0 1
7.19952 0 1
7.31557 0 1
7.43166 0 1
7.54781 0 1
7.664 0 1
7.78024 0 1
7.89653 0 1
8.01286 0 1
8.12924 0 1
8.24567 0 1
8.36213 0 1
8.47864 0 1
8.59519 0 1
8.71178 0 1
8.82841 0 1
8.94508 0 1
9.06179 0 1
9.17853 0 1
9.29531 0 1
9.41212 0 1
9.52897 0 1
9.64584 0 1
9.76276 0 1
9.8797 0 1
9.99667 0 1
10.1137 0 1
10.2307 0 1
10.3478 0 1
10.4648 0 1
10.5819 0 1
10.6991 0 1
10.8162 0 1
10.9334 0 1
11.0506 0 1
11.1678 0 1
11.285 0 1
11.4023 0 1
11.5196 0 1
11.6369 0 1
11.7542 0 1
11.8715 0 1
11.9888 0 1
12.1062 0 1
12.2235 0 1
12.3409 0 1
12.4582 0 1
12.5756 0 1
12.693 0 1
12.8104 0 1
12.9278 0 1
13.0452 0 1
13.1626 0 1
13.28 0 1
13.3974 0 1
13.5149 0 1
13.6323 0 1
13.7497 0 1
13.8671 0 1
13.9845 0 1
14.1019 0 1
14.2193 0 1
14.3367 0 1
14.4541 0 1
14.5714 0 1
14.6888 0 1
14.8062 0 1
14.9235 0 1
15.0408 893 29.8831
15.1581 894 29.8998
15.2755 937 30.6105
15.3927 910 30.1662
15.51 890 29.8329
15.6273 771 27.7669
15.7445 807 28.4077
15.8617 802 28.3196
15.9789 862 29.3598
16.0961 844 29.0517
16.2132 845 29.0689
16.3304 824 28.7054
16.4475 739 27.1846
16.5646 753 27.4408
16.6816 736 27.1293
16.7986 773 27.8029
16.9156 778 27.8927
17.0326 763 27.6225
17.1496 739 27.1846
17.2665 725 26.9258
17.3833 734 27.0924
17.5002 716 26.7582
17.617 727 26.9629
17.7338 766 27.6767
17.8505 700 26.4575
17.9672 709 26.6271
18.0839 694 26.3439
18.2005 725 26.9258
18.3171 712 26.6833
18.4337 753 27.4408
18.5502 769 27.7308
18.6666 733 27.074
18.7831 726 26.9444
18.8994 758 27.5318
19.0158 679 26.0576
19.1321 637 25.2389
19.2483 563 23.7276
19.3645 603 24.5561
19.4806 659 25.671
19.5967 577 24.0208
19.7128 574 23.9583
19.8288 587 24.2281
19.9447 532 23.0651
20.0606 0 1
20.1764 0 1
20.2922 0 1
20.4079 0 1
20.5236 0 1
20.6392 0 1
20.7548 0 1
20.8702 0 1
23.3078 0 1
23.4233 0 1
23.539 0 1
23.6547 0 1
23.7704 0 1
23.8862 0 1
24.0021 0 1
24.118 0 1
24.234 0 1
24.35 0 1
24.4661 400 20
24.5822 485 22.0227
24.6984 576 24
24.8146 691 26.2869
24.9309 856 29.2575
25.0472 920 30.3315
25.1636 1078 32.8329
25.28 1268 35.609
25.3965 1499 38.7169
25.513 1601 40.0125
25.6296 1854 43.0581
25.7462 1990 44.6094
25.8628 2185 46.744
25.9795 2345 48.4252
26.0962 2395 48.9387
26.213 2304 48
26.3298 2280 47.7493
26.4466 2163 46.5081
26.5635 2018 44.9222
26.6804 2016 44.8999
26.7973 2051 45.288
26.9143 1982 44.5197
27.0313 1976 44.4522
27.1483 1985 44.5533
27.2653 2049 45.2659
27.3824 2039 45.1553
27.4996 1913 43.7379
27.6167 1610 40.1248
27.7339 1501 38.7427
27.8511 1705 41.2916
27.9683 1629 40.3609
28.0855 1446 38.0263
28.2028 1488 38.5746
28.3201 1338 36.5787
28.4374 1326 36.4143
28.5547 1158 34.0294
28.6721 1108 33.2866
28.7894 1144 33.8231
28.9068 1049 32.3883
29.0242 1024 32
29.1416 1035 32.1714
29.259 1092 33.0454
29.3764 1054 32.4654
29.4939 1055 32.4808
29.6113 1075 32.7872
29.7288 1019 31.9218
29.8463 1059 32.5423
29.9638 1171 34.2199
30.0812 1181 34.3657
30.1987 1249 35.3412
30.3162 1253 35.3977
30.4337 1135 33.6898
30.5512 1044 32.311
30.6687 900 30
30.7862 794 28.178
30.9037 814 28.5307
31.0212 753 27.4408
31.1387 832 28.8444
31.2562 762 27.6043
31.3737 765 27.6586
31.4912 740 27.2029
31.6087 760 27.5681
31.7262 750 27.3861
31.8436 775 27.8388
31.9611 794 28.178
32.0785 776 27.8568
32.1959 757 27.5136
32.3134 697 26.4008
32.4308 764 27.6405
32.5482 784 28
32.6655 711 26.6646
32.7829 597 24.4336
32.9002 675 25.9808
33.0176 654 25.5734
33.1349 635 25.1992
33.2522 628 25.0599
33.3694 631 25.1197
33.4867 635 25.1992
33.6039 623 24.96
33.7211 644 25.3772
33.8383 673 25.9422
33.9554 594 24.3721
34.0725 621 24.9199
34.1896 662 25.7294
34.3067 614 24.779
34.4237 614 24.779
34.5407 644 25.3772
34.6577 683 26.1343
34.7746 700 26.4575
34.8915 697 26.4008
35.0084 677 26.0192
35.1252 607 24.6374
35.242 601 24.5153
35.3587 600 24.4949
35.4755 632 25.1396
35.5921 653 25.5539
35.7088 675 25.9808
35.8254 714 26.7208
35.9419 648 25.4558
36.0584 679 26.0576
36.1749 633 25.1595
36.2913 641 25.318
36.4077 612 24.7386
36.524 562 23.7065
36.6403 508 22.5389
36.7565 539 23.2164
36.8727 474 21.7715
36.9889 493 22.2036
37.1049 402 20.0499
37.221 0 1
37.3369 0 1
37.4529 0 1
37.5687 0 1
37.6845 0 1
37.8003 0 1
37.916 0 1
38.0316 0 1
38.1472 0 1
40.5851 0 1
40.7008 0 1
40.8164 0 1
40.9322 0 1
41.048 0 1
41.1639 0 1
41.2798 0 1
41.3958 0 1
41.5118 0 1
41.6279 0 1
41.744 270 16.4317
41.8602 356 18.868
41.9765 374 19.3391
42.0928 386 19.6469
42.2091 424 20.5913
42.3255 419 20.4695
42.4419 481 21.9317
42.5584 498 22.3159
42.675 517 22.7376
42.7915 482 21.9545
42.9081 502 22.4054
43.0248 427 20.664
43.1415 450 21.2132
43.2582 481 21.9317
43.375 475 21.7945
43.4918 475 21.7945
43.6087 482 21.9545
43.7256 501 22.383
43.8425 504 22.4499
43.9595 487 22.0681
44.0765 462 21.4942
44.1935 467 21.6102
44.3106 464 21.5407
44.4277 448 21.166
44.5448 470 21.6795
44.6619 519 22.7816
44.7791 545 23.3452
44.8963 511 22.6053
45.0136 519 22.7816
45.1308 470 21.6795
45.2481 506 22.4944
45.3654 509 22.561
45.4827 497 22.2935
45.6001 486 22.0454
45.7174 475 21.7945
45.8348 489 22.1133
45.9522 482 21.9545
46.0697 507 22.5167
46.1871 479 21.8861
46.3046 471 21.7025
46.422 484 22
46.5395 439 20.9523
46.657 438 20.9284
46.7745 452 21.2603
46.892 423 20.567
47.0096 490 22.1359
47.1271 518 22.7596
47.2446 517 22.7376
47.3622 465 21.5639
47.4797 448 21.166
47.5973 448 21.166
47.7149 422 20.5426
47.8324 458 21.4009
47.95 461 21.4709
48.0675 445 21.095
48.1851 482 21.9545
48.3027 490 22.1359
48.4202 502 22.4054
48.5378 527 22.9565
48.6554 523 22.8692
48.7729 460 21.4476
48.8904 472 21.7256
49.008 498 22.3159
49.1255 480 21.9089
49.243 444 21.0713
49.3605 519 22.7816
49.478 508 22.5389
49.5955 425 20.6155
49.713 447 21.1424
49.8304 427 20.664
49.9479 391 19.7737
50.0653 393 19.8242
50.1827 433 20.8087
50.3001 379 19.4679
50.4175 428 20.6882
50.5348 447 21.1424
50.6521 514 22.6716
50.7694 470 21.6795
50.8867 500 22.3607
51.004 426 20.6398
51.1212 436 20.8806
51.2384 429 20.7123
51.3556 431 20.7605
51.4727 435 20.8567
51.5899 437 20.9045
51.707 490 22.1359
51.824 471 21.7025
51.9411 493 22.2036
52.0581 448 21.166
52.175 444 21.0713
52.2919 452 21.2603
52.4088 479 21.8861
52.5257 499 22.3383
52.6425 509 22.561
52.7593 481 21.9317
52.876 496 22.2711
52.9927 471 21.7025
53.1094 441 21
53.226 460 21.4476
53.3426 459 21.4243
53.4591 409 20.2237
53.5756 384 19.5959
53.692 318 17.8326
53.8084 328 18.1108
53.9248 337 18.3576
54.0411 330 18.1659
54.1573 332 18.2209
54.2735 0 1
54.3896 0 1
54.5057 0 1
54.6217 0 1
54.7377 0 1
54.8537 0 1
54.9695 0 1
55.0853 0 1
55.2011 0 1
55.3168 0 1
55.4324 0 1
57.824 0 1
57.9396 0 1
58.0553 0 1
58.1711 0 1
58.2869 0 1
58.4028 0 1
58.5187 0 1
58.6347 0 1
58.7508 0 1
58.8669 0 1
58.983 513 22.6495
59.0992 672 25.923
59.2155 791 28.1247
59.3318 963 31.0322
59.4482 1134 33.6749
59.5646 1219 34.9142
59.681 1242 35.242
59.7975 1212 34.8138
59.9141 1186 34.4384
60.0306 1235 35.1426
60.1473 1252 35.3836
60.2639 1193 34.5398
60.3807 1265 35.5668
60.4974 1166 34.1467
60.6142 1251 35.3695
60.731 1251 35.3695
60.8479 1174 34.2637
60.9648 1145 33.8378
61.0818 1131 33.6303
61.1987 1074 32.7719
61.3158 1063 32.6037
61.4328 985 31.3847
61.5499 1061 32.573
61.667 994 31.5278
61.7841 1019 31.9218
61.9013 901 30.0167
62.0185 864 29.3939
62.1357 823 28.688
62.253 740 27.2029
62.3702 752 27.4226
62.4875 726 26.9444
62.6049 744 27.2764
62.7222 768 27.7128
62.8396 747 27.3313
62.9569 780 27.9285
63.0743 774 27.8209
63.1918 815 28.5482
63.3092 777 27.8747
63.4267 674 25.9615
63.5441 639 25.2784
63.6616 619 24.8797
63.7791 579 24.0624
63.8966 551 23.4734
64.0142 573 23.9374
64.1317 593 24.3516
64.2492 602 24.5357
64.3668 542 23.2809
64.4843 530 23.0217
64.6019 574 23.9583
64.7195 553 23.516
64.837 536 23.1517
64.9546 505 22.4722
65.0722 560 23.6643
65.1898 564 23.7487
65.3074 573 23.9374
65.4249 541 23.2594
65.5425 563 23.7276
65.6601 525 22.9129
65.7777 498 22.3159
65.8952 540 23.2379
66.0128 530 23.0217
66.1304 503 22.4277
66.2479 508 22.5389
66.3655 530 23.0217
66.483 546 23.3666
66.6005 552 23.4947
66.718 559 23.6432
66.8355 584 24.1661
66.953 595 24.3926
67.0705 523 22.8692
67.1879 544 23.3238
67.3054 527 22.9565
67.4228 525 22.9129
67.5402 549 23.4307
67.6576 530 23.0217
67.7749 571 23.8956
67.8923 614 24.779
68.0096 558 23.622
68.1269 562 23.7065
68.2442 541 23.2594
68.3614 545 23.3452
68.4787 519 22.7816
68.5958 520 22.8035
68.713 543 23.3024
68.8302 535 23.1301
68.9473 529 23
69.0643 497 22.2935
69.1814 537 23.1733
69.2984 509 22.561
69.4154 463 21.5174
69.5323 486 22.0454
69.6492 484 22
69.7661 524 22.891
69.8829 527 22.9565
69.9997 577 24.0208
70.1165 521 22.8254
70.2332 534 23.1084
70.3499 506 22.4944
70.4665 488 22.0907
70.5831 465 21.5639
70.6996 443 21.0476
70.8161 426 20.6398
70.9326 363 19.0526
71.049 331 18.1934
71.1653 327 18.0831
71.2817 272 16.4924
71.3979 311 17.6352
71.5141 288 16.9706
71.6303 272 16.4924
71.7464 207 14.3875
71.8624 0 1
71.9784 0 1
72.0944 0 1
72.2102 0 1
72.3261 0 1
72.4418 0 1
72.5575 0 1
72.6732 0 1
75.1054 0 1
75.2209 0 1
75.3365 0 1
75.4521 0 1
75.5678 0 1
75.6835 0 1
75.7993 0 1
75.9151 0 1
76.031 0 1
76.147 381 19.5192
76.263 427 20.664
76.3791 413 20.3224
76.4952 455 21.3307
76.6113 459 21.4243
76.7276 465 21.5639
76.8438 454 21.3073
76.9601 487 22.0681
77.0765 507 22.5167
77.1929 479 21.8861
77.3093 498 22.3159
77.4258 481 21.9317
77.5423 477 21.8403
77.6589 471 21.7025
77.7755 478 21.8632
77.8921 440 20.9762
78.0088 463 21.5174
78.1256 417 20.4206
78.2423 447 21.1424
78.3591 403 20.0749
78.4759 457 21.3776
78.5928 413 20.3224
78.7097 443 21.0476
78.8266 446 21.1187
78.9436 487 22.0681
79.0606 443 21.0476
79.1776 478 21.8632
79.2946 495 22.2486
79.4117 456 21.3542
79.5288 536 23.1517
79.6459 509 22.561
79.7631 477 21.8403
79.8802 476 21.8174
79.9974 459 21.4243
80.1147 463 21.5174
80.2319 496 22.2711
80.3491 509 22.561
80.4664 527 22.9565
80.5837 539 23.2164
80.701 484 22
80.8183 447 21.1424
80.9357 494 22.2261
81.053 496 22.2711
81.1704 464 21.5407
81.2877 482 21.9545
81.4051 476 21.8174
81.5225 516 22.7156
81.6399 485 22.0227
81.7573 454 21.3073
81.8747 455 21.3307
81.9922 405 20.1246
82.1096 454 21.3073
82.227 460 21.4476
82.3444 454 21.3073
82.4619 472 21.7256
82.5793 440 20.9762
82.6967 477 21.8403
82.8142 449 21.1896
82.9316 494 22.2261
83.049 501 22.383
83.1664 493 22.2036
83.2838 519 22.7816
83.4012 511 22.6053
83.5186 492 22.1811
83.636 532 23.0651
83.7534 467 21.6102
83.8708 486 22.0454
83.9881 482 21.9545
84.1055 541 23.2594
84.2228 515 22.6936
84.3401 463 21.5174
84.4575 507 22.5167
84.5747 478 21.8632
84.692 465 21.5639
84.8093 544 23.3238
84.9265 464 21.5407
85.0437 494 22.2261
85.1609 492 22.1811
85.2781 492 22.1811
85.3952 467 21.6102
85.5123 507 22.5167
85.6294 470 21.6795
85.7465 491 22.1585
85.8636 478 21.8632
85.9806 445 21.095
86.0976 450 21.2132
86.2145 482 21.9545
86.3315 477 21.8403
86.4484 468 21.6333
86.5652 546 23.3666
86.682 537 23.1733
86.7988 521 22.8254
86.9156 515 22.6936
87.0323 508 22.5389
87.149 450 21.2132
87.2657 464 21.5407
87.3823 451 21.2368
87.4988 498 22.3159
87.6154 484 22
87.7318 484 22
87.8483 422 20.5426
87.9647 369 19.2094
88.081 405 20.1246
88.1973 352 18.7617
88.3136 299 17.2916
88.4298 318 17.8326
88.546 288 16.9706
88.6621 259 16.0935
88.7781 210 14.4914
88.8942 0 1
89.0101 0 1
89.126 0 1
89.2419 0 1
89.3577 0 1
89.4734 0 1
89.5891 0 1
89.7047 0 1
89.8203 0 1
89.9358 0 1
92.3269 0 1
92.4424 0 1
92.558 0 1
92.6736 0 1
92.7893 0 1
92.905 0 1
93.0208 0 1
93.1366 0 1
93.2525 0 1
93.3685 0 1
93.4845 0 1
93.6005 376 19.3907
93.7167 409 20.2237
93.8328 439 20.9523
93.949 441 21
94.0653 474 21.7715
94.1816 467 21.6102
94.2979 424 20.5913
94.4143 446 21.1187
94.5307 446 21.1187
94.6472 421 20.5183
94.7637 464 21.5407
94.8803 511 22.6053
94.9969 445 21.095
95.1135 476 21.8174
95.2302 418 20.445
95.3469 483 21.9773
95.4637 476 21.8174
95.5805 538 23.1948
95.6973 486 22.0454
95.8142 466 21.587
95.9311 482 21.9545
96.048 495 22.2486
96.1649 512 22.6274
96.2819 539 23.2164
96.3989 495 22.2486
96.516 506 22.4944
96.633 482 21.9545
96.7501 473 21.7486
96.8673 512 22.6274
96.9844 489 22.1133
97.1016 515 22.6936
97.2188 501 22.383
97.336 506 22.4944
97.4532 463 21.5174
97.5704 499 22.3383
97.6877 448 21.166
97.805 469 21.6564
97.9223 456 21.3542
98.0396 455 21.3307
98.1569 484 22
98.2743 478 21.8632
98.3916 463 21.5174
98.509 534 23.1084
98.6264 546 23.3666
98.7438 500 22.3607
98.8612 490 22.1359
98.9786 515 22.6936
99.096 539 23.2164
99.2134 524 22.891
99.3308 559 23.6432
99.4482 550 23.4521
99.5656 518 22.7596
99.6831 517 22.7376
99.8005 546 23.3666
99.9179 556 23.5797
100.035 564 23.7487
100.153 518 22.7596
100.27 514 22.6716
100.388 524 22.891
100.505 534 23.1084
100.622 557 23.6008
100.74 520 22.8035
100.857 513 22.6495
100.975 493 22.2036
101.092 459 21.4243
101.209 474 21.7715
101.327 502 22.4054
101.444 486 22.0454
101.561 476 21.8174
101.679 502 22.4054
101.796 478 21.8632
101.913 493 22.2036
102.03 519 22.7816
102.148 518 22.7596
102.265 554 23.5372
102.382 541 23.2594
102.499 501 22.383
102.616 553 23.516
102.733 566 23.7908
102.851 555 23.5584
102.968 557 23.6008
103.085 526 22.9347
103.202 567 23.8118
103.319 552 23.4947
103.436 557 23.6008
103.552 547 23.388
103.669 540 23.2379
103.786 583 24.1454
103.903 551 23.4734
104.02 601 24.5153
104.137 540 23.2379
104.253 525 22.9129
104.37 526 22.9347
104.487 535 23.1301
104.603 523 22.8692
104.72 505 22.4722
104.836 477 21.8403
104.953 471 21.7025
105.069 470 21.6795
105.186 432 20.7846
105.302 441 21
105.418 435 20.8567
105.535 433 20.8087
105.651 351 18.735
105.767 344 18.5472
105.883 285 16.8819
105.999 300 17.3205
106.115 0 1
106.231 0 1
106.347 0 1
106.463 0 1
106.579 0 1
106.694 0 1
106.81 0 1
106.926 0 1
107.041 0 1
107.157 0 1
109.576 0 1
109.692 0 1
109.807 0 1
109.923 0 1
110.039 0 1
110.155 0 1
110.27 0 1
110.386 0 1
110.502 0 1
110.618 291 17.0587
110.735 346 18.6011
110.851 389 19.7231
110.967 437 20.9045
111.083 452 21.2603
111.199 416 20.3961
111.316 478 21.8632
111.432 463 21.5174
111.549 520 22.8035
111.665 506 22.4944
111.782 506 22.4944
111.898 506 22.4944
112.015 480 21.9089
112.132 478 21.8632
112.248 487 22.0681
112.365 483 21.9773
112.482 498 22.3159
112.599 516 22.7156
112.716 484 22
112.832 477 21.8403
112.949 479 21.8861
113.066 466 21.587
113.183 451 21.2368
113.3 450 21.2132
113.417 442 21.0238
113.534 400 20
113.652 441 21
113.769 431 20.7605
113.886 403 20.0749
114.003 409 20.2237
114.12 420 20.4939
114.238 477 21.8403
114.355 479 21.8861
114.472 465 21.5639
114.589 482 21.9545
114.707 414 20.347
114.824 448 21.166
114.942 476 21.8174
115.059 485 22.0227
115.176 446 21.1187
115.294 460 21.4476
115.411 471 21.7025
115.529 489 22.1133
115.646 446 21.1187
115.764 474 21.7715
115.881 434 20.8327
115.999 447 21.1424
116.116 446 21.1187
116.234 439 20.9523
116.351 465 21.5639
116.469 402 20.0499
116.586 413 20.3224
116.704 434 20.8327
116.821 432 20.7846
116.939 436 20.8806
117.056 350 18.7083
117.174 379 19.4679
117.291 391 19.7737
117.409 362 19.0263
117.526 415 20.3715
117.644 353 18.7883
117.761 434 20.8327
117.879 409 20.2237
117.996 405 20.1246
118.114 441 21
118.231 437 20.9045
118.349 427 20.664
118.466 415 20.3715
118.584 452 21.2603
118.701 435 20.8567
118.819 488 22.0907
118.936 421 20.5183
119.053 397 19.9249
119.171 390 19.7484
119.288 437 20.9045
119.405 382 19.5448
119.523 404 20.0998
119.64 397 19.9249
119.757 428 20.6882
119.875 403 20.0749
119.992 419 20.4695
120.109 422 20.5426
120.226 396 19.8997
120.343 416 20.3961
120.46 412 20.2978
120.578 355 18.8414
120.695 377 19.4165
120.812 363 19.0526
120.929 346 18.6011
121.046 309 17.5784
121.163 403 20.0749
121.279 366 19.1311
121.396 369 19.2094
121.513 396 19.8997
121.63 383 19.5704
121.747 365 19.105
121.863 352 18.7617
121.98 349 18.6815
122.097 352 18.7617
122.213 351 18.735
122.33 337 18.3576
122.446 336 18.3303
122.563 290 17.0294
122.679 275 16.5831
122.795 250 15.8114
122.912 228 15.0997
123.028 223 14.9332
123.144 226 15.0333
123.26 238 15.4272
123.377 0 1
123.493 0 1
123.609 0 1
123.725 0 1
123.84 0 1
123.956 0 1
124.072 0 1
124.188 0 1
124.303 0 1
124.419 0 1
126.852 0 1
126.968 0 1
127.083 0 1
127.199 0 1
127.315 0 1
127.431 0 1
127.547 0 1
127.663 0 1
127.779 0 1
127.895 0 1
128.011 0 1
128.127 0 1
128.243 0 1
128.359 445 21.095
128.476 432 20.7846
128.592 475 21.7945
128.708 464 21.5407
128.825 444 21.0713
128.941 492 22.1811
129.058 490 22.1359
129.174 453 21.2838
129.291 444 21.0713
129.408 473 21.7486
129.524 437 20.9045
129.641 435 20.8567
129.758 451 21.2368
129.875 423 20.567
129.992 445 21.095
130.108 469 21.6564
130.225 411 20.2731
130.342 429 20.7123
130.459 457 21.3776
130.576 498 22.3159
130.693 531 23.0434
130.81 488 22.0907
130.928 533 23.0868
131.045 533 23.0868
131.162 551 23.4734
131.279 614 24.779
131.396 563 23.7276
131.513 610 24.6982
131.631 579 24.0624
131.748 575 23.9792
131.865 593 24.3516
131.983 685 26.1725
132.1 680 26.0768
132.217 764 27.6405
132.335 743 27.258
132.452 784 28
132.57 808 28.4253
132.687 815 28.5482
132.804 834 28.8791
132.922 858 29.2916
133.039 898 29.9666
133.157 918 30.2985
133.274 816 28.5657
133.392 846 29.0861
133.509 826 28.7402
133.627 819 28.6182
133.744 799 28.2666
133.862 819 28.6182
133.979 815 28.5482
134.097 892 29.8664
134.214 823 28.688
134.332 901 30.0167
134.449 927 30.4467
134.567 872 29.5296
134.684 909 30.1496
134.802 920 30.3315
134.919 899 29.9833
135.037 862 29.3598
135.154 870 29.4958
135.272 820 28.6356
135.389 791 28.1247
135.507 910 30.1662
135.624 953 30.8707
135.742 1027 32.0468
135.859 1063 32.6037
135.977 990 31.4643
136.094 1072 32.7414
136.211 996 31.5595
136.329 1033 32.1403
136.446 1051 32.4191
136.564 992 31.496
136.681 1110 33.3167
136.798 1057 32.5115
136.915 1082 32.8938
137.033 1054 32.4654
137.15 1001 31.6386
137.267 1012 31.8119
137.384 1025 32.0156
137.502 1001 31.6386
137.619 1075 32.7872
137.736 1157 34.0147
137.853 1095 33.0908
137.97 1148 33.8821
138.087 1127 33.5708
138.204 1188 34.4674
138.321 1169 34.1906
138.438 1081 32.8786
138.555 1175 34.2783
138.672 1102 33.1964
138.788 1075 32.7872
138.905 1108 33.2866
139.022 1124 33.5261
139.139 1143 33.8083
139.255 1127 33.5708
139.372 1093 33.0606
139.488 1054 32.4654
139.605 954 30.8869
139.721 912 30.1993
139.838 890 29.8329
139.954 771 27.7669
140.071 779 27.9106
140.187 700 26.4575
140.303 757 27.5136
140.419 642 25.3377
140.535 602 24.5357
140.652 625 25
140.768 0 1
140.884 0 1
141 0 1
141.115 0 1
141.231 0 1
141.347 0 1
141.463 0 1
141.578 0 1
141.694 0 1
144.104 0 1
144.219 0 1
144.335 0 1
144.45 0 1
144.566 0 1
144.682 0 1
144.798 0 1
144.914 0 1
145.03 0 1
145.146 1115 33.3916
145.262 1146 33.8526
145.378 1158 34.0294
145.494 1203 34.6843
145.61 1224 34.9857
145.726 1228 35.0428
145.842 1184 34.4093
145.959 1179 34.3366
146.075 1222 34.9571
146.192 1191 34.5109
146.308 1211 34.7994
146.425 1204 34.6987
146.541 1230 35.0714
146.658 1283 35.819
146.774 1270 35.6371
146.891 1283 35.819
147.008 1280 35.7771
147.125 1202 34.6699
147.241 1225 35
147.358 1192 34.5254
147.475 1118 33.4365
147.592 1090 33.0151
147.709 1139 33.7491
147.826 1140 33.7639
147.943 1112 33.3467
148.06 1199 34.6266
148.177 1140 33.7639
148.294 1199 34.6266
148.411 1238 35.1852
148.528 1239 35.1994
148.645 1167 34.1614
148.762 1202 34.6699
148.88 1222 34.9571
148.997 1176 34.2929
149.114 1129 33.6006
149.231 1171 34.2199
149.349 1198 34.6121
149.466 1168 34.176
149.583 1142 33.7935
149.701 1150 33.9116
149.818 1111 33.3317
149.935 1145 33.8378
150.053 1155 33.9853
150.17 1061 32.573
150.287 1083 32.909
150.405 1146 33.8526
150.522 1147 33.8674
150.64 1072 32.7414
150.757 1055 32.4808
150.875 1020 31.9374
150.992 1036 32.187
151.11 1017 31.8904
151.227 939 30.6431
151.344 882 29.6985
151.462 871 29.5127
151.579 928 30.4631
151.697 954 30.8869
151.814 986 31.4006
151.932 1014 31.8434
152.049 1044 32.311
152.167 1059 32.5423
152.284 940 30.6594
152.402 990 31.4643
152.519 1038 32.218
152.636 941 30.6757
152.754 993 31.5119
152.871 979 31.289
152.989 973 31.1929
153.106 985 31.3847
153.223 1024 32
153.341 983 31.3528
153.458 910 30.1662
153.575 870 29.4958
153.693 915 30.249
153.81 938 30.6268
153.927 923 30.3809
154.044 919 30.315
154.162 894 29.8998
154.279 878 29.6311
154.396 924 30.3974
154.513 860 29.3258
154.63 953 30.8707
154.747 856 29.2575
154.864 903 30.05
154.981 789 28.0891
155.098 820 28.6356
155.215 898 29.9666
155.332 865 29.4109
155.449 906 30.0998
155.566 917 30.282
155.683 934 30.5614
155.8 910 30.1662
155.917 901 30.0167
156.033 845 29.0689
156.15 0 1
156.267 0 1
156.383 0 1
156.5 0 1
156.617 0 1
156.733 0 1
156.85 0 1
156.966 0 1
157.082 0 1
157.199 0 1
157.315 0 1
157.431 0 1
157.547 0 1
157.664 0 1
157.78 0 1
157.896 0 1
158.012 0 1
158.128 0 1
158.244 0 1
158.359 0 1
158.475 0 1
158.591 0 1
158.706 0 1
