
6.15755 0 1
6.2731 0 1
6.3887 0 1
6.50437 0 1
6.62009 0 1
6.73587 0 1
6.8517 0 1
6.96759 0 1
7.08353 0 1
7.19952 0 1
7.31557 0 1
7.43166 0 1
7.54781 0 1
7.664 0 1
7.78024 0 1
7.89653 0 1
8.01286 0 1
8.12924 0 1
8.24567 0 1
8.36213 0 1
8.47864 0 1
8.59519 0 1
8.71178 0 1
8.82841 0 1
8.94508 0 1
9.06179 0 1
9.17853 0 1
9.29531 0 1
9.41212 0 1
9.52897 0 1
9.64584 0 1
9.76276 0 1
9.8797 0 1
9.99667 0 1
10.1137 0 1
10.2307 0 1
10.3478 0 1
10.4648 0 1
10.5819 0 1
10.6991 0 1
10.8162 0 1
10.9334 0 1
11.0506 0 1
11.1678 0 1
11.285 0 1
11.4023 0 1
11.5196 0 1
11.6369 0 1
11.7542 0 1
11.8715 0 1
11.9888 0 1
12.1062 0 1
12.2235 0 1
12.3409 0 1
12.4582 0 1
12.5756 0 1
12.693 0 1
12.8104 0 1
12.9278 0 1
13.0452 0 1
13.1626 0 1
13.28 0 1
13.3974 0 1
13.5149 0 1
13.6323 0 1
13.7497 0 1
13.8671 0 1
13.9845 0 1
14.1019 0 1
14.2193 0 1
14.3367 0 1
14.4541 0 1
14.5714 0 1
14.6888 0 1
14.8062 0 1
14.9235 0 1
15.0408 0 0
15.1581 0 0
15.2755 0 0
15.3927 0 0
15.51 0 0
15.6273 0 0
15.7445 0 0
15.8617 0 0
15.9789 0 0
16.0961 0 0
16.2132 0 0
16.3304 0 0
16.4475 0 0
16.5646 0 0
16.6816 0 0
16.7986 0 0
16.9156 0 0
17.0326 0 0
17.1496 0 0
17.2665 0 0
17.3833 0 0
17.5002 0 0
17.617 0 0
17.7338 0 0
17.8505 0 0
17.9672 0 0
18.0839 0 0
18.2005 0 0
18.3171 0 0
18.4337 0 0
18.5502 0 0
18.6666 0 0
18.7831 0 0
18.8994 0 0
19.0158 0 0
19.1321 0 0
19.2483 0 0
19.3645 0 0
19.4806 0 0
19.5967 0 0
19.7128 0 0
19.8288 0 0
19.9447 0 0
20.0606 0 1
20.1764 0 1
20.2922 0 1
20.4079 0 1
20.5236 0 1
20.6392 0 1
20.7548 0 1
20.8702 0 1
23.3078 0 1
23.4233 0 1
23.539 0 1
23.6547 0 1
23.7704 0 1
23.8862 0 1
24.0021 0 1
24.118 0 1
24.234 0 1
24.35 0 1
24.4661 12724 112.801
24.5822 13076 114.35
24.6984 12882 113.499
24.8146 12791 113.097
24.9309 13247 115.096
25.0472 12960 113.842
25.1636 13421 115.849
25.28 13617 116.692
25.3965 13917 117.97
25.513 14100 118.743
25.6296 14490 120.374
25.7462 14358 119.825
25.8628 14418 120.075
25.9795 14379 119.912
26.0962 14550 120.623
26.213 14619 120.909
26.3298 14026 118.431
26.4466 14158 118.987
26.5635 13973 118.207
26.6804 14008 118.355
26.7973 13198 114.883
26.9143 13069 114.32
27.0313 12516 111.875
27.1483 12379 111.261
27.2653 12560 112.071
27.3824 12680 112.606
27.4996 12250 110.68
27.6167 12224 110.562
27.7339 11457 107.037
27.8511 10783 103.841
27.9683 10665 103.271
28.0855 10196 100.975
28.2028 10446 102.206
28.3201 10294 101.459
28.4374 10372 101.843
28.5547 10378 101.872
28.6721 10724 103.557
28.7894 11055 105.143
28.9068 11232 105.981
29.0242 11600 107.703
29.1416 11509 107.28
29.259 11543 107.438
29.3764 11752 108.407
29.4939 11717 108.245
29.6113 11738 108.342
29.7288 11687 108.106
29.8463 11745 108.374
29.9638 11808 108.665
30.0812 11678 108.065
30.1987 11762 108.453
30.3162 11312 106.358
30.4337 11079 105.257
30.5512 10825 104.043
30.6687 10556 102.742
30.7862 10873 104.274
30.9037 10845 104.139
31.0212 11036 105.052
31.1387 10784 103.846
31.2562 10521 102.572
31.3737 10208 101.035
31.4912 10116 100.578
31.6087 9846 99.227
31.7262 9947 99.7346
31.8436 9940 99.6995
31.9611 10157 100.782
32.0785 10033 100.165
32.1959 10483 102.387
32.3134 10596 102.937
32.4308 10809 103.966
32.5482 11037 105.057
32.6655 11447 106.991
32.7829 11254 106.085
32.9002 11442 106.967
33.0176 11713 108.227
33.1349 11387 106.71
33.2522 11377 106.663
33.3694 11484 107.163
33.4867 11384 106.696
33.6039 11217 105.91
33.7211 11333 106.457
33.8383 11148 105.584
33.9554 11134 105.518
34.0725 10640 103.15
34.1896 10576 102.84
34.3067 10265 101.316
34.4237 10347 101.72
34.5407 10429 102.122
34.6577 10456 102.255
34.7746 10358 101.774
34.8915 10363 101.799
35.0084 9897 99.4837
35.1252 9645 98.209
35.242 9467 97.2985
35.3587 9565 97.8008
35.4755 9492 97.4269
35.5921 9599 97.9745
35.7088 9827 99.1312
35.8254 9837 99.1817
35.9419 10244 101.213
36.0584 10534 102.635
36.1749 10801 103.928
36.2913 10775 103.803
36.4077 10625 103.078
36.524 10913 104.465
36.6403 10776 103.808
36.7565 11008 104.919
36.8727 10996 104.862
36.9889 11049 105.114
37.1049 10739 103.629
37.221 0 1
37.3369 0 1
37.4529 0 1
37.5687 0 1
37.6845 0 1
37.8003 0 1
37.916 0 1
38.0316 0 1
38.1472 0 1
40.5851 0 1
40.7008 0 1
40.8164 0 1
40.9322 0 1
41.048 0 1
41.1639 0 1
41.2798 0 1
41.3958 0 1
41.5118 0 1
41.6279 0 1
41.744 8897 94.3239
41.8602 9278 96.3224
41.9765 9157 95.6922
42.0928 9037 95.0631
42.2091 9163 95.7236
42.3255 9082 95.2995
42.4419 9295 96.4106
42.5584 9070 95.2365
42.675 9279 96.3276
42.7915 8875 94.2072
42.9081 8656 93.0376
43.0248 8602 92.747
43.1415 8209 90.6035
43.2582 8326 91.2469
43.375 8440 91.8695
43.4918 8476 92.0652
43.6087 8305 91.1318
43.7256 8241 90.78
43.8425 7714 87.8294
43.9595 7619 87.2869
44.0765 7515 86.6891
44.1935 7539 86.8274
44.3106 7448 86.3018
44.4277 7446 86.2902
44.5448 7782 88.2156
44.6619 7803 88.3346
44.7791 8050 89.7218
44.8963 8040 89.666
45.0136 8132 90.1776
45.1308 7960 89.2188
45.2481 7732 87.9318
45.3654 7917 88.9775
45.4827 7865 88.6848
45.6001 7720 87.8635
45.7174 7809 88.3685
45.8348 7664 87.5443
45.9522 7476 86.4639
46.0697 7573 87.023
46.1871 7332 85.6271
46.3046 7294 85.4049
46.422 7425 86.1684
46.5395 6756 82.1949
46.657 6636 81.4616
46.7745 6517 80.7279
46.892 6311 79.4418
47.0096 6541 80.8764
47.1271 6526 80.7837
47.2446 6430 80.1873
47.3622 6158 78.4729
47.4797 5890 76.7463
47.5973 5757 75.8749
47.7149 5597 74.8131
47.8324 5573 74.6525
47.95 5584 74.7262
48.0675 5829 76.3479
48.1851 5878 76.6681
48.3027 6093 78.0577
48.4202 6117 78.2113
48.5378 6149 78.4156
48.6554 6201 78.7464
48.7729 6169 78.543
48.8904 6178 78.6003
49.008 6069 77.9038
49.1255 6257 79.1012
49.243 6191 78.6829
49.3605 6174 78.5748
49.478 6373 79.8311
49.5955 6418 80.1124
49.713 6402 80.0125
49.8304 6416 80.0999
49.9479 6387 79.9187
50.0653 6329 79.555
50.1827 6270 79.1833
50.3001 6144 78.3837
50.4175 6110 78.1665
50.5348 6136 78.3326
50.6521 6826 82.6196
50.7694 6987 83.5883
50.8867 6890 83.006
51.004 6843 82.7224
51.1212 6887 82.988
51.2384 6918 83.1745
51.3556 7044 83.9285
51.4727 7258 85.1939
51.5899 7595 87.1493
51.707 7933 89.0674
51.824 8239 90.7689
51.9411 8515 92.2768
52.0581 8543 92.4284
52.175 8826 93.9468
52.2919 8860 94.1276
52.4088 8908 94.3822
52.5257 9041 95.0842
52.6425 9023 94.9895
52.7593 9105 95.4201
52.876 9062 95.1945
52.9927 9242 96.1353
53.1094 9166 95.7392
53.226 9331 96.5971
53.3426 9549 97.719
53.4591 9546 97.7036
53.5756 9595 97.9541
53.692 9396 96.933
53.8084 8937 94.5357
53.9248 8698 93.2631
54.0411 8731 93.4398
54.1573 8861 94.1329
54.2735 0 1
54.3896 0 1
54.5057 0 1
54.6217 0 1
54.7377 0 1
54.8537 0 1
54.9695 0 1
55.0853 0 1
55.2011 0 1
55.3168 0 1
55.4324 0 1
57.824 0 1
57.9396 0 1
58.0553 0 1
58.1711 0 1
58.2869 0 1
58.4028 0 1
58.5187 0 1
58.6347 0 1
58.7508 0 1
58.8669 0 1
58.983 10357 101.769
59.0992 10350 101.735
59.2155 10272 101.351
59.3318 10517 102.552
59.4482 10478 102.362
59.5646 10332 101.646
59.681 10336 101.666
59.7975 10399 101.975
59.9141 10374 101.853
60.0306 10683 103.359
60.1473 10852 104.173
60.2639 11063 105.181
60.3807 11177 105.721
60.4974 11476 107.126
60.6142 11039 105.067
60.731 11331 106.447
60.8479 11205 105.854
60.9648 11108 105.394
61.0818 11388 106.715
61.1987 11199 105.825
61.3158 11203 105.844
61.4328 10932 104.556
61.5499 11005 104.905
61.667 10965 104.714
61.7841 10865 104.235
61.9013 10902 104.413
62.0185 10866 104.24
62.1357 10615 103.029
62.253 10399 101.975
62.3702 10132 100.658
62.4875 9846 99.227
62.6049 9618 98.0714
62.7222 9610 98.0306
62.8396 9933 99.6644
62.9569 9692 98.448
63.0743 9690 98.4378
63.1918 9627 98.1173
63.3092 9593 97.9439
63.4267 9637 98.1682
63.5441 9841 99.2018
63.6616 10200 100.995
63.7791 10351 101.74
63.8966 10452 102.235
64.0142 10406 102.01
64.1317 10234 101.163
64.2492 10281 101.395
64.3668 10102 100.509
64.4843 10197 100.98
64.6019 10192 100.955
64.7195 10009 100.045
64.837 9932 99.6594
64.9546 9996 99.98
65.0722 9947 99.7346
65.1898 10034 100.17
65.3074 10092 100.459
65.4249 10025 100.125
65.5425 9997 99.985
65.6601 9877 99.3831
65.7777 9912 99.559
65.8952 9574 97.8468
66.0128 9134 95.572
66.1304 8913 94.4087
66.2479 8783 93.7177
66.3655 8784 93.723
66.483 9117 95.483
66.6005 9083 95.3048
66.718 9065 95.2103
66.8355 9068 95.226
66.953 8997 94.8525
67.0705 9160 95.7079
67.1879 9540 97.6729
67.3054 9927 99.6343
67.4228 9725 98.6154
67.5402 9862 99.3076
67.6576 10075 100.374
67.7749 9855 99.2724
67.8923 9987 99.935
68.0096 9909 99.544
68.1269 9899 99.4937
68.2442 10020 100.1
68.3614 9971 99.8549
68.4787 10154 100.767
68.5958 9942 99.7096
68.713 9837 99.1817
68.8302 9784 98.9141
68.9473 9992 99.96
69.0643 10115 100.573
69.1814 10126 100.628
69.2984 9926 99.6293
69.4154 10312 101.548
69.5323 10257 101.277
69.6492 9690 98.4378
69.7661 9092 95.352
69.8829 8995 94.842
69.9997 9049 95.1262
70.1165 9336 96.623
70.2332 9469 97.3088
70.3499 9471 97.3191
70.4665 9313 96.5039
70.5831 9393 96.9175
70.6996 9776 98.8737
70.8161 9906 99.5289
70.9326 9942 99.7096
71.049 10005 100.025
71.1653 10211 101.049
71.2817 9856 99.2774
71.3979 9974 99.8699
71.5141 9585 97.903
71.6303 9562 97.7855
71.7464 8740 93.488
71.8624 0 1
71.9784 0 1
72.0944 0 1
72.2102 0 1
72.3261 0 1
72.4418 0 1
72.5575 0 1
72.6732 0 1
75.1054 0 1
75.2209 0 1
75.3365 0 1
75.4521 0 1
75.5678 0 1
75.6835 0 1
75.7993 0 1
75.9151 0 1
76.031 0 1
76.147 8772 93.659
76.263 9599 97.9745
76.3791 9828 99.1363
76.4952 9828 99.1363
76.6113 9668 98.326
76.7276 9940 99.6995
76.8438 9962 99.8098
76.9601 9827 99.1312
77.0765 9825 99.1211
77.1929 9924 99.6193
77.3093 9923 99.6143
77.4258 9752 98.7522
77.5423 9844 99.2169
77.6589 9881 99.4032
77.7755 9870 99.3479
77.8921 9711 98.5444
78.0088 9588 97.9183
78.1256 9726 98.6205
78.2423 9728 98.6306
78.3591 9721 98.5951
78.4759 9652 98.2446
78.5928 9398 96.9433
78.7097 8894 94.308
78.8266 8774 93.6696
78.9436 7321 85.5628
79.0606 7314 85.5219
79.1776 7641 87.4128
79.2946 8492 92.152
79.4117 8570 92.5743
79.5288 8951 94.6097
79.6459 9190 95.8645
79.7631 9426 97.0876
79.8802 9230 96.0729
79.9974 9294 96.4054
80.1147 9399 96.9484
80.2319 9327 96.5764
80.3491 9282 96.3431
80.4664 9150 95.6556
80.5837 8968 94.6995
80.701 9131 95.5563
80.8183 8968 94.6995
80.9357 8979 94.7576
81.053 9052 95.142
81.1704 8872 94.1913
81.2877 8858 94.1169
81.4051 9013 94.9368
81.5225 8981 94.7681
81.6399 8707 93.3113
81.7573 8830 93.9681
81.8747 8713 93.3435
81.9922 8685 93.1933
82.1096 8742 93.4987
82.227 8773 93.6643
82.3444 8302 91.1153
82.4619 8033 89.627
82.5793 7070 84.0833
82.6967 6771 82.2861
82.8142 6962 83.4386
82.9316 7445 86.2844
83.049 7734 87.9432
83.1664 7889 88.82
83.2838 8100 90
83.4012 8239 90.7689
83.5186 8261 90.89
83.636 8139 90.2164
83.7534 8068 89.822
83.8708 8143 90.2386
83.9881 7998 89.4315
84.1055 8032 89.6214
84.2228 7741 87.983
84.3401 8045 89.6939
84.4575 7898 88.8707
84.5747 7965 89.2468
84.692 8085 89.9166
84.8093 8060 89.7775
84.9265 7935 89.0786
85.0437 8000 89.4427
85.1609 8027 89.5935
85.2781 7794 88.2836
85.3952 7999 89.4371
85.5123 7900 88.8819
85.6294 7910 88.9382
85.7465 8017 89.5377
85.8636 7935 89.0786
85.9806 7794 88.2836
86.0976 7269 85.2584
86.2145 6411 80.0687
86.3315 5700 75.4983
86.4484 6804 82.4864
86.5652 7199 84.8469
86.682 7868 88.7017
86.7988 8227 90.7028
86.9156 8314 91.1811
87.0323 8113 90.0722
87.149 8236 90.7524
87.2657 8129 90.161
87.3823 8231 90.7249
87.4988 7901 88.8876
87.6154 8003 89.4595
87.7318 8189 90.4931
87.8483 8065 89.8053
87.9647 8132 90.1776
88.081 8008 89.4874
88.1973 8106 90.0333
88.3136 8285 91.022
88.4298 7999 89.4371
88.546 8066 89.8109
88.6621 7818 88.4195
88.7781 7794 88.2836
88.8942 0 1
89.0101 0 1
89.126 0 1
89.2419 0 1
89.3577 0 1
89.4734 0 1
89.5891 0 1
89.7047 0 1
89.8203 0 1
89.9358 0 1
92.3269 0 1
92.4424 0 1
92.558 0 1
92.6736 0 1
92.7893 0 1
92.905 0 1
93.0208 0 1
93.1366 0 1
93.2525 0 1
93.3685 0 1
93.4845 0 1
93.6005 6113 78.1857
93.7167 6125 78.2624
93.8328 6167 78.5302
93.949 6049 77.7753
94.0653 5922 76.9545
94.1816 5816 76.2627
94.2979 5782 76.0395
94.4143 5653 75.1864
94.5307 5634 75.06
94.6472 5712 75.5778
94.7637 5588 74.7529
94.8803 5491 74.1013
94.9969 5432 73.7021
95.1135 5284 72.6911
95.2302 5012 70.7955
95.3469 4537 67.3573
95.4637 3909 62.522
95.5805 3793 61.5873
95.6973 4434 66.5883
95.8142 4994 70.6682
95.9311 5091 71.3512
96.048 5071 71.211
96.1649 5075 71.239
96.2819 4931 70.2211
96.3989 4786 69.1809
96.516 4791 69.217
96.633 4634 68.0735
96.7501 4420 66.4831
96.8673 4310 65.6506
96.9844 4267 65.3223
97.1016 4184 64.6838
97.2188 4111 64.1171
97.336 4028 63.4665
97.4532 3906 62.498
97.5704 3840 61.9677
97.6877 3906 62.498
97.805 3547 59.5567
97.9223 3493 59.1016
98.0396 3501 59.1692
98.1569 3308 57.5152
98.2743 3227 56.8067
98.3916 3181 56.4004
98.509 3082 55.5158
98.6264 3048 55.2087
98.7438 2968 54.4794
98.8612 2771 52.6403
98.9786 2498 49.98
99.096 2049 45.2659
99.2134 1871 43.2551
99.3308 2275 47.697
99.4482 2498 49.98
99.5656 2395 48.9387
99.6831 2350 48.4768
99.8005 2232 47.244
99.9179 2203 46.9361
100.035 2198 46.8828
100.153 2122 46.0652
100.27 2137 46.2277
100.388 2085 45.6618
100.505 2103 45.8585
100.622 2111 45.9456
100.74 2149 46.3573
100.857 2198 46.8828
100.975 2332 48.2908
101.092 2379 48.775
101.209 2418 49.1732
101.327 2465 49.6488
101.444 2632 51.303
101.561 2667 51.643
101.679 2763 52.5642
101.796 2883 53.6936
101.913 2958 54.3875
102.03 2983 54.6168
102.148 3119 55.848
102.265 3467 58.8812
102.382 3188 56.4624
102.499 3184 56.4269
102.616 2661 51.5849
102.733 2324 48.2079
102.851 3370 58.0517
102.968 3832 61.9032
103.085 4070 63.7966
103.202 4225 65
103.319 4259 65.261
103.436 4293 65.521
103.552 4436 66.6033
103.669 4425 66.5207
103.786 4542 67.3944
103.903 4674 68.3667
104.02 4803 69.3037
104.137 4702 68.5711
104.253 5029 70.9154
104.37 4994 70.6682
104.487 5160 71.8331
104.603 5344 73.1027
104.72 5320 72.9383
104.836 5341 73.0821
104.953 5501 74.1687
105.069 5623 74.9867
105.186 5699 75.4917
105.302 5829 76.3479
105.418 5727 75.6769
105.535 5935 77.039
105.651 6072 77.923
105.767 5970 77.2658
105.883 5644 75.1266
105.999 4526 67.2756
106.115 0 1
106.231 0 1
106.347 0 1
106.463 0 1
106.579 0 1
106.694 0 1
106.81 0 1
106.926 0 1
107.041 0 1
107.157 0 1
109.576 0 1
109.692 0 1
109.807 0 1
109.923 0 1
110.039 0 1
110.155 0 1
110.27 0 1
110.386 0 1
110.502 0 1
110.618 5895 76.7789
110.735 5921 76.948
110.851 5748 75.8156
110.967 5220 72.2496
111.083 4489 67
111.199 4334 65.8331
111.316 4984 70.5975
111.432 5684 75.3923
111.549 6248 79.0443
111.665 6365 79.781
111.782 6142 78.3709
111.898 6059 77.8396
112.015 6076 77.9487
112.132 6151 78.4283
112.248 5931 77.013
112.365 5866 76.5898
112.482 5918 76.9285
112.599 5609 74.8933
112.716 5782 76.0395
112.832 5573 74.6525
112.949 5614 74.9266
113.066 5592 74.7797
113.183 5453 73.8444
113.3 5469 73.9527
113.417 5246 72.4293
113.534 5408 73.5391
113.652 5251 72.4638
113.769 5100 71.4143
113.886 5184 72
114.003 4957 70.406
114.12 5018 70.8378
114.238 4886 69.8999
114.355 4639 68.1102
114.472 4391 66.2646
114.589 3618 60.1498
114.707 3298 57.4282
114.824 3347 57.8533
114.942 3920 62.6099
115.059 4346 65.9242
115.176 4476 66.9029
115.294 4535 67.3424
115.411 4339 65.8711
115.529 4437 66.6108
115.646 4239 65.1076
115.764 4446 66.6783
115.881 4141 64.3506
115.999 4105 64.0703
116.116 4194 64.7611
116.234 4016 63.3719
116.351 3973 63.0317
116.469 3952 62.8649
116.586 3729 61.0655
116.704 3819 61.7981
116.821 3773 61.4248
116.939 3678 60.6465
117.056 3651 60.4235
117.174 3485 59.0339
117.291 3662 60.5145
117.409 3514 59.279
117.526 3558 59.649
117.644 3493 59.1016
117.761 3322 57.6368
117.879 3273 57.2101
117.996 3167 56.2761
118.114 3231 56.8419
118.231 3226 56.7979
118.349 2719 52.144
118.466 2587 50.8626
118.584 2776 52.6878
118.701 3162 56.2317
118.819 3087 55.5608
118.936 3039 55.1271
119.053 3150 56.1249
119.171 3107 55.7405
119.288 2993 54.7083
119.405 3008 54.8452
119.523 2963 54.4334
119.64 3021 54.9636
119.757 2882 53.6843
119.875 2932 54.1479
119.992 2984 54.626
120.109 2923 54.0648
120.226 2944 54.2586
120.343 2982 54.6077
120.46 2827 53.1695
120.578 2848 53.3667
120.695 2733 52.2781
120.812 2879 53.6563
120.929 2809 53
121.046 2931 54.1387
121.163 2930 54.1295
121.279 2772 52.6498
121.396 2720 52.1536
121.513 2364 48.621
121.63 2225 47.1699
121.747 2238 47.3075
121.863 2533 50.3289
121.98 2761 52.5452
122.097 2747 52.4118
122.213 2719 52.144
122.33 2708 52.0384
122.446 2805 52.9623
122.563 3021 54.9636
122.679 2948 54.2955
122.795 2897 53.8238
122.912 2905 53.8981
123.028 2932 54.1479
123.144 2981 54.5985
123.26 2971 54.5069
123.377 0 1
123.493 0 1
123.609 0 1
123.725 0 1
123.84 0 1
123.956 0 1
124.072 0 1
124.188 0 1
124.303 0 1
124.419 0 1
126.852 0 1
126.968 0 1
127.083 0 1
127.199 0 1
127.315 0 1
127.431 0 1
127.547 0 1
127.663 0 1
127.779 0 1
127.895 0 1
128.011 0 1
128.127 0 1
128.243 0 1
128.359 4230 65.0385
128.476 4298 65.5591
128.592 4169 64.5678
128.708 4300 65.5744
128.825 4289 65.4905
128.941 4315 65.6887
129.058 4370 66.106
129.174 4397 66.3099
129.291 4457 66.7608
129.408 4576 67.6461
129.524 4503 67.1044
129.641 4478 66.9179
129.758 4614 67.9264
129.875 4731 68.7823
129.992 4609 67.8896
130.108 4488 66.9925
130.225 4157 64.4748
130.342 3786 61.5305
130.459 2982 54.6077
130.576 2572 50.7149
130.693 2545 50.448
130.81 3360 57.9655
130.928 4340 65.8787
131.045 4902 70.0143
131.162 5038 70.9789
131.279 5115 71.5192
131.396 5216 72.2219
131.513 5220 72.2496
131.631 5147 71.7426
131.748 5330 73.0068
131.865 5293 72.753
131.983 5235 72.3533
132.1 5367 73.2598
132.217 5417 73.6003
132.335 5344 73.1027
132.452 5457 73.8715
132.57 5515 74.263
132.687 5502 74.1755
132.804 5712 75.5778
132.922 5470 73.9594
133.039 5512 74.2428
133.157 5546 74.4715
133.274 5569 74.6257
133.392 5572 74.6458
133.509 5558 74.552
133.627 5399 73.4779
133.744 5090 71.3442
133.862 4712 68.644
133.979 4090 63.9531
134.097 3612 60.0999
134.214 3315 57.576
134.332 3422 58.4979
134.449 4251 65.1997
134.567 5128 71.6101
134.684 5733 75.7166
134.802 6022 77.6015
134.919 6059 77.8396
135.037 6129 78.2879
135.154 6239 78.9873
135.272 6292 79.3221
135.389 6118 78.2176
135.507 6186 78.6511
135.624 6398 79.9875
135.742 6191 78.6829
135.859 6311 79.4418
135.977 6170 78.5493
136.094 6346 79.6618
136.211 6340 79.6241
136.329 6441 80.2558
136.446 6403 80.0187
136.564 6623 81.3818
136.681 6622 81.3757
136.798 6445 80.2808
136.915 6801 82.4682
137.033 6587 81.1603
137.15 6401 80.0062
137.267 6135 78.3262
137.384 5567 74.6123
137.502 5298 72.7874
137.619 4824 69.455
137.736 4518 67.2161
137.853 4172 64.591
137.97 4198 64.792
138.087 4732 68.7895
138.204 5424 73.6478
138.321 6449 80.3057
138.438 6888 82.994
138.555 7107 84.303
138.672 7217 84.9529
138.788 7219 84.9647
138.905 7286 85.3581
139.022 7291 85.3874
139.139 7235 85.0588
139.255 7209 84.9058
139.372 7147 84.5399
139.488 7234 85.0529
139.605 7407 86.0639
139.721 7417 86.122
139.838 7420 86.1394
139.954 7241 85.0941
140.071 7231 85.0353
140.187 7442 86.267
140.303 7432 86.209
140.419 7386 85.9418
140.535 7378 85.8953
140.652 7162 84.6286
140.768 0 1
140.884 0 1
141 0 1
141.115 0 1
141.231 0 1
141.347 0 1
141.463 0 1
141.578 0 1
141.694 0 1
144.104 0 1
144.219 0 1
144.335 0 1
144.45 0 1
144.566 0 1
144.682 0 1
144.798 0 1
144.914 0 1
145.03 0 1
145.146 7101 84.2674
145.262 7419 86.1336
145.378 7274 85.2877
145.494 7282 85.3346
145.61 7045 83.9345
145.726 6871 82.8915
145.842 6638 81.4739
145.959 6293 79.3284
146.075 5923 76.961
146.192 5687 75.4122
146.308 5304 72.8286
146.425 5109 71.4773
146.541 5200 72.111
146.658 5338 73.0616
146.774 5554 74.5252
146.891 6095 78.0705
147.008 6609 81.2958
147.125 7207 84.8941
147.241 7381 85.9127
147.358 7398 86.0116
147.475 7518 86.7064
147.592 7349 85.7263
147.709 7505 86.6314
147.826 7388 85.9535
147.943 7276 85.2995
148.06 7429 86.1916
148.177 7363 85.8079
148.294 7357 85.773
148.411 7425 86.1684
148.528 7398 86.0116
148.645 7258 85.1939
148.762 7290 85.3815
148.88 7489 86.539
148.997 7130 84.4393
149.114 7374 85.872
149.231 7226 85.0059
149.349 6816 82.5591
149.466 6712 81.9268
149.583 6352 79.6994
149.701 5878 76.6681
149.818 5715 75.5976
149.935 5554 74.5252
150.053 5381 73.3553
150.17 5551 74.505
150.287 5742 75.776
150.405 5969 77.2593
150.522 6425 80.1561
150.64 6694 81.8169
150.757 7067 84.0655
150.875 7464 86.3944
150.992 7699 87.7439
151.11 7262 85.2174
151.227 7451 86.3192
151.344 7554 86.9138
151.462 7411 86.0872
151.579 7602 87.1894
151.697 7737 87.9602
151.814 7614 87.2582
151.932 7563 86.9655
152.049 7654 87.4871
152.167 7618 87.2812
152.284 7676 87.6128
152.402 7603 87.1952
152.519 7655 87.4929
152.636 7752 88.0454
152.754 7505 86.6314
152.871 7219 84.9647
152.989 6974 83.5105
153.106 6718 81.9634
153.223 6557 80.9753
153.341 6237 78.9747
153.458 6148 78.4092
153.575 5782 76.0395
153.693 5873 76.6355
153.81 6036 77.6917
153.927 6145 78.3901
154.044 6450 80.3119
154.162 6919 83.1805
154.279 7242 85.0999
154.396 7460 86.3713
154.513 7776 88.1816
154.63 8196 90.5318
154.747 8099 89.9944
154.864 7863 88.6736
154.981 7965 89.2468
155.098 8018 89.5433
155.215 8088 89.9333
155.332 7952 89.174
155.449 7966 89.2525
155.566 8052 89.7329
155.683 8249 90.824
155.8 8060 89.7775
155.917 8127 90.1499
156.033 7928 89.0393
156.15 0 1
156.267 0 1
156.383 0 1
156.5 0 1
156.617 0 1
156.733 0 1
156.85 0 1
156.966 0 1
157.082 0 1
157.199 0 1
157.315 0 1
157.431 0 1
157.547 0 1
157.664 0 1
157.78 0 1
157.896 0 1
158.012 0 1
158.128 0 1
158.244 0 1
158.359 0 1
158.475 0 1
158.591 0 1
158.706 0 1
