
6.15755 0 1
6.2731 0 1
6.3887 0 1
6.50437 0 1
6.62009 0 1
6.73587 0 1
6.8517 0 1
6.96759 0 1
7.08353 0 1
7.19952 0 1
7.31557 0 1
7.43166 0 1
7.54781 0 1
7.664 0 1
7.78024 0 1
7.89653 0 1
8.01286 0 1
8.12924 0 1
8.24567 0 1
8.36213 0 1
8.47864 0 1
8.59519 0 1
8.71178 0 1
8.82841 0 1
8.94508 0 1
9.06179 0 1
9.17853 0 1
9.29531 0 1
9.41212 0 1
9.52897 0 1
9.64584 0 1
9.76276 0 1
9.8797 0 1
9.99667 0 1
10.1137 0 1
10.2307 0 1
10.3478 0 1
10.4648 0 1
10.5819 0 1
10.6991 0 1
10.8162 0 1
10.9334 0 1
11.0506 0 1
11.1678 0 1
11.285 0 1
11.4023 0 1
11.5196 0 1
11.6369 0 1
11.7542 0 1
11.8715 0 1
11.9888 0 1
12.1062 0 1
12.2235 0 1
12.3409 0 1
12.4582 0 1
12.5756 0 1
12.693 0 1
12.8104 0 1
12.9278 0 1
13.0452 0 1
13.1626 0 1
13.28 0 1
13.3974 0 1
13.5149 0 1
13.6323 0 1
13.7497 0 1
13.8671 0 1
13.9845 0 1
14.1019 0 1
14.2193 0 1
14.3367 0 1
14.4541 0 1
14.5714 0 1
14.6888 0 1
14.8062 0 1
14.9235 0 1
15.0408 8180 90.4434
15.1581 8632 92.9086
15.2755 8703 93.2899
15.3927 8720 93.3809
15.51 8842 94.0319
15.6273 8757 93.5788
15.7445 8723 93.397
15.8617 8644 92.9731
15.9789 8359 91.4276
16.0961 8349 91.3729
16.2132 8145 90.2497
16.3304 8429 91.8096
16.4475 8217 90.6477
16.5646 8848 94.0638
16.6816 8891 94.2921
16.7986 8650 93.0054
16.9156 8469 92.0272
17.0326 8624 92.8655
17.1496 8560 92.5203
17.2665 8491 92.1466
17.3833 8296 91.0824
17.5002 8258 90.8735
17.617 7977 89.3141
17.7338 8182 90.4544
17.8505 8315 91.1866
17.9672 8463 91.9946
18.0839 8981 94.7681
18.2005 9165 95.734
18.3171 9362 96.7574
18.4337 9382 96.8607
18.5502 9755 98.7674
18.6666 9845 99.222
18.7831 9692 98.448
18.8994 9507 97.5038
19.0158 9313 96.5039
19.1321 9232 96.0833
19.2483 8751 93.5468
19.3645 8483 92.1032
19.4806 8162 90.3438
19.5967 7986 89.3644
19.7128 7694 87.7154
19.8288 7588 87.1091
19.9447 6904 83.0903
20.0606 0 1
20.1764 0 1
20.2922 0 1
20.4079 0 1
20.5236 0 1
20.6392 0 1
20.7548 0 1
20.8702 0 1
23.3078 0 1
23.4233 0 1
23.539 0 1
23.6547 0 1
23.7704 0 1
23.8862 0 1
24.0021 0 1
24.118 0 1
24.234 0 1
24.35 0 1
24.4661 8167 90.3715
24.5822 8101 90.0056
24.6984 7801 88.3233
24.8146 7442 86.267
24.9309 7745 88.0057
25.0472 7936 89.0842
25.1636 8307 91.1427
25.28 8572 92.5851
25.3965 8708 93.3167
25.513 8794 93.7763
25.6296 9168 95.7497
25.7462 9260 96.2289
25.8628 9144 95.6243
25.9795 9002 94.8789
26.0962 8676 93.145
26.213 8360 91.433
26.3298 8276 90.9725
26.4466 8087 89.9277
26.5635 8088 89.9333
26.6804 8368 91.4768
26.7973 8459 91.9728
26.9143 8716 93.3595
27.0313 8825 93.9415
27.1483 9066 95.2155
27.2653 9026 95.0053
27.3824 9054 95.1525
27.4996 9102 95.4044
27.6167 8944 94.5727
27.7339 8857 94.1116
27.8511 8854 94.0957
27.9683 8511 92.2551
28.0855 8287 91.033
28.2028 8247 90.813
28.3201 7865 88.6848
28.4374 7709 87.8009
28.5547 7746 88.0114
28.6721 7883 88.7863
28.7894 7939 89.1011
28.9068 8276 90.9725
29.0242 8475 92.0598
29.1416 8443 91.8858
29.259 8447 91.9076
29.3764 8500 92.1954
29.4939 8433 91.8314
29.6113 8208 90.598
29.7288 7855 88.6284
29.8463 7793 88.278
29.9638 7598 87.1665
30.0812 7477 86.4696
30.1987 7875 88.7412
30.3162 8157 90.3161
30.4337 8097 89.9833
30.5512 8458 91.9674
30.6687 8432 91.8259
30.7862 8808 93.8509
30.9037 8805 93.835
31.0212 8834 93.9894
31.1387 8722 93.3916
31.2562 8636 92.9301
31.3737 8415 91.7333
31.4912 8312 91.1702
31.6087 8240 90.7744
31.7262 8051 89.7274
31.8436 7943 89.1235
31.9611 7397 86.0058
32.0785 7348 85.7205
32.1959 7523 86.7352
32.3134 7674 87.6014
32.4308 7877 88.7525
32.5482 8074 89.8554
32.6655 8208 90.598
32.7829 8281 91
32.9002 8187 90.482
33.0176 8184 90.4655
33.1349 8208 90.598
33.2522 8125 90.1388
33.3694 7802 88.3289
33.4867 7836 88.5212
33.6039 7374 85.872
33.7211 7253 85.1645
33.8383 7402 86.0349
33.9554 7561 86.954
34.0725 7916 88.9719
34.1896 8129 90.161
34.3067 8185 90.471
34.4237 8105 90.0278
34.5407 8277 90.978
34.6577 8420 91.7606
34.7746 8462 91.9891
34.8915 8396 91.6297
35.0084 8458 91.9674
35.1252 8053 89.7385
35.242 7938 89.0955
35.3587 7765 88.1192
35.4755 7626 87.327
35.5921 7217 84.9529
35.7088 7036 83.8809
35.8254 6984 83.5703
35.9419 7264 85.2291
36.0584 7373 85.8662
36.1749 7705 87.7781
36.2913 7689 87.6869
36.4077 7638 87.3957
36.524 7852 88.6115
36.6403 7850 88.6002
36.7565 8143 90.2386
36.8727 7921 89
36.9889 7462 86.3829
37.1049 7255 85.1763
37.221 0 1
37.3369 0 1
37.4529 0 1
37.5687 0 1
37.6845 0 1
37.8003 0 1
37.916 0 1
38.0316 0 1
38.1472 0 1
40.5851 0 1
40.7008 0 1
40.8164 0 1
40.9322 0 1
41.048 0 1
41.1639 0 1
41.2798 0 1
41.3958 0 1
41.5118 0 1
41.6279 0 1
41.744 6267 79.1644
41.8602 6613 81.3204
41.9765 6662 81.6211
42.0928 6831 82.6499
42.2091 6570 81.0555
42.3255 6638 81.4739
42.4419 6381 79.8812
42.5584 5944 77.0973
42.675 5982 77.3434
42.7915 6116 78.2049
42.9081 6287 79.2906
43.0248 6245 79.0253
43.1415 6537 80.8517
43.2582 6596 81.2158
43.375 6577 81.0987
43.4918 6609 81.2958
43.6087 6743 82.1158
43.7256 6590 81.1788
43.8425 6579 81.111
43.9595 6407 80.0437
44.0765 6334 79.5864
44.1935 6025 77.6209
44.3106 5720 75.6307
44.4277 5841 76.4264
44.5448 5289 72.7255
44.6619 5084 71.3022
44.7791 4927 70.1926
44.8963 5104 71.4423
45.0136 5124 71.5821
45.1308 5117 71.5332
45.2481 5290 72.7324
45.3654 5342 73.089
45.4827 5318 72.9246
45.6001 5163 71.854
45.7174 5331 73.0137
45.8348 5218 72.2357
45.9522 4952 70.3704
46.0697 4716 68.6731
46.1871 4572 67.6166
46.3046 4609 67.8896
46.422 4694 68.5128
46.5395 4706 68.6003
46.657 4842 69.5845
46.7745 4873 69.8069
46.892 5036 70.9648
47.0096 5083 71.2952
47.1271 5105 71.4493
47.2446 5150 71.7635
47.3622 5027 70.9013
47.4797 4924 70.1712
47.5973 4761 69
47.7149 4709 68.6222
47.8324 4535 67.3424
47.95 4542 67.3944
48.0675 4338 65.8635
48.1851 4147 64.3972
48.3027 4045 63.6003
48.4202 3878 62.2736
48.5378 4110 64.1093
48.6554 4146 64.3894
48.7729 4322 65.7419
48.8904 4464 66.8132
49.008 4548 67.4389
49.1255 4525 67.2681
49.243 4695 68.5201
49.3605 4534 67.335
49.478 4598 67.8086
49.5955 4334 65.8331
49.713 4271 65.3529
49.8304 4219 64.9538
49.9479 4219 64.9538
50.0653 4471 66.8655
50.1827 4758 68.9783
50.3001 4923 70.1641
50.4175 5064 71.1618
50.5348 5052 71.0774
50.6521 5221 72.2565
50.7694 5444 73.7835
50.8867 5390 73.4166
51.004 5578 74.686
51.1212 5667 75.2795
51.2384 5477 74.0068
51.3556 5667 75.2795
51.4727 5672 75.3127
51.5899 5763 75.9144
51.707 5338 73.0616
51.824 5168 71.8888
51.9411 5324 72.9657
52.0581 5528 74.3505
52.175 5877 76.6616
52.2919 6070 77.9102
52.4088 6386 79.9125
52.5257 6499 80.6164
52.6425 6614 81.3265
52.7593 6924 83.2106
52.876 6893 83.0241
52.9927 6965 83.4566
53.1094 6852 82.7768
53.226 6649 81.5414
53.3426 6350 79.6869
53.4591 6219 78.8606
53.5756 6498 80.6102
53.692 6812 82.5348
53.8084 7066 84.0595
53.9248 7475 86.4581
54.0411 7543 86.8504
54.1573 7636 87.3842
54.2735 0 1
54.3896 0 1
54.5057 0 1
54.6217 0 1
54.7377 0 1
54.8537 0 1
54.9695 0 1
55.0853 0 1
55.2011 0 1
55.3168 0 1
55.4324 0 1
57.824 0 1
57.9396 0 1
58.0553 0 1
58.1711 0 1
58.2869 0 1
58.4028 0 1
58.5187 0 1
58.6347 0 1
58.7508 0 1
58.8669 0 1
58.983 8404 91.6733
59.0992 9052 95.142
59.2155 9291 96.3898
59.3318 9364 96.7678
59.4482 9641 98.1886
59.5646 9807 99.0303
59.681 9861 99.3026
59.7975 9749 98.737
59.9141 9683 98.4022
60.0306 9549 97.719
60.1473 9402 96.9639
60.2639 9134 95.572
60.3807 8970 94.7101
60.4974 8552 92.477
60.6142 8249 90.824
60.731 8009 89.493
60.8479 8142 90.233
60.9648 8422 91.7715
61.0818 8707 93.3113
61.1987 8776 93.6803
61.3158 8912 94.4034
61.4328 9115 95.4725
61.5499 9285 96.3587
61.667 9256 96.2081
61.7841 8916 94.4246
61.9013 8402 91.6624
62.0185 8232 90.7304
62.1357 7870 88.713
62.253 7811 88.3799
62.3702 8079 89.8833
62.4875 8244 90.7965
62.6049 8719 93.3756
62.7222 8431 91.8205
62.8396 8812 93.8723
62.9569 8930 94.4987
63.0743 8993 94.8314
63.1918 8971 94.7154
63.3092 8887 94.2709
63.4267 8822 93.9255
63.5441 8628 92.887
63.6616 8364 91.4549
63.7791 8328 91.2579
63.8966 8132 90.1776
64.0142 7746 88.0114
64.1317 7480 86.487
64.2492 7404 86.0465
64.3668 7343 85.6913
64.4843 7573 87.023
64.6019 7808 88.3629
64.7195 7915 88.9663
64.837 8279 90.989
64.9546 8391 91.6024
65.0722 8541 92.4175
65.1898 8337 91.3072
65.3074 8648 92.9946
65.4249 8025 89.5824
65.5425 7734 87.9432
65.6601 7583 87.0804
65.7777 7414 86.1046
65.8952 7332 85.6271
66.0128 7573 87.023
66.1304 7861 88.6623
66.2479 8074 89.8554
66.3655 8260 90.8845
66.483 8497 92.1792
66.6005 8636 92.9301
66.718 8736 93.4666
66.8355 8755 93.5682
66.953 8606 92.7685
67.0705 8590 92.6823
67.1879 8551 92.4716
67.3054 8554 92.4878
67.4228 8499 92.19
67.5402 8353 91.3947
67.6576 7973 89.2917
67.7749 7530 86.7756
67.8923 7578 87.0517
68.0096 7501 86.6083
68.1269 7819 88.4251
68.2442 8008 89.4874
68.3614 8369 91.4822
68.4787 8530 92.358
68.5958 8751 93.5468
68.713 9036 95.0579
68.8302 9173 95.7758
68.9473 9009 94.9158
69.0643 8966 94.689
69.1814 8513 92.2659
69.2984 8172 90.3991
69.4154 7818 88.4195
69.5323 7790 88.261
69.6492 7962 89.23
69.7661 8435 91.8423
69.8829 8635 92.9247
69.9997 9108 95.4358
70.1165 9232 96.0833
70.2332 9323 96.5557
70.3499 9395 96.9278
70.4665 9356 96.7264
70.5831 9546 97.7036
70.6996 9453 97.2265
70.8161 9412 97.0155
70.9326 9451 97.2163
71.049 9084 95.31
71.1653 9088 95.331
71.2817 8816 93.8936
71.3979 8054 89.7441
71.5141 7596 87.155
71.6303 7473 86.4465
71.7464 7030 83.8451
71.8624 0 1
71.9784 0 1
72.0944 0 1
72.2102 0 1
72.3261 0 1
72.4418 0 1
72.5575 0 1
72.6732 0 1
75.1054 0 1
75.2209 0 1
75.3365 0 1
75.4521 0 1
75.5678 0 1
75.6835 0 1
75.7993 0 1
75.9151 0 1
76.031 0 1
76.147 8289 91.0439
76.263 8985 94.7892
76.3791 9107 95.4306
76.4952 8930 94.4987
76.6113 8481 92.0923
76.7276 8151 90.2829
76.8438 7977 89.3141
76.9601 7741 87.983
77.0765 8036 89.6437
77.1929 8349 91.3729
77.3093 8708 93.3167
77.4258 8947 94.5886
77.5423 9096 95.373
77.6589 9422 97.067
77.7755 9318 96.5298
77.8921 9503 97.4833
78.0088 9043 95.0947
78.1256 8834 93.9894
78.2423 8397 91.6351
78.3591 7839 88.5381
78.4759 7631 87.3556
78.5928 7569 87
78.7097 8107 90.0389
78.8266 8396 91.6297
78.9436 9020 94.9737
79.0606 9045 95.1052
79.1776 8903 94.3557
79.2946 9286 96.3639
79.4117 9348 96.6851
79.5288 9541 97.678
79.6459 9432 97.1185
79.7631 9250 96.1769
79.8802 9038 95.0684
79.9974 9205 95.9427
80.1147 9056 95.163
80.2319 8667 93.0967
80.3491 8206 90.587
80.4664 7845 88.572
80.5837 7895 88.8538
80.701 7905 88.9101
80.8183 8185 90.471
80.9357 8655 93.0323
81.053 8855 94.101
81.1704 8912 94.4034
81.2877 9240 96.1249
81.4051 9353 96.7109
81.5225 9591 97.9337
81.6399 9214 95.9896
81.7573 9262 96.2393
81.8747 8478 92.0761
81.9922 7813 88.3912
82.1096 7434 86.2206
82.227 7679 87.6299
82.3444 8037 89.6493
82.4619 8614 92.8116
82.5793 9201 95.9218
82.6967 9020 94.9737
82.8142 9251 96.1821
82.9316 9196 95.8958
83.049 9444 97.1802
83.1664 9503 97.4833
83.2838 9598 97.9694
83.4012 9385 96.8762
83.5186 9455 97.2368
83.636 9442 97.17
83.7534 9059 95.1788
83.8708 9100 95.3939
83.9881 8323 91.2305
84.1055 7838 88.5325
84.2228 7974 89.2973
84.3401 8039 89.6605
84.4575 8406 91.6842
84.5747 8847 94.0585
84.692 8924 94.4669
84.8093 9354 96.7161
84.9265 9565 97.8008
85.0437 9870 99.3479
85.1609 9818 99.0858
85.2781 9438 97.1494
85.3952 9124 95.5196
85.5123 8529 92.3526
85.6294 8129 90.161
85.7465 7693 87.7097
85.8636 8252 90.8405
85.9806 8856 94.1063
86.0976 9150 95.6556
86.2145 9549 97.719
86.3315 9657 98.27
86.4484 9926 99.6293
86.5652 9934 99.6695
86.682 10377 101.868
86.7988 10046 100.23
86.9156 9991 99.955
87.0323 10109 100.544
87.149 9981 99.905
87.2657 9924 99.6193
87.3823 9757 98.7775
87.4988 9334 96.6126
87.6154 8827 93.9521
87.7318 8449 91.9184
87.8483 8419 91.7551
87.9647 8761 93.6002
88.081 9037 95.0631
88.1973 9437 97.1442
88.3136 9949 99.7447
88.4298 10017 100.085
88.546 10311 101.543
88.6621 10363 101.799
88.7781 10247 101.227
88.8942 0 1
89.0101 0 1
89.126 0 1
89.2419 0 1
89.3577 0 1
89.4734 0 1
89.5891 0 1
89.7047 0 1
89.8203 0 1
89.9358 0 1
92.3269 0 1
92.4424 0 1
92.558 0 1
92.6736 0 1
92.7893 0 1
92.905 0 1
93.0208 0 1
93.1366 0 1
93.2525 0 1
93.3685 0 1
93.4845 0 1
93.6005 9036 95.0579
93.7167 9558 97.765
93.8328 9706 98.519
93.949 9758 98.7826
94.0653 9753 98.7573
94.1816 9451 97.2163
94.2979 9034 95.0474
94.4143 8598 92.7254
94.5307 8029 89.6047
94.6472 7883 88.7863
94.7637 7971 89.2805
94.8803 8410 91.7061
94.9969 8741 93.4933
95.1135 9164 95.7288
95.2302 9251 96.1821
95.3469 9449 97.206
95.4637 9493 97.432
95.5805 9713 98.5546
95.6973 9789 98.9394
95.8142 9808 99.0353
95.9311 9755 98.7674
96.048 9664 98.3056
96.1649 9820 99.0959
96.2819 9550 97.7241
96.3989 9478 97.355
96.516 9068 95.226
96.633 8628 92.887
96.7501 8196 90.5318
96.8673 8174 90.4102
96.9844 8327 91.2524
97.1016 8380 91.5423
97.2188 8648 92.9946
97.336 9290 96.3846
97.4532 9482 97.3756
97.5704 9434 97.1288
97.6877 9751 98.7472
97.805 9986 99.93
97.9223 9402 96.9639
98.0396 8986 94.7945
98.1569 8392 91.6079
98.2743 8002 89.4539
98.3916 7733 87.9375
98.509 8032 89.6214
98.6264 8254 90.8515
98.7438 8751 93.5468
98.8612 9019 94.9684
98.9786 9168 95.7497
99.096 9325 96.566
99.2134 9449 97.206
99.3308 9340 96.6437
99.4482 9448 97.2008
99.5656 9445 97.1854
99.6831 9385 96.8762
99.8005 9176 95.7914
99.9179 9261 96.2341
100.035 8912 94.4034
100.153 8555 92.4932
100.27 8234 90.7414
100.388 7880 88.7694
100.505 7835 88.5155
100.622 8059 89.7719
100.74 8253 90.846
100.857 8743 93.504
100.975 8993 94.8314
101.092 9073 95.2523
101.209 9327 96.5764
101.327 9602 97.9898
101.444 9410 97.0052
101.561 9429 97.103
101.679 8955 94.6309
101.796 8422 91.7715
101.913 7900 88.8819
102.03 7784 88.227
102.148 8276 90.9725
102.265 8037 89.6493
102.382 9661 98.2904
102.499 9178 95.8019
102.616 9615 98.0561
102.733 9704 98.5089
102.851 10006 100.03
102.968 9888 99.4384
103.085 9993 99.965
103.202 9903 99.5138
103.319 9956 99.7798
103.436 9682 98.3972
103.552 9962 99.8098
103.669 9234 96.0937
103.786 8875 94.2072
103.903 8517 92.2876
104.02 8427 91.7987
104.137 8702 93.2845
104.253 8803 93.8243
104.37 9111 95.4516
104.487 9620 98.0816
104.603 10062 100.31
104.72 10253 101.257
104.836 10231 101.148
104.953 10294 101.459
105.069 9579 97.8724
105.186 9227 96.0573
105.302 8745 93.5147
105.418 8359 91.4276
105.535 8331 91.2743
105.651 8908 94.3822
105.767 9436 97.1391
105.883 9698 98.4784
105.999 9743 98.7066
106.115 0 1
106.231 0 1
106.347 0 1
106.463 0 1
106.579 0 1
106.694 0 1
106.81 0 1
106.926 0 1
107.041 0 1
107.157 0 1
109.576 0 1
109.692 0 1
109.807 0 1
109.923 0 1
110.039 0 1
110.155 0 1
110.27 0 1
110.386 0 1
110.502 0 1
110.618 7241 85.0941
110.735 7903 88.8988
110.851 8347 91.3619
110.967 8632 92.9086
111.083 8818 93.9042
111.199 8858 94.1169
111.316 9083 95.3048
111.432 9033 95.0421
111.549 9251 96.1821
111.665 9183 95.828
111.782 9063 95.1998
111.898 8837 94.0053
112.015 8750 93.5414
112.132 8412 91.717
112.248 8284 91.0165
112.365 7765 88.1192
112.482 7714 87.8294
112.599 7330 85.6154
112.716 7406 86.0581
112.832 7654 87.4871
112.949 7855 88.6284
113.066 8025 89.5824
113.183 8254 90.8515
113.3 8337 91.3072
113.417 8410 91.7061
113.534 8506 92.228
113.652 8120 90.111
113.769 7466 86.406
113.886 7168 84.664
114.003 6564 81.0185
114.12 6571 81.0617
114.238 6682 81.7435
114.355 7325 85.5862
114.472 7704 87.7724
114.589 7407 86.0639
114.707 7709 87.8009
114.824 7782 88.2156
114.942 7799 88.3119
115.059 7803 88.3346
115.176 7726 87.8977
115.294 7424 86.1626
115.411 7271 85.2702
115.529 7162 84.6286
115.646 7021 83.7914
115.764 6577 81.0987
115.881 6541 80.8764
115.999 6126 78.2688
116.116 6040 77.7174
116.234 5864 76.5768
116.351 6024 77.6144
116.469 6196 78.7147
116.586 6476 80.4736
116.704 6520 80.7465
116.821 6695 81.823
116.939 6710 81.9146
117.056 6751 82.1645
117.174 6658 81.5966
117.291 6319 79.4921
117.409 5967 77.2464
117.526 5734 75.7232
117.644 5604 74.8599
117.761 5606 74.8732
117.879 5824 76.3151
117.996 6229 78.924
118.114 6495 80.5916
118.231 6506 80.6598
118.349 6449 80.3057
118.466 6655 81.5782
118.584 6652 81.5598
118.701 6756 82.1949
118.819 6653 81.5659
118.936 6696 81.8291
119.053 6512 80.697
119.171 6524 80.7713
119.288 6612 81.3142
119.405 6290 79.3095
119.523 6183 78.6321
119.64 5940 77.0714
119.757 5850 76.4853
119.875 5915 76.909
119.992 6108 78.1537
120.109 6353 79.7057
120.226 6573 81.074
120.343 6788 82.3893
120.46 6911 83.1324
120.578 7003 83.6839
120.695 7222 84.9824
120.812 7319 85.5512
120.929 7151 84.5636
121.046 6900 83.0662
121.163 6447 80.2932
121.279 6249 79.0506
121.396 6123 78.2496
121.513 6422 80.1374
121.63 6778 82.3286
121.747 7198 84.841
121.863 7528 86.764
121.98 7668 87.5671
122.097 7737 87.9602
122.213 7800 88.3176
122.33 7940 89.1067
122.446 8058 89.7664
122.563 7956 89.1964
122.679 8053 89.7385
122.795 7875 88.7412
122.912 7819 88.4251
123.028 7563 86.9655
123.144 7471 86.4349
123.26 7244 85.1117
123.377 0 1
123.493 0 1
123.609 0 1
123.725 0 1
123.84 0 1
123.956 0 1
124.072 0 1
124.188 0 1
124.303 0 1
124.419 0 1
126.852 0 1
126.968 0 1
127.083 0 1
127.199 0 1
127.315 0 1
127.431 0 1
127.547 0 1
127.663 0 1
127.779 0 1
127.895 0 1
128.011 0 1
128.127 0 1
128.243 0 1
128.359 9283 96.3483
128.476 8855 94.101
128.592 8493 92.1575
128.708 8059 89.7719
128.825 7893 88.8426
128.941 8143 90.2386
129.058 8436 91.8477
129.174 8516 92.2822
129.291 8817 93.8989
129.408 9006 94.8999
129.524 9161 95.7131
129.641 9280 96.3328
129.758 9263 96.2445
129.875 9072 95.247
129.992 8682 93.1773
130.108 8408 91.6951
130.225 8168 90.377
130.342 7935 89.0786
130.459 7491 86.5506
130.576 7720 87.8635
130.693 8147 90.2607
130.81 8449 91.9184
130.928 8710 93.3274
131.045 8864 94.1488
131.162 8938 94.541
131.279 8851 94.0798
131.396 9071 95.2418
131.513 9094 95.3625
131.631 8768 93.6376
131.748 8719 93.3756
131.865 8606 92.7685
131.983 8431 91.8205
132.1 8274 90.9615
132.217 8085 89.9166
132.335 7818 88.4195
132.452 7835 88.5155
132.57 7782 88.2156
132.687 7759 88.0852
132.804 8447 91.9076
132.922 8519 92.2984
133.039 8742 93.4987
133.157 8704 93.2952
133.274 8963 94.6731
133.392 8728 93.4238
133.509 8647 92.9892
133.627 8314 91.1811
133.744 7683 87.6527
133.862 7517 86.7006
133.979 7330 85.6154
134.097 7336 85.6505
134.214 7884 88.7919
134.332 7929 89.0449
134.449 8293 91.0659
134.567 8142 90.233
134.684 8490 92.1412
134.802 8391 91.6024
134.919 8430 91.815
135.037 8360 91.433
135.154 8168 90.377
135.272 7817 88.4138
135.389 7766 88.1249
135.507 7653 87.4814
135.624 7163 84.6345
135.742 7046 83.9405
135.859 6813 82.5409
135.977 6668 81.6578
136.094 6620 81.3634
136.211 6869 82.8794
136.329 6955 83.3966
136.446 7045 83.9345
136.564 7017 83.7675
136.681 7145 84.5281
136.798 7345 85.703
136.915 7332 85.6271
137.033 7342 85.6855
137.15 7103 84.2793
137.267 6658 81.5966
137.384 6294 79.3347
137.502 6126 78.2688
137.619 6069 77.9038
137.736 6547 80.9135
137.853 6567 81.037
137.97 6994 83.6301
138.087 7239 85.0823
138.204 7374 85.872
138.321 7565 86.977
138.438 7648 87.4528
138.555 7863 88.6736
138.672 7814 88.3968
138.788 7881 88.775
138.905 7772 88.1589
139.022 7758 88.0795
139.139 7630 87.3499
139.255 7476 86.4639
139.372 7389 85.9593
139.488 7285 85.3522
139.605 7276 85.2995
139.721 7438 86.2438
139.838 7715 87.8351
139.954 7848 88.5889
140.071 8015 89.5265
140.187 8554 92.4878
140.303 8436 91.8477
140.419 8633 92.9139
140.535 8669 93.1075
140.652 8632 92.9086
140.768 0 1
140.884 0 1
141 0 1
141.115 0 1
141.231 0 1
141.347 0 1
141.463 0 1
141.578 0 1
141.694 0 1
144.104 0 1
144.219 0 1
144.335 0 1
144.45 0 1
144.566 0 1
144.682 0 1
144.798 0 1
144.914 0 1
145.03 0 1
145.146 12291 110.865
145.262 13284 115.256
145.378 14010 118.364
145.494 14949 122.266
145.61 15602 124.908
145.726 16377 127.973
145.842 16728 129.337
145.959 16646 129.019
146.075 16280 127.593
146.192 16244 127.452
146.308 16218 127.35
146.425 16686 129.174
146.541 18091 134.503
146.658 19810 140.748
146.774 20679 143.802
146.891 22331 149.436
147.008 23440 153.101
147.125 24234 155.673
147.241 24854 157.652
147.358 25574 159.919
147.475 25655 160.172
147.592 25627 160.084
147.709 25695 160.297
147.826 25576 159.925
147.943 25384 159.324
148.06 24781 157.42
148.177 23918 154.654
148.294 23563 153.502
148.411 23679 153.88
148.528 24389 156.17
148.645 25092 158.405
148.762 25757 160.49
148.88 26317 162.225
148.997 27783 166.682
149.114 25361 159.251
149.231 26283 162.12
149.349 26062 161.437
149.466 25569 159.903
149.583 24390 156.173
149.701 22567 150.223
149.818 21549 146.796
149.935 20947 144.731
150.053 20949 144.738
150.17 21996 148.31
150.287 23084 151.934
150.405 23594 153.603
150.522 24676 157.086
150.64 25013 158.155
150.757 25427 159.458
150.875 25631 160.097
150.992 25580 159.937
151.11 25949 161.087
151.227 25549 159.841
151.344 24995 158.098
151.462 25095 158.414
151.579 24320 155.949
151.697 23964 154.803
151.814 23707 153.971
151.932 23186 152.269
152.049 23680 153.883
152.167 24434 156.314
152.284 25576 159.925
152.402 26293 162.151
152.519 27225 165
152.636 27987 167.293
152.754 28507 168.84
152.871 28319 168.283
152.989 27898 167.027
153.106 27106 164.639
153.223 25596 159.987
153.341 24500 156.525
153.458 23230 152.414
153.575 23346 152.794
153.693 23838 154.396
153.81 24980 158.051
153.927 25936 161.047
154.044 27191 164.897
154.162 27959 167.209
154.279 28722 169.476
154.396 29463 171.648
154.513 29979 173.144
154.63 30545 174.771
154.747 30319 174.124
154.864 30434 174.453
154.981 29996 173.194
155.098 29857 172.792
155.215 29264 171.067
155.332 28870 169.912
155.449 28806 169.723
155.566 28738 169.523
155.683 29284 171.126
155.8 30014 173.245
155.917 31095 176.338
156.033 32427 180.075
156.15 0 1
156.267 0 1
156.383 0 1
156.5 0 1
156.617 0 1
156.733 0 1
156.85 0 1
156.966 0 1
157.082 0 1
157.199 0 1
157.315 0 1
157.431 0 1
157.547 0 1
157.664 0 1
157.78 0 1
157.896 0 1
158.012 0 1
158.128 0 1
158.244 0 1
158.359 0 1
158.475 0 1
158.591 0 1
158.706 0 1
