
6.15755 0 1
6.2731 0 1
6.3887 0 1
6.50437 0 1
6.62009 0 1
6.73587 0 1
6.8517 0 1
6.96759 0 1
7.08353 0 1
7.19952 0 1
7.31557 0 1
7.43166 0 1
7.54781 0 1
7.664 0 1
7.78024 0 1
7.89653 0 1
8.01286 0 1
8.12924 0 1
8.24567 0 1
8.36213 0 1
8.47864 0 1
8.59519 0 1
8.71178 0 1
8.82841 0 1
8.94508 0 1
9.06179 0 1
9.17853 0 1
9.29531 0 1
9.41212 0 1
9.52897 0 1
9.64584 0 1
9.76276 0 1
9.8797 0 1
9.99667 0 1
10.1137 0 1
10.2307 0 1
10.3478 0 1
10.4648 0 1
10.5819 0 1
10.6991 0 1
10.8162 0 1
10.9334 0 1
11.0506 0 1
11.1678 0 1
11.285 0 1
11.4023 0 1
11.5196 0 1
11.6369 0 1
11.7542 0 1
11.8715 0 1
11.9888 0 1
12.1062 0 1
12.2235 0 1
12.3409 0 1
12.4582 0 1
12.5756 0 1
12.693 0 1
12.8104 0 1
12.9278 0 1
13.0452 0 1
13.1626 0 1
13.28 0 1
13.3974 0 1
13.5149 0 1
13.6323 0 1
13.7497 0 1
13.8671 0 1
13.9845 0 1
14.1019 0 1
14.2193 0 1
14.3367 0 1
14.4541 0 1
14.5714 0 1
14.6888 0 1
14.8062 0 1
14.9235 0 1
15.0408 879 29.6479
15.1581 912 30.1993
15.2755 959 30.9677
15.3927 855 29.2404
15.51 848 29.1204
15.6273 889 29.8161
15.7445 913 30.2159
15.8617 817 28.5832
15.9789 857 29.2746
16.0961 783 27.9821
16.2132 850 29.1548
16.3304 849 29.1376
16.4475 784 28
16.5646 786 28.0357
16.6816 795 28.1957
16.7986 792 28.1425
16.9156 748 27.3496
17.0326 755 27.4773
17.1496 774 27.8209
17.2665 832 28.8444
17.3833 782 27.9643
17.5002 731 27.037
17.617 768 27.7128
17.7338 817 28.5832
17.8505 697 26.4008
17.9672 788 28.0713
18.0839 791 28.1247
18.2005 747 27.3313
18.3171 785 28.0179
18.4337 803 28.3373
18.5502 800 28.2843
18.6666 807 28.4077
18.7831 789 28.0891
18.8994 784 28
19.0158 792 28.1425
19.1321 744 27.2764
19.2483 665 25.7876
19.3645 665 25.7876
19.4806 660 25.6905
19.5967 682 26.1151
19.7128 631 25.1197
19.8288 571 23.8956
19.9447 541 23.2594
20.0606 0 1
20.1764 0 1
20.2922 0 1
20.4079 0 1
20.5236 0 1
20.6392 0 1
20.7548 0 1
20.8702 0 1
23.3078 0 1
23.4233 0 1
23.539 0 1
23.6547 0 1
23.7704 0 1
23.8862 0 1
24.0021 0 1
24.118 0 1
24.234 0 1
24.35 0 1
24.4661 291 17.0587
24.5822 368 19.1833
24.6984 392 19.799
24.8146 494 22.2261
24.9309 516 22.7156
25.0472 626 25.02
25.1636 698 26.4197
25.28 710 26.6458
25.3965 760 27.5681
25.513 853 29.2062
25.6296 880 29.6648
25.7462 876 29.5973
25.8628 898 29.9666
25.9795 943 30.7083
26.0962 827 28.7576
26.213 787 28.0535
26.3298 744 27.2764
26.4466 810 28.4605
26.5635 707 26.5895
26.6804 708 26.6083
26.7973 672 25.923
26.9143 694 26.3439
27.0313 717 26.7769
27.1483 736 27.1293
27.2653 758 27.5318
27.3824 703 26.5141
27.4996 783 27.9821
27.6167 699 26.4386
27.7339 696 26.3818
27.8511 685 26.1725
27.9683 626 25.02
28.0855 633 25.1595
28.2028 697 26.4008
28.3201 716 26.7582
28.4374 692 26.3059
28.5547 790 28.1069
28.6721 746 27.313
28.7894 769 27.7308
28.9068 757 27.5136
29.0242 731 27.037
29.1416 753 27.4408
29.259 739 27.1846
29.3764 730 27.0185
29.4939 712 26.6833
29.6113 718 26.7955
29.7288 723 26.8887
29.8463 620 24.8998
29.9638 636 25.219
30.0812 678 26.0384
30.1987 656 25.6125
30.3162 680 26.0768
30.4337 674 25.9615
30.5512 704 26.533
30.6687 685 26.1725
30.7862 694 26.3439
30.9037 732 27.0555
31.0212 761 27.5862
31.1387 698 26.4197
31.2562 670 25.8844
31.3737 646 25.4165
31.4912 670 25.8844
31.6087 688 26.2298
31.7262 694 26.3439
31.8436 682 26.1151
31.9611 744 27.2764
32.0785 674 25.9615
32.1959 707 26.5895
32.3134 665 25.7876
32.4308 694 26.3439
32.5482 646 25.4165
32.6655 598 24.454
32.7829 680 26.0768
32.9002 642 25.3377
33.0176 634 25.1794
33.1349 640 25.2982
33.2522 638 25.2587
33.3694 623 24.96
33.4867 647 25.4362
33.6039 661 25.7099
33.7211 625 25
33.8383 588 24.2487
33.9554 583 24.1454
34.0725 675 25.9808
34.1896 639 25.2784
34.3067 693 26.3249
34.4237 659 25.671
34.5407 696 26.3818
34.6577 640 25.2982
34.7746 644 25.3772
34.8915 623 24.96
35.0084 615 24.7992
35.1252 643 25.3574
35.242 617 24.8395
35.3587 583 24.1454
35.4755 561 23.6854
35.5921 590 24.2899
35.7088 613 24.7588
35.8254 629 25.0799
35.9419 644 25.3772
36.0584 639 25.2784
36.1749 650 25.4951
36.2913 606 24.6171
36.4077 612 24.7386
36.524 568 23.8328
36.6403 584 24.1661
36.7565 561 23.6854
36.8727 520 22.8035
36.9889 478 21.8632
37.1049 431 20.7605
37.221 0 1
37.3369 0 1
37.4529 0 1
37.5687 0 1
37.6845 0 1
37.8003 0 1
37.916 0 1
38.0316 0 1
38.1472 0 1
40.5851 0 1
40.7008 0 1
40.8164 0 1
40.9322 0 1
41.048 0 1
41.1639 0 1
41.2798 0 1
41.3958 0 1
41.5118 0 1
41.6279 0 1
41.744 243 15.5885
41.8602 284 16.8523
41.9765 330 18.1659
42.0928 400 20
42.2091 440 20.9762
42.3255 489 22.1133
42.4419 449 21.1896
42.5584 461 21.4709
42.675 520 22.8035
42.7915 480 21.9089
42.9081 521 22.8254
43.0248 475 21.7945
43.1415 541 23.2594
43.2582 497 22.2935
43.375 479 21.8861
43.4918 476 21.8174
43.6087 477 21.8403
43.7256 488 22.0907
43.8425 510 22.5832
43.9595 456 21.3542
44.0765 461 21.4709
44.1935 465 21.5639
44.3106 419 20.4695
44.4277 452 21.2603
44.5448 463 21.5174
44.6619 487 22.0681
44.7791 470 21.6795
44.8963 482 21.9545
45.0136 515 22.6936
45.1308 518 22.7596
45.2481 519 22.7816
45.3654 546 23.3666
45.4827 511 22.6053
45.6001 508 22.5389
45.7174 449 21.1896
45.8348 544 23.3238
45.9522 542 23.2809
46.0697 458 21.4009
46.1871 461 21.4709
46.3046 465 21.5639
46.422 446 21.1187
46.5395 470 21.6795
46.657 492 22.1811
46.7745 461 21.4709
46.892 506 22.4944
47.0096 496 22.2711
47.1271 526 22.9347
47.2446 500 22.3607
47.3622 501 22.383
47.4797 434 20.8327
47.5973 476 21.8174
47.7149 482 21.9545
47.8324 407 20.1742
47.95 405 20.1246
48.0675 425 20.6155
48.1851 472 21.7256
48.3027 460 21.4476
48.4202 489 22.1133
48.5378 479 21.8861
48.6554 490 22.1359
48.7729 468 21.6333
48.8904 484 22
49.008 518 22.7596
49.1255 506 22.4944
49.243 438 20.9284
49.3605 459 21.4243
49.478 456 21.3542
49.5955 464 21.5407
49.713 442 21.0238
49.8304 490 22.1359
49.9479 416 20.3961
50.0653 471 21.7025
50.1827 453 21.2838
50.3001 452 21.2603
50.4175 474 21.7715
50.5348 488 22.0907
50.6521 434 20.8327
50.7694 443 21.0476
50.8867 472 21.7256
51.004 480 21.9089
51.1212 455 21.3307
51.2384 406 20.1494
51.3556 433 20.8087
51.4727 434 20.8327
51.5899 409 20.2237
51.707 431 20.7605
51.824 488 22.0907
51.9411 457 21.3776
52.0581 443 21.0476
52.175 438 20.9284
52.2919 470 21.6795
52.4088 424 20.5913
52.5257 508 22.5389
52.6425 431 20.7605
52.7593 491 22.1585
52.876 494 22.2261
52.9927 450 21.2132
53.1094 464 21.5407
53.226 422 20.5426
53.3426 431 20.7605
53.4591 423 20.567
53.5756 442 21.0238
53.692 401 20.025
53.8084 414 20.347
53.9248 373 19.3132
54.0411 366 19.1311
54.1573 318 17.8326
54.2735 0 1
54.3896 0 1
54.5057 0 1
54.6217 0 1
54.7377 0 1
54.8537 0 1
54.9695 0 1
55.0853 0 1
55.2011 0 1
55.3168 0 1
55.4324 0 1
57.824 0 1
57.9396 0 1
58.0553 0 1
58.1711 0 1
58.2869 0 1
58.4028 0 1
58.5187 0 1
58.6347 0 1
58.7508 0 1
58.8669 0 1
58.983 340 18.4391
59.0992 454 21.3073
59.2155 452 21.2603
59.3318 526 22.9347
59.4482 567 23.8118
59.5646 616 24.8193
59.681 659 25.671
59.7975 686 26.1916
59.9141 676 26
60.0306 710 26.6458
60.1473 689 26.2488
60.2639 685 26.1725
60.3807 663 25.7488
60.4974 656 25.6125
60.6142 704 26.533
60.731 678 26.0384
60.8479 655 25.593
60.9648 637 25.2389
61.0818 643 25.3574
61.1987 627 25.04
61.3158 665 25.7876
61.4328 694 26.3439
61.5499 611 24.7184
61.667 575 23.9792
61.7841 632 25.1396
61.9013 609 24.6779
62.0185 577 24.0208
62.1357 533 23.0868
62.253 611 24.7184
62.3702 569 23.8537
62.4875 541 23.2594
62.6049 567 23.8118
62.7222 591 24.3105
62.8396 529 23
62.9569 587 24.2281
63.0743 525 22.9129
63.1918 536 23.1517
63.3092 536 23.1517
63.4267 497 22.2935
63.5441 559 23.6432
63.6616 543 23.3024
63.7791 506 22.4944
63.8966 506 22.4944
64.0142 471 21.7025
64.1317 458 21.4009
64.2492 476 21.8174
64.3668 531 23.0434
64.4843 477 21.8403
64.6019 534 23.1084
64.7195 496 22.2711
64.837 549 23.4307
64.9546 544 23.3238
65.0722 529 23
65.1898 496 22.2711
65.3074 572 23.9165
65.4249 489 22.1133
65.5425 507 22.5167
65.6601 498 22.3159
65.7777 540 23.2379
65.8952 488 22.0907
66.0128 524 22.891
66.1304 529 23
66.2479 481 21.9317
66.3655 507 22.5167
66.483 538 23.1948
66.6005 479 21.8861
66.718 504 22.4499
66.8355 515 22.6936
66.953 493 22.2036
67.0705 518 22.7596
67.1879 523 22.8692
67.3054 483 21.9773
67.4228 508 22.5389
67.5402 504 22.4499
67.6576 463 21.5174
67.7749 466 21.587
67.8923 439 20.9523
68.0096 448 21.166
68.1269 490 22.1359
68.2442 512 22.6274
68.3614 471 21.7025
68.4787 481 21.9317
68.5958 490 22.1359
68.713 508 22.5389
68.8302 504 22.4499
68.9473 531 23.0434
69.0643 480 21.9089
69.1814 484 22
69.2984 478 21.8632
69.4154 467 21.6102
69.5323 507 22.5167
69.6492 483 21.9773
69.7661 447 21.1424
69.8829 445 21.095
69.9997 453 21.2838
70.1165 533 23.0868
70.2332 472 21.7256
70.3499 416 20.3961
70.4665 451 21.2368
70.5831 430 20.7364
70.6996 439 20.9523
70.8161 410 20.2485
70.9326 382 19.5448
71.049 309 17.5784
71.1653 290 17.0294
71.2817 259 16.0935
71.3979 207 14.3875
71.5141 226 15.0333
71.6303 191 13.8203
71.7464 178 13.3417
71.8624 0 1
71.9784 0 1
72.0944 0 1
72.2102 0 1
72.3261 0 1
72.4418 0 1
72.5575 0 1
72.6732 0 1
75.1054 0 1
75.2209 0 1
75.3365 0 1
75.4521 0 1
75.5678 0 1
75.6835 0 1
75.7993 0 1
75.9151 0 1
76.031 0 1
76.147 298 17.2627
76.263 344 18.5472
76.3791 355 18.8414
76.4952 369 19.2094
76.6113 363 19.0526
76.7276 370 19.2354
76.8438 365 19.105
76.9601 364 19.0788
77.0765 389 19.7231
77.1929 379 19.4679
77.3093 436 20.8806
77.4258 427 20.664
77.5423 414 20.347
77.6589 437 20.9045
77.7755 429 20.7123
77.8921 446 21.1187
78.0088 463 21.5174
78.1256 464 21.5407
78.2423 412 20.2978
78.3591 436 20.8806
78.4759 429 20.7123
78.5928 375 19.3649
78.7097 406 20.1494
78.8266 366 19.1311
78.9436 426 20.6398
79.0606 369 19.2094
79.1776 437 20.9045
79.2946 408 20.199
79.4117 415 20.3715
79.5288 436 20.8806
79.6459 424 20.5913
79.7631 399 19.975
79.8802 408 20.199
79.9974 420 20.4939
80.1147 410 20.2485
80.2319 391 19.7737
80.3491 410 20.2485
80.4664 394 19.8494
80.5837 400 20
80.701 407 20.1742
80.8183 379 19.4679
80.9357 440 20.9762
81.053 420 20.4939
81.1704 462 21.4942
81.2877 435 20.8567
81.4051 431 20.7605
81.5225 463 21.5174
81.6399 425 20.6155
81.7573 454 21.3073
81.8747 426 20.6398
81.9922 415 20.3715
82.1096 444 21.0713
82.227 404 20.0998
82.3444 423 20.567
82.4619 385 19.6214
82.5793 375 19.3649
82.6967 389 19.7231
82.8142 414 20.347
82.9316 440 20.9762
83.049 431 20.7605
83.1664 416 20.3961
83.2838 451 21.2368
83.4012 455 21.3307
83.5186 465 21.5639
83.636 462 21.4942
83.7534 442 21.0238
83.8708 392 19.799
83.9881 366 19.1311
84.1055 360 18.9737
84.2228 392 19.799
84.3401 411 20.2731
84.4575 436 20.8806
84.5747 422 20.5426
84.692 416 20.3961
84.8093 435 20.8567
84.9265 443 21.0476
85.0437 487 22.0681
85.1609 438 20.9284
85.2781 503 22.4277
85.3952 474 21.7715
85.5123 474 21.7715
85.6294 460 21.4476
85.7465 434 20.8327
85.8636 445 21.095
85.9806 391 19.7737
86.0976 388 19.6977
86.2145 417 20.4206
86.3315 469 21.6564
86.4484 439 20.9523
86.5652 481 21.9317
86.682 434 20.8327
86.7988 441 21
86.9156 470 21.6795
87.0323 429 20.7123
87.149 463 21.5174
87.2657 432 20.7846
87.3823 403 20.0749
87.4988 423 20.567
87.6154 373 19.3132
87.7318 382 19.5448
87.8483 366 19.1311
87.9647 352 18.7617
88.081 328 18.1108
88.1973 344 18.5472
88.3136 319 17.8606
88.4298 301 17.3494
88.546 289 17
88.6621 289 17
88.7781 255 15.9687
88.8942 0 1
89.0101 0 1
89.126 0 1
89.2419 0 1
89.3577 0 1
89.4734 0 1
89.5891 0 1
89.7047 0 1
89.8203 0 1
89.9358 0 1
92.3269 0 1
92.4424 0 1
92.558 0 1
92.6736 0 1
92.7893 0 1
92.905 0 1
93.0208 0 1
93.1366 0 1
93.2525 0 1
93.3685 0 1
93.4845 0 1
93.6005 351 18.735
93.7167 356 18.868
93.8328 369 19.2094
93.949 446 21.1187
94.0653 465 21.5639
94.1816 458 21.4009
94.2979 472 21.7256
94.4143 515 22.6936
94.5307 487 22.0681
94.6472 483 21.9773
94.7637 496 22.2711
94.8803 496 22.2711
94.9969 482 21.9545
95.1135 429 20.7123
95.2302 422 20.5426
95.3469 449 21.1896
95.4637 476 21.8174
95.5805 476 21.8174
95.6973 464 21.5407
95.8142 463 21.5174
95.9311 497 22.2935
96.048 404 20.0998
96.1649 515 22.6936
96.2819 429 20.7123
96.3989 487 22.0681
96.516 454 21.3073
96.633 457 21.3776
96.7501 433 20.8087
96.8673 392 19.799
96.9844 451 21.2368
97.1016 418 20.445
97.2188 411 20.2731
97.336 429 20.7123
97.4532 427 20.664
97.5704 444 21.0713
97.6877 477 21.8403
97.805 493 22.2036
97.9223 430 20.7364
98.0396 493 22.2036
98.1569 480 21.9089
98.2743 486 22.0454
98.3916 493 22.2036
98.509 466 21.587
98.6264 459 21.4243
98.7438 435 20.8567
98.8612 441 21
98.9786 455 21.3307
99.096 490 22.1359
99.2134 519 22.7816
99.3308 539 23.2164
99.4482 565 23.7697
99.5656 556 23.5797
99.6831 615 24.7992
99.8005 649 25.4755
99.9179 627 25.04
100.035 631 25.1197
100.153 544 23.3238
100.27 488 22.0907
100.388 474 21.7715
100.505 512 22.6274
100.622 543 23.3024
100.74 604 24.5764
100.857 725 26.9258
100.975 653 25.5539
101.092 730 27.0185
101.209 672 25.923
101.327 745 27.2947
101.444 768 27.7128
101.561 723 26.8887
101.679 713 26.7021
101.796 724 26.9072
101.913 638 25.2587
102.03 641 25.318
102.148 568 23.8328
102.265 563 23.7276
102.382 610 24.6982
102.499 579 24.0624
102.616 628 25.0599
102.733 596 24.4131
102.851 611 24.7184
102.968 575 23.9792
103.085 610 24.6982
103.202 627 25.04
103.319 605 24.5967
103.436 614 24.779
103.552 557 23.6008
103.669 561 23.6854
103.786 534 23.1084
103.903 486 22.0454
104.02 446 21.1187
104.137 518 22.7596
104.253 536 23.1517
104.37 515 22.6936
104.487 487 22.0681
104.603 544 23.3238
104.72 578 24.0416
104.836 563 23.7276
104.953 478 21.8632
105.069 524 22.891
105.186 512 22.6274
105.302 453 21.2838
105.418 438 20.9284
105.535 440 20.9762
105.651 391 19.7737
105.767 374 19.3391
105.883 332 18.2209
105.999 303 17.4069
106.115 0 1
106.231 0 1
106.347 0 1
106.463 0 1
106.579 0 1
106.694 0 1
106.81 0 1
106.926 0 1
107.041 0 1
107.157 0 1
109.576 0 1
109.692 0 1
109.807 0 1
109.923 0 1
110.039 0 1
110.155 0 1
110.27 0 1
110.386 0 1
110.502 0 1
110.618 286 16.9115
110.735 312 17.6635
110.851 339 18.412
110.967 322 17.9444
111.083 367 19.1572
111.199 397 19.9249
111.316 482 21.9545
111.432 507 22.5167
111.549 482 21.9545
111.665 519 22.7816
111.782 510 22.5832
111.898 520 22.8035
112.015 564 23.7487
112.132 481 21.9317
112.248 469 21.6564
112.365 412 20.2978
112.482 431 20.7605
112.599 450 21.2132
112.716 463 21.5174
112.832 428 20.6882
112.949 432 20.7846
113.066 495 22.2486
113.183 496 22.2711
113.3 459 21.4243
113.417 474 21.7715
113.534 474 21.7715
113.652 459 21.4243
113.769 467 21.6102
113.886 490 22.1359
114.003 468 21.6333
114.12 445 21.095
114.238 430 20.7364
114.355 433 20.8087
114.472 369 19.2094
114.589 414 20.347
114.707 419 20.4695
114.824 442 21.0238
114.942 438 20.9284
115.059 439 20.9523
115.176 439 20.9523
115.294 482 21.9545
115.411 465 21.5639
115.529 443 21.0476
115.646 426 20.6398
115.764 411 20.2731
115.881 393 19.8242
115.999 364 19.0788
116.116 389 19.7231
116.234 358 18.9209
116.351 390 19.7484
116.469 397 19.9249
116.586 429 20.7123
116.704 413 20.3224
116.821 427 20.664
116.939 410 20.2485
117.056 404 20.0998
117.174 411 20.2731
117.291 408 20.199
117.409 444 21.0713
117.526 442 21.0238
117.644 455 21.3307
117.761 429 20.7123
117.879 392 19.799
117.996 345 18.5742
118.114 377 19.4165
118.231 375 19.3649
118.349 393 19.8242
118.466 439 20.9523
118.584 425 20.6155
118.701 447 21.1424
118.819 402 20.0499
118.936 413 20.3224
119.053 390 19.7484
119.171 380 19.4936
119.288 391 19.7737
119.405 361 19
119.523 374 19.3391
119.64 323 17.9722
119.757 347 18.6279
119.875 355 18.8414
119.992 384 19.5959
120.109 399 19.975
120.226 380 19.4936
120.343 392 19.799
120.46 377 19.4165
120.578 412 20.2978
120.695 354 18.8149
120.812 412 20.2978
120.929 431 20.7605
121.046 447 21.1424
121.163 390 19.7484
121.279 383 19.5704
121.396 352 18.7617
121.513 339 18.412
121.63 356 18.868
121.747 353 18.7883
121.863 348 18.6548
121.98 378 19.4422
122.097 370 19.2354
122.213 357 18.8944
122.33 353 18.7883
122.446 365 19.105
122.563 323 17.9722
122.679 308 17.5499
122.795 292 17.088
122.912 252 15.8745
123.028 231 15.1987
123.144 225 15
123.26 207 14.3875
123.377 0 1
123.493 0 1
123.609 0 1
123.725 0 1
123.84 0 1
123.956 0 1
124.072 0 1
124.188 0 1
124.303 0 1
124.419 0 1
126.852 0 1
126.968 0 1
127.083 0 1
127.199 0 1
127.315 0 1
127.431 0 1
127.547 0 1
127.663 0 1
127.779 0 1
127.895 0 1
128.011 0 1
128.127 0 1
128.243 0 1
128.359 425 20.6155
128.476 391 19.7737
128.592 373 19.3132
128.708 365 19.105
128.825 388 19.6977
128.941 438 20.9284
129.058 472 21.7256
129.174 493 22.2036
129.291 486 22.0454
129.408 498 22.3159
129.524 463 21.5174
129.641 434 20.8327
129.758 463 21.5174
129.875 529 23
129.992 523 22.8692
130.108 494 22.2261
130.225 509 22.561
130.342 489 22.1133
130.459 446 21.1187
130.576 447 21.1424
130.693 483 21.9773
130.81 483 21.9773
130.928 477 21.8403
131.045 505 22.4722
131.162 539 23.2164
131.279 631 25.1197
131.396 607 24.6374
131.513 649 25.4755
131.631 684 26.1534
131.748 654 25.5734
131.865 685 26.1725
131.983 643 25.3574
132.1 614 24.779
132.217 679 26.0576
132.335 676 26
132.452 751 27.4044
132.57 826 28.7402
132.687 807 28.4077
132.804 856 29.2575
132.922 916 30.2655
133.039 890 29.8329
133.157 966 31.0805
133.274 866 29.4279
133.392 936 30.5941
133.509 981 31.3209
133.627 1007 31.7333
133.744 932 30.5287
133.862 1004 31.686
133.979 966 31.0805
134.097 904 30.0666
134.214 846 29.0861
134.332 812 28.4956
134.449 849 29.1376
134.567 1060 32.5576
134.684 1041 32.2645
134.802 1107 33.2716
134.919 1123 33.5112
135.037 1129 33.6006
135.154 1154 33.9706
135.272 1120 33.4664
135.389 1135 33.6898
135.507 1109 33.3017
135.624 1122 33.4963
135.742 1063 32.6037
135.859 1137 33.7194
135.977 1174 34.2637
136.094 1196 34.5832
136.211 1190 34.4964
136.329 1154 33.9706
136.446 1245 35.2846
136.564 1186 34.4384
136.681 1155 33.9853
136.798 1186 34.4384
136.915 1122 33.4963
137.033 1204 34.6987
137.15 1171 34.2199
137.267 1166 34.1467
137.384 1125 33.541
137.502 1122 33.4963
137.619 994 31.5278
137.736 903 30.05
137.853 852 29.189
137.97 900 30
138.087 963 31.0322
138.204 992 31.496
138.321 1038 32.218
138.438 1059 32.5423
138.555 985 31.3847
138.672 1066 32.6497
138.788 1009 31.7648
138.905 1017 31.8904
139.022 1011 31.7962
139.139 937 30.6105
139.255 916 30.2655
139.372 853 29.2062
139.488 825 28.7228
139.605 792 28.1425
139.721 760 27.5681
139.838 749 27.3679
139.954 705 26.5518
140.071 695 26.3629
140.187 619 24.8797
140.303 547 23.388
140.419 569 23.8537
140.535 530 23.0217
140.652 544 23.3238
140.768 0 1
140.884 0 1
141 0 1
141.115 0 1
141.231 0 1
141.347 0 1
141.463 0 1
141.578 0 1
141.694 0 1
144.104 0 1
144.219 0 1
144.335 0 1
144.45 0 1
144.566 0 1
144.682 0 1
144.798 0 1
144.914 0 1
145.03 0 1
145.146 1069 32.6956
145.262 1140 33.7639
145.378 1221 34.9428
145.494 1356 36.8239
145.61 1425 37.7492
145.726 1587 39.8372
145.842 1781 42.2019
145.959 1914 43.7493
146.075 1957 44.238
146.192 1997 44.6878
146.308 2166 46.5403
146.425 2209 47
146.541 2298 47.9375
146.658 2459 49.5883
146.774 2581 50.8035
146.891 2631 51.2933
147.008 2785 52.7731
147.125 2840 53.2917
147.241 2943 54.2494
147.358 2922 54.0555
147.475 3067 55.3805
147.592 3026 55.0091
147.709 3138 56.0179
147.826 2972 54.5161
147.943 2552 50.5173
148.06 2008 44.8107
148.177 1857 43.0929
148.294 2112 45.9565
148.411 2713 52.0865
148.528 3291 57.3672
148.645 3802 61.6604
148.762 4423 66.5056
148.88 5120 71.5542
148.997 5413 73.5731
149.114 5828 76.3413
149.231 6289 79.3032
149.349 6991 83.6122
149.466 7391 85.9709
149.583 8081 89.8944
149.701 8524 92.3255
149.818 9115 95.4725
149.935 9704 98.5089
150.053 10327 101.622
150.17 11036 105.052
150.287 11610 107.75
150.405 11592 107.666
150.522 12193 110.422
150.64 12089 109.95
150.757 12344 111.104
150.875 13321 115.417
150.992 13823 117.571
151.11 13889 117.852
151.227 14108 118.777
151.344 14053 118.545
151.462 13798 117.465
151.579 11808 108.665
151.697 8557 92.5041
151.814 6840 82.7043
151.932 7639 87.4014
152.049 10487 102.406
152.167 13378 115.663
152.284 14219 119.243
152.402 14544 120.599
152.519 14482 120.341
152.636 14165 119.017
152.754 14229 119.285
152.871 14292 119.549
152.989 14322 119.675
153.106 14544 120.599
153.223 14960 122.311
153.341 15423 124.189
153.458 15891 126.06
153.575 16073 126.779
153.693 16133 127.016
153.81 16793 129.588
153.927 17619 132.737
154.044 18250 135.093
154.162 18349 135.458
154.279 20154 141.965
154.396 22605 150.35
154.513 24709 157.191
154.63 25385 159.327
154.747 25623 160.072
154.864 24809 157.509
154.981 23407 152.993
155.098 23683 153.893
155.215 26214 161.907
155.332 30318 174.121
155.449 33422 182.817
155.566 35283 187.838
155.683 36033 189.824
155.8 37795 194.409
155.917 38851 197.107
156.033 39943 199.857
156.15 0 1
156.267 0 1
156.383 0 1
156.5 0 1
156.617 0 1
156.733 0 1
156.85 0 1
156.966 0 1
157.082 0 1
157.199 0 1
157.315 0 1
157.431 0 1
157.547 0 1
157.664 0 1
157.78 0 1
157.896 0 1
158.012 0 1
158.128 0 1
158.244 0 1
158.359 0 1
158.475 0 1
158.591 0 1
158.706 0 1
