
6.15755 0 1
6.2731 0 1
6.3887 0 1
6.50437 0 1
6.62009 0 1
6.73587 0 1
6.8517 0 1
6.96759 0 1
7.08353 0 1
7.19952 0 1
7.31557 0 1
7.43166 0 1
7.54781 0 1
7.664 0 1
7.78024 0 1
7.89653 0 1
8.01286 0 1
8.12924 0 1
8.24567 0 1
8.36213 0 1
8.47864 0 1
8.59519 0 1
8.71178 0 1
8.82841 0 1
8.94508 0 1
9.06179 0 1
9.17853 0 1
9.29531 0 1
9.41212 0 1
9.52897 0 1
9.64584 0 1
9.76276 0 1
9.8797 0 1
9.99667 0 1
10.1137 0 1
10.2307 0 1
10.3478 0 1
10.4648 0 1
10.5819 0 1
10.6991 0 1
10.8162 0 1
10.9334 0 1
11.0506 0 1
11.1678 0 1
11.285 0 1
11.4023 0 1
11.5196 0 1
11.6369 0 1
11.7542 0 1
11.8715 0 1
11.9888 0 1
12.1062 0 1
12.2235 0 1
12.3409 0 1
12.4582 0 1
12.5756 0 1
12.693 0 1
12.8104 0 1
12.9278 0 1
13.0452 0 1
13.1626 0 1
13.28 0 1
13.3974 0 1
13.5149 0 1
13.6323 0 1
13.7497 0 1
13.8671 0 1
13.9845 0 1
14.1019 0 1
14.2193 0 1
14.3367 0 1
14.4541 0 1
14.5714 0 1
14.6888 0 1
14.8062 0 1
14.9235 0 1
15.0408 0 0
15.1581 0 0
15.2755 0 0
15.3927 0 0
15.51 0 0
15.6273 0 0
15.7445 0 0
15.8617 0 0
15.9789 0 0
16.0961 0 0
16.2132 0 0
16.3304 0 0
16.4475 0 0
16.5646 0 0
16.6816 0 0
16.7986 0 0
16.9156 0 0
17.0326 0 0
17.1496 0 0
17.2665 0 0
17.3833 0 0
17.5002 0 0
17.617 0 0
17.7338 0 0
17.8505 0 0
17.9672 0 0
18.0839 0 0
18.2005 0 0
18.3171 0 0
18.4337 0 0
18.5502 0 0
18.6666 0 0
18.7831 0 0
18.8994 0 0
19.0158 0 0
19.1321 0 0
19.2483 0 0
19.3645 0 0
19.4806 0 0
19.5967 0 0
19.7128 0 0
19.8288 0 0
19.9447 0 0
20.0606 0 1
20.1764 0 1
20.2922 0 1
20.4079 0 1
20.5236 0 1
20.6392 0 1
20.7548 0 1
20.8702 0 1
23.3078 0 1
23.4233 0 1
23.539 0 1
23.6547 0 1
23.7704 0 1
23.8862 0 1
24.0021 0 1
24.118 0 1
24.234 0 1
24.35 0 1
24.4661 1357 36.8375
24.5822 1362 36.9053
24.6984 1363 36.9188
24.8146 1336 36.5513
24.9309 1376 37.0945
25.0472 1298 36.0278
25.1636 1323 36.3731
25.28 1372 37.0405
25.3965 1288 35.8887
25.513 1365 36.9459
25.6296 1373 37.054
25.7462 1406 37.4967
25.8628 1361 36.8917
25.9795 1414 37.6032
26.0962 1437 37.9078
26.213 1411 37.5633
26.3298 1421 37.6962
26.4466 1439 37.9342
26.5635 1324 36.3868
26.6804 1325 36.4005
26.7973 1303 36.0971
26.9143 1369 37
27.0313 1415 37.6165
27.1483 1430 37.8153
27.2653 1571 39.6358
27.3824 1482 38.4968
27.4996 1482 38.4968
27.6167 1509 38.8458
27.7339 1450 38.0789
27.8511 1375 37.081
27.9683 1379 37.1349
28.0855 1374 37.0675
28.2028 1432 37.8418
28.3201 1375 37.081
28.4374 1316 36.2767
28.5547 1272 35.6651
28.6721 1326 36.4143
28.7894 1341 36.6197
28.9068 1302 36.0832
29.0242 1215 34.8569
29.1416 1284 35.8329
29.259 1200 34.641
29.3764 1274 35.6931
29.4939 1278 35.7491
29.6113 1293 35.9583
29.7288 1276 35.7211
29.8463 1344 36.6606
29.9638 1266 35.5809
30.0812 1211 34.7994
30.1987 1175 34.2783
30.3162 1229 35.0571
30.4337 1284 35.8329
30.5512 1307 36.1525
30.6687 1379 37.1349
30.7862 1388 37.2559
30.9037 1368 36.9865
31.0212 1429 37.8021
31.1387 1400 37.4166
31.2562 1381 37.1618
31.3737 1359 36.8646
31.4912 1353 36.7831
31.6087 1315 36.2629
31.7262 1296 36
31.8436 1275 35.7071
31.9611 1284 35.8329
32.0785 1281 35.7911
32.1959 1242 35.242
32.3134 1234 35.1283
32.4308 1188 34.4674
32.5482 1239 35.1994
32.6655 1196 34.5832
32.7829 1142 33.7935
32.9002 1262 35.5246
33.0176 1229 35.0571
33.1349 1208 34.7563
33.2522 1233 35.1141
33.3694 1268 35.609
33.4867 1308 36.1663
33.6039 1281 35.7911
33.7211 1268 35.609
33.8383 1248 35.327
33.9554 1159 34.0441
34.0725 1155 33.9853
34.1896 1289 35.9026
34.3067 1371 37.027
34.4237 1404 37.47
34.5407 1320 36.3318
34.6577 1318 36.3043
34.7746 1367 36.973
34.8915 1279 35.7631
35.0084 1389 37.2693
35.1252 1326 36.4143
35.242 1377 37.108
35.3587 1300 36.0555
35.4755 1204 34.6987
35.5921 1351 36.756
35.7088 1269 35.623
35.8254 1220 34.9285
35.9419 1129 33.6006
36.0584 1129 33.6006
36.1749 1114 33.3766
36.2913 1177 34.3074
36.4077 1166 34.1467
36.524 1160 34.0588
36.6403 1130 33.6155
36.7565 1223 34.9714
36.8727 1256 35.4401
36.9889 1192 34.5254
37.1049 1175 34.2783
37.221 0 1
37.3369 0 1
37.4529 0 1
37.5687 0 1
37.6845 0 1
37.8003 0 1
37.916 0 1
38.0316 0 1
38.1472 0 1
40.5851 0 1
40.7008 0 1
40.8164 0 1
40.9322 0 1
41.048 0 1
41.1639 0 1
41.2798 0 1
41.3958 0 1
41.5118 0 1
41.6279 0 1
41.744 852 29.189
41.8602 917 30.282
41.9765 919 30.315
42.0928 972 31.1769
42.2091 1000 31.6228
42.3255 956 30.9192
42.4419 947 30.7734
42.5584 902 30.0333
42.675 888 29.7993
42.7915 871 29.5127
42.9081 916 30.2655
43.0248 992 31.496
43.1415 978 31.273
43.2582 1060 32.5576
43.375 1071 32.7261
43.4918 1000 31.6228
43.6087 996 31.5595
43.7256 987 31.4166
43.8425 967 31.0966
43.9595 970 31.1448
44.0765 903 30.05
44.1935 894 29.8998
44.3106 873 29.5466
44.4277 855 29.2404
44.5448 803 28.3373
44.6619 726 26.9444
44.7791 737 27.1477
44.8963 710 26.6458
45.0136 681 26.096
45.1308 664 25.7682
45.2481 689 26.2488
45.3654 721 26.8514
45.4827 694 26.3439
45.6001 768 27.7128
45.7174 704 26.533
45.8348 709 26.6271
45.9522 729 27
46.0697 734 27.0924
46.1871 710 26.6458
46.3046 631 25.1197
46.422 660 25.6905
46.5395 725 26.9258
46.657 709 26.6271
46.7745 722 26.8701
46.892 696 26.3818
47.0096 733 27.074
47.1271 715 26.7395
47.2446 715 26.7395
47.3622 702 26.4953
47.4797 664 25.7682
47.5973 699 26.4386
47.7149 716 26.7582
47.8324 651 25.5147
47.95 600 24.4949
48.0675 567 23.8118
48.1851 494 22.2261
48.3027 498 22.3159
48.4202 502 22.4054
48.5378 481 21.9317
48.6554 469 21.6564
48.7729 486 22.0454
48.8904 530 23.0217
49.008 515 22.6936
49.1255 561 23.6854
49.243 592 24.3311
49.3605 562 23.7065
49.478 504 22.4499
49.5955 463 21.5174
49.713 508 22.5389
49.8304 460 21.4476
49.9479 503 22.4277
50.0653 538 23.1948
50.1827 624 24.98
50.3001 616 24.8193
50.4175 643 25.3574
50.5348 655 25.593
50.6521 659 25.671
50.7694 692 26.3059
50.8867 733 27.074
51.004 675 25.9808
51.1212 750 27.3861
51.2384 768 27.7128
51.3556 748 27.3496
51.4727 726 26.9444
51.5899 705 26.5518
51.707 624 24.98
51.824 616 24.8193
51.9411 675 25.9808
52.0581 670 25.8844
52.175 664 25.7682
52.2919 694 26.3439
52.4088 758 27.5318
52.5257 759 27.55
52.6425 811 28.4781
52.7593 821 28.6531
52.876 874 29.5635
52.9927 901 30.0167
53.1094 897 29.95
53.226 898 29.9666
53.3426 918 30.2985
53.4591 851 29.1719
53.5756 891 29.8496
53.692 946 30.7571
53.8084 1063 32.6037
53.9248 1097 33.121
54.0411 1103 33.2114
54.1573 1165 34.1321
54.2735 0 1
54.3896 0 1
54.5057 0 1
54.6217 0 1
54.7377 0 1
54.8537 0 1
54.9695 0 1
55.0853 0 1
55.2011 0 1
55.3168 0 1
55.4324 0 1
57.824 0 1
57.9396 0 1
58.0553 0 1
58.1711 0 1
58.2869 0 1
58.4028 0 1
58.5187 0 1
58.6347 0 1
58.7508 0 1
58.8669 0 1
58.983 1119 33.4515
59.0992 1196 34.5832
59.2155 1286 35.8608
59.3318 1283 35.819
59.4482 1347 36.7015
59.5646 1327 36.428
59.681 1301 36.0694
59.7975 1274 35.6931
59.9141 1245 35.2846
60.0306 1217 34.8855
60.1473 1138 33.7343
60.2639 1082 32.8938
60.3807 995 31.5436
60.4974 862 29.3598
60.6142 924 30.3974
60.731 855 29.2404
60.8479 884 29.7321
60.9648 982 31.3369
61.0818 972 31.1769
61.1987 1024 32
61.3158 1041 32.2645
61.4328 1051 32.4191
61.5499 1016 31.8748
61.667 985 31.3847
61.7841 988 31.4325
61.9013 971 31.1609
62.0185 972 31.1769
62.1357 1088 32.9848
62.253 1050 32.4037
62.3702 1096 33.1059
62.4875 1169 34.1906
62.6049 1229 35.0571
62.7222 1197 34.5977
62.8396 1213 34.8281
62.9569 1267 35.5949
63.0743 1257 35.4542
63.1918 1242 35.242
63.3092 1270 35.6371
63.4267 1145 33.8378
63.5441 1167 34.1614
63.6616 1060 32.5576
63.7791 981 31.3209
63.8966 914 30.2324
64.0142 877 29.6142
64.1317 824 28.7054
64.2492 856 29.2575
64.3668 888 29.7993
64.4843 968 31.1127
64.6019 1041 32.2645
64.7195 1060 32.5576
64.837 1029 32.078
64.9546 1174 34.2637
65.0722 1101 33.1813
65.1898 1044 32.311
65.3074 1114 33.3766
65.4249 994 31.5278
65.5425 920 30.3315
65.6601 1033 32.1403
65.7777 1105 33.2415
65.8952 1160 34.0588
66.0128 1153 33.9559
66.1304 1179 34.3366
66.2479 1247 35.3129
66.3655 1259 35.4824
66.483 1279 35.7631
66.6005 1257 35.4542
66.718 1199 34.6266
66.8355 1300 36.0555
66.953 1206 34.7275
67.0705 1115 33.3916
67.1879 1087 32.9697
67.3054 1058 32.5269
67.4228 947 30.7734
67.5402 866 29.4279
67.6576 801 28.3019
67.7749 803 28.3373
67.8923 870 29.4958
68.0096 863 29.3769
68.1269 929 30.4795
68.2442 942 30.692
68.3614 1014 31.8434
68.4787 1035 32.1714
68.5958 1042 32.28
68.713 1105 33.2415
68.8302 972 31.1769
68.9473 1054 32.4654
69.0643 981 31.3209
69.1814 977 31.257
69.2984 1013 31.8277
69.4154 1026 32.0312
69.5323 1102 33.1964
69.6492 1205 34.7131
69.7661 1219 34.9142
69.8829 1209 34.7707
69.9997 1251 35.3695
70.1165 1286 35.8608
70.2332 1195 34.5688
70.3499 1275 35.7071
70.4665 1206 34.7275
70.5831 1226 35.0143
70.6996 1126 33.5559
70.8161 1046 32.3419
70.9326 926 30.4302
71.049 885 29.7489
71.1653 804 28.3549
71.2817 805 28.3725
71.3979 754 27.4591
71.5141 760 27.5681
71.6303 767 27.6948
71.7464 755 27.4773
71.8624 0 1
71.9784 0 1
72.0944 0 1
72.2102 0 1
72.3261 0 1
72.4418 0 1
72.5575 0 1
72.6732 0 1
75.1054 0 1
75.2209 0 1
75.3365 0 1
75.4521 0 1
75.5678 0 1
75.6835 0 1
75.7993 0 1
75.9151 0 1
76.031 0 1
76.147 978 31.273
76.263 1098 33.1361
76.3791 986 31.4006
76.4952 829 28.7924
76.6113 839 28.9655
76.7276 811 28.4781
76.8438 797 28.2312
76.9601 886 29.7658
77.0765 890 29.8329
77.1929 982 31.3369
77.3093 1060 32.5576
77.4258 1081 32.8786
77.5423 1131 33.6303
77.6589 1089 33
77.7755 1119 33.4515
77.8921 1096 33.1059
78.0088 1034 32.1559
78.1256 1045 32.3265
78.2423 995 31.5436
78.3591 993 31.5119
78.4759 1007 31.7333
78.5928 1139 33.7491
78.7097 1101 33.1813
78.8266 1152 33.9411
78.9436 1230 35.0714
79.0606 1273 35.6791
79.1776 1190 34.4964
79.2946 1256 35.4401
79.4117 1181 34.3657
79.5288 1201 34.6554
79.6459 1167 34.1614
79.7631 1061 32.573
79.8802 960 30.9839
79.9974 889 29.8161
80.1147 821 28.6531
80.2319 725 26.9258
80.3491 703 26.5141
80.4664 760 27.5681
80.5837 742 27.2397
80.701 767 27.6948
80.8183 806 28.3901
80.9357 846 29.0861
81.053 941 30.6757
81.1704 954 30.8869
81.2877 921 30.348
81.4051 1010 31.7805
81.5225 919 30.315
81.6399 908 30.133
81.7573 878 29.6311
81.8747 861 29.3428
81.9922 827 28.7576
82.1096 922 30.3645
82.227 933 30.545
82.3444 963 31.0322
82.4619 1001 31.6386
82.5793 1005 31.7017
82.6967 1018 31.9061
82.8142 1025 32.0156
82.9316 1064 32.619
83.049 1004 31.686
83.1664 1005 31.7017
83.2838 943 30.7083
83.4012 887 29.7825
83.5186 787 28.0535
83.636 716 26.7582
83.7534 718 26.7955
83.8708 597 24.4336
83.9881 591 24.3105
84.1055 607 24.6374
84.2228 601 24.5153
84.3401 687 26.2107
84.4575 758 27.5318
84.5747 809 28.4429
84.692 818 28.6007
84.8093 904 30.0666
84.9265 820 28.6356
85.0437 810 28.4605
85.1609 796 28.2135
85.2781 808 28.4253
85.3952 795 28.1957
85.5123 808 28.4253
85.6294 811 28.4781
85.7465 893 29.8831
85.8636 922 30.3645
85.9806 998 31.5911
86.0976 1033 32.1403
86.2145 1093 33.0606
86.3315 1146 33.8526
86.4484 1093 33.0606
86.5652 1160 34.0588
86.682 1132 33.6452
86.7988 1093 33.0606
86.9156 1022 31.9687
87.0323 959 30.9677
87.149 908 30.133
87.2657 793 28.1603
87.3823 764 27.6405
87.4988 677 26.0192
87.6154 748 27.3496
87.7318 744 27.2764
87.8483 811 28.4781
87.9647 907 30.1164
88.081 1014 31.8434
88.1973 1069 32.6956
88.3136 1098 33.1361
88.4298 1134 33.6749
88.546 1052 32.4345
88.6621 1033 32.1403
88.7781 979 31.289
88.8942 0 1
89.0101 0 1
89.126 0 1
89.2419 0 1
89.3577 0 1
89.4734 0 1
89.5891 0 1
89.7047 0 1
89.8203 0 1
89.9358 0 1
92.3269 0 1
92.4424 0 1
92.558 0 1
92.6736 0 1
92.7893 0 1
92.905 0 1
93.0208 0 1
93.1366 0 1
93.2525 0 1
93.3685 0 1
93.4845 0 1
93.6005 1052 32.4345
93.7167 1083 32.909
93.8328 1049 32.3883
93.949 1013 31.8277
94.0653 1012 31.8119
94.1816 986 31.4006
94.2979 977 31.257
94.4143 950 30.8221
94.5307 1002 31.6544
94.6472 968 31.1127
94.7637 974 31.209
94.8803 1094 33.0757
94.9969 1152 33.9411
95.1135 1176 34.2929
95.2302 1241 35.2278
95.3469 1187 34.4529
95.4637 1210 34.7851
95.5805 1263 35.5387
95.6973 1267 35.5949
95.8142 1275 35.7071
95.9311 1230 35.0714
96.048 1188 34.4674
96.1649 1112 33.3467
96.2819 1023 31.9844
96.3989 977 31.257
96.516 877 29.6142
96.633 823 28.688
96.7501 716 26.7582
96.8673 816 28.5657
96.9844 868 29.4618
97.1016 957 30.9354
97.2188 963 31.0322
97.336 1037 32.2025
97.4532 1090 33.0151
97.5704 1085 32.9393
97.6877 1032 32.1248
97.805 998 31.5911
97.9223 1009 31.7648
98.0396 1046 32.3419
98.1569 999 31.607
98.2743 1011 31.7962
98.3916 1046 32.3419
98.509 1146 33.8526
98.6264 1103 33.2114
98.7438 1169 34.1906
98.8612 1219 34.9142
98.9786 1337 36.565
99.096 1333 36.5103
99.2134 1275 35.7071
99.3308 1334 36.524
99.4482 1313 36.2353
99.5656 1256 35.4401
99.6831 1118 33.4365
99.8005 1097 33.121
99.9179 988 31.4325
100.035 986 31.4006
100.153 852 29.189
100.27 821 28.6531
100.388 794 28.178
100.505 872 29.5296
100.622 919 30.315
100.74 978 31.273
100.857 1066 32.6497
100.975 1032 32.1248
101.092 1144 33.8231
101.209 1081 32.8786
101.327 1073 32.7567
101.444 1076 32.8024
101.561 994 31.5278
101.679 1045 32.3265
101.796 1004 31.686
101.913 1130 33.6155
102.03 1053 32.45
102.148 1154 33.9706
102.265 1223 34.9714
102.382 1313 36.2353
102.499 1368 36.9865
102.616 1375 37.081
102.733 1360 36.8782
102.851 1397 37.3765
102.968 1401 37.4299
103.085 1301 36.0694
103.202 1269 35.623
103.319 1129 33.6006
103.436 1075 32.7872
103.552 1031 32.1092
103.669 916 30.2655
103.786 889 29.8161
103.903 834 28.8791
104.02 856 29.2575
104.137 1033 32.1403
104.253 1120 33.4664
104.37 1161 34.0735
104.487 1223 34.9714
104.603 1192 34.5254
104.72 1187 34.4529
104.836 1150 33.9116
104.953 1118 33.4365
105.069 1107 33.2716
105.186 1160 34.0588
105.302 1164 34.1174
105.418 1134 33.6749
105.535 1184 34.4093
105.651 1346 36.6879
105.767 1410 37.55
105.883 1449 38.0657
105.999 1465 38.2753
106.115 0 1
106.231 0 1
106.347 0 1
106.463 0 1
106.579 0 1
106.694 0 1
106.81 0 1
106.926 0 1
107.041 0 1
107.157 0 1
109.576 0 1
109.692 0 1
109.807 0 1
109.923 0 1
110.039 0 1
110.155 0 1
110.27 0 1
110.386 0 1
110.502 0 1
110.618 1179 34.3366
110.735 1294 35.9722
110.851 1328 36.4417
110.967 1405 37.4833
111.083 1335 36.5377
111.199 1433 37.855
111.316 1422 37.7094
111.432 1517 38.9487
111.549 1384 37.2022
111.665 1321 36.3456
111.782 1247 35.3129
111.898 1202 34.6699
112.015 1228 35.0428
112.132 1081 32.8786
112.248 946 30.7571
112.365 892 29.8664
112.482 859 29.3087
112.599 952 30.8545
112.716 1090 33.0151
112.832 1025 32.0156
112.949 1069 32.6956
113.066 1113 33.3617
113.183 1035 32.1714
113.3 1118 33.4365
113.417 1021 31.9531
113.534 1092 33.0454
113.652 998 31.5911
113.769 1018 31.9061
113.886 1122 33.4963
114.003 1107 33.2716
114.12 1171 34.2199
114.238 1260 35.4965
114.355 1364 36.9324
114.472 1310 36.1939
114.589 1445 38.0132
114.707 1398 37.3898
114.824 1405 37.4833
114.942 1415 37.6165
115.059 1403 37.4566
115.176 1397 37.3765
115.294 1325 36.4005
115.411 1246 35.2987
115.529 1162 34.0881
115.646 1136 33.7046
115.764 1022 31.9687
115.881 933 30.545
115.999 937 30.6105
116.116 1040 32.249
116.234 980 31.305
116.351 1076 32.8024
116.469 1099 33.1512
116.586 1117 33.4215
116.704 1173 34.2491
116.821 1124 33.5261
116.939 1129 33.6006
117.056 1143 33.8083
117.174 1066 32.6497
117.291 1130 33.6155
117.409 1252 35.3836
117.526 1216 34.8712
117.644 1281 35.7911
117.761 1284 35.8329
117.879 1399 37.4032
117.996 1431 37.8286
118.114 1447 38.0395
118.231 1437 37.9078
118.349 1508 38.833
118.466 1473 38.3797
118.584 1532 39.1408
118.701 1436 37.8946
118.819 1440 37.9473
118.936 1311 36.2077
119.053 1321 36.3456
119.171 1250 35.3553
119.288 1180 34.3511
119.405 1096 33.1059
119.523 993 31.5119
119.64 1050 32.4037
119.757 1042 32.28
119.875 1146 33.8526
119.992 1071 32.7261
120.109 1164 34.1174
120.226 1150 33.9116
120.343 1144 33.8231
120.46 1077 32.8177
120.578 1107 33.2716
120.695 1161 34.0735
120.812 1110 33.3167
120.929 1123 33.5112
121.046 1209 34.7707
121.163 1191 34.5109
121.279 1259 35.4824
121.396 1316 36.2767
121.513 1378 37.1214
121.63 1464 38.2623
121.747 1417 37.6431
121.863 1440 37.9473
121.98 1432 37.8418
122.097 1464 38.2623
122.213 1412 37.5766
122.33 1465 38.2753
122.446 1439 37.9342
122.563 1319 36.318
122.679 1308 36.1663
122.795 1342 36.6333
122.912 1267 35.5949
123.028 1142 33.7935
123.144 1035 32.1714
123.26 988 31.4325
123.377 0 1
123.493 0 1
123.609 0 1
123.725 0 1
123.84 0 1
123.956 0 1
124.072 0 1
124.188 0 1
124.303 0 1
124.419 0 1
126.852 0 1
126.968 0 1
127.083 0 1
127.199 0 1
127.315 0 1
127.431 0 1
127.547 0 1
127.663 0 1
127.779 0 1
127.895 0 1
128.011 0 1
128.127 0 1
128.243 0 1
128.359 1246 35.2987
128.476 1139 33.7491
128.592 1009 31.7648
128.708 1145 33.8378
128.825 1170 34.2053
128.941 1275 35.7071
129.058 1244 35.2704
129.174 1299 36.0416
129.291 1270 35.6371
129.408 1192 34.5254
129.524 1243 35.2562
129.641 1211 34.7994
129.758 1225 35
129.875 1209 34.7707
129.992 1290 35.9166
130.108 1257 35.4542
130.225 1327 36.428
130.342 1457 38.1707
130.459 1463 38.2492
130.576 1494 38.6523
130.693 1522 39.0128
130.81 1502 38.7556
130.928 1467 38.3014
131.045 1490 38.6005
131.162 1496 38.6782
131.279 1458 38.1838
131.396 1436 37.8946
131.513 1419 37.6696
131.631 1390 37.2827
131.748 1354 36.7967
131.865 1219 34.9142
131.983 1146 33.8526
132.1 1112 33.3467
132.217 1144 33.8231
132.335 1167 34.1614
132.452 1228 35.0428
132.57 1234 35.1283
132.687 1315 36.2629
132.804 1291 35.9305
132.922 1241 35.2278
133.039 1287 35.8748
133.157 1206 34.7275
133.274 1240 35.2136
133.392 1286 35.8608
133.509 1237 35.171
133.627 1264 35.5528
133.744 1282 35.805
133.862 1480 38.4708
133.979 1401 37.4299
134.097 1459 38.1969
134.214 1444 38
134.332 1538 39.2173
134.449 1405 37.4833
134.567 1409 37.5366
134.684 1491 38.6135
134.802 1440 37.9473
134.919 1476 38.4187
135.037 1520 38.9872
135.154 1480 38.4708
135.272 1352 36.7696
135.389 1270 35.6371
135.507 1212 34.8138
135.624 1122 33.4963
135.742 1123 33.5112
135.859 1139 33.7491
135.977 1202 34.6699
136.094 1306 36.1386
136.211 1265 35.5668
136.329 1255 35.426
136.446 1222 34.9571
136.564 1258 35.4683
136.681 1183 34.3948
136.798 1272 35.6651
136.915 1213 34.8281
137.033 1284 35.8329
137.15 1268 35.609
137.267 1322 36.3593
137.384 1360 36.8782
137.502 1462 38.2361
137.619 1427 37.7757
137.736 1473 38.3797
137.853 1337 36.565
137.97 1438 37.921
138.087 1449 38.0657
138.204 1468 38.3145
138.321 1445 38.0132
138.438 1421 37.6962
138.555 1399 37.4032
138.672 1423 37.7227
138.788 1412 37.5766
138.905 1351 36.756
139.022 1269 35.623
139.139 1166 34.1467
139.255 1207 34.7419
139.372 1182 34.3802
139.488 1187 34.4529
139.605 1263 35.5387
139.721 1222 34.9571
139.838 1311 36.2077
139.954 1321 36.3456
140.071 1199 34.6266
140.187 1254 35.4119
140.303 1205 34.7131
140.419 1140 33.7639
140.535 1184 34.4093
140.652 1195 34.5688
140.768 0 1
140.884 0 1
141 0 1
141.115 0 1
141.231 0 1
141.347 0 1
141.463 0 1
141.578 0 1
141.694 0 1
144.104 0 1
144.219 0 1
144.335 0 1
144.45 0 1
144.566 0 1
144.682 0 1
144.798 0 1
144.914 0 1
145.03 0 1
145.146 887 29.7825
145.262 934 30.5614
145.378 947 30.7734
145.494 958 30.9516
145.61 947 30.7734
145.726 968 31.1127
145.842 952 30.8545
145.959 1001 31.6386
146.075 995 31.5436
146.192 1013 31.8277
146.308 976 31.241
146.425 1055 32.4808
146.541 1080 32.8634
146.658 1084 32.9242
146.774 1041 32.2645
146.891 1166 34.1467
147.008 1122 33.4963
147.125 1097 33.121
147.241 1138 33.7343
147.358 1142 33.7935
147.475 1117 33.4215
147.592 1186 34.4384
147.709 1133 33.6601
147.826 1071 32.7261
147.943 1021 31.9531
148.06 981 31.3209
148.177 958 30.9516
148.294 906 30.0998
148.411 992 31.496
148.528 974 31.209
148.645 1092 33.0454
148.762 1051 32.4191
148.88 1004 31.686
148.997 1020 31.9374
149.114 1037 32.2025
149.231 1031 32.1092
149.349 1014 31.8434
149.466 1034 32.1559
149.583 1059 32.5423
149.701 999 31.607
149.818 1018 31.9061
149.935 1066 32.6497
150.053 1050 32.4037
150.17 1100 33.1662
150.287 1072 32.7414
150.405 1203 34.6843
150.522 1096 33.1059
150.64 1125 33.541
150.757 1147 33.8674
150.875 1134 33.6749
150.992 1120 33.4664
151.11 1196 34.5832
151.227 1167 34.1614
151.344 1160 34.0588
151.462 1081 32.8786
151.579 1118 33.4365
151.697 1020 31.9374
151.814 1007 31.7333
151.932 951 30.8383
152.049 985 31.3847
152.167 1064 32.619
152.284 1097 33.121
152.402 1082 32.8938
152.519 1117 33.4215
152.636 1089 33
152.754 1130 33.6155
152.871 1118 33.4365
152.989 1078 32.8329
153.106 1101 33.1813
153.223 1108 33.2866
153.341 1063 32.6037
153.458 1053 32.45
153.575 1134 33.6749
153.693 1152 33.9411
153.81 1169 34.1906
153.927 1184 34.4093
154.044 1153 33.9559
154.162 1221 34.9428
154.279 1240 35.2136
154.396 1240 35.2136
154.513 1240 35.2136
154.63 1284 35.8329
154.747 1302 36.0832
154.864 1294 35.9722
154.981 1272 35.6651
155.098 1295 35.9861
155.215 1302 36.0832
155.332 1190 34.4964
155.449 1152 33.9411
155.566 1150 33.9116
155.683 1183 34.3948
155.8 1234 35.1283
155.917 1244 35.2704
156.033 1249 35.3412
156.15 0 1
156.267 0 1
156.383 0 1
156.5 0 1
156.617 0 1
156.733 0 1
156.85 0 1
156.966 0 1
157.082 0 1
157.199 0 1
157.315 0 1
157.431 0 1
157.547 0 1
157.664 0 1
157.78 0 1
157.896 0 1
158.012 0 1
158.128 0 1
158.244 0 1
158.359 0 1
158.475 0 1
158.591 0 1
158.706 0 1
