
6.15755 0 1
6.2731 0 1
6.3887 0 1
6.50437 0 1
6.62009 0 1
6.73587 0 1
6.8517 0 1
6.96759 0 1
7.08353 0 1
7.19952 0 1
7.31557 0 1
7.43166 0 1
7.54781 0 1
7.664 0 1
7.78024 0 1
7.89653 0 1
8.01286 0 1
8.12924 0 1
8.24567 0 1
8.36213 0 1
8.47864 0 1
8.59519 0 1
8.71178 0 1
8.82841 0 1
8.94508 0 1
9.06179 0 1
9.17853 0 1
9.29531 0 1
9.41212 0 1
9.52897 0 1
9.64584 0 1
9.76276 0 1
9.8797 0 1
9.99667 0 1
10.1137 0 1
10.2307 0 1
10.3478 0 1
10.4648 0 1
10.5819 0 1
10.6991 0 1
10.8162 0 1
10.9334 0 1
11.0506 0 1
11.1678 0 1
11.285 0 1
11.4023 0 1
11.5196 0 1
11.6369 0 1
11.7542 0 1
11.8715 0 1
11.9888 0 1
12.1062 0 1
12.2235 0 1
12.3409 0 1
12.4582 0 1
12.5756 0 1
12.693 0 1
12.8104 0 1
12.9278 0 1
13.0452 0 1
13.1626 0 1
13.28 0 1
13.3974 0 1
13.5149 0 1
13.6323 0 1
13.7497 0 1
13.8671 0 1
13.9845 0 1
14.1019 0 1
14.2193 0 1
14.3367 0 1
14.4541 0 1
14.5714 0 1
14.6888 0 1
14.8062 0 1
14.9235 0 1
15.0408 4566 67.5722
15.1581 4652 68.2056
15.2755 4767 69.0435
15.3927 4827 69.4766
15.51 4864 69.7424
15.6273 4930 70.214
15.7445 4671 68.3447
15.8617 4682 68.4251
15.9789 4569 67.5944
16.0961 4616 67.9412
16.2132 4649 68.1836
16.3304 4860 69.7137
16.4475 5033 70.9436
16.5646 4844 69.5989
16.6816 4915 70.1071
16.7986 5075 71.239
16.9156 4953 70.3776
17.0326 4970 70.4982
17.1496 5056 71.1056
17.2665 5007 70.7602
17.3833 5224 72.2772
17.5002 5011 70.7884
17.617 4968 70.484
17.7338 5166 71.8749
17.8505 5191 72.0486
17.9672 5139 71.6868
18.0839 5119 71.5472
18.2005 5102 71.4283
18.3171 5197 72.0902
18.4337 5224 72.2772
18.5502 5525 74.3303
18.6666 5378 73.3348
18.7831 5481 74.0338
18.8994 5476 74
19.0158 5247 72.4362
19.1321 5028 70.9084
19.2483 5016 70.8237
19.3645 4717 68.6804
19.4806 4554 67.4833
19.5967 4429 66.5507
19.7128 4232 65.0538
19.8288 4004 63.2772
19.9447 3489 59.0678
20.0606 0 1
20.1764 0 1
20.2922 0 1
20.4079 0 1
20.5236 0 1
20.6392 0 1
20.7548 0 1
20.8702 0 1
23.3078 0 1
23.4233 0 1
23.539 0 1
23.6547 0 1
23.7704 0 1
23.8862 0 1
24.0021 0 1
24.118 0 1
24.234 0 1
24.35 0 1
24.4661 2654 51.517
24.5822 3199 56.5597
24.6984 3459 58.8133
24.8146 3922 62.6259
24.9309 4252 65.2074
25.0472 4564 67.5574
25.1636 4746 68.8912
25.28 4930 70.214
25.3965 5235 72.3533
25.513 5220 72.2496
25.6296 5593 74.7864
25.7462 5395 73.4507
25.8628 5600 74.8331
25.9795 5727 75.6769
26.0962 5754 75.8551
26.213 5724 75.6571
26.3298 5876 76.6551
26.4466 5855 76.518
26.5635 5813 76.243
26.6804 5792 76.1052
26.7973 5684 75.3923
26.9143 5786 76.0658
27.0313 6021 77.5951
27.1483 6124 78.256
27.2653 6458 80.3617
27.3824 6361 79.7559
27.4996 6310 79.4355
27.6167 6189 78.6702
27.7339 6188 78.6638
27.8511 6036 77.6917
27.9683 5888 76.7333
28.0855 5886 76.7203
28.2028 5961 77.2075
28.3201 6095 78.0705
28.4374 5931 77.013
28.5547 5853 76.5049
28.6721 5703 75.5182
28.7894 5550 74.4983
28.9068 5524 74.3236
29.0242 5478 74.0135
29.1416 5457 73.8715
29.259 5501 74.1687
29.3764 5330 73.0068
29.4939 5454 73.8512
29.6113 5610 74.8999
29.7288 5794 76.1183
29.8463 5692 75.4453
29.9638 5773 75.9803
30.0812 5874 76.642
30.1987 5809 76.2168
30.3162 5775 75.9934
30.4337 5959 77.1946
30.5512 6068 77.8974
30.6687 6253 79.0759
30.7862 6295 79.341
30.9037 6363 79.7684
31.0212 6392 79.95
31.1387 6445 80.2808
31.2562 6018 77.5758
31.3737 6113 78.1857
31.4912 6012 77.5371
31.6087 6036 77.6917
31.7262 6065 77.8781
31.8436 5929 77
31.9611 6009 77.5177
32.0785 5828 76.3413
32.1959 5761 75.9013
32.3134 5677 75.3459
32.4308 5548 74.4849
32.5482 5378 73.3348
32.6655 5395 73.4507
32.7829 5344 73.1027
32.9002 5420 73.6206
33.0176 5571 74.6391
33.1349 5534 74.3909
33.2522 5573 74.6525
33.3694 5798 76.1446
33.4867 5917 76.922
33.6039 5939 77.0649
33.7211 5848 76.4722
33.8383 5741 75.7694
33.9554 5778 76.0132
34.0725 5956 77.1751
34.1896 6036 77.6917
34.3067 6123 78.2496
34.4237 6262 79.1328
34.5407 6426 80.1623
34.6577 6338 79.6116
34.7746 6406 80.0375
34.8915 6353 79.7057
35.0084 6255 79.0886
35.1252 6002 77.4726
35.242 6103 78.1217
35.3587 6038 77.7046
35.4755 6037 77.6981
35.5921 5999 77.4532
35.7088 5899 76.8049
35.8254 5717 75.6108
35.9419 5428 73.675
36.0584 5157 71.8123
36.1749 5000 70.7107
36.2913 4767 69.0435
36.4077 4667 68.3154
36.524 4526 67.2756
36.6403 4370 66.106
36.7565 4281 65.4294
36.8727 4174 64.6065
36.9889 4037 63.5374
37.1049 3936 62.7375
37.221 0 1
37.3369 0 1
37.4529 0 1
37.5687 0 1
37.6845 0 1
37.8003 0 1
37.916 0 1
38.0316 0 1
38.1472 0 1
40.5851 0 1
40.7008 0 1
40.8164 0 1
40.9322 0 1
41.048 0 1
41.1639 0 1
41.2798 0 1
41.3958 0 1
41.5118 0 1
41.6279 0 1
41.744 2638 51.3615
41.8602 2992 54.6992
41.9765 3295 57.4021
42.0928 3633 60.2744
42.2091 3954 62.8808
42.3255 4402 66.3476
42.4419 4710 68.6294
42.5584 4998 70.6965
42.675 4868 69.7711
42.7915 5079 71.2671
42.9081 5219 72.2426
43.0248 5611 74.9066
43.1415 5679 75.3591
43.2582 6067 77.8909
43.375 6178 78.6003
43.4918 6336 79.599
43.6087 6438 80.2371
43.7256 6189 78.6702
43.8425 6205 78.7718
43.9595 6120 78.2304
44.0765 6057 77.8267
44.1935 6019 77.5822
44.3106 6131 78.3007
44.4277 6157 78.4666
44.5448 6049 77.7753
44.6619 5734 75.7232
44.7791 5494 74.1215
44.8963 5322 72.952
45.0136 4898 69.9857
45.1308 4772 69.0797
45.2481 4685 68.4471
45.3654 4658 68.2495
45.4827 4786 69.1809
45.6001 5023 70.8731
45.7174 5258 72.5121
45.8348 5719 75.6241
45.9522 5949 77.1298
46.0697 6095 78.0705
46.1871 6034 77.6788
46.3046 6089 78.032
46.422 6068 77.8974
46.5395 6314 79.4607
46.657 6297 79.3536
46.7745 6556 80.9691
46.892 6619 81.3572
47.0096 6755 82.1888
47.1271 6984 83.5703
47.2446 6916 83.1625
47.3622 6762 82.2314
47.4797 6642 81.4985
47.5973 6608 81.2896
47.7149 6677 81.7129
47.8324 6561 81
47.95 6673 81.6884
48.0675 6409 80.0562
48.1851 6099 78.0961
48.3027 5790 76.092
48.4202 5375 73.3144
48.5378 5091 71.3512
48.6554 4711 68.6367
48.7729 4641 68.1249
48.8904 4748 68.9057
49.008 4888 69.9142
49.1255 5035 70.9577
49.243 5516 74.2698
49.3605 5902 76.8245
49.478 6343 79.643
49.5955 6461 80.3803
49.713 6212 78.8162
49.8304 6199 78.7337
49.9479 6171 78.5557
50.0653 6435 80.2185
50.1827 6589 81.1727
50.3001 6801 82.4682
50.4175 6832 82.6559
50.5348 7043 83.9226
50.6521 7123 84.3979
50.7694 7167 84.6581
50.8867 7021 83.7914
51.004 7042 83.9166
51.1212 6731 82.0427
51.2384 6945 83.3367
51.3556 6968 83.4745
51.4727 7079 84.1368
51.5899 6818 82.5712
51.707 6339 79.6178
51.824 6096 78.0769
51.9411 5657 75.213
52.0581 5042 71.007
52.175 4611 67.9043
52.2919 4638 68.1029
52.4088 4775 69.1014
52.5257 4839 69.5629
52.6425 5068 71.1899
52.7593 5395 73.4507
52.876 5875 76.6485
52.9927 6098 78.0897
53.1094 6098 78.0897
53.226 5917 76.922
53.3426 5813 76.243
53.4591 5604 74.8599
53.5756 5540 74.4312
53.692 5462 73.9053
53.8084 5346 73.1163
53.9248 5304 72.8286
54.0411 5097 71.3933
54.1573 4830 69.4982
54.2735 0 1
54.3896 0 1
54.5057 0 1
54.6217 0 1
54.7377 0 1
54.8537 0 1
54.9695 0 1
55.0853 0 1
55.2011 0 1
55.3168 0 1
55.4324 0 1
57.824 0 1
57.9396 0 1
58.0553 0 1
58.1711 0 1
58.2869 0 1
58.4028 0 1
58.5187 0 1
58.6347 0 1
58.7508 0 1
58.8669 0 1
58.983 5781 76.0329
59.0992 6351 79.6932
59.2155 6697 81.8352
59.3318 7312 85.5102
59.4482 7825 88.459
59.5646 7899 88.8763
59.681 8090 89.9444
59.7975 8432 91.8259
59.9141 8695 93.247
60.0306 8801 93.8136
60.1473 9132 95.5615
60.2639 8865 94.1541
60.3807 8428 91.8041
60.4974 8087 89.9277
60.6142 7548 86.8792
60.731 6783 82.359
60.8479 6251 79.0633
60.9648 5745 75.7958
61.0818 5739 75.7562
61.1987 5986 77.3692
61.3158 6653 81.5659
61.4328 7503 86.6199
61.5499 8157 90.3161
61.667 8920 94.4458
61.7841 9187 95.8488
61.9013 9200 95.9166
62.0185 9158 95.6974
62.1357 9114 95.4673
62.253 9200 95.9166
62.3702 9625 98.1071
62.4875 9633 98.1478
62.6049 10085 100.424
62.7222 10063 100.315
62.8396 10270 101.341
62.9569 10356 101.764
63.0743 10354 101.755
63.1918 10243 101.208
63.3092 9934 99.6695
63.4267 9948 99.7397
63.5441 9940 99.6995
63.6616 9846 99.227
63.7791 9772 98.8534
63.8966 9245 96.1509
64.0142 8670 93.1128
64.1317 7954 89.1852
64.2492 7047 83.9464
64.3668 6156 78.4602
64.4843 5684 75.3923
64.6019 5742 75.776
64.7195 5931 77.013
64.837 6520 80.7465
64.9546 7387 85.9477
65.0722 8380 91.5423
65.1898 9280 96.3328
65.3074 9908 99.5389
65.4249 9974 99.8699
65.5425 9763 98.8079
65.6601 9774 98.8635
65.7777 9618 98.0714
65.8952 9847 99.2321
66.0128 10212 101.054
66.1304 10170 100.846
66.2479 10774 103.798
66.3655 10764 103.75
66.483 10765 103.755
66.6005 10751 103.687
66.718 10759 103.726
66.8355 10651 103.204
66.953 10513 102.533
67.0705 10469 102.318
67.1879 10644 103.17
67.3054 10411 102.034
67.4228 10286 101.42
67.5402 9427 97.0927
67.6576 8718 93.3702
67.7749 7885 88.7975
67.8923 6815 82.553
68.0096 5899 76.8049
68.1269 5680 75.3658
68.2442 5643 75.1199
68.3614 5985 77.3628
68.4787 6496 80.5978
68.5958 7767 88.1306
68.713 8949 94.5992
68.8302 9845 99.222
68.9473 10188 100.936
69.0643 10484 102.391
69.1814 10325 101.612
69.2984 9996 99.98
69.4154 9854 99.2673
69.5323 9887 99.4334
69.6492 9912 99.559
69.7661 9923 99.6143
69.8829 9783 98.909
69.9997 9850 99.2472
70.1165 9797 98.9798
70.2332 9798 98.9848
70.3499 9531 97.6268
70.4665 8886 94.2656
70.5831 8833 93.984
70.6996 8210 90.6091
70.8161 8150 90.2774
70.9326 7744 88
71.049 7237 85.0706
71.1653 6494 80.5854
71.2817 6003 77.479
71.3979 5195 72.0763
71.5141 4386 66.2269
71.6303 3267 57.1577
71.7464 2275 47.697
71.8624 0 1
71.9784 0 1
72.0944 0 1
72.2102 0 1
72.3261 0 1
72.4418 0 1
72.5575 0 1
72.6732 0 1
75.1054 0 1
75.2209 0 1
75.3365 0 1
75.4521 0 1
75.5678 0 1
75.6835 0 1
75.7993 0 1
75.9151 0 1
76.031 0 1
76.147 7792 88.2723
76.263 8403 91.6679
76.3791 8411 91.7115
76.4952 7938 89.0955
76.6113 7236 85.0647
76.7276 6723 81.9939
76.8438 6087 78.0192
76.9601 5590 74.7663
77.0765 5275 72.6292
77.1929 5142 71.7077
77.3093 5404 73.5119
77.4258 6095 78.0705
77.5423 7136 84.4748
77.6589 9038 95.0684
77.7755 10305 101.514
77.8921 11010 104.929
78.0088 11190 105.783
78.1256 11032 105.033
78.2423 11074 105.233
78.3591 10625 103.078
78.4759 10923 104.513
78.5928 11241 106.024
78.7097 11556 107.499
78.8266 11505 107.261
78.9436 12299 110.901
79.0606 12121 110.095
79.1776 12319 110.991
79.2946 12490 111.759
79.4117 12207 110.485
79.5288 12102 110.009
79.6459 12182 110.372
79.7631 12054 109.791
79.8802 12349 111.126
79.9974 12617 112.325
80.1147 12143 110.195
80.2319 10977 104.771
80.3491 9805 99.0202
80.4664 8499 92.19
80.5837 7223 84.9882
80.701 6207 78.7845
80.8183 5692 75.4453
80.9357 5920 76.9415
81.053 6310 79.4355
81.1704 7503 86.6199
81.2877 9281 96.3379
81.4051 11326 106.424
81.5225 12732 112.836
81.6399 12879 113.486
81.7573 13131 114.591
81.8747 12672 112.57
81.9922 12389 111.306
82.1096 12287 110.847
82.227 12875 113.468
82.3444 13167 114.748
82.4619 13571 116.495
82.5793 13620 116.705
82.6967 13708 117.081
82.8142 14190 119.122
82.9316 14226 119.273
83.049 14071 118.621
83.1664 13834 117.618
83.2838 13744 117.235
83.4012 14118 118.819
83.5186 14037 118.478
83.636 13947 118.097
83.7534 13046 114.219
83.8708 11758 108.434
83.9881 10473 102.338
84.1055 9742 98.7016
84.2228 8355 91.4057
84.3401 7093 84.22
84.4575 6407 80.0437
84.5747 6276 79.2212
84.692 7109 84.3149
84.8093 8672 93.1236
84.9265 10739 103.629
85.0437 12428 111.481
85.1609 13948 118.102
85.2781 14543 120.594
85.3952 14199 119.16
85.5123 14115 118.807
85.6294 14029 118.444
85.7465 14174 119.055
85.8636 14595 120.81
85.9806 14954 122.287
86.0976 15363 123.948
86.2145 15490 124.459
86.3315 15846 125.881
86.4484 15385 124.036
86.5652 15602 124.908
86.682 14997 122.462
86.7988 14453 120.221
86.9156 14075 118.638
87.0323 14128 118.861
87.149 14476 120.316
87.2657 14140 118.912
87.3823 12949 113.794
87.4988 11540 107.424
87.6154 10011 100.055
87.7318 8753 93.5575
87.8483 7331 85.6213
87.9647 5872 76.629
88.081 5239 72.3809
88.1973 5339 73.0685
88.3136 5811 76.2299
88.4298 6724 82
88.546 8177 90.4268
88.6621 9629 98.1275
88.7781 10053 100.265
88.8942 0 1
89.0101 0 1
89.126 0 1
89.2419 0 1
89.3577 0 1
89.4734 0 1
89.5891 0 1
89.7047 0 1
89.8203 0 1
89.9358 0 1
92.3269 0 1
92.4424 0 1
92.558 0 1
92.6736 0 1
92.7893 0 1
92.905 0 1
93.0208 0 1
93.1366 0 1
93.2525 0 1
93.3685 0 1
93.4845 0 1
93.6005 6653 81.5659
93.7167 7757 88.0738
93.8328 9642 98.1937
93.949 11887 109.028
94.0653 13869 117.767
94.1816 14844 121.836
94.2979 15931 126.218
94.4143 15960 126.333
94.5307 16099 126.882
94.6472 16720 129.306
94.7637 17037 130.526
94.8803 17517 132.352
94.9969 17601 132.669
95.1135 17825 133.51
95.2302 18603 136.393
95.3469 18524 136.103
95.4637 18748 136.923
95.5805 18915 137.532
95.6973 18712 136.792
95.8142 18347 135.451
95.9311 18292 135.248
96.048 17976 134.075
96.1649 18368 135.529
96.2819 18033 134.287
96.3989 17097 130.755
96.516 15775 125.599
96.633 14244 119.348
96.7501 12811 113.186
96.8673 11359 106.579
96.9844 10016 100.08
97.1016 9035 95.0526
97.2188 8507 92.2334
97.336 8830 93.9681
97.4532 10378 101.872
97.5704 12380 111.265
97.6877 15007 122.503
97.805 16624 128.934
97.9223 17904 133.806
98.0396 18180 134.833
98.1569 18141 134.689
98.2743 17957 134.004
98.3916 17793 133.39
98.509 18381 135.577
98.6264 18506 136.037
98.7438 18930 137.586
98.8612 19436 139.413
98.9786 19594 139.979
99.096 19505 139.66
99.2134 19839 140.851
99.3308 19438 139.42
99.4482 19732 140.471
99.5656 19362 139.147
99.6831 19528 139.743
99.8005 19426 139.377
99.9179 18928 137.579
100.035 18011 134.205
100.153 16197 127.267
100.27 14563 120.677
100.388 12654 112.49
100.505 11181 105.74
100.622 9795 98.9697
100.74 9064 95.205
100.857 9220 96.0208
100.975 10072 100.359
101.092 12086 109.936
101.209 14718 121.318
101.327 17436 132.045
101.444 18738 136.887
101.561 19247 138.734
101.679 19140 138.347
101.796 18572 136.279
101.913 18440 135.794
102.03 18458 135.86
102.148 19153 138.394
102.265 19926 141.159
102.382 19698 140.35
102.499 20126 141.866
102.616 20013 141.467
102.733 20329 142.58
102.851 20543 143.328
102.968 20121 141.849
103.085 20041 141.566
103.202 20047 141.587
103.319 19590 139.964
103.436 19744 140.513
103.552 18940 137.623
103.669 17464 132.151
103.786 15695 125.28
103.903 14021 118.41
104.02 12354 111.149
104.137 10793 103.889
104.253 9806 99.0252
104.37 9381 96.8556
104.487 9710 98.5393
104.603 10620 103.053
104.72 11957 109.348
104.836 13648 116.825
104.953 14950 122.27
105.069 15203 123.3
105.186 15411 124.141
105.302 14867 121.93
105.418 14124 118.844
105.535 13560 116.447
105.651 12805 113.159
105.767 12037 109.713
105.883 11445 106.981
105.999 10756 103.711
106.115 0 1
106.231 0 1
106.347 0 1
106.463 0 1
106.579 0 1
106.694 0 1
106.81 0 1
106.926 0 1
107.041 0 1
107.157 0 1
109.576 0 1
109.692 0 1
109.807 0 1
109.923 0 1
110.039 0 1
110.155 0 1
110.27 0 1
110.386 0 1
110.502 0 1
110.618 10518 102.557
110.735 11887 109.028
110.851 13295 115.304
110.967 14130 118.87
111.083 14802 121.663
111.199 15825 125.797
111.316 16479 128.371
111.432 17023 130.472
111.549 17301 131.533
111.665 17247 131.328
111.782 17236 131.286
111.898 17693 133.015
112.015 18188 134.863
112.132 18092 134.507
112.248 17196 131.134
112.365 15865 125.956
112.482 13934 118.042
112.599 12503 111.817
112.716 10839 104.111
112.832 9642 98.1937
112.949 8893 94.3027
113.066 8682 93.1773
113.183 8937 94.5357
113.3 10389 101.926
113.417 12424 111.463
113.534 14608 120.864
113.652 16149 127.079
113.769 16439 128.215
113.886 16701 129.232
114.003 15907 126.123
114.12 16165 127.142
114.238 16408 128.094
114.355 16423 128.152
114.472 17125 130.863
114.589 17196 131.134
114.707 17371 131.799
114.824 17468 132.167
114.942 17621 132.744
115.059 17342 131.689
115.176 17407 131.936
115.294 17177 131.061
115.411 16834 129.746
115.529 17099 130.763
115.646 17010 130.422
115.764 16643 129.008
115.881 15735 125.439
115.999 14116 118.811
116.116 12904 113.596
116.234 11513 107.299
116.351 10342 101.696
116.469 9266 96.2601
116.586 8752 93.5521
116.704 8601 92.7416
116.821 9294 96.4054
116.939 10746 103.663
117.056 12563 112.085
117.174 14342 119.758
117.291 15240 123.45
117.409 15416 124.161
117.526 15245 123.471
117.644 14963 122.323
117.761 15052 122.687
117.879 15124 122.98
117.996 15740 125.459
118.114 15744 125.475
118.231 15893 126.067
118.349 16038 126.641
118.466 16107 126.913
118.584 16136 127.028
118.701 16347 127.855
118.819 16028 126.602
118.936 15405 124.117
119.053 15510 124.539
119.171 15653 125.112
119.288 15550 124.7
119.405 15076 122.784
119.523 14441 120.171
119.64 13251 115.113
119.757 11853 108.871
119.875 10971 104.743
119.992 9570 97.8264
120.109 8869 94.1754
120.226 8595 92.7092
120.343 8217 90.6477
120.46 8681 93.1719
120.578 9447 97.1957
120.695 10750 103.682
120.812 12028 109.672
120.929 12911 113.627
121.046 12941 113.759
121.163 12717 112.77
121.279 12352 111.14
121.396 12171 110.322
121.513 12017 109.622
121.63 12355 111.153
121.747 12106 110.027
121.863 12156 110.254
121.98 12075 109.886
122.097 12153 110.241
122.213 11854 108.876
122.33 11628 107.833
122.446 11181 105.74
122.563 10748 103.673
122.679 9950 99.7497
122.795 9690 98.4378
122.912 9312 96.4987
123.028 8873 94.1966
123.144 8217 90.6477
123.26 7267 85.2467
123.377 0 1
123.493 0 1
123.609 0 1
123.725 0 1
123.84 0 1
123.956 0 1
124.072 0 1
124.188 0 1
124.303 0 1
124.419 0 1
126.852 0 1
126.968 0 1
127.083 0 1
127.199 0 1
127.315 0 1
127.431 0 1
127.547 0 1
127.663 0 1
127.779 0 1
127.895 0 1
128.011 0 1
128.127 0 1
128.243 0 1
128.359 14311 119.629
128.476 14358 119.825
128.592 14420 120.083
128.708 13845 117.665
128.825 13069 114.32
128.941 12073 109.877
129.058 11614 107.768
129.174 10373 101.848
129.291 10153 100.762
129.408 10081 100.404
129.524 10281 101.395
129.641 10692 103.402
129.758 11649 107.931
129.875 12778 113.04
129.992 13557 116.435
130.108 14041 118.495
130.225 13768 117.337
130.342 14072 118.625
130.459 14123 118.84
130.576 14531 120.545
130.693 14841 121.824
130.81 14941 122.233
130.928 15324 123.79
131.045 15546 124.684
131.162 16112 126.933
131.279 16153 127.094
131.396 15758 125.531
131.513 15813 125.75
131.631 15346 123.879
131.748 15250 123.491
131.865 15530 124.619
131.983 15521 124.583
132.1 15311 123.738
132.217 14574 120.723
132.335 13458 116.009
132.452 12824 113.243
132.57 11966 109.389
132.687 11257 106.099
132.804 10978 104.776
132.922 10591 102.913
133.039 10412 102.039
133.157 10627 103.087
133.274 11298 106.292
133.392 12009 109.586
133.509 13023 114.118
133.627 13421 115.849
133.744 13584 116.55
133.862 13782 117.397
133.979 13697 117.034
134.097 13770 117.346
134.214 14519 120.495
134.332 14718 121.318
134.449 14709 121.281
134.567 15045 122.658
134.684 15397 124.085
134.802 15251 123.495
134.919 15408 124.129
135.037 15369 123.972
135.154 15011 122.519
135.272 14761 121.495
135.389 14983 122.405
135.507 14893 122.037
135.624 14816 121.721
135.742 14555 120.644
135.859 14081 118.663
135.977 13493 116.159
136.094 12752 112.925
136.211 11924 109.197
136.329 11559 107.513
136.446 10927 104.532
136.564 11002 104.89
136.681 10832 104.077
136.798 10706 103.47
136.915 11144 105.565
137.033 11818 108.711
137.15 12578 112.152
137.267 12685 112.628
137.384 12823 113.239
137.502 12881 113.494
137.619 12778 113.04
137.736 13004 114.035
137.853 13107 114.486
137.97 13800 117.473
138.087 13943 118.08
138.204 14011 118.368
138.321 13829 117.597
138.438 13771 117.35
138.555 13735 117.196
138.672 13418 115.836
138.788 13079 114.363
138.905 12445 111.557
139.022 11937 109.257
139.139 11932 109.234
139.255 11451 107.009
139.372 10870 104.259
139.488 10191 100.95
139.605 9511 97.5244
139.721 8969 94.7048
139.838 8082 89.8999
139.954 7460 86.3713
140.071 6750 82.1584
140.187 6272 79.196
140.303 5789 76.0855
140.419 5180 71.9722
140.535 4993 70.6612
140.652 5009 70.7743
140.768 0 1
140.884 0 1
141 0 1
141.115 0 1
141.231 0 1
141.347 0 1
141.463 0 1
141.578 0 1
141.694 0 1
144.104 0 1
144.219 0 1
144.335 0 1
144.45 0 1
144.566 0 1
144.682 0 1
144.798 0 1
144.914 0 1
145.03 0 1
145.146 8199 90.5483
145.262 8194 90.5207
145.378 8379 91.5369
145.494 8386 91.5751
145.61 8418 91.7497
145.726 8570 92.5743
145.842 8722 93.3916
145.959 8999 94.8631
146.075 9226 96.0521
146.192 9076 95.268
146.308 8859 94.1223
146.425 9110 95.4463
146.541 9184 95.8332
146.658 9389 96.8969
146.774 9875 99.373
146.891 10012 100.06
147.008 10220 101.094
147.125 10302 101.499
147.241 10216 101.074
147.358 10548 102.703
147.475 10438 102.167
147.592 10340 101.686
147.709 10115 100.573
147.826 9880 99.3982
147.943 10104 100.519
148.06 9940 99.6995
148.177 9717 98.5748
148.294 9822 99.106
148.411 9502 97.4782
148.528 9511 97.5244
148.645 9347 96.6799
148.762 9173 95.7758
148.88 9136 95.5824
148.997 8923 94.4616
149.114 8725 93.4077
149.231 8685 93.1933
149.349 8787 93.739
149.466 8545 92.4392
149.583 8826 93.9468
149.701 8921 94.451
149.818 8986 94.7945
149.935 8920 94.4458
150.053 8880 94.2338
150.17 8998 94.8578
150.287 8869 94.1754
150.405 9346 96.6747
150.522 9553 97.7394
150.64 9678 98.3768
150.757 9955 99.7747
150.875 10038 100.19
150.992 10219 101.089
151.11 10189 100.941
151.227 10070 100.349
151.344 10064 100.319
151.462 9677 98.3717
151.579 9393 96.9175
151.697 9661 98.2904
151.814 9623 98.0969
151.932 9406 96.9845
152.049 9422 97.067
152.167 9145 95.6295
152.284 9058 95.1735
152.402 9050 95.1315
152.519 8799 93.803
152.636 8438 91.8586
152.754 8582 92.6391
152.871 8439 91.864
152.989 8387 91.5806
153.106 8464 92
153.223 8408 91.6951
153.341 8470 92.0326
153.458 8377 91.526
153.575 8289 91.0439
153.693 8179 90.4378
153.81 8224 90.6863
153.927 8240 90.7744
154.044 8531 92.3634
154.162 8850 94.0744
154.279 9108 95.4358
154.396 9226 96.0521
154.513 9432 97.1185
154.63 9416 97.0361
154.747 9302 96.4469
154.864 9375 96.8246
154.981 8888 94.2762
155.098 8851 94.0798
155.215 8776 93.6803
155.332 8846 94.0532
155.449 8569 92.5689
155.566 8386 91.5751
155.683 8469 92.0272
155.8 8117 90.0944
155.917 8006 89.4763
156.033 7832 88.4986
156.15 0 1
156.267 0 1
156.383 0 1
156.5 0 1
156.617 0 1
156.733 0 1
156.85 0 1
156.966 0 1
157.082 0 1
157.199 0 1
157.315 0 1
157.431 0 1
157.547 0 1
157.664 0 1
157.78 0 1
157.896 0 1
158.012 0 1
158.128 0 1
158.244 0 1
158.359 0 1
158.475 0 1
158.591 0 1
158.706 0 1
