
6.15755 0 1
6.2731 0 1
6.3887 0 1
6.50437 0 1
6.62009 0 1
6.73587 0 1
6.8517 0 1
6.96759 0 1
7.08353 0 1
7.19952 0 1
7.31557 0 1
7.43166 0 1
7.54781 0 1
7.664 0 1
7.78024 0 1
7.89653 0 1
8.01286 0 1
8.12924 0 1
8.24567 0 1
8.36213 0 1
8.47864 0 1
8.59519 0 1
8.71178 0 1
8.82841 0 1
8.94508 0 1
9.06179 0 1
9.17853 0 1
9.29531 0 1
9.41212 0 1
9.52897 0 1
9.64584 0 1
9.76276 0 1
9.8797 0 1
9.99667 0 1
10.1137 0 1
10.2307 0 1
10.3478 0 1
10.4648 0 1
10.5819 0 1
10.6991 0 1
10.8162 0 1
10.9334 0 1
11.0506 0 1
11.1678 0 1
11.285 0 1
11.4023 0 1
11.5196 0 1
11.6369 0 1
11.7542 0 1
11.8715 0 1
11.9888 0 1
12.1062 0 1
12.2235 0 1
12.3409 0 1
12.4582 0 1
12.5756 0 1
12.693 0 1
12.8104 0 1
12.9278 0 1
13.0452 0 1
13.1626 0 1
13.28 0 1
13.3974 0 1
13.5149 0 1
13.6323 0 1
13.7497 0 1
13.8671 0 1
13.9845 0 1
14.1019 0 1
14.2193 0 1
14.3367 0 1
14.4541 0 1
14.5714 0 1
14.6888 0 1
14.8062 0 1
14.9235 0 1
15.0408 0 0
15.1581 0 0
15.2755 0 0
15.3927 0 0
15.51 0 0
15.6273 0 0
15.7445 0 0
15.8617 0 0
15.9789 0 0
16.0961 0 0
16.2132 0 0
16.3304 0 0
16.4475 0 0
16.5646 0 0
16.6816 0 0
16.7986 0 0
16.9156 0 0
17.0326 0 0
17.1496 0 0
17.2665 0 0
17.3833 0 0
17.5002 0 0
17.617 0 0
17.7338 0 0
17.8505 0 0
17.9672 0 0
18.0839 0 0
18.2005 0 0
18.3171 0 0
18.4337 0 0
18.5502 0 0
18.6666 0 0
18.7831 0 0
18.8994 0 0
19.0158 0 0
19.1321 0 0
19.2483 0 0
19.3645 0 0
19.4806 0 0
19.5967 0 0
19.7128 0 0
19.8288 0 0
19.9447 0 0
20.0606 0 1
20.1764 0 1
20.2922 0 1
20.4079 0 1
20.5236 0 1
20.6392 0 1
20.7548 0 1
20.8702 0 1
23.3078 0 1
23.4233 0 1
23.539 0 1
23.6547 0 1
23.7704 0 1
23.8862 0 1
24.0021 0 1
24.118 0 1
24.234 0 1
24.35 0 1
24.4661 1516 38.9358
24.5822 1503 38.7685
24.6984 1535 39.1791
24.8146 1435 37.8814
24.9309 1454 38.1314
25.0472 1490 38.6005
25.1636 1475 38.4057
25.28 1517 38.9487
25.3965 1567 39.5854
25.513 1654 40.6694
25.6296 1635 40.4351
25.7462 1814 42.5911
25.8628 1822 42.6849
25.9795 1825 42.72
26.0962 1877 43.3244
26.213 1829 42.7668
26.3298 1820 42.6615
26.4466 1848 42.9884
26.5635 1888 43.4511
26.6804 1768 42.0476
26.7973 1796 42.3792
26.9143 1848 42.9884
27.0313 1784 42.2374
27.1483 1805 42.4853
27.2653 1749 41.821
27.3824 1860 43.1277
27.4996 1833 42.8135
27.6167 1806 42.4971
27.7339 1773 42.107
27.8511 1746 41.7852
27.9683 1720 41.4729
28.0855 1679 40.9756
28.2028 1537 39.2046
28.3201 1529 39.1024
28.4374 1517 38.9487
28.5547 1457 38.1707
28.6721 1420 37.6829
28.7894 1465 38.2753
28.9068 1515 38.923
29.0242 1661 40.7554
29.1416 1621 40.2616
29.259 1774 42.1189
29.3764 1815 42.6028
29.4939 1779 42.1782
29.6113 1748 41.8091
29.7288 1829 42.7668
29.8463 1852 43.0349
29.9638 1783 42.2256
30.0812 1830 42.7785
30.1987 1848 42.9884
30.3162 1825 42.72
30.4337 1792 42.332
30.5512 1742 41.7373
30.6687 1662 40.7676
30.7862 1793 42.3438
30.9037 1766 42.0238
31.0212 1884 43.4051
31.1387 1856 43.0813
31.2562 1756 41.9047
31.3737 1824 42.7083
31.4912 1784 42.2374
31.6087 1628 40.3485
31.7262 1638 40.4722
31.8436 1616 40.1995
31.9611 1616 40.1995
32.0785 1532 39.1408
32.1959 1535 39.1791
32.3134 1610 40.1248
32.4308 1555 39.4335
32.5482 1689 41.0974
32.6655 1753 41.8688
32.7829 1708 41.328
32.9002 1769 42.0595
33.0176 1855 43.0697
33.1349 1795 42.3674
33.2522 1843 42.9302
33.3694 1815 42.6028
33.4867 1818 42.638
33.6039 1911 43.715
33.7211 1870 43.2435
33.8383 1843 42.9302
33.9554 1818 42.638
34.0725 1790 42.3084
34.1896 1732 41.6173
34.3067 1772 42.0951
34.4237 1819 42.6497
34.5407 1803 42.4617
34.6577 1829 42.7668
34.7746 1845 42.9535
34.8915 1794 42.3556
35.0084 1826 42.7317
35.1252 1727 41.5572
35.242 1776 42.1426
35.3587 1756 41.9047
35.4755 1526 39.064
35.5921 1596 39.95
35.7088 1574 39.6737
35.8254 1514 38.9102
35.9419 1441 37.9605
36.0584 1501 38.7427
36.1749 1527 39.0768
36.2913 1523 39.0256
36.4077 1625 40.3113
36.524 1684 41.0366
36.6403 1766 42.0238
36.7565 1772 42.0951
36.8727 1829 42.7668
36.9889 1828 42.7551
37.1049 1834 42.8252
37.221 0 1
37.3369 0 1
37.4529 0 1
37.5687 0 1
37.6845 0 1
37.8003 0 1
37.916 0 1
38.0316 0 1
38.1472 0 1
40.5851 0 1
40.7008 0 1
40.8164 0 1
40.9322 0 1
41.048 0 1
41.1639 0 1
41.2798 0 1
41.3958 0 1
41.5118 0 1
41.6279 0 1
41.744 1524 39.0384
41.8602 1644 40.5463
41.9765 1648 40.5956
42.0928 1687 41.0731
42.2091 1781 42.2019
42.3255 1745 41.7732
42.4419 1663 40.7799
42.5584 1666 40.8167
42.675 1602 40.025
42.7915 1660 40.7431
42.9081 1508 38.833
43.0248 1505 38.7943
43.1415 1553 39.4081
43.2582 1573 39.6611
43.375 1591 39.8873
43.4918 1721 41.4849
43.6087 1569 39.6106
43.7256 1548 39.3446
43.8425 1611 40.1373
43.9595 1457 38.1707
44.0765 1516 38.9358
44.1935 1491 38.6135
44.3106 1364 36.9324
44.4277 1355 36.8103
44.5448 1267 35.5949
44.6619 1247 35.3129
44.7791 1212 34.8138
44.8963 1192 34.5254
45.0136 1220 34.9285
45.1308 1235 35.1426
45.2481 1250 35.3553
45.3654 1312 36.2215
45.4827 1352 36.7696
45.6001 1328 36.4417
45.7174 1295 35.9861
45.8348 1327 36.428
45.9522 1346 36.6879
46.0697 1353 36.7831
46.1871 1200 34.641
46.3046 1193 34.5398
46.422 1100 33.1662
46.5395 1183 34.3948
46.657 1154 33.9706
46.7745 1174 34.2637
46.892 1219 34.9142
47.0096 1191 34.5109
47.1271 1241 35.2278
47.2446 1181 34.3657
47.3622 1193 34.5398
47.4797 1048 32.3728
47.5973 1093 33.0606
47.7149 1072 32.7414
47.8324 1083 32.909
47.95 1008 31.749
48.0675 962 31.0161
48.1851 969 31.1288
48.3027 894 29.8998
48.4202 934 30.5614
48.5378 915 30.249
48.6554 902 30.0333
48.7729 1046 32.3419
48.8904 1008 31.749
49.008 1081 32.8786
49.1255 1099 33.1512
49.243 1054 32.4654
49.3605 1079 32.8481
49.478 1052 32.4345
49.5955 1043 32.2955
49.713 1018 31.9061
49.8304 1046 32.3419
49.9479 1016 31.8748
50.0653 1005 31.7017
50.1827 1026 32.0312
50.3001 1012 31.8119
50.4175 1132 33.6452
50.5348 1144 33.8231
50.6521 1157 34.0147
50.7694 1263 35.5387
50.8867 1231 35.0856
51.004 1208 34.7563
51.1212 1213 34.8281
51.2384 1175 34.2783
51.3556 1196 34.5832
51.4727 1136 33.7046
51.5899 1116 33.4066
51.707 1144 33.8231
51.824 1103 33.2114
51.9411 1059 32.5423
52.0581 1098 33.1361
52.175 1218 34.8999
52.2919 1142 33.7935
52.4088 1316 36.2767
52.5257 1388 37.2559
52.6425 1377 37.108
52.7593 1359 36.8646
52.876 1415 37.6165
52.9927 1397 37.3765
53.1094 1390 37.2827
53.226 1378 37.1214
53.3426 1368 36.9865
53.4591 1334 36.524
53.5756 1347 36.7015
53.692 1304 36.1109
53.8084 1336 36.5513
53.9248 1307 36.1525
54.0411 1373 37.054
54.1573 1420 37.6829
54.2735 0 1
54.3896 0 1
54.5057 0 1
54.6217 0 1
54.7377 0 1
54.8537 0 1
54.9695 0 1
55.0853 0 1
55.2011 0 1
55.3168 0 1
55.4324 0 1
57.824 0 1
57.9396 0 1
58.0553 0 1
58.1711 0 1
58.2869 0 1
58.4028 0 1
58.5187 0 1
58.6347 0 1
58.7508 0 1
58.8669 0 1
58.983 1428 37.7889
59.0992 1568 39.598
59.2155 1691 41.1218
59.3318 1738 41.6893
59.4482 1688 41.0853
59.5646 1676 40.939
59.681 1750 41.833
59.7975 1756 41.9047
59.9141 1704 41.2795
60.0306 1614 40.1746
60.1473 1586 39.8246
60.2639 1488 38.5746
60.3807 1442 37.9737
60.4974 1363 36.9188
60.6142 1370 37.0135
60.731 1336 36.5513
60.8479 1343 36.647
60.9648 1486 38.5487
61.0818 1460 38.2099
61.1987 1550 39.37
61.3158 1537 39.2046
61.4328 1506 38.8072
61.5499 1607 40.0874
61.667 1541 39.2556
61.7841 1600 40
61.9013 1497 38.6911
62.0185 1525 39.0512
62.1357 1432 37.8418
62.253 1372 37.0405
62.3702 1416 37.6298
62.4875 1526 39.064
62.6049 1550 39.37
62.7222 1582 39.7744
62.8396 1570 39.6232
62.9569 1656 40.694
63.0743 1674 40.9145
63.1918 1584 39.7995
63.3092 1617 40.2119
63.4267 1532 39.1408
63.5441 1507 38.8201
63.6616 1457 38.1707
63.7791 1321 36.3456
63.8966 1319 36.318
64.0142 1276 35.7211
64.1317 1161 34.0735
64.2492 1218 34.8999
64.3668 1301 36.0694
64.4843 1255 35.426
64.6019 1364 36.9324
64.7195 1397 37.3765
64.837 1430 37.8153
64.9546 1409 37.5366
65.0722 1522 39.0128
65.1898 1393 37.3229
65.3074 1466 38.2884
65.4249 1336 36.5513
65.5425 1296 36
65.6601 1259 35.4824
65.7777 1230 35.0714
65.8952 1311 36.2077
66.0128 1223 34.9714
66.1304 1405 37.4833
66.2479 1362 36.9053
66.3655 1435 37.8814
66.483 1514 38.9102
66.6005 1506 38.8072
66.718 1520 38.9872
66.8355 1533 39.1535
66.953 1491 38.6135
67.0705 1430 37.8153
67.1879 1502 38.7556
67.3054 1389 37.2693
67.4228 1316 36.2767
67.5402 1201 34.6554
67.6576 1095 33.0908
67.7749 1170 34.2053
67.8923 1063 32.6037
68.0096 1182 34.3802
68.1269 1213 34.8281
68.2442 1306 36.1386
68.3614 1373 37.054
68.4787 1432 37.8418
68.5958 1374 37.0675
68.713 1384 37.2022
68.8302 1421 37.6962
68.9473 1373 37.054
69.0643 1345 36.6742
69.1814 1232 35.0999
69.2984 1293 35.9583
69.4154 1223 34.9714
69.5323 1232 35.0999
69.6492 1313 36.2353
69.7661 1410 37.55
69.8829 1466 38.2884
69.9997 1559 39.4842
70.1165 1527 39.0768
70.2332 1556 39.4462
70.3499 1561 39.5095
70.4665 1539 39.2301
70.5831 1515 38.923
70.6996 1564 39.5474
70.8161 1445 38.0132
70.9326 1381 37.1618
71.049 1276 35.7211
71.1653 1137 33.7194
71.2817 1120 33.4664
71.3979 1040 32.249
71.5141 1039 32.2335
71.6303 980 31.305
71.7464 993 31.5119
71.8624 0 1
71.9784 0 1
72.0944 0 1
72.2102 0 1
72.3261 0 1
72.4418 0 1
72.5575 0 1
72.6732 0 1
75.1054 0 1
75.2209 0 1
75.3365 0 1
75.4521 0 1
75.5678 0 1
75.6835 0 1
75.7993 0 1
75.9151 0 1
76.031 0 1
76.147 1219 34.9142
76.263 1301 36.0694
76.3791 1363 36.9188
76.4952 1184 34.4093
76.6113 1127 33.5708
76.7276 1015 31.8591
76.8438 1034 32.1559
76.9601 1035 32.1714
77.0765 1053 32.45
77.1929 1176 34.2929
77.3093 1344 36.6606
77.4258 1334 36.524
77.5423 1432 37.8418
77.6589 1357 36.8375
77.7755 1403 37.4566
77.8921 1293 35.9583
78.0088 1242 35.242
78.1256 1226 35.0143
78.2423 1084 32.9242
78.3591 1067 32.665
78.4759 1061 32.573
78.5928 1094 33.0757
78.7097 1245 35.2846
78.8266 1244 35.2704
78.9436 1488 38.5746
79.0606 1407 37.51
79.1776 1368 36.9865
79.2946 1423 37.7227
79.4117 1456 38.1576
79.5288 1451 38.092
79.6459 1514 38.9102
79.7631 1427 37.7757
79.8802 1344 36.6606
79.9974 1278 35.7491
80.1147 1215 34.8569
80.2319 1030 32.0936
80.3491 1006 31.7175
80.4664 979 31.289
80.5837 1010 31.7805
80.701 1065 32.6343
80.8183 1134 33.6749
80.9357 1273 35.6791
81.053 1257 35.4542
81.1704 1260 35.4965
81.2877 1326 36.4143
81.4051 1293 35.9583
81.5225 1267 35.5949
81.6399 1206 34.7275
81.7573 1124 33.5261
81.8747 1073 32.7567
81.9922 963 31.0322
82.1096 1039 32.2335
82.227 1100 33.1662
82.3444 1131 33.6303
82.4619 1150 33.9116
82.5793 1318 36.3043
82.6967 1269 35.623
82.8142 1300 36.0555
82.9316 1353 36.7831
83.049 1350 36.7423
83.1664 1226 35.0143
83.2838 1239 35.1994
83.4012 1251 35.3695
83.5186 1164 34.1174
83.636 1173 34.2491
83.7534 1088 32.9848
83.8708 949 30.8058
83.9881 900 30
84.1055 859 29.3087
84.2228 922 30.3645
84.3401 915 30.249
84.4575 1093 33.0606
84.5747 1148 33.8821
84.692 1233 35.1141
84.8093 1168 34.176
84.9265 1152 33.9411
85.0437 1157 34.0147
85.1609 1159 34.0441
85.2781 1045 32.3265
85.3952 999 31.607
85.5123 944 30.7246
85.6294 914 30.2324
85.7465 1014 31.8434
85.8636 1152 33.9411
85.9806 1270 35.6371
86.0976 1254 35.4119
86.2145 1346 36.6879
86.3315 1341 36.6197
86.4484 1501 38.7427
86.5652 1425 37.7492
86.682 1516 38.9358
86.7988 1466 38.2884
86.9156 1477 38.4318
87.0323 1357 36.8375
87.149 1384 37.2022
87.2657 1265 35.5668
87.3823 1104 33.2265
87.4988 1064 32.619
87.6154 1069 32.6956
87.7318 1110 33.3167
87.8483 1183 34.3948
87.9647 1345 36.6742
88.081 1381 37.1618
88.1973 1432 37.8418
88.3136 1458 38.1838
88.4298 1447 38.0395
88.546 1445 38.0132
88.6621 1404 37.47
88.7781 1196 34.5832
88.8942 0 1
89.0101 0 1
89.126 0 1
89.2419 0 1
89.3577 0 1
89.4734 0 1
89.5891 0 1
89.7047 0 1
89.8203 0 1
89.9358 0 1
92.3269 0 1
92.4424 0 1
92.558 0 1
92.6736 0 1
92.7893 0 1
92.905 0 1
93.0208 0 1
93.1366 0 1
93.2525 0 1
93.3685 0 1
93.4845 0 1
93.6005 1377 37.108
93.7167 1356 36.8239
93.8328 1440 37.9473
93.949 1404 37.47
94.0653 1383 37.1887
94.1816 1333 36.5103
94.2979 1230 35.0714
94.4143 1203 34.6843
94.5307 1114 33.3766
94.6472 1120 33.4664
94.7637 1123 33.5112
94.8803 1225 35
94.9969 1325 36.4005
95.1135 1380 37.1484
95.2302 1525 39.0512
95.3469 1485 38.5357
95.4637 1573 39.6611
95.5805 1568 39.598
95.6973 1630 40.3733
95.8142 1616 40.1995
95.9311 1566 39.5727
96.048 1567 39.5854
96.1649 1558 39.4715
96.2819 1414 37.6032
96.3989 1355 36.8103
96.516 1290 35.9166
96.633 1237 35.171
96.7501 1135 33.6898
96.8673 1201 34.6554
96.9844 1249 35.3412
97.1016 1338 36.5787
97.2188 1379 37.1349
97.336 1530 39.1152
97.4532 1602 40.025
97.5704 1517 38.9487
97.6877 1486 38.5487
97.805 1395 37.3497
97.9223 1337 36.565
98.0396 1257 35.4542
98.1569 1155 33.9853
98.2743 1080 32.8634
98.3916 1077 32.8177
98.509 1193 34.5398
98.6264 1289 35.9026
98.7438 1414 37.6032
98.8612 1510 38.8587
98.9786 1561 39.5095
99.096 1555 39.4335
99.2134 1701 41.2432
99.3308 1580 39.7492
99.4482 1644 40.5463
99.5656 1646 40.5709
99.6831 1538 39.2173
99.8005 1541 39.2556
99.9179 1458 38.1838
100.035 1354 36.7967
100.153 1340 36.606
100.27 1220 34.9285
100.388 1197 34.5977
100.505 1240 35.2136
100.622 1374 37.0675
100.74 1398 37.3898
100.857 1536 39.1918
100.975 1542 39.2683
101.092 1529 39.1024
101.209 1530 39.1152
101.327 1516 38.9358
101.444 1422 37.7094
101.561 1351 36.756
101.679 1257 35.4542
101.796 1161 34.0735
101.913 1139 33.7491
102.03 1185 34.4238
102.148 1362 36.9053
102.265 1588 39.8497
102.382 1507 38.8201
102.499 1574 39.6737
102.616 1701 41.2432
102.733 1713 41.3884
102.851 1746 41.7852
102.968 1724 41.5211
103.085 1796 42.3792
103.202 1657 40.7063
103.319 1654 40.6694
103.436 1602 40.025
103.552 1510 38.8587
103.669 1386 37.229
103.786 1376 37.0945
103.903 1339 36.5923
104.02 1398 37.3898
104.137 1510 38.8587
104.253 1559 39.4842
104.37 1530 39.1152
104.487 1747 41.7971
104.603 1715 41.4126
104.72 1576 39.6989
104.836 1631 40.3856
104.953 1468 38.3145
105.069 1391 37.2961
105.186 1228 35.0428
105.302 1239 35.1994
105.418 1194 34.5543
105.535 1375 37.081
105.651 1483 38.5097
105.767 1655 40.6817
105.883 1710 41.3521
105.999 1853 43.0465
106.115 0 1
106.231 0 1
106.347 0 1
106.463 0 1
106.579 0 1
106.694 0 1
106.81 0 1
106.926 0 1
107.041 0 1
107.157 0 1
109.576 0 1
109.692 0 1
109.807 0 1
109.923 0 1
110.039 0 1
110.155 0 1
110.27 0 1
110.386 0 1
110.502 0 1
110.618 1245 35.2846
110.735 1528 39.0896
110.851 1587 39.8372
110.967 1684 41.0366
111.083 1710 41.3521
111.199 1739 41.7013
111.316 1910 43.7035
111.432 1832 42.8019
111.549 1801 42.4382
111.665 1767 42.0357
111.782 1739 41.7013
111.898 1692 41.1339
112.015 1548 39.3446
112.132 1539 39.2301
112.248 1422 37.7094
112.365 1397 37.3765
112.482 1378 37.1214
112.599 1406 37.4967
112.716 1521 39
112.832 1580 39.7492
112.949 1580 39.7492
113.066 1624 40.2989
113.183 1582 39.7744
113.3 1624 40.2989
113.417 1492 38.6264
113.534 1374 37.0675
113.652 1304 36.1109
113.769 1215 34.8569
113.886 1210 34.7851
114.003 1151 33.9264
114.12 1267 35.5949
114.238 1454 38.1314
114.355 1582 39.7744
114.472 1691 41.1218
114.589 1588 39.8497
114.707 1655 40.6817
114.824 1714 41.4005
114.942 1711 41.3642
115.059 1673 40.9023
115.176 1706 41.3038
115.294 1593 39.9124
115.411 1578 39.724
115.529 1406 37.4967
115.646 1488 38.5746
115.764 1464 38.2623
115.881 1326 36.4143
115.999 1355 36.8103
116.116 1413 37.5899
116.234 1417 37.6431
116.351 1507 38.8201
116.469 1448 38.0526
116.586 1565 39.5601
116.704 1484 38.5227
116.821 1485 38.5357
116.939 1463 38.2492
117.056 1457 38.1707
117.174 1360 36.8782
117.291 1249 35.3412
117.409 1123 33.5112
117.526 1161 34.0735
117.644 1195 34.5688
117.761 1346 36.6879
117.879 1442 37.9737
117.996 1554 39.4208
118.114 1585 39.8121
118.231 1615 40.1871
118.349 1636 40.4475
118.466 1669 40.8534
118.584 1611 40.1373
118.701 1652 40.6448
118.819 1651 40.6325
118.936 1547 39.3319
119.053 1549 39.3573
119.171 1487 38.5616
119.288 1409 37.5366
119.405 1366 36.9594
119.523 1350 36.7423
119.64 1391 37.2961
119.757 1278 35.7491
119.875 1334 36.524
119.992 1398 37.3898
120.109 1435 37.8814
120.226 1505 38.7943
120.343 1449 38.0657
120.46 1390 37.2827
120.578 1441 37.9605
120.695 1281 35.7911
120.812 1322 36.3593
120.929 1187 34.4529
121.046 1119 33.4515
121.163 1145 33.8378
121.279 1148 33.8821
121.396 1277 35.7351
121.513 1419 37.6696
121.63 1413 37.5899
121.747 1606 40.0749
121.863 1571 39.6358
121.98 1563 39.5348
122.097 1608 40.0999
122.213 1535 39.1791
122.33 1547 39.3319
122.446 1538 39.2173
122.563 1516 38.9358
122.679 1456 38.1576
122.795 1453 38.1182
122.912 1354 36.7967
123.028 1363 36.9188
123.144 1288 35.8887
123.26 1248 35.327
123.377 0 1
123.493 0 1
123.609 0 1
123.725 0 1
123.84 0 1
123.956 0 1
124.072 0 1
124.188 0 1
124.303 0 1
124.419 0 1
126.852 0 1
126.968 0 1
127.083 0 1
127.199 0 1
127.315 0 1
127.431 0 1
127.547 0 1
127.663 0 1
127.779 0 1
127.895 0 1
128.011 0 1
128.127 0 1
128.243 0 1
128.359 1464 38.2623
128.476 1439 37.9342
128.592 1514 38.9102
128.708 1533 39.1535
128.825 1521 39
128.941 1624 40.2989
129.058 1544 39.2938
129.174 1641 40.5093
129.291 1658 40.7185
129.408 1591 39.8873
129.524 1594 39.9249
129.641 1477 38.4318
129.758 1344 36.6606
129.875 1297 36.0139
129.992 1239 35.1994
130.108 1280 35.7771
130.225 1360 36.8782
130.342 1442 37.9737
130.459 1499 38.7169
130.576 1623 40.2865
130.693 1642 40.5216
130.81 1678 40.9634
130.928 1757 41.9166
131.045 1748 41.8091
131.162 1776 42.1426
131.279 1742 41.7373
131.396 1712 41.3763
131.513 1677 40.9512
131.631 1673 40.9023
131.748 1571 39.6358
131.865 1564 39.5474
131.983 1558 39.4715
132.1 1545 39.3065
132.217 1634 40.4228
132.335 1603 40.0375
132.452 1599 39.9875
132.57 1687 41.0731
132.687 1610 40.1248
132.804 1654 40.6694
132.922 1642 40.5216
133.039 1592 39.8999
133.157 1533 39.1535
133.274 1448 38.0526
133.392 1443 37.9868
133.509 1265 35.5668
133.627 1243 35.2562
133.744 1310 36.1939
133.862 1354 36.7967
133.979 1432 37.8418
134.097 1491 38.6135
134.214 1621 40.2616
134.332 1589 39.8623
134.449 1649 40.6079
134.567 1746 41.7852
134.684 1741 41.7253
134.802 1720 41.4729
134.919 1707 41.3159
135.037 1705 41.2916
135.154 1668 40.8412
135.272 1589 39.8623
135.389 1630 40.3733
135.507 1553 39.4081
135.624 1562 39.5221
135.742 1642 40.5216
135.859 1695 41.1704
135.977 1679 40.9756
136.094 1612 40.1497
136.211 1647 40.5832
136.329 1623 40.2865
136.446 1665 40.8044
136.564 1681 41
136.681 1636 40.4475
136.798 1531 39.128
136.915 1492 38.6264
137.033 1309 36.1801
137.15 1265 35.5668
137.267 1303 36.0971
137.384 1235 35.1426
137.502 1328 36.4417
137.619 1515 38.923
137.736 1602 40.025
137.853 1598 39.975
137.97 1618 40.2244
138.087 1630 40.3733
138.204 1708 41.328
138.321 1662 40.7676
138.438 1651 40.6325
138.555 1723 41.509
138.672 1696 41.1825
138.788 1728 41.5692
138.905 1724 41.5211
139.022 1699 41.2189
139.139 1669 40.8534
139.255 1710 41.3521
139.372 1731 41.6053
139.488 1732 41.6173
139.605 1770 42.0714
139.721 1897 43.5546
139.838 1789 42.2966
139.954 1812 42.5676
140.071 1774 42.1189
140.187 1734 41.6413
140.303 1776 42.1426
140.419 1638 40.4722
140.535 1545 39.3065
140.652 1361 36.8917
140.768 0 1
140.884 0 1
141 0 1
141.115 0 1
141.231 0 1
141.347 0 1
141.463 0 1
141.578 0 1
141.694 0 1
144.104 0 1
144.219 0 1
144.335 0 1
144.45 0 1
144.566 0 1
144.682 0 1
144.798 0 1
144.914 0 1
145.03 0 1
145.146 1458 38.1838
145.262 1532 39.1408
145.378 1501 38.7427
145.494 1402 37.4433
145.61 1363 36.9188
145.726 1266 35.5809
145.842 1212 34.8138
145.959 1179 34.3366
146.075 1200 34.641
146.192 1281 35.7911
146.308 1444 38
146.425 1409 37.5366
146.541 1457 38.1707
146.658 1435 37.8814
146.774 1398 37.3898
146.891 1490 38.6005
147.008 1506 38.8072
147.125 1525 39.0512
147.241 1595 39.9375
147.358 1525 39.0512
147.475 1561 39.5095
147.592 1501 38.7427
147.709 1538 39.2173
147.826 1528 39.0896
147.943 1538 39.2173
148.06 1472 38.3667
148.177 1546 39.3192
148.294 1486 38.5487
148.411 1491 38.6135
148.528 1509 38.8458
148.645 1500 38.7298
148.762 1472 38.3667
148.88 1433 37.855
148.997 1311 36.2077
149.114 1345 36.6742
149.231 1320 36.3318
149.349 1215 34.8569
149.466 1122 33.4963
149.583 1119 33.4515
149.701 1131 33.6303
149.818 1201 34.6554
149.935 1210 34.7851
150.053 1330 36.4692
150.17 1254 35.4119
150.287 1334 36.524
150.405 1409 37.5366
150.522 1467 38.3014
150.64 1445 38.0132
150.757 1450 38.0789
150.875 1453 38.1182
150.992 1502 38.7556
151.11 1475 38.4057
151.227 1460 38.2099
151.344 1422 37.7094
151.462 1371 37.027
151.579 1443 37.9868
151.697 1430 37.8153
151.814 1487 38.5616
151.932 1486 38.5487
152.049 1433 37.855
152.167 1451 38.092
152.284 1414 37.6032
152.402 1391 37.2961
152.519 1425 37.7492
152.636 1346 36.6879
152.754 1269 35.623
152.871 1258 35.4683
152.989 1184 34.4093
153.106 1063 32.6037
153.223 1144 33.8231
153.341 1070 32.7109
153.458 1161 34.0735
153.575 1230 35.0714
153.693 1257 35.4542
153.81 1347 36.7015
153.927 1375 37.081
154.044 1382 37.1753
154.162 1471 38.3536
154.279 1502 38.7556
154.396 1581 39.7618
154.513 1551 39.3827
154.63 1522 39.0128
154.747 1546 39.3192
154.864 1577 39.7115
154.981 1534 39.1663
155.098 1505 38.7943
155.215 1533 39.1535
155.332 1526 39.064
155.449 1537 39.2046
155.566 1536 39.1918
155.683 1522 39.0128
155.8 1531 39.128
155.917 1504 38.7814
156.033 1492 38.6264
156.15 0 1
156.267 0 1
156.383 0 1
156.5 0 1
156.617 0 1
156.733 0 1
156.85 0 1
156.966 0 1
157.082 0 1
157.199 0 1
157.315 0 1
157.431 0 1
157.547 0 1
157.664 0 1
157.78 0 1
157.896 0 1
158.012 0 1
158.128 0 1
158.244 0 1
158.359 0 1
158.475 0 1
158.591 0 1
158.706 0 1
