
6.15755 0 1
6.2731 0 1
6.3887 0 1
6.50437 0 1
6.62009 0 1
6.73587 0 1
6.8517 0 1
6.96759 0 1
7.08353 0 1
7.19952 0 1
7.31557 0 1
7.43166 0 1
7.54781 0 1
7.664 0 1
7.78024 0 1
7.89653 0 1
8.01286 0 1
8.12924 0 1
8.24567 0 1
8.36213 0 1
8.47864 0 1
8.59519 0 1
8.71178 0 1
8.82841 0 1
8.94508 0 1
9.06179 0 1
9.17853 0 1
9.29531 0 1
9.41212 0 1
9.52897 0 1
9.64584 0 1
9.76276 0 1
9.8797 0 1
9.99667 0 1
10.1137 0 1
10.2307 0 1
10.3478 0 1
10.4648 0 1
10.5819 0 1
10.6991 0 1
10.8162 0 1
10.9334 0 1
11.0506 0 1
11.1678 0 1
11.285 0 1
11.4023 0 1
11.5196 0 1
11.6369 0 1
11.7542 0 1
11.8715 0 1
11.9888 0 1
12.1062 0 1
12.2235 0 1
12.3409 0 1
12.4582 0 1
12.5756 0 1
12.693 0 1
12.8104 0 1
12.9278 0 1
13.0452 0 1
13.1626 0 1
13.28 0 1
13.3974 0 1
13.5149 0 1
13.6323 0 1
13.7497 0 1
13.8671 0 1
13.9845 0 1
14.1019 0 1
14.2193 0 1
14.3367 0 1
14.4541 0 1
14.5714 0 1
14.6888 0 1
14.8062 0 1
14.9235 0 1
15.0408 0 0
15.1581 0 0
15.2755 0 0
15.3927 0 0
15.51 0 0
15.6273 0 0
15.7445 0 0
15.8617 0 0
15.9789 0 0
16.0961 0 0
16.2132 0 0
16.3304 0 0
16.4475 0 0
16.5646 0 0
16.6816 0 0
16.7986 0 0
16.9156 0 0
17.0326 0 0
17.1496 0 0
17.2665 0 0
17.3833 0 0
17.5002 0 0
17.617 0 0
17.7338 0 0
17.8505 0 0
17.9672 0 0
18.0839 0 0
18.2005 0 0
18.3171 0 0
18.4337 0 0
18.5502 0 0
18.6666 0 0
18.7831 0 0
18.8994 0 0
19.0158 0 0
19.1321 0 0
19.2483 0 0
19.3645 0 0
19.4806 0 0
19.5967 0 0
19.7128 0 0
19.8288 0 0
19.9447 0 0
20.0606 0 1
20.1764 0 1
20.2922 0 1
20.4079 0 1
20.5236 0 1
20.6392 0 1
20.7548 0 1
20.8702 0 1
23.3078 0 1
23.4233 0 1
23.539 0 1
23.6547 0 1
23.7704 0 1
23.8862 0 1
24.0021 0 1
24.118 0 1
24.234 0 1
24.35 0 1
24.4661 1376 37.0945
24.5822 1408 37.5233
24.6984 1397 37.3765
24.8146 1361 36.8917
24.9309 1388 37.2559
25.0472 1357 36.8375
25.1636 1380 37.1484
25.28 1540 39.2428
25.3965 1472 38.3667
25.513 1530 39.1152
25.6296 1605 40.0625
25.7462 1724 41.5211
25.8628 1732 41.6173
25.9795 1719 41.4608
26.0962 1852 43.0349
26.213 1731 41.6053
26.3298 1703 41.2674
26.4466 1753 41.8688
26.5635 1746 41.7852
26.6804 1719 41.4608
26.7973 1748 41.8091
26.9143 1746 41.7852
27.0313 1667 40.8289
27.1483 1654 40.6694
27.2653 1738 41.6893
27.3824 1736 41.6653
27.4996 1678 40.9634
27.6167 1735 41.6533
27.7339 1685 41.0488
27.8511 1628 40.3485
27.9683 1563 39.5348
28.0855 1526 39.064
28.2028 1493 38.6394
28.3201 1500 38.7298
28.4374 1427 37.7757
28.5547 1314 36.2491
28.6721 1267 35.5949
28.7894 1362 36.9053
28.9068 1475 38.4057
29.0242 1477 38.4318
29.1416 1569 39.6106
29.259 1600 40
29.3764 1675 40.9268
29.4939 1710 41.3521
29.6113 1750 41.833
29.7288 1762 41.9762
29.8463 1717 41.4367
29.9638 1726 41.5452
30.0812 1717 41.4367
30.1987 1754 41.8808
30.3162 1724 41.5211
30.4337 1662 40.7676
30.5512 1687 41.0731
30.6687 1671 40.8779
30.7862 1645 40.5586
30.9037 1817 42.6263
31.0212 1709 41.3401
31.1387 1771 42.0833
31.2562 1702 41.2553
31.3737 1682 41.0122
31.4912 1597 39.9625
31.6087 1645 40.5586
31.7262 1560 39.4968
31.8436 1515 38.923
31.9611 1467 38.3014
32.0785 1410 37.55
32.1959 1452 38.1051
32.3134 1422 37.7094
32.4308 1419 37.6696
32.5482 1525 39.0512
32.6655 1592 39.8999
32.7829 1676 40.939
32.9002 1683 41.0244
33.0176 1784 42.2374
33.1349 1753 41.8688
33.2522 1800 42.4264
33.3694 1786 42.2611
33.4867 1761 41.9643
33.6039 1768 42.0476
33.7211 1731 41.6053
33.8383 1823 42.6966
33.9554 1735 41.6533
34.0725 1735 41.6533
34.1896 1687 41.0731
34.3067 1682 41.0122
34.4237 1666 40.8167
34.5407 1664 40.7922
34.6577 1722 41.497
34.7746 1726 41.5452
34.8915 1709 41.3401
35.0084 1777 42.1545
35.1252 1725 41.5331
35.242 1649 40.6079
35.3587 1570 39.6232
35.4755 1455 38.1445
35.5921 1514 38.9102
35.7088 1453 38.1182
35.8254 1421 37.6962
35.9419 1359 36.8646
36.0584 1509 38.8458
36.1749 1458 38.1838
36.2913 1506 38.8072
36.4077 1611 40.1373
36.524 1640 40.4969
36.6403 1634 40.4228
36.7565 1739 41.7013
36.8727 1716 41.4246
36.9889 1814 42.5911
37.1049 1740 41.7133
37.221 0 1
37.3369 0 1
37.4529 0 1
37.5687 0 1
37.6845 0 1
37.8003 0 1
37.916 0 1
38.0316 0 1
38.1472 0 1
40.5851 0 1
40.7008 0 1
40.8164 0 1
40.9322 0 1
41.048 0 1
41.1639 0 1
41.2798 0 1
41.3958 0 1
41.5118 0 1
41.6279 0 1
41.744 1439 37.9342
41.8602 1431 37.8286
41.9765 1608 40.0999
42.0928 1661 40.7554
42.2091 1653 40.6571
42.3255 1690 41.1096
42.4419 1587 39.8372
42.5584 1630 40.3733
42.675 1544 39.2938
42.7915 1458 38.1838
42.9081 1458 38.1838
43.0248 1432 37.8418
43.1415 1551 39.3827
43.2582 1519 38.9744
43.375 1537 39.2046
43.4918 1486 38.5487
43.6087 1494 38.6523
43.7256 1499 38.7169
43.8425 1518 38.9615
43.9595 1462 38.2361
44.0765 1427 37.7757
44.1935 1375 37.081
44.3106 1361 36.8917
44.4277 1262 35.5246
44.5448 1273 35.6791
44.6619 1118 33.4365
44.7791 1091 33.0303
44.8963 1167 34.1614
45.0136 1171 34.2199
45.1308 1204 34.6987
45.2481 1184 34.4093
45.3654 1237 35.171
45.4827 1339 36.5923
45.6001 1284 35.8329
45.7174 1249 35.3412
45.8348 1282 35.805
45.9522 1285 35.8469
46.0697 1289 35.9026
46.1871 1255 35.426
46.3046 1168 34.176
46.422 1149 33.8969
46.5395 1038 32.218
46.657 1053 32.45
46.7745 1064 32.619
46.892 1151 33.9264
47.0096 1129 33.6006
47.1271 1147 33.8674
47.2446 1140 33.7639
47.3622 1110 33.3167
47.4797 1127 33.5708
47.5973 1042 32.28
47.7149 1081 32.8786
47.8324 974 31.209
47.95 953 30.8707
48.0675 935 30.5778
48.1851 844 29.0517
48.3027 901 30.0167
48.4202 835 28.8964
48.5378 900 30
48.6554 944 30.7246
48.7729 967 31.0966
48.8904 976 31.241
49.008 1043 32.2955
49.1255 1043 32.2955
49.243 1020 31.9374
49.3605 1013 31.8277
49.478 1089 33
49.5955 1013 31.8277
49.713 984 31.3688
49.8304 900 30
49.9479 858 29.2916
50.0653 956 30.9192
50.1827 920 30.3315
50.3001 933 30.545
50.4175 1096 33.1059
50.5348 1021 31.9531
50.6521 1095 33.0908
50.7694 1098 33.1361
50.8867 1081 32.8786
51.004 1085 32.9393
51.1212 1122 33.4963
51.2384 1180 34.3511
51.3556 1110 33.3167
51.4727 1114 33.3766
51.5899 1081 32.8786
51.707 1032 32.1248
51.824 1021 31.9531
51.9411 1021 31.9531
52.0581 1089 33
52.175 1102 33.1964
52.2919 1233 35.1141
52.4088 1237 35.171
52.5257 1274 35.6931
52.6425 1262 35.5246
52.7593 1275 35.7071
52.876 1389 37.2693
52.9927 1265 35.5668
53.1094 1299 36.0416
53.226 1357 36.8375
53.3426 1243 35.2562
53.4591 1260 35.4965
53.5756 1197 34.5977
53.692 1202 34.6699
53.8084 1323 36.3731
53.9248 1229 35.0571
54.0411 1325 36.4005
54.1573 1360 36.8782
54.2735 0 1
54.3896 0 1
54.5057 0 1
54.6217 0 1
54.7377 0 1
54.8537 0 1
54.9695 0 1
55.0853 0 1
55.2011 0 1
55.3168 0 1
55.4324 0 1
57.824 0 1
57.9396 0 1
58.0553 0 1
58.1711 0 1
58.2869 0 1
58.4028 0 1
58.5187 0 1
58.6347 0 1
58.7508 0 1
58.8669 0 1
58.983 1299 36.0416
59.0992 1533 39.1535
59.2155 1533 39.1535
59.3318 1578 39.724
59.4482 1616 40.1995
59.5646 1658 40.7185
59.681 1643 40.5339
59.7975 1674 40.9145
59.9141 1637 40.4599
60.0306 1619 40.2368
60.1473 1568 39.598
60.2639 1453 38.1182
60.3807 1400 37.4166
60.4974 1249 35.3412
60.6142 1299 36.0416
60.731 1230 35.0714
60.8479 1242 35.242
60.9648 1330 36.4692
61.0818 1422 37.7094
61.1987 1474 38.3927
61.3158 1436 37.8946
61.4328 1510 38.8587
61.5499 1535 39.1791
61.667 1472 38.3667
61.7841 1461 38.223
61.9013 1411 37.5633
62.0185 1361 36.8917
62.1357 1297 36.0139
62.253 1259 35.4824
62.3702 1324 36.3868
62.4875 1396 37.3631
62.6049 1492 38.6264
62.7222 1530 39.1152
62.8396 1455 38.1445
62.9569 1490 38.6005
63.0743 1503 38.7685
63.1918 1543 39.281
63.3092 1539 39.2301
63.4267 1450 38.0789
63.5441 1461 38.223
63.6616 1468 38.3145
63.7791 1392 37.3095
63.8966 1255 35.426
64.0142 1156 34
64.1317 1133 33.6601
64.2492 1185 34.4238
64.3668 1226 35.0143
64.4843 1227 35.0286
64.6019 1328 36.4417
64.7195 1337 36.565
64.837 1368 36.9865
64.9546 1345 36.6742
65.0722 1331 36.4829
65.1898 1374 37.0675
65.3074 1359 36.8646
65.4249 1323 36.3731
65.5425 1204 34.6987
65.6601 1192 34.5254
65.7777 1139 33.7491
65.8952 1170 34.2053
66.0128 1195 34.5688
66.1304 1298 36.0278
66.2479 1311 36.2077
66.3655 1430 37.8153
66.483 1447 38.0395
66.6005 1503 38.7685
66.718 1460 38.2099
66.8355 1428 37.7889
66.953 1463 38.2492
67.0705 1345 36.6742
67.1879 1350 36.7423
67.3054 1264 35.5528
67.4228 1203 34.6843
67.5402 1096 33.1059
67.6576 1019 31.9218
67.7749 1011 31.7962
67.8923 1063 32.6037
68.0096 1101 33.1813
68.1269 1178 34.322
68.2442 1206 34.7275
68.3614 1320 36.3318
68.4787 1312 36.2215
68.5958 1368 36.9865
68.713 1342 36.6333
68.8302 1375 37.081
68.9473 1287 35.8748
69.0643 1268 35.609
69.1814 1199 34.6266
69.2984 1165 34.1321
69.4154 1122 33.4963
69.5323 1185 34.4238
69.6492 1200 34.641
69.7661 1310 36.1939
69.8829 1386 37.229
69.9997 1458 38.1838
70.1165 1416 37.6298
70.2332 1414 37.6032
70.3499 1481 38.4838
70.4665 1343 36.647
70.5831 1357 36.8375
70.6996 1379 37.1349
70.8161 1323 36.3731
70.9326 1305 36.1248
71.049 1185 34.4238
71.1653 1135 33.6898
71.2817 1060 32.5576
71.3979 907 30.1164
71.5141 979 31.289
71.6303 996 31.5595
71.7464 939 30.6431
71.8624 0 1
71.9784 0 1
72.0944 0 1
72.2102 0 1
72.3261 0 1
72.4418 0 1
72.5575 0 1
72.6732 0 1
75.1054 0 1
75.2209 0 1
75.3365 0 1
75.4521 0 1
75.5678 0 1
75.6835 0 1
75.7993 0 1
75.9151 0 1
76.031 0 1
76.147 1199 34.6266
76.263 1260 35.4965
76.3791 1201 34.6554
76.4952 1146 33.8526
76.6113 1021 31.9531
76.7276 971 31.1609
76.8438 945 30.7409
76.9601 1010 31.7805
77.0765 1064 32.619
77.1929 1124 33.5261
77.3093 1218 34.8999
77.4258 1243 35.2562
77.5423 1184 34.4093
77.6589 1328 36.4417
77.7755 1295 35.9861
77.8921 1306 36.1386
78.0088 1235 35.1426
78.1256 1089 33
78.2423 1040 32.249
78.3591 1035 32.1714
78.4759 1005 31.7017
78.5928 1044 32.311
78.7097 1146 33.8526
78.8266 1131 33.6303
78.9436 1271 35.6511
79.0606 1397 37.3765
79.1776 1295 35.9861
79.2946 1366 36.9594
79.4117 1346 36.6879
79.5288 1384 37.2022
79.6459 1313 36.2353
79.7631 1291 35.9305
79.8802 1304 36.1109
79.9974 1206 34.7275
80.1147 1173 34.2491
80.2319 939 30.6431
80.3491 848 29.1204
80.4664 967 31.0966
80.5837 944 30.7246
80.701 982 31.3369
80.8183 1073 32.7567
80.9357 1123 33.5112
81.053 1185 34.4238
81.1704 1180 34.3511
81.2877 1227 35.0286
81.4051 1245 35.2846
81.5225 1182 34.3802
81.6399 1086 32.9545
81.7573 1062 32.5883
81.8747 905 30.0832
81.9922 903 30.05
82.1096 923 30.3809
82.227 1029 32.078
82.3444 1012 31.8119
82.4619 1110 33.3167
82.5793 1295 35.9861
82.6967 1164 34.1174
82.8142 1234 35.1283
82.9316 1244 35.2704
83.049 1243 35.2562
83.1664 1262 35.5246
83.2838 1181 34.3657
83.4012 1162 34.0881
83.5186 1183 34.3948
83.636 1080 32.8634
83.7534 1028 32.0624
83.8708 892 29.8664
83.9881 821 28.6531
84.1055 857 29.2746
84.2228 888 29.7993
84.3401 948 30.7896
84.4575 1049 32.3883
84.5747 1117 33.4215
84.692 1091 33.0303
84.8093 1136 33.7046
84.9265 1140 33.7639
85.0437 1120 33.4664
85.1609 1065 32.6343
85.2781 1064 32.619
85.3952 948 30.7896
85.5123 925 30.4138
85.6294 932 30.5287
85.7465 863 29.3769
85.8636 995 31.5436
85.9806 1150 33.9116
86.0976 1251 35.3695
86.2145 1241 35.2278
86.3315 1254 35.4119
86.4484 1448 38.0526
86.5652 1300 36.0555
86.682 1311 36.2077
86.7988 1386 37.229
86.9156 1287 35.8748
87.0323 1319 36.318
87.149 1283 35.819
87.2657 1270 35.6371
87.3823 1140 33.7639
87.4988 1038 32.218
87.6154 992 31.496
87.7318 1011 31.7962
87.8483 1094 33.0757
87.9647 1263 35.5387
88.081 1312 36.2215
88.1973 1328 36.4417
88.3136 1370 37.0135
88.4298 1288 35.8887
88.546 1347 36.7015
88.6621 1269 35.623
88.7781 1159 34.0441
88.8942 0 1
89.0101 0 1
89.126 0 1
89.2419 0 1
89.3577 0 1
89.4734 0 1
89.5891 0 1
89.7047 0 1
89.8203 0 1
89.9358 0 1
92.3269 0 1
92.4424 0 1
92.558 0 1
92.6736 0 1
92.7893 0 1
92.905 0 1
93.0208 0 1
93.1366 0 1
93.2525 0 1
93.3685 0 1
93.4845 0 1
93.6005 1317 36.2905
93.7167 1343 36.647
93.8328 1338 36.5787
93.949 1323 36.3731
94.0653 1335 36.5377
94.1816 1251 35.3695
94.2979 1224 34.9857
94.4143 1143 33.8083
94.5307 1053 32.45
94.6472 1023 31.9844
94.7637 993 31.5119
94.8803 1136 33.7046
94.9969 1330 36.4692
95.1135 1268 35.609
95.2302 1333 36.5103
95.3469 1399 37.4032
95.4637 1532 39.1408
95.5805 1562 39.5221
95.6973 1481 38.4838
95.8142 1550 39.37
95.9311 1465 38.2753
96.048 1504 38.7814
96.1649 1370 37.0135
96.2819 1370 37.0135
96.3989 1287 35.8748
96.516 1261 35.5106
96.633 1181 34.3657
96.7501 1191 34.5109
96.8673 1159 34.0441
96.9844 1241 35.2278
97.1016 1181 34.3657
97.2188 1366 36.9594
97.336 1361 36.8917
97.4532 1468 38.3145
97.5704 1541 39.2556
97.6877 1377 37.108
97.805 1358 36.8511
97.9223 1280 35.7771
98.0396 1121 33.4813
98.1569 997 31.5753
98.2743 1021 31.9531
98.3916 1053 32.45
98.509 1080 32.8634
98.6264 1229 35.0571
98.7438 1268 35.609
98.8612 1433 37.855
98.9786 1498 38.704
99.096 1566 39.5727
99.2134 1578 39.724
99.3308 1590 39.8748
99.4482 1556 39.4462
99.5656 1485 38.5357
99.6831 1527 39.0768
99.8005 1372 37.0405
99.9179 1392 37.3095
100.035 1322 36.3593
100.153 1233 35.1141
100.27 1209 34.7707
100.388 1095 33.0908
100.505 1231 35.0856
100.622 1242 35.242
100.74 1363 36.9188
100.857 1407 37.51
100.975 1425 37.7492
101.092 1483 38.5097
101.209 1462 38.2361
101.327 1375 37.081
101.444 1407 37.51
101.561 1210 34.7851
101.679 1125 33.541
101.796 1095 33.0908
101.913 1015 31.8591
102.03 1194 34.5543
102.148 1391 37.2961
102.265 1485 38.5357
102.382 1486 38.5487
102.499 1522 39.0128
102.616 1638 40.4722
102.733 1666 40.8167
102.851 1594 39.9249
102.968 1636 40.4475
103.085 1579 39.7366
103.202 1660 40.7431
103.319 1570 39.6232
103.436 1483 38.5097
103.552 1420 37.6829
103.669 1346 36.6879
103.786 1279 35.7631
103.903 1284 35.8329
104.02 1333 36.5103
104.137 1392 37.3095
104.253 1479 38.4578
104.37 1501 38.7427
104.487 1618 40.2244
104.603 1558 39.4715
104.72 1592 39.8999
104.836 1499 38.7169
104.953 1485 38.5357
105.069 1283 35.819
105.186 1244 35.2704
105.302 1145 33.8378
105.418 1107 33.2716
105.535 1197 34.5977
105.651 1407 37.51
105.767 1526 39.064
105.883 1627 40.3361
105.999 1764 42
106.115 0 1
106.231 0 1
106.347 0 1
106.463 0 1
106.579 0 1
106.694 0 1
106.81 0 1
106.926 0 1
107.041 0 1
107.157 0 1
109.576 0 1
109.692 0 1
109.807 0 1
109.923 0 1
110.039 0 1
110.155 0 1
110.27 0 1
110.386 0 1
110.502 0 1
110.618 1222 34.9571
110.735 1422 37.7094
110.851 1489 38.5876
110.967 1633 40.4104
111.083 1710 41.3521
111.199 1760 41.9524
111.316 1707 41.3159
111.432 1764 42
111.549 1659 40.7308
111.665 1687 41.0731
111.782 1607 40.0874
111.898 1514 38.9102
112.015 1523 39.0256
112.132 1476 38.4187
112.248 1380 37.1484
112.365 1270 35.6371
112.482 1293 35.9583
112.599 1364 36.9324
112.716 1436 37.8946
112.832 1526 39.064
112.949 1525 39.0512
113.066 1599 39.9875
113.183 1529 39.1024
113.3 1504 38.7814
113.417 1487 38.5616
113.534 1349 36.7287
113.652 1271 35.6511
113.769 1163 34.1028
113.886 1121 33.4813
114.003 1110 33.3167
114.12 1184 34.4093
114.238 1352 36.7696
114.355 1432 37.8418
114.472 1604 40.05
114.589 1478 38.4448
114.707 1627 40.3361
114.824 1611 40.1373
114.942 1667 40.8289
115.059 1665 40.8044
115.176 1564 39.5474
115.294 1585 39.8121
115.411 1443 37.9868
115.529 1410 37.55
115.646 1362 36.9053
115.764 1267 35.5949
115.881 1230 35.0714
115.999 1299 36.0416
116.116 1307 36.1525
116.234 1369 37
116.351 1417 37.6431
116.469 1406 37.4967
116.586 1497 38.6911
116.704 1408 37.5233
116.821 1470 38.3406
116.939 1424 37.7359
117.056 1340 36.606
117.174 1270 35.6371
117.291 1134 33.6749
117.409 1094 33.0757
117.526 1024 32
117.644 1067 32.665
117.761 1230 35.0714
117.879 1426 37.7624
117.996 1449 38.0657
118.114 1454 38.1314
118.231 1617 40.2119
118.349 1569 39.6106
118.466 1430 37.8153
118.584 1557 39.4588
118.701 1613 40.1622
118.819 1569 39.6106
118.936 1441 37.9605
119.053 1456 38.1576
119.171 1421 37.6962
119.288 1338 36.5787
119.405 1241 35.2278
119.523 1241 35.2278
119.64 1312 36.2215
119.757 1296 36
119.875 1345 36.6742
119.992 1401 37.4299
120.109 1458 38.1838
120.226 1375 37.081
120.343 1440 37.9473
120.46 1392 37.3095
120.578 1398 37.3898
120.695 1305 36.1248
120.812 1254 35.4119
120.929 1148 33.8821
121.046 1087 32.9697
121.163 1058 32.5269
121.279 1092 33.0454
121.396 1175 34.2783
121.513 1242 35.242
121.63 1356 36.8239
121.747 1537 39.2046
121.863 1538 39.2173
121.98 1470 38.3406
122.097 1556 39.4462
122.213 1610 40.1248
122.33 1532 39.1408
122.446 1448 38.0526
122.563 1458 38.1838
122.679 1391 37.2961
122.795 1391 37.2961
122.912 1330 36.4692
123.028 1251 35.3695
123.144 1324 36.3868
123.26 1250 35.3553
123.377 0 1
123.493 0 1
123.609 0 1
123.725 0 1
123.84 0 1
123.956 0 1
124.072 0 1
124.188 0 1
124.303 0 1
124.419 0 1
126.852 0 1
126.968 0 1
127.083 0 1
127.199 0 1
127.315 0 1
127.431 0 1
127.547 0 1
127.663 0 1
127.779 0 1
127.895 0 1
128.011 0 1
128.127 0 1
128.243 0 1
128.359 1383 37.1887
128.476 1445 38.0132
128.592 1432 37.8418
128.708 1470 38.3406
128.825 1546 39.3192
128.941 1635 40.4351
129.058 1641 40.5093
129.174 1519 38.9744
129.291 1559 39.4842
129.408 1546 39.3192
129.524 1455 38.1445
129.641 1432 37.8418
129.758 1355 36.8103
129.875 1373 37.054
129.992 1188 34.4674
130.108 1218 34.8999
130.225 1272 35.6651
130.342 1363 36.9188
130.459 1505 38.7943
130.576 1688 41.0853
130.693 1588 39.8497
130.81 1620 40.2492
130.928 1601 40.0125
131.045 1647 40.5832
131.162 1573 39.6611
131.279 1641 40.5093
131.396 1618 40.2244
131.513 1574 39.6737
131.631 1502 38.7556
131.748 1566 39.5727
131.865 1476 38.4187
131.983 1474 38.3927
132.1 1464 38.2623
132.217 1529 39.1024
132.335 1510 38.8587
132.452 1575 39.6863
132.57 1641 40.5093
132.687 1562 39.5221
132.804 1583 39.7869
132.922 1516 38.9358
133.039 1573 39.6611
133.157 1518 38.9615
133.274 1430 37.8153
133.392 1300 36.0555
133.509 1196 34.5832
133.627 1228 35.0428
133.744 1234 35.1283
133.862 1276 35.7211
133.979 1453 38.1182
134.097 1445 38.0132
134.214 1538 39.2173
134.332 1521 39
134.449 1555 39.4335
134.567 1630 40.3733
134.684 1565 39.5601
134.802 1615 40.1871
134.919 1608 40.0999
135.037 1553 39.4081
135.154 1576 39.6989
135.272 1568 39.598
135.389 1591 39.8873
135.507 1513 38.8973
135.624 1490 38.6005
135.742 1547 39.3319
135.859 1606 40.0749
135.977 1557 39.4588
136.094 1610 40.1248
136.211 1605 40.0625
136.329 1513 38.8973
136.446 1601 40.0125
136.564 1622 40.2741
136.681 1537 39.2046
136.798 1438 37.921
136.915 1373 37.054
137.033 1317 36.2905
137.15 1321 36.3456
137.267 1193 34.5398
137.384 1296 36
137.502 1428 37.7889
137.619 1447 38.0395
137.736 1591 39.8873
137.853 1523 39.0256
137.97 1637 40.4599
138.087 1598 39.975
138.204 1610 40.1248
138.321 1659 40.7308
138.438 1704 41.2795
138.555 1697 41.1947
138.672 1739 41.7013
138.788 1712 41.3763
138.905 1735 41.6533
139.022 1612 40.1497
139.139 1611 40.1373
139.255 1654 40.6694
139.372 1684 41.0366
139.488 1736 41.6653
139.605 1917 43.7836
139.721 1816 42.6146
139.838 1745 41.7732
139.954 1784 42.2374
140.071 1704 41.2795
140.187 1670 40.8656
140.303 1635 40.4351
140.419 1550 39.37
140.535 1493 38.6394
140.652 1443 37.9868
140.768 0 1
140.884 0 1
141 0 1
141.115 0 1
141.231 0 1
141.347 0 1
141.463 0 1
141.578 0 1
141.694 0 1
144.104 0 1
144.219 0 1
144.335 0 1
144.45 0 1
144.566 0 1
144.682 0 1
144.798 0 1
144.914 0 1
145.03 0 1
145.146 1427 37.7757
145.262 1476 38.4187
145.378 1368 36.9865
145.494 1382 37.1753
145.61 1279 35.7631
145.726 1213 34.8281
145.842 1262 35.5246
145.959 1124 33.5261
146.075 1245 35.2846
146.192 1295 35.9861
146.308 1291 35.9305
146.425 1383 37.1887
146.541 1436 37.8946
146.658 1450 38.0789
146.774 1448 38.0526
146.891 1440 37.9473
147.008 1465 38.2753
147.125 1592 39.8999
147.241 1512 38.8844
147.358 1430 37.8153
147.475 1414 37.6032
147.592 1465 38.2753
147.709 1480 38.4708
147.826 1397 37.3765
147.943 1392 37.3095
148.06 1498 38.704
148.177 1471 38.3536
148.294 1445 38.0132
148.411 1463 38.2492
148.528 1426 37.7624
148.645 1415 37.6165
148.762 1393 37.3229
148.88 1417 37.6431
148.997 1333 36.5103
149.114 1318 36.3043
149.231 1215 34.8569
149.349 1170 34.2053
149.466 1122 33.4963
149.583 1106 33.2566
149.701 1089 33
149.818 1175 34.2783
149.935 1182 34.3802
150.053 1254 35.4119
150.17 1297 36.0139
150.287 1350 36.7423
150.405 1394 37.3363
150.522 1368 36.9865
150.64 1421 37.6962
150.757 1480 38.4708
150.875 1425 37.7492
150.992 1405 37.4833
151.11 1330 36.4692
151.227 1465 38.2753
151.344 1402 37.4433
151.462 1454 38.1314
151.579 1453 38.1182
151.697 1453 38.1182
151.814 1444 38
151.932 1422 37.7094
152.049 1404 37.47
152.167 1461 38.223
152.284 1472 38.3667
152.402 1363 36.9188
152.519 1386 37.229
152.636 1292 35.9444
152.754 1261 35.5106
152.871 1313 36.2353
152.989 1196 34.5832
153.106 1138 33.7343
153.223 1060 32.5576
153.341 1092 33.0454
153.458 1119 33.4515
153.575 1165 34.1321
153.693 1273 35.6791
153.81 1317 36.2905
153.927 1309 36.1801
154.044 1445 38.0132
154.162 1483 38.5097
154.279 1412 37.5766
154.396 1562 39.5221
154.513 1496 38.6782
154.63 1488 38.5746
154.747 1448 38.0526
154.864 1517 38.9487
154.981 1533 39.1535
155.098 1538 39.2173
155.215 1479 38.4578
155.332 1529 39.1024
155.449 1467 38.3014
155.566 1585 39.8121
155.683 1572 39.6485
155.8 1538 39.2173
155.917 1528 39.0896
156.033 1465 38.2753
156.15 0 1
156.267 0 1
156.383 0 1
156.5 0 1
156.617 0 1
156.733 0 1
156.85 0 1
156.966 0 1
157.082 0 1
157.199 0 1
157.315 0 1
157.431 0 1
157.547 0 1
157.664 0 1
157.78 0 1
157.896 0 1
158.012 0 1
158.128 0 1
158.244 0 1
158.359 0 1
158.475 0 1
158.591 0 1
158.706 0 1
