
6.15755 0 1
6.2731 0 1
6.3887 0 1
6.50437 0 1
6.62009 0 1
6.73587 0 1
6.8517 0 1
6.96759 0 1
7.08353 0 1
7.19952 0 1
7.31557 0 1
7.43166 0 1
7.54781 0 1
7.664 0 1
7.78024 0 1
7.89653 0 1
8.01286 0 1
8.12924 0 1
8.24567 0 1
8.36213 0 1
8.47864 0 1
8.59519 0 1
8.71178 0 1
8.82841 0 1
8.94508 0 1
9.06179 0 1
9.17853 0 1
9.29531 0 1
9.41212 0 1
9.52897 0 1
9.64584 0 1
9.76276 0 1
9.8797 0 1
9.99667 0 1
10.1137 0 1
10.2307 0 1
10.3478 0 1
10.4648 0 1
10.5819 0 1
10.6991 0 1
10.8162 0 1
10.9334 0 1
11.0506 0 1
11.1678 0 1
11.285 0 1
11.4023 0 1
11.5196 0 1
11.6369 0 1
11.7542 0 1
11.8715 0 1
11.9888 0 1
12.1062 0 1
12.2235 0 1
12.3409 0 1
12.4582 0 1
12.5756 0 1
12.693 0 1
12.8104 0 1
12.9278 0 1
13.0452 0 1
13.1626 0 1
13.28 0 1
13.3974 0 1
13.5149 0 1
13.6323 0 1
13.7497 0 1
13.8671 0 1
13.9845 0 1
14.1019 0 1
14.2193 0 1
14.3367 0 1
14.4541 0 1
14.5714 0 1
14.6888 0 1
14.8062 0 1
14.9235 0 1
15.0408 0 0
15.1581 0 0
15.2755 0 0
15.3927 0 0
15.51 0 0
15.6273 0 0
15.7445 0 0
15.8617 0 0
15.9789 0 0
16.0961 0 0
16.2132 0 0
16.3304 0 0
16.4475 0 0
16.5646 0 0
16.6816 0 0
16.7986 0 0
16.9156 0 0
17.0326 0 0
17.1496 0 0
17.2665 0 0
17.3833 0 0
17.5002 0 0
17.617 0 0
17.7338 0 0
17.8505 0 0
17.9672 0 0
18.0839 0 0
18.2005 0 0
18.3171 0 0
18.4337 0 0
18.5502 0 0
18.6666 0 0
18.7831 0 0
18.8994 0 0
19.0158 0 0
19.1321 0 0
19.2483 0 0
19.3645 0 0
19.4806 0 0
19.5967 0 0
19.7128 0 0
19.8288 0 0
19.9447 0 0
20.0606 0 1
20.1764 0 1
20.2922 0 1
20.4079 0 1
20.5236 0 1
20.6392 0 1
20.7548 0 1
20.8702 0 1
23.3078 0 1
23.4233 0 1
23.539 0 1
23.6547 0 1
23.7704 0 1
23.8862 0 1
24.0021 0 1
24.118 0 1
24.234 0 1
24.35 0 1
24.4661 1040 32.249
24.5822 978 31.273
24.6984 1025 32.0156
24.8146 1073 32.7567
24.9309 1057 32.5115
25.0472 1046 32.3419
25.1636 1067 32.665
25.28 1119 33.4515
25.3965 1073 32.7567
25.513 1113 33.3617
25.6296 1055 32.4808
25.7462 1093 33.0606
25.8628 1149 33.8969
25.9795 1210 34.7851
26.0962 1158 34.0294
26.213 1216 34.8712
26.3298 1088 32.9848
26.4466 1117 33.4215
26.5635 1069 32.6956
26.6804 1072 32.7414
26.7973 985 31.3847
26.9143 980 31.305
27.0313 929 30.4795
27.1483 1006 31.7175
27.2653 984 31.3688
27.3824 1006 31.7175
27.4996 975 31.225
27.6167 979 31.289
27.7339 942 30.692
27.8511 973 31.1929
27.9683 902 30.0333
28.0855 940 30.6594
28.2028 930 30.4959
28.3201 961 31
28.4374 990 31.4643
28.5547 998 31.5911
28.6721 1016 31.8748
28.7894 1016 31.8748
28.9068 1042 32.28
29.0242 1053 32.45
29.1416 1080 32.8634
29.259 1080 32.8634
29.3764 1151 33.9264
29.4939 1035 32.1714
29.6113 1027 32.0468
29.7288 1041 32.2645
29.8463 1056 32.4962
29.9638 1034 32.1559
30.0812 1065 32.6343
30.1987 978 31.273
30.3162 1008 31.749
30.4337 909 30.1496
30.5512 836 28.9137
30.6687 841 29
30.7862 942 30.692
30.9037 901 30.0167
31.0212 976 31.241
31.1387 970 31.1448
31.2562 920 30.3315
31.3737 884 29.7321
31.4912 906 30.0998
31.6087 917 30.282
31.7262 947 30.7734
31.8436 920 30.3315
31.9611 973 31.1929
32.0785 982 31.3369
32.1959 986 31.4006
32.3134 1044 32.311
32.4308 1061 32.573
32.5482 1022 31.9687
32.6655 1053 32.45
32.7829 1011 31.7962
32.9002 1055 32.4808
33.0176 1042 32.28
33.1349 1039 32.2335
33.2522 1046 32.3419
33.3694 1037 32.2025
33.4867 978 31.273
33.6039 976 31.241
33.7211 1044 32.311
33.8383 1006 31.7175
33.9554 998 31.5911
34.0725 924 30.3974
34.1896 831 28.8271
34.3067 852 29.189
34.4237 865 29.4109
34.5407 880 29.6648
34.6577 879 29.6479
34.7746 917 30.282
34.8915 926 30.4302
35.0084 899 29.9833
35.1252 894 29.8998
35.242 867 29.4449
35.3587 906 30.0998
35.4755 907 30.1164
35.5921 927 30.4467
35.7088 969 31.1288
35.8254 1009 31.7648
35.9419 994 31.5278
36.0584 970 31.1448
36.1749 1017 31.8904
36.2913 924 30.3974
36.4077 1007 31.7333
36.524 1036 32.187
36.6403 989 31.4484
36.7565 965 31.0644
36.8727 965 31.0644
36.9889 941 30.6757
37.1049 970 31.1448
37.221 0 1
37.3369 0 1
37.4529 0 1
37.5687 0 1
37.6845 0 1
37.8003 0 1
37.916 0 1
38.0316 0 1
38.1472 0 1
40.5851 0 1
40.7008 0 1
40.8164 0 1
40.9322 0 1
41.048 0 1
41.1639 0 1
41.2798 0 1
41.3958 0 1
41.5118 0 1
41.6279 0 1
41.744 805 28.3725
41.8602 885 29.7489
41.9765 854 29.2233
42.0928 847 29.1033
42.2091 773 27.8029
42.3255 795 28.1957
42.4419 776 27.8568
42.5584 803 28.3373
42.675 856 29.2575
42.7915 828 28.775
42.9081 764 27.6405
43.0248 797 28.2312
43.1415 704 26.533
43.2582 693 26.3249
43.375 738 27.1662
43.4918 764 27.6405
43.6087 735 27.1109
43.7256 653 25.5539
43.8425 723 26.8887
43.9595 741 27.2213
44.0765 690 26.2679
44.1935 703 26.5141
44.3106 790 28.1069
44.4277 768 27.7128
44.5448 746 27.313
44.6619 782 27.9643
44.7791 778 27.8927
44.8963 738 27.1662
45.0136 769 27.7308
45.1308 696 26.3818
45.2481 754 27.4591
45.3654 732 27.0555
45.4827 713 26.7021
45.6001 673 25.9422
45.7174 650 25.4951
45.8348 672 25.923
45.9522 685 26.1725
46.0697 677 26.0192
46.1871 645 25.3969
46.3046 658 25.6515
46.422 668 25.8457
46.5395 636 25.219
46.657 551 23.4734
46.7745 531 23.0434
46.892 519 22.7816
47.0096 534 23.1084
47.1271 588 24.2487
47.2446 572 23.9165
47.3622 508 22.5389
47.4797 534 23.1084
47.5973 532 23.0651
47.7149 511 22.6053
47.8324 543 23.3024
47.95 546 23.3666
48.0675 545 23.3452
48.1851 544 23.3238
48.3027 545 23.3452
48.4202 573 23.9374
48.5378 599 24.4745
48.6554 548 23.4094
48.7729 557 23.6008
48.8904 574 23.9583
49.008 564 23.7487
49.1255 526 22.9347
49.243 554 23.5372
49.3605 502 22.4054
49.478 549 23.4307
49.5955 585 24.1868
49.713 615 24.7992
49.8304 548 23.4094
49.9479 553 23.516
50.0653 583 24.1454
50.1827 494 22.2261
50.3001 447 21.1424
50.4175 464 21.5407
50.5348 476 21.8174
50.6521 531 23.0434
50.7694 537 23.1733
50.8867 542 23.2809
51.004 572 23.9165
51.1212 600 24.4949
51.2384 530 23.0217
51.3556 582 24.1247
51.4727 680 26.0768
51.5899 671 25.9037
51.707 691 26.2869
51.824 694 26.3439
51.9411 666 25.807
52.0581 645 25.3969
52.175 685 26.1725
52.2919 660 25.6905
52.4088 687 26.2107
52.5257 709 26.6271
52.6425 665 25.7876
52.7593 757 27.5136
52.876 776 27.8568
52.9927 781 27.9464
53.1094 726 26.9444
53.226 739 27.1846
53.3426 751 27.4044
53.4591 797 28.2312
53.5756 778 27.8927
53.692 796 28.2135
53.8084 724 26.9072
53.9248 629 25.0799
54.0411 643 25.3574
54.1573 596 24.4131
54.2735 0 1
54.3896 0 1
54.5057 0 1
54.6217 0 1
54.7377 0 1
54.8537 0 1
54.9695 0 1
55.0853 0 1
55.2011 0 1
55.3168 0 1
55.4324 0 1
57.824 0 1
57.9396 0 1
58.0553 0 1
58.1711 0 1
58.2869 0 1
58.4028 0 1
58.5187 0 1
58.6347 0 1
58.7508 0 1
58.8669 0 1
58.983 774 27.8209
59.0992 777 27.8747
59.2155 668 25.8457
59.3318 743 27.258
59.4482 775 27.8388
59.5646 765 27.6586
59.681 772 27.7849
59.7975 802 28.3196
59.9141 777 27.8747
60.0306 838 28.9482
60.1473 768 27.7128
60.2639 817 28.5832
60.3807 855 29.2404
60.4974 847 29.1033
60.6142 768 27.7128
60.731 821 28.6531
60.8479 819 28.6182
60.9648 772 27.7849
61.0818 815 28.5482
61.1987 796 28.2135
61.3158 788 28.0713
61.4328 758 27.5318
61.5499 756 27.4955
61.667 733 27.074
61.7841 795 28.1957
61.9013 759 27.55
62.0185 758 27.5318
62.1357 804 28.3549
62.253 781 27.9464
62.3702 761 27.5862
62.4875 643 25.3574
62.6049 676 26
62.7222 652 25.5343
62.8396 648 25.4558
62.9569 711 26.6646
63.0743 714 26.7208
63.1918 642 25.3377
63.3092 709 26.6271
63.4267 688 26.2298
63.5441 688 26.2298
63.6616 767 27.6948
63.7791 752 27.4226
63.8966 724 26.9072
64.0142 730 27.0185
64.1317 745 27.2947
64.2492 646 25.4165
64.3668 699 26.4386
64.4843 687 26.2107
64.6019 653 25.5539
64.7195 657 25.632
64.837 686 26.1916
64.9546 664 25.7682
65.0722 654 25.5734
65.1898 640 25.2982
65.3074 659 25.671
65.4249 668 25.8457
65.5425 668 25.8457
65.6601 699 26.4386
65.7777 622 24.9399
65.8952 659 25.671
66.0128 683 26.1343
66.1304 588 24.2487
66.2479 542 23.2809
66.3655 570 23.8747
66.483 525 22.9129
66.6005 561 23.6854
66.718 559 23.6432
66.8355 564 23.7487
66.953 583 24.1454
67.0705 649 25.4755
67.1879 608 24.6577
67.3054 677 26.0192
67.4228 632 25.1396
67.5402 602 24.5357
67.6576 639 25.2784
67.7749 621 24.9199
67.8923 680 26.0768
68.0096 582 24.1247
68.1269 625 25
68.2442 622 24.9399
68.3614 616 24.8193
68.4787 626 25.02
68.5958 598 24.454
68.713 630 25.0998
68.8302 641 25.318
68.9473 583 24.1454
69.0643 606 24.6171
69.1814 573 23.9374
69.2984 616 24.8193
69.4154 612 24.7386
69.5323 605 24.5967
69.6492 590 24.2899
69.7661 599 24.4745
69.8829 554 23.5372
69.9997 514 22.6716
70.1165 505 22.4722
70.2332 507 22.5167
70.3499 504 22.4499
70.4665 557 23.6008
70.5831 536 23.1517
70.6996 602 24.5357
70.8161 563 23.7276
70.9326 574 23.9583
71.049 532 23.0651
71.1653 528 22.9783
71.2817 551 23.4734
71.3979 544 23.3238
71.5141 500 22.3607
71.6303 535 23.1301
71.7464 488 22.0907
71.8624 0 1
71.9784 0 1
72.0944 0 1
72.2102 0 1
72.3261 0 1
72.4418 0 1
72.5575 0 1
72.6732 0 1
75.1054 0 1
75.2209 0 1
75.3365 0 1
75.4521 0 1
75.5678 0 1
75.6835 0 1
75.7993 0 1
75.9151 0 1
76.031 0 1
76.147 400 20
76.263 406 20.1494
76.3791 441 21
76.4952 413 20.3224
76.6113 446 21.1187
76.7276 435 20.8567
76.8438 397 19.9249
76.9601 404 20.0998
77.0765 424 20.5913
77.1929 399 19.975
77.3093 436 20.8806
77.4258 394 19.8494
77.5423 415 20.3715
77.6589 424 20.5913
77.7755 359 18.9473
77.8921 375 19.3649
78.0088 355 18.8414
78.1256 381 19.5192
78.2423 372 19.2873
78.3591 389 19.7231
78.4759 366 19.1311
78.5928 371 19.2614
78.7097 352 18.7617
78.8266 395 19.8746
78.9436 319 17.8606
79.0606 319 17.8606
79.1776 267 16.3401
79.2946 259 16.0935
79.4117 275 16.5831
79.5288 316 17.7764
79.6459 307 17.5214
79.7631 274 16.5529
79.8802 291 17.0587
79.9974 274 16.5529
80.1147 272 16.4924
80.2319 260 16.1245
80.3491 242 15.5563
80.4664 270 16.4317
80.5837 249 15.7797
80.701 257 16.0312
80.8183 250 15.8114
80.9357 239 15.4596
81.053 244 15.6205
81.1704 228 15.0997
81.2877 230 15.1658
81.4051 215 14.6629
81.5225 227 15.0665
81.6399 218 14.7648
81.7573 217 14.7309
81.8747 204 14.2829
81.9922 186 13.6382
82.1096 177 13.3041
82.227 151 12.2882
82.3444 188 13.7113
82.4619 196 14
82.5793 154 12.4097
82.6967 155 12.4499
82.8142 146 12.083
82.9316 113 10.6301
83.049 125 11.1803
83.1664 146 12.083
83.2838 130 11.4018
83.4012 112 10.583
83.5186 97 9.84886
83.636 119 10.9087
83.7534 108 10.3923
83.8708 122 11.0454
83.9881 99 9.94987
84.1055 83 9.11043
84.2228 74 8.60233
84.3401 79 8.88819
84.4575 79 8.88819
84.5747 82 9.05539
84.692 83 9.11043
84.8093 89 9.43398
84.9265 96 9.79796
85.0437 80 8.94427
85.1609 66 8.12404
85.2781 80 8.94427
85.3952 75 8.66025
85.5123 78 8.83176
85.6294 77 8.77496
85.7465 72 8.48528
85.8636 77 8.77496
85.9806 66 8.12404
86.0976 72 8.48528
86.2145 55 7.4162
86.3315 65 8.06226
86.4484 86 9.27362
86.5652 94 9.69536
86.682 98 9.89949
86.7988 80 8.94427
86.9156 97 9.84886
87.0323 109 10.4403
87.149 116 10.7703
87.2657 104 10.198
87.3823 118 10.8628
87.4988 113 10.6301
87.6154 136 11.6619
87.7318 127 11.2694
87.8483 168 12.9615
87.9647 149 12.2066
88.081 149 12.2066
88.1973 174 13.1909
88.3136 191 13.8203
88.4298 158 12.5698
88.546 175 13.2288
88.6621 188 13.7113
88.7781 197 14.0357
88.8942 0 1
89.0101 0 1
89.126 0 1
89.2419 0 1
89.3577 0 1
89.4734 0 1
89.5891 0 1
89.7047 0 1
89.8203 0 1
89.9358 0 1
92.3269 0 1
92.4424 0 1
92.558 0 1
92.6736 0 1
92.7893 0 1
92.905 0 1
93.0208 0 1
93.1366 0 1
93.2525 0 1
93.3685 0 1
93.4845 0 1
93.6005 324 18
93.7167 341 18.4662
93.8328 315 17.7482
93.949 271 16.4621
94.0653 282 16.7929
94.1816 282 16.7929
94.2979 280 16.7332
94.4143 284 16.8523
94.5307 283 16.8226
94.6472 244 15.6205
94.7637 219 14.7986
94.8803 267 16.3401
94.9969 280 16.7332
95.1135 238 15.4272
95.2302 220 14.8324
95.3469 178 13.3417
95.4637 168 12.9615
95.5805 190 13.784
95.6973 237 15.3948
95.8142 249 15.7797
95.9311 257 16.0312
96.048 257 16.0312
96.1649 270 16.4317
96.2819 303 17.4069
96.3989 310 17.6068
96.516 293 17.1172
96.633 323 17.9722
96.7501 320 17.8885
96.8673 316 17.7764
96.9844 351 18.735
97.1016 359 18.9473
97.2188 376 19.3907
97.336 338 18.3848
97.4532 384 19.5959
97.5704 369 19.2094
97.6877 392 19.799
97.805 409 20.2237
97.9223 396 19.8997
98.0396 414 20.347
98.1569 424 20.5913
98.2743 442 21.0238
98.3916 456 21.3542
98.509 440 20.9762
98.6264 448 21.166
98.7438 452 21.2603
98.8612 415 20.3715
98.9786 376 19.3907
99.096 307 17.5214
99.2134 294 17.1464
99.3308 423 20.567
99.4482 499 22.3383
99.5656 482 21.9545
99.6831 511 22.6053
99.8005 519 22.7816
99.9179 516 22.7156
100.035 547 23.388
100.153 583 24.1454
100.27 584 24.1661
100.388 570 23.8747
100.505 598 24.454
100.622 641 25.318
100.74 587 24.2281
100.857 603 24.5561
100.975 589 24.2693
101.092 608 24.6577
101.209 601 24.5153
101.327 626 25.02
101.444 619 24.8797
101.561 615 24.7992
101.679 612 24.7386
101.796 610 24.6982
101.913 608 24.6577
102.03 602 24.5357
102.148 632 25.1396
102.265 682 26.1151
102.382 570 23.8747
102.499 570 23.8747
102.616 446 21.1187
102.733 440 20.9762
102.851 520 22.8035
102.968 638 25.2587
103.085 635 25.1992
103.202 681 26.096
103.319 681 26.096
103.436 658 25.6515
103.552 653 25.5539
103.669 634 25.1794
103.786 676 26
103.903 674 25.9615
104.02 677 26.0192
104.137 682 26.1151
104.253 684 26.1534
104.37 619 24.8797
104.487 640 25.2982
104.603 681 26.096
104.72 657 25.632
104.836 666 25.807
104.953 683 26.1343
105.069 669 25.865
105.186 672 25.923
105.302 687 26.2107
105.418 687 26.2107
105.535 655 25.593
105.651 683 26.1343
105.767 658 25.6515
105.883 604 24.5764
105.999 592 24.3311
106.115 0 1
106.231 0 1
106.347 0 1
106.463 0 1
106.579 0 1
106.694 0 1
106.81 0 1
106.926 0 1
107.041 0 1
107.157 0 1
109.576 0 1
109.692 0 1
109.807 0 1
109.923 0 1
110.039 0 1
110.155 0 1
110.27 0 1
110.386 0 1
110.502 0 1
110.618 488 22.0907
110.735 502 22.4054
110.851 535 23.1301
110.967 495 22.2486
111.083 448 21.166
111.199 381 19.5192
111.316 370 19.2354
111.432 448 21.166
111.549 504 22.4499
111.665 474 21.7715
111.782 483 21.9773
111.898 474 21.7715
112.015 472 21.7256
112.132 499 22.3383
112.248 465 21.5639
112.365 457 21.3776
112.482 451 21.2368
112.599 430 20.7364
112.716 438 20.9284
112.832 460 21.4476
112.949 448 21.166
113.066 426 20.6398
113.183 434 20.8327
113.3 398 19.9499
113.417 411 20.2731
113.534 339 18.412
113.652 392 19.799
113.769 390 19.7484
113.886 385 19.6214
114.003 387 19.6723
114.12 403 20.0749
114.238 384 19.5959
114.355 383 19.5704
114.472 342 18.4932
114.589 357 18.8944
114.707 319 17.8606
114.824 305 17.4642
114.942 295 17.1756
115.059 311 17.6352
115.176 331 18.1934
115.294 342 18.4932
115.411 340 18.4391
115.529 368 19.1833
115.646 333 18.2483
115.764 379 19.4679
115.881 394 19.8494
115.999 381 19.5192
116.116 355 18.8414
116.234 350 18.7083
116.351 338 18.3848
116.469 333 18.2483
116.586 366 19.1311
116.704 336 18.3303
116.821 333 18.2483
116.939 360 18.9737
117.056 340 18.4391
117.174 354 18.8149
117.291 343 18.5203
117.409 359 18.9473
117.526 334 18.2757
117.644 359 18.9473
117.761 335 18.303
117.879 314 17.72
117.996 290 17.0294
118.114 296 17.2047
118.231 331 18.1934
118.349 355 18.8414
118.466 339 18.412
118.584 325 18.0278
118.701 343 18.5203
118.819 363 19.0526
118.936 372 19.2873
119.053 391 19.7737
119.171 340 18.4391
119.288 393 19.8242
119.405 321 17.9165
119.523 370 19.2354
119.64 379 19.4679
119.757 361 19
119.875 374 19.3391
119.992 351 18.735
120.109 367 19.1572
120.226 378 19.4422
120.343 373 19.3132
120.46 384 19.5959
120.578 396 19.8997
120.695 393 19.8242
120.812 383 19.5704
120.929 378 19.4422
121.046 387 19.6723
121.163 404 20.0998
121.279 403 20.0749
121.396 388 19.6977
121.513 341 18.4662
121.63 318 17.8326
121.747 262 16.1864
121.863 256 16
121.98 313 17.6918
122.097 397 19.9249
122.213 356 18.868
122.33 372 19.2873
122.446 396 19.8997
122.563 409 20.2237
122.679 376 19.3907
122.795 406 20.1494
122.912 410 20.2485
123.028 431 20.7605
123.144 437 20.9045
123.26 414 20.347
123.377 0 1
123.493 0 1
123.609 0 1
123.725 0 1
123.84 0 1
123.956 0 1
124.072 0 1
124.188 0 1
124.303 0 1
124.419 0 1
126.852 0 1
126.968 0 1
127.083 0 1
127.199 0 1
127.315 0 1
127.431 0 1
127.547 0 1
127.663 0 1
127.779 0 1
127.895 0 1
128.011 0 1
128.127 0 1
128.243 0 1
128.359 520 22.8035
128.476 506 22.4944
128.592 532 23.0651
128.708 537 23.1733
128.825 550 23.4521
128.941 493 22.2036
129.058 537 23.1733
129.174 510 22.5832
129.291 557 23.6008
129.408 559 23.6432
129.524 550 23.4521
129.641 539 23.2164
129.758 537 23.1733
129.875 538 23.1948
129.992 498 22.3159
130.108 546 23.3666
130.225 550 23.4521
130.342 506 22.4944
130.459 411 20.2731
130.576 442 21.0238
130.693 366 19.1311
130.81 337 18.3576
130.928 372 19.2873
131.045 459 21.4243
131.162 525 22.9129
131.279 526 22.9347
131.396 532 23.0651
131.513 565 23.7697
131.631 576 24
131.748 543 23.3024
131.865 546 23.3666
131.983 599 24.4745
132.1 520 22.8035
132.217 545 23.3452
132.335 581 24.1039
132.452 556 23.5797
132.57 583 24.1454
132.687 589 24.2693
132.804 620 24.8998
132.922 578 24.0416
133.039 553 23.516
133.157 542 23.2809
133.274 609 24.6779
133.392 596 24.4131
133.509 574 23.9583
133.627 573 23.9374
133.744 608 24.6577
133.862 529 23
133.979 482 21.9545
134.097 450 21.2132
134.214 409 20.2237
134.332 395 19.8746
134.449 430 20.7364
134.567 443 21.0476
134.684 494 22.2261
134.802 573 23.9374
134.919 537 23.1733
135.037 625 25
135.154 634 25.1794
135.272 665 25.7876
135.389 620 24.8998
135.507 605 24.5967
135.624 579 24.0624
135.742 688 26.2298
135.859 639 25.2784
135.977 664 25.7682
136.094 610 24.6982
136.211 659 25.671
136.329 607 24.6374
136.446 636 25.219
136.564 658 25.6515
136.681 636 25.219
136.798 692 26.3059
136.915 649 25.4755
137.033 654 25.5734
137.15 667 25.8263
137.267 604 24.5764
137.384 620 24.8998
137.502 574 23.9583
137.619 523 22.8692
137.736 490 22.1359
137.853 486 22.0454
137.97 449 21.1896
138.087 505 22.4722
138.204 513 22.6495
138.321 541 23.2594
138.438 632 25.1396
138.555 652 25.5343
138.672 666 25.807
138.788 631 25.1197
138.905 705 26.5518
139.022 700 26.4575
139.139 690 26.2679
139.255 708 26.6083
139.372 667 25.8263
139.488 684 26.1534
139.605 774 27.8209
139.721 736 27.1293
139.838 708 26.6083
139.954 674 25.9615
140.071 723 26.8887
140.187 676 26
140.303 724 26.9072
140.419 716 26.7582
140.535 694 26.3439
140.652 686 26.1916
140.768 0 1
140.884 0 1
141 0 1
141.115 0 1
141.231 0 1
141.347 0 1
141.463 0 1
141.578 0 1
141.694 0 1
144.104 0 1
144.219 0 1
144.335 0 1
144.45 0 1
144.566 0 1
144.682 0 1
144.798 0 1
144.914 0 1
145.03 0 1
145.146 637 25.2389
145.262 661 25.7099
145.378 676 26
145.494 682 26.1151
145.61 665 25.7876
145.726 713 26.7021
145.842 651 25.5147
145.959 627 25.04
146.075 611 24.7184
146.192 542 23.2809
146.308 547 23.388
146.425 548 23.4094
146.541 497 22.2935
146.658 540 23.2379
146.774 524 22.891
146.891 557 23.6008
147.008 586 24.2074
147.125 605 24.5967
147.241 639 25.2784
147.358 670 25.8844
147.475 656 25.6125
147.592 698 26.4197
147.709 667 25.8263
147.826 656 25.6125
147.943 640 25.2982
148.06 677 26.0192
148.177 673 25.9422
148.294 603 24.5561
148.411 693 26.3249
148.528 670 25.8844
148.645 696 26.3818
148.762 667 25.8263
148.88 667 25.8263
148.997 589 24.2693
149.114 662 25.7294
149.231 668 25.8457
149.349 630 25.0998
149.466 552 23.4947
149.583 582 24.1247
149.701 602 24.5357
149.818 536 23.1517
149.935 573 23.9374
150.053 543 23.3024
150.17 517 22.7376
150.287 569 23.8537
150.405 496 22.2711
150.522 578 24.0416
150.64 571 23.8956
150.757 572 23.9165
150.875 613 24.7588
150.992 608 24.6577
151.11 647 25.4362
151.227 697 26.4008
151.344 649 25.4755
151.462 631 25.1197
151.579 651 25.5147
151.697 648 25.4558
151.814 648 25.4558
151.932 636 25.219
152.049 665 25.7876
152.167 626 25.02
152.284 716 26.7582
152.402 721 26.8514
152.519 705 26.5518
152.636 710 26.6458
152.754 626 25.02
152.871 727 26.9629
152.989 657 25.632
153.106 691 26.2869
153.223 575 23.9792
153.341 655 25.593
153.458 563 23.7276
153.575 535 23.1301
153.693 568 23.8328
153.81 571 23.8956
153.927 596 24.4131
154.044 582 24.1247
154.162 610 24.6982
154.279 656 25.6125
154.396 652 25.5343
154.513 723 26.8887
154.63 700 26.4575
154.747 690 26.2679
154.864 769 27.7308
154.981 676 26
155.098 697 26.4008
155.215 728 26.9815
155.332 666 25.807
155.449 746 27.313
155.566 690 26.2679
155.683 724 26.9072
155.8 733 27.074
155.917 711 26.6646
156.033 693 26.3249
156.15 0 1
156.267 0 1
156.383 0 1
156.5 0 1
156.617 0 1
156.733 0 1
156.85 0 1
156.966 0 1
157.082 0 1
157.199 0 1
157.315 0 1
157.431 0 1
157.547 0 1
157.664 0 1
157.78 0 1
157.896 0 1
158.012 0 1
158.128 0 1
158.244 0 1
158.359 0 1
158.475 0 1
158.591 0 1
158.706 0 1
