
6.15755 0 1
6.2731 0 1
6.3887 0 1
6.50437 0 1
6.62009 0 1
6.73587 0 1
6.8517 0 1
6.96759 0 1
7.08353 0 1
7.19952 0 1
7.31557 0 1
7.43166 0 1
7.54781 0 1
7.664 0 1
7.78024 0 1
7.89653 0 1
8.01286 0 1
8.12924 0 1
8.24567 0 1
8.36213 0 1
8.47864 0 1
8.59519 0 1
8.71178 0 1
8.82841 0 1
8.94508 0 1
9.06179 0 1
9.17853 0 1
9.29531 0 1
9.41212 0 1
9.52897 0 1
9.64584 0 1
9.76276 0 1
9.8797 0 1
9.99667 0 1
10.1137 0 1
10.2307 0 1
10.3478 0 1
10.4648 0 1
10.5819 0 1
10.6991 0 1
10.8162 0 1
10.9334 0 1
11.0506 0 1
11.1678 0 1
11.285 0 1
11.4023 0 1
11.5196 0 1
11.6369 0 1
11.7542 0 1
11.8715 0 1
11.9888 0 1
12.1062 0 1
12.2235 0 1
12.3409 0 1
12.4582 0 1
12.5756 0 1
12.693 0 1
12.8104 0 1
12.9278 0 1
13.0452 0 1
13.1626 0 1
13.28 0 1
13.3974 0 1
13.5149 0 1
13.6323 0 1
13.7497 0 1
13.8671 0 1
13.9845 0 1
14.1019 0 1
14.2193 0 1
14.3367 0 1
14.4541 0 1
14.5714 0 1
14.6888 0 1
14.8062 0 1
14.9235 0 1
15.0408 0 0
15.1581 0 0
15.2755 0 0
15.3927 0 0
15.51 0 0
15.6273 0 0
15.7445 0 0
15.8617 0 0
15.9789 0 0
16.0961 0 0
16.2132 0 0
16.3304 0 0
16.4475 0 0
16.5646 0 0
16.6816 0 0
16.7986 0 0
16.9156 0 0
17.0326 0 0
17.1496 0 0
17.2665 0 0
17.3833 0 0
17.5002 0 0
17.617 0 0
17.7338 0 0
17.8505 0 0
17.9672 0 0
18.0839 0 0
18.2005 0 0
18.3171 0 0
18.4337 0 0
18.5502 0 0
18.6666 0 0
18.7831 0 0
18.8994 0 0
19.0158 0 0
19.1321 0 0
19.2483 0 0
19.3645 0 0
19.4806 0 0
19.5967 0 0
19.7128 0 0
19.8288 0 0
19.9447 0 0
20.0606 0 1
20.1764 0 1
20.2922 0 1
20.4079 0 1
20.5236 0 1
20.6392 0 1
20.7548 0 1
20.8702 0 1
23.3078 0 1
23.4233 0 1
23.539 0 1
23.6547 0 1
23.7704 0 1
23.8862 0 1
24.0021 0 1
24.118 0 1
24.234 0 1
24.35 0 1
24.4661 1392 37.3095
24.5822 1386 37.229
24.6984 1435 37.8814
24.8146 1390 37.2827
24.9309 1348 36.7151
25.0472 1378 37.1214
25.1636 1312 36.2215
25.28 1361 36.8917
25.3965 1340 36.606
25.513 1338 36.5787
25.6296 1317 36.2905
25.7462 1421 37.6962
25.8628 1469 38.3275
25.9795 1418 37.6563
26.0962 1429 37.8021
26.213 1422 37.7094
26.3298 1386 37.229
26.4466 1430 37.8153
26.5635 1309 36.1801
26.6804 1278 35.7491
26.7973 1271 35.6511
26.9143 1186 34.4384
27.0313 1245 35.2846
27.1483 1342 36.6333
27.2653 1374 37.0675
27.3824 1355 36.8103
27.4996 1434 37.8682
27.6167 1441 37.9605
27.7339 1425 37.7492
27.8511 1403 37.4566
27.9683 1345 36.6742
28.0855 1331 36.4829
28.2028 1405 37.4833
28.3201 1400 37.4166
28.4374 1303 36.0971
28.5547 1287 35.8748
28.6721 1298 36.0278
28.7894 1306 36.1386
28.9068 1285 35.8469
29.0242 1261 35.5106
29.1416 1355 36.8103
29.259 1263 35.5387
29.3764 1227 35.0286
29.4939 1289 35.9026
29.6113 1371 37.027
29.7288 1297 36.0139
29.8463 1291 35.9305
29.9638 1288 35.8887
30.0812 1183 34.3948
30.1987 1125 33.541
30.3162 1136 33.7046
30.4337 1078 32.8329
30.5512 1178 34.322
30.6687 1166 34.1467
30.7862 1338 36.5787
30.9037 1285 35.8469
31.0212 1344 36.6606
31.1387 1311 36.2077
31.2562 1285 35.8469
31.3737 1380 37.1484
31.4912 1356 36.8239
31.6087 1312 36.2215
31.7262 1321 36.3456
31.8436 1303 36.0971
31.9611 1254 35.4119
32.0785 1238 35.1852
32.1959 1202 34.6699
32.3134 1211 34.7994
32.4308 1271 35.6511
32.5482 1227 35.0286
32.6655 1258 35.4683
32.7829 1254 35.4119
32.9002 1232 35.0999
33.0176 1228 35.0428
33.1349 1226 35.0143
33.2522 1225 35
33.3694 1220 34.9285
33.4867 1280 35.7771
33.6039 1215 34.8569
33.7211 1119 33.4515
33.8383 1110 33.3167
33.9554 1059 32.5423
34.0725 1015 31.8591
34.1896 1089 33
34.3067 1142 33.7935
34.4237 1219 34.9142
34.5407 1249 35.3412
34.6577 1252 35.3836
34.7746 1306 36.1386
34.8915 1256 35.4401
35.0084 1235 35.1426
35.1252 1294 35.9722
35.242 1315 36.2629
35.3587 1274 35.6931
35.4755 1262 35.5246
35.5921 1196 34.5832
35.7088 1272 35.6651
35.8254 1170 34.2053
35.9419 1156 34
36.0584 1189 34.4819
36.1749 1127 33.5708
36.2913 1212 34.8138
36.4077 1169 34.1906
36.524 1222 34.9571
36.6403 1162 34.0881
36.7565 1193 34.5398
36.8727 1185 34.4238
36.9889 1200 34.641
37.1049 1197 34.5977
37.221 0 1
37.3369 0 1
37.4529 0 1
37.5687 0 1
37.6845 0 1
37.8003 0 1
37.916 0 1
38.0316 0 1
38.1472 0 1
40.5851 0 1
40.7008 0 1
40.8164 0 1
40.9322 0 1
41.048 0 1
41.1639 0 1
41.2798 0 1
41.3958 0 1
41.5118 0 1
41.6279 0 1
41.744 911 30.1828
41.8602 950 30.8221
41.9765 983 31.3528
42.0928 987 31.4166
42.2091 994 31.5278
42.3255 940 30.6594
42.4419 960 30.9839
42.5584 898 29.9666
42.675 749 27.3679
42.7915 739 27.1846
42.9081 811 28.4781
43.0248 777 27.8747
43.1415 864 29.3939
43.2582 885 29.7489
43.375 894 29.8998
43.4918 865 29.4109
43.6087 932 30.5287
43.7256 875 29.5804
43.8425 933 30.545
43.9595 873 29.5466
44.0765 853 29.2062
44.1935 832 28.8444
44.3106 888 29.7993
44.4277 815 28.5482
44.5448 796 28.2135
44.6619 762 27.6043
44.7791 727 26.9629
44.8963 708 26.6083
45.0136 716 26.7582
45.1308 734 27.0924
45.2481 655 25.593
45.3654 722 26.8701
45.4827 686 26.1916
45.6001 729 27
45.7174 700 26.4575
45.8348 709 26.6271
45.9522 676 26
46.0697 626 25.02
46.1871 600 24.4949
46.3046 540 23.2379
46.422 516 22.7156
46.5395 603 24.5561
46.657 599 24.4745
46.7745 636 25.219
46.892 603 24.5561
47.0096 676 26
47.1271 636 25.219
47.2446 680 26.0768
47.3622 643 25.3574
47.4797 610 24.6982
47.5973 607 24.6374
47.7149 614 24.779
47.8324 601 24.5153
47.95 554 23.5372
48.0675 537 23.1733
48.1851 514 22.6716
48.3027 501 22.383
48.4202 464 21.5407
48.5378 537 23.1733
48.6554 507 22.5167
48.7729 527 22.9565
48.8904 522 22.8473
49.008 558 23.622
49.1255 556 23.5797
49.243 529 23
49.3605 517 22.7376
49.478 534 23.1084
49.5955 441 21
49.713 396 19.8997
49.8304 364 19.0788
49.9479 415 20.3715
50.0653 499 22.3383
50.1827 481 21.9317
50.3001 546 23.3666
50.4175 599 24.4745
50.5348 653 25.5539
50.6521 636 25.219
50.7694 676 26
50.8867 673 25.9422
51.004 700 26.4575
51.1212 718 26.7955
51.2384 711 26.6646
51.3556 683 26.1343
51.4727 681 26.096
51.5899 733 27.074
51.707 708 26.6083
51.824 690 26.2679
51.9411 732 27.0555
52.0581 678 26.0384
52.175 717 26.7769
52.2919 777 27.8747
52.4088 777 27.8747
52.5257 798 28.2489
52.6425 788 28.0713
52.7593 832 28.8444
52.876 852 29.189
52.9927 857 29.2746
53.1094 798 28.2489
53.226 724 26.9072
53.3426 716 26.7582
53.4591 671 25.9037
53.5756 654 25.5734
53.692 829 28.7924
53.8084 953 30.8707
53.9248 953 30.8707
54.0411 1048 32.3728
54.1573 987 31.4166
54.2735 0 1
54.3896 0 1
54.5057 0 1
54.6217 0 1
54.7377 0 1
54.8537 0 1
54.9695 0 1
55.0853 0 1
55.2011 0 1
55.3168 0 1
55.4324 0 1
57.824 0 1
57.9396 0 1
58.0553 0 1
58.1711 0 1
58.2869 0 1
58.4028 0 1
58.5187 0 1
58.6347 0 1
58.7508 0 1
58.8669 0 1
58.983 1043 32.2955
59.0992 1095 33.0908
59.2155 1194 34.5543
59.3318 1226 35.0143
59.4482 1169 34.1906
59.5646 1160 34.0588
59.681 1233 35.1141
59.7975 1127 33.5708
59.9141 1149 33.8969
60.0306 1153 33.9559
60.1473 1077 32.8177
60.2639 1023 31.9844
60.3807 1085 32.9393
60.4974 988 31.4325
60.6142 1017 31.8904
60.731 1002 31.6544
60.8479 984 31.3688
60.9648 1035 32.1714
61.0818 1012 31.8119
61.1987 1037 32.2025
61.3158 1014 31.8434
61.4328 1036 32.187
61.5499 995 31.5436
61.667 932 30.5287
61.7841 827 28.7576
61.9013 755 27.4773
62.0185 750 27.3861
62.1357 809 28.4429
62.253 896 29.9333
62.3702 936 30.5941
62.4875 1021 31.9531
62.6049 1105 33.2415
62.7222 1149 33.8969
62.8396 1092 33.0454
62.9569 1192 34.5254
63.0743 1211 34.7994
63.1918 1144 33.8231
63.3092 1180 34.3511
63.4267 1196 34.5832
63.5441 1090 33.0151
63.6616 1104 33.2265
63.7791 1076 32.8024
63.8966 1036 32.187
64.0142 1015 31.8591
64.1317 1042 32.28
64.2492 1034 32.1559
64.3668 1075 32.7872
64.4843 1023 31.9844
64.6019 1111 33.3317
64.7195 1069 32.6956
64.837 1091 33.0303
64.9546 1046 32.3419
65.0722 1069 32.6956
65.1898 922 30.3645
65.3074 933 30.545
65.4249 810 28.4605
65.5425 759 27.55
65.6601 809 28.4429
65.7777 871 29.5127
65.8952 1068 32.6803
66.0128 1095 33.0908
66.1304 1110 33.3167
66.2479 1212 34.8138
66.3655 1199 34.6266
66.483 1214 34.8425
66.6005 1205 34.7131
66.718 1264 35.5528
66.8355 1275 35.7071
66.953 1178 34.322
67.0705 1164 34.1174
67.1879 1106 33.2566
67.3054 1077 32.8177
67.4228 993 31.5119
67.5402 1012 31.8119
67.6576 1016 31.8748
67.7749 964 31.0483
67.8923 948 30.7896
68.0096 936 30.5941
68.1269 956 30.9192
68.2442 1042 32.28
68.3614 1063 32.6037
68.4787 1007 31.7333
68.5958 1024 32
68.713 1009 31.7648
68.8302 978 31.273
68.9473 852 29.189
69.0643 763 27.6225
69.1814 720 26.8328
69.2984 776 27.8568
69.4154 855 29.2404
69.5323 912 30.1993
69.6492 997 31.5753
69.7661 1084 32.9242
69.8829 1187 34.4529
69.9997 1187 34.4529
70.1165 1167 34.1614
70.2332 1120 33.4664
70.3499 1189 34.4819
70.4665 1168 34.176
70.5831 1133 33.6601
70.6996 1111 33.3317
70.8161 1051 32.4191
70.9326 1028 32.0624
71.049 985 31.3847
71.1653 956 30.9192
71.2817 913 30.2159
71.3979 876 29.5973
71.5141 875 29.5804
71.6303 846 29.0861
71.7464 807 28.4077
71.8624 0 1
71.9784 0 1
72.0944 0 1
72.2102 0 1
72.3261 0 1
72.4418 0 1
72.5575 0 1
72.6732 0 1
75.1054 0 1
75.2209 0 1
75.3365 0 1
75.4521 0 1
75.5678 0 1
75.6835 0 1
75.7993 0 1
75.9151 0 1
76.031 0 1
76.147 1016 31.8748
76.263 1054 32.4654
76.3791 955 30.9031
76.4952 943 30.7083
76.6113 879 29.6479
76.7276 959 30.9677
76.8438 902 30.0333
76.9601 931 30.5123
77.0765 934 30.5614
77.1929 973 31.1929
77.3093 1010 31.7805
77.4258 985 31.3847
77.5423 1001 31.6386
77.6589 949 30.8058
77.7755 939 30.6431
77.8921 779 27.9106
78.0088 734 27.0924
78.1256 644 25.3772
78.2423 607 24.6374
78.3591 739 27.1846
78.4759 830 28.8097
78.5928 935 30.5778
78.7097 1026 32.0312
78.8266 1061 32.573
78.9436 1110 33.3167
79.0606 1109 33.3017
79.1776 1089 33
79.2946 1144 33.8231
79.4117 1131 33.6303
79.5288 1081 32.8786
79.6459 1069 32.6956
79.7631 1026 32.0312
79.8802 969 31.1288
79.9974 886 29.7658
80.1147 842 29.0172
80.2319 856 29.2575
80.3491 837 28.931
80.4664 782 27.9643
80.5837 767 27.6948
80.701 852 29.189
80.8183 857 29.2746
80.9357 905 30.0832
81.053 875 29.5804
81.1704 869 29.4788
81.2877 872 29.5296
81.4051 852 29.189
81.5225 773 27.8029
81.6399 652 25.5343
81.7573 589 24.2693
81.8747 564 23.7487
81.9922 589 24.2693
82.1096 747 27.3313
82.227 739 27.1846
82.3444 832 28.8444
82.4619 918 30.2985
82.5793 986 31.4006
82.6967 933 30.545
82.8142 926 30.4302
82.9316 930 30.4959
83.049 930 30.4959
83.1664 936 30.5941
83.2838 816 28.5657
83.4012 815 28.5482
83.5186 760 27.5681
83.636 732 27.0555
83.7534 683 26.1343
83.8708 673 25.9422
83.9881 701 26.4764
84.1055 675 25.9808
84.2228 668 25.8457
84.3401 709 26.6271
84.4575 806 28.3901
84.5747 826 28.7402
84.692 809 28.4429
84.8093 759 27.55
84.9265 761 27.5862
85.0437 665 25.7876
85.1609 636 25.219
85.2781 541 23.2594
85.3952 551 23.4734
85.5123 592 24.3311
85.6294 662 25.7294
85.7465 768 27.7128
85.8636 882 29.6985
85.9806 913 30.2159
86.0976 957 30.9354
86.2145 980 31.305
86.3315 1087 32.9697
86.4484 1004 31.686
86.5652 1135 33.6898
86.682 1043 32.2955
86.7988 1049 32.3883
86.9156 987 31.4166
87.0323 950 30.8221
87.149 877 29.6142
87.2657 823 28.688
87.3823 809 28.4429
87.4988 889 29.8161
87.6154 867 29.4449
87.7318 940 30.6594
87.8483 875 29.5804
87.9647 984 31.3688
88.081 998 31.5911
88.1973 1000 31.6228
88.3136 1051 32.4191
88.4298 975 31.225
88.546 892 29.8664
88.6621 787 28.0535
88.7781 708 26.6083
88.8942 0 1
89.0101 0 1
89.126 0 1
89.2419 0 1
89.3577 0 1
89.4734 0 1
89.5891 0 1
89.7047 0 1
89.8203 0 1
89.9358 0 1
92.3269 0 1
92.4424 0 1
92.558 0 1
92.6736 0 1
92.7893 0 1
92.905 0 1
93.0208 0 1
93.1366 0 1
93.2525 0 1
93.3685 0 1
93.4845 0 1
93.6005 1004 31.686
93.7167 1073 32.7567
93.8328 1043 32.2955
93.949 936 30.5941
94.0653 867 29.4449
94.1816 749 27.3679
94.2979 730 27.0185
94.4143 616 24.8193
94.5307 682 26.1151
94.6472 792 28.1425
94.7637 829 28.7924
94.8803 959 30.9677
94.9969 998 31.5911
95.1135 1155 33.9853
95.2302 1136 33.7046
95.3469 1172 34.2345
95.4637 1157 34.0147
95.5805 1131 33.6303
95.6973 1133 33.6601
95.8142 1160 34.0588
95.9311 1201 34.6554
96.048 1105 33.2415
96.1649 1067 32.665
96.2819 936 30.5941
96.3989 994 31.5278
96.516 895 29.9166
96.633 831 28.8271
96.7501 926 30.4302
96.8673 961 31
96.9844 898 29.9666
97.1016 937 30.6105
97.2188 1034 32.1559
97.336 1091 33.0303
97.4532 1013 31.8277
97.5704 1044 32.311
97.6877 961 31
97.805 838 28.9482
97.9223 793 28.1603
98.0396 758 27.5318
98.1569 690 26.2679
98.2743 761 27.5862
98.3916 754 27.4591
98.509 914 30.2324
98.6264 946 30.7571
98.7438 1066 32.6497
98.8612 1079 32.8481
98.9786 1167 34.1614
99.096 1218 34.8999
99.2134 1226 35.0143
99.3308 1228 35.0428
99.4482 1171 34.2199
99.5656 1196 34.5832
99.6831 1096 33.1059
99.8005 1036 32.187
99.9179 1016 31.8748
100.035 1034 32.1559
100.153 900 30
100.27 920 30.3315
100.388 966 31.0805
100.505 975 31.225
100.622 1015 31.8591
100.74 962 31.0161
100.857 1032 32.1248
100.975 1100 33.1662
101.092 1051 32.4191
101.209 1057 32.5115
101.327 939 30.6431
101.444 827 28.7576
101.561 788 28.0713
101.679 786 28.0357
101.796 716 26.7582
101.913 790 28.1069
102.03 944 30.7246
102.148 997 31.5753
102.265 1082 32.8938
102.382 1244 35.2704
102.499 1168 34.176
102.616 1270 35.6371
102.733 1278 35.7491
102.851 1278 35.7491
102.968 1288 35.8887
103.085 1274 35.6931
103.202 1171 34.2199
103.319 1147 33.8674
103.436 1158 34.0294
103.552 1113 33.3617
103.669 1089 33
103.786 1038 32.218
103.903 1028 32.0624
104.02 1064 32.619
104.137 1139 33.7491
104.253 1125 33.541
104.37 1233 35.1141
104.487 1169 34.1906
104.603 1133 33.6601
104.72 1086 32.9545
104.836 1065 32.6343
104.953 886 29.7658
105.069 818 28.6007
105.186 802 28.3196
105.302 872 29.5296
105.418 915 30.249
105.535 1105 33.2415
105.651 1145 33.8378
105.767 1226 35.0143
105.883 1326 36.4143
105.999 1357 36.8375
106.115 0 1
106.231 0 1
106.347 0 1
106.463 0 1
106.579 0 1
106.694 0 1
106.81 0 1
106.926 0 1
107.041 0 1
107.157 0 1
109.576 0 1
109.692 0 1
109.807 0 1
109.923 0 1
110.039 0 1
110.155 0 1
110.27 0 1
110.386 0 1
110.502 0 1
110.618 1037 32.2025
110.735 1092 33.0454
110.851 1212 34.8138
110.967 1307 36.1525
111.083 1246 35.2987
111.199 1287 35.8748
111.316 1297 36.0139
111.432 1266 35.5809
111.549 1243 35.2562
111.665 1324 36.3868
111.782 1245 35.2846
111.898 1146 33.8526
112.015 1147 33.8674
112.132 1065 32.6343
112.248 981 31.3209
112.365 1028 32.0624
112.482 1015 31.8591
112.599 1058 32.5269
112.716 1087 32.9697
112.832 1126 33.5559
112.949 1121 33.4813
113.066 1105 33.2415
113.183 1107 33.2716
113.3 1001 31.6386
113.417 966 31.0805
113.534 836 28.9137
113.652 839 28.9655
113.769 809 28.4429
113.886 788 28.0713
114.003 807 28.4077
114.12 926 30.4302
114.238 1074 32.7719
114.355 1124 33.5261
114.472 1246 35.2987
114.589 1218 34.8999
114.707 1300 36.0555
114.824 1308 36.1663
114.942 1280 35.7771
115.059 1272 35.6651
115.176 1259 35.4824
115.294 1239 35.1994
115.411 1179 34.3366
115.529 1145 33.8378
115.646 1218 34.8999
115.764 1005 31.7017
115.881 995 31.5436
115.999 1012 31.8119
116.116 1075 32.7872
116.234 1109 33.3017
116.351 1146 33.8526
116.469 1097 33.121
116.586 1207 34.7419
116.704 1140 33.7639
116.821 1156 34
116.939 1023 31.9844
117.056 1014 31.8434
117.174 940 30.6594
117.291 908 30.133
117.409 890 29.8329
117.526 934 30.5614
117.644 910 30.1662
117.761 1064 32.619
117.879 1201 34.6554
117.996 1196 34.5832
118.114 1273 35.6791
118.231 1298 36.0278
118.349 1344 36.6606
118.466 1316 36.2767
118.584 1380 37.1484
118.701 1343 36.647
118.819 1311 36.2077
118.936 1200 34.641
119.053 1287 35.8748
119.171 1206 34.7275
119.288 1139 33.7491
119.405 1092 33.0454
119.523 1043 32.2955
119.64 1055 32.4808
119.757 1148 33.8821
119.875 1090 33.0151
119.992 1182 34.3802
120.109 1143 33.8083
120.226 1115 33.3916
120.343 1094 33.0757
120.46 1142 33.7935
120.578 1124 33.5261
120.695 987 31.4166
120.812 1007 31.7333
120.929 941 30.6757
121.046 967 31.0966
121.163 901 30.0167
121.279 974 31.209
121.396 1084 32.9242
121.513 1172 34.2345
121.63 1218 34.8999
121.747 1275 35.7071
121.863 1296 36
121.98 1268 35.609
122.097 1329 36.4555
122.213 1322 36.3593
122.33 1278 35.7491
122.446 1273 35.6791
122.563 1280 35.7771
122.679 1215 34.8569
122.795 1165 34.1321
122.912 1172 34.2345
123.028 1124 33.5261
123.144 1161 34.0735
123.26 1001 31.6386
123.377 0 1
123.493 0 1
123.609 0 1
123.725 0 1
123.84 0 1
123.956 0 1
124.072 0 1
124.188 0 1
124.303 0 1
124.419 0 1
126.852 0 1
126.968 0 1
127.083 0 1
127.199 0 1
127.315 0 1
127.431 0 1
127.547 0 1
127.663 0 1
127.779 0 1
127.895 0 1
128.011 0 1
128.127 0 1
128.243 0 1
128.359 1213 34.8281
128.476 1134 33.6749
128.592 1066 32.6497
128.708 1100 33.1662
128.825 1169 34.1906
128.941 1279 35.7631
129.058 1227 35.0286
129.174 1299 36.0416
129.291 1169 34.1906
129.408 1200 34.641
129.524 1151 33.9264
129.641 1157 34.0147
129.758 1062 32.5883
129.875 1099 33.1512
129.992 1069 32.6956
130.108 1012 31.8119
130.225 1041 32.2645
130.342 1067 32.665
130.459 1170 34.2053
130.576 1333 36.5103
130.693 1295 35.9861
130.81 1318 36.3043
130.928 1350 36.7423
131.045 1377 37.108
131.162 1363 36.9188
131.279 1374 37.0675
131.396 1324 36.3868
131.513 1317 36.2905
131.631 1375 37.081
131.748 1299 36.0416
131.865 1216 34.8712
131.983 1113 33.3617
132.1 1156 34
132.217 1132 33.6452
132.335 1190 34.4964
132.452 1248 35.327
132.57 1236 35.1568
132.687 1274 35.6931
132.804 1249 35.3412
132.922 1245 35.2846
133.039 1205 34.7131
133.157 1180 34.3511
133.274 1118 33.4365
133.392 1047 32.3574
133.509 1018 31.9061
133.627 1072 32.7414
133.744 1008 31.749
133.862 1062 32.5883
133.979 1160 34.0588
134.097 1220 34.9285
134.214 1269 35.623
134.332 1303 36.0971
134.449 1380 37.1484
134.567 1324 36.3868
134.684 1440 37.9473
134.802 1384 37.2022
134.919 1308 36.1663
135.037 1324 36.3868
135.154 1315 36.2629
135.272 1341 36.6197
135.389 1147 33.8674
135.507 1197 34.5977
135.624 1206 34.7275
135.742 1119 33.4515
135.859 1236 35.1568
135.977 1259 35.4824
136.094 1335 36.5377
136.211 1324 36.3868
136.329 1239 35.1994
136.446 1273 35.6791
136.564 1244 35.2704
136.681 1268 35.609
136.798 1207 34.7419
136.915 1209 34.7707
137.033 1125 33.541
137.15 1072 32.7414
137.267 1079 32.8481
137.384 1041 32.2645
137.502 1066 32.6497
137.619 1131 33.6303
137.736 1252 35.3836
137.853 1202 34.6699
137.97 1343 36.647
138.087 1296 36
138.204 1373 37.054
138.321 1369 37
138.438 1364 36.9324
138.555 1373 37.054
138.672 1319 36.318
138.788 1359 36.8646
138.905 1262 35.5246
139.022 1299 36.0416
139.139 1205 34.7131
139.255 1170 34.2053
139.372 1167 34.1614
139.488 1201 34.6554
139.605 1266 35.5809
139.721 1264 35.5528
139.838 1322 36.3593
139.954 1213 34.8281
140.071 1210 34.7851
140.187 1213 34.8281
140.303 1255 35.426
140.419 1247 35.3129
140.535 1182 34.3802
140.652 1142 33.7935
140.768 0 1
140.884 0 1
141 0 1
141.115 0 1
141.231 0 1
141.347 0 1
141.463 0 1
141.578 0 1
141.694 0 1
144.104 0 1
144.219 0 1
144.335 0 1
144.45 0 1
144.566 0 1
144.682 0 1
144.798 0 1
144.914 0 1
145.03 0 1
145.146 856 29.2575
145.262 962 31.0161
145.378 980 31.305
145.494 898 29.9666
145.61 927 30.4467
145.726 927 30.4467
145.842 925 30.4138
145.959 872 29.5296
146.075 912 30.1993
146.192 900 30
146.308 815 28.5482
146.425 871 29.5127
146.541 925 30.4138
146.658 884 29.7321
146.774 909 30.1496
146.891 978 31.273
147.008 1077 32.8177
147.125 1040 32.249
147.241 1164 34.1174
147.358 1042 32.28
147.475 1063 32.6037
147.592 1044 32.311
147.709 1062 32.5883
147.826 1019 31.9218
147.943 971 31.1609
148.06 1026 32.0312
148.177 923 30.3809
148.294 901 30.0167
148.411 989 31.4484
148.528 967 31.0966
148.645 1033 32.1403
148.762 1052 32.4345
148.88 1014 31.8434
148.997 977 31.257
149.114 1043 32.2955
149.231 934 30.5614
149.349 1022 31.9687
149.466 1047 32.3574
149.583 949 30.8058
149.701 918 30.2985
149.818 875 29.5804
149.935 871 29.5127
150.053 804 28.3549
150.17 889 29.8161
150.287 881 29.6816
150.405 934 30.5614
150.522 968 31.1127
150.64 1049 32.3883
150.757 1034 32.1559
150.875 1052 32.4345
150.992 973 31.1929
151.11 1076 32.8024
151.227 1121 33.4813
151.344 1071 32.7261
151.462 1052 32.4345
151.579 1078 32.8329
151.697 998 31.5911
151.814 968 31.1127
151.932 889 29.8161
152.049 990 31.4643
152.167 1026 32.0312
152.284 1064 32.619
152.402 1031 32.1092
152.519 1014 31.8434
152.636 1075 32.7872
152.754 1079 32.8481
152.871 1061 32.573
152.989 1026 32.0312
153.106 987 31.4166
153.223 1009 31.7648
153.341 979 31.289
153.458 1004 31.686
153.575 955 30.9031
153.693 958 30.9516
153.81 941 30.6757
153.927 990 31.4643
154.044 1047 32.3574
154.162 1016 31.8748
154.279 1064 32.619
154.396 1140 33.7639
154.513 1129 33.6006
154.63 1154 33.9706
154.747 1192 34.5254
154.864 1151 33.9264
154.981 1205 34.7131
155.098 1150 33.9116
155.215 1160 34.0588
155.332 1124 33.5261
155.449 1054 32.4654
155.566 1120 33.4664
155.683 1153 33.9559
155.8 1200 34.641
155.917 1154 33.9706
156.033 1174 34.2637
156.15 0 1
156.267 0 1
156.383 0 1
156.5 0 1
156.617 0 1
156.733 0 1
156.85 0 1
156.966 0 1
157.082 0 1
157.199 0 1
157.315 0 1
157.431 0 1
157.547 0 1
157.664 0 1
157.78 0 1
157.896 0 1
158.012 0 1
158.128 0 1
158.244 0 1
158.359 0 1
158.475 0 1
158.591 0 1
158.706 0 1
