
6.15755 0 1
6.2731 0 1
6.3887 0 1
6.50437 0 1
6.62009 0 1
6.73587 0 1
6.8517 0 1
6.96759 0 1
7.08353 0 1
7.19952 0 1
7.31557 0 1
7.43166 0 1
7.54781 0 1
7.664 0 1
7.78024 0 1
7.89653 0 1
8.01286 0 1
8.12924 0 1
8.24567 0 1
8.36213 0 1
8.47864 0 1
8.59519 0 1
8.71178 0 1
8.82841 0 1
8.94508 0 1
9.06179 0 1
9.17853 0 1
9.29531 0 1
9.41212 0 1
9.52897 0 1
9.64584 0 1
9.76276 0 1
9.8797 0 1
9.99667 0 1
10.1137 0 1
10.2307 0 1
10.3478 0 1
10.4648 0 1
10.5819 0 1
10.6991 0 1
10.8162 0 1
10.9334 0 1
11.0506 0 1
11.1678 0 1
11.285 0 1
11.4023 0 1
11.5196 0 1
11.6369 0 1
11.7542 0 1
11.8715 0 1
11.9888 0 1
12.1062 0 1
12.2235 0 1
12.3409 0 1
12.4582 0 1
12.5756 0 1
12.693 0 1
12.8104 0 1
12.9278 0 1
13.0452 0 1
13.1626 0 1
13.28 0 1
13.3974 0 1
13.5149 0 1
13.6323 0 1
13.7497 0 1
13.8671 0 1
13.9845 0 1
14.1019 0 1
14.2193 0 1
14.3367 0 1
14.4541 0 1
14.5714 0 1
14.6888 0 1
14.8062 0 1
14.9235 0 1
15.0408 0 0
15.1581 0 0
15.2755 0 0
15.3927 0 0
15.51 0 0
15.6273 0 0
15.7445 0 0
15.8617 0 0
15.9789 0 0
16.0961 0 0
16.2132 0 0
16.3304 0 0
16.4475 0 0
16.5646 0 0
16.6816 0 0
16.7986 0 0
16.9156 0 0
17.0326 0 0
17.1496 0 0
17.2665 0 0
17.3833 0 0
17.5002 0 0
17.617 0 0
17.7338 0 0
17.8505 0 0
17.9672 0 0
18.0839 0 0
18.2005 0 0
18.3171 0 0
18.4337 0 0
18.5502 0 0
18.6666 0 0
18.7831 0 0
18.8994 0 0
19.0158 0 0
19.1321 0 0
19.2483 0 0
19.3645 0 0
19.4806 0 0
19.5967 0 0
19.7128 0 0
19.8288 0 0
19.9447 0 0
20.0606 0 1
20.1764 0 1
20.2922 0 1
20.4079 0 1
20.5236 0 1
20.6392 0 1
20.7548 0 1
20.8702 0 1
23.3078 0 1
23.4233 0 1
23.539 0 1
23.6547 0 1
23.7704 0 1
23.8862 0 1
24.0021 0 1
24.118 0 1
24.234 0 1
24.35 0 1
24.4661 5720 75.6307
24.5822 5877 76.6616
24.6984 5967 77.2464
24.8146 6124 78.256
24.9309 6260 79.1202
25.0472 6260 79.1202
25.1636 6240 78.9937
25.28 6290 79.3095
25.3965 6356 79.7245
25.513 6402 80.0125
25.6296 6380 79.8749
25.7462 6324 79.5236
25.8628 6268 79.1707
25.9795 6103 78.1217
26.0962 6048 77.7689
26.213 6024 77.6144
26.3298 5719 75.6241
26.4466 5779 76.0197
26.5635 5685 75.3989
26.6804 5607 74.8799
26.7973 5576 74.6726
26.9143 5629 75.0267
27.0313 5186 72.0139
27.1483 5112 71.4983
27.2653 4930 70.214
27.3824 5069 71.1969
27.4996 5227 72.298
27.6167 5451 73.8309
27.7339 5612 74.9133
27.8511 5883 76.7007
27.9683 6089 78.032
28.0855 6116 78.2049
28.2028 6273 79.2023
28.3201 6029 77.6466
28.4374 6120 78.2304
28.5547 6060 77.846
28.6721 5990 77.3951
28.7894 5899 76.8049
28.9068 5903 76.831
29.0242 5739 75.7562
29.1416 5725 75.6637
29.259 5543 74.4513
29.3764 5753 75.8485
29.4939 5490 74.0945
29.6113 5623 74.9867
29.7288 5347 73.1232
29.8463 5476 74
29.9638 5675 75.3326
30.0812 5537 74.411
30.1987 5558 74.552
30.3162 5572 74.6458
30.4337 5481 74.0338
30.5512 5321 72.9452
30.6687 5086 71.3162
30.7862 5025 70.8872
30.9037 5053 71.0845
31.0212 5529 74.3572
31.1387 5793 76.1118
31.2562 5894 76.7724
31.3737 6182 78.6257
31.4912 6235 78.962
31.6087 6358 79.7371
31.7262 6355 79.7183
31.8436 5994 77.4209
31.9611 6037 77.6981
32.0785 5926 76.9805
32.1959 5949 77.1298
32.3134 5666 75.2728
32.4308 5558 74.552
32.5482 5431 73.6953
32.6655 5379 73.3417
32.7829 5258 72.5121
32.9002 5367 73.2598
33.0176 5235 72.3533
33.1349 5414 73.5799
33.2522 5203 72.1318
33.3694 5384 73.3757
33.4867 5270 72.5948
33.6039 5448 73.8106
33.7211 5485 74.0608
33.8383 5673 75.3193
33.9554 5793 76.1118
34.0725 5697 75.4785
34.1896 5639 75.0933
34.3067 5441 73.7631
34.4237 5236 72.3602
34.5407 4866 69.7567
34.6577 5200 72.111
34.7746 5346 73.1163
34.8915 5612 74.9133
35.0084 5587 74.7462
35.1252 5621 74.9733
35.242 5547 74.4782
35.3587 5676 75.3392
35.4755 5506 74.2024
35.5921 5422 73.6342
35.7088 5387 73.3962
35.8254 5547 74.4782
35.9419 5406 73.5255
36.0584 5371 73.2871
36.1749 5433 73.7089
36.2913 5293 72.753
36.4077 5257 72.5052
36.524 5108 71.4703
36.6403 5106 71.4563
36.7565 5237 72.3671
36.8727 5126 71.5961
36.9889 5275 72.6292
37.1049 5192 72.0555
37.221 0 1
37.3369 0 1
37.4529 0 1
37.5687 0 1
37.6845 0 1
37.8003 0 1
37.916 0 1
38.0316 0 1
38.1472 0 1
40.5851 0 1
40.7008 0 1
40.8164 0 1
40.9322 0 1
41.048 0 1
41.1639 0 1
41.2798 0 1
41.3958 0 1
41.5118 0 1
41.6279 0 1
41.744 4356 66
41.8602 4489 67
41.9765 4649 68.1836
42.0928 4663 68.2862
42.2091 4717 68.6804
42.3255 4809 69.347
42.4419 4833 69.5198
42.5584 4718 68.6877
42.675 4742 68.8622
42.7915 4563 67.55
42.9081 4471 66.8655
43.0248 4380 66.1816
43.1415 4067 63.773
43.2582 3730 61.0737
43.375 3689 60.7371
43.4918 4103 64.0547
43.6087 4275 65.3835
43.7256 4193 64.7534
43.8425 4335 65.8407
43.9595 4262 65.284
44.0765 4430 66.5582
44.1935 4352 65.9697
44.3106 4308 65.6354
44.4277 4328 65.7875
44.5448 4201 64.8151
44.6619 4193 64.7534
44.7791 4122 64.2028
44.8963 4178 64.6375
45.0136 4126 64.2339
45.1308 4220 64.9615
45.2481 4209 64.8768
45.3654 4311 65.6582
45.4827 4100 64.0312
45.6001 4068 63.7809
45.7174 4111 64.1171
45.8348 3988 63.1506
45.9522 3937 62.7455
46.0697 3804 61.6766
46.1871 3684 60.696
46.3046 3820 61.8061
46.422 3640 60.3324
46.5395 3538 59.4811
46.657 3212 56.6745
46.7745 3109 55.7584
46.892 2837 53.2635
47.0096 2976 54.5527
47.1271 3006 54.827
47.2446 3177 56.3649
47.3622 3088 55.5698
47.4797 3151 56.1338
47.5973 3059 55.3082
47.7149 3140 56.0357
47.8324 3190 56.4801
47.95 3088 55.5698
48.0675 3110 55.7674
48.1851 3079 55.4887
48.3027 3131 55.9553
48.4202 2995 54.7266
48.5378 3106 55.7315
48.6554 3183 56.4181
48.7729 3196 56.5332
48.8904 3175 56.3471
49.008 3285 57.3149
49.1255 3308 57.5152
49.243 3285 57.3149
49.3605 3302 57.463
49.478 3250 57.0088
49.5955 3375 58.0948
49.713 3278 57.2538
49.8304 3297 57.4195
49.9479 3470 58.9067
50.0653 3423 58.5064
50.1827 3217 56.7186
50.3001 2930 54.1295
50.4175 2875 53.619
50.5348 2621 51.1957
50.6521 3168 56.285
50.7694 3405 58.3524
50.8867 3546 59.5483
51.004 3775 61.441
51.1212 3936 62.7375
51.2384 3955 62.8888
51.3556 4022 63.4192
51.4727 4179 64.6452
51.5899 4040 63.561
51.707 4139 64.3351
51.824 4268 65.3299
51.9411 4248 65.1767
52.0581 4254 65.2227
52.175 4499 67.0746
52.2919 4513 67.1789
52.4088 4499 67.0746
52.5257 4544 67.4092
52.6425 4485 66.9701
52.7593 4474 66.888
52.876 4518 67.2161
52.9927 4607 67.8749
53.1094 4499 67.0746
53.226 4497 67.0597
53.3426 4498 67.0671
53.4591 4595 67.7864
53.5756 4554 67.4833
53.692 4620 67.9706
53.8084 4318 65.7115
53.9248 4138 64.3273
54.0411 3681 60.6712
54.1573 3744 61.1882
54.2735 0 1
54.3896 0 1
54.5057 0 1
54.6217 0 1
54.7377 0 1
54.8537 0 1
54.9695 0 1
55.0853 0 1
55.2011 0 1
55.3168 0 1
55.4324 0 1
57.824 0 1
57.9396 0 1
58.0553 0 1
58.1711 0 1
58.2869 0 1
58.4028 0 1
58.5187 0 1
58.6347 0 1
58.7508 0 1
58.8669 0 1
58.983 4885 69.8928
59.0992 4779 69.1303
59.2155 4485 66.9701
59.3318 4431 66.5658
59.4482 4851 69.6491
59.5646 5032 70.9366
59.681 5248 72.4431
59.7975 5426 73.6614
59.9141 5548 74.4849
60.0306 5651 75.1731
60.1473 5422 73.6342
60.2639 5555 74.5319
60.3807 5654 75.1931
60.4974 5572 74.6458
60.6142 5585 74.7329
60.731 5608 74.8866
60.8479 5795 76.1249
60.9648 5627 75.0133
61.0818 5716 75.6042
61.1987 5662 75.2463
61.3158 5666 75.2728
61.4328 5528 74.3505
61.5499 5537 74.411
61.667 5596 74.8064
61.7841 5475 73.9932
61.9013 5473 73.9797
62.0185 5507 74.2092
62.1357 5386 73.3894
62.253 5409 73.5459
62.3702 5154 71.7914
62.4875 4866 69.7567
62.6049 4418 66.468
62.7222 4619 67.9632
62.8396 4793 69.2315
62.9569 4868 69.7711
63.0743 5007 70.7602
63.1918 5215 72.215
63.3092 5158 71.8192
63.4267 5286 72.7049
63.5441 5336 73.0479
63.6616 5488 74.081
63.7791 5329 73
63.8966 5368 73.2666
64.0142 5318 72.9246
64.1317 5403 73.5051
64.2492 5349 73.1369
64.3668 5372 73.2939
64.4843 5431 73.6953
64.6019 5299 72.7942
64.7195 5348 73.13
64.837 5361 73.2189
64.9546 5371 73.2871
65.0722 5392 73.4302
65.1898 5255 72.4914
65.3074 5415 73.5867
65.4249 5233 72.3395
65.5425 5149 71.7565
65.6601 5207 72.1595
65.7777 5055 71.0985
65.8952 5173 71.9236
66.0128 4806 69.3253
66.1304 4493 67.0298
66.2479 4242 65.1306
66.3655 4349 65.9469
66.483 4500 67.082
66.6005 4832 69.5126
66.718 4927 70.1926
66.8355 5003 70.7319
66.953 5151 71.7705
67.0705 5176 71.9444
67.1879 5225 72.2842
67.3054 5220 72.2496
67.4228 5137 71.6729
67.5402 5133 71.645
67.6576 5218 72.2357
67.7749 5067 71.1829
67.8923 5367 73.2598
68.0096 5320 72.9383
68.1269 5222 72.2634
68.2442 5363 73.2325
68.3614 5319 72.9315
68.4787 5283 72.6842
68.5958 5366 73.253
68.713 5262 72.5396
68.8302 5278 72.6498
68.9473 5221 72.2565
69.0643 5218 72.2357
69.1814 5286 72.7049
69.2984 5083 71.2952
69.4154 5198 72.0972
69.5323 5218 72.2357
69.6492 4952 70.3704
69.7661 4796 69.2532
69.8829 4603 67.8454
69.9997 4394 66.2873
70.1165 4603 67.8454
70.2332 4811 69.3614
70.3499 4866 69.7567
70.4665 4829 69.491
70.5831 4932 70.2282
70.6996 5113 71.5052
70.8161 5141 71.7008
70.9326 5255 72.4914
71.049 5247 72.4362
71.1653 5205 72.1457
71.2817 5055 71.0985
71.3979 5251 72.4638
71.5141 5049 71.0563
71.6303 5170 71.9027
71.7464 4711 68.6367
71.8624 0 1
71.9784 0 1
72.0944 0 1
72.2102 0 1
72.3261 0 1
72.4418 0 1
72.5575 0 1
72.6732 0 1
75.1054 0 1
75.2209 0 1
75.3365 0 1
75.4521 0 1
75.5678 0 1
75.6835 0 1
75.7993 0 1
75.9151 0 1
76.031 0 1
76.147 4428 66.5432
76.263 4954 70.3847
76.3791 4973 70.5195
76.4952 5170 71.9027
76.6113 5057 71.1126
76.7276 5139 71.6868
76.8438 5191 72.0486
76.9601 5293 72.753
77.0765 5396 73.4575
77.1929 5449 73.8173
77.3093 5433 73.7089
77.4258 5331 73.0137
77.5423 5178 71.9583
77.6589 5400 73.4847
77.7755 5225 72.2842
77.8921 5146 71.7356
78.0088 5146 71.7356
78.1256 5235 72.3533
78.2423 5187 72.0208
78.3591 5242 72.4017
78.4759 5169 71.8958
78.5928 5269 72.5879
78.7097 4964 70.4557
78.8266 4922 70.157
78.9436 4069 63.7887
79.0606 3874 62.2415
79.1776 3899 62.442
79.2946 4362 66.0454
79.4117 4805 69.3181
79.5288 4921 70.1498
79.6459 4907 70.05
79.7631 5011 70.7884
79.8802 5148 71.7496
79.9974 5150 71.7635
80.1147 5208 72.1665
80.2319 5219 72.2426
80.3491 5195 72.0763
80.4664 5205 72.1457
80.5837 5223 72.2703
80.701 5332 73.0205
80.8183 5339 73.0685
80.9357 5351 73.1505
81.053 5378 73.3348
81.1704 5368 73.2666
81.2877 5299 72.7942
81.4051 5264 72.5534
81.5225 5327 72.9863
81.6399 5285 72.698
81.7573 5139 71.6868
81.8747 5102 71.4283
81.9922 5190 72.0417
82.1096 5161 71.8401
82.227 4922 70.157
82.3444 4976 70.5408
82.4619 4728 68.7605
82.5793 4433 66.5808
82.6967 4189 64.7225
82.8142 3911 62.538
82.9316 4226 65.0077
83.049 4437 66.6108
83.1664 4618 67.9559
83.2838 4823 69.4478
83.4012 4984 70.5975
83.5186 4995 70.6753
83.636 5032 70.9366
83.7534 5070 71.2039
83.8708 4998 70.6965
83.9881 5023 70.8731
84.1055 5143 71.7147
84.2228 5022 70.8661
84.3401 5176 71.9444
84.4575 5190 72.0417
84.5747 5057 71.1126
84.692 5083 71.2952
84.8093 5155 71.7983
84.9265 5186 72.0139
85.0437 5121 71.5612
85.1609 5115 71.5192
85.2781 5189 72.0347
85.3952 5175 71.9375
85.5123 5142 71.7077
85.6294 5182 71.9861
85.7465 5126 71.5961
85.8636 5172 71.9166
85.9806 4900 70
86.0976 4744 68.8767
86.2145 4441 66.6408
86.3315 4067 63.773
86.4484 4353 65.9773
86.5652 4780 69.1375
86.682 4836 69.5414
86.7988 4820 69.4262
86.9156 5024 70.8802
87.0323 5232 72.3326
87.149 5268 72.581
87.2657 5361 73.2189
87.3823 5295 72.7668
87.4988 5366 73.253
87.6154 5463 73.9121
87.7318 5468 73.9459
87.8483 5547 74.4782
87.9647 5401 73.4915
88.081 5546 74.4715
88.1973 5736 75.7364
88.3136 5548 74.4849
88.4298 5488 74.081
88.546 5637 75.08
88.6621 5546 74.4715
88.7781 5301 72.808
88.8942 0 1
89.0101 0 1
89.126 0 1
89.2419 0 1
89.3577 0 1
89.4734 0 1
89.5891 0 1
89.7047 0 1
89.8203 0 1
89.9358 0 1
92.3269 0 1
92.4424 0 1
92.558 0 1
92.6736 0 1
92.7893 0 1
92.905 0 1
93.0208 0 1
93.1366 0 1
93.2525 0 1
93.3685 0 1
93.4845 0 1
93.6005 5531 74.3707
93.7167 5532 74.3774
93.8328 5565 74.5989
93.949 5671 75.306
94.0653 5637 75.08
94.1816 5449 73.8173
94.2979 5484 74.054
94.4143 5341 73.0821
94.5307 5291 72.7393
94.6472 5428 73.675
94.7637 5298 72.7874
94.8803 5374 73.3076
94.9969 5266 72.5672
95.1135 5256 72.4983
95.2302 5126 71.5961
95.3469 4900 70
95.4637 4690 68.4836
95.5805 4626 68.0147
95.6973 4663 68.2862
95.8142 4898 69.9857
95.9311 5031 70.9295
96.048 5217 72.2288
96.1649 5412 73.5663
96.2819 5546 74.4715
96.3989 5631 75.04
96.516 5610 74.8999
96.633 5678 75.3525
96.7501 5822 76.302
96.8673 5919 76.935
96.9844 5850 76.4853
97.1016 5879 76.6746
97.2188 5982 77.3434
97.336 6040 77.7174
97.4532 6012 77.5371
97.5704 5938 77.0584
97.6877 6036 77.6917
97.805 6088 78.0256
97.9223 5912 76.8895
98.0396 5870 76.6159
98.1569 5796 76.1315
98.2743 5871 76.6225
98.3916 5688 75.4188
98.509 5649 75.1598
98.6264 5844 76.4461
98.7438 5640 75.0999
98.8612 5552 74.5117
98.9786 5321 72.9452
99.096 5080 71.2741
99.2134 4621 67.9779
99.3308 5018 70.8378
99.4482 5397 73.4643
99.5656 5512 74.2428
99.6831 5642 75.1132
99.8005 5499 74.1552
99.9179 5772 75.9737
100.035 5795 76.1249
100.153 5789 76.0855
100.27 5938 77.0584
100.388 6064 77.8717
100.505 5840 76.4199
100.622 6151 78.4283
100.74 6050 77.7817
100.857 6319 79.4921
100.975 6076 77.9487
101.092 6310 79.4355
101.209 6310 79.4355
101.327 6236 78.9683
101.444 6259 79.1138
101.561 6125 78.2624
101.679 6140 78.3582
101.796 6000 77.4597
101.913 6109 78.1601
102.03 6148 78.4092
102.148 6073 77.9295
102.265 6295 79.341
102.382 5691 75.4387
102.499 5767 75.9408
102.616 5445 73.7902
102.733 5232 72.3326
102.851 5100 71.4143
102.968 5318 72.9246
103.085 5600 74.8331
103.202 5590 74.7663
103.319 5749 75.8222
103.436 5801 76.1643
103.552 6031 77.6595
103.669 6125 78.2624
103.786 6217 78.848
103.903 6339 79.6178
104.02 6064 77.8717
104.137 6336 79.599
104.253 6592 81.1911
104.37 6256 79.0949
104.487 6439 80.2434
104.603 6534 80.8332
104.72 6441 80.2558
104.836 6501 80.6288
104.953 6450 80.3119
105.069 6366 79.7872
105.186 6411 80.0687
105.302 6313 79.4544
105.418 6243 79.0127
105.535 6273 79.2023
105.651 6353 79.7057
105.767 6003 77.479
105.883 6086 78.0128
105.999 5870 76.6159
106.115 0 1
106.231 0 1
106.347 0 1
106.463 0 1
106.579 0 1
106.694 0 1
106.81 0 1
106.926 0 1
107.041 0 1
107.157 0 1
109.576 0 1
109.692 0 1
109.807 0 1
109.923 0 1
110.039 0 1
110.155 0 1
110.27 0 1
110.386 0 1
110.502 0 1
110.618 5871 76.6225
110.735 5985 77.3628
110.851 6069 77.9038
110.967 5848 76.4722
111.083 5724 75.6571
111.199 5342 73.089
111.316 5338 73.0616
111.432 5383 73.3689
111.549 5438 73.7428
111.665 5503 74.1822
111.782 5523 74.3169
111.898 5709 75.5579
112.015 5859 76.5441
112.132 5976 77.3046
112.248 5966 77.2399
112.365 5987 77.3757
112.482 6122 78.2432
112.599 5803 76.1774
112.716 6087 78.0192
112.832 6048 77.7689
112.949 6034 77.6788
113.066 6055 77.8139
113.183 6047 77.7625
113.3 6102 78.1153
113.417 5830 76.3544
113.534 5771 75.9671
113.652 5728 75.6836
113.769 5772 75.9737
113.886 5546 74.4715
114.003 5682 75.379
114.12 5650 75.1665
114.238 5587 74.7462
114.355 5506 74.2024
114.472 5333 73.0274
114.589 5212 72.1942
114.707 4891 69.9357
114.824 4822 69.4406
114.942 4852 69.6563
115.059 4928 70.1997
115.176 5096 71.3863
115.294 5132 71.638
115.411 5144 71.7217
115.529 5281 72.6705
115.646 5246 72.4293
115.764 5561 74.5721
115.881 5438 73.7428
115.999 5477 74.0068
116.116 5517 74.2765
116.234 5639 75.0933
116.351 5784 76.0526
116.469 5574 74.6592
116.586 5611 74.9066
116.704 5825 76.3217
116.821 5767 75.9408
116.939 5815 76.2561
117.056 5696 75.4718
117.174 5597 74.8131
117.291 5621 74.9733
117.409 5607 74.8799
117.526 5541 74.4379
117.644 5637 75.08
117.761 5583 74.7195
117.879 5734 75.7232
117.996 5493 74.1148
118.114 5430 73.6885
118.231 5561 74.5721
118.349 5134 71.6519
118.466 4998 70.6965
118.584 4753 68.942
118.701 4958 70.4131
118.819 5012 70.7955
118.936 4990 70.6399
119.053 5103 71.4353
119.171 5161 71.8401
119.288 5582 74.7128
119.405 5412 73.5663
119.523 5518 74.2832
119.64 5600 74.8331
119.757 5569 74.6257
119.875 5535 74.3976
119.992 5508 74.2159
120.109 5609 74.8933
120.226 5708 75.5513
120.343 5595 74.7997
120.46 5639 75.0933
120.578 5577 74.6793
120.695 5576 74.6726
120.812 5616 74.94
120.929 5656 75.2064
121.046 5483 74.0473
121.163 5508 74.2159
121.279 5515 74.263
121.396 5521 74.3034
121.513 5497 74.1418
121.63 5571 74.6391
121.747 5314 72.8972
121.863 5299 72.7942
121.98 5071 71.211
122.097 4700 68.5565
122.213 4603 67.8454
122.33 4784 69.1665
122.446 4716 68.6731
122.563 4686 68.4544
122.679 4919 70.1356
122.795 4944 70.3136
122.912 5150 71.7635
123.028 5090 71.3442
123.144 5379 73.3417
123.26 5347 73.1232
123.377 0 1
123.493 0 1
123.609 0 1
123.725 0 1
123.84 0 1
123.956 0 1
124.072 0 1
124.188 0 1
124.303 0 1
124.419 0 1
126.852 0 1
126.968 0 1
127.083 0 1
127.199 0 1
127.315 0 1
127.431 0 1
127.547 0 1
127.663 0 1
127.779 0 1
127.895 0 1
128.011 0 1
128.127 0 1
128.243 0 1
128.359 5835 76.3872
128.476 5889 76.7398
128.592 5982 77.3434
128.708 6002 77.4726
128.825 6074 77.9359
128.941 6107 78.1473
129.058 6311 79.4418
129.174 6286 79.2843
129.291 6276 79.2212
129.408 6310 79.4355
129.524 6340 79.6241
129.641 6345 79.6555
129.758 6401 80.0062
129.875 6207 78.7845
129.992 6240 78.9937
130.108 6170 78.5493
130.225 6086 78.0128
130.342 5978 77.3175
130.459 5790 76.092
130.576 6262 79.1328
130.693 6196 78.7147
130.81 5975 77.2981
130.928 5785 76.0592
131.045 5416 73.5935
131.162 5002 70.7248
131.279 5340 73.0753
131.396 5434 73.7157
131.513 5467 73.9392
131.631 5563 74.5855
131.748 5814 76.2496
131.865 5915 76.909
131.983 5965 77.2334
132.1 6104 78.1281
132.217 5936 77.0454
132.335 6313 79.4544
132.452 6144 78.3837
132.57 6225 78.8987
132.687 6194 78.702
132.804 6604 81.265
132.922 6310 79.4355
133.039 6365 79.781
133.157 6226 78.905
133.274 6066 77.8845
133.392 6131 78.3007
133.509 6125 78.2624
133.627 6220 78.867
133.744 6096 78.0769
133.862 6131 78.3007
133.979 6071 77.9166
134.097 6102 78.1153
134.214 6291 79.3158
134.332 5831 76.361
134.449 5771 75.9671
134.567 5734 75.7232
134.684 5475 73.9932
134.802 5377 73.328
134.919 5492 74.108
135.037 5650 75.1665
135.154 5762 75.9078
135.272 5973 77.2852
135.389 5967 77.2464
135.507 6160 78.4857
135.624 6400 80
135.742 6354 79.712
135.859 6245 79.0253
135.977 6348 79.6743
136.094 6344 79.6492
136.211 6273 79.2023
136.329 6429 80.181
136.446 6531 80.8146
136.564 6481 80.5047
136.681 6567 81.037
136.798 6216 78.8416
136.915 6154 78.4474
137.033 6283 79.2654
137.15 6254 79.0822
137.267 6199 78.7337
137.384 6113 78.1857
137.502 6338 79.6116
137.619 6165 78.5175
137.736 6106 78.1409
137.853 6070 77.9102
137.97 5988 77.3822
138.087 6122 78.2432
138.204 5768 75.9474
138.321 5509 74.2226
138.438 5575 74.6659
138.555 5586 74.7395
138.672 5634 75.06
138.788 5939 77.0649
138.905 5878 76.6681
139.022 6186 78.6511
139.139 6209 78.7972
139.255 6362 79.7621
139.372 6284 79.2717
139.488 6285 79.278
139.605 6094 78.0641
139.721 5961 77.2075
139.838 6101 78.1089
139.954 5897 76.7919
140.071 6067 77.8909
140.187 6194 78.702
140.303 6204 78.7655
140.419 6254 79.0822
140.535 6308 79.4229
140.652 6293 79.3284
140.768 0 1
140.884 0 1
141 0 1
141.115 0 1
141.231 0 1
141.347 0 1
141.463 0 1
141.578 0 1
141.694 0 1
144.104 0 1
144.219 0 1
144.335 0 1
144.45 0 1
144.566 0 1
144.682 0 1
144.798 0 1
144.914 0 1
145.03 0 1
145.146 5126 71.5961
145.262 5219 72.2426
145.378 5405 73.5187
145.494 5202 72.1249
145.61 5281 72.6705
145.726 5350 73.1437
145.842 5318 72.9246
145.959 5563 74.5855
146.075 5738 75.7496
146.192 5689 75.4255
146.308 6019 77.5822
146.425 5986 77.3692
146.541 6262 79.1328
146.658 6056 77.8203
146.774 5978 77.3175
146.891 5660 75.233
147.008 5476 74
147.125 5320 72.9383
147.241 5359 73.2052
147.358 5347 73.1232
147.475 5399 73.4779
147.592 5426 73.6614
147.709 5420 73.6206
147.826 5358 73.1984
147.943 5436 73.7292
148.06 5297 72.7805
148.177 5156 71.8053
148.294 5176 71.9444
148.411 4984 70.5975
148.528 5048 71.0493
148.645 5161 71.8401
148.762 5083 71.2952
148.88 5037 70.9718
148.997 4825 69.4622
149.114 5211 72.1873
149.231 5353 73.1642
149.349 5385 73.3826
149.466 5244 72.4155
149.583 5358 73.1984
149.701 5380 73.3485
149.818 5461 73.8986
149.935 5428 73.675
150.053 5288 72.7186
150.17 5459 73.885
150.287 5464 73.9189
150.405 5275 72.6292
150.522 5019 70.8449
150.64 4678 68.3959
150.757 4710 68.6294
150.875 4777 69.1158
150.992 4766 69.0362
151.11 4590 67.7495
151.227 4734 68.8041
151.344 5025 70.8872
151.462 4976 70.5408
151.579 5144 71.7217
151.697 5058 71.1196
151.814 5185 72.0069
151.932 4988 70.6258
152.049 5204 72.1388
152.167 5170 71.9027
152.284 5198 72.0972
152.402 5111 71.4913
152.519 5209 72.1734
152.636 5169 71.8958
152.754 5252 72.4707
152.871 5313 72.8903
152.989 5239 72.3809
153.106 5438 73.7428
153.223 5554 74.5252
153.341 5421 73.6274
153.458 5486 74.0675
153.575 5428 73.675
153.693 5418 73.6071
153.81 5273 72.6154
153.927 5399 73.4779
154.044 5186 72.0139
154.162 4953 70.3776
154.279 4843 69.5917
154.396 4881 69.8642
154.513 4935 70.2496
154.63 4983 70.5904
154.747 4792 69.2243
154.864 5108 71.4703
154.981 5246 72.4293
155.098 5266 72.5672
155.215 5233 72.3395
155.332 5295 72.7668
155.449 5384 73.3757
155.566 5308 72.856
155.683 5407 73.5323
155.8 5406 73.5255
155.917 5383 73.3689
156.033 5434 73.7157
156.15 0 1
156.267 0 1
156.383 0 1
156.5 0 1
156.617 0 1
156.733 0 1
156.85 0 1
156.966 0 1
157.082 0 1
157.199 0 1
157.315 0 1
157.431 0 1
157.547 0 1
157.664 0 1
157.78 0 1
157.896 0 1
158.012 0 1
158.128 0 1
158.244 0 1
158.359 0 1
158.475 0 1
158.591 0 1
158.706 0 1
