
6.15755 0 1
6.2731 0 1
6.3887 0 1
6.50437 0 1
6.62009 0 1
6.73587 0 1
6.8517 0 1
6.96759 0 1
7.08353 0 1
7.19952 0 1
7.31557 0 1
7.43166 0 1
7.54781 0 1
7.664 0 1
7.78024 0 1
7.89653 0 1
8.01286 0 1
8.12924 0 1
8.24567 0 1
8.36213 0 1
8.47864 0 1
8.59519 0 1
8.71178 0 1
8.82841 0 1
8.94508 0 1
9.06179 0 1
9.17853 0 1
9.29531 0 1
9.41212 0 1
9.52897 0 1
9.64584 0 1
9.76276 0 1
9.8797 0 1
9.99667 0 1
10.1137 0 1
10.2307 0 1
10.3478 0 1
10.4648 0 1
10.5819 0 1
10.6991 0 1
10.8162 0 1
10.9334 0 1
11.0506 0 1
11.1678 0 1
11.285 0 1
11.4023 0 1
11.5196 0 1
11.6369 0 1
11.7542 0 1
11.8715 0 1
11.9888 0 1
12.1062 0 1
12.2235 0 1
12.3409 0 1
12.4582 0 1
12.5756 0 1
12.693 0 1
12.8104 0 1
12.9278 0 1
13.0452 0 1
13.1626 0 1
13.28 0 1
13.3974 0 1
13.5149 0 1
13.6323 0 1
13.7497 0 1
13.8671 0 1
13.9845 0 1
14.1019 0 1
14.2193 0 1
14.3367 0 1
14.4541 0 1
14.5714 0 1
14.6888 0 1
14.8062 0 1
14.9235 0 1
15.0408 0 0
15.1581 0 0
15.2755 0 0
15.3927 0 0
15.51 0 0
15.6273 0 0
15.7445 0 0
15.8617 0 0
15.9789 0 0
16.0961 0 0
16.2132 0 0
16.3304 0 0
16.4475 0 0
16.5646 0 0
16.6816 0 0
16.7986 0 0
16.9156 0 0
17.0326 0 0
17.1496 0 0
17.2665 0 0
17.3833 0 0
17.5002 0 0
17.617 0 0
17.7338 0 0
17.8505 0 0
17.9672 0 0
18.0839 0 0
18.2005 0 0
18.3171 0 0
18.4337 0 0
18.5502 0 0
18.6666 0 0
18.7831 0 0
18.8994 0 0
19.0158 0 0
19.1321 0 0
19.2483 0 0
19.3645 0 0
19.4806 0 0
19.5967 0 0
19.7128 0 0
19.8288 0 0
19.9447 0 0
20.0606 0 1
20.1764 0 1
20.2922 0 1
20.4079 0 1
20.5236 0 1
20.6392 0 1
20.7548 0 1
20.8702 0 1
23.3078 0 1
23.4233 0 1
23.539 0 1
23.6547 0 1
23.7704 0 1
23.8862 0 1
24.0021 0 1
24.118 0 1
24.234 0 1
24.35 0 1
24.4661 3426 58.532
24.5822 3775 61.441
24.6984 4116 64.1561
24.8146 4730 68.775
24.9309 6072 77.923
25.0472 6881 82.9518
25.1636 7560 86.9483
25.28 7703 87.7667
25.3965 7591 87.1263
25.513 7535 86.8044
25.6296 7276 85.2995
25.7462 7376 85.8836
25.8628 7081 84.1487
25.9795 7135 84.4689
26.0962 7020 83.7854
26.213 6875 82.9156
26.3298 6891 83.012
26.4466 6714 81.939
26.5635 6536 80.8455
26.6804 6571 81.0617
26.7973 6069 77.9038
26.9143 6159 78.4793
27.0313 5757 75.8749
27.1483 5623 74.9867
27.2653 5571 74.6391
27.3824 5347 73.1232
27.4996 5086 71.3162
27.6167 4756 68.9638
27.7339 4852 69.6563
27.8511 5273 72.6154
27.9683 5665 75.2662
28.0855 5872 76.629
28.2028 6044 77.7432
28.3201 6178 78.6003
28.4374 6477 80.4798
28.5547 6229 78.924
28.6721 6474 80.4612
28.7894 6342 79.6367
28.9068 6429 80.181
29.0242 6511 80.6908
29.1416 6766 82.2557
29.259 6761 82.2253
29.3764 6734 82.061
29.4939 6487 80.5419
29.6113 6438 80.2371
29.7288 6116 78.2049
29.8463 6066 77.8845
29.9638 5992 77.408
30.0812 6127 78.2752
30.1987 5999 77.4532
30.3162 5956 77.1751
30.4337 5896 76.7854
30.5512 5952 77.1492
30.6687 6050 77.7817
30.7862 5950 77.1362
30.9037 5664 75.2596
31.0212 5300 72.8011
31.1387 5248 72.4431
31.2562 5533 74.3841
31.3737 6037 77.6981
31.4912 6354 79.712
31.6087 6347 79.6681
31.7262 6431 80.1935
31.8436 6406 80.0375
31.9611 6440 80.2496
32.0785 6282 79.2591
32.1959 6148 78.4092
32.3134 6081 77.9808
32.4308 6049 77.7753
32.5482 5866 76.5898
32.6655 5745 75.7958
32.7829 5596 74.8064
32.9002 5515 74.263
33.0176 5407 73.5323
33.1349 5201 72.118
33.2522 5079 71.2671
33.3694 5179 71.9653
33.4867 5193 72.0625
33.6039 5217 72.2288
33.7211 5377 73.328
33.8383 5465 73.9256
33.9554 5654 75.1931
34.0725 5652 75.1798
34.1896 5663 75.2529
34.3067 5789 76.0855
34.4237 5891 76.7529
34.5407 5490 74.0945
34.6577 5561 74.5721
34.7746 5445 73.7902
34.8915 5555 74.5319
35.0084 5901 76.818
35.1252 6085 78.0064
35.242 5962 77.214
35.3587 6005 77.4919
35.4755 5953 77.1557
35.5921 5706 75.5381
35.7088 5553 74.5185
35.8254 5388 73.403
35.9419 5240 72.3878
36.0584 4967 70.4769
36.1749 4805 69.3181
36.2913 4672 68.352
36.4077 4510 67.1565
36.524 4109 64.1015
36.6403 3614 60.1166
36.7565 3147 56.0981
36.8727 2823 53.1319
36.9889 2632 51.303
37.1049 2525 50.2494
37.221 0 1
37.3369 0 1
37.4529 0 1
37.5687 0 1
37.6845 0 1
37.8003 0 1
37.916 0 1
38.0316 0 1
38.1472 0 1
40.5851 0 1
40.7008 0 1
40.8164 0 1
40.9322 0 1
41.048 0 1
41.1639 0 1
41.2798 0 1
41.3958 0 1
41.5118 0 1
41.6279 0 1
41.744 2291 47.8644
41.8602 3001 54.7814
41.9765 3424 58.515
42.0928 3907 62.506
42.2091 3987 63.1427
42.3255 3903 62.474
42.4419 3985 63.1269
42.5584 4358 66.0151
42.675 4325 65.7647
42.7915 4626 68.0147
42.9081 4767 69.0435
43.0248 5043 71.0141
43.1415 5104 71.4423
43.2582 5101 71.4213
43.375 4942 70.2994
43.4918 4868 69.7711
43.6087 4844 69.5989
43.7256 4786 69.1809
43.8425 5029 70.9154
43.9595 4991 70.647
44.0765 4776 69.1086
44.1935 4786 69.1809
44.3106 4730 68.775
44.4277 4794 69.2387
44.5448 4859 69.7065
44.6619 4749 68.913
44.7791 4783 69.1592
44.8963 4859 69.7065
45.0136 5020 70.852
45.1308 5077 71.2531
45.2481 5194 72.0694
45.3654 5459 73.885
45.4827 5583 74.7195
45.6001 5889 76.7398
45.7174 6064 77.8717
45.8348 6294 79.3347
45.9522 6556 80.9691
46.0697 6932 83.2586
46.1871 7254 85.1704
46.3046 7447 86.296
46.422 7805 88.3459
46.5395 7728 87.909
46.657 7746 88.0114
46.7745 7419 86.1336
46.892 6782 82.3529
47.0096 6447 80.2932
47.1271 6559 80.9877
47.2446 6804 82.4864
47.3622 6825 82.6136
47.4797 6988 83.5943
47.5973 7094 84.2259
47.7149 7209 84.9058
47.8324 7295 85.4108
47.95 7424 86.1626
48.0675 7141 84.5044
48.1851 7274 85.2877
48.3027 7286 85.3581
48.4202 7324 85.5804
48.5378 7057 84.006
48.6554 6979 83.5404
48.7729 6822 82.5954
48.8904 6807 82.5045
49.008 6679 81.7251
49.1255 6964 83.4506
49.243 6941 83.3127
49.3605 6913 83.1445
49.478 7110 84.3208
49.5955 7266 85.2408
49.713 7235 85.0588
49.8304 7324 85.5804
49.9479 7135 84.4689
50.0653 6906 83.1023
50.1827 6626 81.4002
50.3001 5819 76.2824
50.4175 4648 68.1762
50.5348 4181 64.6607
50.6521 4418 66.468
50.7694 4942 70.2994
50.8867 5085 71.3092
51.004 5099 71.4073
51.1212 4914 70.0999
51.2384 4877 69.8355
51.3556 4597 67.8012
51.4727 4450 66.7083
51.5899 4431 66.5658
51.707 4330 65.8027
51.824 4460 66.7832
51.9411 4397 66.3099
52.0581 4291 65.5057
52.175 4309 65.643
52.2919 4276 65.3911
52.4088 4164 64.5291
52.5257 4172 64.591
52.6425 3854 62.0806
52.7593 3835 61.9274
52.876 3718 60.9754
52.9927 3758 61.3025
53.1094 3747 61.2127
53.226 3876 62.2575
53.3426 3686 60.7124
53.4591 3575 59.7913
53.5756 3181 56.4004
53.692 2667 51.643
53.8084 2399 48.9796
53.9248 2081 45.618
54.0411 1801 42.4382
54.1573 1702 41.2553
54.2735 0 1
54.3896 0 1
54.5057 0 1
54.6217 0 1
54.7377 0 1
54.8537 0 1
54.9695 0 1
55.0853 0 1
55.2011 0 1
55.3168 0 1
55.4324 0 1
57.824 0 1
57.9396 0 1
58.0553 0 1
58.1711 0 1
58.2869 0 1
58.4028 0 1
58.5187 0 1
58.6347 0 1
58.7508 0 1
58.8669 0 1
58.983 3164 56.2494
59.0992 3142 56.0535
59.2155 3300 57.4456
59.3318 3456 58.7878
59.4482 3814 61.7576
59.5646 4185 64.6916
59.681 4412 66.4229
59.7975 4614 67.9264
59.9141 4445 66.6708
60.0306 4514 67.1863
60.1473 4544 67.4092
60.2639 4640 68.1175
60.3807 4439 66.6258
60.4974 4524 67.2607
60.6142 4652 68.2056
60.731 4778 69.1231
60.8479 4688 68.469
60.9648 4898 69.9857
61.0818 4739 68.8404
61.1987 4627 68.0221
61.3158 4624 68
61.4328 4404 66.3626
61.5499 4367 66.0833
61.667 4250 65.192
61.7841 4363 66.053
61.9013 4478 66.9179
62.0185 4525 67.2681
62.1357 4389 66.2495
62.253 4517 67.2086
62.3702 4404 66.3626
62.4875 4183 64.6761
62.6049 3753 61.2617
62.7222 3784 61.5142
62.8396 3897 62.426
62.9569 4434 66.5883
63.0743 4478 66.9179
63.1918 4690 68.4836
63.3092 4532 67.3201
63.4267 4606 67.8675
63.5441 4698 68.542
63.6616 4608 67.8823
63.7791 4428 66.5432
63.8966 4402 66.3476
64.0142 4452 66.7233
64.1317 4485 66.9701
64.2492 4595 67.7864
64.3668 4566 67.5722
64.4843 4532 67.3201
64.6019 4527 67.283
64.7195 4398 66.3174
64.837 4575 67.6387
64.9546 4539 67.3721
65.0722 4769 69.0579
65.1898 4890 69.9285
65.3074 5309 72.8629
65.4249 5598 74.8198
65.5425 6317 79.4796
65.6601 7051 83.9702
65.7777 7773 88.1646
65.8952 8303 91.1208
66.0128 8151 90.2829
66.1304 7694 87.7154
66.2479 7986 89.3644
66.3655 9120 95.4987
66.483 10802 103.933
66.6005 12345 111.108
66.718 13419 115.84
66.8355 14157 118.983
66.953 14742 121.417
67.0705 15019 122.552
67.1879 15317 123.762
67.3054 15367 123.964
67.4228 15782 125.626
67.5402 15907 126.123
67.6576 16098 126.878
67.7749 16097 126.874
67.8923 16171 127.165
68.0096 16352 127.875
68.1269 16298 127.664
68.2442 16530 128.569
68.3614 16653 129.047
68.4787 16550 128.647
68.5958 16683 129.163
68.713 16707 129.256
68.8302 16820 129.692
68.9473 17172 131.042
69.0643 17312 131.575
69.1814 17582 132.597
69.2984 18060 134.387
69.4154 17681 132.97
69.5323 17616 132.725
69.6492 16918 130.069
69.7661 14570 120.706
69.8829 13222 114.987
69.9997 14068 118.609
70.1165 16041 126.653
70.2332 16144 127.059
70.3499 15037 122.625
70.4665 13200 114.891
70.5831 11586 107.638
70.6996 10849 104.159
70.8161 10268 101.331
70.9326 10016 100.08
71.049 9481 97.3704
71.1653 9050 95.1315
71.2817 8522 92.3147
71.3979 8202 90.5649
71.5141 7485 86.5159
71.6303 7287 85.3639
71.7464 6939 83.3007
71.8624 0 1
71.9784 0 1
72.0944 0 1
72.2102 0 1
72.3261 0 1
72.4418 0 1
72.5575 0 1
72.6732 0 1
75.1054 0 1
75.2209 0 1
75.3365 0 1
75.4521 0 1
75.5678 0 1
75.6835 0 1
75.7993 0 1
75.9151 0 1
76.031 0 1
76.147 18860 137.332
76.263 20383 142.769
76.3791 19828 140.812
76.4952 19254 138.759
76.6113 18754 136.945
76.7276 17972 134.06
76.8438 17516 132.348
76.9601 16772 129.507
77.0765 16156 127.106
77.1929 15720 125.379
77.3093 14918 122.139
77.4258 14586 120.773
77.5423 13786 117.414
77.6589 13398 115.75
77.7755 13027 114.136
77.8921 12949 113.794
78.0088 12602 112.259
78.1256 12810 113.181
78.2423 12637 112.414
78.3591 12415 111.423
78.4759 12262 110.734
78.5928 11791 108.586
78.7097 10198 100.985
78.8266 8052 89.7329
78.9436 6518 80.7341
79.0606 7213 84.9294
79.1776 9036 95.0579
79.2946 11007 104.914
79.4117 11471 107.103
79.5288 11684 108.093
79.6459 11684 108.093
79.7631 11850 108.858
79.8802 11736 108.333
79.9974 11547 107.457
80.1147 11308 106.339
80.2319 11110 105.404
80.3491 11168 105.679
80.4664 10746 103.663
80.5837 10711 103.494
80.701 10447 102.211
80.8183 10503 102.484
80.9357 10222 101.104
81.053 9882 99.4082
81.1704 9901 99.5038
81.2877 9524 97.591
81.4051 9192 95.8749
81.5225 9191 95.8697
81.6399 8802 93.819
81.7573 8898 94.3292
81.8747 9062 95.1945
81.9922 8806 93.8403
82.1096 8997 94.8525
82.227 8853 94.0904
82.3444 7801 88.3233
82.4619 6639 81.4801
82.5793 5492 74.108
82.6967 5645 75.1332
82.8142 6948 83.3547
82.9316 8204 90.5759
83.049 8606 92.7685
83.1664 8842 94.0319
83.2838 8931 94.504
83.4012 9002 94.8789
83.5186 8806 93.8403
83.636 8842 94.0319
83.7534 8920 94.4458
83.8708 8906 94.3716
83.9881 8597 92.72
84.1055 8672 93.1236
84.2228 8350 91.3783
84.3401 8155 90.305
84.4575 8025 89.5824
84.5747 7887 88.8088
84.692 7249 85.1411
84.8093 7103 84.2793
84.9265 6675 81.7007
85.0437 6467 80.4177
85.1609 6272 79.196
85.2781 5901 76.818
85.3952 5768 75.9474
85.5123 5512 74.2428
85.6294 5567 74.6123
85.7465 5382 73.3621
85.8636 5051 71.0704
85.9806 4388 66.242
86.0976 3816 61.7738
86.2145 3820 61.8061
86.3315 4390 66.2571
86.4484 5198 72.0972
86.5652 5694 75.4586
86.682 5989 77.3886
86.7988 5967 77.2464
86.9156 6059 77.8396
87.0323 6271 79.1896
87.149 6216 78.8416
87.2657 6266 79.1581
87.3823 6353 79.7057
87.4988 5979 77.324
87.6154 5677 75.3459
87.7318 5455 73.858
87.8483 5075 71.239
87.9647 4985 70.6045
88.081 4749 68.913
88.1973 4691 68.4909
88.3136 4777 69.1158
88.4298 4865 69.7496
88.546 4683 68.4324
88.6621 4618 67.9559
88.7781 4668 68.3228
88.8942 0 1
89.0101 0 1
89.126 0 1
89.2419 0 1
89.3577 0 1
89.4734 0 1
89.5891 0 1
89.7047 0 1
89.8203 0 1
89.9358 0 1
92.3269 0 1
92.4424 0 1
92.558 0 1
92.6736 0 1
92.7893 0 1
92.905 0 1
93.0208 0 1
93.1366 0 1
93.2525 0 1
93.3685 0 1
93.4845 0 1
93.6005 10247 101.227
93.7167 10489 102.416
93.8328 11037 105.057
93.949 11512 107.294
94.0653 11595 107.68
94.1816 12095 109.977
94.2979 12289 110.856
94.4143 12504 111.821
94.5307 12880 113.49
94.6472 13125 114.564
94.7637 12395 111.333
94.8803 11657 107.968
94.9969 10466 102.303
95.1135 9880 99.3982
95.2302 10348 101.725
95.3469 11287 106.24
95.4637 12532 111.946
95.5805 13297 115.313
95.6973 13410 115.802
95.8142 13288 115.274
95.9311 13545 116.383
96.048 13468 116.052
96.1649 13144 114.647
96.2819 12902 113.587
96.3989 12318 110.986
96.516 12065 109.841
96.633 12161 110.277
96.7501 12516 111.875
96.8673 12700 112.694
96.9844 12597 112.236
97.1016 12851 113.362
97.2188 12968 113.877
97.336 13324 115.43
97.4532 13901 117.903
97.5704 14643 121.008
97.6877 14993 122.446
97.805 15437 124.246
97.9223 16088 126.838
98.0396 16243 127.448
98.1569 16462 128.304
98.2743 15829 125.813
98.3916 14846 121.844
98.509 12970 113.886
98.6264 11846 108.839
98.7438 12377 111.252
98.8612 13922 117.992
98.9786 15547 124.688
99.096 16389 128.02
99.2134 16894 129.977
99.3308 16639 128.992
99.4482 16922 130.085
99.5656 16829 129.727
99.6831 16989 130.342
99.8005 16681 129.155
99.9179 16077 126.795
100.035 15391 124.06
100.153 15256 123.515
100.27 15368 123.968
100.388 15595 124.88
100.505 15647 125.088
100.622 15592 124.868
100.74 15425 124.197
100.857 15736 125.443
100.975 16423 128.152
101.092 16796 129.599
101.209 17052 130.583
101.327 17139 130.916
101.444 17522 132.371
101.561 17737 133.18
101.679 17559 132.51
101.796 17356 131.742
101.913 17432 132.03
102.03 16094 126.862
102.148 14608 120.864
102.265 12615 112.317
102.382 14032 118.457
102.499 15194 123.264
102.616 17156 130.981
102.733 17881 133.72
102.851 17868 133.671
102.968 17931 133.907
103.085 18135 134.666
103.202 18082 134.469
103.319 18326 135.374
103.436 18294 135.255
103.552 18429 135.753
103.669 18472 135.912
103.786 18246 135.078
103.903 18665 136.62
104.02 18672 136.646
104.137 18999 137.837
104.253 19287 138.878
104.37 18047 134.339
104.487 18107 134.562
104.603 17559 132.51
104.72 16995 130.365
104.836 15931 126.218
104.953 14446 120.192
105.069 13054 114.254
105.186 11909 109.128
105.302 11141 105.551
105.418 10736 103.615
105.535 10142 100.707
105.651 9258 96.2185
105.767 8212 90.6201
105.883 7139 84.4926
105.999 6380 79.8749
106.115 0 1
106.231 0 1
106.347 0 1
106.463 0 1
106.579 0 1
106.694 0 1
106.81 0 1
106.926 0 1
107.041 0 1
107.157 0 1
109.576 0 1
109.692 0 1
109.807 0 1
109.923 0 1
110.039 0 1
110.155 0 1
110.27 0 1
110.386 0 1
110.502 0 1
110.618 25081 158.37
110.735 26337 162.287
110.851 25916 160.984
110.967 25087 158.389
111.083 24982 158.057
111.199 25723 160.384
111.316 27117 164.672
111.432 27715 166.478
111.549 28126 167.708
111.665 28246 168.065
111.782 28237 168.039
111.898 28014 167.374
112.015 27534 165.934
112.132 26834 163.811
112.248 26824 163.78
112.365 27287 165.188
112.482 27092 164.596
112.599 29211 170.912
112.716 29561 171.933
112.832 31091 176.326
112.949 32896 181.373
113.066 34123 184.724
113.183 33425 182.825
113.3 32931 181.469
113.417 33489 183
113.534 33427 182.831
113.652 33630 183.385
113.769 32728 180.909
113.886 33022 181.72
114.003 32829 181.188
114.12 33708 183.597
114.238 33264 182.384
114.355 32246 179.572
114.472 30585 174.886
114.589 30294 174.052
114.707 30757 175.377
114.824 32638 180.66
114.942 34434 185.564
115.059 35041 187.192
115.176 35203 187.625
115.294 35190 187.59
115.411 35573 188.608
115.529 34893 186.797
115.646 34384 185.429
115.764 33323 182.546
115.881 32426 180.072
115.999 32159 179.329
116.116 32492 180.255
116.234 33584 183.259
116.351 35062 187.248
116.469 35610 188.706
116.586 36977 192.294
116.704 37904 194.689
116.821 38075 195.128
116.939 37291 193.109
117.056 35442 188.26
117.174 33992 184.369
117.291 33111 181.964
117.409 32993 181.64
117.526 33982 184.342
117.644 34238 185.035
117.761 34742 186.392
117.879 34184 184.889
117.996 31883 178.558
118.114 30218 173.833
118.231 30748 175.351
118.349 31637 177.868
118.466 32617 180.602
118.584 33129 182.014
118.701 33159 182.096
118.819 32230 179.527
118.936 31546 177.612
119.053 30461 174.531
119.171 29457 171.63
119.288 28040 167.451
119.405 27333 165.327
119.523 26729 163.49
119.64 26797 163.698
119.757 27653 166.292
119.875 28675 169.337
119.992 30180 173.724
120.109 31428 177.279
120.226 32577 180.491
120.343 32341 179.836
120.46 31780 178.269
120.578 30286 174.029
120.695 28691 169.384
120.812 27426 165.608
120.929 26386 162.438
121.046 26069 161.459
121.163 26621 163.159
121.279 26427 162.564
121.396 26725 163.478
121.513 25823 160.695
121.63 24377 156.131
121.747 22415 149.716
121.863 20200 142.127
121.98 19056 138.043
122.097 18235 135.037
122.213 18038 134.306
122.33 17591 132.631
122.446 16897 129.988
122.563 16095 126.866
122.679 15620 124.98
122.795 14447 120.196
122.912 13470 116.06
123.028 12497 111.79
123.144 11581 107.615
123.26 10969 104.733
123.377 0 1
123.493 0 1
123.609 0 1
123.725 0 1
123.84 0 1
123.956 0 1
124.072 0 1
124.188 0 1
124.303 0 1
124.419 0 1
126.852 0 1
126.968 0 1
127.083 0 1
127.199 0 1
127.315 0 1
127.431 0 1
127.547 0 1
127.663 0 1
127.779 0 1
127.895 0 1
128.011 0 1
128.127 0 1
128.243 0 1
128.359 17228 131.255
128.476 17062 130.622
128.592 17242 131.309
128.708 16939 130.15
128.825 17319 131.602
128.941 17868 133.671
129.058 17977 134.078
129.174 18835 137.241
129.291 19744 140.513
129.408 20902 144.575
129.524 22607 150.356
129.641 23989 154.884
129.758 24513 156.566
129.875 25431 159.471
129.992 25330 159.154
130.108 25386 159.33
130.225 24811 157.515
130.342 24415 156.253
130.459 23048 151.816
130.576 22819 151.06
130.693 21283 145.887
130.81 20086 141.725
130.928 19959 141.276
131.045 20324 142.562
131.162 20692 143.847
131.279 21900 147.986
131.396 22040 148.459
131.513 21749 147.475
131.631 21788 147.608
131.748 21270 145.842
131.865 21240 145.739
131.983 21478 146.554
132.1 21228 145.698
132.217 21895 147.97
132.335 21941 148.125
132.452 21763 147.523
132.57 21996 148.31
132.687 21094 145.238
132.804 22736 150.785
132.922 21580 146.901
133.039 21684 147.255
133.157 21774 147.56
133.274 21976 148.243
133.392 22472 149.907
133.509 22995 151.641
133.627 23486 153.251
133.744 23075 151.905
133.862 23319 152.706
133.979 23472 153.206
134.097 23334 152.755
134.214 23176 152.237
134.332 22453 149.843
134.449 22654 150.512
134.567 22982 151.598
134.684 23876 154.519
134.802 24464 156.41
134.919 25189 158.71
135.037 25165 158.635
135.154 24598 156.837
135.272 24244 155.705
135.389 24097 155.232
135.507 23621 153.691
135.624 23196 152.302
135.742 23224 152.394
135.859 22694 150.645
135.977 22332 149.439
136.094 21724 147.391
136.211 21886 147.939
136.329 21547 146.789
136.446 21707 147.333
136.564 22038 148.452
136.681 22018 148.385
136.798 22145 148.812
136.915 22018 148.385
137.033 22204 149.01
137.15 22450 149.833
137.267 21958 148.182
137.384 21869 147.882
137.502 21169 145.496
137.619 20963 144.786
137.736 19887 141.021
137.853 19195 138.546
137.97 18659 136.598
138.087 17543 132.45
138.204 18476 135.926
138.321 18764 136.982
138.438 19310 138.96
138.555 19830 140.819
138.672 20045 141.58
138.788 19794 140.691
138.905 19699 140.353
139.022 19003 137.851
139.139 18121 134.614
139.255 17690 133.004
139.372 16276 127.577
139.488 15794 125.674
139.605 15345 123.875
139.721 14561 120.669
139.838 14067 118.604
139.954 13563 116.46
140.071 12854 113.375
140.187 12960 113.842
140.303 13165 114.739
140.419 13396 115.741
140.535 14062 118.583
140.652 14665 121.099
140.768 0 1
140.884 0 1
141 0 1
141.115 0 1
141.231 0 1
141.347 0 1
141.463 0 1
141.578 0 1
141.694 0 1
144.104 0 1
144.219 0 1
144.335 0 1
144.45 0 1
144.566 0 1
144.682 0 1
144.798 0 1
144.914 0 1
145.03 0 1
145.146 24344 156.026
145.262 24897 157.788
145.378 25269 158.962
145.494 25378 159.305
145.61 25795 160.608
145.726 26306 162.191
145.842 26220 161.926
145.959 27000 164.317
146.075 26849 163.857
146.192 26871 163.924
146.308 26252 162.025
146.425 25625 160.078
146.541 24263 155.766
146.658 22189 148.96
146.774 20162 141.993
146.891 19198 138.557
147.008 20737 144.003
147.125 23386 152.925
147.241 24910 157.829
147.358 25910 160.966
147.475 26522 162.856
147.592 26910 164.043
147.709 26785 163.661
147.826 27458 165.705
147.943 27498 165.825
148.06 28403 168.532
148.177 27785 166.688
148.294 27540 165.952
148.411 27581 166.075
148.528 27582 166.078
148.645 27721 166.496
148.762 28031 167.425
148.88 27817 166.784
148.997 27577 166.063
149.114 29481 171.7
149.231 29132 170.681
149.349 29265 171.07
149.466 28767 169.608
149.583 28753 169.567
149.701 28883 169.95
149.818 28468 168.725
149.935 28470 168.731
150.053 28321 168.288
150.17 27289 165.194
150.287 25912 160.972
150.405 23650 153.786
150.522 21903 147.997
150.64 21809 147.679
150.757 23554 153.473
150.875 24727 157.248
150.992 25481 159.628
151.11 24454 156.378
151.227 23988 154.881
151.344 23247 152.47
151.462 23572 153.532
151.579 23850 154.434
151.697 24642 156.978
151.814 25272 158.972
151.932 25357 159.239
152.049 25738 160.431
152.167 25968 161.146
152.284 26009 161.273
152.402 25895 160.919
152.519 26228 161.951
152.636 25465 159.578
152.754 25708 160.337
152.871 26191 161.836
152.989 26498 162.782
153.106 27069 164.527
153.223 26692 163.377
153.341 26840 163.829
153.458 27344 165.36
153.575 27606 166.151
153.693 27665 166.328
153.81 27140 164.742
153.927 25486 159.643
154.044 23245 152.463
154.162 22052 148.499
154.279 22701 150.669
154.396 24507 156.547
154.513 25801 160.627
154.63 25704 160.325
154.747 25924 161.009
154.864 25158 158.613
154.981 25063 158.313
155.098 24164 155.448
155.215 23530 153.395
155.332 21985 148.273
155.449 21036 145.038
155.566 20370 142.724
155.683 19207 138.589
155.8 18518 136.081
155.917 17448 132.091
156.033 16847 129.796
156.15 0 1
156.267 0 1
156.383 0 1
156.5 0 1
156.617 0 1
156.733 0 1
156.85 0 1
156.966 0 1
157.082 0 1
157.199 0 1
157.315 0 1
157.431 0 1
157.547 0 1
157.664 0 1
157.78 0 1
157.896 0 1
158.012 0 1
158.128 0 1
158.244 0 1
158.359 0 1
158.475 0 1
158.591 0 1
158.706 0 1
