
6.15755 0 1
6.2731 0 1
6.3887 0 1
6.50437 0 1
6.62009 0 1
6.73587 0 1
6.8517 0 1
6.96759 0 1
7.08353 0 1
7.19952 0 1
7.31557 0 1
7.43166 0 1
7.54781 0 1
7.664 0 1
7.78024 0 1
7.89653 0 1
8.01286 0 1
8.12924 0 1
8.24567 0 1
8.36213 0 1
8.47864 0 1
8.59519 0 1
8.71178 0 1
8.82841 0 1
8.94508 0 1
9.06179 0 1
9.17853 0 1
9.29531 0 1
9.41212 0 1
9.52897 0 1
9.64584 0 1
9.76276 0 1
9.8797 0 1
9.99667 0 1
10.1137 0 1
10.2307 0 1
10.3478 0 1
10.4648 0 1
10.5819 0 1
10.6991 0 1
10.8162 0 1
10.9334 0 1
11.0506 0 1
11.1678 0 1
11.285 0 1
11.4023 0 1
11.5196 0 1
11.6369 0 1
11.7542 0 1
11.8715 0 1
11.9888 0 1
12.1062 0 1
12.2235 0 1
12.3409 0 1
12.4582 0 1
12.5756 0 1
12.693 0 1
12.8104 0 1
12.9278 0 1
13.0452 0 1
13.1626 0 1
13.28 0 1
13.3974 0 1
13.5149 0 1
13.6323 0 1
13.7497 0 1
13.8671 0 1
13.9845 0 1
14.1019 0 1
14.2193 0 1
14.3367 0 1
14.4541 0 1
14.5714 0 1
14.6888 0 1
14.8062 0 1
14.9235 0 1
15.0408 0 0
15.1581 0 0
15.2755 0 0
15.3927 0 0
15.51 0 0
15.6273 0 0
15.7445 0 0
15.8617 0 0
15.9789 0 0
16.0961 0 0
16.2132 0 0
16.3304 0 0
16.4475 0 0
16.5646 0 0
16.6816 0 0
16.7986 0 0
16.9156 0 0
17.0326 0 0
17.1496 0 0
17.2665 0 0
17.3833 0 0
17.5002 0 0
17.617 0 0
17.7338 0 0
17.8505 0 0
17.9672 0 0
18.0839 0 0
18.2005 0 0
18.3171 0 0
18.4337 0 0
18.5502 0 0
18.6666 0 0
18.7831 0 0
18.8994 0 0
19.0158 0 0
19.1321 0 0
19.2483 0 0
19.3645 0 0
19.4806 0 0
19.5967 0 0
19.7128 0 0
19.8288 0 0
19.9447 0 0
20.0606 0 1
20.1764 0 1
20.2922 0 1
20.4079 0 1
20.5236 0 1
20.6392 0 1
20.7548 0 1
20.8702 0 1
23.3078 0 1
23.4233 0 1
23.539 0 1
23.6547 0 1
23.7704 0 1
23.8862 0 1
24.0021 0 1
24.118 0 1
24.234 0 1
24.35 0 1
24.4661 1231 35.0856
24.5822 1222 34.9571
24.6984 1183 34.3948
24.8146 1130 33.6155
24.9309 1095 33.0908
25.0472 1121 33.4813
25.1636 1103 33.2114
25.28 1202 34.6699
25.3965 1276 35.7211
25.513 1263 35.5387
25.6296 1355 36.8103
25.7462 1407 37.51
25.8628 1311 36.2077
25.9795 1319 36.318
26.0962 1380 37.1484
26.213 1348 36.7151
26.3298 1347 36.7015
26.4466 1338 36.5787
26.5635 1380 37.1484
26.6804 1298 36.0278
26.7973 1247 35.3129
26.9143 1267 35.5949
27.0313 1216 34.8712
27.1483 1348 36.7151
27.2653 1308 36.1663
27.3824 1344 36.6606
27.4996 1383 37.1887
27.6167 1363 36.9188
27.7339 1327 36.428
27.8511 1266 35.5809
27.9683 1277 35.7351
28.0855 1187 34.4529
28.2028 1191 34.5109
28.3201 1129 33.6006
28.4374 1072 32.7414
28.5547 1122 33.4963
28.6721 1084 32.9242
28.7894 1187 34.4529
28.9068 1223 34.9714
29.0242 1223 34.9714
29.1416 1281 35.7911
29.259 1313 36.2353
29.3764 1306 36.1386
29.4939 1323 36.3731
29.6113 1329 36.4555
29.7288 1325 36.4005
29.8463 1309 36.1801
29.9638 1299 36.0416
30.0812 1299 36.0416
30.1987 1236 35.1568
30.3162 1277 35.7351
30.4337 1196 34.5832
30.5512 1243 35.2562
30.6687 1278 35.7491
30.7862 1425 37.7492
30.9037 1403 37.4566
31.0212 1428 37.7889
31.1387 1336 36.5513
31.2562 1330 36.4692
31.3737 1382 37.1753
31.4912 1292 35.9444
31.6087 1246 35.2987
31.7262 1236 35.1568
31.8436 1168 34.176
31.9611 1165 34.1321
32.0785 1110 33.3167
32.1959 1127 33.5708
32.3134 1143 33.8083
32.4308 1232 35.0999
32.5482 1255 35.426
32.6655 1294 35.9722
32.7829 1350 36.7423
32.9002 1335 36.5377
33.0176 1371 37.027
33.1349 1378 37.1214
33.2522 1340 36.606
33.3694 1400 37.4166
33.4867 1363 36.9188
33.6039 1407 37.51
33.7211 1372 37.0405
33.8383 1249 35.3412
33.9554 1195 34.5688
34.0725 1299 36.0416
34.1896 1273 35.6791
34.3067 1369 37
34.4237 1332 36.4966
34.5407 1355 36.8103
34.6577 1354 36.7967
34.7746 1328 36.4417
34.8915 1398 37.3898
35.0084 1288 35.8887
35.1252 1343 36.647
35.242 1282 35.805
35.3587 1229 35.0571
35.4755 1178 34.322
35.5921 1202 34.6699
35.7088 1089 33
35.8254 1113 33.3617
35.9419 1088 32.9848
36.0584 1121 33.4813
36.1749 1131 33.6303
36.2913 1257 35.4542
36.4077 1260 35.4965
36.524 1262 35.5246
36.6403 1373 37.054
36.7565 1329 36.4555
36.8727 1346 36.6879
36.9889 1349 36.7287
37.1049 1389 37.2693
37.221 0 1
37.3369 0 1
37.4529 0 1
37.5687 0 1
37.6845 0 1
37.8003 0 1
37.916 0 1
38.0316 0 1
38.1472 0 1
40.5851 0 1
40.7008 0 1
40.8164 0 1
40.9322 0 1
41.048 0 1
41.1639 0 1
41.2798 0 1
41.3958 0 1
41.5118 0 1
41.6279 0 1
41.744 1172 34.2345
41.8602 1227 35.0286
41.9765 1178 34.322
42.0928 1223 34.9714
42.2091 1246 35.2987
42.3255 1197 34.5977
42.4419 1176 34.2929
42.5584 1176 34.2929
42.675 1104 33.2265
42.7915 1123 33.5112
42.9081 1079 32.8481
43.0248 1180 34.3511
43.1415 1181 34.3657
43.2582 1202 34.6699
43.375 1235 35.1426
43.4918 1233 35.1141
43.6087 1194 34.5543
43.7256 1226 35.0143
43.8425 1195 34.5688
43.9595 1189 34.4819
44.0765 1087 32.9697
44.1935 1029 32.078
44.3106 1046 32.3419
44.4277 960 30.9839
44.5448 878 29.6311
44.6619 867 29.4449
44.7791 871 29.5127
44.8963 926 30.4302
45.0136 938 30.6268
45.1308 1032 32.1248
45.2481 1015 31.8591
45.3654 1050 32.4037
45.4827 1041 32.2645
45.6001 1072 32.7414
45.7174 987 31.4166
45.8348 1025 32.0156
45.9522 1059 32.5423
46.0697 978 31.273
46.1871 967 31.0966
46.3046 913 30.2159
46.422 891 29.8496
46.5395 872 29.5296
46.657 918 30.2985
46.7745 955 30.9031
46.892 908 30.133
47.0096 970 31.1448
47.1271 951 30.8383
47.2446 973 31.1929
47.3622 992 31.496
47.4797 929 30.4795
47.5973 885 29.7489
47.7149 842 29.0172
47.8324 802 28.3196
47.95 773 27.8029
48.0675 725 26.9258
48.1851 654 25.5734
48.3027 672 25.923
48.4202 686 26.1916
48.5378 734 27.0924
48.6554 811 28.4781
48.7729 829 28.7924
48.8904 858 29.2916
49.008 836 28.9137
49.1255 855 29.2404
49.243 900 30
49.3605 875 29.5804
49.478 924 30.3974
49.5955 839 28.9655
49.713 786 28.0357
49.8304 827 28.7576
49.9479 849 29.1376
50.0653 870 29.4958
50.1827 891 29.8496
50.3001 963 31.0322
50.4175 1004 31.686
50.5348 983 31.3528
50.6521 1121 33.4813
50.7694 989 31.4484
50.8867 1047 32.3574
51.004 1099 33.1512
51.1212 1102 33.1964
51.2384 1052 32.4345
51.3556 1028 32.0624
51.4727 963 31.0322
51.5899 907 30.1164
51.707 886 29.7658
51.824 904 30.0666
51.9411 981 31.3209
52.0581 1060 32.5576
52.175 1131 33.6303
52.2919 1171 34.2199
52.4088 1243 35.2562
52.5257 1320 36.3318
52.6425 1377 37.108
52.7593 1258 35.4683
52.876 1374 37.0675
52.9927 1290 35.9166
53.1094 1343 36.647
53.226 1249 35.3412
53.3426 1286 35.8608
53.4591 1263 35.5387
53.5756 1255 35.426
53.692 1307 36.1525
53.8084 1346 36.6879
53.9248 1419 37.6696
54.0411 1400 37.4166
54.1573 1465 38.2753
54.2735 0 1
54.3896 0 1
54.5057 0 1
54.6217 0 1
54.7377 0 1
54.8537 0 1
54.9695 0 1
55.0853 0 1
55.2011 0 1
55.3168 0 1
55.4324 0 1
57.824 0 1
57.9396 0 1
58.0553 0 1
58.1711 0 1
58.2869 0 1
58.4028 0 1
58.5187 0 1
58.6347 0 1
58.7508 0 1
58.8669 0 1
58.983 1709 41.3401
59.0992 1829 42.7668
59.2155 1783 42.2256
59.3318 1835 42.8369
59.4482 1798 42.4028
59.5646 1916 43.7721
59.681 1813 42.5793
59.7975 1741 41.7253
59.9141 1775 42.1307
60.0306 1682 41.0122
60.1473 1542 39.2683
60.2639 1416 37.6298
60.3807 1385 37.2156
60.4974 1362 36.9053
60.6142 1448 38.0526
60.731 1462 38.2361
60.8479 1564 39.5474
60.9648 1708 41.328
61.0818 1807 42.5088
61.1987 1842 42.9185
61.3158 1852 43.0349
61.4328 1922 43.8406
61.5499 1828 42.7551
61.667 1649 40.6079
61.7841 1785 42.2493
61.9013 1727 41.5572
62.0185 1736 41.6653
62.1357 1728 41.5692
62.253 1783 42.2256
62.3702 1830 42.7785
62.4875 1790 42.3084
62.6049 1898 43.566
62.7222 1950 44.1588
62.8396 1898 43.566
62.9569 1844 42.9418
63.0743 1867 43.2088
63.1918 1885 43.4166
63.3092 1814 42.5911
63.4267 1796 42.3792
63.5441 1697 41.1947
63.6616 1542 39.2683
63.7791 1412 37.5766
63.8966 1416 37.6298
64.0142 1253 35.3977
64.1317 1366 36.9594
64.2492 1498 38.704
64.3668 1704 41.2795
64.4843 1725 41.5331
64.6019 1768 42.0476
64.7195 1912 43.7264
64.837 1837 42.8602
64.9546 1844 42.9418
65.0722 1832 42.8019
65.1898 1870 43.2435
65.3074 1841 42.9069
65.4249 1761 41.9643
65.5425 1810 42.5441
65.6601 1764 42
65.7777 1793 42.3438
65.8952 1874 43.2897
66.0128 1848 42.9884
66.1304 1862 43.1509
66.2479 1971 44.3959
66.3655 1926 43.8862
66.483 1981 44.5084
66.6005 1992 44.6318
66.718 1972 44.4072
66.8355 1898 43.566
66.953 1894 43.5201
67.0705 1795 42.3674
67.1879 1699 41.2189
67.3054 1680 40.9878
67.4228 1492 38.6264
67.5402 1309 36.1801
67.6576 1389 37.2693
67.7749 1374 37.0675
67.8923 1608 40.0999
68.0096 1725 41.5331
68.1269 1941 44.0568
68.2442 1960 44.2719
68.3614 1986 44.5646
68.4787 2042 45.1885
68.5958 2016 44.8999
68.713 2041 45.1774
68.8302 2081 45.618
68.9473 2014 44.8776
69.0643 1984 44.5421
69.1814 1988 44.587
69.2984 1944 44.0908
69.4154 2007 44.7996
69.5323 2205 46.9574
69.6492 2199 46.8935
69.7661 2243 47.3603
69.8829 2190 46.7974
69.9997 2216 47.0744
70.1165 2255 47.4868
70.2332 2379 48.775
70.3499 2258 47.5184
70.4665 2248 47.4131
70.5831 2328 48.2494
70.6996 2087 45.6837
70.8161 2083 45.6399
70.9326 1963 44.3058
71.049 1728 41.5692
71.1653 1444 38
71.2817 1391 37.2961
71.3979 1399 37.4032
71.5141 1593 39.9124
71.6303 1692 41.1339
71.7464 1727 41.5572
71.8624 0 1
71.9784 0 1
72.0944 0 1
72.2102 0 1
72.3261 0 1
72.4418 0 1
72.5575 0 1
72.6732 0 1
75.1054 0 1
75.2209 0 1
75.3365 0 1
75.4521 0 1
75.5678 0 1
75.6835 0 1
75.7993 0 1
75.9151 0 1
76.031 0 1
76.147 1992 44.6318
76.263 2167 46.551
76.3791 1945 44.1022
76.4952 1640 40.4969
76.6113 1596 39.95
76.7276 1685 41.0488
76.8438 1871 43.2551
76.9601 1990 44.6094
77.0765 2417 49.163
77.1929 2585 50.8429
77.3093 2615 51.1371
77.4258 2607 51.0588
77.5423 2637 51.3517
77.6589 2667 51.643
77.7755 2659 51.5655
77.8921 2547 50.4678
78.0088 2476 49.7594
78.1256 2514 50.1398
78.2423 2424 49.2341
78.3591 2391 48.8979
78.4759 2522 50.2195
78.5928 2594 50.9313
78.7097 2699 51.9519
78.8266 2750 52.4404
78.9436 2685 51.817
79.0606 2721 52.1632
79.1776 2796 52.8772
79.2946 2774 52.6688
79.4117 2803 52.9434
79.5288 2666 51.6333
79.6459 2606 51.049
79.7631 2643 51.4101
79.8802 2453 49.5278
79.9974 2281 47.7598
80.1147 1912 43.7264
80.2319 1735 41.6533
80.3491 1748 41.8091
80.4664 2056 45.3431
80.5837 2216 47.0744
80.701 2523 50.2295
80.8183 2638 51.3615
80.9357 2777 52.6972
81.053 2884 53.7029
81.1704 2844 53.3292
81.2877 2769 52.6213
81.4051 2875 53.619
81.5225 2797 52.8867
81.6399 2815 53.0566
81.7573 2762 52.5547
81.8747 2561 50.6063
81.9922 2640 51.3809
82.1096 2728 52.2303
82.227 2803 52.9434
82.3444 2724 52.192
82.4619 2904 53.8888
82.5793 2827 53.1695
82.6967 3025 55
82.8142 2943 54.2494
82.9316 2876 53.6284
83.049 2954 54.3507
83.1664 2727 52.2207
83.2838 2714 52.0961
83.4012 2706 52.0192
83.5186 2547 50.4678
83.636 2397 48.9592
83.7534 2097 45.793
83.8708 1741 41.7253
83.9881 1753 41.8688
84.1055 2052 45.299
84.2228 2218 47.0956
84.3401 2627 51.2543
84.4575 2799 52.9056
84.5747 2928 54.111
84.692 3024 54.9909
84.8093 3020 54.9545
84.9265 3099 55.6687
85.0437 3045 55.1815
85.1609 3142 56.0535
85.2781 3019 54.9454
85.3952 2899 53.8424
85.5123 2924 54.074
85.6294 2905 53.8981
85.7465 2936 54.1849
85.8636 3176 56.356
85.9806 3084 55.5338
86.0976 3302 57.463
86.2145 3212 56.6745
86.3315 3242 56.9386
86.4484 3528 59.397
86.5652 3533 59.439
86.682 3458 58.8048
86.7988 3394 58.258
86.9156 3370 58.0517
87.0323 3160 56.2139
87.149 2948 54.2955
87.2657 2697 51.9326
87.3823 2397 48.9592
87.4988 2124 46.0869
87.6154 2424 49.2341
87.7318 2773 52.6593
87.8483 3115 55.8122
87.9647 3421 58.4893
88.081 3550 59.5819
88.1973 3703 60.8523
88.3136 3781 61.4898
88.4298 3752 61.2536
88.546 3879 62.2816
88.6621 3699 60.8194
88.7781 3611 60.0916
88.8942 0 1
89.0101 0 1
89.126 0 1
89.2419 0 1
89.3577 0 1
89.4734 0 1
89.5891 0 1
89.7047 0 1
89.8203 0 1
89.9358 0 1
92.3269 0 1
92.4424 0 1
92.558 0 1
92.6736 0 1
92.7893 0 1
92.905 0 1
93.0208 0 1
93.1366 0 1
93.2525 0 1
93.3685 0 1
93.4845 0 1
93.6005 3986 63.1348
93.7167 4043 63.5846
93.8328 4032 63.498
93.949 3964 62.9603
94.0653 4007 63.3009
94.1816 3989 63.1585
94.2979 4042 63.5767
94.4143 3761 61.327
94.5307 3977 63.0635
94.6472 3849 62.0403
94.7637 3818 61.79
94.8803 3888 62.3538
94.9969 3946 62.8172
95.1135 4060 63.7181
95.2302 4119 64.1794
95.3469 4182 64.6684
95.4637 4310 65.6506
95.5805 4355 65.9924
95.6973 4331 65.8103
95.8142 4246 65.1613
95.9311 4272 65.3605
96.048 4099 64.0234
96.1649 3995 63.206
96.2819 3848 62.0322
96.3989 3542 59.5147
96.516 3176 56.356
96.633 2763 52.5642
96.7501 2762 52.5547
96.8673 2942 54.2402
96.9844 3365 58.0086
97.1016 3763 61.3433
97.2188 4340 65.8787
97.336 4585 67.7126
97.4532 4366 66.0757
97.5704 4567 67.5796
97.6877 4593 67.7717
97.805 4623 67.9926
97.9223 4520 67.2309
98.0396 4565 67.5648
98.1569 4418 66.468
98.2743 4322 65.7419
98.3916 4261 65.2763
98.509 4297 65.5515
98.6264 4208 64.8691
98.7438 4417 66.4605
98.8612 4563 67.55
98.9786 4645 68.1542
99.096 4666 68.3081
99.2134 4728 68.7605
99.3308 4881 69.8642
99.4482 4700 68.5565
99.5656 4742 68.8622
99.6831 4752 68.9348
99.8005 4384 66.2118
99.9179 4171 64.5833
100.035 3894 62.4019
100.153 3422 58.4979
100.27 3030 55.0454
100.388 3111 55.7763
100.505 3533 59.439
100.622 4090 63.9531
100.74 4539 67.3721
100.857 4740 68.8477
100.975 4859 69.7065
101.092 4839 69.5629
101.209 4850 69.6419
101.327 4953 70.3776
101.444 5001 70.7177
101.561 4944 70.3136
101.679 4807 69.3325
101.796 4725 68.7386
101.913 4690 68.4836
102.03 4660 68.2642
102.148 4678 68.3959
102.265 4995 70.6753
102.382 4657 68.2422
102.499 4931 70.2211
102.616 4922 70.157
102.733 5182 71.9861
102.851 5285 72.698
102.968 5255 72.4914
103.085 5122 71.5681
103.202 5055 71.0985
103.319 4912 70.0857
103.436 4785 69.1737
103.552 4173 64.5988
103.669 3663 60.5227
103.786 3376 58.1034
103.903 3390 58.2237
104.02 3881 62.2977
104.137 4486 66.9776
104.253 5237 72.3671
104.37 5216 72.2219
104.487 5314 72.8972
104.603 5503 74.1822
104.72 5401 73.4915
104.836 5371 73.2871
104.953 5499 74.1552
105.069 5319 72.9315
105.186 5438 73.7428
105.302 5256 72.4983
105.418 5147 71.7426
105.535 4941 70.2922
105.651 5033 70.9436
105.767 5184 72
105.883 5274 72.6223
105.999 5428 73.675
106.115 0 1
106.231 0 1
106.347 0 1
106.463 0 1
106.579 0 1
106.694 0 1
106.81 0 1
106.926 0 1
107.041 0 1
107.157 0 1
109.576 0 1
109.692 0 1
109.807 0 1
109.923 0 1
110.039 0 1
110.155 0 1
110.27 0 1
110.386 0 1
110.502 0 1
110.618 4598 67.8086
110.735 4863 69.7352
110.851 5022 70.8661
110.967 5001 70.7177
111.083 5226 72.2911
111.199 5182 71.9861
111.316 5341 73.0821
111.432 5279 72.6567
111.549 5301 72.808
111.665 5249 72.45
111.782 4796 69.2532
111.898 4569 67.5944
112.015 4130 64.2651
112.132 3623 60.1914
112.248 3197 56.542
112.365 3155 56.1694
112.482 3564 59.6992
112.599 4014 63.3561
112.716 4571 67.6092
112.832 4814 69.383
112.949 4920 70.1427
113.066 4747 68.8985
113.183 4707 68.6076
113.3 4619 67.9632
113.417 4763 69.0145
113.534 4720 68.7023
113.652 4660 68.2642
113.769 4570 67.6018
113.886 4430 66.5582
114.003 4406 66.3777
114.12 4232 65.0538
114.238 4234 65.0692
114.355 4302 65.5896
114.472 4266 65.3146
114.589 4371 66.1135
114.707 4452 66.7233
114.824 4418 66.468
114.942 4520 67.2309
115.059 4505 67.1193
115.176 4562 67.5426
115.294 4467 66.8356
115.411 4259 65.261
115.529 3920 62.6099
115.646 3559 59.6574
115.764 3064 55.3534
115.881 2847 53.3573
115.999 3064 55.3534
116.116 3501 59.1692
116.234 3913 62.554
116.351 4230 65.0385
116.469 4298 65.5591
116.586 4456 66.7533
116.704 4440 66.6333
116.821 4471 66.8655
116.939 4561 67.5352
117.056 4506 67.1267
117.174 4380 66.1816
117.291 4368 66.0908
117.409 4353 65.9773
117.526 4272 65.3605
117.644 4158 64.4826
117.761 4158 64.4826
117.879 4171 64.5833
117.996 4158 64.4826
118.114 4193 64.7534
118.231 4601 67.8307
118.349 4519 67.2235
118.466 4365 66.0681
118.584 4477 66.9104
118.701 4514 67.1863
118.819 4376 66.1513
118.936 4358 66.0151
119.053 4181 64.6607
119.171 3859 62.1208
119.288 3519 59.3212
119.405 3042 55.1543
119.523 2844 53.3292
119.64 2980 54.5894
119.757 3445 58.6941
119.875 3745 61.1964
119.992 4022 63.4192
120.109 4243 65.1383
120.226 4289 65.4905
120.343 4362 66.0454
120.46 4161 64.5058
120.578 4222 64.9769
120.695 4418 66.468
120.812 4285 65.4599
120.929 4381 66.1891
121.046 4171 64.5833
121.163 4178 64.6375
121.279 4135 64.304
121.396 4087 63.9296
121.513 3908 62.514
121.63 4094 63.9844
121.747 3988 63.1506
121.863 4069 63.7887
121.98 4130 64.2651
122.097 4203 64.8305
122.213 4252 65.2074
122.33 4138 64.3273
122.446 4260 65.2687
122.563 4130 64.2651
122.679 4153 64.4438
122.795 3799 61.636
122.912 3583 59.8582
123.028 3297 57.4195
123.144 2931 54.1387
123.26 2671 51.6817
123.377 0 1
123.493 0 1
123.609 0 1
123.725 0 1
123.84 0 1
123.956 0 1
124.072 0 1
124.188 0 1
124.303 0 1
124.419 0 1
126.852 0 1
126.968 0 1
127.083 0 1
127.199 0 1
127.315 0 1
127.431 0 1
127.547 0 1
127.663 0 1
127.779 0 1
127.895 0 1
128.011 0 1
128.127 0 1
128.243 0 1
128.359 3170 56.3028
128.476 2902 53.8702
128.592 3011 54.8726
128.708 3462 58.8388
128.825 3804 61.6766
128.941 4371 66.1135
129.058 4542 67.3944
129.174 4471 66.8655
129.291 4475 66.8954
129.408 4395 66.2948
129.524 4487 66.9851
129.641 4521 67.2384
129.758 4475 66.8954
129.875 4440 66.6333
129.992 4473 66.8805
130.108 4347 65.9318
130.225 4200 64.8074
130.342 4239 65.1076
130.459 4032 63.498
130.576 4247 65.169
130.693 4169 64.5678
130.81 4213 64.9076
130.928 4325 65.7647
131.045 4394 66.2873
131.162 4405 66.3702
131.279 4407 66.3852
131.396 4410 66.4078
131.513 4187 64.707
131.631 4070 63.7966
131.748 3870 62.2093
131.865 3363 57.9914
131.983 3030 55.0454
132.1 2901 53.8609
132.217 3298 57.4282
132.335 3772 61.4166
132.452 3956 62.8967
132.57 4240 65.1153
132.687 4060 63.7181
132.804 4419 66.4756
132.922 4301 65.582
133.039 4335 65.8407
133.157 4334 65.8331
133.274 4277 65.3988
133.392 4245 65.1537
133.509 4144 64.3739
133.627 4125 64.2262
133.744 4113 64.1327
133.862 3935 62.7296
133.979 4094 63.9844
134.097 3921 62.6179
134.214 4062 63.7338
134.332 4010 63.3246
134.449 4041 63.5689
134.567 4040 63.561
134.684 4249 65.1844
134.802 4189 64.7225
134.919 4142 64.3584
135.037 4058 63.7024
135.154 3942 62.7853
135.272 3810 61.7252
135.389 3391 58.2323
135.507 3037 55.109
135.624 2824 53.1413
135.742 2981 54.5985
135.859 3286 57.3236
135.977 3709 60.9016
136.094 3951 62.857
136.211 4152 64.436
136.329 4147 64.3972
136.446 4072 63.8122
136.564 4104 64.0625
136.681 4159 64.4903
136.798 4053 63.6632
136.915 4068 63.7809
137.033 4094 63.9844
137.15 3999 63.2376
137.267 3994 63.1981
137.384 3926 62.6578
137.502 3815 61.7657
137.619 3846 62.0161
137.736 3784 61.5142
137.853 3863 62.153
137.97 3713 60.9344
138.087 3977 63.0635
138.204 3890 62.3699
138.321 3881 62.2977
138.438 3913 62.554
138.555 3998 63.2297
138.672 4057 63.6946
138.788 3882 62.3057
138.905 3859 62.1208
139.022 3499 59.1523
139.139 3132 55.9643
139.255 2846 53.3479
139.372 2980 54.5894
139.488 3053 55.254
139.605 3463 58.8473
139.721 3855 62.0886
139.838 3918 62.5939
139.954 3970 63.0079
140.071 3969 63
140.187 3883 62.3137
140.303 3994 63.1981
140.419 3960 62.9285
140.535 3806 61.6928
140.652 3848 62.0322
140.768 0 1
140.884 0 1
141 0 1
141.115 0 1
141.231 0 1
141.347 0 1
141.463 0 1
141.578 0 1
141.694 0 1
144.104 0 1
144.219 0 1
144.335 0 1
144.45 0 1
144.566 0 1
144.682 0 1
144.798 0 1
144.914 0 1
145.03 0 1
145.146 3387 58.1979
145.262 3465 58.8643
145.378 3360 57.9655
145.494 3405 58.3524
145.61 3248 56.9912
145.726 3240 56.921
145.842 3288 57.3411
145.959 3145 56.0803
146.075 3182 56.4092
146.192 3166 56.2672
146.308 3070 55.4076
146.425 3106 55.7315
146.541 3146 56.0892
146.658 3115 55.8122
146.774 3213 56.6833
146.891 3123 55.8838
147.008 3276 57.2364
147.125 3326 57.6715
147.241 3219 56.7362
147.358 3194 56.5155
147.475 3068 55.3895
147.592 2786 52.7826
147.709 2596 50.951
147.826 2301 47.9687
147.943 2274 47.6865
148.06 2433 49.3254
148.177 2783 52.7541
148.294 2953 54.3415
148.411 3091 55.5968
148.528 3243 56.9473
148.645 3201 56.5774
148.762 3169 56.2939
148.88 3199 56.5597
148.997 3044 55.1725
149.114 3132 55.9643
149.231 3060 55.3173
149.349 3049 55.2178
149.466 2880 53.6656
149.583 2914 53.9815
149.701 2826 53.1601
149.818 2900 53.8516
149.935 2958 54.3875
150.053 2847 53.3573
150.17 3054 55.263
150.287 2893 53.7866
150.405 2891 53.768
150.522 2889 53.7494
150.64 2934 54.1664
150.757 2925 54.0833
150.875 3057 55.2901
150.992 2981 54.5985
151.11 2753 52.469
151.227 2771 52.6403
151.344 2482 49.8197
151.462 2321 48.1768
151.579 2284 47.7912
151.697 2345 48.4252
151.814 2626 51.2445
151.932 2799 52.9056
152.049 3078 55.4797
152.167 3029 55.0364
152.284 3104 55.7136
152.402 3013 54.8908
152.519 3038 55.1181
152.636 3002 54.7905
152.754 3005 54.8179
152.871 2912 53.963
152.989 2863 53.507
153.106 2926 54.0925
153.223 2779 52.7162
153.341 2897 53.8238
153.458 2835 53.2447
153.575 2906 53.9073
153.693 2958 54.3875
153.81 3064 55.3534
153.927 2955 54.3599
154.044 2838 53.2729
154.162 2922 54.0555
154.279 3006 54.827
154.396 3007 54.8361
154.513 2949 54.3047
154.63 2966 54.461
154.747 2925 54.0833
154.864 2847 53.3573
154.981 2668 51.6527
155.098 2491 49.9099
155.215 2449 49.4874
155.332 2588 50.8724
155.449 2788 52.8015
155.566 2994 54.7175
155.683 2958 54.3875
155.8 3089 55.5788
155.917 3254 57.0438
156.033 3056 55.2811
156.15 0 1
156.267 0 1
156.383 0 1
156.5 0 1
156.617 0 1
156.733 0 1
156.85 0 1
156.966 0 1
157.082 0 1
157.199 0 1
157.315 0 1
157.431 0 1
157.547 0 1
157.664 0 1
157.78 0 1
157.896 0 1
158.012 0 1
158.128 0 1
158.244 0 1
158.359 0 1
158.475 0 1
158.591 0 1
158.706 0 1
