
6.15755 0 1
6.2731 0 1
6.3887 0 1
6.50437 0 1
6.62009 0 1
6.73587 0 1
6.8517 0 1
6.96759 0 1
7.08353 0 1
7.19952 0 1
7.31557 0 1
7.43166 0 1
7.54781 0 1
7.664 0 1
7.78024 0 1
7.89653 0 1
8.01286 0 1
8.12924 0 1
8.24567 0 1
8.36213 0 1
8.47864 0 1
8.59519 0 1
8.71178 0 1
8.82841 0 1
8.94508 0 1
9.06179 0 1
9.17853 0 1
9.29531 0 1
9.41212 0 1
9.52897 0 1
9.64584 0 1
9.76276 0 1
9.8797 0 1
9.99667 0 1
10.1137 0 1
10.2307 0 1
10.3478 0 1
10.4648 0 1
10.5819 0 1
10.6991 0 1
10.8162 0 1
10.9334 0 1
11.0506 0 1
11.1678 0 1
11.285 0 1
11.4023 0 1
11.5196 0 1
11.6369 0 1
11.7542 0 1
11.8715 0 1
11.9888 0 1
12.1062 0 1
12.2235 0 1
12.3409 0 1
12.4582 0 1
12.5756 0 1
12.693 0 1
12.8104 0 1
12.9278 0 1
13.0452 0 1
13.1626 0 1
13.28 0 1
13.3974 0 1
13.5149 0 1
13.6323 0 1
13.7497 0 1
13.8671 0 1
13.9845 0 1
14.1019 0 1
14.2193 0 1
14.3367 0 1
14.4541 0 1
14.5714 0 1
14.6888 0 1
14.8062 0 1
14.9235 0 1
15.0408 5525 74.3303
15.1581 5688 75.4188
15.2755 6009 77.5177
15.3927 5791 76.0986
15.51 5755 75.8617
15.6273 5604 74.8599
15.7445 5667 75.2795
15.8617 5838 76.4068
15.9789 5875 76.6485
16.0961 6035 77.6853
16.2132 5825 76.3217
16.3304 5981 77.3369
16.4475 6448 80.2994
16.5646 6304 79.3977
16.6816 6433 80.206
16.7986 6635 81.4555
16.9156 6471 80.4425
17.0326 6778 82.3286
17.1496 6699 81.8474
17.2665 6726 82.0122
17.3833 6859 82.8191
17.5002 6882 82.9578
17.617 6726 82.0122
17.7338 6582 81.1295
17.8505 6710 81.9146
17.9672 6580 81.1172
18.0839 6489 80.5543
18.2005 6506 80.6598
18.3171 6787 82.3833
18.4337 6792 82.4136
18.5502 6961 83.4326
18.6666 6935 83.2766
18.7831 6993 83.6242
18.8994 7122 84.3919
19.0158 6815 82.553
19.1321 6680 81.7313
19.2483 6478 80.486
19.3645 6291 79.3158
19.4806 6321 79.5047
19.5967 6129 78.2879
19.7128 5651 75.1731
19.8288 5385 73.3826
19.9447 4652 68.2056
20.0606 0 1
20.1764 0 1
20.2922 0 1
20.4079 0 1
20.5236 0 1
20.6392 0 1
20.7548 0 1
20.8702 0 1
23.3078 0 1
23.4233 0 1
23.539 0 1
23.6547 0 1
23.7704 0 1
23.8862 0 1
24.0021 0 1
24.118 0 1
24.234 0 1
24.35 0 1
24.4661 3637 60.3075
24.5822 4298 65.5591
24.6984 4974 70.5266
24.8146 5490 74.0945
24.9309 6124 78.256
25.0472 6528 80.796
25.1636 7003 83.6839
25.28 7494 86.5679
25.3965 7879 88.7637
25.513 8244 90.7965
25.6296 8717 93.3649
25.7462 8835 93.9947
25.8628 8938 94.541
25.9795 9221 96.026
26.0962 9220 96.0208
26.213 9331 96.5971
26.3298 9267 96.2653
26.4466 9020 94.9737
26.5635 8981 94.7681
26.6804 8917 94.4299
26.7973 9084 95.31
26.9143 9231 96.0781
27.0313 9252 96.1873
27.1483 9577 97.8621
27.2653 9717 98.5748
27.3824 9934 99.6695
27.4996 9931 99.6544
27.6167 9804 99.0152
27.7339 9642 98.1937
27.8511 9365 96.7729
27.9683 9269 96.2756
28.0855 9444 97.1802
28.2028 9300 96.4365
28.3201 9362 96.7574
28.4374 9280 96.3328
28.5547 9083 95.3048
28.6721 8967 94.6942
28.7894 9012 94.9316
28.9068 9099 95.3887
29.0242 9091 95.3467
29.1416 9305 96.4624
29.259 9211 95.974
29.3764 9284 96.3535
29.4939 9543 97.6883
29.6113 9373 96.8143
29.7288 9572 97.8366
29.8463 9379 96.8452
29.9638 9420 97.0567
30.0812 9368 96.7884
30.1987 9653 98.2497
30.3162 9628 98.1224
30.4337 9788 98.9343
30.5512 10074 100.369
30.6687 10052 100.26
30.7862 10549 102.708
30.9037 10822 104.029
31.0212 10669 103.291
31.1387 10550 102.713
31.2562 10477 102.357
31.3737 10149 100.742
31.4912 9981 99.905
31.6087 10239 101.188
31.7262 10263 101.306
31.8436 10284 101.41
31.9611 10037 100.185
32.0785 10057 100.285
32.1959 9845 99.222
32.3134 9758 98.7826
32.4308 9761 98.7978
32.5482 10068 100.339
32.6655 9742 98.7016
32.7829 10208 101.035
32.9002 10246 101.223
33.0176 10433 102.142
33.1349 10501 102.474
33.2522 10507 102.504
33.3694 10321 101.592
33.4867 10628 103.092
33.6039 10562 102.772
33.7211 10687 103.378
33.8383 10705 103.465
33.9554 10993 104.848
34.0725 10991 104.838
34.1896 11188 105.773
34.3067 11286 106.236
34.4237 11568 107.555
34.5407 11887 109.028
34.6577 12041 109.731
34.7746 12250 110.68
34.8915 11856 108.885
35.0084 11799 108.623
35.1252 11373 106.644
35.242 11428 106.902
35.3587 11684 108.093
35.4755 11839 108.807
35.5921 11588 107.648
35.7088 11413 106.832
35.8254 11112 105.413
35.9419 10629 103.097
36.0584 10459 102.269
36.1749 10158 100.787
36.2913 9695 98.4632
36.4077 9704 98.5089
36.524 9675 98.3616
36.6403 9669 98.3311
36.7565 9465 97.2882
36.8727 9356 96.7264
36.9889 9146 95.6347
37.1049 8424 91.7824
37.221 0 1
37.3369 0 1
37.4529 0 1
37.5687 0 1
37.6845 0 1
37.8003 0 1
37.916 0 1
38.0316 0 1
38.1472 0 1
40.5851 0 1
40.7008 0 1
40.8164 0 1
40.9322 0 1
41.048 0 1
41.1639 0 1
41.2798 0 1
41.3958 0 1
41.5118 0 1
41.6279 0 1
41.744 6464 80.399
41.8602 7221 84.9765
41.9765 7953 89.1796
42.0928 8943 94.5674
42.2091 9913 99.564
42.3255 10608 102.995
42.4419 11732 108.314
42.5584 12101 110.005
42.675 12820 113.225
42.7915 13096 114.438
42.9081 14046 118.516
43.0248 14804 121.672
43.1415 15504 124.515
43.2582 16592 128.81
43.375 16787 129.565
43.4918 17163 131.008
43.6087 17227 131.252
43.7256 17417 131.973
43.8425 16984 130.323
43.9595 16633 128.969
44.0765 16689 129.186
44.1935 16637 128.984
44.3106 17278 131.446
44.4277 17021 130.465
44.5448 16758 129.453
44.6619 16191 127.244
44.7791 15425 124.197
44.8963 14408 120.033
45.0136 13907 117.928
45.1308 13833 117.614
45.2481 13868 117.762
45.3654 13969 118.191
45.4827 14476 120.316
45.6001 14969 122.348
45.7174 16015 126.55
45.8348 16610 128.88
45.9522 17149 130.954
46.0697 17865 133.66
46.1871 17939 133.937
46.3046 18021 134.242
46.422 17999 134.16
46.5395 18542 136.169
46.657 19177 138.481
46.7745 19658 140.207
46.892 19989 141.382
47.0096 20533 143.293
47.1271 20677 143.795
47.2446 20678 143.798
47.3622 20605 143.544
47.4797 20013 141.467
47.5973 19819 140.78
47.7149 19628 140.1
47.8324 19846 140.876
47.95 20085 141.722
48.0675 19506 139.664
48.1851 18876 137.39
48.3027 17777 133.33
48.4202 16309 127.707
48.5378 15250 123.491
48.6554 14338 119.741
48.7729 14162 119.004
48.8904 14279 119.495
49.008 14480 120.333
49.1255 15208 123.321
49.243 16464 128.312
49.3605 17620 132.74
49.478 18341 135.429
49.5955 18718 136.814
49.713 18706 136.77
49.8304 18469 135.901
49.9479 18780 137.04
50.0653 18855 137.314
50.1827 19654 140.193
50.3001 19828 140.812
50.4175 19978 141.344
50.5348 20406 142.85
50.6521 20354 142.667
50.7694 20395 142.811
50.8867 19932 141.181
51.004 19955 141.262
51.1212 18883 137.415
51.2384 18915 137.532
51.3556 19191 138.532
51.4727 19508 139.671
51.5899 19342 139.076
51.707 18318 135.344
51.824 17208 131.179
51.9411 15255 123.511
52.0581 13989 118.275
52.175 13298 115.317
52.2919 12982 113.939
52.4088 12980 113.93
52.5257 12962 113.851
52.6425 13622 116.713
52.7593 14252 119.382
52.876 14838 121.811
52.9927 15199 123.284
53.1094 15439 124.254
53.226 15409 124.133
53.3426 15019 122.552
53.4591 14611 120.876
53.5756 13849 117.682
53.692 13390 115.715
53.8084 12897 113.565
53.9248 12664 112.534
54.0411 12148 110.218
54.1573 11337 106.475
54.2735 0 1
54.3896 0 1
54.5057 0 1
54.6217 0 1
54.7377 0 1
54.8537 0 1
54.9695 0 1
55.0853 0 1
55.2011 0 1
55.3168 0 1
55.4324 0 1
57.824 0 1
57.9396 0 1
58.0553 0 1
58.1711 0 1
58.2869 0 1
58.4028 0 1
58.5187 0 1
58.6347 0 1
58.7508 0 1
58.8669 0 1
58.983 10540 102.665
59.0992 11528 107.369
59.2155 12856 113.384
59.3318 13510 116.233
59.4482 14360 119.833
59.5646 14671 121.124
59.681 15084 122.817
59.7975 15277 123.6
59.9141 15403 124.109
60.0306 16054 126.704
60.1473 16352 127.875
60.2639 16648 129.027
60.3807 16144 127.059
60.4974 15458 124.33
60.6142 13926 118.008
60.731 12754 112.934
60.8479 11387 106.71
60.9648 10483 102.387
61.0818 10175 100.871
61.1987 10440 102.176
61.3158 11088 105.3
61.4328 12089 109.95
61.5499 13663 116.889
61.667 14757 121.478
61.7841 15689 125.256
61.9013 15906 126.119
62.0185 16093 126.858
62.1357 15621 124.984
62.253 15625 125
62.3702 15534 124.635
62.4875 15876 126
62.6049 15947 126.281
62.7222 16070 126.768
62.8396 16224 127.373
62.9569 16279 127.589
63.0743 16284 127.609
63.1918 16066 126.752
63.3092 15694 125.276
63.4267 15362 123.944
63.5441 15146 123.069
63.6616 15260 123.531
63.7791 15011 122.519
63.8966 14910 122.107
64.0142 14153 118.966
64.1317 12844 113.331
64.2492 11418 106.855
64.3668 9996 99.98
64.4843 9081 95.2943
64.6019 8548 92.4554
64.7195 8716 93.3595
64.837 9131 95.5563
64.9546 10048 100.24
65.0722 11378 106.668
65.1898 12757 112.947
65.3074 13779 117.384
65.4249 14015 118.385
65.5425 14076 118.642
65.6601 14056 118.558
65.7777 13653 116.846
65.8952 13656 116.859
66.0128 13811 117.52
66.1304 13959 118.148
66.2479 14249 119.369
66.3655 14248 119.365
66.483 14250 119.373
66.6005 14521 120.503
66.718 14222 119.256
66.8355 14071 118.621
66.953 13816 117.541
67.0705 13277 115.226
67.1879 13354 115.56
67.3054 13693 117.017
67.4228 13695 117.026
67.5402 13273 115.209
67.6576 12422 111.454
67.7749 11492 107.201
67.8923 10050 100.25
68.0096 8630 92.8978
68.1269 7946 89.1403
68.2442 7569 87
68.3614 7558 86.9368
68.4787 7949 89.1572
68.5958 8736 93.4666
68.713 10030 100.15
68.8302 11482 107.154
68.9473 12321 111
69.0643 12905 113.6
69.1814 13157 114.704
69.2984 12710 112.739
69.4154 12208 110.49
69.5323 11605 107.727
69.6492 11362 106.593
69.7661 11556 107.499
69.8829 11361 106.588
69.9997 11428 106.902
70.1165 11231 105.976
70.2332 11286 106.236
70.3499 10877 104.293
70.4665 10225 101.119
70.5831 9821 99.101
70.6996 9255 96.2029
70.8161 8516 92.2822
70.9326 8236 90.7524
71.049 8010 89.4986
71.1653 7544 86.8562
71.2817 6853 82.7828
71.3979 6300 79.3725
71.5141 5458 73.8783
71.6303 4103 64.0547
71.7464 2958 54.3875
71.8624 0 1
71.9784 0 1
72.0944 0 1
72.2102 0 1
72.3261 0 1
72.4418 0 1
72.5575 0 1
72.6732 0 1
75.1054 0 1
75.2209 0 1
75.3365 0 1
75.4521 0 1
75.5678 0 1
75.6835 0 1
75.7993 0 1
75.9151 0 1
76.031 0 1
76.147 7478 86.4754
76.263 8378 91.5314
76.3791 8771 93.6536
76.4952 8869 94.1754
76.6113 8784 93.723
76.7276 8235 90.7469
76.8438 7638 87.3957
76.9601 7022 83.7974
77.0765 6424 80.1499
77.1929 6235 78.962
77.3093 6188 78.6638
77.4258 6355 79.7183
77.5423 7015 83.7556
77.6589 8106 90.0333
77.7755 9452 97.2214
77.8921 10687 103.378
78.0088 11186 105.764
78.1256 11574 107.583
78.2423 11286 106.236
78.3591 11176 105.717
78.4759 10895 104.379
78.5928 10570 102.811
78.7097 10618 103.044
78.8266 10675 103.32
78.9436 11358 106.574
79.0606 11395 106.747
79.1776 11392 106.733
79.2946 11318 106.386
79.4117 11406 106.799
79.5288 11143 105.56
79.6459 11097 105.342
79.7631 11013 104.943
79.8802 11155 105.617
79.9974 11251 106.071
80.1147 11351 106.541
80.2319 10886 104.336
80.3491 10338 101.676
80.4664 9570 97.8264
80.5837 8432 91.8259
80.701 7328 85.6037
80.8183 6556 80.9691
80.9357 6272 79.196
81.053 6345 79.6555
81.1704 6727 82.0183
81.2877 7599 87.1722
81.4051 8937 94.5357
81.5225 10257 101.277
81.6399 11021 104.981
81.7573 11516 107.313
81.8747 11476 107.126
81.9922 11420 106.864
82.1096 11213 105.891
82.227 10771 103.783
82.3444 10695 103.417
82.4619 10798 103.913
82.5793 10999 104.876
82.6967 11149 105.589
82.8142 11311 106.353
82.9316 11496 107.219
83.049 11385 106.701
83.1664 11532 107.387
83.2838 11155 105.617
83.4012 11278 106.198
83.5186 10743 103.648
83.636 10875 104.283
83.7534 11108 105.394
83.8708 10654 103.218
83.9881 10076 100.379
84.1055 9496 97.4474
84.2228 8986 94.7945
84.3401 7827 88.4703
84.4575 7012 83.7377
84.5747 6623 81.3818
84.692 6769 82.2739
84.8093 7413 86.0988
84.9265 8525 92.3309
85.0437 9904 99.5188
85.1609 11002 104.89
85.2781 11929 109.22
85.3952 12126 110.118
85.5123 12409 111.396
85.6294 12212 110.508
85.7465 11730 108.305
85.8636 11803 108.642
85.9806 12055 109.795
86.0976 12162 110.281
86.2145 12340 111.086
86.3315 12795 113.115
86.4484 12398 111.346
86.5652 12607 112.281
86.682 12126 110.118
86.7988 11927 109.211
86.9156 11626 107.824
87.0323 11241 106.024
87.149 10677 103.33
87.2657 10508 102.509
87.3823 10416 102.059
87.4988 10097 100.484
87.6154 9476 97.3447
87.7318 8809 93.8563
87.8483 8010 89.4986
87.9647 6760 82.2192
88.081 6010 77.5242
88.1973 5424 73.6478
88.3136 5269 72.5879
88.4298 5406 73.5255
88.546 6236 78.9683
88.6621 6873 82.9036
88.7781 7548 86.8792
88.8942 0 1
89.0101 0 1
89.126 0 1
89.2419 0 1
89.3577 0 1
89.4734 0 1
89.5891 0 1
89.7047 0 1
89.8203 0 1
89.9358 0 1
92.3269 0 1
92.4424 0 1
92.558 0 1
92.6736 0 1
92.7893 0 1
92.905 0 1
93.0208 0 1
93.1366 0 1
93.2525 0 1
93.3685 0 1
93.4845 0 1
93.6005 7880 88.7694
93.7167 8555 92.4932
93.8328 9669 98.3311
93.949 11231 105.976
94.0653 12825 113.248
94.1816 14409 120.037
94.2979 16170 127.161
94.4143 17376 131.818
94.5307 18371 135.54
94.6472 18995 137.822
94.7637 19422 139.363
94.8803 19684 140.3
94.9969 19568 139.886
95.1135 19406 139.305
95.2302 19859 140.922
95.3469 19673 140.26
95.4637 19890 141.032
95.5805 20091 141.743
95.6973 19570 139.893
95.8142 19547 139.811
95.9311 19042 137.993
96.048 18371 135.54
96.1649 18029 134.272
96.2819 17749 133.225
96.3989 17496 132.272
96.516 17163 131.008
96.633 16658 129.066
96.7501 15493 124.471
96.8673 14524 120.516
96.9844 13331 115.46
97.1016 12721 112.787
97.2188 11869 108.945
97.336 11710 108.213
97.4532 12027 109.668
97.5704 13475 116.082
97.6877 15190 123.248
97.805 17432 132.03
97.9223 19427 139.381
98.0396 21486 146.581
98.1569 23018 151.717
98.2743 24156 155.422
98.3916 24539 156.649
98.509 24542 156.659
98.6264 24163 155.445
98.7438 23926 154.68
98.8612 23402 152.977
98.9786 23745 154.094
99.096 24051 155.084
99.2134 23720 154.013
99.3308 22818 151.056
99.4482 22238 149.124
99.5656 21621 147.041
99.6831 20524 143.262
99.8005 20050 141.598
99.9179 20047 141.587
100.035 19802 140.72
100.153 19275 138.834
100.27 17859 133.638
100.388 15917 126.163
100.505 14328 119.7
100.622 13286 115.265
100.74 12656 112.499
100.857 12146 110.209
100.975 12090 109.955
101.092 12676 112.588
101.209 14511 120.462
101.327 17033 130.511
101.444 19626 140.093
101.561 22021 148.395
101.679 23158 152.178
101.796 24082 155.184
101.913 24748 157.315
102.03 24396 156.192
102.148 23939 154.722
102.265 23445 153.118
102.382 22287 149.288
102.499 22340 149.466
102.616 22505 150.017
102.733 22419 149.73
102.851 21992 148.297
102.968 21374 146.198
103.085 20944 144.72
103.202 20519 143.245
103.319 19993 141.397
103.436 19458 139.492
103.552 19465 139.517
103.669 19171 138.459
103.786 18666 136.624
103.903 17160 130.996
104.02 15190 123.248
104.137 13611 116.666
104.253 12297 110.892
104.37 11419 106.86
104.487 11356 106.565
104.603 11304 106.32
104.72 12259 110.72
104.836 13324 115.43
104.953 14345 119.771
105.069 15188 123.24
105.186 15270 123.572
105.302 15378 124.008
105.418 14483 120.345
105.535 13482 116.112
105.651 12595 112.227
105.767 11307 106.334
105.883 10254 101.262
105.999 9208 95.9583
106.115 0 1
106.231 0 1
106.347 0 1
106.463 0 1
106.579 0 1
106.694 0 1
106.81 0 1
106.926 0 1
107.041 0 1
107.157 0 1
109.576 0 1
109.692 0 1
109.807 0 1
109.923 0 1
110.039 0 1
110.155 0 1
110.27 0 1
110.386 0 1
110.502 0 1
110.618 10876 104.288
110.735 11916 109.16
110.851 12237 110.621
110.967 13237 115.052
111.083 14797 121.643
111.199 15583 124.832
111.316 16821 129.696
111.432 17510 132.325
111.549 18085 134.48
111.665 18497 136.004
111.782 18585 136.327
111.898 18356 135.484
112.015 18266 135.152
112.132 18089 134.495
112.248 18272 135.174
112.365 18704 136.763
112.482 17925 133.884
112.599 16020 126.57
112.716 13867 117.758
112.832 12566 112.098
112.949 11463 107.065
113.066 10843 104.13
113.183 10792 103.885
113.3 11172 105.698
113.417 12561 112.076
113.534 14500 120.416
113.652 16929 130.111
113.769 18312 135.322
113.886 19181 138.495
114.003 19628 140.1
114.12 19152 138.391
114.238 18992 137.811
114.355 18148 134.715
114.472 17930 133.903
114.589 18098 134.529
114.707 18637 136.517
114.824 19125 138.293
114.942 19383 139.223
115.059 19213 138.611
115.176 19337 139.058
115.294 18879 137.401
115.411 18959 137.692
115.529 18407 135.672
115.646 17968 134.045
115.764 18029 134.272
115.881 17933 133.914
115.999 17959 134.011
116.116 17163 131.008
116.234 15521 124.583
116.351 13518 116.267
116.469 12011 109.595
116.586 11517 107.317
116.704 11243 106.033
116.821 11067 105.2
116.939 11435 106.935
117.056 13101 114.46
117.174 15104 122.898
117.291 16556 128.67
117.409 18103 134.547
117.526 18486 135.963
117.644 18705 136.766
117.761 18736 136.88
117.879 17790 133.379
117.996 17266 131.4
118.114 16814 129.669
118.231 17184 131.088
118.349 17910 133.828
118.466 18265 135.148
118.584 18490 135.978
118.701 18055 134.369
118.819 18210 134.944
118.936 17978 134.082
119.053 17854 133.619
119.171 17277 131.442
119.288 16885 129.942
119.405 16825 129.711
119.523 16963 130.242
119.64 16844 129.784
119.757 16134 127.02
119.875 14958 122.303
119.992 13217 114.965
120.109 12152 110.236
120.226 11419 106.86
120.343 10954 104.661
120.46 10812 103.981
120.578 11213 105.891
120.695 11360 106.583
120.812 12888 113.525
120.929 14396 119.983
121.046 15534 124.635
121.163 16100 126.886
121.279 16193 127.252
121.396 16079 126.803
121.513 15429 124.214
121.63 14633 120.967
121.747 14088 118.693
121.863 13728 117.167
121.98 14106 118.769
122.097 13867 117.758
122.213 13770 117.346
122.33 13290 115.282
122.446 12932 113.719
122.563 12214 110.517
122.679 11666 108.009
122.795 10840 104.115
122.912 10176 100.876
123.028 9352 96.7057
123.144 8694 93.2416
123.26 8181 90.4489
123.377 0 1
123.493 0 1
123.609 0 1
123.725 0 1
123.84 0 1
123.956 0 1
124.072 0 1
124.188 0 1
124.303 0 1
124.419 0 1
126.852 0 1
126.968 0 1
127.083 0 1
127.199 0 1
127.315 0 1
127.431 0 1
127.547 0 1
127.663 0 1
127.779 0 1
127.895 0 1
128.011 0 1
128.127 0 1
128.243 0 1
128.359 15917 126.163
128.476 16127 126.992
128.592 16759 129.457
128.708 16758 129.453
128.825 17065 130.633
128.941 16288 127.624
129.058 15569 124.776
129.174 14602 120.839
129.291 13716 117.115
129.408 13205 114.913
129.524 13125 114.564
129.641 12758 112.951
129.758 13135 114.608
129.875 14256 119.398
129.992 15488 124.451
130.108 16617 128.907
130.225 17485 132.231
130.342 18321 135.355
130.459 18031 134.28
130.576 18271 135.17
130.693 17439 132.057
130.81 17244 131.316
130.928 17316 131.59
131.045 17829 133.525
131.162 18113 134.585
131.279 18261 135.133
131.396 18372 135.543
131.513 18223 134.993
131.631 18013 134.213
131.748 17463 132.148
131.865 17210 131.187
131.983 16961 130.234
132.1 16805 129.634
132.217 16860 129.846
132.335 16678 129.143
132.452 16335 127.808
132.57 15501 124.503
132.687 14423 120.096
132.804 13804 117.49
132.922 13078 114.359
133.039 12835 113.292
133.157 12517 111.879
133.274 12444 111.553
133.392 12790 113.093
133.509 13773 117.358
133.627 14485 120.354
133.744 15476 124.403
133.862 16581 128.767
133.979 16757 129.449
134.097 16821 129.696
134.214 16779 129.534
134.332 16048 126.681
134.449 16157 127.11
134.567 17057 130.602
134.684 17075 130.671
134.802 17413 131.958
134.919 17751 133.233
135.037 17369 131.792
135.154 17251 131.343
135.272 17061 130.618
135.389 16997 130.373
135.507 16403 128.074
135.624 16385 128.004
135.742 16100 126.886
135.859 16609 128.876
135.977 16172 127.169
136.094 15971 126.376
136.211 15466 124.362
136.329 14601 120.835
136.446 14028 118.44
136.564 13915 117.962
136.681 13472 116.069
136.798 13099 114.451
136.915 12875 113.468
137.033 12988 113.965
137.15 13530 116.319
137.267 14021 118.41
137.384 14942 122.237
137.502 15553 124.712
137.619 15708 125.332
137.736 16157 127.11
137.853 15343 123.867
137.97 15730 125.419
138.087 15608 124.932
138.204 15800 125.698
138.321 16116 126.949
138.438 15991 126.456
138.555 16024 126.586
138.672 15262 123.539
138.788 15033 122.609
138.905 14599 120.826
139.022 13768 117.337
139.139 13533 116.331
139.255 12914 113.64
139.372 12491 111.763
139.488 11779 108.531
139.605 11119 105.447
139.721 10591 102.913
139.838 9912 99.559
139.954 9385 96.8762
140.071 8235 90.7469
140.187 7562 86.9598
140.303 6958 83.4146
140.419 6320 79.4984
140.535 5826 76.3282
140.652 5221 72.2565
140.768 0 1
140.884 0 1
141 0 1
141.115 0 1
141.231 0 1
141.347 0 1
141.463 0 1
141.578 0 1
141.694 0 1
144.104 0 1
144.219 0 1
144.335 0 1
144.45 0 1
144.566 0 1
144.682 0 1
144.798 0 1
144.914 0 1
145.03 0 1
145.146 10396 101.961
145.262 10554 102.733
145.378 10724 103.557
145.494 10489 102.416
145.61 10447 102.211
145.726 10493 102.435
145.842 10436 102.157
145.959 10498 102.46
146.075 10671 103.301
146.192 11135 105.523
146.308 11392 106.733
146.425 11726 108.287
146.541 11761 108.448
146.658 11561 107.522
146.774 11486 107.173
146.891 11624 107.815
147.008 12204 110.472
147.125 12406 111.382
147.241 12694 112.668
147.358 12465 111.647
147.475 12702 112.703
147.592 12816 113.208
147.709 12542 111.991
147.826 12350 111.131
147.943 12139 110.177
148.06 11926 109.206
148.177 11676 108.056
148.294 11839 108.807
148.411 12035 109.704
148.528 12105 110.023
148.645 12009 109.586
148.762 12136 110.164
148.88 12038 109.718
148.997 12064 109.836
149.114 11665 108.005
149.231 11562 107.527
149.349 11492 107.201
149.466 11092 105.319
149.583 10892 104.365
149.701 10825 104.043
149.818 11069 105.209
149.935 11247 106.052
150.053 11250 106.066
150.17 11574 107.583
150.287 11774 108.508
150.405 11681 108.079
150.522 11555 107.494
150.64 11872 108.959
150.757 12131 110.141
150.875 12241 110.639
150.992 12827 113.256
151.11 12650 112.472
151.227 12540 111.982
151.344 12530 111.937
151.462 12255 110.702
151.579 11959 109.357
151.697 11611 107.754
151.814 11775 108.513
151.932 11543 107.438
152.049 11770 108.49
152.167 11751 108.402
152.284 11844 108.83
152.402 11900 109.087
152.519 11919 109.174
152.636 11837 108.798
152.754 11781 108.54
152.871 11571 107.569
152.989 11186 105.764
153.106 11104 105.376
153.223 10948 104.633
153.341 10694 103.412
153.458 10879 104.302
153.575 10903 104.417
153.693 11268 106.151
153.81 11251 106.071
153.927 11294 106.273
154.044 11123 105.466
154.162 10983 104.8
154.279 11385 106.701
154.396 11768 108.48
154.513 12032 109.69
154.63 12069 109.859
154.747 12117 110.077
154.864 12198 110.445
154.981 11726 108.287
155.098 11254 106.085
155.215 11331 106.447
155.332 10830 104.067
155.449 10783 103.841
155.566 10886 104.336
155.683 10618 103.044
155.8 10821 104.024
155.917 10667 103.281
156.033 10490 102.421
156.15 0 1
156.267 0 1
156.383 0 1
156.5 0 1
156.617 0 1
156.733 0 1
156.85 0 1
156.966 0 1
157.082 0 1
157.199 0 1
157.315 0 1
157.431 0 1
157.547 0 1
157.664 0 1
157.78 0 1
157.896 0 1
158.012 0 1
158.128 0 1
158.244 0 1
158.359 0 1
158.475 0 1
158.591 0 1
158.706 0 1
