
6.15755 0 1
6.2731 0 1
6.3887 0 1
6.50437 0 1
6.62009 0 1
6.73587 0 1
6.8517 0 1
6.96759 0 1
7.08353 0 1
7.19952 0 1
7.31557 0 1
7.43166 0 1
7.54781 0 1
7.664 0 1
7.78024 0 1
7.89653 0 1
8.01286 0 1
8.12924 0 1
8.24567 0 1
8.36213 0 1
8.47864 0 1
8.59519 0 1
8.71178 0 1
8.82841 0 1
8.94508 0 1
9.06179 0 1
9.17853 0 1
9.29531 0 1
9.41212 0 1
9.52897 0 1
9.64584 0 1
9.76276 0 1
9.8797 0 1
9.99667 0 1
10.1137 0 1
10.2307 0 1
10.3478 0 1
10.4648 0 1
10.5819 0 1
10.6991 0 1
10.8162 0 1
10.9334 0 1
11.0506 0 1
11.1678 0 1
11.285 0 1
11.4023 0 1
11.5196 0 1
11.6369 0 1
11.7542 0 1
11.8715 0 1
11.9888 0 1
12.1062 0 1
12.2235 0 1
12.3409 0 1
12.4582 0 1
12.5756 0 1
12.693 0 1
12.8104 0 1
12.9278 0 1
13.0452 0 1
13.1626 0 1
13.28 0 1
13.3974 0 1
13.5149 0 1
13.6323 0 1
13.7497 0 1
13.8671 0 1
13.9845 0 1
14.1019 0 1
14.2193 0 1
14.3367 0 1
14.4541 0 1
14.5714 0 1
14.6888 0 1
14.8062 0 1
14.9235 0 1
15.0408 0 0
15.1581 0 0
15.2755 0 0
15.3927 0 0
15.51 0 0
15.6273 0 0
15.7445 0 0
15.8617 0 0
15.9789 0 0
16.0961 0 0
16.2132 0 0
16.3304 0 0
16.4475 0 0
16.5646 0 0
16.6816 0 0
16.7986 0 0
16.9156 0 0
17.0326 0 0
17.1496 0 0
17.2665 0 0
17.3833 0 0
17.5002 0 0
17.617 0 0
17.7338 0 0
17.8505 0 0
17.9672 0 0
18.0839 0 0
18.2005 0 0
18.3171 0 0
18.4337 0 0
18.5502 0 0
18.6666 0 0
18.7831 0 0
18.8994 0 0
19.0158 0 0
19.1321 0 0
19.2483 0 0
19.3645 0 0
19.4806 0 0
19.5967 0 0
19.7128 0 0
19.8288 0 0
19.9447 0 0
20.0606 0 1
20.1764 0 1
20.2922 0 1
20.4079 0 1
20.5236 0 1
20.6392 0 1
20.7548 0 1
20.8702 0 1
23.3078 0 1
23.4233 0 1
23.539 0 1
23.6547 0 1
23.7704 0 1
23.8862 0 1
24.0021 0 1
24.118 0 1
24.234 0 1
24.35 0 1
24.4661 1452 38.1051
24.5822 1436 37.8946
24.6984 1386 37.229
24.8146 1396 37.3631
24.9309 1416 37.6298
25.0472 1421 37.6962
25.1636 1398 37.3898
25.28 1408 37.5233
25.3965 1405 37.4833
25.513 1431 37.8286
25.6296 1481 38.4838
25.7462 1552 39.3954
25.8628 1521 39
25.9795 1502 38.7556
26.0962 1502 38.7556
26.213 1485 38.5357
26.3298 1423 37.7227
26.4466 1446 38.0263
26.5635 1341 36.6197
26.6804 1264 35.5528
26.7973 1281 35.7911
26.9143 1315 36.2629
27.0313 1357 36.8375
27.1483 1400 37.4166
27.2653 1435 37.8814
27.3824 1455 38.1445
27.4996 1467 38.3014
27.6167 1476 38.4187
27.7339 1422 37.7094
27.8511 1503 38.7685
27.9683 1443 37.9868
28.0855 1510 38.8587
28.2028 1485 38.5357
28.3201 1394 37.3363
28.4374 1372 37.0405
28.5547 1353 36.7831
28.6721 1416 37.6298
28.7894 1362 36.9053
28.9068 1350 36.7423
29.0242 1358 36.8511
29.1416 1319 36.318
29.259 1316 36.2767
29.3764 1306 36.1386
29.4939 1418 37.6563
29.6113 1362 36.9053
29.7288 1340 36.606
29.8463 1375 37.081
29.9638 1332 36.4966
30.0812 1289 35.9026
30.1987 1159 34.0441
30.3162 1128 33.5857
30.4337 1171 34.2199
30.5512 1214 34.8425
30.6687 1239 35.1994
30.7862 1350 36.7423
30.9037 1406 37.4967
31.0212 1414 37.6032
31.1387 1382 37.1753
31.2562 1417 37.6431
31.3737 1421 37.6962
31.4912 1372 37.0405
31.6087 1430 37.8153
31.7262 1380 37.1484
31.8436 1340 36.606
31.9611 1351 36.756
32.0785 1316 36.2767
32.1959 1311 36.2077
32.3134 1305 36.1248
32.4308 1358 36.8511
32.5482 1292 35.9444
32.6655 1360 36.8782
32.7829 1319 36.318
32.9002 1287 35.8748
33.0176 1298 36.0278
33.1349 1372 37.0405
33.2522 1311 36.2077
33.3694 1321 36.3456
33.4867 1376 37.0945
33.6039 1287 35.8748
33.7211 1223 34.9714
33.8383 1061 32.573
33.9554 1111 33.3317
34.0725 1156 34
34.1896 1143 33.8083
34.3067 1208 34.7563
34.4237 1314 36.2491
34.5407 1241 35.2278
34.6577 1347 36.7015
34.7746 1359 36.8646
34.8915 1337 36.565
35.0084 1373 37.054
35.1252 1341 36.6197
35.242 1304 36.1109
35.3587 1339 36.5923
35.4755 1335 36.5377
35.5921 1250 35.3553
35.7088 1263 35.5387
35.8254 1234 35.1283
35.9419 1205 34.7131
36.0584 1233 35.1141
36.1749 1188 34.4674
36.2913 1258 35.4683
36.4077 1290 35.9166
36.524 1274 35.6931
36.6403 1261 35.5106
36.7565 1234 35.1283
36.8727 1284 35.8329
36.9889 1297 36.0139
37.1049 1256 35.4401
37.221 0 1
37.3369 0 1
37.4529 0 1
37.5687 0 1
37.6845 0 1
37.8003 0 1
37.916 0 1
38.0316 0 1
38.1472 0 1
40.5851 0 1
40.7008 0 1
40.8164 0 1
40.9322 0 1
41.048 0 1
41.1639 0 1
41.2798 0 1
41.3958 0 1
41.5118 0 1
41.6279 0 1
41.744 948 30.7896
41.8602 1011 31.7962
41.9765 981 31.3209
42.0928 1043 32.2955
42.2091 1031 32.1092
42.3255 1035 32.1714
42.4419 986 31.4006
42.5584 920 30.3315
42.675 814 28.5307
42.7915 814 28.5307
42.9081 848 29.1204
43.0248 915 30.249
43.1415 944 30.7246
43.2582 1011 31.7962
43.375 991 31.4802
43.4918 991 31.4802
43.6087 1011 31.7962
43.7256 1016 31.8748
43.8425 1013 31.8277
43.9595 932 30.5287
44.0765 969 31.1288
44.1935 926 30.4302
44.3106 850 29.1548
44.4277 922 30.3645
44.5448 892 29.8664
44.6619 826 28.7402
44.7791 822 28.6705
44.8963 741 27.2213
45.0136 750 27.3861
45.1308 803 28.3373
45.2481 743 27.258
45.3654 780 27.9285
45.4827 734 27.0924
45.6001 779 27.9106
45.7174 756 27.4955
45.8348 750 27.3861
45.9522 697 26.4008
46.0697 672 25.923
46.1871 634 25.1794
46.3046 543 23.3024
46.422 592 24.3311
46.5395 666 25.807
46.657 665 25.7876
46.7745 656 25.6125
46.892 705 26.5518
47.0096 748 27.3496
47.1271 709 26.6271
47.2446 711 26.6646
47.3622 710 26.6458
47.4797 680 26.0768
47.5973 677 26.0192
47.7149 665 25.7876
47.8324 684 26.1534
47.95 618 24.8596
48.0675 599 24.4745
48.1851 536 23.1517
48.3027 546 23.3666
48.4202 535 23.1301
48.5378 556 23.5797
48.6554 577 24.0208
48.7729 597 24.4336
48.8904 573 23.9374
49.008 598 24.454
49.1255 593 24.3516
49.243 625 25
49.3605 545 23.3452
49.478 535 23.1301
49.5955 482 21.9545
49.713 505 22.4722
49.8304 449 21.1896
49.9479 443 21.0476
50.0653 496 22.2711
50.1827 533 23.0868
50.3001 669 25.865
50.4175 638 25.2587
50.5348 710 26.6458
50.6521 712 26.6833
50.7694 710 26.6458
50.8867 704 26.533
51.004 732 27.0555
51.1212 773 27.8029
51.2384 773 27.8029
51.3556 751 27.4044
51.4727 779 27.9106
51.5899 788 28.0713
51.707 723 26.8887
51.824 739 27.1846
51.9411 756 27.4955
52.0581 757 27.5136
52.175 802 28.3196
52.2919 850 29.1548
52.4088 815 28.5482
52.5257 925 30.4138
52.6425 920 30.3315
52.7593 946 30.7571
52.876 856 29.2575
52.9927 890 29.8329
53.1094 828 28.775
53.226 801 28.3019
53.3426 759 27.55
53.4591 685 26.1725
53.5756 776 27.8568
53.692 897 29.95
53.8084 972 31.1769
53.9248 1097 33.121
54.0411 1150 33.9116
54.1573 1156 34
54.2735 0 1
54.3896 0 1
54.5057 0 1
54.6217 0 1
54.7377 0 1
54.8537 0 1
54.9695 0 1
55.0853 0 1
55.2011 0 1
55.3168 0 1
55.4324 0 1
57.824 0 1
57.9396 0 1
58.0553 0 1
58.1711 0 1
58.2869 0 1
58.4028 0 1
58.5187 0 1
58.6347 0 1
58.7508 0 1
58.8669 0 1
58.983 1147 33.8674
59.0992 1169 34.1906
59.2155 1314 36.2491
59.3318 1277 35.7351
59.4482 1270 35.6371
59.5646 1351 36.756
59.681 1326 36.4143
59.7975 1316 36.2767
59.9141 1196 34.5832
60.0306 1253 35.3977
60.1473 1206 34.7275
60.2639 1170 34.2053
60.3807 1100 33.1662
60.4974 1132 33.6452
60.6142 1056 32.4962
60.731 1105 33.2415
60.8479 1127 33.5708
60.9648 1056 32.4962
61.0818 1061 32.573
61.1987 1099 33.1512
61.3158 1107 33.2716
61.4328 1122 33.4963
61.5499 1078 32.8329
61.667 1021 31.9531
61.7841 898 29.9666
61.9013 854 29.2233
62.0185 822 28.6705
62.1357 863 29.3769
62.253 961 31
62.3702 1111 33.3317
62.4875 1116 33.4066
62.6049 1167 34.1614
62.7222 1225 35
62.8396 1292 35.9444
62.9569 1306 36.1386
63.0743 1298 36.0278
63.1918 1344 36.6606
63.3092 1240 35.2136
63.4267 1260 35.4965
63.5441 1175 34.2783
63.6616 1170 34.2053
63.7791 1140 33.7639
63.8966 1094 33.0757
64.0142 1169 34.1906
64.1317 1074 32.7719
64.2492 1058 32.5269
64.3668 1108 33.2866
64.4843 1182 34.3802
64.6019 1142 33.7935
64.7195 1143 33.8083
64.837 1219 34.9142
64.9546 1126 33.5559
65.0722 1118 33.4365
65.1898 1049 32.3883
65.3074 980 31.305
65.4249 879 29.6479
65.5425 801 28.3019
65.6601 813 28.5132
65.7777 1006 31.7175
65.8952 1111 33.3317
66.0128 1192 34.5254
66.1304 1210 34.7851
66.2479 1167 34.1614
66.3655 1272 35.6651
66.483 1353 36.7831
66.6005 1380 37.1484
66.718 1296 36
66.8355 1268 35.609
66.953 1276 35.7211
67.0705 1235 35.1426
67.1879 1223 34.9714
67.3054 1185 34.4238
67.4228 1118 33.4365
67.5402 1080 32.8634
67.6576 1051 32.4191
67.7749 1019 31.9218
67.8923 1099 33.1512
68.0096 1032 32.1248
68.1269 1062 32.5883
68.2442 1127 33.5708
68.3614 1119 33.4515
68.4787 1159 34.0441
68.5958 1066 32.6497
68.713 1092 33.0454
68.8302 1036 32.187
68.9473 862 29.3598
69.0643 798 28.2489
69.1814 736 27.1293
69.2984 744 27.2764
69.4154 879 29.6479
69.5323 995 31.5436
69.6492 1124 33.5261
69.7661 1181 34.3657
69.8829 1217 34.8855
69.9997 1266 35.5809
70.1165 1204 34.6987
70.2332 1263 35.5387
70.3499 1210 34.7851
70.4665 1244 35.2704
70.5831 1248 35.327
70.6996 1156 34
70.8161 1119 33.4515
70.9326 1159 34.0441
71.049 1065 32.6343
71.1653 1012 31.8119
71.2817 975 31.225
71.3979 932 30.5287
71.5141 974 31.209
71.6303 926 30.4302
71.7464 886 29.7658
71.8624 0 1
71.9784 0 1
72.0944 0 1
72.2102 0 1
72.3261 0 1
72.4418 0 1
72.5575 0 1
72.6732 0 1
75.1054 0 1
75.2209 0 1
75.3365 0 1
75.4521 0 1
75.5678 0 1
75.6835 0 1
75.7993 0 1
75.9151 0 1
76.031 0 1
76.147 1040 32.249
76.263 1082 32.8938
76.3791 1138 33.7343
76.4952 1103 33.2114
76.6113 1020 31.9374
76.7276 1009 31.7648
76.8438 1006 31.7175
76.9601 996 31.5595
77.0765 1026 32.0312
77.1929 1086 32.9545
77.3093 1114 33.3766
77.4258 1069 32.6956
77.5423 1128 33.5857
77.6589 1086 32.9545
77.7755 1054 32.4654
77.8921 863 29.3769
78.0088 788 28.0713
78.1256 714 26.7208
78.2423 690 26.2679
78.3591 715 26.7395
78.4759 813 28.5132
78.5928 1047 32.3574
78.7097 1081 32.8786
78.8266 1153 33.9559
78.9436 1253 35.3977
79.0606 1246 35.2987
79.1776 1179 34.3366
79.2946 1255 35.426
79.4117 1226 35.0143
79.5288 1178 34.322
79.6459 1185 34.4238
79.7631 1063 32.6037
79.8802 1078 32.8329
79.9974 1003 31.6702
80.1147 940 30.6594
80.2319 885 29.7489
80.3491 915 30.249
80.4664 869 29.4788
80.5837 925 30.4138
80.701 897 29.95
80.8183 968 31.1127
80.9357 981 31.3209
81.053 991 31.4802
81.1704 981 31.3209
81.2877 966 31.0805
81.4051 900 30
81.5225 837 28.931
81.6399 668 25.8457
81.7573 675 25.9808
81.8747 636 25.219
81.9922 603 24.5561
82.1096 811 28.4781
82.227 890 29.8329
82.3444 1008 31.749
82.4619 1094 33.0757
82.5793 1078 32.8329
82.6967 1028 32.0624
82.8142 984 31.3688
82.9316 1060 32.5576
83.049 1041 32.2645
83.1664 1080 32.8634
83.2838 948 30.7896
83.4012 888 29.7993
83.5186 819 28.6182
83.636 817 28.5832
83.7534 787 28.0535
83.8708 741 27.2213
83.9881 796 28.2135
84.1055 813 28.5132
84.2228 809 28.4429
84.3401 817 28.5832
84.4575 841 29
84.5747 899 29.9833
84.692 896 29.9333
84.8093 931 30.5123
84.9265 818 28.6007
85.0437 799 28.2666
85.1609 681 26.096
85.2781 617 24.8395
85.3952 661 25.7099
85.5123 577 24.0208
85.6294 722 26.8701
85.7465 862 29.3598
85.8636 938 30.6268
85.9806 1034 32.1559
86.0976 1067 32.665
86.2145 1136 33.7046
86.3315 1134 33.6749
86.4484 1114 33.3766
86.5652 1118 33.4365
86.682 1082 32.8938
86.7988 1155 33.9853
86.9156 1001 31.6386
87.0323 1029 32.078
87.149 1006 31.7175
87.2657 955 30.9031
87.3823 925 30.4138
87.4988 959 30.9677
87.6154 977 31.257
87.7318 968 31.1127
87.8483 989 31.4484
87.9647 991 31.4802
88.081 1093 33.0606
88.1973 1125 33.541
88.3136 1118 33.4365
88.4298 1158 34.0294
88.546 1039 32.2335
88.6621 890 29.8329
88.7781 781 27.9464
88.8942 0 1
89.0101 0 1
89.126 0 1
89.2419 0 1
89.3577 0 1
89.4734 0 1
89.5891 0 1
89.7047 0 1
89.8203 0 1
89.9358 0 1
92.3269 0 1
92.4424 0 1
92.558 0 1
92.6736 0 1
92.7893 0 1
92.905 0 1
93.0208 0 1
93.1366 0 1
93.2525 0 1
93.3685 0 1
93.4845 0 1
93.6005 1050 32.4037
93.7167 1096 33.1059
93.8328 1063 32.6037
93.949 1076 32.8024
94.0653 1042 32.28
94.1816 904 30.0666
94.2979 818 28.6007
94.4143 820 28.6356
94.5307 732 27.0555
94.6472 814 28.5307
94.7637 904 30.0666
94.8803 1060 32.5576
94.9969 1139 33.7491
95.1135 1179 34.3366
95.2302 1280 35.7771
95.3469 1279 35.7631
95.4637 1221 34.9428
95.5805 1303 36.0971
95.6973 1285 35.8469
95.8142 1325 36.4005
95.9311 1297 36.0139
96.048 1212 34.8138
96.1649 1139 33.7491
96.2819 1092 33.0454
96.3989 1077 32.8177
96.516 933 30.545
96.633 986 31.4006
96.7501 955 30.9031
96.8673 1039 32.2335
96.9844 1021 31.9531
97.1016 1119 33.4515
97.2188 1120 33.4664
97.336 1185 34.4238
97.4532 1163 34.1028
97.5704 1162 34.0881
97.6877 1018 31.9061
97.805 978 31.273
97.9223 870 29.4958
98.0396 818 28.6007
98.1569 764 27.6405
98.2743 765 27.6586
98.3916 912 30.1993
98.509 1017 31.8904
98.6264 1047 32.3574
98.7438 1164 34.1174
98.8612 1174 34.2637
98.9786 1294 35.9722
99.096 1347 36.7015
99.2134 1337 36.565
99.3308 1331 36.4829
99.4482 1317 36.2905
99.5656 1336 36.5513
99.6831 1159 34.0441
99.8005 1157 34.0147
99.9179 1156 34
100.035 1068 32.6803
100.153 1056 32.4962
100.27 1035 32.1714
100.388 1042 32.28
100.505 1046 32.3419
100.622 1150 33.9116
100.74 1213 34.8281
100.857 1175 34.2783
100.975 1199 34.6266
101.092 1176 34.2929
101.209 1106 33.2566
101.327 1067 32.665
101.444 967 31.0966
101.561 851 29.1719
101.679 812 28.4956
101.796 836 28.9137
101.913 890 29.8329
102.03 1043 32.2955
102.148 1201 34.6554
102.265 1204 34.6987
102.382 1367 36.973
102.499 1418 37.6563
102.616 1397 37.3765
102.733 1333 36.5103
102.851 1359 36.8646
102.968 1394 37.3363
103.085 1406 37.4967
103.202 1286 35.8608
103.319 1345 36.6742
103.436 1230 35.0714
103.552 1216 34.8712
103.669 1081 32.8786
103.786 1103 33.2114
103.903 1117 33.4215
104.02 1121 33.4813
104.137 1171 34.2199
104.253 1236 35.1568
104.37 1278 35.7491
104.487 1311 36.2077
104.603 1307 36.1525
104.72 1212 34.8138
104.836 1125 33.541
104.953 1021 31.9531
105.069 961 31
105.186 927 30.4467
105.302 930 30.4959
105.418 997 31.5753
105.535 1203 34.6843
105.651 1300 36.0555
105.767 1445 38.0132
105.883 1454 38.1314
105.999 1460 38.2099
106.115 0 1
106.231 0 1
106.347 0 1
106.463 0 1
106.579 0 1
106.694 0 1
106.81 0 1
106.926 0 1
107.041 0 1
107.157 0 1
109.576 0 1
109.692 0 1
109.807 0 1
109.923 0 1
110.039 0 1
110.155 0 1
110.27 0 1
110.386 0 1
110.502 0 1
110.618 1100 33.1662
110.735 1224 34.9857
110.851 1290 35.9166
110.967 1365 36.9459
111.083 1414 37.6032
111.199 1419 37.6696
111.316 1405 37.4833
111.432 1503 38.7685
111.549 1472 38.3667
111.665 1421 37.6962
111.782 1347 36.7015
111.898 1285 35.8469
112.015 1248 35.327
112.132 1168 34.176
112.248 1153 33.9559
112.365 1085 32.9393
112.482 1048 32.3728
112.599 1203 34.6843
112.716 1161 34.0735
112.832 1208 34.7563
112.949 1216 34.8712
113.066 1243 35.2562
113.183 1198 34.6121
113.3 1114 33.3766
113.417 1032 32.1248
113.534 1022 31.9687
113.652 939 30.6431
113.769 861 29.3428
113.886 871 29.5127
114.003 914 30.2324
114.12 1044 32.311
114.238 1116 33.4066
114.355 1321 36.3456
114.472 1326 36.4143
114.589 1451 38.092
114.707 1405 37.4833
114.824 1344 36.6606
114.942 1476 38.4187
115.059 1400 37.4166
115.176 1414 37.6032
115.294 1422 37.7094
115.411 1331 36.4829
115.529 1214 34.8425
115.646 1243 35.2562
115.764 1152 33.9411
115.881 1150 33.9116
115.999 1130 33.6155
116.116 1211 34.7994
116.234 1253 35.3977
116.351 1268 35.609
116.469 1289 35.9026
116.586 1256 35.4401
116.704 1279 35.7631
116.821 1189 34.4819
116.939 1219 34.9142
117.056 1079 32.8481
117.174 1043 32.2955
117.291 950 30.8221
117.409 1015 31.8591
117.526 1034 32.1559
117.644 1076 32.8024
117.761 1231 35.0856
117.879 1349 36.7287
117.996 1413 37.5899
118.114 1380 37.1484
118.231 1437 37.9078
118.349 1403 37.4566
118.466 1463 38.2492
118.584 1535 39.1791
118.701 1466 38.2884
118.819 1475 38.4057
118.936 1380 37.1484
119.053 1391 37.2961
119.171 1372 37.0405
119.288 1291 35.9305
119.405 1161 34.0735
119.523 1191 34.5109
119.64 1130 33.6155
119.757 1181 34.3657
119.875 1247 35.3129
119.992 1223 34.9714
120.109 1247 35.3129
120.226 1261 35.5106
120.343 1289 35.9026
120.46 1254 35.4119
120.578 1180 34.3511
120.695 1168 34.176
120.812 1055 32.4808
120.929 989 31.4484
121.046 1027 32.0468
121.163 1063 32.6037
121.279 1017 31.8904
121.396 1214 34.8425
121.513 1241 35.2278
121.63 1320 36.3318
121.747 1332 36.4966
121.863 1388 37.2559
121.98 1401 37.4299
122.097 1418 37.6563
122.213 1500 38.7298
122.33 1437 37.9078
122.446 1453 38.1182
122.563 1327 36.428
122.679 1400 37.4166
122.795 1267 35.5949
122.912 1258 35.4683
123.028 1238 35.1852
123.144 1112 33.3467
123.26 1111 33.3317
123.377 0 1
123.493 0 1
123.609 0 1
123.725 0 1
123.84 0 1
123.956 0 1
124.072 0 1
124.188 0 1
124.303 0 1
124.419 0 1
126.852 0 1
126.968 0 1
127.083 0 1
127.199 0 1
127.315 0 1
127.431 0 1
127.547 0 1
127.663 0 1
127.779 0 1
127.895 0 1
128.011 0 1
128.127 0 1
128.243 0 1
128.359 1269 35.623
128.476 1243 35.2562
128.592 1210 34.7851
128.708 1208 34.7563
128.825 1361 36.8917
128.941 1407 37.51
129.058 1462 38.2361
129.174 1490 38.6005
129.291 1446 38.0263
129.408 1332 36.4966
129.524 1274 35.6931
129.641 1295 35.9861
129.758 1186 34.4384
129.875 1111 33.3317
129.992 1089 33
130.108 1137 33.7194
130.225 1081 32.8786
130.342 1169 34.1906
130.459 1318 36.3043
130.576 1385 37.2156
130.693 1411 37.5633
130.81 1381 37.1618
130.928 1437 37.9078
131.045 1458 38.1838
131.162 1540 39.2428
131.279 1489 38.5876
131.396 1506 38.8072
131.513 1479 38.4578
131.631 1401 37.4299
131.748 1438 37.921
131.865 1341 36.6197
131.983 1279 35.7631
132.1 1179 34.3366
132.217 1332 36.4966
132.335 1404 37.47
132.452 1384 37.2022
132.57 1442 37.9737
132.687 1391 37.2961
132.804 1451 38.092
132.922 1386 37.229
133.039 1347 36.7015
133.157 1341 36.6197
133.274 1206 34.7275
133.392 1211 34.7994
133.509 1190 34.4964
133.627 1126 33.5559
133.744 1135 33.6898
133.862 1265 35.5668
133.979 1324 36.3868
134.097 1383 37.1887
134.214 1413 37.5899
134.332 1474 38.3927
134.449 1476 38.4187
134.567 1477 38.4318
134.684 1486 38.5487
134.802 1432 37.8418
134.919 1508 38.833
135.037 1478 38.4448
135.154 1508 38.833
135.272 1476 38.4187
135.389 1417 37.6431
135.507 1367 36.973
135.624 1282 35.805
135.742 1358 36.8511
135.859 1348 36.7151
135.977 1366 36.9594
136.094 1441 37.9605
136.211 1397 37.3765
136.329 1428 37.7889
136.446 1378 37.1214
136.564 1346 36.6879
136.681 1334 36.524
136.798 1313 36.2353
136.915 1277 35.7351
137.033 1280 35.7771
137.15 1187 34.4529
137.267 1152 33.9411
137.384 1138 33.7343
137.502 1172 34.2345
137.619 1298 36.0278
137.736 1385 37.2156
137.853 1292 35.9444
137.97 1511 38.8716
138.087 1423 37.7227
138.204 1464 38.2623
138.321 1454 38.1314
138.438 1468 38.3145
138.555 1575 39.6863
138.672 1531 39.128
138.788 1453 38.1182
138.905 1507 38.8201
139.022 1412 37.5766
139.139 1328 36.4417
139.255 1320 36.3318
139.372 1277 35.7351
139.488 1280 35.7771
139.605 1341 36.6197
139.721 1453 38.1182
139.838 1426 37.7624
139.954 1364 36.9324
140.071 1355 36.8103
140.187 1436 37.8946
140.303 1383 37.1887
140.419 1264 35.5528
140.535 1290 35.9166
140.652 1211 34.7994
140.768 0 1
140.884 0 1
141 0 1
141.115 0 1
141.231 0 1
141.347 0 1
141.463 0 1
141.578 0 1
141.694 0 1
144.104 0 1
144.219 0 1
144.335 0 1
144.45 0 1
144.566 0 1
144.682 0 1
144.798 0 1
144.914 0 1
145.03 0 1
145.146 1020 31.9374
145.262 1055 32.4808
145.378 1041 32.2645
145.494 1030 32.0936
145.61 1020 31.9374
145.726 1038 32.218
145.842 1033 32.1403
145.959 1040 32.249
146.075 962 31.0161
146.192 932 30.5287
146.308 967 31.0966
146.425 968 31.1127
146.541 992 31.496
146.658 1079 32.8481
146.774 1086 32.9545
146.891 1108 33.2866
147.008 1106 33.2566
147.125 1111 33.3317
147.241 1184 34.4093
147.358 1199 34.6266
147.475 1187 34.4529
147.592 1220 34.9285
147.709 1147 33.8674
147.826 1163 34.1028
147.943 1124 33.5261
148.06 1022 31.9687
148.177 1005 31.7017
148.294 1007 31.7333
148.411 1064 32.619
148.528 1117 33.4215
148.645 1164 34.1174
148.762 1147 33.8674
148.88 1089 33
148.997 1090 33.0151
149.114 1164 34.1174
149.231 1116 33.4066
149.349 1089 33
149.466 1133 33.6601
149.583 1104 33.2265
149.701 1061 32.573
149.818 1021 31.9531
149.935 990 31.4643
150.053 941 30.6757
150.17 1027 32.0468
150.287 965 31.0644
150.405 1024 32
150.522 1066 32.6497
150.64 1113 33.3617
150.757 1096 33.1059
150.875 1218 34.8999
150.992 1173 34.2491
151.11 1213 34.8281
151.227 1182 34.3802
151.344 1164 34.1174
151.462 1150 33.9116
151.579 1203 34.6843
151.697 1115 33.3916
151.814 1034 32.1559
151.932 1137 33.7194
152.049 1066 32.6497
152.167 1174 34.2637
152.284 1181 34.3657
152.402 1159 34.0441
152.519 1121 33.4813
152.636 1166 34.1467
152.754 1174 34.2637
152.871 1149 33.8969
152.989 1108 33.2866
153.106 1152 33.9411
153.223 1150 33.9116
153.341 1048 32.3728
153.458 1133 33.6601
153.575 1058 32.5269
153.693 1052 32.4345
153.81 1000 31.6228
153.927 1041 32.2645
154.044 1112 33.3467
154.162 1119 33.4515
154.279 1201 34.6554
154.396 1222 34.9571
154.513 1248 35.327
154.63 1323 36.3731
154.747 1333 36.5103
154.864 1281 35.7911
154.981 1269 35.623
155.098 1279 35.7631
155.215 1292 35.9444
155.332 1136 33.7046
155.449 1095 33.0908
155.566 1201 34.6554
155.683 1171 34.2199
155.8 1257 35.4542
155.917 1252 35.3836
156.033 1319 36.318
156.15 0 1
156.267 0 1
156.383 0 1
156.5 0 1
156.617 0 1
156.733 0 1
156.85 0 1
156.966 0 1
157.082 0 1
157.199 0 1
157.315 0 1
157.431 0 1
157.547 0 1
157.664 0 1
157.78 0 1
157.896 0 1
158.012 0 1
158.128 0 1
158.244 0 1
158.359 0 1
158.475 0 1
158.591 0 1
158.706 0 1
