
6.15755 0 1
6.2731 0 1
6.3887 0 1
6.50437 0 1
6.62009 0 1
6.73587 0 1
6.8517 0 1
6.96759 0 1
7.08353 0 1
7.19952 0 1
7.31557 0 1
7.43166 0 1
7.54781 0 1
7.664 0 1
7.78024 0 1
7.89653 0 1
8.01286 0 1
8.12924 0 1
8.24567 0 1
8.36213 0 1
8.47864 0 1
8.59519 0 1
8.71178 0 1
8.82841 0 1
8.94508 0 1
9.06179 0 1
9.17853 0 1
9.29531 0 1
9.41212 0 1
9.52897 0 1
9.64584 0 1
9.76276 0 1
9.8797 0 1
9.99667 0 1
10.1137 0 1
10.2307 0 1
10.3478 0 1
10.4648 0 1
10.5819 0 1
10.6991 0 1
10.8162 0 1
10.9334 0 1
11.0506 0 1
11.1678 0 1
11.285 0 1
11.4023 0 1
11.5196 0 1
11.6369 0 1
11.7542 0 1
11.8715 0 1
11.9888 0 1
12.1062 0 1
12.2235 0 1
12.3409 0 1
12.4582 0 1
12.5756 0 1
12.693 0 1
12.8104 0 1
12.9278 0 1
13.0452 0 1
13.1626 0 1
13.28 0 1
13.3974 0 1
13.5149 0 1
13.6323 0 1
13.7497 0 1
13.8671 0 1
13.9845 0 1
14.1019 0 1
14.2193 0 1
14.3367 0 1
14.4541 0 1
14.5714 0 1
14.6888 0 1
14.8062 0 1
14.9235 0 1
15.0408 42364 205.825
15.1581 44834 211.74
15.2755 46332 215.249
15.3927 46917 216.603
15.51 46299 215.172
15.6273 46166 214.863
15.7445 45371 213.005
15.8617 44837 211.747
15.9789 44517 210.991
16.0961 45337 212.925
16.2132 46082 214.667
16.3304 46310 215.198
16.4475 46492 215.62
16.5646 46666 216.023
16.6816 47144 217.127
16.7986 47265 217.405
16.9156 47489 217.92
17.0326 47403 217.722
17.1496 47358 217.619
17.2665 47745 218.506
17.3833 48179 219.497
17.5002 48121 219.365
17.617 47985 219.055
17.7338 47907 218.877
17.8505 47954 218.984
17.9672 47889 218.836
18.0839 47907 218.877
18.2005 48235 219.625
18.3171 49183 221.772
18.4337 50805 225.4
18.5502 51640 227.244
18.6666 52423 228.961
18.7831 52487 229.1
18.8994 51903 227.822
19.0158 50421 224.546
19.1321 48990 221.337
19.2483 47245 217.359
19.3645 45084 212.33
19.4806 43572 208.739
19.5967 42211 205.453
19.7128 40847 202.106
19.8288 38441 196.064
19.9447 33365 182.661
20.0606 0 1
20.1764 0 1
20.2922 0 1
20.4079 0 1
20.5236 0 1
20.6392 0 1
20.7548 0 1
20.8702 0 1
23.3078 0 1
23.4233 0 1
23.539 0 1
23.6547 0 1
23.7704 0 1
23.8862 0 1
24.0021 0 1
24.118 0 1
24.234 0 1
24.35 0 1
24.4661 25671 160.222
24.5822 29342 171.295
24.6984 33834 183.94
24.8146 37699 194.162
24.9309 41036 202.573
25.0472 43076 207.548
25.1636 45241 212.699
25.28 47627 218.236
25.3965 48916 221.17
25.513 50468 224.651
25.6296 51720 227.42
25.7462 52572 229.286
25.8628 53120 230.478
25.9795 53865 232.088
26.0962 54769 234.028
26.213 55053 234.634
26.3298 55176 234.896
26.4466 55421 235.417
26.5635 55600 235.797
26.6804 55250 235.053
26.7973 55319 235.2
26.9143 55977 236.595
27.0313 56926 238.592
27.1483 58813 242.514
27.2653 60054 245.059
27.3824 60998 246.978
27.4996 61091 247.166
27.6167 59624 244.18
27.7339 58585 242.043
27.8511 57434 239.654
27.9683 56377 237.438
28.0855 56131 236.92
28.2028 56694 238.105
28.3201 56687 238.09
28.4374 56400 237.487
28.5547 55662 235.928
28.6721 54658 233.791
28.7894 53168 230.582
28.9068 51575 227.101
29.0242 51698 227.372
29.1416 51436 226.795
29.259 51321 226.541
29.3764 51339 226.581
29.4939 52187 228.445
29.6113 53239 230.736
29.7288 54393 233.223
29.8463 55004 234.529
29.9638 55381 235.332
30.0812 55472 235.525
30.1987 55406 235.385
30.3162 56141 236.941
30.4337 56515 237.729
30.5512 58444 241.752
30.6687 59229 243.37
30.7862 59843 244.628
30.9037 61560 248.113
31.0212 61063 247.109
31.1387 60776 246.528
31.2562 59660 244.254
31.3737 58719 242.32
31.4912 57631 240.065
31.6087 57382 239.545
31.7262 57853 240.527
31.8436 57956 240.741
31.9611 57211 239.188
32.0785 56233 237.135
32.1959 55117 234.77
32.3134 53600 231.517
32.4308 52220 228.517
32.5482 52452 229.024
32.6655 51510 226.958
32.7829 52097 228.248
32.9002 51857 227.721
33.0176 52456 229.033
33.1349 52381 228.869
33.2522 54110 232.616
33.3694 54488 233.427
33.4867 55885 236.4
33.6039 56233 237.135
33.7211 56199 237.063
33.8383 56018 236.681
33.9554 56186 237.036
34.0725 57114 238.985
34.1896 58045 240.925
34.3067 59899 244.743
34.4237 60392 245.748
34.5407 61765 248.526
34.6577 61530 248.052
34.7746 61378 247.746
34.8915 60177 245.31
35.0084 59369 243.658
35.1252 58455 241.775
35.242 58469 241.804
35.3587 58529 241.928
35.4755 58732 242.347
35.5921 58307 241.468
35.7088 56994 238.734
35.8254 54804 234.103
35.9419 52317 228.729
36.0584 50238 224.138
36.1749 47611 218.199
36.2913 45547 213.417
36.4077 44054 209.89
36.524 43035 207.449
36.6403 41949 204.815
36.7565 41199 202.975
36.8727 40790 201.965
36.9889 40225 200.562
37.1049 37970 194.859
37.221 0 1
37.3369 0 1
37.4529 0 1
37.5687 0 1
37.6845 0 1
37.8003 0 1
37.916 0 1
38.0316 0 1
38.1472 0 1
40.5851 0 1
40.7008 0 1
40.8164 0 1
40.9322 0 1
41.048 0 1
41.1639 0 1
41.2798 0 1
41.3958 0 1
41.5118 0 1
41.6279 0 1
41.744 26006 161.264
41.8602 28658 169.287
41.9765 32038 178.992
42.0928 35458 188.303
42.2091 38570 196.392
42.3255 42687 206.608
42.4419 46063 214.623
42.5584 47922 218.911
42.675 48856 221.034
42.7915 49488 222.459
42.9081 51683 227.339
43.0248 54501 233.454
43.1415 56493 237.683
43.2582 58676 242.231
43.375 60069 245.09
43.4918 61321 247.631
43.6087 61475 247.942
43.7256 60837 246.652
43.8425 60178 245.312
43.9595 59060 243.023
44.0765 58565 242.002
44.1935 58900 242.693
44.3106 60190 245.337
44.4277 59598 244.127
44.5448 58767 242.419
44.6619 55690 235.987
44.7791 53431 231.151
44.8963 50092 223.812
45.0136 47699 218.401
45.1308 46143 214.809
45.2481 45697 213.769
45.3654 45612 213.57
45.4827 46621 215.919
45.6001 48441 220.093
45.7174 51501 226.938
45.8348 54616 233.701
45.9522 57622 240.046
46.0697 58766 242.417
46.1871 59294 243.504
46.3046 58731 242.345
46.422 59319 243.555
46.5395 60051 245.053
46.657 62273 249.546
46.7745 64128 253.235
46.892 65017 254.984
47.0096 66124 257.146
47.1271 66928 258.704
47.2446 66667 258.2
47.3622 66222 257.336
47.4797 65360 255.656
47.5973 64148 253.275
47.7149 64279 253.533
47.8324 64704 254.37
47.95 65444 255.82
48.0675 62021 249.04
48.1851 61025 247.032
48.3027 57029 238.807
48.4202 52658 229.473
48.5378 48919 221.176
48.6554 46392 215.388
48.7729 45336 212.923
48.8904 45175 212.544
49.008 46696 216.093
49.1255 49420 222.306
49.243 53376 231.032
49.3605 57430 239.646
49.478 60854 246.686
49.5955 62491 249.982
49.713 61526 248.044
49.8304 61862 248.721
49.9479 61509 248.01
50.0653 62745 250.49
50.1827 65061 255.071
50.3001 66246 257.383
50.4175 67796 260.377
50.5348 69075 262.821
50.6521 69049 262.772
50.7694 70131 264.823
50.8867 68788 262.275
51.004 67709 260.21
51.1212 66897 258.645
51.2384 67251 259.328
51.3556 68431 261.593
51.4727 67581 259.963
51.5899 65910 256.729
51.707 63507 252.006
51.824 59623 244.178
51.9411 55104 234.742
52.0581 49783 223.121
52.175 47936 218.943
52.2919 46582 215.829
52.4088 46507 215.655
52.5257 47625 218.232
52.6425 50113 223.859
52.7593 53462 231.219
52.876 57291 239.355
52.9927 59670 244.274
53.1094 59715 244.367
53.226 59226 243.364
53.3426 57326 239.428
53.4591 55790 236.199
53.5756 54443 233.33
53.692 53795 231.937
53.8084 52523 229.179
53.9248 51667 227.304
54.0411 49503 222.493
54.1573 47375 217.658
54.2735 0 1
54.3896 0 1
54.5057 0 1
54.6217 0 1
54.7377 0 1
54.8537 0 1
54.9695 0 1
55.0853 0 1
55.2011 0 1
55.3168 0 1
55.4324 0 1
57.824 0 1
57.9396 0 1
58.0553 0 1
58.1711 0 1
58.2869 0 1
58.4028 0 1
58.5187 0 1
58.6347 0 1
58.7508 0 1
58.8669 0 1
58.983 56142 236.943
59.0992 63043 251.084
59.2155 68584 261.885
59.3318 73471 271.055
59.4482 77218 277.881
59.5646 80034 282.903
59.681 81672 285.783
59.7975 83469 288.91
59.9141 85026 291.592
60.0306 87933 296.535
60.1473 88786 297.97
60.2639 87752 296.23
60.3807 85119 291.752
60.4974 80144 283.097
60.6142 74755 273.414
60.731 68251 261.249
60.8479 61537 248.067
60.9648 57601 240.002
61.0818 56980 238.705
61.1987 59274 243.463
61.3158 64593 254.152
61.4328 72717 269.661
61.5499 81071 284.73
61.667 88450 297.405
61.7841 92018 303.345
61.9013 92781 304.6
62.0185 92137 303.541
62.1357 92100 303.48
62.253 93525 305.819
62.3702 95548 309.108
62.4875 97610 312.426
62.6049 100001 316.229
62.7222 101611 318.765
62.8396 102611 320.33
62.9569 102511 320.173
63.0743 102419 320.03
63.1918 101355 318.363
63.3092 100131 316.435
63.4267 99631 315.644
63.5441 100809 317.504
63.6616 100296 316.695
63.7791 97872 312.845
63.8966 92612 304.322
64.0142 86069 293.375
64.1317 78708 280.549
64.2492 69811 264.218
64.3668 62331 249.662
64.4843 57787 240.389
64.6019 56853 238.439
64.7195 58207 241.261
64.837 63833 252.652
64.9546 73072 270.318
65.0722 83242 288.517
65.1898 91967 303.261
65.3074 97173 311.726
65.4249 97822 312.765
65.5425 97103 311.614
65.6601 97075 311.569
65.7777 97291 311.915
65.8952 99634 315.649
66.0128 102110 319.547
66.1304 104379 323.077
66.2479 106196 325.877
66.3655 107160 327.353
66.483 108554 329.475
66.6005 108600 329.545
66.718 108380 329.211
66.8355 106287 326.017
66.953 105247 324.418
67.0705 106051 325.655
67.1879 106257 325.971
67.3054 105889 325.406
67.4228 102154 319.615
67.5402 95771 309.469
67.6576 88045 296.724
67.7749 79643 282.211
67.8923 69026 262.728
68.0096 60711 246.396
68.1269 56895 238.527
68.2442 56151 236.962
68.3614 58539 241.948
68.4787 65663 256.248
68.5958 76582 276.735
68.713 88208 296.998
68.8302 98161 313.307
68.9473 104494 323.255
69.0643 105057 324.125
69.1814 103329 321.448
69.2984 100884 317.622
69.4154 98069 313.16
69.5323 98820 314.356
69.6492 99747 315.827
69.7661 99861 316.008
69.8829 100930 317.695
69.9997 100468 316.967
70.1165 99975 316.188
70.2332 97280 311.897
70.3499 95548 309.108
70.4665 91336 302.218
70.5831 87280 295.432
70.6996 84366 290.458
70.8161 83073 288.224
70.9326 80738 284.144
71.049 74299 272.578
71.1653 67227 259.282
71.2817 60537 246.043
71.3979 53267 230.796
71.5141 44029 209.831
71.6303 33405 182.77
71.7464 23025 151.74
71.8624 0 1
71.9784 0 1
72.0944 0 1
72.2102 0 1
72.3261 0 1
72.4418 0 1
72.5575 0 1
72.6732 0 1
75.1054 0 1
75.2209 0 1
75.3365 0 1
75.4521 0 1
75.5678 0 1
75.6835 0 1
75.7993 0 1
75.9151 0 1
76.031 0 1
76.147 79735 282.374
76.263 85299 292.06
76.3791 84980 291.513
76.4952 80795 284.245
76.6113 75670 275.082
76.7276 70000 264.575
76.8438 63513 252.018
76.9601 56939 238.619
77.0765 52545 229.227
77.1929 52189 228.449
77.3093 54255 232.927
77.4258 60838 246.654
77.5423 74113 272.237
77.6589 91257 302.088
77.7755 104462 323.206
77.8921 112345 335.179
78.0088 113796 337.337
78.1256 113198 336.449
78.2423 111101 333.318
78.3591 110321 332.146
78.4759 111595 334.058
78.5928 116105 340.742
78.7097 118264 343.895
78.8266 118465 344.187
78.9436 125253 353.911
79.0606 124519 352.872
79.1776 124683 353.105
79.2946 125618 354.426
79.4117 126204 355.252
79.5288 124208 352.432
79.6459 124625 353.023
79.7631 125248 353.904
79.8802 128513 358.487
79.9974 128907 359.036
80.1147 122654 350.22
80.2319 111560 334.006
80.3491 100184 316.519
80.4664 88261 297.088
80.5837 74653 273.227
80.701 63398 251.79
80.8183 59119 243.144
80.9357 60600 246.171
81.053 64202 253.381
81.1704 76556 276.688
81.2877 96651 310.887
81.4051 115655 340.081
81.5225 131638 362.82
81.6399 132767 364.372
81.7573 134957 367.365
81.8747 129950 360.486
81.9922 128658 358.689
82.1096 129429 359.762
82.227 132845 364.479
82.3444 135833 368.555
82.4619 140864 375.319
82.5793 143138 378.336
82.6967 144860 380.605
82.8142 145815 381.857
82.9316 146804 383.15
83.049 146178 382.332
83.1664 144008 379.484
83.2838 142225 377.127
83.4012 144723 380.425
83.5186 146031 382.14
83.636 144944 380.715
83.7534 135568 368.196
83.8708 122901 350.572
83.9881 111235 333.519
84.1055 99678 315.718
84.2228 87231 295.349
84.3401 73228 270.607
84.4575 65937 256.782
84.5747 65849 256.611
84.692 72776 269.77
84.8093 90284 300.473
84.9265 110725 332.754
85.0437 130768 361.619
85.1609 146174 382.327
85.2781 151721 389.514
85.3952 150836 388.376
85.5123 148412 385.243
85.6294 147486 384.039
85.7465 148147 384.899
85.8636 153181 391.383
85.9806 156052 395.034
86.0976 160391 400.488
86.2145 161671 402.083
86.3315 167777 409.606
86.4484 161295 401.615
86.5652 162633 403.278
86.682 157018 396.255
86.7988 152276 390.226
86.9156 148666 385.572
87.0323 149893 387.16
87.149 151024 388.618
87.2657 147630 384.226
87.3823 135238 367.747
87.4988 121330 348.325
87.6154 107360 327.658
87.7318 93467 305.724
87.8483 76358 276.33
87.9647 61566 248.125
88.081 55127 234.791
88.1973 54110 232.616
88.3136 58368 241.595
88.4298 70615 265.735
88.546 87247 295.376
88.6621 100552 317.099
88.7781 106970 327.063
88.8942 0 1
89.0101 0 1
89.126 0 1
89.2419 0 1
89.3577 0 1
89.4734 0 1
89.5891 0 1
89.7047 0 1
89.8203 0 1
89.9358 0 1
92.3269 0 1
92.4424 0 1
92.558 0 1
92.6736 0 1
92.7893 0 1
92.905 0 1
93.0208 0 1
93.1366 0 1
93.2525 0 1
93.3685 0 1
93.4845 0 1
93.6005 67993 260.755
93.7167 79974 282.797
93.8328 99910 316.085
93.949 122541 350.059
94.0653 143123 378.316
94.1816 158004 397.497
94.2979 166222 407.703
94.4143 169639 411.873
94.5307 171561 414.199
94.6472 174505 417.738
94.7637 177977 421.873
94.8803 183415 428.27
94.9969 187811 433.372
95.1135 190236 436.161
95.2302 195447 442.094
95.3469 196542 443.331
95.4637 198793 445.862
95.5805 199387 446.528
95.6973 197810 444.758
95.8142 194833 441.399
95.9311 192043 438.227
96.048 192121 438.316
96.1649 193430 439.807
96.2819 192271 438.487
96.3989 183399 428.251
96.516 168314 410.261
96.633 151775 389.583
96.7501 136160 368.999
96.8673 121085 347.973
96.9844 106441 326.253
97.1016 94412 307.265
97.2188 89244 298.737
97.336 92521 304.173
97.4532 106517 326.369
97.5704 128902 359.029
97.6877 154062 392.507
97.805 174541 417.781
97.9223 187198 432.664
98.0396 192707 438.984
98.1569 191246 437.317
98.2743 189752 435.605
98.3916 189302 435.088
98.509 194531 441.057
98.6264 197236 444.113
98.7438 201438 448.818
98.8612 205228 453.021
98.9786 208012 456.083
99.096 208825 456.974
99.2134 209948 458.201
99.3308 208872 457.025
99.4482 208301 456.4
99.5656 207144 455.131
99.6831 206808 454.761
99.8005 208834 456.984
99.9179 203335 450.927
100.035 190924 436.949
100.153 174614 417.868
100.27 155412 394.223
100.388 137475 370.776
100.505 121325 348.317
100.622 105768 325.22
100.74 96794 311.117
100.857 96894 311.278
100.975 105529 324.852
101.092 127633 357.258
101.209 155522 394.363
101.327 181355 425.858
101.444 198188 445.183
101.561 203612 451.234
101.679 201564 448.959
101.796 198025 445
101.913 196496 443.279
102.03 198092 445.075
102.148 202342 449.824
102.265 210765 459.091
102.382 207444 455.46
102.499 212694 461.188
102.616 214917 463.591
102.733 215506 464.226
102.851 214462 463.1
102.968 214582 463.23
103.085 212028 460.465
103.202 210521 458.826
103.319 211263 459.634
103.436 209647 457.872
103.552 201944 449.382
103.669 186463 431.814
103.786 167819 409.657
103.903 149400 386.523
104.02 132390 363.854
104.137 116242 340.943
104.253 104343 323.022
104.37 97560 312.346
104.487 103020 320.967
104.603 112247 335.033
104.72 128106 357.919
104.836 144579 380.235
104.953 158802 398.5
105.069 162907 403.617
105.186 163067 403.816
105.302 158195 397.737
105.418 151113 388.733
105.535 145025 380.821
105.651 137499 370.809
105.767 129895 360.409
105.883 123964 352.085
105.999 115751 340.222
106.115 0 1
106.231 0 1
106.347 0 1
106.463 0 1
106.579 0 1
106.694 0 1
106.81 0 1
106.926 0 1
107.041 0 1
107.157 0 1
109.576 0 1
109.692 0 1
109.807 0 1
109.923 0 1
110.039 0 1
110.155 0 1
110.27 0 1
110.386 0 1
110.502 0 1
110.618 111082 333.29
110.735 127479 357.042
110.851 140665 375.053
110.967 151094 388.708
111.083 158646 398.304
111.199 167142 408.83
111.316 173382 416.392
111.432 179135 423.243
111.549 182631 427.353
111.665 183806 428.726
111.782 182835 427.592
111.898 185730 430.964
112.015 190375 436.32
112.132 191420 437.516
112.248 182976 427.757
112.365 167378 409.119
112.482 149771 387.003
112.599 131012 361.956
112.716 116450 341.248
112.832 102035 319.429
112.949 93392 305.601
113.066 92391 303.959
113.183 95225 308.585
113.3 107099 327.26
113.417 130753 361.598
113.534 152152 390.067
113.652 169051 411.158
113.769 175329 418.723
113.886 174167 417.333
114.003 169832 412.107
114.12 169065 411.175
114.238 170132 412.471
114.355 175278 418.662
114.472 178989 423.071
114.589 181093 425.55
114.707 182661 427.389
114.824 183616 428.504
114.942 184648 429.707
115.059 184946 430.053
115.176 183784 428.7
115.294 179234 423.36
115.411 176465 420.077
115.529 178360 422.327
115.646 179433 423.595
115.764 175921 419.429
115.881 165341 406.621
115.999 150923 388.488
116.116 134424 366.639
116.234 120276 346.808
116.351 107255 327.498
116.469 96348 310.4
116.586 90521 300.867
116.704 90698 301.161
116.821 97790 312.714
116.939 112122 334.846
117.056 132128 363.494
117.174 148618 385.51
117.291 158424 398.025
117.409 161415 401.765
117.526 159160 398.949
117.644 156190 395.209
117.761 155584 394.441
117.879 158224 397.774
117.996 161551 401.934
118.114 166341 407.849
118.231 166586 408.149
118.349 169802 412.07
118.466 168667 410.691
118.584 169468 411.665
118.701 168560 410.561
118.819 166068 407.514
118.936 162816 403.505
119.053 160683 400.853
119.171 161481 401.847
119.288 161401 401.747
119.405 159125 398.905
119.523 151615 389.378
119.64 138517 372.179
119.757 125228 353.876
119.875 113445 336.816
119.992 100729 317.378
120.109 92610 304.319
120.226 88378 297.284
120.343 87559 295.904
120.46 89865 299.775
120.578 98314 313.551
120.695 112877 335.972
120.812 126065 355.056
120.929 134153 366.269
121.046 135193 367.686
121.163 132197 363.589
121.279 128463 358.417
121.396 126652 355.882
121.513 125587 354.383
121.63 127219 356.678
121.747 126522 355.699
121.863 127234 356.699
121.98 127046 356.435
122.097 126680 355.921
122.213 124154 352.355
122.33 121454 348.503
122.446 116558 341.406
122.563 111303 333.621
122.679 105466 324.755
122.795 100651 317.255
122.912 97156 311.699
123.028 93038 305.021
123.144 86575 294.236
123.26 77504 278.395
123.377 0 1
123.493 0 1
123.609 0 1
123.725 0 1
123.84 0 1
123.956 0 1
124.072 0 1
124.188 0 1
124.303 0 1
124.419 0 1
126.852 0 1
126.968 0 1
127.083 0 1
127.199 0 1
127.315 0 1
127.431 0 1
127.547 0 1
127.663 0 1
127.779 0 1
127.895 0 1
128.011 0 1
128.127 0 1
128.243 0 1
128.359 148148 384.9
128.476 150461 387.893
128.592 148794 385.738
128.708 143526 378.848
128.825 135764 368.462
128.941 127251 356.723
129.058 117359 342.577
129.174 109604 331.065
129.291 105462 324.749
129.408 104781 323.699
129.524 104803 323.733
129.641 109614 331.08
129.758 119607 345.842
129.875 131261 362.3
129.992 139971 374.127
130.108 145097 380.916
130.225 144391 379.988
130.342 145025 380.821
130.459 142085 376.942
130.576 150370 387.776
130.693 152954 391.093
130.81 156143 395.149
130.928 158289 397.856
131.045 161484 401.851
131.162 162140 402.666
131.279 163879 404.82
131.396 162251 402.804
131.513 161730 402.157
131.631 159237 399.045
131.748 157733 397.156
131.865 159210 399.011
131.983 159040 398.798
132.1 155172 393.919
132.217 149268 386.352
132.335 141721 376.458
132.452 132382 363.843
132.57 123195 350.991
132.687 113897 337.486
132.804 111653 334.145
132.922 108118 328.813
133.039 107918 328.509
133.157 109239 330.513
133.274 115443 339.769
133.392 124390 352.69
133.509 133201 364.967
133.627 138118 371.642
133.744 139488 373.481
133.862 140968 375.457
133.979 140527 374.869
134.097 140655 375.04
134.214 146441 382.676
134.332 149521 386.679
134.449 152135 390.045
134.567 154746 393.378
134.684 156867 396.064
134.802 157101 396.36
134.919 158692 398.362
135.037 156479 395.574
135.154 154299 392.809
135.272 150718 388.224
135.389 152428 390.42
135.507 153340 391.587
135.624 152288 390.241
135.742 148978 385.977
135.859 143394 378.674
135.977 136943 370.058
136.094 128932 359.071
136.211 122449 349.927
136.329 116917 341.931
136.446 113375 336.712
136.564 110994 333.158
136.681 110361 332.206
136.798 109833 331.411
136.915 114430 338.275
137.033 121312 348.299
137.15 127494 357.063
137.267 131705 362.912
137.384 131986 363.299
137.502 131331 362.396
137.619 131444 362.552
137.736 132952 364.626
137.853 132741 364.336
137.97 140809 375.245
138.087 141362 375.981
138.204 143018 378.177
138.321 142984 378.132
138.438 140364 374.652
138.555 140743 375.157
138.672 138607 372.3
138.788 133376 365.207
138.905 127785 357.47
139.022 123453 351.359
139.139 121596 348.706
139.255 118410 344.108
139.372 112601 335.561
139.488 106434 326.242
139.605 98780 314.293
139.721 89658 299.429
139.838 81790 285.99
139.954 75470 274.718
140.071 69188 263.036
140.187 65551 256.029
140.303 59885 244.714
140.419 55438 235.453
140.535 52702 229.569
140.652 51363 226.634
140.768 0 1
140.884 0 1
141 0 1
141.115 0 1
141.231 0 1
141.347 0 1
141.463 0 1
141.578 0 1
141.694 0 1
144.104 0 1
144.219 0 1
144.335 0 1
144.45 0 1
144.566 0 1
144.682 0 1
144.798 0 1
144.914 0 1
145.03 0 1
145.146 82162 286.639
145.262 83984 289.8
145.378 85260 291.993
145.494 84398 290.513
145.61 85193 291.878
145.726 86301 293.77
145.842 89418 299.028
145.959 91341 302.227
146.075 92195 303.636
146.192 93664 306.046
146.308 92428 304.02
146.425 92131 303.531
146.541 92911 304.813
146.658 94794 307.886
146.774 98581 313.976
146.891 100260 316.639
147.008 103438 321.618
147.125 103609 321.884
147.241 105050 324.114
147.358 105823 325.304
147.475 105655 325.046
147.592 104460 323.203
147.709 102740 320.531
147.826 101015 317.829
147.943 101618 318.776
148.06 101567 318.696
148.177 99883 316.043
148.294 99728 315.797
148.411 98364 313.63
148.528 95992 309.826
148.645 93698 306.101
148.762 92336 303.868
148.88 91234 302.05
148.997 91286 302.136
149.114 87684 296.115
149.231 88182 296.955
149.349 87932 296.533
149.466 86655 294.372
149.583 88668 297.772
149.701 90108 300.18
149.818 89866 299.777
149.935 89524 299.206
150.053 89463 299.104
150.17 89187 298.642
150.287 89926 299.877
150.405 92844 304.703
150.522 95303 308.712
150.64 98114 313.232
150.757 99448 315.354
150.875 100500 317.017
150.992 101658 318.839
151.11 101658 318.839
151.227 99803 315.916
151.344 98357 313.619
151.462 97031 311.498
151.579 94891 308.044
151.697 96207 310.173
151.814 96563 310.746
151.932 95328 308.752
152.049 93668 306.052
152.167 92099 303.478
152.284 90961 301.597
152.402 88672 297.778
152.519 88137 296.879
152.636 86889 294.769
152.754 85801 292.918
152.871 85027 291.594
152.989 83690 289.292
153.106 84642 290.933
153.223 84646 290.94
153.341 85607 292.587
153.458 85290 292.045
153.575 83409 288.806
153.693 82386 287.03
153.81 82642 287.475
153.927 83409 288.806
154.044 86742 294.52
154.162 88386 297.298
154.279 90319 300.531
154.396 91359 302.257
154.513 93708 306.118
154.63 93572 305.895
154.747 94117 306.785
154.864 92517 304.166
154.981 88830 298.044
155.098 87540 295.872
155.215 88259 297.084
155.332 88094 296.806
155.449 86633 294.335
155.566 85462 292.339
155.683 83901 289.657
155.8 81336 285.195
155.917 79475 281.913
156.033 77065 277.606
156.15 0 1
156.267 0 1
156.383 0 1
156.5 0 1
156.617 0 1
156.733 0 1
156.85 0 1
156.966 0 1
157.082 0 1
157.199 0 1
157.315 0 1
157.431 0 1
157.547 0 1
157.664 0 1
157.78 0 1
157.896 0 1
158.012 0 1
158.128 0 1
158.244 0 1
158.359 0 1
158.475 0 1
158.591 0 1
158.706 0 1
