
6.15755 0 1
6.2731 0 1
6.3887 0 1
6.50437 0 1
6.62009 0 1
6.73587 0 1
6.8517 0 1
6.96759 0 1
7.08353 0 1
7.19952 0 1
7.31557 0 1
7.43166 0 1
7.54781 0 1
7.664 0 1
7.78024 0 1
7.89653 0 1
8.01286 0 1
8.12924 0 1
8.24567 0 1
8.36213 0 1
8.47864 0 1
8.59519 0 1
8.71178 0 1
8.82841 0 1
8.94508 0 1
9.06179 0 1
9.17853 0 1
9.29531 0 1
9.41212 0 1
9.52897 0 1
9.64584 0 1
9.76276 0 1
9.8797 0 1
9.99667 0 1
10.1137 0 1
10.2307 0 1
10.3478 0 1
10.4648 0 1
10.5819 0 1
10.6991 0 1
10.8162 0 1
10.9334 0 1
11.0506 0 1
11.1678 0 1
11.285 0 1
11.4023 0 1
11.5196 0 1
11.6369 0 1
11.7542 0 1
11.8715 0 1
11.9888 0 1
12.1062 0 1
12.2235 0 1
12.3409 0 1
12.4582 0 1
12.5756 0 1
12.693 0 1
12.8104 0 1
12.9278 0 1
13.0452 0 1
13.1626 0 1
13.28 0 1
13.3974 0 1
13.5149 0 1
13.6323 0 1
13.7497 0 1
13.8671 0 1
13.9845 0 1
14.1019 0 1
14.2193 0 1
14.3367 0 1
14.4541 0 1
14.5714 0 1
14.6888 0 1
14.8062 0 1
14.9235 0 1
15.0408 0 0
15.1581 0 0
15.2755 0 0
15.3927 0 0
15.51 0 0
15.6273 0 0
15.7445 0 0
15.8617 0 0
15.9789 0 0
16.0961 0 0
16.2132 0 0
16.3304 0 0
16.4475 0 0
16.5646 0 0
16.6816 0 0
16.7986 0 0
16.9156 0 0
17.0326 0 0
17.1496 0 0
17.2665 0 0
17.3833 0 0
17.5002 0 0
17.617 0 0
17.7338 0 0
17.8505 0 0
17.9672 0 0
18.0839 0 0
18.2005 0 0
18.3171 0 0
18.4337 0 0
18.5502 0 0
18.6666 0 0
18.7831 0 0
18.8994 0 0
19.0158 0 0
19.1321 0 0
19.2483 0 0
19.3645 0 0
19.4806 0 0
19.5967 0 0
19.7128 0 0
19.8288 0 0
19.9447 0 0
20.0606 0 1
20.1764 0 1
20.2922 0 1
20.4079 0 1
20.5236 0 1
20.6392 0 1
20.7548 0 1
20.8702 0 1
23.3078 0 1
23.4233 0 1
23.539 0 1
23.6547 0 1
23.7704 0 1
23.8862 0 1
24.0021 0 1
24.118 0 1
24.234 0 1
24.35 0 1
24.4661 375 19.3649
24.5822 428 20.6882
24.6984 594 24.3721
24.8146 595 24.3926
24.9309 661 25.7099
25.0472 761 27.5862
25.1636 769 27.7308
25.28 842 29.0172
25.3965 874 29.5635
25.513 909 30.1496
25.6296 1005 31.7017
25.7462 1011 31.7962
25.8628 1042 32.28
25.9795 1030 32.0936
26.0962 994 31.5278
26.213 962 31.0161
26.3298 878 29.6311
26.4466 831 28.8271
26.5635 830 28.8097
26.6804 828 28.775
26.7973 822 28.6705
26.9143 847 29.1033
27.0313 931 30.5123
27.1483 1002 31.6544
27.2653 948 30.7896
27.3824 945 30.7409
27.4996 1039 32.2335
27.6167 936 30.5941
27.7339 907 30.1164
27.8511 893 29.8831
27.9683 893 29.8831
28.0855 850 29.1548
28.2028 851 29.1719
28.3201 872 29.5296
28.4374 785 28.0179
28.5547 844 29.0517
28.6721 830 28.8097
28.7894 881 29.6816
28.9068 911 30.1828
29.0242 967 31.0966
29.1416 1001 31.6386
29.259 1006 31.7175
29.3764 977 31.257
29.4939 970 31.1448
29.6113 954 30.8869
29.7288 917 30.282
29.8463 828 28.775
29.9638 832 28.8444
30.0812 819 28.6182
30.1987 793 28.1603
30.3162 827 28.7576
30.4337 828 28.775
30.5512 857 29.2746
30.6687 824 28.7054
30.7862 865 29.4109
30.9037 990 31.4643
31.0212 899 29.9833
31.1387 931 30.5123
31.2562 897 29.95
31.3737 864 29.3939
31.4912 823 28.688
31.6087 867 29.4449
31.7262 805 28.3725
31.8436 804 28.3549
31.9611 788 28.0713
32.0785 780 27.9285
32.1959 820 28.6356
32.3134 925 30.4138
32.4308 915 30.249
32.5482 1025 32.0156
32.6655 964 31.0483
32.7829 917 30.282
32.9002 960 30.9839
33.0176 926 30.4302
33.1349 930 30.4959
33.2522 909 30.1496
33.3694 843 29.0345
33.4867 835 28.8964
33.6039 793 28.1603
33.7211 809 28.4429
33.8383 761 27.5862
33.9554 871 29.5127
34.0725 765 27.6586
34.1896 834 28.8791
34.3067 905 30.0832
34.4237 874 29.5635
34.5407 883 29.7153
34.6577 941 30.6757
34.7746 889 29.8161
34.8915 856 29.2575
35.0084 856 29.2575
35.1252 828 28.775
35.242 797 28.2312
35.3587 843 29.0345
35.4755 758 27.5318
35.5921 716 26.7582
35.7088 742 27.2397
35.8254 739 27.1846
35.9419 819 28.6182
36.0584 851 29.1719
36.1749 860 29.3258
36.2913 865 29.4109
36.4077 838 28.9482
36.524 897 29.95
36.6403 806 28.3901
36.7565 801 28.3019
36.8727 763 27.6225
36.9889 733 27.074
37.1049 592 24.3311
37.221 0 1
37.3369 0 1
37.4529 0 1
37.5687 0 1
37.6845 0 1
37.8003 0 1
37.916 0 1
38.0316 0 1
38.1472 0 1
40.5851 0 1
40.7008 0 1
40.8164 0 1
40.9322 0 1
41.048 0 1
41.1639 0 1
41.2798 0 1
41.3958 0 1
41.5118 0 1
41.6279 0 1
41.744 459 21.4243
41.8602 518 22.7596
41.9765 503 22.4277
42.0928 572 23.9165
42.2091 557 23.6008
42.3255 534 23.1084
42.4419 519 22.7816
42.5584 589 24.2693
42.675 566 23.7908
42.7915 660 25.6905
42.9081 690 26.2679
43.0248 695 26.3629
43.1415 696 26.3818
43.2582 771 27.7669
43.375 725 26.9258
43.4918 694 26.3439
43.6087 765 27.6586
43.7256 770 27.7489
43.8425 729 27
43.9595 747 27.3313
44.0765 676 26
44.1935 678 26.0384
44.3106 570 23.8747
44.4277 580 24.0832
44.5448 633 25.1595
44.6619 624 24.98
44.7791 594 24.3721
44.8963 699 26.4386
45.0136 818 28.6007
45.1308 765 27.6586
45.2481 710 26.6458
45.3654 786 28.0357
45.4827 822 28.6705
45.6001 766 27.6767
45.7174 708 26.6083
45.8348 736 27.1293
45.9522 661 25.7099
46.0697 646 25.4165
46.1871 608 24.6577
46.3046 650 25.4951
46.422 636 25.219
46.5395 707 26.5895
46.657 708 26.6083
46.7745 746 27.313
46.892 660 25.6905
47.0096 761 27.5862
47.1271 727 26.9629
47.2446 786 28.0357
47.3622 871 29.5127
47.4797 756 27.4955
47.5973 713 26.7021
47.7149 693 26.3249
47.8324 709 26.6271
47.95 630 25.0998
48.0675 579 24.0624
48.1851 602 24.5357
48.3027 646 25.4165
48.4202 662 25.7294
48.5378 761 27.5862
48.6554 772 27.7849
48.7729 806 28.3901
48.8904 790 28.1069
49.008 799 28.2666
49.1255 747 27.3313
49.243 734 27.0924
49.3605 690 26.2679
49.478 684 26.1534
49.5955 675 25.9808
49.713 656 25.6125
49.8304 656 25.6125
49.9479 682 26.1151
50.0653 663 25.7488
50.1827 718 26.7955
50.3001 756 27.4955
50.4175 694 26.3439
50.5348 697 26.4008
50.6521 747 27.3313
50.7694 742 27.2397
50.8867 764 27.6405
51.004 775 27.8388
51.1212 726 26.9444
51.2384 699 26.4386
51.3556 680 26.0768
51.4727 593 24.3516
51.5899 591 24.3105
51.707 626 25.02
51.824 630 25.0998
51.9411 713 26.7021
52.0581 766 27.6767
52.175 759 27.55
52.2919 807 28.4077
52.4088 810 28.4605
52.5257 795 28.1957
52.6425 842 29.0172
52.7593 824 28.7054
52.876 753 27.4408
52.9927 761 27.5862
53.1094 663 25.7488
53.226 659 25.671
53.3426 661 25.7099
53.4591 714 26.7208
53.5756 641 25.318
53.692 643 25.3574
53.8084 632 25.1396
53.9248 621 24.9199
54.0411 643 25.3574
54.1573 616 24.8193
54.2735 0 1
54.3896 0 1
54.5057 0 1
54.6217 0 1
54.7377 0 1
54.8537 0 1
54.9695 0 1
55.0853 0 1
55.2011 0 1
55.3168 0 1
55.4324 0 1
57.824 0 1
57.9396 0 1
58.0553 0 1
58.1711 0 1
58.2869 0 1
58.4028 0 1
58.5187 0 1
58.6347 0 1
58.7508 0 1
58.8669 0 1
58.983 445 21.095
59.0992 578 24.0416
59.2155 599 24.4745
59.3318 654 25.5734
59.4482 765 27.6586
59.5646 744 27.2764
59.681 841 29
59.7975 820 28.6356
59.9141 872 29.5296
60.0306 796 28.2135
60.1473 745 27.2947
60.2639 762 27.6043
60.3807 741 27.2213
60.4974 720 26.8328
60.6142 776 27.8568
60.731 802 28.3196
60.8479 859 29.3087
60.9648 943 30.7083
61.0818 951 30.8383
61.1987 929 30.4795
61.3158 948 30.7896
61.4328 995 31.5436
61.5499 912 30.1993
61.667 889 29.8161
61.7841 857 29.2746
61.9013 817 28.5832
62.0185 842 29.0172
62.1357 761 27.5862
62.253 852 29.189
62.3702 904 30.0666
62.4875 928 30.4631
62.6049 955 30.9031
62.7222 904 30.0666
62.8396 892 29.8664
62.9569 932 30.5287
63.0743 934 30.5614
63.1918 1028 32.0624
63.3092 941 30.6757
63.4267 868 29.4618
63.5441 864 29.3939
63.6616 768 27.7128
63.7791 696 26.3818
63.8966 707 26.5895
64.0142 662 25.7294
64.1317 701 26.4764
64.2492 809 28.4429
64.3668 834 28.8791
64.4843 902 30.0333
64.6019 919 30.315
64.7195 880 29.6648
64.837 920 30.3315
64.9546 868 29.4618
65.0722 907 30.1164
65.1898 896 29.9333
65.3074 819 28.6182
65.4249 865 29.4109
65.5425 833 28.8617
65.6601 791 28.1247
65.7777 812 28.4956
65.8952 833 28.8617
66.0128 892 29.8664
66.1304 905 30.0832
66.2479 907 30.1164
66.3655 958 30.9516
66.483 924 30.3974
66.6005 954 30.8869
66.718 934 30.5614
66.8355 906 30.0998
66.953 932 30.5287
67.0705 865 29.4109
67.1879 821 28.6531
67.3054 691 26.2869
67.4228 691 26.2869
67.5402 578 24.0416
67.6576 626 25.02
67.7749 717 26.7769
67.8923 762 27.6043
68.0096 808 28.4253
68.1269 879 29.6479
68.2442 861 29.3428
68.3614 882 29.6985
68.4787 857 29.2746
68.5958 841 29
68.713 841 29
68.8302 840 28.9828
68.9473 823 28.688
69.0643 769 27.7308
69.1814 799 28.2666
69.2984 779 27.9106
69.4154 790 28.1069
69.5323 801 28.3019
69.6492 867 29.4449
69.7661 880 29.6648
69.8829 826 28.7402
69.9997 839 28.9655
70.1165 855 29.2404
70.2332 806 28.3901
70.3499 844 29.0517
70.4665 764 27.6405
70.5831 815 28.5482
70.6996 725 26.9258
70.8161 669 25.865
70.9326 631 25.1197
71.049 500 22.3607
71.1653 326 18.0555
71.2817 331 18.1934
71.3979 315 17.7482
71.5141 317 17.8045
71.6303 311 17.6352
71.7464 309 17.5784
71.8624 0 1
71.9784 0 1
72.0944 0 1
72.2102 0 1
72.3261 0 1
72.4418 0 1
72.5575 0 1
72.6732 0 1
75.1054 0 1
75.2209 0 1
75.3365 0 1
75.4521 0 1
75.5678 0 1
75.6835 0 1
75.7993 0 1
75.9151 0 1
76.031 0 1
76.147 464 21.5407
76.263 474 21.7715
76.3791 458 21.4009
76.4952 459 21.4243
76.6113 436 20.8806
76.7276 494 22.2261
76.8438 586 24.2074
76.9601 659 25.671
77.0765 721 26.8514
77.1929 746 27.313
77.3093 725 26.9258
77.4258 728 26.9815
77.5423 744 27.2764
77.6589 795 28.1957
77.7755 736 27.1293
77.8921 663 25.7488
78.0088 641 25.318
78.1256 649 25.4755
78.2423 666 25.807
78.3591 652 25.5343
78.4759 700 26.4575
78.5928 655 25.593
78.7097 746 27.313
78.8266 763 27.6225
78.9436 690 26.2679
79.0606 773 27.8029
79.1776 768 27.7128
79.2946 790 28.1069
79.4117 745 27.2947
79.5288 762 27.6043
79.6459 746 27.313
79.7631 667 25.8263
79.8802 644 25.3772
79.9974 589 24.2693
80.1147 500 22.3607
80.2319 496 22.2711
80.3491 478 21.8632
80.4664 527 22.9565
80.5837 626 25.02
80.701 705 26.5518
80.8183 732 27.0555
80.9357 728 26.9815
81.053 794 28.178
81.1704 776 27.8568
81.2877 773 27.8029
81.4051 729 27
81.5225 706 26.5707
81.6399 705 26.5518
81.7573 656 25.6125
81.8747 689 26.2488
81.9922 675 25.9808
82.1096 694 26.3439
82.227 673 25.9422
82.3444 712 26.6833
82.4619 749 27.3679
82.5793 794 28.178
82.6967 790 28.1069
82.8142 741 27.2213
82.9316 788 28.0713
83.049 743 27.258
83.1664 778 27.8927
83.2838 750 27.3861
83.4012 700 26.4575
83.5186 667 25.8263
83.636 660 25.6905
83.7534 510 22.5832
83.8708 460 21.4476
83.9881 449 21.1896
84.1055 496 22.2711
84.2228 583 24.1454
84.3401 686 26.1916
84.4575 726 26.9444
84.5747 754 27.4591
84.692 839 28.9655
84.8093 771 27.7669
84.9265 772 27.7849
85.0437 752 27.4226
85.1609 704 26.533
85.2781 674 25.9615
85.3952 714 26.7208
85.5123 721 26.8514
85.6294 697 26.4008
85.7465 707 26.5895
85.8636 748 27.3496
85.9806 718 26.7955
86.0976 825 28.7228
86.2145 768 27.7128
86.3315 752 27.4226
86.4484 767 27.6948
86.5652 735 27.1109
86.682 745 27.2947
86.7988 758 27.5318
86.9156 776 27.8568
87.0323 724 26.9072
87.149 636 25.219
87.2657 645 25.3969
87.3823 499 22.3383
87.4988 420 20.4939
87.6154 440 20.9762
87.7318 504 22.4499
87.8483 575 23.9792
87.9647 750 27.3861
88.081 689 26.2488
88.1973 673 25.9422
88.3136 678 26.0384
88.4298 615 24.7992
88.546 568 23.8328
88.6621 462 21.4942
88.7781 372 19.2873
88.8942 0 1
89.0101 0 1
89.126 0 1
89.2419 0 1
89.3577 0 1
89.4734 0 1
89.5891 0 1
89.7047 0 1
89.8203 0 1
89.9358 0 1
92.3269 0 1
92.4424 0 1
92.558 0 1
92.6736 0 1
92.7893 0 1
92.905 0 1
93.0208 0 1
93.1366 0 1
93.2525 0 1
93.3685 0 1
93.4845 0 1
93.6005 458 21.4009
93.7167 486 22.0454
93.8328 528 22.9783
93.949 565 23.7697
94.0653 567 23.8118
94.1816 630 25.0998
94.2979 658 25.6515
94.4143 675 25.9808
94.5307 721 26.8514
94.6472 713 26.7021
94.7637 715 26.7395
94.8803 718 26.7955
94.9969 700 26.4575
95.1135 710 26.6458
95.2302 759 27.55
95.3469 738 27.1662
95.4637 816 28.5657
95.5805 791 28.1247
95.6973 789 28.0891
95.8142 791 28.1247
95.9311 770 27.7489
96.048 794 28.178
96.1649 758 27.5318
96.2819 680 26.0768
96.3989 667 25.8263
96.516 556 23.5797
96.633 482 21.9545
96.7501 427 20.664
96.8673 444 21.0713
96.9844 498 22.3159
97.1016 535 23.1301
97.2188 632 25.1396
97.336 714 26.7208
97.4532 748 27.3496
97.5704 771 27.7669
97.6877 807 28.4077
97.805 744 27.2764
97.9223 738 27.1662
98.0396 705 26.5518
98.1569 713 26.7021
98.2743 719 26.8142
98.3916 731 27.037
98.509 673 25.9422
98.6264 731 27.037
98.7438 729 27
98.8612 757 27.5136
98.9786 715 26.7395
99.096 788 28.0713
99.2134 764 27.6405
99.3308 794 28.178
99.4482 852 29.189
99.5656 787 28.0535
99.6831 809 28.4429
99.8005 763 27.6225
99.9179 735 27.1109
100.035 674 25.9615
100.153 576 24
100.27 477 21.8403
100.388 490 22.1359
100.505 561 23.6854
100.622 621 24.9199
100.74 729 27
100.857 761 27.5862
100.975 788 28.0713
101.092 834 28.8791
101.209 772 27.7849
101.327 809 28.4429
101.444 788 28.0713
101.561 730 27.0185
101.679 746 27.313
101.796 712 26.6833
101.913 711 26.6646
102.03 756 27.4955
102.148 745 27.2947
102.265 687 26.2107
102.382 771 27.7669
102.499 757 27.5136
102.616 815 28.5482
102.733 827 28.7576
102.851 857 29.2746
102.968 816 28.5657
103.085 802 28.3196
103.202 825 28.7228
103.319 829 28.7924
103.436 775 27.8388
103.552 675 25.9808
103.669 596 24.4131
103.786 554 23.5372
103.903 477 21.8403
104.02 527 22.9565
104.137 615 24.7992
104.253 746 27.313
104.37 809 28.4429
104.487 836 28.9137
104.603 785 28.0179
104.72 860 29.3258
104.836 831 28.8271
104.953 837 28.931
105.069 750 27.3861
105.186 763 27.6225
105.302 698 26.4197
105.418 752 27.4226
105.535 702 26.4953
105.651 738 27.1662
105.767 717 26.7769
105.883 656 25.6125
105.999 588 24.2487
106.115 0 1
106.231 0 1
106.347 0 1
106.463 0 1
106.579 0 1
106.694 0 1
106.81 0 1
106.926 0 1
107.041 0 1
107.157 0 1
109.576 0 1
109.692 0 1
109.807 0 1
109.923 0 1
110.039 0 1
110.155 0 1
110.27 0 1
110.386 0 1
110.502 0 1
110.618 263 16.2173
110.735 295 17.1756
110.851 392 19.799
110.967 471 21.7025
111.083 534 23.1084
111.199 576 24
111.316 605 24.5967
111.432 669 25.865
111.549 671 25.9037
111.665 698 26.4197
111.782 724 26.9072
111.898 701 26.4764
112.015 651 25.5147
112.132 631 25.1197
112.248 501 22.383
112.365 443 21.0476
112.482 378 19.4422
112.599 468 21.6333
112.716 508 22.5389
112.832 628 25.0599
112.949 674 25.9615
113.066 677 26.0192
113.183 762 27.6043
113.3 761 27.5862
113.417 717 26.7769
113.534 670 25.8844
113.652 677 26.0192
113.769 672 25.923
113.886 639 25.2784
114.003 599 24.4745
114.12 629 25.0799
114.238 665 25.7876
114.355 685 26.1725
114.472 703 26.5141
114.589 682 26.1151
114.707 727 26.9629
114.824 694 26.3439
114.942 749 27.3679
115.059 743 27.258
115.176 759 27.55
115.294 745 27.2947
115.411 705 26.5518
115.529 705 26.5518
115.646 674 25.9615
115.764 532 23.0651
115.881 457 21.3776
115.999 398 19.9499
116.116 402 20.0499
116.234 503 22.4277
116.351 566 23.7908
116.469 661 25.7099
116.586 739 27.1846
116.704 731 27.037
116.821 697 26.4008
116.939 718 26.7955
117.056 653 25.5539
117.174 691 26.2869
117.291 659 25.671
117.409 681 26.096
117.526 674 25.9615
117.644 685 26.1725
117.761 656 25.6125
117.879 712 26.6833
117.996 722 26.8701
118.114 682 26.1151
118.231 687 26.2107
118.349 748 27.3496
118.466 750 27.3861
118.584 736 27.1293
118.701 713 26.7021
118.819 701 26.4764
118.936 685 26.1725
119.053 689 26.2488
119.171 658 25.6515
119.288 580 24.0832
119.405 546 23.3666
119.523 448 21.166
119.64 401 20.025
119.757 401 20.025
119.875 481 21.9317
119.992 522 22.8473
120.109 628 25.0599
120.226 627 25.04
120.343 704 26.533
120.46 690 26.2679
120.578 698 26.4197
120.695 697 26.4008
120.812 660 25.6905
120.929 666 25.807
121.046 627 25.04
121.163 645 25.3969
121.279 645 25.3969
121.396 651 25.5147
121.513 657 25.632
121.63 642 25.3377
121.747 677 26.0192
121.863 623 24.96
121.98 667 25.8263
122.097 666 25.807
122.213 653 25.5539
122.33 620 24.8998
122.446 586 24.2074
122.563 588 24.2487
122.679 575 23.9792
122.795 548 23.4094
122.912 445 21.095
123.028 311 17.6352
123.144 223 14.9332
123.26 208 14.4222
123.377 0 1
123.493 0 1
123.609 0 1
123.725 0 1
123.84 0 1
123.956 0 1
124.072 0 1
124.188 0 1
124.303 0 1
124.419 0 1
126.852 0 1
126.968 0 1
127.083 0 1
127.199 0 1
127.315 0 1
127.431 0 1
127.547 0 1
127.663 0 1
127.779 0 1
127.895 0 1
128.011 0 1
128.127 0 1
128.243 0 1
128.359 518 22.7596
128.476 564 23.7487
128.592 482 21.9545
128.708 426 20.6398
128.825 431 20.7605
128.941 490 22.1359
129.058 567 23.8118
129.174 645 25.3969
129.291 691 26.2869
129.408 753 27.4408
129.524 703 26.5141
129.641 753 27.4408
129.758 733 27.074
129.875 722 26.8701
129.992 655 25.593
130.108 734 27.0924
130.225 750 27.3861
130.342 661 25.7099
130.459 672 25.923
130.576 706 26.5707
130.693 733 27.074
130.81 721 26.8514
130.928 685 26.1725
131.045 693 26.3249
131.162 721 26.8514
131.279 699 26.4386
131.396 721 26.8514
131.513 695 26.3629
131.631 653 25.5539
131.748 660 25.6905
131.865 654 25.5734
131.983 576 24
132.1 541 23.2594
132.217 423 20.567
132.335 418 20.445
132.452 448 21.166
132.57 536 23.1517
132.687 625 25
132.804 682 26.1151
132.922 694 26.3439
133.039 744 27.2764
133.157 647 25.4362
133.274 656 25.6125
133.392 723 26.8887
133.509 688 26.2298
133.627 681 26.096
133.744 664 25.7682
133.862 644 25.3772
133.979 691 26.2869
134.097 675 25.9808
134.214 741 27.2213
134.332 684 26.1534
134.449 632 25.1396
134.567 706 26.5707
134.684 701 26.4764
134.802 693 26.3249
134.919 642 25.3377
135.037 676 26
135.154 665 25.7876
135.272 628 25.0599
135.389 616 24.8193
135.507 617 24.8395
135.624 497 22.2935
135.742 434 20.8327
135.859 393 19.8242
135.977 433 20.8087
136.094 515 22.6936
136.211 571 23.8956
136.329 646 25.4165
136.446 704 26.533
136.564 699 26.4386
136.681 711 26.6646
136.798 673 25.9422
136.915 703 26.5141
137.033 700 26.4575
137.15 715 26.7395
137.267 683 26.1343
137.384 647 25.4362
137.502 649 25.4755
137.619 654 25.5734
137.736 695 26.3629
137.853 670 25.8844
137.97 658 25.6515
138.087 770 27.7489
138.204 659 25.671
138.321 661 25.7099
138.438 642 25.3377
138.555 697 26.4008
138.672 653 25.5539
138.788 633 25.1595
138.905 603 24.5561
139.022 591 24.3105
139.139 570 23.8747
139.255 484 22
139.372 407 20.1742
139.488 353 18.7883
139.605 385 19.6214
139.721 394 19.8494
139.838 478 21.8632
139.954 485 22.0227
140.071 490 22.1359
140.187 438 20.9284
140.303 384 19.5959
140.419 358 18.9209
140.535 322 17.9444
140.652 292 17.088
140.768 0 1
140.884 0 1
141 0 1
141.115 0 1
141.231 0 1
141.347 0 1
141.463 0 1
141.578 0 1
141.694 0 1
144.104 0 1
144.219 0 1
144.335 0 1
144.45 0 1
144.566 0 1
144.682 0 1
144.798 0 1
144.914 0 1
145.03 0 1
145.146 359 18.9473
145.262 447 21.1424
145.378 471 21.7025
145.494 472 21.7256
145.61 542 23.2809
145.726 492 22.1811
145.842 519 22.7816
145.959 479 21.8861
146.075 476 21.8174
146.192 537 23.1733
146.308 491 22.1585
146.425 499 22.3383
146.541 472 21.7256
146.658 508 22.5389
146.774 506 22.4944
146.891 493 22.2036
147.008 516 22.7156
147.125 486 22.0454
147.241 496 22.2711
147.358 503 22.4277
147.475 463 21.5174
147.592 497 22.2935
147.709 472 21.7256
147.826 417 20.4206
147.943 415 20.3715
148.06 365 19.105
148.177 342 18.4932
148.294 301 17.3494
148.411 326 18.0555
148.528 375 19.3649
148.645 429 20.7123
148.762 469 21.6564
148.88 501 22.383
148.997 487 22.0681
149.114 508 22.5389
149.231 502 22.4054
149.349 513 22.6495
149.466 502 22.4054
149.583 556 23.5797
149.701 501 22.383
149.818 552 23.4947
149.935 476 21.8174
150.053 444 21.0713
150.17 470 21.6795
150.287 485 22.0227
150.405 499 22.3383
150.522 485 22.0227
150.64 486 22.0454
150.757 487 22.0681
150.875 475 21.7945
150.992 477 21.8403
151.11 461 21.4709
151.227 483 21.9773
151.344 458 21.4009
151.462 440 20.9762
151.579 401 20.025
151.697 373 19.3132
151.814 351 18.735
151.932 304 17.4356
152.049 369 19.2094
152.167 362 19.0263
152.284 400 20
152.402 426 20.6398
152.519 490 22.1359
152.636 501 22.383
152.754 489 22.1133
152.871 473 21.7486
152.989 531 23.0434
153.106 452 21.2603
153.223 466 21.587
153.341 519 22.7816
153.458 490 22.1359
153.575 516 22.7156
153.693 464 21.5407
153.81 507 22.5167
153.927 486 22.0454
154.044 517 22.7376
154.162 470 21.6795
154.279 449 21.1896
154.396 472 21.7256
154.513 469 21.6564
154.63 480 21.9089
154.747 464 21.5407
154.864 517 22.7376
154.981 497 22.2935
155.098 429 20.7123
155.215 394 19.8494
155.332 388 19.6977
155.449 346 18.6011
155.566 322 17.9444
155.683 345 18.5742
155.8 400 20
155.917 454 21.3073
156.033 478 21.8632
156.15 0 1
156.267 0 1
156.383 0 1
156.5 0 1
156.617 0 1
156.733 0 1
156.85 0 1
156.966 0 1
157.082 0 1
157.199 0 1
157.315 0 1
157.431 0 1
157.547 0 1
157.664 0 1
157.78 0 1
157.896 0 1
158.012 0 1
158.128 0 1
158.244 0 1
158.359 0 1
158.475 0 1
158.591 0 1
158.706 0 1
