
6.15755 0 1
6.2731 0 1
6.3887 0 1
6.50437 0 1
6.62009 0 1
6.73587 0 1
6.8517 0 1
6.96759 0 1
7.08353 0 1
7.19952 0 1
7.31557 0 1
7.43166 0 1
7.54781 0 1
7.664 0 1
7.78024 0 1
7.89653 0 1
8.01286 0 1
8.12924 0 1
8.24567 0 1
8.36213 0 1
8.47864 0 1
8.59519 0 1
8.71178 0 1
8.82841 0 1
8.94508 0 1
9.06179 0 1
9.17853 0 1
9.29531 0 1
9.41212 0 1
9.52897 0 1
9.64584 0 1
9.76276 0 1
9.8797 0 1
9.99667 0 1
10.1137 0 1
10.2307 0 1
10.3478 0 1
10.4648 0 1
10.5819 0 1
10.6991 0 1
10.8162 0 1
10.9334 0 1
11.0506 0 1
11.1678 0 1
11.285 0 1
11.4023 0 1
11.5196 0 1
11.6369 0 1
11.7542 0 1
11.8715 0 1
11.9888 0 1
12.1062 0 1
12.2235 0 1
12.3409 0 1
12.4582 0 1
12.5756 0 1
12.693 0 1
12.8104 0 1
12.9278 0 1
13.0452 0 1
13.1626 0 1
13.28 0 1
13.3974 0 1
13.5149 0 1
13.6323 0 1
13.7497 0 1
13.8671 0 1
13.9845 0 1
14.1019 0 1
14.2193 0 1
14.3367 0 1
14.4541 0 1
14.5714 0 1
14.6888 0 1
14.8062 0 1
14.9235 0 1
15.0408 0 0
15.1581 0 0
15.2755 0 0
15.3927 0 0
15.51 0 0
15.6273 0 0
15.7445 0 0
15.8617 0 0
15.9789 0 0
16.0961 0 0
16.2132 0 0
16.3304 0 0
16.4475 0 0
16.5646 0 0
16.6816 0 0
16.7986 0 0
16.9156 0 0
17.0326 0 0
17.1496 0 0
17.2665 0 0
17.3833 0 0
17.5002 0 0
17.617 0 0
17.7338 0 0
17.8505 0 0
17.9672 0 0
18.0839 0 0
18.2005 0 0
18.3171 0 0
18.4337 0 0
18.5502 0 0
18.6666 0 0
18.7831 0 0
18.8994 0 0
19.0158 0 0
19.1321 0 0
19.2483 0 0
19.3645 0 0
19.4806 0 0
19.5967 0 0
19.7128 0 0
19.8288 0 0
19.9447 0 0
20.0606 0 1
20.1764 0 1
20.2922 0 1
20.4079 0 1
20.5236 0 1
20.6392 0 1
20.7548 0 1
20.8702 0 1
23.3078 0 1
23.4233 0 1
23.539 0 1
23.6547 0 1
23.7704 0 1
23.8862 0 1
24.0021 0 1
24.118 0 1
24.234 0 1
24.35 0 1
24.4661 1284 35.8329
24.5822 1395 37.3497
24.6984 1480 38.4708
24.8146 1630 40.3733
24.9309 1802 42.45
25.0472 2209 47
25.1636 2349 48.4665
25.28 2354 48.518
25.3965 2562 50.6162
25.513 2488 49.8799
25.6296 2579 50.7839
25.7462 2591 50.9019
25.8628 2605 51.0392
25.9795 2581 50.8035
26.0962 2606 51.049
26.213 2632 51.303
26.3298 2708 52.0384
26.4466 2749 52.4309
26.5635 2622 51.2055
26.6804 2659 51.5655
26.7973 2555 50.547
26.9143 2487 49.8698
27.0313 2459 49.5883
27.1483 2451 49.5076
27.2653 2458 49.5782
27.3824 2301 47.9687
27.4996 2218 47.0956
27.6167 2077 45.5741
27.7339 2116 46
27.8511 2185 46.744
27.9683 2395 48.9387
28.0855 2450 49.4975
28.2028 2495 49.95
28.3201 2412 49.1121
28.4374 2466 49.6588
28.5547 2410 49.0918
28.6721 2350 48.4768
28.7894 2449 49.4874
28.9068 2435 49.3457
29.0242 2337 48.3425
29.1416 2446 49.4571
29.259 2444 49.4368
29.3764 2435 49.3457
29.4939 2358 48.5592
29.6113 2399 48.9796
29.7288 2241 47.3392
29.8463 2152 46.3897
29.9638 2262 47.5605
30.0812 2331 48.2804
30.1987 2372 48.7032
30.3162 2280 47.7493
30.4337 2432 49.3153
30.5512 2409 49.0816
30.6687 2367 48.6518
30.7862 2462 49.6185
30.9037 2287 47.8226
31.0212 2219 47.1063
31.1387 2201 46.9148
31.2562 2152 46.3897
31.3737 2353 48.5077
31.4912 2426 49.2544
31.6087 2452 49.5177
31.7262 2400 48.9898
31.8436 2500 50
31.9611 2442 49.4166
32.0785 2485 49.8498
32.1959 2339 48.3632
32.3134 2386 48.8467
32.4308 2346 48.4355
32.5482 2287 47.8226
32.6655 2263 47.571
32.7829 2237 47.2969
32.9002 2192 46.8188
33.0176 2016 44.8999
33.1349 2141 46.2709
33.2522 2092 45.7384
33.3694 2054 45.3211
33.4867 2141 46.2709
33.6039 2069 45.4863
33.7211 2129 46.1411
33.8383 2270 47.6445
33.9554 2226 47.1805
34.0725 2256 47.4974
34.1896 2273 47.676
34.3067 2341 48.3839
34.4237 2380 48.7852
34.5407 2176 46.6476
34.6577 2101 45.8367
34.7746 2082 45.6289
34.8915 2125 46.0977
35.0084 2320 48.1664
35.1252 2444 49.4368
35.242 2419 49.1833
35.3587 2490 49.8999
35.4755 2345 48.4252
35.5921 2339 48.3632
35.7088 2206 46.9681
35.8254 2186 46.7547
35.9419 2098 45.8039
36.0584 1966 44.3396
36.1749 2004 44.7661
36.2913 2034 45.0999
36.4077 1916 43.7721
36.524 1811 42.5558
36.6403 1583 39.7869
36.7565 1556 39.4462
36.8727 1390 37.2827
36.9889 1348 36.7151
37.1049 1403 37.4566
37.221 0 1
37.3369 0 1
37.4529 0 1
37.5687 0 1
37.6845 0 1
37.8003 0 1
37.916 0 1
38.0316 0 1
38.1472 0 1
40.5851 0 1
40.7008 0 1
40.8164 0 1
40.9322 0 1
41.048 0 1
41.1639 0 1
41.2798 0 1
41.3958 0 1
41.5118 0 1
41.6279 0 1
41.744 1937 44.0114
41.8602 2635 51.3323
41.9765 3144 56.0714
42.0928 3400 58.3095
42.2091 3353 57.9051
42.3255 3466 58.8727
42.4419 3361 57.9741
42.5584 3530 59.4138
42.675 3586 59.8832
42.7915 3631 60.2578
42.9081 3648 60.3987
43.0248 3698 60.8112
43.1415 3669 60.5723
43.2582 3527 59.3886
43.375 3260 57.0964
43.4918 3247 56.9825
43.6087 3331 57.7148
43.7256 3404 58.3438
43.8425 3455 58.7792
43.9595 3489 59.0678
44.0765 3578 59.8164
44.1935 3478 58.9746
44.3106 3281 57.28
44.4277 3118 55.8391
44.5448 3019 54.9454
44.6619 2894 53.7959
44.7791 2834 53.2353
44.8963 2537 50.3686
45.0136 2442 49.4166
45.1308 2307 48.0312
45.2481 2280 47.7493
45.3654 2158 46.4543
45.4827 2011 44.8442
45.6001 1977 44.4635
45.7174 1914 43.7493
45.8348 1799 42.4146
45.9522 1799 42.4146
46.0697 1897 43.5546
46.1871 1857 43.0929
46.3046 1991 44.6206
46.422 2058 45.3652
46.5395 2017 44.911
46.657 2068 45.4753
46.7745 1941 44.0568
46.892 1800 42.4264
47.0096 1755 41.8927
47.1271 1870 43.2435
47.2446 1900 43.589
47.3622 1909 43.6921
47.4797 1930 43.9318
47.5973 2011 44.8442
47.7149 1968 44.3621
47.8324 1978 44.4747
47.95 1952 44.1814
48.0675 1895 43.5316
48.1851 1932 43.9545
48.3027 1874 43.2897
48.4202 1886 43.4281
48.5378 1671 40.8779
48.6554 1748 41.8091
48.7729 1793 42.3438
48.8904 1667 40.8289
49.008 1644 40.5463
49.1255 1730 41.5933
49.243 1685 41.0488
49.3605 1772 42.0951
49.478 1733 41.6293
49.5955 1711 41.3642
49.713 1839 42.8836
49.8304 1917 43.7836
49.9479 1955 44.2154
50.0653 1958 44.2493
50.1827 1904 43.6348
50.3001 1772 42.0951
50.4175 1541 39.2556
50.5348 1469 38.3275
50.6521 1534 39.1663
50.7694 1713 41.3884
50.8867 1870 43.2435
51.004 1933 43.9659
51.1212 1869 43.2319
51.2384 1850 43.0116
51.3556 1894 43.5201
51.4727 1925 43.8748
51.5899 1853 43.0465
51.707 1851 43.0232
51.824 1902 43.6119
51.9411 1818 42.638
52.0581 1754 41.8808
52.175 1771 42.0833
52.2919 1698 41.2068
52.4088 1633 40.4104
52.5257 1741 41.7253
52.6425 1645 40.5586
52.7593 1696 41.1825
52.876 1663 40.7799
52.9927 1686 41.0609
53.1094 1633 40.4104
53.226 1635 40.4351
53.3426 1730 41.5933
53.4591 1627 40.3361
53.5756 1553 39.4081
53.692 1290 35.9166
53.8084 1190 34.4964
53.9248 1148 33.8821
54.0411 982 31.3369
54.1573 954 30.8869
54.2735 0 1
54.3896 0 1
54.5057 0 1
54.6217 0 1
54.7377 0 1
54.8537 0 1
54.9695 0 1
55.0853 0 1
55.2011 0 1
55.3168 0 1
55.4324 0 1
57.824 0 1
57.9396 0 1
58.0553 0 1
58.1711 0 1
58.2869 0 1
58.4028 0 1
58.5187 0 1
58.6347 0 1
58.7508 0 1
58.8669 0 1
58.983 1447 38.0395
59.0992 1529 39.1024
59.2155 1543 39.281
59.3318 1679 40.9756
59.4482 1900 43.589
59.5646 1971 44.3959
59.681 2164 46.5188
59.7975 2164 46.5188
59.9141 2131 46.1628
60.0306 2251 47.4447
60.1473 2237 47.2969
60.2639 2136 46.2169
60.3807 2189 46.7868
60.4974 2197 46.8722
60.6142 2188 46.7761
60.731 2140 46.2601
60.8479 2172 46.6047
60.9648 2238 47.3075
61.0818 2186 46.7547
61.1987 2150 46.3681
61.3158 2109 45.9239
61.4328 2096 45.7821
61.5499 2083 45.6399
61.667 2053 45.31
61.7841 2067 45.4643
61.9013 2175 46.6369
62.0185 2140 46.2601
62.1357 2213 47.0425
62.253 2164 46.5188
62.3702 2195 46.8508
62.4875 2027 45.0222
62.6049 1902 43.6119
62.7222 1899 43.5775
62.8396 1998 44.699
62.9569 2216 47.0744
63.0743 2375 48.734
63.1918 2272 47.6655
63.3092 2345 48.4252
63.4267 2332 48.2908
63.5441 2210 47.0106
63.6616 2187 46.7654
63.7791 2275 47.697
63.8966 2205 46.9574
64.0142 2222 47.1381
64.1317 2210 47.0106
64.2492 2183 46.7226
64.3668 2237 47.2969
64.4843 2226 47.1805
64.6019 2183 46.7226
64.7195 2171 46.594
64.837 2111 45.9456
64.9546 2135 46.2061
65.0722 2001 44.7325
65.1898 2073 45.5302
65.3074 2114 45.9783
65.4249 2073 45.5302
65.5425 2102 45.8476
65.6601 2171 46.594
65.7777 2123 46.076
65.8952 2076 45.5631
66.0128 2048 45.2548
66.1304 1878 43.3359
66.2479 1759 41.9404
66.3655 1842 42.9185
66.483 2093 45.7493
66.6005 2136 46.2169
66.718 2285 47.8017
66.8355 2249 47.4236
66.953 2365 48.6313
67.0705 2255 47.4868
67.1879 2200 46.9042
67.3054 2242 47.3498
67.4228 2127 46.1194
67.5402 2124 46.0869
67.6576 2210 47.0106
67.7749 2101 45.8367
67.8923 2274 47.6865
68.0096 2180 46.6905
68.1269 2191 46.8081
68.2442 2139 46.2493
68.3614 2159 46.465
68.4787 2025 45
68.5958 2103 45.8585
68.713 1968 44.3621
68.8302 2023 44.9778
68.9473 2007 44.7996
69.0643 2060 45.3872
69.1814 2063 45.4203
69.2984 2030 45.0555
69.4154 2070 45.4973
69.5323 2094 45.7602
69.6492 1943 44.0795
69.7661 1804 42.4735
69.8829 1577 39.7115
69.9997 1729 41.5812
70.1165 1836 42.8486
70.2332 1886 43.4281
70.3499 1770 42.0714
70.4665 1652 40.6448
70.5831 1533 39.1535
70.6996 1483 38.5097
70.8161 1406 37.4967
70.9326 1359 36.8646
71.049 1312 36.2215
71.1653 1266 35.5809
71.2817 1161 34.0735
71.3979 1166 34.1467
71.5141 1115 33.3916
71.6303 1110 33.3167
71.7464 980 31.305
71.8624 0 1
71.9784 0 1
72.0944 0 1
72.2102 0 1
72.3261 0 1
72.4418 0 1
72.5575 0 1
72.6732 0 1
75.1054 0 1
75.2209 0 1
75.3365 0 1
75.4521 0 1
75.5678 0 1
75.6835 0 1
75.7993 0 1
75.9151 0 1
76.031 0 1
76.147 1642 40.5216
76.263 1929 43.9204
76.3791 1951 44.1701
76.4952 1894 43.5201
76.6113 1927 43.8976
76.7276 1920 43.8178
76.8438 1972 44.4072
76.9601 2036 45.1221
77.0765 2071 45.5082
77.1929 2105 45.8803
77.3093 2067 45.4643
77.4258 2112 45.9565
77.5423 1959 44.2606
77.6589 1876 43.3128
77.7755 1917 43.7836
77.8921 1985 44.5533
78.0088 1906 43.6578
78.1256 1954 44.2041
78.2423 2030 45.0555
78.3591 1989 44.5982
78.4759 2081 45.618
78.5928 2009 44.8219
78.7097 1786 42.2611
78.8266 1522 39.0128
78.9436 1372 37.0405
79.0606 1455 38.1445
79.1776 1624 40.2989
79.2946 1949 44.1475
79.4117 2073 45.5302
79.5288 2131 46.1628
79.6459 2141 46.2709
79.7631 2115 45.9891
79.8802 2076 45.5631
79.9974 2067 45.4643
80.1147 2064 45.4313
80.2319 2054 45.3211
80.3491 2032 45.0777
80.4664 2086 45.6727
80.5837 2093 45.7493
80.701 2160 46.4758
80.8183 2290 47.8539
80.9357 2273 47.676
81.053 2130 46.1519
81.1704 2141 46.2709
81.2877 2010 44.833
81.4051 2137 46.2277
81.5225 2056 45.3431
81.6399 2073 45.5302
81.7573 2131 46.1628
81.8747 2230 47.2229
81.9922 2290 47.8539
82.1096 2495 49.95
82.227 2342 48.3942
82.3444 2381 48.7955
82.4619 2079 45.5961
82.5793 1930 43.9318
82.6967 2092 45.7384
82.8142 2454 49.5379
82.9316 3080 55.4977
83.049 3241 56.9298
83.1664 3446 58.7026
83.2838 3545 59.5399
83.4012 3654 60.4483
83.5186 3787 61.5386
83.636 3752 61.2536
83.7534 3793 61.5873
83.8708 3890 62.3699
83.9881 4063 63.7417
84.1055 3911 62.538
84.2228 4040 63.561
84.3401 4124 64.2184
84.4575 4113 64.1327
84.5747 4131 64.2729
84.692 4081 63.8827
84.8093 4035 63.5216
84.9265 3950 62.849
85.0437 3946 62.8172
85.1609 3928 62.6738
85.2781 3937 62.7455
85.3952 3976 63.0555
85.5123 4030 63.4823
85.6294 3976 63.0555
85.7465 3903 62.474
85.8636 3586 59.8832
85.9806 3110 55.7674
86.0976 2581 50.8035
86.2145 2488 49.8799
86.3315 2914 53.9815
86.4484 3652 60.4318
86.5652 3669 60.5723
86.682 3891 62.3779
86.7988 3813 61.7495
86.9156 4000 63.2456
87.0323 3781 61.4898
87.149 3796 61.6117
87.2657 3862 62.145
87.3823 3888 62.3538
87.4988 3848 62.0322
87.6154 3418 58.4637
87.7318 3076 55.4617
87.8483 2904 53.8888
87.9647 2927 54.1018
88.081 2790 52.8205
88.1973 2713 52.0865
88.3136 2606 51.049
88.4298 2485 49.8498
88.546 2372 48.7032
88.6621 2321 48.1768
88.7781 2247 47.4025
88.8942 0 1
89.0101 0 1
89.126 0 1
89.2419 0 1
89.3577 0 1
89.4734 0 1
89.5891 0 1
89.7047 0 1
89.8203 0 1
89.9358 0 1
92.3269 0 1
92.4424 0 1
92.558 0 1
92.6736 0 1
92.7893 0 1
92.905 0 1
93.0208 0 1
93.1366 0 1
93.2525 0 1
93.3685 0 1
93.4845 0 1
93.6005 4064 63.7495
93.7167 4159 64.4903
93.8328 4145 64.3817
93.949 4058 63.7024
94.0653 4135 64.304
94.1816 4075 63.8357
94.2979 4109 64.1015
94.4143 4077 63.8514
94.5307 4121 64.195
94.6472 4072 63.8122
94.7637 3997 63.2218
94.8803 3619 60.1581
94.9969 3116 55.8211
95.1135 2977 54.5619
95.2302 2898 53.8331
95.3469 3341 57.8014
95.4637 3815 61.7657
95.5805 4059 63.7103
95.6973 4173 64.5988
95.8142 4176 64.622
95.9311 4219 64.9538
96.048 4299 65.5668
96.1649 4117 64.1639
96.2819 4159 64.4903
96.3989 4240 65.1153
96.516 4293 65.521
96.633 4242 65.1306
96.7501 4183 64.6761
96.8673 4324 65.7571
96.9844 4200 64.8074
97.1016 4406 66.3777
97.2188 4263 65.2917
97.336 4294 65.5286
97.4532 4172 64.591
97.5704 4202 64.8228
97.6877 4106 64.0781
97.805 4309 65.643
97.9223 4142 64.3584
98.0396 4135 64.304
98.1569 4260 65.2687
98.2743 3957 62.9047
98.3916 3565 59.7076
98.509 2989 54.6717
98.6264 2782 52.7447
98.7438 2744 52.3832
98.8612 3075 55.4527
98.9786 3409 58.3866
99.096 3510 59.2453
99.2134 3387 58.1979
99.3308 3350 57.8792
99.4482 3182 56.4092
99.5656 3120 55.857
99.6831 3121 55.8659
99.8005 2976 54.5527
99.9179 2874 53.6097
100.035 2902 53.8702
100.153 2804 52.9528
100.27 2840 53.2917
100.388 2885 53.7122
100.505 2836 53.2541
100.622 2913 53.9722
100.74 2829 53.1883
100.857 2843 53.3198
100.975 2841 53.301
101.092 2805 52.9623
101.209 2740 52.345
101.327 2743 52.3737
101.444 2778 52.7067
101.561 2736 52.3068
101.679 2778 52.7067
101.796 2718 52.1344
101.913 2643 51.4101
102.03 2485 49.8498
102.148 2119 46.0326
102.265 1957 44.238
102.382 2291 47.8644
102.499 2464 49.6387
102.616 2563 50.6261
102.733 2608 51.0686
102.851 2628 51.264
102.968 2638 51.3615
103.085 2573 50.7247
103.202 2592 50.9117
103.319 2522 50.2195
103.436 2619 51.1762
103.552 2569 50.6853
103.669 2580 50.7937
103.786 2495 49.95
103.903 2563 50.6261
104.02 2577 50.7642
104.137 2539 50.3885
104.253 2652 51.4976
104.37 2501 50.01
104.487 2482 49.8197
104.603 2399 48.9796
104.72 2361 48.5901
104.836 2246 47.392
104.953 1982 44.5197
105.069 1892 43.4971
105.186 1675 40.9268
105.302 1530 39.1152
105.418 1487 38.5616
105.535 1314 36.2491
105.651 1153 33.9559
105.767 973 31.1929
105.883 821 28.6531
105.999 792 28.1425
106.115 0 1
106.231 0 1
106.347 0 1
106.463 0 1
106.579 0 1
106.694 0 1
106.81 0 1
106.926 0 1
107.041 0 1
107.157 0 1
109.576 0 1
109.692 0 1
109.807 0 1
109.923 0 1
110.039 0 1
110.155 0 1
110.27 0 1
110.386 0 1
110.502 0 1
110.618 2653 51.5073
110.735 2618 51.1664
110.851 2444 49.4368
110.967 2313 48.0937
111.083 2237 47.2969
111.199 2442 49.4166
111.316 2647 51.449
111.432 2779 52.7162
111.549 2799 52.9056
111.665 2855 53.4322
111.782 2782 52.7447
111.898 2817 53.0754
112.015 2767 52.6023
112.132 2752 52.4595
112.248 2686 51.8266
112.365 2778 52.7067
112.482 2724 52.192
112.599 2915 53.9907
112.716 2942 54.2402
112.832 3061 55.3263
112.949 3124 55.8928
113.066 3135 55.9911
113.183 3146 56.0892
113.3 3076 55.4617
113.417 3196 56.5332
113.534 3063 55.3444
113.652 3112 55.7853
113.769 3028 55.0273
113.886 3030 55.0454
114.003 3048 55.2087
114.12 3018 54.9363
114.238 2965 54.4518
114.355 2828 53.1789
114.472 2529 50.2892
114.589 2356 48.5386
114.707 2353 48.5077
114.824 2673 51.7011
114.942 2860 53.479
115.059 2913 53.9722
115.176 2843 53.3198
115.294 2904 53.8888
115.411 2925 54.0833
115.529 2913 53.9722
115.646 2861 53.4883
115.764 2804 52.9528
115.881 2883 53.6936
115.999 2918 54.0185
116.116 2913 53.9722
116.234 2898 53.8331
116.351 2979 54.5802
116.469 3125 55.9017
116.586 3111 55.7763
116.704 3153 56.1516
116.821 3268 57.1664
116.939 3197 56.542
117.056 3229 56.8243
117.174 3080 55.4977
117.291 3068 55.3895
117.409 3100 55.6776
117.526 3094 55.6237
117.644 3127 55.9196
117.761 3096 55.6417
117.879 2972 54.5161
117.996 2715 52.1057
118.114 2481 49.8096
118.231 2307 48.0312
118.349 2511 50.1099
118.466 2778 52.7067
118.584 2885 53.7122
118.701 2946 54.2771
118.819 2950 54.3139
118.936 2844 53.3292
119.053 2914 53.9815
119.171 2879 53.6563
119.288 2889 53.7494
119.405 2792 52.8394
119.523 2753 52.469
119.64 2751 52.45
119.757 2719 52.144
119.875 2789 52.811
119.992 2876 53.6284
120.109 2939 54.2125
120.226 2908 53.9259
120.343 2999 54.7631
120.46 2940 54.2218
120.578 3022 54.9727
120.695 2864 53.5164
120.812 2901 53.8609
120.929 2903 53.8795
121.046 2862 53.4977
121.163 2824 53.1413
121.279 2786 52.7826
121.396 2807 52.9811
121.513 2731 52.259
121.63 2541 50.4083
121.747 2290 47.8539
121.863 2006 44.7884
121.98 1921 43.8292
122.097 2042 45.1885
122.213 2136 46.2169
122.33 1979 44.486
122.446 2078 45.5851
122.563 1983 44.5309
122.679 1831 42.7902
122.795 1851 43.0232
122.912 1714 41.4005
123.028 1743 41.7493
123.144 1734 41.6413
123.26 1662 40.7676
123.377 0 1
123.493 0 1
123.609 0 1
123.725 0 1
123.84 0 1
123.956 0 1
124.072 0 1
124.188 0 1
124.303 0 1
124.419 0 1
126.852 0 1
126.968 0 1
127.083 0 1
127.199 0 1
127.315 0 1
127.431 0 1
127.547 0 1
127.663 0 1
127.779 0 1
127.895 0 1
128.011 0 1
128.127 0 1
128.243 0 1
128.359 3316 57.5847
128.476 3263 57.1227
128.592 3351 57.8878
128.708 3343 57.8187
128.825 3385 58.1808
128.941 3413 58.4209
129.058 3417 58.4551
129.174 3442 58.6686
129.291 3454 58.7707
129.408 3563 59.6909
129.524 3636 60.2993
129.641 3743 61.1801
129.758 3814 61.7576
129.875 3896 62.4179
129.992 4008 63.3088
130.108 3947 62.8252
130.225 4004 63.2772
130.342 4117 64.1639
130.459 3815 61.7657
130.576 3799 61.636
130.693 3646 60.3821
130.81 3379 58.1292
130.928 3474 58.9406
131.045 3729 61.0655
131.162 3657 60.4731
131.279 3737 61.131
131.396 3802 61.6604
131.513 3923 62.6339
131.631 3836 61.9355
131.748 3850 62.0484
131.865 3751 61.2454
131.983 3821 61.8142
132.1 3755 61.2781
132.217 3648 60.3987
132.335 3659 60.4897
132.452 3534 59.4475
132.57 3645 60.3738
132.687 3438 58.6345
132.804 3789 61.5549
132.922 3716 60.959
133.039 3817 61.7819
133.157 3988 63.1506
133.274 3866 62.1772
133.392 3961 62.9365
133.509 3966 62.9762
133.627 4277 65.3988
133.744 4256 65.238
133.862 4299 65.5668
133.979 4263 65.2917
134.097 4029 63.4744
134.214 3991 63.1744
134.332 3916 62.578
134.449 3927 62.6658
134.567 3977 63.0635
134.684 4159 64.4903
134.802 4167 64.5523
134.919 4247 65.169
135.037 4237 65.0922
135.154 4174 64.6065
135.272 4079 63.867
135.389 4078 63.8592
135.507 4021 63.4114
135.624 4054 63.671
135.742 3857 62.1048
135.859 3959 62.9206
135.977 3998 63.2297
136.094 3783 61.5061
136.211 3939 62.7615
136.329 3850 62.0484
136.446 3882 62.3057
136.564 3995 63.206
136.681 4007 63.3009
136.798 4046 63.6082
136.915 4117 64.1639
137.033 4004 63.2772
137.15 3946 62.8172
137.267 4046 63.6082
137.384 4169 64.5678
137.502 4080 63.8749
137.619 3990 63.1664
137.736 3997 63.2218
137.853 3763 61.3433
137.97 3847 62.0242
138.087 3529 59.4054
138.204 3759 61.3107
138.321 3910 62.53
138.438 3996 63.2139
138.555 3959 62.9206
138.672 3980 63.0872
138.788 3871 62.2174
138.905 3824 61.8385
139.022 3780 61.4817
139.139 3645 60.3738
139.255 3433 58.5918
139.372 3226 56.7979
139.488 3103 55.7046
139.605 3049 55.2178
139.721 2952 54.3323
139.838 2797 52.8867
139.954 2770 52.6308
140.071 2755 52.4881
140.187 2777 52.6972
140.303 2697 51.9326
140.419 2677 51.7397
140.535 2765 52.5833
140.652 2817 53.0754
140.768 0 1
140.884 0 1
141 0 1
141.115 0 1
141.231 0 1
141.347 0 1
141.463 0 1
141.578 0 1
141.694 0 1
144.104 0 1
144.219 0 1
144.335 0 1
144.45 0 1
144.566 0 1
144.682 0 1
144.798 0 1
144.914 0 1
145.03 0 1
145.146 8200 90.5539
145.262 8392 91.6079
145.378 8648 92.9946
145.494 8642 92.9624
145.61 8679 93.1612
145.726 8735 93.4612
145.842 8751 93.5468
145.959 8675 93.1397
146.075 8605 92.7631
146.192 8635 92.9247
146.308 8732 93.4452
146.425 8473 92.0489
146.541 7680 87.6356
146.658 6708 81.9024
146.774 5862 76.5637
146.891 5735 75.7298
147.008 6226 78.905
147.125 7467 86.4118
147.241 8244 90.7965
147.358 8416 91.7388
147.475 8519 92.2984
147.592 8450 91.9239
147.709 8618 92.8332
147.826 8663 93.0752
147.943 8501 92.2009
148.06 8757 93.5788
148.177 8636 92.9301
148.294 8642 92.9624
148.411 8603 92.7524
148.528 8721 93.3863
148.645 8725 93.4077
148.762 8805 93.835
148.88 8704 93.2952
148.997 8466 92.0109
149.114 9097 95.3782
149.231 8832 93.9787
149.349 8850 94.0744
149.466 8862 94.1382
149.583 8881 94.2391
149.701 8992 94.8262
149.818 8934 94.5198
149.935 8944 94.5727
150.053 8928 94.4881
150.17 8433 91.8314
150.287 7651 87.47
150.405 6336 79.599
150.522 5805 76.1906
150.64 6491 80.5667
150.757 7286 85.3581
150.875 8197 90.5373
150.992 8659 93.0537
151.11 8423 91.7769
151.227 8584 92.6499
151.344 8695 93.247
151.462 8509 92.2442
151.579 8536 92.3905
151.697 8630 92.8978
151.814 8731 93.4398
151.932 8784 93.723
152.049 8717 93.3649
152.167 8755 93.5682
152.284 8729 93.4291
152.402 8676 93.145
152.519 8859 94.1223
152.636 8882 94.2444
152.754 8955 94.6309
152.871 9105 95.4201
152.989 8861 94.1329
153.106 9120 95.4987
153.223 9062 95.1945
153.341 9058 95.1735
153.458 9093 95.3572
153.575 9244 96.1457
153.693 9157 95.6922
153.81 8832 93.9787
153.927 7904 88.9044
154.044 6695 81.823
154.162 6169 78.543
154.279 6740 82.0975
154.396 7717 87.8465
154.513 8632 92.9086
154.63 8872 94.1913
154.747 9016 94.9526
154.864 8920 94.4458
154.981 8752 93.5521
155.098 8670 93.1128
155.215 8696 93.2523
155.332 8310 91.1592
155.449 8413 91.7224
155.566 8079 89.8833
155.683 7967 89.2581
155.8 7828 88.476
155.917 7697 87.7325
156.033 7506 86.6372
156.15 0 1
156.267 0 1
156.383 0 1
156.5 0 1
156.617 0 1
156.733 0 1
156.85 0 1
156.966 0 1
157.082 0 1
157.199 0 1
157.315 0 1
157.431 0 1
157.547 0 1
157.664 0 1
157.78 0 1
157.896 0 1
158.012 0 1
158.128 0 1
158.244 0 1
158.359 0 1
158.475 0 1
158.591 0 1
158.706 0 1
