
6.15755 0 1
6.2731 0 1
6.3887 0 1
6.50437 0 1
6.62009 0 1
6.73587 0 1
6.8517 0 1
6.96759 0 1
7.08353 0 1
7.19952 0 1
7.31557 0 1
7.43166 0 1
7.54781 0 1
7.664 0 1
7.78024 0 1
7.89653 0 1
8.01286 0 1
8.12924 0 1
8.24567 0 1
8.36213 0 1
8.47864 0 1
8.59519 0 1
8.71178 0 1
8.82841 0 1
8.94508 0 1
9.06179 0 1
9.17853 0 1
9.29531 0 1
9.41212 0 1
9.52897 0 1
9.64584 0 1
9.76276 0 1
9.8797 0 1
9.99667 0 1
10.1137 0 1
10.2307 0 1
10.3478 0 1
10.4648 0 1
10.5819 0 1
10.6991 0 1
10.8162 0 1
10.9334 0 1
11.0506 0 1
11.1678 0 1
11.285 0 1
11.4023 0 1
11.5196 0 1
11.6369 0 1
11.7542 0 1
11.8715 0 1
11.9888 0 1
12.1062 0 1
12.2235 0 1
12.3409 0 1
12.4582 0 1
12.5756 0 1
12.693 0 1
12.8104 0 1
12.9278 0 1
13.0452 0 1
13.1626 0 1
13.28 0 1
13.3974 0 1
13.5149 0 1
13.6323 0 1
13.7497 0 1
13.8671 0 1
13.9845 0 1
14.1019 0 1
14.2193 0 1
14.3367 0 1
14.4541 0 1
14.5714 0 1
14.6888 0 1
14.8062 0 1
14.9235 0 1
15.0408 0 0
15.1581 0 0
15.2755 0 0
15.3927 0 0
15.51 0 0
15.6273 0 0
15.7445 0 0
15.8617 0 0
15.9789 0 0
16.0961 0 0
16.2132 0 0
16.3304 0 0
16.4475 0 0
16.5646 0 0
16.6816 0 0
16.7986 0 0
16.9156 0 0
17.0326 0 0
17.1496 0 0
17.2665 0 0
17.3833 0 0
17.5002 0 0
17.617 0 0
17.7338 0 0
17.8505 0 0
17.9672 0 0
18.0839 0 0
18.2005 0 0
18.3171 0 0
18.4337 0 0
18.5502 0 0
18.6666 0 0
18.7831 0 0
18.8994 0 0
19.0158 0 0
19.1321 0 0
19.2483 0 0
19.3645 0 0
19.4806 0 0
19.5967 0 0
19.7128 0 0
19.8288 0 0
19.9447 0 0
20.0606 0 1
20.1764 0 1
20.2922 0 1
20.4079 0 1
20.5236 0 1
20.6392 0 1
20.7548 0 1
20.8702 0 1
23.3078 0 1
23.4233 0 1
23.539 0 1
23.6547 0 1
23.7704 0 1
23.8862 0 1
24.0021 0 1
24.118 0 1
24.234 0 1
24.35 0 1
24.4661 724 26.9072
24.5822 931 30.5123
24.6984 1034 32.1559
24.8146 1156 34
24.9309 1305 36.1248
25.0472 1405 37.4833
25.1636 1547 39.3319
25.28 1633 40.4104
25.3965 1809 42.5323
25.513 1868 43.2204
25.6296 1894 43.5201
25.7462 1940 44.0454
25.8628 2015 44.8888
25.9795 1963 44.3058
26.0962 1992 44.6318
26.213 1877 43.3244
26.3298 1863 43.1625
26.4466 1696 41.1825
26.5635 1618 40.2244
26.6804 1590 39.8748
26.7973 1728 41.5692
26.9143 1822 42.6849
27.0313 1749 41.821
27.1483 1796 42.3792
27.2653 1764 42
27.3824 1889 43.4626
27.4996 1937 44.0114
27.6167 1895 43.5316
27.7339 1809 42.5323
27.8511 1745 41.7732
27.9683 1710 41.3521
28.0855 1706 41.3038
28.2028 1692 41.1339
28.3201 1591 39.8873
28.4374 1616 40.1995
28.5547 1699 41.2189
28.6721 1733 41.6293
28.7894 1724 41.5211
28.9068 1945 44.1022
29.0242 1862 43.1509
29.1416 1877 43.3244
29.259 1939 44.0341
29.3764 1948 44.1362
29.4939 1828 42.7551
29.6113 1833 42.8135
29.7288 1811 42.5558
29.8463 1621 40.2616
29.9638 1647 40.5832
30.0812 1530 39.1152
30.1987 1563 39.5348
30.3162 1636 40.4475
30.4337 1658 40.7185
30.5512 1672 40.8901
30.6687 1782 42.2137
30.7862 1819 42.6497
30.9037 1841 42.9069
31.0212 1887 43.4396
31.1387 1908 43.6807
31.2562 1814 42.5911
31.3737 1790 42.3084
31.4912 1699 41.2189
31.6087 1697 41.1947
31.7262 1667 40.8289
31.8436 1561 39.5095
31.9611 1543 39.281
32.0785 1584 39.7995
32.1959 1733 41.6293
32.3134 1684 41.0366
32.4308 1826 42.7317
32.5482 1809 42.5323
32.6655 1892 43.4971
32.7829 1821 42.6732
32.9002 1784 42.2374
33.0176 1848 42.9884
33.1349 1779 42.1782
33.2522 1796 42.3792
33.3694 1802 42.45
33.4867 1616 40.1995
33.6039 1607 40.0874
33.7211 1521 39
33.8383 1567 39.5854
33.9554 1600 40
34.0725 1715 41.4126
34.1896 1598 39.975
34.3067 1692 41.1339
34.4237 1728 41.5692
34.5407 1799 42.4146
34.6577 1828 42.7551
34.7746 1817 42.6263
34.8915 1752 41.8569
35.0084 1720 41.4729
35.1252 1696 41.1825
35.242 1543 39.281
35.3587 1569 39.6106
35.4755 1584 39.7995
35.5921 1531 39.128
35.7088 1417 37.6431
35.8254 1517 38.9487
35.9419 1638 40.4722
36.0584 1708 41.328
36.1749 1749 41.821
36.2913 1745 41.7732
36.4077 1690 41.1096
36.524 1653 40.6571
36.6403 1607 40.0874
36.7565 1477 38.4318
36.8727 1446 38.0263
36.9889 1349 36.7287
37.1049 1179 34.3366
37.221 0 1
37.3369 0 1
37.4529 0 1
37.5687 0 1
37.6845 0 1
37.8003 0 1
37.916 0 1
38.0316 0 1
38.1472 0 1
40.5851 0 1
40.7008 0 1
40.8164 0 1
40.9322 0 1
41.048 0 1
41.1639 0 1
41.2798 0 1
41.3958 0 1
41.5118 0 1
41.6279 0 1
41.744 875 29.5804
41.8602 915 30.249
41.9765 1075 32.7872
42.0928 1051 32.4191
42.2091 1103 33.2114
42.3255 1072 32.7414
42.4419 1065 32.6343
42.5584 1136 33.7046
42.675 1212 34.8138
42.7915 1296 36
42.9081 1424 37.7359
43.0248 1390 37.2827
43.1415 1401 37.4299
43.2582 1499 38.7169
43.375 1488 38.5746
43.4918 1516 38.9358
43.6087 1482 38.4968
43.7256 1537 39.2046
43.8425 1485 38.5357
43.9595 1490 38.6005
44.0765 1445 38.0132
44.1935 1272 35.6651
44.3106 1320 36.3318
44.4277 1247 35.3129
44.5448 1251 35.3695
44.6619 1278 35.7491
44.7791 1314 36.2491
44.8963 1421 37.6962
45.0136 1512 38.8844
45.1308 1471 38.3536
45.2481 1555 39.4335
45.3654 1544 39.2938
45.4827 1506 38.8072
45.6001 1559 39.4842
45.7174 1510 38.8587
45.8348 1415 37.6165
45.9522 1447 38.0395
46.0697 1352 36.7696
46.1871 1282 35.805
46.3046 1327 36.428
46.422 1343 36.647
46.5395 1450 38.0789
46.657 1461 38.223
46.7745 1519 38.9744
46.892 1552 39.3954
47.0096 1569 39.6106
47.1271 1549 39.3573
47.2446 1578 39.724
47.3622 1541 39.2556
47.4797 1486 38.5487
47.5973 1468 38.3145
47.7149 1415 37.6165
47.8324 1394 37.3363
47.95 1286 35.8608
48.0675 1281 35.7911
48.1851 1250 35.3553
48.3027 1321 36.3456
48.4202 1426 37.7624
48.5378 1528 39.0896
48.6554 1569 39.6106
48.7729 1496 38.6782
48.8904 1593 39.9124
49.008 1530 39.1152
49.1255 1523 39.0256
49.243 1502 38.7556
49.3605 1426 37.7624
49.478 1410 37.55
49.5955 1352 36.7696
49.713 1285 35.8469
49.8304 1304 36.1109
49.9479 1461 38.223
50.0653 1509 38.8458
50.1827 1465 38.2753
50.3001 1505 38.7943
50.4175 1542 39.2683
50.5348 1509 38.8458
50.6521 1573 39.6611
50.7694 1570 39.6232
50.8867 1542 39.2683
51.004 1512 38.8844
51.1212 1443 37.9868
51.2384 1432 37.8418
51.3556 1382 37.1753
51.4727 1281 35.7911
51.5899 1170 34.2053
51.707 1235 35.1426
51.824 1375 37.081
51.9411 1410 37.55
52.0581 1501 38.7427
52.175 1545 39.3065
52.2919 1543 39.281
52.4088 1572 39.6485
52.5257 1577 39.7115
52.6425 1583 39.7869
52.7593 1553 39.4081
52.876 1608 40.0999
52.9927 1446 38.0263
53.1094 1439 37.9342
53.226 1354 36.7967
53.3426 1342 36.6333
53.4591 1335 36.5377
53.5756 1236 35.1568
53.692 1365 36.9459
53.8084 1341 36.6197
53.9248 1297 36.0139
54.0411 1202 34.6699
54.1573 1208 34.7563
54.2735 0 1
54.3896 0 1
54.5057 0 1
54.6217 0 1
54.7377 0 1
54.8537 0 1
54.9695 0 1
55.0853 0 1
55.2011 0 1
55.3168 0 1
55.4324 0 1
57.824 0 1
57.9396 0 1
58.0553 0 1
58.1711 0 1
58.2869 0 1
58.4028 0 1
58.5187 0 1
58.6347 0 1
58.7508 0 1
58.8669 0 1
58.983 930 30.4959
59.0992 1038 32.218
59.2155 1245 35.2846
59.3318 1360 36.8782
59.4482 1494 38.6523
59.5646 1498 38.704
59.681 1665 40.8044
59.7975 1685 41.0488
59.9141 1656 40.694
60.0306 1675 40.9268
60.1473 1536 39.1918
60.2639 1537 39.2046
60.3807 1474 38.3927
60.4974 1498 38.704
60.6142 1539 39.2301
60.731 1630 40.3733
60.8479 1836 42.8486
60.9648 1842 42.9185
61.0818 1910 43.7035
61.1987 1933 43.9659
61.3158 1868 43.2204
61.4328 1874 43.2897
61.5499 1878 43.3359
61.667 1729 41.5812
61.7841 1671 40.8779
61.9013 1686 41.0609
62.0185 1632 40.398
62.1357 1672 40.8901
62.253 1697 41.1947
62.3702 1858 43.1045
62.4875 1869 43.2319
62.6049 1876 43.3128
62.7222 1915 43.7607
62.8396 1942 44.0681
62.9569 2024 44.9889
63.0743 1938 44.0227
63.1918 1975 44.441
63.3092 1833 42.8135
63.4267 1795 42.3674
63.5441 1704 41.2795
63.6616 1609 40.1123
63.7791 1461 38.223
63.8966 1410 37.55
64.0142 1396 37.3631
64.1317 1489 38.5876
64.2492 1571 39.6358
64.3668 1711 41.3642
64.4843 1809 42.5323
64.6019 1769 42.0595
64.7195 1838 42.8719
64.837 1774 42.1189
64.9546 1906 43.6578
65.0722 1723 41.509
65.1898 1726 41.5452
65.3074 1678 40.9634
65.4249 1574 39.6737
65.5425 1554 39.4208
65.6601 1568 39.598
65.7777 1577 39.7115
65.8952 1760 41.9524
66.0128 1775 42.1307
66.1304 1785 42.2493
66.2479 1794 42.3556
66.3655 1880 43.359
66.483 1914 43.7493
66.6005 1879 43.3474
66.718 1859 43.1161
66.8355 1919 43.8064
66.953 1799 42.4146
67.0705 1665 40.8044
67.1879 1625 40.3113
67.3054 1488 38.5746
67.4228 1333 36.5103
67.5402 1284 35.8329
67.6576 1294 35.9722
67.7749 1347 36.7015
67.8923 1532 39.1408
68.0096 1562 39.5221
68.1269 1773 42.107
68.2442 1758 41.9285
68.3614 1787 42.2729
68.4787 1744 41.7612
68.5958 1711 41.3642
68.713 1761 41.9643
68.8302 1675 40.9268
68.9473 1627 40.3361
69.0643 1573 39.6611
69.1814 1510 38.8587
69.2984 1615 40.1871
69.4154 1552 39.3954
69.5323 1642 40.5216
69.6492 1694 41.1582
69.7661 1805 42.4853
69.8829 1742 41.7373
69.9997 1749 41.821
70.1165 1717 41.4367
70.2332 1734 41.6413
70.3499 1617 40.2119
70.4665 1610 40.1248
70.5831 1513 38.8973
70.6996 1550 39.37
70.8161 1361 36.8917
70.9326 1213 34.8281
71.049 961 31
71.1653 726 26.9444
71.2817 675 25.9808
71.3979 644 25.3772
71.5141 617 24.8395
71.6303 607 24.6374
71.7464 568 23.8328
71.8624 0 1
71.9784 0 1
72.0944 0 1
72.2102 0 1
72.3261 0 1
72.4418 0 1
72.5575 0 1
72.6732 0 1
75.1054 0 1
75.2209 0 1
75.3365 0 1
75.4521 0 1
75.5678 0 1
75.6835 0 1
75.7993 0 1
75.9151 0 1
76.031 0 1
76.147 843 29.0345
76.263 924 30.3974
76.3791 925 30.4138
76.4952 926 30.4302
76.6113 948 30.7896
76.7276 977 31.257
76.8438 1078 32.8329
76.9601 1300 36.0555
77.0765 1444 38
77.1929 1535 39.1791
77.3093 1439 37.9342
77.4258 1454 38.1314
77.5423 1595 39.9375
77.6589 1488 38.5746
77.7755 1481 38.4838
77.8921 1430 37.8153
78.0088 1426 37.7624
78.1256 1315 36.2629
78.2423 1340 36.606
78.3591 1365 36.9459
78.4759 1453 38.1182
78.5928 1433 37.855
78.7097 1481 38.4838
78.8266 1557 39.4588
78.9436 1572 39.6485
79.0606 1627 40.3361
79.1776 1537 39.2046
79.2946 1648 40.5956
79.4117 1589 39.8623
79.5288 1498 38.704
79.6459 1551 39.3827
79.7631 1478 38.4448
79.8802 1455 38.1445
79.9974 1335 36.5377
80.1147 1126 33.5559
80.2319 949 30.8058
80.3491 1009 31.7648
80.4664 1132 33.6452
80.5837 1215 34.8569
80.701 1471 38.3536
80.8183 1527 39.0768
80.9357 1532 39.1408
81.053 1491 38.6135
81.1704 1490 38.6005
81.2877 1553 39.4081
81.4051 1493 38.6394
81.5225 1485 38.5357
81.6399 1394 37.3363
81.7573 1406 37.4967
81.8747 1401 37.4299
81.9922 1407 37.51
82.1096 1418 37.6563
82.227 1502 38.7556
82.3444 1502 38.7556
82.4619 1526 39.064
82.5793 1502 38.7556
82.6967 1681 41
82.8142 1664 40.7922
82.9316 1674 40.9145
83.049 1676 40.939
83.1664 1616 40.1995
83.2838 1624 40.2989
83.4012 1478 38.4448
83.5186 1467 38.3014
83.636 1334 36.524
83.7534 1155 33.9853
83.8708 993 31.5119
83.9881 978 31.273
84.1055 1067 32.665
84.2228 1174 34.2637
84.3401 1334 36.524
84.4575 1504 38.7814
84.5747 1596 39.95
84.692 1605 40.0625
84.8093 1556 39.4462
84.9265 1541 39.2556
85.0437 1515 38.923
85.1609 1497 38.6911
85.2781 1411 37.5633
85.3952 1369 37
85.5123 1323 36.3731
85.6294 1381 37.1618
85.7465 1446 38.0263
85.8636 1484 38.5227
85.9806 1479 38.4578
86.0976 1619 40.2368
86.2145 1613 40.1622
86.3315 1589 39.8623
86.4484 1618 40.2244
86.5652 1621 40.2616
86.682 1644 40.5463
86.7988 1667 40.8289
86.9156 1615 40.1871
87.0323 1540 39.2428
87.149 1424 37.7359
87.2657 1289 35.9026
87.3823 1048 32.3728
87.4988 915 30.249
87.6154 901 30.0167
87.7318 1049 32.3883
87.8483 1187 34.4529
87.9647 1360 36.8782
88.081 1321 36.3456
88.1973 1376 37.0945
88.3136 1387 37.2424
88.4298 1256 35.4401
88.546 1141 33.7787
88.6621 948 30.7896
88.7781 755 27.4773
88.8942 0 1
89.0101 0 1
89.126 0 1
89.2419 0 1
89.3577 0 1
89.4734 0 1
89.5891 0 1
89.7047 0 1
89.8203 0 1
89.9358 0 1
92.3269 0 1
92.4424 0 1
92.558 0 1
92.6736 0 1
92.7893 0 1
92.905 0 1
93.0208 0 1
93.1366 0 1
93.2525 0 1
93.3685 0 1
93.4845 0 1
93.6005 896 29.9333
93.7167 973 31.1929
93.8328 1078 32.8329
93.949 1164 34.1174
94.0653 1208 34.7563
94.1816 1255 35.426
94.2979 1372 37.0405
94.4143 1421 37.6962
94.5307 1384 37.2022
94.6472 1366 36.9594
94.7637 1471 38.3536
94.8803 1460 38.2099
94.9969 1506 38.8072
95.1135 1598 39.975
95.2302 1608 40.0999
95.3469 1612 40.1497
95.4637 1579 39.7366
95.5805 1678 40.9634
95.6973 1666 40.8167
95.8142 1684 41.0366
95.9311 1616 40.1995
96.048 1589 39.8623
96.1649 1571 39.6358
96.2819 1502 38.7556
96.3989 1459 38.1969
96.516 1258 35.4683
96.633 1027 32.0468
96.7501 894 29.8998
96.8673 939 30.6431
96.9844 989 31.4484
97.1016 1221 34.9428
97.2188 1312 36.2215
97.336 1559 39.4842
97.4532 1654 40.6694
97.5704 1642 40.5216
97.6877 1535 39.1791
97.805 1579 39.7366
97.9223 1541 39.2556
98.0396 1555 39.4335
98.1569 1384 37.2022
98.2743 1498 38.704
98.3916 1415 37.6165
98.509 1520 38.9872
98.6264 1482 38.4968
98.7438 1550 39.37
98.8612 1521 39
98.9786 1641 40.5093
99.096 1700 41.2311
99.2134 1742 41.7373
99.3308 1784 42.2374
99.4482 1707 41.3159
99.5656 1715 41.4126
99.6831 1704 41.2795
99.8005 1616 40.1995
99.9179 1518 38.9615
100.035 1432 37.8418
100.153 1250 35.3553
100.27 1075 32.7872
100.388 993 31.5119
100.505 1114 33.3766
100.622 1259 35.4824
100.74 1494 38.6523
100.857 1581 39.7618
100.975 1624 40.2989
101.092 1605 40.0625
101.209 1628 40.3485
101.327 1706 41.3038
101.444 1571 39.6358
101.561 1581 39.7618
101.679 1476 38.4187
101.796 1512 38.8844
101.913 1536 39.1918
102.03 1620 40.2492
102.148 1554 39.4208
102.265 1583 39.7869
102.382 1698 41.2068
102.499 1697 41.1947
102.616 1727 41.5572
102.733 1617 40.2119
102.851 1803 42.4617
102.968 1776 42.1426
103.085 1780 42.19
103.202 1773 42.107
103.319 1630 40.3733
103.436 1541 39.2556
103.552 1415 37.6165
103.669 1294 35.9722
103.786 1057 32.5115
103.903 950 30.8221
104.02 1103 33.2114
104.137 1229 35.0571
104.253 1498 38.704
104.37 1642 40.5216
104.487 1648 40.5956
104.603 1714 41.4005
104.72 1715 41.4126
104.836 1671 40.8779
104.953 1637 40.4599
105.069 1592 39.8999
105.186 1446 38.0263
105.302 1435 37.8814
105.418 1460 38.2099
105.535 1430 37.8153
105.651 1434 37.8682
105.767 1409 37.5366
105.883 1340 36.606
105.999 1208 34.7563
106.115 0 1
106.231 0 1
106.347 0 1
106.463 0 1
106.579 0 1
106.694 0 1
106.81 0 1
106.926 0 1
107.041 0 1
107.157 0 1
109.576 0 1
109.692 0 1
109.807 0 1
109.923 0 1
110.039 0 1
110.155 0 1
110.27 0 1
110.386 0 1
110.502 0 1
110.618 625 25
110.735 723 26.8887
110.851 861 29.3428
110.967 977 31.257
111.083 1147 33.8674
111.199 1295 35.9861
111.316 1308 36.1663
111.432 1342 36.6333
111.549 1439 37.9342
111.665 1502 38.7556
111.782 1539 39.2301
111.898 1439 37.9342
112.015 1343 36.647
112.132 1310 36.1939
112.248 1104 33.2265
112.365 923 30.3809
112.482 862 29.3598
112.599 905 30.0832
112.716 1164 34.1174
112.832 1342 36.6333
112.949 1441 37.9605
113.066 1395 37.3497
113.183 1541 39.2556
113.3 1489 38.5876
113.417 1407 37.51
113.534 1421 37.6962
113.652 1442 37.9737
113.769 1358 36.8511
113.886 1318 36.3043
114.003 1358 36.8511
114.12 1367 36.973
114.238 1450 38.0789
114.355 1489 38.5876
114.472 1517 38.9487
114.589 1433 37.855
114.707 1531 39.128
114.824 1542 39.2683
114.942 1556 39.4462
115.059 1550 39.37
115.176 1583 39.7869
115.294 1541 39.2556
115.411 1523 39.0256
115.529 1458 38.1838
115.646 1343 36.647
115.764 1207 34.7419
115.881 1022 31.9687
115.999 893 29.8831
116.116 938 30.6268
116.234 987 31.4166
116.351 1172 34.2345
116.469 1411 37.5633
116.586 1374 37.0675
116.704 1445 38.0132
116.821 1455 38.1445
116.939 1491 38.6135
117.056 1445 38.0132
117.174 1387 37.2424
117.291 1385 37.2156
117.409 1406 37.4967
117.526 1383 37.1887
117.644 1351 36.756
117.761 1485 38.5357
117.879 1430 37.8153
117.996 1485 38.5357
118.114 1524 39.0384
118.231 1493 38.6394
118.349 1462 38.2361
118.466 1532 39.1408
118.584 1487 38.5616
118.701 1497 38.6911
118.819 1520 38.9872
118.936 1533 39.1535
119.053 1496 38.6782
119.171 1366 36.9594
119.288 1265 35.5668
119.405 1193 34.5398
119.523 908 30.133
119.64 864 29.3939
119.757 867 29.4449
119.875 1068 32.6803
119.992 1124 33.5261
120.109 1208 34.7563
120.226 1290 35.9166
120.343 1408 37.5233
120.46 1445 38.0132
120.578 1387 37.2424
120.695 1409 37.5366
120.812 1333 36.5103
120.929 1348 36.7151
121.046 1282 35.805
121.163 1298 36.0278
121.279 1348 36.7151
121.396 1270 35.6371
121.513 1393 37.3229
121.63 1348 36.7151
121.747 1421 37.6962
121.863 1401 37.4299
121.98 1395 37.3497
122.097 1367 36.973
122.213 1369 37
122.33 1362 36.9053
122.446 1297 36.0139
122.563 1242 35.242
122.679 1243 35.2562
122.795 1110 33.3167
122.912 927 30.4467
123.028 724 26.9072
123.144 549 23.4307
123.26 458 21.4009
123.377 0 1
123.493 0 1
123.609 0 1
123.725 0 1
123.84 0 1
123.956 0 1
124.072 0 1
124.188 0 1
124.303 0 1
124.419 0 1
126.852 0 1
126.968 0 1
127.083 0 1
127.199 0 1
127.315 0 1
127.431 0 1
127.547 0 1
127.663 0 1
127.779 0 1
127.895 0 1
128.011 0 1
128.127 0 1
128.243 0 1
128.359 1115 33.3916
128.476 1156 34
128.592 1022 31.9687
128.708 942 30.692
128.825 968 31.1127
128.941 1011 31.7962
129.058 1153 33.9559
129.174 1339 36.5923
129.291 1442 37.9737
129.408 1507 38.8201
129.524 1498 38.704
129.641 1433 37.855
129.758 1523 39.0256
129.875 1496 38.6782
129.992 1535 39.1791
130.108 1470 38.3406
130.225 1428 37.7889
130.342 1394 37.3363
130.459 1426 37.7624
130.576 1446 38.0263
130.693 1569 39.6106
130.81 1596 39.95
130.928 1548 39.3446
131.045 1525 39.0512
131.162 1513 38.8973
131.279 1510 38.8587
131.396 1563 39.5348
131.513 1528 39.0896
131.631 1557 39.4588
131.748 1472 38.3667
131.865 1270 35.6371
131.983 1297 36.0139
132.1 1123 33.5112
132.217 1001 31.6386
132.335 884 29.7321
132.452 1013 31.8277
132.57 1143 33.8083
132.687 1359 36.8646
132.804 1374 37.0675
132.922 1476 38.4187
133.039 1499 38.7169
133.157 1511 38.8716
133.274 1541 39.2556
133.392 1472 38.3667
133.509 1457 38.1707
133.627 1475 38.4057
133.744 1465 38.2753
133.862 1443 37.9868
133.979 1448 38.0526
134.097 1422 37.7094
134.214 1512 38.8844
134.332 1472 38.3667
134.449 1450 38.0789
134.567 1545 39.3065
134.684 1549 39.3573
134.802 1535 39.1791
134.919 1544 39.2938
135.037 1457 38.1707
135.154 1391 37.2961
135.272 1413 37.5899
135.389 1312 36.2215
135.507 1271 35.6511
135.624 1216 34.8712
135.742 1019 31.9218
135.859 937 30.6105
135.977 931 30.5123
136.094 1103 33.2114
136.211 1175 34.2783
136.329 1405 37.4833
136.446 1489 38.5876
136.564 1463 38.2492
136.681 1404 37.47
136.798 1517 38.9487
136.915 1495 38.6652
137.033 1400 37.4166
137.15 1554 39.4208
137.267 1481 38.4838
137.384 1323 36.3731
137.502 1414 37.6032
137.619 1416 37.6298
137.736 1433 37.855
137.853 1379 37.1349
137.97 1363 36.9188
138.087 1548 39.3446
138.204 1439 37.9342
138.321 1455 38.1445
138.438 1486 38.5487
138.555 1431 37.8286
138.672 1446 38.0263
138.788 1410 37.55
138.905 1310 36.1939
139.022 1343 36.647
139.139 1225 35
139.255 1130 33.6155
139.372 883 29.7153
139.488 791 28.1247
139.605 835 28.8964
139.721 869 29.4788
139.838 958 30.9516
139.954 1061 32.573
140.071 1012 31.8119
140.187 839 28.9655
140.303 749 27.3679
140.419 655 25.593
140.535 619 24.8797
140.652 568 23.8328
140.768 0 1
140.884 0 1
141 0 1
141.115 0 1
141.231 0 1
141.347 0 1
141.463 0 1
141.578 0 1
141.694 0 1
144.104 0 1
144.219 0 1
144.335 0 1
144.45 0 1
144.566 0 1
144.682 0 1
144.798 0 1
144.914 0 1
145.03 0 1
145.146 843 29.0345
145.262 965 31.0644
145.378 1065 32.6343
145.494 1110 33.3167
145.61 1080 32.8634
145.726 1049 32.3883
145.842 1094 33.0757
145.959 1133 33.6601
146.075 1105 33.2415
146.192 1109 33.3017
146.308 1090 33.0151
146.425 1086 32.9545
146.541 1138 33.7343
146.658 1111 33.3317
146.774 1011 31.7962
146.891 1105 33.2415
147.008 1138 33.7343
147.125 1050 32.4037
147.241 1112 33.3467
147.358 1089 33
147.475 1081 32.8786
147.592 1101 33.1813
147.709 1030 32.0936
147.826 1057 32.5115
147.943 891 29.8496
148.06 878 29.6311
148.177 802 28.3196
148.294 758 27.5318
148.411 732 27.0555
148.528 869 29.4788
148.645 935 30.5778
148.762 967 31.0966
148.88 1066 32.6497
148.997 1172 34.2345
149.114 1036 32.187
149.231 1099 33.1512
149.349 1082 32.8938
149.466 1098 33.1361
149.583 1133 33.6601
149.701 1134 33.6749
149.818 1029 32.078
149.935 1037 32.2025
150.053 1084 32.9242
150.17 1056 32.4962
150.287 1038 32.218
150.405 1100 33.1662
150.522 1029 32.078
150.64 1055 32.4808
150.757 1120 33.4664
150.875 1041 32.2645
150.992 1079 32.8481
151.11 1086 32.9545
151.227 1011 31.7962
151.344 1038 32.218
151.462 979 31.289
151.579 1012 31.8119
151.697 894 29.8998
151.814 746 27.313
151.932 757 27.5136
152.049 771 27.7669
152.167 851 29.1719
152.284 946 30.7571
152.402 1061 32.573
152.519 1062 32.5883
152.636 1103 33.2114
152.754 1169 34.1906
152.871 1148 33.8821
152.989 1121 33.4813
153.106 1089 33
153.223 1068 32.6803
153.341 1071 32.7261
153.458 1093 33.0606
153.575 1012 31.8119
153.693 1082 32.8938
153.81 1069 32.6956
153.927 1036 32.187
154.044 1026 32.0312
154.162 1027 32.0468
154.279 1079 32.8481
154.396 1114 33.3766
154.513 1100 33.1662
154.63 1115 33.3916
154.747 1137 33.7194
154.864 1037 32.2025
154.981 1094 33.0757
155.098 1037 32.2025
155.215 965 31.0644
155.332 870 29.4958
155.449 776 27.8568
155.566 770 27.7489
155.683 831 28.8271
155.8 876 29.5973
155.917 1011 31.7962
156.033 1055 32.4808
156.15 0 1
156.267 0 1
156.383 0 1
156.5 0 1
156.617 0 1
156.733 0 1
156.85 0 1
156.966 0 1
157.082 0 1
157.199 0 1
157.315 0 1
157.431 0 1
157.547 0 1
157.664 0 1
157.78 0 1
157.896 0 1
158.012 0 1
158.128 0 1
158.244 0 1
158.359 0 1
158.475 0 1
158.591 0 1
158.706 0 1
