
6.15755 0 1
6.2731 0 1
6.3887 0 1
6.50437 0 1
6.62009 0 1
6.73587 0 1
6.8517 0 1
6.96759 0 1
7.08353 0 1
7.19952 0 1
7.31557 0 1
7.43166 0 1
7.54781 0 1
7.664 0 1
7.78024 0 1
7.89653 0 1
8.01286 0 1
8.12924 0 1
8.24567 0 1
8.36213 0 1
8.47864 0 1
8.59519 0 1
8.71178 0 1
8.82841 0 1
8.94508 0 1
9.06179 0 1
9.17853 0 1
9.29531 0 1
9.41212 0 1
9.52897 0 1
9.64584 0 1
9.76276 0 1
9.8797 0 1
9.99667 0 1
10.1137 0 1
10.2307 0 1
10.3478 0 1
10.4648 0 1
10.5819 0 1
10.6991 0 1
10.8162 0 1
10.9334 0 1
11.0506 0 1
11.1678 0 1
11.285 0 1
11.4023 0 1
11.5196 0 1
11.6369 0 1
11.7542 0 1
11.8715 0 1
11.9888 0 1
12.1062 0 1
12.2235 0 1
12.3409 0 1
12.4582 0 1
12.5756 0 1
12.693 0 1
12.8104 0 1
12.9278 0 1
13.0452 0 1
13.1626 0 1
13.28 0 1
13.3974 0 1
13.5149 0 1
13.6323 0 1
13.7497 0 1
13.8671 0 1
13.9845 0 1
14.1019 0 1
14.2193 0 1
14.3367 0 1
14.4541 0 1
14.5714 0 1
14.6888 0 1
14.8062 0 1
14.9235 0 1
15.0408 0 0
15.1581 0 0
15.2755 0 0
15.3927 0 0
15.51 0 0
15.6273 0 0
15.7445 0 0
15.8617 0 0
15.9789 0 0
16.0961 0 0
16.2132 0 0
16.3304 0 0
16.4475 0 0
16.5646 0 0
16.6816 0 0
16.7986 0 0
16.9156 0 0
17.0326 0 0
17.1496 0 0
17.2665 0 0
17.3833 0 0
17.5002 0 0
17.617 0 0
17.7338 0 0
17.8505 0 0
17.9672 0 0
18.0839 0 0
18.2005 0 0
18.3171 0 0
18.4337 0 0
18.5502 0 0
18.6666 0 0
18.7831 0 0
18.8994 0 0
19.0158 0 0
19.1321 0 0
19.2483 0 0
19.3645 0 0
19.4806 0 0
19.5967 0 0
19.7128 0 0
19.8288 0 0
19.9447 0 0
20.0606 0 1
20.1764 0 1
20.2922 0 1
20.4079 0 1
20.5236 0 1
20.6392 0 1
20.7548 0 1
20.8702 0 1
23.3078 0 1
23.4233 0 1
23.539 0 1
23.6547 0 1
23.7704 0 1
23.8862 0 1
24.0021 0 1
24.118 0 1
24.234 0 1
24.35 0 1
24.4661 5932 77.0195
24.5822 5918 76.9285
24.6984 5782 76.0395
24.8146 6000 77.4597
24.9309 5952 77.1492
25.0472 5947 77.1168
25.1636 6083 77.9936
25.28 6333 79.5801
25.3965 6429 80.181
25.513 6362 79.7621
25.6296 6517 80.7279
25.7462 6738 82.0853
25.8628 6701 81.8596
25.9795 6509 80.6784
26.0962 6514 80.7094
26.213 6685 81.7618
26.3298 6531 80.8146
26.4466 6591 81.185
26.5635 6632 81.4371
26.6804 6678 81.719
26.7973 6558 80.9815
26.9143 6415 80.0937
27.0313 6171 78.5557
27.1483 6318 79.4858
27.2653 6446 80.287
27.3824 6496 80.5978
27.4996 6490 80.5605
27.6167 6517 80.7279
27.7339 6304 79.3977
27.8511 6118 78.2176
27.9683 6124 78.256
28.0855 6133 78.3135
28.2028 5851 76.4918
28.3201 5802 76.1709
28.4374 5915 76.909
28.5547 5756 75.8683
28.6721 5666 75.2728
28.7894 5825 76.3217
28.9068 5925 76.974
29.0242 5901 76.818
29.1416 5833 76.3741
29.259 6042 77.7303
29.3764 6135 78.3262
29.4939 6129 78.2879
29.6113 6177 78.5939
29.7288 6338 79.6116
29.8463 6221 78.8733
29.9638 6343 79.643
30.0812 6422 80.1374
30.1987 6375 79.8436
30.3162 6339 79.6178
30.4337 6314 79.4607
30.5512 6047 77.7625
30.6687 6036 77.6917
30.7862 6117 78.2113
30.9037 6254 79.0822
31.0212 6284 79.2717
31.1387 6321 79.5047
31.2562 6135 78.3262
31.3737 6116 78.2049
31.4912 6139 78.3518
31.6087 5915 76.909
31.7262 5934 77.0325
31.8436 5911 76.883
31.9611 5747 75.809
32.0785 5890 76.7463
32.1959 5806 76.1971
32.3134 5829 76.3479
32.4308 5717 75.6108
32.5482 5888 76.7333
32.6655 5993 77.4145
32.7829 5747 75.809
32.9002 6015 77.5564
33.0176 6039 77.711
33.1349 6082 77.9872
33.2522 6100 78.1025
33.3694 6418 80.1124
33.4867 6327 79.5424
33.6039 6389 79.9312
33.7211 6465 80.4052
33.8383 6524 80.7713
33.9554 6500 80.6226
34.0725 6301 79.3788
34.1896 6101 78.1089
34.3067 6055 77.8139
34.4237 5882 76.6942
34.5407 5973 77.2852
34.6577 6096 78.0769
34.7746 5957 77.1816
34.8915 6050 77.7817
35.0084 5876 76.6551
35.1252 5964 77.2269
35.242 5793 76.1118
35.3587 5896 76.7854
35.4755 5941 77.0779
35.5921 5787 76.0723
35.7088 5973 77.2852
35.8254 5971 77.2722
35.9419 6026 77.6273
36.0584 5838 76.4068
36.1749 5847 76.4657
36.2913 5809 76.2168
36.4077 5770 75.9605
36.524 5765 75.9276
36.6403 5826 76.3282
36.7565 5772 75.9737
36.8727 5765 75.9276
36.9889 5998 77.4468
37.1049 6102 78.1153
37.221 0 1
37.3369 0 1
37.4529 0 1
37.5687 0 1
37.6845 0 1
37.8003 0 1
37.916 0 1
38.0316 0 1
38.1472 0 1
40.5851 0 1
40.7008 0 1
40.8164 0 1
40.9322 0 1
41.048 0 1
41.1639 0 1
41.2798 0 1
41.3958 0 1
41.5118 0 1
41.6279 0 1
41.744 4528 67.2904
41.8602 4770 69.0652
41.9765 4956 70.3989
42.0928 4910 70.0714
42.2091 5049 71.0563
42.3255 5056 71.1056
42.4419 5127 71.6031
42.5584 5150 71.7635
42.675 5327 72.9863
42.7915 5237 72.3671
42.9081 5005 70.746
43.0248 4993 70.6612
43.1415 4938 70.2709
43.2582 4848 69.6276
43.375 5008 70.7672
43.4918 5154 71.7914
43.6087 4920 70.1427
43.7256 4825 69.4622
43.8425 4814 69.383
43.9595 4621 67.9779
44.0765 4538 67.3647
44.1935 4720 68.7023
44.3106 4706 68.6003
44.4277 4798 69.2676
44.5448 4597 67.8012
44.6619 4560 67.5278
44.7791 4462 66.7982
44.8963 4356 66
45.0136 4128 64.2495
45.1308 4049 63.6318
45.2481 3938 62.7535
45.3654 3789 61.5549
45.4827 3986 63.1348
45.6001 3913 62.554
45.7174 3942 62.7853
45.8348 4174 64.6065
45.9522 4074 63.8279
46.0697 3986 63.1348
46.1871 4028 63.4665
46.3046 3902 62.466
46.422 4025 63.4429
46.5395 3876 62.2575
46.657 3815 61.7657
46.7745 3743 61.1801
46.892 3855 62.0886
47.0096 3818 61.79
47.1271 3874 62.2415
47.2446 3832 61.9032
47.3622 3779 61.4736
47.4797 3834 61.9193
47.5973 3617 60.1415
47.7149 3681 60.6712
47.8324 3444 58.6856
47.95 3540 59.4979
48.0675 3602 60.0167
48.1851 3421 58.4893
48.3027 3396 58.2752
48.4202 3190 56.4801
48.5378 3206 56.6216
48.6554 3144 56.0714
48.7729 2958 54.3875
48.8904 3041 55.1453
49.008 3094 55.6237
49.1255 3114 55.8032
49.243 3136 56
49.3605 3208 56.6392
49.478 3177 56.3649
49.5955 3230 56.8331
49.713 3259 57.0877
49.8304 3470 58.9067
49.9479 3500 59.1608
50.0653 3405 58.3524
50.1827 3476 58.9576
50.3001 3553 59.607
50.4175 3444 58.6856
50.5348 3630 60.2495
50.6521 3851 62.0564
50.7694 4033 63.5059
50.8867 4087 63.9296
51.004 4256 65.238
51.1212 4294 65.5286
51.2384 4499 67.0746
51.3556 4505 67.1193
51.4727 4543 67.4018
51.5899 4645 68.1542
51.707 4530 67.3053
51.824 4461 66.7907
51.9411 4432 66.5733
52.0581 4314 65.681
52.175 4334 65.8331
52.2919 4320 65.7267
52.4088 4271 65.3529
52.5257 4437 66.6108
52.6425 4574 67.6314
52.7593 4773 69.0869
52.876 4877 69.8355
52.9927 5010 70.7814
53.1094 5242 72.4017
53.226 5123 71.5751
53.3426 5351 73.1505
53.4591 5580 74.6994
53.5756 5664 75.2596
53.692 5618 74.9533
53.8084 5517 74.2765
53.9248 5679 75.3591
54.0411 5761 75.9013
54.1573 5934 77.0325
54.2735 0 1
54.3896 0 1
54.5057 0 1
54.6217 0 1
54.7377 0 1
54.8537 0 1
54.9695 0 1
55.0853 0 1
55.2011 0 1
55.3168 0 1
55.4324 0 1
57.824 0 1
57.9396 0 1
58.0553 0 1
58.1711 0 1
58.2869 0 1
58.4028 0 1
58.5187 0 1
58.6347 0 1
58.7508 0 1
58.8669 0 1
58.983 6616 81.3388
59.0992 6635 81.4555
59.2155 6909 83.1204
59.3318 7259 85.1998
59.4482 7399 86.0174
59.5646 7588 87.1091
59.681 7568 86.9943
59.7975 7641 87.4128
59.9141 7414 86.1046
60.0306 7211 84.9176
60.1473 7008 83.7138
60.2639 6988 83.5943
60.3807 6791 82.4075
60.4974 6703 81.8719
60.6142 6336 79.599
60.731 6301 79.3788
60.8479 5898 76.7984
60.9648 6024 77.6144
61.0818 6041 77.7239
61.1987 6126 78.2688
61.3158 6122 78.2432
61.4328 6332 79.5739
61.5499 6048 77.7689
61.667 6081 77.9808
61.7841 6137 78.339
61.9013 6168 78.5366
62.0185 6059 77.8396
62.1357 6244 79.019
62.253 6181 78.6193
62.3702 6089 78.032
62.4875 6277 79.2275
62.6049 6327 79.5424
62.7222 6726 82.0122
62.8396 6930 83.2466
62.9569 7100 84.2615
63.0743 7222 84.9824
63.1918 7148 84.5458
63.3092 7130 84.4393
63.4267 6907 83.1084
63.5441 6825 82.6136
63.6616 6490 80.5605
63.7791 6469 80.4301
63.8966 6159 78.4793
64.0142 5859 76.5441
64.1317 5757 75.8749
64.2492 5588 74.7529
64.3668 5623 74.9867
64.4843 5625 75
64.6019 5727 75.6769
64.7195 5738 75.7496
64.837 5954 77.1622
64.9546 5899 76.8049
65.0722 5775 75.9934
65.1898 5610 74.8999
65.3074 5796 76.1315
65.4249 5542 74.4446
65.5425 5621 74.9733
65.6601 5609 74.8933
65.7777 5709 75.5579
65.8952 5670 75.2994
66.0128 5681 75.3724
66.1304 6098 78.0897
66.2479 6279 79.2401
66.3655 6559 80.9877
66.483 6759 82.2131
66.6005 6885 82.9759
66.718 7067 84.0655
66.8355 6881 82.9518
66.953 6934 83.2706
67.0705 6808 82.5106
67.1879 6415 80.0937
67.3054 6263 79.1391
67.4228 6062 77.8588
67.5402 5677 75.3459
67.6576 5610 74.8999
67.7749 5511 74.2361
67.8923 5710 75.5645
68.0096 5619 74.96
68.1269 5746 75.8024
68.2442 5971 77.2722
68.3614 6351 79.6932
68.4787 6272 79.196
68.5958 6049 77.7753
68.713 6206 78.7782
68.8302 6159 78.4793
68.9473 6126 78.2688
69.0643 6144 78.3837
69.1814 6082 77.9872
69.2984 6098 78.0897
69.4154 6014 77.55
69.5323 6221 78.8733
69.6492 6276 79.2212
69.7661 6524 80.7713
69.8829 7066 84.0595
69.9997 7231 85.0353
70.1165 7636 87.3842
70.2332 7809 88.3685
70.3499 7853 88.6172
70.4665 7742 87.9886
70.5831 7706 87.7838
70.6996 7374 85.872
70.8161 6947 83.3487
70.9326 6668 81.6578
71.049 6383 79.8937
71.1653 6326 79.5362
71.2817 6101 78.1089
71.3979 6013 77.5435
71.5141 6056 77.8203
71.6303 5872 76.629
71.7464 5524 74.3236
71.8624 0 1
71.9784 0 1
72.0944 0 1
72.2102 0 1
72.3261 0 1
72.4418 0 1
72.5575 0 1
72.6732 0 1
75.1054 0 1
75.2209 0 1
75.3365 0 1
75.4521 0 1
75.5678 0 1
75.6835 0 1
75.7993 0 1
75.9151 0 1
76.031 0 1
76.147 6935 83.2766
76.263 6830 82.6438
76.3791 6749 82.1523
76.4952 6725 82.0061
76.6113 6785 82.3711
76.7276 6766 82.2557
76.8438 6881 82.9518
76.9601 6853 82.7828
77.0765 6929 83.2406
77.1929 6969 83.4805
77.3093 7527 86.7583
77.4258 7657 87.5043
77.5423 7946 89.1403
77.6589 7521 86.7237
77.7755 7402 86.0349
77.8921 7303 85.4576
78.0088 7227 85.0118
78.1256 7059 84.0179
78.2423 6931 83.2526
78.3591 6871 82.8915
78.4759 6813 82.5409
78.5928 6977 83.5284
78.7097 6639 81.4801
78.8266 6411 80.0687
78.9436 6853 82.7828
79.0606 7137 84.4808
79.1776 7768 88.1363
79.2946 8115 90.0833
79.4117 8310 91.1592
79.5288 8199 90.5483
79.6459 8284 91.0165
79.7631 7482 86.4986
79.8802 7237 85.0706
79.9974 6843 82.7224
80.1147 7037 83.8868
80.2319 7462 86.3829
80.3491 7455 86.3423
80.4664 7766 88.1249
80.5837 7830 88.4873
80.701 8105 90.0278
80.8183 8353 91.3947
80.9357 8937 94.5357
81.053 9374 96.8194
81.1704 9624 98.102
81.2877 9361 96.7523
81.4051 9260 96.2289
81.5225 9282 96.3431
81.6399 9028 95.0158
81.7573 9072 95.247
81.8747 8392 91.6079
81.9922 8141 90.2275
82.1096 7941 89.1123
82.227 8128 90.1554
82.3444 8443 91.8858
82.4619 7959 89.2132
82.5793 7264 85.2291
82.6967 7571 87.0115
82.8142 8884 94.255
82.9316 9460 97.2625
83.049 9300 96.4365
83.1664 9244 96.1457
83.2838 8939 94.5463
83.4012 8253 90.846
83.5186 8059 89.7719
83.636 7696 87.7268
83.7534 7583 87.0804
83.8708 7608 87.2238
83.9881 7437 86.238
84.1055 7129 84.4334
84.2228 7177 84.7172
84.3401 7170 84.6759
84.4575 7356 85.7671
84.5747 7854 88.6228
84.692 8214 90.6311
84.8093 8224 90.6863
84.9265 8063 89.7942
85.0437 7943 89.1235
85.1609 7694 87.7154
85.2781 7722 87.8749
85.3952 7795 88.2893
85.5123 7587 87.1034
85.6294 7224 84.9941
85.7465 7065 84.0536
85.8636 7209 84.9058
85.9806 7348 85.7205
86.0976 7132 84.4512
86.2145 6664 81.6333
86.3315 7247 85.1293
86.4484 8631 92.9032
86.5652 8999 94.8631
86.682 9293 96.4002
86.7988 8696 93.2523
86.9156 8089 89.9389
87.0323 7566 86.9828
87.149 7158 84.605
87.2657 6758 82.2071
87.3823 6319 79.4921
87.4988 6111 78.1729
87.6154 5768 75.9474
87.7318 5475 73.9932
87.8483 5592 74.7797
87.9647 5584 74.7262
88.081 5878 76.6681
88.1973 6405 80.0312
88.3136 6522 80.7589
88.4298 6195 78.7083
88.546 6106 78.1409
88.6621 6126 78.2688
88.7781 5903 76.831
88.8942 0 1
89.0101 0 1
89.126 0 1
89.2419 0 1
89.3577 0 1
89.4734 0 1
89.5891 0 1
89.7047 0 1
89.8203 0 1
89.9358 0 1
92.3269 0 1
92.4424 0 1
92.558 0 1
92.6736 0 1
92.7893 0 1
92.905 0 1
93.0208 0 1
93.1366 0 1
93.2525 0 1
93.3685 0 1
93.4845 0 1
93.6005 5488 74.081
93.7167 5919 76.935
93.8328 5933 77.026
93.949 5600 74.8331
94.0653 5501 74.1687
94.1816 5571 74.6391
94.2979 5418 73.6071
94.4143 5516 74.2698
94.5307 5552 74.5117
94.6472 5542 74.4446
94.7637 5579 74.6927
94.8803 5588 74.7529
94.9969 5710 75.5645
95.1135 5723 75.6505
95.2302 5320 72.9383
95.3469 5172 71.9166
95.4637 5497 74.1418
95.5805 6354 79.712
95.6973 6582 81.1295
95.8142 6606 81.2773
95.9311 6367 79.7935
96.048 5877 76.6616
96.1649 5417 73.6003
96.2819 5389 73.4098
96.3989 5089 71.3372
96.516 4780 69.1375
96.633 4628 68.0294
96.7501 4416 66.453
96.8673 4296 65.5439
96.9844 4402 66.3476
97.1016 4432 66.5733
97.2188 4607 67.8749
97.336 4954 70.3847
97.4532 5116 71.5262
97.5704 5083 71.2952
97.6877 4866 69.7567
97.805 4602 67.838
97.9223 4485 66.9701
98.0396 4490 67.0075
98.1569 4428 66.5432
98.2743 4479 66.9253
98.3916 4532 67.3201
98.509 4554 67.4833
98.6264 4543 67.4018
98.7438 4416 66.453
98.8612 4280 65.4217
98.9786 4110 64.1093
99.096 4643 68.1396
99.2134 4824 69.455
99.3308 4991 70.647
99.4482 4952 70.3704
99.5656 4429 66.5507
99.6831 4054 63.671
99.8005 3646 60.3821
99.9179 3380 58.1378
100.035 3312 57.55
100.153 3037 55.109
100.27 2776 52.6878
100.388 2576 50.7543
100.505 2540 50.3984
100.622 2632 51.303
100.74 2701 51.9711
100.857 2936 54.1849
100.975 3337 57.7668
101.092 3506 59.2115
101.209 3604 60.0333
101.327 3402 58.3267
101.444 3345 57.836
101.561 3350 57.8792
101.679 3407 58.3695
101.796 3681 60.6712
101.913 3780 61.4817
102.03 3998 63.2297
102.148 4301 65.582
102.265 4772 69.0797
102.382 4161 64.5058
102.499 4227 65.0154
102.616 4865 69.7496
102.733 5425 73.6546
102.851 5676 75.3392
102.968 5922 76.9545
103.085 5660 75.233
103.202 5387 73.3962
103.319 5018 70.8378
103.436 4752 68.9348
103.552 4447 66.6858
103.669 4224 64.9923
103.786 3934 62.7216
103.903 3991 63.1744
104.02 3906 62.498
104.137 3927 62.6658
104.253 4021 63.4114
104.37 4147 64.3972
104.487 4677 68.3886
104.603 4859 69.7065
104.72 4761 69
104.836 4659 68.2569
104.953 4755 68.9565
105.069 4817 69.4046
105.186 4855 69.6778
105.302 4987 70.6187
105.418 5257 72.5052
105.535 5608 74.8866
105.651 5652 75.1798
105.767 5702 75.5116
105.883 5658 75.2197
105.999 5576 74.6726
106.115 0 1
106.231 0 1
106.347 0 1
106.463 0 1
106.579 0 1
106.694 0 1
106.81 0 1
106.926 0 1
107.041 0 1
107.157 0 1
109.576 0 1
109.692 0 1
109.807 0 1
109.923 0 1
110.039 0 1
110.155 0 1
110.27 0 1
110.386 0 1
110.502 0 1
110.618 5551 74.505
110.735 5858 76.5376
110.851 5668 75.2861
110.967 5367 73.2598
111.083 5370 73.2803
111.199 5866 76.5898
111.316 6599 81.2342
111.432 6816 82.5591
111.549 6698 81.8413
111.665 6594 81.2034
111.782 6074 77.9359
111.898 5659 75.2263
112.015 5298 72.7874
112.132 5166 71.8749
112.248 4805 69.3181
112.365 4725 68.7386
112.482 4487 66.9851
112.599 4231 65.0461
112.716 4207 64.8614
112.832 4116 64.1561
112.949 4313 65.6734
113.066 4230 65.0385
113.183 4301 65.582
113.3 4132 64.2806
113.417 4143 64.3661
113.534 4156 64.467
113.652 4220 64.9615
113.769 4372 66.1211
113.886 4563 67.55
114.003 4600 67.8233
114.12 4805 69.3181
114.238 5048 71.0493
114.355 5262 72.5396
114.472 5610 74.8999
114.589 4749 68.913
114.707 4835 69.5342
114.824 5402 73.4983
114.942 5752 75.8419
115.059 5770 75.9605
115.176 5744 75.7892
115.294 5455 73.858
115.411 4991 70.647
115.529 4765 69.029
115.646 4503 67.1044
115.764 4307 65.6277
115.881 4167 64.5523
115.999 4098 64.0156
116.116 3845 62.0081
116.234 3694 60.7783
116.351 3455 58.7792
116.469 3506 59.2115
116.586 3552 59.5987
116.704 3514 59.279
116.821 3494 59.1101
116.939 3500 59.1608
117.056 3559 59.6574
117.174 3833 61.9112
117.291 3911 62.538
117.409 4087 63.9296
117.526 4162 64.5136
117.644 4466 66.8281
117.761 4801 69.2892
117.879 5133 71.645
117.996 5110 71.4843
118.114 5380 73.3485
118.231 5182 71.9861
118.349 4946 70.3278
118.466 5005 70.746
118.584 5314 72.8972
118.701 5478 74.0135
118.819 5295 72.7668
118.936 5089 71.3372
119.053 4585 67.7126
119.171 4492 67.0224
119.288 4299 65.5668
119.405 4213 64.9076
119.523 3996 63.2139
119.64 3681 60.6712
119.757 3456 58.7878
119.875 3369 58.0431
119.992 3084 55.5338
120.109 3139 56.0268
120.226 3006 54.827
120.343 2981 54.5985
120.46 2863 53.507
120.578 3041 55.1453
120.695 3245 56.9649
120.812 3455 58.7792
120.929 3685 60.7042
121.046 3926 62.6578
121.163 4134 64.2962
121.279 4242 65.1306
121.396 4443 66.6558
121.513 4528 67.2904
121.63 4454 66.7383
121.747 4907 70.05
121.863 4985 70.6045
121.98 5088 71.3302
122.097 4979 70.562
122.213 4995 70.6753
122.33 4970 70.4982
122.446 4934 70.2424
122.563 4692 68.4982
122.679 4678 68.3959
122.795 4502 67.0969
122.912 4352 65.9697
123.028 4083 63.8984
123.144 3940 62.7694
123.26 3737 61.131
123.377 0 1
123.493 0 1
123.609 0 1
123.725 0 1
123.84 0 1
123.956 0 1
124.072 0 1
124.188 0 1
124.303 0 1
124.419 0 1
126.852 0 1
126.968 0 1
127.083 0 1
127.199 0 1
127.315 0 1
127.431 0 1
127.547 0 1
127.663 0 1
127.779 0 1
127.895 0 1
128.011 0 1
128.127 0 1
128.243 0 1
128.359 4607 67.8749
128.476 4733 68.7968
128.592 4557 67.5056
128.708 4475 66.8954
128.825 4274 65.3758
128.941 3980 63.0872
129.058 3898 62.434
129.174 3813 61.7495
129.291 3797 61.6198
129.408 3695 60.7865
129.524 3747 61.2127
129.641 4090 63.9531
129.758 4364 66.0606
129.875 4558 67.513
129.992 4671 68.3447
130.108 4845 69.606
130.225 4850 69.6419
130.342 4662 68.2788
130.459 4541 67.3869
130.576 4658 68.2495
130.693 4849 69.6348
130.81 5383 73.3689
130.928 5531 74.3707
131.045 5570 74.6324
131.162 5697 75.4785
131.279 5524 74.3236
131.396 5626 75.0067
131.513 5586 74.7395
131.631 5373 73.3008
131.748 5429 73.6817
131.865 5204 72.1388
131.983 5050 71.0634
132.1 5116 71.5262
132.217 5058 71.1196
132.335 4799 69.2748
132.452 4637 68.0955
132.57 4524 67.2607
132.687 4138 64.3273
132.804 4272 65.3605
132.922 4347 65.9318
133.039 4403 66.3551
133.157 4409 66.4003
133.274 4663 68.2862
133.392 4864 69.7424
133.509 4811 69.3614
133.627 5014 70.8096
133.744 4982 70.5833
133.862 4969 70.4911
133.979 4797 69.2604
134.097 4732 68.7895
134.214 4888 69.9142
134.332 5091 71.3512
134.449 5390 73.4166
134.567 5639 75.0933
134.684 5728 75.6836
134.802 5717 75.6108
134.919 5955 77.1686
135.037 6007 77.5048
135.154 5774 75.9868
135.272 5967 77.2464
135.389 5898 76.7984
135.507 5852 76.4984
135.624 5877 76.6616
135.742 5786 76.0658
135.859 5742 75.776
135.977 5767 75.9408
136.094 5581 74.7061
136.211 5605 74.8665
136.329 5676 75.3392
136.446 5633 75.0533
136.564 5675 75.3326
136.681 5870 76.6159
136.798 6051 77.7882
136.915 6339 79.6178
137.033 6547 80.9135
137.15 6761 82.2253
137.267 6779 82.3347
137.384 6779 82.3347
137.502 6544 80.895
137.619 6590 81.1788
137.736 6563 81.0123
137.853 6454 80.3368
137.97 6909 83.1204
138.087 6772 82.2922
138.204 7312 85.5102
138.321 7726 87.8977
138.438 8076 89.8666
138.555 8377 91.526
138.672 8516 92.2822
138.788 8562 92.5311
138.905 8554 92.4878
139.022 8475 92.0598
139.139 8676 93.145
139.255 8389 91.5915
139.372 8502 92.2063
139.488 8268 90.9285
139.605 8162 90.3438
139.721 8103 90.0167
139.838 8056 89.7552
139.954 8009 89.493
140.071 7657 87.5043
140.187 7615 87.264
140.303 7630 87.3499
140.419 7897 88.8651
140.535 7770 88.1476
140.652 7778 88.193
140.768 0 1
140.884 0 1
141 0 1
141.115 0 1
141.231 0 1
141.347 0 1
141.463 0 1
141.578 0 1
141.694 0 1
144.104 0 1
144.219 0 1
144.335 0 1
144.45 0 1
144.566 0 1
144.682 0 1
144.798 0 1
144.914 0 1
145.03 0 1
145.146 7330 85.6154
145.262 7447 86.296
145.378 7499 86.5968
145.494 7596 87.155
145.61 7534 86.7986
145.726 7659 87.5157
145.842 7497 86.5852
145.959 7371 85.8545
146.075 7167 84.6581
146.192 7169 84.6699
146.308 6978 83.5344
146.425 7069 84.0773
146.541 7134 84.463
146.658 7293 85.3991
146.774 7266 85.2408
146.891 7457 86.3539
147.008 7626 87.327
147.125 8265 90.912
147.241 8100 90
147.358 8305 91.1318
147.475 8325 91.2414
147.592 8368 91.4768
147.709 8220 90.6642
147.826 8167 90.3715
147.943 8056 89.7552
148.06 7849 88.5946
148.177 7591 87.1263
148.294 7686 87.6698
148.411 7734 87.9432
148.528 7526 86.7525
148.645 7588 87.1091
148.762 7589 87.1149
148.88 7736 87.9545
148.997 7705 87.7781
149.114 7882 88.7806
149.231 7756 88.0682
149.349 7658 87.51
149.466 7471 86.4349
149.583 7274 85.2877
149.701 7029 83.8391
149.818 7160 84.6168
149.935 7265 85.235
150.053 7129 84.4334
150.17 7385 85.936
150.287 7517 86.7006
150.405 7573 87.023
150.522 7729 87.9147
150.64 7829 88.4816
150.757 7866 88.6905
150.875 8279 90.989
150.992 8073 89.8499
151.11 8234 90.7414
151.227 8203 90.5704
151.344 8163 90.3493
151.462 8219 90.6587
151.579 8281 91
151.697 8032 89.6214
151.814 7915 88.9663
151.932 7941 89.1123
152.049 7786 88.2383
152.167 8008 89.4874
152.284 7939 89.1011
152.402 7913 88.955
152.519 7871 88.7187
152.636 7915 88.9663
152.754 7956 89.1964
152.871 7651 87.47
152.989 7595 87.1493
153.106 7467 86.4118
153.223 7463 86.3887
153.341 7315 85.5278
153.458 7336 85.6505
153.575 7302 85.4517
153.693 7411 86.0872
153.81 7864 88.6792
153.927 7844 88.5664
154.044 8035 89.6382
154.162 8354 91.4002
154.279 8631 92.9032
154.396 8769 93.6429
154.513 8862 94.1382
154.63 9029 95.0211
154.747 8879 94.2284
154.864 8965 94.6837
154.981 8915 94.4193
155.098 8999 94.8631
155.215 8671 93.1182
155.332 8609 92.7847
155.449 8621 92.8493
155.566 8293 91.0659
155.683 8265 90.912
155.8 8245 90.802
155.917 8400 91.6515
156.033 8483 92.1032
156.15 0 1
156.267 0 1
156.383 0 1
156.5 0 1
156.617 0 1
156.733 0 1
156.85 0 1
156.966 0 1
157.082 0 1
157.199 0 1
157.315 0 1
157.431 0 1
157.547 0 1
157.664 0 1
157.78 0 1
157.896 0 1
158.012 0 1
158.128 0 1
158.244 0 1
158.359 0 1
158.475 0 1
158.591 0 1
158.706 0 1
