
6.15755 0 1
6.2731 0 1
6.3887 0 1
6.50437 0 1
6.62009 0 1
6.73587 0 1
6.8517 0 1
6.96759 0 1
7.08353 0 1
7.19952 0 1
7.31557 0 1
7.43166 0 1
7.54781 0 1
7.664 0 1
7.78024 0 1
7.89653 0 1
8.01286 0 1
8.12924 0 1
8.24567 0 1
8.36213 0 1
8.47864 0 1
8.59519 0 1
8.71178 0 1
8.82841 0 1
8.94508 0 1
9.06179 0 1
9.17853 0 1
9.29531 0 1
9.41212 0 1
9.52897 0 1
9.64584 0 1
9.76276 0 1
9.8797 0 1
9.99667 0 1
10.1137 0 1
10.2307 0 1
10.3478 0 1
10.4648 0 1
10.5819 0 1
10.6991 0 1
10.8162 0 1
10.9334 0 1
11.0506 0 1
11.1678 0 1
11.285 0 1
11.4023 0 1
11.5196 0 1
11.6369 0 1
11.7542 0 1
11.8715 0 1
11.9888 0 1
12.1062 0 1
12.2235 0 1
12.3409 0 1
12.4582 0 1
12.5756 0 1
12.693 0 1
12.8104 0 1
12.9278 0 1
13.0452 0 1
13.1626 0 1
13.28 0 1
13.3974 0 1
13.5149 0 1
13.6323 0 1
13.7497 0 1
13.8671 0 1
13.9845 0 1
14.1019 0 1
14.2193 0 1
14.3367 0 1
14.4541 0 1
14.5714 0 1
14.6888 0 1
14.8062 0 1
14.9235 0 1
15.0408 0 0
15.1581 0 0
15.2755 0 0
15.3927 0 0
15.51 0 0
15.6273 0 0
15.7445 0 0
15.8617 0 0
15.9789 0 0
16.0961 0 0
16.2132 0 0
16.3304 0 0
16.4475 0 0
16.5646 0 0
16.6816 0 0
16.7986 0 0
16.9156 0 0
17.0326 0 0
17.1496 0 0
17.2665 0 0
17.3833 0 0
17.5002 0 0
17.617 0 0
17.7338 0 0
17.8505 0 0
17.9672 0 0
18.0839 0 0
18.2005 0 0
18.3171 0 0
18.4337 0 0
18.5502 0 0
18.6666 0 0
18.7831 0 0
18.8994 0 0
19.0158 0 0
19.1321 0 0
19.2483 0 0
19.3645 0 0
19.4806 0 0
19.5967 0 0
19.7128 0 0
19.8288 0 0
19.9447 0 0
20.0606 0 1
20.1764 0 1
20.2922 0 1
20.4079 0 1
20.5236 0 1
20.6392 0 1
20.7548 0 1
20.8702 0 1
23.3078 0 1
23.4233 0 1
23.539 0 1
23.6547 0 1
23.7704 0 1
23.8862 0 1
24.0021 0 1
24.118 0 1
24.234 0 1
24.35 0 1
24.4661 19905 141.085
24.5822 19994 141.4
24.6984 19636 140.129
24.8146 19721 140.431
24.9309 19147 138.373
25.0472 18070 134.425
25.1636 17064 130.629
25.28 17010 130.422
25.3965 17226 131.248
25.513 17710 133.079
25.6296 19148 138.376
25.7462 20666 143.757
25.8628 21250 145.774
25.9795 21596 146.956
26.0962 21529 146.728
26.213 21586 146.922
26.3298 21067 145.145
26.4466 21277 145.866
26.5635 21207 145.626
26.6804 20645 143.684
26.7973 20956 144.762
26.9143 21218 145.664
27.0313 21096 145.245
27.1483 21543 146.775
27.2653 22197 148.987
27.3824 22232 149.104
27.4996 22255 149.181
27.6167 22094 148.641
27.7339 21722 147.384
27.8511 21553 146.809
27.9683 20854 144.409
28.0855 20902 144.575
28.2028 20239 142.264
28.3201 19338 139.061
28.4374 19330 139.032
28.5547 17704 133.056
28.6721 16270 127.554
28.7894 15921 126.178
28.9068 15724 125.395
29.0242 15813 125.75
29.1416 16449 128.254
29.259 17515 132.344
29.3764 18737 136.883
29.4939 19362 139.147
29.6113 19606 140.021
29.7288 19586 139.95
29.8463 19852 140.897
29.9638 19792 140.684
30.0812 19855 140.908
30.1987 19501 139.646
30.3162 19417 139.345
30.4337 19738 140.492
30.5512 20128 141.873
30.6687 20486 143.129
30.7862 21007 144.938
30.9037 20555 143.37
31.0212 21435 146.407
31.1387 21297 145.935
31.2562 20941 144.71
31.3737 20579 143.454
31.4912 20427 142.923
31.6087 19739 140.496
31.7262 19653 140.189
31.8436 19080 138.13
31.9611 18684 136.689
32.0785 17365 131.776
32.1959 15805 125.718
32.3134 15137 123.033
32.4308 14931 122.192
32.5482 15379 124.012
32.6655 15969 126.369
32.7829 17209 131.183
32.9002 18400 135.647
33.0176 18677 136.664
33.1349 18720 136.821
33.2522 19199 138.56
33.3694 18838 137.252
33.4867 19278 138.845
33.6039 19582 139.936
33.7211 19283 138.863
33.8383 19163 138.43
33.9554 19440 139.427
34.0725 18927 137.575
34.1896 19433 139.402
34.3067 19717 140.417
34.4237 19766 140.592
34.5407 19962 141.287
34.6577 20455 143.021
34.7746 20406 142.85
34.8915 20056 141.619
35.0084 19839 140.851
35.1252 19583 139.939
35.242 19242 138.716
35.3587 19124 138.29
35.4755 19063 138.069
35.5921 18355 135.481
35.7088 17326 131.628
35.8254 16006 126.515
35.9419 14613 120.884
36.0584 14325 119.687
36.1749 14353 119.804
36.2913 14366 119.858
36.4077 14964 122.327
36.524 15861 125.94
36.6403 17124 130.859
36.7565 17692 133.011
36.8727 17780 133.342
36.9889 18139 134.681
37.1049 17981 134.093
37.221 0 1
37.3369 0 1
37.4529 0 1
37.5687 0 1
37.6845 0 1
37.8003 0 1
37.916 0 1
38.0316 0 1
38.1472 0 1
40.5851 0 1
40.7008 0 1
40.8164 0 1
40.9322 0 1
41.048 0 1
41.1639 0 1
41.2798 0 1
41.3958 0 1
41.5118 0 1
41.6279 0 1
41.744 12247 110.666
41.8602 13206 114.917
41.9765 13812 117.524
42.0928 14448 120.2
42.2091 14882 121.992
42.3255 15203 123.3
42.4419 15077 122.788
42.5584 14752 121.458
42.675 14773 121.544
42.7915 14665 121.099
42.9081 14437 120.154
43.0248 14583 120.76
43.1415 14851 121.865
43.2582 14739 121.404
43.375 14890 122.025
43.4918 15242 123.458
43.6087 14906 122.09
43.7256 14689 121.198
43.8425 14565 120.686
43.9595 14018 118.398
44.0765 14100 118.743
44.1935 13837 117.631
44.3106 13190 114.848
44.4277 12734 112.845
44.5448 11846 108.839
44.6619 10730 103.586
44.7791 9636 98.1631
44.8963 9179 95.8071
45.0136 9145 95.6295
45.1308 9250 96.1769
45.2481 9945 99.7246
45.3654 10329 101.632
45.4827 10718 103.528
45.6001 10999 104.876
45.7174 10850 104.163
45.8348 11186 105.764
45.9522 10839 104.111
46.0697 10755 103.706
46.1871 10787 103.86
46.3046 10525 102.591
46.422 10519 102.562
46.5395 10499 102.465
46.657 10507 102.504
46.7745 10663 103.262
46.892 10416 102.059
47.0096 10627 103.087
47.1271 10632 103.112
47.2446 10582 102.869
47.3622 10513 102.533
47.4797 10247 101.227
47.5973 10129 100.643
47.7149 9965 99.8248
47.8324 9629 98.1275
47.95 9276 96.312
48.0675 8495 92.1683
48.1851 7994 89.4092
48.3027 7067 84.0655
48.4202 6839 82.6982
48.5378 6800 82.4621
48.6554 6993 83.6242
48.7729 7460 86.3713
48.8904 8032 89.6214
49.008 8163 90.3493
49.1255 8424 91.7824
49.243 8608 92.7793
49.3605 8670 93.1128
49.478 8649 93
49.5955 8640 92.9516
49.713 8528 92.3472
49.8304 8705 93.3006
49.9479 8898 94.3292
50.0653 9122 95.5092
50.1827 9435 97.1339
50.3001 9447 97.1957
50.4175 9954 99.7697
50.5348 10152 100.757
50.6521 10229 101.139
50.7694 10598 102.947
50.8867 10699 103.436
51.004 11274 106.179
51.1212 11102 105.366
51.2384 11277 106.193
51.3556 11457 107.037
51.4727 10835 104.091
51.5899 10588 102.898
51.707 9484 97.3858
51.824 9079 95.2838
51.9411 9124 95.5196
52.0581 9157 95.6922
52.175 9759 98.7877
52.2919 10245 101.218
52.4088 11223 105.939
52.5257 11621 107.801
52.6425 12032 109.69
52.7593 12357 111.162
52.876 12899 113.574
52.9927 13146 114.656
53.1094 13582 116.542
53.226 13571 116.495
53.3426 13980 118.237
53.4591 14127 118.857
53.5756 14253 119.386
53.692 14431 120.129
53.8084 14891 122.029
53.9248 15236 123.434
54.0411 15788 125.65
54.1573 16068 126.76
54.2735 0 1
54.3896 0 1
54.5057 0 1
54.6217 0 1
54.7377 0 1
54.8537 0 1
54.9695 0 1
55.0853 0 1
55.2011 0 1
55.3168 0 1
55.4324 0 1
57.824 0 1
57.9396 0 1
58.0553 0 1
58.1711 0 1
58.2869 0 1
58.4028 0 1
58.5187 0 1
58.6347 0 1
58.7508 0 1
58.8669 0 1
58.983 16770 129.499
59.0992 17968 134.045
59.2155 18301 135.281
59.3318 18747 136.92
59.4482 19018 137.906
59.5646 19217 138.625
59.681 19308 138.953
59.7975 18866 137.354
59.9141 18234 135.033
60.0306 17472 132.182
60.1473 16666 129.097
60.2639 15353 123.907
60.3807 13621 116.709
60.4974 13063 114.293
60.6142 12463 111.638
60.731 12722 112.792
60.8479 12861 113.406
60.9648 13500 116.19
61.0818 14412 120.05
61.1987 14954 122.287
61.3158 15259 123.527
61.4328 15639 125.056
61.5499 15292 123.661
61.667 15841 125.861
61.7841 15923 126.186
61.9013 16023 126.582
62.0185 16219 127.354
62.1357 16431 128.183
62.253 16726 129.329
62.3702 16963 130.242
62.4875 17500 132.288
62.6049 17913 133.839
62.7222 18322 135.359
62.8396 18739 136.89
62.9569 19081 138.134
63.0743 19254 138.759
63.1918 18983 137.779
63.3092 18877 137.394
63.4267 18535 136.143
63.5441 17467 132.163
63.6616 16211 127.322
63.7791 15066 122.744
63.8966 13925 118.004
64.0142 12933 113.723
64.1317 12882 113.499
64.2492 13097 114.442
64.3668 13641 116.795
64.4843 14580 120.748
64.6019 15347 123.883
64.7195 15870 125.976
64.837 16294 127.648
64.9546 16423 128.152
65.0722 16519 128.526
65.1898 16605 128.86
65.3074 16997 130.373
65.4249 16827 129.719
65.5425 16637 128.984
65.6601 17029 130.495
65.7777 17146 130.943
65.8952 17386 131.856
66.0128 17396 131.894
66.1304 17491 132.254
66.2479 18358 135.492
66.3655 18848 137.288
66.483 19044 138
66.6005 18903 137.488
66.718 18474 135.919
66.8355 18411 135.687
66.953 17974 134.067
67.0705 17388 131.864
67.1879 16368 127.937
67.3054 15306 123.717
67.4228 14049 118.528
67.5402 12582 112.17
67.6576 11860 108.904
67.7749 11685 108.097
67.8923 12126 110.118
68.0096 12545 112.004
68.1269 13316 115.395
68.2442 14096 118.727
68.3614 14621 120.917
68.4787 14744 121.425
68.5958 14601 120.835
68.713 14769 121.528
68.8302 15082 122.809
68.9473 14913 122.119
69.0643 14871 121.947
69.1814 15036 122.621
69.2984 15008 122.507
69.4154 15425 124.197
69.5323 15757 125.527
69.6492 16173 127.173
69.7661 16455 128.277
69.8829 17519 132.359
69.9997 17688 132.996
70.1165 18189 134.867
70.2332 18420 135.72
70.3499 18070 134.425
70.4665 17812 133.462
70.5831 17577 132.578
70.6996 16363 127.918
70.8161 15503 124.511
70.9326 14554 120.64
71.049 13243 115.078
71.1653 12045 109.75
71.2817 11134 105.518
71.3979 10872 104.269
71.5141 10760 103.73
71.6303 11204 105.849
71.7464 11050 105.119
71.8624 0 1
71.9784 0 1
72.0944 0 1
72.2102 0 1
72.3261 0 1
72.4418 0 1
72.5575 0 1
72.6732 0 1
75.1054 0 1
75.2209 0 1
75.3365 0 1
75.4521 0 1
75.5678 0 1
75.6835 0 1
75.7993 0 1
75.9151 0 1
76.031 0 1
76.147 13859 117.724
76.263 14527 120.528
76.3791 13557 116.435
76.4952 12411 111.405
76.6113 11407 106.804
76.7276 11035 105.048
76.8438 11577 107.596
76.9601 12175 110.34
77.0765 13399 115.754
77.1929 13776 117.371
77.3093 14708 121.277
77.4258 15361 123.94
77.5423 15355 123.915
77.6589 14943 122.242
77.7755 14765 121.511
77.8921 14776 121.557
78.0088 14589 120.785
78.1256 14458 120.241
78.2423 14331 119.712
78.3591 14434 120.142
78.4759 14781 121.577
78.5928 15368 123.968
78.7097 16189 127.236
78.8266 16218 127.35
78.9436 17937 133.929
79.0606 17358 131.75
79.1776 17550 132.476
79.2946 17770 133.304
79.4117 17615 132.722
79.5288 17313 131.579
79.6459 16664 129.089
79.7631 15405 124.117
79.8802 14570 120.706
79.9974 13288 115.274
80.1147 11866 108.931
80.2319 10912 104.461
80.3491 10564 102.781
80.4664 10961 104.695
80.5837 11581 107.615
80.701 12521 111.897
80.8183 12644 112.446
80.9357 13291 115.287
81.053 13648 116.825
81.1704 13594 116.593
81.2877 13349 115.538
81.4051 13175 114.782
81.5225 12838 113.305
81.6399 13021 114.11
81.7573 12899 113.574
81.8747 12565 112.094
81.9922 12786 113.075
82.1096 13128 114.577
82.227 13620 116.705
82.3444 14254 119.39
82.4619 15156 123.11
82.5793 15605 124.92
82.6967 15251 123.495
82.8142 15398 124.089
82.9316 15397 124.085
83.049 15331 123.818
83.1664 14775 121.552
83.2838 14010 118.364
83.4012 12859 113.398
83.5186 11992 109.508
83.636 11104 105.376
83.7534 9919 99.5942
83.8708 9453 97.2265
83.9881 9354 96.7161
84.1055 9572 97.8366
84.2228 10267 101.326
84.3401 10927 104.532
84.4575 11437 106.944
84.5747 12374 111.238
84.692 12962 113.851
84.8093 12497 111.79
84.9265 12241 110.639
85.0437 12053 109.786
85.1609 12198 110.445
85.2781 12034 109.7
85.3952 11923 109.192
85.5123 11879 108.991
85.6294 12312 110.959
85.7465 12952 113.807
85.8636 13793 117.444
85.9806 14881 121.988
86.0976 15222 123.377
86.2145 15848 125.889
86.3315 16820 129.692
86.4484 16254 127.491
86.5652 17119 130.84
86.682 16911 130.042
86.7988 16353 127.879
86.9156 15205 123.309
87.0323 14259 119.411
87.149 13239 115.061
87.2657 12320 110.995
87.3823 11800 108.628
87.4988 11480 107.145
87.6154 11762 108.453
87.7318 12688 112.641
87.8483 13289 115.278
87.9647 13805 117.495
88.081 14795 121.635
88.1973 15464 124.354
88.3136 15679 125.216
88.4298 15387 124.044
88.546 14951 122.274
88.6621 14513 120.47
88.7781 14268 119.449
88.8942 0 1
89.0101 0 1
89.126 0 1
89.2419 0 1
89.3577 0 1
89.4734 0 1
89.5891 0 1
89.7047 0 1
89.8203 0 1
89.9358 0 1
92.3269 0 1
92.4424 0 1
92.558 0 1
92.6736 0 1
92.7893 0 1
92.905 0 1
93.0208 0 1
93.1366 0 1
93.2525 0 1
93.3685 0 1
93.4845 0 1
93.6005 14809 121.692
93.7167 15620 124.98
93.8328 15573 124.792
93.949 14930 122.188
94.0653 14733 121.38
94.1816 14471 120.295
94.2979 14331 119.712
94.4143 14191 119.126
94.5307 14290 119.541
94.6472 14411 120.046
94.7637 15080 122.801
94.8803 15998 126.483
94.9969 16796 129.599
95.1135 17681 132.97
95.2302 18218 134.974
95.3469 18424 135.735
95.4637 18634 136.506
95.5805 18889 137.437
95.6973 19071 138.098
95.8142 18835 137.241
95.9311 18293 135.252
96.048 17244 131.316
96.1649 16017 126.558
96.2819 15039 122.634
96.3989 14100 118.743
96.516 13167 114.748
96.633 12971 113.89
96.7501 13067 114.311
96.8673 13714 117.107
96.9844 14066 118.6
97.1016 14843 121.832
97.2188 15421 124.181
97.336 16661 129.077
97.4532 16635 128.977
97.5704 16504 128.468
97.6877 15636 125.044
97.805 15092 122.85
97.9223 14665 121.099
98.0396 14177 119.067
98.1569 14550 120.623
98.2743 14656 121.062
98.3916 15159 123.122
98.509 15813 125.75
98.6264 16914 130.054
98.7438 17620 132.74
98.8612 18477 135.93
98.9786 19194 138.542
99.096 19419 139.352
99.2134 19527 139.739
99.3308 19590 139.964
99.4482 19619 140.068
99.5656 18725 136.839
99.6831 17400 131.909
99.8005 16556 128.67
99.9179 15447 124.286
100.035 14516 120.482
100.153 14195 119.143
100.27 13939 118.064
100.388 14307 119.612
100.505 14886 122.008
100.622 15046 122.662
100.74 15730 125.419
100.857 16298 127.664
100.975 16918 130.069
101.092 16470 128.335
101.209 16234 127.413
101.327 15599 124.896
101.444 15219 123.365
101.561 15267 123.56
101.679 15119 122.959
101.796 15075 122.78
101.913 15349 123.891
102.03 16371 127.949
102.148 17519 132.359
102.265 18351 135.466
102.382 20079 141.7
102.499 20081 141.707
102.616 20898 144.561
102.733 20746 144.035
102.851 20766 144.104
102.968 20616 143.583
103.085 19966 141.301
103.202 19212 138.607
103.319 18087 134.488
103.436 16920 130.077
103.552 15825 125.797
103.669 15285 123.633
103.786 15217 123.357
103.903 15410 124.137
104.02 15793 125.67
104.137 16493 128.425
104.253 17301 131.533
104.37 17958 134.007
104.487 18328 135.381
104.603 18256 135.115
104.72 17457 132.125
104.836 16886 129.946
104.953 16511 128.495
105.069 16453 128.269
105.186 16366 127.93
105.302 16396 128.047
105.418 17281 131.457
105.535 18793 137.088
105.651 20351 142.657
105.767 21573 146.877
105.883 22341 149.469
105.999 22800 150.997
106.115 0 1
106.231 0 1
106.347 0 1
106.463 0 1
106.579 0 1
106.694 0 1
106.81 0 1
106.926 0 1
107.041 0 1
107.157 0 1
109.576 0 1
109.692 0 1
109.807 0 1
109.923 0 1
110.039 0 1
110.155 0 1
110.27 0 1
110.386 0 1
110.502 0 1
110.618 17397 131.898
110.735 18785 137.058
110.851 20007 141.446
110.967 20784 144.167
111.083 21154 145.444
111.199 21411 146.325
111.316 21313 145.99
111.432 21359 146.147
111.549 21302 145.952
111.665 20572 143.429
111.782 19233 138.683
111.898 18046 134.335
112.015 17229 131.259
112.132 16359 127.902
112.248 15652 125.108
112.365 15127 122.992
112.482 14995 122.454
112.599 16005 126.511
112.716 16164 127.138
112.832 16864 129.861
112.949 16821 129.696
113.066 17088 130.721
113.183 16407 128.09
113.3 15754 125.515
113.417 15463 124.35
113.534 15155 123.106
113.652 15146 123.069
113.769 14924 122.164
113.886 15312 123.742
114.003 15855 125.917
114.12 17372 131.803
114.238 18967 137.721
114.355 19436 139.413
114.472 19803 140.723
114.589 20425 142.916
114.707 20436 142.955
114.824 20845 144.378
114.942 21293 145.921
115.059 21001 144.917
115.176 20366 142.709
115.294 19446 139.449
115.411 18526 136.11
115.529 18067 134.414
115.646 17305 131.548
115.764 16382 127.992
115.881 15806 125.722
115.999 15704 125.316
116.116 16078 126.799
116.234 16698 129.221
116.351 16912 130.046
116.469 17650 132.853
116.586 17479 132.208
116.704 17411 131.951
116.821 16856 129.831
116.939 16239 127.432
117.056 15688 125.252
117.174 15414 124.153
117.291 15755 125.519
117.409 16400 128.062
117.526 16864 129.861
117.644 17885 133.735
117.761 19172 138.463
117.879 20695 143.858
117.996 20745 144.031
118.114 21480 146.561
118.231 21717 147.367
118.349 21953 148.165
118.466 22210 149.03
118.584 22019 148.388
118.701 21520 146.697
118.819 20842 144.368
118.936 19892 141.039
119.053 19114 138.253
119.171 18839 137.255
119.288 18242 135.063
119.405 17231 131.267
119.523 16629 128.953
119.64 16341 127.832
119.757 16620 128.919
119.875 17055 130.595
119.992 17354 131.735
120.109 17432 132.03
120.226 17351 131.723
120.343 17194 131.126
120.46 16708 129.259
120.578 16526 128.553
120.695 15899 126.091
120.812 15834 125.833
120.929 16220 127.358
121.046 16327 127.777
121.163 17020 130.461
121.279 17886 133.739
121.396 18874 137.383
121.513 19894 141.046
121.63 20779 144.149
121.747 20869 144.461
121.863 21229 145.702
121.98 21198 145.595
122.097 21727 147.401
122.213 21473 146.537
122.33 20986 144.865
122.446 20565 143.405
122.563 19724 140.442
122.679 19530 139.75
122.795 18750 136.931
122.912 18417 135.709
123.028 17885 133.735
123.144 16627 128.946
123.26 16117 126.953
123.377 0 1
123.493 0 1
123.609 0 1
123.725 0 1
123.84 0 1
123.956 0 1
124.072 0 1
124.188 0 1
124.303 0 1
124.419 0 1
126.852 0 1
126.968 0 1
127.083 0 1
127.199 0 1
127.315 0 1
127.431 0 1
127.547 0 1
127.663 0 1
127.779 0 1
127.895 0 1
128.011 0 1
128.127 0 1
128.243 0 1
128.359 18911 137.517
128.476 18112 134.581
128.592 17708 133.071
128.708 18414 135.698
128.825 18742 136.901
128.941 19108 138.232
129.058 18967 137.721
129.174 19141 138.351
129.291 18738 136.887
129.408 18110 134.573
129.524 17679 132.962
129.641 17429 132.019
129.758 17365 131.776
129.875 17283 131.465
129.992 17736 133.177
130.108 17986 134.112
130.225 19143 138.358
130.342 20278 142.401
130.459 20416 142.885
130.576 21622 147.044
130.693 21524 146.711
130.81 21363 146.161
130.928 21465 146.509
131.045 21480 146.561
131.162 21348 146.11
131.279 21315 145.997
131.396 21300 145.945
131.513 21273 145.853
131.631 20337 142.608
131.748 19901 141.071
131.865 19305 138.942
131.983 18075 134.443
132.1 17813 133.465
132.217 17915 133.847
132.335 18666 136.624
132.452 18785 137.058
132.57 18901 137.481
132.687 18455 135.849
132.804 19035 137.967
132.922 18337 135.414
133.039 17600 132.665
133.157 17189 131.107
133.274 17190 131.111
133.392 16912 130.046
133.509 17155 130.977
133.627 17196 131.134
133.744 18412 135.691
133.862 19407 139.309
133.979 20215 142.179
134.097 20477 143.098
134.214 20291 142.446
134.332 20933 144.682
134.449 20699 143.871
134.567 20648 143.694
134.684 20905 144.586
134.802 21098 145.252
134.919 21242 145.746
135.037 21221 145.674
135.154 20718 143.937
135.272 20054 141.612
135.389 19361 139.144
135.507 18575 136.29
135.624 17902 133.798
135.742 17723 133.128
135.859 18281 135.207
135.977 19217 138.625
136.094 19232 138.679
136.211 19097 138.192
136.329 19087 138.156
136.446 18479 135.937
136.564 18475 135.923
136.681 17748 133.222
136.798 17328 131.636
136.915 17189 131.107
137.033 17161 131
137.15 17361 131.761
137.267 17847 133.593
137.384 18509 136.048
137.502 19003 137.851
137.619 19900 141.067
137.736 20000 141.421
137.853 19799 140.709
137.97 20420 142.899
138.087 19888 141.025
138.204 20296 142.464
138.321 20671 143.774
138.438 21136 145.382
138.555 21524 146.711
138.672 21295 145.928
138.788 20716 143.931
138.905 20576 143.443
139.022 20014 141.471
139.139 18760 136.967
139.255 18228 135.011
139.372 18261 135.133
139.488 18569 136.268
139.605 19407 139.309
139.721 19399 139.28
139.838 19410 139.32
139.954 19159 138.416
140.071 18426 135.742
140.187 18429 135.753
140.303 17786 133.364
140.419 17119 130.84
140.535 16944 130.169
140.652 16491 128.417
140.768 0 1
140.884 0 1
141 0 1
141.115 0 1
141.231 0 1
141.347 0 1
141.463 0 1
141.578 0 1
141.694 0 1
144.104 0 1
144.219 0 1
144.335 0 1
144.45 0 1
144.566 0 1
144.682 0 1
144.798 0 1
144.914 0 1
145.03 0 1
145.146 13012 114.07
145.262 13854 117.703
145.378 13943 118.08
145.494 13687 116.991
145.61 13302 115.334
145.726 13315 115.391
145.842 13294 115.3
145.959 13100 114.455
146.075 13551 116.409
146.192 13627 116.735
146.308 14187 119.109
146.425 14654 121.054
146.541 15156 123.11
146.658 15387 124.044
146.774 15163 123.138
146.891 15344 123.871
147.008 15894 126.071
147.125 15835 125.837
147.241 16616 128.903
147.358 16890 129.962
147.475 16528 128.561
147.592 16700 129.228
147.709 16439 128.215
147.826 16158 127.114
147.943 15561 124.744
148.06 14739 121.404
148.177 14395 119.979
148.294 14180 119.08
148.411 14707 121.272
148.528 15014 122.532
148.645 15324 123.79
148.762 15189 123.244
148.88 15269 123.568
148.997 14754 121.466
149.114 15360 123.935
149.231 14699 121.239
149.349 14453 120.221
149.466 13998 118.313
149.583 13797 117.461
149.701 13683 116.974
149.818 13710 117.09
149.935 13910 117.941
150.053 14162 119.004
150.17 14733 121.38
150.287 15062 122.727
150.405 15332 123.822
150.522 15268 123.564
150.64 15838 125.849
150.757 16335 127.808
150.875 16895 129.981
150.992 16891 129.965
151.11 17123 130.855
151.227 17201 131.153
151.344 16839 129.765
151.462 16569 128.721
151.579 16634 128.973
151.697 16085 126.827
151.814 15010 122.515
151.932 14700 121.244
152.049 14680 121.161
152.167 15427 124.205
152.284 15926 126.198
152.402 15817 125.766
152.519 15858 125.929
152.636 15902 126.103
152.754 15739 125.455
152.871 15296 123.677
152.989 14915 122.127
153.106 14778 121.565
153.223 14417 120.071
153.341 14318 119.658
153.458 14241 119.336
153.575 14575 120.727
153.693 15234 123.426
153.81 15588 124.852
153.927 16074 126.783
154.044 16637 128.984
154.162 16852 129.815
154.279 17586 132.612
154.396 18072 134.432
154.513 18620 136.455
154.63 19062 138.065
154.747 19210 138.6
154.864 19621 140.075
154.981 19603 140.011
155.098 19488 139.599
155.215 18939 137.619
155.332 17672 132.936
155.449 17381 131.837
155.566 17507 132.314
155.683 17801 133.42
155.8 18505 136.033
155.917 18446 135.816
156.033 18219 134.978
156.15 0 1
156.267 0 1
156.383 0 1
156.5 0 1
156.617 0 1
156.733 0 1
156.85 0 1
156.966 0 1
157.082 0 1
157.199 0 1
157.315 0 1
157.431 0 1
157.547 0 1
157.664 0 1
157.78 0 1
157.896 0 1
158.012 0 1
158.128 0 1
158.244 0 1
158.359 0 1
158.475 0 1
158.591 0 1
158.706 0 1
