
6.15755 0 1
6.2731 0 1
6.3887 0 1
6.50437 0 1
6.62009 0 1
6.73587 0 1
6.8517 0 1
6.96759 0 1
7.08353 0 1
7.19952 0 1
7.31557 0 1
7.43166 0 1
7.54781 0 1
7.664 0 1
7.78024 0 1
7.89653 0 1
8.01286 0 1
8.12924 0 1
8.24567 0 1
8.36213 0 1
8.47864 0 1
8.59519 0 1
8.71178 0 1
8.82841 0 1
8.94508 0 1
9.06179 0 1
9.17853 0 1
9.29531 0 1
9.41212 0 1
9.52897 0 1
9.64584 0 1
9.76276 0 1
9.8797 0 1
9.99667 0 1
10.1137 0 1
10.2307 0 1
10.3478 0 1
10.4648 0 1
10.5819 0 1
10.6991 0 1
10.8162 0 1
10.9334 0 1
11.0506 0 1
11.1678 0 1
11.285 0 1
11.4023 0 1
11.5196 0 1
11.6369 0 1
11.7542 0 1
11.8715 0 1
11.9888 0 1
12.1062 0 1
12.2235 0 1
12.3409 0 1
12.4582 0 1
12.5756 0 1
12.693 0 1
12.8104 0 1
12.9278 0 1
13.0452 0 1
13.1626 0 1
13.28 0 1
13.3974 0 1
13.5149 0 1
13.6323 0 1
13.7497 0 1
13.8671 0 1
13.9845 0 1
14.1019 0 1
14.2193 0 1
14.3367 0 1
14.4541 0 1
14.5714 0 1
14.6888 0 1
14.8062 0 1
14.9235 0 1
15.0408 829 28.7924
15.1581 912 30.1993
15.2755 943 30.7083
15.3927 933 30.545
15.51 956 30.9192
15.6273 997 31.5753
15.7445 933 30.545
15.8617 973 31.1929
15.9789 979 31.289
16.0961 943 30.7083
16.2132 928 30.4631
16.3304 1018 31.9061
16.4475 991 31.4802
16.5646 983 31.3528
16.6816 1056 32.4962
16.7986 1048 32.3728
16.9156 1155 33.9853
17.0326 1130 33.6155
17.1496 1114 33.3766
17.2665 1094 33.0757
17.3833 1087 32.9697
17.5002 1045 32.3265
17.617 1079 32.8481
17.7338 1010 31.7805
17.8505 1028 32.0624
17.9672 974 31.209
18.0839 1016 31.8748
18.2005 996 31.5595
18.3171 1026 32.0312
18.4337 1037 32.2025
18.5502 1080 32.8634
18.6666 1064 32.619
18.7831 1117 33.4215
18.8994 1126 33.5559
19.0158 1035 32.1714
19.1321 1045 32.3265
19.2483 1006 31.7175
19.3645 956 30.9192
19.4806 945 30.7409
19.5967 830 28.8097
19.7128 802 28.3196
19.8288 719 26.8142
19.9447 653 25.5539
20.0606 0 1
20.1764 0 1
20.2922 0 1
20.4079 0 1
20.5236 0 1
20.6392 0 1
20.7548 0 1
20.8702 0 1
23.3078 0 1
23.4233 0 1
23.539 0 1
23.6547 0 1
23.7704 0 1
23.8862 0 1
24.0021 0 1
24.118 0 1
24.234 0 1
24.35 0 1
24.4661 507 22.5167
24.5822 545 23.3452
24.6984 637 25.2389
24.8146 643 25.3574
24.9309 731 27.037
25.0472 775 27.8388
25.1636 855 29.2404
25.28 926 30.4302
25.3965 1034 32.1559
25.513 1094 33.0757
25.6296 1161 34.0735
25.7462 1208 34.7563
25.8628 1175 34.2783
25.9795 1234 35.1283
26.0962 1174 34.2637
26.213 1176 34.2929
26.3298 1072 32.7414
26.4466 1045 32.3265
26.5635 1018 31.9061
26.6804 1013 31.8277
26.7973 1010 31.7805
26.9143 1009 31.7648
27.0313 1049 32.3883
27.1483 1157 34.0147
27.2653 1134 33.6749
27.3824 1101 33.1813
27.4996 1203 34.6843
27.6167 1144 33.8231
27.7339 1112 33.3467
27.8511 1074 32.7719
27.9683 994 31.5278
28.0855 1015 31.8591
28.2028 992 31.496
28.3201 957 30.9354
28.4374 969 31.1288
28.5547 924 30.3974
28.6721 1057 32.5115
28.7894 1047 32.3574
28.9068 1072 32.7414
29.0242 1119 33.4515
29.1416 1145 33.8378
29.259 1189 34.4819
29.3764 1217 34.8855
29.4939 1219 34.9142
29.6113 1110 33.3167
29.7288 1141 33.7787
29.8463 999 31.607
29.9638 945 30.7409
30.0812 914 30.2324
30.1987 1004 31.686
30.3162 952 30.8545
30.4337 1016 31.8748
30.5512 1074 32.7719
30.6687 1075 32.7872
30.7862 1066 32.6497
30.9037 1073 32.7567
31.0212 1089 33
31.1387 1109 33.3017
31.2562 1134 33.6749
31.3737 1090 33.0151
31.4912 1032 32.1248
31.6087 1027 32.0468
31.7262 987 31.4166
31.8436 975 31.225
31.9611 940 30.6594
32.0785 926 30.4302
32.1959 977 31.257
32.3134 1052 32.4345
32.4308 1021 31.9531
32.5482 1137 33.7194
32.6655 1084 32.9242
32.7829 1132 33.6452
32.9002 1143 33.8083
33.0176 1163 34.1028
33.1349 1133 33.6601
33.2522 1103 33.2114
33.3694 1028 32.0624
33.4867 979 31.289
33.6039 877 29.6142
33.7211 953 30.8707
33.8383 921 30.348
33.9554 907 30.1164
34.0725 949 30.8058
34.1896 1035 32.1714
34.3067 1090 33.0151
34.4237 1065 32.6343
34.5407 1048 32.3728
34.6577 1131 33.6303
34.7746 1092 33.0454
34.8915 1004 31.686
35.0084 1070 32.7109
35.1252 1017 31.8904
35.242 1001 31.6386
35.3587 956 30.9192
35.4755 907 30.1164
35.5921 945 30.7409
35.7088 842 29.0172
35.8254 884 29.7321
35.9419 920 30.3315
36.0584 963 31.0322
36.1749 968 31.1127
36.2913 969 31.1288
36.4077 978 31.273
36.524 991 31.4802
36.6403 897 29.95
36.7565 904 30.0666
36.8727 828 28.775
36.9889 852 29.189
37.1049 669 25.865
37.221 0 1
37.3369 0 1
37.4529 0 1
37.5687 0 1
37.6845 0 1
37.8003 0 1
37.916 0 1
38.0316 0 1
38.1472 0 1
40.5851 0 1
40.7008 0 1
40.8164 0 1
40.9322 0 1
41.048 0 1
41.1639 0 1
41.2798 0 1
41.3958 0 1
41.5118 0 1
41.6279 0 1
41.744 512 22.6274
41.8602 576 24
41.9765 581 24.1039
42.0928 631 25.1197
42.2091 656 25.6125
42.3255 634 25.1794
42.4419 565 23.7697
42.5584 640 25.2982
42.675 683 26.1343
42.7915 703 26.5141
42.9081 810 28.4605
43.0248 865 29.4109
43.1415 888 29.7993
43.2582 863 29.3769
43.375 912 30.1993
43.4918 851 29.1719
43.6087 839 28.9655
43.7256 894 29.8998
43.8425 870 29.4958
43.9595 843 29.0345
44.0765 929 30.4795
44.1935 780 27.9285
44.3106 769 27.7308
44.4277 768 27.7128
44.5448 674 25.9615
44.6619 733 27.074
44.7791 791 28.1247
44.8963 780 27.9285
45.0136 880 29.6648
45.1308 901 30.0167
45.2481 993 31.5119
45.3654 926 30.4302
45.4827 915 30.249
45.6001 955 30.9031
45.7174 923 30.3809
45.8348 812 28.4956
45.9522 835 28.8964
46.0697 755 27.4773
46.1871 707 26.5895
46.3046 779 27.9106
46.422 759 27.55
46.5395 813 28.5132
46.657 887 29.7825
46.7745 845 29.0689
46.892 906 30.0998
47.0096 918 30.2985
47.1271 849 29.1376
47.2446 904 30.0666
47.3622 869 29.4788
47.4797 917 30.282
47.5973 849 29.1376
47.7149 857 29.2746
47.8324 784 28
47.95 824 28.7054
48.0675 783 27.9821
48.1851 768 27.7128
48.3027 751 27.4044
48.4202 782 27.9643
48.5378 847 29.1033
48.6554 875 29.5804
48.7729 947 30.7734
48.8904 872 29.5296
49.008 905 30.0832
49.1255 918 30.2985
49.243 854 29.2233
49.3605 790 28.1069
49.478 751 27.4044
49.5955 788 28.0713
49.713 669 25.865
49.8304 738 27.1662
49.9479 793 28.1603
50.0653 823 28.688
50.1827 860 29.3258
50.3001 924 30.3974
50.4175 884 29.7321
50.5348 967 31.0966
50.6521 973 31.1929
50.7694 994 31.5278
50.8867 1014 31.8434
51.004 1022 31.9687
51.1212 1004 31.686
51.2384 949 30.8058
51.3556 955 30.9031
51.4727 963 31.0322
51.5899 873 29.5466
51.707 867 29.4449
51.824 981 31.3209
51.9411 1036 32.187
52.0581 1082 32.8938
52.175 1224 34.9857
52.2919 1230 35.0714
52.4088 1324 36.3868
52.5257 1255 35.426
52.6425 1352 36.7696
52.7593 1265 35.5668
52.876 1316 36.2767
52.9927 1263 35.5387
53.1094 1224 34.9857
53.226 1121 33.4813
53.3426 1094 33.0757
53.4591 1024 32
53.5756 1099 33.1512
53.692 1100 33.1662
53.8084 1119 33.4515
53.9248 1073 32.7567
54.0411 1000 31.6228
54.1573 935 30.5778
54.2735 0 1
54.3896 0 1
54.5057 0 1
54.6217 0 1
54.7377 0 1
54.8537 0 1
54.9695 0 1
55.0853 0 1
55.2011 0 1
55.3168 0 1
55.4324 0 1
57.824 0 1
57.9396 0 1
58.0553 0 1
58.1711 0 1
58.2869 0 1
58.4028 0 1
58.5187 0 1
58.6347 0 1
58.7508 0 1
58.8669 0 1
58.983 641 25.318
59.0992 738 27.1662
59.2155 849 29.1376
59.3318 876 29.5973
59.4482 946 30.7571
59.5646 1030 32.0936
59.681 964 31.0483
59.7975 1000 31.6228
59.9141 1022 31.9687
60.0306 1052 32.4345
60.1473 954 30.8869
60.2639 925 30.4138
60.3807 941 30.6757
60.4974 978 31.273
60.6142 1025 32.0156
60.731 1042 32.28
60.8479 1124 33.5261
60.9648 1139 33.7491
61.0818 1172 34.2345
61.1987 1141 33.7787
61.3158 1114 33.3766
61.4328 1044 32.311
61.5499 1067 32.665
61.667 976 31.241
61.7841 941 30.6757
61.9013 860 29.3258
62.0185 848 29.1204
62.1357 962 31.0161
62.253 954 30.8869
62.3702 1027 32.0468
62.4875 1119 33.4515
62.6049 1075 32.7872
62.7222 1143 33.8083
62.8396 1138 33.7343
62.9569 1123 33.5112
63.0743 1104 33.2265
63.1918 1050 32.4037
63.3092 1147 33.8674
63.4267 1064 32.619
63.5441 1023 31.9844
63.6616 980 31.305
63.7791 920 30.3315
63.8966 920 30.3315
64.0142 905 30.0832
64.1317 956 30.9192
64.2492 965 31.0644
64.3668 1041 32.2645
64.4843 1094 33.0757
64.6019 1113 33.3617
64.7195 1206 34.7275
64.837 1059 32.5423
64.9546 1099 33.1512
65.0722 1176 34.2929
65.1898 998 31.5911
65.3074 946 30.7571
65.4249 853 29.2062
65.5425 880 29.6648
65.6601 876 29.5973
65.7777 919 30.315
65.8952 960 30.9839
66.0128 1078 32.8329
66.1304 1050 32.4037
66.2479 1087 32.9697
66.3655 1087 32.9697
66.483 1120 33.4664
66.6005 1118 33.4365
66.718 1028 32.0624
66.8355 1095 33.0908
66.953 1074 32.7719
67.0705 1041 32.2645
67.1879 1023 31.9844
67.3054 1002 31.6544
67.4228 867 29.4449
67.5402 889 29.8161
67.6576 869 29.4788
67.7749 891 29.8496
67.8923 937 30.6105
68.0096 1089 33
68.1269 1052 32.4345
68.2442 1044 32.311
68.3614 1041 32.2645
68.4787 1117 33.4215
68.5958 1091 33.0303
68.713 950 30.8221
68.8302 968 31.1127
68.9473 911 30.1828
69.0643 820 28.6356
69.1814 830 28.8097
69.2984 802 28.3196
69.4154 826 28.7402
69.5323 948 30.7896
69.6492 965 31.0644
69.7661 987 31.4166
69.8829 1021 31.9531
69.9997 1044 32.311
70.1165 1037 32.2025
70.2332 958 30.9516
70.3499 938 30.6268
70.4665 930 30.4959
70.5831 827 28.7576
70.6996 783 27.9821
70.8161 744 27.2764
70.9326 677 26.0192
71.049 581 24.1039
71.1653 497 22.2935
71.2817 418 20.445
71.3979 445 21.095
71.5141 385 19.6214
71.6303 361 19
71.7464 376 19.3907
71.8624 0 1
71.9784 0 1
72.0944 0 1
72.2102 0 1
72.3261 0 1
72.4418 0 1
72.5575 0 1
72.6732 0 1
75.1054 0 1
75.2209 0 1
75.3365 0 1
75.4521 0 1
75.5678 0 1
75.6835 0 1
75.7993 0 1
75.9151 0 1
76.031 0 1
76.147 628 25.0599
76.263 712 26.6833
76.3791 688 26.2298
76.4952 688 26.2298
76.6113 742 27.2397
76.7276 741 27.2213
76.8438 828 28.775
76.9601 874 29.5635
77.0765 918 30.2985
77.1929 986 31.4006
77.3093 982 31.3369
77.4258 970 31.1448
77.5423 943 30.7083
77.6589 947 30.7734
77.7755 839 28.9655
77.8921 797 28.2312
78.0088 671 25.9037
78.1256 676 26
78.2423 652 25.5343
78.3591 714 26.7208
78.4759 753 27.4408
78.5928 794 28.178
78.7097 883 29.7153
78.8266 852 29.189
78.9436 957 30.9354
79.0606 956 30.9192
79.1776 915 30.249
79.2946 954 30.8869
79.4117 919 30.315
79.5288 900 30
79.6459 984 31.3688
79.7631 912 30.1993
79.8802 859 29.3087
79.9974 861 29.3428
80.1147 755 27.4773
80.2319 725 26.9258
80.3491 782 27.9643
80.4664 743 27.258
80.5837 872 29.5296
80.701 920 30.3315
80.8183 949 30.8058
80.9357 987 31.4166
81.053 955 30.9031
81.1704 943 30.7083
81.2877 975 31.225
81.4051 942 30.692
81.5225 861 29.3428
81.6399 823 28.688
81.7573 737 27.1477
81.8747 680 26.0768
81.9922 723 26.8887
82.1096 798 28.2489
82.227 819 28.6182
82.3444 859 29.3087
82.4619 948 30.7896
82.5793 923 30.3809
82.6967 994 31.5278
82.8142 999 31.607
82.9316 977 31.257
83.049 1005 31.7017
83.1664 987 31.4166
83.2838 990 31.4643
83.4012 952 30.8545
83.5186 1022 31.9687
83.636 871 29.5127
83.7534 879 29.6479
83.8708 808 28.4253
83.9881 730 27.0185
84.1055 819 28.6182
84.2228 831 28.8271
84.3401 953 30.8707
84.4575 998 31.5911
84.5747 1043 32.2955
84.692 1008 31.749
84.8093 1006 31.7175
84.9265 1005 31.7017
85.0437 974 31.209
85.1609 843 29.0345
85.2781 779 27.9106
85.3952 711 26.6646
85.5123 733 27.074
85.6294 665 25.7876
85.7465 798 28.2489
85.8636 884 29.7321
85.9806 878 29.6311
86.0976 948 30.7896
86.2145 947 30.7734
86.3315 971 31.1609
86.4484 1035 32.1714
86.5652 1016 31.8748
86.682 1042 32.28
86.7988 994 31.5278
86.9156 1019 31.9218
87.0323 1048 32.3728
87.149 968 31.1127
87.2657 886 29.7658
87.3823 754 27.4591
87.4988 670 25.8844
87.6154 677 26.0192
87.7318 726 26.9444
87.8483 715 26.7395
87.9647 737 27.1477
88.081 757 27.5136
88.1973 813 28.5132
88.3136 682 26.1151
88.4298 732 27.0555
88.546 674 25.9615
88.6621 582 24.1247
88.7781 470 21.6795
88.8942 0 1
89.0101 0 1
89.126 0 1
89.2419 0 1
89.3577 0 1
89.4734 0 1
89.5891 0 1
89.7047 0 1
89.8203 0 1
89.9358 0 1
92.3269 0 1
92.4424 0 1
92.558 0 1
92.6736 0 1
92.7893 0 1
92.905 0 1
93.0208 0 1
93.1366 0 1
93.2525 0 1
93.3685 0 1
93.4845 0 1
93.6005 725 26.9258
93.7167 780 27.9285
93.8328 811 28.4781
93.949 830 28.8097
94.0653 838 28.9482
94.1816 842 29.0172
94.2979 874 29.5635
94.4143 792 28.1425
94.5307 756 27.4955
94.6472 759 27.55
94.7637 728 26.9815
94.8803 825 28.7228
94.9969 839 28.9655
95.1135 923 30.3809
95.2302 976 31.241
95.3469 1019 31.9218
95.4637 1113 33.3617
95.5805 978 31.273
95.6973 1006 31.7175
95.8142 1000 31.6228
95.9311 955 30.9031
96.048 1042 32.28
96.1649 1018 31.9061
96.2819 1004 31.686
96.3989 941 30.6757
96.516 935 30.5778
96.633 862 29.3598
96.7501 772 27.7849
96.8673 769 27.7308
96.9844 888 29.7993
97.1016 871 29.5127
97.2188 934 30.5614
97.336 1001 31.6386
97.4532 1030 32.0936
97.5704 1026 32.0312
97.6877 1066 32.6497
97.805 1041 32.2645
97.9223 979 31.289
98.0396 927 30.4467
98.1569 825 28.7228
98.2743 805 28.3725
98.3916 720 26.8328
98.509 779 27.9106
98.6264 835 28.8964
98.7438 912 30.1993
98.8612 953 30.8707
98.9786 1030 32.0936
99.096 1024 32
99.2134 1056 32.4962
99.3308 1080 32.8634
99.4482 1096 33.1059
99.5656 1077 32.8177
99.6831 1044 32.311
99.8005 1087 32.9697
99.9179 1043 32.2955
100.035 958 30.9516
100.153 962 31.0161
100.27 897 29.95
100.388 894 29.8998
100.505 912 30.1993
100.622 958 30.9516
100.74 1029 32.078
100.857 1047 32.3574
100.975 1058 32.5269
101.092 1138 33.7343
101.209 1074 32.7719
101.327 1173 34.2491
101.444 1071 32.7261
101.561 1048 32.3728
101.679 929 30.4795
101.796 845 29.0689
101.913 781 27.9464
102.03 805 28.3725
102.148 896 29.9333
102.265 991 31.4802
102.382 1042 32.28
102.499 1061 32.573
102.616 1042 32.28
102.733 1088 32.9848
102.851 1147 33.8674
102.968 1103 33.2114
103.085 1135 33.6898
103.202 1123 33.5112
103.319 1102 33.1964
103.436 1144 33.8231
103.552 1088 32.9848
103.669 1012 31.8119
103.786 981 31.3209
103.903 930 30.4959
104.02 941 30.6757
104.137 974 31.209
104.253 1079 32.8481
104.37 1153 33.9559
104.487 1133 33.6601
104.603 1118 33.4365
104.72 1177 34.3074
104.836 1074 32.7719
104.953 1018 31.9061
105.069 948 30.7896
105.186 827 28.7576
105.302 780 27.9285
105.418 761 27.5862
105.535 678 26.0384
105.651 695 26.3629
105.767 728 26.9815
105.883 758 27.5318
105.999 677 26.0192
106.115 0 1
106.231 0 1
106.347 0 1
106.463 0 1
106.579 0 1
106.694 0 1
106.81 0 1
106.926 0 1
107.041 0 1
107.157 0 1
109.576 0 1
109.692 0 1
109.807 0 1
109.923 0 1
110.039 0 1
110.155 0 1
110.27 0 1
110.386 0 1
110.502 0 1
110.618 470 21.6795
110.735 616 24.8193
110.851 732 27.0555
110.967 762 27.6043
111.083 900 30
111.199 1008 31.749
111.316 989 31.4484
111.432 1044 32.311
111.549 1084 32.9242
111.665 1095 33.0908
111.782 1071 32.7261
111.898 1117 33.4215
112.015 1026 32.0312
112.132 976 31.241
112.248 965 31.0644
112.365 904 30.0666
112.482 853 29.2062
112.599 969 31.1288
112.716 961 31
112.832 1057 32.5115
112.949 1131 33.6303
113.066 1134 33.6749
113.183 1122 33.4963
113.3 1150 33.9116
113.417 1171 34.2199
113.534 1048 32.3728
113.652 924 30.3974
113.769 865 29.4109
113.886 812 28.4956
114.003 793 28.1603
114.12 792 28.1425
114.238 890 29.8329
114.355 951 30.8383
114.472 1021 31.9531
114.589 1171 34.2199
114.707 1157 34.0147
114.824 1139 33.7491
114.942 1132 33.6452
115.059 1165 34.1321
115.176 1161 34.0735
115.294 1191 34.5109
115.411 1099 33.1512
115.529 1045 32.3265
115.646 1110 33.3167
115.764 1036 32.187
115.881 950 30.8221
115.999 923 30.3809
116.116 962 31.0161
116.234 895 29.9166
116.351 995 31.5436
116.469 1098 33.1361
116.586 1125 33.541
116.704 1145 33.8378
116.821 1054 32.4654
116.939 1096 33.1059
117.056 1083 32.909
117.174 1005 31.7017
117.291 992 31.496
117.409 879 29.6479
117.526 803 28.3373
117.644 834 28.8791
117.761 884 29.7321
117.879 873 29.5466
117.996 1010 31.7805
118.114 1054 32.4654
118.231 1064 32.619
118.349 1040 32.249
118.466 1044 32.311
118.584 1106 33.2566
118.701 1070 32.7109
118.819 1022 31.9687
118.936 1075 32.7872
119.053 1020 31.9374
119.171 969 31.1288
119.288 961 31
119.405 921 30.348
119.523 825 28.7228
119.64 848 29.1204
119.757 824 28.7054
119.875 905 30.0832
119.992 928 30.4631
120.109 931 30.5123
120.226 976 31.241
120.343 960 30.9839
120.46 992 31.496
120.578 942 30.692
120.695 989 31.4484
120.812 904 30.0666
120.929 840 28.9828
121.046 791 28.1247
121.163 694 26.3439
121.279 649 25.4755
121.396 687 26.2107
121.513 801 28.3019
121.63 810 28.4605
121.747 789 28.0891
121.863 832 28.8444
121.98 742 27.2397
122.097 748 27.3496
122.213 768 27.7128
122.33 801 28.3019
122.446 677 26.0192
122.563 698 26.4197
122.679 666 25.807
122.795 630 25.0998
122.912 567 23.8118
123.028 514 22.6716
123.144 457 21.3776
123.26 411 20.2731
123.377 0 1
123.493 0 1
123.609 0 1
123.725 0 1
123.84 0 1
123.956 0 1
124.072 0 1
124.188 0 1
124.303 0 1
124.419 0 1
126.852 0 1
126.968 0 1
127.083 0 1
127.199 0 1
127.315 0 1
127.431 0 1
127.547 0 1
127.663 0 1
127.779 0 1
127.895 0 1
128.011 0 1
128.127 0 1
128.243 0 1
128.359 939 30.6431
128.476 893 29.8831
128.592 978 31.273
128.708 951 30.8383
128.825 960 30.9839
128.941 971 31.1609
129.058 1014 31.8434
129.174 1023 31.9844
129.291 1073 32.7567
129.408 1139 33.7491
129.524 1124 33.5261
129.641 1116 33.4066
129.758 1090 33.0151
129.875 1027 32.0468
129.992 928 30.4631
130.108 822 28.6705
130.225 818 28.6007
130.342 801 28.3019
130.459 862 29.3598
130.576 878 29.6311
130.693 978 31.273
130.81 990 31.4643
130.928 1070 32.7109
131.045 1042 32.28
131.162 1001 31.6386
131.279 1065 32.6343
131.396 1053 32.45
131.513 1070 32.7109
131.631 1058 32.5269
131.748 1065 32.6343
131.865 1065 32.6343
131.983 1030 32.0936
132.1 902 30.0333
132.217 925 30.4138
132.335 945 30.7409
132.452 977 31.257
132.57 1013 31.8277
132.687 1087 32.9697
132.804 1043 32.2955
132.922 1132 33.6452
133.039 1144 33.8231
133.157 1115 33.3916
133.274 1085 32.9393
133.392 1044 32.311
133.509 998 31.5911
133.627 987 31.4166
133.744 881 29.6816
133.862 794 28.178
133.979 837 28.931
134.097 952 30.8545
134.214 919 30.315
134.332 1015 31.8591
134.449 1087 32.9697
134.567 1069 32.6956
134.684 1140 33.7639
134.802 1077 32.8177
134.919 1133 33.6601
135.037 1097 33.121
135.154 1106 33.2566
135.272 1044 32.311
135.389 1044 32.311
135.507 1019 31.9218
135.624 978 31.273
135.742 935 30.5778
135.859 880 29.6648
135.977 924 30.3974
136.094 1012 31.8119
136.211 1044 32.311
136.329 1090 33.0151
136.446 1118 33.4365
136.564 1114 33.3766
136.681 1129 33.6006
136.798 1100 33.1662
136.915 1090 33.0151
137.033 1099 33.1512
137.15 1030 32.0936
137.267 932 30.5287
137.384 863 29.3769
137.502 851 29.1719
137.619 828 28.775
137.736 887 29.7825
137.853 925 30.4138
137.97 1012 31.8119
138.087 990 31.4643
138.204 1099 33.1512
138.321 1063 32.6037
138.438 1127 33.5708
138.555 1142 33.7935
138.672 1085 32.9393
138.788 984 31.3688
138.905 979 31.289
139.022 887 29.7825
139.139 945 30.7409
139.255 916 30.2655
139.372 774 27.8209
139.488 751 27.4044
139.605 717 26.7769
139.721 746 27.313
139.838 723 26.8887
139.954 771 27.7669
140.071 693 26.3249
140.187 663 25.7488
140.303 616 24.8193
140.419 543 23.3024
140.535 583 24.1454
140.652 470 21.6795
140.768 0 1
140.884 0 1
141 0 1
141.115 0 1
141.231 0 1
141.347 0 1
141.463 0 1
141.578 0 1
141.694 0 1
144.104 0 1
144.219 0 1
144.335 0 1
144.45 0 1
144.566 0 1
144.682 0 1
144.798 0 1
144.914 0 1
145.03 0 1
145.146 748 27.3496
145.262 881 29.6816
145.378 872 29.5296
145.494 895 29.9166
145.61 935 30.5778
145.726 888 29.7993
145.842 850 29.1548
145.959 791 28.1247
146.075 745 27.2947
146.192 716 26.7582
146.308 655 25.593
146.425 745 27.2947
146.541 778 27.8927
146.658 783 27.9821
146.774 807 28.4077
146.891 865 29.4109
147.008 856 29.2575
147.125 875 29.5804
147.241 875 29.5804
147.358 881 29.6816
147.475 868 29.4618
147.592 853 29.2062
147.709 850 29.1548
147.826 827 28.7576
147.943 842 29.0172
148.06 817 28.5832
148.177 741 27.2213
148.294 772 27.7849
148.411 790 28.1069
148.528 800 28.2843
148.645 855 29.2404
148.762 903 30.05
148.88 937 30.6105
148.997 841 29
149.114 867 29.4449
149.231 906 30.0998
149.349 852 29.189
149.466 900 30
149.583 770 27.7489
149.701 787 28.0535
149.818 724 26.9072
149.935 664 25.7682
150.053 717 26.7769
150.17 750 27.3861
150.287 742 27.2397
150.405 794 28.178
150.522 845 29.0689
150.64 841 29
150.757 838 28.9482
150.875 815 28.5482
150.992 813 28.5132
151.11 846 29.0861
151.227 844 29.0517
151.344 785 28.0179
151.462 795 28.1957
151.579 808 28.4253
151.697 727 26.9629
151.814 740 27.2029
151.932 751 27.4044
152.049 663 25.7488
152.167 737 27.1477
152.284 793 28.1603
152.402 807 28.4077
152.519 824 28.7054
152.636 850 29.1548
152.754 821 28.6531
152.871 810 28.4605
152.989 833 28.8617
153.106 748 27.3496
153.223 785 28.0179
153.341 711 26.6646
153.458 660 25.6905
153.575 672 25.923
153.693 703 26.5141
153.81 695 26.3629
153.927 729 27
154.044 720 26.8328
154.162 771 27.7669
154.279 756 27.4955
154.396 807 28.4077
154.513 752 27.4226
154.63 796 28.2135
154.747 813 28.5132
154.864 769 27.7308
154.981 755 27.4773
155.098 734 27.0924
155.215 732 27.0555
155.332 706 26.5707
155.449 649 25.4755
155.566 676 26
155.683 698 26.4197
155.8 703 26.5141
155.917 709 26.6271
156.033 684 26.1534
156.15 0 1
156.267 0 1
156.383 0 1
156.5 0 1
156.617 0 1
156.733 0 1
156.85 0 1
156.966 0 1
157.082 0 1
157.199 0 1
157.315 0 1
157.431 0 1
157.547 0 1
157.664 0 1
157.78 0 1
157.896 0 1
158.012 0 1
158.128 0 1
158.244 0 1
158.359 0 1
158.475 0 1
158.591 0 1
158.706 0 1
