
6.15755 0 1
6.2731 0 1
6.3887 0 1
6.50437 0 1
6.62009 0 1
6.73587 0 1
6.8517 0 1
6.96759 0 1
7.08353 0 1
7.19952 0 1
7.31557 0 1
7.43166 0 1
7.54781 0 1
7.664 0 1
7.78024 0 1
7.89653 0 1
8.01286 0 1
8.12924 0 1
8.24567 0 1
8.36213 0 1
8.47864 0 1
8.59519 0 1
8.71178 0 1
8.82841 0 1
8.94508 0 1
9.06179 0 1
9.17853 0 1
9.29531 0 1
9.41212 0 1
9.52897 0 1
9.64584 0 1
9.76276 0 1
9.8797 0 1
9.99667 0 1
10.1137 0 1
10.2307 0 1
10.3478 0 1
10.4648 0 1
10.5819 0 1
10.6991 0 1
10.8162 0 1
10.9334 0 1
11.0506 0 1
11.1678 0 1
11.285 0 1
11.4023 0 1
11.5196 0 1
11.6369 0 1
11.7542 0 1
11.8715 0 1
11.9888 0 1
12.1062 0 1
12.2235 0 1
12.3409 0 1
12.4582 0 1
12.5756 0 1
12.693 0 1
12.8104 0 1
12.9278 0 1
13.0452 0 1
13.1626 0 1
13.28 0 1
13.3974 0 1
13.5149 0 1
13.6323 0 1
13.7497 0 1
13.8671 0 1
13.9845 0 1
14.1019 0 1
14.2193 0 1
14.3367 0 1
14.4541 0 1
14.5714 0 1
14.6888 0 1
14.8062 0 1
14.9235 0 1
15.0408 0 0
15.1581 0 0
15.2755 0 0
15.3927 0 0
15.51 0 0
15.6273 0 0
15.7445 0 0
15.8617 0 0
15.9789 0 0
16.0961 0 0
16.2132 0 0
16.3304 0 0
16.4475 0 0
16.5646 0 0
16.6816 0 0
16.7986 0 0
16.9156 0 0
17.0326 0 0
17.1496 0 0
17.2665 0 0
17.3833 0 0
17.5002 0 0
17.617 0 0
17.7338 0 0
17.8505 0 0
17.9672 0 0
18.0839 0 0
18.2005 0 0
18.3171 0 0
18.4337 0 0
18.5502 0 0
18.6666 0 0
18.7831 0 0
18.8994 0 0
19.0158 0 0
19.1321 0 0
19.2483 0 0
19.3645 0 0
19.4806 0 0
19.5967 0 0
19.7128 0 0
19.8288 0 0
19.9447 0 0
20.0606 0 1
20.1764 0 1
20.2922 0 1
20.4079 0 1
20.5236 0 1
20.6392 0 1
20.7548 0 1
20.8702 0 1
23.3078 0 1
23.4233 0 1
23.539 0 1
23.6547 0 1
23.7704 0 1
23.8862 0 1
24.0021 0 1
24.118 0 1
24.234 0 1
24.35 0 1
24.4661 1403 37.4566
24.5822 1428 37.7889
24.6984 1540 39.2428
24.8146 1768 42.0476
24.9309 2014 44.8776
25.0472 2354 48.518
25.1636 2560 50.5964
25.28 2651 51.4879
25.3965 2731 52.259
25.513 2831 53.2071
25.6296 2674 51.7107
25.7462 2793 52.8488
25.8628 2843 53.3198
25.9795 2801 52.9245
26.0962 2928 54.111
26.213 2880 53.6656
26.3298 2873 53.6004
26.4466 2933 54.1572
26.5635 2844 53.3292
26.6804 2784 52.7636
26.7973 2724 52.192
26.9143 2709 52.0481
27.0313 2658 51.5558
27.1483 2645 51.4296
27.2653 2570 50.6952
27.3824 2531 50.309
27.4996 2438 49.3761
27.6167 2211 47.0213
27.7339 2245 47.3814
27.8511 2347 48.4458
27.9683 2475 49.7494
28.0855 2634 51.3225
28.2028 2670 51.672
28.3201 2609 51.0784
28.4374 2641 51.3907
28.5547 2661 51.5849
28.6721 2582 50.8134
28.7894 2679 51.7591
28.9068 2630 51.2835
29.0242 2703 51.9904
29.1416 2686 51.8266
29.259 2669 51.6624
29.3764 2702 51.9808
29.4939 2633 51.3128
29.6113 2530 50.2991
29.7288 2505 50.05
29.8463 2456 49.558
29.9638 2491 49.9099
30.0812 2528 50.2792
30.1987 2452 49.5177
30.3162 2504 50.04
30.4337 2542 50.4183
30.5512 2623 51.2152
30.6687 2613 51.1175
30.7862 2570 50.6952
30.9037 2427 49.2646
31.0212 2375 48.734
31.1387 2388 48.8672
31.2562 2477 49.7695
31.3737 2628 51.264
31.4912 2560 50.5964
31.6087 2732 52.2685
31.7262 2646 51.4393
31.8436 2661 51.5849
31.9611 2615 51.1371
32.0785 2638 51.3615
32.1959 2583 50.8232
32.3134 2523 50.2295
32.4308 2433 49.3254
32.5482 2461 49.6085
32.6655 2393 48.9183
32.7829 2332 48.2908
32.9002 2400 48.9898
33.0176 2309 48.0521
33.1349 2314 48.1041
33.2522 2275 47.697
33.3694 2187 46.7654
33.4867 2314 48.1041
33.6039 2198 46.8828
33.7211 2332 48.2908
33.8383 2392 48.9081
33.9554 2515 50.1498
34.0725 2437 49.366
34.1896 2614 51.1273
34.3067 2623 51.2152
34.4237 2598 50.9706
34.5407 2432 49.3153
34.6577 2337 48.3425
34.7746 2254 47.4763
34.8915 2294 47.8957
35.0084 2543 50.4282
35.1252 2557 50.5668
35.242 2685 51.817
35.3587 2601 51
35.4755 2618 51.1664
35.5921 2482 49.8197
35.7088 2499 49.99
35.8254 2427 49.2646
35.9419 2280 47.7493
36.0584 2303 47.9896
36.1749 2368 48.6621
36.2913 2151 46.3789
36.4077 2108 45.913
36.524 1992 44.6318
36.6403 1768 42.0476
36.7565 1523 39.0256
36.8727 1492 38.6264
36.9889 1432 37.8418
37.1049 1487 38.5616
37.221 0 1
37.3369 0 1
37.4529 0 1
37.5687 0 1
37.6845 0 1
37.8003 0 1
37.916 0 1
38.0316 0 1
38.1472 0 1
40.5851 0 1
40.7008 0 1
40.8164 0 1
40.9322 0 1
41.048 0 1
41.1639 0 1
41.2798 0 1
41.3958 0 1
41.5118 0 1
41.6279 0 1
41.744 1928 43.909
41.8602 2445 49.4469
41.9765 2979 54.5802
42.0928 3304 57.4804
42.2091 3370 58.0517
42.3255 3253 57.0351
42.4419 3359 57.9569
42.5584 3403 58.3352
42.675 3500 59.1608
42.7915 3511 59.2537
42.9081 3621 60.1747
43.0248 3644 60.3656
43.1415 3600 60
43.2582 3480 58.9915
43.375 3222 56.7627
43.4918 3351 57.8878
43.6087 3214 56.6922
43.7256 3449 58.7282
43.8425 3458 58.8048
43.9595 3431 58.5747
44.0765 3471 58.9152
44.1935 3519 59.3212
44.3106 3328 57.6888
44.4277 3170 56.3028
44.5448 3068 55.3895
44.6619 2937 54.1941
44.7791 2838 53.2729
44.8963 2705 52.0096
45.0136 2619 51.1762
45.1308 2524 50.2394
45.2481 2344 48.4149
45.3654 2305 48.0104
45.4827 2167 46.551
45.6001 2128 46.1303
45.7174 2088 45.6946
45.8348 2095 45.7712
45.9522 2124 46.0869
46.0697 2075 45.5522
46.1871 2128 46.1303
46.3046 2140 46.2601
46.422 2167 46.551
46.5395 2190 46.7974
46.657 2214 47.0532
46.7745 2273 47.676
46.892 2070 45.4973
47.0096 1908 43.6807
47.1271 2099 45.8148
47.2446 2090 45.7165
47.3622 2184 46.7333
47.4797 2211 47.0213
47.5973 2199 46.8935
47.7149 2279 47.7389
47.8324 2219 47.1063
47.95 2197 46.8722
48.0675 2089 45.7056
48.1851 2118 46.0217
48.3027 2033 45.0888
48.4202 2030 45.0555
48.5378 1906 43.6578
48.6554 1941 44.0568
48.7729 1927 43.8976
48.8904 1958 44.2493
49.008 1906 43.6578
49.1255 1903 43.6234
49.243 1920 43.8178
49.3605 1871 43.2551
49.478 2005 44.7772
49.5955 2043 45.1996
49.713 2059 45.3762
49.8304 2069 45.4863
49.9479 2110 45.9347
50.0653 2116 46
50.1827 2025 45
50.3001 1989 44.5982
50.4175 1758 41.9285
50.5348 1686 41.0609
50.6521 1773 42.107
50.7694 1918 43.795
50.8867 2136 46.2169
51.004 2164 46.5188
51.1212 2160 46.4758
51.2384 2217 47.085
51.3556 2092 45.7384
51.4727 2039 45.1553
51.5899 2148 46.3465
51.707 2134 46.1952
51.824 2117 46.0109
51.9411 1947 44.1248
52.0581 2041 45.1774
52.175 2027 45.0222
52.2919 2013 44.8665
52.4088 1882 43.382
52.5257 2019 44.9333
52.6425 1964 44.317
52.7593 1909 43.6921
52.876 1851 43.0232
52.9927 1911 43.715
53.1094 1876 43.3128
53.226 1939 44.0341
53.3426 1926 43.8862
53.4591 1966 44.3396
53.5756 1678 40.9634
53.692 1495 38.6652
53.8084 1391 37.2961
53.9248 1224 34.9857
54.0411 1083 32.909
54.1573 1029 32.078
54.2735 0 1
54.3896 0 1
54.5057 0 1
54.6217 0 1
54.7377 0 1
54.8537 0 1
54.9695 0 1
55.0853 0 1
55.2011 0 1
55.3168 0 1
55.4324 0 1
57.824 0 1
57.9396 0 1
58.0553 0 1
58.1711 0 1
58.2869 0 1
58.4028 0 1
58.5187 0 1
58.6347 0 1
58.7508 0 1
58.8669 0 1
58.983 1687 41.0731
59.0992 1708 41.328
59.2155 1739 41.7013
59.3318 1930 43.9318
59.4482 2105 45.8803
59.5646 2269 47.634
59.681 2360 48.5798
59.7975 2449 49.4874
59.9141 2560 50.5964
60.0306 2534 50.3389
60.1473 2462 49.6185
60.2639 2475 49.7494
60.3807 2536 50.3587
60.4974 2446 49.4571
60.6142 2584 50.8331
60.731 2496 49.96
60.8479 2471 49.7092
60.9648 2547 50.4678
61.0818 2471 49.7092
61.1987 2504 50.04
61.3158 2480 49.7996
61.4328 2432 49.3153
61.5499 2484 49.8397
61.667 2367 48.6518
61.7841 2397 48.9592
61.9013 2391 48.8979
62.0185 2496 49.96
62.1357 2518 50.1797
62.253 2497 49.97
62.3702 2452 49.5177
62.4875 2286 47.8121
62.6049 2181 46.7012
62.7222 2244 47.3709
62.8396 2334 48.3115
62.9569 2482 49.8197
63.0743 2625 51.2348
63.1918 2607 51.0588
63.3092 2617 51.1566
63.4267 2648 51.4587
63.5441 2559 50.5866
63.6616 2535 50.3488
63.7791 2598 50.9706
63.8966 2569 50.6853
64.0142 2491 49.9099
64.1317 2457 49.5681
64.2492 2572 50.7149
64.3668 2518 50.1797
64.4843 2566 50.6557
64.6019 2462 49.6185
64.7195 2448 49.4773
64.837 2378 48.7647
64.9546 2374 48.7237
65.0722 2306 48.0208
65.1898 2365 48.6313
65.3074 2455 49.548
65.4249 2344 48.4149
65.5425 2444 49.4368
65.6601 2464 49.6387
65.7777 2421 49.2037
65.8952 2394 48.9285
66.0128 2353 48.5077
66.1304 2108 45.913
66.2479 2008 44.8107
66.3655 2143 46.2925
66.483 2276 47.7074
66.6005 2518 50.1797
66.718 2528 50.2792
66.8355 2529 50.2892
66.953 2465 49.6488
67.0705 2592 50.9117
67.1879 2413 49.1223
67.3054 2485 49.8498
67.4228 2513 50.1298
67.5402 2500 50
67.6576 2406 49.051
67.7749 2345 48.4252
67.8923 2480 49.7996
68.0096 2448 49.4773
68.1269 2447 49.4672
68.2442 2473 49.7293
68.3614 2287 47.8226
68.4787 2354 48.518
68.5958 2255 47.4868
68.713 2288 47.833
68.8302 2319 48.156
68.9473 2223 47.1487
69.0643 2209 47
69.1814 2290 47.8539
69.2984 2413 49.1223
69.4154 2297 47.927
69.5323 2282 47.7703
69.6492 2327 48.239
69.7661 1968 44.3621
69.8829 1866 43.1972
69.9997 1868 43.2204
70.1165 2087 45.6837
70.2332 2190 46.7974
70.3499 2016 44.8999
70.4665 1864 43.1741
70.5831 1694 41.1582
70.6996 1567 39.5854
70.8161 1590 39.8748
70.9326 1464 38.2623
71.049 1395 37.3497
71.1653 1368 36.9865
71.2817 1338 36.5787
71.3979 1259 35.4824
71.5141 1227 35.0286
71.6303 1186 34.4384
71.7464 1134 33.6749
71.8624 0 1
71.9784 0 1
72.0944 0 1
72.2102 0 1
72.3261 0 1
72.4418 0 1
72.5575 0 1
72.6732 0 1
75.1054 0 1
75.2209 0 1
75.3365 0 1
75.4521 0 1
75.5678 0 1
75.6835 0 1
75.7993 0 1
75.9151 0 1
76.031 0 1
76.147 1903 43.6234
76.263 2168 46.5618
76.3791 2162 46.4973
76.4952 2319 48.156
76.6113 2242 47.3498
76.7276 2226 47.1805
76.8438 2203 46.9361
76.9601 2230 47.2229
77.0765 2250 47.4342
77.1929 2331 48.2804
77.3093 2262 47.5605
77.4258 2301 47.9687
77.5423 2205 46.9574
77.6589 2210 47.0106
77.7755 2205 46.9574
77.8921 2183 46.7226
78.0088 2224 47.1593
78.1256 2273 47.676
78.2423 2302 47.9792
78.3591 2304 48
78.4759 2296 47.9166
78.5928 2233 47.2546
78.7097 1973 44.4185
78.8266 1666 40.8167
78.9436 1554 39.4208
79.0606 1657 40.7063
79.1776 1927 43.8976
79.2946 2201 46.9148
79.4117 2376 48.7442
79.5288 2368 48.6621
79.6459 2397 48.9592
79.7631 2360 48.5798
79.8802 2415 49.1426
79.9974 2422 49.2138
80.1147 2449 49.4874
80.2319 2315 48.1144
80.3491 2295 47.9062
80.4664 2414 49.1325
80.5837 2395 48.9387
80.701 2394 48.9285
80.8183 2433 49.3254
80.9357 2479 49.7896
81.053 2456 49.558
81.1704 2445 49.4469
81.2877 2269 47.634
81.4051 2414 49.1325
81.5225 2407 49.0612
81.6399 2290 47.8539
81.7573 2409 49.0816
81.8747 2469 49.689
81.9922 2593 50.9215
82.1096 2746 52.4023
82.227 2700 51.9615
82.3444 2612 51.1077
82.4619 2343 48.4045
82.5793 2113 45.9674
82.6967 2285 47.8017
82.8142 2716 52.1153
82.9316 3259 57.0877
83.049 3602 60.0167
83.1664 3763 61.3433
83.2838 3834 61.9193
83.4012 4062 63.7338
83.5186 4062 63.7338
83.636 4223 64.9846
83.7534 4307 65.6277
83.8708 4234 65.0692
83.9881 4233 65.0615
84.1055 4342 65.8939
84.2228 4379 66.174
84.3401 4462 66.7982
84.4575 4502 67.0969
84.5747 4376 66.1513
84.692 4477 66.9104
84.8093 4302 65.5896
84.9265 4196 64.7765
85.0437 4272 65.3605
85.1609 4305 65.6125
85.2781 4348 65.9394
85.3952 4321 65.7343
85.5123 4383 66.2042
85.6294 4274 65.3758
85.7465 4127 64.2417
85.8636 3862 62.145
85.9806 3267 57.1577
86.0976 2831 53.2071
86.2145 2766 52.5928
86.3315 3079 55.4887
86.4484 3911 62.538
86.5652 4089 63.9453
86.682 4221 64.9692
86.7988 4141 64.3506
86.9156 4120 64.1872
87.0323 4192 64.7457
87.149 4233 65.0615
87.2657 4266 65.3146
87.3823 4227 65.0154
87.4988 4072 63.8122
87.6154 3665 60.5392
87.7318 3364 58
87.8483 3070 55.4076
87.9647 3156 56.1783
88.081 3027 55.0182
88.1973 2934 54.1664
88.3136 2877 53.6377
88.4298 2669 51.6624
88.546 2496 49.96
88.6621 2417 49.163
88.7781 2375 48.734
88.8942 0 1
89.0101 0 1
89.126 0 1
89.2419 0 1
89.3577 0 1
89.4734 0 1
89.5891 0 1
89.7047 0 1
89.8203 0 1
89.9358 0 1
92.3269 0 1
92.4424 0 1
92.558 0 1
92.6736 0 1
92.7893 0 1
92.905 0 1
93.0208 0 1
93.1366 0 1
93.2525 0 1
93.3685 0 1
93.4845 0 1
93.6005 4464 66.8132
93.7167 4377 66.1589
93.8328 4389 66.2495
93.949 4441 66.6408
94.0653 4321 65.7343
94.1816 4417 66.4605
94.2979 4294 65.5286
94.4143 4386 66.2269
94.5307 4443 66.6558
94.6472 4295 65.5362
94.7637 4267 65.3223
94.8803 3884 62.3217
94.9969 3430 58.5662
95.1135 3120 55.857
95.2302 3245 56.9649
95.3469 3715 60.9508
95.4637 4130 64.2651
95.5805 4540 67.3795
95.6973 4362 66.0454
95.8142 4524 67.2607
95.9311 4554 67.4833
96.048 4375 66.1438
96.1649 4549 67.4463
96.2819 4487 66.9851
96.3989 4550 67.4537
96.516 4599 67.8159
96.633 4627 68.0221
96.7501 4641 68.1249
96.8673 4637 68.0955
96.9844 4564 67.5574
97.1016 4474 66.888
97.2188 4736 68.8186
97.336 4655 68.2276
97.4532 4507 67.1342
97.5704 4524 67.2607
97.6877 4471 66.8655
97.805 4544 67.4092
97.9223 4586 67.72
98.0396 4578 67.6609
98.1569 4612 67.9117
98.2743 4291 65.5057
98.3916 3888 62.3538
98.509 3283 57.2975
98.6264 3078 55.4797
98.7438 3024 54.9909
98.8612 3584 59.8665
98.9786 3925 62.6498
99.096 4021 63.4114
99.2134 4064 63.7495
99.3308 4047 63.616
99.4482 3804 61.6766
99.5656 3708 60.8933
99.6831 3705 60.8687
99.8005 3623 60.1914
99.9179 3425 58.5235
100.035 3429 58.5577
100.153 3344 57.8273
100.27 3245 56.9649
100.388 3390 58.2237
100.505 3329 57.6975
100.622 3346 57.8446
100.74 3267 57.1577
100.857 3132 55.9643
100.975 2967 54.4702
101.092 3054 55.263
101.209 2955 54.3599
101.327 3065 55.3624
101.444 3053 55.254
101.561 3029 55.0364
101.679 3158 56.1961
101.796 2975 54.5436
101.913 2883 53.6936
102.03 2733 52.2781
102.148 2440 49.3964
102.265 2181 46.7012
102.382 2474 49.7393
102.499 2668 51.6527
102.616 2887 53.7308
102.733 2932 54.1479
102.851 2836 53.2541
102.968 3007 54.8361
103.085 2794 52.8583
103.202 2722 52.1728
103.319 2772 52.6498
103.436 2882 53.6843
103.552 2751 52.45
103.669 2782 52.7447
103.786 2691 51.8748
103.903 2783 52.7541
104.02 2896 53.8145
104.137 2834 53.2353
104.253 3011 54.8726
104.37 2761 52.5452
104.487 2762 52.5547
104.603 2722 52.1728
104.72 2648 51.4587
104.836 2493 49.93
104.953 2216 47.0744
105.069 2045 45.2217
105.186 1797 42.391
105.302 1675 40.9268
105.418 1551 39.3827
105.535 1442 37.9737
105.651 1246 35.2987
105.767 997 31.5753
105.883 896 29.9333
105.999 879 29.6479
106.115 0 1
106.231 0 1
106.347 0 1
106.463 0 1
106.579 0 1
106.694 0 1
106.81 0 1
106.926 0 1
107.041 0 1
107.157 0 1
109.576 0 1
109.692 0 1
109.807 0 1
109.923 0 1
110.039 0 1
110.155 0 1
110.27 0 1
110.386 0 1
110.502 0 1
110.618 2779 52.7162
110.735 2865 53.5257
110.851 2704 52
110.967 2560 50.5964
111.083 2399 48.9796
111.199 2598 50.9706
111.316 2885 53.7122
111.432 3073 55.4346
111.549 3114 55.8032
111.665 3148 56.107
111.782 3118 55.8391
111.898 3063 55.3444
112.015 3065 55.3624
112.132 2995 54.7266
112.248 3016 54.9181
112.365 2996 54.7357
112.482 3122 55.8749
112.599 3304 57.4804
112.716 3322 57.6368
112.832 3178 56.3738
112.949 3481 59
113.066 3445 58.6941
113.183 3393 58.2495
113.3 3450 58.7367
113.417 3464 58.8558
113.534 3385 58.1808
113.652 3399 58.3009
113.769 3339 57.7841
113.886 3354 57.9137
114.003 3489 59.0678
114.12 3289 57.3498
114.238 3257 57.0701
114.355 3018 54.9363
114.472 2653 51.5073
114.589 2573 50.7247
114.707 2665 51.6236
114.824 3022 54.9727
114.942 3133 55.9732
115.059 3185 56.4358
115.176 3224 56.7803
115.294 3245 56.9649
115.411 3189 56.4712
115.529 3254 57.0438
115.646 3178 56.3738
115.764 3185 56.4358
115.881 3226 56.7979
115.999 3139 56.0268
116.116 3229 56.8243
116.234 3303 57.4717
116.351 3366 58.0172
116.469 3491 59.0847
116.586 3363 57.9914
116.704 3399 58.3009
116.821 3505 59.203
116.939 3627 60.2246
117.056 3461 58.8303
117.174 3420 58.4808
117.291 3463 58.8473
117.409 3488 59.0593
117.526 3339 57.7841
117.644 3487 59.0508
117.761 3377 58.112
117.879 3248 56.9912
117.996 2908 53.9259
118.114 2706 52.0192
118.231 2616 51.1468
118.349 2862 53.4977
118.466 3066 55.3715
118.584 3126 55.9106
118.701 3134 55.9821
118.819 3260 57.0964
118.936 3173 56.3294
119.053 3218 56.7274
119.171 3162 56.2317
119.288 3102 55.6956
119.405 3047 55.1996
119.523 3184 56.4269
119.64 3019 54.9454
119.757 3052 55.2449
119.875 2933 54.1572
119.992 3075 55.4527
120.109 3136 56
120.226 3300 57.4456
120.343 3317 57.5934
120.46 3350 57.8792
120.578 3311 57.5413
120.695 3187 56.4535
120.812 3138 56.0179
120.929 3330 57.7062
121.046 3306 57.4978
121.163 3164 56.2494
121.279 3211 56.6657
121.396 3149 56.116
121.513 3068 55.3895
121.63 2811 53.0189
121.747 2483 49.8297
121.863 2258 47.5184
121.98 2158 46.4543
122.097 2155 46.422
122.213 2261 47.55
122.33 2239 47.3181
122.446 2206 46.9681
122.563 2149 46.3573
122.679 1955 44.2154
122.795 1956 44.2267
122.912 1901 43.6005
123.028 1836 42.8486
123.144 1925 43.8748
123.26 1852 43.0349
123.377 0 1
123.493 0 1
123.609 0 1
123.725 0 1
123.84 0 1
123.956 0 1
124.072 0 1
124.188 0 1
124.303 0 1
124.419 0 1
126.852 0 1
126.968 0 1
127.083 0 1
127.199 0 1
127.315 0 1
127.431 0 1
127.547 0 1
127.663 0 1
127.779 0 1
127.895 0 1
128.011 0 1
128.127 0 1
128.243 0 1
128.359 3618 60.1498
128.476 3514 59.279
128.592 3575 59.7913
128.708 3755 61.2781
128.825 3662 60.5145
128.941 3684 60.696
129.058 3652 60.4318
129.174 3745 61.1964
129.291 3916 62.578
129.408 4000 63.2456
129.524 4076 63.8436
129.641 4164 64.5291
129.758 4275 65.3835
129.875 4255 65.2304
129.992 4319 65.7191
130.108 4467 66.8356
130.225 4374 66.1362
130.342 4314 65.681
130.459 4067 63.773
130.576 4136 64.3117
130.693 3883 62.3137
130.81 3654 60.4483
130.928 3776 61.4492
131.045 3832 61.9032
131.162 4007 63.3009
131.279 4050 63.6396
131.396 4165 64.5368
131.513 4217 64.9384
131.631 4232 65.0538
131.748 4116 64.1561
131.865 4093 63.9766
131.983 4019 63.3956
132.1 4090 63.9531
132.217 3920 62.6099
132.335 4023 63.4271
132.452 3964 62.9603
132.57 3965 62.9682
132.687 3941 62.7774
132.804 4071 63.8044
132.922 4071 63.8044
133.039 4165 64.5368
133.157 4068 63.7809
133.274 4339 65.8711
133.392 4347 65.9318
133.509 4420 66.4831
133.627 4546 67.424
133.744 4585 67.7126
133.862 4542 67.3944
133.979 4556 67.4981
134.097 4472 66.873
134.214 4436 66.6033
134.332 4087 63.9296
134.449 4131 64.2729
134.567 4195 64.7688
134.684 4362 66.0454
134.802 4524 67.2607
134.919 4319 65.7191
135.037 4559 67.5204
135.154 4533 67.3276
135.272 4395 66.2948
135.389 4226 65.0077
135.507 4341 65.8863
135.624 4320 65.7267
135.742 4261 65.2763
135.859 4166 64.5446
135.977 4139 64.3351
136.094 4201 64.8151
136.211 4199 64.7997
136.329 4139 64.3351
136.446 4109 64.1015
136.564 4198 64.792
136.681 4244 65.146
136.798 4267 65.3223
136.915 4262 65.284
137.033 4335 65.8407
137.15 4304 65.6049
137.267 4435 66.5958
137.384 4372 66.1211
137.502 4393 66.2797
137.619 4246 65.1613
137.736 4171 64.5833
137.853 4135 64.304
137.97 4085 63.914
138.087 3820 61.8061
138.204 4113 64.1327
138.321 4131 64.2729
138.438 4208 64.8691
138.555 4210 64.8845
138.672 4359 66.0227
138.788 4246 65.1613
138.905 4116 64.1561
139.022 4102 64.0469
139.139 3805 61.6847
139.255 3809 61.7171
139.372 3540 59.4979
139.488 3191 56.4889
139.605 3267 57.1577
139.721 3151 56.1338
139.838 2986 54.6443
139.954 3066 55.3715
140.071 2992 54.6992
140.187 2906 53.9073
140.303 2902 53.8702
140.419 2975 54.5436
140.535 2999 54.7631
140.652 3082 55.5158
140.768 0 1
140.884 0 1
141 0 1
141.115 0 1
141.231 0 1
141.347 0 1
141.463 0 1
141.578 0 1
141.694 0 1
144.104 0 1
144.219 0 1
144.335 0 1
144.45 0 1
144.566 0 1
144.682 0 1
144.798 0 1
144.914 0 1
145.03 0 1
145.146 8532 92.3688
145.262 9045 95.1052
145.378 9016 94.9526
145.494 9095 95.3677
145.61 9138 95.5929
145.726 9096 95.373
145.842 9211 95.974
145.959 9172 95.7706
146.075 9286 96.3639
146.192 9110 95.4463
146.308 9121 95.5039
146.425 8851 94.0798
146.541 7959 89.2132
146.658 7063 84.0417
146.774 6086 78.0128
146.891 5803 76.1774
147.008 6678 81.719
147.125 7926 89.0281
147.241 8461 91.9837
147.358 8845 94.0479
147.475 9010 94.921
147.592 8946 94.5833
147.709 9098 95.3834
147.826 8939 94.5463
147.943 8917 94.4299
148.06 9031 95.0316
148.177 8958 94.6467
148.294 8975 94.7365
148.411 9029 95.0211
148.528 9099 95.3887
148.645 9093 95.3572
148.762 9174 95.781
148.88 9157 95.6922
148.997 9000 94.8683
149.114 9595 97.9541
149.231 9074 95.2575
149.349 9442 97.17
149.466 9292 96.395
149.583 9486 97.3961
149.701 9201 95.9218
149.818 9447 97.1957
149.935 9341 96.6488
150.053 9263 96.2445
150.17 8763 93.6109
150.287 7990 89.3868
150.405 6753 82.1766
150.522 6200 78.7401
150.64 6726 82.0122
150.757 7849 88.5946
150.875 8837 94.0053
150.992 9216 96
151.11 8863 94.1435
151.227 9070 95.2365
151.344 8827 93.9521
151.462 8877 94.2178
151.579 9122 95.5092
151.697 9148 95.6452
151.814 8951 94.6097
151.932 9077 95.2733
152.049 9062 95.1945
152.167 9252 96.1873
152.284 9326 96.5712
152.402 9154 95.6765
152.519 9226 96.0521
152.636 9352 96.7057
152.754 9230 96.0729
152.871 9518 97.5602
152.989 9435 97.1339
153.106 9437 97.1442
153.223 9473 97.3293
153.341 9543 97.6883
153.458 9537 97.6576
153.575 9566 97.8059
153.693 9508 97.509
153.81 9182 95.8228
153.927 8125 90.1388
154.044 6985 83.5763
154.162 6415 80.0937
154.279 6960 83.4266
154.396 8065 89.8053
154.513 9163 95.7236
154.63 9379 96.8452
154.747 9240 96.1249
154.864 9200 95.9166
154.981 9333 96.6075
155.098 8975 94.7365
155.215 9039 95.0737
155.332 8903 94.3557
155.449 8712 93.3381
155.566 8454 91.9456
155.683 8208 90.598
155.8 8211 90.6146
155.917 7910 88.9382
156.033 7751 88.0398
156.15 0 1
156.267 0 1
156.383 0 1
156.5 0 1
156.617 0 1
156.733 0 1
156.85 0 1
156.966 0 1
157.082 0 1
157.199 0 1
157.315 0 1
157.431 0 1
157.547 0 1
157.664 0 1
157.78 0 1
157.896 0 1
158.012 0 1
158.128 0 1
158.244 0 1
158.359 0 1
158.475 0 1
158.591 0 1
158.706 0 1
