
6.15755 0 1
6.2731 0 1
6.3887 0 1
6.50437 0 1
6.62009 0 1
6.73587 0 1
6.8517 0 1
6.96759 0 1
7.08353 0 1
7.19952 0 1
7.31557 0 1
7.43166 0 1
7.54781 0 1
7.664 0 1
7.78024 0 1
7.89653 0 1
8.01286 0 1
8.12924 0 1
8.24567 0 1
8.36213 0 1
8.47864 0 1
8.59519 0 1
8.71178 0 1
8.82841 0 1
8.94508 0 1
9.06179 0 1
9.17853 0 1
9.29531 0 1
9.41212 0 1
9.52897 0 1
9.64584 0 1
9.76276 0 1
9.8797 0 1
9.99667 0 1
10.1137 0 1
10.2307 0 1
10.3478 0 1
10.4648 0 1
10.5819 0 1
10.6991 0 1
10.8162 0 1
10.9334 0 1
11.0506 0 1
11.1678 0 1
11.285 0 1
11.4023 0 1
11.5196 0 1
11.6369 0 1
11.7542 0 1
11.8715 0 1
11.9888 0 1
12.1062 0 1
12.2235 0 1
12.3409 0 1
12.4582 0 1
12.5756 0 1
12.693 0 1
12.8104 0 1
12.9278 0 1
13.0452 0 1
13.1626 0 1
13.28 0 1
13.3974 0 1
13.5149 0 1
13.6323 0 1
13.7497 0 1
13.8671 0 1
13.9845 0 1
14.1019 0 1
14.2193 0 1
14.3367 0 1
14.4541 0 1
14.5714 0 1
14.6888 0 1
14.8062 0 1
14.9235 0 1
15.0408 0 0
15.1581 0 0
15.2755 0 0
15.3927 0 0
15.51 0 0
15.6273 0 0
15.7445 0 0
15.8617 0 0
15.9789 0 0
16.0961 0 0
16.2132 0 0
16.3304 0 0
16.4475 0 0
16.5646 0 0
16.6816 0 0
16.7986 0 0
16.9156 0 0
17.0326 0 0
17.1496 0 0
17.2665 0 0
17.3833 0 0
17.5002 0 0
17.617 0 0
17.7338 0 0
17.8505 0 0
17.9672 0 0
18.0839 0 0
18.2005 0 0
18.3171 0 0
18.4337 0 0
18.5502 0 0
18.6666 0 0
18.7831 0 0
18.8994 0 0
19.0158 0 0
19.1321 0 0
19.2483 0 0
19.3645 0 0
19.4806 0 0
19.5967 0 0
19.7128 0 0
19.8288 0 0
19.9447 0 0
20.0606 0 1
20.1764 0 1
20.2922 0 1
20.4079 0 1
20.5236 0 1
20.6392 0 1
20.7548 0 1
20.8702 0 1
23.3078 0 1
23.4233 0 1
23.539 0 1
23.6547 0 1
23.7704 0 1
23.8862 0 1
24.0021 0 1
24.118 0 1
24.234 0 1
24.35 0 1
24.4661 1005 31.7017
24.5822 1026 32.0312
24.6984 1046 32.3419
24.8146 1043 32.2955
24.9309 1050 32.4037
25.0472 1093 33.0606
25.1636 1064 32.619
25.28 1110 33.3167
25.3965 1056 32.4962
25.513 1127 33.5708
25.6296 1128 33.5857
25.7462 1230 35.0714
25.8628 1138 33.7343
25.9795 1260 35.4965
26.0962 1195 34.5688
26.213 1226 35.0143
26.3298 1175 34.2783
26.4466 1226 35.0143
26.5635 1178 34.322
26.6804 1176 34.2929
26.7973 1154 33.9706
26.9143 1102 33.1964
27.0313 1105 33.2415
27.1483 1205 34.7131
27.2653 1218 34.8999
27.3824 1271 35.6511
27.4996 1247 35.3129
27.6167 1243 35.2562
27.7339 1103 33.2114
27.8511 1219 34.9142
27.9683 1206 34.7275
28.0855 1227 35.0286
28.2028 1241 35.2278
28.3201 1211 34.7994
28.4374 1161 34.0735
28.5547 1182 34.3802
28.6721 1225 35
28.7894 1223 34.9714
28.9068 1225 35
29.0242 1207 34.7419
29.1416 1295 35.9861
29.259 1279 35.7631
29.3764 1303 36.0971
29.4939 1249 35.3412
29.6113 1317 36.2905
29.7288 1262 35.5246
29.8463 1274 35.6931
29.9638 1274 35.6931
30.0812 1277 35.7351
30.1987 1179 34.3366
30.3162 1161 34.0735
30.4337 1099 33.1512
30.5512 1130 33.6155
30.6687 1152 33.9411
30.7862 1242 35.242
30.9037 1206 34.7275
31.0212 1209 34.7707
31.1387 1124 33.5261
31.2562 1123 33.5112
31.3737 1177 34.3074
31.4912 1138 33.7343
31.6087 1208 34.7563
31.7262 1140 33.7639
31.8436 1126 33.5559
31.9611 1068 32.6803
32.0785 1100 33.1662
32.1959 1123 33.5112
32.3134 1039 32.2335
32.4308 1061 32.573
32.5482 1073 32.7567
32.6655 1099 33.1512
32.7829 1138 33.7343
32.9002 1071 32.7261
33.0176 1149 33.8969
33.1349 1135 33.6898
33.2522 1153 33.9559
33.3694 1118 33.4365
33.4867 1070 32.7109
33.6039 1103 33.2114
33.7211 1153 33.9559
33.8383 1081 32.8786
33.9554 1065 32.6343
34.0725 1011 31.7962
34.1896 1023 31.9844
34.3067 1003 31.6702
34.4237 1090 33.0151
34.5407 1079 32.8481
34.6577 1128 33.5857
34.7746 1071 32.7261
34.8915 1051 32.4191
35.0084 988 31.4325
35.1252 1048 32.3728
35.242 1038 32.218
35.3587 1095 33.0908
35.4755 1054 32.4654
35.5921 965 31.0644
35.7088 1031 32.1092
35.8254 1019 31.9218
35.9419 956 30.9192
36.0584 961 31
36.1749 1040 32.249
36.2913 981 31.3209
36.4077 1042 32.28
36.524 971 31.1609
36.6403 1087 32.9697
36.7565 1033 32.1403
36.8727 1084 32.9242
36.9889 1068 32.6803
37.1049 1091 33.0303
37.221 0 1
37.3369 0 1
37.4529 0 1
37.5687 0 1
37.6845 0 1
37.8003 0 1
37.916 0 1
38.0316 0 1
38.1472 0 1
40.5851 0 1
40.7008 0 1
40.8164 0 1
40.9322 0 1
41.048 0 1
41.1639 0 1
41.2798 0 1
41.3958 0 1
41.5118 0 1
41.6279 0 1
41.744 872 29.5296
41.8602 902 30.0333
41.9765 895 29.9166
42.0928 943 30.7083
42.2091 943 30.7083
42.3255 869 29.4788
42.4419 877 29.6142
42.5584 925 30.4138
42.675 909 30.1496
42.7915 891 29.8496
42.9081 756 27.4955
43.0248 809 28.4429
43.1415 820 28.6356
43.2582 819 28.6182
43.375 854 29.2233
43.4918 838 28.9482
43.6087 884 29.7321
43.7256 842 29.0172
43.8425 823 28.688
43.9595 798 28.2489
44.0765 754 27.4591
44.1935 799 28.2666
44.3106 767 27.6948
44.4277 814 28.5307
44.5448 719 26.8142
44.6619 711 26.6646
44.7791 774 27.8209
44.8963 661 25.7099
45.0136 717 26.7769
45.1308 706 26.5707
45.2481 680 26.0768
45.3654 722 26.8701
45.4827 733 27.074
45.6001 713 26.7021
45.7174 703 26.5141
45.8348 715 26.7395
45.9522 724 26.9072
46.0697 692 26.3059
46.1871 703 26.5141
46.3046 670 25.8844
46.422 608 24.6577
46.5395 573 23.9374
46.657 648 25.4558
46.7745 624 24.98
46.892 651 25.5147
47.0096 630 25.0998
47.1271 628 25.0599
47.2446 666 25.807
47.3622 544 23.3238
47.4797 601 24.5153
47.5973 591 24.3105
47.7149 569 23.8537
47.8324 576 24
47.95 570 23.8747
48.0675 568 23.8328
48.1851 570 23.8747
48.3027 514 22.6716
48.4202 505 22.4722
48.5378 522 22.8473
48.6554 583 24.1454
48.7729 555 23.5584
48.8904 563 23.7276
49.008 559 23.6432
49.1255 568 23.8328
49.243 594 24.3721
49.3605 537 23.1733
49.478 545 23.3452
49.5955 597 24.4336
49.713 576 24
49.8304 568 23.8328
49.9479 476 21.8174
50.0653 466 21.587
50.1827 477 21.8403
50.3001 588 24.2487
50.4175 560 23.6643
50.5348 641 25.318
50.6521 624 24.98
50.7694 612 24.7386
50.8867 620 24.8998
51.004 635 25.1992
51.1212 596 24.4131
51.2384 659 25.671
51.3556 654 25.5734
51.4727 699 26.4386
51.5899 676 26
51.707 640 25.2982
51.824 655 25.593
51.9411 667 25.8263
52.0581 707 26.5895
52.175 726 26.9444
52.2919 786 28.0357
52.4088 767 27.6948
52.5257 768 27.7128
52.6425 816 28.5657
52.7593 773 27.8029
52.876 801 28.3019
52.9927 919 30.315
53.1094 892 29.8664
53.226 838 28.9482
53.3426 857 29.2746
53.4591 817 28.5832
53.5756 778 27.8927
53.692 687 26.2107
53.8084 768 27.7128
53.9248 863 29.3769
54.0411 866 29.4279
54.1573 920 30.3315
54.2735 0 1
54.3896 0 1
54.5057 0 1
54.6217 0 1
54.7377 0 1
54.8537 0 1
54.9695 0 1
55.0853 0 1
55.2011 0 1
55.3168 0 1
55.4324 0 1
57.824 0 1
57.9396 0 1
58.0553 0 1
58.1711 0 1
58.2869 0 1
58.4028 0 1
58.5187 0 1
58.6347 0 1
58.7508 0 1
58.8669 0 1
58.983 834 28.8791
59.0992 998 31.5911
59.2155 984 31.3688
59.3318 1044 32.311
59.4482 1012 31.8119
59.5646 965 31.0644
59.681 977 31.257
59.7975 950 30.8221
59.9141 973 31.1929
60.0306 887 29.7825
60.1473 977 31.257
60.2639 891 29.8496
60.3807 878 29.6311
60.4974 894 29.8998
60.6142 921 30.348
60.731 890 29.8329
60.8479 915 30.249
60.9648 978 31.273
61.0818 924 30.3974
61.1987 990 31.4643
61.3158 922 30.3645
61.4328 922 30.3645
61.5499 974 31.209
61.667 948 30.7896
61.7841 935 30.5778
61.9013 944 30.7246
62.0185 880 29.6648
62.1357 853 29.2062
62.253 784 28
62.3702 821 28.6531
62.4875 817 28.5832
62.6049 892 29.8664
62.7222 897 29.95
62.8396 968 31.1127
62.9569 939 30.6431
63.0743 970 31.1448
63.1918 884 29.7321
63.3092 898 29.9666
63.4267 851 29.1719
63.5441 795 28.1957
63.6616 845 29.0689
63.7791 878 29.6311
63.8966 823 28.688
64.0142 863 29.3769
64.1317 840 28.9828
64.2492 872 29.5296
64.3668 868 29.4618
64.4843 856 29.2575
64.6019 838 28.9482
64.7195 922 30.3645
64.837 884 29.7321
64.9546 894 29.8998
65.0722 859 29.3087
65.1898 857 29.2746
65.3074 870 29.4958
65.4249 832 28.8444
65.5425 859 29.3087
65.6601 848 29.1204
65.7777 796 28.2135
65.8952 713 26.7021
66.0128 789 28.0891
66.1304 813 28.5132
66.2479 844 29.0517
66.3655 841 29
66.483 897 29.95
66.6005 930 30.4959
66.718 980 31.305
66.8355 832 28.8444
66.953 859 29.3087
67.0705 819 28.6182
67.1879 774 27.8209
67.3054 782 27.9643
67.4228 839 28.9655
67.5402 776 27.8568
67.6576 781 27.9464
67.7749 773 27.8029
67.8923 877 29.6142
68.0096 772 27.7849
68.1269 882 29.6985
68.2442 884 29.7321
68.3614 920 30.3315
68.4787 901 30.0167
68.5958 895 29.9166
68.713 892 29.8664
68.8302 880 29.6648
68.9473 913 30.2159
69.0643 888 29.7993
69.1814 873 29.5466
69.2984 829 28.7924
69.4154 794 28.178
69.5323 800 28.2843
69.6492 833 28.8617
69.7661 828 28.775
69.8829 888 29.7993
69.9997 975 31.225
70.1165 961 31
70.2332 1002 31.6544
70.3499 990 31.4643
70.4665 974 31.209
70.5831 946 30.7571
70.6996 899 29.9833
70.8161 823 28.688
70.9326 829 28.7924
71.049 822 28.6705
71.1653 810 28.4605
71.2817 883 29.7153
71.3979 846 29.0861
71.5141 820 28.6356
71.6303 801 28.3019
71.7464 766 27.6767
71.8624 0 1
71.9784 0 1
72.0944 0 1
72.2102 0 1
72.3261 0 1
72.4418 0 1
72.5575 0 1
72.6732 0 1
75.1054 0 1
75.2209 0 1
75.3365 0 1
75.4521 0 1
75.5678 0 1
75.6835 0 1
75.7993 0 1
75.9151 0 1
76.031 0 1
76.147 747 27.3313
76.263 777 27.8747
76.3791 841 29
76.4952 809 28.4429
76.6113 850 29.1548
76.7276 863 29.3769
76.8438 893 29.8831
76.9601 909 30.1496
77.0765 919 30.315
77.1929 934 30.5614
77.3093 975 31.225
77.4258 920 30.3315
77.5423 989 31.4484
77.6589 912 30.1993
77.7755 957 30.9354
77.8921 978 31.273
78.0088 926 30.4302
78.1256 887 29.7825
78.2423 838 28.9482
78.3591 821 28.6531
78.4759 741 27.2213
78.5928 787 28.0535
78.7097 807 28.4077
78.8266 867 29.4449
78.9436 910 30.1662
79.0606 936 30.5941
79.1776 937 30.6105
79.2946 960 30.9839
79.4117 918 30.2985
79.5288 1002 31.6544
79.6459 930 30.4959
79.7631 817 28.5832
79.8802 752 27.4226
79.9974 735 27.1109
80.1147 741 27.2213
80.2319 788 28.0713
80.3491 792 28.1425
80.4664 823 28.688
80.5837 858 29.2916
80.701 852 29.189
80.8183 869 29.4788
80.9357 860 29.3258
81.053 912 30.1993
81.1704 933 30.545
81.2877 839 28.9655
81.4051 892 29.8664
81.5225 840 28.9828
81.6399 902 30.0333
81.7573 817 28.5832
81.8747 734 27.0924
81.9922 737 27.1477
82.1096 762 27.6043
82.227 740 27.2029
82.3444 734 27.0924
82.4619 839 28.9655
82.5793 871 29.5127
82.6967 845 29.0689
82.8142 891 29.8496
82.9316 857 29.2746
83.049 865 29.4109
83.1664 878 29.6311
83.2838 798 28.2489
83.4012 755 27.4773
83.5186 638 25.2587
83.636 647 25.4362
83.7534 693 26.3249
83.8708 709 26.6271
83.9881 714 26.7208
84.1055 711 26.6646
84.2228 810 28.4605
84.3401 762 27.6043
84.4575 847 29.1033
84.5747 853 29.2062
84.692 862 29.3598
84.8093 824 28.7054
84.9265 913 30.2159
85.0437 880 29.6648
85.1609 823 28.688
85.2781 780 27.9285
85.3952 741 27.2213
85.5123 770 27.7489
85.6294 717 26.7769
85.7465 758 27.5318
85.8636 808 28.4253
85.9806 826 28.7402
86.0976 906 30.0998
86.2145 969 31.1288
86.3315 979 31.289
86.4484 952 30.8545
86.5652 985 31.3847
86.682 1019 31.9218
86.7988 890 29.8329
86.9156 950 30.8221
87.0323 882 29.6985
87.149 715 26.7395
87.2657 797 28.2312
87.3823 805 28.3725
87.4988 859 29.3087
87.6154 894 29.8998
87.7318 958 30.9516
87.8483 960 30.9839
87.9647 972 31.1769
88.081 991 31.4802
88.1973 1036 32.187
88.3136 1035 32.1714
88.4298 1061 32.573
88.546 996 31.5595
88.6621 1042 32.28
88.7781 1012 31.8119
88.8942 0 1
89.0101 0 1
89.126 0 1
89.2419 0 1
89.3577 0 1
89.4734 0 1
89.5891 0 1
89.7047 0 1
89.8203 0 1
89.9358 0 1
92.3269 0 1
92.4424 0 1
92.558 0 1
92.6736 0 1
92.7893 0 1
92.905 0 1
93.0208 0 1
93.1366 0 1
93.2525 0 1
93.3685 0 1
93.4845 0 1
93.6005 935 30.5778
93.7167 1059 32.5423
93.8328 1036 32.187
93.949 998 31.5911
94.0653 1028 32.0624
94.1816 938 30.6268
94.2979 941 30.6757
94.4143 947 30.7734
94.5307 882 29.6985
94.6472 836 28.9137
94.7637 874 29.5635
94.8803 888 29.7993
94.9969 954 30.8869
95.1135 1002 31.6544
95.2302 991 31.4802
95.3469 980 31.305
95.4637 1065 32.6343
95.5805 1061 32.573
95.6973 1048 32.3728
95.8142 1144 33.8231
95.9311 1065 32.6343
96.048 1079 32.8481
96.1649 903 30.05
96.2819 835 28.8964
96.3989 765 27.6586
96.516 813 28.5132
96.633 845 29.0689
96.7501 907 30.1164
96.8673 998 31.5911
96.9844 1018 31.9061
97.1016 1012 31.8119
97.2188 957 30.9354
97.336 1039 32.2335
97.4532 1037 32.2025
97.5704 996 31.5595
97.6877 1020 31.9374
97.805 994 31.5278
97.9223 950 30.8221
98.0396 894 29.8998
98.1569 845 29.0689
98.2743 826 28.7402
98.3916 891 29.8496
98.509 872 29.5296
98.6264 949 30.8058
98.7438 971 31.1609
98.8612 990 31.4643
98.9786 1011 31.7962
99.096 1025 32.0156
99.2134 1083 32.909
99.3308 1059 32.5423
99.4482 1084 32.9242
99.5656 1021 31.9531
99.6831 1041 32.2645
99.8005 995 31.5436
99.9179 863 29.3769
100.035 803 28.3373
100.153 753 27.4408
100.27 866 29.4279
100.388 968 31.1127
100.505 1022 31.9687
100.622 1013 31.8277
100.74 1080 32.8634
100.857 1032 32.1248
100.975 1098 33.1361
101.092 1014 31.8434
101.209 963 31.0322
101.327 1043 32.2955
101.444 1034 32.1559
101.561 948 30.7896
101.679 880 29.6648
101.796 924 30.3974
101.913 882 29.6985
102.03 936 30.5941
102.148 956 30.9192
102.265 1068 32.6803
102.382 1080 32.8634
102.499 1047 32.3574
102.616 1049 32.3883
102.733 1115 33.3916
102.851 1124 33.5261
102.968 1173 34.2491
103.085 1087 32.9697
103.202 1118 33.4365
103.319 1027 32.0468
103.436 973 31.1929
103.552 838 28.9482
103.669 873 29.5466
103.786 972 31.1769
103.903 1071 32.7261
104.02 1068 32.6803
104.137 1102 33.1964
104.253 1120 33.4664
104.37 1097 33.121
104.487 1088 32.9848
104.603 1115 33.3916
104.72 1115 33.3916
104.836 1077 32.8177
104.953 1122 33.4963
105.069 965 31.0644
105.186 964 31.0483
105.302 916 30.2655
105.418 892 29.8664
105.535 952 30.8545
105.651 1064 32.619
105.767 1101 33.1813
105.883 1065 32.6343
105.999 1118 33.4365
106.115 0 1
106.231 0 1
106.347 0 1
106.463 0 1
106.579 0 1
106.694 0 1
106.81 0 1
106.926 0 1
107.041 0 1
107.157 0 1
109.576 0 1
109.692 0 1
109.807 0 1
109.923 0 1
110.039 0 1
110.155 0 1
110.27 0 1
110.386 0 1
110.502 0 1
110.618 985 31.3847
110.735 1034 32.1559
110.851 1130 33.6155
110.967 1146 33.8526
111.083 1078 32.8329
111.199 1135 33.6898
111.316 1158 34.0294
111.432 1189 34.4819
111.549 1188 34.4674
111.665 1115 33.3916
111.782 1070 32.7109
111.898 1066 32.6497
112.015 918 30.2985
112.132 845 29.0689
112.248 873 29.5466
112.365 962 31.0161
112.482 977 31.257
112.599 1100 33.1662
112.716 1095 33.0908
112.832 1031 32.1092
112.949 1017 31.8904
113.066 1082 32.8938
113.183 1041 32.2645
113.3 1021 31.9531
113.417 1014 31.8434
113.534 981 31.3209
113.652 882 29.6985
113.769 858 29.2916
113.886 848 29.1204
114.003 879 29.6479
114.12 966 31.0805
114.238 993 31.5119
114.355 1062 32.5883
114.472 1018 31.9061
114.589 1056 32.4962
114.707 1065 32.6343
114.824 1106 33.2566
114.942 1081 32.8786
115.059 1101 33.1813
115.176 1144 33.8231
115.294 1134 33.6749
115.411 1065 32.6343
115.529 986 31.4006
115.646 847 29.1033
115.764 820 28.6356
115.881 868 29.4618
115.999 964 31.0483
116.116 1076 32.8024
116.234 1040 32.249
116.351 1074 32.7719
116.469 1005 31.7017
116.586 1082 32.8938
116.704 1078 32.8329
116.821 1044 32.311
116.939 1027 32.0468
117.056 981 31.3209
117.174 970 31.1448
117.291 866 29.4279
117.409 912 30.1993
117.526 897 29.95
117.644 975 31.225
117.761 996 31.5595
117.879 1026 32.0312
117.996 1118 33.4365
118.114 1085 32.9393
118.231 1109 33.3017
118.349 1137 33.7194
118.466 1108 33.2866
118.584 1168 34.176
118.701 1091 33.0303
118.819 1122 33.4963
118.936 1089 33
119.053 1070 32.7109
119.171 986 31.4006
119.288 867 29.4449
119.405 865 29.4109
119.523 847 29.1033
119.64 941 30.6757
119.757 1025 32.0156
119.875 995 31.5436
119.992 1035 32.1714
120.109 1011 31.7962
120.226 1038 32.218
120.343 1057 32.5115
120.46 1032 32.1248
120.578 993 31.5119
120.695 1027 32.0468
120.812 934 30.5614
120.929 881 29.6816
121.046 850 29.1548
121.163 877 29.6142
121.279 912 30.1993
121.396 896 29.9333
121.513 1036 32.187
121.63 1089 33
121.747 1054 32.4654
121.863 1114 33.3766
121.98 1028 32.0624
122.097 1069 32.6956
122.213 1058 32.5269
122.33 1082 32.8938
122.446 1084 32.9242
122.563 995 31.5436
122.679 963 31.0322
122.795 935 30.5778
122.912 890 29.8329
123.028 838 28.9482
123.144 833 28.8617
123.26 789 28.0891
123.377 0 1
123.493 0 1
123.609 0 1
123.725 0 1
123.84 0 1
123.956 0 1
124.072 0 1
124.188 0 1
124.303 0 1
124.419 0 1
126.852 0 1
126.968 0 1
127.083 0 1
127.199 0 1
127.315 0 1
127.431 0 1
127.547 0 1
127.663 0 1
127.779 0 1
127.895 0 1
128.011 0 1
128.127 0 1
128.243 0 1
128.359 794 28.178
128.476 856 29.2575
128.592 946 30.7571
128.708 1057 32.5115
128.825 1071 32.7261
128.941 1068 32.6803
129.058 1036 32.187
129.174 1117 33.4215
129.291 1087 32.9697
129.408 1110 33.3167
129.524 1114 33.3766
129.641 998 31.5911
129.758 1010 31.7805
129.875 927 30.4467
129.992 909 30.1496
130.108 868 29.4618
130.225 940 30.6594
130.342 988 31.4325
130.459 1049 32.3883
130.576 1154 33.9706
130.693 1119 33.4515
130.81 1130 33.6155
130.928 1116 33.4066
131.045 1100 33.1662
131.162 1124 33.5261
131.279 1137 33.7194
131.396 1119 33.4515
131.513 1110 33.3167
131.631 1098 33.1361
131.748 1031 32.1092
131.865 975 31.225
131.983 889 29.8161
132.1 967 31.0966
132.217 1005 31.7017
132.335 1109 33.3017
132.452 1162 34.0881
132.57 1095 33.0908
132.687 1178 34.322
132.804 1095 33.0908
132.922 1122 33.4963
133.039 1028 32.0624
133.157 1095 33.0908
133.274 1019 31.9218
133.392 1002 31.6544
133.509 991 31.4802
133.627 931 30.5123
133.744 981 31.3209
133.862 942 30.692
133.979 1027 32.0468
134.097 1065 32.6343
134.214 1122 33.4963
134.332 1182 34.3802
134.449 1110 33.3167
134.567 1151 33.9264
134.684 1174 34.2637
134.802 1193 34.5398
134.919 1064 32.619
135.037 1144 33.8231
135.154 1142 33.7935
135.272 1081 32.8786
135.389 990 31.4643
135.507 813 28.5132
135.624 894 29.8998
135.742 960 30.9839
135.859 1088 32.9848
135.977 1067 32.665
136.094 1088 32.9848
136.211 1159 34.0441
136.329 1141 33.7787
136.446 1107 33.2716
136.564 1171 34.2199
136.681 1073 32.7567
136.798 1059 32.5423
136.915 1001 31.6386
137.033 988 31.4325
137.15 972 31.1769
137.267 931 30.5123
137.384 1014 31.8434
137.502 979 31.289
137.619 1096 33.1059
137.736 1095 33.0908
137.853 1098 33.1361
137.97 1140 33.7639
138.087 1127 33.5708
138.204 1148 33.8821
138.321 1111 33.3317
138.438 1162 34.0881
138.555 1213 34.8281
138.672 1136 33.7046
138.788 1079 32.8481
138.905 1084 32.9242
139.022 1019 31.9218
139.139 927 30.4467
139.255 935 30.5778
139.372 1002 31.6544
139.488 1070 32.7109
139.605 1091 33.0303
139.721 1101 33.1813
139.838 1195 34.5688
139.954 1127 33.5708
140.071 1087 32.9697
140.187 1135 33.6898
140.303 1102 33.1964
140.419 1055 32.4808
140.535 1033 32.1403
140.652 975 31.225
140.768 0 1
140.884 0 1
141 0 1
141.115 0 1
141.231 0 1
141.347 0 1
141.463 0 1
141.578 0 1
141.694 0 1
144.104 0 1
144.219 0 1
144.335 0 1
144.45 0 1
144.566 0 1
144.682 0 1
144.798 0 1
144.914 0 1
145.03 0 1
145.146 829 28.7924
145.262 908 30.133
145.378 876 29.5973
145.494 839 28.9655
145.61 906 30.0998
145.726 828 28.775
145.842 778 27.8927
145.959 737 27.1477
146.075 792 28.1425
146.192 788 28.0713
146.308 816 28.5657
146.425 834 28.8791
146.541 864 29.3939
146.658 907 30.1164
146.774 869 29.4788
146.891 930 30.4959
147.008 950 30.8221
147.125 871 29.5127
147.241 925 30.4138
147.358 935 30.5778
147.475 917 30.282
147.592 959 30.9677
147.709 910 30.1662
147.826 881 29.6816
147.943 762 27.6043
148.06 729 27
148.177 750 27.3861
148.294 797 28.2312
148.411 860 29.3258
148.528 925 30.4138
148.645 887 29.7825
148.762 901 30.0167
148.88 937 30.6105
148.997 890 29.8329
149.114 944 30.7246
149.231 894 29.8998
149.349 899 29.9833
149.466 841 29
149.583 823 28.688
149.701 821 28.6531
149.818 743 27.258
149.935 730 27.0185
150.053 784 28
150.17 813 28.5132
150.287 829 28.7924
150.405 867 29.4449
150.522 880 29.6648
150.64 926 30.4302
150.757 908 30.133
150.875 906 30.0998
150.992 935 30.5778
151.11 913 30.2159
151.227 979 31.289
151.344 863 29.3769
151.462 886 29.7658
151.579 892 29.8664
151.697 796 28.2135
151.814 757 27.5136
151.932 742 27.2397
152.049 905 30.0832
152.167 896 29.9333
152.284 943 30.7083
152.402 917 30.282
152.519 933 30.545
152.636 977 31.257
152.754 977 31.257
152.871 949 30.8058
152.989 923 30.3809
153.106 836 28.9137
153.223 840 28.9828
153.341 854 29.2233
153.458 814 28.5307
153.575 814 28.5307
153.693 865 29.4109
153.81 860 29.3258
153.927 946 30.7571
154.044 947 30.7734
154.162 924 30.3974
154.279 960 30.9839
154.396 991 31.4802
154.513 1011 31.7962
154.63 990 31.4643
154.747 1036 32.187
154.864 1065 32.6343
154.981 1006 31.7175
155.098 912 30.1993
155.215 953 30.8707
155.332 852 29.189
155.449 865 29.4109
155.566 881 29.6816
155.683 949 30.8058
155.8 993 31.5119
155.917 954 30.8869
156.033 1028 32.0624
156.15 0 1
156.267 0 1
156.383 0 1
156.5 0 1
156.617 0 1
156.733 0 1
156.85 0 1
156.966 0 1
157.082 0 1
157.199 0 1
157.315 0 1
157.431 0 1
157.547 0 1
157.664 0 1
157.78 0 1
157.896 0 1
158.012 0 1
158.128 0 1
158.244 0 1
158.359 0 1
158.475 0 1
158.591 0 1
158.706 0 1
