
6.15755 0 1
6.2731 0 1
6.3887 0 1
6.50437 0 1
6.62009 0 1
6.73587 0 1
6.8517 0 1
6.96759 0 1
7.08353 0 1
7.19952 0 1
7.31557 0 1
7.43166 0 1
7.54781 0 1
7.664 0 1
7.78024 0 1
7.89653 0 1
8.01286 0 1
8.12924 0 1
8.24567 0 1
8.36213 0 1
8.47864 0 1
8.59519 0 1
8.71178 0 1
8.82841 0 1
8.94508 0 1
9.06179 0 1
9.17853 0 1
9.29531 0 1
9.41212 0 1
9.52897 0 1
9.64584 0 1
9.76276 0 1
9.8797 0 1
9.99667 0 1
10.1137 0 1
10.2307 0 1
10.3478 0 1
10.4648 0 1
10.5819 0 1
10.6991 0 1
10.8162 0 1
10.9334 0 1
11.0506 0 1
11.1678 0 1
11.285 0 1
11.4023 0 1
11.5196 0 1
11.6369 0 1
11.7542 0 1
11.8715 0 1
11.9888 0 1
12.1062 0 1
12.2235 0 1
12.3409 0 1
12.4582 0 1
12.5756 0 1
12.693 0 1
12.8104 0 1
12.9278 0 1
13.0452 0 1
13.1626 0 1
13.28 0 1
13.3974 0 1
13.5149 0 1
13.6323 0 1
13.7497 0 1
13.8671 0 1
13.9845 0 1
14.1019 0 1
14.2193 0 1
14.3367 0 1
14.4541 0 1
14.5714 0 1
14.6888 0 1
14.8062 0 1
14.9235 0 1
15.0408 1010 31.7805
15.1581 1002 31.6544
15.2755 987 31.4166
15.3927 981 31.3209
15.51 939 30.6431
15.6273 934 30.5614
15.7445 950 30.8221
15.8617 864 29.3939
15.9789 895 29.9166
16.0961 837 28.931
16.2132 894 29.8998
16.3304 874 29.5635
16.4475 867 29.4449
16.5646 863 29.3769
16.6816 842 29.0172
16.7986 866 29.4279
16.9156 773 27.8029
17.0326 833 28.8617
17.1496 787 28.0535
17.2665 762 27.6043
17.3833 765 27.6586
17.5002 818 28.6007
17.617 818 28.6007
17.7338 818 28.6007
17.8505 793 28.1603
17.9672 831 28.8271
18.0839 795 28.1957
18.2005 730 27.0185
18.3171 801 28.3019
18.4337 829 28.7924
18.5502 849 29.1376
18.6666 804 28.3549
18.7831 820 28.6356
18.8994 794 28.178
19.0158 779 27.9106
19.1321 716 26.7582
19.2483 657 25.632
19.3645 644 25.3772
19.4806 631 25.1197
19.5967 647 25.4362
19.7128 648 25.4558
19.8288 569 23.8537
19.9447 535 23.1301
20.0606 0 1
20.1764 0 1
20.2922 0 1
20.4079 0 1
20.5236 0 1
20.6392 0 1
20.7548 0 1
20.8702 0 1
23.3078 0 1
23.4233 0 1
23.539 0 1
23.6547 0 1
23.7704 0 1
23.8862 0 1
24.0021 0 1
24.118 0 1
24.234 0 1
24.35 0 1
24.4661 319 17.8606
24.5822 357 18.8944
24.6984 456 21.3542
24.8146 517 22.7376
24.9309 611 24.7184
25.0472 632 25.1396
25.1636 731 27.037
25.28 705 26.5518
25.3965 837 28.931
25.513 849 29.1376
25.6296 846 29.0861
25.7462 904 30.0666
25.8628 833 28.8617
25.9795 923 30.3809
26.0962 820 28.6356
26.213 896 29.9333
26.3298 801 28.3019
26.4466 732 27.0555
26.5635 727 26.9629
26.6804 700 26.4575
26.7973 702 26.4953
26.9143 653 25.5539
27.0313 736 27.1293
27.1483 750 27.3861
27.2653 774 27.8209
27.3824 750 27.3861
27.4996 730 27.0185
27.6167 782 27.9643
27.7339 668 25.8457
27.8511 659 25.671
27.9683 685 26.1725
28.0855 644 25.3772
28.2028 742 27.2397
28.3201 748 27.3496
28.4374 846 29.0861
28.5547 762 27.6043
28.6721 849 29.1376
28.7894 775 27.8388
28.9068 769 27.7308
29.0242 786 28.0357
29.1416 732 27.0555
29.259 795 28.1957
29.3764 762 27.6043
29.4939 719 26.8142
29.6113 734 27.0924
29.7288 714 26.7208
29.8463 685 26.1725
29.9638 725 26.9258
30.0812 645 25.3969
30.1987 665 25.7876
30.3162 677 26.0192
30.4337 682 26.1151
30.5512 688 26.2298
30.6687 719 26.8142
30.7862 768 27.7128
30.9037 767 27.6948
31.0212 734 27.0924
31.1387 802 28.3196
31.2562 755 27.4773
31.3737 690 26.2679
31.4912 749 27.3679
31.6087 750 27.3861
31.7262 696 26.3818
31.8436 744 27.2764
31.9611 728 26.9815
32.0785 745 27.2947
32.1959 806 28.3901
32.3134 704 26.533
32.4308 672 25.923
32.5482 752 27.4226
32.6655 629 25.0799
32.7829 689 26.2488
32.9002 649 25.4755
33.0176 676 26
33.1349 669 25.865
33.2522 638 25.2587
33.3694 632 25.1396
33.4867 655 25.593
33.6039 652 25.5343
33.7211 650 25.4951
33.8383 645 25.3969
33.9554 599 24.4745
34.0725 628 25.0599
34.1896 631 25.1197
34.3067 722 26.8701
34.4237 703 26.5141
34.5407 739 27.1846
34.6577 745 27.2947
34.7746 716 26.7582
34.8915 735 27.1109
35.0084 632 25.1396
35.1252 566 23.7908
35.242 613 24.7588
35.3587 616 24.8193
35.4755 639 25.2784
35.5921 684 26.1534
35.7088 731 27.037
35.8254 700 26.4575
35.9419 716 26.7582
36.0584 664 25.7682
36.1749 611 24.7184
36.2913 664 25.7682
36.4077 603 24.5561
36.524 593 24.3516
36.6403 535 23.1301
36.7565 558 23.622
36.8727 527 22.9565
36.9889 502 22.4054
37.1049 439 20.9523
37.221 0 1
37.3369 0 1
37.4529 0 1
37.5687 0 1
37.6845 0 1
37.8003 0 1
37.916 0 1
38.0316 0 1
38.1472 0 1
40.5851 0 1
40.7008 0 1
40.8164 0 1
40.9322 0 1
41.048 0 1
41.1639 0 1
41.2798 0 1
41.3958 0 1
41.5118 0 1
41.6279 0 1
41.744 314 17.72
41.8602 358 18.9209
41.9765 393 19.8242
42.0928 408 20.199
42.2091 460 21.4476
42.3255 482 21.9545
42.4419 523 22.8692
42.5584 528 22.9783
42.675 545 23.3452
42.7915 510 22.5832
42.9081 562 23.7065
43.0248 520 22.8035
43.1415 488 22.0907
43.2582 527 22.9565
43.375 536 23.1517
43.4918 577 24.0208
43.6087 566 23.7908
43.7256 555 23.5584
43.8425 550 23.4521
43.9595 483 21.9773
44.0765 500 22.3607
44.1935 542 23.2809
44.3106 546 23.3666
44.4277 588 24.2487
44.5448 567 23.8118
44.6619 548 23.4094
44.7791 514 22.6716
44.8963 590 24.2899
45.0136 558 23.622
45.1308 566 23.7908
45.2481 563 23.7276
45.3654 587 24.2281
45.4827 596 24.4131
45.6001 561 23.6854
45.7174 546 23.3666
45.8348 572 23.9165
45.9522 555 23.5584
46.0697 573 23.9374
46.1871 571 23.8956
46.3046 525 22.9129
46.422 531 23.0434
46.5395 508 22.5389
46.657 530 23.0217
46.7745 500 22.3607
46.892 555 23.5584
47.0096 521 22.8254
47.1271 604 24.5764
47.2446 534 23.1084
47.3622 516 22.7156
47.4797 475 21.7945
47.5973 426 20.6398
47.7149 508 22.5389
47.8324 532 23.0651
47.95 523 22.8692
48.0675 550 23.4521
48.1851 591 24.3105
48.3027 569 23.8537
48.4202 547 23.388
48.5378 519 22.7816
48.6554 509 22.561
48.7729 556 23.5797
48.8904 565 23.7697
49.008 554 23.5372
49.1255 558 23.622
49.243 539 23.2164
49.3605 556 23.5797
49.478 519 22.7816
49.5955 547 23.388
49.713 480 21.9089
49.8304 512 22.6274
49.9479 443 21.0476
50.0653 473 21.7486
50.1827 504 22.4499
50.3001 509 22.561
50.4175 511 22.6053
50.5348 526 22.9347
50.6521 533 23.0868
50.7694 532 23.0651
50.8867 527 22.9565
51.004 490 22.1359
51.1212 458 21.4009
51.2384 452 21.2603
51.3556 504 22.4499
51.4727 552 23.4947
51.5899 532 23.0651
51.707 569 23.8537
51.824 575 23.9792
51.9411 547 23.388
52.0581 553 23.516
52.175 550 23.4521
52.2919 539 23.2164
52.4088 524 22.891
52.5257 526 22.9347
52.6425 562 23.7065
52.7593 562 23.7065
52.876 559 23.6432
52.9927 548 23.4094
53.1094 532 23.0651
53.226 497 22.2935
53.3426 501 22.383
53.4591 489 22.1133
53.5756 439 20.9523
53.692 415 20.3715
53.8084 422 20.5426
53.9248 415 20.3715
54.0411 344 18.5472
54.1573 389 19.7231
54.2735 0 1
54.3896 0 1
54.5057 0 1
54.6217 0 1
54.7377 0 1
54.8537 0 1
54.9695 0 1
55.0853 0 1
55.2011 0 1
55.3168 0 1
55.4324 0 1
57.824 0 1
57.9396 0 1
58.0553 0 1
58.1711 0 1
58.2869 0 1
58.4028 0 1
58.5187 0 1
58.6347 0 1
58.7508 0 1
58.8669 0 1
58.983 874 29.5635
59.0992 1307 36.1525
59.2155 1562 39.5221
59.3318 1816 42.6146
59.4482 2150 46.3681
59.5646 2432 49.3153
59.681 2626 51.2445
59.7975 2690 51.8652
59.9141 2778 52.7067
60.0306 2988 54.6626
60.1473 2857 53.4509
60.2639 2935 54.1756
60.3807 2958 54.3875
60.4974 2910 53.9444
60.6142 3013 54.8908
60.731 2874 53.6097
60.8479 2887 53.7308
60.9648 2848 53.3667
61.0818 2607 51.0588
61.1987 2594 50.9313
61.3158 2473 49.7293
61.4328 2246 47.392
61.5499 2057 45.3542
61.667 1843 42.9302
61.7841 1769 42.0595
61.9013 1550 39.37
62.0185 1455 38.1445
62.1357 1319 36.318
62.253 1305 36.1248
62.3702 1159 34.0441
62.4875 1142 33.7935
62.6049 1217 34.8855
62.7222 1223 34.9714
62.8396 1218 34.8999
62.9569 1239 35.1994
63.0743 1155 33.9853
63.1918 1058 32.5269
63.3092 985 31.3847
63.4267 915 30.249
63.5441 835 28.8964
63.6616 791 28.1247
63.7791 768 27.7128
63.8966 716 26.7582
64.0142 670 25.8844
64.1317 642 25.3377
64.2492 668 25.8457
64.3668 594 24.3721
64.4843 645 25.3969
64.6019 594 24.3721
64.7195 632 25.1396
64.837 613 24.7588
64.9546 607 24.6374
65.0722 660 25.6905
65.1898 582 24.1247
65.3074 543 23.3024
65.4249 586 24.2074
65.5425 569 23.8537
65.6601 541 23.2594
65.7777 556 23.5797
65.8952 569 23.8537
66.0128 544 23.3238
66.1304 549 23.4307
66.2479 612 24.7386
66.3655 632 25.1396
66.483 680 26.0768
66.6005 600 24.4949
66.718 667 25.8263
66.8355 643 25.3574
66.953 607 24.6374
67.0705 597 24.4336
67.1879 544 23.3238
67.3054 553 23.516
67.4228 671 25.9037
67.5402 622 24.9399
67.6576 644 25.3772
67.7749 603 24.5561
67.8923 614 24.779
68.0096 573 23.9374
68.1269 608 24.6577
68.2442 524 22.891
68.3614 594 24.3721
68.4787 558 23.622
68.5958 589 24.2693
68.713 589 24.2693
68.8302 592 24.3311
68.9473 601 24.5153
69.0643 594 24.3721
69.1814 589 24.2693
69.2984 643 25.3574
69.4154 562 23.7065
69.5323 519 22.7816
69.6492 555 23.5584
69.7661 551 23.4734
69.8829 572 23.9165
69.9997 609 24.6779
70.1165 578 24.0416
70.2332 587 24.2281
70.3499 526 22.9347
70.4665 546 23.3666
70.5831 497 22.2935
70.6996 401 20.025
70.8161 415 20.3715
70.9326 413 20.3224
71.049 359 18.9473
71.1653 348 18.6548
71.2817 360 18.9737
71.3979 340 18.4391
71.5141 293 17.1172
71.6303 284 16.8523
71.7464 219 14.7986
71.8624 0 1
71.9784 0 1
72.0944 0 1
72.2102 0 1
72.3261 0 1
72.4418 0 1
72.5575 0 1
72.6732 0 1
75.1054 0 1
75.2209 0 1
75.3365 0 1
75.4521 0 1
75.5678 0 1
75.6835 0 1
75.7993 0 1
75.9151 0 1
76.031 0 1
76.147 362 19.0263
76.263 434 20.8327
76.3791 464 21.5407
76.4952 479 21.8861
76.6113 516 22.7156
76.7276 497 22.2935
76.8438 537 23.1733
76.9601 539 23.2164
77.0765 514 22.6716
77.1929 538 23.1948
77.3093 500 22.3607
77.4258 487 22.0681
77.5423 539 23.2164
77.6589 496 22.2711
77.7755 526 22.9347
77.8921 540 23.2379
78.0088 493 22.2036
78.1256 478 21.8632
78.2423 470 21.6795
78.3591 491 22.1585
78.4759 462 21.4942
78.5928 474 21.7715
78.7097 459 21.4243
78.8266 410 20.2485
78.9436 449 21.1896
79.0606 468 21.6333
79.1776 477 21.8403
79.2946 454 21.3073
79.4117 556 23.5797
79.5288 532 23.0651
79.6459 569 23.8537
79.7631 490 22.1359
79.8802 501 22.383
79.9974 490 22.1359
80.1147 521 22.8254
80.2319 505 22.4722
80.3491 526 22.9347
80.4664 541 23.2594
80.5837 540 23.2379
80.701 554 23.5372
80.8183 548 23.4094
80.9357 539 23.2164
81.053 534 23.1084
81.1704 568 23.8328
81.2877 536 23.1517
81.4051 475 21.7945
81.5225 568 23.8328
81.6399 549 23.4307
81.7573 589 24.2693
81.8747 515 22.6936
81.9922 522 22.8473
82.1096 437 20.9045
82.227 492 22.1811
82.3444 468 21.6333
82.4619 477 21.8403
82.5793 481 21.9317
82.6967 481 21.9317
82.8142 500 22.3607
82.9316 569 23.8537
83.049 569 23.8537
83.1664 564 23.7487
83.2838 571 23.8956
83.4012 560 23.6643
83.5186 516 22.7156
83.636 522 22.8473
83.7534 492 22.1811
83.8708 545 23.3452
83.9881 491 22.1585
84.1055 514 22.6716
84.2228 559 23.6432
84.3401 553 23.516
84.4575 568 23.8328
84.5747 543 23.3024
84.692 550 23.4521
84.8093 561 23.6854
84.9265 543 23.3024
85.0437 500 22.3607
85.1609 571 23.8956
85.2781 554 23.5372
85.3952 513 22.6495
85.5123 502 22.4054
85.6294 498 22.3159
85.7465 490 22.1359
85.8636 486 22.0454
85.9806 497 22.2935
86.0976 540 23.2379
86.2145 539 23.2164
86.3315 514 22.6716
86.4484 505 22.4722
86.5652 559 23.6432
86.682 574 23.9583
86.7988 526 22.9347
86.9156 523 22.8692
87.0323 553 23.516
87.149 557 23.6008
87.2657 518 22.7596
87.3823 480 21.9089
87.4988 510 22.5832
87.6154 502 22.4054
87.7318 486 22.0454
87.8483 488 22.0907
87.9647 471 21.7025
88.081 427 20.664
88.1973 385 19.6214
88.3136 372 19.2873
88.4298 363 19.0526
88.546 326 18.0555
88.6621 324 18
88.7781 300 17.3205
88.8942 0 1
89.0101 0 1
89.126 0 1
89.2419 0 1
89.3577 0 1
89.4734 0 1
89.5891 0 1
89.7047 0 1
89.8203 0 1
89.9358 0 1
92.3269 0 1
92.4424 0 1
92.558 0 1
92.6736 0 1
92.7893 0 1
92.905 0 1
93.0208 0 1
93.1366 0 1
93.2525 0 1
93.3685 0 1
93.4845 0 1
93.6005 445 21.095
93.7167 462 21.4942
93.8328 490 22.1359
93.949 559 23.6432
94.0653 557 23.6008
94.1816 553 23.516
94.2979 553 23.516
94.4143 582 24.1247
94.5307 499 22.3383
94.6472 498 22.3159
94.7637 517 22.7376
94.8803 487 22.0681
94.9969 487 22.0681
95.1135 517 22.7376
95.2302 490 22.1359
95.3469 563 23.7276
95.4637 559 23.6432
95.5805 559 23.6432
95.6973 591 24.3105
95.8142 552 23.4947
95.9311 553 23.516
96.048 568 23.8328
96.1649 545 23.3452
96.2819 573 23.9374
96.3989 553 23.516
96.516 541 23.2594
96.633 574 23.9583
96.7501 605 24.5967
96.8673 592 24.3311
96.9844 613 24.7588
97.1016 578 24.0416
97.2188 560 23.6643
97.336 587 24.2281
97.4532 552 23.4947
97.5704 560 23.6643
97.6877 599 24.4745
97.805 598 24.454
97.9223 546 23.3666
98.0396 579 24.0624
98.1569 556 23.5797
98.2743 551 23.4734
98.3916 572 23.9165
98.509 578 24.0416
98.6264 533 23.0868
98.7438 532 23.0651
98.8612 579 24.0624
98.9786 542 23.2809
99.096 590 24.2899
99.2134 588 24.2487
99.3308 654 25.5734
99.4482 610 24.6982
99.5656 627 25.04
99.6831 565 23.7697
99.8005 645 25.3969
99.9179 627 25.04
100.035 624 24.98
100.153 589 24.2693
100.27 582 24.1247
100.388 614 24.779
100.505 649 25.4755
100.622 611 24.7184
100.74 557 23.6008
100.857 558 23.622
100.975 608 24.6577
101.092 613 24.7588
101.209 577 24.0208
101.327 618 24.8596
101.444 609 24.6779
101.561 565 23.7697
101.679 617 24.8395
101.796 579 24.0624
101.913 606 24.6171
102.03 615 24.7992
102.148 591 24.3105
102.265 612 24.7386
102.382 585 24.1868
102.499 586 24.2074
102.616 658 25.6515
102.733 635 25.1992
102.851 625 25
102.968 647 25.4362
103.085 694 26.3439
103.202 660 25.6905
103.319 653 25.5539
103.436 635 25.1992
103.552 595 24.3926
103.669 599 24.4745
103.786 661 25.7099
103.903 651 25.5147
104.02 613 24.7588
104.137 602 24.5357
104.253 604 24.5764
104.37 615 24.7992
104.487 635 25.1992
104.603 597 24.4336
104.72 574 23.9583
104.836 617 24.8395
104.953 579 24.0624
105.069 578 24.0416
105.186 552 23.4947
105.302 539 23.2164
105.418 505 22.4722
105.535 415 20.3715
105.651 411 20.2731
105.767 377 19.4165
105.883 329 18.1384
105.999 357 18.8944
106.115 0 1
106.231 0 1
106.347 0 1
106.463 0 1
106.579 0 1
106.694 0 1
106.81 0 1
106.926 0 1
107.041 0 1
107.157 0 1
109.576 0 1
109.692 0 1
109.807 0 1
109.923 0 1
110.039 0 1
110.155 0 1
110.27 0 1
110.386 0 1
110.502 0 1
110.618 322 17.9444
110.735 371 19.2614
110.851 453 21.2838
110.967 484 22
111.083 467 21.6102
111.199 543 23.3024
111.316 600 24.4949
111.432 548 23.4094
111.549 626 25.02
111.665 576 24
111.782 556 23.5797
111.898 600 24.4949
112.015 588 24.2487
112.132 641 25.318
112.248 583 24.1454
112.365 625 25
112.482 604 24.5764
112.599 589 24.2693
112.716 561 23.6854
112.832 584 24.1661
112.949 546 23.3666
113.066 560 23.6643
113.183 581 24.1039
113.3 555 23.5584
113.417 534 23.1084
113.534 554 23.5372
113.652 529 23
113.769 546 23.3666
113.886 517 22.7376
114.003 534 23.1084
114.12 529 23
114.238 584 24.1661
114.355 556 23.5797
114.472 569 23.8537
114.589 467 21.6102
114.707 524 22.891
114.824 523 22.8692
114.942 543 23.3024
115.059 601 24.5153
115.176 571 23.8956
115.294 552 23.4947
115.411 523 22.8692
115.529 527 22.9565
115.646 572 23.9165
115.764 501 22.383
115.881 533 23.0868
115.999 496 22.2711
116.116 555 23.5584
116.234 520 22.8035
116.351 560 23.6643
116.469 544 23.3238
116.586 505 22.4722
116.704 522 22.8473
116.821 520 22.8035
116.939 483 21.9773
117.056 460 21.4476
117.174 509 22.561
117.291 478 21.8632
117.409 450 21.2132
117.526 489 22.1133
117.644 496 22.2711
117.761 560 23.6643
117.879 557 23.6008
117.996 500 22.3607
118.114 499 22.3383
118.231 480 21.9089
118.349 443 21.0476
118.466 516 22.7156
118.584 515 22.6936
118.701 531 23.0434
118.819 514 22.6716
118.936 490 22.1359
119.053 465 21.5639
119.171 509 22.561
119.288 513 22.6495
119.405 501 22.383
119.523 461 21.4709
119.64 506 22.4944
119.757 565 23.7697
119.875 508 22.5389
119.992 471 21.7025
120.109 524 22.891
120.226 473 21.7486
120.343 477 21.8403
120.46 496 22.2711
120.578 475 21.7945
120.695 473 21.7486
120.812 447 21.1424
120.929 460 21.4476
121.046 439 20.9523
121.163 399 19.975
121.279 444 21.0713
121.396 481 21.9317
121.513 515 22.6936
121.63 480 21.9089
121.747 451 21.2368
121.863 418 20.445
121.98 388 19.6977
122.097 411 20.2731
122.213 403 20.0749
122.33 407 20.1742
122.446 388 19.6977
122.563 339 18.412
122.679 327 18.0831
122.795 357 18.8944
122.912 304 17.4356
123.028 284 16.8523
123.144 291 17.0587
123.26 255 15.9687
123.377 0 1
123.493 0 1
123.609 0 1
123.725 0 1
123.84 0 1
123.956 0 1
124.072 0 1
124.188 0 1
124.303 0 1
124.419 0 1
126.852 0 1
126.968 0 1
127.083 0 1
127.199 0 1
127.315 0 1
127.431 0 1
127.547 0 1
127.663 0 1
127.779 0 1
127.895 0 1
128.011 0 1
128.127 0 1
128.243 0 1
128.359 561 23.6854
128.476 531 23.0434
128.592 513 22.6495
128.708 562 23.7065
128.825 552 23.4947
128.941 585 24.1868
129.058 578 24.0416
129.174 567 23.8118
129.291 550 23.4521
129.408 523 22.8692
129.524 544 23.3238
129.641 573 23.9374
129.758 533 23.0868
129.875 514 22.6716
129.992 544 23.3238
130.108 514 22.6716
130.225 492 22.1811
130.342 569 23.8537
130.459 585 24.1868
130.576 646 25.4165
130.693 653 25.5539
130.81 703 26.5141
130.928 639 25.2784
131.045 653 25.5539
131.162 699 26.4386
131.279 777 27.8747
131.396 824 28.7054
131.513 822 28.6705
131.631 877 29.6142
131.748 843 29.0345
131.865 924 30.3974
131.983 958 30.9516
132.1 1046 32.3419
132.217 1114 33.3766
132.335 1108 33.2866
132.452 1125 33.541
132.57 1272 35.6651
132.687 1186 34.4384
132.804 1224 34.9857
132.922 1260 35.4965
133.039 1288 35.8887
133.157 1366 36.9594
133.274 1345 36.6742
133.392 1307 36.1525
133.509 1327 36.428
133.627 1306 36.1386
133.744 1299 36.0416
133.862 1323 36.3731
133.979 1330 36.4692
134.097 1270 35.6371
134.214 1363 36.9188
134.332 1287 35.8748
134.449 1297 36.0139
134.567 1266 35.5809
134.684 1260 35.4965
134.802 1290 35.9166
134.919 1358 36.8511
135.037 1349 36.7287
135.154 1274 35.6931
135.272 1192 34.5254
135.389 1295 35.9861
135.507 1381 37.1618
135.624 1425 37.7492
135.742 1444 38
135.859 1519 38.9744
135.977 1472 38.3667
136.094 1495 38.6652
136.211 1403 37.4566
136.329 1431 37.8286
136.446 1427 37.7757
136.564 1418 37.6563
136.681 1401 37.4299
136.798 1437 37.9078
136.915 1425 37.7492
137.033 1432 37.8418
137.15 1413 37.5899
137.267 1408 37.5233
137.384 1360 36.8782
137.502 1319 36.318
137.619 1350 36.7423
137.736 1292 35.9444
137.853 1262 35.5246
137.97 1240 35.2136
138.087 1215 34.8569
138.204 1248 35.327
138.321 1279 35.7631
138.438 1266 35.5809
138.555 1251 35.3695
138.672 1337 36.565
138.788 1188 34.4674
138.905 1047 32.3574
139.022 1113 33.3617
139.139 1134 33.6749
139.255 1129 33.6006
139.372 1110 33.3167
139.488 1069 32.6956
139.605 1113 33.3617
139.721 978 31.273
139.838 859 29.3087
139.954 859 29.3087
140.071 751 27.4044
140.187 733 27.074
140.303 784 28
140.419 678 26.0384
140.535 660 25.6905
140.652 594 24.3721
140.768 0 1
140.884 0 1
141 0 1
141.115 0 1
141.231 0 1
141.347 0 1
141.463 0 1
141.578 0 1
141.694 0 1
144.104 0 1
144.219 0 1
144.335 0 1
144.45 0 1
144.566 0 1
144.682 0 1
144.798 0 1
144.914 0 1
145.03 0 1
145.146 1189 34.4819
145.262 1137 33.7194
145.378 1273 35.6791
145.494 1247 35.3129
145.61 1283 35.819
145.726 1319 36.318
145.842 1391 37.2961
145.959 1259 35.4824
146.075 1333 36.5103
146.192 1329 36.4555
146.308 1216 34.8712
146.425 1241 35.2278
146.541 1284 35.8329
146.658 1352 36.7696
146.774 1398 37.3898
146.891 1457 38.1707
147.008 1447 38.0395
147.125 1381 37.1618
147.241 1420 37.6829
147.358 1529 39.1024
147.475 1545 39.3065
147.592 1389 37.2693
147.709 1280 35.7771
147.826 1268 35.609
147.943 1299 36.0416
148.06 1330 36.4692
148.177 1391 37.2961
148.294 1426 37.7624
148.411 1458 38.1838
148.528 1416 37.6298
148.645 1384 37.2022
148.762 1354 36.7967
148.88 1314 36.2491
148.997 1419 37.6696
149.114 1284 35.8329
149.231 1330 36.4692
149.349 1307 36.1525
149.466 1303 36.0971
149.583 1307 36.1525
149.701 1295 35.9861
149.818 1294 35.9722
149.935 1125 33.541
150.053 1187 34.4529
150.17 1196 34.5832
150.287 1203 34.6843
150.405 1212 34.8138
150.522 1267 35.5949
150.64 1306 36.1386
150.757 1201 34.6554
150.875 1168 34.176
150.992 1191 34.5109
151.11 1269 35.623
151.227 1109 33.3017
151.344 1096 33.1059
151.462 1099 33.1512
151.579 1102 33.1964
151.697 1104 33.2265
151.814 1204 34.6987
151.932 1168 34.176
152.049 1210 34.7851
152.167 1191 34.5109
152.284 1271 35.6511
152.402 1149 33.8969
152.519 1210 34.7851
152.636 1153 33.9559
152.754 1180 34.3511
152.871 1107 33.2716
152.989 1116 33.4066
153.106 1086 32.9545
153.223 1091 33.0303
153.341 1031 32.1092
153.458 958 30.9516
153.575 937 30.6105
153.693 1008 31.749
153.81 961 31
153.927 1017 31.8904
154.044 1000 31.6228
154.162 986 31.4006
154.279 1019 31.9218
154.396 946 30.7571
154.513 978 31.273
154.63 923 30.3809
154.747 923 30.3809
154.864 949 30.8058
154.981 883 29.7153
155.098 860 29.3258
155.215 897 29.95
155.332 940 30.6594
155.449 923 30.3809
155.566 917 30.282
155.683 923 30.3809
155.8 862 29.3598
155.917 874 29.5635
156.033 877 29.6142
156.15 0 1
156.267 0 1
156.383 0 1
156.5 0 1
156.617 0 1
156.733 0 1
156.85 0 1
156.966 0 1
157.082 0 1
157.199 0 1
157.315 0 1
157.431 0 1
157.547 0 1
157.664 0 1
157.78 0 1
157.896 0 1
158.012 0 1
158.128 0 1
158.244 0 1
158.359 0 1
158.475 0 1
158.591 0 1
158.706 0 1
