
6.15755 0 1
6.2731 0 1
6.3887 0 1
6.50437 0 1
6.62009 0 1
6.73587 0 1
6.8517 0 1
6.96759 0 1
7.08353 0 1
7.19952 0 1
7.31557 0 1
7.43166 0 1
7.54781 0 1
7.664 0 1
7.78024 0 1
7.89653 0 1
8.01286 0 1
8.12924 0 1
8.24567 0 1
8.36213 0 1
8.47864 0 1
8.59519 0 1
8.71178 0 1
8.82841 0 1
8.94508 0 1
9.06179 0 1
9.17853 0 1
9.29531 0 1
9.41212 0 1
9.52897 0 1
9.64584 0 1
9.76276 0 1
9.8797 0 1
9.99667 0 1
10.1137 0 1
10.2307 0 1
10.3478 0 1
10.4648 0 1
10.5819 0 1
10.6991 0 1
10.8162 0 1
10.9334 0 1
11.0506 0 1
11.1678 0 1
11.285 0 1
11.4023 0 1
11.5196 0 1
11.6369 0 1
11.7542 0 1
11.8715 0 1
11.9888 0 1
12.1062 0 1
12.2235 0 1
12.3409 0 1
12.4582 0 1
12.5756 0 1
12.693 0 1
12.8104 0 1
12.9278 0 1
13.0452 0 1
13.1626 0 1
13.28 0 1
13.3974 0 1
13.5149 0 1
13.6323 0 1
13.7497 0 1
13.8671 0 1
13.9845 0 1
14.1019 0 1
14.2193 0 1
14.3367 0 1
14.4541 0 1
14.5714 0 1
14.6888 0 1
14.8062 0 1
14.9235 0 1
15.0408 0 0
15.1581 0 0
15.2755 0 0
15.3927 0 0
15.51 0 0
15.6273 0 0
15.7445 0 0
15.8617 0 0
15.9789 0 0
16.0961 0 0
16.2132 0 0
16.3304 0 0
16.4475 0 0
16.5646 0 0
16.6816 0 0
16.7986 0 0
16.9156 0 0
17.0326 0 0
17.1496 0 0
17.2665 0 0
17.3833 0 0
17.5002 0 0
17.617 0 0
17.7338 0 0
17.8505 0 0
17.9672 0 0
18.0839 0 0
18.2005 0 0
18.3171 0 0
18.4337 0 0
18.5502 0 0
18.6666 0 0
18.7831 0 0
18.8994 0 0
19.0158 0 0
19.1321 0 0
19.2483 0 0
19.3645 0 0
19.4806 0 0
19.5967 0 0
19.7128 0 0
19.8288 0 0
19.9447 0 0
20.0606 0 1
20.1764 0 1
20.2922 0 1
20.4079 0 1
20.5236 0 1
20.6392 0 1
20.7548 0 1
20.8702 0 1
23.3078 0 1
23.4233 0 1
23.539 0 1
23.6547 0 1
23.7704 0 1
23.8862 0 1
24.0021 0 1
24.118 0 1
24.234 0 1
24.35 0 1
24.4661 1460 38.2099
24.5822 1451 38.092
24.6984 1393 37.3229
24.8146 1424 37.7359
24.9309 1387 37.2424
25.0472 1335 36.5377
25.1636 1395 37.3497
25.28 1411 37.5633
25.3965 1580 39.7492
25.513 1556 39.4462
25.6296 1674 40.9145
25.7462 1639 40.4846
25.8628 1609 40.1123
25.9795 1645 40.5586
26.0962 1635 40.4351
26.213 1763 41.9881
26.3298 1622 40.2741
26.4466 1567 39.5854
26.5635 1528 39.0896
26.6804 1483 38.5097
26.7973 1503 38.7685
26.9143 1524 39.0384
27.0313 1521 39
27.1483 1550 39.37
27.2653 1643 40.5339
27.3824 1611 40.1373
27.4996 1639 40.4846
27.6167 1627 40.3361
27.7339 1627 40.3361
27.8511 1596 39.95
27.9683 1650 40.6202
28.0855 1449 38.0657
28.2028 1482 38.4968
28.3201 1415 37.6165
28.4374 1338 36.5787
28.5547 1353 36.7831
28.6721 1332 36.4966
28.7894 1461 38.223
28.9068 1335 36.5377
29.0242 1527 39.0768
29.1416 1578 39.724
29.259 1563 39.5348
29.3764 1468 38.3145
29.4939 1546 39.3192
29.6113 1589 39.8623
29.7288 1498 38.704
29.8463 1512 38.8844
29.9638 1487 38.5616
30.0812 1444 38
30.1987 1371 37.027
30.3162 1424 37.7359
30.4337 1428 37.7889
30.5512 1502 38.7556
30.6687 1545 39.3065
30.7862 1571 39.6358
30.9037 1514 38.9102
31.0212 1593 39.9124
31.1387 1591 39.8873
31.2562 1563 39.5348
31.3737 1552 39.3954
31.4912 1513 38.8973
31.6087 1462 38.2361
31.7262 1553 39.4081
31.8436 1421 37.6962
31.9611 1347 36.7015
32.0785 1243 35.2562
32.1959 1268 35.609
32.3134 1380 37.1484
32.4308 1443 37.9868
32.5482 1479 38.4578
32.6655 1588 39.8497
32.7829 1590 39.8748
32.9002 1600 40
33.0176 1596 39.95
33.1349 1553 39.4081
33.2522 1586 39.8246
33.3694 1589 39.8623
33.4867 1578 39.724
33.6039 1465 38.2753
33.7211 1460 38.2099
33.8383 1410 37.55
33.9554 1356 36.8239
34.0725 1447 38.0395
34.1896 1480 38.4708
34.3067 1511 38.8716
34.4237 1525 39.0512
34.5407 1592 39.8999
34.6577 1617 40.2119
34.7746 1621 40.2616
34.8915 1566 39.5727
35.0084 1531 39.128
35.1252 1505 38.7943
35.242 1564 39.5474
35.3587 1551 39.3827
35.4755 1497 38.6911
35.5921 1360 36.8782
35.7088 1295 35.9861
35.8254 1237 35.171
35.9419 1339 36.5923
36.0584 1346 36.6879
36.1749 1401 37.4299
36.2913 1475 38.4057
36.4077 1487 38.5616
36.524 1531 39.128
36.6403 1549 39.3573
36.7565 1620 40.2492
36.8727 1573 39.6611
36.9889 1534 39.1663
37.1049 1552 39.3954
37.221 0 1
37.3369 0 1
37.4529 0 1
37.5687 0 1
37.6845 0 1
37.8003 0 1
37.916 0 1
38.0316 0 1
38.1472 0 1
40.5851 0 1
40.7008 0 1
40.8164 0 1
40.9322 0 1
41.048 0 1
41.1639 0 1
41.2798 0 1
41.3958 0 1
41.5118 0 1
41.6279 0 1
41.744 1310 36.1939
41.8602 1323 36.3731
41.9765 1302 36.0832
42.0928 1331 36.4829
42.2091 1346 36.6879
42.3255 1268 35.609
42.4419 1228 35.0428
42.5584 1198 34.6121
42.675 1160 34.0588
42.7915 1227 35.0286
42.9081 1295 35.9861
43.0248 1259 35.4824
43.1415 1331 36.4829
43.2582 1271 35.6511
43.375 1316 36.2767
43.4918 1361 36.8917
43.6087 1355 36.8103
43.7256 1302 36.0832
43.8425 1281 35.7911
43.9595 1251 35.3695
44.0765 1209 34.7707
44.1935 1150 33.9116
44.3106 1184 34.4093
44.4277 1138 33.7343
44.5448 989 31.4484
44.6619 966 31.0805
44.7791 1044 32.311
44.8963 1054 32.4654
45.0136 1084 32.9242
45.1308 1045 32.3265
45.2481 1143 33.8083
45.3654 1158 34.0294
45.4827 1132 33.6452
45.6001 1141 33.7787
45.7174 1156 34
45.8348 1095 33.0908
45.9522 1108 33.2866
46.0697 1001 31.6386
46.1871 976 31.241
46.3046 944 30.7246
46.422 967 31.0966
46.5395 1009 31.7648
46.657 1053 32.45
46.7745 986 31.4006
46.892 1076 32.8024
47.0096 1054 32.4654
47.1271 1104 33.2265
47.2446 1067 32.665
47.3622 1017 31.8904
47.4797 1085 32.9393
47.5973 1001 31.6386
47.7149 950 30.8221
47.8324 891 29.8496
47.95 910 30.1662
48.0675 844 29.0517
48.1851 764 27.6405
48.3027 764 27.6405
48.4202 872 29.5296
48.5378 856 29.2575
48.6554 855 29.2404
48.7729 941 30.6757
48.8904 955 30.9031
49.008 948 30.7896
49.1255 972 31.1769
49.243 952 30.8545
49.3605 950 30.8221
49.478 903 30.05
49.5955 897 29.95
49.713 846 29.0861
49.8304 814 28.5307
49.9479 935 30.5778
50.0653 1032 32.1248
50.1827 1052 32.4345
50.3001 1018 31.9061
50.4175 1115 33.3916
50.5348 1057 32.5115
50.6521 1164 34.1174
50.7694 1185 34.4238
50.8867 1109 33.3017
51.004 1171 34.2199
51.1212 1186 34.4384
51.2384 1171 34.2199
51.3556 1152 33.9411
51.4727 1132 33.6452
51.5899 1083 32.909
51.707 1027 32.0468
51.824 1035 32.1714
51.9411 1096 33.1059
52.0581 1187 34.4529
52.175 1344 36.6606
52.2919 1349 36.7287
52.4088 1370 37.0135
52.5257 1422 37.7094
52.6425 1412 37.5766
52.7593 1429 37.8021
52.876 1438 37.921
52.9927 1492 38.6264
53.1094 1412 37.5766
53.226 1425 37.7492
53.3426 1334 36.524
53.4591 1391 37.2961
53.5756 1424 37.7359
53.692 1467 38.3014
53.8084 1497 38.6911
53.9248 1590 39.8748
54.0411 1532 39.1408
54.1573 1571 39.6358
54.2735 0 1
54.3896 0 1
54.5057 0 1
54.6217 0 1
54.7377 0 1
54.8537 0 1
54.9695 0 1
55.0853 0 1
55.2011 0 1
55.3168 0 1
55.4324 0 1
57.824 0 1
57.9396 0 1
58.0553 0 1
58.1711 0 1
58.2869 0 1
58.4028 0 1
58.5187 0 1
58.6347 0 1
58.7508 0 1
58.8669 0 1
58.983 1937 44.0114
59.0992 1994 44.6542
59.2155 2045 45.2217
59.3318 2080 45.607
59.4482 2080 45.607
59.5646 2046 45.2327
59.681 2070 45.4973
59.7975 2032 45.0777
59.9141 1817 42.6263
60.0306 1760 41.9524
60.1473 1676 40.939
60.2639 1685 41.0488
60.3807 1494 38.6523
60.4974 1472 38.3667
60.6142 1583 39.7869
60.731 1708 41.328
60.8479 1826 42.7317
60.9648 1864 43.1741
61.0818 1926 43.8862
61.1987 1967 44.3509
61.3158 2010 44.833
61.4328 1880 43.359
61.5499 1869 43.2319
61.667 1872 43.2666
61.7841 1765 42.0119
61.9013 1817 42.6263
62.0185 1699 41.2189
62.1357 1708 41.328
62.253 1867 43.2088
62.3702 1892 43.4971
62.4875 1976 44.4522
62.6049 1978 44.4747
62.7222 2002 44.7437
62.8396 2000 44.7214
62.9569 2064 45.4313
63.0743 2051 45.288
63.1918 1985 44.5533
63.3092 1937 44.0114
63.4267 1834 42.8252
63.5441 1776 42.1426
63.6616 1637 40.4599
63.7791 1589 39.8623
63.8966 1558 39.4715
64.0142 1480 38.4708
64.1317 1540 39.2428
64.2492 1664 40.7922
64.3668 1848 42.9884
64.4843 1824 42.7083
64.6019 1934 43.9773
64.7195 1821 42.6732
64.837 1922 43.8406
64.9546 1942 44.0681
65.0722 1930 43.9318
65.1898 1858 43.1045
65.3074 1866 43.1972
65.4249 1685 41.0488
65.5425 1674 40.9145
65.6601 1672 40.8901
65.7777 1733 41.6293
65.8952 1887 43.4396
66.0128 1831 42.7902
66.1304 1937 44.0114
66.2479 2003 44.7549
66.3655 2015 44.8888
66.483 2054 45.3211
66.6005 2050 45.2769
66.718 1998 44.699
66.8355 1950 44.1588
66.953 2029 45.0444
67.0705 1963 44.3058
67.1879 1819 42.6497
67.3054 1681 41
67.4228 1522 39.0128
67.5402 1511 38.8716
67.6576 1495 38.6652
67.7749 1469 38.3275
67.8923 1805 42.4853
68.0096 1874 43.2897
68.1269 2027 45.0222
68.2442 2049 45.2659
68.3614 2164 46.5188
68.4787 2140 46.2601
68.5958 2129 46.1411
68.713 2137 46.2277
68.8302 2109 45.9239
68.9473 2050 45.2769
69.0643 1958 44.2493
69.1814 1916 43.7721
69.2984 1889 43.4626
69.4154 1992 44.6318
69.5323 2106 45.8912
69.6492 2233 47.2546
69.7661 2226 47.1805
69.8829 2311 48.0729
69.9997 2387 48.8569
70.1165 2347 48.4458
70.2332 2381 48.7955
70.3499 2386 48.8467
70.4665 2336 48.3322
70.5831 2325 48.2183
70.6996 2177 46.6583
70.8161 2157 46.4435
70.9326 2008 44.8107
71.049 1750 41.833
71.1653 1656 40.694
71.2817 1529 39.1024
71.3979 1620 40.2492
71.5141 1731 41.6053
71.6303 1881 43.3705
71.7464 1895 43.5316
71.8624 0 1
71.9784 0 1
72.0944 0 1
72.2102 0 1
72.3261 0 1
72.4418 0 1
72.5575 0 1
72.6732 0 1
75.1054 0 1
75.2209 0 1
75.3365 0 1
75.4521 0 1
75.5678 0 1
75.6835 0 1
75.7993 0 1
75.9151 0 1
76.031 0 1
76.147 2286 47.8121
76.263 2260 47.5395
76.3791 2128 46.1303
76.4952 1849 43
76.6113 1738 41.6893
76.7276 1885 43.4166
76.8438 1977 44.4635
76.9601 2291 47.8644
77.0765 2529 50.2892
77.1929 2637 51.3517
77.3093 2690 51.8652
77.4258 2736 52.3068
77.5423 2662 51.5946
77.6589 2702 51.9808
77.7755 2522 50.2195
77.8921 2631 51.2933
78.0088 2582 50.8134
78.1256 2413 49.1223
78.2423 2402 49.0102
78.3591 2355 48.5283
78.4759 2390 48.8876
78.5928 2548 50.4777
78.7097 2537 50.3686
78.8266 2808 52.9906
78.9436 2746 52.4023
79.0606 2981 54.5985
79.1776 2761 52.5452
79.2946 2930 54.1295
79.4117 2860 53.479
79.5288 2828 53.1789
79.6459 2780 52.7257
79.7631 2671 51.6817
79.8802 2637 51.3517
79.9974 2342 48.3942
80.1147 2093 45.7493
80.2319 1937 44.0114
80.3491 2007 44.7996
80.4664 2144 46.3033
80.5837 2322 48.1871
80.701 2681 51.7784
80.8183 2816 53.066
80.9357 2768 52.6118
81.053 2883 53.6936
81.1704 2846 53.3479
81.2877 2923 54.0648
81.4051 2935 54.1756
81.5225 2884 53.7029
81.6399 2774 52.6688
81.7573 2721 52.1632
81.8747 2489 49.8899
81.9922 2529 50.2892
82.1096 2655 51.5267
82.227 2614 51.1273
82.3444 2762 52.5547
82.4619 2943 54.2494
82.5793 2872 53.591
82.6967 3158 56.1961
82.8142 3035 55.0908
82.9316 3036 55.0999
83.049 3005 54.8179
83.1664 3013 54.8908
83.2838 2918 54.0185
83.4012 2816 53.066
83.5186 2707 52.0288
83.636 2428 49.2747
83.7534 2251 47.4447
83.8708 1997 44.6878
83.9881 2036 45.1221
84.1055 2227 47.1911
84.2228 2391 48.8979
84.3401 2701 51.9711
84.4575 2890 53.7587
84.5747 3098 55.6597
84.692 3087 55.5608
84.8093 3117 55.8301
84.9265 3088 55.5698
85.0437 3110 55.7674
85.1609 3045 55.1815
85.2781 3049 55.2178
85.3952 2880 53.6656
85.5123 2884 53.7029
85.6294 2793 52.8488
85.7465 3045 55.1815
85.8636 3100 55.6776
85.9806 3338 57.7754
86.0976 3397 58.2838
86.2145 3568 59.7327
86.3315 3573 59.7746
86.4484 3834 61.9193
86.5652 3673 60.6053
86.682 3665 60.5392
86.7988 3766 61.3677
86.9156 3602 60.0167
87.0323 3580 59.8331
87.149 3312 57.55
87.2657 3151 56.1338
87.3823 2823 53.1319
87.4988 2700 51.9615
87.6154 2845 53.3385
87.7318 3173 56.3294
87.8483 3535 59.4559
87.9647 3833 61.9112
88.081 4036 63.5295
88.1973 4198 64.792
88.3136 4324 65.7571
88.4298 4162 64.5136
88.546 4283 65.4446
88.6621 4159 64.4903
88.7781 3894 62.4019
88.8942 0 1
89.0101 0 1
89.126 0 1
89.2419 0 1
89.3577 0 1
89.4734 0 1
89.5891 0 1
89.7047 0 1
89.8203 0 1
89.9358 0 1
92.3269 0 1
92.4424 0 1
92.558 0 1
92.6736 0 1
92.7893 0 1
92.905 0 1
93.0208 0 1
93.1366 0 1
93.2525 0 1
93.3685 0 1
93.4845 0 1
93.6005 4671 68.3447
93.7167 4765 69.029
93.8328 4793 69.2315
93.949 4735 68.8113
94.0653 4655 68.2276
94.1816 4517 67.2086
94.2979 4576 67.6461
94.4143 4473 66.8805
94.5307 4334 65.8331
94.6472 4280 65.4217
94.7637 4215 64.923
94.8803 4218 64.9461
94.9969 4563 67.55
95.1135 4685 68.4471
95.2302 4931 70.2211
95.3469 4929 70.2068
95.4637 5010 70.7814
95.5805 5031 70.9295
95.6973 5211 72.1873
95.8142 5245 72.4224
95.9311 5169 71.8958
96.048 5006 70.7531
96.1649 4798 69.2676
96.2819 4698 68.542
96.3989 4398 66.3174
96.516 3972 63.0238
96.633 3670 60.5805
96.7501 3711 60.918
96.8673 3845 62.0081
96.9844 4169 64.5678
97.1016 4747 68.8985
97.2188 5177 71.9514
97.336 5566 74.6056
97.4532 5439 73.7496
97.5704 5518 74.2832
97.6877 5554 74.5252
97.805 5416 73.5935
97.9223 5373 73.3008
98.0396 5203 72.1318
98.1569 4951 70.3633
98.2743 4995 70.6753
98.3916 4902 70.0143
98.509 4921 70.1498
98.6264 5070 71.2039
98.7438 5343 73.0958
98.8612 5362 73.2257
98.9786 5720 75.6307
99.096 5846 76.4591
99.2134 5745 75.7958
99.3308 5806 76.1971
99.4482 5941 77.0779
99.5656 5826 76.3282
99.6831 5616 74.94
99.8005 5627 75.0133
99.9179 5301 72.808
100.035 5099 71.4073
100.153 4489 67
100.27 4245 65.1537
100.388 4298 65.5591
100.505 4821 69.4334
100.622 5237 72.3671
100.74 5785 76.0592
100.857 5970 77.2658
100.975 5924 76.9675
101.092 6063 77.8653
101.209 6246 79.0316
101.327 6210 78.8036
101.444 6127 78.2752
101.561 5849 76.4788
101.679 5769 75.9539
101.796 5610 74.8999
101.913 5517 74.2765
102.03 5607 74.8799
102.148 5395 73.4507
102.265 6153 78.4411
102.382 5869 76.6094
102.499 6284 79.2717
102.616 6443 80.2683
102.733 6636 81.4616
102.851 6570 81.0555
102.968 6701 81.8596
103.085 6639 81.4801
103.202 6545 80.9012
103.319 6363 79.7684
103.436 6080 77.9744
103.552 5680 75.3658
103.669 5209 72.1734
103.786 4610 67.897
103.903 4737 68.8259
104.02 5221 72.2565
104.137 5874 76.642
104.253 6640 81.4862
104.37 6527 80.7899
104.487 6856 82.801
104.603 6941 83.3127
104.72 6997 83.6481
104.836 6914 83.1505
104.953 6866 82.8613
105.069 6585 81.148
105.186 6328 79.5487
105.302 6077 77.9551
105.418 6090 78.0385
105.535 6132 78.3071
105.651 6516 80.7217
105.767 6560 80.9938
105.883 6749 82.1523
105.999 6980 83.5464
106.115 0 1
106.231 0 1
106.347 0 1
106.463 0 1
106.579 0 1
106.694 0 1
106.81 0 1
106.926 0 1
107.041 0 1
107.157 0 1
109.576 0 1
109.692 0 1
109.807 0 1
109.923 0 1
110.039 0 1
110.155 0 1
110.27 0 1
110.386 0 1
110.502 0 1
110.618 5957 77.1816
110.735 6025 77.6209
110.851 6245 79.0253
110.967 6385 79.9062
111.083 6479 80.4922
111.199 6513 80.7032
111.316 6746 82.134
111.432 6639 81.4801
111.549 6595 81.2096
111.665 6436 80.2247
111.782 6134 78.3199
111.898 5787 76.0723
112.015 5495 74.1283
112.132 5028 70.9084
112.248 4619 67.9632
112.365 4387 66.2344
112.482 4780 69.1375
112.599 5033 70.9436
112.716 5686 75.4056
112.832 6044 77.7432
112.949 5958 77.1881
113.066 5996 77.4338
113.183 6062 77.8588
113.3 6064 77.8717
113.417 5936 77.0454
113.534 5928 76.9935
113.652 5452 73.8377
113.769 5189 72.0347
113.886 4979 70.562
114.003 5126 71.5961
114.12 5059 71.1266
114.238 5182 71.9861
114.355 5104 71.4423
114.472 5262 72.5396
114.589 5446 73.797
114.707 5522 74.3102
114.824 5607 74.8799
114.942 5652 75.1798
115.059 5596 74.8064
115.176 5638 75.0866
115.294 5434 73.7157
115.411 5206 72.1526
115.529 4980 70.5691
115.646 4697 68.5347
115.764 4364 66.0606
115.881 3946 62.8172
115.999 3907 62.506
116.116 4440 66.6333
116.234 4697 68.5347
116.351 5353 73.1642
116.469 5439 73.7496
116.586 5470 73.9594
116.704 5494 74.1215
116.821 5469 73.9527
116.939 5454 73.8512
117.056 5344 73.1027
117.174 5239 72.3809
117.291 5178 71.9583
117.409 4968 70.484
117.526 4851 69.6491
117.644 4875 69.8212
117.761 4936 70.2567
117.879 5042 71.007
117.996 5228 72.3049
118.114 5313 72.8903
118.231 5325 72.9726
118.349 5203 72.1318
118.466 5369 73.2735
118.584 5316 72.9109
118.701 5459 73.885
118.819 5411 73.5595
118.936 5199 72.1041
119.053 5174 71.9305
119.171 4955 70.3918
119.288 4566 67.5722
119.405 4241 65.123
119.523 3705 60.8687
119.64 3811 61.7333
119.757 4237 65.0922
119.875 4649 68.1836
119.992 5041 71
120.109 5065 71.1688
120.226 5181 71.9792
120.343 5264 72.5534
120.46 5286 72.7049
120.578 5202 72.1249
120.695 5157 71.8123
120.812 5102 71.4283
120.929 4964 70.4557
121.046 4832 69.5126
121.163 4830 69.4982
121.279 4753 68.942
121.396 4633 68.0661
121.513 4724 68.7314
121.63 4836 69.5414
121.747 4708 68.6149
121.863 4742 68.8622
121.98 4997 70.6895
122.097 4861 69.7209
122.213 5070 71.2039
122.33 5121 71.5612
122.446 5040 70.993
122.563 4951 70.3633
122.679 5002 70.7248
122.795 4649 68.1836
122.912 4518 67.2161
123.028 4235 65.0769
123.144 3876 62.2575
123.26 3513 59.2706
123.377 0 1
123.493 0 1
123.609 0 1
123.725 0 1
123.84 0 1
123.956 0 1
124.072 0 1
124.188 0 1
124.303 0 1
124.419 0 1
126.852 0 1
126.968 0 1
127.083 0 1
127.199 0 1
127.315 0 1
127.431 0 1
127.547 0 1
127.663 0 1
127.779 0 1
127.895 0 1
128.011 0 1
128.127 0 1
128.243 0 1
128.359 4262 65.284
128.476 3908 62.514
128.592 3978 63.0714
128.708 4220 64.9615
128.825 4697 68.5347
128.941 5202 72.1249
129.058 5333 73.0274
129.174 5409 73.5459
129.291 5427 73.6682
129.408 5312 72.8835
129.524 5360 73.212
129.641 5384 73.3757
129.758 5151 71.7705
129.875 5144 71.7217
129.992 5028 70.9084
130.108 4820 69.4262
130.225 4821 69.4334
130.342 4750 68.9202
130.459 4825 69.4622
130.576 5063 71.1548
130.693 5119 71.5472
130.81 4953 70.3776
130.928 5136 71.6659
131.045 5074 71.232
131.162 5111 71.4913
131.279 5251 72.4638
131.396 5185 72.0069
131.513 4925 70.1783
131.631 4918 70.1285
131.748 4712 68.644
131.865 4300 65.5744
131.983 3881 62.2977
132.1 3711 60.918
132.217 4009 63.3167
132.335 4287 65.4752
132.452 4679 68.4032
132.57 4979 70.562
132.687 4673 68.3593
132.804 5294 72.7599
132.922 4922 70.157
133.039 4942 70.2994
133.157 5062 71.1477
133.274 4962 70.4415
133.392 4832 69.5126
133.509 4715 68.6659
133.627 4603 67.8454
133.744 4508 67.1416
133.862 4501 67.0895
133.979 4682 68.4251
134.097 4683 68.4324
134.214 4752 68.9348
134.332 4637 68.0955
134.449 4662 68.2788
134.567 4784 69.1665
134.684 4811 69.3614
134.802 4874 69.814
134.919 4783 69.1592
135.037 4836 69.5414
135.154 4668 68.3228
135.272 4510 67.1565
135.389 4166 64.5446
135.507 4031 63.4902
135.624 3723 61.0164
135.742 3707 60.8851
135.859 3862 62.145
135.977 4252 65.2074
136.094 4722 68.7168
136.211 4714 68.6586
136.329 4714 68.6586
136.446 4942 70.2994
136.564 4807 69.3325
136.681 4960 70.4273
136.798 4832 69.5126
136.915 4766 69.0362
137.033 4649 68.1836
137.15 4448 66.6933
137.267 4446 66.6783
137.384 4247 65.169
137.502 4405 66.3702
137.619 4302 65.5896
137.736 4448 66.6933
137.853 4407 66.3852
137.97 4440 66.6333
138.087 4731 68.7823
138.204 4485 66.9701
138.321 4697 68.5347
138.438 4713 68.6513
138.555 4698 68.542
138.672 4686 68.4544
138.788 4562 67.5426
138.905 4497 67.0597
139.022 4277 65.3988
139.139 3928 62.6738
139.255 3663 60.5227
139.372 3677 60.6383
139.488 3851 62.0564
139.605 4162 64.5136
139.721 4520 67.2309
139.838 4654 68.2202
139.954 4704 68.5857
140.071 4660 68.2642
140.187 4825 69.4622
140.303 4660 68.2642
140.419 4743 68.8694
140.535 4554 67.4833
140.652 4482 66.9477
140.768 0 1
140.884 0 1
141 0 1
141.115 0 1
141.231 0 1
141.347 0 1
141.463 0 1
141.578 0 1
141.694 0 1
144.104 0 1
144.219 0 1
144.335 0 1
144.45 0 1
144.566 0 1
144.682 0 1
144.798 0 1
144.914 0 1
145.03 0 1
145.146 4008 63.3088
145.262 3996 63.2139
145.378 3902 62.466
145.494 3957 62.9047
145.61 3919 62.6019
145.726 3824 61.8385
145.842 3762 61.3351
145.959 3702 60.8441
146.075 3724 61.0246
146.192 3629 60.2412
146.308 3762 61.3351
146.425 3643 60.3573
146.541 3706 60.8769
146.658 3694 60.7783
146.774 3754 61.2699
146.891 3727 61.0492
147.008 3747 61.2127
147.125 3714 60.9426
147.241 3843 61.9919
147.358 3786 61.5305
147.475 3656 60.4649
147.592 3499 59.1523
147.709 3125 55.9017
147.826 2962 54.4243
147.943 2950 54.3139
148.06 2963 54.4334
148.177 3333 57.7321
148.294 3534 59.4475
148.411 3714 60.9426
148.528 3750 61.2372
148.645 3716 60.959
148.762 3658 60.4814
148.88 3579 59.8247
148.997 3505 59.203
149.114 3762 61.3351
149.231 3673 60.6053
149.349 3531 59.4222
149.466 3411 58.4038
149.583 3302 57.463
149.701 3346 57.8446
149.818 3230 56.8331
149.935 3432 58.5833
150.053 3427 58.5406
150.17 3211 56.6657
150.287 3401 58.3181
150.405 3420 58.4808
150.522 3511 59.2537
150.64 3400 58.3095
150.757 3459 58.8133
150.875 3519 59.3212
150.992 3467 58.8812
151.11 3221 56.7539
151.227 3216 56.7098
151.344 3029 55.0364
151.462 2755 52.4881
151.579 2841 53.301
151.697 2863 53.507
151.814 3098 55.6597
151.932 3403 58.3352
152.049 3630 60.2495
152.167 3603 60.025
152.284 3613 60.1082
152.402 3572 59.7662
152.519 3589 59.9083
152.636 3461 58.8303
152.754 3463 58.8473
152.871 3519 59.3212
152.989 3392 58.2409
153.106 3378 58.1206
153.223 3374 58.0861
153.341 3266 57.1489
153.458 3335 57.7495
153.575 3290 57.3585
153.693 3334 57.7408
153.81 3377 58.112
153.927 3314 57.5674
154.044 3417 58.4551
154.162 3477 58.9661
154.279 3390 58.2237
154.396 3574 59.7829
154.513 3603 60.025
154.63 3557 59.6406
154.747 3527 59.3886
154.864 3323 57.6455
154.981 3143 56.0625
155.098 3100 55.6776
155.215 2983 54.6168
155.332 3001 54.7814
155.449 3235 56.8771
155.566 3503 59.1861
155.683 3528 59.397
155.8 3620 60.1664
155.917 3648 60.3987
156.033 3558 59.649
156.15 0 1
156.267 0 1
156.383 0 1
156.5 0 1
156.617 0 1
156.733 0 1
156.85 0 1
156.966 0 1
157.082 0 1
157.199 0 1
157.315 0 1
157.431 0 1
157.547 0 1
157.664 0 1
157.78 0 1
157.896 0 1
158.012 0 1
158.128 0 1
158.244 0 1
158.359 0 1
158.475 0 1
158.591 0 1
158.706 0 1
