
6.15755 0 1
6.2731 0 1
6.3887 0 1
6.50437 0 1
6.62009 0 1
6.73587 0 1
6.8517 0 1
6.96759 0 1
7.08353 0 1
7.19952 0 1
7.31557 0 1
7.43166 0 1
7.54781 0 1
7.664 0 1
7.78024 0 1
7.89653 0 1
8.01286 0 1
8.12924 0 1
8.24567 0 1
8.36213 0 1
8.47864 0 1
8.59519 0 1
8.71178 0 1
8.82841 0 1
8.94508 0 1
9.06179 0 1
9.17853 0 1
9.29531 0 1
9.41212 0 1
9.52897 0 1
9.64584 0 1
9.76276 0 1
9.8797 0 1
9.99667 0 1
10.1137 0 1
10.2307 0 1
10.3478 0 1
10.4648 0 1
10.5819 0 1
10.6991 0 1
10.8162 0 1
10.9334 0 1
11.0506 0 1
11.1678 0 1
11.285 0 1
11.4023 0 1
11.5196 0 1
11.6369 0 1
11.7542 0 1
11.8715 0 1
11.9888 0 1
12.1062 0 1
12.2235 0 1
12.3409 0 1
12.4582 0 1
12.5756 0 1
12.693 0 1
12.8104 0 1
12.9278 0 1
13.0452 0 1
13.1626 0 1
13.28 0 1
13.3974 0 1
13.5149 0 1
13.6323 0 1
13.7497 0 1
13.8671 0 1
13.9845 0 1
14.1019 0 1
14.2193 0 1
14.3367 0 1
14.4541 0 1
14.5714 0 1
14.6888 0 1
14.8062 0 1
14.9235 0 1
15.0408 901 30.0167
15.1581 859 29.3087
15.2755 916 30.2655
15.3927 922 30.3645
15.51 905 30.0832
15.6273 875 29.5804
15.7445 840 28.9828
15.8617 863 29.3769
15.9789 834 28.8791
16.0961 811 28.4781
16.2132 803 28.3373
16.3304 867 29.4449
16.4475 847 29.1033
16.5646 797 28.2312
16.6816 819 28.6182
16.7986 772 27.7849
16.9156 764 27.6405
17.0326 821 28.6531
17.1496 802 28.3196
17.2665 804 28.3549
17.3833 826 28.7402
17.5002 803 28.3373
17.617 785 28.0179
17.7338 827 28.7576
17.8505 827 28.7576
17.9672 833 28.8617
18.0839 806 28.3901
18.2005 809 28.4429
18.3171 800 28.2843
18.4337 830 28.8097
18.5502 828 28.775
18.6666 918 30.2985
18.7831 918 30.2985
18.8994 901 30.0167
19.0158 834 28.8791
19.1321 873 29.5466
19.2483 908 30.133
19.3645 927 30.4467
19.4806 1025 32.0156
19.5967 1082 32.8938
19.7128 1218 34.8999
19.8288 1341 36.6197
19.9447 1331 36.4829
20.0606 0 1
20.1764 0 1
20.2922 0 1
20.4079 0 1
20.5236 0 1
20.6392 0 1
20.7548 0 1
20.8702 0 1
23.3078 0 1
23.4233 0 1
23.539 0 1
23.6547 0 1
23.7704 0 1
23.8862 0 1
24.0021 0 1
24.118 0 1
24.234 0 1
24.35 0 1
24.4661 685 26.1725
24.5822 804 28.3549
24.6984 960 30.9839
24.8146 1005 31.7017
24.9309 1065 32.6343
25.0472 1085 32.9393
25.1636 1079 32.8481
25.28 1150 33.9116
25.3965 1241 35.2278
25.513 1249 35.3412
25.6296 1219 34.9142
25.7462 1204 34.6987
25.8628 1120 33.4664
25.9795 1086 32.9545
26.0962 1095 33.0908
26.213 1068 32.6803
26.3298 1055 32.4808
26.4466 1048 32.3728
26.5635 998 31.5911
26.6804 1033 32.1403
26.7973 1001 31.6386
26.9143 937 30.6105
27.0313 908 30.133
27.1483 812 28.4956
27.2653 801 28.3019
27.3824 816 28.5657
27.4996 813 28.5132
27.6167 749 27.3679
27.7339 785 28.0179
27.8511 696 26.3818
27.9683 630 25.0998
28.0855 665 25.7876
28.2028 659 25.671
28.3201 780 27.9285
28.4374 746 27.313
28.5547 785 28.0179
28.6721 775 27.8388
28.7894 793 28.1603
28.9068 757 27.5136
29.0242 739 27.1846
29.1416 749 27.3679
29.259 696 26.3818
29.3764 742 27.2397
29.4939 743 27.258
29.6113 779 27.9106
29.7288 712 26.6833
29.8463 728 26.9815
29.9638 667 25.8263
30.0812 649 25.4755
30.1987 686 26.1916
30.3162 626 25.02
30.4337 613 24.7588
30.5512 673 25.9422
30.6687 683 26.1343
30.7862 694 26.3439
30.9037 744 27.2764
31.0212 745 27.2947
31.1387 799 28.2666
31.2562 770 27.7489
31.3737 698 26.4197
31.4912 687 26.2107
31.6087 715 26.7395
31.7262 706 26.5707
31.8436 728 26.9815
31.9611 717 26.7769
32.0785 721 26.8514
32.1959 737 27.1477
32.3134 720 26.8328
32.4308 720 26.8328
32.5482 651 25.5147
32.6655 637 25.2389
32.7829 656 25.6125
32.9002 629 25.0799
33.0176 623 24.96
33.1349 651 25.5147
33.2522 657 25.632
33.3694 614 24.779
33.4867 642 25.3377
33.6039 633 25.1595
33.7211 610 24.6982
33.8383 630 25.0998
33.9554 655 25.593
34.0725 651 25.5147
34.1896 617 24.8395
34.3067 635 25.1992
34.4237 641 25.318
34.5407 699 26.4386
34.6577 692 26.3059
34.7746 659 25.671
34.8915 649 25.4755
35.0084 706 26.5707
35.1252 621 24.9199
35.242 598 24.454
35.3587 655 25.593
35.4755 615 24.7992
35.5921 653 25.5539
35.7088 630 25.0998
35.8254 703 26.5141
35.9419 655 25.593
36.0584 637 25.2389
36.1749 623 24.96
36.2913 629 25.0799
36.4077 596 24.4131
36.524 545 23.3452
36.6403 535 23.1301
36.7565 504 22.4499
36.8727 462 21.4942
36.9889 470 21.6795
37.1049 426 20.6398
37.221 0 1
37.3369 0 1
37.4529 0 1
37.5687 0 1
37.6845 0 1
37.8003 0 1
37.916 0 1
38.0316 0 1
38.1472 0 1
40.5851 0 1
40.7008 0 1
40.8164 0 1
40.9322 0 1
41.048 0 1
41.1639 0 1
41.2798 0 1
41.3958 0 1
41.5118 0 1
41.6279 0 1
41.744 260 16.1245
41.8602 323 17.9722
41.9765 358 18.9209
42.0928 417 20.4206
42.2091 452 21.2603
42.3255 472 21.7256
42.4419 446 21.1187
42.5584 494 22.2261
42.675 494 22.2261
42.7915 493 22.2036
42.9081 438 20.9284
43.0248 438 20.9284
43.1415 456 21.3542
43.2582 435 20.8567
43.375 461 21.4709
43.4918 507 22.5167
43.6087 483 21.9773
43.7256 503 22.4277
43.8425 487 22.0681
43.9595 431 20.7605
44.0765 445 21.095
44.1935 427 20.664
44.3106 434 20.8327
44.4277 463 21.5174
44.5448 494 22.2261
44.6619 482 21.9545
44.7791 526 22.9347
44.8963 533 23.0868
45.0136 475 21.7945
45.1308 521 22.8254
45.2481 445 21.095
45.3654 515 22.6936
45.4827 478 21.8632
45.6001 532 23.0651
45.7174 503 22.4277
45.8348 500 22.3607
45.9522 514 22.6716
46.0697 484 22
46.1871 443 21.0476
46.3046 453 21.2838
46.422 491 22.1585
46.5395 416 20.3961
46.657 432 20.7846
46.7745 462 21.4942
46.892 477 21.8403
47.0096 504 22.4499
47.1271 484 22
47.2446 475 21.7945
47.3622 518 22.7596
47.4797 499 22.3383
47.5973 475 21.7945
47.7149 423 20.567
47.8324 450 21.2132
47.95 479 21.8861
48.0675 405 20.1246
48.1851 484 22
48.3027 486 22.0454
48.4202 477 21.8403
48.5378 514 22.6716
48.6554 526 22.9347
48.7729 526 22.9347
48.8904 525 22.9129
49.008 490 22.1359
49.1255 480 21.9089
49.243 511 22.6053
49.3605 515 22.6936
49.478 426 20.6398
49.5955 453 21.2838
49.713 464 21.5407
49.8304 401 20.025
49.9479 413 20.3224
50.0653 399 19.975
50.1827 408 20.199
50.3001 478 21.8632
50.4175 439 20.9523
50.5348 464 21.5407
50.6521 447 21.1424
50.7694 442 21.0238
50.8867 468 21.6333
51.004 461 21.4709
51.1212 474 21.7715
51.2384 454 21.3073
51.3556 441 21
51.4727 459 21.4243
51.5899 472 21.7256
51.707 458 21.4009
51.824 509 22.561
51.9411 459 21.4243
52.0581 488 22.0907
52.175 480 21.9089
52.2919 528 22.9783
52.4088 493 22.2036
52.5257 492 22.1811
52.6425 529 23
52.7593 539 23.2164
52.876 524 22.891
52.9927 510 22.5832
53.1094 502 22.4054
53.226 471 21.7025
53.3426 479 21.8861
53.4591 421 20.5183
53.5756 435 20.8567
53.692 425 20.6155
53.8084 376 19.3907
53.9248 360 18.9737
54.0411 313 17.6918
54.1573 315 17.7482
54.2735 0 1
54.3896 0 1
54.5057 0 1
54.6217 0 1
54.7377 0 1
54.8537 0 1
54.9695 0 1
55.0853 0 1
55.2011 0 1
55.3168 0 1
55.4324 0 1
57.824 0 1
57.9396 0 1
58.0553 0 1
58.1711 0 1
58.2869 0 1
58.4028 0 1
58.5187 0 1
58.6347 0 1
58.7508 0 1
58.8669 0 1
58.983 573 23.9374
59.0992 751 27.4044
59.2155 1023 31.9844
59.3318 1204 34.6987
59.4482 1420 37.6829
59.5646 1552 39.3954
59.681 1672 40.8901
59.7975 1695 41.1704
59.9141 1744 41.7612
60.0306 1800 42.4264
60.1473 1784 42.2374
60.2639 1817 42.6263
60.3807 1821 42.6732
60.4974 1862 43.1509
60.6142 1849 43
60.731 1820 42.6615
60.8479 1876 43.3128
60.9648 1682 41.0122
61.0818 1795 42.3674
61.1987 1803 42.4617
61.3158 1637 40.4599
61.4328 1707 41.3159
61.5499 1779 42.1782
61.667 1715 41.4126
61.7841 1704 41.2795
61.9013 1646 40.5709
62.0185 1522 39.0128
62.1357 1302 36.0832
62.253 1230 35.0714
62.3702 1181 34.3657
62.4875 1213 34.8281
62.6049 1213 34.8281
62.7222 1311 36.2077
62.8396 1420 37.6829
62.9569 1427 37.7757
63.0743 1186 34.4384
63.1918 1153 33.9559
63.3092 1027 32.0468
63.4267 907 30.1164
63.5441 800 28.2843
63.6616 746 27.313
63.7791 718 26.7955
63.8966 668 25.8457
64.0142 659 25.671
64.1317 663 25.7488
64.2492 600 24.4949
64.3668 611 24.7184
64.4843 586 24.2074
64.6019 593 24.3516
64.7195 555 23.5584
64.837 632 25.1396
64.9546 588 24.2487
65.0722 586 24.2074
65.1898 581 24.1039
65.3074 592 24.3311
65.4249 545 23.3452
65.5425 538 23.1948
65.6601 526 22.9347
65.7777 515 22.6936
65.8952 513 22.6495
66.0128 537 23.1733
66.1304 562 23.7065
66.2479 611 24.7184
66.3655 581 24.1039
66.483 570 23.8747
66.6005 611 24.7184
66.718 642 25.3377
66.8355 652 25.5343
66.953 640 25.2982
67.0705 610 24.6982
67.1879 650 25.4951
67.3054 610 24.6982
67.4228 626 25.02
67.5402 701 26.4764
67.6576 809 28.4429
67.7749 820 28.6356
67.8923 798 28.2489
68.0096 769 27.7308
68.1269 679 26.0576
68.2442 676 26
68.3614 666 25.807
68.4787 655 25.593
68.5958 631 25.1197
68.713 604 24.5764
68.8302 569 23.8537
68.9473 598 24.454
69.0643 623 24.96
69.1814 549 23.4307
69.2984 520 22.8035
69.4154 573 23.9374
69.5323 492 22.1811
69.6492 543 23.3024
69.7661 578 24.0416
69.8829 494 22.2261
69.9997 513 22.6495
70.1165 532 23.0651
70.2332 553 23.516
70.3499 578 24.0416
70.4665 515 22.6936
70.5831 487 22.0681
70.6996 429 20.7123
70.8161 362 19.0263
70.9326 357 18.8944
71.049 348 18.6548
71.1653 320 17.8885
71.2817 321 17.9165
71.3979 301 17.3494
71.5141 296 17.2047
71.6303 253 15.906
71.7464 228 15.0997
71.8624 0 1
71.9784 0 1
72.0944 0 1
72.2102 0 1
72.3261 0 1
72.4418 0 1
72.5575 0 1
72.6732 0 1
75.1054 0 1
75.2209 0 1
75.3365 0 1
75.4521 0 1
75.5678 0 1
75.6835 0 1
75.7993 0 1
75.9151 0 1
76.031 0 1
76.147 341 18.4662
76.263 437 20.9045
76.3791 409 20.2237
76.4952 417 20.4206
76.6113 429 20.7123
76.7276 479 21.8861
76.8438 494 22.2261
76.9601 478 21.8632
77.0765 461 21.4709
77.1929 467 21.6102
77.3093 461 21.4709
77.4258 481 21.9317
77.5423 429 20.7123
77.6589 504 22.4499
77.7755 481 21.9317
77.8921 423 20.567
78.0088 457 21.3776
78.1256 443 21.0476
78.2423 458 21.4009
78.3591 455 21.3307
78.4759 432 20.7846
78.5928 433 20.8087
78.7097 434 20.8327
78.8266 453 21.2838
78.9436 424 20.5913
79.0606 418 20.445
79.1776 452 21.2603
79.2946 478 21.8632
79.4117 468 21.6333
79.5288 523 22.8692
79.6459 482 21.9545
79.7631 497 22.2935
79.8802 486 22.0454
79.9974 479 21.8861
80.1147 511 22.6053
80.2319 538 23.1948
80.3491 433 20.8087
80.4664 491 22.1585
80.5837 521 22.8254
80.701 511 22.6053
80.8183 498 22.3159
80.9357 499 22.3383
81.053 438 20.9284
81.1704 514 22.6716
81.2877 538 23.1948
81.4051 490 22.1359
81.5225 468 21.6333
81.6399 432 20.7846
81.7573 444 21.0713
81.8747 420 20.4939
81.9922 443 21.0476
82.1096 443 21.0476
82.227 475 21.7945
82.3444 457 21.3776
82.4619 468 21.6333
82.5793 410 20.2485
82.6967 489 22.1133
82.8142 507 22.5167
82.9316 499 22.3383
83.049 509 22.561
83.1664 524 22.891
83.2838 524 22.891
83.4012 555 23.5584
83.5186 473 21.7486
83.636 510 22.5832
83.7534 500 22.3607
83.8708 511 22.6053
83.9881 533 23.0868
84.1055 517 22.7376
84.2228 485 22.0227
84.3401 454 21.3073
84.4575 474 21.7715
84.5747 472 21.7256
84.692 468 21.6333
84.8093 441 21
84.9265 486 22.0454
85.0437 462 21.4942
85.1609 470 21.6795
85.2781 471 21.7025
85.3952 458 21.4009
85.5123 463 21.5174
85.6294 417 20.4206
85.7465 452 21.2603
85.8636 472 21.7256
85.9806 466 21.587
86.0976 477 21.8403
86.2145 443 21.0476
86.3315 509 22.561
86.4484 489 22.1133
86.5652 587 24.2281
86.682 529 23
86.7988 503 22.4277
86.9156 477 21.8403
87.0323 458 21.4009
87.149 500 22.3607
87.2657 503 22.4277
87.3823 491 22.1585
87.4988 476 21.8174
87.6154 444 21.0713
87.7318 463 21.5174
87.8483 477 21.8403
87.9647 412 20.2978
88.081 357 18.8944
88.1973 342 18.4932
88.3136 305 17.4642
88.4298 316 17.7764
88.546 275 16.5831
88.6621 250 15.8114
88.7781 276 16.6132
88.8942 0 1
89.0101 0 1
89.126 0 1
89.2419 0 1
89.3577 0 1
89.4734 0 1
89.5891 0 1
89.7047 0 1
89.8203 0 1
89.9358 0 1
92.3269 0 1
92.4424 0 1
92.558 0 1
92.6736 0 1
92.7893 0 1
92.905 0 1
93.0208 0 1
93.1366 0 1
93.2525 0 1
93.3685 0 1
93.4845 0 1
93.6005 389 19.7231
93.7167 401 20.025
93.8328 436 20.8806
93.949 418 20.445
94.0653 483 21.9773
94.1816 440 20.9762
94.2979 465 21.5639
94.4143 451 21.2368
94.5307 448 21.166
94.6472 447 21.1424
94.7637 481 21.9317
94.8803 474 21.7715
94.9969 470 21.6795
95.1135 490 22.1359
95.2302 506 22.4944
95.3469 466 21.587
95.4637 483 21.9773
95.5805 502 22.4054
95.6973 511 22.6053
95.8142 534 23.1084
95.9311 476 21.8174
96.048 494 22.2261
96.1649 481 21.9317
96.2819 503 22.4277
96.3989 493 22.2036
96.516 480 21.9089
96.633 525 22.9129
96.7501 503 22.4277
96.8673 543 23.3024
96.9844 514 22.6716
97.1016 497 22.2935
97.2188 497 22.2935
97.336 496 22.2711
97.4532 511 22.6053
97.5704 499 22.3383
97.6877 468 21.6333
97.805 448 21.166
97.9223 464 21.5407
98.0396 438 20.9284
98.1569 475 21.7945
98.2743 461 21.4709
98.3916 535 23.1301
98.509 576 24
98.6264 495 22.2486
98.7438 527 22.9565
98.8612 497 22.2935
98.9786 517 22.7376
99.096 476 21.8174
99.2134 599 24.4745
99.3308 555 23.5584
99.4482 547 23.388
99.5656 550 23.4521
99.6831 508 22.5389
99.8005 503 22.4277
99.9179 523 22.8692
100.035 535 23.1301
100.153 559 23.6432
100.27 498 22.3159
100.388 492 22.1811
100.505 503 22.4277
100.622 525 22.9129
100.74 495 22.2486
100.857 529 23
100.975 496 22.2711
101.092 491 22.1585
101.209 475 21.7945
101.327 463 21.5174
101.444 486 22.0454
101.561 507 22.5167
101.679 473 21.7486
101.796 486 22.0454
101.913 540 23.2379
102.03 505 22.4722
102.148 525 22.9129
102.265 543 23.3024
102.382 553 23.516
102.499 496 22.2711
102.616 523 22.8692
102.733 594 24.3721
102.851 544 23.3238
102.968 547 23.388
103.085 520 22.8035
103.202 526 22.9347
103.319 545 23.3452
103.436 587 24.2281
103.552 540 23.2379
103.669 545 23.3452
103.786 604 24.5764
103.903 567 23.8118
104.02 591 24.3105
104.137 573 23.9374
104.253 538 23.1948
104.37 523 22.8692
104.487 520 22.8035
104.603 506 22.4944
104.72 517 22.7376
104.836 481 21.9317
104.953 475 21.7945
105.069 479 21.8861
105.186 455 21.3307
105.302 427 20.664
105.418 432 20.7846
105.535 378 19.4422
105.651 353 18.7883
105.767 328 18.1108
105.883 337 18.3576
105.999 265 16.2788
106.115 0 1
106.231 0 1
106.347 0 1
106.463 0 1
106.579 0 1
106.694 0 1
106.81 0 1
106.926 0 1
107.041 0 1
107.157 0 1
109.576 0 1
109.692 0 1
109.807 0 1
109.923 0 1
110.039 0 1
110.155 0 1
110.27 0 1
110.386 0 1
110.502 0 1
110.618 283 16.8226
110.735 375 19.3649
110.851 384 19.5959
110.967 430 20.7364
111.083 442 21.0238
111.199 474 21.7715
111.316 481 21.9317
111.432 515 22.6936
111.549 496 22.2711
111.665 524 22.891
111.782 481 21.9317
111.898 453 21.2838
112.015 481 21.9317
112.132 498 22.3159
112.248 503 22.4277
112.365 464 21.5407
112.482 555 23.5584
112.599 527 22.9565
112.716 490 22.1359
112.832 505 22.4722
112.949 517 22.7376
113.066 442 21.0238
113.183 443 21.0476
113.3 484 22
113.417 454 21.3073
113.534 397 19.9249
113.652 441 21
113.769 403 20.0749
113.886 429 20.7123
114.003 416 20.3961
114.12 496 22.2711
114.238 466 21.587
114.355 531 23.0434
114.472 474 21.7715
114.589 432 20.7846
114.707 418 20.445
114.824 472 21.7256
114.942 465 21.5639
115.059 504 22.4499
115.176 425 20.6155
115.294 450 21.2132
115.411 455 21.3307
115.529 450 21.2132
115.646 424 20.5913
115.764 455 21.3307
115.881 449 21.1896
115.999 479 21.8861
116.116 489 22.1133
116.234 452 21.2603
116.351 448 21.166
116.469 476 21.8174
116.586 428 20.6882
116.704 396 19.8997
116.821 417 20.4206
116.939 396 19.8997
117.056 431 20.7605
117.174 410 20.2485
117.291 401 20.025
117.409 362 19.0263
117.526 375 19.3649
117.644 396 19.8997
117.761 415 20.3715
117.879 423 20.567
117.996 452 21.2603
118.114 458 21.4009
118.231 442 21.0238
118.349 411 20.2731
118.466 432 20.7846
118.584 420 20.4939
118.701 458 21.4009
118.819 391 19.7737
118.936 402 20.0499
119.053 413 20.3224
119.171 412 20.2978
119.288 391 19.7737
119.405 449 21.1896
119.523 433 20.8087
119.64 448 21.166
119.757 462 21.4942
119.875 424 20.5913
119.992 405 20.1246
120.109 405 20.1246
120.226 446 21.1187
120.343 447 21.1424
120.46 391 19.7737
120.578 360 18.9737
120.695 374 19.3391
120.812 358 18.9209
120.929 349 18.6815
121.046 379 19.4679
121.163 375 19.3649
121.279 367 19.1572
121.396 378 19.4422
121.513 382 19.5448
121.63 385 19.6214
121.747 402 20.0499
121.863 412 20.2978
121.98 391 19.7737
122.097 379 19.4679
122.213 343 18.5203
122.33 346 18.6011
122.446 348 18.6548
122.563 340 18.4391
122.679 269 16.4012
122.795 262 16.1864
122.912 255 15.9687
123.028 240 15.4919
123.144 252 15.8745
123.26 238 15.4272
123.377 0 1
123.493 0 1
123.609 0 1
123.725 0 1
123.84 0 1
123.956 0 1
124.072 0 1
124.188 0 1
124.303 0 1
124.419 0 1
126.852 0 1
126.968 0 1
127.083 0 1
127.199 0 1
127.315 0 1
127.431 0 1
127.547 0 1
127.663 0 1
127.779 0 1
127.895 0 1
128.011 0 1
128.127 0 1
128.243 0 1
128.359 439 20.9523
128.476 449 21.1896
128.592 437 20.9045
128.708 471 21.7025
128.825 460 21.4476
128.941 449 21.1896
129.058 503 22.4277
129.174 496 22.2711
129.291 471 21.7025
129.408 481 21.9317
129.524 467 21.6102
129.641 455 21.3307
129.758 462 21.4942
129.875 427 20.664
129.992 423 20.567
130.108 445 21.095
130.225 417 20.4206
130.342 459 21.4243
130.459 481 21.9317
130.576 489 22.1133
130.693 513 22.6495
130.81 553 23.516
130.928 470 21.6795
131.045 519 22.7816
131.162 576 24
131.279 599 24.4745
131.396 624 24.98
131.513 589 24.2693
131.631 590 24.2899
131.748 582 24.1247
131.865 655 25.593
131.983 691 26.2869
132.1 737 27.1477
132.217 775 27.8388
132.335 792 28.1425
132.452 932 30.5287
132.57 963 31.0322
132.687 908 30.133
132.804 943 30.7083
132.922 1042 32.28
133.039 1056 32.4962
133.157 1111 33.3317
133.274 1039 32.2335
133.392 1108 33.2866
133.509 1029 32.078
133.627 1072 32.7414
133.744 1077 32.8177
133.862 1056 32.4962
133.979 1117 33.4215
134.097 1217 34.8855
134.214 1236 35.1568
134.332 1231 35.0856
134.449 1237 35.171
134.567 1182 34.3802
134.684 1161 34.0735
134.802 1238 35.1852
134.919 1177 34.3074
135.037 1101 33.1813
135.154 1245 35.2846
135.272 1239 35.1994
135.389 1227 35.0286
135.507 1335 36.5377
135.624 1348 36.7151
135.742 1330 36.4692
135.859 1355 36.8103
135.977 1367 36.973
136.094 1327 36.428
136.211 1419 37.6696
136.329 1424 37.7359
136.446 1316 36.2767
136.564 1353 36.7831
136.681 1352 36.7696
136.798 1384 37.2022
136.915 1389 37.2693
137.033 1320 36.3318
137.15 1302 36.0832
137.267 1264 35.5528
137.384 1251 35.3695
137.502 1308 36.1663
137.619 1307 36.1525
137.736 1335 36.5377
137.853 1308 36.1663
137.97 1334 36.524
138.087 1316 36.2767
138.204 1379 37.1349
138.321 1310 36.1939
138.438 1296 36
138.555 1269 35.623
138.672 1240 35.2136
138.788 1224 34.9857
138.905 1125 33.541
139.022 1204 34.6987
139.139 1197 34.5977
139.255 1209 34.7707
139.372 1193 34.5398
139.488 1214 34.8425
139.605 1057 32.5115
139.721 1124 33.5261
139.838 925 30.4138
139.954 852 29.189
140.071 825 28.7228
140.187 831 28.8271
140.303 776 27.8568
140.419 740 27.2029
140.535 701 26.4764
140.652 664 25.7682
140.768 0 1
140.884 0 1
141 0 1
141.115 0 1
141.231 0 1
141.347 0 1
141.463 0 1
141.578 0 1
141.694 0 1
144.104 0 1
144.219 0 1
144.335 0 1
144.45 0 1
144.566 0 1
144.682 0 1
144.798 0 1
144.914 0 1
145.03 0 1
145.146 955 30.9031
145.262 932 30.5287
145.378 1022 31.9687
145.494 1007 31.7333
145.61 1066 32.6497
145.726 956 30.9192
145.842 1026 32.0312
145.959 1001 31.6386
146.075 990 31.4643
146.192 986 31.4006
146.308 964 31.0483
146.425 965 31.0644
146.541 1021 31.9531
146.658 1019 31.9218
146.774 1059 32.5423
146.891 1053 32.45
147.008 1057 32.5115
147.125 1013 31.8277
147.241 1065 32.6343
147.358 1077 32.8177
147.475 1022 31.9687
147.592 981 31.3209
147.709 1083 32.909
147.826 1032 32.1248
147.943 1015 31.8591
148.06 1001 31.6386
148.177 1023 31.9844
148.294 978 31.273
148.411 1048 32.3728
148.528 1064 32.619
148.645 1005 31.7017
148.762 1036 32.187
148.88 1045 32.3265
148.997 1038 32.218
149.114 1057 32.5115
149.231 1046 32.3419
149.349 1075 32.7872
149.466 1040 32.249
149.583 1113 33.3617
149.701 1033 32.1403
149.818 1007 31.7333
149.935 1011 31.7962
150.053 952 30.8545
150.17 1013 31.8277
150.287 999 31.607
150.405 1005 31.7017
150.522 1013 31.8277
150.64 1052 32.4345
150.757 943 30.7083
150.875 908 30.133
150.992 984 31.3688
151.11 956 30.9192
151.227 976 31.241
151.344 888 29.7993
151.462 869 29.4788
151.579 895 29.9166
151.697 960 30.9839
151.814 1021 31.9531
151.932 1012 31.8119
152.049 994 31.5278
152.167 1027 32.0468
152.284 1025 32.0156
152.402 1038 32.218
152.519 1043 32.2955
152.636 984 31.3688
152.754 985 31.3847
152.871 1033 32.1403
152.989 1016 31.8748
153.106 993 31.5119
153.223 961 31
153.341 993 31.5119
153.458 903 30.05
153.575 894 29.8998
153.693 913 30.2159
153.81 977 31.257
153.927 927 30.4467
154.044 959 30.9677
154.162 915 30.249
154.279 902 30.0333
154.396 924 30.3974
154.513 874 29.5635
154.63 914 30.2324
154.747 961 31
154.864 917 30.282
154.981 838 28.9482
155.098 791 28.1247
155.215 819 28.6182
155.332 920 30.3315
155.449 949 30.8058
155.566 985 31.3847
155.683 990 31.4643
155.8 967 31.0966
155.917 934 30.5614
156.033 884 29.7321
156.15 0 1
156.267 0 1
156.383 0 1
156.5 0 1
156.617 0 1
156.733 0 1
156.85 0 1
156.966 0 1
157.082 0 1
157.199 0 1
157.315 0 1
157.431 0 1
157.547 0 1
157.664 0 1
157.78 0 1
157.896 0 1
158.012 0 1
158.128 0 1
158.244 0 1
158.359 0 1
158.475 0 1
158.591 0 1
158.706 0 1
