
6.15755 0 1
6.2731 0 1
6.3887 0 1
6.50437 0 1
6.62009 0 1
6.73587 0 1
6.8517 0 1
6.96759 0 1
7.08353 0 1
7.19952 0 1
7.31557 0 1
7.43166 0 1
7.54781 0 1
7.664 0 1
7.78024 0 1
7.89653 0 1
8.01286 0 1
8.12924 0 1
8.24567 0 1
8.36213 0 1
8.47864 0 1
8.59519 0 1
8.71178 0 1
8.82841 0 1
8.94508 0 1
9.06179 0 1
9.17853 0 1
9.29531 0 1
9.41212 0 1
9.52897 0 1
9.64584 0 1
9.76276 0 1
9.8797 0 1
9.99667 0 1
10.1137 0 1
10.2307 0 1
10.3478 0 1
10.4648 0 1
10.5819 0 1
10.6991 0 1
10.8162 0 1
10.9334 0 1
11.0506 0 1
11.1678 0 1
11.285 0 1
11.4023 0 1
11.5196 0 1
11.6369 0 1
11.7542 0 1
11.8715 0 1
11.9888 0 1
12.1062 0 1
12.2235 0 1
12.3409 0 1
12.4582 0 1
12.5756 0 1
12.693 0 1
12.8104 0 1
12.9278 0 1
13.0452 0 1
13.1626 0 1
13.28 0 1
13.3974 0 1
13.5149 0 1
13.6323 0 1
13.7497 0 1
13.8671 0 1
13.9845 0 1
14.1019 0 1
14.2193 0 1
14.3367 0 1
14.4541 0 1
14.5714 0 1
14.6888 0 1
14.8062 0 1
14.9235 0 1
15.0408 0 0
15.1581 0 0
15.2755 0 0
15.3927 0 0
15.51 0 0
15.6273 0 0
15.7445 0 0
15.8617 0 0
15.9789 0 0
16.0961 0 0
16.2132 0 0
16.3304 0 0
16.4475 0 0
16.5646 0 0
16.6816 0 0
16.7986 0 0
16.9156 0 0
17.0326 0 0
17.1496 0 0
17.2665 0 0
17.3833 0 0
17.5002 0 0
17.617 0 0
17.7338 0 0
17.8505 0 0
17.9672 0 0
18.0839 0 0
18.2005 0 0
18.3171 0 0
18.4337 0 0
18.5502 0 0
18.6666 0 0
18.7831 0 0
18.8994 0 0
19.0158 0 0
19.1321 0 0
19.2483 0 0
19.3645 0 0
19.4806 0 0
19.5967 0 0
19.7128 0 0
19.8288 0 0
19.9447 0 0
20.0606 0 1
20.1764 0 1
20.2922 0 1
20.4079 0 1
20.5236 0 1
20.6392 0 1
20.7548 0 1
20.8702 0 1
23.3078 0 1
23.4233 0 1
23.539 0 1
23.6547 0 1
23.7704 0 1
23.8862 0 1
24.0021 0 1
24.118 0 1
24.234 0 1
24.35 0 1
24.4661 1008 31.749
24.5822 981 31.3209
24.6984 992 31.496
24.8146 1042 32.28
24.9309 1026 32.0312
25.0472 1094 33.0757
25.1636 1063 32.6037
25.28 1115 33.3916
25.3965 1150 33.9116
25.513 1067 32.665
25.6296 1119 33.4515
25.7462 1174 34.2637
25.8628 1145 33.8378
25.9795 1111 33.3317
26.0962 1132 33.6452
26.213 1148 33.8821
26.3298 1136 33.7046
26.4466 1154 33.9706
26.5635 1088 32.9848
26.6804 1096 33.1059
26.7973 1103 33.2114
26.9143 969 31.1288
27.0313 967 31.0966
27.1483 950 30.8221
27.2653 994 31.5278
27.3824 1011 31.7962
27.4996 1008 31.749
27.6167 1021 31.9531
27.7339 1001 31.6386
27.8511 910 30.1662
27.9683 931 30.5123
28.0855 893 29.8831
28.2028 933 30.545
28.3201 954 30.8869
28.4374 985 31.3847
28.5547 991 31.4802
28.6721 1020 31.9374
28.7894 1005 31.7017
28.9068 1120 33.4664
29.0242 1018 31.9061
29.1416 1025 32.0156
29.259 1029 32.078
29.3764 1049 32.3883
29.4939 1083 32.909
29.6113 1030 32.0936
29.7288 1042 32.28
29.8463 1043 32.2955
29.9638 1039 32.2335
30.0812 1035 32.1714
30.1987 1021 31.9531
30.3162 960 30.9839
30.4337 906 30.0998
30.5512 857 29.2746
30.6687 872 29.5296
30.7862 904 30.0666
30.9037 962 31.0161
31.0212 955 30.9031
31.1387 972 31.1769
31.2562 972 31.1769
31.3737 947 30.7734
31.4912 890 29.8329
31.6087 907 30.1164
31.7262 946 30.7571
31.8436 973 31.1929
31.9611 919 30.315
32.0785 958 30.9516
32.1959 1000 31.6228
32.3134 1027 32.0468
32.4308 1001 31.6386
32.5482 987 31.4166
32.6655 981 31.3209
32.7829 1053 32.45
32.9002 1085 32.9393
33.0176 1021 31.9531
33.1349 1061 32.573
33.2522 1027 32.0468
33.3694 1020 31.9374
33.4867 1033 32.1403
33.6039 1023 31.9844
33.7211 930 30.4959
33.8383 1024 32
33.9554 900 30
34.0725 942 30.692
34.1896 862 29.3598
34.3067 850 29.1548
34.4237 890 29.8329
34.5407 892 29.8664
34.6577 912 30.1993
34.7746 926 30.4302
34.8915 874 29.5635
35.0084 854 29.2233
35.1252 901 30.0167
35.242 854 29.2233
35.3587 893 29.8831
35.4755 882 29.6985
35.5921 883 29.7153
35.7088 937 30.6105
35.8254 923 30.3809
35.9419 952 30.8545
36.0584 997 31.5753
36.1749 995 31.5436
36.2913 983 31.3528
36.4077 973 31.1929
36.524 947 30.7734
36.6403 968 31.1127
36.7565 971 31.1609
36.8727 964 31.0483
36.9889 966 31.0805
37.1049 958 30.9516
37.221 0 1
37.3369 0 1
37.4529 0 1
37.5687 0 1
37.6845 0 1
37.8003 0 1
37.916 0 1
38.0316 0 1
38.1472 0 1
40.5851 0 1
40.7008 0 1
40.8164 0 1
40.9322 0 1
41.048 0 1
41.1639 0 1
41.2798 0 1
41.3958 0 1
41.5118 0 1
41.6279 0 1
41.744 809 28.4429
41.8602 814 28.5307
41.9765 800 28.2843
42.0928 820 28.6356
42.2091 801 28.3019
42.3255 871 29.5127
42.4419 807 28.4077
42.5584 878 29.6311
42.675 836 28.9137
42.7915 818 28.6007
42.9081 751 27.4044
43.0248 703 26.5141
43.1415 707 26.5895
43.2582 692 26.3059
43.375 698 26.4197
43.4918 713 26.7021
43.6087 717 26.7769
43.7256 716 26.7582
43.8425 727 26.9629
43.9595 719 26.8142
44.0765 707 26.5895
44.1935 701 26.4764
44.3106 723 26.8887
44.4277 719 26.8142
44.5448 774 27.8209
44.6619 768 27.7128
44.7791 743 27.258
44.8963 755 27.4773
45.0136 699 26.4386
45.1308 743 27.258
45.2481 721 26.8514
45.3654 658 25.6515
45.4827 681 26.096
45.6001 687 26.2107
45.7174 698 26.4197
45.8348 677 26.0192
45.9522 607 24.6374
46.0697 671 25.9037
46.1871 671 25.9037
46.3046 628 25.0599
46.422 665 25.7876
46.5395 613 24.7588
46.657 520 22.8035
46.7745 529 23
46.892 512 22.6274
47.0096 560 23.6643
47.1271 594 24.3721
47.2446 595 24.3926
47.3622 531 23.0434
47.4797 518 22.7596
47.5973 517 22.7376
47.7149 510 22.5832
47.8324 523 22.8692
47.95 497 22.2935
48.0675 567 23.8118
48.1851 590 24.2899
48.3027 599 24.4745
48.4202 571 23.8956
48.5378 551 23.4734
48.6554 558 23.622
48.7729 533 23.0868
48.8904 529 23
49.008 548 23.4094
49.1255 585 24.1868
49.243 558 23.622
49.3605 546 23.3666
49.478 566 23.7908
49.5955 548 23.4094
49.713 565 23.7697
49.8304 547 23.388
49.9479 547 23.388
50.0653 529 23
50.1827 535 23.1301
50.3001 460 21.4476
50.4175 473 21.7486
50.5348 514 22.6716
50.6521 569 23.8537
50.7694 536 23.1517
50.8867 582 24.1247
51.004 514 22.6716
51.1212 574 23.9583
51.2384 563 23.7276
51.3556 624 24.98
51.4727 629 25.0799
51.5899 650 25.4951
51.707 660 25.6905
51.824 718 26.7955
51.9411 654 25.5734
52.0581 675 25.9808
52.175 732 27.0555
52.2919 690 26.2679
52.4088 670 25.8844
52.5257 710 26.6458
52.6425 763 27.6225
52.7593 662 25.7294
52.876 722 26.8701
52.9927 748 27.3496
53.1094 725 26.9258
53.226 739 27.1846
53.3426 755 27.4773
53.4591 794 28.178
53.5756 732 27.0555
53.692 781 27.9464
53.8084 692 26.3059
53.9248 639 25.2784
54.0411 561 23.6854
54.1573 642 25.3377
54.2735 0 1
54.3896 0 1
54.5057 0 1
54.6217 0 1
54.7377 0 1
54.8537 0 1
54.9695 0 1
55.0853 0 1
55.2011 0 1
55.3168 0 1
55.4324 0 1
57.824 0 1
57.9396 0 1
58.0553 0 1
58.1711 0 1
58.2869 0 1
58.4028 0 1
58.5187 0 1
58.6347 0 1
58.7508 0 1
58.8669 0 1
58.983 739 27.1846
59.0992 750 27.3861
59.2155 695 26.3629
59.3318 699 26.4386
59.4482 756 27.4955
59.5646 728 26.9815
59.681 752 27.4226
59.7975 819 28.6182
59.9141 737 27.1477
60.0306 803 28.3373
60.1473 810 28.4605
60.2639 799 28.2666
60.3807 799 28.2666
60.4974 862 29.3598
60.6142 761 27.5862
60.731 824 28.7054
60.8479 814 28.5307
60.9648 823 28.688
61.0818 829 28.7924
61.1987 781 27.9464
61.3158 751 27.4044
61.4328 765 27.6586
61.5499 791 28.1247
61.667 735 27.1109
61.7841 737 27.1477
61.9013 726 26.9444
62.0185 756 27.4955
62.1357 762 27.6043
62.253 703 26.5141
62.3702 759 27.55
62.4875 675 25.9808
62.6049 651 25.5147
62.7222 668 25.8457
62.8396 680 26.0768
62.9569 681 26.096
63.0743 668 25.8457
63.1918 668 25.8457
63.3092 705 26.5518
63.4267 682 26.1151
63.5441 729 27
63.6616 697 26.4008
63.7791 692 26.3059
63.8966 682 26.1151
64.0142 669 25.865
64.1317 703 26.5141
64.2492 701 26.4764
64.3668 615 24.7992
64.4843 662 25.7294
64.6019 666 25.807
64.7195 660 25.6905
64.837 644 25.3772
64.9546 687 26.2107
65.0722 677 26.0192
65.1898 661 25.7099
65.3074 637 25.2389
65.4249 666 25.807
65.5425 626 25.02
65.6601 639 25.2784
65.7777 620 24.8998
65.8952 621 24.9199
66.0128 628 25.0599
66.1304 634 25.1794
66.2479 570 23.8747
66.3655 514 22.6716
66.483 545 23.3452
66.6005 593 24.3516
66.718 581 24.1039
66.8355 535 23.1301
66.953 555 23.5584
67.0705 653 25.5539
67.1879 587 24.2281
67.3054 586 24.2074
67.4228 686 26.1916
67.5402 614 24.779
67.6576 617 24.8395
67.7749 565 23.7697
67.8923 634 25.1794
68.0096 628 25.0599
68.1269 638 25.2587
68.2442 598 24.454
68.3614 600 24.4949
68.4787 619 24.8797
68.5958 654 25.5734
68.713 606 24.6171
68.8302 585 24.1868
68.9473 632 25.1396
69.0643 564 23.7487
69.1814 611 24.7184
69.2984 592 24.3311
69.4154 581 24.1039
69.5323 594 24.3721
69.6492 615 24.7992
69.7661 546 23.3666
69.8829 556 23.5797
69.9997 472 21.7256
70.1165 468 21.6333
70.2332 489 22.1133
70.3499 504 22.4499
70.4665 551 23.4734
70.5831 526 22.9347
70.6996 536 23.1517
70.8161 516 22.7156
70.9326 553 23.516
71.049 514 22.6716
71.1653 546 23.3666
71.2817 557 23.6008
71.3979 547 23.388
71.5141 484 22
71.6303 468 21.6333
71.7464 443 21.0476
71.8624 0 1
71.9784 0 1
72.0944 0 1
72.2102 0 1
72.3261 0 1
72.4418 0 1
72.5575 0 1
72.6732 0 1
75.1054 0 1
75.2209 0 1
75.3365 0 1
75.4521 0 1
75.5678 0 1
75.6835 0 1
75.7993 0 1
75.9151 0 1
76.031 0 1
76.147 383 19.5704
76.263 471 21.7025
76.3791 429 20.7123
76.4952 449 21.1896
76.6113 414 20.347
76.7276 404 20.0998
76.8438 421 20.5183
76.9601 401 20.025
77.0765 428 20.6882
77.1929 392 19.799
77.3093 391 19.7737
77.4258 389 19.7231
77.5423 387 19.6723
77.6589 368 19.1833
77.7755 364 19.0788
77.8921 375 19.3649
78.0088 354 18.8149
78.1256 363 19.0526
78.2423 354 18.8149
78.3591 372 19.2873
78.4759 314 17.72
78.5928 333 18.2483
78.7097 325 18.0278
78.8266 362 19.0263
78.9436 321 17.9165
79.0606 319 17.8606
79.1776 202 14.2127
79.2946 296 17.2047
79.4117 295 17.1756
79.5288 309 17.5784
79.6459 293 17.1172
79.7631 298 17.2627
79.8802 262 16.1864
79.9974 285 16.8819
80.1147 262 16.1864
80.2319 256 16
80.3491 272 16.4924
80.4664 239 15.4596
80.5837 218 14.7648
80.701 221 14.8661
80.8183 234 15.2971
80.9357 227 15.0665
81.053 229 15.1327
81.1704 237 15.3948
81.2877 228 15.0997
81.4051 174 13.1909
81.5225 203 14.2478
81.6399 202 14.2127
81.7573 177 13.3041
81.8747 209 14.4568
81.9922 198 14.0712
82.1096 147 12.1244
82.227 167 12.9228
82.3444 180 13.4164
82.4619 164 12.8062
82.5793 166 12.8841
82.6967 174 13.1909
82.8142 127 11.2694
82.9316 105 10.247
83.049 123 11.0905
83.1664 112 10.583
83.2838 125 11.1803
83.4012 112 10.583
83.5186 119 10.9087
83.636 108 10.3923
83.7534 99 9.94987
83.8708 107 10.3441
83.9881 98 9.89949
84.1055 92 9.59166
84.2228 74 8.60233
84.3401 84 9.16515
84.4575 77 8.77496
84.5747 98 9.89949
84.692 69 8.30662
84.8093 67 8.18535
84.9265 74 8.60233
85.0437 53 7.28011
85.1609 61 7.81025
85.2781 52 7.2111
85.3952 52 7.2111
85.5123 66 8.12404
85.6294 70 8.3666
85.7465 59 7.68115
85.8636 57 7.54983
85.9806 75 8.66025
86.0976 64 8
86.2145 59 7.68115
86.3315 73 8.544
86.4484 83 9.11043
86.5652 83 9.11043
86.682 84 9.16515
86.7988 92 9.59166
86.9156 85 9.21954
87.0323 97 9.84886
87.149 112 10.583
87.2657 108 10.3923
87.3823 103 10.1489
87.4988 125 11.1803
87.6154 135 11.619
87.7318 128 11.3137
87.8483 129 11.3578
87.9647 125 11.1803
88.081 155 12.4499
88.1973 193 13.8924
88.3136 169 13
88.4298 174 13.1909
88.546 179 13.3791
88.6621 170 13.0384
88.7781 210 14.4914
88.8942 0 1
89.0101 0 1
89.126 0 1
89.2419 0 1
89.3577 0 1
89.4734 0 1
89.5891 0 1
89.7047 0 1
89.8203 0 1
89.9358 0 1
92.3269 0 1
92.4424 0 1
92.558 0 1
92.6736 0 1
92.7893 0 1
92.905 0 1
93.0208 0 1
93.1366 0 1
93.2525 0 1
93.3685 0 1
93.4845 0 1
93.6005 294 17.1464
93.7167 351 18.735
93.8328 313 17.6918
93.949 286 16.9115
94.0653 289 17
94.1816 253 15.906
94.2979 261 16.1555
94.4143 266 16.3095
94.5307 280 16.7332
94.6472 248 15.748
94.7637 249 15.7797
94.8803 245 15.6525
94.9969 242 15.5563
95.1135 218 14.7648
95.2302 250 15.8114
95.3469 231 15.1987
95.4637 143 11.9583
95.5805 166 12.8841
95.6973 197 14.0357
95.8142 250 15.8114
95.9311 258 16.0624
96.048 250 15.8114
96.1649 284 16.8523
96.2819 270 16.4317
96.3989 299 17.2916
96.516 305 17.4642
96.633 303 17.4069
96.7501 292 17.088
96.8673 296 17.2047
96.9844 341 18.4662
97.1016 362 19.0263
97.2188 380 19.4936
97.336 392 19.799
97.4532 369 19.2094
97.5704 392 19.799
97.6877 379 19.4679
97.805 425 20.6155
97.9223 413 20.3224
98.0396 432 20.7846
98.1569 426 20.6398
98.2743 405 20.1246
98.3916 410 20.2485
98.509 416 20.3961
98.6264 430 20.7364
98.7438 482 21.9545
98.8612 464 21.5407
98.9786 414 20.347
99.096 319 17.8606
99.2134 316 17.7764
99.3308 411 20.2731
99.4482 453 21.2838
99.5656 480 21.9089
99.6831 509 22.561
99.8005 548 23.4094
99.9179 541 23.2594
100.035 579 24.0624
100.153 583 24.1454
100.27 555 23.5584
100.388 544 23.3238
100.505 551 23.4734
100.622 577 24.0208
100.74 565 23.7697
100.857 593 24.3516
100.975 636 25.219
101.092 542 23.2809
101.209 615 24.7992
101.327 627 25.04
101.444 629 25.0799
101.561 612 24.7386
101.679 645 25.3969
101.796 598 24.454
101.913 642 25.3377
102.03 630 25.0998
102.148 588 24.2487
102.265 694 26.3439
102.382 607 24.6374
102.499 596 24.4131
102.616 463 21.5174
102.733 453 21.2838
102.851 532 23.0651
102.968 585 24.1868
103.085 679 26.0576
103.202 657 25.632
103.319 676 26
103.436 657 25.632
103.552 615 24.7992
103.669 696 26.3818
103.786 660 25.6905
103.903 638 25.2587
104.02 612 24.7386
104.137 628 25.0599
104.253 686 26.1916
104.37 689 26.2488
104.487 674 25.9615
104.603 674 25.9615
104.72 665 25.7876
104.836 648 25.4558
104.953 679 26.0576
105.069 636 25.219
105.186 687 26.2107
105.302 673 25.9422
105.418 635 25.1992
105.535 617 24.8395
105.651 661 25.7099
105.767 647 25.4362
105.883 623 24.96
105.999 533 23.0868
106.115 0 1
106.231 0 1
106.347 0 1
106.463 0 1
106.579 0 1
106.694 0 1
106.81 0 1
106.926 0 1
107.041 0 1
107.157 0 1
109.576 0 1
109.692 0 1
109.807 0 1
109.923 0 1
110.039 0 1
110.155 0 1
110.27 0 1
110.386 0 1
110.502 0 1
110.618 543 23.3024
110.735 525 22.9129
110.851 508 22.5389
110.967 473 21.7486
111.083 458 21.4009
111.199 403 20.0749
111.316 402 20.0499
111.432 435 20.8567
111.549 469 21.6564
111.665 478 21.8632
111.782 525 22.9129
111.898 507 22.5167
112.015 463 21.5174
112.132 438 20.9284
112.248 400 20
112.365 482 21.9545
112.482 456 21.3542
112.599 407 20.1742
112.716 417 20.4206
112.832 404 20.0998
112.949 403 20.0749
113.066 391 19.7737
113.183 385 19.6214
113.3 423 20.567
113.417 373 19.3132
113.534 399 19.975
113.652 386 19.6469
113.769 421 20.5183
113.886 406 20.1494
114.003 342 18.4932
114.12 404 20.0998
114.238 374 19.3391
114.355 365 19.105
114.472 333 18.2483
114.589 347 18.6279
114.707 331 18.1934
114.824 309 17.5784
114.942 323 17.9722
115.059 342 18.4932
115.176 375 19.3649
115.294 358 18.9209
115.411 353 18.7883
115.529 357 18.8944
115.646 357 18.8944
115.764 322 17.9444
115.881 355 18.8414
115.999 343 18.5203
116.116 310 17.6068
116.234 350 18.7083
116.351 341 18.4662
116.469 343 18.5203
116.586 324 18
116.704 343 18.5203
116.821 361 19
116.939 359 18.9473
117.056 327 18.0831
117.174 357 18.8944
117.291 364 19.0788
117.409 364 19.0788
117.526 315 17.7482
117.644 340 18.4391
117.761 334 18.2757
117.879 338 18.3848
117.996 279 16.7033
118.114 291 17.0587
118.231 311 17.6352
118.349 313 17.6918
118.466 343 18.5203
118.584 334 18.2757
118.701 327 18.0831
118.819 288 16.9706
118.936 360 18.9737
119.053 373 19.3132
119.171 352 18.7617
119.288 377 19.4165
119.405 356 18.868
119.523 355 18.8414
119.64 374 19.3391
119.757 375 19.3649
119.875 351 18.735
119.992 364 19.0788
120.109 382 19.5448
120.226 349 18.6815
120.343 350 18.7083
120.46 334 18.2757
120.578 358 18.9209
120.695 378 19.4422
120.812 384 19.5959
120.929 349 18.6815
121.046 391 19.7737
121.163 384 19.5959
121.279 353 18.7883
121.396 386 19.6469
121.513 325 18.0278
121.63 288 16.9706
121.747 244 15.6205
121.863 294 17.1464
121.98 321 17.9165
122.097 351 18.735
122.213 386 19.6469
122.33 380 19.4936
122.446 341 18.4662
122.563 368 19.1833
122.679 375 19.3649
122.795 369 19.2094
122.912 403 20.0749
123.028 420 20.4939
123.144 420 20.4939
123.26 409 20.2237
123.377 0 1
123.493 0 1
123.609 0 1
123.725 0 1
123.84 0 1
123.956 0 1
124.072 0 1
124.188 0 1
124.303 0 1
124.419 0 1
126.852 0 1
126.968 0 1
127.083 0 1
127.199 0 1
127.315 0 1
127.431 0 1
127.547 0 1
127.663 0 1
127.779 0 1
127.895 0 1
128.011 0 1
128.127 0 1
128.243 0 1
128.359 516 22.7156
128.476 499 22.3383
128.592 494 22.2261
128.708 500 22.3607
128.825 522 22.8473
128.941 487 22.0681
129.058 507 22.5167
129.174 506 22.4944
129.291 553 23.516
129.408 515 22.6936
129.524 558 23.622
129.641 498 22.3159
129.758 534 23.1084
129.875 503 22.4277
129.992 536 23.1517
130.108 527 22.9565
130.225 508 22.5389
130.342 453 21.2838
130.459 425 20.6155
130.576 411 20.2731
130.693 368 19.1833
130.81 322 17.9444
130.928 372 19.2873
131.045 439 20.9523
131.162 551 23.4734
131.279 519 22.7816
131.396 527 22.9565
131.513 530 23.0217
131.631 512 22.6274
131.748 526 22.9347
131.865 563 23.7276
131.983 509 22.561
132.1 576 24
132.217 525 22.9129
132.335 535 23.1301
132.452 554 23.5372
132.57 528 22.9783
132.687 554 23.5372
132.804 595 24.3926
132.922 590 24.2899
133.039 573 23.9374
133.157 535 23.1301
133.274 599 24.4745
133.392 594 24.3721
133.509 564 23.7487
133.627 530 23.0217
133.744 588 24.2487
133.862 547 23.388
133.979 478 21.8632
134.097 411 20.2731
134.214 399 19.975
134.332 400 20
134.449 371 19.2614
134.567 477 21.8403
134.684 478 21.8632
134.802 562 23.7065
134.919 573 23.9374
135.037 551 23.4734
135.154 583 24.1454
135.272 624 24.98
135.389 600 24.4949
135.507 650 25.4951
135.624 659 25.671
135.742 640 25.2982
135.859 595 24.3926
135.977 615 24.7992
136.094 630 25.0998
136.211 614 24.779
136.329 645 25.3969
136.446 654 25.5734
136.564 620 24.8998
136.681 654 25.5734
136.798 669 25.865
136.915 640 25.2982
137.033 634 25.1794
137.15 614 24.779
137.267 623 24.96
137.384 571 23.8956
137.502 552 23.4947
137.619 500 22.3607
137.736 492 22.1811
137.853 476 21.8174
137.97 501 22.383
138.087 488 22.0907
138.204 493 22.2036
138.321 508 22.5389
138.438 588 24.2487
138.555 615 24.7992
138.672 637 25.2389
138.788 646 25.4165
138.905 702 26.4953
139.022 668 25.8457
139.139 645 25.3969
139.255 723 26.8887
139.372 672 25.923
139.488 692 26.3059
139.605 661 25.7099
139.721 686 26.1916
139.838 681 26.096
139.954 665 25.7876
140.071 689 26.2488
140.187 705 26.5518
140.303 699 26.4386
140.419 654 25.5734
140.535 695 26.3629
140.652 691 26.2869
140.768 0 1
140.884 0 1
141 0 1
141.115 0 1
141.231 0 1
141.347 0 1
141.463 0 1
141.578 0 1
141.694 0 1
144.104 0 1
144.219 0 1
144.335 0 1
144.45 0 1
144.566 0 1
144.682 0 1
144.798 0 1
144.914 0 1
145.03 0 1
145.146 681 26.096
145.262 604 24.5764
145.378 620 24.8998
145.494 643 25.3574
145.61 654 25.5734
145.726 669 25.865
145.842 644 25.3772
145.959 563 23.7276
146.075 575 23.9792
146.192 556 23.5797
146.308 561 23.6854
146.425 511 22.6053
146.541 510 22.5832
146.658 490 22.1359
146.774 457 21.3776
146.891 502 22.4054
147.008 559 23.6432
147.125 592 24.3311
147.241 632 25.1396
147.358 702 26.4953
147.475 620 24.8998
147.592 644 25.3772
147.709 662 25.7294
147.826 599 24.4745
147.943 644 25.3772
148.06 669 25.865
148.177 649 25.4755
148.294 658 25.6515
148.411 608 24.6577
148.528 634 25.1794
148.645 613 24.7588
148.762 665 25.7876
148.88 629 25.0799
148.997 596 24.4131
149.114 674 25.9615
149.231 604 24.5764
149.349 598 24.454
149.466 607 24.6374
149.583 657 25.632
149.701 582 24.1247
149.818 566 23.7908
149.935 521 22.8254
150.053 486 22.0454
150.17 535 23.1301
150.287 497 22.2935
150.405 532 23.0651
150.522 563 23.7276
150.64 543 23.3024
150.757 604 24.5764
150.875 581 24.1039
150.992 621 24.9199
151.11 647 25.4362
151.227 652 25.5343
151.344 658 25.6515
151.462 603 24.5561
151.579 626 25.02
151.697 644 25.3772
151.814 647 25.4362
151.932 673 25.9422
152.049 654 25.5734
152.167 679 26.0576
152.284 652 25.5343
152.402 635 25.1992
152.519 659 25.671
152.636 646 25.4165
152.754 570 23.8747
152.871 646 25.4165
152.989 638 25.2587
153.106 613 24.7588
153.223 590 24.2899
153.341 605 24.5967
153.458 559 23.6432
153.575 564 23.7487
153.693 566 23.7908
153.81 563 23.7276
153.927 577 24.0208
154.044 613 24.7588
154.162 576 24
154.279 585 24.1868
154.396 609 24.6779
154.513 623 24.96
154.63 668 25.8457
154.747 676 26
154.864 684 26.1534
154.981 729 27
155.098 641 25.318
155.215 694 26.3439
155.332 668 25.8457
155.449 720 26.8328
155.566 687 26.2107
155.683 659 25.671
155.8 717 26.7769
155.917 651 25.5147
156.033 696 26.3818
156.15 0 1
156.267 0 1
156.383 0 1
156.5 0 1
156.617 0 1
156.733 0 1
156.85 0 1
156.966 0 1
157.082 0 1
157.199 0 1
157.315 0 1
157.431 0 1
157.547 0 1
157.664 0 1
157.78 0 1
157.896 0 1
158.012 0 1
158.128 0 1
158.244 0 1
158.359 0 1
158.475 0 1
158.591 0 1
158.706 0 1
