
6.15755 0 1
6.2731 0 1
6.3887 0 1
6.50437 0 1
6.62009 0 1
6.73587 0 1
6.8517 0 1
6.96759 0 1
7.08353 0 1
7.19952 0 1
7.31557 0 1
7.43166 0 1
7.54781 0 1
7.664 0 1
7.78024 0 1
7.89653 0 1
8.01286 0 1
8.12924 0 1
8.24567 0 1
8.36213 0 1
8.47864 0 1
8.59519 0 1
8.71178 0 1
8.82841 0 1
8.94508 0 1
9.06179 0 1
9.17853 0 1
9.29531 0 1
9.41212 0 1
9.52897 0 1
9.64584 0 1
9.76276 0 1
9.8797 0 1
9.99667 0 1
10.1137 0 1
10.2307 0 1
10.3478 0 1
10.4648 0 1
10.5819 0 1
10.6991 0 1
10.8162 0 1
10.9334 0 1
11.0506 0 1
11.1678 0 1
11.285 0 1
11.4023 0 1
11.5196 0 1
11.6369 0 1
11.7542 0 1
11.8715 0 1
11.9888 0 1
12.1062 0 1
12.2235 0 1
12.3409 0 1
12.4582 0 1
12.5756 0 1
12.693 0 1
12.8104 0 1
12.9278 0 1
13.0452 0 1
13.1626 0 1
13.28 0 1
13.3974 0 1
13.5149 0 1
13.6323 0 1
13.7497 0 1
13.8671 0 1
13.9845 0 1
14.1019 0 1
14.2193 0 1
14.3367 0 1
14.4541 0 1
14.5714 0 1
14.6888 0 1
14.8062 0 1
14.9235 0 1
15.0408 0 0
15.1581 0 0
15.2755 0 0
15.3927 0 0
15.51 0 0
15.6273 0 0
15.7445 0 0
15.8617 0 0
15.9789 0 0
16.0961 0 0
16.2132 0 0
16.3304 0 0
16.4475 0 0
16.5646 0 0
16.6816 0 0
16.7986 0 0
16.9156 0 0
17.0326 0 0
17.1496 0 0
17.2665 0 0
17.3833 0 0
17.5002 0 0
17.617 0 0
17.7338 0 0
17.8505 0 0
17.9672 0 0
18.0839 0 0
18.2005 0 0
18.3171 0 0
18.4337 0 0
18.5502 0 0
18.6666 0 0
18.7831 0 0
18.8994 0 0
19.0158 0 0
19.1321 0 0
19.2483 0 0
19.3645 0 0
19.4806 0 0
19.5967 0 0
19.7128 0 0
19.8288 0 0
19.9447 0 0
20.0606 0 1
20.1764 0 1
20.2922 0 1
20.4079 0 1
20.5236 0 1
20.6392 0 1
20.7548 0 1
20.8702 0 1
23.3078 0 1
23.4233 0 1
23.539 0 1
23.6547 0 1
23.7704 0 1
23.8862 0 1
24.0021 0 1
24.118 0 1
24.234 0 1
24.35 0 1
24.4661 12475 111.692
24.5822 12660 112.517
24.6984 12641 112.432
24.8146 12561 112.076
24.9309 12685 112.628
25.0472 12985 113.952
25.1636 12976 113.912
25.28 13449 115.97
25.3965 13710 117.09
25.513 13803 117.486
25.6296 13964 118.169
25.7462 14248 119.365
25.8628 14105 118.764
25.9795 14243 119.344
26.0962 14256 119.398
26.213 14140 118.912
26.3298 13854 117.703
26.4466 13833 117.614
26.5635 13862 117.737
26.6804 13512 116.241
26.7973 13140 114.63
26.9143 12624 112.357
27.0313 12480 111.714
27.1483 12346 111.113
27.2653 12313 110.964
27.3824 12600 112.25
27.4996 12054 109.791
27.6167 12061 109.823
27.7339 11801 108.632
27.8511 10957 104.676
27.9683 10815 103.995
28.0855 10588 102.898
28.2028 10718 103.528
28.3201 10404 102
28.4374 10572 102.82
28.5547 10906 104.432
28.6721 11077 105.247
28.7894 11371 106.635
28.9068 11607 107.736
29.0242 12017 109.622
29.1416 11888 109.032
29.259 12143 110.195
29.3764 12119 110.086
29.4939 12146 110.209
29.6113 12167 110.304
29.7288 12055 109.795
29.8463 12121 110.095
29.9638 12072 109.873
30.0812 11984 109.471
30.1987 12176 110.345
30.3162 11625 107.819
30.4337 11326 106.424
30.5512 11392 106.733
30.6687 11141 105.551
30.7862 11002 104.89
30.9037 11026 105.005
31.0212 11224 105.943
31.1387 11027 105.01
31.2562 10841 104.12
31.3737 10401 101.985
31.4912 10307 101.523
31.6087 10166 100.827
31.7262 10129 100.643
31.8436 10135 100.673
31.9611 9969 99.8449
32.0785 10395 101.956
32.1959 10410 102.029
32.3134 10919 104.494
32.4308 11080 105.262
32.5482 11410 106.818
32.6655 11597 107.689
32.7829 11734 108.324
32.9002 11644 107.907
33.0176 11769 108.485
33.1349 11701 108.171
33.2522 11697 108.153
33.3694 11480 107.145
33.4867 11607 107.736
33.6039 11690 108.12
33.7211 11665 108.005
33.8383 11439 106.953
33.9554 11614 107.768
34.0725 11110 105.404
34.1896 10714 103.508
34.3067 10528 102.606
34.4237 10559 102.757
34.5407 10740 103.634
34.6577 10773 103.793
34.7746 10576 102.84
34.8915 10356 101.764
35.0084 10220 101.094
35.1252 9866 99.3277
35.242 9793 98.9596
35.3587 9824 99.1161
35.4755 9750 98.7421
35.5921 9952 99.7597
35.7088 9997 99.985
35.8254 10137 100.683
35.9419 10504 102.489
36.0584 10482 102.382
36.1749 10706 103.47
36.2913 10991 104.838
36.4077 11180 105.736
36.524 11198 105.821
36.6403 11233 105.986
36.7565 11202 105.84
36.8727 11262 106.123
36.9889 11149 105.589
37.1049 10989 104.828
37.221 0 1
37.3369 0 1
37.4529 0 1
37.5687 0 1
37.6845 0 1
37.8003 0 1
37.916 0 1
38.0316 0 1
38.1472 0 1
40.5851 0 1
40.7008 0 1
40.8164 0 1
40.9322 0 1
41.048 0 1
41.1639 0 1
41.2798 0 1
41.3958 0 1
41.5118 0 1
41.6279 0 1
41.744 9111 95.4516
41.8602 9210 95.9687
41.9765 9371 96.8039
42.0928 9424 97.0773
42.2091 9262 96.2393
42.3255 9253 96.1925
42.4419 9277 96.3172
42.5584 9335 96.6178
42.675 9231 96.0781
42.7915 9111 95.4516
42.9081 8910 94.3928
43.0248 8558 92.5095
43.1415 8605 92.7631
43.2582 8631 92.9032
43.375 8820 93.9149
43.4918 8770 93.6483
43.6087 8606 92.7685
43.7256 8310 91.1592
43.8425 8158 90.3216
43.9595 7602 87.1894
44.0765 7533 86.7929
44.1935 7837 88.5268
44.3106 7509 86.6545
44.4277 7696 87.7268
44.5448 7673 87.5957
44.6619 8145 90.2497
44.7791 7990 89.3868
44.8963 8135 90.1942
45.0136 8183 90.4599
45.1308 8214 90.6311
45.2481 8006 89.4763
45.3654 8121 90.1166
45.4827 8081 89.8944
45.6001 7885 88.7975
45.7174 7842 88.5551
45.8348 7866 88.6905
45.9522 7753 88.0511
46.0697 7576 87.0402
46.1871 7517 86.7006
46.3046 7487 86.5275
46.422 7330 85.6154
46.5395 6993 83.6242
46.657 6794 82.4257
46.7745 6561 81
46.892 6547 80.9135
47.0096 6723 81.9939
47.1271 6612 81.3142
47.2446 6797 82.4439
47.3622 6413 80.0812
47.4797 6037 77.6981
47.5973 5810 76.2234
47.7149 5743 75.7826
47.8324 5683 75.3857
47.95 5816 76.2627
48.0675 5897 76.7919
48.1851 5992 77.408
48.3027 5934 77.0325
48.4202 6091 78.0449
48.5378 6289 79.3032
48.6554 6275 79.2149
48.7729 6219 78.8606
48.8904 6204 78.7655
49.008 6375 79.8436
49.1255 6364 79.7747
49.243 6432 80.1998
49.3605 6324 79.5236
49.478 6499 80.6164
49.5955 6514 80.7094
49.713 6526 80.7837
49.8304 6778 82.3286
49.9479 6525 80.7775
50.0653 6508 80.6722
50.1827 6392 79.95
50.3001 6161 78.492
50.4175 6140 78.3582
50.5348 6379 79.8686
50.6521 6795 82.4318
50.7694 7007 83.7078
50.8867 6873 82.9036
51.004 6926 83.2226
51.1212 7034 83.8689
51.2384 7057 84.006
51.3556 7255 85.1763
51.4727 7582 87.0747
51.5899 7701 87.7553
51.707 8232 90.7304
51.824 8505 92.2226
51.9411 8532 92.3688
52.0581 8763 93.6109
52.175 8909 94.3875
52.2919 8965 94.6837
52.4088 9089 95.3362
52.5257 9120 95.4987
52.6425 9191 95.8697
52.7593 9294 96.4054
52.876 9278 96.3224
52.9927 9606 98.0102
53.1094 9412 97.0155
53.226 9761 98.7978
53.3426 9397 96.9381
53.4591 9900 99.4987
53.5756 9805 99.0202
53.692 9410 97.0052
53.8084 9064 95.205
53.9248 8846 94.0532
54.0411 8872 94.1913
54.1573 9197 95.901
54.2735 0 1
54.3896 0 1
54.5057 0 1
54.6217 0 1
54.7377 0 1
54.8537 0 1
54.9695 0 1
55.0853 0 1
55.2011 0 1
55.3168 0 1
55.4324 0 1
57.824 0 1
57.9396 0 1
58.0553 0 1
58.1711 0 1
58.2869 0 1
58.4028 0 1
58.5187 0 1
58.6347 0 1
58.7508 0 1
58.8669 0 1
58.983 10344 101.705
59.0992 10472 102.333
59.2155 10328 101.627
59.3318 10425 102.103
59.4482 10563 102.776
59.5646 10625 103.078
59.681 10544 102.684
59.7975 10474 102.343
59.9141 10677 103.33
60.0306 10719 103.533
60.1473 10991 104.838
60.2639 11067 105.2
60.3807 11306 106.33
60.4974 11285 106.231
60.6142 11515 107.308
60.731 11272 106.17
60.8479 11405 106.794
60.9648 11249 106.061
61.0818 11396 106.752
61.1987 10995 104.857
61.3158 11124 105.47
61.4328 11216 105.906
61.5499 10950 104.642
61.667 11054 105.138
61.7841 10930 104.547
61.9013 11094 105.328
62.0185 10985 104.809
62.1357 10955 104.666
62.253 10394 101.951
62.3702 10225 101.119
62.4875 9828 99.1363
62.6049 9899 99.4937
62.7222 9762 98.8028
62.8396 9986 99.93
62.9569 9950 99.7497
63.0743 9929 99.6444
63.1918 9915 99.5741
63.3092 9628 98.1224
63.4267 9720 98.5901
63.5441 10211 101.049
63.6616 10221 101.099
63.7791 10284 101.41
63.8966 10686 103.373
64.0142 10534 102.635
64.1317 10589 102.903
64.2492 10472 102.333
64.3668 10546 102.694
64.4843 10364 101.804
64.6019 10328 101.627
64.7195 10406 102.01
64.837 10561 102.767
64.9546 10403 101.995
65.0722 10194 100.965
65.1898 10076 100.379
65.3074 10350 101.735
65.4249 10120 100.598
65.5425 10044 100.22
65.6601 10339 101.681
65.7777 10126 100.628
65.8952 9717 98.5748
66.0128 9207 95.9531
66.1304 8902 94.3504
66.2479 8841 94.0266
66.3655 9164 95.7288
66.483 9389 96.8969
66.6005 9350 96.6954
66.718 9242 96.1353
66.8355 9325 96.566
66.953 9374 96.8194
67.0705 9552 97.7343
67.1879 9702 98.4987
67.3054 9928 99.6393
67.4228 10026 100.13
67.5402 10028 100.14
67.6576 9997 99.985
67.7749 10143 100.712
67.8923 10087 100.434
68.0096 10183 100.911
68.1269 10104 100.519
68.2442 10109 100.544
68.3614 9932 99.6594
68.4787 10049 100.245
68.5958 10337 101.671
68.713 10230 101.143
68.8302 10013 100.065
68.9473 10223 101.109
69.0643 10132 100.658
69.1814 10335 101.661
69.2984 10299 101.484
69.4154 10126 100.628
69.5323 10133 100.663
69.6492 9688 98.4276
69.7661 9284 96.3535
69.8829 9045 95.1052
69.9997 9181 95.8175
70.1165 9417 97.0412
70.2332 9600 97.9796
70.3499 9538 97.6627
70.4665 9486 97.3961
70.5831 9470 97.3139
70.6996 9477 97.3499
70.8161 9936 99.6795
70.9326 10323 101.602
71.049 10109 100.544
71.1653 10396 101.961
71.2817 10261 101.297
71.3979 10193 100.96
71.5141 9801 99
71.6303 9669 98.3311
71.7464 8991 94.8209
71.8624 0 1
71.9784 0 1
72.0944 0 1
72.2102 0 1
72.3261 0 1
72.4418 0 1
72.5575 0 1
72.6732 0 1
75.1054 0 1
75.2209 0 1
75.3365 0 1
75.4521 0 1
75.5678 0 1
75.6835 0 1
75.7993 0 1
75.9151 0 1
76.031 0 1
76.147 8978 94.7523
76.263 9749 98.737
76.3791 9982 99.91
76.4952 10113 100.563
76.6113 9822 99.106
76.7276 10008 100.04
76.8438 10035 100.175
76.9601 10056 100.28
77.0765 9891 99.4535
77.1929 9954 99.7697
77.3093 9856 99.2774
77.4258 9918 99.5892
77.5423 10136 100.678
77.6589 10048 100.24
77.7755 9868 99.3378
77.8921 9918 99.5892
78.0088 9842 99.2069
78.1256 9938 99.6895
78.2423 9989 99.945
78.3591 9681 98.3921
78.4759 9691 98.4429
78.5928 9539 97.6678
78.7097 9178 95.8019
78.8266 8851 94.0798
78.9436 7408 86.0697
79.0606 7510 86.6603
79.1776 7828 88.476
79.2946 8337 91.3072
79.4117 8849 94.0691
79.5288 9213 95.9844
79.6459 9302 96.4469
79.7631 9298 96.4261
79.8802 9547 97.7088
79.9974 9565 97.8008
80.1147 9500 97.4679
80.2319 9449 97.206
80.3491 9402 96.9639
80.4664 9321 96.5453
80.5837 9202 95.9271
80.701 9061 95.1893
80.8183 9105 95.4201
80.9357 9206 95.9479
81.053 9075 95.2628
81.1704 9076 95.268
81.2877 9100 95.3939
81.4051 9036 95.0579
81.5225 9125 95.5249
81.6399 8740 93.488
81.7573 8987 94.7998
81.8747 8642 92.9624
81.9922 8820 93.9149
82.1096 8949 94.5992
82.227 8743 93.504
82.3444 8418 91.7497
82.4619 8342 91.3345
82.5793 7200 84.8528
82.6967 6971 83.4925
82.8142 6774 82.3043
82.9316 7264 85.2291
83.049 7692 87.704
83.1664 8062 89.7886
83.2838 8114 90.0777
83.4012 8255 90.857
83.5186 8296 91.0824
83.636 8184 90.4655
83.7534 8284 91.0165
83.8708 8188 90.4876
83.9881 8244 90.7965
84.1055 8087 89.9277
84.2228 7942 89.1179
84.3401 8009 89.493
84.4575 7990 89.3868
84.5747 8042 89.6772
84.692 8179 90.4378
84.8093 8070 89.8332
84.9265 8067 89.8165
85.0437 8154 90.2995
85.1609 8076 89.8666
85.2781 8115 90.0833
85.3952 8076 89.8666
85.5123 8063 89.7942
85.6294 8210 90.6091
85.7465 8235 90.7469
85.8636 8181 90.4489
85.9806 7887 88.8088
86.0976 7487 86.5275
86.2145 6603 81.2588
86.3315 5893 76.7659
86.4484 6725 82.0061
86.5652 7294 85.4049
86.682 7814 88.3968
86.7988 8152 90.2884
86.9156 8176 90.4212
87.0323 8291 91.0549
87.149 8297 91.0879
87.2657 8363 91.4494
87.3823 8068 89.822
87.4988 8115 90.0833
87.6154 8162 90.3438
87.7318 8200 90.5539
87.8483 8190 90.4986
87.9647 8134 90.1887
88.081 8100 90
88.1973 8127 90.1499
88.3136 8322 91.225
88.4298 8074 89.8554
88.546 8260 90.8845
88.6621 7927 89.0337
88.7781 7914 88.9607
88.8942 0 1
89.0101 0 1
89.126 0 1
89.2419 0 1
89.3577 0 1
89.4734 0 1
89.5891 0 1
89.7047 0 1
89.8203 0 1
89.9358 0 1
92.3269 0 1
92.4424 0 1
92.558 0 1
92.6736 0 1
92.7893 0 1
92.905 0 1
93.0208 0 1
93.1366 0 1
93.2525 0 1
93.3685 0 1
93.4845 0 1
93.6005 6196 78.7147
93.7167 6093 78.0577
93.8328 6188 78.6638
93.949 5978 77.3175
94.0653 6173 78.5684
94.1816 6040 77.7174
94.2979 5734 75.7232
94.4143 5701 75.505
94.5307 5730 75.6968
94.6472 5568 74.619
94.7637 5678 75.3525
94.8803 5760 75.8947
94.9969 5559 74.5587
95.1135 5384 73.3757
95.2302 5126 71.5961
95.3469 4770 69.0652
95.4637 3940 62.7694
95.5805 3767 61.3759
95.6973 4630 68.0441
95.8142 5127 71.6031
95.9311 5181 71.9792
96.048 5098 71.4003
96.1649 4995 70.6753
96.2819 5032 70.9366
96.3989 4778 69.1231
96.516 4645 68.1542
96.633 4604 67.8528
96.7501 4528 67.2904
96.8673 4415 66.4455
96.9844 4417 66.4605
97.1016 4276 65.3911
97.2188 4164 64.5291
97.336 4081 63.8827
97.4532 4167 64.5523
97.5704 3951 62.857
97.6877 3764 61.3514
97.805 3716 60.959
97.9223 3713 60.9344
98.0396 3442 58.6686
98.1569 3430 58.5662
98.2743 3305 57.4891
98.3916 3231 56.8419
98.509 3169 56.2939
98.6264 3056 55.2811
98.7438 2969 54.4885
98.8612 2807 52.9811
98.9786 2653 51.5073
99.096 1998 44.699
99.2134 1857 43.0929
99.3308 2326 48.2286
99.4482 2533 50.3289
99.5656 2541 50.4083
99.6831 2432 49.3153
99.8005 2419 49.1833
99.9179 2303 47.9896
100.035 2206 46.9681
100.153 2172 46.6047
100.27 2146 46.3249
100.388 2233 47.2546
100.505 2162 46.4973
100.622 2240 47.3286
100.74 2248 47.4131
100.857 2192 46.8188
100.975 2353 48.5077
101.092 2486 49.8598
101.209 2568 50.6754
101.327 2605 51.0392
101.444 2612 51.1077
101.561 2687 51.8363
101.679 2869 53.563
101.796 2825 53.1507
101.913 3074 55.4437
102.03 3284 57.3062
102.148 3204 56.6039
102.265 3495 59.1185
102.382 3333 57.7321
102.499 3364 58
102.616 2740 52.345
102.733 2331 48.2804
102.851 3305 57.4891
102.968 4022 63.4192
103.085 4144 64.3739
103.202 4199 64.7997
103.319 4386 66.2269
103.436 4441 66.6408
103.552 4385 66.2193
103.669 4519 67.2235
103.786 4559 67.5204
103.903 4641 68.1249
104.02 4683 68.4324
104.137 4821 69.4334
104.253 5141 71.7008
104.37 5110 71.4843
104.487 5346 73.1163
104.603 5344 73.1027
104.72 5362 73.2257
104.836 5492 74.108
104.953 5631 75.04
105.069 5700 75.4983
105.186 5707 75.5447
105.302 5758 75.8815
105.418 5789 76.0855
105.535 5912 76.8895
105.651 6060 77.846
105.767 6106 78.1409
105.883 5695 75.4652
105.999 4648 68.1762
106.115 0 1
106.231 0 1
106.347 0 1
106.463 0 1
106.579 0 1
106.694 0 1
106.81 0 1
106.926 0 1
107.041 0 1
107.157 0 1
109.576 0 1
109.692 0 1
109.807 0 1
109.923 0 1
110.039 0 1
110.155 0 1
110.27 0 1
110.386 0 1
110.502 0 1
110.618 5885 76.7138
110.735 5996 77.4338
110.851 5818 76.2758
110.967 5297 72.7805
111.083 4659 68.2569
111.199 4366 66.0757
111.316 5047 71.0422
111.432 5985 77.3628
111.549 6341 79.6304
111.665 6351 79.6932
111.782 6239 78.9873
111.898 6423 80.1436
112.015 6197 78.721
112.132 6145 78.3901
112.248 6027 77.6338
112.365 6113 78.1857
112.482 5941 77.0779
112.599 5785 76.0592
112.716 5748 75.8156
112.832 5831 76.361
112.949 5642 75.1132
113.066 5606 74.8732
113.183 5546 74.4715
113.3 5531 74.3707
113.417 5532 74.3774
113.534 5379 73.3417
113.652 5307 72.8492
113.769 5311 72.8766
113.886 5221 72.2565
114.003 5177 71.9514
114.12 5022 70.8661
114.238 5075 71.239
114.355 4875 69.8212
114.472 4456 66.7533
114.589 3808 61.709
114.707 3341 57.8014
114.824 3459 58.8133
114.942 4017 63.3798
115.059 4373 66.1287
115.176 4545 67.4166
115.294 4637 68.0955
115.411 4402 66.3476
115.529 4448 66.6933
115.646 4330 65.8027
115.764 4424 66.5132
115.881 4227 65.0154
115.999 4266 65.3146
116.116 4198 64.792
116.234 4035 63.5216
116.351 4070 63.7966
116.469 4044 63.5925
116.586 3945 62.8092
116.704 3875 62.2495
116.821 3850 62.0484
116.939 3780 61.4817
117.056 3735 61.1146
117.174 3738 61.1392
117.291 3614 60.1166
117.409 3686 60.7124
117.526 3583 59.8582
117.644 3537 59.4727
117.761 3498 59.1439
117.879 3521 59.338
117.996 3282 57.2887
118.114 3327 57.6802
118.231 3157 56.1872
118.349 2729 52.2398
118.466 2640 51.3809
118.584 2731 52.259
118.701 3186 56.4447
118.819 3224 56.7803
118.936 3226 56.7979
119.053 3287 57.3324
119.171 3036 55.0999
119.288 3195 56.5243
119.405 3160 56.2139
119.523 2981 54.5985
119.64 3020 54.9545
119.757 2949 54.3047
119.875 3005 54.8179
119.992 2995 54.7266
120.109 2972 54.5161
120.226 3002 54.7905
120.343 2911 53.9537
120.46 2905 53.8981
120.578 2879 53.6563
120.695 2885 53.7122
120.812 2955 54.3599
120.929 2915 53.9907
121.046 2988 54.6626
121.163 2924 54.074
121.279 2747 52.4118
121.396 2785 52.7731
121.513 2451 49.5076
121.63 2256 47.4974
121.747 2260 47.5395
121.863 2617 51.1566
121.98 2906 53.9073
122.097 2963 54.4334
122.213 2720 52.1536
122.33 2705 52.0096
122.446 2834 53.2353
122.563 2918 54.0185
122.679 3021 54.9636
122.795 3073 55.4346
122.912 3042 55.1543
123.028 2936 54.1849
123.144 3043 55.1634
123.26 3136 56
123.377 0 1
123.493 0 1
123.609 0 1
123.725 0 1
123.84 0 1
123.956 0 1
124.072 0 1
124.188 0 1
124.303 0 1
124.419 0 1
126.852 0 1
126.968 0 1
127.083 0 1
127.199 0 1
127.315 0 1
127.431 0 1
127.547 0 1
127.663 0 1
127.779 0 1
127.895 0 1
128.011 0 1
128.127 0 1
128.243 0 1
128.359 4269 65.3376
128.476 4363 66.053
128.592 4290 65.4981
128.708 4392 66.2722
128.825 4373 66.1287
128.941 4460 66.7832
129.058 4555 67.4907
129.174 4379 66.174
129.291 4612 67.9117
129.408 4591 67.7569
129.524 4764 69.0217
129.641 4678 68.3959
129.758 4556 67.4981
129.875 4780 69.1375
129.992 4814 69.383
130.108 4655 68.2276
130.225 4178 64.6375
130.342 3819 61.7981
130.459 3124 55.8928
130.576 2702 51.9808
130.693 2674 51.7107
130.81 3395 58.2666
130.928 4472 66.873
131.045 4918 70.1285
131.162 5173 71.9236
131.279 5260 72.5259
131.396 5183 71.9931
131.513 5312 72.8835
131.631 5398 73.4711
131.748 5346 73.1163
131.865 5384 73.3757
131.983 5245 72.4224
132.1 5318 72.9246
132.217 5471 73.9662
132.335 5437 73.736
132.452 5593 74.7864
132.57 5448 73.8106
132.687 5330 73.0068
132.804 5763 75.9144
132.922 5585 74.7329
133.039 5603 74.8532
133.157 5659 75.2263
133.274 5712 75.5778
133.392 5596 74.8064
133.509 5710 75.5645
133.627 5656 75.2064
133.744 5288 72.7186
133.862 4687 68.4617
133.979 4103 64.0547
134.097 3724 61.0246
134.214 3426 58.532
134.332 3510 59.2453
134.449 4229 65.0308
134.567 5307 72.8492
134.684 6001 77.4661
134.802 6064 77.8717
134.919 6281 79.2528
135.037 6210 78.8036
135.154 6228 78.9177
135.272 6125 78.2624
135.389 6480 80.4984
135.507 6457 80.3555
135.624 6281 79.2528
135.742 6371 79.8185
135.859 6440 80.2496
135.977 6453 80.3306
136.094 6573 81.074
136.211 6596 81.2158
136.329 6598 81.2281
136.446 6586 81.1542
136.564 6733 82.0549
136.681 6659 81.6027
136.798 6638 81.4739
136.915 6711 81.9207
137.033 6597 81.2219
137.15 6710 81.9146
137.267 6231 78.9367
137.384 6053 77.801
137.502 5259 72.519
137.619 4880 69.857
137.736 4434 66.5883
137.853 4341 65.8863
137.97 4240 65.1153
138.087 4774 69.0941
138.204 5593 74.7864
138.321 6578 81.1049
138.438 7157 84.5991
138.555 7124 84.4038
138.672 7265 85.235
138.788 7421 86.1452
138.905 7294 85.4049
139.022 7213 84.9294
139.139 7452 86.325
139.255 7368 85.8371
139.372 7481 86.4928
139.488 7519 86.7122
139.605 7293 85.3991
139.721 7339 85.668
139.838 7584 87.0862
139.954 7477 86.4696
140.071 7515 86.6891
140.187 7314 85.5219
140.303 7570 87.0057
140.419 7353 85.7496
140.535 7472 86.4407
140.652 7327 85.5979
140.768 0 1
140.884 0 1
141 0 1
141.115 0 1
141.231 0 1
141.347 0 1
141.463 0 1
141.578 0 1
141.694 0 1
144.104 0 1
144.219 0 1
144.335 0 1
144.45 0 1
144.566 0 1
144.682 0 1
144.798 0 1
144.914 0 1
145.03 0 1
145.146 7311 85.5044
145.262 7296 85.4166
145.378 7434 86.2206
145.494 7279 85.3171
145.61 7376 85.8836
145.726 7101 84.2674
145.842 6752 82.1706
145.959 6301 79.3788
146.075 6115 78.1985
146.192 5657 75.213
146.308 5412 73.5663
146.425 5268 72.581
146.541 5170 71.9027
146.658 5515 74.263
146.774 5752 75.8419
146.891 6206 78.7782
147.008 6950 83.3667
147.125 7559 86.9425
147.241 7626 87.327
147.358 7604 87.2009
147.475 7821 88.4364
147.592 7776 88.1816
147.709 7637 87.3899
147.826 7730 87.9204
147.943 7574 87.0287
148.06 7433 86.2148
148.177 7654 87.4871
148.294 7485 86.5159
148.411 7520 86.7179
148.528 7510 86.6603
148.645 7478 86.4754
148.762 7451 86.3192
148.88 7356 85.7671
148.997 7130 84.4393
149.114 7673 87.5957
149.231 7371 85.8545
149.349 6998 83.654
149.466 6893 83.0241
149.583 6360 79.7496
149.701 6071 77.9166
149.818 5738 75.7496
149.935 5858 76.5376
150.053 5424 73.6478
150.17 5491 74.1013
150.287 5760 75.8947
150.405 6096 78.0769
150.522 6571 81.0617
150.64 6802 82.4742
150.757 7390 85.9651
150.875 7487 86.5275
150.992 7776 88.1816
151.11 7590 87.1206
151.227 7736 87.9545
151.344 7624 87.3155
151.462 7570 87.0057
151.579 7714 87.8294
151.697 7815 88.4025
151.814 7801 88.3233
151.932 7736 87.9545
152.049 7943 89.1235
152.167 7906 88.9157
152.284 7736 87.9545
152.402 7874 88.7356
152.519 7876 88.7468
152.636 7799 88.3119
152.754 7582 87.0747
152.871 7571 87.0115
152.989 7222 84.9824
153.106 7099 84.2556
153.223 6632 81.4371
153.341 6471 80.4425
153.458 6185 78.6448
153.575 5897 76.7919
153.693 5891 76.7529
153.81 6145 78.3901
153.927 6150 78.4219
154.044 6588 81.1665
154.162 6837 82.6862
154.279 7228 85.0176
154.396 7707 87.7895
154.513 7927 89.0337
154.63 8223 90.6808
154.747 8249 90.824
154.864 8146 90.2552
154.981 8082 89.8999
155.098 8078 89.8777
155.215 8059 89.7719
155.332 8180 90.4434
155.449 8196 90.5318
155.566 8067 89.8165
155.683 8162 90.3438
155.8 8325 91.2414
155.917 8139 90.2164
156.033 8203 90.5704
156.15 0 1
156.267 0 1
156.383 0 1
156.5 0 1
156.617 0 1
156.733 0 1
156.85 0 1
156.966 0 1
157.082 0 1
157.199 0 1
157.315 0 1
157.431 0 1
157.547 0 1
157.664 0 1
157.78 0 1
157.896 0 1
158.012 0 1
158.128 0 1
158.244 0 1
158.359 0 1
158.475 0 1
158.591 0 1
158.706 0 1
