
6.15755 0 1
6.2731 0 1
6.3887 0 1
6.50437 0 1
6.62009 0 1
6.73587 0 1
6.8517 0 1
6.96759 0 1
7.08353 0 1
7.19952 0 1
7.31557 0 1
7.43166 0 1
7.54781 0 1
7.664 0 1
7.78024 0 1
7.89653 0 1
8.01286 0 1
8.12924 0 1
8.24567 0 1
8.36213 0 1
8.47864 0 1
8.59519 0 1
8.71178 0 1
8.82841 0 1
8.94508 0 1
9.06179 0 1
9.17853 0 1
9.29531 0 1
9.41212 0 1
9.52897 0 1
9.64584 0 1
9.76276 0 1
9.8797 0 1
9.99667 0 1
10.1137 0 1
10.2307 0 1
10.3478 0 1
10.4648 0 1
10.5819 0 1
10.6991 0 1
10.8162 0 1
10.9334 0 1
11.0506 0 1
11.1678 0 1
11.285 0 1
11.4023 0 1
11.5196 0 1
11.6369 0 1
11.7542 0 1
11.8715 0 1
11.9888 0 1
12.1062 0 1
12.2235 0 1
12.3409 0 1
12.4582 0 1
12.5756 0 1
12.693 0 1
12.8104 0 1
12.9278 0 1
13.0452 0 1
13.1626 0 1
13.28 0 1
13.3974 0 1
13.5149 0 1
13.6323 0 1
13.7497 0 1
13.8671 0 1
13.9845 0 1
14.1019 0 1
14.2193 0 1
14.3367 0 1
14.4541 0 1
14.5714 0 1
14.6888 0 1
14.8062 0 1
14.9235 0 1
15.0408 0 0
15.1581 0 0
15.2755 0 0
15.3927 0 0
15.51 0 0
15.6273 0 0
15.7445 0 0
15.8617 0 0
15.9789 0 0
16.0961 0 0
16.2132 0 0
16.3304 0 0
16.4475 0 0
16.5646 0 0
16.6816 0 0
16.7986 0 0
16.9156 0 0
17.0326 0 0
17.1496 0 0
17.2665 0 0
17.3833 0 0
17.5002 0 0
17.617 0 0
17.7338 0 0
17.8505 0 0
17.9672 0 0
18.0839 0 0
18.2005 0 0
18.3171 0 0
18.4337 0 0
18.5502 0 0
18.6666 0 0
18.7831 0 0
18.8994 0 0
19.0158 0 0
19.1321 0 0
19.2483 0 0
19.3645 0 0
19.4806 0 0
19.5967 0 0
19.7128 0 0
19.8288 0 0
19.9447 0 0
20.0606 0 1
20.1764 0 1
20.2922 0 1
20.4079 0 1
20.5236 0 1
20.6392 0 1
20.7548 0 1
20.8702 0 1
23.3078 0 1
23.4233 0 1
23.539 0 1
23.6547 0 1
23.7704 0 1
23.8862 0 1
24.0021 0 1
24.118 0 1
24.234 0 1
24.35 0 1
24.4661 2456 49.558
24.5822 2490 49.8999
24.6984 2635 51.3323
24.8146 2530 50.2991
24.9309 2618 51.1664
25.0472 2774 52.6688
25.1636 2643 51.4101
25.28 2693 51.8941
25.3965 2823 53.1319
25.513 2812 53.0283
25.6296 2780 52.7257
25.7462 2809 53
25.8628 2661 51.5849
25.9795 2578 50.774
26.0962 2442 49.4166
26.213 2535 50.3488
26.3298 2488 49.8799
26.4466 2469 49.689
26.5635 2510 50.0999
26.6804 2422 49.2138
26.7973 2335 48.3218
26.9143 2312 48.0833
27.0313 2208 46.9894
27.1483 2085 45.6618
27.2653 2130 46.1519
27.3824 2184 46.7333
27.4996 2157 46.4435
27.6167 2160 46.4758
27.7339 2280 47.7493
27.8511 2360 48.5798
27.9683 2479 49.7896
28.0855 2442 49.4166
28.2028 2500 50
28.3201 2434 49.3356
28.4374 2508 50.0799
28.5547 2490 49.8999
28.6721 2324 48.2079
28.7894 2424 49.2341
28.9068 2333 48.3011
29.0242 2257 47.5079
29.1416 2201 46.9148
29.259 2210 47.0106
29.3764 2130 46.1519
29.4939 2151 46.3789
29.6113 2094 45.7602
29.7288 2158 46.4543
29.8463 2057 45.3542
29.9638 2131 46.1628
30.0812 2173 46.6154
30.1987 2137 46.2277
30.3162 2124 46.0869
30.4337 2083 45.6399
30.5512 2109 45.9239
30.6687 2000 44.7214
30.7862 2048 45.2548
30.9037 2072 45.5192
31.0212 2308 48.0416
31.1387 2344 48.4149
31.2562 2366 48.6415
31.3737 2441 49.4065
31.4912 2431 49.3052
31.6087 2428 49.2747
31.7262 2421 49.2037
31.8436 2310 48.0625
31.9611 2261 47.55
32.0785 2203 46.9361
32.1959 2103 45.8585
32.3134 1972 44.4072
32.4308 1959 44.2606
32.5482 1883 43.3935
32.6655 1858 43.1045
32.7829 1791 42.3202
32.9002 1731 41.6053
33.0176 1705 41.2916
33.1349 1779 42.1782
33.2522 1666 40.8167
33.3694 1796 42.3792
33.4867 1800 42.4264
33.6039 1799 42.4146
33.7211 1780 42.19
33.8383 1856 43.0813
33.9554 1899 43.5775
34.0725 1867 43.2088
34.1896 1894 43.5201
34.3067 1856 43.0813
34.4237 1825 42.72
34.5407 1847 42.9767
34.6577 1785 42.2493
34.7746 1830 42.7785
34.8915 1827 42.7434
35.0084 1830 42.7785
35.1252 1821 42.6732
35.242 1782 42.2137
35.3587 1763 41.9881
35.4755 1703 41.2674
35.5921 1782 42.2137
35.7088 1701 41.2432
35.8254 1628 40.3485
35.9419 1653 40.6571
36.0584 1608 40.0999
36.1749 1599 39.9875
36.2913 1592 39.8999
36.4077 1493 38.6394
36.524 1499 38.7169
36.6403 1518 38.9615
36.7565 1453 38.1182
36.8727 1532 39.1408
36.9889 1563 39.5348
37.1049 1509 38.8458
37.221 0 1
37.3369 0 1
37.4529 0 1
37.5687 0 1
37.6845 0 1
37.8003 0 1
37.916 0 1
38.0316 0 1
38.1472 0 1
40.5851 0 1
40.7008 0 1
40.8164 0 1
40.9322 0 1
41.048 0 1
41.1639 0 1
41.2798 0 1
41.3958 0 1
41.5118 0 1
41.6279 0 1
41.744 1149 33.8969
41.8602 1207 34.7419
41.9765 1247 35.3129
42.0928 1269 35.623
42.2091 1257 35.4542
42.3255 1262 35.5246
42.4419 1251 35.3695
42.5584 1145 33.8378
42.675 1191 34.5109
42.7915 1169 34.1906
42.9081 1123 33.5112
43.0248 907 30.1164
43.1415 931 30.5123
43.2582 871 29.5127
43.375 933 30.545
43.4918 966 31.0805
43.6087 906 30.0998
43.7256 920 30.3315
43.8425 894 29.8998
43.9595 934 30.5614
44.0765 921 30.348
44.1935 908 30.133
44.3106 946 30.7571
44.4277 890 29.8329
44.5448 996 31.5595
44.6619 937 30.6105
44.7791 906 30.0998
44.8963 890 29.8329
45.0136 935 30.5778
45.1308 934 30.5614
45.2481 936 30.5941
45.3654 911 30.1828
45.4827 957 30.9354
45.6001 904 30.0666
45.7174 871 29.5127
45.8348 879 29.6479
45.9522 799 28.2666
46.0697 735 27.1109
46.1871 743 27.258
46.3046 755 27.4773
46.422 768 27.7128
46.5395 656 25.6125
46.657 600 24.4949
46.7745 619 24.8797
46.892 607 24.6374
47.0096 627 25.04
47.1271 591 24.3105
47.2446 623 24.96
47.3622 606 24.6171
47.4797 623 24.96
47.5973 647 25.4362
47.7149 652 25.5343
47.8324 617 24.8395
47.95 592 24.3311
48.0675 621 24.9199
48.1851 598 24.454
48.3027 584 24.1661
48.4202 636 25.219
48.5378 613 24.7588
48.6554 668 25.8457
48.7729 677 26.0192
48.8904 681 26.096
49.008 628 25.0599
49.1255 687 26.2107
49.243 634 25.1794
49.3605 643 25.3574
49.478 621 24.9199
49.5955 620 24.8998
49.713 683 26.1343
49.8304 624 24.98
49.9479 600 24.4949
50.0653 586 24.2074
50.1827 571 23.8956
50.3001 538 23.1948
50.4175 536 23.1517
50.5348 579 24.0624
50.6521 572 23.9165
50.7694 659 25.671
50.8867 683 26.1343
51.004 662 25.7294
51.1212 675 25.9808
51.2384 724 26.9072
51.3556 745 27.2947
51.4727 714 26.7208
51.5899 740 27.2029
51.707 719 26.8142
51.824 772 27.7849
51.9411 714 26.7208
52.0581 784 28
52.175 765 27.6586
52.2919 769 27.7308
52.4088 814 28.5307
52.5257 841 29
52.6425 801 28.3019
52.7593 847 29.1033
52.876 801 28.3019
52.9927 816 28.5657
53.1094 821 28.6531
53.226 780 27.9285
53.3426 823 28.688
53.4591 791 28.1247
53.5756 796 28.2135
53.692 744 27.2764
53.8084 717 26.7769
53.9248 681 26.096
54.0411 769 27.7308
54.1573 714 26.7208
54.2735 0 1
54.3896 0 1
54.5057 0 1
54.6217 0 1
54.7377 0 1
54.8537 0 1
54.9695 0 1
55.0853 0 1
55.2011 0 1
55.3168 0 1
55.4324 0 1
57.824 0 1
57.9396 0 1
58.0553 0 1
58.1711 0 1
58.2869 0 1
58.4028 0 1
58.5187 0 1
58.6347 0 1
58.7508 0 1
58.8669 0 1
58.983 846 29.0861
59.0992 909 30.1496
59.2155 914 30.2324
59.3318 937 30.6105
59.4482 899 29.9833
59.5646 935 30.5778
59.681 1011 31.7962
59.7975 1033 32.1403
59.9141 1029 32.078
60.0306 1066 32.6497
60.1473 1119 33.4515
60.2639 1107 33.2716
60.3807 1071 32.7261
60.4974 1136 33.7046
60.6142 1109 33.3017
60.731 1106 33.2566
60.8479 1230 35.0714
60.9648 1195 34.5688
61.0818 1182 34.3802
61.1987 1141 33.7787
61.3158 1201 34.6554
61.4328 1175 34.2783
61.5499 1157 34.0147
61.667 1144 33.8231
61.7841 1118 33.4365
61.9013 1183 34.3948
62.0185 1157 34.0147
62.1357 1182 34.3802
62.253 1138 33.7343
62.3702 1186 34.4384
62.4875 1033 32.1403
62.6049 1028 32.0624
62.7222 1073 32.7567
62.8396 1112 33.3467
62.9569 1128 33.5857
63.0743 1185 34.4238
63.1918 1230 35.0714
63.3092 1142 33.7935
63.4267 1141 33.7787
63.5441 1295 35.9861
63.6616 1206 34.7275
63.7791 1257 35.4542
63.8966 1232 35.0999
64.0142 1298 36.0278
64.1317 1247 35.3129
64.2492 1135 33.6898
64.3668 1212 34.8138
64.4843 1352 36.7696
64.6019 1284 35.8329
64.7195 1279 35.7631
64.837 1196 34.5832
64.9546 1325 36.4005
65.0722 1168 34.176
65.1898 1171 34.2199
65.3074 1140 33.7639
65.4249 1142 33.7935
65.5425 1190 34.4964
65.6601 1112 33.3467
65.7777 1064 32.619
65.8952 1012 31.8119
66.0128 908 30.133
66.1304 913 30.2159
66.2479 927 30.4467
66.3655 954 30.8869
66.483 941 30.6757
66.6005 1051 32.4191
66.718 957 30.9354
66.8355 1008 31.749
66.953 948 30.7896
67.0705 1059 32.5423
67.1879 1044 32.311
67.3054 993 31.5119
67.4228 1022 31.9687
67.5402 984 31.3688
67.6576 1047 32.3574
67.7749 939 30.6431
67.8923 1035 32.1714
68.0096 1025 32.0156
68.1269 1000 31.6228
68.2442 1064 32.619
68.3614 1024 32
68.4787 913 30.2159
68.5958 971 31.1609
68.713 927 30.4467
68.8302 920 30.3315
68.9473 952 30.8545
69.0643 896 29.9333
69.1814 941 30.6757
69.2984 910 30.1662
69.4154 837 28.931
69.5323 833 28.8617
69.6492 802 28.3196
69.7661 753 27.4408
69.8829 732 27.0555
69.9997 784 28
70.1165 763 27.6225
70.2332 761 27.5862
70.3499 796 28.2135
70.4665 779 27.9106
70.5831 811 28.4781
70.6996 828 28.775
70.8161 765 27.6586
70.9326 820 28.6356
71.049 802 28.3196
71.1653 805 28.3725
71.2817 847 29.1033
71.3979 874 29.5635
71.5141 837 28.931
71.6303 826 28.7402
71.7464 782 27.9643
71.8624 0 1
71.9784 0 1
72.0944 0 1
72.2102 0 1
72.3261 0 1
72.4418 0 1
72.5575 0 1
72.6732 0 1
75.1054 0 1
75.2209 0 1
75.3365 0 1
75.4521 0 1
75.5678 0 1
75.6835 0 1
75.7993 0 1
75.9151 0 1
76.031 0 1
76.147 772 27.7849
76.263 768 27.7128
76.3791 791 28.1247
76.4952 802 28.3196
76.6113 860 29.3258
76.7276 855 29.2404
76.8438 886 29.7658
76.9601 901 30.0167
77.0765 868 29.4618
77.1929 948 30.7896
77.3093 928 30.4631
77.4258 919 30.315
77.5423 891 29.8496
77.6589 918 30.2985
77.7755 915 30.249
77.8921 877 29.6142
78.0088 863 29.3769
78.1256 869 29.4788
78.2423 873 29.5466
78.3591 831 28.8271
78.4759 822 28.6705
78.5928 820 28.6356
78.7097 773 27.8029
78.8266 772 27.7849
78.9436 679 26.0576
79.0606 711 26.6646
79.1776 705 26.5518
79.2946 812 28.4956
79.4117 796 28.2135
79.5288 807 28.4077
79.6459 808 28.4253
79.7631 895 29.9166
79.8802 859 29.3087
79.9974 852 29.189
80.1147 854 29.2233
80.2319 883 29.7153
80.3491 919 30.315
80.4664 865 29.4109
80.5837 1008 31.749
80.701 924 30.3974
80.8183 998 31.5911
80.9357 932 30.5287
81.053 907 30.1164
81.1704 951 30.8383
81.2877 930 30.4959
81.4051 936 30.5941
81.5225 914 30.2324
81.6399 902 30.0333
81.7573 939 30.6431
81.8747 824 28.7054
81.9922 839 28.9655
82.1096 841 29
82.227 858 29.2916
82.3444 767 27.6948
82.4619 735 27.1109
82.5793 668 25.8457
82.6967 739 27.1846
82.8142 820 28.6356
82.9316 736 27.1293
83.049 732 27.0555
83.1664 793 28.1603
83.2838 800 28.2843
83.4012 852 29.189
83.5186 816 28.5657
83.636 853 29.2062
83.7534 841 29
83.8708 836 28.9137
83.9881 838 28.9482
84.1055 947 30.7734
84.2228 877 29.6142
84.3401 931 30.5123
84.4575 911 30.1828
84.5747 892 29.8664
84.692 986 31.4006
84.8093 949 30.8058
84.9265 911 30.1828
85.0437 997 31.5753
85.1609 860 29.3258
85.2781 868 29.4618
85.3952 853 29.2062
85.5123 868 29.4618
85.6294 884 29.7321
85.7465 915 30.249
85.8636 874 29.5635
85.9806 778 27.8927
86.0976 722 26.8701
86.2145 789 28.0891
86.3315 762 27.6043
86.4484 817 28.5832
86.5652 872 29.5296
86.682 848 29.1204
86.7988 842 29.0172
86.9156 864 29.3939
87.0323 863 29.3769
87.149 923 30.3809
87.2657 913 30.2159
87.3823 916 30.2655
87.4988 909 30.1496
87.6154 938 30.6268
87.7318 968 31.1127
87.8483 996 31.5595
87.9647 1024 32
88.081 1011 31.7962
88.1973 1001 31.6386
88.3136 972 31.1769
88.4298 944 30.7246
88.546 1049 32.3883
88.6621 1004 31.686
88.7781 954 30.8869
88.8942 0 1
89.0101 0 1
89.126 0 1
89.2419 0 1
89.3577 0 1
89.4734 0 1
89.5891 0 1
89.7047 0 1
89.8203 0 1
89.9358 0 1
92.3269 0 1
92.4424 0 1
92.558 0 1
92.6736 0 1
92.7893 0 1
92.905 0 1
93.0208 0 1
93.1366 0 1
93.2525 0 1
93.3685 0 1
93.4845 0 1
93.6005 1063 32.6037
93.7167 1050 32.4037
93.8328 1121 33.4813
93.949 1062 32.5883
94.0653 1075 32.7872
94.1816 1009 31.7648
94.2979 1006 31.7175
94.4143 958 30.9516
94.5307 948 30.7896
94.6472 1013 31.8277
94.7637 957 30.9354
94.8803 1030 32.0936
94.9969 946 30.7571
95.1135 922 30.3645
95.2302 851 29.1719
95.3469 841 29
95.4637 850 29.1548
95.5805 907 30.1164
95.6973 878 29.6311
95.8142 935 30.5778
95.9311 922 30.3645
96.048 979 31.289
96.1649 966 31.0805
96.2819 1061 32.573
96.3989 1031 32.1092
96.516 1047 32.3574
96.633 1119 33.4515
96.7501 1121 33.4813
96.8673 1207 34.7419
96.9844 1110 33.3167
97.1016 1156 34
97.2188 1162 34.0881
97.336 1236 35.1568
97.4532 1176 34.2929
97.5704 1192 34.5254
97.6877 1141 33.7787
97.805 1173 34.2491
97.9223 1200 34.641
98.0396 1063 32.6037
98.1569 1088 32.9848
98.2743 1060 32.5576
98.3916 1170 34.2053
98.509 1083 32.909
98.6264 1059 32.5423
98.7438 1011 31.7962
98.8612 988 31.4325
98.9786 973 31.1929
99.096 906 30.0998
99.2134 967 31.0966
99.3308 1001 31.6386
99.4482 984 31.3688
99.5656 955 30.9031
99.6831 1006 31.7175
99.8005 1131 33.6303
99.9179 1031 32.1092
100.035 1091 33.0303
100.153 1036 32.187
100.27 1144 33.8231
100.388 1133 33.6601
100.505 1105 33.2415
100.622 1156 34
100.74 1177 34.3074
100.857 1194 34.5543
100.975 1274 35.6931
101.092 1264 35.5528
101.209 1297 36.0139
101.327 1237 35.171
101.444 1227 35.0286
101.561 1259 35.4824
101.679 1179 34.3366
101.796 1120 33.4664
101.913 1205 34.7131
102.03 1066 32.6497
102.148 1126 33.5559
102.265 1153 33.9559
102.382 1069 32.6956
102.499 1014 31.8434
102.616 1010 31.7805
102.733 988 31.4325
102.851 1077 32.8177
102.968 1067 32.665
103.085 1094 33.0757
103.202 1159 34.0441
103.319 1164 34.1174
103.436 1129 33.6006
103.552 1191 34.5109
103.669 1206 34.7275
103.786 1250 35.3553
103.903 1288 35.8887
104.02 1279 35.7631
104.137 1356 36.8239
104.253 1369 37
104.37 1350 36.7423
104.487 1325 36.4005
104.603 1347 36.7015
104.72 1391 37.2961
104.836 1401 37.4299
104.953 1339 36.5923
105.069 1426 37.7624
105.186 1381 37.1618
105.302 1424 37.7359
105.418 1385 37.2156
105.535 1333 36.5103
105.651 1357 36.8375
105.767 1338 36.5787
105.883 1331 36.4829
105.999 1290 35.9166
106.115 0 1
106.231 0 1
106.347 0 1
106.463 0 1
106.579 0 1
106.694 0 1
106.81 0 1
106.926 0 1
107.041 0 1
107.157 0 1
109.576 0 1
109.692 0 1
109.807 0 1
109.923 0 1
110.039 0 1
110.155 0 1
110.27 0 1
110.386 0 1
110.502 0 1
110.618 2015 44.8888
110.735 1837 42.8602
110.851 1914 43.7493
110.967 1821 42.6732
111.083 1736 41.6653
111.199 1667 40.8289
111.316 1769 42.0595
111.432 1872 43.2666
111.549 1831 42.7902
111.665 1814 42.5911
111.782 1901 43.6005
111.898 1956 44.2267
112.015 1952 44.1814
112.132 2022 44.9667
112.248 2013 44.8665
112.365 1985 44.5533
112.482 1958 44.2493
112.599 2007 44.7996
112.716 1980 44.4972
112.832 2059 45.3762
112.949 1988 44.587
113.066 2029 45.0444
113.183 1996 44.6766
113.3 1970 44.3847
113.417 1906 43.6578
113.534 2003 44.7549
113.652 1853 43.0465
113.769 1939 44.0341
113.886 1978 44.4747
114.003 1859 43.1161
114.12 1849 43
114.238 1822 42.6849
114.355 1759 41.9404
114.472 1726 41.5452
114.589 1527 39.0768
114.707 1510 38.8587
114.824 1561 39.5095
114.942 1633 40.4104
115.059 1634 40.4228
115.176 1733 41.6293
115.294 1728 41.5692
115.411 1699 41.2189
115.529 1824 42.7083
115.646 1827 42.7434
115.764 1811 42.5558
115.881 1890 43.4741
115.999 1932 43.9545
116.116 1883 43.3935
116.234 1860 43.1277
116.351 1886 43.4281
116.469 1967 44.3509
116.586 1882 43.382
116.704 2024 44.9889
116.821 1981 44.5084
116.939 1992 44.6318
117.056 1967 44.3509
117.174 1966 44.3396
117.291 1883 43.3935
117.409 1983 44.5309
117.526 2008 44.8107
117.644 1922 43.8406
117.761 1877 43.3244
117.879 1868 43.2204
117.996 1809 42.5323
118.114 1770 42.0714
118.231 1706 41.3038
118.349 1565 39.5601
118.466 1623 40.2865
118.584 1691 41.1218
118.701 1778 42.1663
118.819 1695 41.1704
118.936 1686 41.0609
119.053 1683 41.0244
119.171 1773 42.107
119.288 1837 42.8602
119.405 1824 42.7083
119.523 1790 42.3084
119.64 1816 42.6146
119.757 1924 43.8634
119.875 1910 43.7035
119.992 1891 43.4856
120.109 1894 43.5201
120.226 1924 43.8634
120.343 1864 43.1741
120.46 1860 43.1277
120.578 1869 43.2319
120.695 1850 43.0116
120.812 1823 42.6966
120.929 1809 42.5323
121.046 1875 43.3013
121.163 1789 42.2966
121.279 1840 42.8952
121.396 1903 43.6234
121.513 1830 42.7785
121.63 1834 42.8252
121.747 1678 40.9634
121.863 1671 40.8779
121.98 1580 39.7492
122.097 1522 39.0128
122.213 1628 40.3485
122.33 1526 39.064
122.446 1586 39.8246
122.563 1614 40.1746
122.679 1536 39.1918
122.795 1581 39.7618
122.912 1760 41.9524
123.028 1667 40.8289
123.144 1688 41.0853
123.26 1697 41.1947
123.377 0 1
123.493 0 1
123.609 0 1
123.725 0 1
123.84 0 1
123.956 0 1
124.072 0 1
124.188 0 1
124.303 0 1
124.419 0 1
126.852 0 1
126.968 0 1
127.083 0 1
127.199 0 1
127.315 0 1
127.431 0 1
127.547 0 1
127.663 0 1
127.779 0 1
127.895 0 1
128.011 0 1
128.127 0 1
128.243 0 1
128.359 1381 37.1618
128.476 1425 37.7492
128.592 1318 36.3043
128.708 1281 35.7911
128.825 1334 36.524
128.941 1373 37.054
129.058 1287 35.8748
129.174 1293 35.9583
129.291 1324 36.3868
129.408 1363 36.9188
129.524 1343 36.647
129.641 1414 37.6032
129.758 1309 36.1801
129.875 1338 36.5787
129.992 1349 36.7287
130.108 1273 35.6791
130.225 1340 36.606
130.342 1253 35.3977
130.459 1221 34.9428
130.576 1247 35.3129
130.693 1231 35.0856
130.81 1156 34
130.928 1153 33.9559
131.045 1109 33.3017
131.162 1129 33.6006
131.279 1153 33.9559
131.396 1196 34.5832
131.513 1241 35.2278
131.631 1182 34.3802
131.748 1312 36.2215
131.865 1264 35.5528
131.983 1359 36.8646
132.1 1343 36.647
132.217 1378 37.1214
132.335 1391 37.2961
132.452 1349 36.7287
132.57 1397 37.3765
132.687 1361 36.8917
132.804 1453 38.1182
132.922 1452 38.1051
133.039 1424 37.7359
133.157 1408 37.5233
133.274 1498 38.704
133.392 1370 37.0135
133.509 1433 37.855
133.627 1402 37.4433
133.744 1476 38.4187
133.862 1316 36.2767
133.979 1442 37.9737
134.097 1415 37.6165
134.214 1406 37.4967
134.332 1284 35.8329
134.449 1332 36.4966
134.567 1270 35.6371
134.684 1252 35.3836
134.802 1343 36.647
134.919 1344 36.6606
135.037 1328 36.4417
135.154 1355 36.8103
135.272 1447 38.0395
135.389 1435 37.8814
135.507 1379 37.1349
135.624 1472 38.3667
135.742 1510 38.8587
135.859 1546 39.3192
135.977 1529 39.1024
136.094 1617 40.2119
136.211 1567 39.5854
136.329 1662 40.7676
136.446 1594 39.9249
136.564 1721 41.4849
136.681 1645 40.5586
136.798 1564 39.5474
136.915 1556 39.4462
137.033 1602 40.025
137.15 1464 38.2623
137.267 1441 37.9605
137.384 1540 39.2428
137.502 1453 38.1182
137.619 1554 39.4208
137.736 1468 38.3145
137.853 1505 38.7943
137.97 1458 38.1838
138.087 1461 38.223
138.204 1419 37.6696
138.321 1484 38.5227
138.438 1576 39.6989
138.555 1593 39.9124
138.672 1636 40.4475
138.788 1722 41.497
138.905 1733 41.6293
139.022 1875 43.3013
139.139 1999 44.7102
139.255 1900 43.589
139.372 2180 46.6905
139.488 2192 46.8188
139.605 2175 46.6369
139.721 2232 47.244
139.838 2294 47.8957
139.954 2512 50.1199
140.071 2562 50.6162
140.187 2622 51.2055
140.303 2778 52.7067
140.419 2784 52.7636
140.535 2967 54.4702
140.652 3103 55.7046
140.768 0 1
140.884 0 1
141 0 1
141.115 0 1
141.231 0 1
141.347 0 1
141.463 0 1
141.578 0 1
141.694 0 1
144.104 0 1
144.219 0 1
144.335 0 1
144.45 0 1
144.566 0 1
144.682 0 1
144.798 0 1
144.914 0 1
145.03 0 1
145.146 2946 54.2771
145.262 3091 55.5968
145.378 3020 54.9545
145.494 3142 56.0535
145.61 3114 55.8032
145.726 3130 55.9464
145.842 3190 56.4801
145.959 3274 57.2189
146.075 3266 57.1489
146.192 3323 57.6455
146.308 3562 59.6825
146.425 3494 59.1101
146.541 3474 58.9406
146.658 3348 57.8619
146.774 3173 56.3294
146.891 3086 55.5518
147.008 3123 55.8838
147.125 3154 56.1605
147.241 3287 57.3324
147.358 3215 56.701
147.475 3185 56.4358
147.592 3179 56.3826
147.709 3234 56.8683
147.826 3344 57.8273
147.943 3268 57.1664
148.06 3087 55.5608
148.177 3049 55.2178
148.294 3095 55.6327
148.411 3202 56.5862
148.528 3092 55.6058
148.645 3093 55.6147
148.762 3195 56.5243
148.88 3027 55.0182
148.997 2989 54.6717
149.114 3196 56.5332
149.231 3119 55.848
149.349 3238 56.9034
149.466 3190 56.4801
149.583 3143 56.0625
149.701 3161 56.2228
149.818 3364 58
149.935 3296 57.4108
150.053 3278 57.2538
150.17 3225 56.7891
150.287 3131 55.9553
150.405 3020 54.9545
150.522 2895 53.8052
150.64 2840 53.2917
150.757 2933 54.1572
150.875 2874 53.6097
150.992 2804 52.9528
151.11 2766 52.5928
151.227 2940 54.2218
151.344 3023 54.9818
151.462 3075 55.4527
151.579 3099 55.6687
151.697 3109 55.7584
151.814 3061 55.3263
151.932 3135 55.9911
152.049 3030 55.0454
152.167 3064 55.3534
152.284 3192 56.4978
152.402 3152 56.1427
152.519 3235 56.8771
152.636 3301 57.4543
152.754 3280 57.2713
152.871 3349 57.8705
152.989 3451 58.7452
153.106 3414 58.4294
153.223 3422 58.4979
153.341 3263 57.1227
153.458 3347 57.8533
153.575 3310 57.5326
153.693 3427 58.5406
153.81 3378 58.1206
153.927 3156 56.1783
154.044 2923 54.0648
154.162 2939 54.2125
154.279 3043 55.1634
154.396 3117 55.8301
154.513 3193 56.5066
154.63 3149 56.116
154.747 3214 56.6922
154.864 3229 56.8243
154.981 3411 58.4038
155.098 3406 58.3609
155.215 3401 58.3181
155.332 3488 59.0593
155.449 3546 59.5483
155.566 3718 60.9754
155.683 3685 60.7042
155.8 3811 61.7333
155.917 4030 63.4823
156.033 4052 63.6553
156.15 0 1
156.267 0 1
156.383 0 1
156.5 0 1
156.617 0 1
156.733 0 1
156.85 0 1
156.966 0 1
157.082 0 1
157.199 0 1
157.315 0 1
157.431 0 1
157.547 0 1
157.664 0 1
157.78 0 1
157.896 0 1
158.012 0 1
158.128 0 1
158.244 0 1
158.359 0 1
158.475 0 1
158.591 0 1
158.706 0 1
