
6.15755 0 1
6.2731 0 1
6.3887 0 1
6.50437 0 1
6.62009 0 1
6.73587 0 1
6.8517 0 1
6.96759 0 1
7.08353 0 1
7.19952 0 1
7.31557 0 1
7.43166 0 1
7.54781 0 1
7.664 0 1
7.78024 0 1
7.89653 0 1
8.01286 0 1
8.12924 0 1
8.24567 0 1
8.36213 0 1
8.47864 0 1
8.59519 0 1
8.71178 0 1
8.82841 0 1
8.94508 0 1
9.06179 0 1
9.17853 0 1
9.29531 0 1
9.41212 0 1
9.52897 0 1
9.64584 0 1
9.76276 0 1
9.8797 0 1
9.99667 0 1
10.1137 0 1
10.2307 0 1
10.3478 0 1
10.4648 0 1
10.5819 0 1
10.6991 0 1
10.8162 0 1
10.9334 0 1
11.0506 0 1
11.1678 0 1
11.285 0 1
11.4023 0 1
11.5196 0 1
11.6369 0 1
11.7542 0 1
11.8715 0 1
11.9888 0 1
12.1062 0 1
12.2235 0 1
12.3409 0 1
12.4582 0 1
12.5756 0 1
12.693 0 1
12.8104 0 1
12.9278 0 1
13.0452 0 1
13.1626 0 1
13.28 0 1
13.3974 0 1
13.5149 0 1
13.6323 0 1
13.7497 0 1
13.8671 0 1
13.9845 0 1
14.1019 0 1
14.2193 0 1
14.3367 0 1
14.4541 0 1
14.5714 0 1
14.6888 0 1
14.8062 0 1
14.9235 0 1
15.0408 0 0
15.1581 0 0
15.2755 0 0
15.3927 0 0
15.51 0 0
15.6273 0 0
15.7445 0 0
15.8617 0 0
15.9789 0 0
16.0961 0 0
16.2132 0 0
16.3304 0 0
16.4475 0 0
16.5646 0 0
16.6816 0 0
16.7986 0 0
16.9156 0 0
17.0326 0 0
17.1496 0 0
17.2665 0 0
17.3833 0 0
17.5002 0 0
17.617 0 0
17.7338 0 0
17.8505 0 0
17.9672 0 0
18.0839 0 0
18.2005 0 0
18.3171 0 0
18.4337 0 0
18.5502 0 0
18.6666 0 0
18.7831 0 0
18.8994 0 0
19.0158 0 0
19.1321 0 0
19.2483 0 0
19.3645 0 0
19.4806 0 0
19.5967 0 0
19.7128 0 0
19.8288 0 0
19.9447 0 0
20.0606 0 1
20.1764 0 1
20.2922 0 1
20.4079 0 1
20.5236 0 1
20.6392 0 1
20.7548 0 1
20.8702 0 1
23.3078 0 1
23.4233 0 1
23.539 0 1
23.6547 0 1
23.7704 0 1
23.8862 0 1
24.0021 0 1
24.118 0 1
24.234 0 1
24.35 0 1
24.4661 17610 132.703
24.5822 17457 132.125
24.6984 17395 131.89
24.8146 17443 132.072
24.9309 17276 131.438
25.0472 17453 132.11
25.1636 17613 132.714
25.28 17657 132.88
25.3965 17891 133.757
25.513 18151 134.726
25.6296 18692 136.719
25.7462 19235 138.69
25.8628 19346 139.09
25.9795 19562 139.864
26.0962 19950 141.244
26.213 20198 142.12
26.3298 19718 140.421
26.4466 20029 141.524
26.5635 19725 140.446
26.6804 19729 140.46
26.7973 19405 139.302
26.9143 19150 138.384
27.0313 19183 138.503
27.1483 19630 140.107
27.2653 20305 142.496
27.3824 20333 142.594
27.4996 20263 142.348
27.6167 19840 140.855
27.7339 19473 139.546
27.8511 19035 137.967
27.9683 18711 136.788
28.0855 18337 135.414
28.2028 18583 136.319
28.3201 17909 133.825
28.4374 17534 132.416
28.5547 17271 131.419
28.6721 17072 130.66
28.7894 17065 130.633
28.9068 17329 131.64
29.0242 17192 131.118
29.1416 17535 132.42
29.259 18058 134.38
29.3764 18102 134.544
29.4939 18360 135.499
29.6113 18595 136.363
29.7288 18681 136.678
29.8463 19271 138.82
29.9638 19153 138.394
30.0812 19224 138.651
30.1987 19163 138.43
30.3162 18551 136.202
30.4337 18177 134.822
30.5512 18467 135.893
30.6687 18732 136.865
30.7862 18885 137.423
30.9037 19372 139.183
31.0212 19779 140.638
31.1387 19835 140.837
31.2562 19620 140.071
31.3737 19243 138.719
31.4912 19031 137.953
31.6087 18478 135.934
31.7262 18222 134.989
31.8436 17950 133.978
31.9611 17643 132.827
32.0785 17380 131.833
32.1959 17263 131.389
32.3134 16927 130.104
32.4308 17181 131.076
32.5482 17057 130.602
32.6655 17518 132.356
32.7829 17605 132.684
32.9002 17996 134.149
33.0176 18116 134.596
33.1349 18316 135.337
33.2522 18544 136.176
33.3694 19017 137.902
33.4867 19152 138.391
33.6039 19445 139.445
33.7211 19081 138.134
33.8383 19218 138.629
33.9554 18672 136.646
34.0725 18022 134.246
34.1896 18060 134.387
34.3067 18594 136.36
34.4237 19135 138.329
34.5407 19273 138.827
34.6577 19622 140.079
34.7746 19615 140.054
34.8915 19420 139.356
35.0084 19051 138.025
35.1252 18789 137.073
35.242 18501 136.018
35.3587 18216 134.967
35.4755 17958 134.007
35.5921 17705 133.06
35.7088 17195 131.13
35.8254 17191 131.114
35.9419 17032 130.507
36.0584 16706 129.252
36.1749 16592 128.81
36.2913 16891 129.965
36.4077 17032 130.507
36.524 17025 130.48
36.6403 17698 133.034
36.7565 18010 134.201
36.8727 18514 136.066
36.9889 18262 135.137
37.1049 18736 136.88
37.221 0 1
37.3369 0 1
37.4529 0 1
37.5687 0 1
37.6845 0 1
37.8003 0 1
37.916 0 1
38.0316 0 1
38.1472 0 1
40.5851 0 1
40.7008 0 1
40.8164 0 1
40.9322 0 1
41.048 0 1
41.1639 0 1
41.2798 0 1
41.3958 0 1
41.5118 0 1
41.6279 0 1
41.744 13935 118.047
41.8602 14964 122.327
41.9765 15726 125.403
42.0928 15972 126.38
42.2091 16439 128.215
42.3255 16530 128.569
42.4419 16883 129.935
42.5584 16719 129.302
42.675 16400 128.062
42.7915 15985 126.432
42.9081 15730 125.419
43.0248 16105 126.905
43.1415 16437 128.207
43.2582 16429 128.176
43.375 16851 129.811
43.4918 17099 130.763
43.6087 16865 129.865
43.7256 16845 129.788
43.8425 16641 129
43.9595 16076 126.791
44.0765 15748 125.491
44.1935 15459 124.334
44.3106 14938 122.221
44.4277 14633 120.967
44.5448 14464 120.266
44.6619 13549 116.4
44.7791 13436 115.914
44.8963 13186 114.83
45.0136 13103 114.468
45.1308 13117 114.529
45.2481 13260 115.152
45.3654 13312 115.378
45.4827 13773 117.358
45.6001 13742 117.226
45.7174 13929 118.021
45.8348 13824 117.576
45.9522 13715 117.111
46.0697 14037 118.478
46.1871 13927 118.013
46.3046 13454 115.991
46.422 13021 114.11
46.5395 12726 112.81
46.657 12978 113.921
46.7745 13319 115.408
46.892 13585 116.555
47.0096 13844 117.661
47.1271 13755 117.282
47.2446 13655 116.855
47.3622 13236 115.048
47.4797 12961 113.846
47.5973 12845 113.336
47.7149 12454 111.597
47.8324 12236 110.616
47.95 11622 107.805
48.0675 11564 107.536
48.1851 10841 104.12
48.3027 10574 102.83
48.4202 10357 101.769
48.5378 10104 100.519
48.6554 10241 101.198
48.7729 10410 102.029
48.8904 10718 103.528
49.008 11082 105.271
49.1255 11027 105.01
49.243 11393 106.738
49.3605 11305 106.325
49.478 11475 107.121
49.5955 11634 107.861
49.713 11604 107.722
49.8304 11183 105.75
49.9479 11266 106.141
50.0653 11219 105.92
50.1827 11727 108.291
50.3001 12138 110.173
50.4175 12611 112.299
50.5348 13104 114.473
50.6521 13380 115.672
50.7694 13449 115.97
50.8867 13556 116.43
51.004 13544 116.379
51.1212 13896 117.881
51.2384 13934 118.042
51.3556 13665 116.897
51.4727 13545 116.383
51.5899 13352 115.551
51.707 13213 114.948
51.824 13010 114.061
51.9411 12983 113.943
52.0581 13190 114.848
52.175 13466 116.043
52.2919 13654 116.85
52.4088 14028 118.44
52.5257 14639 120.992
52.6425 15137 123.033
52.7593 15229 123.406
52.876 15515 124.559
52.9927 16113 126.937
53.1094 16277 127.581
53.226 16429 128.176
53.3426 16144 127.059
53.4591 16120 126.965
53.5756 15970 126.372
53.692 16480 128.374
53.8084 16808 129.646
53.9248 17670 132.929
54.0411 18430 135.757
54.1573 18908 137.506
54.2735 0 1
54.3896 0 1
54.5057 0 1
54.6217 0 1
54.7377 0 1
54.8537 0 1
54.9695 0 1
55.0853 0 1
55.2011 0 1
55.3168 0 1
55.4324 0 1
57.824 0 1
57.9396 0 1
58.0553 0 1
58.1711 0 1
58.2869 0 1
58.4028 0 1
58.5187 0 1
58.6347 0 1
58.7508 0 1
58.8669 0 1
58.983 19698 140.35
59.0992 20818 144.284
59.2155 21648 147.133
59.3318 21994 148.304
59.4482 22401 149.67
59.5646 22600 150.333
59.681 22565 150.217
59.7975 21915 148.037
59.9141 21720 147.377
60.0306 21040 145.052
60.1473 20229 142.229
60.2639 19470 139.535
60.3807 18783 137.051
60.4974 18245 135.074
60.6142 17717 133.105
60.731 17199 131.145
60.8479 17308 131.56
60.9648 17628 132.77
61.0818 17835 133.548
61.1987 18635 136.51
61.3158 18740 136.894
61.4328 19031 137.953
61.5499 19117 138.264
61.667 19147 138.373
61.7841 19131 138.315
61.9013 18591 136.349
62.0185 18122 134.618
62.1357 18025 134.257
62.253 18192 134.878
62.3702 18747 136.92
62.4875 19435 139.409
62.6049 19981 141.354
62.7222 20532 143.29
62.8396 20559 143.384
62.9569 20940 144.707
63.0743 20901 144.572
63.1918 21100 145.258
63.3092 20395 142.811
63.4267 19680 140.285
63.5441 18921 137.554
63.6616 18457 135.857
63.7791 17513 132.337
63.8966 16826 129.715
64.0142 16293 127.644
64.1317 15819 125.774
64.2492 15289 123.649
64.3668 15098 122.874
64.4843 15575 124.8
64.6019 16082 126.815
64.7195 16798 129.607
64.837 16911 130.042
64.9546 17332 131.651
65.0722 17191 131.114
65.1898 17231 131.267
65.3074 17387 131.86
65.4249 16681 129.155
65.5425 16414 128.117
65.6601 16132 127.012
65.7777 16321 127.754
65.8952 16635 128.977
66.0128 17631 132.782
66.1304 18221 134.985
66.2479 18621 136.459
66.3655 19057 138.047
66.483 19714 140.407
66.6005 20000 141.421
66.718 19865 140.943
66.8355 19403 139.295
66.953 18998 137.833
67.0705 18487 135.967
67.1879 17591 132.631
67.3054 17240 131.301
67.4228 16552 128.655
67.5402 16083 126.819
67.6576 15250 123.491
67.7749 14533 120.553
67.8923 14319 119.662
68.0096 14523 120.511
68.1269 14960 122.311
68.2442 15982 126.42
68.3614 16880 129.923
68.4787 17433 132.034
68.5958 17355 131.738
68.713 17409 131.943
68.8302 17682 132.974
68.9473 17675 132.947
69.0643 17325 131.624
69.1814 16970 130.269
69.2984 16770 129.499
69.4154 17116 130.828
69.5323 17498 132.28
69.6492 18543 136.173
69.7661 19435 139.409
69.8829 20681 143.809
69.9997 21687 147.265
70.1165 21920 148.054
70.2332 22196 148.983
70.3499 21982 148.263
70.4665 21783 147.591
70.5831 21606 146.99
70.6996 20864 144.444
70.8161 20251 142.306
70.9326 19704 140.371
71.049 18981 137.772
71.1653 18501 136.018
71.2817 17248 131.332
71.3979 16415 128.121
71.5141 16070 126.768
71.6303 16100 126.886
71.7464 15704 125.316
71.8624 0 1
71.9784 0 1
72.0944 0 1
72.2102 0 1
72.3261 0 1
72.4418 0 1
72.5575 0 1
72.6732 0 1
75.1054 0 1
75.2209 0 1
75.3365 0 1
75.4521 0 1
75.5678 0 1
75.6835 0 1
75.7993 0 1
75.9151 0 1
76.031 0 1
76.147 22226 149.084
76.263 23173 152.227
76.3791 23859 154.464
76.4952 23180 152.25
76.6113 22203 149.007
76.7276 20907 144.593
76.8438 20082 141.711
76.9601 20463 143.049
77.0765 21038 145.045
77.1929 22147 148.819
77.3093 23858 154.46
77.4258 24636 156.959
77.5423 25367 159.27
77.6589 24890 157.766
77.7755 24530 156.621
77.8921 24059 155.11
78.0088 23708 153.974
78.1256 22382 149.606
78.2423 21336 146.068
78.3591 20717 143.934
78.4759 20617 143.586
78.5928 21582 146.908
78.7097 22906 151.347
78.8266 23904 154.609
78.9436 24749 157.318
79.0606 24971 158.022
79.1776 25398 159.367
79.2946 25386 159.33
79.4117 24768 157.379
79.5288 24805 157.496
79.6459 23900 154.596
79.7631 22482 149.94
79.8802 21505 146.646
79.9974 20144 141.93
80.1147 19454 139.478
80.2319 17955 133.996
80.3491 17039 130.534
80.4664 16523 128.542
80.5837 16200 127.279
80.701 16124 126.98
80.8183 16751 129.426
80.9357 17892 133.761
81.053 18214 134.959
81.1704 18089 134.495
81.2877 17764 133.282
81.4051 17630 132.778
81.5225 17685 132.985
81.6399 16785 129.557
81.7573 16861 129.85
81.8747 15524 124.595
81.9922 15087 122.829
82.1096 15269 123.568
82.227 15715 125.359
82.3444 16909 130.035
82.4619 17724 133.132
82.5793 18693 136.722
82.6967 18346 135.447
82.8142 18786 137.062
82.9316 18886 137.426
83.049 18765 136.985
83.1664 18239 135.052
83.2838 17349 131.716
83.4012 16535 128.588
83.5186 16162 127.13
83.636 15377 124.004
83.7534 14736 121.392
83.8708 14117 118.815
83.9881 13138 114.621
84.1055 12771 113.009
84.2228 12737 112.858
84.3401 13158 114.708
84.4575 13963 118.165
84.5747 14926 122.172
84.692 15675 125.2
84.8093 16011 126.535
84.9265 15826 125.801
85.0437 15685 125.24
85.1609 15477 124.407
85.2781 15177 123.195
85.3952 14776 121.557
85.5123 14418 120.075
85.6294 14423 120.096
85.7465 14688 121.194
85.8636 16194 127.256
85.9806 16928 130.108
86.0976 18544 136.176
86.2145 19039 137.982
86.3315 19298 138.917
86.4484 20536 143.304
86.5652 20469 143.07
86.682 20532 143.29
86.7988 20088 141.732
86.9156 19685 140.303
87.0323 18704 136.763
87.149 17998 134.157
87.2657 17944 133.955
87.3823 17041 130.541
87.4988 16090 126.846
87.6154 15504 124.515
87.7318 15360 123.935
87.8483 15924 126.19
87.9647 16790 129.576
88.081 18098 134.529
88.1973 19475 139.553
88.3136 19886 141.018
88.4298 19439 139.424
88.546 19477 139.56
88.6621 19226 138.658
88.7781 18925 137.568
88.8942 0 1
89.0101 0 1
89.126 0 1
89.2419 0 1
89.3577 0 1
89.4734 0 1
89.5891 0 1
89.7047 0 1
89.8203 0 1
89.9358 0 1
92.3269 0 1
92.4424 0 1
92.558 0 1
92.6736 0 1
92.7893 0 1
92.905 0 1
93.0208 0 1
93.1366 0 1
93.2525 0 1
93.3685 0 1
93.4845 0 1
93.6005 18647 136.554
93.7167 19414 139.334
93.8328 19370 139.176
93.949 19130 138.311
94.0653 19240 138.708
94.1816 18638 136.521
94.2979 18528 136.118
94.4143 18047 134.339
94.5307 17618 132.733
94.6472 17653 132.865
94.7637 17870 133.679
94.8803 18659 136.598
94.9969 19783 140.652
95.1135 21271 145.846
95.2302 21938 148.115
95.3469 22633 150.443
95.4637 22874 151.242
95.5805 22961 151.529
95.6973 23326 152.729
95.8142 23394 152.951
95.9311 22732 150.771
96.048 21958 148.182
96.1649 21335 146.065
96.2819 20404 142.843
96.3989 20008 141.45
96.516 19264 138.795
96.633 18005 134.183
96.7501 16996 130.369
96.8673 16660 129.074
96.9844 17110 130.805
97.1016 17623 132.752
97.2188 18772 137.011
97.336 19512 139.685
97.4532 20222 142.204
97.5704 20161 141.989
97.6877 19887 141.021
97.805 19241 138.712
97.9223 18571 136.275
98.0396 18148 134.715
98.1569 17644 132.831
98.2743 17478 132.204
98.3916 17548 132.469
98.509 18310 135.314
98.6264 18916 137.535
98.7438 20453 143.014
98.8612 21734 147.425
98.9786 22003 148.334
99.096 22560 150.2
99.2134 23092 151.961
99.3308 23585 153.574
99.4482 23536 153.414
99.5656 23064 151.868
99.6831 22195 148.98
99.8005 21195 145.585
99.9179 20807 144.246
100.035 19962 141.287
100.153 19114 138.253
100.27 18019 134.235
100.388 17348 131.712
100.505 17413 131.958
100.622 17997 134.153
100.74 18665 136.62
100.857 19928 141.167
100.975 20920 144.637
101.092 20955 144.758
101.209 20346 142.639
101.327 20006 141.443
101.444 19727 140.453
101.561 19203 138.575
101.679 18924 137.565
101.796 18615 136.437
101.913 18313 135.326
102.03 19118 138.268
102.148 20334 142.597
102.265 23230 152.414
102.382 21475 146.544
102.499 23812 154.311
102.616 24545 156.668
102.733 25043 158.25
102.851 25549 159.841
102.968 25581 159.941
103.085 25018 158.171
103.202 24276 155.808
103.319 23761 154.146
103.436 22669 150.562
103.552 21891 147.956
103.669 21061 145.124
103.786 20014 141.471
103.903 19280 138.852
104.02 19368 139.169
104.137 19754 140.549
104.253 21269 145.839
104.37 21437 146.414
104.487 23089 151.951
104.603 23064 151.868
104.72 22795 150.98
104.836 22466 149.887
104.953 21976 148.243
105.069 21551 146.803
105.186 21049 145.083
105.302 20607 143.551
105.418 20967 144.8
105.535 21877 147.909
105.651 23286 152.598
105.767 25236 158.858
105.883 26536 162.899
105.999 27504 165.843
106.115 0 1
106.231 0 1
106.347 0 1
106.463 0 1
106.579 0 1
106.694 0 1
106.81 0 1
106.926 0 1
107.041 0 1
107.157 0 1
109.576 0 1
109.692 0 1
109.807 0 1
109.923 0 1
110.039 0 1
110.155 0 1
110.27 0 1
110.386 0 1
110.502 0 1
110.618 22005 148.341
110.735 24113 155.284
110.851 25597 159.991
110.967 26775 163.631
111.083 27561 166.015
111.199 27841 166.856
111.316 28700 169.411
111.432 28946 170.135
111.549 28761 169.591
111.665 28081 167.574
111.782 27087 164.581
111.898 26222 161.932
112.015 25244 158.884
112.132 24363 156.087
112.248 23254 152.493
112.365 21758 147.506
112.482 21708 147.336
112.599 21483 146.571
112.716 22311 149.369
112.832 23522 153.369
112.949 24803 157.49
113.066 24764 157.366
113.183 24198 155.557
113.3 23980 154.855
113.417 23643 153.763
113.534 23090 151.954
113.652 22776 150.917
113.769 21843 147.794
113.886 22033 148.435
114.003 21973 148.233
114.12 23164 152.197
114.238 24857 157.661
114.355 26370 162.388
114.472 28635 169.219
114.589 26666 163.297
114.707 28857 169.873
114.824 29600 172.047
114.942 30047 173.341
115.059 30142 173.615
115.176 29858 172.795
115.294 29262 171.061
115.411 28165 167.824
115.529 27638 166.247
115.646 27275 165.151
115.764 26173 161.781
115.881 24846 157.626
115.999 24101 155.245
116.116 23912 154.635
116.234 25437 159.49
116.351 26326 162.253
116.469 27214 164.967
116.586 27996 167.32
116.704 28266 168.125
116.821 27722 166.499
116.939 27657 166.304
117.056 26985 164.271
117.174 26670 163.31
117.291 25670 160.219
117.409 25240 158.871
117.526 25504 159.7
117.644 25934 161.04
117.761 27630 166.223
117.879 29238 170.991
117.996 30205 173.796
118.114 30982 176.017
118.231 31884 178.561
118.349 31814 178.365
118.466 32397 179.992
118.584 32717 180.878
118.701 32762 181.003
118.819 31903 178.614
118.936 31112 176.386
119.053 30458 174.522
119.171 29631 172.137
119.288 28245 168.062
119.405 27043 164.448
119.523 25493 159.665
119.64 24804 157.493
119.757 24883 157.743
119.875 25334 159.167
119.992 26583 163.043
120.109 27746 166.571
120.226 28031 167.425
120.343 27476 165.759
120.46 27159 164.8
120.578 27165 164.818
120.695 26558 162.966
120.812 25910 160.966
120.929 25431 159.471
121.046 24951 157.959
121.163 25050 158.272
121.279 25227 158.83
121.396 26288 162.136
121.513 27564 166.024
121.63 28338 168.339
121.747 29472 171.674
121.863 30035 173.306
121.98 30268 173.977
122.097 30696 175.203
122.213 30703 175.223
122.33 30843 175.622
122.446 30161 173.669
122.563 29429 171.549
122.679 28834 169.806
122.795 28177 167.86
122.912 27205 164.939
123.028 26364 162.37
123.144 24806 157.499
123.26 23669 153.847
123.377 0 1
123.493 0 1
123.609 0 1
123.725 0 1
123.84 0 1
123.956 0 1
124.072 0 1
124.188 0 1
124.303 0 1
124.419 0 1
126.852 0 1
126.968 0 1
127.083 0 1
127.199 0 1
127.315 0 1
127.431 0 1
127.547 0 1
127.663 0 1
127.779 0 1
127.895 0 1
128.011 0 1
128.127 0 1
128.243 0 1
128.359 27670 166.343
128.476 26454 162.647
128.592 25598 159.994
128.708 26274 162.093
128.825 26992 164.292
128.941 28336 168.333
129.058 29062 170.476
129.174 28950 170.147
129.291 28722 169.476
129.408 28417 168.573
129.524 28125 167.705
129.641 27366 165.427
129.758 26944 164.146
129.875 25998 161.239
129.992 25867 160.832
130.108 25893 160.913
130.225 25788 160.586
130.342 26698 163.395
130.459 27529 165.919
130.576 29268 171.079
130.693 29278 171.108
130.81 29099 170.584
130.928 29427 171.543
131.045 29756 172.499
131.162 29722 172.401
131.279 29278 171.108
131.396 29051 170.444
131.513 28833 169.803
131.631 28015 167.377
131.748 27466 165.729
131.865 25828 160.711
131.983 24703 157.172
132.1 24306 155.904
132.217 23964 154.803
132.335 24527 156.611
132.452 25011 158.149
132.57 25905 160.95
132.687 24959 157.984
132.804 26254 162.031
132.922 25389 159.339
133.039 25082 158.373
133.157 24885 157.75
133.274 24251 155.727
133.392 24109 155.271
133.509 23310 152.676
133.627 23485 153.248
133.744 23677 153.873
133.862 24169 155.464
133.979 25681 160.253
134.097 25943 161.068
134.214 26845 163.844
134.332 26677 163.331
134.449 26966 164.213
134.567 27349 165.375
134.684 28040 167.451
134.802 28058 167.505
134.919 27969 167.239
135.037 27542 165.958
135.154 27420 165.59
135.272 26439 162.601
135.389 25949 161.087
135.507 24895 157.781
135.624 23808 154.298
135.742 23818 154.331
135.859 24061 155.116
135.977 24927 157.883
136.094 25473 159.603
136.211 25712 160.35
136.329 25659 160.184
136.446 25422 159.443
136.564 25245 158.887
136.681 24938 157.918
136.798 24651 157.006
136.915 24203 155.573
137.033 23943 154.735
137.15 23511 153.333
137.267 23385 152.922
137.384 23708 153.974
137.502 24538 156.646
137.619 25226 158.827
137.736 25888 160.897
137.853 25647 160.147
137.97 26786 163.664
138.087 26570 163.003
138.204 27395 165.514
138.321 27823 166.802
138.438 27942 167.159
138.555 28516 168.867
138.672 28006 167.35
138.788 27761 166.616
138.905 27004 164.329
139.022 26283 162.12
139.139 25854 160.792
139.255 24838 157.601
139.372 24908 157.823
139.488 24907 157.82
139.605 26041 161.372
139.721 26362 162.364
139.838 26307 162.194
139.954 26214 161.907
140.071 25887 160.894
140.187 25694 160.293
140.303 25397 159.364
140.419 24435 156.317
140.535 24095 155.226
140.652 23447 153.124
140.768 0 1
140.884 0 1
141 0 1
141.115 0 1
141.231 0 1
141.347 0 1
141.463 0 1
141.578 0 1
141.694 0 1
144.104 0 1
144.219 0 1
144.335 0 1
144.45 0 1
144.566 0 1
144.682 0 1
144.798 0 1
144.914 0 1
145.03 0 1
145.146 23568 153.519
145.262 23820 154.337
145.378 23722 154.019
145.494 23241 152.45
145.61 23066 151.875
145.726 22795 150.98
145.842 22340 149.466
145.959 22663 150.542
146.075 22954 151.506
146.192 23306 152.663
146.308 23984 154.868
146.425 24306 155.904
146.541 24988 158.076
146.658 24951 157.959
146.774 25438 159.493
146.891 25786 160.58
147.008 25896 160.922
147.125 26617 163.147
147.241 26498 162.782
147.358 26147 161.7
147.475 25609 160.028
147.592 25107 158.452
147.709 24507 156.547
147.826 23904 154.609
147.943 23323 152.719
148.06 23311 152.679
148.177 24100 155.242
148.294 24481 156.464
148.411 25058 158.297
148.528 24792 157.455
148.645 24845 157.623
148.762 24587 156.802
148.88 24095 155.226
148.997 23398 152.964
149.114 24014 154.965
149.231 23686 153.903
149.349 23502 153.304
149.466 22440 149.8
149.583 22739 150.795
149.701 22961 151.529
149.818 23746 154.097
149.935 24174 155.48
150.053 25049 158.269
150.17 25128 158.518
150.287 25321 159.126
150.405 25728 160.4
150.522 26239 161.985
150.64 26697 163.392
150.757 27263 165.115
150.875 27481 165.774
150.992 27007 164.338
151.11 26729 163.49
151.227 26411 162.515
151.344 25472 159.599
151.462 24695 157.146
151.579 24182 155.506
151.697 24332 155.987
151.814 25506 159.706
151.932 25841 160.751
152.049 26533 162.89
152.167 26441 162.607
152.284 26245 162.003
152.402 26198 161.858
152.519 26126 161.635
152.636 25550 159.844
152.754 25348 159.211
152.871 24723 157.235
152.989 24524 156.601
153.106 24280 155.82
153.223 24379 156.138
153.341 24577 156.771
153.458 25375 159.295
153.575 25466 159.581
153.693 25846 160.767
153.81 26417 162.533
153.927 26901 164.015
154.044 27796 166.721
154.162 28081 167.574
154.279 28648 169.257
154.396 28832 169.8
154.513 29000 170.294
154.63 28767 169.608
154.747 28966 170.194
154.864 27910 167.063
154.981 27516 165.879
155.098 26826 163.786
155.215 25933 161.037
155.332 26368 162.382
155.449 27264 165.118
155.566 27758 166.607
155.683 27840 166.853
155.8 27563 166.021
155.917 27445 165.665
156.033 27280 165.167
156.15 0 1
156.267 0 1
156.383 0 1
156.5 0 1
156.617 0 1
156.733 0 1
156.85 0 1
156.966 0 1
157.082 0 1
157.199 0 1
157.315 0 1
157.431 0 1
157.547 0 1
157.664 0 1
157.78 0 1
157.896 0 1
158.012 0 1
158.128 0 1
158.244 0 1
158.359 0 1
158.475 0 1
158.591 0 1
158.706 0 1
