
6.15755 0 1
6.2731 0 1
6.3887 0 1
6.50437 0 1
6.62009 0 1
6.73587 0 1
6.8517 0 1
6.96759 0 1
7.08353 0 1
7.19952 0 1
7.31557 0 1
7.43166 0 1
7.54781 0 1
7.664 0 1
7.78024 0 1
7.89653 0 1
8.01286 0 1
8.12924 0 1
8.24567 0 1
8.36213 0 1
8.47864 0 1
8.59519 0 1
8.71178 0 1
8.82841 0 1
8.94508 0 1
9.06179 0 1
9.17853 0 1
9.29531 0 1
9.41212 0 1
9.52897 0 1
9.64584 0 1
9.76276 0 1
9.8797 0 1
9.99667 0 1
10.1137 0 1
10.2307 0 1
10.3478 0 1
10.4648 0 1
10.5819 0 1
10.6991 0 1
10.8162 0 1
10.9334 0 1
11.0506 0 1
11.1678 0 1
11.285 0 1
11.4023 0 1
11.5196 0 1
11.6369 0 1
11.7542 0 1
11.8715 0 1
11.9888 0 1
12.1062 0 1
12.2235 0 1
12.3409 0 1
12.4582 0 1
12.5756 0 1
12.693 0 1
12.8104 0 1
12.9278 0 1
13.0452 0 1
13.1626 0 1
13.28 0 1
13.3974 0 1
13.5149 0 1
13.6323 0 1
13.7497 0 1
13.8671 0 1
13.9845 0 1
14.1019 0 1
14.2193 0 1
14.3367 0 1
14.4541 0 1
14.5714 0 1
14.6888 0 1
14.8062 0 1
14.9235 0 1
15.0408 8898 94.3292
15.1581 9116 95.4777
15.2755 9272 96.2912
15.3927 9073 95.2523
15.51 9157 95.6922
15.6273 8997 94.8525
15.7445 8865 94.1541
15.8617 8788 93.7443
15.9789 9004 94.8894
16.0961 9233 96.0885
16.2132 9798 98.9848
16.3304 10217 101.079
16.4475 10277 101.376
16.5646 10421 102.083
16.6816 10458 102.264
16.7986 10491 102.426
16.9156 10465 102.299
17.0326 10146 100.727
17.1496 10304 101.509
17.2665 9991 99.955
17.3833 10258 101.282
17.5002 10271 101.346
17.617 10293 101.454
17.7338 10329 101.632
17.8505 10569 102.806
17.9672 10894 104.374
18.0839 11082 105.271
18.2005 11345 106.513
18.3171 11610 107.75
18.4337 11677 108.06
18.5502 12074 109.882
18.6666 12185 110.386
18.7831 12000 109.545
18.8994 11915 109.156
19.0158 11693 108.134
19.1321 11230 105.972
19.2483 10959 104.685
19.3645 10734 103.605
19.4806 10884 104.326
19.5967 11459 107.047
19.7128 11558 107.508
19.8288 11746 108.379
19.9447 10908 104.441
20.0606 0 1
20.1764 0 1
20.2922 0 1
20.4079 0 1
20.5236 0 1
20.6392 0 1
20.7548 0 1
20.8702 0 1
23.3078 0 1
23.4233 0 1
23.539 0 1
23.6547 0 1
23.7704 0 1
23.8862 0 1
24.0021 0 1
24.118 0 1
24.234 0 1
24.35 0 1
24.4661 11143 105.56
24.5822 11371 106.635
24.6984 11404 106.79
24.8146 11611 107.754
24.9309 12289 110.856
25.0472 12794 113.111
25.1636 12907 113.609
25.28 13016 114.088
25.3965 12924 113.684
25.513 12831 113.274
25.6296 12771 113.009
25.7462 12569 112.112
25.8628 12427 111.476
25.9795 12286 110.842
26.0962 12397 111.342
26.213 12607 112.281
26.3298 12938 113.745
26.4466 13198 114.883
26.5635 13777 117.375
26.6804 13580 116.533
26.7973 13978 118.229
26.9143 14087 118.689
27.0313 14372 119.883
27.1483 14596 120.814
27.2653 14773 121.544
27.3824 15028 122.589
27.4996 14475 120.312
27.6167 14281 119.503
27.7339 13826 117.584
27.8511 13261 115.156
27.9683 13130 114.586
28.0855 12547 112.013
28.2028 12245 110.657
28.3201 12050 109.772
28.4374 12868 113.437
28.5547 13122 114.551
28.6721 13569 116.486
28.7894 14070 118.617
28.9068 13790 117.431
29.0242 13350 115.542
29.1416 13197 114.878
29.259 12762 112.969
29.3764 12654 112.49
29.4939 12487 111.745
29.6113 12245 110.657
29.7288 12447 111.566
29.8463 12773 113.018
29.9638 13014 114.079
30.0812 13189 114.843
30.1987 13734 117.192
30.3162 14339 119.746
30.4337 14383 119.929
30.5512 14873 121.955
30.6687 14808 121.688
30.7862 15072 122.768
30.9037 15160 123.126
31.0212 15012 122.523
31.1387 14697 121.231
31.2562 14248 119.365
31.3737 14245 119.352
31.4912 13724 117.149
31.6087 13396 115.741
31.7262 12931 113.715
31.8436 12991 113.978
31.9611 13382 115.681
32.0785 13810 117.516
32.1959 14075 118.638
32.3134 14404 120.017
32.4308 14503 120.428
32.5482 14430 120.125
32.6655 13850 117.686
32.7829 13438 115.922
32.9002 13308 115.36
33.0176 12878 113.481
33.1349 12904 113.596
33.2522 12835 113.292
33.3694 12908 113.613
33.4867 13101 114.46
33.6039 13526 116.301
33.7211 14055 118.554
33.8383 14556 120.648
33.9554 15208 123.321
34.0725 15100 122.882
34.1896 15334 123.831
34.3067 15405 124.117
34.4237 15552 124.708
34.5407 15859 125.933
34.6577 15749 125.495
34.7746 15502 124.507
34.8915 15001 122.479
35.0084 14465 120.271
35.1252 14397 119.987
35.242 13908 117.932
35.3587 13842 117.652
35.4755 13505 116.211
35.5921 13506 116.215
35.7088 13925 118.004
35.8254 14394 119.975
35.9419 14765 121.511
36.0584 14656 121.062
36.1749 15168 123.158
36.2913 14610 120.872
36.4077 14089 118.697
36.524 13870 117.771
36.6403 13337 115.486
36.7565 13036 114.175
36.8727 12923 113.679
36.9889 12874 113.464
37.1049 13181 114.809
37.221 0 1
37.3369 0 1
37.4529 0 1
37.5687 0 1
37.6845 0 1
37.8003 0 1
37.916 0 1
38.0316 0 1
38.1472 0 1
40.5851 0 1
40.7008 0 1
40.8164 0 1
40.9322 0 1
41.048 0 1
41.1639 0 1
41.2798 0 1
41.3958 0 1
41.5118 0 1
41.6279 0 1
41.744 10933 104.561
41.8602 11291 106.259
41.9765 11339 106.485
42.0928 10992 104.843
42.2091 11539 107.42
42.3255 12021 109.64
42.4419 12330 111.041
42.5584 12972 113.895
42.675 13191 114.852
42.7915 13945 118.089
42.9081 14076 118.642
43.0248 14104 118.76
43.1415 14219 119.243
43.2582 14388 119.95
43.375 14474 120.308
43.4918 14271 119.461
43.6087 14017 118.393
43.7256 13771 117.35
43.8425 13455 115.996
43.9595 12966 113.868
44.0765 12544 112
44.1935 12065 109.841
44.3106 11840 108.812
44.4277 11873 108.963
44.5448 12134 110.154
44.6619 12496 111.786
44.7791 12854 113.375
44.8963 12402 111.364
45.0136 12074 109.882
45.1308 11766 108.471
45.2481 11030 105.024
45.3654 10459 102.269
45.4827 10195 100.97
45.6001 10074 100.369
45.7174 9929 99.6444
45.8348 10130 100.648
45.9522 10640 103.15
46.0697 11166 105.669
46.1871 11366 106.611
46.3046 11563 107.531
46.422 11951 109.321
46.5395 12131 110.141
46.657 12119 110.086
46.7745 12071 109.868
46.892 12427 111.476
47.0096 12318 110.986
47.1271 12252 110.689
47.2446 11904 109.105
47.3622 11680 108.074
47.4797 11249 106.061
47.5973 11027 105.01
47.7149 10826 104.048
47.8324 10125 100.623
47.95 10104 100.519
48.0675 9981 99.905
48.1851 10311 101.543
48.3027 10650 103.199
48.4202 10571 102.815
48.5378 10438 102.167
48.6554 9760 98.7927
48.7729 9394 96.9226
48.8904 8925 94.4722
49.008 8431 91.8205
49.1255 8273 90.956
49.243 8403 91.6679
49.3605 8352 91.3893
49.478 8977 94.747
49.5955 9473 97.3293
49.713 10046 100.23
49.8304 10357 101.769
49.9479 10712 103.499
50.0653 10904 104.422
50.1827 11249 106.061
50.3001 11530 107.378
50.4175 11650 107.935
50.5348 12081 109.914
50.6521 11980 109.453
50.7694 11745 108.374
50.8867 11726 108.287
51.004 11670 108.028
51.1212 11572 107.573
51.2384 11314 106.367
51.3556 11217 105.91
51.4727 11404 106.79
51.5899 11620 107.796
51.707 12270 110.77
51.824 12571 112.12
51.9411 13312 115.378
52.0581 13101 114.46
52.175 13039 114.188
52.2919 12549 112.022
52.4088 11911 109.138
52.5257 11185 105.759
52.6425 11291 106.259
52.7593 11201 105.835
52.876 11626 107.824
52.9927 12349 111.126
53.1094 13213 114.948
53.226 14196 119.147
53.3426 15113 122.935
53.4591 15815 125.758
53.5756 16662 129.081
53.692 16947 130.181
53.8084 17133 130.893
53.9248 17335 131.662
54.0411 17529 132.397
54.1573 17815 133.473
54.2735 0 1
54.3896 0 1
54.5057 0 1
54.6217 0 1
54.7377 0 1
54.8537 0 1
54.9695 0 1
55.0853 0 1
55.2011 0 1
55.3168 0 1
55.4324 0 1
57.824 0 1
57.9396 0 1
58.0553 0 1
58.1711 0 1
58.2869 0 1
58.4028 0 1
58.5187 0 1
58.6347 0 1
58.7508 0 1
58.8669 0 1
58.983 20173 142.032
59.0992 21209 145.633
59.2155 21479 146.557
59.3318 21652 147.146
59.4482 21178 145.527
59.5646 21107 145.282
59.681 21059 145.117
59.7975 20593 143.503
59.9141 20084 141.718
60.0306 20015 141.474
60.1473 19861 140.929
60.2639 19945 141.227
60.3807 19806 140.734
60.4974 19721 140.431
60.6142 19563 139.868
60.731 19089 138.163
60.8479 18086 134.484
60.9648 17333 131.655
61.0818 16183 127.212
61.1987 15964 126.349
61.3158 15460 124.338
61.4328 15626 125.004
61.5499 16204 127.295
61.667 17055 130.595
61.7841 17906 133.813
61.9013 18841 137.263
62.0185 19482 139.578
62.1357 20096 141.76
62.253 20473 143.084
62.3702 20710 143.91
62.4875 20925 144.655
62.6049 21402 146.294
62.7222 20882 144.506
62.8396 21063 145.131
62.9569 20748 144.042
63.0743 20437 142.958
63.1918 20066 141.655
63.3092 19570 139.893
63.4267 19444 139.442
63.5441 19250 138.744
63.6616 19047 138.011
63.7791 19033 137.96
63.8966 19235 138.69
64.0142 19350 139.104
64.1317 19082 138.138
64.2492 18647 136.554
64.3668 17963 134.026
64.4843 16896 129.985
64.6019 15934 126.23
64.7195 15100 122.882
64.837 14558 120.657
64.9546 14620 120.913
65.0722 14927 122.176
65.1898 15799 125.694
65.3074 17079 130.687
65.4249 17581 132.593
65.5425 18699 136.744
65.6601 19369 139.173
65.7777 19916 141.124
65.8952 20739 144.01
66.0128 21169 145.496
66.1304 21006 144.934
66.2479 21251 145.777
66.3655 21276 145.863
66.483 21161 145.468
66.6005 21363 146.161
66.718 20544 143.332
66.8355 20602 143.534
66.953 20349 142.65
67.0705 20181 142.06
67.1879 19866 140.947
67.3054 19774 140.62
67.4228 19940 141.209
67.5402 20221 142.201
67.6576 20425 142.916
67.7749 20029 141.524
67.8923 20107 141.799
68.0096 19037 137.975
68.1269 18054 134.365
68.2442 16785 129.557
68.3614 16289 127.628
68.4787 15730 125.419
68.5958 15880 126.016
68.713 16563 128.697
68.8302 17445 132.08
68.9473 18565 136.253
69.0643 19788 140.67
69.1814 21183 145.544
69.2984 22420 149.733
69.4154 23332 152.748
69.5323 23800 154.272
69.6492 24700 157.162
69.7661 25005 158.13
69.8829 25260 158.934
69.9997 25441 159.502
70.1165 25633 160.103
70.2332 25771 160.533
70.3499 25261 158.937
70.4665 24934 157.905
70.5831 24855 157.655
70.6996 24689 157.127
70.8161 24322 155.955
70.9326 23928 154.687
71.049 24226 155.647
71.1653 24393 156.183
71.2817 24553 156.694
71.3979 24865 157.686
71.5141 23699 153.945
71.6303 21759 147.509
71.7464 18778 137.033
71.8624 0 1
71.9784 0 1
72.0944 0 1
72.2102 0 1
72.3261 0 1
72.4418 0 1
72.5575 0 1
72.6732 0 1
75.1054 0 1
75.2209 0 1
75.3365 0 1
75.4521 0 1
75.5678 0 1
75.6835 0 1
75.7993 0 1
75.9151 0 1
76.031 0 1
76.147 24239 155.689
76.263 25845 160.764
76.3791 26793 163.686
76.4952 27676 166.361
76.6113 28590 169.086
76.7276 28504 168.831
76.8438 27992 167.308
76.9601 26375 162.404
77.0765 24434 156.314
77.1929 22277 149.255
77.3093 20629 143.628
77.4258 19499 139.639
77.5423 19292 138.896
77.6589 19263 138.791
77.7755 20734 143.993
77.8921 22876 151.248
78.0088 24739 157.286
78.1256 27022 164.384
78.2423 28859 169.879
78.3591 29837 172.734
78.4759 30971 175.986
78.5928 31191 176.61
78.7097 31000 176.068
78.8266 30280 174.011
78.9436 32685 180.79
79.0606 31227 176.712
79.1776 31026 176.142
79.2946 30900 175.784
79.4117 30511 174.674
79.5288 30560 174.814
79.6459 29747 172.473
79.7631 28966 170.194
79.8802 28512 168.855
79.9974 28383 168.473
80.1147 28788 169.67
80.2319 29759 172.508
80.3491 30204 173.793
80.4664 29934 173.014
80.5837 28672 169.328
80.701 26569 163
80.8183 24043 155.058
80.9357 21657 147.163
81.053 20246 142.288
81.1704 19296 138.91
81.2877 19270 138.816
81.4051 19943 141.22
81.5225 21778 147.574
81.6399 24476 156.448
81.7573 26750 163.554
81.8747 28075 167.556
81.9922 29467 171.66
82.1096 30574 174.854
82.227 30940 175.898
82.3444 31180 176.579
82.4619 31165 176.536
82.5793 31690 178.017
82.6967 30675 175.143
82.8142 30767 175.405
82.9316 30435 174.456
83.049 29903 172.925
83.1664 29271 171.088
83.2838 28720 169.47
83.4012 28324 168.297
83.5186 27943 167.162
83.636 27894 167.015
83.7534 28244 168.06
83.8708 28612 169.151
83.9881 28853 169.862
84.1055 28735 169.514
84.2228 27478 165.765
84.3401 25655 160.172
84.4575 23266 152.532
84.5747 21281 145.88
84.692 19795 140.695
84.8093 19060 138.058
84.9265 19325 139.014
85.0437 20294 142.457
85.1609 22747 150.821
85.2781 25049 158.269
85.3952 27846 166.871
85.5123 29901 172.919
85.6294 31763 178.222
85.7465 33130 182.016
85.8636 34063 184.562
85.9806 35235 187.71
86.0976 35309 187.907
86.2145 35763 189.111
86.3315 37419 193.44
86.4484 35038 187.184
86.5652 36617 191.356
86.682 36498 191.044
86.7988 36380 190.735
86.9156 36476 190.987
87.0323 36009 189.76
87.149 35767 189.122
87.2657 36176 190.2
87.3823 36815 191.872
87.4988 37847 194.543
87.6154 38083 195.149
87.7318 38028 195.008
87.8483 35958 189.626
87.9647 33170 182.126
88.081 30409 174.382
88.1973 27934 167.135
88.3136 26026 161.326
88.4298 25874 160.854
88.546 26091 161.527
88.6621 28341 168.348
88.7781 31474 177.409
88.8942 0 1
89.0101 0 1
89.126 0 1
89.2419 0 1
89.3577 0 1
89.4734 0 1
89.5891 0 1
89.7047 0 1
89.8203 0 1
89.9358 0 1
92.3269 0 1
92.4424 0 1
92.558 0 1
92.6736 0 1
92.7893 0 1
92.905 0 1
93.0208 0 1
93.1366 0 1
93.2525 0 1
93.3685 0 1
93.4845 0 1
93.6005 29415 171.508
93.7167 28861 169.885
93.8328 28627 169.195
93.949 29735 172.438
94.0653 31534 177.578
94.1816 34480 185.688
94.2979 38046 195.054
94.4143 40798 201.985
94.5307 43411 208.353
94.6472 45526 213.368
94.7637 46769 216.261
94.8803 47332 217.559
94.9969 47556 218.073
95.1135 47982 219.048
95.2302 48063 219.233
95.3469 48030 219.157
95.4637 48219 219.588
95.5805 47726 218.463
95.6973 47996 219.08
95.8142 47783 218.593
95.9311 46971 216.728
96.048 46571 215.803
96.1649 46224 214.998
96.2819 44915 211.932
96.3989 45824 214.065
96.516 46075 214.651
96.633 47676 218.348
96.7501 47094 217.012
96.8673 45666 213.696
96.9844 42802 206.886
97.1016 39831 199.577
97.2188 36537 191.147
97.336 33429 182.836
97.4532 31417 177.248
97.5704 30013 173.243
97.6877 30545 174.771
97.805 32183 179.396
97.9223 35409 188.173
98.0396 38836 197.069
98.1569 41870 204.622
98.2743 44299 210.473
98.3916 46891 216.543
98.509 48673 220.62
98.6264 49693 222.919
98.7438 49969 223.537
98.8612 49935 223.461
98.9786 50382 224.459
99.096 50130 223.897
99.2134 49478 222.437
99.3308 49631 222.78
99.4482 49721 222.982
99.5656 49333 222.11
99.6831 48771 220.842
99.8005 47669 218.332
99.9179 47190 217.233
100.035 47777 218.58
100.153 48553 220.347
100.27 49489 222.461
100.388 49643 222.807
100.505 46833 216.409
100.622 44295 210.464
100.74 40998 202.48
100.857 37270 193.054
100.975 34291 185.178
101.092 31450 177.341
101.209 31171 176.553
101.327 32399 179.997
101.444 34832 186.633
101.561 38755 196.863
101.679 42533 206.235
101.796 46006 214.49
101.913 48739 220.769
102.03 50610 224.967
102.148 50991 225.812
102.265 50139 223.917
102.382 53214 230.682
102.499 51958 227.943
102.616 52266 228.618
102.733 51361 226.63
102.851 51382 226.676
102.968 51935 227.893
103.085 51916 227.851
103.202 51177 226.223
103.319 50582 224.904
103.436 49457 222.389
103.552 50010 223.629
103.669 49853 223.278
103.786 51748 227.482
103.903 52059 228.164
104.02 50469 224.653
104.137 47725 218.461
104.253 44819 211.705
104.37 40588 201.465
104.487 36928 192.167
104.603 34452 185.612
104.72 33958 184.277
104.836 34768 186.462
104.953 37098 192.608
105.069 40371 200.925
105.186 44585 211.152
105.302 48764 220.826
105.418 51488 226.91
105.535 53233 230.723
105.651 54951 234.416
105.767 55421 235.417
105.883 55768 236.152
105.999 55608 235.813
106.115 0 1
106.231 0 1
106.347 0 1
106.463 0 1
106.579 0 1
106.694 0 1
106.81 0 1
106.926 0 1
107.041 0 1
107.157 0 1
109.576 0 1
109.692 0 1
109.807 0 1
109.923 0 1
110.039 0 1
110.155 0 1
110.27 0 1
110.386 0 1
110.502 0 1
110.618 48416 220.036
110.735 50012 223.634
110.851 51160 226.186
110.967 51322 226.544
111.083 51506 226.949
111.199 50630 225.011
111.316 50884 225.575
111.432 51341 226.586
111.549 51337 226.577
111.665 50932 225.681
111.782 48739 220.769
111.898 48245 219.647
112.015 48545 220.329
112.132 48723 220.733
112.248 49921 223.43
112.365 49975 223.551
112.482 47099 217.023
112.599 46200 214.942
112.716 42513 206.187
112.832 39174 197.924
112.949 35909 189.497
113.066 33138 182.038
113.183 32220 179.499
113.3 32085 179.123
113.417 33112 181.967
113.534 35959 189.629
113.652 38625 196.532
113.769 41925 204.756
113.886 44694 211.41
114.003 45881 214.199
114.12 46670 216.032
114.238 48027 219.151
114.355 47732 218.477
114.472 47153 217.147
114.589 47949 218.973
114.707 46901 216.566
114.824 46320 215.221
114.942 47182 217.214
115.059 47493 217.929
115.176 47480 217.899
115.294 46423 215.46
115.411 46186 214.909
115.529 45256 212.735
115.646 45775 213.951
115.764 46151 214.828
115.881 47213 217.286
115.999 46468 215.564
116.116 44787 211.629
116.234 42370 205.84
116.351 39764 199.409
116.469 37712 194.196
116.586 34486 185.704
116.704 32491 180.253
116.821 31592 177.741
116.939 31748 178.18
117.056 33252 182.351
117.174 35184 187.574
117.291 38179 195.394
117.409 41257 203.118
117.526 43070 207.533
117.644 45400 213.073
117.761 45809 214.03
117.879 46568 215.796
117.996 46343 215.274
118.114 45959 214.381
118.231 46099 214.707
118.349 45585 213.506
118.466 44631 211.261
118.584 45744 213.878
118.701 45978 214.425
118.819 45925 214.301
118.936 44772 211.594
119.053 44099 209.998
119.171 43593 208.789
119.288 43685 209.01
119.405 44604 211.197
119.523 45073 212.304
119.64 44885 211.861
119.757 43654 208.935
119.875 41762 204.358
119.992 39134 197.823
120.109 37393 193.373
120.226 34580 185.957
120.343 32531 180.364
120.46 31467 177.389
120.578 31073 176.275
120.695 31800 178.326
120.812 33028 181.736
120.929 35101 187.353
121.046 37709 194.188
121.163 39815 199.537
121.279 41994 204.924
121.396 43059 207.507
121.513 43475 208.507
121.63 44454 210.841
121.747 44238 210.328
121.863 44481 210.905
121.98 43392 208.307
122.097 43244 207.952
122.213 42583 206.356
122.33 43064 207.519
122.446 43074 207.543
122.563 42563 206.308
122.679 41950 204.817
122.795 40920 202.287
122.912 41194 202.963
123.028 40927 202.304
123.144 41562 203.868
123.26 41280 203.175
123.377 0 1
123.493 0 1
123.609 0 1
123.725 0 1
123.84 0 1
123.956 0 1
124.072 0 1
124.188 0 1
124.303 0 1
124.419 0 1
126.852 0 1
126.968 0 1
127.083 0 1
127.199 0 1
127.315 0 1
127.431 0 1
127.547 0 1
127.663 0 1
127.779 0 1
127.895 0 1
128.011 0 1
128.127 0 1
128.243 0 1
128.359 44173 210.174
128.476 44174 210.176
128.592 43770 209.213
128.708 42479 206.104
128.825 41196 202.968
128.941 39130 197.813
129.058 37116 192.655
129.174 35406 188.165
129.291 34050 184.526
129.408 33824 183.913
129.524 33322 182.543
129.641 34761 186.443
129.758 36406 190.804
129.875 38705 196.736
129.992 40206 200.514
130.108 41872 204.626
130.225 42846 206.993
130.342 44269 210.402
130.459 43031 207.439
130.576 44934 211.976
130.693 43374 208.264
130.81 42790 206.857
130.928 42317 205.711
131.045 42813 206.913
131.162 43934 209.604
131.279 43818 209.327
131.396 43541 208.665
131.513 43302 208.091
131.631 42583 206.356
131.748 42923 207.179
131.865 43976 209.705
131.983 43940 209.619
132.1 43448 208.442
132.217 42557 206.293
132.335 40828 202.059
132.452 39527 198.814
132.57 37287 193.098
132.687 34825 186.615
132.804 34212 184.965
132.922 33016 181.703
133.039 33000 181.659
133.157 33277 182.42
133.274 34616 186.054
133.392 36434 190.877
133.509 38180 195.397
133.627 39949 199.872
133.744 40767 201.908
133.862 41415 203.507
133.979 41631 204.037
134.097 41589 203.934
134.214 41310 203.249
134.332 41298 203.219
134.449 40178 200.445
134.567 40265 200.661
134.684 40997 202.477
134.802 42136 205.271
134.919 41962 204.846
135.037 41772 204.382
135.154 40627 201.561
135.272 41085 202.694
135.389 41112 202.761
135.507 41557 203.855
135.624 41833 204.531
135.742 41482 203.671
135.859 40229 200.572
135.977 38699 196.721
136.094 37646 194.026
136.211 35555 188.56
136.329 34443 185.588
136.446 32828 181.185
136.564 32485 180.236
136.681 32184 179.399
136.798 32764 181.008
136.915 33759 183.736
137.033 35084 187.307
137.15 36530 191.128
137.267 37698 194.16
137.384 38524 196.275
137.502 38713 196.756
137.619 39234 198.076
137.736 39275 198.179
137.853 38727 196.792
137.97 38823 197.036
138.087 37390 193.365
138.204 37779 194.368
138.321 38637 196.563
138.438 39650 199.123
138.555 40372 200.928
138.672 40243 200.607
138.788 39242 198.096
138.905 39544 198.857
139.022 40266 200.664
139.139 40426 201.062
139.255 40334 200.833
139.372 40097 200.242
139.488 39221 198.043
139.605 38263 195.609
139.721 37062 192.515
139.838 35728 189.019
139.954 34261 185.097
140.071 32298 179.716
140.187 32627 180.629
140.303 31821 178.384
140.419 31995 178.871
140.535 31970 178.802
140.652 32780 181.052
140.768 0 1
140.884 0 1
141 0 1
141.115 0 1
141.231 0 1
141.347 0 1
141.463 0 1
141.578 0 1
141.694 0 1
144.104 0 1
144.219 0 1
144.335 0 1
144.45 0 1
144.566 0 1
144.682 0 1
144.798 0 1
144.914 0 1
145.03 0 1
145.146 22344 149.479
145.262 24214 155.608
145.378 24727 157.248
145.494 25278 158.991
145.61 26171 161.775
145.726 26472 162.702
145.842 27072 164.536
145.959 27729 166.52
146.075 28700 169.411
146.192 29459 171.636
146.308 29033 170.391
146.425 29306 171.19
146.541 29136 170.693
146.658 28870 169.912
146.774 28164 167.821
146.891 28212 167.964
147.008 28686 169.369
147.125 28990 170.265
147.241 29788 172.592
147.358 30204 173.793
147.475 29939 173.029
147.592 30136 173.597
147.709 29685 172.293
147.826 30570 174.843
147.943 30898 175.778
148.06 30354 174.224
148.177 30161 173.669
148.294 29795 172.612
148.411 29323 171.24
148.528 28774 169.629
148.645 27490 165.801
148.762 26965 164.21
148.88 26636 163.205
148.997 25803 160.633
149.114 26617 163.147
149.231 26053 161.409
149.349 26002 161.251
149.466 27220 164.985
149.583 27900 167.033
149.701 28317 168.277
149.818 28966 170.194
149.935 29066 170.488
150.053 29390 171.435
150.17 29324 171.243
150.287 29614 172.087
150.405 29273 171.094
150.522 28375 168.449
150.64 28433 168.621
150.757 28647 169.254
150.875 29098 170.581
150.992 29691 172.311
151.11 30011 173.237
151.227 30420 174.413
151.344 30159 173.663
151.462 30092 173.47
151.579 30802 175.505
151.697 31011 176.099
151.814 30071 173.41
151.932 30258 173.948
152.049 29594 172.029
152.167 29298 171.167
152.284 28615 169.16
152.402 27970 167.242
152.519 27307 165.248
152.636 27197 164.915
152.754 26669 163.306
152.871 26727 163.484
152.989 27162 164.809
153.106 27221 164.988
153.223 27981 167.275
153.341 28588 169.08
153.458 29113 170.625
153.575 29506 171.773
153.693 29533 171.852
153.81 30161 173.669
153.927 29668 172.244
154.044 29241 171
154.162 28475 168.745
154.279 28800 169.706
154.396 29124 170.658
154.513 29961 173.092
154.63 30995 176.054
154.747 31540 177.595
154.864 31505 177.496
154.981 31850 178.466
155.098 31742 178.163
155.215 32191 179.419
155.332 31612 177.798
155.449 31602 177.77
155.566 31062 176.244
155.683 30707 175.234
155.8 30025 173.277
155.917 29724 172.406
156.033 28958 170.171
156.15 0 1
156.267 0 1
156.383 0 1
156.5 0 1
156.617 0 1
156.733 0 1
156.85 0 1
156.966 0 1
157.082 0 1
157.199 0 1
157.315 0 1
157.431 0 1
157.547 0 1
157.664 0 1
157.78 0 1
157.896 0 1
158.012 0 1
158.128 0 1
158.244 0 1
158.359 0 1
158.475 0 1
158.591 0 1
158.706 0 1
