
6.15755 0 1
6.2731 0 1
6.3887 0 1
6.50437 0 1
6.62009 0 1
6.73587 0 1
6.8517 0 1
6.96759 0 1
7.08353 0 1
7.19952 0 1
7.31557 0 1
7.43166 0 1
7.54781 0 1
7.664 0 1
7.78024 0 1
7.89653 0 1
8.01286 0 1
8.12924 0 1
8.24567 0 1
8.36213 0 1
8.47864 0 1
8.59519 0 1
8.71178 0 1
8.82841 0 1
8.94508 0 1
9.06179 0 1
9.17853 0 1
9.29531 0 1
9.41212 0 1
9.52897 0 1
9.64584 0 1
9.76276 0 1
9.8797 0 1
9.99667 0 1
10.1137 0 1
10.2307 0 1
10.3478 0 1
10.4648 0 1
10.5819 0 1
10.6991 0 1
10.8162 0 1
10.9334 0 1
11.0506 0 1
11.1678 0 1
11.285 0 1
11.4023 0 1
11.5196 0 1
11.6369 0 1
11.7542 0 1
11.8715 0 1
11.9888 0 1
12.1062 0 1
12.2235 0 1
12.3409 0 1
12.4582 0 1
12.5756 0 1
12.693 0 1
12.8104 0 1
12.9278 0 1
13.0452 0 1
13.1626 0 1
13.28 0 1
13.3974 0 1
13.5149 0 1
13.6323 0 1
13.7497 0 1
13.8671 0 1
13.9845 0 1
14.1019 0 1
14.2193 0 1
14.3367 0 1
14.4541 0 1
14.5714 0 1
14.6888 0 1
14.8062 0 1
14.9235 0 1
15.0408 896 29.9333
15.1581 894 29.8998
15.2755 910 30.1662
15.3927 916 30.2655
15.51 861 29.3428
15.6273 818 28.6007
15.7445 818 28.6007
15.8617 757 27.5136
15.9789 837 28.931
16.0961 844 29.0517
16.2132 794 28.178
16.3304 822 28.6705
16.4475 762 27.6043
16.5646 812 28.4956
16.6816 718 26.7955
16.7986 689 26.2488
16.9156 756 27.4955
17.0326 746 27.313
17.1496 727 26.9629
17.2665 716 26.7582
17.3833 703 26.5141
17.5002 734 27.0924
17.617 717 26.7769
17.7338 769 27.7308
17.8505 677 26.0192
17.9672 711 26.6646
18.0839 779 27.9106
18.2005 732 27.0555
18.3171 789 28.0891
18.4337 754 27.4591
18.5502 732 27.0555
18.6666 749 27.3679
18.7831 728 26.9815
18.8994 699 26.4386
19.0158 715 26.7395
19.1321 632 25.1396
19.2483 619 24.8797
19.3645 565 23.7697
19.4806 598 24.454
19.5967 616 24.8193
19.7128 591 24.3105
19.8288 613 24.7588
19.9447 543 23.3024
20.0606 0 1
20.1764 0 1
20.2922 0 1
20.4079 0 1
20.5236 0 1
20.6392 0 1
20.7548 0 1
20.8702 0 1
23.3078 0 1
23.4233 0 1
23.539 0 1
23.6547 0 1
23.7704 0 1
23.8862 0 1
24.0021 0 1
24.118 0 1
24.234 0 1
24.35 0 1
24.4661 287 16.9411
24.5822 348 18.6548
24.6984 433 20.8087
24.8146 509 22.561
24.9309 566 23.7908
25.0472 612 24.7386
25.1636 625 25
25.28 698 26.4197
25.3965 755 27.4773
25.513 815 28.5482
25.6296 796 28.2135
25.7462 897 29.95
25.8628 811 28.4781
25.9795 822 28.6705
26.0962 820 28.6356
26.213 793 28.1603
26.3298 768 27.7128
26.4466 769 27.7308
26.5635 697 26.4008
26.6804 633 25.1595
26.7973 656 25.6125
26.9143 681 26.096
27.0313 651 25.5147
27.1483 722 26.8701
27.2653 724 26.9072
27.3824 719 26.8142
27.4996 756 27.4955
27.6167 731 27.037
27.7339 687 26.2107
27.8511 670 25.8844
27.9683 638 25.2587
28.0855 730 27.0185
28.2028 725 26.9258
28.3201 770 27.7489
28.4374 824 28.7054
28.5547 819 28.6182
28.6721 861 29.3428
28.7894 881 29.6816
28.9068 910 30.1662
29.0242 826 28.7402
29.1416 930 30.4959
29.259 895 29.9166
29.3764 1018 31.9061
29.4939 950 30.8221
29.6113 980 31.305
29.7288 1003 31.6702
29.8463 939 30.6431
29.9638 1010 31.7805
30.0812 986 31.4006
30.1987 1070 32.7109
30.3162 1119 33.4515
30.4337 1179 34.3366
30.5512 1089 33
30.6687 1091 33.0303
30.7862 1003 31.6702
30.9037 968 31.1127
31.0212 929 30.4795
31.1387 840 28.9828
31.2562 870 29.4958
31.3737 920 30.3315
31.4912 854 29.2233
31.6087 867 29.4449
31.7262 800 28.2843
31.8436 916 30.2655
31.9611 901 30.0167
32.0785 879 29.6479
32.1959 905 30.0832
32.3134 893 29.8831
32.4308 943 30.7083
32.5482 922 30.3645
32.6655 866 29.4279
32.7829 956 30.9192
32.9002 1003 31.6702
33.0176 1025 32.0156
33.1349 954 30.8869
33.2522 830 28.8097
33.3694 824 28.7054
33.4867 710 26.6458
33.6039 687 26.2107
33.7211 674 25.9615
33.8383 676 26
33.9554 671 25.9037
34.0725 690 26.2679
34.1896 760 27.5681
34.3067 720 26.8328
34.4237 737 27.1477
34.5407 721 26.8514
34.6577 715 26.7395
34.7746 697 26.4008
34.8915 711 26.6646
35.0084 655 25.593
35.1252 630 25.0998
35.242 627 25.04
35.3587 594 24.3721
35.4755 681 26.096
35.5921 652 25.5343
35.7088 638 25.2587
35.8254 648 25.4558
35.9419 689 26.2488
36.0584 668 25.8457
36.1749 636 25.219
36.2913 663 25.7488
36.4077 611 24.7184
36.524 575 23.9792
36.6403 562 23.7065
36.7565 533 23.0868
36.8727 502 22.4054
36.9889 480 21.9089
37.1049 420 20.4939
37.221 0 1
37.3369 0 1
37.4529 0 1
37.5687 0 1
37.6845 0 1
37.8003 0 1
37.916 0 1
38.0316 0 1
38.1472 0 1
40.5851 0 1
40.7008 0 1
40.8164 0 1
40.9322 0 1
41.048 0 1
41.1639 0 1
41.2798 0 1
41.3958 0 1
41.5118 0 1
41.6279 0 1
41.744 254 15.9374
41.8602 343 18.5203
41.9765 357 18.8944
42.0928 432 20.7846
42.2091 432 20.7846
42.3255 468 21.6333
42.4419 497 22.2935
42.5584 502 22.4054
42.675 487 22.0681
42.7915 511 22.6053
42.9081 515 22.6936
43.0248 491 22.1585
43.1415 489 22.1133
43.2582 467 21.6102
43.375 513 22.6495
43.4918 533 23.0868
43.6087 501 22.383
43.7256 544 23.3238
43.8425 471 21.7025
43.9595 498 22.3159
44.0765 446 21.1187
44.1935 475 21.7945
44.3106 409 20.2237
44.4277 449 21.1896
44.5448 478 21.8632
44.6619 488 22.0907
44.7791 497 22.2935
44.8963 532 23.0651
45.0136 498 22.3159
45.1308 561 23.6854
45.2481 492 22.1811
45.3654 537 23.1733
45.4827 512 22.6274
45.6001 499 22.3383
45.7174 561 23.6854
45.8348 518 22.7596
45.9522 520 22.8035
46.0697 496 22.2711
46.1871 520 22.8035
46.3046 476 21.8174
46.422 406 20.1494
46.5395 449 21.1896
46.657 470 21.6795
46.7745 437 20.9045
46.892 459 21.4243
47.0096 493 22.2036
47.1271 518 22.7596
47.2446 495 22.2486
47.3622 483 21.9773
47.4797 512 22.6274
47.5973 485 22.0227
47.7149 456 21.3542
47.8324 453 21.2838
47.95 431 20.7605
48.0675 470 21.6795
48.1851 505 22.4722
48.3027 480 21.9089
48.4202 523 22.8692
48.5378 518 22.7596
48.6554 494 22.2261
48.7729 540 23.2379
48.8904 466 21.587
49.008 495 22.2486
49.1255 530 23.0217
49.243 531 23.0434
49.3605 501 22.383
49.478 479 21.8861
49.5955 518 22.7596
49.713 456 21.3542
49.8304 440 20.9762
49.9479 401 20.025
50.0653 418 20.445
50.1827 450 21.2132
50.3001 393 19.8242
50.4175 447 21.1424
50.5348 461 21.4709
50.6521 501 22.383
50.7694 485 22.0227
50.8867 451 21.2368
51.004 427 20.664
51.1212 401 20.025
51.2384 420 20.4939
51.3556 423 20.567
51.4727 442 21.0238
51.5899 505 22.4722
51.707 436 20.8806
51.824 483 21.9773
51.9411 468 21.6333
52.0581 486 22.0454
52.175 456 21.3542
52.2919 467 21.6102
52.4088 472 21.7256
52.5257 456 21.3542
52.6425 496 22.2711
52.7593 439 20.9523
52.876 484 22
52.9927 437 20.9045
53.1094 512 22.6274
53.226 473 21.7486
53.3426 449 21.1896
53.4591 435 20.8567
53.5756 377 19.4165
53.692 422 20.5426
53.8084 369 19.2094
53.9248 349 18.6815
54.0411 331 18.1934
54.1573 321 17.9165
54.2735 0 1
54.3896 0 1
54.5057 0 1
54.6217 0 1
54.7377 0 1
54.8537 0 1
54.9695 0 1
55.0853 0 1
55.2011 0 1
55.3168 0 1
55.4324 0 1
57.824 0 1
57.9396 0 1
58.0553 0 1
58.1711 0 1
58.2869 0 1
58.4028 0 1
58.5187 0 1
58.6347 0 1
58.7508 0 1
58.8669 0 1
58.983 565 23.7697
59.0992 687 26.2107
59.2155 830 28.8097
59.3318 928 30.4631
59.4482 1097 33.121
59.5646 1166 34.1467
59.681 1224 34.9857
59.7975 1250 35.3553
59.9141 1192 34.5254
60.0306 1153 33.9559
60.1473 1214 34.8425
60.2639 1205 34.7131
60.3807 1278 35.7491
60.4974 1268 35.609
60.6142 1336 36.5513
60.731 1272 35.6651
60.8479 1231 35.0856
60.9648 1265 35.5668
61.0818 1136 33.7046
61.1987 1190 34.4964
61.3158 1153 33.9559
61.4328 1130 33.6155
61.5499 1072 32.7414
61.667 1025 32.0156
61.7841 1015 31.8591
61.9013 931 30.5123
62.0185 920 30.3315
62.1357 749 27.3679
62.253 794 28.178
62.3702 739 27.1846
62.4875 753 27.4408
62.6049 718 26.7955
62.7222 731 27.037
62.8396 756 27.4955
62.9569 714 26.7208
63.0743 681 26.096
63.1918 672 25.923
63.3092 706 26.5707
63.4267 633 25.1595
63.5441 593 24.3516
63.6616 580 24.0832
63.7791 579 24.0624
63.8966 617 24.8395
64.0142 572 23.9165
64.1317 575 23.9792
64.2492 575 23.9792
64.3668 590 24.2899
64.4843 577 24.0208
64.6019 563 23.7276
64.7195 553 23.516
64.837 581 24.1039
64.9546 565 23.7697
65.0722 578 24.0416
65.1898 600 24.4949
65.3074 615 24.7992
65.4249 583 24.1454
65.5425 551 23.4734
65.6601 513 22.6495
65.7777 484 22
65.8952 547 23.388
66.0128 530 23.0217
66.1304 538 23.1948
66.2479 511 22.6053
66.3655 542 23.2809
66.483 539 23.2164
66.6005 595 24.3926
66.718 584 24.1661
66.8355 559 23.6432
66.953 527 22.9565
67.0705 572 23.9165
67.1879 512 22.6274
67.3054 484 22
67.4228 550 23.4521
67.5402 576 24
67.6576 564 23.7487
67.7749 532 23.0651
67.8923 556 23.5797
68.0096 538 23.1948
68.1269 533 23.0868
68.2442 520 22.8035
68.3614 519 22.7816
68.4787 547 23.388
68.5958 567 23.8118
68.713 536 23.1517
68.8302 555 23.5584
68.9473 560 23.6643
69.0643 573 23.9374
69.1814 553 23.516
69.2984 555 23.5584
69.4154 520 22.8035
69.5323 481 21.9317
69.6492 477 21.8403
69.7661 522 22.8473
69.8829 519 22.7816
69.9997 544 23.3238
70.1165 524 22.891
70.2332 483 21.9773
70.3499 521 22.8254
70.4665 506 22.4944
70.5831 474 21.7715
70.6996 427 20.664
70.8161 390 19.7484
70.9326 346 18.6011
71.049 348 18.6548
71.1653 310 17.6068
71.2817 308 17.5499
71.3979 305 17.4642
71.5141 294 17.1464
71.6303 238 15.4272
71.7464 217 14.7309
71.8624 0 1
71.9784 0 1
72.0944 0 1
72.2102 0 1
72.3261 0 1
72.4418 0 1
72.5575 0 1
72.6732 0 1
75.1054 0 1
75.2209 0 1
75.3365 0 1
75.4521 0 1
75.5678 0 1
75.6835 0 1
75.7993 0 1
75.9151 0 1
76.031 0 1
76.147 367 19.1572
76.263 362 19.0263
76.3791 454 21.3073
76.4952 399 19.975
76.6113 452 21.2603
76.7276 459 21.4243
76.8438 475 21.7945
76.9601 481 21.9317
77.0765 461 21.4709
77.1929 482 21.9545
77.3093 465 21.5639
77.4258 491 22.1585
77.5423 486 22.0454
77.6589 503 22.4277
77.7755 475 21.7945
77.8921 471 21.7025
78.0088 419 20.4695
78.1256 436 20.8806
78.2423 431 20.7605
78.3591 421 20.5183
78.4759 447 21.1424
78.5928 430 20.7364
78.7097 460 21.4476
78.8266 457 21.3776
78.9436 488 22.0907
79.0606 458 21.4009
79.1776 441 21
79.2946 458 21.4009
79.4117 488 22.0907
79.5288 493 22.2036
79.6459 504 22.4499
79.7631 541 23.2594
79.8802 488 22.0907
79.9974 467 21.6102
80.1147 498 22.3159
80.2319 489 22.1133
80.3491 460 21.4476
80.4664 537 23.1733
80.5837 524 22.891
80.701 502 22.4054
80.8183 452 21.2603
80.9357 506 22.4944
81.053 457 21.3776
81.1704 480 21.9089
81.2877 485 22.0227
81.4051 500 22.3607
81.5225 512 22.6274
81.6399 471 21.7025
81.7573 482 21.9545
81.8747 458 21.4009
81.9922 475 21.7945
82.1096 446 21.1187
82.227 444 21.0713
82.3444 439 20.9523
82.4619 486 22.0454
82.5793 490 22.1359
82.6967 457 21.3776
82.8142 453 21.2838
82.9316 500 22.3607
83.049 548 23.4094
83.1664 468 21.6333
83.2838 530 23.0217
83.4012 489 22.1133
83.5186 492 22.1811
83.636 539 23.2164
83.7534 444 21.0713
83.8708 477 21.8403
83.9881 509 22.561
84.1055 534 23.1084
84.2228 530 23.0217
84.3401 540 23.2379
84.4575 485 22.0227
84.5747 509 22.561
84.692 487 22.0681
84.8093 500 22.3607
84.9265 527 22.9565
85.0437 507 22.5167
85.1609 491 22.1585
85.2781 479 21.8861
85.3952 459 21.4243
85.5123 465 21.5639
85.6294 454 21.3073
85.7465 440 20.9762
85.8636 491 22.1585
85.9806 489 22.1133
86.0976 526 22.9347
86.2145 461 21.4709
86.3315 491 22.1585
86.4484 487 22.0681
86.5652 489 22.1133
86.682 563 23.7276
86.7988 492 22.1811
86.9156 532 23.0651
87.0323 511 22.6053
87.149 495 22.2486
87.2657 536 23.1517
87.3823 465 21.5639
87.4988 474 21.7715
87.6154 516 22.7156
87.7318 502 22.4054
87.8483 502 22.4054
87.9647 465 21.5639
88.081 406 20.1494
88.1973 354 18.8149
88.3136 333 18.2483
88.4298 362 19.0263
88.546 305 17.4642
88.6621 288 16.9706
88.7781 235 15.3297
88.8942 0 1
89.0101 0 1
89.126 0 1
89.2419 0 1
89.3577 0 1
89.4734 0 1
89.5891 0 1
89.7047 0 1
89.8203 0 1
89.9358 0 1
92.3269 0 1
92.4424 0 1
92.558 0 1
92.6736 0 1
92.7893 0 1
92.905 0 1
93.0208 0 1
93.1366 0 1
93.2525 0 1
93.3685 0 1
93.4845 0 1
93.6005 391 19.7737
93.7167 428 20.6882
93.8328 477 21.8403
93.949 483 21.9773
94.0653 492 22.1811
94.1816 515 22.6936
94.2979 473 21.7486
94.4143 491 22.1585
94.5307 434 20.8327
94.6472 482 21.9545
94.7637 494 22.2261
94.8803 472 21.7256
94.9969 483 21.9773
95.1135 455 21.3307
95.2302 481 21.9317
95.3469 481 21.9317
95.4637 535 23.1301
95.5805 499 22.3383
95.6973 513 22.6495
95.8142 512 22.6274
95.9311 491 22.1585
96.048 496 22.2711
96.1649 507 22.5167
96.2819 525 22.9129
96.3989 501 22.383
96.516 461 21.4709
96.633 522 22.8473
96.7501 505 22.4722
96.8673 492 22.1811
96.9844 557 23.6008
97.1016 523 22.8692
97.2188 491 22.1585
97.336 494 22.2261
97.4532 488 22.0907
97.5704 513 22.6495
97.6877 494 22.2261
97.805 495 22.2486
97.9223 478 21.8632
98.0396 496 22.2711
98.1569 502 22.4054
98.2743 476 21.8174
98.3916 493 22.2036
98.509 531 23.0434
98.6264 530 23.0217
98.7438 526 22.9347
98.8612 472 21.7256
98.9786 472 21.7256
99.096 547 23.388
99.2134 525 22.9129
99.3308 569 23.8537
99.4482 582 24.1247
99.5656 536 23.1517
99.6831 542 23.2809
99.8005 538 23.1948
99.9179 538 23.1948
100.035 536 23.1517
100.153 532 23.0651
100.27 551 23.4734
100.388 555 23.5584
100.505 565 23.7697
100.622 491 22.1585
100.74 533 23.0868
100.857 506 22.4944
100.975 486 22.0454
101.092 490 22.1359
101.209 516 22.7156
101.327 483 21.9773
101.444 491 22.1585
101.561 489 22.1133
101.679 440 20.9762
101.796 504 22.4499
101.913 519 22.7816
102.03 521 22.8254
102.148 541 23.2594
102.265 526 22.9347
102.382 524 22.891
102.499 543 23.3024
102.616 552 23.4947
102.733 555 23.5584
102.851 570 23.8747
102.968 565 23.7697
103.085 604 24.5764
103.202 569 23.8537
103.319 572 23.9165
103.436 566 23.7908
103.552 561 23.6854
103.669 578 24.0416
103.786 478 21.8632
103.903 566 23.7908
104.02 560 23.6643
104.137 559 23.6432
104.253 562 23.7065
104.37 537 23.1733
104.487 586 24.2074
104.603 513 22.6495
104.72 532 23.0651
104.836 529 23
104.953 504 22.4499
105.069 440 20.9762
105.186 446 21.1187
105.302 416 20.3961
105.418 431 20.7605
105.535 418 20.445
105.651 343 18.5203
105.767 350 18.7083
105.883 294 17.1464
105.999 251 15.843
106.115 0 1
106.231 0 1
106.347 0 1
106.463 0 1
106.579 0 1
106.694 0 1
106.81 0 1
106.926 0 1
107.041 0 1
107.157 0 1
109.576 0 1
109.692 0 1
109.807 0 1
109.923 0 1
110.039 0 1
110.155 0 1
110.27 0 1
110.386 0 1
110.502 0 1
110.618 301 17.3494
110.735 365 19.105
110.851 385 19.6214
110.967 427 20.664
111.083 421 20.5183
111.199 419 20.4695
111.316 478 21.8632
111.432 507 22.5167
111.549 487 22.0681
111.665 505 22.4722
111.782 463 21.5174
111.898 494 22.2261
112.015 495 22.2486
112.132 544 23.3238
112.248 492 22.1811
112.365 487 22.0681
112.482 469 21.6564
112.599 536 23.1517
112.716 520 22.8035
112.832 487 22.0681
112.949 469 21.6564
113.066 476 21.8174
113.183 448 21.166
113.3 453 21.2838
113.417 466 21.587
113.534 445 21.095
113.652 452 21.2603
113.769 409 20.2237
113.886 411 20.2731
114.003 407 20.1742
114.12 508 22.5389
114.238 478 21.8632
114.355 506 22.4944
114.472 483 21.9773
114.589 471 21.7025
114.707 429 20.7123
114.824 447 21.1424
114.942 448 21.166
115.059 453 21.2838
115.176 489 22.1133
115.294 444 21.0713
115.411 426 20.6398
115.529 471 21.7025
115.646 469 21.6564
115.764 459 21.4243
115.881 453 21.2838
115.999 455 21.3307
116.116 437 20.9045
116.234 485 22.0227
116.351 453 21.2838
116.469 421 20.5183
116.586 436 20.8806
116.704 419 20.4695
116.821 397 19.9249
116.939 425 20.6155
117.056 384 19.5959
117.174 379 19.4679
117.291 358 18.9209
117.409 348 18.6548
117.526 394 19.8494
117.644 402 20.0499
117.761 426 20.6398
117.879 436 20.8806
117.996 437 20.9045
118.114 415 20.3715
118.231 422 20.5426
118.349 400 20
118.466 406 20.1494
118.584 426 20.6398
118.701 423 20.567
118.819 408 20.199
118.936 436 20.8806
119.053 404 20.0998
119.171 432 20.7846
119.288 384 19.5959
119.405 423 20.567
119.523 420 20.4939
119.64 418 20.445
119.757 430 20.7364
119.875 410 20.2485
119.992 442 21.0238
120.109 396 19.8997
120.226 434 20.8327
120.343 377 19.4165
120.46 421 20.5183
120.578 421 20.5183
120.695 394 19.8494
120.812 370 19.2354
120.929 364 19.0788
121.046 346 18.6011
121.163 409 20.2237
121.279 371 19.2614
121.396 375 19.3649
121.513 396 19.8997
121.63 364 19.0788
121.747 349 18.6815
121.863 373 19.3132
121.98 364 19.0788
122.097 346 18.6011
122.213 314 17.72
122.33 318 17.8326
122.446 300 17.3205
122.563 284 16.8523
122.679 253 15.906
122.795 252 15.8745
122.912 246 15.6844
123.028 247 15.7162
123.144 249 15.7797
123.26 229 15.1327
123.377 0 1
123.493 0 1
123.609 0 1
123.725 0 1
123.84 0 1
123.956 0 1
124.072 0 1
124.188 0 1
124.303 0 1
124.419 0 1
126.852 0 1
126.968 0 1
127.083 0 1
127.199 0 1
127.315 0 1
127.431 0 1
127.547 0 1
127.663 0 1
127.779 0 1
127.895 0 1
128.011 0 1
128.127 0 1
128.243 0 1
128.359 406 20.1494
128.476 478 21.8632
128.592 463 21.5174
128.708 496 22.2711
128.825 457 21.3776
128.941 455 21.3307
129.058 448 21.166
129.174 473 21.7486
129.291 477 21.8403
129.408 471 21.7025
129.524 486 22.0454
129.641 423 20.567
129.758 460 21.4476
129.875 434 20.8327
129.992 407 20.1742
130.108 427 20.664
130.225 415 20.3715
130.342 434 20.8327
130.459 452 21.2603
130.576 496 22.2711
130.693 529 23
130.81 525 22.9129
130.928 531 23.0434
131.045 570 23.8747
131.162 580 24.0832
131.279 627 25.04
131.396 619 24.8797
131.513 663 25.7488
131.631 600 24.4949
131.748 560 23.6643
131.865 672 25.923
131.983 731 27.037
132.1 796 28.2135
132.217 797 28.2312
132.335 917 30.282
132.452 870 29.4958
132.57 962 31.0161
132.687 922 30.3645
132.804 952 30.8545
132.922 958 30.9516
133.039 998 31.5911
133.157 941 30.6757
133.274 975 31.225
133.392 864 29.3939
133.509 908 30.133
133.627 901 30.0167
133.744 891 29.8496
133.862 843 29.0345
133.979 923 30.3809
134.097 996 31.5595
134.214 889 29.8161
134.332 975 31.225
134.449 908 30.133
134.567 886 29.7658
134.684 842 29.0172
134.802 879 29.6479
134.919 880 29.6648
135.037 910 30.1662
135.154 880 29.6648
135.272 800 28.2843
135.389 786 28.0357
135.507 818 28.6007
135.624 910 30.1662
135.742 915 30.249
135.859 956 30.9192
135.977 944 30.7246
136.094 964 31.0483
136.211 922 30.3645
136.329 922 30.3645
136.446 917 30.282
136.564 942 30.692
136.681 899 29.9833
136.798 947 30.7734
136.915 949 30.8058
137.033 903 30.05
137.15 830 28.8097
137.267 853 29.2062
137.384 832 28.8444
137.502 850 29.1548
137.619 821 28.6531
137.736 847 29.1033
137.853 855 29.2404
137.97 949 30.8058
138.087 848 29.1204
138.204 853 29.2062
138.321 863 29.3769
138.438 878 29.6311
138.555 895 29.9166
138.672 841 29
138.788 886 29.7658
138.905 829 28.7924
139.022 744 27.2764
139.139 797 28.2312
139.255 853 29.2062
139.372 852 29.189
139.488 787 28.0535
139.605 770 27.7489
139.721 718 26.7955
139.838 642 25.3377
139.954 577 24.0208
140.071 547 23.388
140.187 559 23.6432
140.303 513 22.6495
140.419 559 23.6432
140.535 492 22.1811
140.652 453 21.2838
140.768 0 1
140.884 0 1
141 0 1
141.115 0 1
141.231 0 1
141.347 0 1
141.463 0 1
141.578 0 1
141.694 0 1
144.104 0 1
144.219 0 1
144.335 0 1
144.45 0 1
144.566 0 1
144.682 0 1
144.798 0 1
144.914 0 1
145.03 0 1
145.146 946 30.7571
145.262 992 31.496
145.378 977 31.257
145.494 976 31.241
145.61 1062 32.5883
145.726 1007 31.7333
145.842 1041 32.2645
145.959 1106 33.2566
146.075 1035 32.1714
146.192 1018 31.9061
146.308 1073 32.7567
146.425 1032 32.1248
146.541 1110 33.3167
146.658 1214 34.8425
146.774 1298 36.0278
146.891 1221 34.9428
147.008 1218 34.8999
147.125 1201 34.6554
147.241 1243 35.2562
147.358 1262 35.5246
147.475 1189 34.4819
147.592 1164 34.1174
147.709 1104 33.2265
147.826 1189 34.4819
147.943 1169 34.1906
148.06 1265 35.5668
148.177 1256 35.4401
148.294 1259 35.4824
148.411 1267 35.5949
148.528 1256 35.4401
148.645 1254 35.4119
148.762 1295 35.9861
148.88 1313 36.2353
148.997 1313 36.2353
149.114 1320 36.3318
149.231 1253 35.3977
149.349 1250 35.3553
149.466 1286 35.8608
149.583 1249 35.3412
149.701 1288 35.8887
149.818 1245 35.2846
149.935 1252 35.3836
150.053 1240 35.2136
150.17 1213 34.8281
150.287 1236 35.1568
150.405 1274 35.6931
150.522 1346 36.6879
150.64 1271 35.6511
150.757 1189 34.4819
150.875 1212 34.8138
150.992 1145 33.8378
151.11 1143 33.8083
151.227 1065 32.6343
151.344 1065 32.6343
151.462 1081 32.8786
151.579 1087 32.9697
151.697 1187 34.4529
151.814 1188 34.4674
151.932 1149 33.8969
152.049 1241 35.2278
152.167 1302 36.0832
152.284 1183 34.3948
152.402 1200 34.641
152.519 1221 34.9428
152.636 1231 35.0856
152.754 1233 35.1141
152.871 1247 35.3129
152.989 1196 34.5832
153.106 1177 34.3074
153.223 1073 32.7567
153.341 1132 33.6452
153.458 1062 32.5883
153.575 1067 32.665
153.693 1064 32.619
153.81 1112 33.3467
153.927 1036 32.187
154.044 1110 33.3167
154.162 1113 33.3617
154.279 1024 32
154.396 1001 31.6386
154.513 1032 32.1248
154.63 1013 31.8277
154.747 944 30.7246
154.864 887 29.7825
154.981 822 28.6705
155.098 953 30.8707
155.215 929 30.4795
155.332 917 30.282
155.449 950 30.8221
155.566 965 31.0644
155.683 980 31.305
155.8 959 30.9677
155.917 978 31.273
156.033 936 30.5941
156.15 0 1
156.267 0 1
156.383 0 1
156.5 0 1
156.617 0 1
156.733 0 1
156.85 0 1
156.966 0 1
157.082 0 1
157.199 0 1
157.315 0 1
157.431 0 1
157.547 0 1
157.664 0 1
157.78 0 1
157.896 0 1
158.012 0 1
158.128 0 1
158.244 0 1
158.359 0 1
158.475 0 1
158.591 0 1
158.706 0 1
