
6.15755 0 1
6.2731 0 1
6.3887 0 1
6.50437 0 1
6.62009 0 1
6.73587 0 1
6.8517 0 1
6.96759 0 1
7.08353 0 1
7.19952 0 1
7.31557 0 1
7.43166 0 1
7.54781 0 1
7.664 0 1
7.78024 0 1
7.89653 0 1
8.01286 0 1
8.12924 0 1
8.24567 0 1
8.36213 0 1
8.47864 0 1
8.59519 0 1
8.71178 0 1
8.82841 0 1
8.94508 0 1
9.06179 0 1
9.17853 0 1
9.29531 0 1
9.41212 0 1
9.52897 0 1
9.64584 0 1
9.76276 0 1
9.8797 0 1
9.99667 0 1
10.1137 0 1
10.2307 0 1
10.3478 0 1
10.4648 0 1
10.5819 0 1
10.6991 0 1
10.8162 0 1
10.9334 0 1
11.0506 0 1
11.1678 0 1
11.285 0 1
11.4023 0 1
11.5196 0 1
11.6369 0 1
11.7542 0 1
11.8715 0 1
11.9888 0 1
12.1062 0 1
12.2235 0 1
12.3409 0 1
12.4582 0 1
12.5756 0 1
12.693 0 1
12.8104 0 1
12.9278 0 1
13.0452 0 1
13.1626 0 1
13.28 0 1
13.3974 0 1
13.5149 0 1
13.6323 0 1
13.7497 0 1
13.8671 0 1
13.9845 0 1
14.1019 0 1
14.2193 0 1
14.3367 0 1
14.4541 0 1
14.5714 0 1
14.6888 0 1
14.8062 0 1
14.9235 0 1
15.0408 40421 201.05
15.1581 42173 205.361
15.2755 43598 208.801
15.3927 43843 209.387
15.51 43408 208.346
15.6273 43056 207.499
15.7445 42401 205.915
15.8617 41813 204.482
15.9789 41239 203.074
16.0961 41035 202.571
16.2132 42354 205.801
16.3304 43897 209.516
16.4475 45360 212.979
16.5646 46581 215.826
16.6816 48608 220.472
16.7986 51875 227.761
16.9156 54904 234.316
17.0326 57427 239.639
17.1496 58181 241.207
17.2665 58634 242.145
17.3833 58397 241.655
17.5002 58584 242.041
17.617 58683 242.246
17.7338 59174 243.257
17.8505 59743 244.424
17.9672 60586 246.142
18.0839 60913 246.806
18.2005 61600 248.193
18.3171 62315 249.63
18.4337 62774 250.547
18.5502 62713 250.426
18.6666 63199 251.394
18.7831 63053 251.104
18.8994 62854 250.707
19.0158 61177 247.34
19.1321 59993 244.935
19.2483 58672 242.223
19.3645 57266 239.303
19.4806 56584 237.874
19.5967 54820 234.137
19.7128 51385 226.683
19.8288 47018 216.836
19.9447 40834 202.074
20.0606 0 1
20.1764 0 1
20.2922 0 1
20.4079 0 1
20.5236 0 1
20.6392 0 1
20.7548 0 1
20.8702 0 1
23.3078 0 1
23.4233 0 1
23.539 0 1
23.6547 0 1
23.7704 0 1
23.8862 0 1
24.0021 0 1
24.118 0 1
24.234 0 1
24.35 0 1
24.4661 55524 235.635
24.5822 55997 236.637
24.6984 56407 237.502
24.8146 56797 238.321
24.9309 55128 234.794
25.0472 50830 225.455
25.1636 46819 216.377
25.28 46787 216.303
25.3965 49194 221.797
25.513 52156 228.377
25.6296 56252 237.175
25.7462 61531 248.054
25.8628 65632 256.187
25.9795 66893 258.637
26.0962 66913 258.675
26.213 67347 259.513
26.3298 66712 258.287
26.4466 66745 258.351
26.5635 67146 259.125
26.6804 65732 256.383
26.7973 67233 259.293
26.9143 66591 258.052
27.0313 66412 257.705
27.1483 65927 256.763
27.2653 65904 256.718
27.3824 66416 257.713
27.4996 66930 258.708
27.6167 65748 256.414
27.7339 64182 253.342
27.8511 62629 250.258
27.9683 61500 247.992
28.0855 61358 247.705
28.2028 62046 249.09
28.3201 60492 245.951
28.4374 58192 241.23
28.5547 53670 231.668
28.6721 48612 220.481
28.7894 46117 214.749
28.9068 46835 216.414
29.0242 49571 222.645
29.1416 51993 228.02
29.259 55782 236.182
29.3764 60688 246.349
29.4939 63811 252.608
29.6113 64859 254.674
29.7288 64138 253.255
29.8463 64779 254.517
29.9638 64912 254.778
30.0812 64916 254.786
30.1987 65080 255.108
30.3162 64887 254.729
30.4337 64541 254.049
30.5512 63700 252.389
30.6687 62493 249.986
30.7862 63047 251.092
30.9037 63604 252.198
31.0212 64689 254.34
31.1387 63987 252.957
31.2562 63125 251.247
31.3737 62244 249.487
31.4912 61735 248.465
31.6087 61567 248.127
31.7262 62031 249.06
31.8436 61102 247.188
31.9611 59735 244.407
32.0785 54587 233.639
32.1959 48774 220.848
32.3134 45901 214.245
32.4308 46119 214.753
32.5482 48220 219.591
32.6655 51130 226.119
32.7829 55124 234.785
32.9002 59338 243.594
33.0176 62833 250.665
33.1349 63539 252.069
33.2522 64257 253.49
33.3694 63836 252.658
33.4867 63735 252.458
33.6039 64431 253.833
33.7211 63972 252.927
33.8383 64181 253.34
33.9554 63668 252.325
34.0725 63143 251.283
34.1896 61637 248.268
34.3067 60425 245.815
34.4237 60523 246.014
34.5407 62329 249.658
34.6577 62949 250.896
34.7746 62610 250.22
34.8915 61691 248.377
35.0084 61360 247.71
35.1252 60870 246.718
35.242 61099 247.182
35.3587 61860 248.717
35.4755 61461 247.913
35.5921 60050 245.051
35.7088 57469 239.727
35.8254 52372 228.849
35.9419 47443 217.814
36.0584 44512 210.979
36.1749 45340 212.932
36.2913 47044 216.896
36.4077 48925 221.19
36.524 52241 228.563
36.6403 56632 237.975
36.7565 60674 246.321
36.8727 61825 248.646
36.9889 62077 249.153
37.1049 61102 247.188
37.221 0 1
37.3369 0 1
37.4529 0 1
37.5687 0 1
37.6845 0 1
37.8003 0 1
37.916 0 1
38.0316 0 1
38.1472 0 1
40.5851 0 1
40.7008 0 1
40.8164 0 1
40.9322 0 1
41.048 0 1
41.1639 0 1
41.2798 0 1
41.3958 0 1
41.5118 0 1
41.6279 0 1
41.744 43100 207.605
41.8602 47606 218.188
41.9765 50056 223.732
42.0928 51308 226.513
42.2091 52681 229.523
42.3255 53358 230.994
42.4419 53761 231.864
42.5584 52961 230.133
42.675 52880 229.957
42.7915 52193 228.458
42.9081 50895 225.599
43.0248 48982 221.319
43.1415 48937 221.217
43.2582 50281 224.234
43.375 50696 225.158
43.4918 51203 226.281
43.6087 51293 226.48
43.7256 49943 223.479
43.8425 49984 223.571
43.9595 48838 220.993
44.0765 48543 220.325
44.1935 48178 219.495
44.3106 46529 215.706
44.4277 45368 212.998
44.5448 42567 206.318
44.6619 38855 197.117
44.7791 34814 186.585
44.8963 32925 181.452
45.0136 32824 181.174
45.1308 33554 183.178
45.2481 34860 186.708
45.3654 37893 194.661
45.4827 40206 200.514
45.6001 41580 203.912
45.7174 41170 202.904
45.8348 41104 202.741
45.9522 40940 202.336
46.0697 39864 199.66
46.1871 39142 197.843
46.3046 38827 197.046
46.422 36970 192.276
46.5395 36763 191.737
46.657 36128 190.074
46.7745 36558 191.201
46.892 37119 192.663
47.0096 37112 192.645
47.1271 37947 194.8
47.2446 37480 193.598
47.3622 36730 191.651
47.4797 36188 190.231
47.5973 36375 190.722
47.7149 35024 187.147
47.8324 34285 185.162
47.95 33422 182.817
48.0675 31607 177.784
48.1851 30413 174.393
48.3027 26798 163.701
48.4202 25270 158.965
48.5378 24762 157.359
48.6554 25130 158.524
48.7729 26197 161.855
48.8904 28561 169
49.008 31135 176.451
49.1255 32177 179.379
49.243 32591 180.53
49.3605 32755 180.983
49.478 32705 180.845
49.5955 33160 182.099
49.713 32692 180.809
49.8304 32082 179.114
49.9479 31334 177.014
50.0653 31191 176.61
50.1827 31984 178.841
50.3001 32868 181.295
50.4175 33941 184.231
50.5348 35512 188.446
50.6521 36700 191.572
50.7694 38072 195.12
50.8867 38682 196.677
51.004 39178 197.934
51.1212 40225 200.562
51.2384 40767 201.908
51.3556 40763 201.898
51.4727 40464 201.157
51.5899 40203 200.507
51.707 38641 196.573
51.824 35286 187.846
51.9411 34444 185.591
52.0581 34799 186.545
52.175 36552 191.186
52.2919 38816 197.018
52.4088 42964 207.278
52.5257 47438 217.803
52.6425 48331 219.843
52.7593 48731 220.751
52.876 49964 223.526
52.9927 50673 225.107
53.1094 51661 227.291
53.226 51887 227.787
53.3426 51635 227.233
53.4591 50194 224.04
53.5756 48952 221.251
53.692 49221 221.858
53.8084 50566 224.869
53.9248 51794 227.583
54.0411 54086 232.564
54.1573 56269 237.211
54.2735 0 1
54.3896 0 1
54.5057 0 1
54.6217 0 1
54.7377 0 1
54.8537 0 1
54.9695 0 1
55.0853 0 1
55.2011 0 1
55.3168 0 1
55.4324 0 1
57.824 0 1
57.9396 0 1
58.0553 0 1
58.1711 0 1
58.2869 0 1
58.4028 0 1
58.5187 0 1
58.6347 0 1
58.7508 0 1
58.8669 0 1
58.983 53933 232.235
59.0992 58745 242.374
59.2155 61672 248.338
59.3318 64636 254.236
59.4482 65474 255.879
59.5646 66510 257.895
59.681 67295 259.413
59.7975 65810 256.535
59.9141 64360 253.693
60.0306 63731 252.45
60.1473 61436 247.863
60.2639 59256 243.426
60.3807 56002 236.647
60.4974 52890 229.978
60.6142 51209 226.294
60.731 49896 223.374
60.8479 49502 222.49
60.9648 51477 226.885
61.0818 53614 231.547
61.1987 55996 236.635
61.3158 57388 239.558
61.4328 58278 241.408
61.5499 58543 241.957
61.667 58184 241.214
61.7841 57212 239.19
61.9013 55872 236.373
62.0185 54397 233.232
62.1357 53356 230.989
62.253 53110 230.456
62.3702 53730 231.797
62.4875 55753 236.121
62.6049 57303 239.38
62.7222 58459 241.783
62.8396 60483 245.933
62.9569 61266 247.52
63.0743 61145 247.275
63.1918 60740 246.455
63.3092 59746 244.43
63.4267 58240 241.33
63.5441 57712 240.233
63.6616 55702 236.013
63.7791 53680 231.689
63.8966 50908 225.628
64.0142 48261 219.684
64.1317 45927 214.306
64.2492 44932 211.972
64.3668 45739 213.867
64.4843 46357 215.307
64.6019 48825 220.964
64.7195 50594 224.931
64.837 52420 228.954
64.9546 53413 231.113
65.0722 53614 231.547
65.1898 52744 229.661
65.3074 53202 230.656
65.4249 50892 225.593
65.5425 49522 222.535
65.6601 48317 219.811
65.7777 47428 217.78
65.8952 48633 220.529
66.0128 49667 222.861
66.1304 51614 227.187
66.2479 54400 233.238
66.3655 56048 236.745
66.483 57275 239.322
66.6005 58058 240.952
66.718 58064 240.965
66.8355 57763 240.339
66.953 57306 239.387
67.0705 55775 236.167
67.1879 55088 234.708
67.3054 53054 230.335
67.4228 50996 225.823
67.5402 48415 220.034
67.6576 45923 214.297
67.7749 44125 210.06
67.8923 44193 210.221
68.0096 44430 210.784
68.1269 46618 215.912
68.2442 48977 221.307
68.3614 51620 227.2
68.4787 53436 231.162
68.5958 53990 232.357
68.713 54644 233.761
68.8302 54598 233.662
68.9473 54365 233.163
69.0643 52684 229.53
69.1814 51066 225.978
69.2984 49736 223.016
69.4154 50107 223.846
69.5323 50593 224.929
69.6492 53533 231.372
69.7661 56166 236.994
69.8829 59294 243.504
69.9997 61718 248.431
70.1165 63154 251.305
70.2332 64164 253.306
70.3499 64387 253.746
70.4665 63403 251.8
70.5831 63036 251.07
70.6996 61571 248.135
70.8161 60380 245.723
70.9326 59048 242.998
71.049 56449 237.59
71.1653 54106 232.607
71.2817 51082 226.013
71.3979 47623 218.227
71.5141 45616 213.579
71.6303 43303 208.094
71.7464 38841 197.081
71.8624 0 1
71.9784 0 1
72.0944 0 1
72.2102 0 1
72.3261 0 1
72.4418 0 1
72.5575 0 1
72.6732 0 1
75.1054 0 1
75.2209 0 1
75.3365 0 1
75.4521 0 1
75.5678 0 1
75.6835 0 1
75.7993 0 1
75.9151 0 1
76.031 0 1
76.147 53530 231.366
76.263 57892 240.608
76.3791 57282 239.337
76.4952 56178 237.019
76.6113 52157 228.379
76.7276 48901 221.136
76.8438 47183 217.216
76.9601 47766 218.554
77.0765 49631 222.78
77.1929 52182 228.434
77.3093 56466 237.626
77.4258 59185 243.28
77.5423 60331 245.624
77.6589 60226 245.41
77.7755 59506 243.939
77.8921 58298 241.45
78.0088 56023 236.692
78.1256 52286 228.661
78.2423 48268 219.7
78.3591 46046 214.583
78.4759 45502 213.312
78.5928 48603 220.461
78.7097 53376 231.032
78.8266 55804 236.229
78.9436 62678 250.356
79.0606 62560 250.12
79.1776 63243 251.482
79.2946 62997 250.992
79.4117 62920 250.839
79.5288 62582 250.164
79.6459 61824 248.644
79.7631 59467 243.859
79.8802 57412 239.608
79.9974 55535 235.659
80.1147 52869 229.933
80.2319 49748 223.043
80.3491 46176 214.886
80.4664 44777 211.606
80.5837 44974 212.071
80.701 46568 215.796
80.8183 48436 220.082
80.9357 51443 226.81
81.053 53879 232.119
81.1704 54231 232.876
81.2877 54083 232.558
81.4051 53895 232.153
81.5225 51945 227.914
81.6399 51712 227.403
81.7573 47881 218.817
81.8747 43503 208.574
81.9922 41186 202.943
82.1096 41283 203.182
82.227 43603 208.813
82.3444 47866 218.783
82.4619 52245 228.572
82.5793 55420 235.415
82.6967 55138 234.815
82.8142 55830 236.284
82.9316 56259 237.19
83.049 55808 236.237
83.1664 55001 234.523
83.2838 53488 231.275
83.4012 51473 226.877
83.5186 50134 223.906
83.636 48360 219.909
83.7534 45615 213.577
83.8708 43108 207.625
83.9881 40755 201.879
84.1055 39545 198.859
84.2228 40343 200.856
84.3401 41226 203.042
84.4575 43727 209.11
84.5747 46860 216.472
84.692 49427 222.322
84.8093 50271 224.212
84.9265 49872 223.32
85.0437 49779 223.112
85.1609 48774 220.848
85.2781 45614 213.574
85.3952 41851 204.575
85.5123 39157 197.881
85.6294 38144 195.305
85.7465 40190 200.474
85.8636 45814 214.042
85.9806 50554 224.842
86.0976 54336 233.101
86.2145 56858 238.449
86.3315 60566 246.102
86.4484 58221 241.29
86.5652 60848 246.674
86.682 61187 247.36
86.7988 60102 245.157
86.9156 59539 244.006
87.0323 57717 240.244
87.149 55760 236.136
87.2657 54456 233.358
87.3823 52289 228.668
87.4988 49332 222.108
87.6154 48263 219.688
87.7318 47821 218.68
87.8483 49762 223.074
87.9647 52069 228.186
88.081 55346 235.257
88.1973 58928 242.751
88.3136 59501 243.928
88.4298 60211 245.379
88.546 59252 243.417
88.6621 58462 241.789
88.7781 55455 235.489
88.8942 0 1
89.0101 0 1
89.126 0 1
89.2419 0 1
89.3577 0 1
89.4734 0 1
89.5891 0 1
89.7047 0 1
89.8203 0 1
89.9358 0 1
92.3269 0 1
92.4424 0 1
92.558 0 1
92.6736 0 1
92.7893 0 1
92.905 0 1
93.0208 0 1
93.1366 0 1
93.2525 0 1
93.3685 0 1
93.4845 0 1
93.6005 55952 236.542
93.7167 58089 241.017
93.8328 58271 241.394
93.949 57964 240.757
94.0653 57108 238.973
94.1816 55486 235.555
94.2979 53156 230.556
94.4143 49184 221.775
94.5307 45422 213.124
94.6472 43422 208.379
94.7637 43698 209.041
94.8803 47815 218.666
94.9969 54180 232.766
95.1135 58669 242.217
95.2302 61902 248.801
95.3469 63123 251.243
95.4637 64786 254.531
95.5805 65096 255.139
95.6973 66350 257.585
95.8142 66617 258.103
95.9311 65230 255.402
96.048 63579 252.149
96.1649 62165 249.329
96.2819 60170 245.296
96.3989 58157 241.158
96.516 55506 235.597
96.633 52837 229.863
96.7501 51259 226.405
96.8673 50735 225.244
96.9844 51638 227.24
97.1016 52997 230.211
97.2188 55587 235.769
97.336 58551 241.973
97.4532 59499 243.924
97.5704 60076 245.104
97.6877 58419 241.7
97.805 57006 238.759
97.9223 54301 233.026
98.0396 49224 221.865
98.1569 44337 210.564
98.2743 41633 204.042
98.3916 42008 204.959
98.509 45227 212.666
98.6264 52588 229.321
98.7438 57597 239.994
98.8612 60730 246.435
98.9786 62799 250.597
99.096 64591 254.148
99.2134 65213 255.368
99.3308 65708 256.336
99.4482 66034 256.971
99.5656 64921 254.796
99.6831 63102 251.201
99.8005 61214 247.415
99.9179 59573 244.076
100.035 56841 238.414
100.153 55563 235.718
100.27 53227 230.71
100.388 52286 228.661
100.505 52495 229.118
100.622 54534 233.525
100.74 56168 236.998
100.857 58709 242.299
100.975 60301 245.563
101.092 60464 245.894
101.209 59549 244.027
101.327 59019 242.938
101.444 57249 239.268
101.561 53908 232.181
101.679 47425 217.773
101.796 43734 209.127
101.913 42484 206.116
102.03 45294 212.824
102.148 52627 229.406
102.265 57820 240.458
102.382 64628 254.22
102.499 64942 254.837
102.616 67046 258.932
102.733 67833 260.448
102.851 68701 262.109
102.968 69572 263.765
103.085 69153 262.97
103.202 67382 259.58
103.319 65053 255.055
103.436 62789 250.577
103.552 61093 247.17
103.669 58301 241.456
103.786 57255 239.28
103.903 56630 237.971
104.02 56761 238.246
104.137 58888 242.668
104.253 59806 244.553
104.37 62918 250.835
104.487 63988 252.958
104.603 65253 255.447
104.72 65111 255.169
104.836 63482 251.956
104.953 61614 248.222
105.069 55675 235.956
105.186 49120 221.63
105.302 46003 214.483
105.418 46197 214.935
105.535 51008 225.85
105.651 60755 246.485
105.767 67206 259.241
105.883 71051 266.554
105.999 73018 270.218
106.115 0 1
106.231 0 1
106.347 0 1
106.463 0 1
106.579 0 1
106.694 0 1
106.81 0 1
106.926 0 1
107.041 0 1
107.157 0 1
109.576 0 1
109.692 0 1
109.807 0 1
109.923 0 1
110.039 0 1
110.155 0 1
110.27 0 1
110.386 0 1
110.502 0 1
110.618 50763 225.306
110.735 60422 245.809
110.851 65983 256.872
110.967 68936 262.557
111.083 70497 265.513
111.199 72061 268.442
111.316 73101 270.372
111.432 73743 271.557
111.549 72883 269.969
111.665 72567 269.383
111.782 69752 264.106
111.898 68458 261.645
112.015 65850 256.613
112.132 63689 252.367
112.248 61822 248.64
112.365 60565 246.1
112.482 59181 243.271
112.599 62682 250.364
112.716 62422 249.844
112.832 63872 252.729
112.949 65221 255.384
113.066 65512 255.953
113.183 65094 255.135
113.3 64904 254.763
113.417 64093 253.166
113.534 62412 249.824
113.652 54931 234.374
113.769 48746 220.785
113.886 45950 214.36
114.003 45637 213.628
114.12 49783 223.121
114.238 59088 243.08
114.355 65998 256.901
114.472 68446 261.622
114.589 72004 268.336
114.707 72426 269.121
114.824 73038 270.255
114.942 73931 271.903
115.059 75046 273.945
115.176 74112 272.235
115.294 72997 270.18
115.411 70007 264.588
115.529 68643 261.998
115.646 67205 259.239
115.764 65521 255.971
115.881 64912 254.778
115.999 63981 252.945
116.116 63637 252.264
116.234 65267 255.474
116.351 65849 256.611
116.469 67327 259.474
116.586 67822 260.427
116.704 67875 260.528
116.821 67289 259.401
116.939 66695 258.254
117.056 64830 254.617
117.174 60809 246.595
117.291 54580 233.624
117.409 49702 222.939
117.526 47477 217.892
117.644 48699 220.678
117.761 55114 234.764
117.879 64141 253.261
117.996 68552 261.824
118.114 71566 267.518
118.231 73357 270.845
118.349 74484 272.918
118.466 74772 273.445
118.584 74724 273.357
118.701 74863 273.611
118.819 73587 271.269
118.936 71999 268.326
119.053 69936 264.454
119.171 67822 260.427
119.288 67027 258.896
119.405 65768 256.453
119.523 64050 253.081
119.64 63465 251.923
119.757 63870 252.725
119.875 64049 253.079
119.992 64540 254.047
120.109 65860 256.632
120.226 66062 257.025
120.343 66548 257.969
120.46 65442 255.816
120.578 65094 255.135
120.695 64604 254.173
120.812 61405 247.8
120.929 55974 236.588
121.046 51866 227.741
121.163 48419 220.043
121.279 47161 217.166
121.396 50749 225.275
121.513 58499 241.866
121.63 65740 256.398
121.747 68894 262.477
121.863 70994 266.447
121.98 72793 269.802
122.097 73146 270.455
122.213 73100 270.37
122.33 72751 269.724
122.446 72301 268.888
122.563 70004 264.583
122.679 69150 262.964
122.795 67638 260.073
122.912 66539 257.952
123.028 65402 255.738
123.144 64232 253.44
123.26 62733 250.466
123.377 0 1
123.493 0 1
123.609 0 1
123.725 0 1
123.84 0 1
123.956 0 1
124.072 0 1
124.188 0 1
124.303 0 1
124.419 0 1
126.852 0 1
126.968 0 1
127.083 0 1
127.199 0 1
127.315 0 1
127.431 0 1
127.547 0 1
127.663 0 1
127.779 0 1
127.895 0 1
128.011 0 1
128.127 0 1
128.243 0 1
128.359 69780 264.159
128.476 69675 263.96
128.592 69378 263.397
128.708 70017 264.607
128.825 70697 265.889
128.941 70598 265.703
129.058 71675 267.722
129.174 71875 268.095
129.291 72431 269.13
129.408 72595 269.435
129.524 71662 267.698
129.641 70769 266.024
129.758 65920 256.749
129.875 60104 245.161
129.992 55303 235.166
130.108 51565 227.079
130.225 50833 225.462
130.342 56014 236.673
130.459 62720 250.44
130.576 72204 268.708
130.693 74734 273.375
130.81 76078 275.822
130.928 76567 276.707
131.045 77098 277.665
131.162 77444 278.288
131.279 78181 279.609
131.396 78092 279.449
131.513 76866 277.247
131.631 76207 276.056
131.748 74535 273.011
131.865 74333 272.641
131.983 73921 271.884
132.1 74200 272.397
132.217 72977 270.143
132.335 72935 270.065
132.452 73830 271.717
132.57 74024 272.074
132.687 73792 271.647
132.804 75404 274.598
132.922 74252 272.492
133.039 72922 270.041
133.157 72591 269.427
133.274 69047 262.768
133.392 62930 250.859
133.509 57499 239.789
133.627 53534 231.374
133.744 51152 226.168
133.862 53179 230.606
133.979 59838 244.618
134.097 67399 259.613
134.214 71853 268.054
134.332 76377 276.364
134.449 75836 275.383
134.567 76004 275.688
134.684 76827 277.177
134.802 77864 279.041
134.919 78294 279.811
135.037 77511 278.408
135.154 76582 276.735
135.272 75942 275.576
135.389 74727 273.362
135.507 75143 274.122
135.624 74725 273.359
135.742 73874 271.798
135.859 73419 270.959
135.977 73910 271.864
136.094 74055 272.13
136.211 74547 273.033
136.329 74708 273.328
136.446 74497 272.941
136.564 74165 272.333
136.681 73614 271.319
136.798 72707 269.642
136.915 67453 259.717
137.033 62012 249.022
137.15 56816 238.361
137.267 53213 230.679
137.384 50863 225.528
137.502 52912 230.026
137.619 59640 244.213
137.736 66489 257.855
137.853 69839 264.271
137.97 74765 273.432
138.087 74311 272.6
138.204 76353 276.32
138.321 77653 278.663
138.438 78111 279.483
138.555 78740 280.606
138.672 79073 281.199
138.788 78502 280.182
138.905 77884 279.077
139.022 77691 278.731
139.139 78216 279.671
139.255 76970 277.435
139.372 76353 276.32
139.488 76300 276.225
139.605 76602 276.771
139.721 76777 277.087
139.838 78031 279.34
139.954 78072 279.414
140.071 76231 276.1
140.187 78067 279.405
140.303 76904 277.316
140.419 75725 275.182
140.535 71018 266.492
140.652 64415 253.801
140.768 0 1
140.884 0 1
141 0 1
141.115 0 1
141.231 0 1
141.347 0 1
141.463 0 1
141.578 0 1
141.694 0 1
144.104 0 1
144.219 0 1
144.335 0 1
144.45 0 1
144.566 0 1
144.682 0 1
144.798 0 1
144.914 0 1
145.03 0 1
145.146 54667 233.81
145.262 60638 246.248
145.378 61423 247.837
145.494 61171 247.328
145.61 59066 243.035
145.726 55497 235.578
145.842 51959 227.945
145.959 48710 220.703
146.075 46552 215.759
146.192 44813 211.691
146.308 45578 213.49
146.425 48101 219.319
146.541 52394 228.897
146.658 55261 235.077
146.774 58522 241.913
146.891 61391 247.772
147.008 63722 252.432
147.125 63960 252.903
147.241 66063 257.027
147.358 66841 258.536
147.475 67024 258.89
147.592 67072 258.983
147.709 66952 258.751
147.826 67097 259.031
147.943 66600 258.07
148.06 66479 257.835
148.177 66019 256.942
148.294 65046 255.041
148.411 65001 254.953
148.528 65112 255.171
148.645 65070 255.088
148.762 66110 257.119
148.88 66198 257.29
148.997 64993 254.937
149.114 67124 259.083
149.231 66146 257.189
149.349 63937 252.858
149.466 63448 251.889
149.583 59361 243.641
149.701 55609 235.816
149.818 52186 228.443
149.935 49557 222.614
150.053 48690 220.658
150.17 50638 225.029
150.287 54196 232.8
150.405 57078 238.91
150.522 60830 246.637
150.64 63615 252.22
150.757 66953 258.753
150.875 69718 264.042
150.992 70257 265.06
151.11 71461 267.322
151.227 71892 268.127
151.344 72060 268.44
151.462 71198 266.83
151.579 72582 269.41
151.697 71788 267.933
151.814 70851 266.179
151.932 69768 264.136
152.049 69583 263.786
152.167 69972 264.522
152.284 69450 263.534
152.402 69875 264.339
152.519 70878 266.229
152.636 70894 266.259
152.754 70546 265.605
152.871 70288 265.119
152.989 69243 263.141
153.106 66020 256.944
153.223 62448 249.896
153.341 58228 241.305
153.458 55145 234.83
153.575 52555 229.249
153.693 52905 230.011
153.81 54664 233.803
153.927 57358 239.495
154.044 60832 246.641
154.162 64057 253.095
154.279 67528 259.862
154.396 70208 264.968
154.513 72867 269.939
154.63 73665 271.413
154.747 75297 274.403
154.864 75332 274.467
154.981 76183 276.013
155.098 74779 273.457
155.215 75139 274.115
155.332 74489 272.927
155.449 73461 271.037
155.566 72098 268.511
155.683 71957 268.248
155.8 73110 270.389
155.917 73225 270.601
156.033 73237 270.623
156.15 0 1
156.267 0 1
156.383 0 1
156.5 0 1
156.617 0 1
156.733 0 1
156.85 0 1
156.966 0 1
157.082 0 1
157.199 0 1
157.315 0 1
157.431 0 1
157.547 0 1
157.664 0 1
157.78 0 1
157.896 0 1
158.012 0 1
158.128 0 1
158.244 0 1
158.359 0 1
158.475 0 1
158.591 0 1
158.706 0 1
