
6.15755 0 1
6.2731 0 1
6.3887 0 1
6.50437 0 1
6.62009 0 1
6.73587 0 1
6.8517 0 1
6.96759 0 1
7.08353 0 1
7.19952 0 1
7.31557 0 1
7.43166 0 1
7.54781 0 1
7.664 0 1
7.78024 0 1
7.89653 0 1
8.01286 0 1
8.12924 0 1
8.24567 0 1
8.36213 0 1
8.47864 0 1
8.59519 0 1
8.71178 0 1
8.82841 0 1
8.94508 0 1
9.06179 0 1
9.17853 0 1
9.29531 0 1
9.41212 0 1
9.52897 0 1
9.64584 0 1
9.76276 0 1
9.8797 0 1
9.99667 0 1
10.1137 0 1
10.2307 0 1
10.3478 0 1
10.4648 0 1
10.5819 0 1
10.6991 0 1
10.8162 0 1
10.9334 0 1
11.0506 0 1
11.1678 0 1
11.285 0 1
11.4023 0 1
11.5196 0 1
11.6369 0 1
11.7542 0 1
11.8715 0 1
11.9888 0 1
12.1062 0 1
12.2235 0 1
12.3409 0 1
12.4582 0 1
12.5756 0 1
12.693 0 1
12.8104 0 1
12.9278 0 1
13.0452 0 1
13.1626 0 1
13.28 0 1
13.3974 0 1
13.5149 0 1
13.6323 0 1
13.7497 0 1
13.8671 0 1
13.9845 0 1
14.1019 0 1
14.2193 0 1
14.3367 0 1
14.4541 0 1
14.5714 0 1
14.6888 0 1
14.8062 0 1
14.9235 0 1
15.0408 0 0
15.1581 0 0
15.2755 0 0
15.3927 0 0
15.51 0 0
15.6273 0 0
15.7445 0 0
15.8617 0 0
15.9789 0 0
16.0961 0 0
16.2132 0 0
16.3304 0 0
16.4475 0 0
16.5646 0 0
16.6816 0 0
16.7986 0 0
16.9156 0 0
17.0326 0 0
17.1496 0 0
17.2665 0 0
17.3833 0 0
17.5002 0 0
17.617 0 0
17.7338 0 0
17.8505 0 0
17.9672 0 0
18.0839 0 0
18.2005 0 0
18.3171 0 0
18.4337 0 0
18.5502 0 0
18.6666 0 0
18.7831 0 0
18.8994 0 0
19.0158 0 0
19.1321 0 0
19.2483 0 0
19.3645 0 0
19.4806 0 0
19.5967 0 0
19.7128 0 0
19.8288 0 0
19.9447 0 0
20.0606 0 1
20.1764 0 1
20.2922 0 1
20.4079 0 1
20.5236 0 1
20.6392 0 1
20.7548 0 1
20.8702 0 1
23.3078 0 1
23.4233 0 1
23.539 0 1
23.6547 0 1
23.7704 0 1
23.8862 0 1
24.0021 0 1
24.118 0 1
24.234 0 1
24.35 0 1
24.4661 1369 37
24.5822 1355 36.8103
24.6984 1485 38.5357
24.8146 1745 41.7732
24.9309 1941 44.0568
25.0472 2321 48.1768
25.1636 2465 49.6488
25.28 2579 50.7839
25.3965 2676 51.7301
25.513 2596 50.951
25.6296 2722 52.1728
25.7462 2739 52.3355
25.8628 2710 52.0577
25.9795 2665 51.6236
26.0962 2686 51.8266
26.213 2717 52.1249
26.3298 2744 52.3832
26.4466 2778 52.7067
26.5635 2698 51.9423
26.6804 2801 52.9245
26.7973 2640 51.3809
26.9143 2583 50.8232
27.0313 2528 50.2792
27.1483 2514 50.1398
27.2653 2494 49.94
27.3824 2448 49.4773
27.4996 2344 48.4149
27.6167 2261 47.55
27.7339 2187 46.7654
27.8511 2269 47.634
27.9683 2435 49.3457
28.0855 2517 50.1697
28.2028 2516 50.1597
28.3201 2593 50.9215
28.4374 2558 50.5767
28.5547 2583 50.8232
28.6721 2493 49.93
28.7894 2607 51.0588
28.9068 2456 49.558
29.0242 2491 49.9099
29.1416 2536 50.3587
29.259 2575 50.7445
29.3764 2531 50.309
29.4939 2486 49.8598
29.6113 2458 49.5782
29.7288 2427 49.2646
29.8463 2346 48.4355
29.9638 2402 49.0102
30.0812 2396 48.949
30.1987 2334 48.3115
30.3162 2524 50.2394
30.4337 2407 49.0612
30.5512 2528 50.2792
30.6687 2481 49.8096
30.7862 2434 49.3356
30.9037 2349 48.4665
31.0212 2291 47.8644
31.1387 2317 48.1352
31.2562 2361 48.5901
31.3737 2414 49.1325
31.4912 2593 50.9215
31.6087 2656 51.5364
31.7262 2608 51.0686
31.8436 2533 50.3289
31.9611 2540 50.3984
32.0785 2554 50.5371
32.1959 2528 50.2792
32.3134 2474 49.7393
32.4308 2316 48.1248
32.5482 2322 48.1871
32.6655 2334 48.3115
32.7829 2343 48.4045
32.9002 2300 47.9583
33.0176 2206 46.9681
33.1349 2136 46.2169
33.2522 2207 46.9787
33.3694 2213 47.0425
33.4867 2182 46.7119
33.6039 2201 46.9148
33.7211 2280 47.7493
33.8383 2332 48.2908
33.9554 2376 48.7442
34.0725 2392 48.9081
34.1896 2342 48.3942
34.3067 2364 48.621
34.4237 2451 49.5076
34.5407 2298 47.9375
34.6577 2320 48.1664
34.7746 2206 46.9681
34.8915 2295 47.9062
35.0084 2341 48.3839
35.1252 2457 49.5681
35.242 2561 50.6063
35.3587 2566 50.6557
35.4755 2467 49.6689
35.5921 2459 49.5883
35.7088 2475 49.7494
35.8254 2257 47.5079
35.9419 2181 46.7012
36.0584 2130 46.1519
36.1749 2192 46.8188
36.2913 2083 45.6399
36.4077 2001 44.7325
36.524 1963 44.3058
36.6403 1762 41.9762
36.7565 1534 39.1663
36.8727 1485 38.5357
36.9889 1480 38.4708
37.1049 1456 38.1576
37.221 0 1
37.3369 0 1
37.4529 0 1
37.5687 0 1
37.6845 0 1
37.8003 0 1
37.916 0 1
38.0316 0 1
38.1472 0 1
40.5851 0 1
40.7008 0 1
40.8164 0 1
40.9322 0 1
41.048 0 1
41.1639 0 1
41.2798 0 1
41.3958 0 1
41.5118 0 1
41.6279 0 1
41.744 1874 43.2897
41.8602 2514 50.1398
41.9765 3137 56.0089
42.0928 3353 57.9051
42.2091 3335 57.7495
42.3255 3221 56.7539
42.4419 3449 58.7282
42.5584 3411 58.4038
42.675 3428 58.5491
42.7915 3455 58.7792
42.9081 3668 60.564
43.0248 3654 60.4483
43.1415 3683 60.6877
43.2582 3450 58.7367
43.375 3267 57.1577
43.4918 3216 56.7098
43.6087 3296 57.4108
43.7256 3295 57.4021
43.8425 3381 58.1464
43.9595 3494 59.1101
44.0765 3355 57.9224
44.1935 3371 58.0603
44.3106 3214 56.6922
44.4277 3056 55.2811
44.5448 2825 53.1507
44.6619 2812 53.0283
44.7791 2739 52.3355
44.8963 2560 50.5964
45.0136 2547 50.4678
45.1308 2459 49.5883
45.2481 2266 47.6025
45.3654 2145 46.3141
45.4827 2064 45.4313
45.6001 1946 44.1135
45.7174 1977 44.4635
45.8348 1948 44.1362
45.9522 1939 44.0341
46.0697 2050 45.2769
46.1871 1981 44.5084
46.3046 1988 44.587
46.422 2114 45.9783
46.5395 2201 46.9148
46.657 2085 45.6618
46.7745 2043 45.1996
46.892 1995 44.6654
47.0096 1860 43.1277
47.1271 2010 44.833
47.2446 1976 44.4522
47.3622 2097 45.793
47.4797 2094 45.7602
47.5973 2084 45.6508
47.7149 2156 46.4327
47.8324 2091 45.7275
47.95 2055 45.3321
48.0675 2021 44.9555
48.1851 2021 44.9555
48.3027 1989 44.5982
48.4202 1968 44.3621
48.5378 1944 44.0908
48.6554 1893 43.5086
48.7729 1889 43.4626
48.8904 1838 42.8719
49.008 1794 42.3556
49.1255 1818 42.638
49.243 1820 42.6615
49.3605 1777 42.1545
49.478 1984 44.5421
49.5955 1918 43.795
49.713 1894 43.5201
49.8304 2055 45.3321
49.9479 1912 43.7264
50.0653 2086 45.6727
50.1827 1952 44.1814
50.3001 1866 43.1972
50.4175 1604 40.05
50.5348 1575 39.6863
50.6521 1695 41.1704
50.7694 1844 42.9418
50.8867 1961 44.2832
51.004 2147 46.3357
51.1212 2007 44.7996
51.2384 2083 45.6399
51.3556 2154 46.4112
51.4727 2016 44.8999
51.5899 2073 45.5302
51.707 1949 44.1475
51.824 1869 43.2319
51.9411 1956 44.2267
52.0581 1944 44.0908
52.175 1997 44.6878
52.2919 1819 42.6497
52.4088 1895 43.5316
52.5257 1790 42.3084
52.6425 1776 42.1426
52.7593 1805 42.4853
52.876 1771 42.0833
52.9927 1850 43.0116
53.1094 1835 42.8369
53.226 1870 43.2435
53.3426 1809 42.5323
53.4591 1787 42.2729
53.5756 1619 40.2368
53.692 1419 37.6696
53.8084 1285 35.8469
53.9248 1138 33.7343
54.0411 1001 31.6386
54.1573 1035 32.1714
54.2735 0 1
54.3896 0 1
54.5057 0 1
54.6217 0 1
54.7377 0 1
54.8537 0 1
54.9695 0 1
55.0853 0 1
55.2011 0 1
55.3168 0 1
55.4324 0 1
57.824 0 1
57.9396 0 1
58.0553 0 1
58.1711 0 1
58.2869 0 1
58.4028 0 1
58.5187 0 1
58.6347 0 1
58.7508 0 1
58.8669 0 1
58.983 1620 40.2492
59.0992 1698 41.2068
59.2155 1601 40.0125
59.3318 1866 43.1972
59.4482 2076 45.5631
59.5646 2152 46.3897
59.681 2423 49.224
59.7975 2344 48.4149
59.9141 2379 48.775
60.0306 2378 48.7647
60.1473 2359 48.5695
60.2639 2345 48.4252
60.3807 2418 49.1732
60.4974 2391 48.8979
60.6142 2449 49.4874
60.731 2297 47.927
60.8479 2410 49.0918
60.9648 2424 49.2341
61.0818 2400 48.9898
61.1987 2411 49.1019
61.3158 2406 49.051
61.4328 2308 48.0416
61.5499 2205 46.9574
61.667 2390 48.8876
61.7841 2390 48.8876
61.9013 2291 47.8644
62.0185 2394 48.9285
62.1357 2343 48.4045
62.253 2345 48.4252
62.3702 2338 48.3529
62.4875 2180 46.6905
62.6049 2078 45.5851
62.7222 2034 45.0999
62.8396 2239 47.3181
62.9569 2393 48.9183
63.0743 2477 49.7695
63.1918 2600 50.9902
63.3092 2471 49.7092
63.4267 2539 50.3885
63.5441 2479 49.7896
63.6616 2409 49.0816
63.7791 2442 49.4166
63.8966 2488 49.8799
64.0142 2405 49.0408
64.1317 2470 49.6991
64.2492 2361 48.5901
64.3668 2494 49.94
64.4843 2401 49
64.6019 2349 48.4665
64.7195 2350 48.4768
64.837 2256 47.4974
64.9546 2351 48.4871
65.0722 2235 47.2758
65.1898 2186 46.7547
65.3074 2296 47.9166
65.4249 2206 46.9681
65.5425 2457 49.5681
65.6601 2335 48.3218
65.7777 2399 48.9796
65.8952 2308 48.0416
66.0128 2181 46.7012
66.1304 2012 44.8553
66.2479 1937 44.0114
66.3655 1976 44.4522
66.483 2265 47.592
66.6005 2297 47.927
66.718 2396 48.949
66.8355 2518 50.1797
66.953 2529 50.2892
67.0705 2454 49.5379
67.1879 2456 49.558
67.3054 2381 48.7955
67.4228 2483 49.8297
67.5402 2378 48.7647
67.6576 2383 48.816
67.7749 2297 47.927
67.8923 2371 48.6929
68.0096 2300 47.9583
68.1269 2322 48.1871
68.2442 2340 48.3735
68.3614 2251 47.4447
68.4787 2204 46.9468
68.5958 2153 46.4004
68.713 2222 47.1381
68.8302 2156 46.4327
68.9473 2150 46.3681
69.0643 2161 46.4866
69.1814 2223 47.1487
69.2984 2268 47.6235
69.4154 2222 47.1381
69.5323 2248 47.4131
69.6492 2178 46.669
69.7661 1890 43.4741
69.8829 1747 41.7971
69.9997 1878 43.3359
70.1165 1971 44.3959
70.2332 2006 44.7884
70.3499 1941 44.0568
70.4665 1767 42.0357
70.5831 1643 40.5339
70.6996 1594 39.9249
70.8161 1529 39.1024
70.9326 1452 38.1051
71.049 1392 37.3095
71.1653 1333 36.5103
71.2817 1237 35.171
71.3979 1203 34.6843
71.5141 1203 34.6843
71.6303 1185 34.4238
71.7464 1025 32.0156
71.8624 0 1
71.9784 0 1
72.0944 0 1
72.2102 0 1
72.3261 0 1
72.4418 0 1
72.5575 0 1
72.6732 0 1
75.1054 0 1
75.2209 0 1
75.3365 0 1
75.4521 0 1
75.5678 0 1
75.6835 0 1
75.7993 0 1
75.9151 0 1
76.031 0 1
76.147 1749 41.821
76.263 2106 45.8912
76.3791 2043 45.1996
76.4952 2017 44.911
76.6113 2110 45.9347
76.7276 2153 46.4004
76.8438 2155 46.422
76.9601 2232 47.244
77.0765 2214 47.0532
77.1929 2267 47.613
77.3093 2185 46.744
77.4258 2264 47.5815
77.5423 2178 46.669
77.6589 2135 46.2061
77.7755 2117 46.0109
77.8921 2078 45.5851
78.0088 2176 46.6476
78.1256 2088 45.6946
78.2423 2135 46.2061
78.3591 2199 46.8935
78.4759 2277 47.7179
78.5928 2135 46.2061
78.7097 1893 43.5086
78.8266 1738 41.6893
78.9436 1496 38.6782
79.0606 1601 40.0125
79.1776 1904 43.6348
79.2946 2072 45.5192
79.4117 2261 47.55
79.5288 2231 47.2335
79.6459 2230 47.2229
79.7631 2238 47.3075
79.8802 2162 46.4973
79.9974 2254 47.4763
80.1147 2255 47.4868
80.2319 2144 46.3033
80.3491 2213 47.0425
80.4664 2285 47.8017
80.5837 2482 49.8197
80.701 2349 48.4665
80.8183 2343 48.4045
80.9357 2344 48.4149
81.053 2316 48.1248
81.1704 2316 48.1248
81.2877 2249 47.4236
81.4051 2326 48.2286
81.5225 2308 48.0416
81.6399 2225 47.1699
81.7573 2402 49.0102
81.8747 2349 48.4665
81.9922 2555 50.547
82.1096 2553 50.5272
82.227 2602 51.0098
82.3444 2468 49.679
82.4619 2180 46.6905
82.5793 2074 45.5412
82.6967 2179 46.6798
82.8142 2687 51.8363
82.9316 3020 54.9545
83.049 3405 58.3524
83.1664 3752 61.2536
83.2838 3723 61.0164
83.4012 3798 61.6279
83.5186 3963 62.9524
83.636 4027 63.4586
83.7534 4098 64.0156
83.8708 4127 64.2417
83.9881 4100 64.0312
84.1055 4306 65.6201
84.2228 4200 64.8074
84.3401 4366 66.0757
84.4575 4360 66.0303
84.5747 4241 65.123
84.692 4255 65.2304
84.8093 4280 65.4217
84.9265 4322 65.7419
85.0437 4251 65.1997
85.1609 3999 63.2376
85.2781 4089 63.9453
85.3952 4207 64.8614
85.5123 4114 64.1405
85.6294 4193 64.7534
85.7465 4033 63.5059
85.8636 3815 61.7657
85.9806 3190 56.4801
86.0976 2601 51
86.2145 2681 51.7784
86.3315 3033 55.0727
86.4484 3929 62.6817
86.5652 4067 63.773
86.682 4112 64.1249
86.7988 4001 63.2535
86.9156 4176 64.622
87.0323 4211 64.8922
87.149 3984 63.1189
87.2657 4061 63.726
87.3823 4240 65.1153
87.4988 3861 62.1369
87.6154 3566 59.716
87.7318 3329 57.6975
87.8483 3172 56.3205
87.9647 3040 55.1362
88.081 2799 52.9056
88.1973 2811 53.0189
88.3136 2747 52.4118
88.4298 2599 50.9804
88.546 2464 49.6387
88.6621 2434 49.3356
88.7781 2350 48.4768
88.8942 0 1
89.0101 0 1
89.126 0 1
89.2419 0 1
89.3577 0 1
89.4734 0 1
89.5891 0 1
89.7047 0 1
89.8203 0 1
89.9358 0 1
92.3269 0 1
92.4424 0 1
92.558 0 1
92.6736 0 1
92.7893 0 1
92.905 0 1
93.0208 0 1
93.1366 0 1
93.2525 0 1
93.3685 0 1
93.4845 0 1
93.6005 4436 66.6033
93.7167 4458 66.7683
93.8328 4389 66.2495
93.949 4122 64.2028
94.0653 4362 66.0454
94.1816 4402 66.3476
94.2979 4259 65.261
94.4143 4407 66.3852
94.5307 4244 65.146
94.6472 4213 64.9076
94.7637 3901 62.458
94.8803 3572 59.7662
94.9969 3281 57.28
95.1135 2976 54.5527
95.2302 3093 55.6147
95.3469 3661 60.5062
95.4637 4138 64.3273
95.5805 4210 64.8845
95.6973 4339 65.8711
95.8142 4337 65.8559
95.9311 4371 66.1135
96.048 4415 66.4455
96.1649 4487 66.9851
96.2819 4403 66.3551
96.3989 4539 67.3721
96.516 4492 67.0224
96.633 4517 67.2086
96.7501 4464 66.8132
96.8673 4552 67.4685
96.9844 4562 67.5426
97.1016 4570 67.6018
97.2188 4576 67.6461
97.336 4425 66.5207
97.4532 4324 65.7571
97.5704 4425 66.5207
97.6877 4452 66.7233
97.805 4469 66.8506
97.9223 4352 65.9697
98.0396 4410 66.4078
98.1569 4272 65.3605
98.2743 4235 65.0769
98.3916 3777 61.4573
98.509 3131 55.9553
98.6264 2891 53.768
98.7438 2892 53.7773
98.8612 3246 56.9737
98.9786 3449 58.7282
99.096 3480 58.9915
99.2134 3642 60.349
99.3308 3455 58.7792
99.4482 3316 57.5847
99.5656 3197 56.542
99.6831 3096 55.6417
99.8005 3066 55.3715
99.9179 3168 56.285
100.035 3000 54.7723
100.153 2954 54.3507
100.27 3003 54.7996
100.388 2925 54.0833
100.505 3039 55.1271
100.622 3032 55.0636
100.74 3033 55.0727
100.857 2973 54.5252
100.975 2866 53.535
101.092 2974 54.5344
101.209 2988 54.6626
101.327 2876 53.6284
101.444 2929 54.1202
101.561 3072 55.4256
101.679 2974 54.5344
101.796 2839 53.2823
101.913 2827 53.1695
102.03 2579 50.7839
102.148 2390 48.8876
102.265 2065 45.4423
102.382 2430 49.295
102.499 2529 50.2892
102.616 2840 53.2917
102.733 2766 52.5928
102.851 2819 53.0943
102.968 2710 52.0577
103.085 2675 51.7204
103.202 2702 51.9808
103.319 2684 51.8073
103.436 2711 52.0673
103.552 2735 52.2972
103.669 2596 50.951
103.786 2688 51.8459
103.903 2607 51.0588
104.02 2741 52.3546
104.137 2707 52.0288
104.253 2935 54.1756
104.37 2738 52.3259
104.487 2647 51.449
104.603 2612 51.1077
104.72 2600 50.9902
104.836 2337 48.3425
104.953 2129 46.1411
105.069 1903 43.6234
105.186 1727 41.5572
105.302 1625 40.3113
105.418 1478 38.4448
105.535 1387 37.2424
105.651 1224 34.9857
105.767 979 31.289
105.883 890 29.8329
105.999 805 28.3725
106.115 0 1
106.231 0 1
106.347 0 1
106.463 0 1
106.579 0 1
106.694 0 1
106.81 0 1
106.926 0 1
107.041 0 1
107.157 0 1
109.576 0 1
109.692 0 1
109.807 0 1
109.923 0 1
110.039 0 1
110.155 0 1
110.27 0 1
110.386 0 1
110.502 0 1
110.618 2628 51.264
110.735 2807 52.9811
110.851 2685 51.817
110.967 2386 48.8467
111.083 2301 47.9687
111.199 2551 50.5074
111.316 2848 53.3667
111.432 2930 54.1295
111.549 3049 55.2178
111.665 2932 54.1479
111.782 3060 55.3173
111.898 2936 54.1849
112.015 2974 54.5344
112.132 2828 53.1789
112.248 2969 54.4885
112.365 2901 53.8609
112.482 2837 53.2635
112.599 3027 55.0182
112.716 3015 54.909
112.832 3217 56.7186
112.949 3290 57.3585
113.066 3310 57.5326
113.183 3349 57.8705
113.3 3236 56.8859
113.417 3394 58.258
113.534 3272 57.2014
113.652 3297 57.4195
113.769 3334 57.7408
113.886 3312 57.55
114.003 3224 56.7803
114.12 3241 56.9298
114.238 3102 55.6956
114.355 2939 54.2125
114.472 2449 49.4874
114.589 2612 51.1077
114.707 2519 50.1896
114.824 2841 53.301
114.942 2949 54.3047
115.059 3127 55.9196
115.176 3102 55.6956
115.294 3075 55.4527
115.411 3108 55.7494
115.529 3071 55.4166
115.646 3118 55.8391
115.764 2984 54.626
115.881 2914 53.9815
115.999 3001 54.7814
116.116 3104 55.7136
116.234 3065 55.3624
116.351 3179 56.3826
116.469 3306 57.4978
116.586 3385 58.1808
116.704 3356 57.931
116.821 3381 58.1464
116.939 3335 57.7495
117.056 3346 57.8446
117.174 3352 57.8965
117.291 3404 58.3438
117.409 3105 55.7225
117.526 3179 56.3826
117.644 3295 57.4021
117.761 3324 57.6541
117.879 3119 55.848
117.996 2817 53.0754
118.114 2592 50.9117
118.231 2622 51.2055
118.349 2676 51.7301
118.466 2979 54.5802
118.584 3081 55.5068
118.701 2991 54.69
118.819 3064 55.3534
118.936 3049 55.2178
119.053 2990 54.6809
119.171 2912 53.963
119.288 2925 54.0833
119.405 2977 54.5619
119.523 2985 54.6352
119.64 2998 54.754
119.757 2919 54.0278
119.875 3018 54.9363
119.992 3069 55.3986
120.109 3033 55.0727
120.226 3138 56.0179
120.343 3193 56.5066
120.46 3218 56.7274
120.578 3079 55.4887
120.695 3112 55.7853
120.812 3112 55.7853
120.929 3087 55.5608
121.046 3039 55.1271
121.163 3064 55.3534
121.279 3033 55.0727
121.396 3047 55.1996
121.513 2854 53.4228
121.63 2639 51.3712
121.747 2459 49.5883
121.863 2138 46.2385
121.98 2081 45.618
122.097 2155 46.422
122.213 2135 46.2061
122.33 2276 47.7074
122.446 2115 45.9891
122.563 2121 46.0543
122.679 1937 44.0114
122.795 1836 42.8486
122.912 1888 43.4511
123.028 1802 42.45
123.144 1809 42.5323
123.26 1773 42.107
123.377 0 1
123.493 0 1
123.609 0 1
123.725 0 1
123.84 0 1
123.956 0 1
124.072 0 1
124.188 0 1
124.303 0 1
124.419 0 1
126.852 0 1
126.968 0 1
127.083 0 1
127.199 0 1
127.315 0 1
127.431 0 1
127.547 0 1
127.663 0 1
127.779 0 1
127.895 0 1
128.011 0 1
128.127 0 1
128.243 0 1
128.359 3435 58.6089
128.476 3415 58.438
128.592 3568 59.7327
128.708 3517 59.3043
128.825 3412 58.4123
128.941 3628 60.2329
129.058 3535 59.4559
129.174 3650 60.4152
129.291 3716 60.959
129.408 3779 61.4736
129.524 3904 62.482
129.641 3947 62.8252
129.758 4097 64.0078
129.875 4141 64.3506
129.992 4183 64.6761
130.108 4134 64.2962
130.225 4122 64.2028
130.342 4117 64.1639
130.459 3985 63.1269
130.576 4018 63.3877
130.693 3847 62.0242
130.81 3750 61.2372
130.928 3651 60.4235
131.045 3761 61.327
131.162 3887 62.3458
131.279 3955 62.8888
131.396 4038 63.5453
131.513 4081 63.8827
131.631 4046 63.6082
131.748 4089 63.9453
131.865 3889 62.3618
131.983 3888 62.3538
132.1 4029 63.4744
132.217 3992 63.1823
132.335 3864 62.1611
132.452 3899 62.442
132.57 3838 61.9516
132.687 3688 60.7289
132.804 4194 64.7611
132.922 3935 62.7296
133.039 3989 63.1585
133.157 4123 64.2106
133.274 3992 63.1823
133.392 4059 63.7103
133.509 4258 65.2534
133.627 4386 66.2269
133.744 4380 66.1816
133.862 4403 66.3551
133.979 4427 66.5357
134.097 4285 65.4599
134.214 4295 65.5362
134.332 4005 63.2851
134.449 4052 63.6553
134.567 4025 63.4429
134.684 4208 64.8691
134.802 4202 64.8228
134.919 4261 65.2763
135.037 4531 67.3127
135.154 4217 64.9384
135.272 4273 65.3682
135.389 4223 64.9846
135.507 4240 65.1153
135.624 4190 64.7302
135.742 4148 64.405
135.859 4051 63.6475
135.977 3966 62.9762
136.094 4121 64.195
136.211 4114 64.1405
136.329 4165 64.5368
136.446 4099 64.0234
136.564 4087 63.9296
136.681 4129 64.2573
136.798 4174 64.6065
136.915 4117 64.1639
137.033 4287 65.4752
137.15 4340 65.8787
137.267 4312 65.6658
137.384 4256 65.238
137.502 4316 65.6963
137.619 4208 64.8691
137.736 4141 64.3506
137.853 3977 63.0635
137.97 4030 63.4823
138.087 3663 60.5227
138.204 3984 63.1189
138.321 4104 64.0625
138.438 4013 63.3482
138.555 4144 64.3739
138.672 4099 64.0234
138.788 4004 63.2772
138.905 3958 62.9126
139.022 3909 62.522
139.139 3762 61.3351
139.255 3537 59.4727
139.372 3410 58.3952
139.488 3233 56.8595
139.605 3095 55.6327
139.721 2993 54.7083
139.838 2973 54.5252
139.954 2947 54.2863
140.071 2845 53.3385
140.187 2805 52.9623
140.303 2897 53.8238
140.419 2846 53.3479
140.535 2982 54.6077
140.652 3032 55.0636
140.768 0 1
140.884 0 1
141 0 1
141.115 0 1
141.231 0 1
141.347 0 1
141.463 0 1
141.578 0 1
141.694 0 1
144.104 0 1
144.219 0 1
144.335 0 1
144.45 0 1
144.566 0 1
144.682 0 1
144.798 0 1
144.914 0 1
145.03 0 1
145.146 8614 92.8116
145.262 8618 92.8332
145.378 8789 93.7497
145.494 8954 94.6256
145.61 8893 94.3027
145.726 8959 94.652
145.842 9014 94.9421
145.959 9022 94.9842
146.075 8847 94.0585
146.192 8958 94.6467
146.308 8841 94.0266
146.425 8787 93.739
146.541 8076 89.8666
146.658 6831 82.6499
146.774 5865 76.5833
146.891 5658 75.2197
147.008 6467 80.4177
147.125 7619 87.2869
147.241 8472 92.0435
147.358 8481 92.0923
147.475 8660 93.0591
147.592 8789 93.7497
147.709 8754 93.5628
147.826 8872 94.1913
147.943 8892 94.2974
148.06 8857 94.1116
148.177 8907 94.3769
148.294 8814 93.8829
148.411 8766 93.6269
148.528 9025 95
148.645 8996 94.8472
148.762 8922 94.4563
148.88 9077 95.2733
148.997 8695 93.247
149.114 9330 96.5919
149.231 9003 94.8841
149.349 9126 95.5301
149.466 9046 95.1105
149.583 9173 95.7758
149.701 9202 95.9271
149.818 9113 95.462
149.935 9254 96.1977
150.053 9229 96.0677
150.17 8680 93.1665
150.287 7873 88.7299
150.405 6663 81.6272
150.522 5907 76.857
150.64 6357 79.7308
150.757 7695 87.7211
150.875 8434 91.8368
150.992 8843 94.0372
151.11 8969 94.7048
151.227 8845 94.0479
151.344 8651 93.0108
151.462 8769 93.6429
151.579 8795 93.7817
151.697 8924 94.4669
151.814 9110 95.4463
151.932 9075 95.2628
152.049 8869 94.1754
152.167 9028 95.0158
152.284 9061 95.1893
152.402 9070 95.2365
152.519 9070 95.2365
152.636 9091 95.3467
152.754 9149 95.6504
152.871 9010 94.921
152.989 9149 95.6504
153.106 9506 97.4987
153.223 9346 96.6747
153.341 9464 97.2831
153.458 9377 96.8349
153.575 9353 96.7109
153.693 9369 96.7936
153.81 8989 94.8103
153.927 8129 90.161
154.044 6786 82.3772
154.162 6502 80.635
154.279 6838 82.6922
154.396 8110 90.0555
154.513 8824 93.9361
154.63 9140 95.6033
154.747 9267 96.2653
154.864 9071 95.2418
154.981 9038 95.0684
155.098 8888 94.2762
155.215 9010 94.921
155.332 8460 91.9783
155.449 8476 92.0652
155.566 8389 91.5915
155.683 8040 89.666
155.8 8120 90.111
155.917 7856 88.6341
156.033 7777 88.1873
156.15 0 1
156.267 0 1
156.383 0 1
156.5 0 1
156.617 0 1
156.733 0 1
156.85 0 1
156.966 0 1
157.082 0 1
157.199 0 1
157.315 0 1
157.431 0 1
157.547 0 1
157.664 0 1
157.78 0 1
157.896 0 1
158.012 0 1
158.128 0 1
158.244 0 1
158.359 0 1
158.475 0 1
158.591 0 1
158.706 0 1
