
6.15755 0 1
6.2731 0 1
6.3887 0 1
6.50437 0 1
6.62009 0 1
6.73587 0 1
6.8517 0 1
6.96759 0 1
7.08353 0 1
7.19952 0 1
7.31557 0 1
7.43166 0 1
7.54781 0 1
7.664 0 1
7.78024 0 1
7.89653 0 1
8.01286 0 1
8.12924 0 1
8.24567 0 1
8.36213 0 1
8.47864 0 1
8.59519 0 1
8.71178 0 1
8.82841 0 1
8.94508 0 1
9.06179 0 1
9.17853 0 1
9.29531 0 1
9.41212 0 1
9.52897 0 1
9.64584 0 1
9.76276 0 1
9.8797 0 1
9.99667 0 1
10.1137 0 1
10.2307 0 1
10.3478 0 1
10.4648 0 1
10.5819 0 1
10.6991 0 1
10.8162 0 1
10.9334 0 1
11.0506 0 1
11.1678 0 1
11.285 0 1
11.4023 0 1
11.5196 0 1
11.6369 0 1
11.7542 0 1
11.8715 0 1
11.9888 0 1
12.1062 0 1
12.2235 0 1
12.3409 0 1
12.4582 0 1
12.5756 0 1
12.693 0 1
12.8104 0 1
12.9278 0 1
13.0452 0 1
13.1626 0 1
13.28 0 1
13.3974 0 1
13.5149 0 1
13.6323 0 1
13.7497 0 1
13.8671 0 1
13.9845 0 1
14.1019 0 1
14.2193 0 1
14.3367 0 1
14.4541 0 1
14.5714 0 1
14.6888 0 1
14.8062 0 1
14.9235 0 1
15.0408 1191 34.5109
15.1581 1264 35.5528
15.2755 1413 37.5899
15.3927 1427 37.7757
15.51 1431 37.8286
15.6273 1410 37.55
15.7445 1356 36.8239
15.8617 1415 37.6165
15.9789 1431 37.8286
16.0961 1418 37.6563
16.2132 1344 36.6606
16.3304 1350 36.7423
16.4475 1449 38.0657
16.5646 1525 39.0512
16.6816 1618 40.2244
16.7986 1655 40.6817
16.9156 1712 41.3763
17.0326 1639 40.4846
17.1496 1687 41.0731
17.2665 1642 40.5216
17.3833 1697 41.1947
17.5002 1543 39.281
17.617 1590 39.8748
17.7338 1514 38.9102
17.8505 1411 37.5633
17.9672 1374 37.0675
18.0839 1436 37.8946
18.2005 1589 39.8623
18.3171 1521 39
18.4337 1585 39.8121
18.5502 1621 40.2616
18.6666 1605 40.0625
18.7831 1652 40.6448
18.8994 1692 41.1339
19.0158 1654 40.6694
19.1321 1614 40.1746
19.2483 1473 38.3797
19.3645 1505 38.7943
19.4806 1353 36.7831
19.5967 1280 35.7771
19.7128 1189 34.4819
19.8288 1111 33.3317
19.9447 974 31.209
20.0606 0 1
20.1764 0 1
20.2922 0 1
20.4079 0 1
20.5236 0 1
20.6392 0 1
20.7548 0 1
20.8702 0 1
23.3078 0 1
23.4233 0 1
23.539 0 1
23.6547 0 1
23.7704 0 1
23.8862 0 1
24.0021 0 1
24.118 0 1
24.234 0 1
24.35 0 1
24.4661 670 25.8844
24.5822 807 28.4077
24.6984 924 30.3974
24.8146 1003 31.6702
24.9309 1116 33.4066
25.0472 1239 35.1994
25.1636 1260 35.4965
25.28 1437 37.9078
25.3965 1541 39.2556
25.513 1612 40.1497
25.6296 1635 40.4351
25.7462 1727 41.5572
25.8628 1712 41.3763
25.9795 1825 42.72
26.0962 1857 43.0929
26.213 1636 40.4475
26.3298 1613 40.1622
26.4466 1644 40.5463
26.5635 1551 39.3827
26.6804 1573 39.6611
26.7973 1512 38.8844
26.9143 1587 39.8372
27.0313 1599 39.9875
27.1483 1673 40.9023
27.2653 1711 41.3642
27.3824 1687 41.0731
27.4996 1715 41.4126
27.6167 1676 40.939
27.7339 1650 40.6202
27.8511 1593 39.9124
27.9683 1553 39.4081
28.0855 1508 38.833
28.2028 1416 37.6298
28.3201 1475 38.4057
28.4374 1426 37.7624
28.5547 1407 37.51
28.6721 1484 38.5227
28.7894 1532 39.1408
28.9068 1623 40.2865
29.0242 1622 40.2741
29.1416 1697 41.1947
29.259 1740 41.7133
29.3764 1690 41.1096
29.4939 1738 41.6893
29.6113 1679 40.9756
29.7288 1553 39.4081
29.8463 1603 40.0375
29.9638 1479 38.4578
30.0812 1423 37.7227
30.1987 1450 38.0789
30.3162 1472 38.3667
30.4337 1522 39.0128
30.5512 1603 40.0375
30.6687 1511 38.8716
30.7862 1623 40.2865
30.9037 1616 40.1995
31.0212 1605 40.0625
31.1387 1676 40.939
31.2562 1570 39.6232
31.3737 1498 38.704
31.4912 1544 39.2938
31.6087 1585 39.8121
31.7262 1461 38.223
31.8436 1392 37.3095
31.9611 1315 36.2629
32.0785 1386 37.229
32.1959 1420 37.6829
32.3134 1476 38.4187
32.4308 1560 39.4968
32.5482 1628 40.3485
32.6655 1699 41.2189
32.7829 1715 41.4126
32.9002 1612 40.1497
33.0176 1651 40.6325
33.1349 1651 40.6325
33.2522 1655 40.6817
33.3694 1563 39.5348
33.4867 1497 38.6911
33.6039 1439 37.9342
33.7211 1369 37
33.8383 1318 36.3043
33.9554 1442 37.9737
34.0725 1431 37.8286
34.1896 1413 37.5899
34.3067 1475 38.4057
34.4237 1524 39.0384
34.5407 1585 39.8121
34.6577 1631 40.3856
34.7746 1542 39.2683
34.8915 1535 39.1791
35.0084 1487 38.5616
35.1252 1452 38.1051
35.242 1499 38.7169
35.3587 1488 38.5746
35.4755 1385 37.2156
35.5921 1282 35.805
35.7088 1359 36.8646
35.8254 1353 36.7831
35.9419 1377 37.108
36.0584 1361 36.8917
36.1749 1376 37.0945
36.2913 1442 37.9737
36.4077 1483 38.5097
36.524 1467 38.3014
36.6403 1411 37.5633
36.7565 1331 36.4829
36.8727 1279 35.7631
36.9889 1141 33.7787
37.1049 1109 33.3017
37.221 0 1
37.3369 0 1
37.4529 0 1
37.5687 0 1
37.6845 0 1
37.8003 0 1
37.916 0 1
38.0316 0 1
38.1472 0 1
40.5851 0 1
40.7008 0 1
40.8164 0 1
40.9322 0 1
41.048 0 1
41.1639 0 1
41.2798 0 1
41.3958 0 1
41.5118 0 1
41.6279 0 1
41.744 768 27.7128
41.8602 831 28.8271
41.9765 906 30.0998
42.0928 966 31.0805
42.2091 924 30.3974
42.3255 905 30.0832
42.4419 911 30.1828
42.5584 921 30.348
42.675 1041 32.2645
42.7915 1085 32.9393
42.9081 1196 34.5832
43.0248 1186 34.4384
43.1415 1244 35.2704
43.2582 1252 35.3836
43.375 1227 35.0286
43.4918 1315 36.2629
43.6087 1268 35.609
43.7256 1219 34.9142
43.8425 1261 35.5106
43.9595 1192 34.5254
44.0765 1188 34.4674
44.1935 1221 34.9428
44.3106 1096 33.1059
44.4277 1102 33.1964
44.5448 1043 32.2955
44.6619 1040 32.249
44.7791 1166 34.1467
44.8963 1207 34.7419
45.0136 1225 35
45.1308 1261 35.5106
45.2481 1275 35.7071
45.3654 1311 36.2077
45.4827 1400 37.4166
45.6001 1417 37.6431
45.7174 1234 35.1283
45.8348 1231 35.0856
45.9522 1166 34.1467
46.0697 1103 33.2114
46.1871 1042 32.28
46.3046 1044 32.311
46.422 1124 33.5261
46.5395 1195 34.5688
46.657 1259 35.4824
46.7745 1220 34.9285
46.892 1269 35.623
47.0096 1324 36.3868
47.1271 1268 35.609
47.2446 1333 36.5103
47.3622 1357 36.8375
47.4797 1301 36.0694
47.5973 1332 36.4966
47.7149 1255 35.426
47.8324 1194 34.5543
47.95 1103 33.2114
48.0675 1089 33
48.1851 1133 33.6601
48.3027 1164 34.1174
48.4202 1147 33.8674
48.5378 1318 36.3043
48.6554 1283 35.819
48.7729 1297 36.0139
48.8904 1353 36.7831
49.008 1315 36.2629
49.1255 1375 37.081
49.243 1240 35.2136
49.3605 1208 34.7563
49.478 1140 33.7639
49.5955 1072 32.7414
49.713 1045 32.3265
49.8304 1054 32.4654
49.9479 1119 33.4515
50.0653 1184 34.4093
50.1827 1230 35.0714
50.3001 1259 35.4824
50.4175 1341 36.6197
50.5348 1359 36.8646
50.6521 1402 37.4433
50.7694 1356 36.8239
50.8867 1369 37
51.004 1384 37.2022
51.1212 1376 37.0945
51.2384 1300 36.0555
51.3556 1331 36.4829
51.4727 1240 35.2136
51.5899 1257 35.4542
51.707 1188 34.4674
51.824 1300 36.0555
51.9411 1449 38.0657
52.0581 1431 37.8286
52.175 1646 40.5709
52.2919 1697 41.1947
52.4088 1723 41.509
52.5257 1862 43.1509
52.6425 1842 42.9185
52.7593 1868 43.2204
52.876 1715 41.4126
52.9927 1693 41.1461
53.1094 1558 39.4715
53.226 1647 40.5832
53.3426 1490 38.6005
53.4591 1540 39.2428
53.5756 1508 38.833
53.692 1641 40.5093
53.8084 1570 39.6232
53.9248 1518 38.9615
54.0411 1486 38.5487
54.1573 1424 37.7359
54.2735 0 1
54.3896 0 1
54.5057 0 1
54.6217 0 1
54.7377 0 1
54.8537 0 1
54.9695 0 1
55.0853 0 1
55.2011 0 1
55.3168 0 1
55.4324 0 1
57.824 0 1
57.9396 0 1
58.0553 0 1
58.1711 0 1
58.2869 0 1
58.4028 0 1
58.5187 0 1
58.6347 0 1
58.7508 0 1
58.8669 0 1
58.983 1036 32.187
59.0992 1240 35.2136
59.2155 1369 37
59.3318 1362 36.9053
59.4482 1528 39.0896
59.5646 1537 39.2046
59.681 1574 39.6737
59.7975 1620 40.2492
59.9141 1582 39.7744
60.0306 1519 38.9744
60.1473 1514 38.9102
60.2639 1373 37.054
60.3807 1399 37.4032
60.4974 1490 38.6005
60.6142 1484 38.5227
60.731 1611 40.1373
60.8479 1626 40.3237
60.9648 1657 40.7063
61.0818 1656 40.694
61.1987 1789 42.2966
61.3158 1620 40.2492
61.4328 1615 40.1871
61.5499 1608 40.0999
61.667 1428 37.7889
61.7841 1310 36.1939
61.9013 1285 35.8469
62.0185 1346 36.6879
62.1357 1398 37.3898
62.253 1472 38.3667
62.3702 1549 39.3573
62.4875 1605 40.0625
62.6049 1531 39.128
62.7222 1569 39.6106
62.8396 1583 39.7869
62.9569 1698 41.2068
63.0743 1707 41.3159
63.1918 1600 40
63.3092 1608 40.0999
63.4267 1614 40.1746
63.5441 1497 38.6911
63.6616 1469 38.3275
63.7791 1342 36.6333
63.8966 1328 36.4417
64.0142 1386 37.229
64.1317 1349 36.7287
64.2492 1457 38.1707
64.3668 1662 40.7676
64.4843 1588 39.8497
64.6019 1730 41.5933
64.7195 1619 40.2368
64.837 1633 40.4104
64.9546 1602 40.025
65.0722 1603 40.0375
65.1898 1461 38.223
65.3074 1342 36.6333
65.4249 1265 35.5668
65.5425 1283 35.819
65.6601 1250 35.3553
65.7777 1189 34.4819
65.8952 1386 37.229
66.0128 1553 39.4081
66.1304 1488 38.5746
66.2479 1506 38.8072
66.3655 1645 40.5586
66.483 1514 38.9102
66.6005 1636 40.4475
66.718 1668 40.8412
66.8355 1571 39.6358
66.953 1519 38.9744
67.0705 1511 38.8716
67.1879 1519 38.9744
67.3054 1395 37.3497
67.4228 1251 35.3695
67.5402 1280 35.7771
67.6576 1264 35.5528
67.7749 1342 36.6333
67.8923 1419 37.6696
68.0096 1493 38.6394
68.1269 1538 39.2173
68.2442 1511 38.8716
68.3614 1589 39.8623
68.4787 1603 40.0375
68.5958 1618 40.2244
68.713 1555 39.4335
68.8302 1481 38.4838
68.9473 1349 36.7287
69.0643 1247 35.3129
69.1814 1103 33.2114
69.2984 1161 34.0735
69.4154 1225 35
69.5323 1353 36.7831
69.6492 1410 37.55
69.7661 1555 39.4335
69.8829 1602 40.025
69.9997 1491 38.6135
70.1165 1451 38.092
70.2332 1394 37.3363
70.3499 1382 37.1753
70.4665 1301 36.0694
70.5831 1229 35.0571
70.6996 1204 34.6987
70.8161 1094 33.0757
70.9326 1007 31.7333
71.049 892 29.8664
71.1653 712 26.6833
71.2817 620 24.8998
71.3979 575 23.9792
71.5141 565 23.7697
71.6303 515 22.6936
71.7464 508 22.5389
71.8624 0 1
71.9784 0 1
72.0944 0 1
72.2102 0 1
72.3261 0 1
72.4418 0 1
72.5575 0 1
72.6732 0 1
75.1054 0 1
75.2209 0 1
75.3365 0 1
75.4521 0 1
75.5678 0 1
75.6835 0 1
75.7993 0 1
75.9151 0 1
76.031 0 1
76.147 911 30.1828
76.263 1021 31.9531
76.3791 1034 32.1559
76.4952 1016 31.8748
76.6113 966 31.0805
76.7276 1102 33.1964
76.8438 1206 34.7275
76.9601 1248 35.327
77.0765 1334 36.524
77.1929 1402 37.4433
77.3093 1410 37.55
77.4258 1356 36.8239
77.5423 1385 37.2156
77.6589 1341 36.6197
77.7755 1313 36.2353
77.8921 1155 33.9853
78.0088 1042 32.28
78.1256 994 31.5278
78.2423 1025 32.0156
78.3591 953 30.8707
78.4759 1139 33.7491
78.5928 1192 34.5254
78.7097 1279 35.7631
78.8266 1215 34.8569
78.9436 1307 36.1525
79.0606 1340 36.606
79.1776 1418 37.6563
79.2946 1359 36.8646
79.4117 1366 36.9594
79.5288 1364 36.9324
79.6459 1397 37.3765
79.7631 1409 37.5366
79.8802 1358 36.8511
79.9974 1195 34.5688
80.1147 1134 33.6749
80.2319 1071 32.7261
80.3491 1142 33.7935
80.4664 1161 34.0735
80.5837 1327 36.428
80.701 1400 37.4166
80.8183 1365 36.9459
80.9357 1446 38.0263
81.053 1401 37.4299
81.1704 1388 37.2559
81.2877 1446 38.0263
81.4051 1411 37.5633
81.5225 1286 35.8608
81.6399 1183 34.3948
81.7573 1034 32.1559
81.8747 1006 31.7175
81.9922 1015 31.8591
82.1096 1142 33.7935
82.227 1246 35.2987
82.3444 1265 35.5668
82.4619 1270 35.6371
82.5793 1391 37.2961
82.6967 1407 37.51
82.8142 1451 38.092
82.9316 1509 38.8458
83.049 1502 38.7556
83.1664 1364 36.9324
83.2838 1423 37.7227
83.4012 1455 38.1445
83.5186 1296 36
83.636 1282 35.805
83.7534 1244 35.2704
83.8708 1134 33.6749
83.9881 1076 32.8024
84.1055 1157 34.0147
84.2228 1175 34.2783
84.3401 1378 37.1214
84.4575 1381 37.1618
84.5747 1480 38.4708
84.692 1434 37.8682
84.8093 1515 38.923
84.9265 1461 38.223
85.0437 1349 36.7287
85.1609 1278 35.7491
85.2781 1103 33.2114
85.3952 1042 32.28
85.5123 1020 31.9374
85.6294 1056 32.4962
85.7465 1132 33.6452
85.8636 1271 35.6511
85.9806 1317 36.2905
86.0976 1397 37.3765
86.2145 1416 37.6298
86.3315 1421 37.6962
86.4484 1425 37.7492
86.5652 1477 38.4318
86.682 1495 38.6652
86.7988 1501 38.7427
86.9156 1496 38.6782
87.0323 1356 36.8239
87.149 1362 36.9053
87.2657 1246 35.2987
87.3823 1169 34.1906
87.4988 1053 32.45
87.6154 1017 31.8904
87.7318 989 31.4484
87.8483 1058 32.5269
87.9647 1105 33.2415
88.081 1115 33.3916
88.1973 1117 33.4215
88.3136 1086 32.9545
88.4298 1049 32.3883
88.546 977 31.257
88.6621 843 29.0345
88.7781 679 26.0576
88.8942 0 1
89.0101 0 1
89.126 0 1
89.2419 0 1
89.3577 0 1
89.4734 0 1
89.5891 0 1
89.7047 0 1
89.8203 0 1
89.9358 0 1
92.3269 0 1
92.4424 0 1
92.558 0 1
92.6736 0 1
92.7893 0 1
92.905 0 1
93.0208 0 1
93.1366 0 1
93.2525 0 1
93.3685 0 1
93.4845 0 1
93.6005 1122 33.4963
93.7167 1134 33.6749
93.8328 1155 33.9853
93.949 1264 35.5528
94.0653 1323 36.3731
94.1816 1176 34.2929
94.2979 1225 35
94.4143 1198 34.6121
94.5307 1143 33.8083
94.6472 1088 32.9848
94.7637 1017 31.8904
94.8803 1148 33.8821
94.9969 1288 35.8887
95.1135 1358 36.8511
95.2302 1425 37.7492
95.3469 1399 37.4032
95.4637 1416 37.6298
95.5805 1497 38.6911
95.6973 1511 38.8716
95.8142 1457 38.1707
95.9311 1507 38.8201
96.048 1526 39.064
96.1649 1489 38.5876
96.2819 1422 37.7094
96.3989 1345 36.6742
96.516 1315 36.2629
96.633 1196 34.5832
96.7501 1169 34.1906
96.8673 1180 34.3511
96.9844 1237 35.171
97.1016 1238 35.1852
97.2188 1426 37.7624
97.336 1511 38.8716
97.4532 1504 38.7814
97.5704 1477 38.4318
97.6877 1553 39.4081
97.805 1457 38.1707
97.9223 1357 36.8375
98.0396 1270 35.6371
98.1569 1156 34
98.2743 1172 34.2345
98.3916 1077 32.8177
98.509 1151 33.9264
98.6264 1271 35.6511
98.7438 1382 37.1753
98.8612 1437 37.9078
98.9786 1459 38.1969
99.096 1497 38.6911
99.2134 1531 39.128
99.3308 1559 39.4842
99.4482 1561 39.5095
99.5656 1569 39.6106
99.6831 1553 39.4081
99.8005 1517 38.9487
99.9179 1398 37.3898
100.035 1436 37.8946
100.153 1317 36.2905
100.27 1344 36.6606
100.388 1259 35.4824
100.505 1318 36.3043
100.622 1389 37.2693
100.74 1410 37.55
100.857 1524 39.0384
100.975 1691 41.1218
101.092 1652 40.6448
101.209 1589 39.8623
101.327 1616 40.1995
101.444 1487 38.5616
101.561 1396 37.3631
101.679 1310 36.1939
101.796 1215 34.8569
101.913 1211 34.7994
102.03 1134 33.6749
102.148 1276 35.7211
102.265 1334 36.524
102.382 1498 38.704
102.499 1586 39.8246
102.616 1597 39.9625
102.733 1641 40.5093
102.851 1769 42.0595
102.968 1679 40.9756
103.085 1615 40.1871
103.202 1653 40.6571
103.319 1655 40.6817
103.436 1544 39.2938
103.552 1584 39.7995
103.669 1476 38.4187
103.786 1343 36.647
103.903 1295 35.9861
104.02 1403 37.4566
104.137 1460 38.2099
104.253 1537 39.2046
104.37 1676 40.939
104.487 1700 41.2311
104.603 1787 42.2729
104.72 1634 40.4228
104.836 1620 40.2492
104.953 1515 38.923
105.069 1341 36.6197
105.186 1186 34.4384
105.302 1177 34.3074
105.418 1079 32.8481
105.535 1054 32.4654
105.651 1124 33.5261
105.767 1119 33.4515
105.883 1038 32.218
105.999 1045 32.3265
106.115 0 1
106.231 0 1
106.347 0 1
106.463 0 1
106.579 0 1
106.694 0 1
106.81 0 1
106.926 0 1
107.041 0 1
107.157 0 1
109.576 0 1
109.692 0 1
109.807 0 1
109.923 0 1
110.039 0 1
110.155 0 1
110.27 0 1
110.386 0 1
110.502 0 1
110.618 671 25.9037
110.735 894 29.8998
110.851 1052 32.4345
110.967 1174 34.2637
111.083 1262 35.5246
111.199 1359 36.8646
111.316 1472 38.3667
111.432 1485 38.5357
111.549 1489 38.5876
111.665 1571 39.6358
111.782 1547 39.3319
111.898 1518 38.9615
112.015 1570 39.6232
112.132 1415 37.6165
112.248 1332 36.4966
112.365 1263 35.5387
112.482 1247 35.3129
112.599 1378 37.1214
112.716 1425 37.7492
112.832 1513 38.8973
112.949 1563 39.5348
113.066 1620 40.2492
113.183 1507 38.8201
113.3 1529 39.1024
113.417 1545 39.3065
113.534 1480 38.4708
113.652 1355 36.8103
113.769 1277 35.7351
113.886 1216 34.8712
114.003 1109 33.3017
114.12 1149 33.8969
114.238 1233 35.1141
114.355 1468 38.3145
114.472 1327 36.428
114.589 1524 39.0384
114.707 1608 40.0999
114.824 1570 39.6232
114.942 1588 39.8497
115.059 1575 39.6863
115.176 1515 38.923
115.294 1594 39.9249
115.411 1508 38.833
115.529 1452 38.1051
115.646 1472 38.3667
115.764 1484 38.5227
115.881 1353 36.7831
115.999 1256 35.4401
116.116 1327 36.428
116.234 1352 36.7696
116.351 1477 38.4318
116.469 1557 39.4588
116.586 1474 38.3927
116.704 1581 39.7618
116.821 1536 39.1918
116.939 1606 40.0749
117.056 1562 39.5221
117.174 1458 38.1838
117.291 1317 36.2905
117.409 1223 34.9714
117.526 1141 33.7787
117.644 1146 33.8526
117.761 1245 35.2846
117.879 1316 36.2767
117.996 1366 36.9594
118.114 1446 38.0263
118.231 1594 39.9249
118.349 1514 38.9102
118.466 1596 39.95
118.584 1592 39.8999
118.701 1533 39.1535
118.819 1556 39.4462
118.936 1460 38.2099
119.053 1468 38.3145
119.171 1429 37.8021
119.288 1515 38.923
119.405 1384 37.2022
119.523 1266 35.5809
119.64 1240 35.2136
119.757 1281 35.7911
119.875 1345 36.6742
119.992 1321 36.3456
120.109 1446 38.0263
120.226 1451 38.092
120.343 1494 38.6523
120.46 1413 37.5899
120.578 1544 39.2938
120.695 1522 39.0128
120.812 1525 39.0512
120.929 1309 36.1801
121.046 1190 34.4964
121.163 1131 33.6303
121.279 1037 32.2025
121.396 1088 32.9848
121.513 1126 33.5559
121.63 1224 34.9857
121.747 1193 34.5398
121.863 1243 35.2562
121.98 1186 34.4384
122.097 1285 35.8469
122.213 1201 34.6554
122.33 1175 34.2783
122.446 1168 34.176
122.563 1106 33.2566
122.679 1030 32.0936
122.795 1024 32
122.912 841 29
123.028 732 27.0555
123.144 708 26.6083
123.26 601 24.5153
123.377 0 1
123.493 0 1
123.609 0 1
123.725 0 1
123.84 0 1
123.956 0 1
124.072 0 1
124.188 0 1
124.303 0 1
124.419 0 1
126.852 0 1
126.968 0 1
127.083 0 1
127.199 0 1
127.315 0 1
127.431 0 1
127.547 0 1
127.663 0 1
127.779 0 1
127.895 0 1
128.011 0 1
128.127 0 1
128.243 0 1
128.359 1316 36.2767
128.476 1384 37.2022
128.592 1328 36.4417
128.708 1337 36.565
128.825 1390 37.2827
128.941 1437 37.9078
129.058 1427 37.7757
129.174 1498 38.704
129.291 1529 39.1024
129.408 1614 40.1746
129.524 1631 40.3856
129.641 1623 40.2865
129.758 1574 39.6737
129.875 1486 38.5487
129.992 1325 36.4005
130.108 1274 35.6931
130.225 1231 35.0856
130.342 1182 34.3802
130.459 1202 34.6699
130.576 1341 36.6197
130.693 1439 37.9342
130.81 1491 38.6135
130.928 1509 38.8458
131.045 1524 39.0384
131.162 1580 39.7492
131.279 1630 40.3733
131.396 1572 39.6485
131.513 1581 39.7618
131.631 1659 40.7308
131.748 1578 39.724
131.865 1486 38.5487
131.983 1485 38.5357
132.1 1391 37.2961
132.217 1356 36.8239
132.335 1307 36.1525
132.452 1449 38.0657
132.57 1472 38.3667
132.687 1596 39.95
132.804 1573 39.6611
132.922 1679 40.9756
133.039 1633 40.4104
133.157 1641 40.5093
133.274 1584 39.7995
133.392 1512 38.8844
133.509 1484 38.5227
133.627 1321 36.3456
133.744 1285 35.8469
133.862 1212 34.8138
133.979 1206 34.7275
134.097 1361 36.8917
134.214 1355 36.8103
134.332 1540 39.2428
134.449 1485 38.5357
134.567 1594 39.9249
134.684 1538 39.2173
134.802 1510 38.8587
134.919 1578 39.724
135.037 1533 39.1535
135.154 1604 40.05
135.272 1571 39.6358
135.389 1539 39.2301
135.507 1482 38.4968
135.624 1409 37.5366
135.742 1421 37.6962
135.859 1338 36.5787
135.977 1377 37.108
136.094 1546 39.3192
136.211 1521 39
136.329 1566 39.5727
136.446 1580 39.7492
136.564 1578 39.724
136.681 1586 39.8246
136.798 1624 40.2989
136.915 1665 40.8044
137.033 1503 38.7685
137.15 1446 38.0263
137.267 1307 36.1525
137.384 1274 35.6931
137.502 1266 35.5809
137.619 1265 35.5668
137.736 1295 35.9861
137.853 1331 36.4829
137.97 1518 38.9615
138.087 1462 38.2361
138.204 1488 38.5746
138.321 1569 39.6106
138.438 1546 39.3192
138.555 1587 39.8372
138.672 1584 39.7995
138.788 1544 39.2938
138.905 1443 37.9868
139.022 1435 37.8814
139.139 1287 35.8748
139.255 1232 35.0999
139.372 1205 34.7131
139.488 1114 33.3766
139.605 1080 32.8634
139.721 1004 31.686
139.838 1026 32.0312
139.954 1070 32.7109
140.071 1035 32.1714
140.187 927 30.4467
140.303 823 28.688
140.419 886 29.7658
140.535 763 27.6225
140.652 717 26.7769
140.768 0 1
140.884 0 1
141 0 1
141.115 0 1
141.231 0 1
141.347 0 1
141.463 0 1
141.578 0 1
141.694 0 1
144.104 0 1
144.219 0 1
144.335 0 1
144.45 0 1
144.566 0 1
144.682 0 1
144.798 0 1
144.914 0 1
145.03 0 1
145.146 1172 34.2345
145.262 1242 35.242
145.378 1255 35.426
145.494 1312 36.2215
145.61 1339 36.5923
145.726 1218 34.8999
145.842 1195 34.5688
145.959 1116 33.4066
146.075 1064 32.619
146.192 972 31.1769
146.308 1013 31.8277
146.425 941 30.6757
146.541 1135 33.6898
146.658 1095 33.0908
146.774 1106 33.2566
146.891 1174 34.2637
147.008 1187 34.4529
147.125 1168 34.176
147.241 1213 34.8281
147.358 1190 34.4964
147.475 1248 35.327
147.592 1226 35.0143
147.709 1173 34.2491
147.826 1178 34.322
147.943 1140 33.7639
148.06 1136 33.7046
148.177 1130 33.6155
148.294 1058 32.5269
148.411 1050 32.4037
148.528 1197 34.5977
148.645 1095 33.0908
148.762 1200 34.641
148.88 1281 35.7911
148.997 1231 35.0856
149.114 1274 35.6931
149.231 1254 35.4119
149.349 1269 35.623
149.466 1221 34.9428
149.583 1135 33.6898
149.701 1121 33.4813
149.818 1045 32.3265
149.935 991 31.4802
150.053 1011 31.7962
150.17 1021 31.9531
150.287 1074 32.7719
150.405 1171 34.2199
150.522 1098 33.1361
150.64 1176 34.2929
150.757 1173 34.2491
150.875 1221 34.9428
150.992 1138 33.7343
151.11 1251 35.3695
151.227 1176 34.2929
151.344 1154 33.9706
151.462 1103 33.2114
151.579 1151 33.9264
151.697 1039 32.2335
151.814 1064 32.619
151.932 1071 32.7261
152.049 1057 32.5115
152.167 1105 33.2415
152.284 1144 33.8231
152.402 1202 34.6699
152.519 1199 34.6266
152.636 1153 33.9559
152.754 1150 33.9116
152.871 1200 34.641
152.989 1162 34.0881
153.106 1125 33.541
153.223 1040 32.249
153.341 994 31.5278
153.458 970 31.1448
153.575 907 30.1164
153.693 918 30.2985
153.81 950 30.8221
153.927 1002 31.6544
154.044 1000 31.6228
154.162 1102 33.1964
154.279 1070 32.7109
154.396 1060 32.5576
154.513 1118 33.4365
154.63 1184 34.4093
154.747 1075 32.7872
154.864 1133 33.6601
154.981 1092 33.0454
155.098 1088 32.9848
155.215 1036 32.187
155.332 990 31.4643
155.449 916 30.2655
155.566 956 30.9192
155.683 977 31.257
155.8 1035 32.1714
155.917 1031 32.1092
156.033 1040 32.249
156.15 0 1
156.267 0 1
156.383 0 1
156.5 0 1
156.617 0 1
156.733 0 1
156.85 0 1
156.966 0 1
157.082 0 1
157.199 0 1
157.315 0 1
157.431 0 1
157.547 0 1
157.664 0 1
157.78 0 1
157.896 0 1
158.012 0 1
158.128 0 1
158.244 0 1
158.359 0 1
158.475 0 1
158.591 0 1
158.706 0 1
