
6.15755 0 1
6.2731 0 1
6.3887 0 1
6.50437 0 1
6.62009 0 1
6.73587 0 1
6.8517 0 1
6.96759 0 1
7.08353 0 1
7.19952 0 1
7.31557 0 1
7.43166 0 1
7.54781 0 1
7.664 0 1
7.78024 0 1
7.89653 0 1
8.01286 0 1
8.12924 0 1
8.24567 0 1
8.36213 0 1
8.47864 0 1
8.59519 0 1
8.71178 0 1
8.82841 0 1
8.94508 0 1
9.06179 0 1
9.17853 0 1
9.29531 0 1
9.41212 0 1
9.52897 0 1
9.64584 0 1
9.76276 0 1
9.8797 0 1
9.99667 0 1
10.1137 0 1
10.2307 0 1
10.3478 0 1
10.4648 0 1
10.5819 0 1
10.6991 0 1
10.8162 0 1
10.9334 0 1
11.0506 0 1
11.1678 0 1
11.285 0 1
11.4023 0 1
11.5196 0 1
11.6369 0 1
11.7542 0 1
11.8715 0 1
11.9888 0 1
12.1062 0 1
12.2235 0 1
12.3409 0 1
12.4582 0 1
12.5756 0 1
12.693 0 1
12.8104 0 1
12.9278 0 1
13.0452 0 1
13.1626 0 1
13.28 0 1
13.3974 0 1
13.5149 0 1
13.6323 0 1
13.7497 0 1
13.8671 0 1
13.9845 0 1
14.1019 0 1
14.2193 0 1
14.3367 0 1
14.4541 0 1
14.5714 0 1
14.6888 0 1
14.8062 0 1
14.9235 0 1
15.0408 1082 32.8938
15.1581 1069 32.6956
15.2755 1142 33.7935
15.3927 1142 33.7935
15.51 1136 33.7046
15.6273 1177 34.3074
15.7445 1045 32.3265
15.8617 1108 33.2866
15.9789 1056 32.4962
16.0961 1076 32.8024
16.2132 1051 32.4191
16.3304 1024 32
16.4475 1056 32.4962
16.5646 1134 33.6749
16.6816 1035 32.1714
16.7986 1080 32.8634
16.9156 1031 32.1092
17.0326 1114 33.3766
17.1496 1114 33.3766
17.2665 1149 33.8969
17.3833 1143 33.8083
17.5002 1078 32.8329
17.617 1222 34.9571
17.7338 1169 34.1906
17.8505 1218 34.8999
17.9672 1346 36.6879
18.0839 1318 36.3043
18.2005 1384 37.2022
18.3171 1371 37.027
18.4337 1393 37.3229
18.5502 1400 37.4166
18.6666 1445 38.0132
18.7831 1433 37.855
18.8994 1435 37.8814
19.0158 1317 36.2905
19.1321 1264 35.5528
19.2483 1236 35.1568
19.3645 1187 34.4529
19.4806 1176 34.2929
19.5967 1117 33.4215
19.7128 1141 33.7787
19.8288 1049 32.3883
19.9447 985 31.3847
20.0606 0 1
20.1764 0 1
20.2922 0 1
20.4079 0 1
20.5236 0 1
20.6392 0 1
20.7548 0 1
20.8702 0 1
23.3078 0 1
23.4233 0 1
23.539 0 1
23.6547 0 1
23.7704 0 1
23.8862 0 1
24.0021 0 1
24.118 0 1
24.234 0 1
24.35 0 1
24.4661 1119 33.4515
24.5822 1110 33.3167
24.6984 1109 33.3017
24.8146 1141 33.7787
24.9309 1121 33.4813
25.0472 1109 33.3017
25.1636 1062 32.5883
25.28 1099 33.1512
25.3965 1103 33.2114
25.513 1149 33.8969
25.6296 1204 34.6987
25.7462 1161 34.0735
25.8628 1199 34.6266
25.9795 1311 36.2077
26.0962 1231 35.0856
26.213 1216 34.8712
26.3298 1277 35.7351
26.4466 1252 35.3836
26.5635 1311 36.2077
26.6804 1354 36.7967
26.7973 1391 37.2961
26.9143 1327 36.428
27.0313 1383 37.1887
27.1483 1361 36.8917
27.2653 1361 36.8917
27.3824 1287 35.8748
27.4996 1239 35.1994
27.6167 1194 34.5543
27.7339 1227 35.0286
27.8511 1126 33.5559
27.9683 1070 32.7109
28.0855 1118 33.4365
28.2028 1127 33.5708
28.3201 1060 32.5576
28.4374 1072 32.7414
28.5547 1058 32.5269
28.6721 1061 32.573
28.7894 1153 33.9559
28.9068 1066 32.6497
29.0242 1161 34.0735
29.1416 1145 33.8378
29.259 1080 32.8634
29.3764 1146 33.8526
29.4939 1111 33.3317
29.6113 1172 34.2345
29.7288 1098 33.1361
29.8463 1227 35.0286
29.9638 1141 33.7787
30.0812 1260 35.4965
30.1987 1267 35.5949
30.3162 1360 36.8782
30.4337 1295 35.9861
30.5512 1318 36.3043
30.6687 1267 35.5949
30.7862 1304 36.1109
30.9037 1232 35.0999
31.0212 1212 34.8138
31.1387 1198 34.6121
31.2562 1207 34.7419
31.3737 1163 34.1028
31.4912 1097 33.121
31.6087 1073 32.7567
31.7262 981 31.3209
31.8436 971 31.1609
31.9611 1074 32.7719
32.0785 1073 32.7567
32.1959 996 31.5595
32.3134 1056 32.4962
32.4308 1098 33.1361
32.5482 1069 32.6956
32.6655 1129 33.6006
32.7829 1118 33.4365
32.9002 1101 33.1813
33.0176 1092 33.0454
33.1349 1133 33.6601
33.2522 1092 33.0454
33.3694 1162 34.0881
33.4867 1172 34.2345
33.6039 1159 34.0441
33.7211 1181 34.3657
33.8383 1264 35.5528
33.9554 1237 35.171
34.0725 1194 34.5543
34.1896 1281 35.7911
34.3067 1208 34.7563
34.4237 1182 34.3802
34.5407 1140 33.7639
34.6577 1116 33.4066
34.7746 1068 32.6803
34.8915 1077 32.8177
35.0084 1008 31.749
35.1252 1021 31.9531
35.242 991 31.4802
35.3587 1018 31.9061
35.4755 957 30.9354
35.5921 990 31.4643
35.7088 1040 32.249
35.8254 1039 32.2335
35.9419 1095 33.0908
36.0584 1110 33.3167
36.1749 1070 32.7109
36.2913 1046 32.3419
36.4077 1129 33.6006
36.524 1063 32.6037
36.6403 1076 32.8024
36.7565 1074 32.7719
36.8727 1015 31.8591
36.9889 1043 32.2955
37.1049 1040 32.249
37.221 0 1
37.3369 0 1
37.4529 0 1
37.5687 0 1
37.6845 0 1
37.8003 0 1
37.916 0 1
38.0316 0 1
38.1472 0 1
40.5851 0 1
40.7008 0 1
40.8164 0 1
40.9322 0 1
41.048 0 1
41.1639 0 1
41.2798 0 1
41.3958 0 1
41.5118 0 1
41.6279 0 1
41.744 855 29.2404
41.8602 879 29.6479
41.9765 955 30.9031
42.0928 875 29.5804
42.2091 917 30.282
42.3255 964 31.0483
42.4419 947 30.7734
42.5584 980 31.305
42.675 966 31.0805
42.7915 1011 31.7962
42.9081 991 31.4802
43.0248 994 31.5278
43.1415 1019 31.9218
43.2582 1031 32.1092
43.375 1059 32.5423
43.4918 1086 32.9545
43.6087 957 30.9354
43.7256 1034 32.1559
43.8425 1038 32.218
43.9595 966 31.0805
44.0765 938 30.6268
44.1935 933 30.545
44.3106 975 31.225
44.4277 987 31.4166
44.5448 916 30.2655
44.6619 891 29.8496
44.7791 910 30.1662
44.8963 913 30.2159
45.0136 899 29.9833
45.1308 840 28.9828
45.2481 931 30.5123
45.3654 922 30.3645
45.4827 836 28.9137
45.6001 845 29.0689
45.7174 833 28.8617
45.8348 783 27.9821
45.9522 794 28.178
46.0697 786 28.0357
46.1871 755 27.4773
46.3046 762 27.6043
46.422 748 27.3496
46.5395 746 27.313
46.657 725 26.9258
46.7745 764 27.6405
46.892 723 26.8887
47.0096 698 26.4197
47.1271 742 27.2397
47.2446 677 26.0192
47.3622 692 26.3059
47.4797 683 26.1343
47.5973 649 25.4755
47.7149 652 25.5343
47.8324 635 25.1992
47.95 683 26.1343
48.0675 661 25.7099
48.1851 609 24.6779
48.3027 567 23.8118
48.4202 611 24.7184
48.5378 586 24.2074
48.6554 620 24.8998
48.7729 583 24.1454
48.8904 600 24.4949
49.008 596 24.4131
49.1255 610 24.6982
49.243 587 24.2281
49.3605 555 23.5584
49.478 548 23.4094
49.5955 501 22.383
49.713 617 24.8395
49.8304 583 24.1454
49.9479 610 24.6982
50.0653 616 24.8193
50.1827 671 25.9037
50.3001 685 26.1725
50.4175 638 25.2587
50.5348 632 25.1396
50.6521 669 25.865
50.7694 666 25.807
50.8867 721 26.8514
51.004 691 26.2869
51.1212 723 26.8887
51.2384 781 27.9464
51.3556 784 28
51.4727 815 28.5482
51.5899 798 28.2489
51.707 781 27.9464
51.824 747 27.3313
51.9411 737 27.1477
52.0581 769 27.7308
52.175 819 28.6182
52.2919 799 28.2666
52.4088 800 28.2843
52.5257 750 27.3861
52.6425 731 27.037
52.7593 810 28.4605
52.876 816 28.5657
52.9927 803 28.3373
53.1094 798 28.2489
53.226 789 28.0891
53.3426 813 28.5132
53.4591 828 28.775
53.5756 839 28.9655
53.692 829 28.7924
53.8084 853 29.2062
53.9248 953 30.8707
54.0411 906 30.0998
54.1573 1003 31.6702
54.2735 0 1
54.3896 0 1
54.5057 0 1
54.6217 0 1
54.7377 0 1
54.8537 0 1
54.9695 0 1
55.0853 0 1
55.2011 0 1
55.3168 0 1
55.4324 0 1
57.824 0 1
57.9396 0 1
58.0553 0 1
58.1711 0 1
58.2869 0 1
58.4028 0 1
58.5187 0 1
58.6347 0 1
58.7508 0 1
58.8669 0 1
58.983 1080 32.8634
59.0992 1032 32.1248
59.2155 1093 33.0606
59.3318 1126 33.5559
59.4482 1206 34.7275
59.5646 1258 35.4683
59.681 1264 35.5528
59.7975 1240 35.2136
59.9141 1225 35
60.0306 1244 35.2704
60.1473 1256 35.4401
60.2639 1128 33.5857
60.3807 1147 33.8674
60.4974 1093 33.0606
60.6142 1085 32.9393
60.731 956 30.9192
60.8479 987 31.4166
60.9648 960 30.9839
61.0818 941 30.6757
61.1987 925 30.4138
61.3158 974 31.209
61.4328 954 30.8869
61.5499 932 30.5287
61.667 1027 32.0468
61.7841 921 30.348
61.9013 1038 32.218
62.0185 965 31.0644
62.1357 1004 31.686
62.253 1033 32.1403
62.3702 992 31.496
62.4875 984 31.3688
62.6049 1074 32.7719
62.7222 1070 32.7109
62.8396 1094 33.0757
62.9569 1129 33.6006
63.0743 1170 34.2053
63.1918 1132 33.6452
63.3092 1170 34.2053
63.4267 1212 34.8138
63.5441 1200 34.641
63.6616 1176 34.2929
63.7791 1110 33.3167
63.8966 1076 32.8024
64.0142 1007 31.7333
64.1317 946 30.7571
64.2492 874 29.5635
64.3668 817 28.5832
64.4843 849 29.1376
64.6019 848 29.1204
64.7195 829 28.7924
64.837 883 29.7153
64.9546 860 29.3258
65.0722 909 30.1496
65.1898 918 30.2985
65.3074 859 29.3087
65.4249 936 30.5941
65.5425 943 30.7083
65.6601 943 30.7083
65.7777 927 30.4467
65.8952 942 30.692
66.0128 891 29.8496
66.1304 896 29.9333
66.2479 1039 32.2335
66.3655 1047 32.3574
66.483 1103 33.2114
66.6005 1086 32.9545
66.718 1186 34.4384
66.8355 1098 33.1361
66.953 1179 34.3366
67.0705 1146 33.8526
67.1879 1171 34.2199
67.3054 1094 33.0757
67.4228 1075 32.7872
67.5402 902 30.0333
67.6576 919 30.315
67.7749 838 28.9482
67.8923 802 28.3196
68.0096 809 28.4429
68.1269 787 28.0535
68.2442 845 29.0689
68.3614 815 28.5482
68.4787 831 28.8271
68.5958 914 30.2324
68.713 943 30.7083
68.8302 953 30.8707
68.9473 921 30.348
69.0643 949 30.8058
69.1814 949 30.8058
69.2984 943 30.7083
69.4154 980 31.305
69.5323 1032 32.1248
69.6492 983 31.3528
69.7661 1066 32.6497
69.8829 1046 32.3419
69.9997 1144 33.8231
70.1165 1154 33.9706
70.2332 1190 34.4964
70.3499 1218 34.8999
70.4665 1223 34.9714
70.5831 1187 34.4529
70.6996 1134 33.6749
70.8161 1248 35.327
70.9326 1173 34.2491
71.049 1026 32.0312
71.1653 987 31.4166
71.2817 899 29.9833
71.3979 833 28.8617
71.5141 808 28.4253
71.6303 844 29.0517
71.7464 761 27.5862
71.8624 0 1
71.9784 0 1
72.0944 0 1
72.2102 0 1
72.3261 0 1
72.4418 0 1
72.5575 0 1
72.6732 0 1
75.1054 0 1
75.2209 0 1
75.3365 0 1
75.4521 0 1
75.5678 0 1
75.6835 0 1
75.7993 0 1
75.9151 0 1
76.031 0 1
76.147 1141 33.7787
76.263 1049 32.3883
76.3791 987 31.4166
76.4952 956 30.9192
76.6113 914 30.2324
76.7276 944 30.7246
76.8438 911 30.1828
76.9601 843 29.0345
77.0765 942 30.692
77.1929 869 29.4788
77.3093 891 29.8496
77.4258 922 30.3645
77.5423 946 30.7571
77.6589 983 31.3528
77.7755 968 31.1127
77.8921 932 30.5287
78.0088 943 30.7083
78.1256 962 31.0161
78.2423 916 30.2655
78.3591 1020 31.9374
78.4759 1068 32.6803
78.5928 1038 32.218
78.7097 1069 32.6956
78.8266 1092 33.0454
78.9436 1225 35
79.0606 1176 34.2929
79.1776 1200 34.641
79.2946 1238 35.1852
79.4117 1203 34.6843
79.5288 1231 35.0856
79.6459 1219 34.9142
79.7631 1167 34.1614
79.8802 1069 32.6956
79.9974 982 31.3369
80.1147 1010 31.7805
80.2319 919 30.315
80.3491 902 30.0333
80.4664 904 30.0666
80.5837 881 29.6816
80.701 900 30
80.8183 913 30.2159
80.9357 958 30.9516
81.053 894 29.8998
81.1704 965 31.0644
81.2877 969 31.1288
81.4051 981 31.3209
81.5225 894 29.8998
81.6399 1012 31.8119
81.7573 934 30.5614
81.8747 925 30.4138
81.9922 1037 32.2025
82.1096 1078 32.8329
82.227 1108 33.2866
82.3444 1137 33.7194
82.4619 1247 35.3129
82.5793 1227 35.0286
82.6967 1192 34.5254
82.8142 1195 34.5688
82.9316 1297 36.0139
83.049 1280 35.7771
83.1664 1247 35.3129
83.2838 1204 34.6987
83.4012 1096 33.1059
83.5186 1045 32.3265
83.636 921 30.348
83.7534 921 30.348
83.8708 962 31.0161
83.9881 960 30.9839
84.1055 958 30.9516
84.2228 989 31.4484
84.3401 943 30.7083
84.4575 906 30.0998
84.5747 927 30.4467
84.692 978 31.273
84.8093 1051 32.4191
84.9265 1006 31.7175
85.0437 1026 32.0312
85.1609 976 31.241
85.2781 970 31.1448
85.3952 966 31.0805
85.5123 1051 32.4191
85.6294 1013 31.8277
85.7465 1158 34.0294
85.8636 1205 34.7131
85.9806 1216 34.8712
86.0976 1242 35.242
86.2145 1263 35.5387
86.3315 1267 35.5949
86.4484 1231 35.0856
86.5652 1324 36.3868
86.682 1380 37.1484
86.7988 1365 36.9459
86.9156 1277 35.7351
87.0323 1228 35.0428
87.149 1173 34.2491
87.2657 1059 32.5423
87.3823 1046 32.3419
87.4988 1038 32.218
87.6154 965 31.0644
87.7318 997 31.5753
87.8483 1018 31.9061
87.9647 983 31.3528
88.081 1029 32.078
88.1973 1035 32.1714
88.3136 1106 33.2566
88.4298 1245 35.2846
88.546 1044 32.311
88.6621 1045 32.3265
88.7781 1007 31.7333
88.8942 0 1
89.0101 0 1
89.126 0 1
89.2419 0 1
89.3577 0 1
89.4734 0 1
89.5891 0 1
89.7047 0 1
89.8203 0 1
89.9358 0 1
92.3269 0 1
92.4424 0 1
92.558 0 1
92.6736 0 1
92.7893 0 1
92.905 0 1
93.0208 0 1
93.1366 0 1
93.2525 0 1
93.3685 0 1
93.4845 0 1
93.6005 1012 31.8119
93.7167 1010 31.7805
93.8328 1041 32.2645
93.949 987 31.4166
94.0653 1017 31.8904
94.1816 979 31.289
94.2979 1001 31.6386
94.4143 1119 33.4515
94.5307 1035 32.1714
94.6472 1100 33.1662
94.7637 1260 35.4965
94.8803 1294 35.9722
94.9969 1301 36.0694
95.1135 1324 36.3868
95.2302 1254 35.4119
95.3469 1295 35.9861
95.4637 1268 35.609
95.5805 1228 35.0428
95.6973 1268 35.609
95.8142 1262 35.5246
95.9311 1210 34.7851
96.048 1194 34.5543
96.1649 1095 33.0908
96.2819 1094 33.0757
96.3989 1061 32.573
96.516 1086 32.9545
96.633 1040 32.249
96.7501 1035 32.1714
96.8673 993 31.5119
96.9844 1028 32.0624
97.1016 1033 32.1403
97.2188 979 31.289
97.336 1012 31.8119
97.4532 1014 31.8434
97.5704 1027 32.0468
97.6877 995 31.5436
97.805 1007 31.7333
97.9223 946 30.7571
98.0396 998 31.5911
98.1569 999 31.607
98.2743 1047 32.3574
98.3916 1034 32.1559
98.509 1123 33.5112
98.6264 1166 34.1467
98.7438 1162 34.0881
98.8612 1195 34.5688
98.9786 1204 34.6987
99.096 1181 34.3657
99.2134 1267 35.5949
99.3308 1241 35.2278
99.4482 1285 35.8469
99.5656 1145 33.8378
99.6831 1071 32.7261
99.8005 1116 33.4066
99.9179 1073 32.7567
100.035 1011 31.7962
100.153 1003 31.6702
100.27 1022 31.9687
100.388 979 31.289
100.505 952 30.8545
100.622 960 30.9839
100.74 937 30.6105
100.857 997 31.5753
100.975 988 31.4325
101.092 1026 32.0312
101.209 961 31
101.327 929 30.4795
101.444 965 31.0644
101.561 964 31.0483
101.679 980 31.305
101.796 983 31.3528
101.913 1035 32.1714
102.03 1088 32.9848
102.148 1226 35.0143
102.265 1212 34.8138
102.382 1398 37.3898
102.499 1176 34.2929
102.616 1293 35.9583
102.733 1316 36.2767
102.851 1331 36.4829
102.968 1349 36.7287
103.085 1276 35.7211
103.202 1238 35.1852
103.319 1205 34.7131
103.436 1156 34
103.552 1132 33.6452
103.669 1095 33.0908
103.786 1023 31.9844
103.903 1012 31.8119
104.02 1066 32.6497
104.137 1113 33.3617
104.253 1029 32.078
104.37 1056 32.4962
104.487 1104 33.2265
104.603 1053 32.45
104.72 950 30.8221
104.836 982 31.3369
104.953 991 31.4802
105.069 1044 32.311
105.186 1065 32.6343
105.302 1111 33.3317
105.418 1165 34.1321
105.535 1245 35.2846
105.651 1260 35.4965
105.767 1338 36.5787
105.883 1327 36.428
105.999 1229 35.0571
106.115 0 1
106.231 0 1
106.347 0 1
106.463 0 1
106.579 0 1
106.694 0 1
106.81 0 1
106.926 0 1
107.041 0 1
107.157 0 1
109.576 0 1
109.692 0 1
109.807 0 1
109.923 0 1
110.039 0 1
110.155 0 1
110.27 0 1
110.386 0 1
110.502 0 1
110.618 1100 33.1662
110.735 1071 32.7261
110.851 1144 33.8231
110.967 1123 33.5112
111.083 1038 32.218
111.199 1143 33.8083
111.316 1243 35.2562
111.432 1214 34.8425
111.549 1229 35.0571
111.665 1182 34.3802
111.782 1081 32.8786
111.898 1038 32.218
112.015 1023 31.9844
112.132 979 31.289
112.248 1023 31.9844
112.365 914 30.2324
112.482 926 30.4302
112.599 859 29.3087
112.716 858 29.2916
112.832 893 29.8831
112.949 872 29.5296
113.066 820 28.6356
113.183 831 28.8271
113.3 799 28.2666
113.417 769 27.7308
113.534 771 27.7669
113.652 819 28.6182
113.769 811 28.4781
113.886 891 29.8496
114.003 886 29.7658
114.12 947 30.7734
114.238 911 30.1828
114.355 966 31.0805
114.472 891 29.8496
114.589 891 29.8496
114.707 916 30.2655
114.824 940 30.6594
114.942 918 30.2985
115.059 974 31.209
115.176 901 30.0167
115.294 873 29.5466
115.411 875 29.5804
115.529 860 29.3258
115.646 812 28.4956
115.764 804 28.3549
115.881 769 27.7308
115.999 697 26.4008
116.116 722 26.8701
116.234 648 25.4558
116.351 663 25.7488
116.469 662 25.7294
116.586 654 25.5734
116.704 664 25.7682
116.821 654 25.5734
116.939 646 25.4165
117.056 600 24.4949
117.174 679 26.0576
117.291 662 25.7294
117.409 736 27.1293
117.526 756 27.4955
117.644 751 27.4044
117.761 736 27.1293
117.879 784 28
117.996 778 27.8927
118.114 760 27.5681
118.231 695 26.3629
118.349 755 27.4773
118.466 796 28.2135
118.584 786 28.0357
118.701 826 28.7402
118.819 840 28.9828
118.936 877 29.6142
119.053 774 27.8209
119.171 774 27.8209
119.288 785 28.0179
119.405 757 27.5136
119.523 796 28.2135
119.64 721 26.8514
119.757 738 27.1662
119.875 720 26.8328
119.992 711 26.6646
120.109 677 26.0192
120.226 672 25.923
120.343 685 26.1725
120.46 681 26.096
120.578 734 27.0924
120.695 744 27.2764
120.812 773 27.8029
120.929 781 27.9464
121.046 818 28.6007
121.163 849 29.1376
121.279 821 28.6531
121.396 820 28.6356
121.513 867 29.4449
121.63 824 28.7054
121.747 787 28.0535
121.863 745 27.2947
121.98 786 28.0357
122.097 886 29.7658
122.213 892 29.8664
122.33 1004 31.686
122.446 1067 32.665
122.563 1000 31.6228
122.679 942 30.692
122.795 952 30.8545
122.912 938 30.6268
123.028 898 29.9666
123.144 881 29.6816
123.26 867 29.4449
123.377 0 1
123.493 0 1
123.609 0 1
123.725 0 1
123.84 0 1
123.956 0 1
124.072 0 1
124.188 0 1
124.303 0 1
124.419 0 1
126.852 0 1
126.968 0 1
127.083 0 1
127.199 0 1
127.315 0 1
127.431 0 1
127.547 0 1
127.663 0 1
127.779 0 1
127.895 0 1
128.011 0 1
128.127 0 1
128.243 0 1
128.359 1105 33.2415
128.476 1002 31.6544
128.592 1039 32.2335
128.708 1031 32.1092
128.825 1025 32.0156
128.941 950 30.8221
129.058 844 29.0517
129.174 912 30.1993
129.291 851 29.1719
129.408 933 30.545
129.524 872 29.5296
129.641 915 30.249
129.758 901 30.0167
129.875 934 30.5614
129.992 924 30.3974
130.108 965 31.0644
130.225 923 30.3809
130.342 983 31.3528
130.459 897 29.95
130.576 910 30.1662
130.693 812 28.4956
130.81 671 25.9037
130.928 679 26.0576
131.045 853 29.2062
131.162 897 29.95
131.279 931 30.5123
131.396 951 30.8383
131.513 899 29.9833
131.631 936 30.5941
131.748 907 30.1164
131.865 877 29.6142
131.983 945 30.7409
132.1 872 29.5296
132.217 855 29.2404
132.335 893 29.8831
132.452 877 29.6142
132.57 815 28.5482
132.687 791 28.1247
132.804 795 28.1957
132.922 797 28.2312
133.039 786 28.0357
133.157 802 28.3196
133.274 832 28.8444
133.392 815 28.5482
133.509 784 28
133.627 756 27.4955
133.744 840 28.9828
133.862 790 28.1069
133.979 795 28.1957
134.097 749 27.3679
134.214 637 25.2389
134.332 527 22.9565
134.449 572 23.9165
134.567 671 25.9037
134.684 721 26.8514
134.802 748 27.3496
134.919 764 27.6405
135.037 729 27
135.154 725 26.9258
135.272 721 26.8514
135.389 688 26.2298
135.507 738 27.1662
135.624 752 27.4226
135.742 734 27.0924
135.859 738 27.1662
135.977 672 25.923
136.094 639 25.2784
136.211 651 25.5147
136.329 648 25.4558
136.446 625 25
136.564 670 25.8844
136.681 608 24.6577
136.798 608 24.6577
136.915 588 24.2487
137.033 602 24.5357
137.15 582 24.1247
137.267 636 25.219
137.384 618 24.8596
137.502 612 24.7386
137.619 567 23.8118
137.736 579 24.0624
137.853 492 22.1811
137.97 454 21.3073
138.087 478 21.8632
138.204 588 24.2487
138.321 644 25.3772
138.438 654 25.5734
138.555 639 25.2784
138.672 663 25.7488
138.788 663 25.7488
138.905 709 26.6271
139.022 694 26.3439
139.139 660 25.6905
139.255 681 26.096
139.372 746 27.313
139.488 705 26.5518
139.605 717 26.7769
139.721 708 26.6083
139.838 697 26.4008
139.954 751 27.4044
140.071 663 25.7488
140.187 710 26.6458
140.303 722 26.8701
140.419 736 27.1293
140.535 679 26.0576
140.652 692 26.3059
140.768 0 1
140.884 0 1
141 0 1
141.115 0 1
141.231 0 1
141.347 0 1
141.463 0 1
141.578 0 1
141.694 0 1
144.104 0 1
144.219 0 1
144.335 0 1
144.45 0 1
144.566 0 1
144.682 0 1
144.798 0 1
144.914 0 1
145.03 0 1
145.146 569 23.8537
145.262 548 23.4094
145.378 596 24.4131
145.494 535 23.1301
145.61 567 23.8118
145.726 545 23.3452
145.842 529 23
145.959 490 22.1359
146.075 521 22.8254
146.192 504 22.4499
146.308 520 22.8035
146.425 499 22.3383
146.541 437 20.9045
146.658 446 21.1187
146.774 421 20.5183
146.891 427 20.664
147.008 456 21.3542
147.125 488 22.0907
147.241 500 22.3607
147.358 506 22.4944
147.475 483 21.9773
147.592 477 21.8403
147.709 463 21.5174
147.826 416 20.3961
147.943 474 21.7715
148.06 447 21.1424
148.177 420 20.4939
148.294 415 20.3715
148.411 426 20.6398
148.528 413 20.3224
148.645 431 20.7605
148.762 381 19.5192
148.88 424 20.5913
148.997 430 20.7364
149.114 349 18.6815
149.231 372 19.2873
149.349 392 19.799
149.466 396 19.8997
149.583 386 19.6469
149.701 401 20.025
149.818 414 20.347
149.935 338 18.3848
150.053 390 19.7484
150.17 387 19.6723
150.287 375 19.3649
150.405 378 19.4422
150.522 415 20.3715
150.64 386 19.6469
150.757 425 20.6155
150.875 395 19.8746
150.992 424 20.5913
151.11 417 20.4206
151.227 445 21.095
151.344 409 20.2237
151.462 408 20.199
151.579 414 20.347
151.697 417 20.4206
151.814 446 21.1187
151.932 405 20.1246
152.049 405 20.1246
152.167 457 21.3776
152.284 404 20.0998
152.402 430 20.7364
152.519 413 20.3224
152.636 392 19.799
152.754 384 19.5959
152.871 405 20.1246
152.989 449 21.1896
153.106 447 21.1424
153.223 439 20.9523
153.341 421 20.5183
153.458 421 20.5183
153.575 371 19.2614
153.693 390 19.7484
153.81 434 20.8327
153.927 420 20.4939
154.044 508 22.5389
154.162 476 21.8174
154.279 518 22.7596
154.396 472 21.7256
154.513 534 23.1084
154.63 532 23.0651
154.747 527 22.9565
154.864 533 23.0868
154.981 542 23.2809
155.098 539 23.2164
155.215 509 22.561
155.332 520 22.8035
155.449 526 22.9347
155.566 493 22.2036
155.683 530 23.0217
155.8 475 21.7945
155.917 525 22.9129
156.033 503 22.4277
156.15 0 1
156.267 0 1
156.383 0 1
156.5 0 1
156.617 0 1
156.733 0 1
156.85 0 1
156.966 0 1
157.082 0 1
157.199 0 1
157.315 0 1
157.431 0 1
157.547 0 1
157.664 0 1
157.78 0 1
157.896 0 1
158.012 0 1
158.128 0 1
158.244 0 1
158.359 0 1
158.475 0 1
158.591 0 1
158.706 0 1
