
6.15755 0 1
6.2731 0 1
6.3887 0 1
6.50437 0 1
6.62009 0 1
6.73587 0 1
6.8517 0 1
6.96759 0 1
7.08353 0 1
7.19952 0 1
7.31557 0 1
7.43166 0 1
7.54781 0 1
7.664 0 1
7.78024 0 1
7.89653 0 1
8.01286 0 1
8.12924 0 1
8.24567 0 1
8.36213 0 1
8.47864 0 1
8.59519 0 1
8.71178 0 1
8.82841 0 1
8.94508 0 1
9.06179 0 1
9.17853 0 1
9.29531 0 1
9.41212 0 1
9.52897 0 1
9.64584 0 1
9.76276 0 1
9.8797 0 1
9.99667 0 1
10.1137 0 1
10.2307 0 1
10.3478 0 1
10.4648 0 1
10.5819 0 1
10.6991 0 1
10.8162 0 1
10.9334 0 1
11.0506 0 1
11.1678 0 1
11.285 0 1
11.4023 0 1
11.5196 0 1
11.6369 0 1
11.7542 0 1
11.8715 0 1
11.9888 0 1
12.1062 0 1
12.2235 0 1
12.3409 0 1
12.4582 0 1
12.5756 0 1
12.693 0 1
12.8104 0 1
12.9278 0 1
13.0452 0 1
13.1626 0 1
13.28 0 1
13.3974 0 1
13.5149 0 1
13.6323 0 1
13.7497 0 1
13.8671 0 1
13.9845 0 1
14.1019 0 1
14.2193 0 1
14.3367 0 1
14.4541 0 1
14.5714 0 1
14.6888 0 1
14.8062 0 1
14.9235 0 1
15.0408 0 0
15.1581 0 0
15.2755 0 0
15.3927 0 0
15.51 0 0
15.6273 0 0
15.7445 0 0
15.8617 0 0
15.9789 0 0
16.0961 0 0
16.2132 0 0
16.3304 0 0
16.4475 0 0
16.5646 0 0
16.6816 0 0
16.7986 0 0
16.9156 0 0
17.0326 0 0
17.1496 0 0
17.2665 0 0
17.3833 0 0
17.5002 0 0
17.617 0 0
17.7338 0 0
17.8505 0 0
17.9672 0 0
18.0839 0 0
18.2005 0 0
18.3171 0 0
18.4337 0 0
18.5502 0 0
18.6666 0 0
18.7831 0 0
18.8994 0 0
19.0158 0 0
19.1321 0 0
19.2483 0 0
19.3645 0 0
19.4806 0 0
19.5967 0 0
19.7128 0 0
19.8288 0 0
19.9447 0 0
20.0606 0 1
20.1764 0 1
20.2922 0 1
20.4079 0 1
20.5236 0 1
20.6392 0 1
20.7548 0 1
20.8702 0 1
23.3078 0 1
23.4233 0 1
23.539 0 1
23.6547 0 1
23.7704 0 1
23.8862 0 1
24.0021 0 1
24.118 0 1
24.234 0 1
24.35 0 1
24.4661 1238 35.1852
24.5822 1211 34.7994
24.6984 1205 34.7131
24.8146 1220 34.9285
24.9309 1154 33.9706
25.0472 1150 33.9116
25.1636 1132 33.6452
25.28 1131 33.6303
25.3965 1177 34.3074
25.513 1202 34.6699
25.6296 1207 34.7419
25.7462 1251 35.3695
25.8628 1277 35.7351
25.9795 1289 35.9026
26.0962 1355 36.8103
26.213 1304 36.1109
26.3298 1272 35.6651
26.4466 1288 35.8887
26.5635 1272 35.6651
26.6804 1236 35.1568
26.7973 1236 35.1568
26.9143 1224 34.9857
27.0313 1255 35.426
27.1483 1303 36.0971
27.2653 1316 36.2767
27.3824 1334 36.524
27.4996 1323 36.3731
27.6167 1294 35.9722
27.7339 1292 35.9444
27.8511 1279 35.7631
27.9683 1287 35.8748
28.0855 1266 35.5809
28.2028 1238 35.1852
28.3201 1210 34.7851
28.4374 1165 34.1321
28.5547 1118 33.4365
28.6721 1172 34.2345
28.7894 1079 32.8481
28.9068 1063 32.6037
29.0242 1102 33.1964
29.1416 1130 33.6155
29.259 1114 33.3766
29.3764 1136 33.7046
29.4939 1170 34.2053
29.6113 1122 33.4963
29.7288 1228 35.0428
29.8463 1174 34.2637
29.9638 1161 34.0735
30.0812 1153 33.9559
30.1987 1080 32.8634
30.3162 1116 33.4066
30.4337 1218 34.8999
30.5512 1272 35.6651
30.6687 1267 35.5949
30.7862 1298 36.0278
30.9037 1252 35.3836
31.0212 1185 34.4238
31.1387 1323 36.3731
31.2562 1231 35.0856
31.3737 1232 35.0999
31.4912 1256 35.4401
31.6087 1257 35.4542
31.7262 1177 34.3074
31.8436 1168 34.176
31.9611 1104 33.2265
32.0785 1125 33.541
32.1959 1074 32.7719
32.3134 991 31.4802
32.4308 1049 32.3883
32.5482 1053 32.45
32.6655 1026 32.0312
32.7829 1077 32.8177
32.9002 1088 32.9848
33.0176 1085 32.9393
33.1349 1188 34.4674
33.2522 1154 33.9706
33.3694 1148 33.8821
33.4867 1215 34.8569
33.6039 1104 33.2265
33.7211 1227 35.0286
33.8383 1154 33.9706
33.9554 1177 34.3074
34.0725 1140 33.7639
34.1896 1202 34.6699
34.3067 1253 35.3977
34.4237 1253 35.3977
34.5407 1214 34.8425
34.6577 1207 34.7419
34.7746 1223 34.9714
34.8915 1168 34.176
35.0084 1221 34.9428
35.1252 1170 34.2053
35.242 1150 33.9116
35.3587 1154 33.9706
35.4755 1170 34.2053
35.5921 1091 33.0303
35.7088 1168 34.176
35.8254 1015 31.8591
35.9419 1022 31.9687
36.0584 998 31.5911
36.1749 990 31.4643
36.2913 1007 31.7333
36.4077 975 31.225
36.524 1017 31.8904
36.6403 1052 32.4345
36.7565 1055 32.4808
36.8727 1098 33.1361
36.9889 1090 33.0151
37.1049 1065 32.6343
37.221 0 1
37.3369 0 1
37.4529 0 1
37.5687 0 1
37.6845 0 1
37.8003 0 1
37.916 0 1
38.0316 0 1
38.1472 0 1
40.5851 0 1
40.7008 0 1
40.8164 0 1
40.9322 0 1
41.048 0 1
41.1639 0 1
41.2798 0 1
41.3958 0 1
41.5118 0 1
41.6279 0 1
41.744 777 27.8747
41.8602 829 28.7924
41.9765 891 29.8496
42.0928 913 30.2159
42.2091 945 30.7409
42.3255 918 30.2985
42.4419 956 30.9192
42.5584 873 29.5466
42.675 860 29.3258
42.7915 865 29.4109
42.9081 881 29.6816
43.0248 861 29.3428
43.1415 935 30.5778
43.2582 920 30.3315
43.375 954 30.8869
43.4918 951 30.8383
43.6087 897 29.95
43.7256 913 30.2159
43.8425 856 29.2575
43.9595 905 30.0832
44.0765 916 30.2655
44.1935 899 29.9833
44.3106 816 28.5657
44.4277 805 28.3725
44.5448 716 26.7582
44.6619 631 25.1197
44.7791 658 25.6515
44.8963 583 24.1454
45.0136 620 24.8998
45.1308 610 24.6982
45.2481 602 24.5357
45.3654 627 25.04
45.4827 611 24.7184
45.6001 688 26.2298
45.7174 689 26.2488
45.8348 684 26.1534
45.9522 646 25.4165
46.0697 685 26.1725
46.1871 621 24.9199
46.3046 709 26.6271
46.422 636 25.219
46.5395 630 25.0998
46.657 636 25.219
46.7745 693 26.3249
46.892 627 25.04
47.0096 692 26.3059
47.1271 691 26.2869
47.2446 630 25.0998
47.3622 641 25.318
47.4797 649 25.4755
47.5973 652 25.5343
47.7149 589 24.2693
47.8324 559 23.6432
47.95 569 23.8537
48.0675 498 22.3159
48.1851 496 22.2711
48.3027 482 21.9545
48.4202 423 20.567
48.5378 429 20.7123
48.6554 448 21.166
48.7729 455 21.3307
48.8904 462 21.4942
49.008 516 22.7156
49.1255 483 21.9773
49.243 521 22.8254
49.3605 504 22.4499
49.478 556 23.5797
49.5955 522 22.8473
49.713 534 23.1084
49.8304 542 23.2809
49.9479 512 22.6274
50.0653 511 22.6053
50.1827 553 23.516
50.3001 586 24.2074
50.4175 557 23.6008
50.5348 591 24.3105
50.6521 643 25.3574
50.7694 614 24.779
50.8867 654 25.5734
51.004 628 25.0599
51.1212 648 25.4558
51.2384 658 25.6515
51.3556 695 26.3629
51.4727 676 26
51.5899 660 25.6905
51.707 604 24.5764
51.824 601 24.5153
51.9411 574 23.9583
52.0581 564 23.7487
52.175 649 25.4755
52.2919 664 25.7682
52.4088 647 25.4362
52.5257 750 27.3861
52.6425 776 27.8568
52.7593 757 27.5136
52.876 832 28.8444
52.9927 862 29.3598
53.1094 806 28.3901
53.226 836 28.9137
53.3426 857 29.2746
53.4591 863 29.3769
53.5756 860 29.3258
53.692 892 29.8664
53.8084 929 30.4795
53.9248 985 31.3847
54.0411 1073 32.7567
54.1573 1080 32.8634
54.2735 0 1
54.3896 0 1
54.5057 0 1
54.6217 0 1
54.7377 0 1
54.8537 0 1
54.9695 0 1
55.0853 0 1
55.2011 0 1
55.3168 0 1
55.4324 0 1
57.824 0 1
57.9396 0 1
58.0553 0 1
58.1711 0 1
58.2869 0 1
58.4028 0 1
58.5187 0 1
58.6347 0 1
58.7508 0 1
58.8669 0 1
58.983 1043 32.2955
59.0992 1126 33.5559
59.2155 1210 34.7851
59.3318 1223 34.9714
59.4482 1259 35.4824
59.5646 1241 35.2278
59.681 1208 34.7563
59.7975 1259 35.4824
59.9141 1153 33.9559
60.0306 1101 33.1813
60.1473 1052 32.4345
60.2639 988 31.4325
60.3807 891 29.8496
60.4974 801 28.3019
60.6142 825 28.7228
60.731 876 29.5973
60.8479 801 28.3019
60.9648 885 29.7489
61.0818 907 30.1164
61.1987 958 30.9516
61.3158 976 31.241
61.4328 1016 31.8748
61.5499 1032 32.1248
61.667 1009 31.7648
61.7841 1026 32.0312
61.9013 1033 32.1403
62.0185 982 31.3369
62.1357 1004 31.686
62.253 980 31.305
62.3702 1030 32.0936
62.4875 1047 32.3574
62.6049 1133 33.6601
62.7222 1103 33.2114
62.8396 1164 34.1174
62.9569 1264 35.5528
63.0743 1186 34.4384
63.1918 1201 34.6554
63.3092 1174 34.2637
63.4267 1239 35.1994
63.5441 1104 33.2265
63.6616 993 31.5119
63.7791 977 31.257
63.8966 907 30.1164
64.0142 835 28.8964
64.1317 807 28.4077
64.2492 837 28.931
64.3668 863 29.3769
64.4843 862 29.3598
64.6019 958 30.9516
64.7195 1019 31.9218
64.837 1054 32.4654
64.9546 1048 32.3728
65.0722 1043 32.2955
65.1898 1055 32.4808
65.3074 988 31.4325
65.4249 1015 31.8591
65.5425 983 31.3528
65.6601 926 30.4302
65.7777 947 30.7734
65.8952 997 31.5753
66.0128 999 31.607
66.1304 1108 33.2866
66.2479 1166 34.1467
66.3655 1165 34.1321
66.483 1139 33.7491
66.6005 1179 34.3366
66.718 1175 34.2783
66.8355 1161 34.0735
66.953 1114 33.3766
67.0705 1052 32.4345
67.1879 1028 32.0624
67.3054 990 31.4643
67.4228 873 29.5466
67.5402 846 29.0861
67.6576 730 27.0185
67.7749 726 26.9444
67.8923 760 27.5681
68.0096 785 28.0179
68.1269 869 29.4788
68.2442 847 29.1033
68.3614 944 30.7246
68.4787 945 30.7409
68.5958 915 30.249
68.713 922 30.3645
68.8302 960 30.9839
68.9473 958 30.9516
69.0643 937 30.6105
69.1814 886 29.7658
69.2984 937 30.6105
69.4154 972 31.1769
69.5323 993 31.5119
69.6492 941 30.6757
69.7661 1044 32.311
69.8829 1118 33.4365
69.9997 1113 33.3617
70.1165 1185 34.4238
70.2332 1160 34.0588
70.3499 1213 34.8281
70.4665 1165 34.1321
70.5831 1141 33.7787
70.6996 1101 33.1813
70.8161 984 31.3688
70.9326 974 31.209
71.049 957 30.9354
71.1653 821 28.6531
71.2817 768 27.7128
71.3979 704 26.533
71.5141 718 26.7955
71.6303 789 28.0891
71.7464 712 26.6833
71.8624 0 1
71.9784 0 1
72.0944 0 1
72.2102 0 1
72.3261 0 1
72.4418 0 1
72.5575 0 1
72.6732 0 1
75.1054 0 1
75.2209 0 1
75.3365 0 1
75.4521 0 1
75.5678 0 1
75.6835 0 1
75.7993 0 1
75.9151 0 1
76.031 0 1
76.147 939 30.6431
76.263 968 31.1127
76.3791 971 31.1609
76.4952 894 29.8998
76.6113 786 28.0357
76.7276 723 26.8887
76.8438 796 28.2135
76.9601 809 28.4429
77.0765 839 28.9655
77.1929 988 31.4325
77.3093 1022 31.9687
77.4258 1047 32.3574
77.5423 1019 31.9218
77.6589 1007 31.7333
77.7755 1072 32.7414
77.8921 1045 32.3265
78.0088 1032 32.1248
78.1256 975 31.225
78.2423 965 31.0644
78.3591 950 30.8221
78.4759 948 30.7896
78.5928 991 31.4802
78.7097 1010 31.7805
78.8266 1103 33.2114
78.9436 1198 34.6121
79.0606 1163 34.1028
79.1776 1163 34.1028
79.2946 1209 34.7707
79.4117 1156 34
79.5288 1155 33.9853
79.6459 1108 33.2866
79.7631 1071 32.7261
79.8802 918 30.2985
79.9974 889 29.8161
80.1147 807 28.4077
80.2319 694 26.3439
80.3491 671 25.9037
80.4664 667 25.8263
80.5837 745 27.2947
80.701 773 27.8029
80.8183 890 29.8329
80.9357 907 30.1164
81.053 908 30.133
81.1704 960 30.9839
81.2877 914 30.2324
81.4051 911 30.1828
81.5225 841 29
81.6399 812 28.4956
81.7573 820 28.6356
81.8747 773 27.8029
81.9922 776 27.8568
82.1096 844 29.0517
82.227 910 30.1662
82.3444 926 30.4302
82.4619 971 31.1609
82.5793 1003 31.6702
82.6967 1044 32.311
82.8142 996 31.5595
82.9316 1014 31.8434
83.049 1029 32.078
83.1664 977 31.257
83.2838 935 30.5778
83.4012 827 28.7576
83.5186 774 27.8209
83.636 707 26.5895
83.7534 626 25.02
83.8708 580 24.0832
83.9881 567 23.8118
84.1055 587 24.2281
84.2228 670 25.8844
84.3401 639 25.2784
84.4575 764 27.6405
84.5747 820 28.6356
84.692 878 29.6311
84.8093 864 29.3939
84.9265 836 28.9137
85.0437 780 27.9285
85.1609 827 28.7576
85.2781 748 27.3496
85.3952 764 27.6405
85.5123 810 28.4605
85.6294 803 28.3373
85.7465 867 29.4449
85.8636 889 29.8161
85.9806 954 30.8869
86.0976 982 31.3369
86.2145 1021 31.9531
86.3315 1120 33.4664
86.4484 1079 32.8481
86.5652 1057 32.5115
86.682 1046 32.3419
86.7988 1094 33.0757
86.9156 1046 32.3419
87.0323 944 30.7246
87.149 867 29.4449
87.2657 844 29.0517
87.3823 772 27.7849
87.4988 730 27.0185
87.6154 738 27.1662
87.7318 693 26.3249
87.8483 836 28.9137
87.9647 912 30.1993
88.081 970 31.1448
88.1973 1053 32.45
88.3136 1023 31.9844
88.4298 973 31.1929
88.546 991 31.4802
88.6621 1013 31.8277
88.7781 966 31.0805
88.8942 0 1
89.0101 0 1
89.126 0 1
89.2419 0 1
89.3577 0 1
89.4734 0 1
89.5891 0 1
89.7047 0 1
89.8203 0 1
89.9358 0 1
92.3269 0 1
92.4424 0 1
92.558 0 1
92.6736 0 1
92.7893 0 1
92.905 0 1
93.0208 0 1
93.1366 0 1
93.2525 0 1
93.3685 0 1
93.4845 0 1
93.6005 958 30.9516
93.7167 1012 31.8119
93.8328 1062 32.5883
93.949 995 31.5436
94.0653 944 30.7246
94.1816 891 29.8496
94.2979 910 30.1662
94.4143 884 29.7321
94.5307 901 30.0167
94.6472 1004 31.686
94.7637 994 31.5278
94.8803 1002 31.6544
94.9969 1080 32.8634
95.1135 1109 33.3017
95.2302 1185 34.4238
95.3469 1247 35.3129
95.4637 1214 34.8425
95.5805 1270 35.6371
95.6973 1264 35.5528
95.8142 1204 34.6987
95.9311 1159 34.0441
96.048 1126 33.5559
96.1649 1120 33.4664
96.2819 1005 31.7017
96.3989 911 30.1828
96.516 877 29.6142
96.633 798 28.2489
96.7501 732 27.0555
96.8673 809 28.4429
96.9844 843 29.0345
97.1016 923 30.3809
97.2188 975 31.225
97.336 1061 32.573
97.4532 1047 32.3574
97.5704 1033 32.1403
97.6877 992 31.496
97.805 964 31.0483
97.9223 927 30.4467
98.0396 944 30.7246
98.1569 917 30.282
98.2743 914 30.2324
98.3916 954 30.8869
98.509 1054 32.4654
98.6264 1028 32.0624
98.7438 1094 33.0757
98.8612 1127 33.5708
98.9786 1178 34.322
99.096 1254 35.4119
99.2134 1217 34.8855
99.3308 1183 34.3948
99.4482 1186 34.4384
99.5656 1167 34.1614
99.6831 1101 33.1813
99.8005 1050 32.4037
99.9179 976 31.241
100.035 886 29.7658
100.153 847 29.1033
100.27 795 28.1957
100.388 798 28.2489
100.505 820 28.6356
100.622 867 29.4449
100.74 924 30.3974
100.857 922 30.3645
100.975 1032 32.1248
101.092 1052 32.4345
101.209 1000 31.6228
101.327 939 30.6431
101.444 909 30.1496
101.561 887 29.7825
101.679 912 30.1993
101.796 851 29.1719
101.913 1013 31.8277
102.03 1029 32.078
102.148 1179 34.3366
102.265 1185 34.4238
102.382 1280 35.7771
102.499 1271 35.6511
102.616 1248 35.327
102.733 1252 35.3836
102.851 1246 35.2987
102.968 1367 36.973
103.085 1209 34.7707
103.202 1258 35.4683
103.319 1102 33.1964
103.436 1053 32.45
103.552 1007 31.7333
103.669 908 30.133
103.786 828 28.775
103.903 826 28.7402
104.02 875 29.5804
104.137 997 31.5753
104.253 1091 33.0303
104.37 1095 33.0908
104.487 1082 32.8938
104.603 1122 33.4963
104.72 1117 33.4215
104.836 1047 32.3574
104.953 1010 31.7805
105.069 977 31.257
105.186 962 31.0161
105.302 1023 31.9844
105.418 1084 32.9242
105.535 1183 34.3948
105.651 1263 35.5387
105.767 1381 37.1618
105.883 1383 37.1887
105.999 1378 37.1214
106.115 0 1
106.231 0 1
106.347 0 1
106.463 0 1
106.579 0 1
106.694 0 1
106.81 0 1
106.926 0 1
107.041 0 1
107.157 0 1
109.576 0 1
109.692 0 1
109.807 0 1
109.923 0 1
110.039 0 1
110.155 0 1
110.27 0 1
110.386 0 1
110.502 0 1
110.618 1064 32.619
110.735 1255 35.426
110.851 1218 34.8999
110.967 1393 37.3229
111.083 1379 37.1349
111.199 1355 36.8103
111.316 1305 36.1248
111.432 1370 37.0135
111.549 1367 36.973
111.665 1276 35.7211
111.782 1265 35.5668
111.898 1220 34.9285
112.015 1167 34.1614
112.132 1017 31.8904
112.248 919 30.315
112.365 886 29.7658
112.482 911 30.1828
112.599 889 29.8161
112.716 996 31.5595
112.832 1076 32.8024
112.949 1085 32.9393
113.066 1088 32.9848
113.183 1103 33.2114
113.3 1013 31.8277
113.417 1003 31.6702
113.534 960 30.9839
113.652 943 30.7083
113.769 906 30.0998
113.886 969 31.1288
114.003 1022 31.9687
114.12 1122 33.4963
114.238 1141 33.7787
114.355 1264 35.5528
114.472 1316 36.2767
114.589 1326 36.4143
114.707 1306 36.1386
114.824 1330 36.4692
114.942 1358 36.8511
115.059 1376 37.0945
115.176 1337 36.565
115.294 1224 34.9857
115.411 1188 34.4674
115.529 1226 35.0143
115.646 1097 33.121
115.764 1021 31.9531
115.881 958 30.9516
115.999 880 29.6648
116.116 1064 32.619
116.234 1028 32.0624
116.351 1124 33.5261
116.469 1035 32.1714
116.586 1138 33.7343
116.704 1121 33.4813
116.821 1114 33.3766
116.939 1047 32.3574
117.056 979 31.289
117.174 999 31.607
117.291 940 30.6594
117.409 963 31.0322
117.526 1113 33.3617
117.644 1137 33.7194
117.761 1229 35.0571
117.879 1335 36.5377
117.996 1344 36.6606
118.114 1380 37.1484
118.231 1410 37.55
118.349 1386 37.229
118.466 1436 37.8946
118.584 1390 37.2827
118.701 1342 36.6333
118.819 1404 37.47
118.936 1244 35.2704
119.053 1237 35.171
119.171 1215 34.8569
119.288 1149 33.8969
119.405 1063 32.6037
119.523 961 31
119.64 1031 32.1092
119.757 1029 32.078
119.875 1046 32.3419
119.992 1072 32.7414
120.109 1167 34.1614
120.226 1075 32.7872
120.343 1081 32.8786
120.46 1076 32.8024
120.578 1066 32.6497
120.695 1040 32.249
120.812 1067 32.665
120.929 1048 32.3728
121.046 1018 31.9061
121.163 1101 33.1813
121.279 1076 32.8024
121.396 1227 35.0286
121.513 1293 35.9583
121.63 1346 36.6879
121.747 1334 36.524
121.863 1416 37.6298
121.98 1455 38.1445
122.097 1365 36.9459
122.213 1464 38.2623
122.33 1376 37.0945
122.446 1319 36.318
122.563 1259 35.4824
122.679 1331 36.4829
122.795 1248 35.327
122.912 1136 33.7046
123.028 1138 33.7343
123.144 1047 32.3574
123.26 1033 32.1403
123.377 0 1
123.493 0 1
123.609 0 1
123.725 0 1
123.84 0 1
123.956 0 1
124.072 0 1
124.188 0 1
124.303 0 1
124.419 0 1
126.852 0 1
126.968 0 1
127.083 0 1
127.199 0 1
127.315 0 1
127.431 0 1
127.547 0 1
127.663 0 1
127.779 0 1
127.895 0 1
128.011 0 1
128.127 0 1
128.243 0 1
128.359 1120 33.4664
128.476 1170 34.2053
128.592 1101 33.1813
128.708 1114 33.3766
128.825 1167 34.1614
128.941 1245 35.2846
129.058 1215 34.8569
129.174 1239 35.1994
129.291 1199 34.6266
129.408 1186 34.4384
129.524 1196 34.5832
129.641 1128 33.5857
129.758 1132 33.6452
129.875 1180 34.3511
129.992 1122 33.4963
130.108 1188 34.4674
130.225 1251 35.3695
130.342 1342 36.6333
130.459 1310 36.1939
130.576 1472 38.3667
130.693 1430 37.8153
130.81 1470 38.3406
130.928 1448 38.0526
131.045 1438 37.921
131.162 1410 37.55
131.279 1367 36.973
131.396 1460 38.2099
131.513 1383 37.1887
131.631 1402 37.4433
131.748 1301 36.0694
131.865 1285 35.8469
131.983 1148 33.8821
132.1 1123 33.5112
132.217 1201 34.6554
132.335 1215 34.8569
132.452 1237 35.171
132.57 1258 35.4683
132.687 1265 35.5668
132.804 1285 35.8469
132.922 1237 35.171
133.039 1219 34.9142
133.157 1155 33.9853
133.274 1191 34.5109
133.392 1134 33.6749
133.509 1166 34.1467
133.627 1175 34.2783
133.744 1238 35.1852
133.862 1313 36.2353
133.979 1337 36.565
134.097 1437 37.9078
134.214 1390 37.2827
134.332 1450 38.0789
134.449 1380 37.1484
134.567 1425 37.7492
134.684 1447 38.0395
134.802 1425 37.7492
134.919 1447 38.0395
135.037 1419 37.6696
135.154 1298 36.0278
135.272 1325 36.4005
135.389 1190 34.4964
135.507 1149 33.8969
135.624 1137 33.7194
135.742 1162 34.0881
135.859 1195 34.5688
135.977 1235 35.1426
136.094 1270 35.6371
136.211 1324 36.3868
136.329 1244 35.2704
136.446 1232 35.0999
136.564 1131 33.6303
136.681 1198 34.6121
136.798 1148 33.8821
136.915 1210 34.7851
137.033 1135 33.6898
137.15 1193 34.5398
137.267 1184 34.4093
137.384 1248 35.327
137.502 1292 35.9444
137.619 1311 36.2077
137.736 1415 37.6165
137.853 1341 36.6197
137.97 1418 37.6563
138.087 1390 37.2827
138.204 1415 37.6165
138.321 1405 37.4833
138.438 1477 38.4318
138.555 1386 37.229
138.672 1425 37.7492
138.788 1407 37.51
138.905 1318 36.3043
139.022 1256 35.4401
139.139 1235 35.1426
139.255 1167 34.1614
139.372 1192 34.5254
139.488 1205 34.7131
139.605 1219 34.9142
139.721 1310 36.1939
139.838 1281 35.7911
139.954 1240 35.2136
140.071 1225 35
140.187 1234 35.1283
140.303 1225 35
140.419 1078 32.8329
140.535 1115 33.3916
140.652 1151 33.9264
140.768 0 1
140.884 0 1
141 0 1
141.115 0 1
141.231 0 1
141.347 0 1
141.463 0 1
141.578 0 1
141.694 0 1
144.104 0 1
144.219 0 1
144.335 0 1
144.45 0 1
144.566 0 1
144.682 0 1
144.798 0 1
144.914 0 1
145.03 0 1
145.146 890 29.8329
145.262 932 30.5287
145.378 965 31.0644
145.494 979 31.289
145.61 920 30.3315
145.726 1000 31.6228
145.842 893 29.8831
145.959 989 31.4484
146.075 934 30.5614
146.192 945 30.7409
146.308 914 30.2324
146.425 993 31.5119
146.541 1084 32.9242
146.658 1023 31.9844
146.774 1120 33.4664
146.891 1109 33.3017
147.008 1104 33.2265
147.125 1102 33.1964
147.241 1138 33.7343
147.358 1128 33.5857
147.475 1164 34.1174
147.592 1080 32.8634
147.709 1112 33.3467
147.826 1074 32.7719
147.943 1006 31.7175
148.06 951 30.8383
148.177 919 30.315
148.294 1000 31.6228
148.411 1005 31.7017
148.528 1082 32.8938
148.645 1054 32.4654
148.762 1027 32.0468
148.88 1030 32.0936
148.997 1005 31.7017
149.114 1068 32.6803
149.231 1022 31.9687
149.349 1015 31.8591
149.466 1013 31.8277
149.583 939 30.6431
149.701 959 30.9677
149.818 994 31.5278
149.935 1022 31.9687
150.053 1003 31.6702
150.17 1035 32.1714
150.287 1102 33.1964
150.405 1118 33.4365
150.522 1106 33.2566
150.64 1149 33.8969
150.757 1171 34.2199
150.875 1199 34.6266
150.992 1179 34.3366
151.11 1249 35.3412
151.227 1170 34.2053
151.344 1155 33.9853
151.462 1063 32.6037
151.579 1097 33.121
151.697 1098 33.1361
151.814 973 31.1929
151.932 978 31.273
152.049 1063 32.6037
152.167 1115 33.3916
152.284 1139 33.7491
152.402 1040 32.249
152.519 1060 32.5576
152.636 1080 32.8634
152.754 1091 33.0303
152.871 1116 33.4066
152.989 1035 32.1714
153.106 1085 32.9393
153.223 982 31.3369
153.341 1049 32.3883
153.458 1079 32.8481
153.575 1090 33.0151
153.693 1080 32.8634
153.81 1160 34.0588
153.927 1112 33.3467
154.044 1164 34.1174
154.162 1202 34.6699
154.279 1308 36.1663
154.396 1251 35.3695
154.513 1319 36.318
154.63 1367 36.973
154.747 1341 36.6197
154.864 1282 35.805
154.981 1278 35.7491
155.098 1247 35.3129
155.215 1211 34.7994
155.332 1161 34.0735
155.449 1132 33.6452
155.566 1219 34.9142
155.683 1196 34.5832
155.8 1263 35.5387
155.917 1178 34.322
156.033 1232 35.0999
156.15 0 1
156.267 0 1
156.383 0 1
156.5 0 1
156.617 0 1
156.733 0 1
156.85 0 1
156.966 0 1
157.082 0 1
157.199 0 1
157.315 0 1
157.431 0 1
157.547 0 1
157.664 0 1
157.78 0 1
157.896 0 1
158.012 0 1
158.128 0 1
158.244 0 1
158.359 0 1
158.475 0 1
158.591 0 1
158.706 0 1
