
6.15755 0 1
6.2731 0 1
6.3887 0 1
6.50437 0 1
6.62009 0 1
6.73587 0 1
6.8517 0 1
6.96759 0 1
7.08353 0 1
7.19952 0 1
7.31557 0 1
7.43166 0 1
7.54781 0 1
7.664 0 1
7.78024 0 1
7.89653 0 1
8.01286 0 1
8.12924 0 1
8.24567 0 1
8.36213 0 1
8.47864 0 1
8.59519 0 1
8.71178 0 1
8.82841 0 1
8.94508 0 1
9.06179 0 1
9.17853 0 1
9.29531 0 1
9.41212 0 1
9.52897 0 1
9.64584 0 1
9.76276 0 1
9.8797 0 1
9.99667 0 1
10.1137 0 1
10.2307 0 1
10.3478 0 1
10.4648 0 1
10.5819 0 1
10.6991 0 1
10.8162 0 1
10.9334 0 1
11.0506 0 1
11.1678 0 1
11.285 0 1
11.4023 0 1
11.5196 0 1
11.6369 0 1
11.7542 0 1
11.8715 0 1
11.9888 0 1
12.1062 0 1
12.2235 0 1
12.3409 0 1
12.4582 0 1
12.5756 0 1
12.693 0 1
12.8104 0 1
12.9278 0 1
13.0452 0 1
13.1626 0 1
13.28 0 1
13.3974 0 1
13.5149 0 1
13.6323 0 1
13.7497 0 1
13.8671 0 1
13.9845 0 1
14.1019 0 1
14.2193 0 1
14.3367 0 1
14.4541 0 1
14.5714 0 1
14.6888 0 1
14.8062 0 1
14.9235 0 1
15.0408 0 0
15.1581 0 0
15.2755 0 0
15.3927 0 0
15.51 0 0
15.6273 0 0
15.7445 0 0
15.8617 0 0
15.9789 0 0
16.0961 0 0
16.2132 0 0
16.3304 0 0
16.4475 0 0
16.5646 0 0
16.6816 0 0
16.7986 0 0
16.9156 0 0
17.0326 0 0
17.1496 0 0
17.2665 0 0
17.3833 0 0
17.5002 0 0
17.617 0 0
17.7338 0 0
17.8505 0 0
17.9672 0 0
18.0839 0 0
18.2005 0 0
18.3171 0 0
18.4337 0 0
18.5502 0 0
18.6666 0 0
18.7831 0 0
18.8994 0 0
19.0158 0 0
19.1321 0 0
19.2483 0 0
19.3645 0 0
19.4806 0 0
19.5967 0 0
19.7128 0 0
19.8288 0 0
19.9447 0 0
20.0606 0 1
20.1764 0 1
20.2922 0 1
20.4079 0 1
20.5236 0 1
20.6392 0 1
20.7548 0 1
20.8702 0 1
23.3078 0 1
23.4233 0 1
23.539 0 1
23.6547 0 1
23.7704 0 1
23.8862 0 1
24.0021 0 1
24.118 0 1
24.234 0 1
24.35 0 1
24.4661 2380 48.7852
24.5822 2559 50.5866
24.6984 2507 50.07
24.8146 2451 49.5076
24.9309 2659 51.5655
25.0472 2543 50.4282
25.1636 2613 51.1175
25.28 2625 51.2348
25.3965 2753 52.469
25.513 2787 52.792
25.6296 2710 52.0577
25.7462 2672 51.6914
25.8628 2547 50.4678
25.9795 2504 50.04
26.0962 2496 49.96
26.213 2465 49.6488
26.3298 2409 49.0816
26.4466 2354 48.518
26.5635 2348 48.4562
26.6804 2264 47.5815
26.7973 2302 47.9792
26.9143 2174 46.6262
27.0313 2128 46.1303
27.1483 2030 45.0555
27.2653 2026 45.0111
27.3824 2051 45.288
27.4996 2044 45.2106
27.6167 2203 46.9361
27.7339 2178 46.669
27.8511 2207 46.9787
27.9683 2342 48.3942
28.0855 2405 49.0408
28.2028 2467 49.6689
28.3201 2466 49.6588
28.4374 2412 49.1121
28.5547 2365 48.6313
28.6721 2401 49
28.7894 2247 47.4025
28.9068 2219 47.1063
29.0242 2180 46.6905
29.1416 2114 45.9783
29.259 2025 45
29.3764 2112 45.9565
29.4939 2068 45.4753
29.6113 1985 44.5533
29.7288 1992 44.6318
29.8463 2093 45.7493
29.9638 2014 44.8776
30.0812 2108 45.913
30.1987 2011 44.8442
30.3162 2052 45.299
30.4337 2040 45.1664
30.5512 2035 45.111
30.6687 1999 44.7102
30.7862 1966 44.3396
30.9037 2083 45.6399
31.0212 2183 46.7226
31.1387 2308 48.0416
31.2562 2278 47.7284
31.3737 2261 47.55
31.4912 2312 48.0833
31.6087 2327 48.239
31.7262 2343 48.4045
31.8436 2324 48.2079
31.9611 2195 46.8508
32.0785 2140 46.2601
32.1959 2040 45.1664
32.3134 1953 44.1928
32.4308 1975 44.441
32.5482 1866 43.1972
32.6655 1796 42.3792
32.7829 1748 41.8091
32.9002 1737 41.6773
33.0176 1693 41.1461
33.1349 1649 40.6079
33.2522 1733 41.6293
33.3694 1696 41.1825
33.4867 1673 40.9023
33.6039 1746 41.7852
33.7211 1782 42.2137
33.8383 1769 42.0595
33.9554 1858 43.1045
34.0725 1920 43.8178
34.1896 1818 42.638
34.3067 1860 43.1277
34.4237 1814 42.5911
34.5407 1771 42.0833
34.6577 1862 43.1509
34.7746 1863 43.1625
34.8915 1799 42.4146
35.0084 1753 41.8688
35.1252 1809 42.5323
35.242 1769 42.0595
35.3587 1872 43.2666
35.4755 1675 40.9268
35.5921 1700 41.2311
35.7088 1655 40.6817
35.8254 1630 40.3733
35.9419 1662 40.7676
36.0584 1516 38.9358
36.1749 1531 39.128
36.2913 1534 39.1663
36.4077 1483 38.5097
36.524 1538 39.2173
36.6403 1473 38.3797
36.7565 1472 38.3667
36.8727 1444 38
36.9889 1442 37.9737
37.1049 1470 38.3406
37.221 0 1
37.3369 0 1
37.4529 0 1
37.5687 0 1
37.6845 0 1
37.8003 0 1
37.916 0 1
38.0316 0 1
38.1472 0 1
40.5851 0 1
40.7008 0 1
40.8164 0 1
40.9322 0 1
41.048 0 1
41.1639 0 1
41.2798 0 1
41.3958 0 1
41.5118 0 1
41.6279 0 1
41.744 1202 34.6699
41.8602 1224 34.9857
41.9765 1270 35.6371
42.0928 1182 34.3802
42.2091 1298 36.0278
42.3255 1186 34.4384
42.4419 1230 35.0714
42.5584 1178 34.322
42.675 1200 34.641
42.7915 1114 33.3766
42.9081 1037 32.2025
43.0248 966 31.0805
43.1415 922 30.3645
43.2582 961 31
43.375 946 30.7571
43.4918 958 30.9516
43.6087 898 29.9666
43.7256 923 30.3809
43.8425 919 30.315
43.9595 958 30.9516
44.0765 952 30.8545
44.1935 995 31.5436
44.3106 925 30.4138
44.4277 962 31.0161
44.5448 910 30.1662
44.6619 932 30.5287
44.7791 908 30.133
44.8963 901 30.0167
45.0136 890 29.8329
45.1308 913 30.2159
45.2481 976 31.241
45.3654 898 29.9666
45.4827 950 30.8221
45.6001 923 30.3809
45.7174 874 29.5635
45.8348 861 29.3428
45.9522 822 28.6705
46.0697 804 28.3549
46.1871 797 28.2312
46.3046 760 27.5681
46.422 732 27.0555
46.5395 685 26.1725
46.657 644 25.3772
46.7745 609 24.6779
46.892 635 25.1992
47.0096 654 25.5734
47.1271 611 24.7184
47.2446 647 25.4362
47.3622 689 26.2488
47.4797 666 25.807
47.5973 628 25.0599
47.7149 625 25
47.8324 633 25.1595
47.95 661 25.7099
48.0675 643 25.3574
48.1851 633 25.1595
48.3027 609 24.6779
48.4202 620 24.8998
48.5378 648 25.4558
48.6554 625 25
48.7729 679 26.0576
48.8904 693 26.3249
49.008 656 25.6125
49.1255 650 25.4951
49.243 619 24.8797
49.3605 686 26.1916
49.478 631 25.1197
49.5955 668 25.8457
49.713 633 25.1595
49.8304 597 24.4336
49.9479 604 24.5764
50.0653 589 24.2693
50.1827 557 23.6008
50.3001 570 23.8747
50.4175 541 23.2594
50.5348 577 24.0208
50.6521 677 26.0192
50.7694 707 26.5895
50.8867 677 26.0192
51.004 679 26.0576
51.1212 726 26.9444
51.2384 717 26.7769
51.3556 757 27.5136
51.4727 743 27.258
51.5899 760 27.5681
51.707 734 27.0924
51.824 772 27.7849
51.9411 759 27.55
52.0581 804 28.3549
52.175 827 28.7576
52.2919 796 28.2135
52.4088 830 28.8097
52.5257 855 29.2404
52.6425 875 29.5804
52.7593 883 29.7153
52.876 858 29.2916
52.9927 804 28.3549
53.1094 844 29.0517
53.226 796 28.2135
53.3426 865 29.4109
53.4591 790 28.1069
53.5756 825 28.7228
53.692 822 28.6705
53.8084 729 27
53.9248 723 26.8887
54.0411 726 26.9444
54.1573 768 27.7128
54.2735 0 1
54.3896 0 1
54.5057 0 1
54.6217 0 1
54.7377 0 1
54.8537 0 1
54.9695 0 1
55.0853 0 1
55.2011 0 1
55.3168 0 1
55.4324 0 1
57.824 0 1
57.9396 0 1
58.0553 0 1
58.1711 0 1
58.2869 0 1
58.4028 0 1
58.5187 0 1
58.6347 0 1
58.7508 0 1
58.8669 0 1
58.983 923 30.3809
59.0992 936 30.5941
59.2155 872 29.5296
59.3318 942 30.692
59.4482 974 31.209
59.5646 997 31.5753
59.681 1108 33.2866
59.7975 1064 32.619
59.9141 1124 33.5261
60.0306 1099 33.1512
60.1473 1113 33.3617
60.2639 1160 34.0588
60.3807 1208 34.7563
60.4974 1196 34.5832
60.6142 1159 34.0441
60.731 1178 34.322
60.8479 1247 35.3129
60.9648 1250 35.3553
61.0818 1287 35.8748
61.1987 1255 35.426
61.3158 1241 35.2278
61.4328 1166 34.1467
61.5499 1201 34.6554
61.667 1204 34.6987
61.7841 1149 33.8969
61.9013 1222 34.9571
62.0185 1194 34.5543
62.1357 1185 34.4238
62.253 1124 33.5261
62.3702 1162 34.0881
62.4875 1062 32.5883
62.6049 1112 33.3467
62.7222 1090 33.0151
62.8396 1161 34.0735
62.9569 1190 34.4964
63.0743 1119 33.4515
63.1918 1206 34.7275
63.3092 1283 35.819
63.4267 1296 36
63.5441 1268 35.609
63.6616 1236 35.1568
63.7791 1269 35.623
63.8966 1267 35.5949
64.0142 1271 35.6511
64.1317 1310 36.1939
64.2492 1340 36.606
64.3668 1380 37.1484
64.4843 1297 36.0139
64.6019 1227 35.0286
64.7195 1356 36.8239
64.837 1281 35.7911
64.9546 1342 36.6333
65.0722 1234 35.1283
65.1898 1261 35.5106
65.3074 1254 35.4119
65.4249 1219 34.9142
65.5425 1250 35.3553
65.6601 1205 34.7131
65.7777 1214 34.8425
65.8952 1120 33.4664
66.0128 1047 32.3574
66.1304 990 31.4643
66.2479 1002 31.6544
66.3655 1008 31.749
66.483 1044 32.311
66.6005 985 31.3847
66.718 1003 31.6702
66.8355 1030 32.0936
66.953 1080 32.8634
67.0705 1107 33.2716
67.1879 1067 32.665
67.3054 1054 32.4654
67.4228 1099 33.1512
67.5402 1056 32.4962
67.6576 1080 32.8634
67.7749 1118 33.4365
67.8923 1024 32
68.0096 1088 32.9848
68.1269 1059 32.5423
68.2442 1111 33.3317
68.3614 1029 32.078
68.4787 1033 32.1403
68.5958 1059 32.5423
68.713 1086 32.9545
68.8302 979 31.289
68.9473 966 31.0805
69.0643 1011 31.7962
69.1814 958 30.9516
69.2984 965 31.0644
69.4154 968 31.1127
69.5323 953 30.8707
69.6492 826 28.7402
69.7661 818 28.6007
69.8829 799 28.2666
69.9997 872 29.5296
70.1165 842 29.0172
70.2332 869 29.4788
70.3499 825 28.7228
70.4665 860 29.3258
70.5831 810 28.4605
70.6996 864 29.3939
70.8161 830 28.8097
70.9326 866 29.4279
71.049 830 28.8097
71.1653 869 29.4788
71.2817 878 29.6311
71.3979 872 29.5296
71.5141 845 29.0689
71.6303 865 29.4109
71.7464 745 27.2947
71.8624 0 1
71.9784 0 1
72.0944 0 1
72.2102 0 1
72.3261 0 1
72.4418 0 1
72.5575 0 1
72.6732 0 1
75.1054 0 1
75.2209 0 1
75.3365 0 1
75.4521 0 1
75.5678 0 1
75.6835 0 1
75.7993 0 1
75.9151 0 1
76.031 0 1
76.147 680 26.0768
76.263 804 28.3549
76.3791 849 29.1376
76.4952 861 29.3428
76.6113 839 28.9655
76.7276 863 29.3769
76.8438 851 29.1719
76.9601 888 29.7993
77.0765 916 30.2655
77.1929 965 31.0644
77.3093 954 30.8869
77.4258 916 30.2655
77.5423 952 30.8545
77.6589 951 30.8383
77.7755 1008 31.749
77.8921 950 30.8221
78.0088 951 30.8383
78.1256 920 30.3315
78.2423 920 30.3315
78.3591 923 30.3809
78.4759 881 29.6816
78.5928 840 28.9828
78.7097 804 28.3549
78.8266 762 27.6043
78.9436 757 27.5136
79.0606 710 26.6458
79.1776 748 27.3496
79.2946 775 27.8388
79.4117 812 28.4956
79.5288 821 28.6531
79.6459 876 29.5973
79.7631 937 30.6105
79.8802 882 29.6985
79.9974 933 30.545
80.1147 873 29.5466
80.2319 927 30.4467
80.3491 887 29.7825
80.4664 1003 31.6702
80.5837 940 30.6594
80.701 969 31.1288
80.8183 1014 31.8434
80.9357 1012 31.8119
81.053 1002 31.6544
81.1704 991 31.4802
81.2877 960 30.9839
81.4051 966 31.0805
81.5225 935 30.5778
81.6399 952 30.8545
81.7573 921 30.348
81.8747 906 30.0998
81.9922 848 29.1204
82.1096 926 30.4302
82.227 833 28.8617
82.3444 808 28.4253
82.4619 785 28.0179
82.5793 759 27.55
82.6967 806 28.3901
82.8142 781 27.9464
82.9316 780 27.9285
83.049 827 28.7576
83.1664 784 28
83.2838 845 29.0689
83.4012 874 29.5635
83.5186 884 29.7321
83.636 893 29.8831
83.7534 895 29.9166
83.8708 888 29.7993
83.9881 923 30.3809
84.1055 909 30.1496
84.2228 893 29.8831
84.3401 1000 31.6228
84.4575 1001 31.6386
84.5747 972 31.1769
84.692 982 31.3369
84.8093 967 31.0966
84.9265 988 31.4325
85.0437 948 30.7896
85.1609 898 29.9666
85.2781 945 30.7409
85.3952 884 29.7321
85.5123 927 30.4467
85.6294 939 30.6431
85.7465 866 29.4279
85.8636 883 29.7153
85.9806 788 28.0713
86.0976 775 27.8388
86.2145 759 27.55
86.3315 751 27.4044
86.4484 859 29.3087
86.5652 829 28.7924
86.682 952 30.8545
86.7988 831 28.8271
86.9156 943 30.7083
87.0323 961 31
87.149 979 31.289
87.2657 920 30.3315
87.3823 927 30.4467
87.4988 970 31.1448
87.6154 1018 31.9061
87.7318 1027 32.0468
87.8483 1053 32.45
87.9647 1137 33.7194
88.081 1039 32.2335
88.1973 1106 33.2566
88.3136 1110 33.3167
88.4298 1085 32.9393
88.546 1045 32.3265
88.6621 1058 32.5269
88.7781 978 31.273
88.8942 0 1
89.0101 0 1
89.126 0 1
89.2419 0 1
89.3577 0 1
89.4734 0 1
89.5891 0 1
89.7047 0 1
89.8203 0 1
89.9358 0 1
92.3269 0 1
92.4424 0 1
92.558 0 1
92.6736 0 1
92.7893 0 1
92.905 0 1
93.0208 0 1
93.1366 0 1
93.2525 0 1
93.3685 0 1
93.4845 0 1
93.6005 1053 32.45
93.7167 1070 32.7109
93.8328 1103 33.2114
93.949 1130 33.6155
94.0653 1073 32.7567
94.1816 1083 32.909
94.2979 1054 32.4654
94.4143 1065 32.6343
94.5307 1055 32.4808
94.6472 1030 32.0936
94.7637 983 31.3528
94.8803 996 31.5595
94.9969 962 31.0161
95.1135 946 30.7571
95.2302 935 30.5778
95.3469 930 30.4959
95.4637 926 30.4302
95.5805 903 30.05
95.6973 947 30.7734
95.8142 960 30.9839
95.9311 967 31.0966
96.048 979 31.289
96.1649 1026 32.0312
96.2819 1080 32.8634
96.3989 1058 32.5269
96.516 1156 34
96.633 1217 34.8855
96.7501 1136 33.7046
96.8673 1256 35.4401
96.9844 1204 34.6987
97.1016 1204 34.6987
97.2188 1165 34.1321
97.336 1206 34.7275
97.4532 1300 36.0555
97.5704 1269 35.623
97.6877 1229 35.0571
97.805 1251 35.3695
97.9223 1275 35.7071
98.0396 1191 34.5109
98.1569 1200 34.641
98.2743 1144 33.8231
98.3916 1114 33.3766
98.509 1118 33.4365
98.6264 1093 33.0606
98.7438 1047 32.3574
98.8612 970 31.1448
98.9786 975 31.225
99.096 923 30.3809
99.2134 939 30.6431
99.3308 1004 31.686
99.4482 1044 32.311
99.5656 1024 32
99.6831 1086 32.9545
99.8005 1080 32.8634
99.9179 1058 32.5269
100.035 1135 33.6898
100.153 1094 33.0757
100.27 1176 34.2929
100.388 1157 34.0147
100.505 1192 34.5254
100.622 1269 35.623
100.74 1246 35.2987
100.857 1297 36.0139
100.975 1338 36.5787
101.092 1345 36.6742
101.209 1325 36.4005
101.327 1404 37.47
101.444 1269 35.623
101.561 1211 34.7994
101.679 1250 35.3553
101.796 1222 34.9571
101.913 1208 34.7563
102.03 1147 33.8674
102.148 1167 34.1614
102.265 1218 34.8999
102.382 1119 33.4515
102.499 1074 32.7719
102.616 1044 32.311
102.733 1128 33.5857
102.851 1138 33.7343
102.968 1039 32.2335
103.085 1145 33.8378
103.202 1140 33.7639
103.319 1179 34.3366
103.436 1200 34.641
103.552 1240 35.2136
103.669 1318 36.3043
103.786 1309 36.1801
103.903 1374 37.0675
104.02 1397 37.3765
104.137 1300 36.0555
104.253 1474 38.3927
104.37 1459 38.1969
104.487 1495 38.6652
104.603 1504 38.7814
104.72 1483 38.5097
104.836 1533 39.1535
104.953 1470 38.3406
105.069 1430 37.8153
105.186 1430 37.8153
105.302 1458 38.1838
105.418 1380 37.1484
105.535 1404 37.47
105.651 1461 38.223
105.767 1341 36.6197
105.883 1395 37.3497
105.999 1372 37.0405
106.115 0 1
106.231 0 1
106.347 0 1
106.463 0 1
106.579 0 1
106.694 0 1
106.81 0 1
106.926 0 1
107.041 0 1
107.157 0 1
109.576 0 1
109.692 0 1
109.807 0 1
109.923 0 1
110.039 0 1
110.155 0 1
110.27 0 1
110.386 0 1
110.502 0 1
110.618 1953 44.1928
110.735 1992 44.6318
110.851 1976 44.4522
110.967 1850 43.0116
111.083 1801 42.4382
111.199 1725 41.5331
111.316 1784 42.2374
111.432 1888 43.4511
111.549 1876 43.3128
111.665 1874 43.2897
111.782 1913 43.7379
111.898 1941 44.0568
112.015 2040 45.1664
112.132 2013 44.8665
112.248 2020 44.9444
112.365 2077 45.5741
112.482 2013 44.8665
112.599 2041 45.1774
112.716 2006 44.7884
112.832 2039 45.1553
112.949 2112 45.9565
113.066 2093 45.7493
113.183 2101 45.8367
113.3 1998 44.699
113.417 1978 44.4747
113.534 2061 45.3982
113.652 1996 44.6766
113.769 1961 44.2832
113.886 1915 43.7607
114.003 1927 43.8976
114.12 1939 44.0341
114.238 1855 43.0697
114.355 1788 42.2847
114.472 1756 41.9047
114.589 1688 41.0853
114.707 1587 39.8372
114.824 1627 40.3361
114.942 1629 40.3609
115.059 1684 41.0366
115.176 1727 41.5572
115.294 1713 41.3884
115.411 1693 41.1461
115.529 1903 43.6234
115.646 1906 43.6578
115.764 1837 42.8602
115.881 1923 43.852
115.999 1863 43.1625
116.116 1950 44.1588
116.234 1960 44.2719
116.351 1967 44.3509
116.469 1951 44.1701
116.586 2032 45.0777
116.704 2074 45.5412
116.821 2024 44.9889
116.939 2035 45.111
117.056 1993 44.643
117.174 1968 44.3621
117.291 1941 44.0568
117.409 1946 44.1135
117.526 1958 44.2493
117.644 1846 42.9651
117.761 1865 43.1856
117.879 1920 43.8178
117.996 1848 42.9884
118.114 1835 42.8369
118.231 1697 41.1947
118.349 1646 40.5709
118.466 1649 40.6079
118.584 1719 41.4608
118.701 1788 42.2847
118.819 1749 41.821
118.936 1794 42.3556
119.053 1830 42.7785
119.171 1782 42.2137
119.288 1930 43.9318
119.405 1842 42.9185
119.523 1845 42.9535
119.64 1950 44.1588
119.757 1911 43.715
119.875 1970 44.3847
119.992 1967 44.3509
120.109 1903 43.6234
120.226 1974 44.4297
120.343 1959 44.2606
120.46 1928 43.909
120.578 1959 44.2606
120.695 1955 44.2154
120.812 2041 45.1774
120.929 2025 45
121.046 1899 43.5775
121.163 1966 44.3396
121.279 1890 43.4741
121.396 1913 43.7379
121.513 1866 43.1972
121.63 1811 42.5558
121.747 1793 42.3438
121.863 1607 40.0874
121.98 1606 40.0749
122.097 1504 38.7814
122.213 1590 39.8748
122.33 1580 39.7492
122.446 1659 40.7308
122.563 1725 41.5331
122.679 1585 39.8121
122.795 1710 41.3521
122.912 1770 42.0714
123.028 1762 41.9762
123.144 1781 42.2019
123.26 1806 42.4971
123.377 0 1
123.493 0 1
123.609 0 1
123.725 0 1
123.84 0 1
123.956 0 1
124.072 0 1
124.188 0 1
124.303 0 1
124.419 0 1
126.852 0 1
126.968 0 1
127.083 0 1
127.199 0 1
127.315 0 1
127.431 0 1
127.547 0 1
127.663 0 1
127.779 0 1
127.895 0 1
128.011 0 1
128.127 0 1
128.243 0 1
128.359 1837 42.8602
128.476 1844 42.9418
128.592 1797 42.391
128.708 1759 41.9404
128.825 1788 42.2847
128.941 1659 40.7308
129.058 1786 42.2611
129.174 1708 41.328
129.291 1726 41.5452
129.408 1691 41.1218
129.524 1687 41.0731
129.641 1618 40.2244
129.758 1558 39.4715
129.875 1528 39.0896
129.992 1477 38.4318
130.108 1448 38.0526
130.225 1362 36.9053
130.342 1314 36.2491
130.459 1356 36.8239
130.576 1378 37.1214
130.693 1333 36.5103
130.81 1214 34.8425
130.928 1212 34.8138
131.045 1141 33.7787
131.162 1238 35.1852
131.279 1209 34.7707
131.396 1252 35.3836
131.513 1267 35.5949
131.631 1357 36.8375
131.748 1337 36.565
131.865 1290 35.9166
131.983 1351 36.756
132.1 1381 37.1618
132.217 1362 36.9053
132.335 1457 38.1707
132.452 1467 38.3014
132.57 1532 39.1408
132.687 1477 38.4318
132.804 1562 39.5221
132.922 1451 38.092
133.039 1575 39.6863
133.157 1499 38.7169
133.274 1463 38.2492
133.392 1451 38.092
133.509 1387 37.2424
133.627 1519 38.9744
133.744 1404 37.47
133.862 1436 37.8946
133.979 1419 37.6696
134.097 1480 38.4708
134.214 1396 37.3631
134.332 1331 36.4829
134.449 1368 36.9865
134.567 1264 35.5528
134.684 1356 36.8239
134.802 1361 36.8917
134.919 1433 37.855
135.037 1430 37.8153
135.154 1443 37.9868
135.272 1502 38.7556
135.389 1469 38.3275
135.507 1534 39.1663
135.624 1571 39.6358
135.742 1649 40.6079
135.859 1577 39.7115
135.977 1571 39.6358
136.094 1637 40.4599
136.211 1718 41.4488
136.329 1675 40.9268
136.446 1640 40.4969
136.564 1667 40.8289
136.681 1737 41.6773
136.798 1596 39.95
136.915 1682 41.0122
137.033 1530 39.1152
137.15 1547 39.3319
137.267 1580 39.7492
137.384 1611 40.1373
137.502 1580 39.7492
137.619 1527 39.0768
137.736 1522 39.0128
137.853 1511 38.8716
137.97 1346 36.6879
138.087 1487 38.5616
138.204 1394 37.3363
138.321 1429 37.8021
138.438 1618 40.2244
138.555 1587 39.8372
138.672 1653 40.6571
138.788 1647 40.5832
138.905 1782 42.2137
139.022 1893 43.5086
139.139 1975 44.441
139.255 2066 45.4533
139.372 1975 44.441
139.488 2046 45.2327
139.605 2157 46.4435
139.721 2224 47.1593
139.838 2241 47.3392
139.954 2370 48.6826
140.071 2432 49.3153
140.187 2478 49.7795
140.303 2591 50.9019
140.419 2829 53.1883
140.535 2826 53.1601
140.652 2885 53.7122
140.768 0 1
140.884 0 1
141 0 1
141.115 0 1
141.231 0 1
141.347 0 1
141.463 0 1
141.578 0 1
141.694 0 1
144.104 0 1
144.219 0 1
144.335 0 1
144.45 0 1
144.566 0 1
144.682 0 1
144.798 0 1
144.914 0 1
145.03 0 1
145.146 3123 55.8838
145.262 3211 56.6657
145.378 3247 56.9825
145.494 3175 56.3471
145.61 3198 56.5509
145.726 3183 56.4181
145.842 3226 56.7979
145.959 3311 57.5413
146.075 3311 57.5413
146.192 3524 59.3633
146.308 3510 59.2453
146.425 3622 60.1831
146.541 3607 60.0583
146.658 3588 59.8999
146.774 3207 56.6304
146.891 3069 55.3986
147.008 3266 57.1489
147.125 3291 57.3672
147.241 3243 56.9473
147.358 3273 57.2101
147.475 3269 57.1752
147.592 3401 58.3181
147.709 3431 58.5747
147.826 3309 57.5239
147.943 3294 57.3934
148.06 3202 56.5862
148.177 3190 56.4801
148.294 3195 56.5243
148.411 3155 56.1694
148.528 3122 55.8749
148.645 3140 56.0357
148.762 3112 55.7853
148.88 3138 56.0179
148.997 3121 55.8659
149.114 3248 56.9912
149.231 3236 56.8859
149.349 3158 56.1961
149.466 3248 56.9912
149.583 3383 58.1636
149.701 3318 57.6021
149.818 3331 57.7148
149.935 3389 58.2151
150.053 3363 57.9914
150.17 3356 57.931
150.287 3093 55.6147
150.405 3070 55.4076
150.522 2879 53.6563
150.64 2964 54.4426
150.757 2945 54.2679
150.875 2920 54.037
150.992 2815 53.0566
151.11 2861 53.4883
151.227 2969 54.4885
151.344 3013 54.8908
151.462 3056 55.2811
151.579 3258 57.0789
151.697 3166 56.2672
151.814 2966 54.461
151.932 3094 55.6237
152.049 3154 56.1605
152.167 3180 56.3915
152.284 3187 56.4535
152.402 3249 57
152.519 3274 57.2189
152.636 3266 57.1489
152.754 3267 57.1577
152.871 3301 57.4543
152.989 3382 58.155
153.106 3380 58.1378
153.223 3435 58.6089
153.341 3379 58.1292
153.458 3479 58.983
153.575 3556 59.6322
153.693 3408 58.3781
153.81 3300 57.4456
153.927 3219 56.7362
154.044 3089 55.5788
154.162 2867 53.5444
154.279 3037 55.109
154.396 3180 56.3915
154.513 3132 55.9643
154.63 3101 55.6866
154.747 3184 56.4269
154.864 3198 56.5509
154.981 3409 58.3866
155.098 3502 59.1777
155.215 3428 58.5491
155.332 3529 59.4054
155.449 3535 59.4559
155.566 3566 59.716
155.683 3513 59.2706
155.8 3683 60.6877
155.917 3843 61.9919
156.033 3682 60.6795
156.15 0 1
156.267 0 1
156.383 0 1
156.5 0 1
156.617 0 1
156.733 0 1
156.85 0 1
156.966 0 1
157.082 0 1
157.199 0 1
157.315 0 1
157.431 0 1
157.547 0 1
157.664 0 1
157.78 0 1
157.896 0 1
158.012 0 1
158.128 0 1
158.244 0 1
158.359 0 1
158.475 0 1
158.591 0 1
158.706 0 1
