
6.15755 0 1
6.2731 0 1
6.3887 0 1
6.50437 0 1
6.62009 0 1
6.73587 0 1
6.8517 0 1
6.96759 0 1
7.08353 0 1
7.19952 0 1
7.31557 0 1
7.43166 0 1
7.54781 0 1
7.664 0 1
7.78024 0 1
7.89653 0 1
8.01286 0 1
8.12924 0 1
8.24567 0 1
8.36213 0 1
8.47864 0 1
8.59519 0 1
8.71178 0 1
8.82841 0 1
8.94508 0 1
9.06179 0 1
9.17853 0 1
9.29531 0 1
9.41212 0 1
9.52897 0 1
9.64584 0 1
9.76276 0 1
9.8797 0 1
9.99667 0 1
10.1137 0 1
10.2307 0 1
10.3478 0 1
10.4648 0 1
10.5819 0 1
10.6991 0 1
10.8162 0 1
10.9334 0 1
11.0506 0 1
11.1678 0 1
11.285 0 1
11.4023 0 1
11.5196 0 1
11.6369 0 1
11.7542 0 1
11.8715 0 1
11.9888 0 1
12.1062 0 1
12.2235 0 1
12.3409 0 1
12.4582 0 1
12.5756 0 1
12.693 0 1
12.8104 0 1
12.9278 0 1
13.0452 0 1
13.1626 0 1
13.28 0 1
13.3974 0 1
13.5149 0 1
13.6323 0 1
13.7497 0 1
13.8671 0 1
13.9845 0 1
14.1019 0 1
14.2193 0 1
14.3367 0 1
14.4541 0 1
14.5714 0 1
14.6888 0 1
14.8062 0 1
14.9235 0 1
15.0408 1008 31.749
15.1581 1044 32.311
15.2755 1123 33.5112
15.3927 1082 32.8938
15.51 1029 32.078
15.6273 1011 31.7962
15.7445 1062 32.5883
15.8617 1065 32.6343
15.9789 988 31.4325
16.0961 924 30.3974
16.2132 950 30.8221
16.3304 961 31
16.4475 931 30.5123
16.5646 921 30.348
16.6816 979 31.289
16.7986 946 30.7571
16.9156 911 30.1828
17.0326 946 30.7571
17.1496 932 30.5287
17.2665 859 29.3087
17.3833 911 30.1828
17.5002 905 30.0832
17.617 881 29.6816
17.7338 937 30.6105
17.8505 922 30.3645
17.9672 963 31.0322
18.0839 897 29.95
18.2005 924 30.3974
18.3171 910 30.1662
18.4337 946 30.7571
18.5502 868 29.4618
18.6666 905 30.0832
18.7831 882 29.6985
18.8994 813 28.5132
19.0158 828 28.775
19.1321 796 28.2135
19.2483 773 27.8029
19.3645 770 27.7489
19.4806 768 27.7128
19.5967 762 27.6043
19.7128 675 25.9808
19.8288 695 26.3629
19.9447 558 23.622
20.0606 0 1
20.1764 0 1
20.2922 0 1
20.4079 0 1
20.5236 0 1
20.6392 0 1
20.7548 0 1
20.8702 0 1
23.3078 0 1
23.4233 0 1
23.539 0 1
23.6547 0 1
23.7704 0 1
23.8862 0 1
24.0021 0 1
24.118 0 1
24.234 0 1
24.35 0 1
24.4661 382 19.5448
24.5822 469 21.6564
24.6984 507 22.5167
24.8146 497 22.2935
24.9309 598 24.454
25.0472 618 24.8596
25.1636 693 26.3249
25.28 804 28.3549
25.3965 918 30.2985
25.513 935 30.5778
25.6296 914 30.2324
25.7462 901 30.0167
25.8628 980 31.305
25.9795 939 30.6431
26.0962 945 30.7409
26.213 945 30.7409
26.3298 915 30.249
26.4466 855 29.2404
26.5635 838 28.9482
26.6804 807 28.4077
26.7973 784 28
26.9143 823 28.688
27.0313 749 27.3679
27.1483 787 28.0535
27.2653 767 27.6948
27.3824 818 28.6007
27.4996 833 28.8617
27.6167 830 28.8097
27.7339 776 27.8568
27.8511 736 27.1293
27.9683 803 28.3373
28.0855 870 29.4958
28.2028 845 29.0689
28.3201 824 28.7054
28.4374 805 28.3725
28.5547 803 28.3373
28.6721 797 28.2312
28.7894 799 28.2666
28.9068 789 28.0891
29.0242 802 28.3196
29.1416 779 27.9106
29.259 841 29
29.3764 823 28.688
29.4939 789 28.0891
29.6113 823 28.688
29.7288 782 27.9643
29.8463 805 28.3725
29.9638 788 28.0713
30.0812 756 27.4955
30.1987 782 27.9643
30.3162 788 28.0713
30.4337 800 28.2843
30.5512 777 27.8747
30.6687 767 27.6948
30.7862 744 27.2764
30.9037 798 28.2489
31.0212 878 29.6311
31.1387 869 29.4788
31.2562 815 28.5482
31.3737 841 29
31.4912 863 29.3769
31.6087 864 29.3939
31.7262 847 29.1033
31.8436 823 28.688
31.9611 732 27.0555
32.0785 714 26.7208
32.1959 725 26.9258
32.3134 731 27.037
32.4308 747 27.3313
32.5482 704 26.533
32.6655 739 27.1846
32.7829 690 26.2679
32.9002 739 27.1846
33.0176 705 26.5518
33.1349 754 27.4591
33.2522 716 26.7582
33.3694 730 27.0185
33.4867 756 27.4955
33.6039 756 27.4955
33.7211 731 27.037
33.8383 765 27.6586
33.9554 701 26.4764
34.0725 786 28.0357
34.1896 685 26.1725
34.3067 680 26.0768
34.4237 700 26.4575
34.5407 779 27.9106
34.6577 814 28.5307
34.7746 735 27.1109
34.8915 704 26.533
35.0084 761 27.5862
35.1252 731 27.037
35.242 769 27.7308
35.3587 729 27
35.4755 765 27.6586
35.5921 745 27.2947
35.7088 677 26.0192
35.8254 628 25.0599
35.9419 696 26.3818
36.0584 653 25.5539
36.1749 712 26.6833
36.2913 742 27.2397
36.4077 730 27.0185
36.524 677 26.0192
36.6403 637 25.2389
36.7565 639 25.2784
36.8727 569 23.8537
36.9889 513 22.6495
37.1049 474 21.7715
37.221 0 1
37.3369 0 1
37.4529 0 1
37.5687 0 1
37.6845 0 1
37.8003 0 1
37.916 0 1
38.0316 0 1
38.1472 0 1
40.5851 0 1
40.7008 0 1
40.8164 0 1
40.9322 0 1
41.048 0 1
41.1639 0 1
41.2798 0 1
41.3958 0 1
41.5118 0 1
41.6279 0 1
41.744 287 16.9411
41.8602 360 18.9737
41.9765 405 20.1246
42.0928 490 22.1359
42.2091 517 22.7376
42.3255 523 22.8692
42.4419 588 24.2487
42.5584 590 24.2899
42.675 601 24.5153
42.7915 596 24.4131
42.9081 542 23.2809
43.0248 556 23.5797
43.1415 497 22.2935
43.2582 557 23.6008
43.375 609 24.6779
43.4918 609 24.6779
43.6087 594 24.3721
43.7256 564 23.7487
43.8425 576 24
43.9595 606 24.6171
44.0765 683 26.1343
44.1935 616 24.8193
44.3106 583 24.1454
44.4277 603 24.5561
44.5448 591 24.3105
44.6619 536 23.1517
44.7791 520 22.8035
44.8963 531 23.0434
45.0136 549 23.4307
45.1308 603 24.5561
45.2481 567 23.8118
45.3654 624 24.98
45.4827 575 23.9792
45.6001 656 25.6125
45.7174 621 24.9199
45.8348 652 25.5343
45.9522 611 24.7184
46.0697 618 24.8596
46.1871 594 24.3721
46.3046 608 24.6577
46.422 585 24.1868
46.5395 530 23.0217
46.657 558 23.622
46.7745 493 22.2036
46.892 555 23.5584
47.0096 583 24.1454
47.1271 551 23.4734
47.2446 585 24.1868
47.3622 545 23.3452
47.4797 631 25.1197
47.5973 581 24.1039
47.7149 532 23.0651
47.8324 562 23.7065
47.95 494 22.2261
48.0675 494 22.2261
48.1851 497 22.2935
48.3027 483 21.9773
48.4202 470 21.6795
48.5378 572 23.9165
48.6554 526 22.9347
48.7729 544 23.3238
48.8904 546 23.3666
49.008 611 24.7184
49.1255 582 24.1247
49.243 586 24.2074
49.3605 585 24.1868
49.478 628 25.0599
49.5955 582 24.1247
49.713 522 22.8473
49.8304 549 23.4307
49.9479 468 21.6333
50.0653 459 21.4243
50.1827 464 21.5407
50.3001 477 21.8403
50.4175 507 22.5167
50.5348 529 23
50.6521 540 23.2379
50.7694 577 24.0208
50.8867 529 23
51.004 522 22.8473
51.1212 516 22.7156
51.2384 550 23.4521
51.3556 526 22.9347
51.4727 502 22.4054
51.5899 474 21.7715
51.707 480 21.9089
51.824 462 21.4942
51.9411 529 23
52.0581 516 22.7156
52.175 569 23.8537
52.2919 515 22.6936
52.4088 512 22.6274
52.5257 594 24.3721
52.6425 498 22.3159
52.7593 524 22.891
52.876 524 22.891
52.9927 527 22.9565
53.1094 600 24.4949
53.226 545 23.3452
53.3426 556 23.5797
53.4591 533 23.0868
53.5756 460 21.4476
53.692 488 22.0907
53.8084 423 20.567
53.9248 356 18.868
54.0411 371 19.2614
54.1573 338 18.3848
54.2735 0 1
54.3896 0 1
54.5057 0 1
54.6217 0 1
54.7377 0 1
54.8537 0 1
54.9695 0 1
55.0853 0 1
55.2011 0 1
55.3168 0 1
55.4324 0 1
57.824 0 1
57.9396 0 1
58.0553 0 1
58.1711 0 1
58.2869 0 1
58.4028 0 1
58.5187 0 1
58.6347 0 1
58.7508 0 1
58.8669 0 1
58.983 608 24.6577
59.0992 716 26.7582
59.2155 936 30.5941
59.3318 1064 32.619
59.4482 1190 34.4964
59.5646 1286 35.8608
59.681 1358 36.8511
59.7975 1463 38.2492
59.9141 1485 38.5357
60.0306 1572 39.6485
60.1473 1562 39.5221
60.2639 1480 38.4708
60.3807 1362 36.9053
60.4974 1342 36.6333
60.6142 1456 38.1576
60.731 1941 44.0568
60.8479 2686 51.8266
60.9648 3558 59.649
61.0818 4226 65.0077
61.1987 4861 69.7209
61.3158 5608 74.8866
61.4328 6162 78.4984
61.5499 6574 81.0802
61.667 6864 82.8493
61.7841 6926 83.2226
61.9013 6992 83.6182
62.0185 6468 80.4239
62.1357 5761 75.9013
62.253 4854 69.6707
62.3702 3714 60.9426
62.4875 3151 56.1338
62.6049 2756 52.4976
62.7222 2604 51.0294
62.8396 2419 49.1833
62.9569 2161 46.4866
63.0743 1978 44.4747
63.1918 1778 42.1663
63.3092 1636 40.4475
63.4267 1523 39.0256
63.5441 1305 36.1248
63.6616 1191 34.5109
63.7791 1108 33.2866
63.8966 946 30.7571
64.0142 915 30.249
64.1317 823 28.688
64.2492 758 27.5318
64.3668 790 28.1069
64.4843 746 27.313
64.6019 761 27.5862
64.7195 694 26.3439
64.837 767 27.6948
64.9546 689 26.2488
65.0722 683 26.1343
65.1898 726 26.9444
65.3074 726 26.9444
65.4249 686 26.1916
65.5425 715 26.7395
65.6601 657 25.632
65.7777 711 26.6646
65.8952 603 24.5561
66.0128 633 25.1595
66.1304 670 25.8844
66.2479 685 26.1725
66.3655 662 25.7294
66.483 766 27.6767
66.6005 708 26.6083
66.718 725 26.9258
66.8355 679 26.0576
66.953 708 26.6083
67.0705 706 26.5707
67.1879 710 26.6458
67.3054 672 25.923
67.4228 626 25.02
67.5402 563 23.7276
67.6576 642 25.3377
67.7749 608 24.6577
67.8923 663 25.7488
68.0096 666 25.807
68.1269 678 26.0384
68.2442 649 25.4755
68.3614 692 26.3059
68.4787 679 26.0576
68.5958 661 25.7099
68.713 699 26.4386
68.8302 674 25.9615
68.9473 717 26.7769
69.0643 748 27.3496
69.1814 700 26.4575
69.2984 650 25.4951
69.4154 624 24.98
69.5323 588 24.2487
69.6492 615 24.7992
69.7661 627 25.04
69.8829 642 25.3377
69.9997 643 25.3574
70.1165 668 25.8457
70.2332 602 24.5357
70.3499 647 25.4362
70.4665 627 25.04
70.5831 591 24.3105
70.6996 528 22.9783
70.8161 509 22.561
70.9326 413 20.3224
71.049 399 19.975
71.1653 362 19.0263
71.2817 347 18.6279
71.3979 333 18.2483
71.5141 273 16.5227
71.6303 266 16.3095
71.7464 222 14.8997
71.8624 0 1
71.9784 0 1
72.0944 0 1
72.2102 0 1
72.3261 0 1
72.4418 0 1
72.5575 0 1
72.6732 0 1
75.1054 0 1
75.2209 0 1
75.3365 0 1
75.4521 0 1
75.5678 0 1
75.6835 0 1
75.7993 0 1
75.9151 0 1
76.031 0 1
76.147 355 18.8414
76.263 461 21.4709
76.3791 464 21.5407
76.4952 475 21.7945
76.6113 500 22.3607
76.7276 510 22.5832
76.8438 498 22.3159
76.9601 534 23.1084
77.0765 535 23.1301
77.1929 592 24.3311
77.3093 636 25.219
77.4258 535 23.1301
77.5423 559 23.6432
77.6589 589 24.2693
77.7755 596 24.4131
77.8921 598 24.454
78.0088 611 24.7184
78.1256 580 24.0832
78.2423 512 22.6274
78.3591 530 23.0217
78.4759 489 22.1133
78.5928 490 22.1359
78.7097 495 22.2486
78.8266 483 21.9773
78.9436 557 23.6008
79.0606 526 22.9347
79.1776 580 24.0832
79.2946 506 22.4944
79.4117 565 23.7697
79.5288 574 23.9583
79.6459 624 24.98
79.7631 577 24.0208
79.8802 548 23.4094
79.9974 504 22.4499
80.1147 531 23.0434
80.2319 533 23.0868
80.3491 558 23.622
80.4664 546 23.3666
80.5837 554 23.5372
80.701 580 24.0832
80.8183 594 24.3721
80.9357 567 23.8118
81.053 585 24.1868
81.1704 562 23.7065
81.2877 607 24.6374
81.4051 622 24.9399
81.5225 682 26.1151
81.6399 579 24.0624
81.7573 641 25.318
81.8747 558 23.622
81.9922 551 23.4734
82.1096 485 22.0227
82.227 491 22.1585
82.3444 531 23.0434
82.4619 520 22.8035
82.5793 560 23.6643
82.6967 574 23.9583
82.8142 569 23.8537
82.9316 600 24.4949
83.049 570 23.8747
83.1664 575 23.9792
83.2838 615 24.7992
83.4012 601 24.5153
83.5186 527 22.9565
83.636 556 23.5797
83.7534 529 23
83.8708 489 22.1133
83.9881 563 23.7276
84.1055 527 22.9565
84.2228 602 24.5357
84.3401 535 23.1301
84.4575 573 23.9374
84.5747 567 23.8118
84.692 621 24.9199
84.8093 662 25.7294
84.9265 602 24.5357
85.0437 647 25.4362
85.1609 627 25.04
85.2781 617 24.8395
85.3952 597 24.4336
85.5123 594 24.3721
85.6294 523 22.8692
85.7465 567 23.8118
85.8636 493 22.2036
85.9806 529 23
86.0976 584 24.1661
86.2145 547 23.388
86.3315 582 24.1247
86.4484 573 23.9374
86.5652 597 24.4336
86.682 642 25.3377
86.7988 600 24.4949
86.9156 589 24.2693
87.0323 575 23.9792
87.149 520 22.8035
87.2657 554 23.5372
87.3823 494 22.2261
87.4988 505 22.4722
87.6154 538 23.1948
87.7318 550 23.4521
87.8483 506 22.4944
87.9647 495 22.2486
88.081 441 21
88.1973 470 21.6795
88.3136 416 20.3961
88.4298 398 19.9499
88.546 382 19.5448
88.6621 363 19.0526
88.7781 342 18.4932
88.8942 0 1
89.0101 0 1
89.126 0 1
89.2419 0 1
89.3577 0 1
89.4734 0 1
89.5891 0 1
89.7047 0 1
89.8203 0 1
89.9358 0 1
92.3269 0 1
92.4424 0 1
92.558 0 1
92.6736 0 1
92.7893 0 1
92.905 0 1
93.0208 0 1
93.1366 0 1
93.2525 0 1
93.3685 0 1
93.4845 0 1
93.6005 455 21.3307
93.7167 472 21.7256
93.8328 551 23.4734
93.949 531 23.0434
94.0653 562 23.7065
94.1816 564 23.7487
94.2979 570 23.8747
94.4143 507 22.5167
94.5307 615 24.7992
94.6472 585 24.1868
94.7637 540 23.2379
94.8803 578 24.0416
94.9969 543 23.3024
95.1135 568 23.8328
95.2302 581 24.1039
95.3469 620 24.8998
95.4637 562 23.7065
95.5805 590 24.2899
95.6973 611 24.7184
95.8142 559 23.6432
95.9311 574 23.9583
96.048 579 24.0624
96.1649 600 24.4949
96.2819 558 23.622
96.3989 579 24.0624
96.516 554 23.5372
96.633 558 23.622
96.7501 540 23.2379
96.8673 597 24.4336
96.9844 570 23.8747
97.1016 578 24.0416
97.2188 635 25.1992
97.336 608 24.6577
97.4532 614 24.779
97.5704 559 23.6432
97.6877 593 24.3516
97.805 633 25.1595
97.9223 608 24.6577
98.0396 665 25.7876
98.1569 651 25.5147
98.2743 590 24.2899
98.3916 570 23.8747
98.509 602 24.5357
98.6264 561 23.6854
98.7438 548 23.4094
98.8612 640 25.2982
98.9786 600 24.4949
99.096 682 26.1151
99.2134 665 25.7876
99.3308 611 24.7184
99.4482 638 25.2587
99.5656 668 25.8457
99.6831 612 24.7386
99.8005 620 24.8998
99.9179 567 23.8118
100.035 598 24.454
100.153 589 24.2693
100.27 590 24.2899
100.388 648 25.4558
100.505 608 24.6577
100.622 632 25.1396
100.74 586 24.2074
100.857 657 25.632
100.975 581 24.1039
101.092 614 24.779
101.209 643 25.3574
101.327 646 25.4165
101.444 646 25.4165
101.561 663 25.7488
101.679 654 25.5734
101.796 597 24.4336
101.913 631 25.1197
102.03 575 23.9792
102.148 576 24
102.265 582 24.1247
102.382 615 24.7992
102.499 693 26.3249
102.616 682 26.1151
102.733 676 26
102.851 675 25.9808
102.968 616 24.8193
103.085 711 26.6646
103.202 699 26.4386
103.319 641 25.318
103.436 624 24.98
103.552 643 25.3574
103.669 614 24.779
103.786 660 25.6905
103.903 645 25.3969
104.02 687 26.2107
104.137 631 25.1197
104.253 652 25.5343
104.37 628 25.0599
104.487 652 25.5343
104.603 617 24.8395
104.72 632 25.1396
104.836 651 25.5147
104.953 603 24.5561
105.069 622 24.9399
105.186 604 24.5764
105.302 567 23.8118
105.418 508 22.5389
105.535 485 22.0227
105.651 427 20.664
105.767 398 19.9499
105.883 394 19.8494
105.999 359 18.9473
106.115 0 1
106.231 0 1
106.347 0 1
106.463 0 1
106.579 0 1
106.694 0 1
106.81 0 1
106.926 0 1
107.041 0 1
107.157 0 1
109.576 0 1
109.692 0 1
109.807 0 1
109.923 0 1
110.039 0 1
110.155 0 1
110.27 0 1
110.386 0 1
110.502 0 1
110.618 316 17.7764
110.735 367 19.1572
110.851 410 20.2485
110.967 474 21.7715
111.083 504 22.4499
111.199 598 24.454
111.316 600 24.4949
111.432 630 25.0998
111.549 639 25.2784
111.665 614 24.779
111.782 607 24.6374
111.898 588 24.2487
112.015 598 24.454
112.132 620 24.8998
112.248 633 25.1595
112.365 586 24.2074
112.482 613 24.7588
112.599 640 25.2982
112.716 606 24.6171
112.832 605 24.5967
112.949 611 24.7184
113.066 570 23.8747
113.183 594 24.3721
113.3 574 23.9583
113.417 603 24.5561
113.534 579 24.0624
113.652 621 24.9199
113.769 567 23.8118
113.886 543 23.3024
114.003 583 24.1454
114.12 535 23.1301
114.238 514 22.6716
114.355 512 22.6274
114.472 530 23.0217
114.589 571 23.8956
114.707 597 24.4336
114.824 582 24.1247
114.942 591 24.3105
115.059 603 24.5561
115.176 589 24.2693
115.294 524 22.891
115.411 529 23
115.529 534 23.1084
115.646 551 23.4734
115.764 556 23.5797
115.881 562 23.7065
115.999 588 24.2487
116.116 578 24.0416
116.234 512 22.6274
116.351 563 23.7276
116.469 579 24.0624
116.586 547 23.388
116.704 520 22.8035
116.821 509 22.561
116.939 536 23.1517
117.056 553 23.516
117.174 533 23.0868
117.291 551 23.4734
117.409 549 23.4307
117.526 509 22.561
117.644 487 22.0681
117.761 537 23.1733
117.879 484 22
117.996 502 22.4054
118.114 485 22.0227
118.231 522 22.8473
118.349 582 24.1247
118.466 561 23.6854
118.584 587 24.2281
118.701 575 23.9792
118.819 524 22.891
118.936 498 22.3159
119.053 463 21.5174
119.171 513 22.6495
119.288 468 21.6333
119.405 544 23.3238
119.523 527 22.9565
119.64 546 23.3666
119.757 512 22.6274
119.875 553 23.516
119.992 524 22.891
120.109 541 23.2594
120.226 501 22.383
120.343 494 22.2261
120.46 459 21.4243
120.578 442 21.0238
120.695 518 22.7596
120.812 506 22.4944
120.929 511 22.6053
121.046 507 22.5167
121.163 475 21.7945
121.279 480 21.9089
121.396 403 20.0749
121.513 427 20.664
121.63 423 20.567
121.747 431 20.7605
121.863 420 20.4939
121.98 463 21.5174
122.097 468 21.6333
122.213 445 21.095
122.33 416 20.3961
122.446 410 20.2485
122.563 358 18.9209
122.679 342 18.4932
122.795 289 17
122.912 277 16.6433
123.028 292 17.088
123.144 301 17.3494
123.26 294 17.1464
123.377 0 1
123.493 0 1
123.609 0 1
123.725 0 1
123.84 0 1
123.956 0 1
124.072 0 1
124.188 0 1
124.303 0 1
124.419 0 1
126.852 0 1
126.968 0 1
127.083 0 1
127.199 0 1
127.315 0 1
127.431 0 1
127.547 0 1
127.663 0 1
127.779 0 1
127.895 0 1
128.011 0 1
128.127 0 1
128.243 0 1
128.359 522 22.8473
128.476 550 23.4521
128.592 546 23.3666
128.708 537 23.1733
128.825 569 23.8537
128.941 622 24.9399
129.058 595 24.3926
129.174 631 25.1197
129.291 655 25.593
129.408 731 27.037
129.524 828 28.775
129.641 942 30.692
129.758 1179 34.3366
129.875 1447 38.0395
129.992 1860 43.1277
130.108 2268 47.6235
130.225 2876 53.6284
130.342 3522 59.3464
130.459 4094 63.9844
130.576 5085 71.3092
130.693 5923 76.961
130.81 7224 84.9941
130.928 8808 93.8509
131.045 10700 103.441
131.162 12829 113.265
131.279 14757 121.478
131.396 16607 128.868
131.513 18723 136.832
131.631 21320 146.014
131.748 25064 158.316
131.865 29353 171.327
131.983 34708 186.301
132.1 39505 198.759
132.217 44743 211.525
132.335 49426 222.32
132.452 52952 230.113
132.57 57172 239.107
132.687 59351 243.621
132.804 62133 249.265
132.922 61939 248.875
133.039 62352 249.704
133.157 62855 250.709
133.274 61630 248.254
133.392 59942 244.831
133.509 57063 238.879
133.627 54553 233.566
133.744 52146 228.355
133.862 51263 226.413
133.979 50490 224.7
134.097 50851 225.502
134.214 50593 224.929
134.332 50037 223.69
134.449 48182 219.504
134.567 44915 211.932
134.684 41506 203.73
134.802 40415 201.035
134.919 40263 200.656
135.037 39724 199.309
135.154 38846 197.094
135.272 37647 194.028
135.389 35964 189.642
135.507 34891 186.791
135.624 34341 185.313
135.742 33096 181.923
135.859 31573 177.688
135.977 30619 174.983
136.094 29125 170.66
136.211 27628 166.217
136.329 25701 160.315
136.446 23877 154.522
136.564 22228 149.091
136.681 20841 144.364
136.798 19465 139.517
136.915 18070 134.425
137.033 16610 128.88
137.15 15449 124.294
137.267 14038 118.482
137.384 12751 112.92
137.502 11481 107.149
137.619 9914 99.5691
137.736 8901 94.3451
137.853 7910 88.9382
137.97 7996 89.4204
138.087 7727 87.9034
138.204 7117 84.3623
138.321 6394 79.9625
138.438 5953 77.1557
138.555 6282 79.2591
138.672 6202 78.7528
138.788 6144 78.3837
138.905 5725 75.6637
139.022 5187 72.0208
139.139 4642 68.1322
139.255 4593 67.7717
139.372 4213 64.9076
139.488 3846 62.0161
139.605 3466 58.8727
139.721 3173 56.3294
139.838 2947 54.2863
139.954 2733 52.2781
140.071 2515 50.1498
140.187 2284 47.7912
140.303 2191 46.8081
140.419 2004 44.7661
140.535 2043 45.1996
140.652 1844 42.9418
140.768 0 1
140.884 0 1
141 0 1
141.115 0 1
141.231 0 1
141.347 0 1
141.463 0 1
141.578 0 1
141.694 0 1
144.104 0 1
144.219 0 1
144.335 0 1
144.45 0 1
144.566 0 1
144.682 0 1
144.798 0 1
144.914 0 1
145.03 0 1
145.146 1491 38.6135
145.262 1597 39.9625
145.378 1635 40.4351
145.494 1669 40.8534
145.61 1675 40.9268
145.726 1665 40.8044
145.842 1707 41.3159
145.959 1724 41.5211
146.075 1652 40.6448
146.192 1695 41.1704
146.308 1720 41.4729
146.425 1696 41.1825
146.541 1704 41.2795
146.658 1648 40.5956
146.774 1693 41.1461
146.891 1697 41.1947
147.008 1753 41.8688
147.125 1829 42.7668
147.241 1908 43.6807
147.358 1975 44.441
147.475 1955 44.2154
147.592 1882 43.382
147.709 1829 42.7668
147.826 1691 41.1218
147.943 1638 40.4722
148.06 1662 40.7676
148.177 1772 42.0951
148.294 1942 44.0681
148.411 1947 44.1248
148.528 1967 44.3509
148.645 1971 44.3959
148.762 2066 45.4533
148.88 1987 44.5758
148.997 2123 46.076
149.114 2062 45.4093
149.231 2061 45.3982
149.349 2060 45.3872
149.466 2047 45.2438
149.583 2022 44.9667
149.701 2005 44.7772
149.818 2004 44.7661
149.935 2031 45.0666
150.053 1923 43.852
150.17 1915 43.7607
150.287 1841 42.9069
150.405 1829 42.7668
150.522 1741 41.7253
150.64 1831 42.7902
150.757 1839 42.8836
150.875 1899 43.5775
150.992 1937 44.0114
151.11 1827 42.7434
151.227 1830 42.7785
151.344 1752 41.8569
151.462 1704 41.2795
151.579 1589 39.8623
151.697 1557 39.4588
151.814 1641 40.5093
151.932 1777 42.1545
152.049 1874 43.2897
152.167 1883 43.3935
152.284 1863 43.1625
152.402 1812 42.5676
152.519 1902 43.6119
152.636 1871 43.2551
152.754 1881 43.3705
152.871 1889 43.4626
152.989 1747 41.7971
153.106 1836 42.8486
153.223 1759 41.9404
153.341 1755 41.8927
153.458 1676 40.939
153.575 1664 40.7922
153.693 1663 40.7799
153.81 1553 39.4081
153.927 1530 39.1152
154.044 1465 38.2753
154.162 1505 38.7943
154.279 1610 40.1248
154.396 1590 39.8748
154.513 1601 40.0125
154.63 1552 39.3954
154.747 1646 40.5709
154.864 1551 39.3827
154.981 1595 39.9375
155.098 1555 39.4335
155.215 1545 39.3065
155.332 1499 38.7169
155.449 1412 37.5766
155.566 1528 39.0896
155.683 1624 40.2989
155.8 1659 40.7308
155.917 1580 39.7492
156.033 1598 39.975
156.15 0 1
156.267 0 1
156.383 0 1
156.5 0 1
156.617 0 1
156.733 0 1
156.85 0 1
156.966 0 1
157.082 0 1
157.199 0 1
157.315 0 1
157.431 0 1
157.547 0 1
157.664 0 1
157.78 0 1
157.896 0 1
158.012 0 1
158.128 0 1
158.244 0 1
158.359 0 1
158.475 0 1
158.591 0 1
158.706 0 1
