
6.15755 0 1
6.2731 0 1
6.3887 0 1
6.50437 0 1
6.62009 0 1
6.73587 0 1
6.8517 0 1
6.96759 0 1
7.08353 0 1
7.19952 0 1
7.31557 0 1
7.43166 0 1
7.54781 0 1
7.664 0 1
7.78024 0 1
7.89653 0 1
8.01286 0 1
8.12924 0 1
8.24567 0 1
8.36213 0 1
8.47864 0 1
8.59519 0 1
8.71178 0 1
8.82841 0 1
8.94508 0 1
9.06179 0 1
9.17853 0 1
9.29531 0 1
9.41212 0 1
9.52897 0 1
9.64584 0 1
9.76276 0 1
9.8797 0 1
9.99667 0 1
10.1137 0 1
10.2307 0 1
10.3478 0 1
10.4648 0 1
10.5819 0 1
10.6991 0 1
10.8162 0 1
10.9334 0 1
11.0506 0 1
11.1678 0 1
11.285 0 1
11.4023 0 1
11.5196 0 1
11.6369 0 1
11.7542 0 1
11.8715 0 1
11.9888 0 1
12.1062 0 1
12.2235 0 1
12.3409 0 1
12.4582 0 1
12.5756 0 1
12.693 0 1
12.8104 0 1
12.9278 0 1
13.0452 0 1
13.1626 0 1
13.28 0 1
13.3974 0 1
13.5149 0 1
13.6323 0 1
13.7497 0 1
13.8671 0 1
13.9845 0 1
14.1019 0 1
14.2193 0 1
14.3367 0 1
14.4541 0 1
14.5714 0 1
14.6888 0 1
14.8062 0 1
14.9235 0 1
15.0408 0 0
15.1581 0 0
15.2755 0 0
15.3927 0 0
15.51 0 0
15.6273 0 0
15.7445 0 0
15.8617 0 0
15.9789 0 0
16.0961 0 0
16.2132 0 0
16.3304 0 0
16.4475 0 0
16.5646 0 0
16.6816 0 0
16.7986 0 0
16.9156 0 0
17.0326 0 0
17.1496 0 0
17.2665 0 0
17.3833 0 0
17.5002 0 0
17.617 0 0
17.7338 0 0
17.8505 0 0
17.9672 0 0
18.0839 0 0
18.2005 0 0
18.3171 0 0
18.4337 0 0
18.5502 0 0
18.6666 0 0
18.7831 0 0
18.8994 0 0
19.0158 0 0
19.1321 0 0
19.2483 0 0
19.3645 0 0
19.4806 0 0
19.5967 0 0
19.7128 0 0
19.8288 0 0
19.9447 0 0
20.0606 0 1
20.1764 0 1
20.2922 0 1
20.4079 0 1
20.5236 0 1
20.6392 0 1
20.7548 0 1
20.8702 0 1
23.3078 0 1
23.4233 0 1
23.539 0 1
23.6547 0 1
23.7704 0 1
23.8862 0 1
24.0021 0 1
24.118 0 1
24.234 0 1
24.35 0 1
24.4661 3166 56.2672
24.5822 3223 56.7715
24.6984 3303 57.4717
24.8146 3383 58.1636
24.9309 4102 64.0469
25.0472 4569 67.5944
25.1636 5326 72.9794
25.28 6451 80.3181
25.3965 7098 84.2496
25.513 7584 87.0862
25.6296 8414 91.7279
25.7462 8811 93.8669
25.8628 9172 95.7706
25.9795 9390 96.902
26.0962 9580 97.8775
26.213 9423 97.0721
26.3298 9235 96.0989
26.4466 9145 95.6295
26.5635 9322 96.5505
26.6804 9005 94.8947
26.7973 9042 95.0894
26.9143 9011 94.9263
27.0313 8672 93.1236
27.1483 8780 93.7017
27.2653 9017 94.9579
27.3824 9104 95.4149
27.4996 9206 95.9479
27.6167 8927 94.4828
27.7339 8814 93.8829
27.8511 8492 92.152
27.9683 8210 90.6091
28.0855 7516 86.6949
28.2028 6785 82.3711
28.3201 6004 77.4855
28.4374 5957 77.1816
28.5547 6326 79.5362
28.6721 7074 84.1071
28.7894 8098 89.9889
28.9068 8697 93.2577
29.0242 8939 94.5463
29.1416 9182 95.8228
29.259 8900 94.3398
29.3764 8920 94.4458
29.4939 8886 94.2656
29.6113 9134 95.572
29.7288 8894 94.308
29.8463 8941 94.5569
29.9638 8866 94.1594
30.0812 8916 94.4246
30.1987 8752 93.5521
30.3162 8683 93.1826
30.4337 8527 92.3418
30.5512 8545 92.4392
30.6687 8729 93.4291
30.7862 8814 93.8829
30.9037 8878 94.2231
31.0212 9021 94.9789
31.1387 8777 93.6856
31.2562 8540 92.4121
31.3737 8248 90.8185
31.4912 8052 89.7329
31.6087 7443 86.2728
31.7262 6842 82.7164
31.8436 6028 77.6402
31.9611 5840 76.4199
32.0785 6399 79.9937
32.1959 6936 83.2827
32.3134 8000 89.4427
32.4308 8784 93.723
32.5482 8548 92.4554
32.6655 8559 92.5149
32.7829 8766 93.6269
32.9002 8520 92.3038
33.0176 8575 92.6013
33.1349 8589 92.6769
33.2522 8609 92.7847
33.3694 8613 92.8062
33.4867 8542 92.4229
33.6039 8547 92.45
33.7211 8528 92.3472
33.8383 8533 92.3742
33.9554 8292 91.0604
34.0725 8423 91.7769
34.1896 8375 91.515
34.3067 8481 92.0923
34.4237 8474 92.0543
34.5407 8646 92.9839
34.6577 8720 93.3809
34.7746 8484 92.1086
34.8915 8434 91.8368
35.0084 8279 90.989
35.1252 8252 90.8405
35.242 7663 87.5386
35.3587 7205 84.8823
35.4755 6172 78.5621
35.5921 5666 75.2728
35.7088 5806 76.1971
35.8254 6241 79
35.9419 6906 83.1023
36.0584 7717 87.8465
36.1749 8371 91.4932
36.2913 8293 91.0659
36.4077 8324 91.236
36.524 8201 90.5594
36.6403 7967 89.2581
36.7565 7635 87.3785
36.8727 7594 87.1436
36.9889 7070 84.0833
37.1049 6787 82.3833
37.221 0 1
37.3369 0 1
37.4529 0 1
37.5687 0 1
37.6845 0 1
37.8003 0 1
37.916 0 1
38.0316 0 1
38.1472 0 1
40.5851 0 1
40.7008 0 1
40.8164 0 1
40.9322 0 1
41.048 0 1
41.1639 0 1
41.2798 0 1
41.3958 0 1
41.5118 0 1
41.6279 0 1
41.744 3512 59.2621
41.8602 3858 62.1128
41.9765 4324 65.7571
42.0928 4693 68.5055
42.2091 5068 71.1899
42.3255 5400 73.4847
42.4419 5684 75.3923
42.5584 5922 76.9545
42.675 6259 79.1138
42.7915 6754 82.1827
42.9081 6936 83.2827
43.0248 7033 83.863
43.1415 7139 84.4926
43.2582 7087 84.1843
43.375 7345 85.703
43.4918 7402 86.0349
43.6087 7561 86.954
43.7256 7223 84.9882
43.8425 7178 84.7231
43.9595 6965 83.4566
44.0765 6896 83.0422
44.1935 6530 80.8084
44.3106 5911 76.883
44.4277 5247 72.4362
44.5448 5155 71.7983
44.6619 5590 74.7663
44.7791 6123 78.2496
44.8963 6835 82.6741
45.0136 7344 85.6971
45.1308 7084 84.1665
45.2481 7407 86.0639
45.3654 7325 85.5862
45.4827 7291 85.3874
45.6001 7281 85.3288
45.7174 7251 85.1528
45.8348 7202 84.8646
45.9522 7383 85.9244
46.0697 7412 86.093
46.1871 7134 84.463
46.3046 7073 84.1011
46.422 7105 84.2912
46.5395 7103 84.2793
46.657 7247 85.1293
46.7745 7429 86.1916
46.892 7526 86.7525
47.0096 7479 86.4812
47.1271 7748 88.0227
47.2446 7688 87.6812
47.3622 7751 88.0398
47.4797 7454 86.3366
47.5973 7429 86.1916
47.7149 7032 83.857
47.8324 6570 81.0555
47.95 5680 75.3658
48.0675 5488 74.081
48.1851 5515 74.263
48.3027 6137 78.339
48.4202 6678 81.719
48.5378 7263 85.2232
48.6554 7343 85.6913
48.7729 7524 86.741
48.8904 7462 86.3829
49.008 7419 86.1336
49.1255 7343 85.6913
49.243 7504 86.6256
49.3605 7359 85.7846
49.478 7300 85.44
49.5955 7252 85.1587
49.713 6926 83.2226
49.8304 6917 83.1685
49.9479 6982 83.5584
50.0653 7011 83.7317
50.1827 7370 85.8487
50.3001 7349 85.7263
50.4175 7631 87.3556
50.5348 7599 87.1722
50.6521 7647 87.4471
50.7694 7808 88.3629
50.8867 7635 87.3785
51.004 7545 86.862
51.1212 7370 85.8487
51.2384 7153 84.5754
51.3556 6606 81.2773
51.4727 5852 76.4984
51.5899 5272 72.6085
51.707 5726 75.6703
51.824 6308 79.4229
51.9411 7003 83.6839
52.0581 7442 86.267
52.175 7694 87.7154
52.2919 7555 86.9195
52.4088 7509 86.6545
52.5257 7499 86.5968
52.6425 7461 86.3771
52.7593 7558 86.9368
52.876 7335 85.6446
52.9927 7351 85.738
53.1094 7200 84.8528
53.226 7238 85.0764
53.3426 7016 83.7616
53.4591 6810 82.5227
53.5756 6798 82.45
53.692 6797 82.4439
53.8084 6605 81.2712
53.9248 6399 79.9937
54.0411 6085 78.0064
54.1573 5911 76.883
54.2735 0 1
54.3896 0 1
54.5057 0 1
54.6217 0 1
54.7377 0 1
54.8537 0 1
54.9695 0 1
55.0853 0 1
55.2011 0 1
55.3168 0 1
55.4324 0 1
57.824 0 1
57.9396 0 1
58.0553 0 1
58.1711 0 1
58.2869 0 1
58.4028 0 1
58.5187 0 1
58.6347 0 1
58.7508 0 1
58.8669 0 1
58.983 4504 67.1118
59.0992 5128 71.6101
59.2155 5995 77.4274
59.3318 6561 81
59.4482 7242 85.0999
59.5646 7850 88.6002
59.681 8064 89.7998
59.7975 8016 89.5321
59.9141 8146 90.2552
60.0306 7946 89.1403
60.1473 7693 87.7097
60.2639 7395 85.9942
60.3807 7097 84.2437
60.4974 7383 85.9244
60.6142 7872 88.7243
60.731 8354 91.4002
60.8479 8765 93.6216
60.9648 8886 94.2656
61.0818 9013 94.9368
61.1987 8899 94.3345
61.3158 9071 95.2418
61.4328 8805 93.835
61.5499 8842 94.0319
61.667 8782 93.7123
61.7841 8535 92.3851
61.9013 8431 91.8205
62.0185 8331 91.2743
62.1357 8251 90.835
62.253 8408 91.6951
62.3702 8543 92.4284
62.4875 9115 95.4725
62.6049 9110 95.4463
62.7222 9376 96.8297
62.8396 9529 97.6166
62.9569 9632 98.1428
63.0743 9725 98.6154
63.1918 9349 96.6902
63.3092 9220 96.0208
63.4267 9125 95.5249
63.5441 8568 92.5635
63.6616 8229 90.7138
63.7791 7471 86.4349
63.8966 7207 84.8941
64.0142 7167 84.6581
64.1317 7648 87.4528
64.2492 8159 90.3272
64.3668 8444 91.8912
64.4843 8820 93.9149
64.6019 8857 94.1116
64.7195 8818 93.9042
64.837 8725 93.4077
64.9546 8519 92.2984
65.0722 8529 92.3526
65.1898 8570 92.5743
65.3074 8124 90.1332
65.4249 8210 90.6091
65.5425 8158 90.3216
65.6601 7911 88.9438
65.7777 8119 90.1055
65.8952 8382 91.5533
66.0128 8311 91.1647
66.1304 8704 93.2952
66.2479 9022 94.9842
66.3655 9144 95.6243
66.483 9246 96.1561
66.6005 9529 97.6166
66.718 9398 96.9433
66.8355 9129 95.5458
66.953 8853 94.0904
67.0705 8659 93.0537
67.1879 8170 90.3881
67.3054 7834 88.5099
67.4228 7194 84.8175
67.5402 6839 82.6982
67.6576 6754 82.1827
67.7749 7116 84.3564
67.8923 7298 85.4283
68.0096 7976 89.3085
68.1269 8318 91.2031
68.2442 8570 92.5743
68.3614 8520 92.3038
68.4787 8475 92.0598
68.5958 8392 91.6079
68.713 8113 90.0722
68.8302 8161 90.3383
68.9473 7996 89.4204
69.0643 7699 87.7439
69.1814 7568 86.9943
69.2984 7369 85.8429
69.4154 7392 85.9767
69.5323 7396 86
69.6492 7933 89.0674
69.7661 8205 90.5815
69.8829 8614 92.8116
69.9997 8479 92.0815
70.1165 8574 92.5959
70.2332 8532 92.3688
70.3499 8223 90.6808
70.4665 7831 88.4929
70.5831 7338 85.6621
70.6996 6837 82.6862
70.8161 6415 80.0937
70.9326 5828 76.3413
71.049 5135 71.6589
71.1653 4307 65.6277
71.2817 3742 61.1719
71.3979 3469 58.8982
71.5141 3245 56.9649
71.6303 3242 56.9386
71.7464 2919 54.0278
71.8624 0 1
71.9784 0 1
72.0944 0 1
72.2102 0 1
72.3261 0 1
72.4418 0 1
72.5575 0 1
72.6732 0 1
75.1054 0 1
75.2209 0 1
75.3365 0 1
75.4521 0 1
75.5678 0 1
75.6835 0 1
75.7993 0 1
75.9151 0 1
76.031 0 1
76.147 4623 67.9926
76.263 4895 69.9643
76.3791 5006 70.7531
76.4952 4986 70.6116
76.6113 5150 71.7635
76.7276 5439 73.7496
76.8438 5830 76.3544
76.9601 6103 78.1217
77.0765 6777 82.3225
77.1929 7030 83.8451
77.3093 7116 84.3564
77.4258 7332 85.6271
77.5423 7406 86.0581
77.6589 7140 84.4985
77.7755 7282 85.3346
77.8921 6857 82.807
78.0088 6803 82.4803
78.1256 6517 80.7279
78.2423 6231 78.9367
78.3591 6271 79.1896
78.4759 6384 79.8999
78.5928 6683 81.7496
78.7097 6953 83.3847
78.8266 7519 86.7122
78.9436 7563 86.9655
79.0606 7598 87.1665
79.1776 7888 88.8144
79.2946 7857 88.6397
79.4117 7885 88.7975
79.5288 7830 88.4873
79.6459 7903 88.8988
79.7631 7469 86.4234
79.8802 6941 83.3127
79.9974 6700 81.8535
80.1147 6303 79.3914
80.2319 6048 77.7689
80.3491 6026 77.6273
80.4664 6124 78.256
80.5837 6364 79.7747
80.701 6771 82.2861
80.8183 7045 83.9345
80.9357 7330 85.6154
81.053 7362 85.8021
81.1704 7531 86.7813
81.2877 7342 85.6855
81.4051 7155 84.5872
81.5225 7214 84.9353
81.6399 6986 83.5823
81.7573 6723 81.9939
81.8747 6593 81.1973
81.9922 6326 79.5362
82.1096 6367 79.7935
82.227 6583 81.1357
82.3444 6912 83.1384
82.4619 7443 86.2728
82.5793 7775 88.176
82.6967 7972 89.2861
82.8142 8158 90.3216
82.9316 8307 91.1427
83.049 8431 91.8205
83.1664 8179 90.4378
83.2838 7789 88.2553
83.4012 7374 85.872
83.5186 6998 83.654
83.636 6857 82.807
83.7534 6617 81.3449
83.8708 6336 79.599
83.9881 6065 77.8781
84.1055 6078 77.9615
84.2228 6355 79.7183
84.3401 6630 81.4248
84.4575 6974 83.5105
84.5747 7516 86.6949
84.692 7517 86.7006
84.8093 7670 87.5785
84.9265 7686 87.6698
85.0437 7452 86.325
85.1609 7118 84.3682
85.2781 6897 83.0482
85.3952 6630 81.4248
85.5123 6412 80.075
85.6294 6254 79.0822
85.7465 6496 80.5978
85.8636 6831 82.6499
85.9806 7052 83.9762
86.0976 7315 85.5278
86.2145 7790 88.261
86.3315 7855 88.6284
86.4484 8233 90.7359
86.5652 8160 90.3327
86.682 8021 89.56
86.7988 7968 89.2637
86.9156 7648 87.4528
87.0323 7330 85.6154
87.149 7122 84.3919
87.2657 7024 83.8093
87.3823 6434 80.2122
87.4988 6052 77.7946
87.6154 5673 75.3193
87.7318 5482 74.0405
87.8483 5654 75.1931
87.9647 5824 76.3151
88.081 6048 77.7689
88.1973 5906 76.8505
88.3136 5698 75.4851
88.4298 5378 73.3348
88.546 4940 70.2851
88.6621 4408 66.3928
88.7781 3643 60.3573
88.8942 0 1
89.0101 0 1
89.126 0 1
89.2419 0 1
89.3577 0 1
89.4734 0 1
89.5891 0 1
89.7047 0 1
89.8203 0 1
89.9358 0 1
92.3269 0 1
92.4424 0 1
92.558 0 1
92.6736 0 1
92.7893 0 1
92.905 0 1
93.0208 0 1
93.1366 0 1
93.2525 0 1
93.3685 0 1
93.4845 0 1
93.6005 5052 71.0774
93.7167 5522 74.3102
93.8328 5994 77.4209
93.949 6493 80.5792
94.0653 6768 82.2679
94.1816 7011 83.7317
94.2979 7232 85.0412
94.4143 7209 84.9058
94.5307 6811 82.5288
94.6472 6653 81.5659
94.7637 6410 80.0625
94.8803 6517 80.7279
94.9969 6781 82.3468
95.1135 7176 84.7113
95.2302 7877 88.7525
95.3469 7814 88.3968
95.4637 8204 90.5759
95.5805 8492 92.152
95.6973 8569 92.5689
95.8142 8465 92.0054
95.9311 8513 92.2659
96.048 8042 89.6772
96.1649 7867 88.6961
96.2819 7526 86.7525
96.3989 7463 86.3887
96.516 7205 84.8823
96.633 6875 82.9156
96.7501 6541 80.8764
96.8673 6384 79.8999
96.9844 6235 78.962
97.1016 6465 80.4052
97.2188 6829 82.6378
97.336 7200 84.8528
97.4532 7573 87.023
97.5704 7892 88.8369
97.6877 7838 88.5325
97.805 7959 89.2132
97.9223 7731 87.9261
98.0396 7450 86.3134
98.1569 7000 83.666
98.2743 6632 81.4371
98.3916 6373 79.8311
98.509 6148 78.4092
98.6264 6532 80.8208
98.7438 6953 83.3847
98.8612 7506 86.6372
98.9786 7924 89.0169
99.096 8241 90.78
99.2134 8523 92.3201
99.3308 8530 92.358
99.4482 8704 93.2952
99.5656 8523 92.3201
99.6831 8351 91.3838
99.8005 8209 90.6035
99.9179 7916 88.9719
100.035 7832 88.4986
100.153 7383 85.9244
100.27 7082 84.1546
100.388 6747 82.1401
100.505 6736 82.0731
100.622 6733 82.0549
100.74 7084 84.1665
100.857 7195 84.8233
100.975 7575 87.0345
101.092 7886 88.8032
101.209 8098 89.9889
101.327 7949 89.1572
101.444 7823 88.4477
101.561 7900 88.8819
101.679 7445 86.2844
101.796 6896 83.0422
101.913 6559 80.9877
102.03 6174 78.5748
102.148 6502 80.635
102.265 6943 83.3247
102.382 7931 89.0562
102.499 8101 90.0056
102.616 8629 92.8924
102.733 8457 91.9619
102.851 8846 94.0532
102.968 8722 93.3916
103.085 9006 94.8999
103.202 8584 92.6499
103.319 8308 91.1482
103.436 8236 90.7524
103.552 7920 88.9944
103.669 7670 87.5785
103.786 7198 84.841
103.903 7026 83.8212
104.02 6916 83.1625
104.137 6918 83.1745
104.253 7245 85.1176
104.37 7507 86.6429
104.487 7779 88.1986
104.603 8216 90.6422
104.72 8118 90.0999
104.836 7686 87.6698
104.953 7360 85.7904
105.069 7004 83.6899
105.186 6233 78.9494
105.302 5710 75.5645
105.418 5276 72.6361
105.535 4896 69.9714
105.651 4742 68.8622
105.767 4702 68.5711
105.883 4663 68.2862
105.999 4473 66.8805
106.115 0 1
106.231 0 1
106.347 0 1
106.463 0 1
106.579 0 1
106.694 0 1
106.81 0 1
106.926 0 1
107.041 0 1
107.157 0 1
109.576 0 1
109.692 0 1
109.807 0 1
109.923 0 1
110.039 0 1
110.155 0 1
110.27 0 1
110.386 0 1
110.502 0 1
110.618 2878 53.647
110.735 3494 59.1101
110.851 4225 65
110.967 4914 70.0999
111.083 5585 74.7329
111.199 6015 77.5564
111.316 6508 80.6722
111.432 6790 82.4015
111.549 6992 83.6182
111.665 7081 84.1487
111.782 7151 84.5636
111.898 7230 85.0294
112.015 6982 83.5584
112.132 6733 82.0549
112.248 6582 81.1295
112.365 6037 77.6981
112.482 5965 77.2334
112.599 5911 76.883
112.716 6074 77.9359
112.832 6111 78.1729
112.949 6264 79.1454
113.066 6569 81.0494
113.183 6592 81.1911
113.3 6660 81.6088
113.417 6883 82.9638
113.534 6589 81.1727
113.652 6703 81.8719
113.769 6445 80.2808
113.886 5955 77.1686
114.003 5502 74.1755
114.12 5158 71.8192
114.238 5260 72.5259
114.355 5967 77.2464
114.472 6773 82.2982
114.589 6751 82.1645
114.707 7241 85.0941
114.824 7497 86.5852
114.942 7690 87.6926
115.059 7624 87.3155
115.176 7626 87.327
115.294 7545 86.862
115.411 7631 87.3556
115.529 7337 85.6563
115.646 6811 82.5288
115.764 6598 81.2281
115.881 6223 78.886
115.999 6130 78.2943
116.116 6151 78.4283
116.234 6030 77.6531
116.351 6037 77.6981
116.469 6078 77.9615
116.586 6159 78.4793
116.704 6522 80.7589
116.821 6610 81.3019
116.939 6871 82.8915
117.056 6663 81.6272
117.174 6401 80.0062
117.291 6572 81.0679
117.409 6368 79.7997
117.526 5851 76.4918
117.644 5314 72.8972
117.761 5195 72.0763
117.879 5541 74.4379
117.996 6251 79.0633
118.114 6887 82.988
118.231 7122 84.3919
118.349 7329 85.6096
118.466 7449 86.3076
118.584 7567 86.9885
118.701 7470 86.4292
118.819 7453 86.3308
118.936 7194 84.8175
119.053 7176 84.7113
119.171 7308 85.4868
119.288 6482 80.5109
119.405 6270 79.1833
119.523 6208 78.7909
119.64 5837 76.4003
119.757 5820 76.2889
119.875 5840 76.4199
119.992 5753 75.8485
120.109 5736 75.7364
120.226 5942 77.0844
120.343 5989 77.3886
120.46 6258 79.1075
120.578 6185 78.6448
120.695 6262 79.1328
120.812 6298 79.3599
120.929 6176 78.5875
121.046 5918 76.9285
121.163 5461 73.8986
121.279 4948 70.342
121.396 4727 68.7532
121.513 4856 69.685
121.63 5148 71.7496
121.747 5594 74.793
121.863 5609 74.8933
121.98 5687 75.4122
122.097 5797 76.138
122.213 5499 74.1552
122.33 5218 72.2357
122.446 5212 72.1942
122.563 4991 70.647
122.679 4704 68.5857
122.795 4425 66.5207
122.912 4051 63.6475
123.028 3714 60.9426
123.144 3334 57.7408
123.26 2891 53.768
123.377 0 1
123.493 0 1
123.609 0 1
123.725 0 1
123.84 0 1
123.956 0 1
124.072 0 1
124.188 0 1
124.303 0 1
124.419 0 1
126.852 0 1
126.968 0 1
127.083 0 1
127.199 0 1
127.315 0 1
127.431 0 1
127.547 0 1
127.663 0 1
127.779 0 1
127.895 0 1
128.011 0 1
128.127 0 1
128.243 0 1
128.359 6316 79.4733
128.476 6180 78.613
128.592 6378 79.8624
128.708 6360 79.7496
128.825 6193 78.6956
128.941 6134 78.3199
129.058 6072 77.923
129.174 6131 78.3007
129.291 6190 78.6766
129.408 6302 79.3851
129.524 6579 81.111
129.641 6528 80.796
129.758 6624 81.388
129.875 6605 81.2712
129.992 6713 81.9329
130.108 6456 80.3492
130.225 5833 76.3741
130.342 5398 73.4711
130.459 5278 72.6498
130.576 5290 72.7324
130.693 5722 75.6439
130.81 6285 79.278
130.928 6702 81.8657
131.045 6756 82.1949
131.162 6831 82.6499
131.279 6949 83.3607
131.396 7098 84.2496
131.513 6998 83.654
131.631 6868 82.8734
131.748 6607 81.2835
131.865 6532 80.8208
131.983 6446 80.287
132.1 6216 78.8416
132.217 6201 78.7464
132.335 6091 78.0449
132.452 5903 76.831
132.57 5934 77.0325
132.687 6090 78.0385
132.804 5774 75.9868
132.922 5790 76.092
133.039 6154 78.4474
133.157 6186 78.6511
133.274 6298 79.3599
133.392 6382 79.8874
133.509 6386 79.9125
133.627 6301 79.3788
133.744 5753 75.8485
133.862 5282 72.6774
133.979 4990 70.6399
134.097 4916 70.1142
134.214 5469 73.9527
134.332 5875 76.6485
134.449 6233 78.9494
134.567 6343 79.643
134.684 6387 79.9187
134.802 6535 80.8393
134.919 6838 82.6922
135.037 6845 82.7345
135.154 6662 81.6211
135.272 6555 80.963
135.389 6441 80.2558
135.507 6298 79.3599
135.624 6191 78.6829
135.742 6310 79.4355
135.859 6043 77.7367
135.977 5944 77.0973
136.094 5865 76.5833
136.211 5817 76.2693
136.329 5815 76.2561
136.446 5897 76.7919
136.564 5892 76.7594
136.681 6087 78.0192
136.798 6164 78.5111
136.915 6183 78.6321
137.033 6246 79.0316
137.15 6346 79.6618
137.267 6067 77.8909
137.384 5500 74.162
137.502 5072 71.218
137.619 4722 68.7168
137.736 4662 68.2788
137.853 4742 68.8622
137.97 5296 72.7736
138.087 5775 75.9934
138.204 5780 76.0263
138.321 6020 77.5887
138.438 6180 78.613
138.555 5998 77.4468
138.672 6164 78.5111
138.788 5934 77.0325
138.905 5657 75.213
139.022 5222 72.2634
139.139 5059 71.1266
139.255 4731 68.7823
139.372 4631 68.0515
139.488 4329 65.7951
139.605 4058 63.7024
139.721 3735 61.1146
139.838 3461 58.8303
139.954 3367 58.0259
140.071 3131 55.9553
140.187 3011 54.8726
140.303 2994 54.7175
140.419 2883 53.6936
140.535 2667 51.643
140.652 2575 50.7445
140.768 0 1
140.884 0 1
141 0 1
141.115 0 1
141.231 0 1
141.347 0 1
141.463 0 1
141.578 0 1
141.694 0 1
144.104 0 1
144.219 0 1
144.335 0 1
144.45 0 1
144.566 0 1
144.682 0 1
144.798 0 1
144.914 0 1
145.03 0 1
145.146 3911 62.538
145.262 4084 63.9062
145.378 4256 65.238
145.494 4302 65.5896
145.61 4334 65.8331
145.726 4456 66.7533
145.842 4640 68.1175
145.959 4669 68.3301
146.075 4417 66.4605
146.192 4071 63.8044
146.308 3664 60.531
146.425 3516 59.2959
146.541 3375 58.0948
146.658 3669 60.5723
146.774 3994 63.1981
146.891 4259 65.261
147.008 4343 65.9014
147.125 4716 68.6731
147.241 4735 68.8113
147.358 4716 68.6731
147.475 4825 69.4622
147.592 4735 68.8113
147.709 4675 68.374
147.826 4619 67.9632
147.943 4569 67.5944
148.06 4611 67.9043
148.177 4592 67.7643
148.294 4646 68.1616
148.411 4425 66.5207
148.528 4491 67.0149
148.645 4441 66.6408
148.762 4204 64.8383
148.88 4302 65.5896
148.997 4414 66.4379
149.114 4409 66.4003
149.231 4463 66.8057
149.349 4503 67.1044
149.466 4460 66.7832
149.583 4518 67.2161
149.701 4493 67.0298
149.818 4228 65.0231
149.935 3801 61.6523
150.053 3507 59.2199
150.17 3362 57.9828
150.287 3556 59.6322
150.405 3869 62.2013
150.522 4296 65.5439
150.64 4419 66.4756
150.757 4605 67.8602
150.875 4632 68.0588
150.992 4894 69.9571
151.11 4712 68.644
151.227 4826 69.4694
151.344 4707 68.6076
151.462 4742 68.8622
151.579 4755 68.9565
151.697 4625 68.0074
151.814 4611 67.9043
151.932 4597 67.8012
152.049 4592 67.7643
152.167 4458 66.7683
152.284 4198 64.792
152.402 4276 65.3911
152.519 4366 66.0757
152.636 4394 66.2873
152.754 4616 67.9412
152.871 4634 68.0735
152.989 4561 67.5352
153.106 4599 67.8159
153.223 4597 67.8012
153.341 4488 66.9925
153.458 3980 63.0872
153.575 3672 60.597
153.693 3359 57.9569
153.81 3400 58.3095
153.927 3758 61.3025
154.044 4142 64.3584
154.162 4407 66.3852
154.279 4518 67.2161
154.396 4800 69.282
154.513 4827 69.4766
154.63 4858 69.6994
154.747 5000 70.7107
154.864 4997 70.6895
154.981 4905 70.0357
155.098 4703 68.5784
155.215 4661 68.2715
155.332 4644 68.1469
155.449 4536 67.3498
155.566 4498 67.0671
155.683 4475 66.8954
155.8 4242 65.1306
155.917 4186 64.6993
156.033 3785 61.5224
156.15 0 1
156.267 0 1
156.383 0 1
156.5 0 1
156.617 0 1
156.733 0 1
156.85 0 1
156.966 0 1
157.082 0 1
157.199 0 1
157.315 0 1
157.431 0 1
157.547 0 1
157.664 0 1
157.78 0 1
157.896 0 1
158.012 0 1
158.128 0 1
158.244 0 1
158.359 0 1
158.475 0 1
158.591 0 1
158.706 0 1
