
6.15755 0 1
6.2731 0 1
6.3887 0 1
6.50437 0 1
6.62009 0 1
6.73587 0 1
6.8517 0 1
6.96759 0 1
7.08353 0 1
7.19952 0 1
7.31557 0 1
7.43166 0 1
7.54781 0 1
7.664 0 1
7.78024 0 1
7.89653 0 1
8.01286 0 1
8.12924 0 1
8.24567 0 1
8.36213 0 1
8.47864 0 1
8.59519 0 1
8.71178 0 1
8.82841 0 1
8.94508 0 1
9.06179 0 1
9.17853 0 1
9.29531 0 1
9.41212 0 1
9.52897 0 1
9.64584 0 1
9.76276 0 1
9.8797 0 1
9.99667 0 1
10.1137 0 1
10.2307 0 1
10.3478 0 1
10.4648 0 1
10.5819 0 1
10.6991 0 1
10.8162 0 1
10.9334 0 1
11.0506 0 1
11.1678 0 1
11.285 0 1
11.4023 0 1
11.5196 0 1
11.6369 0 1
11.7542 0 1
11.8715 0 1
11.9888 0 1
12.1062 0 1
12.2235 0 1
12.3409 0 1
12.4582 0 1
12.5756 0 1
12.693 0 1
12.8104 0 1
12.9278 0 1
13.0452 0 1
13.1626 0 1
13.28 0 1
13.3974 0 1
13.5149 0 1
13.6323 0 1
13.7497 0 1
13.8671 0 1
13.9845 0 1
14.1019 0 1
14.2193 0 1
14.3367 0 1
14.4541 0 1
14.5714 0 1
14.6888 0 1
14.8062 0 1
14.9235 0 1
15.0408 1631 40.3856
15.1581 1637 40.4599
15.2755 1811 42.5558
15.3927 1786 42.2611
15.51 1753 41.8688
15.6273 1761 41.9643
15.7445 1639 40.4846
15.8617 1740 41.7133
15.9789 1704 41.2795
16.0961 1590 39.8748
16.2132 1566 39.5727
16.3304 1644 40.5463
16.4475 1506 38.8072
16.5646 1565 39.5601
16.6816 1541 39.2556
16.7986 1383 37.1887
16.9156 1429 37.8021
17.0326 1450 38.0789
17.1496 1398 37.3898
17.2665 1406 37.4967
17.3833 1386 37.229
17.5002 1372 37.0405
17.617 1408 37.5233
17.7338 1472 38.3667
17.8505 1393 37.3229
17.9672 1475 38.4057
18.0839 1558 39.4715
18.2005 1607 40.0874
18.3171 1509 38.8458
18.4337 1609 40.1123
18.5502 1659 40.7308
18.6666 1591 39.8873
18.7831 1672 40.8901
18.8994 1705 41.2916
19.0158 1585 39.8121
19.1321 1548 39.3446
19.2483 1523 39.0256
19.3645 1422 37.7094
19.4806 1262 35.5246
19.5967 1256 35.4401
19.7128 1191 34.5109
19.8288 1094 33.0757
19.9447 1061 32.573
20.0606 0 1
20.1764 0 1
20.2922 0 1
20.4079 0 1
20.5236 0 1
20.6392 0 1
20.7548 0 1
20.8702 0 1
23.3078 0 1
23.4233 0 1
23.539 0 1
23.6547 0 1
23.7704 0 1
23.8862 0 1
24.0021 0 1
24.118 0 1
24.234 0 1
24.35 0 1
24.4661 732 27.0555
24.5822 775 27.8388
24.6984 888 29.7993
24.8146 973 31.1929
24.9309 1136 33.7046
25.0472 1269 35.623
25.1636 1296 36
25.28 1395 37.3497
25.3965 1462 38.2361
25.513 1514 38.9102
25.6296 1612 40.1497
25.7462 1689 41.0974
25.8628 1633 40.4104
25.9795 1548 39.3446
26.0962 1612 40.1497
26.213 1561 39.5095
26.3298 1647 40.5832
26.4466 1577 39.7115
26.5635 1678 40.9634
26.6804 1747 41.7971
26.7973 1699 41.2189
26.9143 1741 41.7253
27.0313 1714 41.4005
27.1483 1734 41.6413
27.2653 1722 41.497
27.3824 1711 41.3642
27.4996 1773 42.107
27.6167 1699 41.2189
27.7339 1697 41.1947
27.8511 1686 41.0609
27.9683 1643 40.5339
28.0855 1649 40.6079
28.2028 1635 40.4351
28.3201 1624 40.2989
28.4374 1626 40.3237
28.5547 1708 41.328
28.6721 1663 40.7799
28.7894 1737 41.6773
28.9068 1651 40.6325
29.0242 1715 41.4126
29.1416 1654 40.6694
29.259 1702 41.2553
29.3764 1521 39
29.4939 1644 40.5463
29.6113 1585 39.8121
29.7288 1632 40.398
29.8463 1643 40.5339
29.9638 1614 40.1746
30.0812 1673 40.9023
30.1987 1725 41.5331
30.3162 1661 40.7554
30.4337 1672 40.8901
30.5512 1726 41.5452
30.6687 1706 41.3038
30.7862 1703 41.2674
30.9037 1763 41.9881
31.0212 1789 42.2966
31.1387 1755 41.8927
31.2562 1860 43.1277
31.3737 1701 41.2432
31.4912 1703 41.2674
31.6087 1640 40.4969
31.7262 1696 41.1825
31.8436 1676 40.939
31.9611 1682 41.0122
32.0785 1668 40.8412
32.1959 1650 40.6202
32.3134 1705 41.2916
32.4308 1713 41.3884
32.5482 1703 41.2674
32.6655 1642 40.5216
32.7829 1672 40.8901
32.9002 1651 40.6325
33.0176 1673 40.9023
33.1349 1649 40.6079
33.2522 1583 39.7869
33.3694 1649 40.6079
33.4867 1716 41.4246
33.6039 1625 40.3113
33.7211 1658 40.7185
33.8383 1670 40.8656
33.9554 1694 41.1582
34.0725 1685 41.0488
34.1896 1734 41.6413
34.3067 1812 42.5676
34.4237 1769 42.0595
34.5407 1823 42.6966
34.6577 1735 41.6533
34.7746 1931 43.9431
34.8915 1837 42.8602
35.0084 1786 42.2611
35.1252 1755 41.8927
35.242 1773 42.107
35.3587 1797 42.391
35.4755 1732 41.6173
35.5921 1732 41.6173
35.7088 1733 41.6293
35.8254 1718 41.4488
35.9419 1703 41.2674
36.0584 1656 40.694
36.1749 1690 41.1096
36.2913 1656 40.694
36.4077 1558 39.4715
36.524 1467 38.3014
36.6403 1382 37.1753
36.7565 1295 35.9861
36.8727 1170 34.2053
36.9889 1076 32.8024
37.1049 1001 31.6386
37.221 0 1
37.3369 0 1
37.4529 0 1
37.5687 0 1
37.6845 0 1
37.8003 0 1
37.916 0 1
38.0316 0 1
38.1472 0 1
40.5851 0 1
40.7008 0 1
40.8164 0 1
40.9322 0 1
41.048 0 1
41.1639 0 1
41.2798 0 1
41.3958 0 1
41.5118 0 1
41.6279 0 1
41.744 953 30.8707
41.8602 1053 32.45
41.9765 1299 36.0416
42.0928 1415 37.6165
42.2091 1550 39.37
42.3255 1615 40.1871
42.4419 1748 41.8091
42.5584 1770 42.0714
42.675 1912 43.7264
42.7915 1884 43.4051
42.9081 1796 42.3792
43.0248 1918 43.795
43.1415 1940 44.0454
43.2582 2053 45.31
43.375 2186 46.7547
43.4918 2287 47.8226
43.6087 2486 49.8598
43.7256 2420 49.1935
43.8425 2475 49.7494
43.9595 2451 49.5076
44.0765 2521 50.2096
44.1935 2499 49.99
44.3106 2554 50.5371
44.4277 2465 49.6488
44.5448 2501 50.01
44.6619 2487 49.8698
44.7791 2501 50.01
44.8963 2553 50.5272
45.0136 2670 51.672
45.1308 2510 50.0999
45.2481 2455 49.548
45.3654 2502 50.02
45.4827 2516 50.1597
45.6001 2400 48.9898
45.7174 2369 48.6724
45.8348 2430 49.295
45.9522 2400 48.9898
46.0697 2299 47.9479
46.1871 2234 47.2652
46.3046 2266 47.6025
46.422 2090 45.7165
46.5395 1964 44.317
46.657 1993 44.643
46.7745 2165 46.5296
46.892 2228 47.2017
47.0096 2256 47.4974
47.1271 2265 47.592
47.2446 2284 47.7912
47.3622 2176 46.6476
47.4797 2176 46.6476
47.5973 2101 45.8367
47.7149 2041 45.1774
47.8324 2072 45.5192
47.95 2077 45.5741
48.0675 2033 45.0888
48.1851 1862 43.1509
48.3027 1865 43.1856
48.4202 1829 42.7668
48.5378 1967 44.3509
48.6554 1941 44.0568
48.7729 1727 41.5572
48.8904 1848 42.9884
49.008 1912 43.7264
49.1255 1742 41.7373
49.243 1815 42.6028
49.3605 1704 41.2795
49.478 1799 42.4146
49.5955 1740 41.7133
49.713 1803 42.4617
49.8304 1672 40.8901
49.9479 1683 41.0244
50.0653 1810 42.5441
50.1827 1826 42.7317
50.3001 1856 43.0813
50.4175 1898 43.566
50.5348 1910 43.7035
50.6521 1984 44.5421
50.7694 2045 45.2217
50.8867 1991 44.6206
51.004 2048 45.2548
51.1212 2078 45.5851
51.2384 2072 45.5192
51.3556 2039 45.1553
51.4727 2002 44.7437
51.5899 1973 44.4185
51.707 1995 44.6654
51.824 1929 43.9204
51.9411 1898 43.566
52.0581 1891 43.4856
52.175 1904 43.6348
52.2919 1930 43.9318
52.4088 1906 43.6578
52.5257 1861 43.1393
52.6425 1848 42.9884
52.7593 1835 42.8369
52.876 1843 42.9302
52.9927 1739 41.7013
53.1094 1719 41.4608
53.226 1753 41.8688
53.3426 1694 41.1582
53.4591 1609 40.1123
53.5756 1651 40.6325
53.692 1438 37.921
53.8084 1448 38.0526
53.9248 1449 38.0657
54.0411 1353 36.7831
54.1573 1174 34.2637
54.2735 0 1
54.3896 0 1
54.5057 0 1
54.6217 0 1
54.7377 0 1
54.8537 0 1
54.9695 0 1
55.0853 0 1
55.2011 0 1
55.3168 0 1
55.4324 0 1
57.824 0 1
57.9396 0 1
58.0553 0 1
58.1711 0 1
58.2869 0 1
58.4028 0 1
58.5187 0 1
58.6347 0 1
58.7508 0 1
58.8669 0 1
58.983 1577 39.7115
59.0992 1848 42.9884
59.2155 2045 45.2217
59.3318 2174 46.6262
59.4482 2420 49.1935
59.5646 2614 51.1273
59.681 2696 51.923
59.7975 2704 52
59.9141 2681 51.7784
60.0306 2770 52.6308
60.1473 2749 52.4309
60.2639 2672 51.6914
60.3807 2652 51.4976
60.4974 2725 52.2015
60.6142 2686 51.8266
60.731 2490 49.8999
60.8479 2613 51.1175
60.9648 2506 50.06
61.0818 2540 50.3984
61.1987 2653 51.5073
61.3158 2642 51.4004
61.4328 2511 50.1099
61.5499 2568 50.6754
61.667 2505 50.05
61.7841 2538 50.3786
61.9013 2496 49.96
62.0185 2458 49.5782
62.1357 2593 50.9215
62.253 2578 50.774
62.3702 2683 51.7977
62.4875 2807 52.9811
62.6049 2882 53.6843
62.7222 2985 54.6352
62.8396 3025 55
62.9569 3097 55.6507
63.0743 3116 55.8211
63.1918 3095 55.6327
63.3092 3133 55.9732
63.4267 2990 54.6809
63.5441 2879 53.6563
63.6616 2840 53.2917
63.7791 2895 53.8052
63.8966 2873 53.6004
64.0142 2802 52.9339
64.1317 2791 52.8299
64.2492 2715 52.1057
64.3668 2682 51.788
64.4843 2556 50.5569
64.6019 2689 51.8556
64.7195 2529 50.2892
64.837 2642 51.4004
64.9546 2724 52.192
65.0722 2661 51.5849
65.1898 2511 50.1099
65.3074 2611 51.0979
65.4249 2498 49.98
65.5425 2550 50.4975
65.6601 2546 50.4579
65.7777 2507 50.07
65.8952 2541 50.4083
66.0128 2731 52.259
66.1304 2958 54.3875
66.2479 3021 54.9636
66.3655 3106 55.7315
66.483 3125 55.9017
66.6005 3169 56.2939
66.718 3203 56.5951
66.8355 3136 56
66.953 3196 56.5332
67.0705 3060 55.3173
67.1879 2934 54.1664
67.3054 2953 54.3415
67.4228 2888 53.7401
67.5402 2829 53.1883
67.6576 2787 52.792
67.7749 2776 52.6878
67.8923 2688 51.8459
68.0096 2730 52.2494
68.1269 2689 51.8556
68.2442 2628 51.264
68.3614 2712 52.0769
68.4787 2702 51.9808
68.5958 2648 51.4587
68.713 2641 51.3907
68.8302 2658 51.5558
68.9473 2630 51.2835
69.0643 2504 50.04
69.1814 2368 48.6621
69.2984 2447 49.4672
69.4154 2461 49.6085
69.5323 2512 50.1199
69.6492 2724 52.192
69.7661 2778 52.7067
69.8829 2806 52.9717
69.9997 2946 54.2771
70.1165 2923 54.0648
70.2332 2799 52.9056
70.3499 2769 52.6213
70.4665 2523 50.2295
70.5831 2381 48.7955
70.6996 2156 46.4327
70.8161 1987 44.5758
70.9326 1738 41.6893
71.049 1580 39.7492
71.1653 1494 38.6523
71.2817 1455 38.1445
71.3979 1345 36.6742
71.5141 1310 36.1939
71.6303 1138 33.7343
71.7464 1050 32.4037
71.8624 0 1
71.9784 0 1
72.0944 0 1
72.2102 0 1
72.3261 0 1
72.4418 0 1
72.5575 0 1
72.6732 0 1
75.1054 0 1
75.2209 0 1
75.3365 0 1
75.4521 0 1
75.5678 0 1
75.6835 0 1
75.7993 0 1
75.9151 0 1
76.031 0 1
76.147 2223 47.1487
76.263 2277 47.7179
76.3791 2391 48.8979
76.4952 2461 49.6085
76.6113 2406 49.051
76.7276 2517 50.1697
76.8438 2448 49.4773
76.9601 2540 50.3984
77.0765 2517 50.1697
77.1929 2497 49.97
77.3093 2577 50.7642
77.4258 2661 51.5849
77.5423 2770 52.6308
77.6589 2736 52.3068
77.7755 2701 51.9711
77.8921 2689 51.8556
78.0088 2519 50.1896
78.1256 2498 49.98
78.2423 2363 48.6107
78.3591 2422 49.2138
78.4759 2450 49.4975
78.5928 2733 52.2781
78.7097 2829 53.1883
78.8266 2957 54.3783
78.9436 3052 55.2449
79.0606 3272 57.2014
79.1776 3181 56.4004
79.2946 3322 57.6368
79.4117 3479 58.983
79.5288 3302 57.463
79.6459 3425 58.5235
79.7631 3277 57.2451
79.8802 3157 56.1872
79.9974 2993 54.7083
80.1147 2955 54.3599
80.2319 2927 54.1018
80.3491 2957 54.3783
80.4664 2938 54.2033
80.5837 2814 53.0471
80.701 2853 53.4135
80.8183 2914 53.9815
80.9357 3034 55.0818
81.053 3018 54.9363
81.1704 3047 55.1996
81.2877 3076 55.4617
81.4051 2996 54.7357
81.5225 3102 55.6956
81.6399 2986 54.6443
81.7573 2780 52.7257
81.8747 2679 51.7591
81.9922 2612 51.1077
82.1096 2635 51.3323
82.227 2963 54.4334
82.3444 3089 55.5788
82.4619 3380 58.1378
82.5793 3339 57.7841
82.6967 3509 59.2368
82.8142 3607 60.0583
82.9316 3653 60.4401
83.049 3664 60.531
83.1664 3733 61.0983
83.2838 3647 60.3904
83.4012 3540 59.4979
83.5186 3501 59.1692
83.636 3291 57.3672
83.7534 3250 57.0088
83.8708 3208 56.6392
83.9881 3264 57.1314
84.1055 3284 57.3062
84.2228 3257 57.0701
84.3401 3215 56.701
84.4575 3223 56.7715
84.5747 3352 57.8965
84.692 3357 57.9396
84.8093 3481 59
84.9265 3444 58.6856
85.0437 3367 58.0259
85.1609 3234 56.8683
85.2781 3009 54.8544
85.3952 2982 54.6077
85.5123 2846 53.3479
85.6294 2812 53.0283
85.7465 3080 55.4977
85.8636 3274 57.2189
85.9806 3392 58.2409
86.0976 3646 60.3821
86.2145 3754 61.2699
86.3315 3690 60.7454
86.4484 3906 62.498
86.5652 3901 62.458
86.682 3916 62.578
86.7988 3981 63.0952
86.9156 3823 61.8304
87.0323 3769 61.3922
87.149 3493 59.1016
87.2657 3569 59.7411
87.3823 3425 58.5235
87.4988 3179 56.3826
87.6154 3075 55.4527
87.7318 3028 55.0273
87.8483 2954 54.3507
87.9647 2712 52.0769
88.081 2566 50.6557
88.1973 2507 50.07
88.3136 2350 48.4768
88.4298 2034 45.0999
88.546 1916 43.7721
88.6621 1761 41.9643
88.7781 1592 39.8999
88.8942 0 1
89.0101 0 1
89.126 0 1
89.2419 0 1
89.3577 0 1
89.4734 0 1
89.5891 0 1
89.7047 0 1
89.8203 0 1
89.9358 0 1
92.3269 0 1
92.4424 0 1
92.558 0 1
92.6736 0 1
92.7893 0 1
92.905 0 1
93.0208 0 1
93.1366 0 1
93.2525 0 1
93.3685 0 1
93.4845 0 1
93.6005 2974 54.5344
93.7167 3472 58.9237
93.8328 3650 60.4152
93.949 3833 61.9112
94.0653 4059 63.7103
94.1816 4117 64.1639
94.2979 4008 63.3088
94.4143 3671 60.5888
94.5307 3622 60.1831
94.6472 3499 59.1523
94.7637 3528 59.397
94.8803 3529 59.4054
94.9969 3696 60.7947
95.1135 3984 63.1189
95.2302 4136 64.3117
95.3469 4445 66.6708
95.4637 4421 66.4906
95.5805 4499 67.0746
95.6973 4708 68.6149
95.8142 4643 68.1396
95.9311 4697 68.5347
96.048 4611 67.9043
96.1649 4606 67.8675
96.2819 4514 67.1863
96.3989 4552 67.4685
96.516 4291 65.5057
96.633 4461 66.7907
96.7501 4333 65.8255
96.8673 4214 64.9153
96.9844 4331 65.8103
97.1016 4267 65.3223
97.2188 4259 65.261
97.336 4359 66.0227
97.4532 4422 66.4981
97.5704 4546 67.424
97.6877 4630 68.0441
97.805 4525 67.2681
97.9223 4394 66.2873
98.0396 4229 65.0308
98.1569 4029 63.4744
98.2743 3722 61.0082
98.3916 3507 59.2199
98.509 3690 60.7454
98.6264 3994 63.1981
98.7438 4179 64.6452
98.8612 4384 66.2118
98.9786 4686 68.4544
99.096 4681 68.4178
99.2134 4839 69.5629
99.3308 5110 71.4843
99.4482 5237 72.3671
99.5656 4987 70.6187
99.6831 5165 71.8679
99.8005 4978 70.5549
99.9179 4769 69.0579
100.035 4789 69.2026
100.153 4737 68.8259
100.27 4658 68.2495
100.388 4748 68.9057
100.505 4612 67.9117
100.622 4620 67.9706
100.74 4600 67.8233
100.857 4600 67.8233
100.975 4543 67.4018
101.092 4664 68.2935
101.209 4786 69.1809
101.327 4788 69.1954
101.444 4674 68.3667
101.561 4621 67.9779
101.679 4312 65.6658
101.796 3959 62.9206
101.913 3910 62.53
102.03 3804 61.6766
102.148 3936 62.7375
102.265 4193 64.7534
102.382 4599 67.8159
102.499 4876 69.8284
102.616 4914 70.0999
102.733 5055 71.0985
102.851 5254 72.4845
102.968 5118 71.5402
103.085 5292 72.7461
103.202 5396 73.4575
103.319 4979 70.562
103.436 5059 71.1266
103.552 4806 69.3253
103.669 4821 69.4334
103.786 4607 67.8749
103.903 4670 68.3374
104.02 4535 67.3424
104.137 4637 68.0955
104.253 4527 67.283
104.37 4543 67.4018
104.487 4681 68.4178
104.603 4673 68.3593
104.72 4634 68.0735
104.836 4461 66.7907
104.953 4163 64.5213
105.069 3793 61.5873
105.186 3341 57.8014
105.302 3144 56.0714
105.418 2854 53.4228
105.535 2498 49.98
105.651 2330 48.2701
105.767 2241 47.3392
105.883 2203 46.9361
105.999 2207 46.9787
106.115 0 1
106.231 0 1
106.347 0 1
106.463 0 1
106.579 0 1
106.694 0 1
106.81 0 1
106.926 0 1
107.041 0 1
107.157 0 1
109.576 0 1
109.692 0 1
109.807 0 1
109.923 0 1
110.039 0 1
110.155 0 1
110.27 0 1
110.386 0 1
110.502 0 1
110.618 2072 45.5192
110.735 2580 50.7937
110.851 3060 55.3173
110.967 3514 59.279
111.083 3945 62.8092
111.199 4257 65.2457
111.316 4387 66.2344
111.432 4557 67.5056
111.549 4620 67.9706
111.665 4428 66.5432
111.782 4631 68.0515
111.898 4579 67.6683
112.015 4448 66.6933
112.132 4458 66.7683
112.248 4358 66.0151
112.365 4281 65.4294
112.482 4249 65.1844
112.599 4279 65.4141
112.716 4163 64.5213
112.832 4260 65.2687
112.949 4177 64.6297
113.066 4111 64.1171
113.183 4284 65.4523
113.3 4440 66.6333
113.417 4344 65.909
113.534 4294 65.5286
113.652 4267 65.3223
113.769 3922 62.6259
113.886 3693 60.7701
114.003 3482 59.0085
114.12 3422 58.4979
114.238 3578 59.8164
114.355 3764 61.3514
114.472 3942 62.7853
114.589 4414 66.4379
114.707 4575 67.6387
114.824 4781 69.1448
114.942 4680 68.4105
115.059 4722 68.7168
115.176 4706 68.6003
115.294 4664 68.2935
115.411 4637 68.0955
115.529 4570 67.6018
115.646 4443 66.6558
115.764 4316 65.6963
115.881 4195 64.7688
115.999 4229 65.0308
116.116 4107 64.0859
116.234 4093 63.9766
116.351 4083 63.8984
116.469 3976 63.0555
116.586 4119 64.1794
116.704 4087 63.9296
116.821 4095 63.9922
116.939 4271 65.3529
117.056 4127 64.2417
117.174 4104 64.0625
117.291 3989 63.1585
117.409 3655 60.4566
117.526 3448 58.7197
117.644 3254 57.0438
117.761 3278 57.2538
117.879 3511 59.2537
117.996 3754 61.2699
118.114 3955 62.8888
118.231 4326 65.7723
118.349 4415 66.4455
118.466 4387 66.2344
118.584 4389 66.2495
118.701 4496 67.0522
118.819 4293 65.521
118.936 4300 65.5744
119.053 4309 65.643
119.171 4240 65.1153
119.288 4030 63.4823
119.405 4115 64.1483
119.523 3897 62.426
119.64 3957 62.9047
119.757 3718 60.9754
119.875 3631 60.2578
119.992 3686 60.7124
120.109 3634 60.2827
120.226 3642 60.349
120.343 3636 60.2993
120.46 3782 61.498
120.578 3923 62.6339
120.695 3816 61.7738
120.812 3670 60.5805
120.929 3771 61.4085
121.046 3330 57.7062
121.163 3083 55.5248
121.279 2973 54.5252
121.396 2798 52.8961
121.513 2852 53.4041
121.63 2953 54.3415
121.747 3073 55.4346
121.863 3276 57.2364
121.98 3350 57.8792
122.097 3203 56.5951
122.213 3011 54.8726
122.33 2971 54.5069
122.446 2705 52.0096
122.563 2558 50.5767
122.679 2477 49.7695
122.795 2342 48.3942
122.912 2207 46.9787
123.028 2013 44.8665
123.144 1984 44.5421
123.26 1731 41.6053
123.377 0 1
123.493 0 1
123.609 0 1
123.725 0 1
123.84 0 1
123.956 0 1
124.072 0 1
124.188 0 1
124.303 0 1
124.419 0 1
126.852 0 1
126.968 0 1
127.083 0 1
127.199 0 1
127.315 0 1
127.431 0 1
127.547 0 1
127.663 0 1
127.779 0 1
127.895 0 1
128.011 0 1
128.127 0 1
128.243 0 1
128.359 3867 62.1852
128.476 3817 61.7819
128.592 3753 61.2617
128.708 3735 61.1146
128.825 3772 61.4166
128.941 3635 60.291
129.058 3712 60.9262
129.174 3642 60.349
129.291 3617 60.1415
129.408 3676 60.63
129.524 3654 60.4483
129.641 3848 62.0322
129.758 3816 61.7738
129.875 3680 60.663
129.992 3593 59.9416
130.108 3483 59.0169
130.225 3285 57.3149
130.342 3072 55.4256
130.459 3089 55.5788
130.576 3059 55.3082
130.693 3355 57.9224
130.81 3456 58.7878
130.928 3668 60.564
131.045 3881 62.2977
131.162 3925 62.6498
131.279 3840 61.9677
131.396 3939 62.7615
131.513 3879 62.2816
131.631 3902 62.466
131.748 3939 62.7615
131.865 3911 62.538
131.983 3799 61.636
132.1 3785 61.5224
132.217 3751 61.2454
132.335 3671 60.5888
132.452 3688 60.7289
132.57 3576 59.7997
132.687 3659 60.4897
132.804 3484 59.0254
132.922 3671 60.5888
133.039 3645 60.3738
133.157 3724 61.0246
133.274 3740 61.1555
133.392 3693 60.7701
133.509 3713 60.9344
133.627 3675 60.6218
133.744 3582 59.8498
133.862 3374 58.0861
133.979 3213 56.6833
134.097 3115 55.8122
134.214 3302 57.463
134.332 3569 59.7411
134.449 3775 61.441
134.567 3999 63.2376
134.684 4176 64.622
134.802 4279 65.4141
134.919 4186 64.6993
135.037 4219 64.9538
135.154 4006 63.293
135.272 4113 64.1327
135.389 4225 65
135.507 4241 65.123
135.624 4265 65.307
135.742 4182 64.6684
135.859 4157 64.4748
135.977 4125 64.2262
136.094 4150 64.4205
136.211 4152 64.436
136.329 4073 63.8201
136.446 4303 65.5973
136.564 4213 64.9076
136.681 4135 64.304
136.798 4107 64.0859
136.915 4142 64.3584
137.033 4170 64.5755
137.15 3968 62.9921
137.267 3903 62.474
137.384 3797 61.6198
137.502 3615 60.1249
137.619 3492 59.0931
137.736 3385 58.1808
137.853 3436 58.6174
137.97 3710 60.9098
138.087 3735 61.1146
138.204 4034 63.5138
138.321 4229 65.0308
138.438 4112 64.1249
138.555 4143 64.3661
138.672 4067 63.773
138.788 3952 62.8649
138.905 4003 63.2693
139.022 3671 60.5888
139.139 3606 60.05
139.255 3428 58.5491
139.372 3393 58.2495
139.488 3043 55.1634
139.605 2815 53.0566
139.721 2707 52.0288
139.838 2548 50.4777
139.954 2423 49.224
140.071 2283 47.7807
140.187 2207 46.9787
140.303 2052 45.299
140.419 1839 42.8836
140.535 1893 43.5086
140.652 1804 42.4735
140.768 0 1
140.884 0 1
141 0 1
141.115 0 1
141.231 0 1
141.347 0 1
141.463 0 1
141.578 0 1
141.694 0 1
144.104 0 1
144.219 0 1
144.335 0 1
144.45 0 1
144.566 0 1
144.682 0 1
144.798 0 1
144.914 0 1
145.03 0 1
145.146 3052 55.2449
145.262 3033 55.0727
145.378 3152 56.1427
145.494 3027 55.0182
145.61 3225 56.7891
145.726 3209 56.648
145.842 3183 56.4181
145.959 3197 56.542
146.075 3089 55.5788
146.192 2999 54.7631
146.308 2948 54.2955
146.425 2759 52.5262
146.541 2709 52.0481
146.658 2607 51.0588
146.774 2822 53.1225
146.891 2911 53.9537
147.008 3125 55.9017
147.125 3079 55.4887
147.241 3248 56.9912
147.358 3332 57.7235
147.475 3275 57.2276
147.592 3330 57.7062
147.709 3239 56.9122
147.826 3249 57
147.943 3198 56.5509
148.06 3281 57.28
148.177 3284 57.3062
148.294 3303 57.4717
148.411 3243 56.9473
148.528 3254 57.0438
148.645 3284 57.3062
148.762 3211 56.6657
148.88 3210 56.6569
148.997 3175 56.3471
149.114 3064 55.3534
149.231 3030 55.0454
149.349 3093 55.6147
149.466 3131 55.9553
149.583 3085 55.5428
149.701 3085 55.5428
149.818 2993 54.7083
149.935 2956 54.3691
150.053 2819 53.0943
150.17 2690 51.8652
150.287 2684 51.8073
150.405 2724 52.192
150.522 2818 53.0848
150.64 3122 55.8749
150.757 3109 55.7584
150.875 3266 57.1489
150.992 3217 56.7186
151.11 3333 57.7321
151.227 3140 56.0357
151.344 3185 56.4358
151.462 3187 56.4535
151.579 3358 57.9483
151.697 3171 56.3116
151.814 3320 57.6194
151.932 3356 57.931
152.049 3314 57.5674
152.167 3228 56.8155
152.284 3207 56.6304
152.402 3335 57.7495
152.519 3068 55.3895
152.636 3122 55.8749
152.754 3017 54.9272
152.871 3007 54.8361
152.989 3040 55.1362
153.106 3049 55.2178
153.223 2990 54.6809
153.341 3081 55.5068
153.458 2941 54.231
153.575 2893 53.7866
153.693 2723 52.1824
153.81 2633 51.3128
153.927 2571 50.705
154.044 2622 51.2055
154.162 2807 52.9811
154.279 3050 55.2268
154.396 3026 55.0091
154.513 3112 55.7853
154.63 3159 56.205
154.747 3129 55.9375
154.864 3112 55.7853
154.981 3091 55.5968
155.098 3061 55.3263
155.215 3033 55.0727
155.332 3063 55.3444
155.449 3003 54.7996
155.566 2970 54.4977
155.683 2912 53.963
155.8 2900 53.8516
155.917 2815 53.0566
156.033 2673 51.7011
156.15 0 1
156.267 0 1
156.383 0 1
156.5 0 1
156.617 0 1
156.733 0 1
156.85 0 1
156.966 0 1
157.082 0 1
157.199 0 1
157.315 0 1
157.431 0 1
157.547 0 1
157.664 0 1
157.78 0 1
157.896 0 1
158.012 0 1
158.128 0 1
158.244 0 1
158.359 0 1
158.475 0 1
158.591 0 1
158.706 0 1
