
6.15755 0 1
6.2731 0 1
6.3887 0 1
6.50437 0 1
6.62009 0 1
6.73587 0 1
6.8517 0 1
6.96759 0 1
7.08353 0 1
7.19952 0 1
7.31557 0 1
7.43166 0 1
7.54781 0 1
7.664 0 1
7.78024 0 1
7.89653 0 1
8.01286 0 1
8.12924 0 1
8.24567 0 1
8.36213 0 1
8.47864 0 1
8.59519 0 1
8.71178 0 1
8.82841 0 1
8.94508 0 1
9.06179 0 1
9.17853 0 1
9.29531 0 1
9.41212 0 1
9.52897 0 1
9.64584 0 1
9.76276 0 1
9.8797 0 1
9.99667 0 1
10.1137 0 1
10.2307 0 1
10.3478 0 1
10.4648 0 1
10.5819 0 1
10.6991 0 1
10.8162 0 1
10.9334 0 1
11.0506 0 1
11.1678 0 1
11.285 0 1
11.4023 0 1
11.5196 0 1
11.6369 0 1
11.7542 0 1
11.8715 0 1
11.9888 0 1
12.1062 0 1
12.2235 0 1
12.3409 0 1
12.4582 0 1
12.5756 0 1
12.693 0 1
12.8104 0 1
12.9278 0 1
13.0452 0 1
13.1626 0 1
13.28 0 1
13.3974 0 1
13.5149 0 1
13.6323 0 1
13.7497 0 1
13.8671 0 1
13.9845 0 1
14.1019 0 1
14.2193 0 1
14.3367 0 1
14.4541 0 1
14.5714 0 1
14.6888 0 1
14.8062 0 1
14.9235 0 1
15.0408 4404 66.3626
15.1581 4631 68.0515
15.2755 4610 67.897
15.3927 4753 68.942
15.51 4711 68.6367
15.6273 4808 69.3397
15.7445 4791 69.217
15.8617 4839 69.5629
15.9789 4841 69.5773
16.0961 4896 69.9714
16.2132 4944 70.3136
16.3304 5047 71.0422
16.4475 5133 71.645
16.5646 5418 73.6071
16.6816 5613 74.92
16.7986 5632 75.0467
16.9156 5872 76.629
17.0326 6116 78.2049
17.1496 6136 78.3326
17.2665 6488 80.5481
17.3833 6321 79.5047
17.5002 6355 79.7183
17.617 6284 79.2717
17.7338 6188 78.6638
17.8505 5978 77.3175
17.9672 5788 76.0789
18.0839 5809 76.2168
18.2005 5787 76.0723
18.3171 6176 78.5875
18.4337 6386 79.9125
18.5502 6667 81.6517
18.6666 6617 81.3449
18.7831 6677 81.7129
18.8994 6792 82.4136
19.0158 6560 80.9938
19.1321 6449 80.3057
19.2483 6338 79.6116
19.3645 6335 79.5927
19.4806 6250 79.0569
19.5967 5934 77.0325
19.7128 6035 77.6853
19.8288 5760 75.8947
19.9447 5309 72.8629
20.0606 0 1
20.1764 0 1
20.2922 0 1
20.4079 0 1
20.5236 0 1
20.6392 0 1
20.7548 0 1
20.8702 0 1
23.3078 0 1
23.4233 0 1
23.539 0 1
23.6547 0 1
23.7704 0 1
23.8862 0 1
24.0021 0 1
24.118 0 1
24.234 0 1
24.35 0 1
24.4661 6219 78.8606
24.5822 6277 79.2275
24.6984 6233 78.9494
24.8146 6136 78.3326
24.9309 6154 78.4474
25.0472 6040 77.7174
25.1636 6093 78.0577
25.28 6393 79.9562
25.3965 6515 80.7155
25.513 6706 81.8902
25.6296 7000 83.666
25.7462 7162 84.6286
25.8628 7315 85.5278
25.9795 7185 84.7644
26.0962 7343 85.6913
26.213 7160 84.6168
26.3298 7132 84.4512
26.4466 6572 81.0679
26.5635 6378 79.8624
26.6804 6248 79.0443
26.7973 6336 79.599
26.9143 6582 81.1295
27.0313 6876 82.9216
27.1483 7120 84.3801
27.2653 6857 82.807
27.3824 7085 84.1724
27.4996 7238 85.0764
27.6167 6874 82.9096
27.7339 6763 82.2375
27.8511 6687 81.7741
27.9683 6367 79.7935
28.0855 6374 79.8373
28.2028 6340 79.6241
28.3201 6249 79.0506
28.4374 6223 78.886
28.5547 6210 78.8036
28.6721 6293 79.3284
28.7894 6363 79.7684
28.9068 6366 79.7872
29.0242 6734 82.061
29.1416 6729 82.0305
29.259 7078 84.1309
29.3764 7066 84.0595
29.4939 7098 84.2496
29.6113 6963 83.4446
29.7288 7012 83.7377
29.8463 6847 82.7466
29.9638 6346 79.6618
30.0812 6050 77.7817
30.1987 5856 76.5245
30.3162 5958 77.1881
30.4337 6115 78.1985
30.5512 6653 81.5659
30.6687 6600 81.2404
30.7862 6806 82.4985
30.9037 6726 82.0122
31.0212 6849 82.7587
31.1387 6829 82.6378
31.2562 6839 82.6982
31.3737 6595 81.2096
31.4912 6515 80.7155
31.6087 6363 79.7684
31.7262 6136 78.3326
31.8436 6113 78.1857
31.9611 6142 78.3709
32.0785 5961 77.2075
32.1959 6081 77.9808
32.3134 6199 78.7337
32.4308 6435 80.2185
32.5482 6452 80.3243
32.6655 6720 81.9756
32.7829 6720 81.9756
32.9002 6953 83.3847
33.0176 6982 83.5584
33.1349 6817 82.5651
33.2522 7010 83.7257
33.3694 6800 82.4621
33.4867 6566 81.0309
33.6039 6187 78.6575
33.7211 5941 77.0779
33.8383 5560 74.5654
33.9554 5548 74.4849
34.0725 5825 76.3217
34.1896 6111 78.1729
34.3067 6334 79.5864
34.4237 6346 79.6618
34.5407 6321 79.5047
34.6577 6636 81.4616
34.7746 6384 79.8999
34.8915 6452 80.3243
35.0084 6364 79.7747
35.1252 6269 79.177
35.242 6430 80.1873
35.3587 5903 76.831
35.4755 6076 77.9487
35.5921 5877 76.6616
35.7088 5889 76.7398
35.8254 5833 76.3741
35.9419 5814 76.2496
36.0584 5898 76.7984
36.1749 6175 78.5812
36.2913 6221 78.8733
36.4077 6297 79.3536
36.524 6554 80.9568
36.6403 6492 80.5729
36.7565 6729 82.0305
36.8727 6677 81.7129
36.9889 6389 79.9312
37.1049 6086 78.0128
37.221 0 1
37.3369 0 1
37.4529 0 1
37.5687 0 1
37.6845 0 1
37.8003 0 1
37.916 0 1
38.0316 0 1
38.1472 0 1
40.5851 0 1
40.7008 0 1
40.8164 0 1
40.9322 0 1
41.048 0 1
41.1639 0 1
41.2798 0 1
41.3958 0 1
41.5118 0 1
41.6279 0 1
41.744 5024 70.8802
41.8602 5378 73.3348
41.9765 5538 74.4177
42.0928 5402 73.4983
42.2091 5429 73.6817
42.3255 5179 71.9653
42.4419 4854 69.6707
42.5584 4434 66.5883
42.675 4304 65.6049
42.7915 4311 65.6582
42.9081 4574 67.6314
43.0248 4829 69.491
43.1415 4864 69.7424
43.2582 4991 70.647
43.375 4969 70.4911
43.4918 5224 72.2772
43.6087 5136 71.6659
43.7256 4973 70.5195
43.8425 5007 70.7602
43.9595 4981 70.5762
44.0765 4925 70.1783
44.1935 4735 68.8113
44.3106 4418 66.468
44.4277 4355 65.9924
44.5448 4342 65.8939
44.6619 4202 64.8228
44.7791 3951 62.857
44.8963 4191 64.7379
45.0136 4245 65.1537
45.1308 4306 65.6201
45.2481 4510 67.1565
45.3654 4322 65.7419
45.4827 4458 66.7683
45.6001 4326 65.7723
45.7174 4405 66.3702
45.8348 4136 64.3117
45.9522 3861 62.1369
46.0697 3458 58.8048
46.1871 3424 58.515
46.3046 3284 57.3062
46.422 3336 57.7581
46.5395 3554 59.6154
46.657 3765 61.3596
46.7745 3852 62.0645
46.892 3874 62.2415
47.0096 3838 61.9516
47.1271 3991 63.1744
47.2446 3870 62.2093
47.3622 3899 62.442
47.4797 3835 61.9274
47.5973 3869 62.2013
47.7149 3792 61.5792
47.8324 3639 60.3241
47.95 3497 59.1354
48.0675 3424 58.515
48.1851 3308 57.5152
48.3027 3336 57.7581
48.4202 3227 56.8067
48.5378 3409 58.3866
48.6554 3577 59.808
48.7729 3679 60.6548
48.8904 3753 61.2617
49.008 3775 61.441
49.1255 3686 60.7124
49.243 3554 59.6154
49.3605 3458 58.8048
49.478 3236 56.8859
49.5955 2934 54.1664
49.713 2848 53.3667
49.8304 2888 53.7401
49.9479 2915 53.9907
50.0653 3203 56.5951
50.1827 3548 59.5651
50.3001 3626 60.2163
50.4175 3720 60.9918
50.5348 3784 61.5142
50.6521 3901 62.458
50.7694 4016 63.3719
50.8867 4036 63.5295
51.004 3954 62.8808
51.1212 4057 63.6946
51.2384 4041 63.5689
51.3556 4104 64.0625
51.4727 4065 63.7574
51.5899 3931 62.6977
51.707 3945 62.8092
51.824 3985 63.1269
51.9411 3993 63.1902
52.0581 4372 66.1211
52.175 4445 66.6708
52.2919 4628 68.0294
52.4088 4692 68.4982
52.5257 4878 69.8427
52.6425 4748 68.9057
52.7593 4890 69.9285
52.876 4667 68.3154
52.9927 4658 68.2495
53.1094 4193 64.7534
53.226 4048 63.6239
53.3426 3826 61.8547
53.4591 3662 60.5145
53.5756 4038 63.5453
53.692 4401 66.34
53.8084 4618 67.9559
53.9248 4805 69.3181
54.0411 4890 69.9285
54.1573 4928 70.1997
54.2735 0 1
54.3896 0 1
54.5057 0 1
54.6217 0 1
54.7377 0 1
54.8537 0 1
54.9695 0 1
55.0853 0 1
55.2011 0 1
55.3168 0 1
55.4324 0 1
57.824 0 1
57.9396 0 1
58.0553 0 1
58.1711 0 1
58.2869 0 1
58.4028 0 1
58.5187 0 1
58.6347 0 1
58.7508 0 1
58.8669 0 1
58.983 5263 72.5465
59.0992 5893 76.7659
59.2155 5994 77.4209
59.3318 6246 79.0316
59.4482 6391 79.9437
59.5646 6431 80.1935
59.681 6267 79.1644
59.7975 6327 79.5424
59.9141 6493 80.5792
60.0306 6237 78.9747
60.1473 6042 77.7303
60.2639 5869 76.6094
60.3807 5699 75.4917
60.4974 5418 73.6071
60.6142 5370 73.2803
60.731 5542 74.4446
60.8479 5611 74.9066
60.9648 5969 77.2593
61.0818 6100 78.1025
61.1987 6040 77.7174
61.3158 5876 76.6551
61.4328 5981 77.3369
61.5499 5603 74.8532
61.667 5438 73.7428
61.7841 4956 70.3989
61.9013 4624 68
62.0185 4644 68.1469
62.1357 4645 68.1542
62.253 4866 69.7567
62.3702 5209 72.1734
62.4875 5549 74.4916
62.6049 5621 74.9733
62.7222 5744 75.7892
62.8396 5945 77.1038
62.9569 6004 77.4855
63.0743 6042 77.7303
63.1918 6111 78.1729
63.3092 6002 77.4726
63.4267 5918 76.9285
63.5441 5875 76.6485
63.6616 5717 75.6108
63.7791 5422 73.6342
63.8966 5406 73.5255
64.0142 5169 71.8958
64.1317 5103 71.4353
64.2492 5289 72.7255
64.3668 5428 73.675
64.4843 5592 74.7797
64.6019 5662 75.2463
64.7195 5837 76.4003
64.837 5871 76.6225
64.9546 5898 76.7984
65.0722 5774 75.9868
65.1898 5311 72.8766
65.3074 4931 70.2211
65.4249 4366 66.0757
65.5425 4243 65.1383
65.6601 4188 64.7148
65.7777 4449 66.7008
65.8952 4713 68.6513
66.0128 5073 71.225
66.1304 5482 74.0405
66.2479 5522 74.3102
66.3655 5675 75.3326
66.483 5786 76.0658
66.6005 5897 76.7919
66.718 6156 78.4602
66.8355 6103 78.1217
66.953 5772 75.9737
67.0705 5862 76.5637
67.1879 5772 75.9737
67.3054 5673 75.3193
67.4228 5499 74.1552
67.5402 5117 71.5332
67.6576 4902 70.0143
67.7749 4854 69.6707
67.8923 5201 72.118
68.0096 5446 73.797
68.1269 5550 74.4983
68.2442 5798 76.1446
68.3614 5935 77.039
68.4787 5962 77.214
68.5958 5898 76.7984
68.713 5816 76.2627
68.8302 5475 73.9932
68.9473 4975 70.5337
69.0643 4676 68.3813
69.1814 4513 67.1789
69.2984 4246 65.1613
69.4154 4566 67.5722
69.5323 4813 69.3758
69.6492 5301 72.808
69.7661 5690 75.4321
69.8829 5693 75.452
69.9997 6118 78.2176
70.1165 6157 78.4666
70.2332 6414 80.0875
70.3499 6331 79.5676
70.4665 6454 80.3368
70.5831 6337 79.6053
70.6996 6363 79.7684
70.8161 6389 79.9312
70.9326 6075 77.9423
71.049 5752 75.8419
71.1653 5548 74.4849
71.2817 5048 71.0493
71.3979 5195 72.0763
71.5141 4945 70.3207
71.6303 5022 70.8661
71.7464 5074 71.232
71.8624 0 1
71.9784 0 1
72.0944 0 1
72.2102 0 1
72.3261 0 1
72.4418 0 1
72.5575 0 1
72.6732 0 1
75.1054 0 1
75.2209 0 1
75.3365 0 1
75.4521 0 1
75.5678 0 1
75.6835 0 1
75.7993 0 1
75.9151 0 1
76.031 0 1
76.147 5461 73.8986
76.263 5560 74.5654
76.3791 5472 73.973
76.4952 5072 71.218
76.6113 5035 70.9577
76.7276 5324 72.9657
76.8438 5759 75.8881
76.9601 6048 77.7689
77.0765 6208 78.7909
77.1929 6273 79.2023
77.3093 6356 79.7245
77.4258 6219 78.8606
77.5423 5926 76.9805
77.6589 5481 74.0338
77.7755 5075 71.239
77.8921 4662 68.2788
78.0088 4338 65.8635
78.1256 4288 65.4828
78.2423 4292 65.5134
78.3591 4719 68.695
78.4759 5083 71.2952
78.5928 5471 73.9662
78.7097 5724 75.6571
78.8266 5864 76.5768
78.9436 6358 79.7371
79.0606 6274 79.2086
79.1776 6314 79.4607
79.2946 6540 80.8703
79.4117 6477 80.4798
79.5288 6350 79.6869
79.6459 6221 78.8733
79.7631 6218 78.8543
79.8802 5905 76.844
79.9974 5506 74.2024
80.1147 5106 71.4563
80.2319 5051 71.0704
80.3491 5168 71.8888
80.4664 5733 75.7166
80.5837 6012 77.5371
80.701 6199 78.7337
80.8183 6255 79.0886
80.9357 6236 78.9683
81.053 6098 78.0897
81.1704 6062 77.8588
81.2877 5589 74.7596
81.4051 5008 70.7672
81.5225 4827 69.4766
81.6399 4430 66.5582
81.7573 4267 65.3223
81.8747 4179 64.6452
81.9922 4673 68.3593
82.1096 5126 71.5961
82.227 5490 74.0945
82.3444 5707 75.5447
82.4619 5923 76.961
82.5793 6272 79.196
82.6967 6099 78.0961
82.8142 6394 79.9625
82.9316 6605 81.2712
83.049 6505 80.6536
83.1664 6291 79.3158
83.2838 6244 79.019
83.4012 6137 78.339
83.5186 5821 76.2955
83.636 5352 73.1574
83.7534 5104 71.4423
83.8708 5091 71.3512
83.9881 5210 72.1803
84.1055 5645 75.1332
84.2228 6108 78.1537
84.3401 6240 78.9937
84.4575 6233 78.9494
84.5747 6241 79
84.692 5966 77.2399
84.8093 5706 75.5381
84.9265 5397 73.4643
85.0437 5103 71.4353
85.1609 4583 67.6979
85.2781 4396 66.3023
85.3952 4366 66.0757
85.5123 4526 67.2756
85.6294 4983 70.5904
85.7465 5469 73.9527
85.8636 5824 76.3151
85.9806 6227 78.9113
86.0976 6395 79.9687
86.2145 6512 80.697
86.3315 6511 80.6908
86.4484 6811 82.5288
86.5652 6622 81.3757
86.682 6722 81.9878
86.7988 6819 82.5772
86.9156 6538 80.8579
87.0323 6385 79.9062
87.149 6206 78.7782
87.2657 5661 75.2396
87.3823 5369 73.2735
87.4988 5513 74.2496
87.6154 5870 76.6159
87.7318 6419 80.1187
87.8483 6530 80.8084
87.9647 6579 81.111
88.081 6613 81.3204
88.1973 6469 80.4301
88.3136 6234 78.9557
88.4298 5815 76.2561
88.546 5244 72.4155
88.6621 5023 70.8731
88.7781 4621 67.9779
88.8942 0 1
89.0101 0 1
89.126 0 1
89.2419 0 1
89.3577 0 1
89.4734 0 1
89.5891 0 1
89.7047 0 1
89.8203 0 1
89.9358 0 1
92.3269 0 1
92.4424 0 1
92.558 0 1
92.6736 0 1
92.7893 0 1
92.905 0 1
93.0208 0 1
93.1366 0 1
93.2525 0 1
93.3685 0 1
93.4845 0 1
93.6005 5581 74.7061
93.7167 5301 72.808
93.8328 4876 69.8284
93.949 4772 69.0797
94.0653 4655 68.2276
94.1816 4605 67.8602
94.2979 4858 69.6994
94.4143 5004 70.739
94.5307 5409 73.5459
94.6472 5650 75.1665
94.7637 6155 78.4538
94.8803 6006 77.4984
94.9969 6408 80.05
95.1135 6553 80.9506
95.2302 6453 80.3306
95.3469 6762 82.2314
95.4637 6653 81.5659
95.5805 6650 81.5475
95.6973 6766 82.2557
95.8142 6742 82.1097
95.9311 6531 80.8146
96.048 6253 79.0759
96.1649 5975 77.2981
96.2819 5568 74.619
96.3989 5585 74.7329
96.516 5754 75.8551
96.633 6065 77.8781
96.7501 6280 79.2465
96.8673 6496 80.5978
96.9844 6417 80.1062
97.1016 6319 79.4921
97.2188 6318 79.4858
97.336 5935 77.039
97.4532 5528 74.3505
97.5704 5186 72.0139
97.6877 4843 69.5917
97.805 4667 68.3154
97.9223 4599 67.8159
98.0396 4829 69.491
98.1569 5069 71.1969
98.2743 5467 73.9392
98.3916 5812 76.2365
98.509 5995 77.4274
98.6264 6066 77.8845
98.7438 6150 78.4219
98.8612 6438 80.2371
98.9786 6806 82.4985
99.096 6657 81.5904
99.2134 6643 81.5046
99.3308 6519 80.7403
99.4482 6725 82.0061
99.5656 6360 79.7496
99.6831 6232 78.943
99.8005 5817 76.2693
99.9179 5573 74.6525
100.035 5400 73.4847
100.153 5885 76.7138
100.27 6092 78.0513
100.388 6391 79.9437
100.505 6373 79.8311
100.622 6350 79.6869
100.74 6302 79.3851
100.857 6186 78.6511
100.975 5852 76.4984
101.092 5510 74.2294
101.209 5053 71.0845
101.327 4776 69.1086
101.444 4643 68.1396
101.561 4727 68.7532
101.679 4790 69.2098
101.796 5172 71.9166
101.913 5708 75.5513
102.03 5938 77.0584
102.148 6368 79.7997
102.265 5904 76.8375
102.382 7006 83.7019
102.499 6690 81.7924
102.616 6815 82.553
102.733 6906 83.1023
102.851 6943 83.3247
102.968 6981 83.5524
103.085 6781 82.3468
103.202 6679 81.7251
103.319 6323 79.5173
103.436 5986 77.3692
103.552 5822 76.302
103.669 6232 78.943
103.786 6726 82.0122
103.903 6831 82.6499
104.02 6967 83.4686
104.137 7071 84.0892
104.253 6852 82.7768
104.37 6609 81.2958
104.487 6165 78.5175
104.603 5932 77.0195
104.72 5452 73.8377
104.836 5209 72.1734
104.953 4955 70.3918
105.069 4988 70.6258
105.186 5352 73.1574
105.302 5995 77.4274
105.418 6350 79.6869
105.535 6620 81.3634
105.651 6671 81.6762
105.767 7050 83.9643
105.883 7207 84.8941
105.999 7504 86.6256
106.115 0 1
106.231 0 1
106.347 0 1
106.463 0 1
106.579 0 1
106.694 0 1
106.81 0 1
106.926 0 1
107.041 0 1
107.157 0 1
109.576 0 1
109.692 0 1
109.807 0 1
109.923 0 1
110.039 0 1
110.155 0 1
110.27 0 1
110.386 0 1
110.502 0 1
110.618 5703 75.5182
110.735 6049 77.7753
110.851 6039 77.711
110.967 6208 78.7909
111.083 6273 79.2023
111.199 6359 79.7433
111.316 6691 81.7985
111.432 6381 79.8812
111.549 6307 79.4166
111.665 6009 77.5177
111.782 5835 76.3872
111.898 5452 73.8377
112.015 5271 72.6017
112.132 5364 73.2393
112.248 5676 75.3392
112.365 5842 76.433
112.482 6071 77.9166
112.599 5900 76.8115
112.716 5800 76.1577
112.832 5682 75.379
112.949 5221 72.2565
113.066 4953 70.3776
113.183 4653 68.2129
113.3 4380 66.1816
113.417 4127 64.2417
113.534 3932 62.7057
113.652 3946 62.8172
113.769 4225 65
113.886 4632 68.0588
114.003 4716 68.6731
114.12 4797 69.2604
114.238 4969 70.4911
114.355 5172 71.9166
114.472 5198 72.0972
114.589 5020 70.852
114.707 5266 72.5672
114.824 5362 73.2257
114.942 5116 71.5262
115.059 4941 70.2922
115.176 5015 70.8167
115.294 4849 69.6348
115.411 4376 66.1513
115.529 4151 64.4283
115.646 4069 63.7887
115.764 4356 66
115.881 4491 67.0149
115.999 4475 66.8954
116.116 4438 66.6183
116.234 4342 65.8939
116.351 4328 65.7875
116.469 4116 64.1561
116.586 3919 62.6019
116.704 3540 59.4979
116.821 3320 57.6194
116.939 3262 57.1139
117.056 3227 56.8067
117.174 3109 55.7584
117.291 3139 56.0268
117.409 3416 58.4466
117.526 3627 60.2246
117.644 3707 60.8851
117.761 3896 62.4179
117.879 4035 63.5216
117.996 3975 63.0476
118.114 4165 64.5368
118.231 4197 64.7843
118.349 4218 64.9461
118.466 4238 65.0999
118.584 4166 64.5446
118.701 4260 65.2687
118.819 4124 64.2184
118.936 3970 63.0079
119.053 3831 61.8951
119.171 3674 60.6135
119.288 3785 61.5224
119.405 3947 62.8252
119.523 4133 64.2884
119.64 4241 65.123
119.757 4336 65.8483
119.875 4372 66.1211
119.992 4265 65.307
120.109 4067 63.773
120.226 3898 62.434
120.343 3775 61.441
120.46 3528 59.397
120.578 3443 58.6771
120.695 3417 58.4551
120.812 3233 56.8595
120.929 3366 58.0172
121.046 3606 60.05
121.163 3756 61.2862
121.279 4099 64.0234
121.396 4182 64.6684
121.513 4276 65.3911
121.63 4373 66.1287
121.747 4636 68.0882
121.863 4669 68.3301
121.98 4765 69.029
122.097 4825 69.4622
122.213 4979 70.562
122.33 4868 69.7711
122.446 4973 70.5195
122.563 4922 70.157
122.679 4714 68.6586
122.795 4624 68
122.912 4251 65.1997
123.028 4522 67.2458
123.144 4691 68.4909
123.26 5066 71.1758
123.377 0 1
123.493 0 1
123.609 0 1
123.725 0 1
123.84 0 1
123.956 0 1
124.072 0 1
124.188 0 1
124.303 0 1
124.419 0 1
126.852 0 1
126.968 0 1
127.083 0 1
127.199 0 1
127.315 0 1
127.431 0 1
127.547 0 1
127.663 0 1
127.779 0 1
127.895 0 1
128.011 0 1
128.127 0 1
128.243 0 1
128.359 5305 72.8354
128.476 5732 75.71
128.592 5824 76.3151
128.708 5875 76.6485
128.825 6040 77.7174
128.941 6076 77.9487
129.058 5922 76.9545
129.174 5473 73.9797
129.291 5359 73.2052
129.408 5082 71.2881
129.524 4969 70.4911
129.641 4635 68.0808
129.758 4574 67.6314
129.875 4549 67.4463
129.992 4652 68.2056
130.108 4748 68.9057
130.225 4832 69.5126
130.342 4943 70.3065
130.459 5080 71.2741
130.576 5060 71.1337
130.693 5353 73.1642
130.81 5262 72.5396
130.928 5318 72.9246
131.045 5460 73.8918
131.162 5560 74.5654
131.279 5587 74.7462
131.396 5174 71.9305
131.513 5249 72.45
131.631 5142 71.7077
131.748 4842 69.5845
131.865 4766 69.0362
131.983 4889 69.9214
132.1 5153 71.7844
132.217 5234 72.3464
132.335 5256 72.4983
132.452 5174 71.9305
132.57 4914 70.0999
132.687 4741 68.8549
132.804 4901 70.0071
132.922 4373 66.1287
133.039 4342 65.8939
133.157 4132 64.2806
133.274 3979 63.0793
133.392 3985 63.1269
133.509 3999 63.2376
133.627 4003 63.2693
133.744 3993 63.1902
133.862 4167 64.5523
133.979 4244 65.146
134.097 4344 65.909
134.214 4291 65.5057
134.332 4231 65.0461
134.449 4351 65.9621
134.567 4432 66.5733
134.684 4332 65.8179
134.802 4251 65.1997
134.919 4400 66.3325
135.037 4291 65.5057
135.154 4198 64.792
135.272 3945 62.8092
135.389 3825 61.8466
135.507 3751 61.2454
135.624 4004 63.2772
135.742 4134 64.2962
135.859 3969 63
135.977 3971 63.0159
136.094 3967 62.9841
136.211 3798 61.6279
136.329 3762 61.3351
136.446 3556 59.6322
136.564 3461 58.8303
136.681 3199 56.5597
136.798 3236 56.8859
136.915 3061 55.3263
137.033 3080 55.4977
137.15 2984 54.626
137.267 3132 55.9643
137.384 3117 55.8301
137.502 3236 56.8859
137.619 3355 57.9224
137.736 3214 56.6922
137.853 3477 58.9661
137.97 3482 59.0085
138.087 3510 59.2453
138.204 3639 60.3241
138.321 3640 60.3324
138.438 3797 61.6198
138.555 3809 61.7171
138.672 3882 62.3057
138.788 3785 61.5224
138.905 3690 60.7454
139.022 3589 59.9083
139.139 3842 61.9839
139.255 4017 63.3798
139.372 4198 64.792
139.488 4201 64.8151
139.605 4268 65.3299
139.721 4359 66.0227
139.838 4437 66.6108
139.954 4261 65.2763
140.071 3962 62.9444
140.187 4052 63.6553
140.303 3867 62.1852
140.419 3804 61.6766
140.535 3589 59.9083
140.652 3567 59.7244
140.768 0 1
140.884 0 1
141 0 1
141.115 0 1
141.231 0 1
141.347 0 1
141.463 0 1
141.578 0 1
141.694 0 1
144.104 0 1
144.219 0 1
144.335 0 1
144.45 0 1
144.566 0 1
144.682 0 1
144.798 0 1
144.914 0 1
145.03 0 1
145.146 3507 59.2199
145.262 3424 58.515
145.378 3342 57.81
145.494 3214 56.6922
145.61 3111 55.7763
145.726 3028 55.0273
145.842 3002 54.7905
145.959 3049 55.2178
146.075 3102 55.6956
146.192 3124 55.8928
146.308 3070 55.4076
146.425 3084 55.5338
146.541 3180 56.3915
146.658 3074 55.4437
146.774 3194 56.5155
146.891 3096 55.6417
147.008 3130 55.9464
147.125 3180 56.3915
147.241 3120 55.857
147.358 3135 55.9911
147.475 3191 56.4889
147.592 2943 54.2494
147.709 2855 53.4322
147.826 2834 53.2353
147.943 2975 54.5436
148.06 3006 54.827
148.177 3076 55.4617
148.294 3011 54.8726
148.411 3085 55.5428
148.528 3062 55.3353
148.645 2808 52.9906
148.762 2665 51.6236
148.88 2610 51.0882
148.997 2644 51.4198
149.114 2330 48.2701
149.231 2346 48.4355
149.349 2284 47.7912
149.466 2326 48.2286
149.583 2305 48.0104
149.701 2402 49.0102
149.818 2380 48.7852
149.935 2580 50.7937
150.053 2518 50.1797
150.17 2545 50.448
150.287 2455 49.548
150.405 2612 51.1077
150.522 2623 51.2152
150.64 2614 51.1273
150.757 2672 51.6914
150.875 2717 52.1249
150.992 2680 51.7687
151.11 2661 51.5849
151.227 2560 50.5964
151.344 2560 50.5964
151.462 2682 51.788
151.579 2749 52.4309
151.697 2867 53.5444
151.814 2879 53.6563
151.932 2930 54.1295
152.049 3027 55.0182
152.167 2972 54.5161
152.284 2914 53.9815
152.402 2804 52.9528
152.519 2781 52.7352
152.636 2677 51.7397
152.754 2636 51.342
152.871 2653 51.5073
152.989 2519 50.1896
153.106 2635 51.3323
153.223 2568 50.6754
153.341 2828 53.1789
153.458 2750 52.4404
153.575 2721 52.1632
153.693 2941 54.231
153.81 2837 53.2635
153.927 2890 53.7587
154.044 2888 53.7401
154.162 3059 55.3082
154.279 3139 56.0268
154.396 3168 56.285
154.513 3292 57.376
154.63 3394 58.258
154.747 3367 58.0259
154.864 3285 57.3149
154.981 3252 57.0263
155.098 3369 58.0431
155.215 3417 58.4551
155.332 3515 59.2874
155.449 3481 59
155.566 3579 59.8247
155.683 3599 59.9917
155.8 3644 60.3656
155.917 3479 58.983
156.033 3530 59.4138
156.15 0 1
156.267 0 1
156.383 0 1
156.5 0 1
156.617 0 1
156.733 0 1
156.85 0 1
156.966 0 1
157.082 0 1
157.199 0 1
157.315 0 1
157.431 0 1
157.547 0 1
157.664 0 1
157.78 0 1
157.896 0 1
158.012 0 1
158.128 0 1
158.244 0 1
158.359 0 1
158.475 0 1
158.591 0 1
158.706 0 1
