
6.15755 0 1
6.2731 0 1
6.3887 0 1
6.50437 0 1
6.62009 0 1
6.73587 0 1
6.8517 0 1
6.96759 0 1
7.08353 0 1
7.19952 0 1
7.31557 0 1
7.43166 0 1
7.54781 0 1
7.664 0 1
7.78024 0 1
7.89653 0 1
8.01286 0 1
8.12924 0 1
8.24567 0 1
8.36213 0 1
8.47864 0 1
8.59519 0 1
8.71178 0 1
8.82841 0 1
8.94508 0 1
9.06179 0 1
9.17853 0 1
9.29531 0 1
9.41212 0 1
9.52897 0 1
9.64584 0 1
9.76276 0 1
9.8797 0 1
9.99667 0 1
10.1137 0 1
10.2307 0 1
10.3478 0 1
10.4648 0 1
10.5819 0 1
10.6991 0 1
10.8162 0 1
10.9334 0 1
11.0506 0 1
11.1678 0 1
11.285 0 1
11.4023 0 1
11.5196 0 1
11.6369 0 1
11.7542 0 1
11.8715 0 1
11.9888 0 1
12.1062 0 1
12.2235 0 1
12.3409 0 1
12.4582 0 1
12.5756 0 1
12.693 0 1
12.8104 0 1
12.9278 0 1
13.0452 0 1
13.1626 0 1
13.28 0 1
13.3974 0 1
13.5149 0 1
13.6323 0 1
13.7497 0 1
13.8671 0 1
13.9845 0 1
14.1019 0 1
14.2193 0 1
14.3367 0 1
14.4541 0 1
14.5714 0 1
14.6888 0 1
14.8062 0 1
14.9235 0 1
15.0408 19378 139.205
15.1581 20241 142.271
15.2755 20325 142.566
15.3927 20495 143.161
15.51 20411 142.867
15.6273 20294 142.457
15.7445 19788 140.67
15.8617 19451 139.467
15.9789 19006 137.862
16.0961 18786 137.062
16.2132 18258 135.122
16.3304 18281 135.207
16.4475 18364 135.514
16.5646 18186 134.855
16.6816 18090 134.499
16.7986 18253 135.104
16.9156 18414 135.698
17.0326 18271 135.17
17.1496 18425 135.739
17.2665 19030 137.949
17.3833 19194 138.542
17.5002 19292 138.896
17.617 19916 141.124
17.7338 20491 143.147
17.8505 21098 145.252
17.9672 22299 149.328
18.0839 23233 152.424
18.2005 23611 153.659
18.3171 23976 154.842
18.4337 24591 156.815
18.5502 24615 156.892
18.6666 24305 155.901
18.7831 23902 154.603
18.8994 23419 153.033
19.0158 22243 149.141
19.1321 21784 147.594
19.2483 20725 143.962
19.3645 20251 142.306
19.4806 19599 139.996
19.5967 19129 138.308
19.7128 18599 136.378
19.8288 17917 133.854
19.9447 16013 126.542
20.0606 0 1
20.1764 0 1
20.2922 0 1
20.4079 0 1
20.5236 0 1
20.6392 0 1
20.7548 0 1
20.8702 0 1
23.3078 0 1
23.4233 0 1
23.539 0 1
23.6547 0 1
23.7704 0 1
23.8862 0 1
24.0021 0 1
24.118 0 1
24.234 0 1
24.35 0 1
24.4661 18814 137.164
24.5822 18672 136.646
24.6984 18941 137.626
24.8146 18437 135.783
24.9309 18553 136.209
25.0472 18528 136.118
25.1636 18321 135.355
25.28 18329 135.385
25.3965 18574 136.286
25.513 19201 138.568
25.6296 19831 140.823
25.7462 20604 143.541
25.8628 20582 143.464
25.9795 20867 144.454
26.0962 21205 145.619
26.213 21183 145.544
26.3298 21604 146.983
26.4466 21922 148.061
26.5635 22008 148.351
26.6804 22608 150.36
26.7973 22260 149.198
26.9143 22787 150.954
27.0313 22430 149.766
27.1483 22640 150.466
27.2653 22244 149.144
27.3824 22109 148.691
27.4996 21544 146.779
27.6167 20643 143.677
27.7339 19866 140.947
27.8511 19104 138.217
27.9683 18615 136.437
28.0855 18382 135.58
28.2028 18044 134.328
28.3201 17738 133.184
28.4374 17931 133.907
28.5547 17760 133.267
28.6721 17890 133.754
28.7894 17681 132.97
28.9068 18005 134.183
29.0242 17803 133.428
29.1416 18141 134.689
29.259 18352 135.47
29.3764 18376 135.558
29.4939 18797 137.102
29.6113 19139 138.344
29.7288 19539 139.782
29.8463 19838 140.847
29.9638 20539 143.314
30.0812 20959 144.772
30.1987 21516 146.683
30.3162 21525 146.714
30.4337 21544 146.779
30.5512 21664 147.187
30.6687 21270 145.842
30.7862 21392 146.26
30.9037 20472 143.08
31.0212 20089 141.736
31.1387 19155 138.402
31.2562 18696 136.733
31.3737 17855 133.623
31.4912 17452 132.106
31.6087 17253 131.351
31.7262 16874 129.9
31.8436 16663 129.085
31.9611 16848 129.8
32.0785 17072 130.66
32.1959 17374 131.81
32.3134 17495 132.269
32.4308 17688 132.996
32.5482 17973 134.063
32.6655 17875 133.697
32.7829 17983 134.101
32.9002 17877 133.705
33.0176 17792 133.387
33.1349 18342 135.433
33.2522 18736 136.88
33.3694 18597 136.371
33.4867 19352 139.111
33.6039 19956 141.266
33.7211 20188 142.084
33.8383 20444 142.983
33.9554 20283 142.418
34.0725 20464 143.052
34.1896 19823 140.794
34.3067 19820 140.784
34.4237 19479 139.567
34.5407 18657 136.591
34.6577 18619 136.451
34.7746 17716 133.101
34.8915 17274 131.431
35.0084 16579 128.759
35.1252 16306 127.695
35.242 16119 126.961
35.3587 15672 125.188
35.4755 16191 127.244
35.5921 15985 126.432
35.7088 16499 128.448
35.8254 16962 130.238
35.9419 17381 131.837
36.0584 17843 133.578
36.1749 17886 133.739
36.2913 17731 133.158
36.4077 17471 132.178
36.524 17117 130.832
36.6403 17047 130.564
36.7565 17068 130.645
36.8727 17072 130.66
36.9889 17331 131.647
37.1049 17350 131.719
37.221 0 1
37.3369 0 1
37.4529 0 1
37.5687 0 1
37.6845 0 1
37.8003 0 1
37.916 0 1
38.0316 0 1
38.1472 0 1
40.5851 0 1
40.7008 0 1
40.8164 0 1
40.9322 0 1
41.048 0 1
41.1639 0 1
41.2798 0 1
41.3958 0 1
41.5118 0 1
41.6279 0 1
41.744 13178 114.795
41.8602 14156 118.979
41.9765 14552 120.632
42.0928 14839 121.815
42.2091 14684 121.178
42.3255 15089 122.837
42.4419 14948 122.262
42.5584 15259 123.527
42.675 15581 124.824
42.7915 15843 125.869
42.9081 16122 126.972
43.0248 15890 126.056
43.1415 15954 126.309
43.2582 15944 126.27
43.375 16039 126.645
43.4918 15708 125.332
43.6087 15677 125.208
43.7256 15579 124.816
43.8425 15484 124.435
43.9595 15234 123.426
44.0765 15254 123.507
44.1935 15172 123.175
44.3106 15269 123.568
44.4277 15039 122.634
44.5448 14948 122.262
44.6619 14671 121.124
44.7791 14501 120.42
44.8963 14370 119.875
45.0136 14226 119.273
45.1308 14416 120.067
45.2481 14257 119.403
45.3654 14199 119.16
45.4827 13930 118.025
45.6001 13576 116.516
45.7174 13355 115.564
45.8348 12741 112.876
45.9522 12744 112.889
46.0697 12581 112.165
46.1871 12242 110.644
46.3046 12130 110.136
46.422 11983 109.467
46.5395 11838 108.803
46.657 11886 109.023
46.7745 11720 108.259
46.892 11414 106.836
47.0096 11148 105.584
47.1271 11066 105.195
47.2446 10804 103.942
47.3622 10561 102.767
47.4797 10146 100.727
47.5973 10199 100.99
47.7149 10286 101.42
47.8324 10219 101.089
47.95 10063 100.315
48.0675 10040 100.2
48.1851 9701 98.4937
48.3027 9337 96.6282
48.4202 8952 94.615
48.5378 9070 95.2365
48.6554 9022 94.9842
48.7729 8925 94.4722
48.8904 8957 94.6414
49.008 8906 94.3716
49.1255 8970 94.7101
49.243 8780 93.7017
49.3605 8663 93.0752
49.478 8583 92.6445
49.5955 8616 92.8224
49.713 8637 92.9355
49.8304 8625 92.8709
49.9479 8891 94.2921
50.0653 9005 94.8947
50.1827 9034 95.0474
50.3001 9445 97.1854
50.4175 9785 98.9192
50.5348 9472 97.3242
50.6521 9843 99.2119
50.7694 9883 99.4133
50.8867 10201 101
51.004 10642 103.16
51.1212 10935 104.571
51.2384 11365 106.607
51.3556 11548 107.462
51.4727 12007 109.576
51.5899 11791 108.586
51.707 11895 109.064
51.824 11707 108.199
51.9411 11714 108.231
52.0581 11492 107.201
52.175 11575 107.587
52.2919 11659 107.977
52.4088 11550 107.471
52.5257 11357 106.569
52.6425 11339 106.485
52.7593 11320 106.395
52.876 11123 105.466
52.9927 11432 106.921
53.1094 11879 108.991
53.226 11885 109.018
53.3426 12168 110.309
53.4591 12307 110.937
53.5756 12702 112.703
53.692 12803 113.15
53.8084 13428 115.879
53.9248 13816 117.541
54.0411 13938 118.059
54.1573 13982 118.246
54.2735 0 1
54.3896 0 1
54.5057 0 1
54.6217 0 1
54.7377 0 1
54.8537 0 1
54.9695 0 1
55.0853 0 1
55.2011 0 1
55.3168 0 1
55.4324 0 1
57.824 0 1
57.9396 0 1
58.0553 0 1
58.1711 0 1
58.2869 0 1
58.4028 0 1
58.5187 0 1
58.6347 0 1
58.7508 0 1
58.8669 0 1
58.983 15329 123.81
59.0992 16282 127.601
59.2155 16663 129.085
59.3318 16921 130.081
59.4482 17483 132.223
59.5646 18255 135.111
59.681 18886 137.426
59.7975 19178 138.485
59.9141 19299 138.921
60.0306 18996 137.826
60.1473 18417 135.709
60.2639 17649 132.85
60.3807 17267 131.404
60.4974 16894 129.977
60.6142 16117 126.953
60.731 15331 123.818
60.8479 14287 119.528
60.9648 13854 117.703
61.0818 13567 116.477
61.1987 13536 116.344
61.3158 13595 116.598
61.4328 14386 119.942
61.5499 14377 119.904
61.667 14582 120.756
61.7841 14568 120.698
61.9013 14593 120.801
62.0185 14683 121.173
62.1357 14967 122.34
62.253 15231 123.414
62.3702 15213 123.341
62.4875 15267 123.56
62.6049 15468 124.37
62.7222 15586 124.844
62.8396 16572 128.732
62.9569 17061 130.618
63.0743 17767 133.293
63.1918 18194 134.885
63.3092 18229 135.015
63.4267 18010 134.201
63.5441 18013 134.213
63.6616 17625 132.759
63.7791 16643 129.008
63.8966 16222 127.366
64.0142 15341 123.859
64.1317 14441 120.171
64.2492 13463 116.03
64.3668 12921 113.671
64.4843 12606 112.276
64.6019 12261 110.729
64.7195 12329 111.036
64.837 12526 111.92
64.9546 12996 114
65.0722 13638 116.782
65.1898 13362 115.594
65.3074 13818 117.55
65.4249 13645 116.812
65.5425 13772 117.354
65.6601 14078 118.651
65.7777 14157 118.983
65.8952 14151 118.958
66.0128 14316 119.649
66.1304 14641 121
66.2479 15051 122.683
66.3655 15797 125.686
66.483 16604 128.857
66.6005 17033 130.511
66.718 17541 132.442
66.8355 17585 132.608
66.953 17660 132.891
67.0705 17722 133.124
67.1879 17242 131.309
67.3054 16777 129.526
67.4228 15861 125.94
67.5402 14360 119.833
67.6576 12988 113.965
67.7749 12338 111.077
67.8923 12403 111.369
68.0096 11900 109.087
68.1269 12024 109.654
68.2442 11980 109.453
68.3614 12097 109.986
68.4787 12511 111.853
68.5958 13353 115.555
68.713 13838 117.635
68.8302 14058 118.566
68.9473 13679 116.957
69.0643 13949 118.106
69.1814 14126 118.853
69.2984 14306 119.608
69.4154 14708 121.277
69.5323 14688 121.194
69.6492 14851 121.865
69.7661 15837 125.845
69.8829 16445 128.238
69.9997 17220 131.225
70.1165 17826 133.514
70.2332 18113 134.585
70.3499 18383 135.584
70.4665 18709 136.781
70.5831 18878 137.397
70.6996 18409 135.68
70.8161 17987 134.116
70.9326 17303 131.541
71.049 15566 124.764
71.1653 14142 118.92
71.2817 13291 115.287
71.3979 12564 112.089
71.5141 12289 110.856
71.6303 12002 109.554
71.7464 11344 106.508
71.8624 0 1
71.9784 0 1
72.0944 0 1
72.2102 0 1
72.3261 0 1
72.4418 0 1
72.5575 0 1
72.6732 0 1
75.1054 0 1
75.2209 0 1
75.3365 0 1
75.4521 0 1
75.5678 0 1
75.6835 0 1
75.7993 0 1
75.9151 0 1
76.031 0 1
76.147 15918 126.167
76.263 15825 125.797
76.3791 14655 121.058
76.4952 13780 117.388
76.6113 13113 114.512
76.7276 13107 114.486
76.8438 13052 114.245
76.9601 13025 114.127
77.0765 12996 114
77.1929 12776 113.031
77.3093 12635 112.406
77.4258 12946 113.78
77.5423 14200 119.164
77.6589 14436 120.15
77.7755 14204 119.181
77.8921 13814 117.533
78.0088 14028 118.44
78.1256 13909 117.936
78.2423 14431 120.129
78.3591 14675 121.14
78.4759 15326 123.798
78.5928 15587 124.848
78.7097 15943 126.266
78.8266 16559 128.682
78.9436 17816 133.477
79.0606 17661 132.895
79.1776 17663 132.902
79.2946 18060 134.387
79.4117 18542 136.169
79.5288 18562 136.242
79.6459 17867 133.667
79.7631 16945 130.173
79.8802 16411 128.105
79.9974 14749 121.445
80.1147 13876 117.796
80.2319 13166 114.743
80.3491 12962 113.851
80.4664 12853 113.371
80.5837 12946 113.78
80.701 12672 112.57
80.8183 12469 111.665
80.9357 12401 111.36
81.053 12710 112.739
81.1704 13676 116.944
81.2877 14284 119.516
81.4051 13839 117.639
81.5225 13485 116.125
81.6399 13444 115.948
81.7573 13829 117.597
81.8747 13976 118.22
81.9922 14435 120.146
82.1096 15110 122.923
82.227 16158 127.114
82.3444 16448 128.25
82.4619 17657 132.88
82.5793 18384 135.588
82.6967 17632 132.786
82.8142 18205 134.926
82.9316 18434 135.772
83.049 18695 136.73
83.1664 18231 135.022
83.2838 17531 132.405
83.4012 16622 128.926
83.5186 15034 122.613
83.636 14185 119.101
83.7534 13696 117.03
83.8708 13505 116.211
83.9881 13370 115.629
84.1055 13141 114.634
84.2228 13119 114.538
84.3401 13391 115.719
84.4575 13480 116.103
84.5747 13375 115.65
84.692 14116 118.811
84.8093 14768 121.524
84.9265 15277 123.6
85.0437 14719 121.322
85.1609 14426 120.108
85.2781 14393 119.971
85.3952 14913 122.119
85.5123 15079 122.797
85.6294 15869 125.972
85.7465 16782 129.545
85.8636 17866 133.664
85.9806 18332 135.396
86.0976 19022 137.92
86.2145 18985 137.786
86.3315 19298 138.917
86.4484 20217 142.186
86.5652 20206 142.148
86.682 20117 141.834
86.7988 19986 141.372
86.9156 18605 136.4
87.0323 17447 132.087
87.149 16237 127.424
87.2657 15587 124.848
87.3823 15321 123.778
87.4988 15094 122.858
87.6154 14499 120.412
87.7318 14389 119.954
87.8483 14481 120.337
87.9647 14463 120.262
88.081 14589 120.785
88.1973 15234 123.426
88.3136 15951 126.297
88.4298 16014 126.546
88.546 15651 125.104
88.6621 15039 122.634
88.7781 14617 120.901
88.8942 0 1
89.0101 0 1
89.126 0 1
89.2419 0 1
89.3577 0 1
89.4734 0 1
89.5891 0 1
89.7047 0 1
89.8203 0 1
89.9358 0 1
92.3269 0 1
92.4424 0 1
92.558 0 1
92.6736 0 1
92.7893 0 1
92.905 0 1
93.0208 0 1
93.1366 0 1
93.2525 0 1
93.3685 0 1
93.4845 0 1
93.6005 14410 120.042
93.7167 14626 120.938
93.8328 14258 119.407
93.949 14209 119.202
94.0653 14151 118.958
94.1816 14334 119.725
94.2979 14683 121.173
94.4143 15379 124.012
94.5307 15986 126.436
94.6472 16579 128.759
94.7637 17606 132.688
94.8803 17987 134.116
94.9969 18788 137.069
95.1135 19057 138.047
95.2302 18857 137.321
95.3469 18827 137.212
95.4637 18975 137.75
95.5805 19071 138.098
95.6973 19083 138.141
95.8142 18386 135.595
95.9311 17855 133.623
96.048 16814 129.669
96.1649 16075 126.787
96.2819 15529 124.615
96.3989 15301 123.697
96.516 14631 120.959
96.633 14344 119.766
96.7501 14102 118.752
96.8673 13951 118.114
96.9844 13960 118.152
97.1016 14014 118.381
97.2188 13999 118.317
97.336 14839 121.815
97.4532 14777 121.561
97.5704 14288 119.532
97.6877 14011 118.368
97.805 13781 117.393
97.9223 13672 116.927
98.0396 14068 118.609
98.1569 14445 120.187
98.2743 15284 123.628
98.3916 15955 126.313
98.509 16917 130.065
98.6264 17069 130.648
98.7438 17878 133.709
98.8612 17986 134.112
98.9786 18205 134.926
99.096 18004 134.179
99.2134 18405 135.665
99.3308 18695 136.73
99.4482 18503 136.026
99.5656 17566 132.537
99.6831 16660 129.074
99.8005 15707 125.328
99.9179 14860 121.902
100.035 14371 119.879
100.153 13935 118.047
100.27 13603 116.632
100.388 13306 115.352
100.505 13253 115.122
100.622 13246 115.091
100.74 13306 115.352
100.857 13694 117.021
100.975 13783 117.401
101.092 13776 117.371
101.209 13618 116.696
101.327 13286 115.265
101.444 13394 115.732
101.561 13733 117.188
101.679 13987 118.267
101.796 14636 120.979
101.913 15490 124.459
102.03 16792 129.584
102.148 17882 133.724
102.265 17154 130.973
102.382 20355 142.671
102.499 18271 135.17
102.616 18571 136.275
102.733 19058 138.051
102.851 19593 139.975
102.968 19815 140.766
103.085 19114 138.253
103.202 18156 134.744
103.319 17320 131.605
103.436 16411 128.105
103.552 15705 125.32
103.669 15618 124.972
103.786 15370 123.976
103.903 15073 122.772
104.02 15020 122.556
104.137 15085 122.821
104.253 14873 121.955
104.37 15256 123.515
104.487 15530 124.619
104.603 15202 123.296
104.72 14731 121.371
104.836 14462 120.258
104.953 14888 122.016
105.069 14885 122.004
105.186 15784 125.634
105.302 16526 128.553
105.418 17860 133.641
105.535 19096 138.188
105.651 19746 140.52
105.767 19568 139.886
105.883 19035 137.967
105.999 18744 136.909
106.115 0 1
106.231 0 1
106.347 0 1
106.463 0 1
106.579 0 1
106.694 0 1
106.81 0 1
106.926 0 1
107.041 0 1
107.157 0 1
109.576 0 1
109.692 0 1
109.807 0 1
109.923 0 1
110.039 0 1
110.155 0 1
110.27 0 1
110.386 0 1
110.502 0 1
110.618 15746 125.483
110.735 17131 130.885
110.851 17031 130.503
110.967 16310 127.711
111.083 16228 127.389
111.199 16361 127.91
111.316 17390 131.871
111.432 17890 133.754
111.549 17700 133.041
111.665 17100 130.767
111.782 16207 127.307
111.898 15445 124.278
112.015 14889 122.02
112.132 14298 119.574
112.248 13981 118.241
112.365 13217 114.965
112.482 13401 115.763
112.599 12582 112.17
112.716 12405 111.378
112.832 11967 109.394
112.949 11948 109.307
113.066 11791 108.586
113.183 11233 105.986
113.3 10923 104.513
113.417 10985 104.809
113.534 11416 106.846
113.652 11749 108.393
113.769 12529 111.933
113.886 12876 113.472
114.003 13305 115.347
114.12 13704 117.064
114.238 14133 118.882
114.355 14097 118.731
114.472 13373 115.642
114.589 12196 110.436
114.707 12788 113.084
114.824 13546 116.387
114.942 14130 118.87
115.059 14031 118.453
115.176 13302 115.334
115.294 12881 113.494
115.411 12607 112.281
115.529 11921 109.183
115.646 11620 107.796
115.764 11145 105.57
115.881 10951 104.647
115.999 10293 101.454
116.116 9761 98.7978
116.234 9668 98.326
116.351 9282 96.3431
116.469 9213 95.9844
116.586 8959 94.652
116.704 8775 93.675
116.821 8510 92.2497
116.939 8705 93.3006
117.056 9133 95.5667
117.174 9384 96.871
117.291 10042 100.21
117.409 10072 100.359
117.526 10430 102.127
117.644 10568 102.801
117.761 11134 105.518
117.879 11283 106.221
117.996 10951 104.647
118.114 10286 101.42
118.231 10309 101.533
118.349 10782 103.836
118.466 11808 108.665
118.584 12130 110.136
118.701 12288 110.851
118.819 11838 108.803
118.936 11601 107.708
119.053 11588 107.648
119.171 11425 106.888
119.288 11200 105.83
119.405 10898 104.393
119.523 10793 103.889
119.64 10296 101.469
119.757 10045 100.225
119.875 9702 98.4987
119.992 9729 98.6357
120.109 9435 97.1339
120.226 9460 97.2625
120.343 9243 96.1405
120.46 9408 96.9948
120.578 9818 99.0858
120.695 10143 100.712
120.812 10685 103.368
120.929 11188 105.773
121.046 11138 105.537
121.163 11464 107.07
121.279 11772 108.499
121.396 12385 111.288
121.513 12771 113.009
121.63 12417 111.432
121.747 11447 106.991
121.863 10616 103.034
121.98 11099 105.352
122.097 12313 110.964
122.213 13458 116.009
122.33 13820 117.558
122.446 13978 118.229
122.563 13775 117.367
122.679 13632 116.756
122.795 13571 116.495
122.912 13443 115.944
123.028 13149 114.669
123.144 12758 112.951
123.26 12330 111.041
123.377 0 1
123.493 0 1
123.609 0 1
123.725 0 1
123.84 0 1
123.956 0 1
124.072 0 1
124.188 0 1
124.303 0 1
124.419 0 1
126.852 0 1
126.968 0 1
127.083 0 1
127.199 0 1
127.315 0 1
127.431 0 1
127.547 0 1
127.663 0 1
127.779 0 1
127.895 0 1
128.011 0 1
128.127 0 1
128.243 0 1
128.359 15204 123.305
128.476 15122 122.972
128.592 14770 121.532
128.708 14472 120.3
128.825 14111 118.79
128.941 13609 116.658
129.058 13159 114.713
129.174 12818 113.217
129.291 12876 113.472
129.408 12796 113.119
129.524 12659 112.512
129.641 12803 113.15
129.758 12906 113.605
129.875 13189 114.843
129.992 13302 115.334
130.108 13185 114.826
130.225 13196 114.874
130.342 13465 116.039
130.459 13834 117.618
130.576 13249 115.104
130.693 11510 107.285
130.81 9463 97.278
130.928 9639 98.1784
131.045 11591 107.662
131.162 12910 113.622
131.279 13511 116.237
131.396 13065 114.302
131.513 13325 115.434
131.631 13148 114.665
131.748 13413 115.815
131.865 13042 114.202
131.983 13146 114.656
132.1 12693 112.663
132.217 12500 111.803
132.335 12385 111.288
132.452 11970 109.407
132.57 11535 107.401
132.687 11210 105.877
132.804 11859 108.899
132.922 11454 107.023
133.039 11229 105.967
133.157 11121 105.456
133.274 11123 105.466
133.392 11326 106.424
133.509 11098 105.347
133.627 11143 105.56
133.744 11131 105.504
133.862 11265 106.137
133.979 11260 106.113
134.097 10687 103.378
134.214 9325 96.566
134.332 7171 84.6818
134.449 7454 86.3366
134.567 9115 95.4725
134.684 10226 101.124
134.802 10590 102.908
134.919 10601 102.961
135.037 10617 103.039
135.154 10609 103
135.272 10638 103.141
135.389 10660 103.247
135.507 10581 102.864
135.624 10393 101.946
135.742 10330 101.637
135.859 10304 101.509
135.977 9934 99.6695
136.094 9792 98.9545
136.211 9716 98.5698
136.329 9742 98.7016
136.446 9397 96.9381
136.564 9257 96.2133
136.681 8862 94.1382
136.798 9120 95.4987
136.915 8985 94.7892
137.033 8946 94.5833
137.15 9049 95.1262
137.267 9039 95.0737
137.384 8805 93.835
137.502 8995 94.842
137.619 8742 93.4987
137.736 8260 90.8845
137.853 6816 82.5591
137.97 5881 76.6877
138.087 6633 81.4432
138.204 8244 90.7965
138.321 8699 93.2684
138.438 9149 95.6504
138.555 9079 95.2838
138.672 9353 96.7109
138.788 9439 97.1545
138.905 9926 99.6293
139.022 9837 99.1817
139.139 9860 99.2975
139.255 9697 98.4733
139.372 9819 99.0909
139.488 9967 99.8349
139.605 9867 99.3328
139.721 10135 100.673
139.838 9928 99.6393
139.954 10130 100.648
140.071 9829 99.1413
140.187 9925 99.6243
140.303 9878 99.3881
140.419 9749 98.737
140.535 9724 98.6103
140.652 9698 98.4784
140.768 0 1
140.884 0 1
141 0 1
141.115 0 1
141.231 0 1
141.347 0 1
141.463 0 1
141.578 0 1
141.694 0 1
144.104 0 1
144.219 0 1
144.335 0 1
144.45 0 1
144.566 0 1
144.682 0 1
144.798 0 1
144.914 0 1
145.03 0 1
145.146 8007 89.4818
145.262 8225 90.6918
145.378 7970 89.2749
145.494 7973 89.2917
145.61 7672 87.59
145.726 7597 87.1608
145.842 7519 86.7122
145.959 7467 86.4118
146.075 7525 86.7468
146.192 7661 87.5271
146.308 7467 86.4118
146.425 6930 83.2466
146.541 6513 80.7032
146.658 6314 79.4607
146.774 6223 78.886
146.891 6582 81.1295
147.008 6740 82.0975
147.125 7244 85.1117
147.241 6957 83.4086
147.358 7077 84.1249
147.475 6919 83.1805
147.592 6853 82.7828
147.709 6839 82.6982
147.826 6844 82.7285
147.943 6872 82.8975
148.06 6704 81.878
148.177 6772 82.2922
148.294 6700 81.8535
148.411 6824 82.6075
148.528 6706 81.8902
148.645 6695 81.823
148.762 6429 80.181
148.88 6210 78.8036
148.997 6650 81.5475
149.114 5725 75.6637
149.231 6023 77.608
149.349 6126 78.2688
149.466 6208 78.7909
149.583 6344 79.6492
149.701 6355 79.7183
149.818 6480 80.4984
149.935 6403 80.0187
150.053 6709 81.9085
150.17 6653 81.5659
150.287 6736 82.0731
150.405 6898 83.0542
150.522 7095 84.2318
150.64 7491 86.5506
150.757 7484 86.5101
150.875 7641 87.4128
150.992 7700 87.7496
151.11 7894 88.8482
151.227 7884 88.7919
151.344 7792 88.2723
151.462 7582 87.0747
151.579 7820 88.4308
151.697 7591 87.1263
151.814 7663 87.5386
151.932 7716 87.8408
152.049 8028 89.5991
152.167 7962 89.23
152.284 7982 89.342
152.402 7735 87.9488
152.519 7487 86.5275
152.636 7321 85.5628
152.754 7491 86.5506
152.871 7525 86.7468
152.989 7566 86.9828
153.106 7725 87.892
153.223 7967 89.2581
153.341 7880 88.7694
153.458 7687 87.6755
153.575 7805 88.3459
153.693 8071 89.8387
153.81 8367 91.4713
153.927 8851 94.0798
154.044 9450 97.2111
154.162 9680 98.387
154.279 9854 99.2673
154.396 10211 101.049
154.513 10234 101.163
154.63 10592 102.917
154.747 10858 104.202
154.864 10683 103.359
154.981 10529 102.611
155.098 10438 102.167
155.215 10275 101.366
155.332 10526 102.596
155.449 10709 103.484
155.566 10741 103.639
155.683 10521 102.572
155.8 10271 101.346
155.917 9953 99.7647
156.033 9735 98.6661
156.15 0 1
156.267 0 1
156.383 0 1
156.5 0 1
156.617 0 1
156.733 0 1
156.85 0 1
156.966 0 1
157.082 0 1
157.199 0 1
157.315 0 1
157.431 0 1
157.547 0 1
157.664 0 1
157.78 0 1
157.896 0 1
158.012 0 1
158.128 0 1
158.244 0 1
158.359 0 1
158.475 0 1
158.591 0 1
158.706 0 1
