
6.15755 0 1
6.2731 0 1
6.3887 0 1
6.50437 0 1
6.62009 0 1
6.73587 0 1
6.8517 0 1
6.96759 0 1
7.08353 0 1
7.19952 0 1
7.31557 0 1
7.43166 0 1
7.54781 0 1
7.664 0 1
7.78024 0 1
7.89653 0 1
8.01286 0 1
8.12924 0 1
8.24567 0 1
8.36213 0 1
8.47864 0 1
8.59519 0 1
8.71178 0 1
8.82841 0 1
8.94508 0 1
9.06179 0 1
9.17853 0 1
9.29531 0 1
9.41212 0 1
9.52897 0 1
9.64584 0 1
9.76276 0 1
9.8797 0 1
9.99667 0 1
10.1137 0 1
10.2307 0 1
10.3478 0 1
10.4648 0 1
10.5819 0 1
10.6991 0 1
10.8162 0 1
10.9334 0 1
11.0506 0 1
11.1678 0 1
11.285 0 1
11.4023 0 1
11.5196 0 1
11.6369 0 1
11.7542 0 1
11.8715 0 1
11.9888 0 1
12.1062 0 1
12.2235 0 1
12.3409 0 1
12.4582 0 1
12.5756 0 1
12.693 0 1
12.8104 0 1
12.9278 0 1
13.0452 0 1
13.1626 0 1
13.28 0 1
13.3974 0 1
13.5149 0 1
13.6323 0 1
13.7497 0 1
13.8671 0 1
13.9845 0 1
14.1019 0 1
14.2193 0 1
14.3367 0 1
14.4541 0 1
14.5714 0 1
14.6888 0 1
14.8062 0 1
14.9235 0 1
15.0408 86909 294.803
15.1581 90687 301.143
15.2755 93696 306.098
15.3927 95653 309.278
15.51 96511 310.662
15.6273 95696 309.348
15.7445 94119 306.788
15.8617 92229 303.692
15.9789 89078 298.459
16.0961 90764 301.271
16.2132 93799 306.266
16.3304 98529 313.893
16.4475 101952 319.299
16.5646 104163 322.743
16.6816 105547 324.88
16.7986 104578 323.385
16.9156 104722 323.608
17.0326 104829 323.773
17.1496 104987 324.017
17.2665 103467 321.663
17.3833 100061 316.324
17.5002 95480 308.998
17.617 92436 304.033
17.7338 90094 300.157
17.8505 91219 302.025
17.9672 95769 309.466
18.0839 98731 314.215
18.2005 101169 318.071
18.3171 102840 320.687
18.4337 104855 323.813
18.5502 108117 328.811
18.6666 108573 329.504
18.7831 109059 330.241
18.8994 108390 329.226
19.0158 106079 325.698
19.1321 103440 321.621
19.2483 98495 313.839
19.3645 95180 308.513
19.4806 91438 302.387
19.5967 90336 300.559
19.7128 93357 305.544
19.8288 97268 311.878
19.9447 92729 304.514
20.0606 0 1
20.1764 0 1
20.2922 0 1
20.4079 0 1
20.5236 0 1
20.6392 0 1
20.7548 0 1
20.8702 0 1
23.3078 0 1
23.4233 0 1
23.539 0 1
23.6547 0 1
23.7704 0 1
23.8862 0 1
24.0021 0 1
24.118 0 1
24.234 0 1
24.35 0 1
24.4661 91688 302.8
24.5822 91371 302.276
24.6984 93631 305.992
24.8146 98594 313.997
24.9309 103003 320.941
25.0472 107765 328.276
25.1636 109480 330.878
25.28 109982 331.635
25.3965 110026 331.702
25.513 111473 333.876
25.6296 113210 336.467
25.7462 113249 336.525
25.8628 111266 333.566
25.9795 107164 327.359
26.0962 102376 319.962
26.213 96893 311.276
26.3298 94391 307.231
26.4466 93807 306.279
26.5635 96175 310.121
26.6804 100830 317.537
26.7973 102978 320.902
26.9143 105253 324.427
27.0313 107466 327.82
27.1483 110956 333.101
27.2653 111963 334.609
27.3824 113415 336.771
27.4996 112210 334.978
27.6167 110026 331.702
27.7339 107028 327.151
27.8511 101581 318.718
27.9683 96002 309.842
28.0855 91743 302.891
28.2028 91304 302.166
28.3201 93756 306.196
28.4374 100192 316.531
28.5547 104820 323.759
28.6721 108564 329.491
28.7894 109637 331.115
28.9068 109556 330.992
29.0242 109023 330.186
29.1416 108798 329.845
29.259 107610 328.04
29.3764 105610 324.977
29.4939 101071 317.917
29.6113 94486 307.386
29.7288 90239 300.398
29.8463 86717 294.478
29.9638 85344 292.137
30.0812 87472 295.757
30.1987 92339 303.873
30.3162 95471 308.984
30.4337 97809 312.744
30.5512 101535 318.646
30.6687 102425 320.039
30.7862 105756 325.201
30.9037 105391 324.64
31.0212 105912 325.441
31.1387 104916 323.907
31.2562 103235 321.302
31.3737 98992 314.63
31.4912 93997 306.589
31.6087 89768 299.613
31.7262 87788 296.29
31.8436 90560 300.932
31.9611 95347 308.783
32.0785 100734 317.386
32.1959 103852 322.261
32.3134 104559 323.356
32.4308 104822 323.762
32.5482 104851 323.807
32.6655 104583 323.393
32.7829 103622 321.904
32.9002 103205 321.255
33.0176 102552 320.237
33.1349 98441 313.753
33.2522 93812 306.287
33.3694 86590 294.262
33.4867 84145 290.078
33.6039 80965 284.543
33.7211 80552 283.817
33.8383 84152 290.09
33.9554 88793 297.982
34.0725 91192 301.98
34.1896 93953 306.518
34.3067 96513 310.665
34.4237 97531 312.3
34.5407 99830 315.959
34.6577 99931 316.119
34.7746 99495 315.428
34.8915 98124 313.248
35.0084 96103 310.005
35.1252 91298 302.156
35.242 87445 295.711
35.3587 82372 287.005
35.4755 82211 286.725
35.5921 86547 294.189
35.7088 90457 300.761
35.8254 95190 308.529
35.9419 98803 314.329
36.0584 99382 315.249
36.1749 99895 316.062
36.2913 99224 314.998
36.4077 98136 313.267
36.524 98405 313.696
36.6403 97291 311.915
36.7565 95461 308.968
36.8727 89464 299.105
36.9889 83828 289.531
37.1049 79398 281.777
37.221 0 1
37.3369 0 1
37.4529 0 1
37.5687 0 1
37.6845 0 1
37.8003 0 1
37.916 0 1
38.0316 0 1
38.1472 0 1
40.5851 0 1
40.7008 0 1
40.8164 0 1
40.9322 0 1
41.048 0 1
41.1639 0 1
41.2798 0 1
41.3958 0 1
41.5118 0 1
41.6279 0 1
41.744 76847 277.213
41.8602 81208 284.97
41.9765 80340 283.443
42.0928 76257 276.147
42.2091 71546 267.481
42.3255 66415 257.711
42.4419 62834 250.667
42.5584 61789 248.574
42.675 62868 250.735
42.7915 66820 258.496
42.9081 69384 263.408
43.0248 71418 267.241
43.1415 73336 270.806
43.2582 74227 272.446
43.375 74705 273.322
43.4918 74639 273.201
43.6087 75218 274.259
43.7256 73549 271.199
43.8425 71530 267.451
43.9595 69024 262.724
44.0765 66416 257.713
44.1935 62936 250.87
44.3106 59400 243.721
44.4277 58266 241.384
44.5448 59957 244.861
44.6619 62376 249.752
44.7791 64023 253.028
44.8963 64592 254.15
45.0136 63933 252.85
45.1308 62744 250.488
45.2481 62012 249.022
45.3654 60673 246.319
45.4827 59852 244.647
45.6001 57955 240.738
45.7174 54107 232.609
45.8348 50445 224.6
45.9522 47356 217.614
46.0697 44913 211.927
46.1871 44568 211.111
46.3046 46227 215.005
46.422 48259 219.679
46.5395 50241 224.145
46.657 51451 226.828
46.7745 52589 229.323
46.892 52466 229.055
47.0096 52002 228.039
47.1271 52334 228.766
47.2446 52020 228.079
47.3622 51178 226.226
47.4797 49990 223.584
47.5973 48488 220.2
47.7149 46687 216.072
47.8324 44764 211.575
47.95 42870 207.051
48.0675 43728 209.112
48.1851 45102 212.372
48.3027 47516 217.982
48.4202 48750 220.794
48.5378 49085 221.551
48.6554 49492 222.468
48.7729 49559 222.619
48.8904 49370 222.194
49.008 49357 222.164
49.1255 47926 218.92
49.243 45335 212.92
49.3605 42784 206.843
49.478 40738 201.837
49.5955 39495 198.733
49.713 39518 198.791
49.8304 42125 205.244
49.9479 45948 214.355
50.0653 49122 221.635
50.1827 51688 227.35
50.3001 54001 232.381
50.4175 55173 234.889
50.5348 56309 237.295
50.6521 58269 241.39
50.7694 59388 243.697
50.8867 59856 244.655
51.004 60169 245.294
51.1212 60480 245.927
51.2384 60422 245.809
51.3556 58919 242.732
51.4727 58173 241.191
51.5899 59669 244.272
51.707 64048 253.077
51.824 68345 261.429
51.9411 72439 269.145
52.0581 73636 271.36
52.175 75141 274.119
52.2919 76846 277.211
52.4088 77422 278.248
52.5257 79498 281.954
52.6425 79876 282.623
52.7593 77989 279.265
52.876 73489 271.089
52.9927 68389 261.513
53.1094 64945 254.843
53.226 62075 249.149
53.3426 61654 248.302
53.4591 66266 257.422
53.5756 74273 272.531
53.692 79997 282.837
53.8084 84559 290.79
53.9248 88161 296.919
54.0411 90605 301.007
54.1573 92159 303.577
54.2735 0 1
54.3896 0 1
54.5057 0 1
54.6217 0 1
54.7377 0 1
54.8537 0 1
54.9695 0 1
55.0853 0 1
55.2011 0 1
55.3168 0 1
55.4324 0 1
57.824 0 1
57.9396 0 1
58.0553 0 1
58.1711 0 1
58.2869 0 1
58.4028 0 1
58.5187 0 1
58.6347 0 1
58.7508 0 1
58.8669 0 1
58.983 100806 317.5
59.0992 109419 330.785
59.2155 111614 334.087
59.3318 113360 336.69
59.4482 114900 338.969
59.5646 115185 339.389
59.681 115333 339.607
59.7975 114919 338.997
59.9141 113396 336.743
60.0306 111640 334.126
60.1473 107980 328.603
60.2639 104074 322.605
60.3807 103693 322.014
60.4974 106778 326.769
60.6142 111278 333.584
60.731 115194 339.402
60.8479 116589 341.451
60.9648 116902 341.909
61.0818 117269 342.446
61.1987 115337 339.613
61.3158 113530 336.942
61.4328 110108 331.825
61.5499 101424 318.471
61.667 93626 305.984
61.7841 86456 294.034
61.9013 81455 285.403
62.0185 80332 283.429
62.1357 85428 292.281
62.253 92849 304.711
62.3702 99755 315.84
62.4875 103974 322.45
62.6049 106412 326.209
62.7222 107053 327.19
62.8396 109312 330.624
62.9569 108494 329.384
63.0743 108158 328.874
63.1918 107394 327.71
63.3092 107553 327.953
63.4267 104816 323.753
63.5441 102484 320.131
63.6616 99093 314.79
63.7791 94569 307.521
63.8966 92494 304.128
64.0142 93124 305.162
64.1317 97399 312.088
64.2492 100966 317.751
64.3668 102364 319.944
64.4843 101876 319.18
64.6019 100860 317.585
64.7195 99888 316.051
64.837 100218 316.572
64.9546 96859 311.222
65.0722 92217 303.673
65.1898 83460 288.894
65.3074 77277 277.987
65.4249 70322 265.183
65.5425 67170 259.172
65.6601 67157 259.147
65.7777 72930 270.056
65.8952 80210 283.214
66.0128 85984 293.23
66.1304 89952 299.92
66.2479 91483 302.462
66.3655 92021 303.35
66.483 92773 304.587
66.6005 93267 305.396
66.718 94855 307.985
66.8355 94057 306.687
66.953 94645 307.644
67.0705 92862 304.733
67.1879 92598 304.299
67.3054 89245 298.739
67.4228 86136 293.489
67.5402 83413 288.813
67.6576 84413 290.539
67.7749 87041 295.027
67.8923 93499 305.776
68.0096 95677 309.317
68.1269 95149 308.462
68.2442 95663 309.294
68.3614 94936 308.117
68.4787 94264 307.024
68.5958 95011 308.239
68.713 91612 302.675
68.8302 85104 291.726
68.9473 77336 278.094
69.0643 71945 268.226
69.1814 67372 259.561
69.2984 66737 258.335
69.4154 71294 267.009
69.5323 79516 281.986
69.6492 86975 294.915
69.7661 92095 303.472
69.8829 94244 306.992
69.9997 96386 310.461
70.1165 96844 311.198
70.2332 98196 313.362
70.3499 99224 314.998
70.4665 100366 316.806
70.5831 100667 317.281
70.6996 100160 316.481
70.8161 100162 316.484
70.9326 99184 314.935
71.049 96238 310.223
71.1653 90408 300.679
71.2817 87195 295.288
71.3979 86197 293.593
71.5141 88837 298.055
71.6303 92580 304.27
71.7464 90365 300.608
71.8624 0 1
71.9784 0 1
72.0944 0 1
72.2102 0 1
72.3261 0 1
72.4418 0 1
72.5575 0 1
72.6732 0 1
75.1054 0 1
75.2209 0 1
75.3365 0 1
75.4521 0 1
75.5678 0 1
75.6835 0 1
75.7993 0 1
75.9151 0 1
76.031 0 1
76.147 92345 303.883
76.263 95877 309.64
76.3791 92378 303.937
76.4952 87535 295.863
76.6113 89128 298.543
76.7276 94162 306.858
76.8438 100493 317.006
76.9601 102229 319.733
77.0765 102530 320.203
77.1929 101191 318.105
77.3093 101928 319.262
77.4258 100872 317.604
77.5423 99562 315.534
77.6589 91596 302.648
77.7755 82888 287.903
77.8921 75360 274.518
78.0088 69191 263.042
78.1256 65407 255.748
78.2423 64362 253.697
78.3591 69266 263.184
78.4759 79544 282.035
78.5928 86521 294.145
78.7097 90468 300.779
78.8266 90797 301.325
78.9436 96150 310.081
79.0606 94593 307.56
79.1776 95917 309.705
79.2946 97839 312.792
79.4117 98949 314.562
79.5288 99195 314.952
79.6459 99172 314.916
79.7631 97875 312.85
79.8802 97543 312.319
79.9974 93323 305.488
80.1147 87949 296.562
80.2319 87295 295.457
80.3491 90663 301.103
80.4664 97189 311.752
80.5837 99029 314.689
80.701 99775 315.872
80.8183 100158 316.477
80.9357 99447 315.352
81.053 98745 314.237
81.1704 98853 314.409
81.2877 97087 311.588
81.4051 90160 300.267
81.5225 81046 284.686
81.6399 71890 268.123
81.7573 68428 261.587
81.8747 64932 254.818
81.9922 67962 260.695
82.1096 76862 277.24
82.227 85863 293.024
82.3444 88878 298.124
82.4619 92988 304.939
82.5793 96394 310.474
82.6967 94822 307.932
82.8142 97458 312.183
82.9316 99474 315.395
83.049 101185 318.096
83.1664 101765 319.006
83.2838 101888 319.199
83.4012 102569 320.264
83.5186 101554 318.675
83.636 98121 313.243
83.7534 92076 303.44
83.8708 90913 301.518
83.9881 92818 304.66
84.1055 98150 313.289
84.2228 104801 323.73
84.3401 105287 324.48
84.4575 106100 325.73
84.5747 106427 326.232
84.692 105516 324.832
84.8093 105233 324.396
84.9265 100216 316.569
85.0437 91208 302.007
85.1609 81862 286.115
85.2781 75763 275.251
85.3952 72261 268.814
85.5123 71963 268.259
85.6294 78217 279.673
85.7465 89450 299.082
85.8636 97145 311.681
85.9806 101650 318.826
86.0976 106487 326.323
86.2145 110938 333.074
86.3315 114678 338.641
86.4484 119993 346.4
86.5652 122763 350.376
86.682 125055 353.631
86.7988 128217 358.074
86.9156 130133 360.74
87.0323 131534 362.676
87.149 130608 361.397
87.2657 127896 357.626
87.3823 122972 350.674
87.4988 124978 353.522
87.6154 132486 363.986
87.7318 144037 379.522
87.8483 149747 386.972
87.9647 154421 392.964
88.081 155191 393.943
88.1973 158215 397.762
88.3136 158896 398.618
88.4298 156399 395.473
88.546 147992 384.697
88.6621 133033 364.737
88.7781 122665 350.236
88.8942 0 1
89.0101 0 1
89.126 0 1
89.2419 0 1
89.3577 0 1
89.4734 0 1
89.5891 0 1
89.7047 0 1
89.8203 0 1
89.9358 0 1
92.3269 0 1
92.4424 0 1
92.558 0 1
92.6736 0 1
92.7893 0 1
92.905 0 1
93.0208 0 1
93.1366 0 1
93.2525 0 1
93.3685 0 1
93.4845 0 1
93.6005 162699 403.36
93.7167 159693 399.616
93.8328 150563 388.024
93.949 137593 370.935
94.0653 125354 354.054
94.1816 117665 343.023
94.2979 111621 334.097
94.4143 110709 332.73
94.5307 116453 341.252
94.6472 127446 356.996
94.7637 136217 369.076
94.8803 141563 376.249
94.9969 146542 382.808
95.1135 151979 389.845
95.2302 156194 395.214
95.3469 159252 399.064
95.4637 161168 401.457
95.5805 162999 403.731
95.6973 164449 405.523
95.8142 164428 405.497
95.9311 162744 403.415
96.048 159894 399.867
96.1649 155497 394.331
96.2819 150108 387.438
96.3989 143221 378.446
96.516 140613 374.984
96.633 142457 377.435
96.7501 145702 381.709
96.8673 148848 385.808
96.9844 148110 384.851
97.1016 146711 383.029
97.2188 142833 377.933
97.336 140843 375.291
97.4532 135293 367.822
97.5704 126514 355.688
97.6877 113597 337.042
97.805 101646 318.82
97.9223 92409 303.988
98.0396 85797 292.911
98.1569 83205 288.453
98.2743 85291 292.046
98.3916 92404 303.98
98.509 97924 312.928
98.6264 100848 317.566
98.7438 104692 323.561
98.8612 107942 328.545
98.9786 110417 332.291
99.096 110742 332.779
99.2134 111851 334.441
99.3308 112109 334.827
99.4482 110843 332.931
99.5656 109480 330.878
99.6831 107088 327.243
99.8005 105027 324.079
99.9179 102910 320.796
100.035 98013 313.07
100.153 97514 312.272
100.27 100766 317.437
100.388 104513 323.285
100.505 107043 327.174
100.622 107683 328.151
100.74 106746 326.72
100.857 106931 327.003
100.975 106988 327.09
101.092 104643 323.486
101.209 101630 318.795
101.327 93584 305.915
101.444 85769 292.863
101.561 80533 283.783
101.679 77205 277.858
101.796 74608 273.145
101.913 77566 278.507
102.03 84229 290.222
102.148 89371 298.95
102.265 86489 294.09
102.382 105755 325.2
102.499 103119 321.121
102.616 105996 325.57
102.733 107598 328.021
102.851 109594 331.05
102.968 111020 333.197
103.085 110137 331.869
103.202 109734 331.261
103.319 107903 328.486
103.436 104630 323.466
103.552 100885 317.624
103.669 99586 315.572
103.786 102441 320.064
103.903 106895 326.948
104.02 109723 331.245
104.137 111496 333.91
104.253 110806 332.875
104.37 110462 332.358
104.487 110402 332.268
104.603 108583 329.519
104.72 104021 322.523
104.836 95876 309.638
104.953 88475 297.447
105.069 82573 287.355
105.186 77918 279.138
105.302 75701 275.138
105.418 79819 282.523
105.535 85287 292.039
105.651 90369 300.614
105.767 94447 307.322
105.883 100055 316.315
105.999 102348 319.919
106.115 0 1
106.231 0 1
106.347 0 1
106.463 0 1
106.579 0 1
106.694 0 1
106.81 0 1
106.926 0 1
107.041 0 1
107.157 0 1
109.576 0 1
109.692 0 1
109.807 0 1
109.923 0 1
110.039 0 1
110.155 0 1
110.27 0 1
110.386 0 1
110.502 0 1
110.618 77085 277.642
110.735 83735 289.37
110.851 87663 296.079
110.967 92253 303.732
111.083 94889 308.041
111.199 98545 313.919
111.316 100100 316.386
111.432 101597 318.743
111.549 100851 317.57
111.665 100587 317.155
111.782 99188 314.941
111.898 96213 310.182
112.015 92705 304.475
112.132 90822 301.367
112.248 91167 301.939
112.365 93230 305.336
112.482 98445 313.759
112.599 96852 311.211
112.716 97996 313.043
112.832 97427 312.133
112.949 97038 311.509
113.066 96539 310.707
113.183 95562 309.131
113.3 92444 304.046
113.417 85758 292.845
113.534 78713 280.558
113.652 72312 268.909
113.769 68028 260.822
113.886 64075 253.13
114.003 66837 258.529
114.12 72116 268.544
114.238 76495 276.577
114.355 80546 283.806
114.472 84812 291.225
114.589 84858 291.304
114.707 87486 295.78
114.824 89249 298.746
114.942 90216 300.36
115.059 90402 300.669
115.176 89620 299.366
115.294 88314 297.177
115.411 86140 293.496
115.529 82441 287.125
115.646 80447 283.632
115.764 79508 281.972
115.881 81129 284.832
115.999 83280 288.583
116.116 85405 292.241
116.234 85677 292.706
116.351 85868 293.032
116.469 85231 291.943
116.586 85339 292.128
116.704 85308 292.075
116.821 85436 292.294
116.939 82823 287.79
117.056 76689 276.928
117.174 70193 264.94
117.291 64852 254.661
117.409 61460 247.911
117.526 59665 244.264
117.644 63706 252.4
117.761 69620 263.856
117.879 74930 273.733
117.996 78012 279.306
118.114 81874 286.136
118.231 85632 292.629
118.349 86546 294.187
118.466 88754 297.916
118.584 91060 301.761
118.701 91300 302.159
118.819 90887 301.475
118.936 90109 300.182
119.053 88641 297.726
119.171 86254 293.69
119.288 85250 291.976
119.405 85580 292.541
119.523 87858 296.409
119.64 90277 300.461
119.757 93608 305.954
119.875 94052 306.679
119.992 94868 308.006
120.109 95647 309.268
120.226 95471 308.984
120.343 96051 309.921
120.46 96603 310.81
120.578 95744 309.425
120.695 90537 300.894
120.812 83914 289.679
120.929 76634 276.828
121.046 71498 267.391
121.163 67018 258.878
121.279 68200 261.151
121.396 74127 272.263
121.513 82491 287.212
121.63 87898 296.476
121.747 92188 303.625
121.863 95339 308.77
121.98 99772 315.867
122.097 100955 317.734
122.213 103131 321.14
122.33 104842 323.793
122.446 104736 323.629
122.563 103651 321.949
122.679 103543 321.781
122.795 101392 318.421
122.912 99840 315.975
123.028 98420 313.72
123.144 97641 312.476
123.26 99020 314.674
123.377 0 1
123.493 0 1
123.609 0 1
123.725 0 1
123.84 0 1
123.956 0 1
124.072 0 1
124.188 0 1
124.303 0 1
124.419 0 1
126.852 0 1
126.968 0 1
127.083 0 1
127.199 0 1
127.315 0 1
127.431 0 1
127.547 0 1
127.663 0 1
127.779 0 1
127.895 0 1
128.011 0 1
128.127 0 1
128.243 0 1
128.359 111106 333.326
128.476 111557 334.001
128.592 112170 334.918
128.708 114464 338.325
128.825 117726 343.112
128.941 119614 345.853
129.058 119308 345.41
129.174 119250 345.326
129.291 119341 345.458
129.408 118912 344.836
129.524 118584 344.36
129.641 116554 341.4
129.758 110910 333.032
129.875 101836 319.118
129.992 92351 303.893
130.108 84896 291.369
130.225 78596 280.35
130.342 78978 281.03
130.459 85836 292.978
130.576 92241 303.712
130.693 99383 315.251
130.81 102281 319.814
130.928 104156 322.732
131.045 106945 327.024
131.162 108169 328.891
131.279 109538 330.965
131.396 107908 328.494
131.513 107517 327.898
131.631 104511 323.282
131.748 102030 319.421
131.865 100205 316.552
131.983 98972 314.598
132.1 98814 314.347
132.217 99593 315.584
132.335 100384 316.834
132.452 101469 318.542
132.57 99634 315.649
132.687 96583 310.778
132.804 101517 318.617
132.922 96881 311.257
133.039 96177 310.124
133.157 94405 307.254
133.274 91405 302.333
133.392 84388 290.496
133.509 77098 277.665
133.627 69546 263.716
133.744 63588 252.167
133.862 61405 247.8
133.979 63609 252.208
134.097 69623 263.862
134.214 75094 274.033
134.332 75888 275.478
134.449 77846 279.009
134.567 78813 280.737
134.684 79500 281.957
134.802 79235 281.487
134.919 78908 280.906
135.037 77501 278.39
135.154 75771 275.265
135.272 73487 271.085
135.389 73510 271.127
135.507 71153 266.745
135.624 71354 267.122
135.742 71698 267.765
135.859 72251 268.795
135.977 72609 269.461
136.094 72428 269.125
136.211 71512 267.417
136.329 70706 265.906
136.446 70800 266.083
136.564 70044 264.658
136.681 68631 261.975
136.798 69938 264.458
136.915 67396 259.607
137.033 62628 250.256
137.15 57655 240.115
137.267 53790 231.927
137.384 50179 224.007
137.502 48932 221.206
137.619 50979 225.785
137.736 56893 238.523
137.853 60102 245.157
137.97 64307 253.588
138.087 67335 259.49
138.204 68540 261.801
138.321 70066 264.7
138.438 71372 267.155
138.555 73288 270.718
138.672 72679 269.59
138.788 71525 267.442
138.905 71260 266.946
139.022 70968 266.398
139.139 71954 268.242
139.255 72998 270.181
139.372 74108 272.228
139.488 75781 275.283
139.605 76625 276.812
139.721 77815 278.953
139.838 78719 280.569
139.954 79573 282.087
140.071 78505 280.187
140.187 81306 285.142
140.303 80210 283.214
140.419 79928 282.715
140.535 79547 282.041
140.652 75062 273.974
140.768 0 1
140.884 0 1
141 0 1
141.115 0 1
141.231 0 1
141.347 0 1
141.463 0 1
141.578 0 1
141.694 0 1
144.104 0 1
144.219 0 1
144.335 0 1
144.45 0 1
144.566 0 1
144.682 0 1
144.798 0 1
144.914 0 1
145.03 0 1
145.146 69168 262.998
145.262 70533 265.58
145.378 69987 264.551
145.494 69252 263.158
145.61 68337 261.413
145.726 65446 255.824
145.842 61615 248.224
145.959 56950 238.642
146.075 53009 230.237
146.192 50385 224.466
146.308 48897 221.127
146.425 51173 226.214
146.541 53729 231.795
146.658 56162 236.985
146.774 58762 242.409
146.891 60241 245.44
147.008 60600 246.171
147.125 61298 247.584
147.241 61089 247.162
147.358 60395 245.754
147.475 59272 243.458
147.592 58066 240.969
147.709 56685 238.086
147.826 56254 237.179
147.943 56706 238.13
148.06 56899 238.535
148.177 57343 239.464
148.294 57595 239.99
148.411 57706 240.221
148.528 57009 238.766
148.645 56921 238.581
148.762 56197 237.059
148.88 55707 236.023
148.997 57866 240.554
149.114 52579 229.301
149.231 54390 233.217
149.349 52607 229.362
149.466 51134 226.128
149.583 46706 216.116
149.701 43920 209.571
149.818 41845 204.561
149.935 41778 204.397
150.053 43552 208.691
150.17 45805 214.021
150.287 47907 218.877
150.405 49841 223.251
150.522 51494 226.923
150.64 52956 230.122
150.757 53646 231.616
150.875 53566 231.443
150.992 52949 230.106
151.11 53621 231.562
151.227 52571 229.284
151.344 52031 228.103
151.462 52390 228.889
151.579 52623 229.397
151.697 54451 233.347
151.814 55050 234.627
151.932 56371 237.426
152.049 57274 239.32
152.167 57635 240.073
152.284 57914 240.653
152.402 58676 242.231
152.519 58459 241.783
152.636 58824 242.537
152.754 59063 243.029
152.871 59033 242.967
152.989 57826 240.47
153.106 54459 233.365
153.223 51060 225.965
153.341 48851 221.023
153.458 47502 217.95
153.575 48000 219.089
153.693 51020 225.876
153.81 53917 232.2
153.927 56274 237.221
154.044 58658 242.194
154.162 60654 246.28
154.279 62930 250.859
154.396 65255 255.451
154.513 66133 257.163
154.63 67512 259.831
154.747 67629 260.056
154.864 67046 258.932
154.981 66102 257.103
155.098 66566 258.004
155.215 67465 259.74
155.332 69110 262.888
155.449 70343 265.223
155.566 71365 267.142
155.683 72533 269.32
155.8 72984 270.156
155.917 72968 270.126
156.033 73971 271.976
156.15 0 1
156.267 0 1
156.383 0 1
156.5 0 1
156.617 0 1
156.733 0 1
156.85 0 1
156.966 0 1
157.082 0 1
157.199 0 1
157.315 0 1
157.431 0 1
157.547 0 1
157.664 0 1
157.78 0 1
157.896 0 1
158.012 0 1
158.128 0 1
158.244 0 1
158.359 0 1
158.475 0 1
158.591 0 1
158.706 0 1
