
6.15755 0 1
6.2731 0 1
6.3887 0 1
6.50437 0 1
6.62009 0 1
6.73587 0 1
6.8517 0 1
6.96759 0 1
7.08353 0 1
7.19952 0 1
7.31557 0 1
7.43166 0 1
7.54781 0 1
7.664 0 1
7.78024 0 1
7.89653 0 1
8.01286 0 1
8.12924 0 1
8.24567 0 1
8.36213 0 1
8.47864 0 1
8.59519 0 1
8.71178 0 1
8.82841 0 1
8.94508 0 1
9.06179 0 1
9.17853 0 1
9.29531 0 1
9.41212 0 1
9.52897 0 1
9.64584 0 1
9.76276 0 1
9.8797 0 1
9.99667 0 1
10.1137 0 1
10.2307 0 1
10.3478 0 1
10.4648 0 1
10.5819 0 1
10.6991 0 1
10.8162 0 1
10.9334 0 1
11.0506 0 1
11.1678 0 1
11.285 0 1
11.4023 0 1
11.5196 0 1
11.6369 0 1
11.7542 0 1
11.8715 0 1
11.9888 0 1
12.1062 0 1
12.2235 0 1
12.3409 0 1
12.4582 0 1
12.5756 0 1
12.693 0 1
12.8104 0 1
12.9278 0 1
13.0452 0 1
13.1626 0 1
13.28 0 1
13.3974 0 1
13.5149 0 1
13.6323 0 1
13.7497 0 1
13.8671 0 1
13.9845 0 1
14.1019 0 1
14.2193 0 1
14.3367 0 1
14.4541 0 1
14.5714 0 1
14.6888 0 1
14.8062 0 1
14.9235 0 1
15.0408 765 27.6586
15.1581 846 29.0861
15.2755 953 30.8707
15.3927 925 30.4138
15.51 975 31.225
15.6273 964 31.0483
15.7445 937 30.6105
15.8617 929 30.4795
15.9789 962 31.0161
16.0961 932 30.5287
16.2132 890 29.8329
16.3304 940 30.6594
16.4475 873 29.5466
16.5646 919 30.315
16.6816 998 31.5911
16.7986 1101 33.1813
16.9156 1067 32.665
17.0326 1083 32.909
17.1496 1017 31.8904
17.2665 1112 33.3467
17.3833 1097 33.121
17.5002 1010 31.7805
17.617 992 31.496
17.7338 969 31.1288
17.8505 898 29.9666
17.9672 939 30.6431
18.0839 992 31.496
18.2005 923 30.3809
18.3171 928 30.4631
18.4337 1021 31.9531
18.5502 987 31.4166
18.6666 1006 31.7175
18.7831 1091 33.0303
18.8994 1012 31.8119
19.0158 1089 33
19.1321 1051 32.4191
19.2483 967 31.0966
19.3645 913 30.2159
19.4806 829 28.7924
19.5967 815 28.5482
19.7128 755 27.4773
19.8288 719 26.8142
19.9447 596 24.4131
20.0606 0 1
20.1764 0 1
20.2922 0 1
20.4079 0 1
20.5236 0 1
20.6392 0 1
20.7548 0 1
20.8702 0 1
23.3078 0 1
23.4233 0 1
23.539 0 1
23.6547 0 1
23.7704 0 1
23.8862 0 1
24.0021 0 1
24.118 0 1
24.234 0 1
24.35 0 1
24.4661 432 20.7846
24.5822 486 22.0454
24.6984 590 24.2899
24.8146 630 25.0998
24.9309 659 25.671
25.0472 720 26.8328
25.1636 707 26.5895
25.28 833 28.8617
25.3965 917 30.282
25.513 1025 32.0156
25.6296 983 31.3528
25.7462 1094 33.0757
25.8628 1036 32.187
25.9795 1077 32.8177
26.0962 1063 32.6037
26.213 1068 32.6803
26.3298 991 31.4802
26.4466 987 31.4166
26.5635 920 30.3315
26.6804 945 30.7409
26.7973 997 31.5753
26.9143 944 30.7246
27.0313 1022 31.9687
27.1483 1037 32.2025
27.2653 1082 32.8938
27.3824 1045 32.3265
27.4996 1072 32.7414
27.6167 1072 32.7414
27.7339 952 30.8545
27.8511 1015 31.8591
27.9683 1002 31.6544
28.0855 973 31.1929
28.2028 897 29.95
28.3201 886 29.7658
28.4374 837 28.931
28.5547 865 29.4109
28.6721 885 29.7489
28.7894 899 29.9833
28.9068 1015 31.8591
29.0242 976 31.241
29.1416 1051 32.4191
29.259 1023 31.9844
29.3764 1077 32.8177
29.4939 1109 33.3017
29.6113 1031 32.1092
29.7288 1027 32.0468
29.8463 977 31.257
29.9638 977 31.257
30.0812 857 29.2746
30.1987 862 29.3598
30.3162 961 31
30.4337 941 30.6757
30.5512 957 30.9354
30.6687 989 31.4484
30.7862 999 31.607
30.9037 1014 31.8434
31.0212 1083 32.909
31.1387 1023 31.9844
31.2562 990 31.4643
31.3737 967 31.0966
31.4912 998 31.5911
31.6087 958 30.9516
31.7262 893 29.8831
31.8436 876 29.5973
31.9611 845 29.0689
32.0785 801 28.3019
32.1959 845 29.0689
32.3134 909 30.1496
32.4308 929 30.4795
32.5482 990 31.4643
32.6655 1027 32.0468
32.7829 1020 31.9374
32.9002 1068 32.6803
33.0176 1023 31.9844
33.1349 998 31.5911
33.2522 954 30.8869
33.3694 983 31.3528
33.4867 885 29.7489
33.6039 875 29.5804
33.7211 854 29.2233
33.8383 860 29.3258
33.9554 856 29.2575
34.0725 973 31.1929
34.1896 896 29.9333
34.3067 940 30.6594
34.4237 934 30.5614
34.5407 978 31.273
34.6577 960 30.9839
34.7746 946 30.7571
34.8915 934 30.5614
35.0084 963 31.0322
35.1252 929 30.4795
35.242 957 30.9354
35.3587 915 30.249
35.4755 934 30.5614
35.5921 802 28.3196
35.7088 828 28.775
35.8254 756 27.4955
35.9419 817 28.5832
36.0584 851 29.1719
36.1749 868 29.4618
36.2913 862 29.3598
36.4077 871 29.5127
36.524 913 30.2159
36.6403 827 28.7576
36.7565 865 29.4109
36.8727 769 27.7308
36.9889 758 27.5318
37.1049 665 25.7876
37.221 0 1
37.3369 0 1
37.4529 0 1
37.5687 0 1
37.6845 0 1
37.8003 0 1
37.916 0 1
38.0316 0 1
38.1472 0 1
40.5851 0 1
40.7008 0 1
40.8164 0 1
40.9322 0 1
41.048 0 1
41.1639 0 1
41.2798 0 1
41.3958 0 1
41.5118 0 1
41.6279 0 1
41.744 473 21.7486
41.8602 557 23.6008
41.9765 558 23.622
42.0928 577 24.0208
42.2091 596 24.4131
42.3255 597 24.4336
42.4419 557 23.6008
42.5584 580 24.0832
42.675 631 25.1197
42.7915 633 25.1595
42.9081 728 26.9815
43.0248 782 27.9643
43.1415 757 27.5136
43.2582 783 27.9821
43.375 811 28.4781
43.4918 787 28.0535
43.6087 808 28.4253
43.7256 779 27.9106
43.8425 789 28.0891
43.9595 814 28.5307
44.0765 775 27.8388
44.1935 731 27.037
44.3106 729 27
44.4277 662 25.7294
44.5448 692 26.3059
44.6619 576 24
44.7791 622 24.9399
44.8963 712 26.6833
45.0136 733 27.074
45.1308 863 29.3769
45.2481 824 28.7054
45.3654 814 28.5307
45.4827 851 29.1719
45.6001 843 29.0345
45.7174 854 29.2233
45.8348 772 27.7849
45.9522 765 27.6586
46.0697 698 26.4197
46.1871 701 26.4764
46.3046 625 25
46.422 761 27.5862
46.5395 793 28.1603
46.657 749 27.3679
46.7745 805 28.3725
46.892 828 28.775
47.0096 795 28.1957
47.1271 848 29.1204
47.2446 861 29.3428
47.3622 818 28.6007
47.4797 807 28.4077
47.5973 814 28.5307
47.7149 801 28.3019
47.8324 712 26.6833
47.95 694 26.3439
48.0675 766 27.6767
48.1851 687 26.2107
48.3027 703 26.5141
48.4202 692 26.3059
48.5378 777 27.8747
48.6554 801 28.3019
48.7729 816 28.5657
48.8904 842 29.0172
49.008 812 28.4956
49.1255 808 28.4253
49.243 836 28.9137
49.3605 708 26.6083
49.478 696 26.3818
49.5955 695 26.3629
49.713 636 25.219
49.8304 683 26.1343
49.9479 661 25.7099
50.0653 775 27.8388
50.1827 754 27.4591
50.3001 817 28.5832
50.4175 804 28.3549
50.5348 809 28.4429
50.6521 825 28.7228
50.7694 829 28.7924
50.8867 787 28.0535
51.004 831 28.8271
51.1212 740 27.2029
51.2384 706 26.5707
51.3556 715 26.7395
51.4727 680 26.0768
51.5899 691 26.2869
51.707 635 25.1992
51.824 668 25.8457
51.9411 715 26.7395
52.0581 747 27.3313
52.175 844 29.0517
52.2919 824 28.7054
52.4088 842 29.0172
52.5257 860 29.3258
52.6425 805 28.3725
52.7593 869 29.4788
52.876 756 27.4955
52.9927 737 27.1477
53.1094 720 26.8328
53.226 669 25.865
53.3426 570 23.8747
53.4591 608 24.6577
53.5756 662 25.7294
53.692 667 25.8263
53.8084 608 24.6577
53.9248 609 24.6779
54.0411 640 25.2982
54.1573 604 24.5764
54.2735 0 1
54.3896 0 1
54.5057 0 1
54.6217 0 1
54.7377 0 1
54.8537 0 1
54.9695 0 1
55.0853 0 1
55.2011 0 1
55.3168 0 1
55.4324 0 1
57.824 0 1
57.9396 0 1
58.0553 0 1
58.1711 0 1
58.2869 0 1
58.4028 0 1
58.5187 0 1
58.6347 0 1
58.7508 0 1
58.8669 0 1
58.983 575 23.9792
59.0992 688 26.2298
59.2155 678 26.0384
59.3318 822 28.6705
59.4482 853 29.2062
59.5646 860 29.3258
59.681 952 30.8545
59.7975 937 30.6105
59.9141 922 30.3645
60.0306 951 30.8383
60.1473 866 29.4279
60.2639 883 29.7153
60.3807 866 29.4279
60.4974 840 28.9828
60.6142 882 29.6985
60.731 905 30.0832
60.8479 950 30.8221
60.9648 1082 32.8938
61.0818 1032 32.1248
61.1987 1056 32.4962
61.3158 1042 32.28
61.4328 1031 32.1092
61.5499 1009 31.7648
61.667 950 30.8221
61.7841 878 29.6311
61.9013 798 28.2489
62.0185 827 28.7576
62.1357 937 30.6105
62.253 922 30.3645
62.3702 983 31.3528
62.4875 1037 32.2025
62.6049 999 31.607
62.7222 1022 31.9687
62.8396 1064 32.619
62.9569 1007 31.7333
63.0743 1020 31.9374
63.1918 1021 31.9531
63.3092 1023 31.9844
63.4267 1059 32.5423
63.5441 959 30.9677
63.6616 959 30.9677
63.7791 831 28.8271
63.8966 834 28.8791
64.0142 784 28
64.1317 909 30.1496
64.2492 944 30.7246
64.3668 960 30.9839
64.4843 1035 32.1714
64.6019 1008 31.749
64.7195 1047 32.3574
64.837 1027 32.0468
64.9546 1017 31.8904
65.0722 954 30.8869
65.1898 1008 31.749
65.3074 856 29.2575
65.4249 816 28.5657
65.5425 836 28.9137
65.6601 837 28.931
65.7777 875 29.5804
65.8952 986 31.4006
66.0128 993 31.5119
66.1304 999 31.607
66.2479 1033 32.1403
66.3655 1052 32.4345
66.483 1054 32.4654
66.6005 1043 32.2955
66.718 1047 32.3574
66.8355 1067 32.665
66.953 1043 32.2955
67.0705 961 31
67.1879 976 31.241
67.3054 1024 32
67.4228 850 29.1548
67.5402 803 28.3373
67.6576 825 28.7228
67.7749 838 28.9482
67.8923 927 30.4467
68.0096 997 31.5753
68.1269 1051 32.4191
68.2442 1061 32.573
68.3614 1107 33.2716
68.4787 1136 33.7046
68.5958 1068 32.6803
68.713 1054 32.4654
68.8302 1064 32.619
68.9473 933 30.545
69.0643 898 29.9666
69.1814 846 29.0861
69.2984 874 29.5635
69.4154 964 31.0483
69.5323 1060 32.5576
69.6492 1093 33.0606
69.7661 1113 33.3617
69.8829 1166 34.1467
69.9997 1128 33.5857
70.1165 1142 33.7935
70.2332 1161 34.0735
70.3499 1103 33.2114
70.4665 1025 32.0156
70.5831 936 30.5941
70.6996 978 31.273
70.8161 933 30.545
70.9326 890 29.8329
71.049 714 26.7208
71.1653 639 25.2784
71.2817 497 22.2935
71.3979 462 21.4942
71.5141 422 20.5426
71.6303 455 21.3307
71.7464 408 20.199
71.8624 0 1
71.9784 0 1
72.0944 0 1
72.2102 0 1
72.3261 0 1
72.4418 0 1
72.5575 0 1
72.6732 0 1
75.1054 0 1
75.2209 0 1
75.3365 0 1
75.4521 0 1
75.5678 0 1
75.6835 0 1
75.7993 0 1
75.9151 0 1
76.031 0 1
76.147 737 27.1477
76.263 773 27.8029
76.3791 726 26.9444
76.4952 730 27.0185
76.6113 756 27.4955
76.7276 775 27.8388
76.8438 843 29.0345
76.9601 862 29.3598
77.0765 986 31.4006
77.1929 1021 31.9531
77.3093 1029 32.078
77.4258 994 31.5278
77.5423 994 31.5278
77.6589 924 30.3974
77.7755 881 29.6816
77.8921 759 27.55
78.0088 757 27.5136
78.1256 676 26
78.2423 684 26.1534
78.3591 666 25.807
78.4759 839 28.9655
78.5928 828 28.775
78.7097 826 28.7402
78.8266 915 30.249
78.9436 895 29.9166
79.0606 910 30.1662
79.1776 966 31.0805
79.2946 944 30.7246
79.4117 914 30.2324
79.5288 872 29.5296
79.6459 916 30.2655
79.7631 856 29.2575
79.8802 858 29.2916
79.9974 854 29.2233
80.1147 731 27.037
80.2319 673 25.9422
80.3491 729 27
80.4664 709 26.6271
80.5837 788 28.0713
80.701 867 29.4449
80.8183 927 30.4467
80.9357 858 29.2916
81.053 976 31.241
81.1704 988 31.4325
81.2877 955 30.9031
81.4051 942 30.692
81.5225 825 28.7228
81.6399 796 28.2135
81.7573 742 27.2397
81.8747 715 26.7395
81.9922 700 26.4575
82.1096 709 26.6271
82.227 811 28.4781
82.3444 899 29.9833
82.4619 866 29.4279
82.5793 949 30.8058
82.6967 963 31.0322
82.8142 931 30.5123
82.9316 976 31.241
83.049 972 31.1769
83.1664 960 30.9839
83.2838 930 30.4959
83.4012 930 30.4959
83.5186 904 30.0666
83.636 827 28.7576
83.7534 775 27.8388
83.8708 728 26.9815
83.9881 746 27.313
84.1055 722 26.8701
84.2228 804 28.3549
84.3401 808 28.4253
84.4575 901 30.0167
84.5747 958 30.9516
84.692 960 30.9839
84.8093 987 31.4166
84.9265 979 31.289
85.0437 961 31
85.1609 851 29.1719
85.2781 726 26.9444
85.3952 701 26.4764
85.5123 697 26.4008
85.6294 704 26.533
85.7465 753 27.4408
85.8636 876 29.5973
85.9806 882 29.6985
86.0976 918 30.2985
86.2145 975 31.225
86.3315 889 29.8161
86.4484 954 30.8869
86.5652 970 31.1448
86.682 1042 32.28
86.7988 974 31.209
86.9156 936 30.5941
87.0323 913 30.2159
87.149 887 29.7825
87.2657 834 28.8791
87.3823 746 27.313
87.4988 679 26.0576
87.6154 616 24.8193
87.7318 634 25.1794
87.8483 743 27.258
87.9647 735 27.1109
88.081 758 27.5318
88.1973 748 27.3496
88.3136 719 26.8142
88.4298 663 25.7488
88.546 620 24.8998
88.6621 559 23.6432
88.7781 395 19.8746
88.8942 0 1
89.0101 0 1
89.126 0 1
89.2419 0 1
89.3577 0 1
89.4734 0 1
89.5891 0 1
89.7047 0 1
89.8203 0 1
89.9358 0 1
92.3269 0 1
92.4424 0 1
92.558 0 1
92.6736 0 1
92.7893 0 1
92.905 0 1
93.0208 0 1
93.1366 0 1
93.2525 0 1
93.3685 0 1
93.4845 0 1
93.6005 653 25.5539
93.7167 656 25.6125
93.8328 731 27.037
93.949 747 27.3313
94.0653 789 28.0891
94.1816 858 29.2916
94.2979 775 27.8388
94.4143 741 27.2213
94.5307 784 28
94.6472 708 26.6083
94.7637 687 26.2107
94.8803 731 27.037
94.9969 814 28.5307
95.1135 864 29.3939
95.2302 948 30.7896
95.3469 877 29.6142
95.4637 967 31.0966
95.5805 919 30.315
95.6973 924 30.3974
95.8142 988 31.4325
95.9311 878 29.6311
96.048 995 31.5436
96.1649 951 30.8383
96.2819 869 29.4788
96.3989 838 28.9482
96.516 833 28.8617
96.633 744 27.2764
96.7501 711 26.6646
96.8673 761 27.5862
96.9844 723 26.8887
97.1016 770 27.7489
97.2188 873 29.5466
97.336 921 30.348
97.4532 926 30.4302
97.5704 920 30.3315
97.6877 966 31.0805
97.805 920 30.3315
97.9223 916 30.2655
98.0396 895 29.9166
98.1569 741 27.2213
98.2743 705 26.5518
98.3916 673 25.9422
98.509 719 26.8142
98.6264 803 28.3373
98.7438 826 28.7402
98.8612 884 29.7321
98.9786 986 31.4006
99.096 923 30.3809
99.2134 937 30.6105
99.3308 966 31.0805
99.4482 1032 32.1248
99.5656 966 31.0805
99.6831 946 30.7571
99.8005 924 30.3974
99.9179 963 31.0322
100.035 893 29.8831
100.153 854 29.2233
100.27 885 29.7489
100.388 792 28.1425
100.505 811 28.4781
100.622 853 29.2062
100.74 919 30.315
100.857 936 30.5941
100.975 999 31.607
101.092 978 31.273
101.209 1069 32.6956
101.327 1060 32.5576
101.444 994 31.5278
101.561 868 29.4618
101.679 801 28.3019
101.796 802 28.3196
101.913 730 27.0185
102.03 745 27.2947
102.148 878 29.6311
102.265 902 30.0333
102.382 965 31.0644
102.499 985 31.3847
102.616 976 31.241
102.733 1045 32.3265
102.851 1117 33.4215
102.968 1054 32.4654
103.085 1101 33.1813
103.202 973 31.1929
103.319 1044 32.311
103.436 986 31.4006
103.552 971 31.1609
103.669 946 30.7571
103.786 882 29.6985
103.903 821 28.6531
104.02 828 28.775
104.137 927 30.4467
104.253 891 29.8496
104.37 1110 33.3167
104.487 1019 31.9218
104.603 1076 32.8024
104.72 1050 32.4037
104.836 1018 31.9061
104.953 884 29.7321
105.069 823 28.688
105.186 737 27.1477
105.302 718 26.7955
105.418 656 25.6125
105.535 700 26.4575
105.651 643 25.3574
105.767 707 26.5895
105.883 717 26.7769
105.999 668 25.8457
106.115 0 1
106.231 0 1
106.347 0 1
106.463 0 1
106.579 0 1
106.694 0 1
106.81 0 1
106.926 0 1
107.041 0 1
107.157 0 1
109.576 0 1
109.692 0 1
109.807 0 1
109.923 0 1
110.039 0 1
110.155 0 1
110.27 0 1
110.386 0 1
110.502 0 1
110.618 441 21
110.735 567 23.8118
110.851 622 24.9399
110.967 702 26.4953
111.083 763 27.6225
111.199 886 29.7658
111.316 930 30.4959
111.432 944 30.7246
111.549 957 30.9354
111.665 963 31.0322
111.782 984 31.3688
111.898 938 30.6268
112.015 926 30.4302
112.132 870 29.4958
112.248 755 27.4773
112.365 816 28.5657
112.482 710 26.6458
112.599 778 27.8927
112.716 895 29.9166
112.832 931 30.5123
112.949 977 31.257
113.066 915 30.249
113.183 996 31.5595
113.3 909 30.1496
113.417 990 31.4643
113.534 901 30.0167
113.652 827 28.7576
113.769 803 28.3373
113.886 690 26.2679
114.003 671 25.9037
114.12 716 26.7582
114.238 845 29.0689
114.355 834 28.8791
114.472 860 29.3258
114.589 954 30.8869
114.707 950 30.8221
114.824 993 31.5119
114.942 943 30.7083
115.059 924 30.3974
115.176 980 31.305
115.294 1021 31.9531
115.411 954 30.8869
115.529 938 30.6268
115.646 889 29.8161
115.764 852 29.189
115.881 796 28.2135
115.999 734 27.0924
116.116 783 27.9821
116.234 848 29.1204
116.351 858 29.2916
116.469 922 30.3645
116.586 946 30.7571
116.704 939 30.6431
116.821 906 30.0998
116.939 967 31.0966
117.056 920 30.3315
117.174 879 29.6479
117.291 815 28.5482
117.409 791 28.1247
117.526 683 26.1343
117.644 703 26.5141
117.761 752 27.4226
117.879 861 29.3428
117.996 895 29.9166
118.114 939 30.6431
118.231 962 31.0161
118.349 962 31.0161
118.466 1014 31.8434
118.584 936 30.5941
118.701 984 31.3688
118.819 964 31.0483
118.936 910 30.1662
119.053 881 29.6816
119.171 839 28.9655
119.288 876 29.5973
119.405 797 28.2312
119.523 763 27.6225
119.64 760 27.5681
119.757 740 27.2029
119.875 800 28.2843
119.992 807 28.4077
120.109 927 30.4467
120.226 869 29.4788
120.343 923 30.3809
120.46 915 30.249
120.578 936 30.5941
120.695 964 31.0483
120.812 924 30.3974
120.929 767 27.6948
121.046 744 27.2764
121.163 747 27.3313
121.279 696 26.3818
121.396 666 25.807
121.513 757 27.5136
121.63 763 27.6225
121.747 782 27.9643
121.863 774 27.8209
121.98 799 28.2666
122.097 822 28.6705
122.213 745 27.2947
122.33 756 27.4955
122.446 769 27.7308
122.563 658 25.6515
122.679 648 25.4558
122.795 617 24.8395
122.912 562 23.7065
123.028 504 22.4499
123.144 386 19.6469
123.26 367 19.1572
123.377 0 1
123.493 0 1
123.609 0 1
123.725 0 1
123.84 0 1
123.956 0 1
124.072 0 1
124.188 0 1
124.303 0 1
124.419 0 1
126.852 0 1
126.968 0 1
127.083 0 1
127.199 0 1
127.315 0 1
127.431 0 1
127.547 0 1
127.663 0 1
127.779 0 1
127.895 0 1
128.011 0 1
128.127 0 1
128.243 0 1
128.359 961 31
128.476 966 31.0805
128.592 985 31.3847
128.708 900 30
128.825 916 30.2655
128.941 1051 32.4191
129.058 1088 32.9848
129.174 1126 33.5559
129.291 1180 34.3511
129.408 1181 34.3657
129.524 1217 34.8855
129.641 1217 34.8855
129.758 1143 33.8083
129.875 1074 32.7719
129.992 1032 32.1248
130.108 973 31.1929
130.225 892 29.8664
130.342 839 28.9655
130.459 899 29.9833
130.576 937 30.6105
130.693 986 31.4006
130.81 1086 32.9545
130.928 1095 33.0908
131.045 1103 33.2114
131.162 1168 34.176
131.279 1138 33.7343
131.396 1169 34.1906
131.513 1131 33.6303
131.631 1135 33.6898
131.748 1068 32.6803
131.865 1106 33.2566
131.983 1033 32.1403
132.1 1021 31.9531
132.217 1002 31.6544
132.335 996 31.5595
132.452 959 30.9677
132.57 1025 32.0156
132.687 1136 33.7046
132.804 1167 34.1614
132.922 1165 34.1321
133.039 1128 33.5857
133.157 1168 34.176
133.274 1160 34.0588
133.392 1111 33.3317
133.509 1090 33.0151
133.627 970 31.1448
133.744 896 29.9333
133.862 883 29.7153
133.979 890 29.8329
134.097 916 30.2655
134.214 1015 31.8591
134.332 1063 32.6037
134.449 1102 33.1964
134.567 1159 34.0441
134.684 1137 33.7194
134.802 1115 33.3916
134.919 1112 33.3467
135.037 1193 34.5398
135.154 1064 32.619
135.272 1109 33.3017
135.389 1101 33.1813
135.507 1110 33.3167
135.624 1004 31.686
135.742 928 30.4631
135.859 996 31.5595
135.977 1001 31.6386
136.094 1019 31.9218
136.211 1055 32.4808
136.329 1127 33.5708
136.446 1243 35.2562
136.564 1145 33.8378
136.681 1155 33.9853
136.798 1161 34.0735
136.915 1152 33.9411
137.033 1114 33.3766
137.15 1065 32.6343
137.267 924 30.3974
137.384 849 29.1376
137.502 873 29.5466
137.619 877 29.6142
137.736 943 30.7083
137.853 907 30.1164
137.97 1026 32.0312
138.087 1094 33.0757
138.204 1090 33.0151
138.321 1086 32.9545
138.438 1113 33.3617
138.555 1110 33.3167
138.672 1058 32.5269
138.788 1058 32.5269
138.905 1049 32.3883
139.022 905 30.0832
139.139 830 28.8097
139.255 837 28.931
139.372 754 27.4591
139.488 716 26.7582
139.605 746 27.313
139.721 733 27.074
139.838 737 27.1477
139.954 667 25.8263
140.071 694 26.3439
140.187 608 24.6577
140.303 533 23.0868
140.419 572 23.9165
140.535 489 22.1133
140.652 465 21.5639
140.768 0 1
140.884 0 1
141 0 1
141.115 0 1
141.231 0 1
141.347 0 1
141.463 0 1
141.578 0 1
141.694 0 1
144.104 0 1
144.219 0 1
144.335 0 1
144.45 0 1
144.566 0 1
144.682 0 1
144.798 0 1
144.914 0 1
145.03 0 1
145.146 673 25.9422
145.262 757 27.5136
145.378 764 27.6405
145.494 785 28.0179
145.61 825 28.7228
145.726 721 26.8514
145.842 820 28.6356
145.959 666 25.807
146.075 658 25.6515
146.192 640 25.2982
146.308 619 24.8797
146.425 594 24.3721
146.541 659 25.671
146.658 698 26.4197
146.774 708 26.6083
146.891 751 27.4044
147.008 802 28.3196
147.125 797 28.2312
147.241 768 27.7128
147.358 772 27.7849
147.475 780 27.9285
147.592 715 26.7395
147.709 773 27.8029
147.826 756 27.4955
147.943 719 26.8142
148.06 718 26.7955
148.177 627 25.04
148.294 670 25.8844
148.411 679 26.0576
148.528 717 26.7769
148.645 684 26.1534
148.762 743 27.258
148.88 769 27.7308
148.997 844 29.0517
149.114 721 26.8514
149.231 766 27.6767
149.349 802 28.3196
149.466 750 27.3861
149.583 687 26.2107
149.701 705 26.5518
149.818 657 25.632
149.935 574 23.9583
150.053 578 24.0416
150.17 622 24.9399
150.287 639 25.2784
150.405 657 25.632
150.522 696 26.3818
150.64 730 27.0185
150.757 761 27.5862
150.875 736 27.1293
150.992 709 26.6271
151.11 716 26.7582
151.227 696 26.3818
151.344 774 27.8209
151.462 693 26.3249
151.579 654 25.5734
151.697 619 24.8797
151.814 640 25.2982
151.932 614 24.779
152.049 664 25.7682
152.167 698 26.4197
152.284 693 26.3249
152.402 699 26.4386
152.519 710 26.6458
152.636 744 27.2764
152.754 766 27.6767
152.871 725 26.9258
152.989 706 26.5707
153.106 696 26.3818
153.223 672 25.923
153.341 570 23.8747
153.458 596 24.4131
153.575 574 23.9583
153.693 588 24.2487
153.81 654 25.5734
153.927 677 26.0192
154.044 669 25.865
154.162 686 26.1916
154.279 651 25.5147
154.396 690 26.2679
154.513 692 26.3059
154.63 738 27.1662
154.747 676 26
154.864 676 26
154.981 661 25.7099
155.098 677 26.0192
155.215 625 25
155.332 613 24.7588
155.449 593 24.3516
155.566 613 24.7588
155.683 596 24.4131
155.8 645 25.3969
155.917 613 24.7588
156.033 628 25.0599
156.15 0 1
156.267 0 1
156.383 0 1
156.5 0 1
156.617 0 1
156.733 0 1
156.85 0 1
156.966 0 1
157.082 0 1
157.199 0 1
157.315 0 1
157.431 0 1
157.547 0 1
157.664 0 1
157.78 0 1
157.896 0 1
158.012 0 1
158.128 0 1
158.244 0 1
158.359 0 1
158.475 0 1
158.591 0 1
158.706 0 1
