
6.15755 0 1
6.2731 0 1
6.3887 0 1
6.50437 0 1
6.62009 0 1
6.73587 0 1
6.8517 0 1
6.96759 0 1
7.08353 0 1
7.19952 0 1
7.31557 0 1
7.43166 0 1
7.54781 0 1
7.664 0 1
7.78024 0 1
7.89653 0 1
8.01286 0 1
8.12924 0 1
8.24567 0 1
8.36213 0 1
8.47864 0 1
8.59519 0 1
8.71178 0 1
8.82841 0 1
8.94508 0 1
9.06179 0 1
9.17853 0 1
9.29531 0 1
9.41212 0 1
9.52897 0 1
9.64584 0 1
9.76276 0 1
9.8797 0 1
9.99667 0 1
10.1137 0 1
10.2307 0 1
10.3478 0 1
10.4648 0 1
10.5819 0 1
10.6991 0 1
10.8162 0 1
10.9334 0 1
11.0506 0 1
11.1678 0 1
11.285 0 1
11.4023 0 1
11.5196 0 1
11.6369 0 1
11.7542 0 1
11.8715 0 1
11.9888 0 1
12.1062 0 1
12.2235 0 1
12.3409 0 1
12.4582 0 1
12.5756 0 1
12.693 0 1
12.8104 0 1
12.9278 0 1
13.0452 0 1
13.1626 0 1
13.28 0 1
13.3974 0 1
13.5149 0 1
13.6323 0 1
13.7497 0 1
13.8671 0 1
13.9845 0 1
14.1019 0 1
14.2193 0 1
14.3367 0 1
14.4541 0 1
14.5714 0 1
14.6888 0 1
14.8062 0 1
14.9235 0 1
15.0408 0 0
15.1581 0 0
15.2755 0 0
15.3927 0 0
15.51 0 0
15.6273 0 0
15.7445 0 0
15.8617 0 0
15.9789 0 0
16.0961 0 0
16.2132 0 0
16.3304 0 0
16.4475 0 0
16.5646 0 0
16.6816 0 0
16.7986 0 0
16.9156 0 0
17.0326 0 0
17.1496 0 0
17.2665 0 0
17.3833 0 0
17.5002 0 0
17.617 0 0
17.7338 0 0
17.8505 0 0
17.9672 0 0
18.0839 0 0
18.2005 0 0
18.3171 0 0
18.4337 0 0
18.5502 0 0
18.6666 0 0
18.7831 0 0
18.8994 0 0
19.0158 0 0
19.1321 0 0
19.2483 0 0
19.3645 0 0
19.4806 0 0
19.5967 0 0
19.7128 0 0
19.8288 0 0
19.9447 0 0
20.0606 0 1
20.1764 0 1
20.2922 0 1
20.4079 0 1
20.5236 0 1
20.6392 0 1
20.7548 0 1
20.8702 0 1
23.3078 0 1
23.4233 0 1
23.539 0 1
23.6547 0 1
23.7704 0 1
23.8862 0 1
24.0021 0 1
24.118 0 1
24.234 0 1
24.35 0 1
24.4661 880 29.6648
24.5822 909 30.1496
24.6984 912 30.1993
24.8146 912 30.1993
24.9309 863 29.3769
25.0472 981 31.3209
25.1636 921 30.348
25.28 948 30.7896
25.3965 1022 31.9687
25.513 976 31.241
25.6296 938 30.6268
25.7462 986 31.4006
25.8628 968 31.1127
25.9795 942 30.692
26.0962 1009 31.7648
26.213 952 30.8545
26.3298 985 31.3847
26.4466 1016 31.8748
26.5635 995 31.5436
26.6804 937 30.6105
26.7973 907 30.1164
26.9143 855 29.2404
27.0313 822 28.6705
27.1483 865 29.4109
27.2653 833 28.8617
27.3824 868 29.4618
27.4996 848 29.1204
27.6167 938 30.6268
27.7339 906 30.0998
27.8511 797 28.2312
27.9683 812 28.4956
28.0855 842 29.0172
28.2028 904 30.0666
28.3201 863 29.3769
28.4374 872 29.5296
28.5547 857 29.2746
28.6721 951 30.8383
28.7894 954 30.8869
28.9068 920 30.3315
29.0242 938 30.6268
29.1416 925 30.4138
29.259 874 29.5635
29.3764 936 30.5941
29.4939 918 30.2985
29.6113 965 31.0644
29.7288 904 30.0666
29.8463 852 29.189
29.9638 949 30.8058
30.0812 905 30.0832
30.1987 902 30.0333
30.3162 860 29.3258
30.4337 795 28.1957
30.5512 740 27.2029
30.6687 775 27.8388
30.7862 807 28.4077
30.9037 797 28.2312
31.0212 776 27.8568
31.1387 826 28.7402
31.2562 809 28.4429
31.3737 846 29.0861
31.4912 839 28.9655
31.6087 818 28.6007
31.7262 768 27.7128
31.8436 832 28.8444
31.9611 851 29.1719
32.0785 869 29.4788
32.1959 883 29.7153
32.3134 874 29.5635
32.4308 891 29.8496
32.5482 882 29.6985
32.6655 871 29.5127
32.7829 874 29.5635
32.9002 851 29.1719
33.0176 877 29.6142
33.1349 885 29.7489
33.2522 863 29.3769
33.3694 899 29.9833
33.4867 884 29.7321
33.6039 937 30.6105
33.7211 862 29.3598
33.8383 908 30.133
33.9554 889 29.8161
34.0725 791 28.1247
34.1896 765 27.6586
34.3067 699 26.4386
34.4237 765 27.6586
34.5407 701 26.4764
34.6577 830 28.8097
34.7746 805 28.3725
34.8915 767 27.6948
35.0084 789 28.0891
35.1252 778 27.8927
35.242 801 28.3019
35.3587 806 28.3901
35.4755 784 28
35.5921 817 28.5832
35.7088 810 28.4605
35.8254 821 28.6531
35.9419 835 28.8964
36.0584 902 30.0333
36.1749 853 29.2062
36.2913 830 28.8097
36.4077 859 29.3087
36.524 859 29.3087
36.6403 852 29.189
36.7565 868 29.4618
36.8727 916 30.2655
36.9889 866 29.4279
37.1049 882 29.6985
37.221 0 1
37.3369 0 1
37.4529 0 1
37.5687 0 1
37.6845 0 1
37.8003 0 1
37.916 0 1
38.0316 0 1
38.1472 0 1
40.5851 0 1
40.7008 0 1
40.8164 0 1
40.9322 0 1
41.048 0 1
41.1639 0 1
41.2798 0 1
41.3958 0 1
41.5118 0 1
41.6279 0 1
41.744 683 26.1343
41.8602 704 26.533
41.9765 739 27.1846
42.0928 713 26.7021
42.2091 725 26.9258
42.3255 707 26.5895
42.4419 721 26.8514
42.5584 727 26.9629
42.675 759 27.55
42.7915 804 28.3549
42.9081 675 25.9808
43.0248 665 25.7876
43.1415 609 24.6779
43.2582 608 24.6577
43.375 634 25.1794
43.4918 666 25.807
43.6087 715 26.7395
43.7256 662 25.7294
43.8425 692 26.3059
43.9595 636 25.219
44.0765 631 25.1197
44.1935 602 24.5357
44.3106 642 25.3377
44.4277 615 24.7992
44.5448 678 26.0384
44.6619 670 25.8844
44.7791 645 25.3969
44.8963 653 25.5539
45.0136 577 24.0208
45.1308 627 25.04
45.2481 640 25.2982
45.3654 676 26
45.4827 594 24.3721
45.6001 643 25.3574
45.7174 643 25.3574
45.8348 583 24.1454
45.9522 611 24.7184
46.0697 614 24.779
46.1871 572 23.9165
46.3046 546 23.3666
46.422 582 24.1247
46.5395 527 22.9565
46.657 530 23.0217
46.7745 501 22.383
46.892 510 22.5832
47.0096 494 22.2261
47.1271 479 21.8861
47.2446 526 22.9347
47.3622 477 21.8403
47.4797 445 21.095
47.5973 446 21.1187
47.7149 467 21.6102
47.8324 458 21.4009
47.95 460 21.4476
48.0675 486 22.0454
48.1851 485 22.0227
48.3027 456 21.3542
48.4202 440 20.9762
48.5378 503 22.4277
48.6554 517 22.7376
48.7729 489 22.1133
48.8904 448 21.166
49.008 452 21.2603
49.1255 505 22.4722
49.243 488 22.0907
49.3605 460 21.4476
49.478 509 22.561
49.5955 505 22.4722
49.713 478 21.8632
49.8304 549 23.4307
49.9479 501 22.383
50.0653 490 22.1359
50.1827 510 22.5832
50.3001 454 21.3073
50.4175 420 20.4939
50.5348 460 21.4476
50.6521 463 21.5174
50.7694 511 22.6053
50.8867 490 22.1359
51.004 536 23.1517
51.1212 535 23.1301
51.2384 488 22.0907
51.3556 560 23.6643
51.4727 570 23.8747
51.5899 594 24.3721
51.707 594 24.3721
51.824 623 24.96
51.9411 623 24.96
52.0581 604 24.5764
52.175 614 24.779
52.2919 662 25.7294
52.4088 584 24.1661
52.5257 641 25.318
52.6425 629 25.0799
52.7593 686 26.1916
52.876 655 25.593
52.9927 682 26.1151
53.1094 653 25.5539
53.226 683 26.1343
53.3426 654 25.5734
53.4591 708 26.6083
53.5756 671 25.9037
53.692 667 25.8263
53.8084 618 24.8596
53.9248 588 24.2487
54.0411 592 24.3311
54.1573 620 24.8998
54.2735 0 1
54.3896 0 1
54.5057 0 1
54.6217 0 1
54.7377 0 1
54.8537 0 1
54.9695 0 1
55.0853 0 1
55.2011 0 1
55.3168 0 1
55.4324 0 1
57.824 0 1
57.9396 0 1
58.0553 0 1
58.1711 0 1
58.2869 0 1
58.4028 0 1
58.5187 0 1
58.6347 0 1
58.7508 0 1
58.8669 0 1
58.983 743 27.258
59.0992 701 26.4764
59.2155 659 25.671
59.3318 652 25.5343
59.4482 641 25.318
59.5646 698 26.4197
59.681 704 26.533
59.7975 675 25.9808
59.9141 666 25.807
60.0306 687 26.2107
60.1473 729 27
60.2639 697 26.4008
60.3807 742 27.2397
60.4974 721 26.8514
60.6142 727 26.9629
60.731 688 26.2298
60.8479 742 27.2397
60.9648 710 26.6458
61.0818 707 26.5895
61.1987 723 26.8887
61.3158 737 27.1477
61.4328 716 26.7582
61.5499 667 25.8263
61.667 682 26.1151
61.7841 676 26
61.9013 689 26.2488
62.0185 629 25.0799
62.1357 689 26.2488
62.253 639 25.2784
62.3702 673 25.9422
62.4875 622 24.9399
62.6049 611 24.7184
62.7222 595 24.3926
62.8396 570 23.8747
62.9569 596 24.4131
63.0743 669 25.865
63.1918 546 23.3666
63.3092 634 25.1794
63.4267 621 24.9199
63.5441 586 24.2074
63.6616 665 25.7876
63.7791 625 25
63.8966 614 24.779
64.0142 647 25.4362
64.1317 662 25.7294
64.2492 646 25.4165
64.3668 607 24.6374
64.4843 574 23.9583
64.6019 573 23.9374
64.7195 613 24.7588
64.837 625 25
64.9546 574 23.9583
65.0722 611 24.7184
65.1898 537 23.1733
65.3074 560 23.6643
65.4249 596 24.4131
65.5425 591 24.3105
65.6601 560 23.6643
65.7777 575 23.9792
65.8952 570 23.8747
66.0128 532 23.0651
66.1304 557 23.6008
66.2479 542 23.2809
66.3655 494 22.2261
66.483 555 23.5584
66.6005 522 22.8473
66.718 528 22.9783
66.8355 557 23.6008
66.953 516 22.7156
67.0705 558 23.622
67.1879 546 23.3666
67.3054 594 24.3721
67.4228 509 22.561
67.5402 586 24.2074
67.6576 574 23.9583
67.7749 533 23.0868
67.8923 574 23.9583
68.0096 519 22.7816
68.1269 544 23.3238
68.2442 541 23.2594
68.3614 552 23.4947
68.4787 555 23.5584
68.5958 552 23.4947
68.713 527 22.9565
68.8302 515 22.6936
68.9473 541 23.2594
69.0643 553 23.516
69.1814 526 22.9347
69.2984 519 22.7816
69.4154 530 23.0217
69.5323 529 23
69.6492 510 22.5832
69.7661 589 24.2693
69.8829 464 21.5407
69.9997 481 21.9317
70.1165 433 20.8087
70.2332 482 21.9545
70.3499 488 22.0907
70.4665 441 21
70.5831 521 22.8254
70.6996 457 21.3776
70.8161 501 22.383
70.9326 515 22.6936
71.049 496 22.2711
71.1653 481 21.9317
71.2817 501 22.383
71.3979 494 22.2261
71.5141 461 21.4709
71.6303 460 21.4476
71.7464 439 20.9523
71.8624 0 1
71.9784 0 1
72.0944 0 1
72.2102 0 1
72.3261 0 1
72.4418 0 1
72.5575 0 1
72.6732 0 1
75.1054 0 1
75.2209 0 1
75.3365 0 1
75.4521 0 1
75.5678 0 1
75.6835 0 1
75.7993 0 1
75.9151 0 1
76.031 0 1
76.147 360 18.9737
76.263 363 19.0526
76.3791 412 20.2978
76.4952 380 19.4936
76.6113 374 19.3391
76.7276 399 19.975
76.8438 377 19.4165
76.9601 392 19.799
77.0765 375 19.3649
77.1929 370 19.2354
77.3093 418 20.445
77.4258 361 19
77.5423 388 19.6977
77.6589 349 18.6815
77.7755 380 19.4936
77.8921 359 18.9473
78.0088 332 18.2209
78.1256 324 18
78.2423 385 19.6214
78.3591 339 18.412
78.4759 333 18.2483
78.5928 343 18.5203
78.7097 287 16.9411
78.8266 314 17.72
78.9436 278 16.6733
79.0606 285 16.8819
79.1776 205 14.3178
79.2946 238 15.4272
79.4117 278 16.6733
79.5288 288 16.9706
79.6459 277 16.6433
79.7631 283 16.8226
79.8802 263 16.2173
79.9974 225 15
80.1147 238 15.4272
80.2319 247 15.7162
80.3491 237 15.3948
80.4664 218 14.7648
80.5837 236 15.3623
80.701 240 15.4919
80.8183 241 15.5242
80.9357 242 15.5563
81.053 192 13.8564
81.1704 203 14.2478
81.2877 215 14.6629
81.4051 229 15.1327
81.5225 183 13.5277
81.6399 184 13.5647
81.7573 150 12.2474
81.8747 171 13.0767
81.9922 192 13.8564
82.1096 177 13.3041
82.227 174 13.1909
82.3444 142 11.9164
82.4619 150 12.2474
82.5793 144 12
82.6967 161 12.6886
82.8142 130 11.4018
82.9316 113 10.6301
83.049 106 10.2956
83.1664 129 11.3578
83.2838 101 10.0499
83.4012 108 10.3923
83.5186 97 9.84886
83.636 112 10.583
83.7534 83 9.11043
83.8708 102 10.0995
83.9881 82 9.05539
84.1055 93 9.64365
84.2228 97 9.84886
84.3401 79 8.88819
84.4575 92 9.59166
84.5747 73 8.544
84.692 91 9.53939
84.8093 62 7.87401
84.9265 68 8.24621
85.0437 66 8.12404
85.1609 66 8.12404
85.2781 65 8.06226
85.3952 68 8.24621
85.5123 68 8.24621
85.6294 72 8.48528
85.7465 60 7.74597
85.8636 70 8.3666
85.9806 70 8.3666
86.0976 66 8.12404
86.2145 49 7
86.3315 59 7.68115
86.4484 88 9.38083
86.5652 82 9.05539
86.682 80 8.94427
86.7988 90 9.48683
86.9156 92 9.59166
87.0323 82 9.05539
87.149 102 10.0995
87.2657 112 10.583
87.3823 100 10
87.4988 119 10.9087
87.6154 136 11.6619
87.7318 129 11.3578
87.8483 113 10.6301
87.9647 133 11.5326
88.081 137 11.7047
88.1973 138 11.7473
88.3136 138 11.7473
88.4298 178 13.3417
88.546 177 13.3041
88.6621 162 12.7279
88.7781 164 12.8062
88.8942 0 1
89.0101 0 1
89.126 0 1
89.2419 0 1
89.3577 0 1
89.4734 0 1
89.5891 0 1
89.7047 0 1
89.8203 0 1
89.9358 0 1
92.3269 0 1
92.4424 0 1
92.558 0 1
92.6736 0 1
92.7893 0 1
92.905 0 1
93.0208 0 1
93.1366 0 1
93.2525 0 1
93.3685 0 1
93.4845 0 1
93.6005 266 16.3095
93.7167 309 17.5784
93.8328 270 16.4317
93.949 271 16.4621
94.0653 283 16.8226
94.1816 263 16.2173
94.2979 255 15.9687
94.4143 224 14.9666
94.5307 217 14.7309
94.6472 224 14.9666
94.7637 210 14.4914
94.8803 223 14.9332
94.9969 236 15.3623
95.1135 200 14.1421
95.2302 202 14.2127
95.3469 200 14.1421
95.4637 161 12.6886
95.5805 152 12.3288
95.6973 213 14.5945
95.8142 224 14.9666
95.9311 257 16.0312
96.048 254 15.9374
96.1649 223 14.9332
96.2819 226 15.0333
96.3989 248 15.748
96.516 231 15.1987
96.633 286 16.9115
96.7501 288 16.9706
96.8673 289 17
96.9844 284 16.8523
97.1016 297 17.2337
97.2188 327 18.0831
97.336 336 18.3303
97.4532 314 17.72
97.5704 331 18.1934
97.6877 329 18.1384
97.805 361 19
97.9223 381 19.5192
98.0396 356 18.868
98.1569 383 19.5704
98.2743 372 19.2873
98.3916 361 19
98.509 354 18.8149
98.6264 410 20.2485
98.7438 398 19.9499
98.8612 392 19.799
98.9786 364 19.0788
99.096 295 17.1756
99.2134 307 17.5214
99.3308 355 18.8414
99.4482 439 20.9523
99.5656 477 21.8403
99.6831 489 22.1133
99.8005 479 21.8861
99.9179 453 21.2838
100.035 487 22.0681
100.153 484 22
100.27 481 21.9317
100.388 520 22.8035
100.505 515 22.6936
100.622 468 21.6333
100.74 492 22.1811
100.857 540 23.2379
100.975 535 23.1301
101.092 529 23
101.209 552 23.4947
101.327 517 22.7376
101.444 585 24.1868
101.561 532 23.0651
101.679 499 22.3383
101.796 501 22.383
101.913 529 23
102.03 558 23.622
102.148 561 23.6854
102.265 589 24.2693
102.382 529 23
102.499 549 23.4307
102.616 438 20.9284
102.733 350 18.7083
102.851 464 21.5407
102.968 547 23.388
103.085 548 23.4094
103.202 577 24.0208
103.319 534 23.1084
103.436 564 23.7487
103.552 586 24.2074
103.669 570 23.8747
103.786 555 23.5584
103.903 577 24.0208
104.02 549 23.4307
104.137 577 24.0208
104.253 609 24.6779
104.37 554 23.5372
104.487 571 23.8956
104.603 588 24.2487
104.72 591 24.3105
104.836 581 24.1039
104.953 554 23.5372
105.069 599 24.4745
105.186 645 25.3969
105.302 616 24.8193
105.418 595 24.3926
105.535 628 25.0599
105.651 588 24.2487
105.767 590 24.2899
105.883 559 23.6432
105.999 509 22.561
106.115 0 1
106.231 0 1
106.347 0 1
106.463 0 1
106.579 0 1
106.694 0 1
106.81 0 1
106.926 0 1
107.041 0 1
107.157 0 1
109.576 0 1
109.692 0 1
109.807 0 1
109.923 0 1
110.039 0 1
110.155 0 1
110.27 0 1
110.386 0 1
110.502 0 1
110.618 464 21.5407
110.735 468 21.6333
110.851 465 21.5639
110.967 489 22.1133
111.083 381 19.5192
111.199 373 19.3132
111.316 358 18.9209
111.432 376 19.3907
111.549 390 19.7484
111.665 491 22.1585
111.782 450 21.2132
111.898 479 21.8861
112.015 438 20.9284
112.132 427 20.664
112.248 436 20.8806
112.365 420 20.4939
112.482 436 20.8806
112.599 385 19.6214
112.716 440 20.9762
112.832 378 19.4422
112.949 399 19.975
113.066 376 19.3907
113.183 371 19.2614
113.3 373 19.3132
113.417 400 20
113.534 358 18.9209
113.652 353 18.7883
113.769 352 18.7617
113.886 352 18.7617
114.003 358 18.9209
114.12 348 18.6548
114.238 368 19.1833
114.355 306 17.4929
114.472 337 18.3576
114.589 295 17.1756
114.707 305 17.4642
114.824 289 17
114.942 290 17.0294
115.059 332 18.2209
115.176 322 17.9444
115.294 351 18.735
115.411 351 18.735
115.529 333 18.2483
115.646 343 18.5203
115.764 326 18.0555
115.881 332 18.2209
115.999 324 18
116.116 372 19.2873
116.234 345 18.5742
116.351 332 18.2209
116.469 354 18.8149
116.586 328 18.1108
116.704 352 18.7617
116.821 296 17.2047
116.939 314 17.72
117.056 306 17.4929
117.174 330 18.1659
117.291 302 17.3781
117.409 344 18.5472
117.526 338 18.3848
117.644 336 18.3303
117.761 328 18.1108
117.879 302 17.3781
117.996 247 15.7162
118.114 278 16.6733
118.231 256 16
118.349 309 17.5784
118.466 320 17.8885
118.584 289 17
118.701 308 17.5499
118.819 353 18.7883
118.936 325 18.0278
119.053 360 18.9737
119.171 348 18.6548
119.288 371 19.2614
119.405 349 18.6815
119.523 337 18.3576
119.64 345 18.5742
119.757 362 19.0263
119.875 369 19.2094
119.992 322 17.9444
120.109 342 18.4932
120.226 355 18.8414
120.343 346 18.6011
120.46 326 18.0555
120.578 345 18.5742
120.695 348 18.6548
120.812 356 18.868
120.929 382 19.5448
121.046 326 18.0555
121.163 345 18.5742
121.279 333 18.2483
121.396 359 18.9473
121.513 320 17.8885
121.63 302 17.3781
121.747 248 15.748
121.863 261 16.1555
121.98 275 16.5831
122.097 360 18.9737
122.213 350 18.7083
122.33 344 18.5472
122.446 326 18.0555
122.563 320 17.8885
122.679 322 17.9444
122.795 362 19.0263
122.912 349 18.6815
123.028 356 18.868
123.144 340 18.4391
123.26 374 19.3391
123.377 0 1
123.493 0 1
123.609 0 1
123.725 0 1
123.84 0 1
123.956 0 1
124.072 0 1
124.188 0 1
124.303 0 1
124.419 0 1
126.852 0 1
126.968 0 1
127.083 0 1
127.199 0 1
127.315 0 1
127.431 0 1
127.547 0 1
127.663 0 1
127.779 0 1
127.895 0 1
128.011 0 1
128.127 0 1
128.243 0 1
128.359 471 21.7025
128.476 516 22.7156
128.592 489 22.1133
128.708 467 21.6102
128.825 488 22.0907
128.941 474 21.7715
129.058 524 22.891
129.174 462 21.4942
129.291 419 20.4695
129.408 498 22.3159
129.524 457 21.3776
129.641 505 22.4722
129.758 451 21.2368
129.875 482 21.9545
129.992 495 22.2486
130.108 496 22.2711
130.225 445 21.095
130.342 436 20.8806
130.459 385 19.6214
130.576 356 18.868
130.693 362 19.0263
130.81 326 18.0555
130.928 334 18.2757
131.045 417 20.4206
131.162 481 21.9317
131.279 496 22.2711
131.396 533 23.0868
131.513 551 23.4734
131.631 454 21.3073
131.748 540 23.2379
131.865 536 23.1517
131.983 497 22.2935
132.1 524 22.891
132.217 542 23.2809
132.335 490 22.1359
132.452 510 22.5832
132.57 550 23.4521
132.687 470 21.6795
132.804 504 22.4499
132.922 486 22.0454
133.039 549 23.4307
133.157 563 23.7276
133.274 500 22.3607
133.392 501 22.383
133.509 506 22.4944
133.627 517 22.7376
133.744 491 22.1585
133.862 481 21.9317
133.979 480 21.9089
134.097 476 21.8174
134.214 427 20.664
134.332 340 18.4391
134.449 416 20.3961
134.567 410 20.2485
134.684 444 21.0713
134.802 532 23.0651
134.919 549 23.4307
135.037 555 23.5584
135.154 540 23.2379
135.272 613 24.7588
135.389 595 24.3926
135.507 572 23.9165
135.624 559 23.6432
135.742 632 25.1396
135.859 590 24.2899
135.977 561 23.6854
136.094 584 24.1661
136.211 551 23.4734
136.329 533 23.0868
136.446 539 23.2164
136.564 527 22.9565
136.681 556 23.5797
136.798 614 24.779
136.915 617 24.8395
137.033 576 24
137.15 607 24.6374
137.267 585 24.1868
137.384 555 23.5584
137.502 522 22.8473
137.619 501 22.383
137.736 482 21.9545
137.853 445 21.095
137.97 441 21
138.087 410 20.2485
138.204 441 21
138.321 472 21.7256
138.438 536 23.1517
138.555 600 24.4949
138.672 598 24.454
138.788 664 25.7682
138.905 567 23.8118
139.022 613 24.7588
139.139 610 24.6982
139.255 606 24.6171
139.372 654 25.5734
139.488 622 24.9399
139.605 649 25.4755
139.721 671 25.9037
139.838 687 26.2107
139.954 626 25.02
140.071 614 24.779
140.187 620 24.8998
140.303 629 25.0799
140.419 641 25.318
140.535 650 25.4951
140.652 614 24.779
140.768 0 1
140.884 0 1
141 0 1
141.115 0 1
141.231 0 1
141.347 0 1
141.463 0 1
141.578 0 1
141.694 0 1
144.104 0 1
144.219 0 1
144.335 0 1
144.45 0 1
144.566 0 1
144.682 0 1
144.798 0 1
144.914 0 1
145.03 0 1
145.146 598 24.454
145.262 625 25
145.378 606 24.6171
145.494 631 25.1197
145.61 643 25.3574
145.726 657 25.632
145.842 560 23.6643
145.959 548 23.4094
146.075 566 23.7908
146.192 499 22.3383
146.308 499 22.3383
146.425 493 22.2036
146.541 462 21.4942
146.658 492 22.1811
146.774 502 22.4054
146.891 460 21.4476
147.008 554 23.5372
147.125 555 23.5584
147.241 578 24.0416
147.358 598 24.454
147.475 607 24.6374
147.592 703 26.5141
147.709 625 25
147.826 582 24.1247
147.943 599 24.4745
148.06 590 24.2899
148.177 603 24.5561
148.294 563 23.7276
148.411 613 24.7588
148.528 607 24.6374
148.645 583 24.1454
148.762 656 25.6125
148.88 583 24.1454
148.997 599 24.4745
149.114 626 25.02
149.231 608 24.6577
149.349 606 24.6171
149.466 609 24.6779
149.583 549 23.4307
149.701 524 22.891
149.818 513 22.6495
149.935 512 22.6274
150.053 490 22.1359
150.17 447 21.1424
150.287 476 21.8174
150.405 516 22.7156
150.522 499 22.3383
150.64 548 23.4094
150.757 540 23.2379
150.875 588 24.2487
150.992 597 24.4336
151.11 609 24.6779
151.227 606 24.6171
151.344 587 24.2281
151.462 599 24.4745
151.579 620 24.8998
151.697 636 25.219
151.814 597 24.4336
151.932 639 25.2784
152.049 637 25.2389
152.167 587 24.2281
152.284 611 24.7184
152.402 636 25.219
152.519 602 24.5357
152.636 595 24.3926
152.754 614 24.779
152.871 587 24.2281
152.989 548 23.4094
153.106 619 24.8797
153.223 571 23.8956
153.341 606 24.6171
153.458 558 23.622
153.575 573 23.9374
153.693 509 22.561
153.81 561 23.6854
153.927 527 22.9565
154.044 531 23.0434
154.162 564 23.7487
154.279 597 24.4336
154.396 627 25.04
154.513 618 24.8596
154.63 606 24.6171
154.747 638 25.2587
154.864 636 25.219
154.981 674 25.9615
155.098 632 25.1396
155.215 635 25.1992
155.332 637 25.2389
155.449 673 25.9422
155.566 662 25.7294
155.683 606 24.6171
155.8 693 26.3249
155.917 669 25.865
156.033 666 25.807
156.15 0 1
156.267 0 1
156.383 0 1
156.5 0 1
156.617 0 1
156.733 0 1
156.85 0 1
156.966 0 1
157.082 0 1
157.199 0 1
157.315 0 1
157.431 0 1
157.547 0 1
157.664 0 1
157.78 0 1
157.896 0 1
158.012 0 1
158.128 0 1
158.244 0 1
158.359 0 1
158.475 0 1
158.591 0 1
158.706 0 1
