
6.15755 0 1
6.2731 0 1
6.3887 0 1
6.50437 0 1
6.62009 0 1
6.73587 0 1
6.8517 0 1
6.96759 0 1
7.08353 0 1
7.19952 0 1
7.31557 0 1
7.43166 0 1
7.54781 0 1
7.664 0 1
7.78024 0 1
7.89653 0 1
8.01286 0 1
8.12924 0 1
8.24567 0 1
8.36213 0 1
8.47864 0 1
8.59519 0 1
8.71178 0 1
8.82841 0 1
8.94508 0 1
9.06179 0 1
9.17853 0 1
9.29531 0 1
9.41212 0 1
9.52897 0 1
9.64584 0 1
9.76276 0 1
9.8797 0 1
9.99667 0 1
10.1137 0 1
10.2307 0 1
10.3478 0 1
10.4648 0 1
10.5819 0 1
10.6991 0 1
10.8162 0 1
10.9334 0 1
11.0506 0 1
11.1678 0 1
11.285 0 1
11.4023 0 1
11.5196 0 1
11.6369 0 1
11.7542 0 1
11.8715 0 1
11.9888 0 1
12.1062 0 1
12.2235 0 1
12.3409 0 1
12.4582 0 1
12.5756 0 1
12.693 0 1
12.8104 0 1
12.9278 0 1
13.0452 0 1
13.1626 0 1
13.28 0 1
13.3974 0 1
13.5149 0 1
13.6323 0 1
13.7497 0 1
13.8671 0 1
13.9845 0 1
14.1019 0 1
14.2193 0 1
14.3367 0 1
14.4541 0 1
14.5714 0 1
14.6888 0 1
14.8062 0 1
14.9235 0 1
15.0408 0 0
15.1581 0 0
15.2755 0 0
15.3927 0 0
15.51 0 0
15.6273 0 0
15.7445 0 0
15.8617 0 0
15.9789 0 0
16.0961 0 0
16.2132 0 0
16.3304 0 0
16.4475 0 0
16.5646 0 0
16.6816 0 0
16.7986 0 0
16.9156 0 0
17.0326 0 0
17.1496 0 0
17.2665 0 0
17.3833 0 0
17.5002 0 0
17.617 0 0
17.7338 0 0
17.8505 0 0
17.9672 0 0
18.0839 0 0
18.2005 0 0
18.3171 0 0
18.4337 0 0
18.5502 0 0
18.6666 0 0
18.7831 0 0
18.8994 0 0
19.0158 0 0
19.1321 0 0
19.2483 0 0
19.3645 0 0
19.4806 0 0
19.5967 0 0
19.7128 0 0
19.8288 0 0
19.9447 0 0
20.0606 0 1
20.1764 0 1
20.2922 0 1
20.4079 0 1
20.5236 0 1
20.6392 0 1
20.7548 0 1
20.8702 0 1
23.3078 0 1
23.4233 0 1
23.539 0 1
23.6547 0 1
23.7704 0 1
23.8862 0 1
24.0021 0 1
24.118 0 1
24.234 0 1
24.35 0 1
24.4661 295 17.1756
24.5822 313 17.6918
24.6984 311 17.6352
24.8146 306 17.4929
24.9309 355 18.8414
25.0472 351 18.735
25.1636 339 18.412
25.28 311 17.6352
25.3965 348 18.6548
25.513 368 19.1833
25.6296 347 18.6279
25.7462 357 18.8944
25.8628 374 19.3391
25.9795 347 18.6279
26.0962 332 18.2209
26.213 369 19.2094
26.3298 377 19.4165
26.4466 369 19.2094
26.5635 339 18.412
26.6804 335 18.303
26.7973 326 18.0555
26.9143 327 18.0831
27.0313 283 16.8226
27.1483 302 17.3781
27.2653 285 16.8819
27.3824 306 17.4929
27.4996 339 18.412
27.6167 322 17.9444
27.7339 275 16.5831
27.8511 284 16.8523
27.9683 294 17.1464
28.0855 267 16.3401
28.2028 285 16.8819
28.3201 262 16.1864
28.4374 319 17.8606
28.5547 327 18.0831
28.6721 332 18.2209
28.7894 333 18.2483
28.9068 316 17.7764
29.0242 323 17.9722
29.1416 314 17.72
29.259 343 18.5203
29.3764 342 18.4932
29.4939 327 18.0831
29.6113 345 18.5742
29.7288 330 18.1659
29.8463 332 18.2209
29.9638 316 17.7764
30.0812 314 17.72
30.1987 296 17.2047
30.3162 333 18.2483
30.4337 320 17.8885
30.5512 291 17.0587
30.6687 276 16.6132
30.7862 292 17.088
30.9037 295 17.1756
31.0212 303 17.4069
31.1387 289 17
31.2562 298 17.2627
31.3737 278 16.6733
31.4912 263 16.2173
31.6087 284 16.8523
31.7262 298 17.2627
31.8436 278 16.6733
31.9611 294 17.1464
32.0785 317 17.8045
32.1959 348 18.6548
32.3134 324 18
32.4308 319 17.8606
32.5482 330 18.1659
32.6655 361 19
32.7829 341 18.4662
32.9002 299 17.2916
33.0176 314 17.72
33.1349 310 17.6068
33.2522 341 18.4662
33.3694 322 17.9444
33.4867 286 16.9115
33.6039 337 18.3576
33.7211 338 18.3848
33.8383 343 18.5203
33.9554 297 17.2337
34.0725 298 17.2627
34.1896 256 16
34.3067 266 16.3095
34.4237 279 16.7033
34.5407 277 16.6433
34.6577 296 17.2047
34.7746 286 16.9115
34.8915 294 17.1464
35.0084 307 17.5214
35.1252 289 17
35.242 276 16.6132
35.3587 283 16.8226
35.4755 312 17.6635
35.5921 282 16.7929
35.7088 349 18.6815
35.8254 286 16.9115
35.9419 287 16.9411
36.0584 331 18.1934
36.1749 317 17.8045
36.2913 313 17.6918
36.4077 299 17.2916
36.524 305 17.4642
36.6403 312 17.6635
36.7565 317 17.8045
36.8727 323 17.9722
36.9889 320 17.8885
37.1049 323 17.9722
37.221 0 1
37.3369 0 1
37.4529 0 1
37.5687 0 1
37.6845 0 1
37.8003 0 1
37.916 0 1
38.0316 0 1
38.1472 0 1
40.5851 0 1
40.7008 0 1
40.8164 0 1
40.9322 0 1
41.048 0 1
41.1639 0 1
41.2798 0 1
41.3958 0 1
41.5118 0 1
41.6279 0 1
41.744 246 15.6844
41.8602 229 15.1327
41.9765 249 15.7797
42.0928 248 15.748
42.2091 268 16.3707
42.3255 278 16.6733
42.4419 299 17.2916
42.5584 278 16.6733
42.675 285 16.8819
42.7915 281 16.7631
42.9081 259 16.0935
43.0248 255 15.9687
43.1415 206 14.3527
43.2582 239 15.4596
43.375 226 15.0333
43.4918 235 15.3297
43.6087 264 16.2481
43.7256 239 15.4596
43.8425 229 15.1327
43.9595 234 15.2971
44.0765 207 14.3875
44.1935 228 15.0997
44.3106 244 15.6205
44.4277 248 15.748
44.5448 237 15.3948
44.6619 249 15.7797
44.7791 263 16.2173
44.8963 225 15
45.0136 232 15.2315
45.1308 214 14.6287
45.2481 210 14.4914
45.3654 224 14.9666
45.4827 221 14.8661
45.6001 227 15.0665
45.7174 210 14.4914
45.8348 210 14.4914
45.9522 201 14.1774
46.0697 198 14.0712
46.1871 241 15.5242
46.3046 217 14.7309
46.422 209 14.4568
46.5395 195 13.9642
46.657 197 14.0357
46.7745 192 13.8564
46.892 168 12.9615
47.0096 169 13
47.1271 153 12.3693
47.2446 184 13.5647
47.3622 179 13.3791
47.4797 168 12.9615
47.5973 178 13.3417
47.7149 201 14.1774
47.8324 184 13.5647
47.95 157 12.53
48.0675 179 13.3791
48.1851 176 13.2665
48.3027 201 14.1774
48.4202 195 13.9642
48.5378 170 13.0384
48.6554 160 12.6491
48.7729 163 12.7671
48.8904 167 12.9228
49.008 183 13.5277
49.1255 183 13.5277
49.243 181 13.4536
49.3605 190 13.784
49.478 182 13.4907
49.5955 189 13.7477
49.713 192 13.8564
49.8304 188 13.7113
49.9479 204 14.2829
50.0653 166 12.8841
50.1827 180 13.4164
50.3001 165 12.8452
50.4175 153 12.3693
50.5348 163 12.7671
50.6521 186 13.6382
50.7694 181 13.4536
50.8867 186 13.6382
51.004 182 13.4907
51.1212 176 13.2665
51.2384 214 14.6287
51.3556 193 13.8924
51.4727 177 13.3041
51.5899 246 15.6844
51.707 221 14.8661
51.824 203 14.2478
51.9411 214 14.6287
52.0581 202 14.2127
52.175 217 14.7309
52.2919 247 15.7162
52.4088 217 14.7309
52.5257 229 15.1327
52.6425 226 15.0333
52.7593 234 15.2971
52.876 222 14.8997
52.9927 241 15.5242
53.1094 239 15.4596
53.226 244 15.6205
53.3426 245 15.6525
53.4591 263 16.2173
53.5756 221 14.8661
53.692 234 15.2971
53.8084 225 15
53.9248 222 14.8997
54.0411 185 13.6015
54.1573 204 14.2829
54.2735 0 1
54.3896 0 1
54.5057 0 1
54.6217 0 1
54.7377 0 1
54.8537 0 1
54.9695 0 1
55.0853 0 1
55.2011 0 1
55.3168 0 1
55.4324 0 1
57.824 0 1
57.9396 0 1
58.0553 0 1
58.1711 0 1
58.2869 0 1
58.4028 0 1
58.5187 0 1
58.6347 0 1
58.7508 0 1
58.8669 0 1
58.983 253 15.906
59.0992 244 15.6205
59.2155 224 14.9666
59.3318 218 14.7648
59.4482 238 15.4272
59.5646 230 15.1658
59.681 237 15.3948
59.7975 244 15.6205
59.9141 252 15.8745
60.0306 257 16.0312
60.1473 245 15.6525
60.2639 286 16.9115
60.3807 245 15.6525
60.4974 252 15.8745
60.6142 277 16.6433
60.731 243 15.5885
60.8479 238 15.4272
60.9648 259 16.0935
61.0818 271 16.4621
61.1987 222 14.8997
61.3158 241 15.5242
61.4328 267 16.3401
61.5499 285 16.8819
61.667 239 15.4596
61.7841 227 15.0665
61.9013 234 15.2971
62.0185 220 14.8324
62.1357 225 15
62.253 256 16
62.3702 232 15.2315
62.4875 194 13.9284
62.6049 247 15.7162
62.7222 217 14.7309
62.8396 211 14.5258
62.9569 207 14.3875
63.0743 215 14.6629
63.1918 245 15.6525
63.3092 218 14.7648
63.4267 211 14.5258
63.5441 254 15.9374
63.6616 251 15.843
63.7791 218 14.7648
63.8966 229 15.1327
64.0142 210 14.4914
64.1317 204 14.2829
64.2492 245 15.6525
64.3668 241 15.5242
64.4843 243 15.5885
64.6019 220 14.8324
64.7195 233 15.2643
64.837 202 14.2127
64.9546 231 15.1987
65.0722 207 14.3875
65.1898 228 15.0997
65.3074 187 13.6748
65.4249 197 14.0357
65.5425 177 13.3041
65.6601 218 14.7648
65.7777 210 14.4914
65.8952 185 13.6015
66.0128 209 14.4568
66.1304 185 13.6015
66.2479 172 13.1149
66.3655 153 12.3693
66.483 179 13.3791
66.6005 165 12.8452
66.718 217 14.7309
66.8355 193 13.8924
66.953 197 14.0357
67.0705 214 14.6287
67.1879 190 13.784
67.3054 223 14.9332
67.4228 200 14.1421
67.5402 194 13.9284
67.6576 203 14.2478
67.7749 194 13.9284
67.8923 203 14.2478
68.0096 190 13.784
68.1269 184 13.5647
68.2442 194 13.9284
68.3614 183 13.5277
68.4787 231 15.1987
68.5958 189 13.7477
68.713 189 13.7477
68.8302 198 14.0712
68.9473 193 13.8924
69.0643 218 14.7648
69.1814 183 13.5277
69.2984 204 14.2829
69.4154 206 14.3527
69.5323 182 13.4907
69.6492 192 13.8564
69.7661 201 14.1774
69.8829 171 13.0767
69.9997 164 12.8062
70.1165 164 12.8062
70.2332 180 13.4164
70.3499 178 13.3417
70.4665 153 12.3693
70.5831 170 13.0384
70.6996 187 13.6748
70.8161 180 13.4164
70.9326 180 13.4164
71.049 168 12.9615
71.1653 197 14.0357
71.2817 169 13
71.3979 150 12.2474
71.5141 159 12.6095
71.6303 148 12.1655
71.7464 164 12.8062
71.8624 0 1
71.9784 0 1
72.0944 0 1
72.2102 0 1
72.3261 0 1
72.4418 0 1
72.5575 0 1
72.6732 0 1
75.1054 0 1
75.2209 0 1
75.3365 0 1
75.4521 0 1
75.5678 0 1
75.6835 0 1
75.7993 0 1
75.9151 0 1
76.031 0 1
76.147 132 11.4891
76.263 140 11.8322
76.3791 143 11.9583
76.4952 158 12.5698
76.6113 147 12.1244
76.7276 140 11.8322
76.8438 137 11.7047
76.9601 138 11.7473
77.0765 142 11.9164
77.1929 142 11.9164
77.3093 135 11.619
77.4258 117 10.8167
77.5423 116 10.7703
77.6589 144 12
77.7755 111 10.5357
77.8921 120 10.9545
78.0088 113 10.6301
78.1256 128 11.3137
78.2423 116 10.7703
78.3591 144 12
78.4759 109 10.4403
78.5928 133 11.5326
78.7097 105 10.247
78.8266 107 10.3441
78.9436 119 10.9087
79.0606 99 9.94987
79.1776 73 8.544
79.2946 77 8.77496
79.4117 86 9.27362
79.5288 101 10.0499
79.6459 114 10.6771
79.7631 105 10.247
79.8802 91 9.53939
79.9974 88 9.38083
80.1147 94 9.69536
80.2319 101 10.0499
80.3491 89 9.43398
80.4664 96 9.79796
80.5837 101 10.0499
80.701 73 8.544
80.8183 86 9.27362
80.9357 79 8.88819
81.053 89 9.43398
81.1704 78 8.83176
81.2877 50 7.07107
81.4051 69 8.30662
81.5225 71 8.42615
81.6399 61 7.81025
81.7573 55 7.4162
81.8747 57 7.54983
81.9922 48 6.9282
82.1096 70 8.3666
82.227 65 8.06226
82.3444 55 7.4162
82.4619 62 7.87401
82.5793 71 8.42615
82.6967 36 6
82.8142 44 6.63325
82.9316 37 6.08276
83.049 37 6.08276
83.1664 36 6
83.2838 55 7.4162
83.4012 42 6.48074
83.5186 30 5.47723
83.636 36 6
83.7534 31 5.56776
83.8708 34 5.83095
83.9881 32 5.65685
84.1055 32 5.65685
84.2228 35 5.91608
84.3401 37 6.08276
84.4575 26 5.09902
84.5747 20 4.47214
84.692 27 5.19615
84.8093 30 5.47723
84.9265 28 5.2915
85.0437 21 4.58258
85.1609 30 5.47723
85.2781 22 4.69042
85.3952 21 4.58258
85.5123 22 4.69042
85.6294 21 4.58258
85.7465 25 5
85.8636 24 4.89898
85.9806 25 5
86.0976 16 4
86.2145 15 3.87298
86.3315 26 5.09902
86.4484 36 6
86.5652 33 5.74456
86.682 37 6.08276
86.7988 24 4.89898
86.9156 37 6.08276
87.0323 37 6.08276
87.149 26 5.09902
87.2657 33 5.74456
87.3823 42 6.48074
87.4988 39 6.245
87.6154 37 6.08276
87.7318 40 6.32456
87.8483 44 6.63325
87.9647 47 6.85565
88.081 37 6.08276
88.1973 49 7
88.3136 56 7.48331
88.4298 53 7.28011
88.546 74 8.60233
88.6621 61 7.81025
88.7781 69 8.30662
88.8942 0 1
89.0101 0 1
89.126 0 1
89.2419 0 1
89.3577 0 1
89.4734 0 1
89.5891 0 1
89.7047 0 1
89.8203 0 1
89.9358 0 1
92.3269 0 1
92.4424 0 1
92.558 0 1
92.6736 0 1
92.7893 0 1
92.905 0 1
93.0208 0 1
93.1366 0 1
93.2525 0 1
93.3685 0 1
93.4845 0 1
93.6005 99 9.94987
93.7167 94 9.69536
93.8328 95 9.74679
93.949 107 10.3441
94.0653 80 8.94427
94.1816 85 9.21954
94.2979 70 8.3666
94.4143 94 9.69536
94.5307 92 9.59166
94.6472 75 8.66025
94.7637 72 8.48528
94.8803 81 9
94.9969 67 8.18535
95.1135 75 8.66025
95.2302 87 9.32738
95.3469 64 8
95.4637 55 7.4162
95.5805 57 7.54983
95.6973 72 8.48528
95.8142 85 9.21954
95.9311 101 10.0499
96.048 71 8.42615
96.1649 92 9.59166
96.2819 97 9.84886
96.3989 103 10.1489
96.516 96 9.79796
96.633 79 8.88819
96.7501 104 10.198
96.8673 106 10.2956
96.9844 98 9.89949
97.1016 115 10.7238
97.2188 111 10.5357
97.336 118 10.8628
97.4532 122 11.0454
97.5704 114 10.6771
97.6877 121 11
97.805 142 11.9164
97.9223 122 11.0454
98.0396 114 10.6771
98.1569 131 11.4455
98.2743 146 12.083
98.3916 107 10.3441
98.509 142 11.9164
98.6264 146 12.083
98.7438 142 11.9164
98.8612 161 12.6886
98.9786 130 11.4018
99.096 101 10.0499
99.2134 110 10.4881
99.3308 144 12
99.4482 184 13.5647
99.5656 146 12.083
99.6831 167 12.9228
99.8005 161 12.6886
99.9179 173 13.1529
100.035 178 13.3417
100.153 183 13.5277
100.27 180 13.4164
100.388 187 13.6748
100.505 191 13.8203
100.622 199 14.1067
100.74 204 14.2829
100.857 220 14.8324
100.975 178 13.3417
101.092 177 13.3041
101.209 189 13.7477
101.327 205 14.3178
101.444 183 13.5277
101.561 216 14.6969
101.679 209 14.4568
101.796 187 13.6748
101.913 203 14.2478
102.03 235 15.3297
102.148 186 13.6382
102.265 207 14.3875
102.382 196 14
102.499 158 12.5698
102.616 164 12.8062
102.733 150 12.2474
102.851 139 11.7898
102.968 215 14.6629
103.085 201 14.1774
103.202 201 14.1774
103.319 162 12.7279
103.436 221 14.8661
103.552 215 14.6629
103.669 220 14.8324
103.786 217 14.7309
103.903 206 14.3527
104.02 226 15.0333
104.137 199 14.1067
104.253 211 14.5258
104.37 205 14.3178
104.487 232 15.2315
104.603 207 14.3875
104.72 227 15.0665
104.836 240 15.4919
104.953 205 14.3178
105.069 214 14.6287
105.186 198 14.0712
105.302 228 15.0997
105.418 218 14.7648
105.535 225 15
105.651 182 13.4907
105.767 207 14.3875
105.883 224 14.9666
105.999 206 14.3527
106.115 0 1
106.231 0 1
106.347 0 1
106.463 0 1
106.579 0 1
106.694 0 1
106.81 0 1
106.926 0 1
107.041 0 1
107.157 0 1
109.576 0 1
109.692 0 1
109.807 0 1
109.923 0 1
110.039 0 1
110.155 0 1
110.27 0 1
110.386 0 1
110.502 0 1
110.618 144 12
110.735 157 12.53
110.851 162 12.7279
110.967 163 12.7671
111.083 167 12.9228
111.199 141 11.8743
111.316 140 11.8322
111.432 156 12.49
111.549 157 12.53
111.665 176 13.2665
111.782 150 12.2474
111.898 165 12.8452
112.015 160 12.6491
112.132 140 11.8322
112.248 157 12.53
112.365 159 12.6095
112.482 138 11.7473
112.599 147 12.1244
112.716 132 11.4891
112.832 155 12.4499
112.949 151 12.2882
113.066 138 11.7473
113.183 130 11.4018
113.3 109 10.4403
113.417 127 11.2694
113.534 136 11.6619
113.652 139 11.7898
113.769 135 11.619
113.886 125 11.1803
114.003 128 11.3137
114.12 114 10.6771
114.238 138 11.7473
114.355 118 10.8628
114.472 122 11.0454
114.589 104 10.198
114.707 127 11.2694
114.824 111 10.5357
114.942 102 10.0995
115.059 108 10.3923
115.176 132 11.4891
115.294 124 11.1355
115.411 108 10.3923
115.529 118 10.8628
115.646 121 11
115.764 114 10.6771
115.881 97 9.84886
115.999 112 10.583
116.116 105 10.247
116.234 102 10.0995
116.351 121 11
116.469 117 10.8167
116.586 95 9.74679
116.704 114 10.6771
116.821 115 10.7238
116.939 128 11.3137
117.056 104 10.198
117.174 100 10
117.291 114 10.6771
117.409 137 11.7047
117.526 123 11.0905
117.644 115 10.7238
117.761 114 10.6771
117.879 113 10.6301
117.996 100 10
118.114 86 9.27362
118.231 91 9.53939
118.349 112 10.583
118.466 96 9.79796
118.584 99 9.94987
118.701 91 9.53939
118.819 117 10.8167
118.936 127 11.2694
119.053 111 10.5357
119.171 134 11.5758
119.288 120 10.9545
119.405 110 10.4881
119.523 115 10.7238
119.64 122 11.0454
119.757 120 10.9545
119.875 112 10.583
119.992 128 11.3137
120.109 138 11.7473
120.226 136 11.6619
120.343 117 10.8167
120.46 135 11.619
120.578 135 11.619
120.695 106 10.2956
120.812 135 11.619
120.929 121 11
121.046 125 11.1803
121.163 119 10.9087
121.279 120 10.9545
121.396 118 10.8628
121.513 123 11.0905
121.63 98 9.89949
121.747 87 9.32738
121.863 78 8.83176
121.98 104 10.198
122.097 109 10.4403
122.213 113 10.6301
122.33 119 10.9087
122.446 112 10.583
122.563 118 10.8628
122.679 125 11.1803
122.795 132 11.4891
122.912 137 11.7047
123.028 120 10.9545
123.144 155 12.4499
123.26 128 11.3137
123.377 0 1
123.493 0 1
123.609 0 1
123.725 0 1
123.84 0 1
123.956 0 1
124.072 0 1
124.188 0 1
124.303 0 1
124.419 0 1
126.852 0 1
126.968 0 1
127.083 0 1
127.199 0 1
127.315 0 1
127.431 0 1
127.547 0 1
127.663 0 1
127.779 0 1
127.895 0 1
128.011 0 1
128.127 0 1
128.243 0 1
128.359 172 13.1149
128.476 177 13.3041
128.592 176 13.2665
128.708 169 13
128.825 166 12.8841
128.941 155 12.4499
129.058 187 13.6748
129.174 177 13.3041
129.291 176 13.2665
129.408 160 12.6491
129.524 173 13.1529
129.641 185 13.6015
129.758 192 13.8564
129.875 173 13.1529
129.992 197 14.0357
130.108 175 13.2288
130.225 160 12.6491
130.342 129 11.3578
130.459 156 12.49
130.576 130 11.4018
130.693 121 11
130.81 91 9.53939
130.928 114 10.6771
131.045 119 10.9087
131.162 194 13.9284
131.279 189 13.7477
131.396 175 13.2288
131.513 195 13.9642
131.631 165 12.8452
131.748 195 13.9642
131.865 193 13.8924
131.983 179 13.3791
132.1 194 13.9284
132.217 178 13.3417
132.335 188 13.7113
132.452 164 12.8062
132.57 206 14.3527
132.687 205 14.3178
132.804 180 13.4164
132.922 173 13.1529
133.039 152 12.3288
133.157 187 13.6748
133.274 221 14.8661
133.392 176 13.2665
133.509 199 14.1067
133.627 164 12.8062
133.744 191 13.8203
133.862 167 12.9228
133.979 166 12.8841
134.097 151 12.2882
134.214 155 12.4499
134.332 147 12.1244
134.449 143 11.9583
134.567 149 12.2066
134.684 161 12.6886
134.802 171 13.0767
134.919 204 14.2829
135.037 156 12.49
135.154 186 13.6382
135.272 186 13.6382
135.389 193 13.8924
135.507 212 14.5602
135.624 192 13.8564
135.742 205 14.3178
135.859 187 13.6748
135.977 167 12.9228
136.094 239 15.4596
136.211 182 13.4907
136.329 197 14.0357
136.446 224 14.9666
136.564 201 14.1774
136.681 221 14.8661
136.798 199 14.1067
136.915 197 14.0357
137.033 215 14.6629
137.15 227 15.0665
137.267 197 14.0357
137.384 194 13.9284
137.502 192 13.8564
137.619 158 12.5698
137.736 179 13.3791
137.853 175 13.2288
137.97 145 12.0416
138.087 149 12.2066
138.204 151 12.2882
138.321 177 13.3041
138.438 209 14.4568
138.555 193 13.8924
138.672 202 14.2127
138.788 210 14.4914
138.905 209 14.4568
139.022 217 14.7309
139.139 227 15.0665
139.255 225 15
139.372 239 15.4596
139.488 241 15.5242
139.605 218 14.7648
139.721 195 13.9642
139.838 191 13.8203
139.954 211 14.5258
140.071 232 15.2315
140.187 225 15
140.303 246 15.6844
140.419 224 14.9666
140.535 210 14.4914
140.652 215 14.6629
140.768 0 1
140.884 0 1
141 0 1
141.115 0 1
141.231 0 1
141.347 0 1
141.463 0 1
141.578 0 1
141.694 0 1
144.104 0 1
144.219 0 1
144.335 0 1
144.45 0 1
144.566 0 1
144.682 0 1
144.798 0 1
144.914 0 1
145.03 0 1
145.146 224 14.9666
145.262 227 15.0665
145.378 208 14.4222
145.494 207 14.3875
145.61 226 15.0333
145.726 221 14.8661
145.842 190 13.784
145.959 222 14.8997
146.075 209 14.4568
146.192 170 13.0384
146.308 178 13.3417
146.425 195 13.9642
146.541 154 12.4097
146.658 173 13.1529
146.774 187 13.6748
146.891 162 12.7279
147.008 190 13.784
147.125 184 13.5647
147.241 221 14.8661
147.358 200 14.1421
147.475 261 16.1555
147.592 227 15.0665
147.709 228 15.0997
147.826 220 14.8324
147.943 221 14.8661
148.06 220 14.8324
148.177 252 15.8745
148.294 201 14.1774
148.411 233 15.2643
148.528 221 14.8661
148.645 219 14.7986
148.762 216 14.6969
148.88 215 14.6629
148.997 175 13.2288
149.114 196 14
149.231 210 14.4914
149.349 200 14.1421
149.466 231 15.1987
149.583 202 14.2127
149.701 197 14.0357
149.818 185 13.6015
149.935 173 13.1529
150.053 171 13.0767
150.17 177 13.3041
150.287 168 12.9615
150.405 188 13.7113
150.522 197 14.0357
150.64 185 13.6015
150.757 193 13.8924
150.875 186 13.6382
150.992 212 14.5602
151.11 225 15
151.227 210 14.4914
151.344 217 14.7309
151.462 220 14.8324
151.579 219 14.7986
151.697 216 14.6969
151.814 247 15.7162
151.932 218 14.7648
152.049 214 14.6287
152.167 195 13.9642
152.284 229 15.1327
152.402 196 14
152.519 220 14.8324
152.636 240 15.4919
152.754 217 14.7309
152.871 219 14.7986
152.989 248 15.748
153.106 201 14.1774
153.223 195 13.9642
153.341 192 13.8564
153.458 208 14.4222
153.575 193 13.8924
153.693 188 13.7113
153.81 200 14.1421
153.927 194 13.9284
154.044 194 13.9284
154.162 226 15.0333
154.279 239 15.4596
154.396 206 14.3527
154.513 236 15.3623
154.63 206 14.3527
154.747 231 15.1987
154.864 241 15.5242
154.981 226 15.0333
155.098 256 16
155.215 249 15.7797
155.332 252 15.8745
155.449 263 16.2173
155.566 265 16.2788
155.683 238 15.4272
155.8 229 15.1327
155.917 217 14.7309
156.033 244 15.6205
156.15 0 1
156.267 0 1
156.383 0 1
156.5 0 1
156.617 0 1
156.733 0 1
156.85 0 1
156.966 0 1
157.082 0 1
157.199 0 1
157.315 0 1
157.431 0 1
157.547 0 1
157.664 0 1
157.78 0 1
157.896 0 1
158.012 0 1
158.128 0 1
158.244 0 1
158.359 0 1
158.475 0 1
158.591 0 1
158.706 0 1
