
6.15755 0 1
6.2731 0 1
6.3887 0 1
6.50437 0 1
6.62009 0 1
6.73587 0 1
6.8517 0 1
6.96759 0 1
7.08353 0 1
7.19952 0 1
7.31557 0 1
7.43166 0 1
7.54781 0 1
7.664 0 1
7.78024 0 1
7.89653 0 1
8.01286 0 1
8.12924 0 1
8.24567 0 1
8.36213 0 1
8.47864 0 1
8.59519 0 1
8.71178 0 1
8.82841 0 1
8.94508 0 1
9.06179 0 1
9.17853 0 1
9.29531 0 1
9.41212 0 1
9.52897 0 1
9.64584 0 1
9.76276 0 1
9.8797 0 1
9.99667 0 1
10.1137 0 1
10.2307 0 1
10.3478 0 1
10.4648 0 1
10.5819 0 1
10.6991 0 1
10.8162 0 1
10.9334 0 1
11.0506 0 1
11.1678 0 1
11.285 0 1
11.4023 0 1
11.5196 0 1
11.6369 0 1
11.7542 0 1
11.8715 0 1
11.9888 0 1
12.1062 0 1
12.2235 0 1
12.3409 0 1
12.4582 0 1
12.5756 0 1
12.693 0 1
12.8104 0 1
12.9278 0 1
13.0452 0 1
13.1626 0 1
13.28 0 1
13.3974 0 1
13.5149 0 1
13.6323 0 1
13.7497 0 1
13.8671 0 1
13.9845 0 1
14.1019 0 1
14.2193 0 1
14.3367 0 1
14.4541 0 1
14.5714 0 1
14.6888 0 1
14.8062 0 1
14.9235 0 1
15.0408 851 29.1719
15.1581 890 29.8329
15.2755 919 30.315
15.3927 936 30.5941
15.51 887 29.7825
15.6273 871 29.5127
15.7445 913 30.2159
15.8617 847 29.1033
15.9789 839 28.9655
16.0961 863 29.3769
16.2132 861 29.3428
16.3304 828 28.775
16.4475 866 29.4279
16.5646 804 28.3549
16.6816 805 28.3725
16.7986 745 27.2947
16.9156 731 27.037
17.0326 707 26.5895
17.1496 770 27.7489
17.2665 732 27.0555
17.3833 768 27.7128
17.5002 766 27.6767
17.617 800 28.2843
17.7338 749 27.3679
17.8505 742 27.2397
17.9672 784 28
18.0839 763 27.6225
18.2005 689 26.2488
18.3171 718 26.7955
18.4337 767 27.6948
18.5502 783 27.9821
18.6666 771 27.7669
18.7831 709 26.6271
18.8994 737 27.1477
19.0158 680 26.0768
19.1321 665 25.7876
19.2483 676 26
19.3645 606 24.6171
19.4806 617 24.8395
19.5967 614 24.779
19.7128 558 23.622
19.8288 517 22.7376
19.9447 466 21.587
20.0606 0 1
20.1764 0 1
20.2922 0 1
20.4079 0 1
20.5236 0 1
20.6392 0 1
20.7548 0 1
20.8702 0 1
23.3078 0 1
23.4233 0 1
23.539 0 1
23.6547 0 1
23.7704 0 1
23.8862 0 1
24.0021 0 1
24.118 0 1
24.234 0 1
24.35 0 1
24.4661 300 17.3205
24.5822 334 18.2757
24.6984 373 19.3132
24.8146 445 21.095
24.9309 509 22.561
25.0472 539 23.2164
25.1636 685 26.1725
25.28 732 27.0555
25.3965 735 27.1109
25.513 825 28.7228
25.6296 853 29.2062
25.7462 845 29.0689
25.8628 863 29.3769
25.9795 830 28.8097
26.0962 906 30.0998
26.213 766 27.6767
26.3298 791 28.1247
26.4466 787 28.0535
26.5635 711 26.6646
26.6804 698 26.4197
26.7973 671 25.9037
26.9143 619 24.8797
27.0313 645 25.3969
27.1483 736 27.1293
27.2653 699 26.4386
27.3824 697 26.4008
27.4996 692 26.3059
27.6167 719 26.8142
27.7339 656 25.6125
27.8511 609 24.6779
27.9683 635 25.1992
28.0855 709 26.6271
28.2028 659 25.671
28.3201 655 25.593
28.4374 752 27.4226
28.5547 682 26.1151
28.6721 729 27
28.7894 738 27.1662
28.9068 779 27.9106
29.0242 742 27.2397
29.1416 740 27.2029
29.259 704 26.533
29.3764 741 27.2213
29.4939 680 26.0768
29.6113 689 26.2488
29.7288 684 26.1534
29.8463 704 26.533
29.9638 672 25.923
30.0812 641 25.318
30.1987 619 24.8797
30.3162 631 25.1197
30.4337 648 25.4558
30.5512 692 26.3059
30.6687 668 25.8457
30.7862 739 27.1846
30.9037 649 25.4755
31.0212 738 27.1662
31.1387 780 27.9285
31.2562 695 26.3629
31.3737 659 25.671
31.4912 682 26.1151
31.6087 661 25.7099
31.7262 704 26.533
31.8436 671 25.9037
31.9611 724 26.9072
32.0785 726 26.9444
32.1959 711 26.6646
32.3134 707 26.5895
32.4308 628 25.0599
32.5482 694 26.3439
32.6655 687 26.2107
32.7829 584 24.1661
32.9002 591 24.3105
33.0176 612 24.7386
33.1349 650 25.4951
33.2522 693 26.3249
33.3694 617 24.8395
33.4867 626 25.02
33.6039 598 24.454
33.7211 634 25.1794
33.8383 604 24.5764
33.9554 567 23.8118
34.0725 639 25.2784
34.1896 614 24.779
34.3067 632 25.1396
34.4237 627 25.04
34.5407 614 24.779
34.6577 664 25.7682
34.7746 642 25.3377
34.8915 667 25.8263
35.0084 583 24.1454
35.1252 581 24.1039
35.242 576 24
35.3587 581 24.1039
35.4755 604 24.5764
35.5921 627 25.04
35.7088 605 24.5967
35.8254 631 25.1197
35.9419 626 25.02
36.0584 573 23.9374
36.1749 572 23.9165
36.2913 572 23.9165
36.4077 572 23.9165
36.524 572 23.9165
36.6403 562 23.7065
36.7565 533 23.0868
36.8727 498 22.3159
36.9889 490 22.1359
37.1049 429 20.7123
37.221 0 1
37.3369 0 1
37.4529 0 1
37.5687 0 1
37.6845 0 1
37.8003 0 1
37.916 0 1
38.0316 0 1
38.1472 0 1
40.5851 0 1
40.7008 0 1
40.8164 0 1
40.9322 0 1
41.048 0 1
41.1639 0 1
41.2798 0 1
41.3958 0 1
41.5118 0 1
41.6279 0 1
41.744 287 16.9411
41.8602 324 18
41.9765 346 18.6011
42.0928 383 19.5704
42.2091 466 21.587
42.3255 427 20.664
42.4419 391 19.7737
42.5584 435 20.8567
42.675 495 22.2486
42.7915 479 21.8861
42.9081 499 22.3383
43.0248 526 22.9347
43.1415 514 22.6716
43.2582 517 22.7376
43.375 507 22.5167
43.4918 487 22.0681
43.6087 489 22.1133
43.7256 453 21.2838
43.8425 489 22.1133
43.9595 446 21.1187
44.0765 420 20.4939
44.1935 436 20.8806
44.3106 468 21.6333
44.4277 472 21.7256
44.5448 517 22.7376
44.6619 474 21.7715
44.7791 536 23.1517
44.8963 510 22.5832
45.0136 499 22.3383
45.1308 563 23.7276
45.2481 541 23.2594
45.3654 494 22.2261
45.4827 560 23.6643
45.6001 544 23.3238
45.7174 558 23.622
45.8348 541 23.2594
45.9522 517 22.7376
46.0697 515 22.6936
46.1871 497 22.2935
46.3046 472 21.7256
46.422 449 21.1896
46.5395 450 21.2132
46.657 448 21.166
46.7745 485 22.0227
46.892 527 22.9565
47.0096 466 21.587
47.1271 451 21.2368
47.2446 481 21.9317
47.3622 496 22.2711
47.4797 475 21.7945
47.5973 394 19.8494
47.7149 432 20.7846
47.8324 449 21.1896
47.95 413 20.3224
48.0675 436 20.8806
48.1851 449 21.1896
48.3027 460 21.4476
48.4202 422 20.5426
48.5378 502 22.4054
48.6554 464 21.5407
48.7729 515 22.6936
48.8904 502 22.4054
49.008 491 22.1585
49.1255 449 21.1896
49.243 473 21.7486
49.3605 506 22.4944
49.478 410 20.2485
49.5955 469 21.6564
49.713 420 20.4939
49.8304 436 20.8806
49.9479 441 21
50.0653 440 20.9762
50.1827 445 21.095
50.3001 482 21.9545
50.4175 447 21.1424
50.5348 443 21.0476
50.6521 456 21.3542
50.7694 426 20.6398
50.8867 433 20.8087
51.004 479 21.8861
51.1212 446 21.1187
51.2384 428 20.6882
51.3556 388 19.6977
51.4727 414 20.347
51.5899 460 21.4476
51.707 448 21.166
51.824 451 21.2368
51.9411 458 21.4009
52.0581 443 21.0476
52.175 483 21.9773
52.2919 441 21
52.4088 480 21.9089
52.5257 450 21.2132
52.6425 443 21.0476
52.7593 480 21.9089
52.876 463 21.5174
52.9927 478 21.8632
53.1094 444 21.0713
53.226 436 20.8806
53.3426 461 21.4709
53.4591 395 19.8746
53.5756 412 20.2978
53.692 388 19.6977
53.8084 379 19.4679
53.9248 348 18.6548
54.0411 351 18.735
54.1573 318 17.8326
54.2735 0 1
54.3896 0 1
54.5057 0 1
54.6217 0 1
54.7377 0 1
54.8537 0 1
54.9695 0 1
55.0853 0 1
55.2011 0 1
55.3168 0 1
55.4324 0 1
57.824 0 1
57.9396 0 1
58.0553 0 1
58.1711 0 1
58.2869 0 1
58.4028 0 1
58.5187 0 1
58.6347 0 1
58.7508 0 1
58.8669 0 1
58.983 428 20.6882
59.0992 491 22.1585
59.2155 541 23.2594
59.3318 601 24.5153
59.4482 642 25.3377
59.5646 698 26.4197
59.681 727 26.9629
59.7975 810 28.4605
59.9141 872 29.5296
60.0306 825 28.7228
60.1473 844 29.0517
60.2639 837 28.931
60.3807 826 28.7402
60.4974 802 28.3196
60.6142 804 28.3549
60.731 872 29.5296
60.8479 768 27.7128
60.9648 848 29.1204
61.0818 736 27.1293
61.1987 823 28.688
61.3158 755 27.4773
61.4328 731 27.037
61.5499 761 27.5862
61.667 688 26.2298
61.7841 695 26.3629
61.9013 679 26.0576
62.0185 652 25.5343
62.1357 647 25.4362
62.253 673 25.9422
62.3702 592 24.3311
62.4875 581 24.1039
62.6049 561 23.6854
62.7222 585 24.1868
62.8396 614 24.779
62.9569 552 23.4947
63.0743 546 23.3666
63.1918 532 23.0651
63.3092 565 23.7697
63.4267 561 23.6854
63.5441 563 23.7276
63.6616 492 22.1811
63.7791 483 21.9773
63.8966 481 21.9317
64.0142 511 22.6053
64.1317 519 22.7816
64.2492 516 22.7156
64.3668 478 21.8632
64.4843 519 22.7816
64.6019 544 23.3238
64.7195 502 22.4054
64.837 544 23.3238
64.9546 504 22.4499
65.0722 481 21.9317
65.1898 528 22.9783
65.3074 526 22.9347
65.4249 502 22.4054
65.5425 547 23.388
65.6601 502 22.4054
65.7777 503 22.4277
65.8952 484 22
66.0128 488 22.0907
66.1304 498 22.3159
66.2479 520 22.8035
66.3655 534 23.1084
66.483 496 22.2711
66.6005 484 22
66.718 511 22.6053
66.8355 498 22.3159
66.953 494 22.2261
67.0705 534 23.1084
67.1879 515 22.6936
67.3054 474 21.7715
67.4228 488 22.0907
67.5402 481 21.9317
67.6576 487 22.0681
67.7749 482 21.9545
67.8923 505 22.4722
68.0096 489 22.1133
68.1269 456 21.3542
68.2442 501 22.383
68.3614 480 21.9089
68.4787 524 22.891
68.5958 498 22.3159
68.713 505 22.4722
68.8302 545 23.3452
68.9473 528 22.9783
69.0643 546 23.3666
69.1814 505 22.4722
69.2984 496 22.2711
69.4154 483 21.9773
69.5323 491 22.1585
69.6492 509 22.561
69.7661 515 22.6936
69.8829 448 21.166
69.9997 519 22.7816
70.1165 520 22.8035
70.2332 476 21.8174
70.3499 477 21.8403
70.4665 423 20.567
70.5831 457 21.3776
70.6996 441 21
70.8161 396 19.8997
70.9326 345 18.5742
71.049 289 17
71.1653 300 17.3205
71.2817 260 16.1245
71.3979 232 15.2315
71.5141 205 14.3178
71.6303 209 14.4568
71.7464 187 13.6748
71.8624 0 1
71.9784 0 1
72.0944 0 1
72.2102 0 1
72.3261 0 1
72.4418 0 1
72.5575 0 1
72.6732 0 1
75.1054 0 1
75.2209 0 1
75.3365 0 1
75.4521 0 1
75.5678 0 1
75.6835 0 1
75.7993 0 1
75.9151 0 1
76.031 0 1
76.147 311 17.6352
76.263 324 18
76.3791 325 18.0278
76.4952 397 19.9249
76.6113 380 19.4936
76.7276 375 19.3649
76.8438 399 19.975
76.9601 384 19.5959
77.0765 404 20.0998
77.1929 433 20.8087
77.3093 388 19.6977
77.4258 416 20.3961
77.5423 427 20.664
77.6589 450 21.2132
77.7755 435 20.8567
77.8921 412 20.2978
78.0088 449 21.1896
78.1256 410 20.2485
78.2423 415 20.3715
78.3591 404 20.0998
78.4759 424 20.5913
78.5928 440 20.9762
78.7097 401 20.025
78.8266 379 19.4679
78.9436 406 20.1494
79.0606 400 20
79.1776 411 20.2731
79.2946 415 20.3715
79.4117 448 21.166
79.5288 397 19.9249
79.6459 399 19.975
79.7631 451 21.2368
79.8802 441 21
79.9974 448 21.166
80.1147 412 20.2978
80.2319 337 18.3576
80.3491 378 19.4422
80.4664 367 19.1572
80.5837 400 20
80.701 413 20.3224
80.8183 435 20.8567
80.9357 430 20.7364
81.053 397 19.9249
81.1704 416 20.3961
81.2877 393 19.8242
81.4051 432 20.7846
81.5225 431 20.7605
81.6399 454 21.3073
81.7573 492 22.1811
81.8747 458 21.4009
81.9922 397 19.9249
82.1096 491 22.1585
82.227 416 20.3961
82.3444 422 20.5426
82.4619 401 20.025
82.5793 401 20.025
82.6967 422 20.5426
82.8142 464 21.5407
82.9316 476 21.8174
83.049 411 20.2731
83.1664 454 21.3073
83.2838 423 20.567
83.4012 467 21.6102
83.5186 446 21.1187
83.636 429 20.7123
83.7534 457 21.3776
83.8708 423 20.567
83.9881 426 20.6398
84.1055 353 18.7883
84.2228 421 20.5183
84.3401 360 18.9737
84.4575 438 20.9284
84.5747 464 21.5407
84.692 444 21.0713
84.8093 438 20.9284
84.9265 431 20.7605
85.0437 443 21.0476
85.1609 477 21.8403
85.2781 443 21.0476
85.3952 449 21.1896
85.5123 451 21.2368
85.6294 437 20.9045
85.7465 384 19.5959
85.8636 438 20.9284
85.9806 408 20.199
86.0976 416 20.3961
86.2145 401 20.025
86.3315 430 20.7364
86.4484 475 21.7945
86.5652 445 21.095
86.682 471 21.7025
86.7988 469 21.6564
86.9156 431 20.7605
87.0323 462 21.4942
87.149 427 20.664
87.2657 414 20.347
87.3823 417 20.4206
87.4988 433 20.8087
87.6154 395 19.8746
87.7318 355 18.8414
87.8483 339 18.412
87.9647 341 18.4662
88.081 314 17.72
88.1973 325 18.0278
88.3136 312 17.6635
88.4298 311 17.6352
88.546 299 17.2916
88.6621 300 17.3205
88.7781 229 15.1327
88.8942 0 1
89.0101 0 1
89.126 0 1
89.2419 0 1
89.3577 0 1
89.4734 0 1
89.5891 0 1
89.7047 0 1
89.8203 0 1
89.9358 0 1
92.3269 0 1
92.4424 0 1
92.558 0 1
92.6736 0 1
92.7893 0 1
92.905 0 1
93.0208 0 1
93.1366 0 1
93.2525 0 1
93.3685 0 1
93.4845 0 1
93.6005 325 18.0278
93.7167 392 19.799
93.8328 384 19.5959
93.949 377 19.4165
94.0653 412 20.2978
94.1816 410 20.2485
94.2979 448 21.166
94.4143 433 20.8087
94.5307 451 21.2368
94.6472 408 20.199
94.7637 486 22.0454
94.8803 384 19.5959
94.9969 420 20.4939
95.1135 405 20.1246
95.2302 404 20.0998
95.3469 428 20.6882
95.4637 418 20.445
95.5805 453 21.2838
95.6973 453 21.2838
95.8142 461 21.4709
95.9311 425 20.6155
96.048 481 21.9317
96.1649 432 20.7846
96.2819 453 21.2838
96.3989 503 22.4277
96.516 451 21.2368
96.633 436 20.8806
96.7501 397 19.9249
96.8673 398 19.9499
96.9844 376 19.3907
97.1016 462 21.4942
97.2188 422 20.5426
97.336 466 21.587
97.4532 485 22.0227
97.5704 445 21.095
97.6877 458 21.4009
97.805 490 22.1359
97.9223 478 21.8632
98.0396 473 21.7486
98.1569 496 22.2711
98.2743 487 22.0681
98.3916 444 21.0713
98.509 447 21.1424
98.6264 451 21.2368
98.7438 439 20.9523
98.8612 397 19.9249
98.9786 461 21.4709
99.096 460 21.4476
99.2134 469 21.6564
99.3308 469 21.6564
99.4482 534 23.1084
99.5656 526 22.9347
99.6831 513 22.6495
99.8005 509 22.561
99.9179 515 22.6936
100.035 569 23.8537
100.153 594 24.3721
100.27 626 25.02
100.388 665 25.7876
100.505 834 28.8791
100.622 1053 32.45
100.74 1462 38.2361
100.857 1920 43.8178
100.975 2408 49.0714
101.092 3098 55.6597
101.209 3812 61.7414
101.327 4658 68.2495
101.444 5944 77.0973
101.561 6721 81.9817
101.679 8002 89.4539
101.796 8745 93.5147
101.913 9874 99.368
102.03 11068 105.205
102.148 11837 108.798
102.265 12924 113.684
102.382 13091 114.416
102.499 14020 118.406
102.616 14515 120.478
102.733 15139 123.041
102.851 15580 124.82
102.968 15958 126.325
103.085 16101 126.89
103.202 16266 127.538
103.319 16567 128.713
103.436 16831 129.734
103.552 16877 129.912
103.669 16432 128.187
103.786 14616 120.897
103.903 13418 115.836
104.02 13125 114.564
104.137 13994 118.296
104.253 15531 124.623
104.37 16995 130.365
104.487 18262 135.137
104.603 18696 136.733
104.72 18408 135.676
104.836 18089 134.495
104.953 17295 131.51
105.069 15969 126.369
105.186 14815 121.717
105.302 13931 118.03
105.418 12175 110.34
105.535 10853 104.178
105.651 9564 97.7957
105.767 8729 93.4291
105.883 8287 91.033
105.999 8183 90.4599
106.115 0 1
106.231 0 1
106.347 0 1
106.463 0 1
106.579 0 1
106.694 0 1
106.81 0 1
106.926 0 1
107.041 0 1
107.157 0 1
109.576 0 1
109.692 0 1
109.807 0 1
109.923 0 1
110.039 0 1
110.155 0 1
110.27 0 1
110.386 0 1
110.502 0 1
110.618 1534 39.1663
110.735 1545 39.3065
110.851 1361 36.8917
110.967 1123 33.5112
111.083 1195 34.5688
111.199 1233 35.1141
111.316 1370 37.0135
111.432 1310 36.1939
111.549 1197 34.5977
111.665 1076 32.8024
111.782 1072 32.7414
111.898 952 30.8545
112.015 875 29.5804
112.132 839 28.9655
112.248 754 27.4591
112.365 626 25.02
112.482 585 24.1868
112.599 520 22.8035
112.716 518 22.7596
112.832 494 22.2261
112.949 498 22.3159
113.066 491 22.1585
113.183 542 23.2809
113.3 522 22.8473
113.417 536 23.1517
113.534 485 22.0227
113.652 494 22.2261
113.769 495 22.2486
113.886 552 23.4947
114.003 468 21.6333
114.12 478 21.8632
114.238 460 21.4476
114.355 401 20.025
114.472 444 21.0713
114.589 390 19.7484
114.707 448 21.166
114.824 406 20.1494
114.942 463 21.5174
115.059 434 20.8327
115.176 457 21.3776
115.294 442 21.0238
115.411 474 21.7715
115.529 475 21.7945
115.646 444 21.0713
115.764 429 20.7123
115.881 402 20.0499
115.999 339 18.412
116.116 343 18.5203
116.234 372 19.2873
116.351 404 20.0998
116.469 438 20.9284
116.586 416 20.3961
116.704 392 19.799
116.821 403 20.0749
116.939 402 20.0499
117.056 471 21.7025
117.174 399 19.975
117.291 438 20.9284
117.409 414 20.347
117.526 461 21.4709
117.644 436 20.8806
117.761 426 20.6398
117.879 387 19.6723
117.996 359 18.9473
118.114 378 19.4422
118.231 407 20.1742
118.349 394 19.8494
118.466 416 20.3961
118.584 363 19.0526
118.701 402 20.0499
118.819 421 20.5183
118.936 434 20.8327
119.053 393 19.8242
119.171 406 20.1494
119.288 407 20.1742
119.405 393 19.8242
119.523 338 18.3848
119.64 296 17.2047
119.757 313 17.6918
119.875 356 18.868
119.992 366 19.1311
120.109 387 19.6723
120.226 400 20
120.343 389 19.7231
120.46 389 19.7231
120.578 352 18.7617
120.695 401 20.025
120.812 398 19.9499
120.929 390 19.7484
121.046 385 19.6214
121.163 404 20.0998
121.279 405 20.1246
121.396 369 19.2094
121.513 343 18.5203
121.63 338 18.3848
121.747 357 18.8944
121.863 308 17.5499
121.98 389 19.7231
122.097 320 17.8885
122.213 325 18.0278
122.33 345 18.5742
122.446 288 16.9706
122.563 320 17.8885
122.679 254 15.9374
122.795 291 17.0587
122.912 291 17.0587
123.028 216 14.6969
123.144 200 14.1421
123.26 204 14.2829
123.377 0 1
123.493 0 1
123.609 0 1
123.725 0 1
123.84 0 1
123.956 0 1
124.072 0 1
124.188 0 1
124.303 0 1
124.419 0 1
126.852 0 1
126.968 0 1
127.083 0 1
127.199 0 1
127.315 0 1
127.431 0 1
127.547 0 1
127.663 0 1
127.779 0 1
127.895 0 1
128.011 0 1
128.127 0 1
128.243 0 1
128.359 418 20.445
128.476 411 20.2731
128.592 427 20.664
128.708 349 18.6815
128.825 367 19.1572
128.941 409 20.2237
129.058 419 20.4695
129.174 461 21.4709
129.291 474 21.7715
129.408 446 21.1187
129.524 467 21.6102
129.641 425 20.6155
129.758 464 21.5407
129.875 488 22.0907
129.992 495 22.2486
130.108 471 21.7025
130.225 467 21.6102
130.342 474 21.7715
130.459 462 21.4942
130.576 464 21.5407
130.693 438 20.9284
130.81 454 21.3073
130.928 479 21.8861
131.045 565 23.7697
131.162 600 24.4949
131.279 573 23.9374
131.396 613 24.7588
131.513 636 25.219
131.631 677 26.0192
131.748 675 25.9808
131.865 692 26.3059
131.983 688 26.2298
132.1 678 26.0384
132.217 720 26.8328
132.335 698 26.4197
132.452 758 27.5318
132.57 806 28.3901
132.687 919 30.315
132.804 830 28.8097
132.922 885 29.7489
133.039 947 30.7734
133.157 937 30.6105
133.274 943 30.7083
133.392 985 31.3847
133.509 987 31.4166
133.627 1035 32.1714
133.744 982 31.3369
133.862 989 31.4484
133.979 918 30.2985
134.097 886 29.7658
134.214 867 29.4449
134.332 875 29.5804
134.449 823 28.688
134.567 867 29.4449
134.684 877 29.6142
134.802 943 30.7083
134.919 973 31.1929
135.037 964 31.0483
135.154 931 30.5123
135.272 914 30.2324
135.389 1008 31.749
135.507 967 31.0966
135.624 976 31.241
135.742 939 30.6431
135.859 1007 31.7333
135.977 974 31.209
136.094 958 30.9516
136.211 998 31.5911
136.329 1030 32.0936
136.446 1010 31.7805
136.564 992 31.496
136.681 1002 31.6544
136.798 1034 32.1559
136.915 1053 32.45
137.033 963 31.0322
137.15 1029 32.078
137.267 988 31.4325
137.384 1036 32.187
137.502 921 30.348
137.619 929 30.4795
137.736 989 31.4484
137.853 880 29.6648
137.97 886 29.7658
138.087 851 29.1719
138.204 885 29.7489
138.321 949 30.8058
138.438 919 30.315
138.555 990 31.4643
138.672 935 30.5778
138.788 919 30.315
138.905 954 30.8869
139.022 967 31.0966
139.139 879 29.6479
139.255 855 29.2404
139.372 780 27.9285
139.488 771 27.7669
139.605 736 27.1293
139.721 705 26.5518
139.838 663 25.7488
139.954 705 26.5518
140.071 610 24.6982
140.187 572 23.9165
140.303 519 22.7816
140.419 566 23.7908
140.535 468 21.6333
140.652 530 23.0217
140.768 0 1
140.884 0 1
141 0 1
141.115 0 1
141.231 0 1
141.347 0 1
141.463 0 1
141.578 0 1
141.694 0 1
144.104 0 1
144.219 0 1
144.335 0 1
144.45 0 1
144.566 0 1
144.682 0 1
144.798 0 1
144.914 0 1
145.03 0 1
145.146 1667 40.8289
145.262 2291 47.8644
145.378 2984 54.626
145.494 3540 59.4979
145.61 4150 64.4205
145.726 4776 69.1086
145.842 5316 72.9109
145.959 6001 77.4661
146.075 6703 81.8719
146.192 7577 87.046
146.308 7892 88.8369
146.425 8906 94.3716
146.541 9828 99.1363
146.658 10960 104.69
146.774 11959 109.357
146.891 13365 115.607
147.008 14661 121.083
147.125 16123 126.976
147.241 17518 132.356
147.358 18606 136.404
147.475 18850 137.295
147.592 19103 138.214
147.709 20268 142.366
147.826 22746 150.818
147.943 26350 162.327
148.06 29019 170.35
148.177 32061 179.056
148.294 34263 185.103
148.411 36320 190.578
148.528 37773 194.353
148.645 38859 197.127
148.762 40408 201.017
148.88 40867 202.156
148.997 42073 205.117
149.114 41551 203.841
149.231 42450 206.034
149.349 43035 207.449
149.466 42478 206.102
149.583 42505 206.167
149.701 41713 204.238
149.818 40255 200.636
149.935 38956 197.373
150.053 36742 191.682
150.17 35281 187.832
150.287 33445 182.88
150.405 31562 177.657
150.522 29547 171.892
150.64 27011 164.35
150.757 24716 157.213
150.875 21919 148.051
150.992 19040 137.986
151.11 15361 123.94
151.227 10663 103.262
151.344 7679 87.6299
151.462 6583 81.1357
151.579 6890 83.006
151.697 7331 85.6213
151.814 6321 79.5047
151.932 5241 72.3948
152.049 4149 64.4127
152.167 3377 58.112
152.284 2770 52.6308
152.402 2331 48.2804
152.519 1989 44.5982
152.636 1739 41.7013
152.754 1602 40.025
152.871 1489 38.5876
152.989 1375 37.081
153.106 1377 37.108
153.223 1377 37.108
153.341 1394 37.3363
153.458 1267 35.5949
153.575 1188 34.4674
153.693 1234 35.1283
153.81 1172 34.2345
153.927 1081 32.8786
154.044 1058 32.5269
154.162 1143 33.8083
154.279 1069 32.6956
154.396 1104 33.2265
154.513 1155 33.9853
154.63 1236 35.1568
154.747 1239 35.1994
154.864 1158 34.0294
154.981 1107 33.2716
155.098 1183 34.3948
155.215 1142 33.7935
155.332 1083 32.909
155.449 1019 31.9218
155.566 1189 34.4819
155.683 1214 34.8425
155.8 1364 36.9324
155.917 1426 37.7624
156.033 1479 38.4578
156.15 0 1
156.267 0 1
156.383 0 1
156.5 0 1
156.617 0 1
156.733 0 1
156.85 0 1
156.966 0 1
157.082 0 1
157.199 0 1
157.315 0 1
157.431 0 1
157.547 0 1
157.664 0 1
157.78 0 1
157.896 0 1
158.012 0 1
158.128 0 1
158.244 0 1
158.359 0 1
158.475 0 1
158.591 0 1
158.706 0 1
