
6.15755 0 1
6.2731 0 1
6.3887 0 1
6.50437 0 1
6.62009 0 1
6.73587 0 1
6.8517 0 1
6.96759 0 1
7.08353 0 1
7.19952 0 1
7.31557 0 1
7.43166 0 1
7.54781 0 1
7.664 0 1
7.78024 0 1
7.89653 0 1
8.01286 0 1
8.12924 0 1
8.24567 0 1
8.36213 0 1
8.47864 0 1
8.59519 0 1
8.71178 0 1
8.82841 0 1
8.94508 0 1
9.06179 0 1
9.17853 0 1
9.29531 0 1
9.41212 0 1
9.52897 0 1
9.64584 0 1
9.76276 0 1
9.8797 0 1
9.99667 0 1
10.1137 0 1
10.2307 0 1
10.3478 0 1
10.4648 0 1
10.5819 0 1
10.6991 0 1
10.8162 0 1
10.9334 0 1
11.0506 0 1
11.1678 0 1
11.285 0 1
11.4023 0 1
11.5196 0 1
11.6369 0 1
11.7542 0 1
11.8715 0 1
11.9888 0 1
12.1062 0 1
12.2235 0 1
12.3409 0 1
12.4582 0 1
12.5756 0 1
12.693 0 1
12.8104 0 1
12.9278 0 1
13.0452 0 1
13.1626 0 1
13.28 0 1
13.3974 0 1
13.5149 0 1
13.6323 0 1
13.7497 0 1
13.8671 0 1
13.9845 0 1
14.1019 0 1
14.2193 0 1
14.3367 0 1
14.4541 0 1
14.5714 0 1
14.6888 0 1
14.8062 0 1
14.9235 0 1
15.0408 0 0
15.1581 0 0
15.2755 0 0
15.3927 0 0
15.51 0 0
15.6273 0 0
15.7445 0 0
15.8617 0 0
15.9789 0 0
16.0961 0 0
16.2132 0 0
16.3304 0 0
16.4475 0 0
16.5646 0 0
16.6816 0 0
16.7986 0 0
16.9156 0 0
17.0326 0 0
17.1496 0 0
17.2665 0 0
17.3833 0 0
17.5002 0 0
17.617 0 0
17.7338 0 0
17.8505 0 0
17.9672 0 0
18.0839 0 0
18.2005 0 0
18.3171 0 0
18.4337 0 0
18.5502 0 0
18.6666 0 0
18.7831 0 0
18.8994 0 0
19.0158 0 0
19.1321 0 0
19.2483 0 0
19.3645 0 0
19.4806 0 0
19.5967 0 0
19.7128 0 0
19.8288 0 0
19.9447 0 0
20.0606 0 1
20.1764 0 1
20.2922 0 1
20.4079 0 1
20.5236 0 1
20.6392 0 1
20.7548 0 1
20.8702 0 1
23.3078 0 1
23.4233 0 1
23.539 0 1
23.6547 0 1
23.7704 0 1
23.8862 0 1
24.0021 0 1
24.118 0 1
24.234 0 1
24.35 0 1
24.4661 1554 39.4208
24.5822 1650 40.6202
24.6984 1506 38.8072
24.8146 1620 40.2492
24.9309 1599 39.9875
25.0472 1479 38.4578
25.1636 1419 37.6696
25.28 1354 36.7967
25.3965 1402 37.4433
25.513 1409 37.5366
25.6296 1561 39.5095
25.7462 1638 40.4722
25.8628 1678 40.9634
25.9795 1766 42.0238
26.0962 1694 41.1582
26.213 1704 41.2795
26.3298 1740 41.7133
26.4466 1676 40.939
26.5635 1673 40.9023
26.6804 1570 39.6232
26.7973 1583 39.7869
26.9143 1584 39.7995
27.0313 1647 40.5832
27.1483 1626 40.3237
27.2653 1599 39.9875
27.3824 1728 41.5692
27.4996 1750 41.833
27.6167 1724 41.5211
27.7339 1751 41.845
27.8511 1615 40.1871
27.9683 1607 40.0874
28.0855 1605 40.0625
28.2028 1594 39.9249
28.3201 1537 39.2046
28.4374 1609 40.1123
28.5547 1455 38.1445
28.6721 1367 36.973
28.7894 1339 36.5923
28.9068 1326 36.4143
29.0242 1361 36.8917
29.1416 1386 37.229
29.259 1489 38.5876
29.3764 1626 40.3237
29.4939 1579 39.7366
29.6113 1576 39.6989
29.7288 1568 39.598
29.8463 1637 40.4599
29.9638 1640 40.4969
30.0812 1557 39.4588
30.1987 1512 38.8844
30.3162 1536 39.1918
30.4337 1539 39.2301
30.5512 1591 39.8873
30.6687 1490 38.6005
30.7862 1709 41.3401
30.9037 1639 40.4846
31.0212 1717 41.4367
31.1387 1713 41.3884
31.2562 1564 39.5474
31.3737 1631 40.3856
31.4912 1616 40.1995
31.6087 1650 40.6202
31.7262 1569 39.6106
31.8436 1618 40.2244
31.9611 1651 40.6325
32.0785 1470 38.3406
32.1959 1432 37.8418
32.3134 1396 37.3631
32.4308 1363 36.9188
32.5482 1407 37.51
32.6655 1435 37.8814
32.7829 1586 39.8246
32.9002 1549 39.3573
33.0176 1718 41.4488
33.1349 1630 40.3733
33.2522 1724 41.5211
33.3694 1602 40.025
33.4867 1582 39.7744
33.6039 1511 38.8716
33.7211 1559 39.4842
33.8383 1525 39.0512
33.9554 1461 38.223
34.0725 1487 38.5616
34.1896 1495 38.6652
34.3067 1529 39.1024
34.4237 1641 40.5093
34.5407 1532 39.1408
34.6577 1667 40.8289
34.7746 1684 41.0366
34.8915 1610 40.1248
35.0084 1602 40.025
35.1252 1684 41.0366
35.242 1568 39.598
35.3587 1535 39.1791
35.4755 1590 39.8748
35.5921 1521 39
35.7088 1528 39.0896
35.8254 1386 37.229
35.9419 1394 37.3363
36.0584 1305 36.1248
36.1749 1393 37.3229
36.2913 1316 36.2767
36.4077 1359 36.8646
36.524 1486 38.5487
36.6403 1512 38.8844
36.7565 1575 39.6863
36.8727 1517 38.9487
36.9889 1597 39.9625
37.1049 1579 39.7366
37.221 0 1
37.3369 0 1
37.4529 0 1
37.5687 0 1
37.6845 0 1
37.8003 0 1
37.916 0 1
38.0316 0 1
38.1472 0 1
40.5851 0 1
40.7008 0 1
40.8164 0 1
40.9322 0 1
41.048 0 1
41.1639 0 1
41.2798 0 1
41.3958 0 1
41.5118 0 1
41.6279 0 1
41.744 1214 34.8425
41.8602 1325 36.4005
41.9765 1257 35.4542
42.0928 1306 36.1386
42.2091 1298 36.0278
42.3255 1342 36.6333
42.4419 1293 35.9583
42.5584 1212 34.8138
42.675 1137 33.7194
42.7915 1067 32.665
42.9081 1148 33.8821
43.0248 1173 34.2491
43.1415 1179 34.3366
43.2582 1238 35.1852
43.375 1302 36.0832
43.4918 1310 36.1939
43.6087 1259 35.4824
43.7256 1214 34.8425
43.8425 1256 35.4401
43.9595 1255 35.426
44.0765 1242 35.242
44.1935 1248 35.327
44.3106 1223 34.9714
44.4277 1203 34.6843
44.5448 1115 33.3916
44.6619 995 31.5436
44.7791 944 30.7246
44.8963 918 30.2985
45.0136 956 30.9192
45.1308 973 31.1929
45.2481 999 31.607
45.3654 1044 32.311
45.4827 996 31.5595
45.6001 1031 32.1092
45.7174 1058 32.5269
45.8348 995 31.5436
45.9522 1035 32.1714
46.0697 957 30.9354
46.1871 866 29.4279
46.3046 815 28.5482
46.422 829 28.7924
46.5395 836 28.9137
46.657 873 29.5466
46.7745 885 29.7489
46.892 910 30.1662
47.0096 950 30.8221
47.1271 962 31.0161
47.2446 924 30.3974
47.3622 955 30.9031
47.4797 984 31.3688
47.5973 925 30.4138
47.7149 915 30.249
47.8324 937 30.6105
47.95 932 30.5287
48.0675 864 29.3939
48.1851 774 27.8209
48.3027 767 27.6948
48.4202 742 27.2397
48.5378 744 27.2764
48.6554 778 27.8927
48.7729 863 29.3769
48.8904 927 30.4467
49.008 843 29.0345
49.1255 846 29.0861
49.243 835 28.8964
49.3605 907 30.1164
49.478 819 28.6182
49.5955 762 27.6043
49.713 691 26.2869
49.8304 680 26.0768
49.9479 685 26.1725
50.0653 746 27.313
50.1827 820 28.6356
50.3001 848 29.1204
50.4175 948 30.7896
50.5348 935 30.5778
50.6521 917 30.282
50.7694 946 30.7571
50.8867 975 31.225
51.004 1005 31.7017
51.1212 1042 32.28
51.2384 1052 32.4345
51.3556 1026 32.0312
51.4727 964 31.0483
51.5899 970 31.1448
51.707 903 30.05
51.824 906 30.0998
51.9411 950 30.8221
52.0581 987 31.4166
52.175 1048 32.3728
52.2919 1166 34.1467
52.4088 1148 33.8821
52.5257 1074 32.7719
52.6425 1218 34.8999
52.7593 1140 33.7639
52.876 1116 33.4066
52.9927 1109 33.3017
53.1094 1079 32.8481
53.226 962 31.0161
53.3426 982 31.3369
53.4591 961 31
53.5756 1001 31.6386
53.692 1095 33.0908
53.8084 1162 34.0881
53.9248 1242 35.242
54.0411 1298 36.0278
54.1573 1284 35.8329
54.2735 0 1
54.3896 0 1
54.5057 0 1
54.6217 0 1
54.7377 0 1
54.8537 0 1
54.9695 0 1
55.0853 0 1
55.2011 0 1
55.3168 0 1
55.4324 0 1
57.824 0 1
57.9396 0 1
58.0553 0 1
58.1711 0 1
58.2869 0 1
58.4028 0 1
58.5187 0 1
58.6347 0 1
58.7508 0 1
58.8669 0 1
58.983 1272 35.6651
59.0992 1451 38.092
59.2155 1428 37.7889
59.3318 1468 38.3145
59.4482 1537 39.2046
59.5646 1666 40.8167
59.681 1605 40.0625
59.7975 1542 39.2683
59.9141 1492 38.6264
60.0306 1445 38.0132
60.1473 1383 37.1887
60.2639 1336 36.5513
60.3807 1254 35.4119
60.4974 1233 35.1141
60.6142 1265 35.5668
60.731 1281 35.7911
60.8479 1338 36.5787
60.9648 1360 36.8782
61.0818 1395 37.3497
61.1987 1383 37.1887
61.3158 1399 37.4032
61.4328 1276 35.7211
61.5499 1330 36.4692
61.667 1219 34.9142
61.7841 1206 34.7275
61.9013 1112 33.3467
62.0185 1087 32.9697
62.1357 1203 34.6843
62.253 1312 36.2215
62.3702 1259 35.4824
62.4875 1447 38.0395
62.6049 1474 38.3927
62.7222 1540 39.2428
62.8396 1653 40.6571
62.9569 1576 39.6989
63.0743 1572 39.6485
63.1918 1627 40.3361
63.3092 1598 39.975
63.4267 1555 39.4335
63.5441 1508 38.833
63.6616 1454 38.1314
63.7791 1343 36.647
63.8966 1400 37.4166
64.0142 1374 37.0675
64.1317 1446 38.0263
64.2492 1455 38.1445
64.3668 1493 38.6394
64.4843 1502 38.7556
64.6019 1531 39.128
64.7195 1553 39.4081
64.837 1594 39.9249
64.9546 1541 39.2556
65.0722 1444 38
65.1898 1355 36.8103
65.3074 1286 35.8608
65.4249 1158 34.0294
65.5425 1090 33.0151
65.6601 1149 33.8969
65.7777 1223 34.9714
65.8952 1414 37.6032
66.0128 1465 38.2753
66.1304 1521 39
66.2479 1533 39.1535
66.3655 1672 40.8901
66.483 1718 41.4488
66.6005 1586 39.8246
66.718 1631 40.3856
66.8355 1602 40.025
66.953 1617 40.2119
67.0705 1589 39.8623
67.1879 1482 38.4968
67.3054 1411 37.5633
67.4228 1357 36.8375
67.5402 1268 35.609
67.6576 1271 35.6511
67.7749 1273 35.6791
67.8923 1313 36.2353
68.0096 1364 36.9324
68.1269 1354 36.7967
68.2442 1332 36.4966
68.3614 1327 36.428
68.4787 1402 37.4433
68.5958 1270 35.6371
68.713 1219 34.9142
68.8302 1160 34.0588
68.9473 1051 32.4191
69.0643 942 30.692
69.1814 879 29.6479
69.2984 976 31.241
69.4154 1076 32.8024
69.5323 1212 34.8138
69.6492 1284 35.8329
69.7661 1376 37.0945
69.8829 1399 37.4032
69.9997 1398 37.3898
70.1165 1398 37.3898
70.2332 1475 38.4057
70.3499 1459 38.1969
70.4665 1469 38.3275
70.5831 1416 37.6298
70.6996 1380 37.1484
70.8161 1286 35.8608
70.9326 1213 34.8281
71.049 1133 33.6601
71.1653 1110 33.3167
71.2817 1174 34.2637
71.3979 1134 33.6749
71.5141 1139 33.7491
71.6303 1123 33.5112
71.7464 1050 32.4037
71.8624 0 1
71.9784 0 1
72.0944 0 1
72.2102 0 1
72.3261 0 1
72.4418 0 1
72.5575 0 1
72.6732 0 1
75.1054 0 1
75.2209 0 1
75.3365 0 1
75.4521 0 1
75.5678 0 1
75.6835 0 1
75.7993 0 1
75.9151 0 1
76.031 0 1
76.147 1177 34.3074
76.263 1176 34.2929
76.3791 1175 34.2783
76.4952 1111 33.3317
76.6113 1136 33.7046
76.7276 1212 34.8138
76.8438 1201 34.6554
76.9601 1200 34.641
77.0765 1236 35.1568
77.1929 1281 35.7911
77.3093 1244 35.2704
77.4258 1255 35.426
77.5423 1303 36.0971
77.6589 1197 34.5977
77.7755 1062 32.5883
77.8921 1024 32
78.0088 875 29.5804
78.1256 857 29.2746
78.2423 827 28.7576
78.3591 930 30.4959
78.4759 1035 32.1714
78.5928 1153 33.9559
78.7097 1162 34.0881
78.8266 1230 35.0714
78.9436 1419 37.6696
79.0606 1376 37.0945
79.1776 1449 38.0657
79.2946 1367 36.973
79.4117 1382 37.1753
79.5288 1410 37.55
79.6459 1291 35.9305
79.7631 1180 34.3511
79.8802 1127 33.5708
79.9974 1179 34.3366
80.1147 1089 33
80.2319 1088 32.9848
80.3491 1129 33.6006
80.4664 1170 34.2053
80.5837 1169 34.1906
80.701 1104 33.2265
80.8183 1087 32.9697
80.9357 1098 33.1361
81.053 1124 33.5261
81.1704 1122 33.4963
81.2877 1120 33.4664
81.4051 1006 31.7175
81.5225 863 29.3769
81.6399 737 27.1477
81.7573 750 27.3861
81.8747 694 26.3439
81.9922 819 28.6182
82.1096 889 29.8161
82.227 1052 32.4345
82.3444 1086 32.9545
82.4619 1161 34.0735
82.5793 1295 35.9861
82.6967 1160 34.0588
82.8142 1207 34.7419
82.9316 1212 34.8138
83.049 1193 34.5398
83.1664 1144 33.8231
83.2838 1103 33.2114
83.4012 1107 33.2716
83.5186 1066 32.6497
83.636 974 31.209
83.7534 1030 32.0936
83.8708 983 31.3528
83.9881 1040 32.249
84.1055 1045 32.3265
84.2228 1000 31.6228
84.3401 1048 32.3728
84.4575 1056 32.4962
84.5747 1089 33
84.692 1097 33.121
84.8093 1074 32.7719
84.9265 995 31.5436
85.0437 869 29.4788
85.1609 762 27.6043
85.2781 701 26.4764
85.3952 671 25.9037
85.5123 649 25.4755
85.6294 827 28.7576
85.7465 1031 32.1092
85.8636 1117 33.4215
85.9806 1155 33.9853
86.0976 1215 34.8569
86.2145 1302 36.0832
86.3315 1360 36.8782
86.4484 1285 35.8469
86.5652 1365 36.9459
86.682 1273 35.6791
86.7988 1266 35.5809
86.9156 1203 34.6843
87.0323 1140 33.7639
87.149 1174 34.2637
87.2657 1116 33.4066
87.3823 1087 32.9697
87.4988 1181 34.3657
87.6154 1211 34.7994
87.7318 1204 34.6987
87.8483 1233 35.1141
87.9647 1222 34.9571
88.081 1234 35.1283
88.1973 1310 36.1939
88.3136 1228 35.0428
88.4298 1227 35.0286
88.546 1003 31.6702
88.6621 836 28.9137
88.7781 815 28.5482
88.8942 0 1
89.0101 0 1
89.126 0 1
89.2419 0 1
89.3577 0 1
89.4734 0 1
89.5891 0 1
89.7047 0 1
89.8203 0 1
89.9358 0 1
92.3269 0 1
92.4424 0 1
92.558 0 1
92.6736 0 1
92.7893 0 1
92.905 0 1
93.0208 0 1
93.1366 0 1
93.2525 0 1
93.3685 0 1
93.4845 0 1
93.6005 1222 34.9571
93.7167 1267 35.5949
93.8328 1273 35.6791
93.949 1164 34.1174
94.0653 945 30.7409
94.1816 929 30.4795
94.2979 790 28.1069
94.4143 826 28.7402
94.5307 811 28.4781
94.6472 937 30.6105
94.7637 1059 32.5423
94.8803 1260 35.4965
94.9969 1309 36.1801
95.1135 1322 36.3593
95.2302 1439 37.9342
95.3469 1410 37.55
95.4637 1478 38.4448
95.5805 1490 38.6005
95.6973 1452 38.1051
95.8142 1513 38.8973
95.9311 1357 36.8375
96.048 1329 36.4555
96.1649 1331 36.4829
96.2819 1372 37.0405
96.3989 1286 35.8608
96.516 1346 36.6879
96.633 1346 36.6879
96.7501 1379 37.1349
96.8673 1357 36.8375
96.9844 1365 36.9459
97.1016 1394 37.3363
97.2188 1307 36.1525
97.336 1347 36.7015
97.4532 1332 36.4966
97.5704 1280 35.7771
97.6877 1096 33.1059
97.805 980 31.305
97.9223 843 29.0345
98.0396 753 27.4408
98.1569 760 27.5681
98.2743 847 29.1033
98.3916 950 30.8221
98.509 1105 33.2415
98.6264 1288 35.8887
98.7438 1360 36.8782
98.8612 1435 37.8814
98.9786 1429 37.8021
99.096 1483 38.5097
99.2134 1506 38.8072
99.3308 1539 39.2301
99.4482 1599 39.9875
99.5656 1510 38.8587
99.6831 1448 38.0526
99.8005 1377 37.108
99.9179 1396 37.3631
100.035 1408 37.5233
100.153 1344 36.6606
100.27 1283 35.819
100.388 1400 37.4166
100.505 1394 37.3363
100.622 1316 36.2767
100.74 1344 36.6606
100.857 1346 36.6879
100.975 1430 37.8153
101.092 1394 37.3363
101.209 1268 35.609
101.327 1069 32.6956
101.444 968 31.1127
101.561 794 28.178
101.679 778 27.8927
101.796 826 28.7402
101.913 1027 32.0468
102.03 1263 35.5387
102.148 1366 36.9594
102.265 1471 38.3536
102.382 1493 38.6394
102.499 1559 39.4842
102.616 1558 39.4715
102.733 1636 40.4475
102.851 1539 39.2301
102.968 1537 39.2046
103.085 1582 39.7744
103.202 1534 39.1663
103.319 1565 39.5601
103.436 1516 38.9358
103.552 1440 37.9473
103.669 1496 38.6782
103.786 1466 38.2884
103.903 1473 38.3797
104.02 1487 38.5616
104.137 1499 38.7169
104.253 1406 37.4967
104.37 1487 38.5616
104.487 1503 38.7685
104.603 1501 38.7427
104.72 1335 36.5377
104.836 1142 33.7935
104.953 1019 31.9218
105.069 866 29.4279
105.186 861 29.3428
105.302 966 31.0805
105.418 1099 33.1512
105.535 1372 37.0405
105.651 1468 38.3145
105.767 1607 40.0874
105.883 1659 40.7308
105.999 1725 41.5331
106.115 0 1
106.231 0 1
106.347 0 1
106.463 0 1
106.579 0 1
106.694 0 1
106.81 0 1
106.926 0 1
107.041 0 1
107.157 0 1
109.576 0 1
109.692 0 1
109.807 0 1
109.923 0 1
110.039 0 1
110.155 0 1
110.27 0 1
110.386 0 1
110.502 0 1
110.618 1286 35.8608
110.735 1390 37.2827
110.851 1648 40.5956
110.967 1575 39.6863
111.083 1755 41.8927
111.199 1646 40.5709
111.316 1636 40.4475
111.432 1649 40.6079
111.549 1695 41.1704
111.665 1630 40.3733
111.782 1547 39.3319
111.898 1520 38.9872
112.015 1533 39.1535
112.132 1458 38.1838
112.248 1462 38.2361
112.365 1516 38.9358
112.482 1459 38.1969
112.599 1455 38.1445
112.716 1372 37.0405
112.832 1427 37.7757
112.949 1404 37.47
113.066 1423 37.7227
113.183 1380 37.1484
113.3 1253 35.3977
113.417 1085 32.9393
113.534 962 31.0161
113.652 859 29.3087
113.769 826 28.7402
113.886 814 28.5307
114.003 1009 31.7648
114.12 1208 34.7563
114.238 1383 37.1887
114.355 1402 37.4433
114.472 1429 37.8021
114.589 1560 39.4968
114.707 1474 38.3927
114.824 1487 38.5616
114.942 1530 39.1152
115.059 1546 39.3192
115.176 1501 38.7427
115.294 1522 39.0128
115.411 1464 38.2623
115.529 1468 38.3145
115.646 1417 37.6431
115.764 1416 37.6298
115.881 1472 38.3667
115.999 1374 37.0675
116.116 1376 37.0945
116.234 1341 36.6197
116.351 1394 37.3363
116.469 1321 36.3456
116.586 1406 37.4967
116.704 1419 37.6696
116.821 1280 35.7771
116.939 1064 32.619
117.056 983 31.3528
117.174 914 30.2324
117.291 869 29.4788
117.409 854 29.2233
117.526 952 30.8545
117.644 1185 34.4238
117.761 1289 35.9026
117.879 1366 36.9594
117.996 1396 37.3631
118.114 1508 38.833
118.231 1534 39.1663
118.349 1532 39.1408
118.466 1550 39.37
118.584 1542 39.2683
118.701 1619 40.2368
118.819 1508 38.833
118.936 1455 38.1445
119.053 1485 38.5357
119.171 1496 38.6782
119.288 1407 37.51
119.405 1419 37.6696
119.523 1434 37.8682
119.64 1405 37.4833
119.757 1387 37.2424
119.875 1385 37.2156
119.992 1293 35.9583
120.109 1310 36.1939
120.226 1339 36.5923
120.343 1364 36.9324
120.46 1230 35.0714
120.578 1121 33.4813
120.695 1005 31.7017
120.812 933 30.545
120.929 884 29.7321
121.046 874 29.5635
121.163 904 30.0666
121.279 972 31.1769
121.396 1209 34.7707
121.513 1261 35.5106
121.63 1385 37.2156
121.747 1434 37.8682
121.863 1471 38.3536
121.98 1401 37.4299
122.097 1445 38.0132
122.213 1469 38.3275
122.33 1390 37.2827
122.446 1428 37.7889
122.563 1494 38.6523
122.679 1405 37.4833
122.795 1415 37.6165
122.912 1412 37.5766
123.028 1344 36.6606
123.144 1319 36.318
123.26 1353 36.7831
123.377 0 1
123.493 0 1
123.609 0 1
123.725 0 1
123.84 0 1
123.956 0 1
124.072 0 1
124.188 0 1
124.303 0 1
124.419 0 1
126.852 0 1
126.968 0 1
127.083 0 1
127.199 0 1
127.315 0 1
127.431 0 1
127.547 0 1
127.663 0 1
127.779 0 1
127.895 0 1
128.011 0 1
128.127 0 1
128.243 0 1
128.359 1495 38.6652
128.476 1438 37.921
128.592 1567 39.5854
128.708 1512 38.8844
128.825 1493 38.6394
128.941 1524 39.0384
129.058 1580 39.7492
129.174 1518 38.9615
129.291 1497 38.6911
129.408 1384 37.2022
129.524 1260 35.4965
129.641 1113 33.3617
129.758 1115 33.3916
129.875 997 31.5753
129.992 971 31.1609
130.108 1067 32.665
130.225 1088 32.9848
130.342 1333 36.5103
130.459 1318 36.3043
130.576 1454 38.1314
130.693 1475 38.4057
130.81 1479 38.4578
130.928 1464 38.2623
131.045 1560 39.4968
131.162 1643 40.5339
131.279 1534 39.1663
131.396 1547 39.3319
131.513 1515 38.923
131.631 1558 39.4715
131.748 1577 39.7115
131.865 1543 39.281
131.983 1528 39.0896
132.1 1492 38.6264
132.217 1568 39.598
132.335 1551 39.3827
132.452 1463 38.2492
132.57 1417 37.6431
132.687 1450 38.0789
132.804 1478 38.4448
132.922 1429 37.8021
133.039 1321 36.3456
133.157 1174 34.2637
133.274 1094 33.0757
133.392 1077 32.8177
133.509 958 30.9516
133.627 956 30.9192
133.744 1002 31.6544
133.862 1080 32.8634
133.979 1264 35.5528
134.097 1389 37.2693
134.214 1343 36.647
134.332 1426 37.7624
134.449 1431 37.8286
134.567 1509 38.8458
134.684 1592 39.8999
134.802 1553 39.4081
134.919 1522 39.0128
135.037 1567 39.5854
135.154 1544 39.2938
135.272 1539 39.2301
135.389 1490 38.6005
135.507 1587 39.8372
135.624 1476 38.4187
135.742 1498 38.704
135.859 1489 38.5876
135.977 1479 38.4578
136.094 1515 38.923
136.211 1462 38.2361
136.329 1414 37.6032
136.446 1487 38.5616
136.564 1388 37.2559
136.681 1269 35.623
136.798 1178 34.322
136.915 1067 32.665
137.033 1039 32.2335
137.15 974 31.209
137.267 930 30.4959
137.384 1068 32.6803
137.502 1166 34.1467
137.619 1226 35.0143
137.736 1298 36.0278
137.853 1327 36.428
137.97 1420 37.6829
138.087 1467 38.3014
138.204 1572 39.6485
138.321 1576 39.6989
138.438 1567 39.5854
138.555 1593 39.9124
138.672 1633 40.4104
138.788 1633 40.4104
138.905 1628 40.3485
139.022 1635 40.4351
139.139 1610 40.1248
139.255 1618 40.2244
139.372 1579 39.7366
139.488 1607 40.0874
139.605 1630 40.3733
139.721 1603 40.0375
139.838 1545 39.3065
139.954 1612 40.1497
140.071 1516 38.9358
140.187 1488 38.5746
140.303 1402 37.4433
140.419 1290 35.9166
140.535 1233 35.1141
140.652 1082 32.8938
140.768 0 1
140.884 0 1
141 0 1
141.115 0 1
141.231 0 1
141.347 0 1
141.463 0 1
141.578 0 1
141.694 0 1
144.104 0 1
144.219 0 1
144.335 0 1
144.45 0 1
144.566 0 1
144.682 0 1
144.798 0 1
144.914 0 1
145.03 0 1
145.146 1000 31.6228
145.262 1144 33.8231
145.378 1055 32.4808
145.494 966 31.0805
145.61 923 30.3809
145.726 912 30.1993
145.842 854 29.2233
145.959 819 28.6182
146.075 757 27.5136
146.192 735 27.1109
146.308 835 28.8964
146.425 882 29.6985
146.541 901 30.0167
146.658 991 31.4802
146.774 1105 33.2415
146.891 1155 33.9853
147.008 1137 33.7194
147.125 1188 34.4674
147.241 1227 35.0286
147.358 1250 35.3553
147.475 1212 34.8138
147.592 1239 35.1994
147.709 1239 35.1994
147.826 1196 34.5832
147.943 1187 34.4529
148.06 1188 34.4674
148.177 1231 35.0856
148.294 1178 34.322
148.411 1157 34.0147
148.528 1177 34.3074
148.645 1194 34.5543
148.762 1193 34.5398
148.88 1127 33.5708
148.997 1123 33.5112
149.114 1183 34.3948
149.231 1123 33.5112
149.349 998 31.5911
149.466 990 31.4643
149.583 973 31.1929
149.701 850 29.1548
149.818 766 27.6767
149.935 787 28.0535
150.053 807 28.4077
150.17 830 28.8097
150.287 919 30.315
150.405 978 31.273
150.522 1072 32.7414
150.64 1122 33.4963
150.757 1189 34.4819
150.875 1206 34.7275
150.992 1166 34.1467
151.11 1279 35.7631
151.227 1309 36.1801
151.344 1272 35.6651
151.462 1226 35.0143
151.579 1175 34.2783
151.697 1278 35.7491
151.814 1227 35.0286
151.932 1178 34.322
152.049 1249 35.3412
152.167 1169 34.1906
152.284 1151 33.9264
152.402 1260 35.4965
152.519 1217 34.8855
152.636 1160 34.0588
152.754 1211 34.7994
152.871 1117 33.4215
152.989 1066 32.6497
153.106 930 30.4959
153.223 934 30.5614
153.341 870 29.4958
153.458 785 28.0179
153.575 847 29.1033
153.693 829 28.7924
153.81 944 30.7246
153.927 946 30.7571
154.044 1152 33.9411
154.162 1237 35.171
154.279 1285 35.8469
154.396 1261 35.5106
154.513 1266 35.5809
154.63 1322 36.3593
154.747 1426 37.7624
154.864 1382 37.1753
154.981 1348 36.7151
155.098 1367 36.973
155.215 1347 36.7015
155.332 1360 36.8782
155.449 1339 36.5923
155.566 1403 37.4566
155.683 1308 36.1663
155.8 1300 36.0555
155.917 1428 37.7889
156.033 1385 37.2156
156.15 0 1
156.267 0 1
156.383 0 1
156.5 0 1
156.617 0 1
156.733 0 1
156.85 0 1
156.966 0 1
157.082 0 1
157.199 0 1
157.315 0 1
157.431 0 1
157.547 0 1
157.664 0 1
157.78 0 1
157.896 0 1
158.012 0 1
158.128 0 1
158.244 0 1
158.359 0 1
158.475 0 1
158.591 0 1
158.706 0 1
