
6.15755 0 1
6.2731 0 1
6.3887 0 1
6.50437 0 1
6.62009 0 1
6.73587 0 1
6.8517 0 1
6.96759 0 1
7.08353 0 1
7.19952 0 1
7.31557 0 1
7.43166 0 1
7.54781 0 1
7.664 0 1
7.78024 0 1
7.89653 0 1
8.01286 0 1
8.12924 0 1
8.24567 0 1
8.36213 0 1
8.47864 0 1
8.59519 0 1
8.71178 0 1
8.82841 0 1
8.94508 0 1
9.06179 0 1
9.17853 0 1
9.29531 0 1
9.41212 0 1
9.52897 0 1
9.64584 0 1
9.76276 0 1
9.8797 0 1
9.99667 0 1
10.1137 0 1
10.2307 0 1
10.3478 0 1
10.4648 0 1
10.5819 0 1
10.6991 0 1
10.8162 0 1
10.9334 0 1
11.0506 0 1
11.1678 0 1
11.285 0 1
11.4023 0 1
11.5196 0 1
11.6369 0 1
11.7542 0 1
11.8715 0 1
11.9888 0 1
12.1062 0 1
12.2235 0 1
12.3409 0 1
12.4582 0 1
12.5756 0 1
12.693 0 1
12.8104 0 1
12.9278 0 1
13.0452 0 1
13.1626 0 1
13.28 0 1
13.3974 0 1
13.5149 0 1
13.6323 0 1
13.7497 0 1
13.8671 0 1
13.9845 0 1
14.1019 0 1
14.2193 0 1
14.3367 0 1
14.4541 0 1
14.5714 0 1
14.6888 0 1
14.8062 0 1
14.9235 0 1
15.0408 0 0
15.1581 0 0
15.2755 0 0
15.3927 0 0
15.51 0 0
15.6273 0 0
15.7445 0 0
15.8617 0 0
15.9789 0 0
16.0961 0 0
16.2132 0 0
16.3304 0 0
16.4475 0 0
16.5646 0 0
16.6816 0 0
16.7986 0 0
16.9156 0 0
17.0326 0 0
17.1496 0 0
17.2665 0 0
17.3833 0 0
17.5002 0 0
17.617 0 0
17.7338 0 0
17.8505 0 0
17.9672 0 0
18.0839 0 0
18.2005 0 0
18.3171 0 0
18.4337 0 0
18.5502 0 0
18.6666 0 0
18.7831 0 0
18.8994 0 0
19.0158 0 0
19.1321 0 0
19.2483 0 0
19.3645 0 0
19.4806 0 0
19.5967 0 0
19.7128 0 0
19.8288 0 0
19.9447 0 0
20.0606 0 1
20.1764 0 1
20.2922 0 1
20.4079 0 1
20.5236 0 1
20.6392 0 1
20.7548 0 1
20.8702 0 1
23.3078 0 1
23.4233 0 1
23.539 0 1
23.6547 0 1
23.7704 0 1
23.8862 0 1
24.0021 0 1
24.118 0 1
24.234 0 1
24.35 0 1
24.4661 5611 74.9066
24.5822 5530 74.364
24.6984 5653 75.1864
24.8146 5706 75.5381
24.9309 5910 76.8765
25.0472 6032 77.666
25.1636 6144 78.3837
25.28 6190 78.6766
25.3965 6180 78.613
25.513 6410 80.0625
25.6296 6509 80.6784
25.7462 6593 81.1973
25.8628 6539 80.8641
25.9795 6523 80.7651
26.0962 6252 79.0696
26.213 6416 80.0999
26.3298 6351 79.6932
26.4466 6405 80.0312
26.5635 6295 79.341
26.6804 6237 78.9747
26.7973 6075 77.9423
26.9143 6134 78.3199
27.0313 5808 76.2102
27.1483 5843 76.4395
27.2653 5937 77.0519
27.3824 5968 77.2528
27.4996 5981 77.3369
27.6167 5965 77.2334
27.7339 5623 74.9867
27.8511 5513 74.2496
27.9683 5516 74.2698
28.0855 5409 73.5459
28.2028 5533 74.3841
28.3201 5371 73.2871
28.4374 5713 75.5844
28.5547 5884 76.7072
28.6721 5814 76.2496
28.7894 5926 76.9805
28.9068 5924 76.9675
29.0242 5904 76.8375
29.1416 5989 77.3886
29.259 6073 77.9295
29.3764 6048 77.7689
29.4939 5931 77.013
29.6113 6039 77.711
29.7288 6178 78.6003
29.8463 6080 77.9744
29.9638 5987 77.3757
30.0812 6029 77.6466
30.1987 6067 77.8909
30.3162 5951 77.1427
30.4337 5889 76.7398
30.5512 5733 75.7166
30.6687 5559 74.5587
30.7862 5714 75.591
30.9037 5669 75.2928
31.0212 5867 76.5963
31.1387 5807 76.2037
31.2562 5727 75.6769
31.3737 5386 73.3894
31.4912 5479 74.0203
31.6087 5358 73.1984
31.7262 5300 72.8011
31.8436 5454 73.8512
31.9611 5591 74.773
32.0785 5815 76.2561
32.1959 5718 75.6175
32.3134 5777 76.0066
32.4308 5643 75.1199
32.5482 5651 75.1731
32.6655 5732 75.71
32.7829 5834 76.3806
32.9002 5891 76.7529
33.0176 5921 76.948
33.1349 6045 77.7496
33.2522 5876 76.6551
33.3694 6004 77.4855
33.4867 5976 77.3046
33.6039 5873 76.6355
33.7211 5944 77.0973
33.8383 6036 77.6917
33.9554 5950 77.1362
34.0725 5817 76.2693
34.1896 5617 74.9466
34.3067 5635 75.0666
34.4237 5626 75.0067
34.5407 5566 74.6056
34.6577 5619 74.96
34.7746 5586 74.7395
34.8915 5546 74.4715
35.0084 5301 72.808
35.1252 5243 72.4086
35.242 5273 72.6154
35.3587 5362 73.2257
35.4755 5409 73.5459
35.5921 5591 74.773
35.7088 5772 75.9737
35.8254 5813 76.243
35.9419 5654 75.1931
36.0584 5794 76.1183
36.1749 5828 76.3413
36.2913 5541 74.4379
36.4077 5814 76.2496
36.524 5585 74.7329
36.6403 5728 75.6836
36.7565 5900 76.8115
36.8727 5828 76.3413
36.9889 5842 76.433
37.1049 5763 75.9144
37.221 0 1
37.3369 0 1
37.4529 0 1
37.5687 0 1
37.6845 0 1
37.8003 0 1
37.916 0 1
38.0316 0 1
38.1472 0 1
40.5851 0 1
40.7008 0 1
40.8164 0 1
40.9322 0 1
41.048 0 1
41.1639 0 1
41.2798 0 1
41.3958 0 1
41.5118 0 1
41.6279 0 1
41.744 4576 67.6461
41.8602 4621 67.9779
41.9765 4778 69.1231
42.0928 4847 69.6204
42.2091 5003 70.7319
42.3255 4858 69.6994
42.4419 5016 70.8237
42.5584 5112 71.4983
42.675 5230 72.3187
42.7915 5128 71.6101
42.9081 4965 70.4628
43.0248 4945 70.3207
43.1415 4776 69.1086
43.2582 4686 68.4544
43.375 4663 68.2862
43.4918 4756 68.9638
43.6087 4742 68.8622
43.7256 4532 67.3201
43.8425 4514 67.1863
43.9595 4444 66.6633
44.0765 4461 66.7907
44.1935 4447 66.6858
44.3106 4504 67.1118
44.4277 4697 68.5347
44.5448 4627 68.0221
44.6619 4530 67.3053
44.7791 4510 67.1565
44.8963 4303 65.5973
45.0136 4138 64.3273
45.1308 4290 65.4981
45.2481 4252 65.2074
45.3654 4056 63.6867
45.4827 4252 65.2074
45.6001 4178 64.6375
45.7174 4325 65.7647
45.8348 4276 65.3911
45.9522 4281 65.4294
46.0697 4403 66.3551
46.1871 4228 65.0231
46.3046 4293 65.521
46.422 4304 65.6049
46.5395 4319 65.7191
46.657 4137 64.3195
46.7745 3934 62.7216
46.892 3973 63.0317
47.0096 3873 62.2334
47.1271 4052 63.6553
47.2446 3978 63.0714
47.3622 3911 62.538
47.4797 3650 60.4152
47.5973 3570 59.7495
47.7149 3680 60.663
47.8324 3653 60.4401
47.95 3768 61.384
48.0675 3748 61.2209
48.1851 3587 59.8916
48.3027 3522 59.3464
48.4202 3519 59.3212
48.5378 3472 58.9237
48.6554 3414 58.4294
48.7729 3235 56.8771
48.8904 3410 58.3952
49.008 3472 58.9237
49.1255 3464 58.8558
49.243 3544 59.5315
49.3605 3718 60.9754
49.478 3843 61.9919
49.5955 3733 61.0983
49.713 3989 63.1585
49.8304 3855 62.0886
49.9479 4033 63.5059
50.0653 3979 63.0793
50.1827 4099 64.0234
50.3001 3919 62.6019
50.4175 3957 62.9047
50.5348 3766 61.3677
50.6521 4177 64.6297
50.7694 4100 64.0312
50.8867 4221 64.9692
51.004 4245 65.1537
51.1212 4319 65.7191
51.2384 4510 67.1565
51.3556 4750 68.9202
51.4727 4851 69.6491
51.5899 4919 70.1356
51.707 4919 70.1356
51.824 4773 69.0869
51.9411 4778 69.1231
52.0581 4666 68.3081
52.175 4610 67.897
52.2919 4596 67.7938
52.4088 4757 68.971
52.5257 4811 69.3614
52.6425 4900 70
52.7593 4987 70.6187
52.876 5168 71.8888
52.9927 5183 71.9931
53.1094 5360 73.212
53.226 5597 74.8131
53.3426 5552 74.5117
53.4591 5766 75.9342
53.5756 5817 76.2693
53.692 5679 75.3591
53.8084 5676 75.3392
53.9248 5833 76.3741
54.0411 5591 74.773
54.1573 5504 74.1889
54.2735 0 1
54.3896 0 1
54.5057 0 1
54.6217 0 1
54.7377 0 1
54.8537 0 1
54.9695 0 1
55.0853 0 1
55.2011 0 1
55.3168 0 1
55.4324 0 1
57.824 0 1
57.9396 0 1
58.0553 0 1
58.1711 0 1
58.2869 0 1
58.4028 0 1
58.5187 0 1
58.6347 0 1
58.7508 0 1
58.8669 0 1
58.983 6849 82.7587
59.0992 6856 82.801
59.2155 6723 81.9939
59.3318 6587 81.1603
59.4482 6595 81.2096
59.5646 6554 80.9568
59.681 6716 81.9512
59.7975 6669 81.6639
59.9141 6606 81.2773
60.0306 6938 83.2947
60.1473 6770 82.28
60.2639 6623 81.3818
60.3807 6237 78.9747
60.4974 6304 79.3977
60.6142 6194 78.702
60.731 6069 77.9038
60.8479 6102 78.1153
60.9648 5994 77.4209
61.0818 5870 76.6159
61.1987 6041 77.7239
61.3158 6067 77.8909
61.4328 6045 77.7496
61.5499 6043 77.7367
61.667 6138 78.3454
61.7841 6193 78.6956
61.9013 6354 79.712
62.0185 6383 79.8937
62.1357 6343 79.643
62.253 6401 80.0062
62.3702 6487 80.5419
62.4875 6422 80.1374
62.6049 6332 79.5739
62.7222 6312 79.4481
62.8396 6202 78.7528
62.9569 6124 78.256
63.0743 5989 77.3886
63.1918 6155 78.4538
63.3092 6278 79.2338
63.4267 6352 79.6994
63.5441 6256 79.0949
63.6616 6179 78.6066
63.7791 5854 76.5114
63.8966 5927 76.987
64.0142 5730 75.6968
64.1317 5777 76.0066
64.2492 5466 73.9324
64.3668 5301 72.808
64.4843 5263 72.5465
64.6019 5570 74.6324
64.7195 5614 74.9266
64.837 5653 75.1864
64.9546 5619 74.96
65.0722 5499 74.1552
65.1898 5501 74.1687
65.3074 5692 75.4453
65.4249 5574 74.6592
65.5425 5752 75.8419
65.6601 5813 76.243
65.7777 5916 76.9155
65.8952 5958 77.1881
66.0128 5896 76.7854
66.1304 6074 77.9359
66.2479 6035 77.6853
66.3655 5772 75.9737
66.483 5698 75.4851
66.6005 5564 74.5922
66.718 5509 74.2226
66.8355 5720 75.6307
66.953 6036 77.6917
67.0705 5926 76.9805
67.1879 5819 76.2824
67.3054 5573 74.6525
67.4228 5361 73.2189
67.5402 5377 73.328
67.6576 5279 72.6567
67.7749 5268 72.581
67.8923 5237 72.3671
68.0096 5129 71.617
68.1269 5218 72.2357
68.2442 5265 72.5603
68.3614 5390 73.4166
68.4787 5389 73.4098
68.5958 5544 74.458
68.713 5527 74.3438
68.8302 5541 74.4379
68.9473 5546 74.4715
69.0643 5545 74.4648
69.1814 5468 73.9459
69.2984 5516 74.2698
69.4154 5728 75.6836
69.5323 5817 76.2693
69.6492 6050 77.7817
69.7661 5948 77.1233
69.8829 6186 78.6511
69.9997 6009 77.5177
70.1165 5971 77.2722
70.2332 5700 75.4983
70.3499 5438 73.7428
70.4665 5632 75.0467
70.5831 5984 77.3563
70.6996 5812 76.2365
70.8161 5609 74.8933
70.9326 5518 74.2832
71.049 5354 73.171
71.1653 5384 73.3757
71.2817 5083 71.2952
71.3979 5048 71.0493
71.5141 5106 71.4563
71.6303 4998 70.6965
71.7464 4619 67.9632
71.8624 0 1
71.9784 0 1
72.0944 0 1
72.2102 0 1
72.3261 0 1
72.4418 0 1
72.5575 0 1
72.6732 0 1
75.1054 0 1
75.2209 0 1
75.3365 0 1
75.4521 0 1
75.5678 0 1
75.6835 0 1
75.7993 0 1
75.9151 0 1
76.031 0 1
76.147 4819 69.419
76.263 4854 69.6707
76.3791 4779 69.1303
76.4952 4816 69.3974
76.6113 4665 68.3008
76.7276 4919 70.1356
76.8438 4641 68.1249
76.9601 4643 68.1396
77.0765 4840 69.5701
77.1929 4746 68.8912
77.3093 5003 70.7319
77.4258 5157 71.8123
77.5423 4967 70.4769
77.6589 4883 69.8785
77.7755 4672 68.352
77.8921 4817 69.4046
78.0088 4695 68.5201
78.1256 4747 68.8985
78.2423 4696 68.5274
78.3591 4773 69.0869
78.4759 4878 69.8427
78.5928 4892 69.9428
78.7097 5043 71.0141
78.8266 5353 73.1642
78.9436 4960 70.4273
79.0606 5070 71.2039
79.1776 4787 69.1881
79.2946 4285 65.4599
79.4117 4853 69.6635
79.5288 5102 71.4283
79.6459 5153 71.7844
79.7631 4962 70.4415
79.8802 4634 68.0735
79.9974 4449 66.7008
80.1147 4377 66.1589
80.2319 4377 66.1589
80.3491 4295 65.5362
80.4664 4297 65.5515
80.5837 4286 65.4675
80.701 4387 66.2344
80.8183 4172 64.591
80.9357 4526 67.2756
81.053 4686 68.4544
81.1704 4710 68.6294
81.2877 4541 67.3869
81.4051 4383 66.2042
81.5225 4474 66.888
81.6399 4116 64.1561
81.7573 4085 63.914
81.8747 4213 64.9076
81.9922 4279 65.4141
82.1096 4292 65.5134
82.227 4308 65.6354
82.3444 4323 65.7495
82.4619 4591 67.7569
82.5793 4346 65.9242
82.6967 4363 66.053
82.8142 4015 63.364
82.9316 3510 59.2453
83.049 3468 58.8897
83.1664 3638 60.3158
83.2838 3469 58.8982
83.4012 3124 55.8928
83.5186 2950 54.3139
83.636 3022 54.9727
83.7534 3186 56.4447
83.8708 3249 57
83.9881 3264 57.1314
84.1055 3395 58.2666
84.2228 3443 58.6771
84.3401 3499 59.1523
84.4575 3685 60.7042
84.5747 4081 63.8827
84.692 4367 66.0833
84.8093 4557 67.5056
84.9265 4217 64.9384
85.0437 4231 65.0461
85.1609 4295 65.5362
85.2781 4340 65.8787
85.3952 4395 66.2948
85.5123 4646 68.1616
85.6294 4699 68.5493
85.7465 4914 70.0999
85.8636 5051 71.0704
85.9806 5278 72.6498
86.0976 5671 75.306
86.2145 5965 77.2334
86.3315 5612 74.9133
86.4484 5780 76.0263
86.5652 5823 76.3086
86.682 6299 79.3662
86.7988 6621 81.3695
86.9156 6742 82.1097
87.0323 6597 81.2219
87.149 6713 81.9329
87.2657 6727 82.0183
87.3823 6901 83.0723
87.4988 7135 84.4689
87.6154 7024 83.8093
87.7318 7320 85.557
87.8483 7335 85.6446
87.9647 7875 88.7412
88.081 8158 90.3216
88.1973 8689 93.2148
88.3136 9046 95.1105
88.4298 8850 94.0744
88.546 8860 94.1276
88.6621 8699 93.2684
88.7781 8678 93.1558
88.8942 0 1
89.0101 0 1
89.126 0 1
89.2419 0 1
89.3577 0 1
89.4734 0 1
89.5891 0 1
89.7047 0 1
89.8203 0 1
89.9358 0 1
92.3269 0 1
92.4424 0 1
92.558 0 1
92.6736 0 1
92.7893 0 1
92.905 0 1
93.0208 0 1
93.1366 0 1
93.2525 0 1
93.3685 0 1
93.4845 0 1
93.6005 9049 95.1262
93.7167 9343 96.6592
93.8328 9480 97.3653
93.949 9235 96.0989
94.0653 9258 96.2185
94.1816 9291 96.3898
94.2979 9155 95.6818
94.4143 8900 94.3398
94.5307 8885 94.2603
94.6472 8689 93.2148
94.7637 8944 94.5727
94.8803 9030 95.0263
94.9969 9019 94.9684
95.1135 9259 96.2237
95.2302 9379 96.8452
95.3469 9131 95.5563
95.4637 8761 93.6002
95.5805 8231 90.7249
95.6973 7968 89.2637
95.8142 7752 88.0454
95.9311 8005 89.4707
96.048 8503 92.2117
96.1649 8424 91.7824
96.2819 8427 91.7987
96.3989 8065 89.8053
96.516 7994 89.4092
96.633 7672 87.59
96.7501 7720 87.8635
96.8673 7427 86.18
96.9844 7347 85.7146
97.1016 7218 84.9588
97.2188 7375 85.8778
97.336 7344 85.6971
97.4532 7573 87.023
97.5704 7359 85.7846
97.6877 7296 85.4166
97.805 7036 83.8809
97.9223 6681 81.7374
98.0396 6616 81.3388
98.1569 6564 81.0185
98.2743 6544 80.895
98.3916 6503 80.6412
98.509 6431 80.1935
98.6264 6502 80.635
98.7438 6434 80.2122
98.8612 6547 80.9135
98.9786 6663 81.6272
99.096 6527 80.7899
99.2134 6167 78.5302
99.3308 6137 78.339
99.4482 5992 77.408
99.5656 6255 79.0886
99.6831 6031 77.6595
99.8005 6046 77.756
99.9179 5792 76.1052
100.035 5657 75.213
100.153 5488 74.081
100.27 5441 73.7631
100.388 5266 72.5672
100.505 5129 71.617
100.622 5149 71.7565
100.74 5080 71.2741
100.857 5172 71.9166
100.975 5431 73.6953
101.092 5550 74.4983
101.209 5377 73.328
101.327 5331 73.0137
101.444 5099 71.4073
101.561 4900 70
101.679 4919 70.1356
101.796 4951 70.3633
101.913 4902 70.0143
102.03 4950 70.3562
102.148 4970 70.4982
102.265 5559 74.5587
102.382 5039 70.9859
102.499 5574 74.6592
102.616 5597 74.8131
102.733 5413 73.5731
102.851 5399 73.4779
102.968 5182 71.9861
103.085 5076 71.2461
103.202 4850 69.6419
103.319 4963 70.4486
103.436 4753 68.942
103.552 4547 67.4314
103.669 4399 66.325
103.786 4352 65.9697
103.903 4088 63.9375
104.02 4117 64.1639
104.137 4009 63.3167
104.253 4068 63.7809
104.37 4066 63.7652
104.487 4289 65.4905
104.603 4359 66.0227
104.72 4413 66.4304
104.836 4096 64
104.953 4088 63.9375
105.069 4014 63.3561
105.186 3947 62.8252
105.302 3856 62.0967
105.418 3881 62.2977
105.535 4021 63.4114
105.651 4145 64.3817
105.767 4383 66.2042
105.883 4468 66.8431
105.999 4717 68.6804
106.115 0 1
106.231 0 1
106.347 0 1
106.463 0 1
106.579 0 1
106.694 0 1
106.81 0 1
106.926 0 1
107.041 0 1
107.157 0 1
109.576 0 1
109.692 0 1
109.807 0 1
109.923 0 1
110.039 0 1
110.155 0 1
110.27 0 1
110.386 0 1
110.502 0 1
110.618 2791 52.8299
110.735 3012 54.8817
110.851 3273 57.2101
110.967 3381 58.1464
111.083 3644 60.3656
111.199 3785 61.5224
111.316 3825 61.8466
111.432 3785 61.5224
111.549 3617 60.1415
111.665 3186 56.4447
111.782 2969 54.4885
111.898 3018 54.9363
112.015 2948 54.2955
112.132 2741 52.3546
112.248 2621 51.1957
112.365 2642 51.4004
112.482 2573 50.7247
112.599 2366 48.6415
112.716 2421 49.2037
112.832 2440 49.3964
112.949 2450 49.4975
113.066 2472 49.7192
113.183 2513 50.1298
113.3 2503 50.03
113.417 2385 48.8365
113.534 2409 49.0816
113.652 2529 50.2892
113.769 2496 49.96
113.886 2506 50.06
114.003 2489 49.8899
114.12 2668 51.6527
114.238 2793 52.8488
114.355 2784 52.7636
114.472 2856 53.4416
114.589 3009 54.8544
114.707 3230 56.8331
114.824 3236 56.8859
114.942 3390 58.2237
115.059 3403 58.3352
115.176 3256 57.0614
115.294 3018 54.9363
115.411 2825 53.1507
115.529 2788 52.8015
115.646 2667 51.643
115.764 2679 51.7591
115.881 2531 50.309
115.999 2547 50.4678
116.116 2389 48.8774
116.234 2413 49.1223
116.351 2379 48.775
116.469 2349 48.4665
116.586 2419 49.1833
116.704 2537 50.3686
116.821 2469 49.689
116.939 2371 48.6929
117.056 2454 49.5379
117.174 2551 50.5074
117.291 2645 51.4296
117.409 2787 52.792
117.526 2781 52.7352
117.644 3023 54.9818
117.761 3062 55.3353
117.879 3142 56.0535
117.996 3149 56.116
118.114 3054 55.263
118.231 3190 56.4801
118.349 3354 57.9137
118.466 3442 58.6686
118.584 3695 60.7865
118.701 3691 60.7536
118.819 3723 61.0164
118.936 3665 60.5392
119.053 3491 59.0847
119.171 3280 57.2713
119.288 3160 56.2139
119.405 3106 55.7315
119.523 3048 55.2087
119.64 3066 55.3715
119.757 2844 53.3292
119.875 2744 52.3832
119.992 2783 52.7541
120.109 2687 51.8363
120.226 2683 51.7977
120.343 2633 51.3128
120.46 2644 51.4198
120.578 2584 50.8331
120.695 2801 52.9245
120.812 2926 54.0925
120.929 3017 54.9272
121.046 3111 55.7763
121.163 3253 57.0351
121.279 3361 57.9741
121.396 3466 58.8727
121.513 3421 58.4893
121.63 3514 59.279
121.747 3327 57.6802
121.863 3251 57.0175
121.98 3416 58.4466
122.097 3332 57.7235
122.213 3740 61.1555
122.33 3937 62.7455
122.446 3946 62.8172
122.563 4101 64.0391
122.679 4038 63.5453
122.795 3912 62.546
122.912 3847 62.0242
123.028 3618 60.1498
123.144 3696 60.7947
123.26 3525 59.3717
123.377 0 1
123.493 0 1
123.609 0 1
123.725 0 1
123.84 0 1
123.956 0 1
124.072 0 1
124.188 0 1
124.303 0 1
124.419 0 1
126.852 0 1
126.968 0 1
127.083 0 1
127.199 0 1
127.315 0 1
127.431 0 1
127.547 0 1
127.663 0 1
127.779 0 1
127.895 0 1
128.011 0 1
128.127 0 1
128.243 0 1
128.359 4904 70.0286
128.476 4647 68.1689
128.592 4596 67.7938
128.708 4582 67.6905
128.825 4392 66.2722
128.941 4382 66.1967
129.058 4214 64.9153
129.174 4130 64.2651
129.291 3916 62.578
129.408 3940 62.7694
129.524 3972 63.0238
129.641 4201 64.8151
129.758 4252 65.2074
129.875 4312 65.6658
129.992 4592 67.7643
130.108 4686 68.4544
130.225 4813 69.3758
130.342 4869 69.7782
130.459 4627 68.0221
130.576 4630 68.0441
130.693 4580 67.6757
130.81 4384 66.2118
130.928 4477 66.9104
131.045 4489 67
131.162 4730 68.775
131.279 4988 70.6258
131.396 5281 72.6705
131.513 5445 73.7902
131.631 5350 73.1437
131.748 5254 72.4845
131.865 5160 71.8331
131.983 5108 71.4703
132.1 5114 71.5122
132.217 4944 70.3136
132.335 4769 69.0579
132.452 4784 69.1665
132.57 4698 68.542
132.687 4422 66.4981
132.804 4621 67.9779
132.922 4346 65.9242
133.039 4283 65.4446
133.157 4531 67.3127
133.274 4574 67.6314
133.392 4746 68.8912
133.509 4813 69.3758
133.627 5023 70.8731
133.744 5033 70.9436
133.862 5121 71.5612
133.979 5102 71.4283
134.097 4962 70.4415
134.214 4873 69.8069
134.332 4619 67.9632
134.449 4878 69.8427
134.567 5068 71.1899
134.684 5073 71.225
134.802 5416 73.5935
134.919 5622 74.98
135.037 5801 76.1643
135.154 5990 77.3951
135.272 6158 78.4729
135.389 6014 77.55
135.507 6057 77.8267
135.624 5824 76.3151
135.742 6089 78.032
135.859 5756 75.8683
135.977 5696 75.4718
136.094 5581 74.7061
136.211 5443 73.7767
136.329 5074 71.232
136.446 5004 70.739
136.564 5019 70.8449
136.681 5021 70.859
136.798 4915 70.1071
136.915 5042 71.007
137.033 5256 72.4983
137.15 5634 75.06
137.267 5830 76.3544
137.384 5931 77.013
137.502 5911 76.883
137.619 5900 76.8115
137.736 5694 75.4586
137.853 5601 74.8398
137.97 5420 73.6206
138.087 5807 76.2037
138.204 5728 75.6836
138.321 6014 77.55
138.438 6298 79.3599
138.555 6440 80.2496
138.672 6543 80.8888
138.788 6628 81.4125
138.905 6744 82.1219
139.022 6787 82.3833
139.139 6793 82.4197
139.255 6803 82.4803
139.372 6857 82.807
139.488 6609 81.2958
139.605 6505 80.6536
139.721 6345 79.6555
139.838 6232 78.943
139.954 6028 77.6402
140.071 5850 76.4853
140.187 5627 75.0133
140.303 5753 75.8485
140.419 5563 74.5855
140.535 5578 74.686
140.652 5670 75.2994
140.768 0 1
140.884 0 1
141 0 1
141.115 0 1
141.231 0 1
141.347 0 1
141.463 0 1
141.578 0 1
141.694 0 1
144.104 0 1
144.219 0 1
144.335 0 1
144.45 0 1
144.566 0 1
144.682 0 1
144.798 0 1
144.914 0 1
145.03 0 1
145.146 5439 73.7496
145.262 5493 74.1148
145.378 5361 73.2189
145.494 5599 74.8265
145.61 5674 75.326
145.726 5803 76.1774
145.842 5868 76.6029
145.959 5945 77.1038
146.075 5926 76.9805
146.192 5851 76.4918
146.308 5680 75.3658
146.425 5539 74.4245
146.541 5571 74.6391
146.658 5571 74.6391
146.774 5590 74.7663
146.891 5809 76.2168
147.008 6130 78.2943
147.125 6005 77.4919
147.241 6219 78.8606
147.358 5989 77.3886
147.475 5983 77.3499
147.592 6045 77.7496
147.709 6259 79.1138
147.826 6112 78.1793
147.943 6434 80.2122
148.06 6242 79.0063
148.177 6239 78.9873
148.294 6204 78.7655
148.411 6117 78.2113
148.528 5813 76.243
148.645 5783 76.046
148.762 5596 74.8064
148.88 5355 73.1779
148.997 5269 72.5879
149.114 5495 74.1283
149.231 5423 73.641
149.349 5513 74.2496
149.466 5675 75.3326
149.583 5783 76.046
149.701 5508 74.2159
149.818 5489 74.0878
149.935 5403 73.5051
150.053 5302 72.8148
150.17 5411 73.5595
150.287 5477 74.0068
150.405 5564 74.5922
150.522 5709 75.5579
150.64 5696 75.4718
150.757 5870 76.6159
150.875 6050 77.7817
150.992 5948 77.1233
151.11 5819 76.2824
151.227 5964 77.2269
151.344 5835 76.3872
151.462 6043 77.7367
151.579 6177 78.5939
151.697 6167 78.5302
151.814 6269 79.177
151.932 6112 78.1793
152.049 6097 78.0833
152.167 5969 77.2593
152.284 5758 75.8815
152.402 5684 75.3923
152.519 5538 74.4177
152.636 5610 74.8999
152.754 5678 75.3525
152.871 5416 73.5935
152.989 5615 74.9333
153.106 5700 75.4983
153.223 5689 75.4255
153.341 5848 76.4722
153.458 5675 75.3326
153.575 5658 75.2197
153.693 5623 74.9867
153.81 5704 75.5248
153.927 5749 75.8222
154.044 5924 76.9675
154.162 6222 78.8797
154.279 6369 79.806
154.396 6443 80.2683
154.513 6484 80.5233
154.63 6410 80.0625
154.747 6229 78.924
154.864 6396 79.975
154.981 6399 79.9937
155.098 6568 81.0432
155.215 6419 80.1187
155.332 6449 80.3057
155.449 6599 81.2342
155.566 6649 81.5414
155.683 6360 79.7496
155.8 6344 79.6492
155.917 6325 79.5299
156.033 6342 79.6367
156.15 0 1
156.267 0 1
156.383 0 1
156.5 0 1
156.617 0 1
156.733 0 1
156.85 0 1
156.966 0 1
157.082 0 1
157.199 0 1
157.315 0 1
157.431 0 1
157.547 0 1
157.664 0 1
157.78 0 1
157.896 0 1
158.012 0 1
158.128 0 1
158.244 0 1
158.359 0 1
158.475 0 1
158.591 0 1
158.706 0 1
