
6.15755 0 1
6.2731 0 1
6.3887 0 1
6.50437 0 1
6.62009 0 1
6.73587 0 1
6.8517 0 1
6.96759 0 1
7.08353 0 1
7.19952 0 1
7.31557 0 1
7.43166 0 1
7.54781 0 1
7.664 0 1
7.78024 0 1
7.89653 0 1
8.01286 0 1
8.12924 0 1
8.24567 0 1
8.36213 0 1
8.47864 0 1
8.59519 0 1
8.71178 0 1
8.82841 0 1
8.94508 0 1
9.06179 0 1
9.17853 0 1
9.29531 0 1
9.41212 0 1
9.52897 0 1
9.64584 0 1
9.76276 0 1
9.8797 0 1
9.99667 0 1
10.1137 0 1
10.2307 0 1
10.3478 0 1
10.4648 0 1
10.5819 0 1
10.6991 0 1
10.8162 0 1
10.9334 0 1
11.0506 0 1
11.1678 0 1
11.285 0 1
11.4023 0 1
11.5196 0 1
11.6369 0 1
11.7542 0 1
11.8715 0 1
11.9888 0 1
12.1062 0 1
12.2235 0 1
12.3409 0 1
12.4582 0 1
12.5756 0 1
12.693 0 1
12.8104 0 1
12.9278 0 1
13.0452 0 1
13.1626 0 1
13.28 0 1
13.3974 0 1
13.5149 0 1
13.6323 0 1
13.7497 0 1
13.8671 0 1
13.9845 0 1
14.1019 0 1
14.2193 0 1
14.3367 0 1
14.4541 0 1
14.5714 0 1
14.6888 0 1
14.8062 0 1
14.9235 0 1
15.0408 0 0
15.1581 0 0
15.2755 0 0
15.3927 0 0
15.51 0 0
15.6273 0 0
15.7445 0 0
15.8617 0 0
15.9789 0 0
16.0961 0 0
16.2132 0 0
16.3304 0 0
16.4475 0 0
16.5646 0 0
16.6816 0 0
16.7986 0 0
16.9156 0 0
17.0326 0 0
17.1496 0 0
17.2665 0 0
17.3833 0 0
17.5002 0 0
17.617 0 0
17.7338 0 0
17.8505 0 0
17.9672 0 0
18.0839 0 0
18.2005 0 0
18.3171 0 0
18.4337 0 0
18.5502 0 0
18.6666 0 0
18.7831 0 0
18.8994 0 0
19.0158 0 0
19.1321 0 0
19.2483 0 0
19.3645 0 0
19.4806 0 0
19.5967 0 0
19.7128 0 0
19.8288 0 0
19.9447 0 0
20.0606 0 1
20.1764 0 1
20.2922 0 1
20.4079 0 1
20.5236 0 1
20.6392 0 1
20.7548 0 1
20.8702 0 1
23.3078 0 1
23.4233 0 1
23.539 0 1
23.6547 0 1
23.7704 0 1
23.8862 0 1
24.0021 0 1
24.118 0 1
24.234 0 1
24.35 0 1
24.4661 1446 38.0263
24.5822 1501 38.7427
24.6984 1490 38.6005
24.8146 1591 39.8873
24.9309 1745 41.7732
25.0472 1859 43.1161
25.1636 2099 45.8148
25.28 2328 48.2494
25.3965 2517 50.1697
25.513 2639 51.3712
25.6296 2823 53.1319
25.7462 2948 54.2955
25.8628 3016 54.9181
25.9795 3139 56.0268
26.0962 3134 55.9821
26.213 3077 55.4707
26.3298 3124 55.8928
26.4466 3092 55.6058
26.5635 3155 56.1694
26.6804 3134 55.9821
26.7973 3240 56.921
26.9143 3130 55.9464
27.0313 3129 55.9375
27.1483 3154 56.1605
27.2653 3195 56.5243
27.3824 3172 56.3205
27.4996 3203 56.5951
27.6167 3162 56.2317
27.7339 3086 55.5518
27.8511 3050 55.2268
27.9683 3109 55.7584
28.0855 2816 53.066
28.2028 2618 51.1664
28.3201 2446 49.4571
28.4374 2337 48.3425
28.5547 2425 49.2443
28.6721 2499 49.99
28.7894 2712 52.0769
28.9068 2817 53.0754
29.0242 2914 53.9815
29.1416 2755 52.4881
29.259 2764 52.5738
29.3764 2847 53.3573
29.4939 2827 53.1695
29.6113 2922 54.0555
29.7288 2958 54.3875
29.8463 2889 53.7494
29.9638 2988 54.6626
30.0812 2843 53.3198
30.1987 2960 54.4059
30.3162 3083 55.5248
30.4337 2977 54.5619
30.5512 3030 55.0454
30.6687 2993 54.7083
30.7862 3036 55.0999
30.9037 3128 55.9285
31.0212 3121 55.8659
31.1387 3105 55.7225
31.2562 2990 54.6809
31.3737 2860 53.479
31.4912 2890 53.7587
31.6087 2710 52.0577
31.7262 2607 51.0588
31.8436 2408 49.0714
31.9611 2346 48.4355
32.0785 2403 49.0204
32.1959 2479 49.7896
32.3134 2674 51.7107
32.4308 2769 52.6213
32.5482 2749 52.4309
32.6655 2707 52.0288
32.7829 2794 52.8583
32.9002 2662 51.5946
33.0176 2658 51.5558
33.1349 2756 52.4976
33.2522 2744 52.3832
33.3694 2760 52.5357
33.4867 2759 52.5262
33.6039 2843 53.3198
33.7211 2724 52.192
33.8383 2945 54.2679
33.9554 2884 53.7029
34.0725 2986 54.6443
34.1896 3058 55.2992
34.3067 2955 54.3599
34.4237 2938 54.2033
34.5407 2979 54.5802
34.6577 3018 54.9363
34.7746 3105 55.7225
34.8915 2955 54.3599
35.0084 2804 52.9528
35.1252 2765 52.5833
35.242 2740 52.345
35.3587 2670 51.672
35.4755 2417 49.163
35.5921 2301 47.9687
35.7088 2246 47.392
35.8254 2301 47.9687
35.9419 2304 48
36.0584 2547 50.4678
36.1749 2527 50.2693
36.2913 2504 50.04
36.4077 2504 50.04
36.524 2514 50.1398
36.6403 2346 48.4355
36.7565 2317 48.1352
36.8727 2161 46.4866
36.9889 2128 46.1303
37.1049 2183 46.7226
37.221 0 1
37.3369 0 1
37.4529 0 1
37.5687 0 1
37.6845 0 1
37.8003 0 1
37.916 0 1
38.0316 0 1
38.1472 0 1
40.5851 0 1
40.7008 0 1
40.8164 0 1
40.9322 0 1
41.048 0 1
41.1639 0 1
41.2798 0 1
41.3958 0 1
41.5118 0 1
41.6279 0 1
41.744 1241 35.2278
41.8602 1377 37.108
41.9765 1513 38.8973
42.0928 1638 40.4722
42.2091 1724 41.5211
42.3255 1700 41.2311
42.4419 1886 43.4281
42.5584 1915 43.7607
42.675 2199 46.8935
42.7915 2199 46.8935
42.9081 2315 48.1144
43.0248 2420 49.1935
43.1415 2478 49.7795
43.2582 2484 49.8397
43.375 2519 50.1896
43.4918 2574 50.7346
43.6087 2609 51.0784
43.7256 2665 51.6236
43.8425 2667 51.643
43.9595 2513 50.1298
44.0765 2527 50.2693
44.1935 2538 50.3786
44.3106 2268 47.6235
44.4277 2228 47.2017
44.5448 2203 46.9361
44.6619 2138 46.2385
44.7791 2269 47.634
44.8963 2386 48.8467
45.0136 2425 49.2443
45.1308 2419 49.1833
45.2481 2411 49.1019
45.3654 2441 49.4065
45.4827 2315 48.1144
45.6001 2183 46.7226
45.7174 2251 47.4447
45.8348 2377 48.7545
45.9522 2404 49.0306
46.0697 2425 49.2443
46.1871 2485 49.8498
46.3046 2465 49.6488
46.422 2600 50.9902
46.5395 2595 50.9411
46.657 2753 52.469
46.7745 2795 52.8678
46.892 2887 53.7308
47.0096 2883 53.6936
47.1271 2858 53.4603
47.2446 2848 53.3667
47.3622 2879 53.6563
47.4797 2847 53.3573
47.5973 2813 53.0377
47.7149 2751 52.45
47.8324 2584 50.8331
47.95 2284 47.7912
48.0675 2315 48.1144
48.1851 2338 48.3529
48.3027 2343 48.4045
48.4202 2401 49
48.5378 2492 49.9199
48.6554 2473 49.7293
48.7729 2380 48.7852
48.8904 2451 49.5076
49.008 2418 49.1732
49.1255 2298 47.9375
49.243 2349 48.4665
49.3605 2268 47.6235
49.478 2306 48.0208
49.5955 2312 48.0833
49.713 2351 48.4871
49.8304 2437 49.366
49.9479 2608 51.0686
50.0653 2636 51.342
50.1827 2730 52.2494
50.3001 2798 52.8961
50.4175 2850 53.3854
50.5348 2942 54.2402
50.6521 2907 53.9166
50.7694 2909 53.9351
50.8867 3006 54.827
51.004 2889 53.7494
51.1212 2855 53.4322
51.2384 2915 53.9907
51.3556 2734 52.2877
51.4727 2548 50.4777
51.5899 2334 48.3115
51.707 2322 48.1871
51.824 2332 48.2908
51.9411 2369 48.6724
52.0581 2432 49.3153
52.175 2378 48.7647
52.2919 2275 47.697
52.4088 2259 47.5289
52.5257 2167 46.551
52.6425 2075 45.5522
52.7593 2140 46.2601
52.876 1983 44.5309
52.9927 2039 45.1553
53.1094 2062 45.4093
53.226 2073 45.5302
53.3426 2191 46.8081
53.4591 2134 46.1952
53.5756 2237 47.2969
53.692 2269 47.634
53.8084 2330 48.2701
53.9248 2328 48.2494
54.0411 2317 48.1352
54.1573 2128 46.1303
54.2735 0 1
54.3896 0 1
54.5057 0 1
54.6217 0 1
54.7377 0 1
54.8537 0 1
54.9695 0 1
55.0853 0 1
55.2011 0 1
55.3168 0 1
55.4324 0 1
57.824 0 1
57.9396 0 1
58.0553 0 1
58.1711 0 1
58.2869 0 1
58.4028 0 1
58.5187 0 1
58.6347 0 1
58.7508 0 1
58.8669 0 1
58.983 1794 42.3556
59.0992 2010 44.833
59.2155 2210 47.0106
59.3318 2352 48.4974
59.4482 2645 51.4296
59.5646 2860 53.479
59.681 3016 54.9181
59.7975 3002 54.7905
59.9141 2952 54.3323
60.0306 2861 53.4883
60.1473 2680 51.7687
60.2639 2725 52.2015
60.3807 2654 51.517
60.4974 2647 51.449
60.6142 2603 51.0196
60.731 2677 51.7397
60.8479 2722 52.1728
60.9648 2712 52.0769
61.0818 2805 52.9623
61.1987 2747 52.4118
61.3158 2777 52.6972
61.4328 2725 52.2015
61.5499 2630 51.2835
61.667 2638 51.3615
61.7841 2762 52.5547
61.9013 2606 51.049
62.0185 2732 52.2685
62.1357 2780 52.7257
62.253 3005 54.8179
62.3702 3232 56.8507
62.4875 3449 58.7282
62.6049 3608 60.0666
62.7222 3702 60.8441
62.8396 3893 62.3939
62.9569 3964 62.9603
63.0743 3947 62.8252
63.1918 3909 62.522
63.3092 3925 62.6498
63.4267 3760 61.3188
63.5441 3543 59.5231
63.6616 3364 58
63.7791 3115 55.8122
63.8966 2925 54.0833
64.0142 2995 54.7266
64.1317 2750 52.4404
64.2492 2744 52.3832
64.3668 2730 52.2494
64.4843 2738 52.3259
64.6019 2774 52.6688
64.7195 2695 51.9134
64.837 2658 51.5558
64.9546 2622 51.2055
65.0722 2510 50.0999
65.1898 2552 50.5173
65.3074 2515 50.1498
65.4249 2516 50.1597
65.5425 2646 51.4393
65.6601 2686 51.8266
65.7777 2974 54.5344
65.8952 3126 55.9106
66.0128 3209 56.648
66.1304 3523 59.3549
66.2479 3608 60.0666
66.3655 3739 61.1474
66.483 3943 62.7933
66.6005 3881 62.2977
66.718 3952 62.8649
66.8355 3880 62.2896
66.953 3851 62.0564
67.0705 3532 59.4306
67.1879 3362 57.9828
67.3054 3149 56.116
67.4228 2989 54.6717
67.5402 2709 52.0481
67.6576 2548 50.4777
67.7749 2616 51.1468
67.8923 2349 48.4665
68.0096 2450 49.4975
68.1269 2600 50.9902
68.2442 2737 52.3163
68.3614 2771 52.6403
68.4787 2678 51.7494
68.5958 2568 50.6754
68.713 2522 50.2195
68.8302 2428 49.2747
68.9473 2451 49.5076
69.0643 2424 49.2341
69.1814 2320 48.1664
69.2984 2404 49.0306
69.4154 2421 49.2037
69.5323 2598 50.9706
69.6492 2754 52.4786
69.7661 3001 54.7814
69.8829 3099 55.6687
69.9997 3173 56.3294
70.1165 3294 57.3934
70.2332 3255 57.0526
70.3499 3082 55.5158
70.4665 3049 55.2178
70.5831 2944 54.2586
70.6996 2758 52.5167
70.8161 2526 50.2593
70.9326 2409 49.0816
71.049 2205 46.9574
71.1653 1932 43.9545
71.2817 1754 41.8808
71.3979 1563 39.5348
71.5141 1531 39.128
71.6303 1428 37.7889
71.7464 1254 35.4119
71.8624 0 1
71.9784 0 1
72.0944 0 1
72.2102 0 1
72.3261 0 1
72.4418 0 1
72.5575 0 1
72.6732 0 1
75.1054 0 1
75.2209 0 1
75.3365 0 1
75.4521 0 1
75.5678 0 1
75.6835 0 1
75.7993 0 1
75.9151 0 1
76.031 0 1
76.147 1821 42.6732
76.263 1848 42.9884
76.3791 1919 43.8064
76.4952 1778 42.1663
76.6113 1724 41.5211
76.7276 1762 41.9762
76.8438 1629 40.3609
76.9601 1779 42.1782
77.0765 1780 42.19
77.1929 1964 44.317
77.3093 2270 47.6445
77.4258 2243 47.3603
77.5423 2364 48.621
77.6589 2190 46.7974
77.7755 2287 47.8226
77.8921 2210 47.0106
78.0088 2169 46.5725
78.1256 2126 46.1086
78.2423 2199 46.8935
78.3591 2262 47.5605
78.4759 2436 49.3559
78.5928 2515 50.1498
78.7097 2752 52.4595
78.8266 3110 55.7674
78.9436 3274 57.2189
79.0606 3456 58.7878
79.1776 3358 57.9483
79.2946 3465 58.8643
79.4117 3379 58.1292
79.5288 3442 58.6686
79.6459 3377 58.112
79.7631 3089 55.5788
79.8802 2862 53.4977
79.9974 2722 52.1728
80.1147 2525 50.2494
80.2319 2389 48.8774
80.3491 2268 47.6235
80.4664 2202 46.9255
80.5837 2187 46.7654
80.701 2270 47.6445
80.8183 2269 47.634
80.9357 2430 49.295
81.053 2634 51.3225
81.1704 2542 50.4183
81.2877 2508 50.0799
81.4051 2314 48.1041
81.5225 2287 47.8226
81.6399 2199 46.8935
81.7573 2258 47.5184
81.8747 2209 47
81.9922 2206 46.9681
82.1096 2430 49.295
82.227 2594 50.9313
82.3444 2849 53.376
82.4619 3245 56.9649
82.5793 3447 58.7112
82.6967 3510 59.2453
82.8142 3564 59.6992
82.9316 3637 60.3075
83.049 3584 59.8665
83.1664 3514 59.279
83.2838 3372 58.0689
83.4012 3083 55.5248
83.5186 2980 54.5894
83.636 2697 51.9326
83.7534 2500 50
83.8708 2378 48.7647
83.9881 2274 47.6865
84.1055 2277 47.7179
84.2228 2213 47.0425
84.3401 2199 46.8935
84.4575 2358 48.5592
84.5747 2553 50.5272
84.692 2788 52.8015
84.8093 2780 52.7257
84.9265 2677 51.7397
85.0437 2471 49.7092
85.1609 2405 49.0408
85.2781 2288 47.833
85.3952 2179 46.6798
85.5123 2155 46.422
85.6294 2337 48.3425
85.7465 2447 49.4672
85.8636 2647 51.449
85.9806 2871 53.5817
86.0976 3172 56.3205
86.2145 3379 58.1292
86.3315 3354 57.9137
86.4484 3509 59.2368
86.5652 3408 58.3781
86.682 3362 57.9828
86.7988 3312 57.55
86.9156 3200 56.5685
87.0323 3085 55.5428
87.149 2894 53.7959
87.2657 2789 52.811
87.3823 2478 49.7795
87.4988 2345 48.4252
87.6154 2197 46.8722
87.7318 2093 45.7493
87.8483 2045 45.2217
87.9647 1992 44.6318
88.081 2068 45.4753
88.1973 2149 46.3573
88.3136 2231 47.2335
88.4298 1862 43.1509
88.546 1570 39.6232
88.6621 1362 36.9053
88.7781 1161 34.0735
88.8942 0 1
89.0101 0 1
89.126 0 1
89.2419 0 1
89.3577 0 1
89.4734 0 1
89.5891 0 1
89.7047 0 1
89.8203 0 1
89.9358 0 1
92.3269 0 1
92.4424 0 1
92.558 0 1
92.6736 0 1
92.7893 0 1
92.905 0 1
93.0208 0 1
93.1366 0 1
93.2525 0 1
93.3685 0 1
93.4845 0 1
93.6005 1475 38.4057
93.7167 1825 42.72
93.8328 2108 45.913
93.949 2297 47.927
94.0653 2298 47.9375
94.1816 2363 48.6107
94.2979 2389 48.8774
94.4143 2343 48.4045
94.5307 2299 47.9479
94.6472 2447 49.4672
94.7637 2376 48.7442
94.8803 2490 49.8999
94.9969 2738 52.3259
95.1135 2946 54.2771
95.2302 3148 56.107
95.3469 3421 58.4893
95.4637 3642 60.349
95.5805 3794 61.5955
95.6973 3697 60.803
95.8142 3713 60.9344
95.9311 3763 61.3433
96.048 3634 60.2827
96.1649 3524 59.3633
96.2819 3186 56.4447
96.3989 3023 54.9818
96.516 2795 52.8678
96.633 2560 50.5964
96.7501 2502 50.02
96.8673 2314 48.1041
96.9844 2212 47.0319
97.1016 2193 46.8295
97.2188 2233 47.2546
97.336 2415 49.1426
97.4532 2674 51.7107
97.5704 2995 54.7266
97.6877 3031 55.0545
97.805 2749 52.4309
97.9223 2563 50.6261
98.0396 2499 49.99
98.1569 2466 49.6588
98.2743 2392 48.9081
98.3916 2364 48.621
98.509 2479 49.7896
98.6264 2661 51.5849
98.7438 2981 54.5985
98.8612 3072 55.4256
98.9786 3391 58.2323
99.096 3674 60.6135
99.2134 3794 61.5955
99.3308 3811 61.7333
99.4482 3806 61.6928
99.5656 3979 63.0793
99.6831 3857 62.1048
99.8005 3707 60.8851
99.9179 3339 57.7841
100.035 3166 56.2672
100.153 2856 53.4416
100.27 2750 52.4404
100.388 2590 50.892
100.505 2336 48.3322
100.622 2297 47.927
100.74 2321 48.1768
100.857 2389 48.8774
100.975 2803 52.9434
101.092 2914 53.9815
101.209 2977 54.5619
101.327 2820 53.1037
101.444 2638 51.3615
101.561 2839 53.2823
101.679 2587 50.8626
101.796 2511 50.1099
101.913 2554 50.5371
102.03 2508 50.0799
102.148 2739 52.3355
102.265 3026 55.0091
102.382 3303 57.4717
102.499 3568 59.7327
102.616 3739 61.1474
102.733 3868 62.1932
102.851 4067 63.773
102.968 4033 63.5059
103.085 4200 64.8074
103.202 4127 64.2417
103.319 3822 61.8223
103.436 3742 61.1719
103.552 3330 57.7062
103.669 3214 56.6922
103.786 3016 54.9181
103.903 2635 51.3323
104.02 2464 49.6387
104.137 2516 50.1597
104.253 2483 49.8297
104.37 2467 49.6689
104.487 2656 51.5364
104.603 2853 53.4135
104.72 2783 52.7541
104.836 2500 50
104.953 2410 49.0918
105.069 2116 46
105.186 2012 44.8553
105.302 1987 44.5758
105.418 1904 43.6348
105.535 1816 42.6146
105.651 1817 42.6263
105.767 1820 42.6615
105.883 1992 44.6318
105.999 2097 45.793
106.115 0 1
106.231 0 1
106.347 0 1
106.463 0 1
106.579 0 1
106.694 0 1
106.81 0 1
106.926 0 1
107.041 0 1
107.157 0 1
109.576 0 1
109.692 0 1
109.807 0 1
109.923 0 1
110.039 0 1
110.155 0 1
110.27 0 1
110.386 0 1
110.502 0 1
110.618 1634 40.4228
110.735 1785 42.2493
110.851 2079 45.5961
110.967 2303 47.9896
111.083 2525 50.2494
111.199 2629 51.2738
111.316 2792 52.8394
111.432 2916 54
111.549 3024 54.9909
111.665 3117 55.8301
111.782 3189 56.4712
111.898 3055 55.2721
112.015 2899 53.8424
112.132 2680 51.7687
112.248 2655 51.5267
112.365 2513 50.1298
112.482 2355 48.5283
112.599 2196 46.8615
112.716 2162 46.4973
112.832 2119 46.0326
112.949 2104 45.8694
113.066 2377 48.7545
113.183 2521 50.2096
113.3 2651 51.4879
113.417 2568 50.6754
113.534 2508 50.0799
113.652 2482 49.8197
113.769 2410 49.0918
113.886 2502 50.02
114.003 2423 49.224
114.12 2477 49.7695
114.238 2648 51.4587
114.355 2743 52.3737
114.472 3221 56.7539
114.589 3171 56.3116
114.707 3643 60.3573
114.824 3756 61.2862
114.942 3855 62.0886
115.059 3974 63.0397
115.176 3877 62.2656
115.294 3911 62.538
115.411 3700 60.8276
115.529 3624 60.1997
115.646 3415 58.438
115.764 3050 55.2268
115.881 2752 52.4595
115.999 2651 51.4879
116.116 2510 50.0999
116.234 2396 48.949
116.351 2297 47.927
116.469 2211 47.0213
116.586 2260 47.5395
116.704 2432 49.3153
116.821 2637 51.3517
116.939 2722 52.1728
117.056 2638 51.3615
117.174 2685 51.817
117.291 2615 51.1371
117.409 2689 51.8556
117.526 2580 50.7937
117.644 2525 50.2494
117.761 2635 51.3323
117.879 2785 52.7731
117.996 3122 55.8749
118.114 3415 58.438
118.231 3672 60.597
118.349 3772 61.4166
118.466 3954 62.8808
118.584 3846 62.0161
118.701 3838 61.9516
118.819 4083 63.8984
118.936 3771 61.4085
119.053 3677 60.6383
119.171 3443 58.6771
119.288 3010 54.8635
119.405 2994 54.7175
119.523 2796 52.8772
119.64 2612 51.1077
119.757 2455 49.548
119.875 2344 48.4149
119.992 2331 48.2804
120.109 2213 47.0425
120.226 2131 46.1628
120.343 2280 47.7493
120.46 2442 49.4166
120.578 2450 49.4975
120.695 2421 49.2037
120.812 2356 48.5386
120.929 2356 48.5386
121.046 2420 49.1935
121.163 2331 48.2804
121.279 2371 48.6929
121.396 2355 48.5283
121.513 2318 48.1456
121.63 2629 51.2738
121.747 2688 51.8459
121.863 2979 54.5802
121.98 3029 55.0364
122.097 2901 53.8609
122.213 2967 54.4702
122.33 2904 53.8888
122.446 2855 53.4322
122.563 2621 51.1957
122.679 2582 50.8134
122.795 2385 48.8365
122.912 2189 46.7868
123.028 2101 45.8367
123.144 1905 43.6463
123.26 1624 40.2989
123.377 0 1
123.493 0 1
123.609 0 1
123.725 0 1
123.84 0 1
123.956 0 1
124.072 0 1
124.188 0 1
124.303 0 1
124.419 0 1
126.852 0 1
126.968 0 1
127.083 0 1
127.199 0 1
127.315 0 1
127.431 0 1
127.547 0 1
127.663 0 1
127.779 0 1
127.895 0 1
128.011 0 1
128.127 0 1
128.243 0 1
128.359 3065 55.3624
128.476 2951 54.3231
128.592 2819 53.0943
128.708 2727 52.2207
128.825 2743 52.3737
128.941 2572 50.7149
129.058 2461 49.6085
129.174 2489 49.8899
129.291 2621 51.1957
129.408 2473 49.7293
129.524 2746 52.4023
129.641 2748 52.4214
129.758 2866 53.535
129.875 2889 53.7494
129.992 2998 54.754
130.108 2914 53.9815
130.225 3018 54.9363
130.342 2971 54.5069
130.459 2995 54.7266
130.576 2990 54.6809
130.693 3361 57.9741
130.81 3383 58.1636
130.928 3621 60.1747
131.045 3531 59.4222
131.162 3644 60.3656
131.279 3764 61.3514
131.396 3592 59.9333
131.513 3678 60.6465
131.631 3625 60.208
131.748 3497 59.1354
131.865 3444 58.6856
131.983 3199 56.5597
132.1 3066 55.3715
132.217 3017 54.9272
132.335 2851 53.3948
132.452 2828 53.1789
132.57 2679 51.7591
132.687 2706 52.0192
132.804 2505 50.05
132.922 2572 50.7149
133.039 2716 52.1153
133.157 2857 53.4509
133.274 2744 52.3832
133.392 2946 54.2771
133.509 2990 54.6809
133.627 3168 56.285
133.744 2927 54.1018
133.862 3098 55.6597
133.979 2992 54.6992
134.097 3017 54.9272
134.214 3278 57.2538
134.332 3277 57.2451
134.449 3362 57.9828
134.567 3480 58.9915
134.684 3651 60.4235
134.802 3588 59.8999
134.919 3580 59.8331
135.037 3478 58.9746
135.154 3424 58.515
135.272 3526 59.3801
135.389 3496 59.127
135.507 3357 57.9396
135.624 3272 57.2014
135.742 3337 57.7668
135.859 2983 54.6168
135.977 2958 54.3875
136.094 2846 53.3479
136.211 2736 52.3068
136.329 2791 52.8299
136.446 2710 52.0577
136.564 2709 52.0481
136.681 2835 53.2447
136.798 2878 53.647
136.915 2934 54.1664
137.033 3035 55.0908
137.15 2990 54.6809
137.267 3088 55.5698
137.384 3152 56.1427
137.502 2948 54.2955
137.619 3029 55.0364
137.736 2941 54.231
137.853 3111 55.7763
137.97 3088 55.5698
138.087 3305 57.4891
138.204 3346 57.8446
138.321 3254 57.0438
138.438 3251 57.0175
138.555 3387 58.1979
138.672 3183 56.4181
138.788 3189 56.4712
138.905 3040 55.1362
139.022 2943 54.2494
139.139 2838 53.2729
139.255 2624 51.225
139.372 2524 50.2394
139.488 2481 49.8096
139.605 2323 48.1975
139.721 2059 45.3762
139.838 2004 44.7661
139.954 1849 43
140.071 1826 42.7317
140.187 1595 39.9375
140.303 1641 40.5093
140.419 1497 38.6911
140.535 1456 38.1576
140.652 1419 37.6696
140.768 0 1
140.884 0 1
141 0 1
141.115 0 1
141.231 0 1
141.347 0 1
141.463 0 1
141.578 0 1
141.694 0 1
144.104 0 1
144.219 0 1
144.335 0 1
144.45 0 1
144.566 0 1
144.682 0 1
144.798 0 1
144.914 0 1
145.03 0 1
145.146 1966 44.3396
145.262 2108 45.913
145.378 2080 45.607
145.494 2229 47.2123
145.61 2259 47.5289
145.726 2416 49.1528
145.842 2498 49.98
145.959 2561 50.6063
146.075 2451 49.5076
146.192 2512 50.1199
146.308 2399 48.9796
146.425 2420 49.1935
146.541 2545 50.448
146.658 2624 51.225
146.774 2660 51.5752
146.891 2680 51.7687
147.008 2778 52.7067
147.125 2867 53.5444
147.241 2891 53.768
147.358 3007 54.8361
147.475 2896 53.8145
147.592 2947 54.2863
147.709 2783 52.7541
147.826 2868 53.5537
147.943 2697 51.9326
148.06 2712 52.0769
148.177 2687 51.8363
148.294 2631 51.2933
148.411 2645 51.4296
148.528 2531 50.309
148.645 2507 50.07
148.762 2407 49.0612
148.88 2437 49.366
148.997 2550 50.4975
149.114 2412 49.1121
149.231 2554 50.5371
149.349 2524 50.2394
149.466 2525 50.2494
149.583 2703 51.9904
149.701 2649 51.4684
149.818 2491 49.9099
149.935 2581 50.8035
150.053 2489 49.8899
150.17 2491 49.9099
150.287 2578 50.774
150.405 2623 51.2152
150.522 2797 52.8867
150.64 2879 53.6563
150.757 2962 54.4243
150.875 2882 53.6843
150.992 2940 54.2218
151.11 2902 53.8702
151.227 2985 54.6352
151.344 3070 55.4076
151.462 2957 54.3783
151.579 2869 53.563
151.697 2894 53.7959
151.814 2829 53.1883
151.932 2750 52.4404
152.049 2694 51.9038
152.167 2573 50.7247
152.284 2635 51.3323
152.402 2653 51.5073
152.519 2662 51.5946
152.636 2621 51.1957
152.754 2561 50.6063
152.871 2604 51.0294
152.989 2664 51.614
153.106 2778 52.7067
153.223 2756 52.4976
153.341 2708 52.0384
153.458 2656 51.5364
153.575 2712 52.0769
153.693 2609 51.0784
153.81 2724 52.192
153.927 2766 52.5928
154.044 2961 54.4151
154.162 2984 54.626
154.279 3126 55.9106
154.396 3136 56
154.513 3126 55.9106
154.63 3168 56.285
154.747 3189 56.4712
154.864 3088 55.5698
154.981 3123 55.8838
155.098 3052 55.2449
155.215 3002 54.7905
155.332 2920 54.037
155.449 2915 53.9907
155.566 2645 51.4296
155.683 2640 51.3809
155.8 2638 51.3615
155.917 2543 50.4282
156.033 2406 49.051
156.15 0 1
156.267 0 1
156.383 0 1
156.5 0 1
156.617 0 1
156.733 0 1
156.85 0 1
156.966 0 1
157.082 0 1
157.199 0 1
157.315 0 1
157.431 0 1
157.547 0 1
157.664 0 1
157.78 0 1
157.896 0 1
158.012 0 1
158.128 0 1
158.244 0 1
158.359 0 1
158.475 0 1
158.591 0 1
158.706 0 1
