
6.15755 0 1
6.2731 0 1
6.3887 0 1
6.50437 0 1
6.62009 0 1
6.73587 0 1
6.8517 0 1
6.96759 0 1
7.08353 0 1
7.19952 0 1
7.31557 0 1
7.43166 0 1
7.54781 0 1
7.664 0 1
7.78024 0 1
7.89653 0 1
8.01286 0 1
8.12924 0 1
8.24567 0 1
8.36213 0 1
8.47864 0 1
8.59519 0 1
8.71178 0 1
8.82841 0 1
8.94508 0 1
9.06179 0 1
9.17853 0 1
9.29531 0 1
9.41212 0 1
9.52897 0 1
9.64584 0 1
9.76276 0 1
9.8797 0 1
9.99667 0 1
10.1137 0 1
10.2307 0 1
10.3478 0 1
10.4648 0 1
10.5819 0 1
10.6991 0 1
10.8162 0 1
10.9334 0 1
11.0506 0 1
11.1678 0 1
11.285 0 1
11.4023 0 1
11.5196 0 1
11.6369 0 1
11.7542 0 1
11.8715 0 1
11.9888 0 1
12.1062 0 1
12.2235 0 1
12.3409 0 1
12.4582 0 1
12.5756 0 1
12.693 0 1
12.8104 0 1
12.9278 0 1
13.0452 0 1
13.1626 0 1
13.28 0 1
13.3974 0 1
13.5149 0 1
13.6323 0 1
13.7497 0 1
13.8671 0 1
13.9845 0 1
14.1019 0 1
14.2193 0 1
14.3367 0 1
14.4541 0 1
14.5714 0 1
14.6888 0 1
14.8062 0 1
14.9235 0 1
15.0408 840 28.9828
15.1581 862 29.3598
15.2755 907 30.1164
15.3927 902 30.0333
15.51 924 30.3974
15.6273 941 30.6757
15.7445 971 31.1609
15.8617 998 31.5911
15.9789 902 30.0333
16.0961 908 30.133
16.2132 857 29.2746
16.3304 887 29.7825
16.4475 877 29.6142
16.5646 915 30.249
16.6816 844 29.0517
16.7986 890 29.8329
16.9156 870 29.4958
17.0326 841 29
17.1496 869 29.4788
17.2665 831 28.8271
17.3833 848 29.1204
17.5002 844 29.0517
17.617 783 27.9821
17.7338 783 27.9821
17.8505 886 29.7658
17.9672 875 29.5804
18.0839 915 30.249
18.2005 951 30.8383
18.3171 1017 31.8904
18.4337 924 30.3974
18.5502 977 31.257
18.6666 1037 32.2025
18.7831 995 31.5436
18.8994 964 31.0483
19.0158 1009 31.7648
19.1321 974 31.209
19.2483 939 30.6431
19.3645 878 29.6311
19.4806 866 29.4279
19.5967 862 29.3598
19.7128 806 28.3901
19.8288 852 29.189
19.9447 745 27.2947
20.0606 0 1
20.1764 0 1
20.2922 0 1
20.4079 0 1
20.5236 0 1
20.6392 0 1
20.7548 0 1
20.8702 0 1
23.3078 0 1
23.4233 0 1
23.539 0 1
23.6547 0 1
23.7704 0 1
23.8862 0 1
24.0021 0 1
24.118 0 1
24.234 0 1
24.35 0 1
24.4661 872 29.5296
24.5822 872 29.5296
24.6984 891 29.8496
24.8146 887 29.7825
24.9309 852 29.189
25.0472 870 29.4958
25.1636 886 29.7658
25.28 988 31.4325
25.3965 921 30.348
25.513 1010 31.7805
25.6296 972 31.1769
25.7462 1010 31.7805
25.8628 1019 31.9218
25.9795 981 31.3209
26.0962 930 30.4959
26.213 970 31.1448
26.3298 1007 31.7333
26.4466 984 31.3688
26.5635 954 30.8869
26.6804 917 30.282
26.7973 904 30.0666
26.9143 927 30.4467
27.0313 962 31.0161
27.1483 844 29.0517
27.2653 780 27.9285
27.3824 899 29.9833
27.4996 933 30.545
27.6167 908 30.133
27.7339 937 30.6105
27.8511 948 30.7896
27.9683 891 29.8496
28.0855 883 29.7153
28.2028 910 30.1662
28.3201 868 29.4618
28.4374 858 29.2916
28.5547 903 30.05
28.6721 817 28.5832
28.7894 892 29.8664
28.9068 888 29.7993
29.0242 864 29.3939
29.1416 910 30.1662
29.259 892 29.8664
29.3764 888 29.7993
29.4939 843 29.0345
29.6113 882 29.6985
29.7288 845 29.0689
29.8463 733 27.074
29.9638 836 28.9137
30.0812 794 28.178
30.1987 876 29.5973
30.3162 883 29.7153
30.4337 835 28.8964
30.5512 786 28.0357
30.6687 785 28.0179
30.7862 791 28.1247
30.9037 847 29.1033
31.0212 849 29.1376
31.1387 908 30.133
31.2562 940 30.6594
31.3737 977 31.257
31.4912 916 30.2655
31.6087 918 30.2985
31.7262 930 30.4959
31.8436 818 28.6007
31.9611 812 28.4956
32.0785 860 29.3258
32.1959 863 29.3769
32.3134 858 29.2916
32.4308 843 29.0345
32.5482 840 28.9828
32.6655 870 29.4958
32.7829 811 28.4781
32.9002 825 28.7228
33.0176 791 28.1247
33.1349 762 27.6043
33.2522 774 27.8209
33.3694 805 28.3725
33.4867 781 27.9464
33.6039 755 27.4773
33.7211 785 28.0179
33.8383 799 28.2666
33.9554 837 28.931
34.0725 843 29.0345
34.1896 804 28.3549
34.3067 781 27.9464
34.4237 768 27.7128
34.5407 770 27.7489
34.6577 862 29.3598
34.7746 872 29.5296
34.8915 869 29.4788
35.0084 874 29.5635
35.1252 889 29.8161
35.242 897 29.95
35.3587 832 28.8444
35.4755 882 29.6985
35.5921 837 28.931
35.7088 796 28.2135
35.8254 772 27.7849
35.9419 773 27.8029
36.0584 782 27.9643
36.1749 765 27.6586
36.2913 747 27.3313
36.4077 759 27.55
36.524 727 26.9629
36.6403 729 27
36.7565 669 25.865
36.8727 693 26.3249
36.9889 677 26.0192
37.1049 707 26.5895
37.221 0 1
37.3369 0 1
37.4529 0 1
37.5687 0 1
37.6845 0 1
37.8003 0 1
37.916 0 1
38.0316 0 1
38.1472 0 1
40.5851 0 1
40.7008 0 1
40.8164 0 1
40.9322 0 1
41.048 0 1
41.1639 0 1
41.2798 0 1
41.3958 0 1
41.5118 0 1
41.6279 0 1
41.744 562 23.7065
41.8602 615 24.7992
41.9765 633 25.1595
42.0928 557 23.6008
42.2091 566 23.7908
42.3255 591 24.3105
42.4419 578 24.0416
42.5584 567 23.8118
42.675 592 24.3311
42.7915 642 25.3377
42.9081 607 24.6374
43.0248 589 24.2693
43.1415 590 24.2899
43.2582 562 23.7065
43.375 595 24.3926
43.4918 633 25.1595
43.6087 659 25.671
43.7256 698 26.4197
43.8425 620 24.8998
43.9595 632 25.1396
44.0765 619 24.8797
44.1935 595 24.3926
44.3106 562 23.7065
44.4277 585 24.1868
44.5448 538 23.1948
44.6619 507 22.5167
44.7791 501 22.383
44.8963 532 23.0651
45.0136 527 22.9565
45.1308 520 22.8035
45.2481 467 21.6102
45.3654 501 22.383
45.4827 473 21.7486
45.6001 472 21.7256
45.7174 440 20.9762
45.8348 455 21.3307
45.9522 396 19.8997
46.0697 395 19.8746
46.1871 451 21.2368
46.3046 435 20.8567
46.422 429 20.7123
46.5395 442 21.0238
46.657 440 20.9762
46.7745 386 19.6469
46.892 430 20.7364
47.0096 424 20.5913
47.1271 415 20.3715
47.2446 404 20.0998
47.3622 436 20.8806
47.4797 448 21.166
47.5973 446 21.1187
47.7149 400 20
47.8324 420 20.4939
47.95 397 19.9249
48.0675 371 19.2614
48.1851 343 18.5203
48.3027 374 19.3391
48.4202 360 18.9737
48.5378 379 19.4679
48.6554 397 19.9249
48.7729 396 19.8997
48.8904 383 19.5704
49.008 352 18.7617
49.1255 392 19.799
49.243 349 18.6815
49.3605 298 17.2627
49.478 347 18.6279
49.5955 338 18.3848
49.713 340 18.4391
49.8304 355 18.8414
49.9479 379 19.4679
50.0653 406 20.1494
50.1827 349 18.6815
50.3001 360 18.9737
50.4175 392 19.799
50.5348 405 20.1246
50.6521 406 20.1494
50.7694 482 21.9545
50.8867 404 20.0998
51.004 469 21.6564
51.1212 471 21.7025
51.2384 466 21.587
51.3556 448 21.166
51.4727 431 20.7605
51.5899 473 21.7486
51.707 431 20.7605
51.824 487 22.0681
51.9411 503 22.4277
52.0581 491 22.1585
52.175 484 22
52.2919 500 22.3607
52.4088 479 21.8861
52.5257 488 22.0907
52.6425 533 23.0868
52.7593 495 22.2486
52.876 479 21.8861
52.9927 495 22.2486
53.1094 497 22.2935
53.226 513 22.6495
53.3426 531 23.0434
53.4591 542 23.2809
53.5756 548 23.4094
53.692 510 22.5832
53.8084 537 23.1733
53.9248 493 22.2036
54.0411 496 22.2711
54.1573 553 23.516
54.2735 0 1
54.3896 0 1
54.5057 0 1
54.6217 0 1
54.7377 0 1
54.8537 0 1
54.9695 0 1
55.0853 0 1
55.2011 0 1
55.3168 0 1
55.4324 0 1
57.824 0 1
57.9396 0 1
58.0553 0 1
58.1711 0 1
58.2869 0 1
58.4028 0 1
58.5187 0 1
58.6347 0 1
58.7508 0 1
58.8669 0 1
58.983 558 23.622
59.0992 597 24.4336
59.2155 593 24.3516
59.3318 618 24.8596
59.4482 686 26.1916
59.5646 724 26.9072
59.681 673 25.9422
59.7975 669 25.865
59.9141 637 25.2389
60.0306 697 26.4008
60.1473 623 24.96
60.2639 628 25.0599
60.3807 638 25.2587
60.4974 607 24.6374
60.6142 682 26.1151
60.731 602 24.5357
60.8479 622 24.9399
60.9648 643 25.3574
61.0818 634 25.1794
61.1987 615 24.7992
61.3158 619 24.8797
61.4328 561 23.6854
61.5499 572 23.9165
61.667 527 22.9565
61.7841 498 22.3159
61.9013 530 23.0217
62.0185 539 23.2164
62.1357 542 23.2809
62.253 540 23.2379
62.3702 533 23.0868
62.4875 489 22.1133
62.6049 521 22.8254
62.7222 578 24.0416
62.8396 573 23.9374
62.9569 647 25.4362
63.0743 573 23.9374
63.1918 657 25.632
63.3092 633 25.1595
63.4267 558 23.622
63.5441 579 24.0624
63.6616 562 23.7065
63.7791 585 24.1868
63.8966 518 22.7596
64.0142 548 23.4094
64.1317 531 23.0434
64.2492 550 23.4521
64.3668 563 23.7276
64.4843 563 23.7276
64.6019 581 24.1039
64.7195 508 22.5389
64.837 509 22.561
64.9546 497 22.2935
65.0722 541 23.2594
65.1898 531 23.0434
65.3074 449 21.1896
65.4249 496 22.2711
65.5425 474 21.7715
65.6601 506 22.4944
65.7777 488 22.0907
65.8952 512 22.6274
66.0128 509 22.561
66.1304 486 22.0454
66.2479 460 21.4476
66.3655 462 21.4942
66.483 540 23.2379
66.6005 595 24.3926
66.718 564 23.7487
66.8355 562 23.7065
66.953 574 23.9583
67.0705 554 23.5372
67.1879 541 23.2594
67.3054 528 22.9783
67.4228 500 22.3607
67.5402 529 23
67.6576 578 24.0416
67.7749 544 23.3238
67.8923 558 23.622
68.0096 575 23.9792
68.1269 527 22.9565
68.2442 593 24.3516
68.3614 538 23.1948
68.4787 531 23.0434
68.5958 508 22.5389
68.713 490 22.1359
68.8302 455 21.3307
68.9473 450 21.2132
69.0643 487 22.0681
69.1814 497 22.2935
69.2984 549 23.4307
69.4154 528 22.9783
69.5323 549 23.4307
69.6492 565 23.7697
69.7661 505 22.4722
69.8829 489 22.1133
69.9997 571 23.8956
70.1165 547 23.388
70.2332 613 24.7588
70.3499 644 25.3772
70.4665 638 25.2587
70.5831 719 26.8142
70.6996 559 23.6432
70.8161 609 24.6779
70.9326 618 24.8596
71.049 588 24.2487
71.1653 531 23.0434
71.2817 575 23.9792
71.3979 556 23.5797
71.5141 567 23.8118
71.6303 607 24.6374
71.7464 532 23.0651
71.8624 0 1
71.9784 0 1
72.0944 0 1
72.2102 0 1
72.3261 0 1
72.4418 0 1
72.5575 0 1
72.6732 0 1
75.1054 0 1
75.2209 0 1
75.3365 0 1
75.4521 0 1
75.5678 0 1
75.6835 0 1
75.7993 0 1
75.9151 0 1
76.031 0 1
76.147 548 23.4094
76.263 591 24.3105
76.3791 577 24.0208
76.4952 547 23.388
76.6113 553 23.516
76.7276 576 24
76.8438 551 23.4734
76.9601 608 24.6577
77.0765 628 25.0599
77.1929 622 24.9399
77.3093 592 24.3311
77.4258 565 23.7697
77.5423 611 24.7184
77.6589 560 23.6643
77.7755 543 23.3024
77.8921 550 23.4521
78.0088 516 22.7156
78.1256 557 23.6008
78.2423 595 24.3926
78.3591 539 23.2164
78.4759 559 23.6432
78.5928 558 23.622
78.7097 549 23.4307
78.8266 456 21.3542
78.9436 458 21.4009
79.0606 514 22.6716
79.1776 563 23.7276
79.2946 615 24.7992
79.4117 588 24.2487
79.5288 594 24.3721
79.6459 566 23.7908
79.7631 602 24.5357
79.8802 574 23.9583
79.9974 573 23.9374
80.1147 516 22.7156
80.2319 537 23.1733
80.3491 468 21.6333
80.4664 527 22.9565
80.5837 575 23.9792
80.701 550 23.4521
80.8183 630 25.0998
80.9357 565 23.7697
81.053 577 24.0208
81.1704 579 24.0624
81.2877 528 22.9783
81.4051 507 22.5167
81.5225 510 22.5832
81.6399 455 21.3307
81.7573 428 20.6882
81.8747 454 21.3073
81.9922 505 22.4722
82.1096 508 22.5389
82.227 529 23
82.3444 513 22.6495
82.4619 477 21.8403
82.5793 473 21.7486
82.6967 465 21.5639
82.8142 527 22.9565
82.9316 498 22.3159
83.049 542 23.2809
83.1664 552 23.4947
83.2838 489 22.1133
83.4012 568 23.8328
83.5186 540 23.2379
83.636 498 22.3159
83.7534 506 22.4944
83.8708 473 21.7486
83.9881 477 21.8403
84.1055 550 23.4521
84.2228 545 23.3452
84.3401 574 23.9583
84.4575 564 23.7487
84.5747 561 23.6854
84.692 513 22.6495
84.8093 547 23.388
84.9265 462 21.4942
85.0437 493 22.2036
85.1609 486 22.0454
85.2781 477 21.8403
85.3952 489 22.1133
85.5123 521 22.8254
85.6294 542 23.2809
85.7465 519 22.7816
85.8636 561 23.6854
85.9806 582 24.1247
86.0976 509 22.561
86.2145 534 23.1084
86.3315 589 24.2693
86.4484 558 23.622
86.5652 617 24.8395
86.682 608 24.6577
86.7988 622 24.9399
86.9156 629 25.0799
87.0323 649 25.4755
87.149 618 24.8596
87.2657 603 24.5561
87.3823 628 25.0599
87.4988 597 24.4336
87.6154 590 24.2899
87.7318 625 25
87.8483 701 26.4764
87.9647 699 26.4386
88.081 690 26.2679
88.1973 726 26.9444
88.3136 672 25.923
88.4298 605 24.5967
88.546 669 25.865
88.6621 579 24.0624
88.7781 636 25.219
88.8942 0 1
89.0101 0 1
89.126 0 1
89.2419 0 1
89.3577 0 1
89.4734 0 1
89.5891 0 1
89.7047 0 1
89.8203 0 1
89.9358 0 1
92.3269 0 1
92.4424 0 1
92.558 0 1
92.6736 0 1
92.7893 0 1
92.905 0 1
93.0208 0 1
93.1366 0 1
93.2525 0 1
93.3685 0 1
93.4845 0 1
93.6005 751 27.4044
93.7167 737 27.1477
93.8328 717 26.7769
93.949 700 26.4575
94.0653 691 26.2869
94.1816 667 25.8263
94.2979 612 24.7386
94.4143 625 25
94.5307 671 25.9037
94.6472 677 26.0192
94.7637 638 25.2587
94.8803 724 26.9072
94.9969 670 25.8844
95.1135 699 26.4386
95.2302 681 26.096
95.3469 658 25.6515
95.4637 727 26.9629
95.5805 725 26.9258
95.6973 753 27.4408
95.8142 754 27.4591
95.9311 788 28.0713
96.048 744 27.2764
96.1649 777 27.8747
96.2819 781 27.9464
96.3989 743 27.258
96.516 739 27.1846
96.633 710 26.6458
96.7501 776 27.8568
96.8673 714 26.7208
96.9844 772 27.7849
97.1016 763 27.6225
97.2188 808 28.4253
97.336 807 28.4077
97.4532 777 27.8747
97.5704 747 27.3313
97.6877 752 27.4226
97.805 723 26.8887
97.9223 696 26.3818
98.0396 651 25.5147
98.1569 660 25.6905
98.2743 709 26.6271
98.3916 744 27.2764
98.509 741 27.2213
98.6264 783 27.9821
98.7438 746 27.313
98.8612 766 27.6767
98.9786 785 28.0179
99.096 784 28
99.2134 736 27.1293
99.3308 810 28.4605
99.4482 782 27.9643
99.5656 795 28.1957
99.6831 780 27.9285
99.8005 759 27.55
99.9179 779 27.9106
100.035 767 27.6948
100.153 749 27.3679
100.27 758 27.5318
100.388 782 27.9643
100.505 804 28.3549
100.622 773 27.8029
100.74 898 29.9666
100.857 825 28.7228
100.975 880 29.6648
101.092 794 28.178
101.209 840 28.9828
101.327 767 27.6948
101.444 780 27.9285
101.561 717 26.7769
101.679 683 26.1343
101.796 748 27.3496
101.913 806 28.3901
102.03 840 28.9828
102.148 862 29.3598
102.265 799 28.2666
102.382 882 29.6985
102.499 803 28.3373
102.616 834 28.8791
102.733 828 28.775
102.851 872 29.5296
102.968 960 30.9839
103.085 868 29.4618
103.202 906 30.0998
103.319 854 29.2233
103.436 944 30.7246
103.552 899 29.9833
103.669 864 29.3939
103.786 837 28.931
103.903 953 30.8707
104.02 877 29.6142
104.137 966 31.0805
104.253 972 31.1769
104.37 1043 32.2955
104.487 1033 32.1403
104.603 1009 31.7648
104.72 983 31.3528
104.836 966 31.0805
104.953 900 30
105.069 914 30.2324
105.186 867 29.4449
105.302 878 29.6311
105.418 970 31.1448
105.535 945 30.7409
105.651 1081 32.8786
105.767 1021 31.9531
105.883 969 31.1288
105.999 1007 31.7333
106.115 0 1
106.231 0 1
106.347 0 1
106.463 0 1
106.579 0 1
106.694 0 1
106.81 0 1
106.926 0 1
107.041 0 1
107.157 0 1
109.576 0 1
109.692 0 1
109.807 0 1
109.923 0 1
110.039 0 1
110.155 0 1
110.27 0 1
110.386 0 1
110.502 0 1
110.618 973 31.1929
110.735 1017 31.8904
110.851 1049 32.3883
110.967 1004 31.686
111.083 999 31.607
111.199 1006 31.7175
111.316 922 30.3645
111.432 1062 32.5883
111.549 994 31.5278
111.665 1078 32.8329
111.782 1038 32.218
111.898 1048 32.3728
112.015 978 31.273
112.132 998 31.5911
112.248 994 31.5278
112.365 1008 31.749
112.482 920 30.3315
112.599 981 31.3209
112.716 1030 32.0936
112.832 989 31.4484
112.949 1036 32.187
113.066 1015 31.8591
113.183 1063 32.6037
113.3 1068 32.6803
113.417 971 31.1609
113.534 1020 31.9374
113.652 936 30.5941
113.769 911 30.1828
113.886 944 30.7246
114.003 914 30.2324
114.12 994 31.5278
114.238 1035 32.1714
114.355 1008 31.749
114.472 1022 31.9687
114.589 983 31.3528
114.707 962 31.0161
114.824 942 30.692
114.942 1004 31.686
115.059 944 30.7246
115.176 999 31.607
115.294 1058 32.5269
115.411 991 31.4802
115.529 1018 31.9061
115.646 952 30.8545
115.764 1032 32.1248
115.881 952 30.8545
115.999 964 31.0483
116.116 1004 31.686
116.234 1046 32.3419
116.351 1073 32.7567
116.469 1082 32.8938
116.586 1112 33.3467
116.704 1161 34.0735
116.821 1121 33.4813
116.939 1128 33.5857
117.056 1100 33.1662
117.174 1079 32.8481
117.291 1126 33.5559
117.409 1018 31.9061
117.526 1056 32.4962
117.644 1041 32.2645
117.761 1101 33.1813
117.879 1090 33.0151
117.996 1102 33.1964
118.114 1106 33.2566
118.231 1022 31.9687
118.349 1070 32.7109
118.466 1054 32.4654
118.584 1070 32.7109
118.701 1070 32.7109
118.819 1154 33.9706
118.936 1071 32.7261
119.053 1105 33.2415
119.171 990 31.4643
119.288 1016 31.8748
119.405 1017 31.8904
119.523 1036 32.187
119.64 1003 31.6702
119.757 974 31.209
119.875 986 31.4006
119.992 1078 32.8329
120.109 1070 32.7109
120.226 1193 34.5398
120.343 1182 34.3802
120.46 1209 34.7707
120.578 1198 34.6121
120.695 1124 33.5261
120.812 1171 34.2199
120.929 1154 33.9706
121.046 1080 32.8634
121.163 1022 31.9687
121.279 1084 32.9242
121.396 1081 32.8786
121.513 1163 34.1028
121.63 1173 34.2491
121.747 1072 32.7414
121.863 1060 32.5576
121.98 1110 33.3167
122.097 1019 31.9218
122.213 1037 32.2025
122.33 1024 32
122.446 1023 31.9844
122.563 1062 32.5883
122.679 1051 32.4191
122.795 962 31.0161
122.912 987 31.4166
123.028 957 30.9354
123.144 966 31.0805
123.26 1020 31.9374
123.377 0 1
123.493 0 1
123.609 0 1
123.725 0 1
123.84 0 1
123.956 0 1
124.072 0 1
124.188 0 1
124.303 0 1
124.419 0 1
126.852 0 1
126.968 0 1
127.083 0 1
127.199 0 1
127.315 0 1
127.431 0 1
127.547 0 1
127.663 0 1
127.779 0 1
127.895 0 1
128.011 0 1
128.127 0 1
128.243 0 1
128.359 1223 34.9714
128.476 1194 34.5543
128.592 1167 34.1614
128.708 1171 34.2199
128.825 1143 33.8083
128.941 1189 34.4819
129.058 1223 34.9714
129.174 1207 34.7419
129.291 1301 36.0694
129.408 1285 35.8469
129.524 1335 36.5377
129.641 1326 36.4143
129.758 1324 36.3868
129.875 1342 36.6333
129.992 1368 36.9865
130.108 1363 36.9188
130.225 1383 37.1887
130.342 1389 37.2693
130.459 1433 37.855
130.576 1425 37.7492
130.693 1423 37.7227
130.81 1394 37.3363
130.928 1369 37
131.045 1377 37.108
131.162 1333 36.5103
131.279 1400 37.4166
131.396 1454 38.1314
131.513 1431 37.8286
131.631 1419 37.6696
131.748 1389 37.2693
131.865 1392 37.3095
131.983 1336 36.5513
132.1 1392 37.3095
132.217 1294 35.9722
132.335 1313 36.2353
132.452 1328 36.4417
132.57 1320 36.3318
132.687 1347 36.7015
132.804 1336 36.5513
132.922 1389 37.2693
133.039 1401 37.4299
133.157 1376 37.0945
133.274 1361 36.8917
133.392 1428 37.7889
133.509 1495 38.6652
133.627 1408 37.5233
133.744 1397 37.3765
133.862 1472 38.3667
133.979 1517 38.9487
134.097 1472 38.3667
134.214 1509 38.8458
134.332 1554 39.4208
134.449 1629 40.3609
134.567 1489 38.5876
134.684 1491 38.6135
134.802 1566 39.5727
134.919 1549 39.3573
135.037 1605 40.0625
135.154 1523 39.0256
135.272 1493 38.6394
135.389 1599 39.9875
135.507 1535 39.1791
135.624 1485 38.5357
135.742 1392 37.3095
135.859 1413 37.5899
135.977 1409 37.5366
136.094 1475 38.4057
136.211 1438 37.921
136.329 1505 38.7943
136.446 1475 38.4057
136.564 1457 38.1707
136.681 1464 38.2623
136.798 1462 38.2361
136.915 1427 37.7757
137.033 1446 38.0263
137.15 1428 37.7889
137.267 1415 37.6165
137.384 1551 39.3827
137.502 1471 38.3536
137.619 1562 39.5221
137.736 1524 39.0384
137.853 1571 39.6358
137.97 1633 40.4104
138.087 1637 40.4599
138.204 1662 40.7676
138.321 1600 40
138.438 1681 41
138.555 1672 40.8901
138.672 1682 41.0122
138.788 1681 41
138.905 1650 40.6202
139.022 1667 40.8289
139.139 1617 40.2119
139.255 1588 39.8497
139.372 1475 38.4057
139.488 1548 39.3446
139.605 1545 39.3065
139.721 1488 38.5746
139.838 1446 38.0263
139.954 1549 39.3573
140.071 1498 38.704
140.187 1545 39.3065
140.303 1580 39.7492
140.419 1551 39.3827
140.535 1593 39.9124
140.652 1514 38.9102
140.768 0 1
140.884 0 1
141 0 1
141.115 0 1
141.231 0 1
141.347 0 1
141.463 0 1
141.578 0 1
141.694 0 1
144.104 0 1
144.219 0 1
144.335 0 1
144.45 0 1
144.566 0 1
144.682 0 1
144.798 0 1
144.914 0 1
145.03 0 1
145.146 1230 35.0714
145.262 1287 35.8748
145.378 1330 36.4692
145.494 1408 37.5233
145.61 1395 37.3497
145.726 1348 36.7151
145.842 1383 37.1887
145.959 1424 37.7359
146.075 1312 36.2215
146.192 1323 36.3731
146.308 1367 36.973
146.425 1299 36.0416
146.541 1413 37.5899
146.658 1307 36.1525
146.774 1288 35.8887
146.891 1340 36.606
147.008 1277 35.7351
147.125 1307 36.1525
147.241 1248 35.327
147.358 1293 35.9583
147.475 1302 36.0832
147.592 1259 35.4824
147.709 1270 35.6371
147.826 1290 35.9166
147.943 1406 37.4967
148.06 1410 37.55
148.177 1379 37.1349
148.294 1415 37.6165
148.411 1408 37.5233
148.528 1389 37.2693
148.645 1415 37.6165
148.762 1419 37.6696
148.88 1449 38.0657
148.997 1447 38.0395
149.114 1524 39.0384
149.231 1492 38.6264
149.349 1476 38.4187
149.466 1553 39.4081
149.583 1564 39.5474
149.701 1558 39.4715
149.818 1453 38.1182
149.935 1540 39.2428
150.053 1449 38.0657
150.17 1473 38.3797
150.287 1468 38.3145
150.405 1502 38.7556
150.522 1437 37.9078
150.64 1425 37.7492
150.757 1401 37.4299
150.875 1344 36.6606
150.992 1354 36.7967
151.11 1283 35.819
151.227 1288 35.8887
151.344 1261 35.5106
151.462 1311 36.2077
151.579 1170 34.2053
151.697 1251 35.3695
151.814 1235 35.1426
151.932 1248 35.327
152.049 1220 34.9285
152.167 1216 34.8712
152.284 1270 35.6371
152.402 1310 36.1939
152.519 1346 36.6879
152.636 1296 36
152.754 1380 37.1484
152.871 1388 37.2559
152.989 1410 37.55
153.106 1417 37.6431
153.223 1482 38.4968
153.341 1403 37.4566
153.458 1449 38.0657
153.575 1543 39.281
153.693 1531 39.128
153.81 1575 39.6863
153.927 1616 40.1995
154.044 1577 39.7115
154.162 1560 39.4968
154.279 1569 39.6106
154.396 1494 38.6523
154.513 1552 39.3954
154.63 1563 39.5348
154.747 1491 38.6135
154.864 1502 38.7556
154.981 1513 38.8973
155.098 1562 39.5221
155.215 1494 38.6523
155.332 1445 38.0132
155.449 1314 36.2491
155.566 1282 35.805
155.683 1265 35.5668
155.8 1270 35.6371
155.917 1139 33.7491
156.033 1122 33.4963
156.15 0 1
156.267 0 1
156.383 0 1
156.5 0 1
156.617 0 1
156.733 0 1
156.85 0 1
156.966 0 1
157.082 0 1
157.199 0 1
157.315 0 1
157.431 0 1
157.547 0 1
157.664 0 1
157.78 0 1
157.896 0 1
158.012 0 1
158.128 0 1
158.244 0 1
158.359 0 1
158.475 0 1
158.591 0 1
158.706 0 1
