
6.15755 0 1
6.2731 0 1
6.3887 0 1
6.50437 0 1
6.62009 0 1
6.73587 0 1
6.8517 0 1
6.96759 0 1
7.08353 0 1
7.19952 0 1
7.31557 0 1
7.43166 0 1
7.54781 0 1
7.664 0 1
7.78024 0 1
7.89653 0 1
8.01286 0 1
8.12924 0 1
8.24567 0 1
8.36213 0 1
8.47864 0 1
8.59519 0 1
8.71178 0 1
8.82841 0 1
8.94508 0 1
9.06179 0 1
9.17853 0 1
9.29531 0 1
9.41212 0 1
9.52897 0 1
9.64584 0 1
9.76276 0 1
9.8797 0 1
9.99667 0 1
10.1137 0 1
10.2307 0 1
10.3478 0 1
10.4648 0 1
10.5819 0 1
10.6991 0 1
10.8162 0 1
10.9334 0 1
11.0506 0 1
11.1678 0 1
11.285 0 1
11.4023 0 1
11.5196 0 1
11.6369 0 1
11.7542 0 1
11.8715 0 1
11.9888 0 1
12.1062 0 1
12.2235 0 1
12.3409 0 1
12.4582 0 1
12.5756 0 1
12.693 0 1
12.8104 0 1
12.9278 0 1
13.0452 0 1
13.1626 0 1
13.28 0 1
13.3974 0 1
13.5149 0 1
13.6323 0 1
13.7497 0 1
13.8671 0 1
13.9845 0 1
14.1019 0 1
14.2193 0 1
14.3367 0 1
14.4541 0 1
14.5714 0 1
14.6888 0 1
14.8062 0 1
14.9235 0 1
15.0408 0 0
15.1581 0 0
15.2755 0 0
15.3927 0 0
15.51 0 0
15.6273 0 0
15.7445 0 0
15.8617 0 0
15.9789 0 0
16.0961 0 0
16.2132 0 0
16.3304 0 0
16.4475 0 0
16.5646 0 0
16.6816 0 0
16.7986 0 0
16.9156 0 0
17.0326 0 0
17.1496 0 0
17.2665 0 0
17.3833 0 0
17.5002 0 0
17.617 0 0
17.7338 0 0
17.8505 0 0
17.9672 0 0
18.0839 0 0
18.2005 0 0
18.3171 0 0
18.4337 0 0
18.5502 0 0
18.6666 0 0
18.7831 0 0
18.8994 0 0
19.0158 0 0
19.1321 0 0
19.2483 0 0
19.3645 0 0
19.4806 0 0
19.5967 0 0
19.7128 0 0
19.8288 0 0
19.9447 0 0
20.0606 0 1
20.1764 0 1
20.2922 0 1
20.4079 0 1
20.5236 0 1
20.6392 0 1
20.7548 0 1
20.8702 0 1
23.3078 0 1
23.4233 0 1
23.539 0 1
23.6547 0 1
23.7704 0 1
23.8862 0 1
24.0021 0 1
24.118 0 1
24.234 0 1
24.35 0 1
24.4661 1282 35.805
24.5822 1388 37.2559
24.6984 1510 38.8587
24.8146 1622 40.2741
24.9309 1910 43.7035
25.0472 2179 46.6798
25.1636 2425 49.2443
25.28 2564 50.636
25.3965 2608 51.0686
25.513 2751 52.45
25.6296 2693 51.8941
25.7462 2664 51.614
25.8628 2621 51.1957
25.9795 2588 50.8724
26.0962 2601 51
26.213 2707 52.0288
26.3298 2825 53.1507
26.4466 2798 52.8961
26.5635 2697 51.9326
26.6804 2706 52.0192
26.7973 2587 50.8626
26.9143 2559 50.5866
27.0313 2559 50.5866
27.1483 2588 50.8724
27.2653 2433 49.3254
27.3824 2370 48.6826
27.4996 2279 47.7389
27.6167 2075 45.5522
27.7339 2187 46.7654
27.8511 2315 48.1144
27.9683 2343 48.4045
28.0855 2516 50.1597
28.2028 2463 49.6286
28.3201 2429 49.2849
28.4374 2445 49.4469
28.5547 2461 49.6085
28.6721 2547 50.4678
28.7894 2484 49.8397
28.9068 2524 50.2394
29.0242 2469 49.689
29.1416 2500 50
29.259 2569 50.6853
29.3764 2514 50.1398
29.4939 2433 49.3254
29.6113 2461 49.6085
29.7288 2403 49.0204
29.8463 2260 47.5395
29.9638 2356 48.5386
30.0812 2290 47.8539
30.1987 2294 47.8957
30.3162 2381 48.7955
30.4337 2402 49.0102
30.5512 2441 49.4065
30.6687 2429 49.2849
30.7862 2516 50.1597
30.9037 2406 49.051
31.0212 2256 47.4974
31.1387 2250 47.4342
31.2562 2220 47.1169
31.3737 2420 49.1935
31.4912 2513 50.1298
31.6087 2492 49.9199
31.7262 2433 49.3254
31.8436 2435 49.3457
31.9611 2446 49.4571
32.0785 2445 49.4469
32.1959 2512 50.1199
32.3134 2379 48.775
32.4308 2400 48.9898
32.5482 2372 48.7032
32.6655 2266 47.6025
32.7829 2228 47.2017
32.9002 2180 46.6905
33.0176 2133 46.1844
33.1349 2158 46.4543
33.2522 2131 46.1628
33.3694 2124 46.0869
33.4867 2164 46.5188
33.6039 2104 45.8694
33.7211 2183 46.7226
33.8383 2222 47.1381
33.9554 2202 46.9255
34.0725 2312 48.0833
34.1896 2317 48.1352
34.3067 2358 48.5592
34.4237 2386 48.8467
34.5407 2296 47.9166
34.6577 2220 47.1169
34.7746 2222 47.1381
34.8915 2212 47.0319
35.0084 2353 48.5077
35.1252 2348 48.4562
35.242 2490 49.8999
35.3587 2426 49.2544
35.4755 2397 48.9592
35.5921 2412 49.1121
35.7088 2319 48.156
35.8254 2156 46.4327
35.9419 2142 46.2817
36.0584 2134 46.1952
36.1749 2052 45.299
36.2913 1995 44.6654
36.4077 1900 43.589
36.524 1897 43.5546
36.6403 1695 41.1704
36.7565 1530 39.1152
36.8727 1524 39.0384
36.9889 1427 37.7757
37.1049 1424 37.7359
37.221 0 1
37.3369 0 1
37.4529 0 1
37.5687 0 1
37.6845 0 1
37.8003 0 1
37.916 0 1
38.0316 0 1
38.1472 0 1
40.5851 0 1
40.7008 0 1
40.8164 0 1
40.9322 0 1
41.048 0 1
41.1639 0 1
41.2798 0 1
41.3958 0 1
41.5118 0 1
41.6279 0 1
41.744 2262 47.5605
41.8602 3061 55.3263
41.9765 3709 60.9016
42.0928 3789 61.5549
42.2091 3965 62.9682
42.3255 3943 62.7933
42.4419 3908 62.514
42.5584 3989 63.1585
42.675 3956 62.8967
42.7915 4103 64.0547
42.9081 4213 64.9076
43.0248 4212 64.8999
43.1415 4308 65.6354
43.2582 4090 63.9531
43.375 3762 61.3351
43.4918 3737 61.131
43.6087 3815 61.7657
43.7256 3863 62.153
43.8425 3949 62.8411
43.9595 4009 63.3167
44.0765 4040 63.561
44.1935 3973 63.0317
44.3106 3734 61.1065
44.4277 3719 60.9836
44.5448 3416 58.4466
44.6619 3486 59.0424
44.7791 3263 57.1227
44.8963 3152 56.1427
45.0136 2961 54.4151
45.1308 2770 52.6308
45.2481 2705 52.0096
45.3654 2479 49.7896
45.4827 2406 49.051
45.6001 2232 47.244
45.7174 2138 46.2385
45.8348 1978 44.4747
45.9522 1957 44.238
46.0697 2031 45.0666
46.1871 1904 43.6348
46.3046 1992 44.6318
46.422 2007 44.7996
46.5395 1976 44.4522
46.657 2026 45.0111
46.7745 2061 45.3982
46.892 1844 42.9418
47.0096 1859 43.1161
47.1271 1859 43.1161
47.2446 1949 44.1475
47.3622 1960 44.2719
47.4797 1941 44.0568
47.5973 1952 44.1814
47.7149 2052 45.299
47.8324 2000 44.7214
47.95 1969 44.3734
48.0675 1903 43.6234
48.1851 1880 43.359
48.3027 1876 43.3128
48.4202 1884 43.4051
48.5378 1713 41.3884
48.6554 1803 42.4617
48.7729 1705 41.2916
48.8904 1645 40.5586
49.008 1695 41.1704
49.1255 1692 41.1339
49.243 1650 40.6202
49.3605 1665 40.8044
49.478 1770 42.0714
49.5955 1739 41.7013
49.713 1846 42.9651
49.8304 1813 42.5793
49.9479 1862 43.1509
50.0653 1899 43.5775
50.1827 1891 43.4856
50.3001 1721 41.4849
50.4175 1618 40.2244
50.5348 1533 39.1535
50.6521 1593 39.9124
50.7694 1724 41.5211
50.8867 1898 43.566
51.004 1863 43.1625
51.1212 1914 43.7493
51.2384 1979 44.486
51.3556 1941 44.0568
51.4727 1854 43.0581
51.5899 1818 42.638
51.707 1822 42.6849
51.824 1854 43.0581
51.9411 1796 42.3792
52.0581 1763 41.9881
52.175 1791 42.3202
52.2919 1737 41.6773
52.4088 1772 42.0951
52.5257 1688 41.0853
52.6425 1694 41.1582
52.7593 1623 40.2865
52.876 1656 40.694
52.9927 1622 40.2741
53.1094 1548 39.3446
53.226 1685 41.0488
53.3426 1620 40.2492
53.4591 1647 40.5832
53.5756 1564 39.5474
53.692 1296 36
53.8084 1221 34.9428
53.9248 1098 33.1361
54.0411 987 31.4166
54.1573 951 30.8383
54.2735 0 1
54.3896 0 1
54.5057 0 1
54.6217 0 1
54.7377 0 1
54.8537 0 1
54.9695 0 1
55.0853 0 1
55.2011 0 1
55.3168 0 1
55.4324 0 1
57.824 0 1
57.9396 0 1
58.0553 0 1
58.1711 0 1
58.2869 0 1
58.4028 0 1
58.5187 0 1
58.6347 0 1
58.7508 0 1
58.8669 0 1
58.983 1449 38.0657
59.0992 1455 38.1445
59.2155 1556 39.4462
59.3318 1588 39.8497
59.4482 1786 42.2611
59.5646 1926 43.8862
59.681 1990 44.6094
59.7975 2041 45.1774
59.9141 2198 46.8828
60.0306 2131 46.1628
60.1473 2157 46.4435
60.2639 2114 45.9783
60.3807 2231 47.2335
60.4974 2096 45.7821
60.6142 2213 47.0425
60.731 2174 46.6262
60.8479 2238 47.3075
60.9648 2184 46.7333
61.0818 2145 46.3141
61.1987 2092 45.7384
61.3158 2061 45.3982
61.4328 1971 44.3959
61.5499 2003 44.7549
61.667 2005 44.7772
61.7841 2044 45.2106
61.9013 2102 45.8476
62.0185 2167 46.551
62.1357 2158 46.4543
62.253 2154 46.4112
62.3702 2098 45.8039
62.4875 2048 45.2548
62.6049 1880 43.359
62.7222 1863 43.1625
62.8396 1939 44.0341
62.9569 2074 45.5412
63.0743 2236 47.2864
63.1918 2376 48.7442
63.3092 2227 47.1911
63.4267 2269 47.634
63.5441 2185 46.744
63.6616 2208 46.9894
63.7791 2225 47.1699
63.8966 2223 47.1487
64.0142 2123 46.076
64.1317 2224 47.1593
64.2492 2159 46.465
64.3668 2096 45.7821
64.4843 2143 46.2925
64.6019 2097 45.793
64.7195 2083 45.6399
64.837 2004 44.7661
64.9546 1997 44.6878
65.0722 2013 44.8665
65.1898 1999 44.7102
65.3074 2060 45.3872
65.4249 2074 45.5412
65.5425 1964 44.317
65.6601 2089 45.7056
65.7777 2122 46.0652
65.8952 2006 44.7884
66.0128 1989 44.5982
66.1304 1773 42.107
66.2479 1728 41.5692
66.3655 1812 42.5676
66.483 2031 45.0666
66.6005 2091 45.7275
66.718 2150 46.3681
66.8355 2162 46.4973
66.953 2128 46.1303
67.0705 2171 46.594
67.1879 2147 46.3357
67.3054 2188 46.7761
67.4228 2145 46.3141
67.5402 2075 45.5522
67.6576 2036 45.1221
67.7749 2165 46.5296
67.8923 2015 44.8888
68.0096 2083 45.6399
68.1269 2178 46.669
68.2442 2115 45.9891
68.3614 2057 45.3542
68.4787 2000 44.7214
68.5958 1982 44.5197
68.713 2020 44.9444
68.8302 1939 44.0341
68.9473 1974 44.4297
69.0643 1920 43.8178
69.1814 1963 44.3058
69.2984 2035 45.111
69.4154 2057 45.3542
69.5323 2023 44.9778
69.6492 1985 44.5533
69.7661 1684 41.0366
69.8829 1562 39.5221
69.9997 1657 40.7063
70.1165 1774 42.1189
70.2332 1815 42.6028
70.3499 1783 42.2256
70.4665 1605 40.0625
70.5831 1456 38.1576
70.6996 1398 37.3898
70.8161 1353 36.7831
70.9326 1329 36.4555
71.049 1293 35.9583
71.1653 1256 35.4401
71.2817 1195 34.5688
71.3979 1074 32.7719
71.5141 1150 33.9116
71.6303 999 31.607
71.7464 970 31.1448
71.8624 0 1
71.9784 0 1
72.0944 0 1
72.2102 0 1
72.3261 0 1
72.4418 0 1
72.5575 0 1
72.6732 0 1
75.1054 0 1
75.2209 0 1
75.3365 0 1
75.4521 0 1
75.5678 0 1
75.6835 0 1
75.7993 0 1
75.9151 0 1
76.031 0 1
76.147 1581 39.7618
76.263 1800 42.4264
76.3791 1949 44.1475
76.4952 1901 43.6005
76.6113 1916 43.7721
76.7276 1896 43.5431
76.8438 1941 44.0568
76.9601 1944 44.0908
77.0765 1888 43.4511
77.1929 2001 44.7325
77.3093 2050 45.2769
77.4258 2089 45.7056
77.5423 2056 45.3431
77.6589 1914 43.7493
77.7755 1907 43.6692
77.8921 1914 43.7493
78.0088 1856 43.0813
78.1256 1946 44.1135
78.2423 1959 44.2606
78.3591 1948 44.1362
78.4759 1990 44.6094
78.5928 1955 44.2154
78.7097 1810 42.5441
78.8266 1595 39.9375
78.9436 1358 36.8511
79.0606 1456 38.1576
79.1776 1679 40.9756
79.2946 1916 43.7721
79.4117 2043 45.1996
79.5288 2050 45.2769
79.6459 2076 45.5631
79.7631 2067 45.4643
79.8802 2026 45.0111
79.9974 2035 45.111
80.1147 2049 45.2659
80.2319 2061 45.3982
80.3491 2123 46.076
80.4664 2097 45.793
80.5837 2210 47.0106
80.701 2166 46.5403
80.8183 2112 45.9565
80.9357 2184 46.7333
81.053 2071 45.5082
81.1704 2103 45.8585
81.2877 2069 45.4863
81.4051 2082 45.6289
81.5225 2091 45.7275
81.6399 2037 45.1331
81.7573 2177 46.6583
81.8747 2203 46.9361
81.9922 2206 46.9681
82.1096 2468 49.679
82.227 2474 49.7393
82.3444 2249 47.4236
82.4619 2126 46.1086
82.5793 1977 44.4635
82.6967 2099 45.8148
82.8142 2598 50.9706
82.9316 2909 53.9351
83.049 3191 56.4889
83.1664 3408 58.3781
83.2838 3575 59.7913
83.4012 3808 61.709
83.5186 3872 62.2254
83.636 3807 61.7009
83.7534 3983 63.111
83.8708 4028 63.4665
83.9881 3988 63.1506
84.1055 4196 64.7765
84.2228 4206 64.8537
84.3401 4163 64.5213
84.4575 4244 65.146
84.5747 4062 63.7338
84.692 4169 64.5678
84.8093 4207 64.8614
84.9265 4123 64.2106
85.0437 3987 63.1427
85.1609 4001 63.2535
85.2781 3959 62.9206
85.3952 3988 63.1506
85.5123 3922 62.6259
85.6294 3985 63.1269
85.7465 3967 62.9841
85.8636 3629 60.2412
85.9806 3168 56.285
86.0976 2710 52.0577
86.2145 2608 51.0686
86.3315 2885 53.7122
86.4484 3585 59.8749
86.5652 3766 61.3677
86.682 3939 62.7615
86.7988 4030 63.4823
86.9156 3887 62.3458
87.0323 3921 62.6179
87.149 3886 62.3378
87.2657 3900 62.45
87.3823 4067 63.773
87.4988 3703 60.8523
87.6154 3475 58.9491
87.7318 3189 56.4712
87.8483 3219 56.7362
87.9647 2941 54.231
88.081 2733 52.2781
88.1973 2675 51.7204
88.3136 2744 52.3832
88.4298 2558 50.5767
88.546 2378 48.7647
88.6621 2330 48.2701
88.7781 2274 47.6865
88.8942 0 1
89.0101 0 1
89.126 0 1
89.2419 0 1
89.3577 0 1
89.4734 0 1
89.5891 0 1
89.7047 0 1
89.8203 0 1
89.9358 0 1
92.3269 0 1
92.4424 0 1
92.558 0 1
92.6736 0 1
92.7893 0 1
92.905 0 1
93.0208 0 1
93.1366 0 1
93.2525 0 1
93.3685 0 1
93.4845 0 1
93.6005 4156 64.467
93.7167 4109 64.1015
93.8328 4222 64.9769
93.949 4204 64.8383
94.0653 4038 63.5453
94.1816 4294 65.5286
94.2979 4035 63.5216
94.4143 4168 64.56
94.5307 4130 64.2651
94.6472 4056 63.6867
94.7637 4043 63.5846
94.8803 3625 60.208
94.9969 3172 56.3205
95.1135 2899 53.8424
95.2302 3036 55.0999
95.3469 3545 59.5399
95.4637 3866 62.1772
95.5805 4132 64.2806
95.6973 4184 64.6838
95.8142 4238 65.0999
95.9311 4381 66.1891
96.048 4152 64.436
96.1649 4266 65.3146
96.2819 4174 64.6065
96.3989 4299 65.5668
96.516 4320 65.7267
96.633 4251 65.1997
96.7501 4347 65.9318
96.8673 4353 65.9773
96.9844 4277 65.3988
97.1016 4350 65.9545
97.2188 4476 66.9029
97.336 4381 66.1891
97.4532 4170 64.5755
97.5704 4385 66.2193
97.6877 4294 65.5286
97.805 4222 64.9769
97.9223 4282 65.437
98.0396 4307 65.6277
98.1569 4248 65.1767
98.2743 4008 63.3088
98.3916 3754 61.2699
98.509 3223 56.7715
98.6264 2927 54.1018
98.7438 2972 54.5161
98.8612 3368 58.0345
98.9786 3937 62.7455
99.096 4007 63.3009
99.2134 3918 62.5939
99.3308 3881 62.2977
99.4482 3877 62.2656
99.5656 3681 60.6712
99.6831 3659 60.4897
99.8005 3486 59.0424
99.9179 3475 58.9491
100.035 3348 57.8619
100.153 3355 57.9224
100.27 3211 56.6657
100.388 3177 56.3649
100.505 3128 55.9285
100.622 3093 55.6147
100.74 2974 54.5344
100.857 2946 54.2771
100.975 2882 53.6843
101.092 2865 53.5257
101.209 2879 53.6563
101.327 2754 52.4786
101.444 2742 52.3641
101.561 2826 53.1601
101.679 2811 53.0189
101.796 2846 53.3479
101.913 2630 51.2835
102.03 2413 49.1223
102.148 2195 46.8508
102.265 1980 44.4972
102.382 2248 47.4131
102.499 2385 48.8365
102.616 2594 50.9313
102.733 2637 51.3517
102.851 2593 50.9215
102.968 2528 50.2792
103.085 2539 50.3885
103.202 2431 49.3052
103.319 2467 49.6689
103.436 2561 50.6063
103.552 2459 49.5883
103.669 2535 50.3488
103.786 2521 50.2096
103.903 2470 49.6991
104.02 2619 51.1762
104.137 2586 50.8527
104.253 2730 52.2494
104.37 2461 49.6085
104.487 2494 49.94
104.603 2418 49.1732
104.72 2329 48.2597
104.836 2195 46.8508
104.953 2029 45.0444
105.069 1712 41.3763
105.186 1602 40.025
105.302 1454 38.1314
105.418 1416 37.6298
105.535 1359 36.8646
105.651 1216 34.8712
105.767 966 31.0805
105.883 803 28.3373
105.999 727 26.9629
106.115 0 1
106.231 0 1
106.347 0 1
106.463 0 1
106.579 0 1
106.694 0 1
106.81 0 1
106.926 0 1
107.041 0 1
107.157 0 1
109.576 0 1
109.692 0 1
109.807 0 1
109.923 0 1
110.039 0 1
110.155 0 1
110.27 0 1
110.386 0 1
110.502 0 1
110.618 2626 51.2445
110.735 2673 51.7011
110.851 2547 50.4678
110.967 2291 47.8644
111.083 2240 47.3286
111.199 2364 48.621
111.316 2552 50.5173
111.432 2821 53.1131
111.549 2725 52.2015
111.665 2870 53.5724
111.782 2745 52.3927
111.898 2712 52.0769
112.015 2791 52.8299
112.132 2677 51.7397
112.248 2841 53.301
112.365 2774 52.6688
112.482 2816 53.066
112.599 2935 54.1756
112.716 2885 53.7122
112.832 3029 55.0364
112.949 3078 55.4797
113.066 3102 55.6956
113.183 3231 56.8419
113.3 3088 55.5698
113.417 3142 56.0535
113.534 3084 55.5338
113.652 3096 55.6417
113.769 3078 55.4797
113.886 3179 56.3826
114.003 3082 55.5158
114.12 3076 55.4617
114.238 3015 54.909
114.355 2788 52.8015
114.472 2463 49.6286
114.589 2415 49.1426
114.707 2562 50.6162
114.824 2705 52.0096
114.942 2883 53.6936
115.059 2924 54.074
115.176 2971 54.5069
115.294 2849 53.376
115.411 2865 53.5257
115.529 2857 53.4509
115.646 2871 53.5817
115.764 2888 53.7401
115.881 2821 53.1131
115.999 2775 52.6783
116.116 2985 54.6352
116.234 3009 54.8544
116.351 3136 56
116.469 3063 55.3444
116.586 3196 56.5332
116.704 3248 56.9912
116.821 3288 57.3411
116.939 3227 56.8067
117.056 3189 56.4712
117.174 3174 56.3383
117.291 3069 55.3986
117.409 3131 55.9553
117.526 3131 55.9553
117.644 3208 56.6392
117.761 3153 56.1516
117.879 3052 55.2449
117.996 2823 53.1319
118.114 2546 50.4579
118.231 2530 50.2991
118.349 2626 51.2445
118.466 2793 52.8488
118.584 2886 53.7215
118.701 2958 54.3875
118.819 2910 53.9444
118.936 2956 54.3691
119.053 2906 53.9073
119.171 2858 53.4603
119.288 2778 52.7067
119.405 2743 52.3737
119.523 2822 53.1225
119.64 2759 52.5262
119.757 2857 53.4509
119.875 2774 52.6688
119.992 2940 54.2218
120.109 2886 53.7215
120.226 3011 54.8726
120.343 3032 55.0636
120.46 3027 55.0182
120.578 2927 54.1018
120.695 2893 53.7866
120.812 2887 53.7308
120.929 2836 53.2541
121.046 2835 53.2447
121.163 2868 53.5537
121.279 2839 53.2823
121.396 2915 53.9907
121.513 2747 52.4118
121.63 2522 50.2195
121.747 2416 49.1528
121.863 2102 45.8476
121.98 1954 44.2041
122.097 2061 45.3982
122.213 2062 45.4093
122.33 2080 45.607
122.446 1982 44.5197
122.563 1975 44.441
122.679 1928 43.909
122.795 1801 42.4382
122.912 1794 42.3556
123.028 1735 41.6533
123.144 1758 41.9285
123.26 1734 41.6413
123.377 0 1
123.493 0 1
123.609 0 1
123.725 0 1
123.84 0 1
123.956 0 1
124.072 0 1
124.188 0 1
124.303 0 1
124.419 0 1
126.852 0 1
126.968 0 1
127.083 0 1
127.199 0 1
127.315 0 1
127.431 0 1
127.547 0 1
127.663 0 1
127.779 0 1
127.895 0 1
128.011 0 1
128.127 0 1
128.243 0 1
128.359 3324 57.6541
128.476 3335 57.7495
128.592 3449 58.7282
128.708 3363 57.9914
128.825 3416 58.4466
128.941 3455 58.7792
129.058 3379 58.1292
129.174 3386 58.1893
129.291 3594 59.95
129.408 3675 60.6218
129.524 3727 61.0492
129.641 3727 61.0492
129.758 3904 62.482
129.875 4011 63.3325
129.992 4031 63.4902
130.108 4053 63.6632
130.225 3910 62.53
130.342 4004 63.2772
130.459 3877 62.2656
130.576 3971 63.0159
130.693 3610 60.0833
130.81 3698 60.8112
130.928 3695 60.7865
131.045 3638 60.3158
131.162 3827 61.8628
131.279 3915 62.57
131.396 3971 63.0159
131.513 3873 62.2334
131.631 3855 62.0886
131.748 3822 61.8223
131.865 3909 62.522
131.983 3826 61.8547
132.1 3699 60.8194
132.217 3680 60.663
132.335 3679 60.6548
132.452 3647 60.3904
132.57 3771 61.4085
132.687 3594 59.95
132.804 3911 62.538
132.922 3751 61.2454
133.039 3809 61.7171
133.157 3751 61.2454
133.274 4045 63.6003
133.392 4068 63.7809
133.509 4165 64.5368
133.627 4115 64.1483
133.744 4424 66.5132
133.862 4244 65.146
133.979 4298 65.5591
134.097 4179 64.6452
134.214 4198 64.792
134.332 3885 62.3298
134.449 4002 63.2614
134.567 4088 63.9375
134.684 4193 64.7534
134.802 4298 65.5591
134.919 4116 64.1561
135.037 4292 65.5134
135.154 4118 64.1716
135.272 4134 64.2962
135.389 4004 63.2772
135.507 4197 64.7843
135.624 4102 64.0469
135.742 3875 62.2495
135.859 3981 63.0952
135.977 3943 62.7933
136.094 3830 61.887
136.211 3871 62.2174
136.329 3868 62.1932
136.446 3929 62.6817
136.564 3984 63.1189
136.681 4009 63.3167
136.798 4123 64.2106
136.915 4037 63.5374
137.033 4211 64.8922
137.15 4107 64.0859
137.267 4118 64.1716
137.384 4127 64.2417
137.502 4109 64.1015
137.619 4033 63.5059
137.736 4076 63.8436
137.853 3834 61.9193
137.97 3840 61.9677
138.087 3735 61.1146
138.204 3878 62.2736
138.321 3968 62.9921
138.438 3985 63.1269
138.555 4003 63.2693
138.672 4101 64.0391
138.788 3934 62.7216
138.905 3797 61.6198
139.022 3797 61.6198
139.139 3619 60.1581
139.255 3460 58.8218
139.372 3316 57.5847
139.488 3214 56.6922
139.605 3002 54.7905
139.721 3002 54.7905
139.838 2998 54.754
139.954 2795 52.8678
140.071 2814 53.0471
140.187 2825 53.1507
140.303 2738 52.3259
140.419 2875 53.619
140.535 2910 53.9444
140.652 2953 54.3415
140.768 0 1
140.884 0 1
141 0 1
141.115 0 1
141.231 0 1
141.347 0 1
141.463 0 1
141.578 0 1
141.694 0 1
144.104 0 1
144.219 0 1
144.335 0 1
144.45 0 1
144.566 0 1
144.682 0 1
144.798 0 1
144.914 0 1
145.03 0 1
145.146 8202 90.5649
145.262 8661 93.0645
145.378 8751 93.5468
145.494 8699 93.2684
145.61 8840 94.0213
145.726 8881 94.2391
145.842 8866 94.1594
145.959 8923 94.4616
146.075 8866 94.1594
146.192 9020 94.9737
146.308 8889 94.2815
146.425 8721 93.3863
146.541 7916 88.9719
146.658 6953 83.3847
146.774 6036 77.6917
146.891 5715 75.5976
147.008 6311 79.4418
147.125 7501 86.6083
147.241 8271 90.945
147.358 8677 93.1504
147.475 8578 92.6175
147.592 8818 93.9042
147.709 8731 93.4398
147.826 8675 93.1397
147.943 8585 92.6553
148.06 8819 93.9095
148.177 8730 93.4345
148.294 8805 93.835
148.411 8740 93.488
148.528 8817 93.8989
148.645 8735 93.4612
148.762 9001 94.8736
148.88 9098 95.3834
148.997 8722 93.3916
149.114 9120 95.4987
149.231 8916 94.4246
149.349 9047 95.1157
149.466 8756 93.5735
149.583 9064 95.205
149.701 9019 94.9684
149.818 9000 94.8683
149.935 8994 94.8367
150.053 9143 95.619
150.17 8856 94.1063
150.287 7724 87.8863
150.405 6714 81.939
150.522 6134 78.3199
150.64 6522 80.7589
150.757 7371 85.8545
150.875 8404 91.6733
150.992 8936 94.5304
151.11 8736 93.4666
151.227 8514 92.2713
151.344 8782 93.7123
151.462 8689 93.2148
151.579 8674 93.1343
151.697 8832 93.9787
151.814 8982 94.7734
151.932 9063 95.1998
152.049 8863 94.1435
152.167 8985 94.7892
152.284 8966 94.689
152.402 8845 94.0479
152.519 9071 95.2418
152.636 9085 95.3153
152.754 9215 95.9948
152.871 9121 95.5039
152.989 9124 95.5196
153.106 9307 96.4728
153.223 9289 96.3795
153.341 9515 97.5449
153.458 9278 96.3224
153.575 9528 97.6115
153.693 9455 97.2368
153.81 8891 94.2921
153.927 8074 89.8554
154.044 6921 83.1925
154.162 6408 80.05
154.279 6913 83.1445
154.396 8063 89.7942
154.513 8793 93.771
154.63 9226 96.0521
154.747 9294 96.4054
154.864 9258 96.2185
154.981 9274 96.3016
155.098 8962 94.6678
155.215 8787 93.739
155.332 8687 93.2041
155.449 8461 91.9837
155.566 8361 91.4385
155.683 8034 89.6326
155.8 8125 90.1388
155.917 7961 89.2244
156.033 7534 86.7986
156.15 0 1
156.267 0 1
156.383 0 1
156.5 0 1
156.617 0 1
156.733 0 1
156.85 0 1
156.966 0 1
157.082 0 1
157.199 0 1
157.315 0 1
157.431 0 1
157.547 0 1
157.664 0 1
157.78 0 1
157.896 0 1
158.012 0 1
158.128 0 1
158.244 0 1
158.359 0 1
158.475 0 1
158.591 0 1
158.706 0 1
