
6.15755 0 1
6.2731 0 1
6.3887 0 1
6.50437 0 1
6.62009 0 1
6.73587 0 1
6.8517 0 1
6.96759 0 1
7.08353 0 1
7.19952 0 1
7.31557 0 1
7.43166 0 1
7.54781 0 1
7.664 0 1
7.78024 0 1
7.89653 0 1
8.01286 0 1
8.12924 0 1
8.24567 0 1
8.36213 0 1
8.47864 0 1
8.59519 0 1
8.71178 0 1
8.82841 0 1
8.94508 0 1
9.06179 0 1
9.17853 0 1
9.29531 0 1
9.41212 0 1
9.52897 0 1
9.64584 0 1
9.76276 0 1
9.8797 0 1
9.99667 0 1
10.1137 0 1
10.2307 0 1
10.3478 0 1
10.4648 0 1
10.5819 0 1
10.6991 0 1
10.8162 0 1
10.9334 0 1
11.0506 0 1
11.1678 0 1
11.285 0 1
11.4023 0 1
11.5196 0 1
11.6369 0 1
11.7542 0 1
11.8715 0 1
11.9888 0 1
12.1062 0 1
12.2235 0 1
12.3409 0 1
12.4582 0 1
12.5756 0 1
12.693 0 1
12.8104 0 1
12.9278 0 1
13.0452 0 1
13.1626 0 1
13.28 0 1
13.3974 0 1
13.5149 0 1
13.6323 0 1
13.7497 0 1
13.8671 0 1
13.9845 0 1
14.1019 0 1
14.2193 0 1
14.3367 0 1
14.4541 0 1
14.5714 0 1
14.6888 0 1
14.8062 0 1
14.9235 0 1
15.0408 1532 39.1408
15.1581 1669 40.8534
15.2755 1663 40.7799
15.3927 1700 41.2311
15.51 1528 39.0896
15.6273 1632 40.398
15.7445 1558 39.4715
15.8617 1555 39.4335
15.9789 1547 39.3319
16.0961 1436 37.8946
16.2132 1468 38.3145
16.3304 1622 40.2741
16.4475 1636 40.4475
16.5646 1690 41.1096
16.6816 1709 41.3401
16.7986 1814 42.5911
16.9156 2059 45.3762
17.0326 2044 45.2106
17.1496 2192 46.8188
17.2665 2134 46.1952
17.3833 2133 46.1844
17.5002 2120 46.0435
17.617 2157 46.4435
17.7338 2165 46.5296
17.8505 2265 47.592
17.9672 2164 46.5188
18.0839 2334 48.3115
18.2005 2271 47.655
18.3171 2348 48.4562
18.4337 2347 48.4458
18.5502 2387 48.8569
18.6666 2303 47.9896
18.7831 2357 48.5489
18.8994 2323 48.1975
19.0158 2329 48.2597
19.1321 2183 46.7226
19.2483 2151 46.3789
19.3645 2013 44.8665
19.4806 2015 44.8888
19.5967 1959 44.2606
19.7128 1795 42.3674
19.8288 1623 40.2865
19.9447 1346 36.6879
20.0606 0 1
20.1764 0 1
20.2922 0 1
20.4079 0 1
20.5236 0 1
20.6392 0 1
20.7548 0 1
20.8702 0 1
23.3078 0 1
23.4233 0 1
23.539 0 1
23.6547 0 1
23.7704 0 1
23.8862 0 1
24.0021 0 1
24.118 0 1
24.234 0 1
24.35 0 1
24.4661 1965 44.3283
24.5822 2033 45.0888
24.6984 2003 44.7549
24.8146 2078 45.5851
24.9309 2006 44.7884
25.0472 1803 42.4617
25.1636 1662 40.7676
25.28 1640 40.4969
25.3965 1680 40.9878
25.513 1861 43.1393
25.6296 1863 43.1625
25.7462 2187 46.7654
25.8628 2387 48.8569
25.9795 2383 48.816
26.0962 2457 49.5681
26.213 2397 48.9592
26.3298 2445 49.4469
26.4466 2403 49.0204
26.5635 2487 49.8698
26.6804 2421 49.2037
26.7973 2468 49.679
26.9143 2554 50.5371
27.0313 2322 48.1871
27.1483 2389 48.8774
27.2653 2344 48.4149
27.3824 2431 49.3052
27.4996 2375 48.734
27.6167 2364 48.621
27.7339 2208 46.9894
27.8511 2260 47.5395
27.9683 2302 47.9792
28.0855 2277 47.7179
28.2028 2258 47.5184
28.3201 2235 47.2758
28.4374 2087 45.6837
28.5547 1841 42.9069
28.6721 1632 40.398
28.7894 1563 39.5348
28.9068 1558 39.4715
29.0242 1690 41.1096
29.1416 1776 42.1426
29.259 1908 43.6807
29.3764 2142 46.2817
29.4939 2284 47.7912
29.6113 2214 47.0532
29.7288 2326 48.2286
29.8463 2294 47.8957
29.9638 2346 48.4355
30.0812 2289 47.8435
30.1987 2301 47.9687
30.3162 2226 47.1805
30.4337 2257 47.5079
30.5512 2238 47.3075
30.6687 2283 47.7807
30.7862 2260 47.5395
30.9037 2243 47.3603
31.0212 2271 47.655
31.1387 2320 48.1664
31.2562 2203 46.9361
31.3737 2147 46.3357
31.4912 2121 46.0543
31.6087 2160 46.4758
31.7262 2163 46.5081
31.8436 2125 46.0977
31.9611 2083 45.6399
32.0785 1867 43.2088
32.1959 1662 40.7676
32.3134 1571 39.6358
32.4308 1575 39.6863
32.5482 1630 40.3733
32.6655 1805 42.4853
32.7829 1927 43.8976
32.9002 2066 45.4533
33.0176 2195 46.8508
33.1349 2109 45.9239
33.2522 2226 47.1805
33.3694 2235 47.2758
33.4867 2304 48
33.6039 2296 47.9166
33.7211 2337 48.3425
33.8383 2271 47.655
33.9554 2165 46.5296
34.0725 2212 47.0319
34.1896 2156 46.4327
34.3067 2069 45.4863
34.4237 2195 46.8508
34.5407 2201 46.9148
34.6577 2119 46.0326
34.7746 2115 45.9891
34.8915 2168 46.5618
35.0084 2185 46.744
35.1252 2088 45.6946
35.242 2008 44.8107
35.3587 2017 44.911
35.4755 2070 45.4973
35.5921 1989 44.5982
35.7088 1997 44.6878
35.8254 1789 42.2966
35.9419 1573 39.6611
36.0584 1462 38.2361
36.1749 1486 38.5487
36.2913 1487 38.5616
36.4077 1620 40.2492
36.524 1827 42.7434
36.6403 1953 44.1928
36.7565 2160 46.4758
36.8727 2086 45.6727
36.9889 2129 46.1411
37.1049 2065 45.4423
37.221 0 1
37.3369 0 1
37.4529 0 1
37.5687 0 1
37.6845 0 1
37.8003 0 1
37.916 0 1
38.0316 0 1
38.1472 0 1
40.5851 0 1
40.7008 0 1
40.8164 0 1
40.9322 0 1
41.048 0 1
41.1639 0 1
41.2798 0 1
41.3958 0 1
41.5118 0 1
41.6279 0 1
41.744 1375 37.081
41.8602 1658 40.7185
41.9765 1688 41.0853
42.0928 1654 40.6694
42.2091 1829 42.7668
42.3255 1707 41.3159
42.4419 1742 41.7373
42.5584 1793 42.3438
42.675 1754 41.8808
42.7915 1719 41.4608
42.9081 1622 40.2741
43.0248 1594 39.9249
43.1415 1586 39.8246
43.2582 1568 39.598
43.375 1653 40.6571
43.4918 1732 41.6173
43.6087 1621 40.2616
43.7256 1546 39.3192
43.8425 1529 39.1024
43.9595 1528 39.0896
44.0765 1517 38.9487
44.1935 1497 38.6911
44.3106 1471 38.3536
44.4277 1332 36.4966
44.5448 1266 35.5809
44.6619 1174 34.2637
44.7791 989 31.4484
44.8963 995 31.5436
45.0136 916 30.2655
45.1308 992 31.496
45.2481 975 31.225
45.3654 1193 34.5398
45.4827 1217 34.8855
45.6001 1344 36.6606
45.7174 1304 36.1109
45.8348 1343 36.647
45.9522 1264 35.5528
46.0697 1228 35.0428
46.1871 1216 34.8712
46.3046 1232 35.0999
46.422 1199 34.6266
46.5395 1141 33.7787
46.657 1130 33.6155
46.7745 1123 33.5112
46.892 1089 33
47.0096 1155 33.9853
47.1271 1146 33.8526
47.2446 1096 33.1059
47.3622 1068 32.6803
47.4797 1179 34.3366
47.5973 1105 33.2415
47.7149 1079 32.8481
47.8324 1022 31.9687
47.95 1039 32.2335
48.0675 959 30.9677
48.1851 905 30.0832
48.3027 800 28.2843
48.4202 715 26.7395
48.5378 703 26.5141
48.6554 674 25.9615
48.7729 693 26.3249
48.8904 868 29.4618
49.008 917 30.282
49.1255 891 29.8496
49.243 939 30.6431
49.3605 905 30.0832
49.478 952 30.8545
49.5955 955 30.9031
49.713 983 31.3528
49.8304 969 31.1288
49.9479 931 30.5123
50.0653 941 30.6757
50.1827 976 31.241
50.3001 965 31.0644
50.4175 999 31.607
50.5348 1099 33.1512
50.6521 1117 33.4215
50.7694 1127 33.5708
50.8867 1158 34.0294
51.004 1225 35
51.1212 1177 34.3074
51.2384 1257 35.4542
51.3556 1194 34.5543
51.4727 1151 33.9264
51.5899 1142 33.7935
51.707 1125 33.541
51.824 1029 32.078
51.9411 940 30.6594
52.0581 1041 32.2645
52.175 1026 32.0312
52.2919 1148 33.8821
52.4088 1295 35.9861
52.5257 1461 38.223
52.6425 1456 38.1576
52.7593 1563 39.5348
52.876 1544 39.2938
52.9927 1561 39.5095
53.1094 1545 39.3065
53.226 1611 40.1373
53.3426 1625 40.3113
53.4591 1558 39.4715
53.5756 1607 40.0874
53.692 1427 37.7757
53.8084 1560 39.4968
53.9248 1550 39.37
54.0411 1613 40.1622
54.1573 1702 41.2553
54.2735 0 1
54.3896 0 1
54.5057 0 1
54.6217 0 1
54.7377 0 1
54.8537 0 1
54.9695 0 1
55.0853 0 1
55.2011 0 1
55.3168 0 1
55.4324 0 1
57.824 0 1
57.9396 0 1
58.0553 0 1
58.1711 0 1
58.2869 0 1
58.4028 0 1
58.5187 0 1
58.6347 0 1
58.7508 0 1
58.8669 0 1
58.983 1680 40.9878
59.0992 1857 43.0929
59.2155 1941 44.0568
59.3318 2014 44.8776
59.4482 2095 45.7712
59.5646 2116 46
59.681 2113 45.9674
59.7975 2142 46.2817
59.9141 2012 44.8553
60.0306 1962 44.2945
60.1473 1890 43.4741
60.2639 1873 43.2782
60.3807 1752 41.8569
60.4974 1674 40.9145
60.6142 1637 40.4599
60.731 1607 40.0874
60.8479 1606 40.0749
60.9648 1687 41.0731
61.0818 1774 42.1189
61.1987 1800 42.4264
61.3158 1785 42.2493
61.4328 1788 42.2847
61.5499 1824 42.7083
61.667 1830 42.7785
61.7841 1877 43.3244
61.9013 1815 42.6028
62.0185 1788 42.2847
62.1357 1731 41.6053
62.253 1688 41.0853
62.3702 1650 40.6202
62.4875 1699 41.2189
62.6049 1802 42.45
62.7222 1865 43.1856
62.8396 1773 42.107
62.9569 1835 42.8369
63.0743 1859 43.1161
63.1918 1916 43.7721
63.3092 1789 42.2966
63.4267 1817 42.6263
63.5441 1865 43.1856
63.6616 1800 42.4264
63.7791 1578 39.724
63.8966 1508 38.833
64.0142 1493 38.6394
64.1317 1414 37.6032
64.2492 1373 37.054
64.3668 1407 37.51
64.4843 1436 37.8946
64.6019 1607 40.0874
64.7195 1678 40.9634
64.837 1609 40.1123
64.9546 1674 40.9145
65.0722 1657 40.7063
65.1898 1711 41.3642
65.3074 1683 41.0244
65.4249 1605 40.0625
65.5425 1570 39.6232
65.6601 1441 37.9605
65.7777 1445 38.0132
65.8952 1428 37.7889
66.0128 1542 39.2683
66.1304 1719 41.4608
66.2479 1671 40.8779
66.3655 1684 41.0366
66.483 1764 42
66.6005 1795 42.3674
66.718 1780 42.19
66.8355 1750 41.833
66.953 1758 41.9285
67.0705 1714 41.4005
67.1879 1679 40.9756
67.3054 1641 40.5093
67.4228 1562 39.5221
67.5402 1486 38.5487
67.6576 1396 37.3631
67.7749 1370 37.0135
67.8923 1426 37.7624
68.0096 1334 36.524
68.1269 1421 37.6962
68.2442 1569 39.6106
68.3614 1569 39.6106
68.4787 1614 40.1746
68.5958 1694 41.1582
68.713 1774 42.1189
68.8302 1656 40.694
68.9473 1699 41.2189
69.0643 1673 40.9023
69.1814 1629 40.3609
69.2984 1628 40.3485
69.4154 1633 40.4104
69.5323 1634 40.4228
69.6492 1590 39.8748
69.7661 1761 41.9643
69.8829 1768 42.0476
69.9997 1880 43.359
70.1165 1987 44.5758
70.2332 1976 44.4522
70.3499 1995 44.6654
70.4665 1926 43.8862
70.5831 1936 44
70.6996 1833 42.8135
70.8161 1886 43.4281
70.9326 1857 43.0929
71.049 1772 42.0951
71.1653 1659 40.7308
71.2817 1525 39.0512
71.3979 1465 38.2753
71.5141 1470 38.3406
71.6303 1253 35.3977
71.7464 1192 34.5254
71.8624 0 1
71.9784 0 1
72.0944 0 1
72.2102 0 1
72.3261 0 1
72.4418 0 1
72.5575 0 1
72.6732 0 1
75.1054 0 1
75.2209 0 1
75.3365 0 1
75.4521 0 1
75.5678 0 1
75.6835 0 1
75.7993 0 1
75.9151 0 1
76.031 0 1
76.147 1650 40.6202
76.263 1803 42.4617
76.3791 1724 41.5211
76.4952 1780 42.19
76.6113 1713 41.3884
76.7276 1544 39.2938
76.8438 1450 38.0789
76.9601 1581 39.7618
77.0765 1571 39.6358
77.1929 1681 41
77.3093 1817 42.6263
77.4258 1859 43.1161
77.5423 1902 43.6119
77.6589 1865 43.1856
77.7755 1925 43.8748
77.8921 1855 43.0697
78.0088 1732 41.6173
78.1256 1682 41.0122
78.2423 1571 39.6358
78.3591 1442 37.9737
78.4759 1371 37.027
78.5928 1557 39.4588
78.7097 1629 40.3609
78.8266 1652 40.6448
78.9436 1918 43.795
79.0606 1869 43.2319
79.1776 1983 44.5309
79.2946 1966 44.3396
79.4117 1917 43.7836
79.5288 1919 43.8064
79.6459 1896 43.5431
79.7631 1805 42.4853
79.8802 1710 41.3521
79.9974 1652 40.6448
80.1147 1608 40.0999
80.2319 1450 38.0789
80.3491 1357 36.8375
80.4664 1389 37.2693
80.5837 1421 37.6962
80.701 1369 37
80.8183 1522 39.0128
80.9357 1567 39.5854
81.053 1655 40.6817
81.1704 1695 41.1704
81.2877 1647 40.5832
81.4051 1646 40.5709
81.5225 1582 39.7744
81.6399 1583 39.7869
81.7573 1520 38.9872
81.8747 1311 36.2077
81.9922 1246 35.2987
82.1096 1226 35.0143
82.227 1261 35.5106
82.3444 1375 37.081
82.4619 1557 39.4588
82.5793 1696 41.1825
82.6967 1640 40.4969
82.8142 1619 40.2368
82.9316 1688 41.0853
83.049 1731 41.6053
83.1664 1580 39.7492
83.2838 1512 38.8844
83.4012 1548 39.3446
83.5186 1450 38.0789
83.636 1355 36.8103
83.7534 1360 36.8782
83.8708 1282 35.805
83.9881 1221 34.9428
84.1055 1190 34.4964
84.2228 1244 35.2704
84.3401 1280 35.7771
84.4575 1428 37.7889
84.5747 1486 38.5487
84.692 1517 38.9487
84.8093 1491 38.6135
84.9265 1482 38.4968
85.0437 1448 38.0526
85.1609 1531 39.128
85.2781 1440 37.9473
85.3952 1369 37
85.5123 1191 34.5109
85.6294 1185 34.4238
85.7465 1185 34.4238
85.8636 1323 36.3731
85.9806 1494 38.6523
86.0976 1654 40.6694
86.2145 1735 41.6533
86.3315 1897 43.5546
86.4484 1735 41.6533
86.5652 1837 42.8602
86.682 1778 42.1663
86.7988 1838 42.8719
86.9156 1790 42.3084
87.0323 1714 41.4005
87.149 1734 41.6413
87.2657 1721 41.4849
87.3823 1631 40.3856
87.4988 1512 38.8844
87.6154 1448 38.0526
87.7318 1550 39.37
87.8483 1533 39.1535
87.9647 1691 41.1218
88.081 1780 42.19
88.1973 1807 42.5088
88.3136 1905 43.6463
88.4298 1845 42.9535
88.546 1896 43.5431
88.6621 1878 43.3359
88.7781 1770 42.0714
88.8942 0 1
89.0101 0 1
89.126 0 1
89.2419 0 1
89.3577 0 1
89.4734 0 1
89.5891 0 1
89.7047 0 1
89.8203 0 1
89.9358 0 1
92.3269 0 1
92.4424 0 1
92.558 0 1
92.6736 0 1
92.7893 0 1
92.905 0 1
93.0208 0 1
93.1366 0 1
93.2525 0 1
93.3685 0 1
93.4845 0 1
93.6005 1763 41.9881
93.7167 1907 43.6692
93.8328 1933 43.9659
93.949 1798 42.4028
94.0653 1794 42.3556
94.1816 1785 42.2493
94.2979 1687 41.0731
94.4143 1636 40.4475
94.5307 1375 37.081
94.6472 1337 36.565
94.7637 1411 37.5633
94.8803 1354 36.7967
94.9969 1648 40.5956
95.1135 1762 41.9762
95.2302 1920 43.8178
95.3469 2030 45.0555
95.4637 1960 44.2719
95.5805 2024 44.9889
95.6973 2043 45.1996
95.8142 1996 44.6766
95.9311 2030 45.0555
96.048 1854 43.0581
96.1649 1944 44.0908
96.2819 1817 42.6263
96.3989 1726 41.5452
96.516 1683 41.0244
96.633 1628 40.3485
96.7501 1585 39.8121
96.8673 1596 39.95
96.9844 1616 40.1995
97.1016 1679 40.9756
97.2188 1779 42.1782
97.336 1902 43.6119
97.4532 1855 43.0697
97.5704 1921 43.8292
97.6877 1861 43.1393
97.805 1713 41.3884
97.9223 1646 40.5709
98.0396 1513 38.8973
98.1569 1398 37.3898
98.2743 1268 35.609
98.3916 1293 35.9583
98.509 1378 37.1214
98.6264 1616 40.1995
98.7438 1787 42.2729
98.8612 1840 42.8952
98.9786 1896 43.5431
99.096 1962 44.2945
99.2134 1966 44.3396
99.3308 1958 44.2493
99.4482 1998 44.699
99.5656 1928 43.909
99.6831 1882 43.382
99.8005 1779 42.1782
99.9179 1821 42.6732
100.035 1825 42.72
100.153 1654 40.6694
100.27 1638 40.4722
100.388 1693 41.1461
100.505 1746 41.7852
100.622 1660 40.7431
100.74 1823 42.6966
100.857 1871 43.2551
100.975 1943 44.0795
101.092 1796 42.3792
101.209 1857 43.0929
101.327 1868 43.2204
101.444 1753 41.8688
101.561 1698 41.2068
101.679 1437 37.9078
101.796 1343 36.647
101.913 1244 35.2704
102.03 1258 35.4683
102.148 1646 40.5709
102.265 1862 43.1509
102.382 1914 43.7493
102.499 2063 45.4203
102.616 2105 45.8803
102.733 2048 45.2548
102.851 2063 45.4203
102.968 2141 46.2709
103.085 2076 45.5631
103.202 2072 45.5192
103.319 1995 44.6654
103.436 1909 43.6921
103.552 1857 43.0929
103.669 1795 42.3674
103.786 1726 41.5452
103.903 1760 41.9524
104.02 1758 41.9285
104.137 1872 43.2666
104.253 1967 44.3509
104.37 1957 44.238
104.487 2134 46.1952
104.603 2156 46.4327
104.72 2021 44.9555
104.836 2049 45.2659
104.953 1946 44.1135
105.069 1825 42.72
105.186 1467 38.3014
105.302 1402 37.4433
105.418 1418 37.6563
105.535 1606 40.0749
105.651 1899 43.5775
105.767 2167 46.551
105.883 2224 47.1593
105.999 2251 47.4447
106.115 0 1
106.231 0 1
106.347 0 1
106.463 0 1
106.579 0 1
106.694 0 1
106.81 0 1
106.926 0 1
107.041 0 1
107.157 0 1
109.576 0 1
109.692 0 1
109.807 0 1
109.923 0 1
110.039 0 1
110.155 0 1
110.27 0 1
110.386 0 1
110.502 0 1
110.618 1484 38.5227
110.735 1877 43.3244
110.851 1997 44.6878
110.967 2207 46.9787
111.083 2209 47
111.199 2274 47.6865
111.316 2258 47.5184
111.432 2285 47.8017
111.549 2230 47.2229
111.665 2223 47.1487
111.782 2110 45.9347
111.898 1996 44.6766
112.015 1984 44.5421
112.132 1952 44.1814
112.248 1934 43.9773
112.365 1851 43.0232
112.482 1909 43.6921
112.599 1990 44.6094
112.716 1945 44.1022
112.832 2028 45.0333
112.949 2086 45.6727
113.066 1995 44.6654
113.183 1978 44.4747
113.3 2068 45.4753
113.417 2000 44.7214
113.534 1882 43.382
113.652 1708 41.328
113.769 1441 37.9605
113.886 1313 36.2353
114.003 1326 36.4143
114.12 1400 37.4166
114.238 1727 41.5572
114.355 2022 44.9667
114.472 2037 45.1331
114.589 2161 46.4866
114.707 2110 45.9347
114.824 2193 46.8295
114.942 2270 47.6445
115.059 2235 47.2758
115.176 2272 47.6655
115.294 2186 46.7547
115.411 2161 46.4866
115.529 2103 45.8585
115.646 1998 44.699
115.764 2017 44.911
115.881 2010 44.833
115.999 2056 45.3431
116.116 2042 45.1885
116.234 2096 45.7821
116.351 2114 45.9783
116.469 2165 46.5296
116.586 2271 47.655
116.704 2177 46.6583
116.821 2224 47.1593
116.939 2165 46.5296
117.056 2082 45.6289
117.174 2031 45.0666
117.291 1742 41.7373
117.409 1473 38.3797
117.526 1463 38.2492
117.644 1442 37.9737
117.761 1625 40.3113
117.879 1964 44.317
117.996 2179 46.6798
118.114 2253 47.4658
118.231 2414 49.1325
118.349 2309 48.0521
118.466 2282 47.7703
118.584 2295 47.9062
118.701 2354 48.518
118.819 2341 48.3839
118.936 2380 48.7852
119.053 2268 47.6235
119.171 2204 46.9468
119.288 2077 45.5741
119.405 2123 46.076
119.523 2176 46.6476
119.64 2113 45.9674
119.757 2160 46.4758
119.875 2149 46.3573
119.992 2119 46.0326
120.109 2115 45.9891
120.226 2150 46.3681
120.343 2136 46.2169
120.46 2145 46.3141
120.578 2103 45.8585
120.695 2059 45.3762
120.812 1889 43.4626
120.929 1793 42.3438
121.046 1559 39.4842
121.163 1406 37.4967
121.279 1427 37.7757
121.396 1473 38.3797
121.513 1750 41.833
121.63 2071 45.5082
121.747 2252 47.4552
121.863 2222 47.1381
121.98 2317 48.1352
122.097 2319 48.156
122.213 2266 47.6025
122.33 2344 48.4149
122.446 2215 47.0638
122.563 2162 46.4973
122.679 2186 46.7547
122.795 2190 46.7974
122.912 2075 45.5522
123.028 2089 45.7056
123.144 2008 44.8107
123.26 2071 45.5082
123.377 0 1
123.493 0 1
123.609 0 1
123.725 0 1
123.84 0 1
123.956 0 1
124.072 0 1
124.188 0 1
124.303 0 1
124.419 0 1
126.852 0 1
126.968 0 1
127.083 0 1
127.199 0 1
127.315 0 1
127.431 0 1
127.547 0 1
127.663 0 1
127.779 0 1
127.895 0 1
128.011 0 1
128.127 0 1
128.243 0 1
128.359 2322 48.1871
128.476 2321 48.1768
128.592 2371 48.6929
128.708 2367 48.6518
128.825 2312 48.0833
128.941 2374 48.7237
129.058 2432 49.3153
129.174 2398 48.9694
129.291 2232 47.244
129.408 2356 48.5386
129.524 2237 47.2969
129.641 2333 48.3011
129.758 2169 46.5725
129.875 1933 43.9659
129.992 1708 41.328
130.108 1554 39.4208
130.225 1464 38.2623
130.342 1601 40.0125
130.459 1948 44.1362
130.576 2285 47.8017
130.693 2442 49.4166
130.81 2469 49.689
130.928 2432 49.3153
131.045 2591 50.9019
131.162 2557 50.5668
131.279 2593 50.9215
131.396 2624 51.225
131.513 2569 50.6853
131.631 2572 50.7149
131.748 2437 49.366
131.865 2445 49.4469
131.983 2512 50.1199
132.1 2514 50.1398
132.217 2554 50.5371
132.335 2527 50.2693
132.452 2479 49.7896
132.57 2522 50.2195
132.687 2497 49.97
132.804 2538 50.3786
132.922 2451 49.5076
133.039 2457 49.5681
133.157 2460 49.5984
133.274 2308 48.0416
133.392 1997 44.6878
133.509 1754 41.8808
133.627 1645 40.5586
133.744 1523 39.0256
133.862 1609 40.1123
133.979 1888 43.4511
134.097 2093 45.7493
134.214 2313 48.0937
134.332 2447 49.4672
134.449 2495 49.95
134.567 2363 48.6107
134.684 2407 49.0612
134.802 2429 49.2849
134.919 2437 49.366
135.037 2490 49.8999
135.154 2426 49.2544
135.272 2507 50.07
135.389 2431 49.3052
135.507 2525 50.2494
135.624 2406 49.051
135.742 2502 50.02
135.859 2428 49.2747
135.977 2453 49.5278
136.094 2532 50.319
136.211 2518 50.1797
136.329 2543 50.4282
136.446 2545 50.448
136.564 2490 49.8999
136.681 2415 49.1426
136.798 2441 49.4065
136.915 2189 46.7868
137.033 1961 44.2832
137.15 1651 40.6325
137.267 1560 39.4968
137.384 1421 37.6962
137.502 1504 38.7814
137.619 1750 41.833
137.736 2054 45.3211
137.853 2271 47.655
137.97 2369 48.6724
138.087 2495 49.95
138.204 2379 48.775
138.321 2443 49.4267
138.438 2479 49.7896
138.555 2406 49.051
138.672 2613 51.1175
138.788 2489 49.8899
138.905 2521 50.2096
139.022 2554 50.5371
139.139 2531 50.309
139.255 2502 50.02
139.372 2562 50.6162
139.488 2476 49.7594
139.605 2650 51.4782
139.721 2490 49.8999
139.838 2545 50.448
139.954 2399 48.9796
140.071 2413 49.1223
140.187 2500 50
140.303 2454 49.5379
140.419 2431 49.3052
140.535 2236 47.2864
140.652 1962 44.2945
140.768 0 1
140.884 0 1
141 0 1
141.115 0 1
141.231 0 1
141.347 0 1
141.463 0 1
141.578 0 1
141.694 0 1
144.104 0 1
144.219 0 1
144.335 0 1
144.45 0 1
144.566 0 1
144.682 0 1
144.798 0 1
144.914 0 1
145.03 0 1
145.146 1638 40.4722
145.262 1875 43.3013
145.378 1939 44.0341
145.494 1898 43.566
145.61 1827 42.7434
145.726 1691 41.1218
145.842 1567 39.5854
145.959 1431 37.8286
146.075 1263 35.5387
146.192 1222 34.9571
146.308 1288 35.8887
146.425 1358 36.8511
146.541 1498 38.704
146.658 1573 39.6611
146.774 1762 41.9762
146.891 1815 42.6028
147.008 1915 43.7607
147.125 1977 44.4635
147.241 1996 44.6766
147.358 2110 45.9347
147.475 2087 45.6837
147.592 2139 46.2493
147.709 1943 44.0795
147.826 2188 46.7761
147.943 2074 45.5412
148.06 2218 47.0956
148.177 2115 45.9891
148.294 2163 46.5081
148.411 2065 45.4423
148.528 2127 46.1194
148.645 2114 45.9783
148.762 2127 46.1194
148.88 2141 46.2709
148.997 2036 45.1221
149.114 2156 46.4327
149.231 2181 46.7012
149.349 2067 45.4643
149.466 1977 44.4635
149.583 1826 42.7317
149.701 1663 40.7799
149.818 1556 39.4462
149.935 1410 37.55
150.053 1319 36.318
150.17 1403 37.4566
150.287 1497 38.6911
150.405 1648 40.5956
150.522 1748 41.8091
150.64 1912 43.7264
150.757 2103 45.8585
150.875 2119 46.0326
150.992 2106 45.8912
151.11 2194 46.8402
151.227 2216 47.0744
151.344 2169 46.5725
151.462 2177 46.6583
151.579 2267 47.613
151.697 2300 47.9583
151.814 2236 47.2864
151.932 2168 46.5618
152.049 2192 46.8188
152.167 2187 46.7654
152.284 2202 46.9255
152.402 2220 47.1169
152.519 2177 46.6583
152.636 2206 46.9681
152.754 2214 47.0532
152.871 2191 46.8081
152.989 2166 46.5403
153.106 2010 44.833
153.223 1818 42.638
153.341 1705 41.2916
153.458 1482 38.4968
153.575 1422 37.7094
153.693 1414 37.6032
153.81 1503 38.7685
153.927 1626 40.3237
154.044 1686 41.0609
154.162 1935 43.9886
154.279 2023 44.9778
154.396 2066 45.4533
154.513 2177 46.6583
154.63 2228 47.2017
154.747 2209 47
154.864 2252 47.4552
154.981 2299 47.9479
155.098 2295 47.9062
155.215 2311 48.0729
155.332 2332 48.2908
155.449 2275 47.697
155.566 2264 47.5815
155.683 2332 48.2908
155.8 2323 48.1975
155.917 2258 47.5184
156.033 2297 47.927
156.15 0 1
156.267 0 1
156.383 0 1
156.5 0 1
156.617 0 1
156.733 0 1
156.85 0 1
156.966 0 1
157.082 0 1
157.199 0 1
157.315 0 1
157.431 0 1
157.547 0 1
157.664 0 1
157.78 0 1
157.896 0 1
158.012 0 1
158.128 0 1
158.244 0 1
158.359 0 1
158.475 0 1
158.591 0 1
158.706 0 1
