
6.15755 0 1
6.2731 0 1
6.3887 0 1
6.50437 0 1
6.62009 0 1
6.73587 0 1
6.8517 0 1
6.96759 0 1
7.08353 0 1
7.19952 0 1
7.31557 0 1
7.43166 0 1
7.54781 0 1
7.664 0 1
7.78024 0 1
7.89653 0 1
8.01286 0 1
8.12924 0 1
8.24567 0 1
8.36213 0 1
8.47864 0 1
8.59519 0 1
8.71178 0 1
8.82841 0 1
8.94508 0 1
9.06179 0 1
9.17853 0 1
9.29531 0 1
9.41212 0 1
9.52897 0 1
9.64584 0 1
9.76276 0 1
9.8797 0 1
9.99667 0 1
10.1137 0 1
10.2307 0 1
10.3478 0 1
10.4648 0 1
10.5819 0 1
10.6991 0 1
10.8162 0 1
10.9334 0 1
11.0506 0 1
11.1678 0 1
11.285 0 1
11.4023 0 1
11.5196 0 1
11.6369 0 1
11.7542 0 1
11.8715 0 1
11.9888 0 1
12.1062 0 1
12.2235 0 1
12.3409 0 1
12.4582 0 1
12.5756 0 1
12.693 0 1
12.8104 0 1
12.9278 0 1
13.0452 0 1
13.1626 0 1
13.28 0 1
13.3974 0 1
13.5149 0 1
13.6323 0 1
13.7497 0 1
13.8671 0 1
13.9845 0 1
14.1019 0 1
14.2193 0 1
14.3367 0 1
14.4541 0 1
14.5714 0 1
14.6888 0 1
14.8062 0 1
14.9235 0 1
15.0408 0 0
15.1581 0 0
15.2755 0 0
15.3927 0 0
15.51 0 0
15.6273 0 0
15.7445 0 0
15.8617 0 0
15.9789 0 0
16.0961 0 0
16.2132 0 0
16.3304 0 0
16.4475 0 0
16.5646 0 0
16.6816 0 0
16.7986 0 0
16.9156 0 0
17.0326 0 0
17.1496 0 0
17.2665 0 0
17.3833 0 0
17.5002 0 0
17.617 0 0
17.7338 0 0
17.8505 0 0
17.9672 0 0
18.0839 0 0
18.2005 0 0
18.3171 0 0
18.4337 0 0
18.5502 0 0
18.6666 0 0
18.7831 0 0
18.8994 0 0
19.0158 0 0
19.1321 0 0
19.2483 0 0
19.3645 0 0
19.4806 0 0
19.5967 0 0
19.7128 0 0
19.8288 0 0
19.9447 0 0
20.0606 0 1
20.1764 0 1
20.2922 0 1
20.4079 0 1
20.5236 0 1
20.6392 0 1
20.7548 0 1
20.8702 0 1
23.3078 0 1
23.4233 0 1
23.539 0 1
23.6547 0 1
23.7704 0 1
23.8862 0 1
24.0021 0 1
24.118 0 1
24.234 0 1
24.35 0 1
24.4661 2564 50.636
24.5822 2608 51.0686
24.6984 2641 51.3907
24.8146 2716 52.1153
24.9309 2817 53.0754
25.0472 2786 52.7826
25.1636 2873 53.6004
25.28 2969 54.4885
25.3965 2853 53.4135
25.513 2984 54.626
25.6296 3050 55.2268
25.7462 2858 53.4603
25.8628 2865 53.5257
25.9795 2811 53.0189
26.0962 2671 51.6817
26.213 2630 51.2835
26.3298 2671 51.6817
26.4466 2658 51.5558
26.5635 2643 51.4101
26.6804 2627 51.2543
26.7973 2498 49.98
26.9143 2450 49.4975
27.0313 2352 48.4974
27.1483 2284 47.7912
27.2653 2275 47.697
27.3824 2376 48.7442
27.4996 2404 49.0306
27.6167 2345 48.4252
27.7339 2375 48.734
27.8511 2427 49.2646
27.9683 2574 50.7346
28.0855 2661 51.5849
28.2028 2777 52.6972
28.3201 2699 51.9519
28.4374 2607 51.0588
28.5547 2555 50.547
28.6721 2587 50.8626
28.7894 2541 50.4083
28.9068 2434 49.3356
29.0242 2418 49.1732
29.1416 2326 48.2286
29.259 2366 48.6415
29.3764 2248 47.4131
29.4939 2215 47.0638
29.6113 2263 47.571
29.7288 2339 48.3632
29.8463 2277 47.7179
29.9638 2310 48.0625
30.0812 2177 46.6583
30.1987 2231 47.2335
30.3162 2266 47.6025
30.4337 2283 47.7807
30.5512 2236 47.2864
30.6687 2126 46.1086
30.7862 2128 46.1303
30.9037 2298 47.9375
31.0212 2342 48.3942
31.1387 2511 50.1099
31.2562 2422 49.2138
31.3737 2577 50.7642
31.4912 2628 51.264
31.6087 2488 49.8799
31.7262 2518 50.1797
31.8436 2385 48.8365
31.9611 2436 49.3559
32.0785 2245 47.3814
32.1959 2250 47.4342
32.3134 2219 47.1063
32.4308 2063 45.4203
32.5482 2009 44.8219
32.6655 2024 44.9889
32.7829 1818 42.638
32.9002 1904 43.6348
33.0176 1854 43.0581
33.1349 1879 43.3474
33.2522 1841 42.9069
33.3694 1856 43.0813
33.4867 1807 42.5088
33.6039 1843 42.9302
33.7211 1953 44.1928
33.8383 2011 44.8442
33.9554 1962 44.2945
34.0725 2007 44.7996
34.1896 2014 44.8776
34.3067 1993 44.643
34.4237 1948 44.1362
34.5407 1984 44.5421
34.6577 1877 43.3244
34.7746 2031 45.0666
34.8915 1980 44.4972
35.0084 1831 42.7902
35.1252 1967 44.3509
35.242 1882 43.382
35.3587 1931 43.9431
35.4755 1881 43.3705
35.5921 1863 43.1625
35.7088 1776 42.1426
35.8254 1748 41.8091
35.9419 1706 41.3038
36.0584 1707 41.3159
36.1749 1756 41.9047
36.2913 1633 40.4104
36.4077 1682 41.0122
36.524 1654 40.6694
36.6403 1510 38.8587
36.7565 1563 39.5348
36.8727 1626 40.3237
36.9889 1507 38.8201
37.1049 1577 39.7115
37.221 0 1
37.3369 0 1
37.4529 0 1
37.5687 0 1
37.6845 0 1
37.8003 0 1
37.916 0 1
38.0316 0 1
38.1472 0 1
40.5851 0 1
40.7008 0 1
40.8164 0 1
40.9322 0 1
41.048 0 1
41.1639 0 1
41.2798 0 1
41.3958 0 1
41.5118 0 1
41.6279 0 1
41.744 1276 35.7211
41.8602 1300 36.0555
41.9765 1310 36.1939
42.0928 1379 37.1349
42.2091 1266 35.5809
42.3255 1323 36.3731
42.4419 1366 36.9594
42.5584 1248 35.327
42.675 1240 35.2136
42.7915 1214 34.8425
42.9081 1159 34.0441
43.0248 1072 32.7414
43.1415 972 31.1769
43.2582 977 31.257
43.375 990 31.4643
43.4918 1025 32.0156
43.6087 991 31.4802
43.7256 981 31.3209
43.8425 998 31.5911
43.9595 979 31.289
44.0765 986 31.4006
44.1935 1045 32.3265
44.3106 1001 31.6386
44.4277 1041 32.2645
44.5448 960 30.9839
44.6619 916 30.2655
44.7791 986 31.4006
44.8963 969 31.1288
45.0136 964 31.0483
45.1308 989 31.4484
45.2481 959 30.9677
45.3654 966 31.0805
45.4827 990 31.4643
45.6001 946 30.7571
45.7174 963 31.0322
45.8348 915 30.249
45.9522 843 29.0345
46.0697 829 28.7924
46.1871 785 28.0179
46.3046 786 28.0357
46.422 756 27.4955
46.5395 712 26.6833
46.657 685 26.1725
46.7745 692 26.3059
46.892 654 25.5734
47.0096 685 26.1725
47.1271 699 26.4386
47.2446 660 25.6905
47.3622 682 26.1151
47.4797 660 25.6905
47.5973 590 24.2899
47.7149 661 25.7099
47.8324 636 25.219
47.95 653 25.5539
48.0675 622 24.9399
48.1851 655 25.593
48.3027 648 25.4558
48.4202 704 26.533
48.5378 645 25.3969
48.6554 705 26.5518
48.7729 705 26.5518
48.8904 666 25.807
49.008 696 26.3818
49.1255 684 26.1534
49.243 703 26.5141
49.3605 676 26
49.478 688 26.2298
49.5955 670 25.8844
49.713 657 25.632
49.8304 598 24.454
49.9479 635 25.1992
50.0653 684 26.1534
50.1827 606 24.6171
50.3001 601 24.5153
50.4175 574 23.9583
50.5348 617 24.8395
50.6521 669 25.865
50.7694 663 25.7488
50.8867 713 26.7021
51.004 711 26.6646
51.1212 801 28.3019
51.2384 767 27.6948
51.3556 753 27.4408
51.4727 785 28.0179
51.5899 769 27.7308
51.707 793 28.1603
51.824 820 28.6356
51.9411 839 28.9655
52.0581 810 28.4605
52.175 840 28.9828
52.2919 832 28.8444
52.4088 863 29.3769
52.5257 849 29.1376
52.6425 891 29.8496
52.7593 848 29.1204
52.876 897 29.95
52.9927 848 29.1204
53.1094 890 29.8329
53.226 854 29.2233
53.3426 852 29.189
53.4591 900 30
53.5756 849 29.1376
53.692 813 28.5132
53.8084 774 27.8209
53.9248 773 27.8029
54.0411 728 26.9815
54.1573 726 26.9444
54.2735 0 1
54.3896 0 1
54.5057 0 1
54.6217 0 1
54.7377 0 1
54.8537 0 1
54.9695 0 1
55.0853 0 1
55.2011 0 1
55.3168 0 1
55.4324 0 1
57.824 0 1
57.9396 0 1
58.0553 0 1
58.1711 0 1
58.2869 0 1
58.4028 0 1
58.5187 0 1
58.6347 0 1
58.7508 0 1
58.8669 0 1
58.983 894 29.8998
59.0992 911 30.1828
59.2155 935 30.5778
59.3318 977 31.257
59.4482 975 31.225
59.5646 1033 32.1403
59.681 1047 32.3574
59.7975 1163 34.1028
59.9141 1104 33.2265
60.0306 1135 33.6898
60.1473 1045 32.3265
60.2639 1225 35
60.3807 1116 33.4066
60.4974 1158 34.0294
60.6142 1184 34.4093
60.731 1198 34.6121
60.8479 1248 35.327
60.9648 1247 35.3129
61.0818 1313 36.2353
61.1987 1222 34.9571
61.3158 1294 35.9722
61.4328 1270 35.6371
61.5499 1212 34.8138
61.667 1181 34.3657
61.7841 1268 35.609
61.9013 1255 35.426
62.0185 1166 34.1467
62.1357 1188 34.4674
62.253 1205 34.7131
62.3702 1104 33.2265
62.4875 1126 33.5559
62.6049 1051 32.4191
62.7222 1172 34.2345
62.8396 1172 34.2345
62.9569 1207 34.7419
63.0743 1227 35.0286
63.1918 1179 34.3366
63.3092 1227 35.0286
63.4267 1217 34.8855
63.5441 1270 35.6371
63.6616 1288 35.8887
63.7791 1231 35.0856
63.8966 1242 35.242
64.0142 1289 35.9026
64.1317 1306 36.1386
64.2492 1342 36.6333
64.3668 1363 36.9188
64.4843 1328 36.4417
64.6019 1382 37.1753
64.7195 1288 35.8887
64.837 1328 36.4417
64.9546 1244 35.2704
65.0722 1306 36.1386
65.1898 1226 35.0143
65.3074 1223 34.9714
65.4249 1272 35.6651
65.5425 1245 35.2846
65.6601 1207 34.7419
65.7777 1158 34.0294
65.8952 1088 32.9848
66.0128 1047 32.3574
66.1304 1001 31.6386
66.2479 988 31.4325
66.3655 1029 32.078
66.483 1055 32.4808
66.6005 1064 32.619
66.718 1044 32.311
66.8355 1045 32.3265
66.953 1114 33.3766
67.0705 1090 33.0151
67.1879 1112 33.3467
67.3054 1100 33.1662
67.4228 1066 32.6497
67.5402 1061 32.573
67.6576 1101 33.1813
67.7749 1094 33.0757
67.8923 1055 32.4808
68.0096 1097 33.121
68.1269 1073 32.7567
68.2442 1142 33.7935
68.3614 1073 32.7567
68.4787 1105 33.2415
68.5958 1078 32.8329
68.713 1099 33.1512
68.8302 1087 32.9697
68.9473 988 31.4325
69.0643 979 31.289
69.1814 967 31.0966
69.2984 981 31.3209
69.4154 957 30.9354
69.5323 953 30.8707
69.6492 889 29.8161
69.7661 831 28.8271
69.8829 831 28.8271
69.9997 847 29.1033
70.1165 863 29.3769
70.2332 868 29.4618
70.3499 883 29.7153
70.4665 869 29.4788
70.5831 850 29.1548
70.6996 845 29.0689
70.8161 903 30.05
70.9326 902 30.0333
71.049 895 29.9166
71.1653 851 29.1719
71.2817 874 29.5635
71.3979 849 29.1376
71.5141 851 29.1719
71.6303 843 29.0345
71.7464 778 27.8927
71.8624 0 1
71.9784 0 1
72.0944 0 1
72.2102 0 1
72.3261 0 1
72.4418 0 1
72.5575 0 1
72.6732 0 1
75.1054 0 1
75.2209 0 1
75.3365 0 1
75.4521 0 1
75.5678 0 1
75.6835 0 1
75.7993 0 1
75.9151 0 1
76.031 0 1
76.147 709 26.6271
76.263 815 28.5482
76.3791 882 29.6985
76.4952 858 29.2916
76.6113 879 29.6479
76.7276 900 30
76.8438 843 29.0345
76.9601 938 30.6268
77.0765 941 30.6757
77.1929 962 31.0161
77.3093 947 30.7734
77.4258 986 31.4006
77.5423 941 30.6757
77.6589 908 30.133
77.7755 907 30.1164
77.8921 991 31.4802
78.0088 920 30.3315
78.1256 930 30.4959
78.2423 906 30.0998
78.3591 911 30.1828
78.4759 935 30.5778
78.5928 850 29.1548
78.7097 836 28.9137
78.8266 815 28.5482
78.9436 717 26.7769
79.0606 757 27.5136
79.1776 790 28.1069
79.2946 795 28.1957
79.4117 854 29.2233
79.5288 869 29.4788
79.6459 859 29.3087
79.7631 859 29.3087
79.8802 916 30.2655
79.9974 942 30.692
80.1147 938 30.6268
80.2319 868 29.4618
80.3491 894 29.8998
80.4664 993 31.5119
80.5837 954 30.8869
80.701 947 30.7734
80.8183 1034 32.1559
80.9357 967 31.0966
81.053 961 31
81.1704 981 31.3209
81.2877 1037 32.2025
81.4051 933 30.545
81.5225 999 31.607
81.6399 942 30.692
81.7573 976 31.241
81.8747 900 30
81.9922 908 30.133
82.1096 887 29.7825
82.227 853 29.2062
82.3444 884 29.7321
82.4619 827 28.7576
82.5793 704 26.533
82.6967 777 27.8747
82.8142 841 29
82.9316 838 28.9482
83.049 818 28.6007
83.1664 798 28.2489
83.2838 861 29.3428
83.4012 806 28.3901
83.5186 904 30.0666
83.636 987 31.4166
83.7534 939 30.6431
83.8708 929 30.4795
83.9881 975 31.225
84.1055 931 30.5123
84.2228 890 29.8329
84.3401 1018 31.9061
84.4575 971 31.1609
84.5747 971 31.1609
84.692 1005 31.7017
84.8093 990 31.4643
84.9265 1000 31.6228
85.0437 999 31.607
85.1609 939 30.6431
85.2781 908 30.133
85.3952 915 30.249
85.5123 925 30.4138
85.6294 950 30.8221
85.7465 902 30.0333
85.8636 875 29.5804
85.9806 857 29.2746
86.0976 757 27.5136
86.2145 801 28.3019
86.3315 781 27.9464
86.4484 873 29.5466
86.5652 879 29.6479
86.682 938 30.6268
86.7988 896 29.9333
86.9156 902 30.0333
87.0323 952 30.8545
87.149 1062 32.5883
87.2657 1020 31.9374
87.3823 979 31.289
87.4988 1018 31.9061
87.6154 1072 32.7414
87.7318 1017 31.8904
87.8483 1048 32.3728
87.9647 1053 32.45
88.081 1041 32.2645
88.1973 1061 32.573
88.3136 1111 33.3317
88.4298 1123 33.5112
88.546 1059 32.5423
88.6621 1084 32.9242
88.7781 1015 31.8591
88.8942 0 1
89.0101 0 1
89.126 0 1
89.2419 0 1
89.3577 0 1
89.4734 0 1
89.5891 0 1
89.7047 0 1
89.8203 0 1
89.9358 0 1
92.3269 0 1
92.4424 0 1
92.558 0 1
92.6736 0 1
92.7893 0 1
92.905 0 1
93.0208 0 1
93.1366 0 1
93.2525 0 1
93.3685 0 1
93.4845 0 1
93.6005 1055 32.4808
93.7167 1106 33.2566
93.8328 1152 33.9411
93.949 1130 33.6155
94.0653 1089 33
94.1816 1155 33.9853
94.2979 1057 32.5115
94.4143 1074 32.7719
94.5307 1022 31.9687
94.6472 1006 31.7175
94.7637 1059 32.5423
94.8803 1031 32.1092
94.9969 978 31.273
95.1135 990 31.4643
95.2302 928 30.4631
95.3469 899 29.9833
95.4637 875 29.5804
95.5805 991 31.4802
95.6973 925 30.4138
95.8142 953 30.8707
95.9311 983 31.3528
96.048 1023 31.9844
96.1649 1015 31.8591
96.2819 1091 33.0303
96.3989 1084 32.9242
96.516 1147 33.8674
96.633 1160 34.0588
96.7501 1254 35.4119
96.8673 1187 34.4529
96.9844 1162 34.0881
97.1016 1222 34.9571
97.2188 1233 35.1141
97.336 1245 35.2846
97.4532 1244 35.2704
97.5704 1302 36.0832
97.6877 1259 35.4824
97.805 1264 35.5528
97.9223 1181 34.3657
98.0396 1262 35.5246
98.1569 1260 35.4965
98.2743 1119 33.4515
98.3916 1109 33.3017
98.509 1146 33.8526
98.6264 1117 33.4215
98.7438 1064 32.619
98.8612 971 31.1609
98.9786 1015 31.8591
99.096 968 31.1127
99.2134 986 31.4006
99.3308 1016 31.8748
99.4482 1119 33.4515
99.5656 1081 32.8786
99.6831 1076 32.8024
99.8005 1096 33.1059
99.9179 1146 33.8526
100.035 1201 34.6554
100.153 1184 34.4093
100.27 1168 34.176
100.388 1205 34.7131
100.505 1234 35.1283
100.622 1286 35.8608
100.74 1293 35.9583
100.857 1302 36.0832
100.975 1320 36.3318
101.092 1323 36.3731
101.209 1338 36.5787
101.327 1241 35.2278
101.444 1307 36.1525
101.561 1354 36.7967
101.679 1189 34.4819
101.796 1183 34.3948
101.913 1291 35.9305
102.03 1246 35.2987
102.148 1177 34.3074
102.265 1241 35.2278
102.382 1062 32.5883
102.499 1067 32.665
102.616 1104 33.2265
102.733 1121 33.4813
102.851 1109 33.3017
102.968 1125 33.541
103.085 1136 33.7046
103.202 1195 34.5688
103.319 1167 34.1614
103.436 1233 35.1141
103.552 1240 35.2136
103.669 1231 35.0856
103.786 1273 35.6791
103.903 1335 36.5377
104.02 1374 37.0675
104.137 1390 37.2827
104.253 1489 38.5876
104.37 1442 37.9737
104.487 1521 39
104.603 1483 38.5097
104.72 1548 39.3446
104.836 1514 38.9102
104.953 1448 38.0526
105.069 1486 38.5487
105.186 1429 37.8021
105.302 1501 38.7427
105.418 1461 38.223
105.535 1444 38
105.651 1430 37.8153
105.767 1369 37
105.883 1374 37.0675
105.999 1396 37.3631
106.115 0 1
106.231 0 1
106.347 0 1
106.463 0 1
106.579 0 1
106.694 0 1
106.81 0 1
106.926 0 1
107.041 0 1
107.157 0 1
109.576 0 1
109.692 0 1
109.807 0 1
109.923 0 1
110.039 0 1
110.155 0 1
110.27 0 1
110.386 0 1
110.502 0 1
110.618 2041 45.1774
110.735 2070 45.4973
110.851 1979 44.486
110.967 1921 43.8292
111.083 1809 42.5323
111.199 1756 41.9047
111.316 1947 44.1248
111.432 1898 43.566
111.549 1928 43.909
111.665 1880 43.359
111.782 1980 44.4972
111.898 1981 44.5084
112.015 2095 45.7712
112.132 2080 45.607
112.248 2117 46.0109
112.365 2034 45.0999
112.482 2075 45.5522
112.599 1989 44.5982
112.716 2071 45.5082
112.832 2090 45.7165
112.949 2102 45.8476
113.066 2056 45.3431
113.183 2147 46.3357
113.3 2109 45.9239
113.417 2089 45.7056
113.534 2056 45.3431
113.652 1969 44.3734
113.769 2006 44.7884
113.886 1902 43.6119
114.003 1905 43.6463
114.12 1886 43.4281
114.238 1856 43.0813
114.355 1857 43.0929
114.472 1731 41.6053
114.589 1609 40.1123
114.707 1589 39.8623
114.824 1632 40.398
114.942 1675 40.9268
115.059 1737 41.6773
115.176 1718 41.4488
115.294 1779 42.1782
115.411 1778 42.1663
115.529 1822 42.6849
115.646 1854 43.0581
115.764 1810 42.5441
115.881 1917 43.7836
115.999 2024 44.9889
116.116 1893 43.5086
116.234 2029 45.0444
116.351 1979 44.486
116.469 2088 45.6946
116.586 2034 45.0999
116.704 2077 45.5741
116.821 2011 44.8442
116.939 2018 44.9222
117.056 1973 44.4185
117.174 1994 44.6542
117.291 2010 44.833
117.409 1956 44.2267
117.526 1959 44.2606
117.644 1924 43.8634
117.761 1944 44.0908
117.879 1951 44.1701
117.996 1831 42.7902
118.114 1789 42.2966
118.231 1728 41.5692
118.349 1718 41.4488
118.466 1625 40.3113
118.584 1689 41.0974
118.701 1849 43
118.819 1734 41.6413
118.936 1751 41.845
119.053 1897 43.5546
119.171 1846 42.9651
119.288 1935 43.9886
119.405 1931 43.9431
119.523 1900 43.589
119.64 2005 44.7772
119.757 1908 43.6807
119.875 2065 45.4423
119.992 1939 44.0341
120.109 1905 43.6463
120.226 1959 44.2606
120.343 2043 45.1996
120.46 2026 45.0111
120.578 1978 44.4747
120.695 1954 44.2041
120.812 2018 44.9222
120.929 2026 45.0111
121.046 1945 44.1022
121.163 1998 44.699
121.279 1962 44.2945
121.396 1899 43.5775
121.513 1908 43.6807
121.63 1882 43.382
121.747 1833 42.8135
121.863 1748 41.8091
121.98 1679 40.9756
122.097 1499 38.7169
122.213 1570 39.6232
122.33 1627 40.3361
122.446 1738 41.6893
122.563 1678 40.9634
122.679 1670 40.8656
122.795 1697 41.1947
122.912 1764 42
123.028 1719 41.4608
123.144 1749 41.821
123.26 1784 42.2374
123.377 0 1
123.493 0 1
123.609 0 1
123.725 0 1
123.84 0 1
123.956 0 1
124.072 0 1
124.188 0 1
124.303 0 1
124.419 0 1
126.852 0 1
126.968 0 1
127.083 0 1
127.199 0 1
127.315 0 1
127.431 0 1
127.547 0 1
127.663 0 1
127.779 0 1
127.895 0 1
128.011 0 1
128.127 0 1
128.243 0 1
128.359 1866 43.1972
128.476 1879 43.3474
128.592 1778 42.1663
128.708 1906 43.6578
128.825 1840 42.8952
128.941 1841 42.9069
129.058 1831 42.7902
129.174 1861 43.1393
129.291 1807 42.5088
129.408 1864 43.1741
129.524 1771 42.0833
129.641 1742 41.7373
129.758 1711 41.3642
129.875 1653 40.6571
129.992 1723 41.509
130.108 1528 39.0896
130.225 1499 38.7169
130.342 1497 38.6911
130.459 1349 36.7287
130.576 1399 37.4032
130.693 1425 37.7492
130.81 1302 36.0832
130.928 1236 35.1568
131.045 1197 34.5977
131.162 1204 34.6987
131.279 1348 36.7151
131.396 1331 36.4829
131.513 1238 35.1852
131.631 1307 36.1525
131.748 1401 37.4299
131.865 1422 37.7094
131.983 1363 36.9188
132.1 1423 37.7227
132.217 1438 37.921
132.335 1583 39.7869
132.452 1498 38.704
132.57 1519 38.9744
132.687 1456 38.1576
132.804 1592 39.8999
132.922 1519 38.9744
133.039 1473 38.3797
133.157 1494 38.6523
133.274 1406 37.4967
133.392 1431 37.8286
133.509 1497 38.6911
133.627 1446 38.0263
133.744 1479 38.4578
133.862 1416 37.6298
133.979 1493 38.6394
134.097 1376 37.0945
134.214 1433 37.855
134.332 1417 37.6431
134.449 1267 35.5949
134.567 1289 35.9026
134.684 1341 36.6197
134.802 1433 37.855
134.919 1437 37.9078
135.037 1364 36.9324
135.154 1393 37.3229
135.272 1460 38.2099
135.389 1551 39.3827
135.507 1539 39.2301
135.624 1628 40.3485
135.742 1576 39.6989
135.859 1643 40.5339
135.977 1634 40.4228
136.094 1658 40.7185
136.211 1701 41.2432
136.329 1778 42.1663
136.446 1695 41.1704
136.564 1660 40.7431
136.681 1743 41.7493
136.798 1643 40.5339
136.915 1644 40.5463
137.033 1605 40.0625
137.15 1536 39.1918
137.267 1555 39.4335
137.384 1555 39.4335
137.502 1595 39.9375
137.619 1586 39.8246
137.736 1578 39.724
137.853 1578 39.724
137.97 1467 38.3014
138.087 1517 38.9487
138.204 1485 38.5357
138.321 1442 37.9737
138.438 1555 39.4335
138.555 1598 39.975
138.672 1731 41.6053
138.788 1709 41.3401
138.905 1822 42.6849
139.022 2024 44.9889
139.139 1992 44.6318
139.255 1970 44.3847
139.372 2129 46.1411
139.488 2142 46.2817
139.605 2201 46.9148
139.721 2277 47.7179
139.838 2257 47.5079
139.954 2328 48.2494
140.071 2521 50.2096
140.187 2544 50.4381
140.303 2813 53.0377
140.419 2945 54.2679
140.535 2977 54.5619
140.652 3217 56.7186
140.768 0 1
140.884 0 1
141 0 1
141.115 0 1
141.231 0 1
141.347 0 1
141.463 0 1
141.578 0 1
141.694 0 1
144.104 0 1
144.219 0 1
144.335 0 1
144.45 0 1
144.566 0 1
144.682 0 1
144.798 0 1
144.914 0 1
145.03 0 1
145.146 3094 55.6237
145.262 3255 57.0526
145.378 3136 56
145.494 3213 56.6833
145.61 3150 56.1249
145.726 3273 57.2101
145.842 3244 56.9561
145.959 3178 56.3738
146.075 3326 57.6715
146.192 3460 58.8218
146.308 3534 59.4475
146.425 3674 60.6135
146.541 3727 61.0492
146.658 3549 59.5735
146.774 3282 57.2887
146.891 3180 56.3915
147.008 3273 57.2101
147.125 3374 58.0861
147.241 3241 56.9298
147.358 3223 56.7715
147.475 3216 56.7098
147.592 3302 57.463
147.709 3345 57.836
147.826 3342 57.81
147.943 3375 58.0948
148.06 3272 57.2014
148.177 3302 57.463
148.294 3144 56.0714
148.411 3162 56.2317
148.528 3121 55.8659
148.645 3168 56.285
148.762 3222 56.7627
148.88 3192 56.4978
148.997 2920 54.037
149.114 3241 56.9298
149.231 3206 56.6216
149.349 3269 57.1752
149.466 3225 56.7891
149.583 3214 56.6922
149.701 3355 57.9224
149.818 3425 58.5235
149.935 3306 57.4978
150.053 3363 57.9914
150.17 3243 56.9473
150.287 3275 57.2276
150.405 2979 54.5802
150.522 2931 54.1387
150.64 2895 53.8052
150.757 3082 55.5158
150.875 2942 54.2402
150.992 2919 54.0278
151.11 2840 53.2917
151.227 3081 55.5068
151.344 3071 55.4166
151.462 3133 55.9732
151.579 3203 56.5951
151.697 3180 56.3915
151.814 3197 56.542
151.932 3270 57.1839
152.049 3173 56.3294
152.167 3183 56.4181
152.284 3142 56.0535
152.402 3210 56.6569
152.519 3165 56.2583
152.636 3303 57.4717
152.754 3394 58.258
152.871 3304 57.4804
152.989 3327 57.6802
153.106 3398 58.2924
153.223 3463 58.8473
153.341 3449 58.7282
153.458 3362 57.9828
153.575 3392 58.2409
153.693 3406 58.3609
153.81 3300 57.4456
153.927 3275 57.2276
154.044 3031 55.0545
154.162 2920 54.037
154.279 2977 54.5619
154.396 3142 56.0535
154.513 3176 56.356
154.63 3087 55.5608
154.747 3215 56.701
154.864 3237 56.8946
154.981 3287 57.3324
155.098 3462 58.8388
155.215 3517 59.3043
155.332 3400 58.3095
155.449 3531 59.4222
155.566 3635 60.291
155.683 3590 59.9166
155.8 3813 61.7495
155.917 3758 61.3025
156.033 3937 62.7455
156.15 0 1
156.267 0 1
156.383 0 1
156.5 0 1
156.617 0 1
156.733 0 1
156.85 0 1
156.966 0 1
157.082 0 1
157.199 0 1
157.315 0 1
157.431 0 1
157.547 0 1
157.664 0 1
157.78 0 1
157.896 0 1
158.012 0 1
158.128 0 1
158.244 0 1
158.359 0 1
158.475 0 1
158.591 0 1
158.706 0 1
