
6.15755 0 1
6.2731 0 1
6.3887 0 1
6.50437 0 1
6.62009 0 1
6.73587 0 1
6.8517 0 1
6.96759 0 1
7.08353 0 1
7.19952 0 1
7.31557 0 1
7.43166 0 1
7.54781 0 1
7.664 0 1
7.78024 0 1
7.89653 0 1
8.01286 0 1
8.12924 0 1
8.24567 0 1
8.36213 0 1
8.47864 0 1
8.59519 0 1
8.71178 0 1
8.82841 0 1
8.94508 0 1
9.06179 0 1
9.17853 0 1
9.29531 0 1
9.41212 0 1
9.52897 0 1
9.64584 0 1
9.76276 0 1
9.8797 0 1
9.99667 0 1
10.1137 0 1
10.2307 0 1
10.3478 0 1
10.4648 0 1
10.5819 0 1
10.6991 0 1
10.8162 0 1
10.9334 0 1
11.0506 0 1
11.1678 0 1
11.285 0 1
11.4023 0 1
11.5196 0 1
11.6369 0 1
11.7542 0 1
11.8715 0 1
11.9888 0 1
12.1062 0 1
12.2235 0 1
12.3409 0 1
12.4582 0 1
12.5756 0 1
12.693 0 1
12.8104 0 1
12.9278 0 1
13.0452 0 1
13.1626 0 1
13.28 0 1
13.3974 0 1
13.5149 0 1
13.6323 0 1
13.7497 0 1
13.8671 0 1
13.9845 0 1
14.1019 0 1
14.2193 0 1
14.3367 0 1
14.4541 0 1
14.5714 0 1
14.6888 0 1
14.8062 0 1
14.9235 0 1
15.0408 0 0
15.1581 0 0
15.2755 0 0
15.3927 0 0
15.51 0 0
15.6273 0 0
15.7445 0 0
15.8617 0 0
15.9789 0 0
16.0961 0 0
16.2132 0 0
16.3304 0 0
16.4475 0 0
16.5646 0 0
16.6816 0 0
16.7986 0 0
16.9156 0 0
17.0326 0 0
17.1496 0 0
17.2665 0 0
17.3833 0 0
17.5002 0 0
17.617 0 0
17.7338 0 0
17.8505 0 0
17.9672 0 0
18.0839 0 0
18.2005 0 0
18.3171 0 0
18.4337 0 0
18.5502 0 0
18.6666 0 0
18.7831 0 0
18.8994 0 0
19.0158 0 0
19.1321 0 0
19.2483 0 0
19.3645 0 0
19.4806 0 0
19.5967 0 0
19.7128 0 0
19.8288 0 0
19.9447 0 0
20.0606 0 1
20.1764 0 1
20.2922 0 1
20.4079 0 1
20.5236 0 1
20.6392 0 1
20.7548 0 1
20.8702 0 1
23.3078 0 1
23.4233 0 1
23.539 0 1
23.6547 0 1
23.7704 0 1
23.8862 0 1
24.0021 0 1
24.118 0 1
24.234 0 1
24.35 0 1
24.4661 1800 42.4264
24.5822 1778 42.1663
24.6984 1775 42.1307
24.8146 1710 41.3521
24.9309 1553 39.4081
25.0472 1553 39.4081
25.1636 1674 40.9145
25.28 1743 41.7493
25.3965 1802 42.45
25.513 1855 43.0697
25.6296 2026 45.0111
25.7462 2105 45.8803
25.8628 1989 44.5982
25.9795 2100 45.8258
26.0962 2096 45.7821
26.213 2115 45.9891
26.3298 2024 44.9889
26.4466 1953 44.1928
26.5635 1997 44.6878
26.6804 1936 44
26.7973 1810 42.5441
26.9143 1858 43.1045
27.0313 1978 44.4747
27.1483 1952 44.1814
27.2653 2001 44.7325
27.3824 2075 45.5522
27.4996 2043 45.1996
27.6167 2015 44.8888
27.7339 2104 45.8694
27.8511 1935 43.9886
27.9683 2004 44.7661
28.0855 1892 43.4971
28.2028 1785 42.2493
28.3201 1780 42.19
28.4374 1605 40.0625
28.5547 1539 39.2301
28.6721 1548 39.3446
28.7894 1649 40.6079
28.9068 1671 40.8779
29.0242 1751 41.845
29.1416 1846 42.9651
29.259 1944 44.0908
29.3764 2046 45.2327
29.4939 1953 44.1928
29.6113 2013 44.8665
29.7288 1902 43.6119
29.8463 1966 44.3396
29.9638 1960 44.2719
30.0812 1953 44.1928
30.1987 1772 42.0951
30.3162 1824 42.7083
30.4337 1820 42.6615
30.5512 1931 43.9431
30.6687 1937 44.0114
30.7862 1953 44.1928
30.9037 1984 44.5421
31.0212 1991 44.6206
31.1387 2084 45.6508
31.2562 2035 45.111
31.3737 2040 45.1664
31.4912 1970 44.3847
31.6087 1934 43.9773
31.7262 1832 42.8019
31.8436 1803 42.4617
31.9611 1582 39.7744
32.0785 1589 39.8623
32.1959 1602 40.025
32.3134 1591 39.8873
32.4308 1675 40.9268
32.5482 1811 42.5558
32.6655 1884 43.4051
32.7829 1932 43.9545
32.9002 2010 44.833
33.0176 2083 45.6399
33.1349 2008 44.8107
33.2522 1987 44.5758
33.3694 2010 44.833
33.4867 2020 44.9444
33.6039 2021 44.9555
33.7211 1939 44.0341
33.8383 1918 43.795
33.9554 1824 42.7083
34.0725 1944 44.0908
34.1896 1946 44.1135
34.3067 1983 44.5309
34.4237 2022 44.9667
34.5407 2008 44.8107
34.6577 2083 45.6399
34.7746 1949 44.1475
34.8915 2055 45.3321
35.0084 2038 45.1442
35.1252 2055 45.3321
35.242 1929 43.9204
35.3587 1895 43.5316
35.4755 1793 42.3438
35.5921 1661 40.7554
35.7088 1553 39.4081
35.8254 1541 39.2556
35.9419 1479 38.4578
36.0584 1552 39.3954
36.1749 1651 40.6325
36.2913 1764 42
36.4077 1915 43.7607
36.524 2062 45.4093
36.6403 2079 45.5961
36.7565 2000 44.7214
36.8727 2073 45.5302
36.9889 2003 44.7549
37.1049 1995 44.6654
37.221 0 1
37.3369 0 1
37.4529 0 1
37.5687 0 1
37.6845 0 1
37.8003 0 1
37.916 0 1
38.0316 0 1
38.1472 0 1
40.5851 0 1
40.7008 0 1
40.8164 0 1
40.9322 0 1
41.048 0 1
41.1639 0 1
41.2798 0 1
41.3958 0 1
41.5118 0 1
41.6279 0 1
41.744 1696 41.1825
41.8602 1900 43.589
41.9765 1822 42.6849
42.0928 1835 42.8369
42.2091 1858 43.1045
42.3255 1780 42.19
42.4419 1769 42.0595
42.5584 1789 42.2966
42.675 1757 41.9166
42.7915 1713 41.3884
42.9081 1713 41.3884
43.0248 1803 42.4617
43.1415 1814 42.5911
43.2582 1840 42.8952
43.375 1880 43.359
43.4918 1897 43.5546
43.6087 1916 43.7721
43.7256 1818 42.638
43.8425 1806 42.4971
43.9595 1808 42.5206
44.0765 1805 42.4853
44.1935 1701 41.2432
44.3106 1606 40.0749
44.4277 1388 37.2559
44.5448 1275 35.7071
44.6619 1234 35.1283
44.7791 1313 36.2353
44.8963 1344 36.6606
45.0136 1394 37.3363
45.1308 1567 39.5854
45.2481 1599 39.9875
45.3654 1594 39.9249
45.4827 1638 40.4722
45.6001 1591 39.8873
45.7174 1653 40.6571
45.8348 1548 39.3446
45.9522 1574 39.6737
46.0697 1511 38.8716
46.1871 1540 39.2428
46.3046 1445 38.0132
46.422 1468 38.3145
46.5395 1494 38.6523
46.657 1484 38.5227
46.7745 1518 38.9615
46.892 1508 38.833
47.0096 1505 38.7943
47.1271 1568 39.598
47.2446 1397 37.3765
47.3622 1448 38.0526
47.4797 1460 38.2099
47.5973 1402 37.4433
47.7149 1377 37.108
47.8324 1369 37
47.95 1195 34.5688
48.0675 1101 33.1813
48.1851 980 31.305
48.3027 1009 31.7648
48.4202 1072 32.7414
48.5378 1171 34.2199
48.6554 1274 35.6931
48.7729 1348 36.7151
48.8904 1362 36.9053
49.008 1376 37.0945
49.1255 1485 38.5357
49.243 1459 38.1969
49.3605 1395 37.3497
49.478 1447 38.0395
49.5955 1380 37.1484
49.713 1437 37.9078
49.8304 1404 37.47
49.9479 1413 37.5899
50.0653 1561 39.5095
50.1827 1532 39.1408
50.3001 1537 39.2046
50.4175 1628 40.3485
50.5348 1669 40.8534
50.6521 1739 41.7013
50.7694 1752 41.8569
50.8867 1627 40.3361
51.004 1729 41.5812
51.1212 1775 42.1307
51.2384 1704 41.2795
51.3556 1758 41.9285
51.4727 1643 40.5339
51.5899 1465 38.2753
51.707 1418 37.6563
51.824 1377 37.108
51.9411 1595 39.9375
52.0581 1833 42.8135
52.175 1912 43.7264
52.2919 2073 45.5302
52.4088 2183 46.7226
52.5257 2130 46.1519
52.6425 2251 47.4447
52.7593 2213 47.0425
52.876 2221 47.1275
52.9927 2289 47.8435
53.1094 2257 47.5079
53.226 2357 48.5489
53.3426 2252 47.4552
53.4591 2301 47.9687
53.5756 2290 47.8539
53.692 2377 48.7545
53.8084 2331 48.2804
53.9248 2370 48.6826
54.0411 2538 50.3786
54.1573 2506 50.06
54.2735 0 1
54.3896 0 1
54.5057 0 1
54.6217 0 1
54.7377 0 1
54.8537 0 1
54.9695 0 1
55.0853 0 1
55.2011 0 1
55.3168 0 1
55.4324 0 1
57.824 0 1
57.9396 0 1
58.0553 0 1
58.1711 0 1
58.2869 0 1
58.4028 0 1
58.5187 0 1
58.6347 0 1
58.7508 0 1
58.8669 0 1
58.983 3222 56.7627
59.0992 3338 57.7754
59.2155 3419 58.4722
59.3318 3425 58.5235
59.4482 3421 58.4893
59.5646 3550 59.5819
59.681 3400 58.3095
59.7975 3328 57.6888
59.9141 3308 57.5152
60.0306 2983 54.6168
60.1473 2866 53.535
60.2639 2582 50.8134
60.3807 2394 48.9285
60.4974 2384 48.8262
60.6142 2701 51.9711
60.731 2841 53.301
60.8479 3111 55.7763
60.9648 3308 57.5152
61.0818 3407 58.3695
61.1987 3447 58.7112
61.3158 3397 58.2838
61.4328 3400 58.3095
61.5499 3543 59.5231
61.667 3493 59.1016
61.7841 3545 59.5399
61.9013 3458 58.8048
62.0185 3398 58.2924
62.1357 3376 58.1034
62.253 3459 58.8133
62.3702 3482 59.0085
62.4875 3563 59.6909
62.6049 3667 60.5558
62.7222 3723 61.0164
62.8396 3716 60.959
62.9569 3726 61.041
63.0743 3640 60.3324
63.1918 3738 61.1392
63.3092 3632 60.2661
63.4267 3558 59.649
63.5441 3387 58.1979
63.6616 2993 54.7083
63.7791 2739 52.3355
63.8966 2507 50.07
64.0142 2529 50.2892
64.1317 2763 52.5642
64.2492 3020 54.9545
64.3668 3350 57.8792
64.4843 3524 59.3633
64.6019 3707 60.8851
64.7195 3629 60.2412
64.837 3735 61.1146
64.9546 3686 60.7124
65.0722 3750 61.2372
65.1898 3727 61.0492
65.3074 3827 61.8628
65.4249 3741 61.1637
65.5425 3620 60.1664
65.6601 3749 61.2291
65.7777 3635 60.291
65.8952 3671 60.5888
66.0128 3783 61.5061
66.1304 3780 61.4817
66.2479 3883 62.3137
66.3655 4001 63.2535
66.483 4046 63.6082
66.6005 4037 63.5374
66.718 3967 62.9841
66.8355 3949 62.8411
66.953 3822 61.8223
67.0705 3778 61.4654
67.1879 3607 60.0583
67.3054 3267 57.1577
67.4228 2899 53.8424
67.5402 2594 50.9313
67.6576 2745 52.3927
67.7749 2840 53.2917
67.8923 3343 57.8187
68.0096 3745 61.1964
68.1269 3915 62.57
68.2442 4164 64.5291
68.3614 4092 63.9687
68.4787 4143 64.3661
68.5958 4224 64.9923
68.713 4284 65.4523
68.8302 4280 65.4217
68.9473 4258 65.2534
69.0643 4077 63.8514
69.1814 4286 65.4675
69.2984 4359 66.0227
69.4154 4114 64.1405
69.5323 4258 65.2534
69.6492 4426 66.5282
69.7661 4344 65.909
69.8829 4396 66.3023
69.9997 4581 67.6831
70.1165 4502 67.0969
70.2332 4632 68.0588
70.3499 4604 67.8528
70.4665 4603 67.8454
70.5831 4278 65.4064
70.6996 4257 65.2457
70.8161 4180 64.6529
70.9326 3814 61.7576
71.049 3413 58.4209
71.1653 3031 55.0545
71.2817 2832 53.2165
71.3979 2931 54.1387
71.5141 3098 55.6597
71.6303 3590 59.9166
71.7464 3534 59.4475
71.8624 0 1
71.9784 0 1
72.0944 0 1
72.2102 0 1
72.3261 0 1
72.4418 0 1
72.5575 0 1
72.6732 0 1
75.1054 0 1
75.2209 0 1
75.3365 0 1
75.4521 0 1
75.5678 0 1
75.6835 0 1
75.7993 0 1
75.9151 0 1
76.031 0 1
76.147 3827 61.8628
76.263 3928 62.6738
76.3791 3538 59.4811
76.4952 3229 56.8243
76.6113 3014 54.8999
76.7276 3179 56.3826
76.8438 3698 60.8112
76.9601 4031 63.4902
77.0765 4526 67.2756
77.1929 4805 69.3181
77.3093 5011 70.7884
77.4258 4837 69.5485
77.5423 4874 69.814
77.6589 4876 69.8284
77.7755 4882 69.8713
77.8921 4850 69.6419
78.0088 4825 69.4622
78.1256 4845 69.606
78.2423 4720 68.7023
78.3591 4584 67.7052
78.4759 4628 68.0294
78.5928 4781 69.1448
78.7097 4671 68.3447
78.8266 4917 70.1213
78.9436 4544 67.4092
79.0606 4807 69.3325
79.1776 4889 69.9214
79.2946 4965 70.4628
79.4117 4743 68.8694
79.5288 4887 69.9071
79.6459 4522 67.2458
79.7631 4478 66.9179
79.8802 4097 64.0078
79.9974 3851 62.0564
80.1147 3369 58.0431
80.2319 3040 55.1362
80.3491 3130 55.9464
80.4664 3479 58.983
80.5837 3961 62.9365
80.701 4284 65.4523
80.8183 4590 67.7495
80.9357 4676 68.3813
81.053 4725 68.7386
81.1704 4763 69.0145
81.2877 4808 69.3397
81.4051 4768 69.0507
81.5225 4960 70.4273
81.6399 4614 67.9264
81.7573 4758 68.9783
81.8747 4597 67.8012
81.9922 4561 67.5352
82.1096 4449 66.7008
82.227 4596 67.7938
82.3444 4553 67.4759
82.4619 4600 67.8233
82.5793 4505 67.1193
82.6967 4772 69.0797
82.8142 4553 67.4759
82.9316 4749 68.913
83.049 4692 68.4982
83.1664 4516 67.2012
83.2838 4430 66.5582
83.4012 4020 63.4035
83.5186 3708 60.8933
83.636 3557 59.6406
83.7534 3267 57.1577
83.8708 2927 54.1018
83.9881 2922 54.0555
84.1055 3164 56.2494
84.2228 3429 58.5577
84.3401 3942 62.7853
84.4575 4406 66.3777
84.5747 4523 67.2533
84.692 4596 67.7938
84.8093 4654 68.2202
84.9265 4506 67.1267
85.0437 4581 67.6831
85.1609 4596 67.7938
85.2781 4673 68.3593
85.3952 4508 67.1416
85.5123 4561 67.5352
85.6294 4642 68.1322
85.7465 4576 67.6461
85.8636 4590 67.7495
85.9806 4782 69.152
86.0976 4677 68.3886
86.2145 4875 69.8212
86.3315 4732 68.7895
86.4484 5084 71.3022
86.5652 5047 71.0422
86.682 5000 70.7107
86.7988 4913 70.0928
86.9156 4782 69.152
87.0323 4290 65.4981
87.149 4214 64.9153
87.2657 3850 62.0484
87.3823 3423 58.5064
87.4988 3378 58.1206
87.6154 3577 59.808
87.7318 3902 62.466
87.8483 4396 66.3023
87.9647 4879 69.8498
88.081 5148 71.7496
88.1973 5223 72.2703
88.3136 5358 73.1984
88.4298 5221 72.2565
88.546 5486 74.0675
88.6621 5356 73.1847
88.7781 5231 72.3257
88.8942 0 1
89.0101 0 1
89.126 0 1
89.2419 0 1
89.3577 0 1
89.4734 0 1
89.5891 0 1
89.7047 0 1
89.8203 0 1
89.9358 0 1
92.3269 0 1
92.4424 0 1
92.558 0 1
92.6736 0 1
92.7893 0 1
92.905 0 1
93.0208 0 1
93.1366 0 1
93.2525 0 1
93.3685 0 1
93.4845 0 1
93.6005 5162 71.8471
93.7167 5270 72.5948
93.8328 5241 72.3948
93.949 5320 72.9383
94.0653 5294 72.7599
94.1816 5260 72.5259
94.2979 5280 72.6636
94.4143 5265 72.5603
94.5307 5165 71.8679
94.6472 5235 72.3533
94.7637 5048 71.0493
94.8803 5200 72.111
94.9969 5251 72.4638
95.1135 5236 72.3602
95.2302 5348 73.13
95.3469 5280 72.6636
95.4637 5472 73.973
95.5805 5390 73.4166
95.6973 5522 74.3102
95.8142 5462 73.9053
95.9311 5387 73.3962
96.048 5122 71.5681
96.1649 5039 70.9859
96.2819 4584 67.7052
96.3989 4268 65.3299
96.516 3763 61.3433
96.633 3688 60.7289
96.7501 3704 60.8605
96.8673 3939 62.7615
96.9844 4562 67.5426
97.1016 4947 70.3349
97.2188 5249 72.45
97.336 5551 74.505
97.4532 5592 74.7797
97.5704 5573 74.6525
97.6877 5612 74.9133
97.805 5524 74.3236
97.9223 5491 74.1013
98.0396 5484 74.054
98.1569 5581 74.7061
98.2743 5503 74.1822
98.3916 5588 74.7529
98.509 5504 74.1889
98.6264 5380 73.3485
98.7438 5473 73.9797
98.8612 5564 74.5922
98.9786 5562 74.5788
99.096 5642 75.1132
99.2134 5690 75.4321
99.3308 5664 75.2596
99.4482 5815 76.2561
99.5656 5633 75.0533
99.6831 5418 73.6071
99.8005 5118 71.5402
99.9179 4916 70.1142
100.035 4547 67.4314
100.153 4100 64.0312
100.27 3903 62.474
100.388 4070 63.7966
100.505 4721 68.7095
100.622 5136 71.6659
100.74 5495 74.1283
100.857 5729 75.6902
100.975 5875 76.6485
101.092 5913 76.896
101.209 5877 76.6616
101.327 5781 76.0329
101.444 5853 76.5049
101.561 5799 76.1512
101.679 5712 75.5778
101.796 5904 76.8375
101.913 5876 76.6551
102.03 5814 76.2496
102.148 5951 77.1427
102.265 6204 78.7655
102.382 5685 75.3989
102.499 6015 77.5564
102.616 5959 77.1946
102.733 6222 78.8797
102.851 6010 77.5242
102.968 6324 79.5236
103.085 6224 78.8923
103.202 5920 76.9415
103.319 5625 75
103.436 5342 73.089
103.552 4830 69.4982
103.669 4329 65.7951
103.786 4038 63.5453
103.903 4390 66.2571
104.02 4969 70.4911
104.137 5451 73.8309
104.253 6093 78.0577
104.37 6006 77.4984
104.487 6406 80.0375
104.603 6444 80.2745
104.72 6388 79.925
104.836 6381 79.8812
104.953 6321 79.5047
105.069 6212 78.8162
105.186 6358 79.7371
105.302 6326 79.5362
105.418 6429 80.181
105.535 6395 79.9687
105.651 6269 79.177
105.767 6457 80.3555
105.883 6377 79.8561
105.999 6648 81.5353
106.115 0 1
106.231 0 1
106.347 0 1
106.463 0 1
106.579 0 1
106.694 0 1
106.81 0 1
106.926 0 1
107.041 0 1
107.157 0 1
109.576 0 1
109.692 0 1
109.807 0 1
109.923 0 1
110.039 0 1
110.155 0 1
110.27 0 1
110.386 0 1
110.502 0 1
110.618 5944 77.0973
110.735 6110 78.1665
110.851 6033 77.6724
110.967 6271 79.1896
111.083 6151 78.4283
111.199 6058 77.8332
111.316 6095 78.0705
111.432 6178 78.6003
111.549 6129 78.2879
111.665 5938 77.0584
111.782 5695 75.4652
111.898 5317 72.9178
112.015 4832 69.5126
112.132 4250 65.192
112.248 3949 62.8411
112.365 4239 65.1076
112.482 4607 67.8749
112.599 5054 71.0915
112.716 5628 75.02
112.832 5639 75.0933
112.949 5696 75.4718
113.066 5619 74.96
113.183 5684 75.3923
113.3 5599 74.8265
113.417 5510 74.2294
113.534 5541 74.4379
113.652 5471 73.9662
113.769 5491 74.1013
113.886 5394 73.4439
114.003 5423 73.641
114.12 5421 73.6274
114.238 5486 74.0675
114.355 5422 73.6342
114.472 5306 72.8423
114.589 5397 73.4643
114.707 5277 72.643
114.824 5453 73.8444
114.942 5407 73.5323
115.059 5438 73.7428
115.176 5342 73.089
115.294 5151 71.7705
115.411 5038 70.9789
115.529 4697 68.5347
115.646 4246 65.1613
115.764 3823 61.8304
115.881 3715 60.9508
115.999 4122 64.2028
116.116 4402 66.3476
116.234 4815 69.3902
116.351 5173 71.9236
116.469 5360 73.212
116.586 5412 73.5663
116.704 5437 73.736
116.821 5398 73.4711
116.939 5449 73.8173
117.056 5510 74.2294
117.174 5433 73.7089
117.291 5281 72.6705
117.409 5415 73.5867
117.526 5540 74.4312
117.644 5403 73.5051
117.761 5342 73.089
117.879 5463 73.9121
117.996 5300 72.8011
118.114 5411 73.5595
118.231 5498 74.1485
118.349 5355 73.1779
118.466 5482 74.0405
118.584 5541 74.4379
118.701 5542 74.4446
118.819 5490 74.0945
118.936 5209 72.1734
119.053 4998 70.6965
119.171 4739 68.8404
119.288 4262 65.284
119.405 3803 61.6685
119.523 3747 61.2127
119.64 3927 62.6658
119.757 4424 66.5132
119.875 4821 69.4334
119.992 5093 71.3653
120.109 5242 72.4017
120.226 5324 72.9657
120.343 5352 73.1574
120.46 5328 72.9932
120.578 5454 73.8512
120.695 5332 73.0205
120.812 5485 74.0608
120.929 5302 72.8148
121.046 5361 73.2189
121.163 5402 73.4983
121.279 5411 73.5595
121.396 5335 73.0411
121.513 5349 73.1369
121.63 5343 73.0958
121.747 5398 73.4711
121.863 5321 72.9452
121.98 5428 73.675
122.097 5291 72.7393
122.213 5240 72.3878
122.33 5426 73.6614
122.446 5323 72.9589
122.563 5233 72.3395
122.679 5035 70.9577
122.795 4905 70.0357
122.912 4667 68.3154
123.028 4238 65.0999
123.144 3778 61.4654
123.26 3608 60.0666
123.377 0 1
123.493 0 1
123.609 0 1
123.725 0 1
123.84 0 1
123.956 0 1
124.072 0 1
124.188 0 1
124.303 0 1
124.419 0 1
126.852 0 1
126.968 0 1
127.083 0 1
127.199 0 1
127.315 0 1
127.431 0 1
127.547 0 1
127.663 0 1
127.779 0 1
127.895 0 1
128.011 0 1
128.127 0 1
128.243 0 1
128.359 4309 65.643
128.476 4184 64.6838
128.592 4430 66.5582
128.708 5072 71.218
128.825 5392 73.4302
128.941 5783 76.046
129.058 5993 77.4145
129.174 6035 77.6853
129.291 5947 77.1168
129.408 6041 77.7239
129.524 5985 77.3628
129.641 5874 76.642
129.758 5936 77.0454
129.875 5888 76.7333
129.992 5887 76.7268
130.108 5951 77.1427
130.225 5875 76.6485
130.342 5862 76.5637
130.459 5634 75.06
130.576 5954 77.1622
130.693 5824 76.3151
130.81 5882 76.6942
130.928 5733 75.7166
131.045 5766 75.9342
131.162 5817 76.2693
131.279 5898 76.7984
131.396 5780 76.0263
131.513 5581 74.7061
131.631 5273 72.6154
131.748 4950 70.3562
131.865 4609 67.8896
131.983 4284 65.4523
132.1 4245 65.1537
132.217 4735 68.8113
132.335 5162 71.8471
132.452 5439 73.7496
132.57 5760 75.8947
132.687 5556 74.5386
132.804 6049 77.7753
132.922 5776 76
133.039 5780 76.0263
133.157 5730 75.6968
133.274 5647 75.1465
133.392 5712 75.5778
133.509 5743 75.7826
133.627 5679 75.3591
133.744 5710 75.5645
133.862 5645 75.1332
133.979 5574 74.6592
134.097 5577 74.6793
134.214 5744 75.7892
134.332 5603 74.8532
134.449 5669 75.2928
134.567 5576 74.6726
134.684 5699 75.4917
134.802 5693 75.452
134.919 5682 75.379
135.037 5431 73.6953
135.154 5357 73.1915
135.272 4973 70.5195
135.389 4800 69.282
135.507 4374 66.1362
135.624 4247 65.169
135.742 4334 65.8331
135.859 4787 69.1881
135.977 5282 72.6774
136.094 5553 74.5185
136.211 5645 75.1332
136.329 5738 75.7496
136.446 5834 76.3806
136.564 5824 76.3151
136.681 5695 75.4652
136.798 5553 74.5185
136.915 5718 75.6175
137.033 5571 74.6391
137.15 5660 75.233
137.267 5517 74.2765
137.384 5578 74.686
137.502 5578 74.686
137.619 5366 73.253
137.736 5529 74.3572
137.853 5408 73.5391
137.97 5386 73.3894
138.087 5677 75.3459
138.204 5465 73.9256
138.321 5518 74.2832
138.438 5704 75.5248
138.555 5731 75.7034
138.672 5514 74.2563
138.788 5414 73.5799
138.905 5076 71.2461
139.022 4906 70.0428
139.139 4541 67.3869
139.255 4246 65.1613
139.372 4405 66.3702
139.488 4700 68.5565
139.605 5097 71.3933
139.721 5386 73.3894
139.838 5633 75.0533
139.954 5629 75.0267
140.071 5510 74.2294
140.187 5579 74.6927
140.303 5655 75.1997
140.419 5543 74.4513
140.535 5608 74.8866
140.652 5349 73.1369
140.768 0 1
140.884 0 1
141 0 1
141.115 0 1
141.231 0 1
141.347 0 1
141.463 0 1
141.578 0 1
141.694 0 1
144.104 0 1
144.219 0 1
144.335 0 1
144.45 0 1
144.566 0 1
144.682 0 1
144.798 0 1
144.914 0 1
145.03 0 1
145.146 4870 69.7854
145.262 5030 70.9225
145.378 5045 71.0282
145.494 4981 70.5762
145.61 4931 70.2211
145.726 4893 69.95
145.842 4818 69.4118
145.959 4809 69.347
146.075 4684 68.4398
146.192 4654 68.2202
146.308 4667 68.3154
146.425 4615 67.9338
146.541 4738 68.8331
146.658 4837 69.5485
146.774 4706 68.6003
146.891 4668 68.3228
147.008 4772 69.0797
147.125 4752 68.9348
147.241 4716 68.6731
147.358 4642 68.1322
147.475 4454 66.7383
147.592 4248 65.1767
147.709 3779 61.4736
147.826 3637 60.3075
147.943 3616 60.1332
148.06 3931 62.6977
148.177 4282 65.437
148.294 4663 68.2862
148.411 4654 68.2202
148.528 4670 68.3374
148.645 4685 68.4471
148.762 4762 69.0072
148.88 4693 68.5055
148.997 4584 67.7052
149.114 4788 69.1954
149.231 4662 68.2788
149.349 4421 66.4906
149.466 4440 66.6333
149.583 4340 65.8787
149.701 4431 66.5658
149.818 4334 65.8331
149.935 4239 65.1076
150.053 4364 66.0606
150.17 4475 66.8954
150.287 4416 66.453
150.405 4443 66.6558
150.522 4476 66.9029
150.64 4543 67.4018
150.757 4539 67.3721
150.875 4465 66.8207
150.992 4444 66.6633
151.11 4259 65.261
151.227 4125 64.2262
151.344 3621 60.1747
151.462 3384 58.1722
151.579 3605 60.0417
151.697 3850 62.0484
151.814 4176 64.622
151.932 4530 67.3053
152.049 4536 67.3498
152.167 4457 66.7608
152.284 4674 68.3667
152.402 4594 67.7791
152.519 4593 67.7717
152.636 4539 67.3721
152.754 4727 68.7532
152.871 4571 67.6092
152.989 4513 67.1789
153.106 4389 66.2495
153.223 4349 65.9469
153.341 4242 65.1306
153.458 4241 65.123
153.575 4303 65.5973
153.693 4213 64.9076
153.81 4330 65.8027
153.927 4412 66.4229
154.044 4627 68.0221
154.162 4660 68.2642
154.279 4666 68.3081
154.396 4573 67.624
154.513 4718 68.6877
154.63 4570 67.6018
154.747 4448 66.6933
154.864 4300 65.5744
154.981 3960 62.9285
155.098 3732 61.0901
155.215 3901 62.458
155.332 3946 62.8172
155.449 4360 66.0303
155.566 4532 67.3201
155.683 4605 67.8602
155.8 4606 67.8675
155.917 4587 67.7274
156.033 4710 68.6294
156.15 0 1
156.267 0 1
156.383 0 1
156.5 0 1
156.617 0 1
156.733 0 1
156.85 0 1
156.966 0 1
157.082 0 1
157.199 0 1
157.315 0 1
157.431 0 1
157.547 0 1
157.664 0 1
157.78 0 1
157.896 0 1
158.012 0 1
158.128 0 1
158.244 0 1
158.359 0 1
158.475 0 1
158.591 0 1
158.706 0 1
