
6.15755 0 1
6.2731 0 1
6.3887 0 1
6.50437 0 1
6.62009 0 1
6.73587 0 1
6.8517 0 1
6.96759 0 1
7.08353 0 1
7.19952 0 1
7.31557 0 1
7.43166 0 1
7.54781 0 1
7.664 0 1
7.78024 0 1
7.89653 0 1
8.01286 0 1
8.12924 0 1
8.24567 0 1
8.36213 0 1
8.47864 0 1
8.59519 0 1
8.71178 0 1
8.82841 0 1
8.94508 0 1
9.06179 0 1
9.17853 0 1
9.29531 0 1
9.41212 0 1
9.52897 0 1
9.64584 0 1
9.76276 0 1
9.8797 0 1
9.99667 0 1
10.1137 0 1
10.2307 0 1
10.3478 0 1
10.4648 0 1
10.5819 0 1
10.6991 0 1
10.8162 0 1
10.9334 0 1
11.0506 0 1
11.1678 0 1
11.285 0 1
11.4023 0 1
11.5196 0 1
11.6369 0 1
11.7542 0 1
11.8715 0 1
11.9888 0 1
12.1062 0 1
12.2235 0 1
12.3409 0 1
12.4582 0 1
12.5756 0 1
12.693 0 1
12.8104 0 1
12.9278 0 1
13.0452 0 1
13.1626 0 1
13.28 0 1
13.3974 0 1
13.5149 0 1
13.6323 0 1
13.7497 0 1
13.8671 0 1
13.9845 0 1
14.1019 0 1
14.2193 0 1
14.3367 0 1
14.4541 0 1
14.5714 0 1
14.6888 0 1
14.8062 0 1
14.9235 0 1
15.0408 0 0
15.1581 0 0
15.2755 0 0
15.3927 0 0
15.51 0 0
15.6273 0 0
15.7445 0 0
15.8617 0 0
15.9789 0 0
16.0961 0 0
16.2132 0 0
16.3304 0 0
16.4475 0 0
16.5646 0 0
16.6816 0 0
16.7986 0 0
16.9156 0 0
17.0326 0 0
17.1496 0 0
17.2665 0 0
17.3833 0 0
17.5002 0 0
17.617 0 0
17.7338 0 0
17.8505 0 0
17.9672 0 0
18.0839 0 0
18.2005 0 0
18.3171 0 0
18.4337 0 0
18.5502 0 0
18.6666 0 0
18.7831 0 0
18.8994 0 0
19.0158 0 0
19.1321 0 0
19.2483 0 0
19.3645 0 0
19.4806 0 0
19.5967 0 0
19.7128 0 0
19.8288 0 0
19.9447 0 0
20.0606 0 1
20.1764 0 1
20.2922 0 1
20.4079 0 1
20.5236 0 1
20.6392 0 1
20.7548 0 1
20.8702 0 1
23.3078 0 1
23.4233 0 1
23.539 0 1
23.6547 0 1
23.7704 0 1
23.8862 0 1
24.0021 0 1
24.118 0 1
24.234 0 1
24.35 0 1
24.4661 1109 33.3017
24.5822 1142 33.7935
24.6984 1241 35.2278
24.8146 1194 34.5543
24.9309 1112 33.3467
25.0472 1264 35.5528
25.1636 1227 35.0286
25.28 1234 35.1283
25.3965 1235 35.1426
25.513 1289 35.9026
25.6296 1340 36.606
25.7462 1309 36.1801
25.8628 1268 35.609
25.9795 1262 35.5246
26.0962 1264 35.5528
26.213 1250 35.3553
26.3298 1285 35.8469
26.4466 1258 35.4683
26.5635 1344 36.6606
26.6804 1284 35.8329
26.7973 1203 34.6843
26.9143 1137 33.7194
27.0313 1131 33.6303
27.1483 1151 33.9264
27.2653 1134 33.6749
27.3824 1216 34.8712
27.4996 1245 35.2846
27.6167 1170 34.2053
27.7339 1132 33.6452
27.8511 1108 33.2866
27.9683 1179 34.3366
28.0855 1085 32.9393
28.2028 1055 32.4808
28.3201 1076 32.8024
28.4374 1075 32.7872
28.5547 1183 34.3948
28.6721 1215 34.8569
28.7894 1245 35.2846
28.9068 1163 34.1028
29.0242 1303 36.0971
29.1416 1204 34.6987
29.259 1246 35.2987
29.3764 1265 35.5668
29.4939 1136 33.7046
29.6113 1203 34.6843
29.7288 1189 34.4819
29.8463 1221 34.9428
29.9638 1295 35.9861
30.0812 1247 35.3129
30.1987 1195 34.5688
30.3162 1124 33.5261
30.4337 1060 32.5576
30.5512 1043 32.2955
30.6687 1007 31.7333
30.7862 1100 33.1662
30.9037 1100 33.1662
31.0212 1105 33.2415
31.1387 1134 33.6749
31.2562 1040 32.249
31.3737 1047 32.3574
31.4912 1052 32.4345
31.6087 1023 31.9844
31.7262 987 31.4166
31.8436 1059 32.5423
31.9611 1167 34.1614
32.0785 1100 33.1662
32.1959 1123 33.5112
32.3134 1175 34.2783
32.4308 1260 35.4965
32.5482 1263 35.5387
32.6655 1146 33.8526
32.7829 1166 34.1467
32.9002 1164 34.1174
33.0176 1221 34.9428
33.1349 1176 34.2929
33.2522 1157 34.0147
33.3694 1168 34.176
33.4867 1215 34.8569
33.6039 1161 34.0735
33.7211 1149 33.8969
33.8383 1161 34.0735
33.9554 1141 33.7787
34.0725 1059 32.5423
34.1896 1049 32.3883
34.3067 978 31.273
34.4237 1011 31.7962
34.5407 981 31.3209
34.6577 1114 33.3766
34.7746 1084 32.9242
34.8915 1041 32.2645
35.0084 1033 32.1403
35.1252 995 31.5436
35.242 1030 32.0936
35.3587 1090 33.0151
35.4755 1038 32.218
35.5921 1044 32.311
35.7088 1072 32.7414
35.8254 1070 32.7109
35.9419 1060 32.5576
36.0584 1122 33.4963
36.1749 1167 34.1614
36.2913 1106 33.2566
36.4077 1159 34.0441
36.524 1141 33.7787
36.6403 1091 33.0303
36.7565 1179 34.3366
36.8727 1163 34.1028
36.9889 1152 33.9411
37.1049 1139 33.7491
37.221 0 1
37.3369 0 1
37.4529 0 1
37.5687 0 1
37.6845 0 1
37.8003 0 1
37.916 0 1
38.0316 0 1
38.1472 0 1
40.5851 0 1
40.7008 0 1
40.8164 0 1
40.9322 0 1
41.048 0 1
41.1639 0 1
41.2798 0 1
41.3958 0 1
41.5118 0 1
41.6279 0 1
41.744 884 29.7321
41.8602 975 31.225
41.9765 960 30.9839
42.0928 944 30.7246
42.2091 898 29.9666
42.3255 923 30.3809
42.4419 960 30.9839
42.5584 990 31.4643
42.675 994 31.5278
42.7915 954 30.8869
42.9081 908 30.133
43.0248 841 29
43.1415 842 29.0172
43.2582 820 28.6356
43.375 837 28.931
43.4918 939 30.6431
43.6087 861 29.3428
43.7256 864 29.3939
43.8425 860 29.3258
43.9595 798 28.2489
44.0765 879 29.6479
44.1935 809 28.4429
44.3106 827 28.7576
44.4277 832 28.8444
44.5448 892 29.8664
44.6619 880 29.6648
44.7791 866 29.4279
44.8963 836 28.9137
45.0136 876 29.5973
45.1308 850 29.1548
45.2481 786 28.0357
45.3654 870 29.4958
45.4827 825 28.7228
45.6001 847 29.1033
45.7174 758 27.5318
45.8348 778 27.8927
45.9522 794 28.178
46.0697 779 27.9106
46.1871 836 28.9137
46.3046 809 28.4429
46.422 728 26.9815
46.5395 707 26.5895
46.657 656 25.6125
46.7745 637 25.2389
46.892 623 24.96
47.0096 671 25.9037
47.1271 675 25.9808
47.2446 654 25.5734
47.3622 661 25.7099
47.4797 625 25
47.5973 659 25.671
47.7149 658 25.6515
47.8324 669 25.865
47.95 650 25.4951
48.0675 650 25.4951
48.1851 641 25.318
48.3027 675 25.9808
48.4202 671 25.9037
48.5378 654 25.5734
48.6554 695 26.3629
48.7729 629 25.0799
48.8904 641 25.318
49.008 632 25.1396
49.1255 636 25.219
49.243 649 25.4755
49.3605 689 26.2488
49.478 710 26.6458
49.5955 667 25.8263
49.713 637 25.2389
49.8304 671 25.9037
49.9479 698 26.4197
50.0653 652 25.5343
50.1827 632 25.1396
50.3001 540 23.2379
50.4175 615 24.7992
50.5348 595 24.3926
50.6521 660 25.6905
50.7694 660 25.6905
50.8867 662 25.7294
51.004 682 26.1151
51.1212 690 26.2679
51.2384 692 26.3059
51.3556 750 27.3861
51.4727 762 27.6043
51.5899 797 28.2312
51.707 835 28.8964
51.824 792 28.1425
51.9411 790 28.1069
52.0581 835 28.8964
52.175 844 29.0517
52.2919 774 27.8209
52.4088 870 29.4958
52.5257 875 29.5804
52.6425 915 30.249
52.7593 848 29.1204
52.876 836 28.9137
52.9927 879 29.6479
53.1094 893 29.8831
53.226 926 30.4302
53.3426 901 30.0167
53.4591 859 29.3087
53.5756 904 30.0666
53.692 930 30.4959
53.8084 840 28.9828
53.9248 793 28.1603
54.0411 742 27.2397
54.1573 771 27.7669
54.2735 0 1
54.3896 0 1
54.5057 0 1
54.6217 0 1
54.7377 0 1
54.8537 0 1
54.9695 0 1
55.0853 0 1
55.2011 0 1
55.3168 0 1
55.4324 0 1
57.824 0 1
57.9396 0 1
58.0553 0 1
58.1711 0 1
58.2869 0 1
58.4028 0 1
58.5187 0 1
58.6347 0 1
58.7508 0 1
58.8669 0 1
58.983 933 30.545
59.0992 907 30.1164
59.2155 855 29.2404
59.3318 867 29.4449
59.4482 857 29.2746
59.5646 875 29.5804
59.681 891 29.8496
59.7975 896 29.9333
59.9141 942 30.692
60.0306 998 31.5911
60.1473 939 30.6431
60.2639 1020 31.9374
60.3807 945 30.7409
60.4974 922 30.3645
60.6142 971 31.1609
60.731 946 30.7571
60.8479 1002 31.6544
60.9648 953 30.8707
61.0818 939 30.6431
61.1987 936 30.5941
61.3158 939 30.6431
61.4328 933 30.545
61.5499 862 29.3598
61.667 934 30.5614
61.7841 901 30.0167
61.9013 919 30.315
62.0185 966 31.0805
62.1357 843 29.0345
62.253 925 30.4138
62.3702 809 28.4429
62.4875 845 29.0689
62.6049 774 27.8209
62.7222 770 27.7489
62.8396 728 26.9815
62.9569 839 28.9655
63.0743 801 28.3019
63.1918 814 28.5307
63.3092 788 28.0713
63.4267 873 29.5466
63.5441 865 29.4109
63.6616 830 28.8097
63.7791 820 28.6356
63.8966 875 29.5804
64.0142 830 28.8097
64.1317 829 28.7924
64.2492 836 28.9137
64.3668 791 28.1247
64.4843 791 28.1247
64.6019 763 27.6225
64.7195 817 28.5832
64.837 795 28.1957
64.9546 824 28.7054
65.0722 769 27.7308
65.1898 798 28.2489
65.3074 859 29.3087
65.4249 770 27.7489
65.5425 773 27.8029
65.6601 781 27.9464
65.7777 725 26.9258
65.8952 773 27.8029
66.0128 761 27.5862
66.1304 748 27.3496
66.2479 678 26.0384
66.3655 656 25.6125
66.483 682 26.1151
66.6005 676 26
66.718 727 26.9629
66.8355 667 25.8263
66.953 719 26.8142
67.0705 752 27.4226
67.1879 737 27.1477
67.3054 701 26.4764
67.4228 696 26.3818
67.5402 747 27.3313
67.6576 775 27.8388
67.7749 775 27.8388
67.8923 722 26.8701
68.0096 673 25.9422
68.1269 670 25.8844
68.2442 673 25.9422
68.3614 743 27.258
68.4787 713 26.7021
68.5958 758 27.5318
68.713 713 26.7021
68.8302 730 27.0185
68.9473 763 27.6225
69.0643 731 27.037
69.1814 756 27.4955
69.2984 704 26.533
69.4154 709 26.6271
69.5323 701 26.4764
69.6492 674 25.9615
69.7661 662 25.7294
69.8829 622 24.9399
69.9997 604 24.5764
70.1165 601 24.5153
70.2332 633 25.1595
70.3499 625 25
70.4665 642 25.3377
70.5831 723 26.8887
70.6996 703 26.5141
70.8161 639 25.2784
70.9326 704 26.533
71.049 632 25.1396
71.1653 644 25.3772
71.2817 610 24.6982
71.3979 658 25.6515
71.5141 605 24.5967
71.6303 562 23.7065
71.7464 562 23.7065
71.8624 0 1
71.9784 0 1
72.0944 0 1
72.2102 0 1
72.3261 0 1
72.4418 0 1
72.5575 0 1
72.6732 0 1
75.1054 0 1
75.2209 0 1
75.3365 0 1
75.4521 0 1
75.5678 0 1
75.6835 0 1
75.7993 0 1
75.9151 0 1
76.031 0 1
76.147 486 22.0454
76.263 544 23.3238
76.3791 508 22.5389
76.4952 535 23.1301
76.6113 555 23.5584
76.7276 527 22.9565
76.8438 491 22.1585
76.9601 507 22.5167
77.0765 522 22.8473
77.1929 472 21.7256
77.3093 474 21.7715
77.4258 508 22.5389
77.5423 509 22.561
77.6589 489 22.1133
77.7755 496 22.2711
77.8921 442 21.0238
78.0088 482 21.9545
78.1256 466 21.587
78.2423 420 20.4939
78.3591 451 21.2368
78.4759 429 20.7123
78.5928 473 21.7486
78.7097 427 20.664
78.8266 453 21.2838
78.9436 391 19.7737
79.0606 325 18.0278
79.1776 326 18.0555
79.2946 301 17.3494
79.4117 341 18.4662
79.5288 354 18.8149
79.6459 351 18.735
79.7631 344 18.5472
79.8802 373 19.3132
79.9974 383 19.5704
80.1147 348 18.6548
80.2319 288 16.9706
80.3491 305 17.4642
80.4664 297 17.2337
80.5837 307 17.5214
80.701 301 17.3494
80.8183 294 17.1464
80.9357 286 16.9115
81.053 290 17.0294
81.1704 294 17.1464
81.2877 285 16.8819
81.4051 234 15.2971
81.5225 243 15.5885
81.6399 260 16.1245
81.7573 239 15.4596
81.8747 250 15.8114
81.9922 214 14.6287
82.1096 243 15.5885
82.227 206 14.3527
82.3444 221 14.8661
82.4619 218 14.7648
82.5793 169 13
82.6967 179 13.3791
82.8142 167 12.9228
82.9316 147 12.1244
83.049 147 12.1244
83.1664 162 12.7279
83.2838 166 12.8841
83.4012 123 11.0905
83.5186 158 12.5698
83.636 131 11.4455
83.7534 145 12.0416
83.8708 110 10.4881
83.9881 130 11.4018
84.1055 113 10.6301
84.2228 124 11.1355
84.3401 106 10.2956
84.4575 104 10.198
84.5747 98 9.89949
84.692 98 9.89949
84.8093 120 10.9545
84.9265 82 9.05539
85.0437 89 9.43398
85.1609 100 10
85.2781 88 9.38083
85.3952 81 9
85.5123 81 9
85.6294 81 9
85.7465 95 9.74679
85.8636 86 9.27362
85.9806 100 10
86.0976 99 9.94987
86.2145 78 8.83176
86.3315 89 9.43398
86.4484 106 10.2956
86.5652 134 11.5758
86.682 126 11.225
86.7988 121 11
86.9156 117 10.8167
87.0323 124 11.1355
87.149 116 10.7703
87.2657 124 11.1355
87.3823 129 11.3578
87.4988 154 12.4097
87.6154 163 12.7671
87.7318 149 12.2066
87.8483 169 13
87.9647 169 13
88.081 195 13.9642
88.1973 186 13.6382
88.3136 214 14.6287
88.4298 194 13.9284
88.546 220 14.8324
88.6621 220 14.8324
88.7781 234 15.2971
88.8942 0 1
89.0101 0 1
89.126 0 1
89.2419 0 1
89.3577 0 1
89.4734 0 1
89.5891 0 1
89.7047 0 1
89.8203 0 1
89.9358 0 1
92.3269 0 1
92.4424 0 1
92.558 0 1
92.6736 0 1
92.7893 0 1
92.905 0 1
93.0208 0 1
93.1366 0 1
93.2525 0 1
93.3685 0 1
93.4845 0 1
93.6005 328 18.1108
93.7167 368 19.1833
93.8328 338 18.3848
93.949 344 18.5472
94.0653 332 18.2209
94.1816 341 18.4662
94.2979 302 17.3781
94.4143 298 17.2627
94.5307 320 17.8885
94.6472 299 17.2916
94.7637 321 17.9165
94.8803 270 16.4317
94.9969 291 17.0587
95.1135 306 17.4929
95.2302 295 17.1756
95.3469 277 16.6433
95.4637 220 14.8324
95.5805 208 14.4222
95.6973 269 16.4012
95.8142 298 17.2627
95.9311 285 16.8819
96.048 339 18.412
96.1649 355 18.8414
96.2819 345 18.5742
96.3989 375 19.3649
96.516 340 18.4391
96.633 376 19.3907
96.7501 367 19.1572
96.8673 397 19.9249
96.9844 404 20.0998
97.1016 389 19.7231
97.2188 390 19.7484
97.336 450 21.2132
97.4532 449 21.1896
97.5704 451 21.2368
97.6877 450 21.2132
97.805 456 21.3542
97.9223 459 21.4243
98.0396 479 21.8861
98.1569 525 22.9129
98.2743 502 22.4054
98.3916 535 23.1301
98.509 534 23.1084
98.6264 521 22.8254
98.7438 502 22.4054
98.8612 547 23.388
98.9786 439 20.9523
99.096 370 19.2354
99.2134 413 20.3224
99.3308 508 22.5389
99.4482 628 25.0599
99.5656 623 24.96
99.6831 640 25.2982
99.8005 651 25.5147
99.9179 618 24.8596
100.035 675 25.9808
100.153 604 24.5764
100.27 670 25.8844
100.388 680 26.0768
100.505 645 25.3969
100.622 695 26.3629
100.74 681 26.096
100.857 682 26.1151
100.975 702 26.4953
101.092 692 26.3059
101.209 735 27.1109
101.327 716 26.7582
101.444 691 26.2869
101.561 732 27.0555
101.679 775 27.8388
101.796 716 26.7582
101.913 761 27.5862
102.03 736 27.1293
102.148 733 27.074
102.265 755 27.4773
102.382 706 26.5707
102.499 670 25.8844
102.616 619 24.8797
102.733 500 22.3607
102.851 598 24.454
102.968 751 27.4044
103.085 730 27.0185
103.202 733 27.074
103.319 736 27.1293
103.436 757 27.5136
103.552 824 28.7054
103.669 754 27.4591
103.786 746 27.313
103.903 790 28.1069
104.02 734 27.0924
104.137 788 28.0713
104.253 766 27.6767
104.37 738 27.1662
104.487 803 28.3373
104.603 773 27.8029
104.72 783 27.9821
104.836 810 28.4605
104.953 755 27.4773
105.069 781 27.9464
105.186 819 28.6182
105.302 769 27.7308
105.418 818 28.6007
105.535 845 29.0689
105.651 773 27.8029
105.767 780 27.9285
105.883 749 27.3679
105.999 673 25.9422
106.115 0 1
106.231 0 1
106.347 0 1
106.463 0 1
106.579 0 1
106.694 0 1
106.81 0 1
106.926 0 1
107.041 0 1
107.157 0 1
109.576 0 1
109.692 0 1
109.807 0 1
109.923 0 1
110.039 0 1
110.155 0 1
110.27 0 1
110.386 0 1
110.502 0 1
110.618 635 25.1992
110.735 650 25.4951
110.851 649 25.4755
110.967 653 25.5539
111.083 563 23.7276
111.199 514 22.6716
111.316 490 22.1359
111.432 569 23.8537
111.549 577 24.0208
111.665 615 24.7992
111.782 637 25.2389
111.898 583 24.1454
112.015 566 23.7908
112.132 592 24.3311
112.248 554 23.5372
112.365 561 23.6854
112.482 526 22.9347
112.599 549 23.4307
112.716 537 23.1733
112.832 517 22.7376
112.949 522 22.8473
113.066 538 23.1948
113.183 539 23.2164
113.3 508 22.5389
113.417 512 22.6274
113.534 471 21.7025
113.652 495 22.2486
113.769 523 22.8692
113.886 464 21.5407
114.003 465 21.5639
114.12 431 20.7605
114.238 449 21.1896
114.355 423 20.567
114.472 385 19.6214
114.589 414 20.347
114.707 442 21.0238
114.824 384 19.5959
114.942 407 20.1742
115.059 406 20.1494
115.176 424 20.5913
115.294 406 20.1494
115.411 430 20.7364
115.529 396 19.8997
115.646 480 21.9089
115.764 455 21.3307
115.881 415 20.3715
115.999 449 21.1896
116.116 433 20.8087
116.234 422 20.5426
116.351 452 21.2603
116.469 408 20.199
116.586 483 21.9773
116.704 426 20.6398
116.821 450 21.2132
116.939 441 21
117.056 424 20.5913
117.174 400 20
117.291 432 20.7846
117.409 446 21.1187
117.526 459 21.4243
117.644 450 21.2132
117.761 456 21.3542
117.879 388 19.6977
117.996 342 18.4932
118.114 335 18.303
118.231 358 18.9209
118.349 398 19.9499
118.466 430 20.7364
118.584 438 20.9284
118.701 417 20.4206
118.819 472 21.7256
118.936 433 20.8087
119.053 450 21.2132
119.171 439 20.9523
119.288 426 20.6398
119.405 467 21.6102
119.523 425 20.6155
119.64 447 21.1424
119.757 457 21.3776
119.875 446 21.1187
119.992 448 21.166
120.109 455 21.3307
120.226 475 21.7945
120.343 465 21.5639
120.46 460 21.4476
120.578 467 21.6102
120.695 449 21.1896
120.812 485 22.0227
120.929 404 20.0998
121.046 477 21.8403
121.163 461 21.4709
121.279 464 21.5407
121.396 473 21.7486
121.513 415 20.3715
121.63 374 19.3391
121.747 332 18.2209
121.863 334 18.2757
121.98 367 19.1572
122.097 435 20.8567
122.213 463 21.5174
122.33 468 21.6333
122.446 478 21.8632
122.563 492 22.1811
122.679 495 22.2486
122.795 523 22.8692
122.912 501 22.383
123.028 495 22.2486
123.144 525 22.9129
123.26 449 21.1896
123.377 0 1
123.493 0 1
123.609 0 1
123.725 0 1
123.84 0 1
123.956 0 1
124.072 0 1
124.188 0 1
124.303 0 1
124.419 0 1
126.852 0 1
126.968 0 1
127.083 0 1
127.199 0 1
127.315 0 1
127.431 0 1
127.547 0 1
127.663 0 1
127.779 0 1
127.895 0 1
128.011 0 1
128.127 0 1
128.243 0 1
128.359 653 25.5539
128.476 647 25.4362
128.592 673 25.9422
128.708 616 24.8193
128.825 618 24.8596
128.941 621 24.9199
129.058 639 25.2784
129.174 671 25.9037
129.291 621 24.9199
129.408 633 25.1595
129.524 671 25.9037
129.641 607 24.6374
129.758 688 26.2298
129.875 654 25.5734
129.992 660 25.6905
130.108 615 24.7992
130.225 636 25.219
130.342 625 25
130.459 544 23.3238
130.576 500 22.3607
130.693 500 22.3607
130.81 450 21.2132
130.928 463 21.5174
131.045 578 24.0416
131.162 624 24.98
131.279 680 26.0768
131.396 718 26.7955
131.513 592 24.3311
131.631 680 26.0768
131.748 681 26.096
131.865 712 26.6833
131.983 700 26.4575
132.1 648 25.4558
132.217 724 26.9072
132.335 693 26.3249
132.452 697 26.4008
132.57 711 26.6646
132.687 644 25.3772
132.804 712 26.6833
132.922 660 25.6905
133.039 709 26.6271
133.157 701 26.4764
133.274 727 26.9629
133.392 685 26.1725
133.509 669 25.865
133.627 657 25.632
133.744 684 26.1534
133.862 644 25.3772
133.979 633 25.1595
134.097 577 24.0208
134.214 550 23.4521
134.332 534 23.1084
134.449 500 22.3607
134.567 570 23.8747
134.684 640 25.2982
134.802 662 25.7294
134.919 724 26.9072
135.037 689 26.2488
135.154 703 26.5141
135.272 743 27.258
135.389 772 27.7849
135.507 764 27.6405
135.624 775 27.8388
135.742 806 28.3901
135.859 780 27.9285
135.977 790 28.1069
136.094 735 27.1109
136.211 756 27.4955
136.329 762 27.6043
136.446 790 28.1069
136.564 800 28.2843
136.681 806 28.3901
136.798 717 26.7769
136.915 789 28.0891
137.033 772 27.7849
137.15 762 27.6043
137.267 739 27.1846
137.384 707 26.5895
137.502 716 26.7582
137.619 678 26.0384
137.736 632 25.1396
137.853 594 24.3721
137.97 575 23.9792
138.087 593 24.3516
138.204 628 25.0599
138.321 669 25.865
138.438 741 27.2213
138.555 756 27.4955
138.672 809 28.4429
138.788 831 28.8271
138.905 866 29.4279
139.022 877 29.6142
139.139 864 29.3939
139.255 758 27.5318
139.372 832 28.8444
139.488 848 29.1204
139.605 858 29.2916
139.721 846 29.0861
139.838 832 28.8444
139.954 850 29.1548
140.071 861 29.3428
140.187 830 28.8097
140.303 802 28.3196
140.419 829 28.7924
140.535 830 28.8097
140.652 784 28
140.768 0 1
140.884 0 1
141 0 1
141.115 0 1
141.231 0 1
141.347 0 1
141.463 0 1
141.578 0 1
141.694 0 1
144.104 0 1
144.219 0 1
144.335 0 1
144.45 0 1
144.566 0 1
144.682 0 1
144.798 0 1
144.914 0 1
145.03 0 1
145.146 801 28.3019
145.262 836 28.9137
145.378 832 28.8444
145.494 837 28.931
145.61 834 28.8791
145.726 804 28.3549
145.842 822 28.6705
145.959 782 27.9643
146.075 745 27.2947
146.192 738 27.1662
146.308 698 26.4197
146.425 647 25.4362
146.541 628 25.0599
146.658 644 25.3772
146.774 606 24.6171
146.891 666 25.807
147.008 773 27.8029
147.125 746 27.313
147.241 774 27.8209
147.358 849 29.1376
147.475 817 28.5832
147.592 858 29.2916
147.709 806 28.3901
147.826 805 28.3725
147.943 834 28.8791
148.06 811 28.4781
148.177 860 29.3258
148.294 884 29.7321
148.411 820 28.6356
148.528 862 29.3598
148.645 802 28.3196
148.762 780 27.9285
148.88 785 28.0179
148.997 756 27.4955
149.114 866 29.4279
149.231 768 27.7128
149.349 747 27.3313
149.466 751 27.4044
149.583 752 27.4226
149.701 744 27.2764
149.818 704 26.533
149.935 662 25.7294
150.053 678 26.0384
150.17 648 25.4558
150.287 641 25.318
150.405 678 26.0384
150.522 704 26.533
150.64 690 26.2679
150.757 719 26.8142
150.875 781 27.9464
150.992 740 27.2029
151.11 756 27.4955
151.227 846 29.0861
151.344 847 29.1033
151.462 758 27.5318
151.579 822 28.6705
151.697 810 28.4605
151.814 839 28.9655
151.932 792 28.1425
152.049 834 28.8791
152.167 852 29.189
152.284 803 28.3373
152.402 836 28.9137
152.519 800 28.2843
152.636 835 28.8964
152.754 857 29.2746
152.871 843 29.0345
152.989 788 28.0713
153.106 834 28.8791
153.223 785 28.0179
153.341 749 27.3679
153.458 697 26.4008
153.575 740 27.2029
153.693 700 26.4575
153.81 678 26.0384
153.927 713 26.7021
154.044 673 25.9422
154.162 691 26.2869
154.279 799 28.2666
154.396 826 28.7402
154.513 813 28.5132
154.63 819 28.6182
154.747 834 28.8791
154.864 819 28.6182
154.981 868 29.4618
155.098 825 28.7228
155.215 894 29.8998
155.332 866 29.4279
155.449 887 29.7825
155.566 849 29.1376
155.683 870 29.4958
155.8 877 29.6142
155.917 863 29.3769
156.033 892 29.8664
156.15 0 1
156.267 0 1
156.383 0 1
156.5 0 1
156.617 0 1
156.733 0 1
156.85 0 1
156.966 0 1
157.082 0 1
157.199 0 1
157.315 0 1
157.431 0 1
157.547 0 1
157.664 0 1
157.78 0 1
157.896 0 1
158.012 0 1
158.128 0 1
158.244 0 1
158.359 0 1
158.475 0 1
158.591 0 1
158.706 0 1
