
6.15755 0 1
6.2731 0 1
6.3887 0 1
6.50437 0 1
6.62009 0 1
6.73587 0 1
6.8517 0 1
6.96759 0 1
7.08353 0 1
7.19952 0 1
7.31557 0 1
7.43166 0 1
7.54781 0 1
7.664 0 1
7.78024 0 1
7.89653 0 1
8.01286 0 1
8.12924 0 1
8.24567 0 1
8.36213 0 1
8.47864 0 1
8.59519 0 1
8.71178 0 1
8.82841 0 1
8.94508 0 1
9.06179 0 1
9.17853 0 1
9.29531 0 1
9.41212 0 1
9.52897 0 1
9.64584 0 1
9.76276 0 1
9.8797 0 1
9.99667 0 1
10.1137 0 1
10.2307 0 1
10.3478 0 1
10.4648 0 1
10.5819 0 1
10.6991 0 1
10.8162 0 1
10.9334 0 1
11.0506 0 1
11.1678 0 1
11.285 0 1
11.4023 0 1
11.5196 0 1
11.6369 0 1
11.7542 0 1
11.8715 0 1
11.9888 0 1
12.1062 0 1
12.2235 0 1
12.3409 0 1
12.4582 0 1
12.5756 0 1
12.693 0 1
12.8104 0 1
12.9278 0 1
13.0452 0 1
13.1626 0 1
13.28 0 1
13.3974 0 1
13.5149 0 1
13.6323 0 1
13.7497 0 1
13.8671 0 1
13.9845 0 1
14.1019 0 1
14.2193 0 1
14.3367 0 1
14.4541 0 1
14.5714 0 1
14.6888 0 1
14.8062 0 1
14.9235 0 1
15.0408 0 0
15.1581 0 0
15.2755 0 0
15.3927 0 0
15.51 0 0
15.6273 0 0
15.7445 0 0
15.8617 0 0
15.9789 0 0
16.0961 0 0
16.2132 0 0
16.3304 0 0
16.4475 0 0
16.5646 0 0
16.6816 0 0
16.7986 0 0
16.9156 0 0
17.0326 0 0
17.1496 0 0
17.2665 0 0
17.3833 0 0
17.5002 0 0
17.617 0 0
17.7338 0 0
17.8505 0 0
17.9672 0 0
18.0839 0 0
18.2005 0 0
18.3171 0 0
18.4337 0 0
18.5502 0 0
18.6666 0 0
18.7831 0 0
18.8994 0 0
19.0158 0 0
19.1321 0 0
19.2483 0 0
19.3645 0 0
19.4806 0 0
19.5967 0 0
19.7128 0 0
19.8288 0 0
19.9447 0 0
20.0606 0 1
20.1764 0 1
20.2922 0 1
20.4079 0 1
20.5236 0 1
20.6392 0 1
20.7548 0 1
20.8702 0 1
23.3078 0 1
23.4233 0 1
23.539 0 1
23.6547 0 1
23.7704 0 1
23.8862 0 1
24.0021 0 1
24.118 0 1
24.234 0 1
24.35 0 1
24.4661 1399 37.4032
24.5822 1453 38.1182
24.6984 1398 37.3898
24.8146 1487 38.5616
24.9309 1510 38.8587
25.0472 1385 37.2156
25.1636 1436 37.8946
25.28 1413 37.5899
25.3965 1420 37.6829
25.513 1423 37.7227
25.6296 1495 38.6652
25.7462 1437 37.9078
25.8628 1446 38.0263
25.9795 1443 37.9868
26.0962 1531 39.128
26.213 1565 39.5601
26.3298 1533 39.1535
26.4466 1425 37.7492
26.5635 1373 37.054
26.6804 1309 36.1801
26.7973 1266 35.5809
26.9143 1286 35.8608
27.0313 1379 37.1349
27.1483 1388 37.2559
27.2653 1448 38.0526
27.3824 1476 38.4187
27.4996 1482 38.4968
27.6167 1451 38.092
27.7339 1484 38.5227
27.8511 1535 39.1791
27.9683 1458 38.1838
28.0855 1383 37.1887
28.2028 1397 37.3765
28.3201 1456 38.1576
28.4374 1426 37.7624
28.5547 1290 35.9166
28.6721 1356 36.8239
28.7894 1315 36.2629
28.9068 1386 37.229
29.0242 1297 36.0139
29.1416 1336 36.5513
29.259 1366 36.9594
29.3764 1393 37.3229
29.4939 1330 36.4692
29.6113 1366 36.9594
29.7288 1350 36.7423
29.8463 1380 37.1484
29.9638 1310 36.1939
30.0812 1247 35.3129
30.1987 1192 34.5254
30.3162 1161 34.0735
30.4337 1205 34.7131
30.5512 1294 35.9722
30.6687 1274 35.6931
30.7862 1299 36.0416
30.9037 1363 36.9188
31.0212 1416 37.6298
31.1387 1406 37.4967
31.2562 1366 36.9594
31.3737 1393 37.3229
31.4912 1362 36.9053
31.6087 1433 37.855
31.7262 1372 37.0405
31.8436 1348 36.7151
31.9611 1317 36.2905
32.0785 1335 36.5377
32.1959 1302 36.0832
32.3134 1297 36.0139
32.4308 1253 35.3977
32.5482 1274 35.6931
32.6655 1373 37.054
32.7829 1320 36.3318
32.9002 1333 36.5103
33.0176 1382 37.1753
33.1349 1230 35.0714
33.2522 1335 36.5377
33.3694 1325 36.4005
33.4867 1318 36.3043
33.6039 1422 37.7094
33.7211 1189 34.4819
33.8383 1252 35.3836
33.9554 1091 33.0303
34.0725 1127 33.5708
34.1896 1205 34.7131
34.3067 1281 35.7911
34.4237 1301 36.0694
34.5407 1373 37.054
34.6577 1336 36.5513
34.7746 1327 36.428
34.8915 1323 36.3731
35.0084 1342 36.6333
35.1252 1347 36.7015
35.242 1370 37.0135
35.3587 1361 36.8917
35.4755 1293 35.9583
35.5921 1344 36.6606
35.7088 1250 35.3553
35.8254 1254 35.4119
35.9419 1256 35.4401
36.0584 1214 34.8425
36.1749 1318 36.3043
36.2913 1251 35.3695
36.4077 1199 34.6266
36.524 1246 35.2987
36.6403 1209 34.7707
36.7565 1301 36.0694
36.8727 1262 35.5246
36.9889 1268 35.609
37.1049 1261 35.5106
37.221 0 1
37.3369 0 1
37.4529 0 1
37.5687 0 1
37.6845 0 1
37.8003 0 1
37.916 0 1
38.0316 0 1
38.1472 0 1
40.5851 0 1
40.7008 0 1
40.8164 0 1
40.9322 0 1
41.048 0 1
41.1639 0 1
41.2798 0 1
41.3958 0 1
41.5118 0 1
41.6279 0 1
41.744 924 30.3974
41.8602 1019 31.9218
41.9765 1042 32.28
42.0928 1038 32.218
42.2091 935 30.5778
42.3255 995 31.5436
42.4419 920 30.3315
42.5584 888 29.7993
42.675 817 28.5832
42.7915 839 28.9655
42.9081 820 28.6356
43.0248 847 29.1033
43.1415 884 29.7321
43.2582 975 31.225
43.375 978 31.273
43.4918 1022 31.9687
43.6087 986 31.4006
43.7256 990 31.4643
43.8425 996 31.5595
43.9595 985 31.3847
44.0765 936 30.5941
44.1935 872 29.5296
44.3106 935 30.5778
44.4277 878 29.6311
44.5448 841 29
44.6619 771 27.7669
44.7791 809 28.4429
44.8963 756 27.4955
45.0136 744 27.2764
45.1308 737 27.1477
45.2481 748 27.3496
45.3654 745 27.2947
45.4827 721 26.8514
45.6001 737 27.1477
45.7174 729 27
45.8348 750 27.3861
45.9522 720 26.8328
46.0697 687 26.2107
46.1871 583 24.1454
46.3046 539 23.2164
46.422 552 23.4947
46.5395 647 25.4362
46.657 643 25.3574
46.7745 701 26.4764
46.892 668 25.8457
47.0096 731 27.037
47.1271 705 26.5518
47.2446 701 26.4764
47.3622 698 26.4197
47.4797 661 25.7099
47.5973 659 25.671
47.7149 629 25.0799
47.8324 643 25.3574
47.95 617 24.8395
48.0675 597 24.4336
48.1851 589 24.2693
48.3027 508 22.5389
48.4202 521 22.8254
48.5378 531 23.0434
48.6554 540 23.2379
48.7729 523 22.8692
48.8904 541 23.2594
49.008 598 24.454
49.1255 599 24.4745
49.243 557 23.6008
49.3605 542 23.2809
49.478 539 23.2164
49.5955 486 22.0454
49.713 463 21.5174
49.8304 421 20.5183
49.9479 433 20.8087
50.0653 523 22.8692
50.1827 554 23.5372
50.3001 611 24.7184
50.4175 635 25.1992
50.5348 653 25.5539
50.6521 684 26.1534
50.7694 697 26.4008
50.8867 736 27.1293
51.004 702 26.4953
51.1212 690 26.2679
51.2384 755 27.4773
51.3556 759 27.55
51.4727 772 27.7849
51.5899 740 27.2029
51.707 720 26.8328
51.824 713 26.7021
51.9411 658 25.6515
52.0581 826 28.7402
52.175 814 28.5307
52.2919 822 28.6705
52.4088 795 28.1957
52.5257 853 29.2062
52.6425 866 29.4279
52.7593 914 30.2324
52.876 873 29.5466
52.9927 844 29.0517
53.1094 883 29.7153
53.226 826 28.7402
53.3426 723 26.8887
53.4591 703 26.5141
53.5756 810 28.4605
53.692 888 29.7993
53.8084 955 30.9031
53.9248 1046 32.3419
54.0411 1105 33.2415
54.1573 1145 33.8378
54.2735 0 1
54.3896 0 1
54.5057 0 1
54.6217 0 1
54.7377 0 1
54.8537 0 1
54.9695 0 1
55.0853 0 1
55.2011 0 1
55.3168 0 1
55.4324 0 1
57.824 0 1
57.9396 0 1
58.0553 0 1
58.1711 0 1
58.2869 0 1
58.4028 0 1
58.5187 0 1
58.6347 0 1
58.7508 0 1
58.8669 0 1
58.983 1132 33.6452
59.0992 1216 34.8712
59.2155 1282 35.805
59.3318 1269 35.623
59.4482 1272 35.6651
59.5646 1242 35.242
59.681 1265 35.5668
59.7975 1290 35.9166
59.9141 1237 35.171
60.0306 1169 34.1906
60.1473 1158 34.0294
60.2639 1144 33.8231
60.3807 1134 33.6749
60.4974 1053 32.45
60.6142 1113 33.3617
60.731 1118 33.4365
60.8479 1002 31.6544
60.9648 1018 31.9061
61.0818 1059 32.5423
61.1987 1136 33.7046
61.3158 1066 32.6497
61.4328 1047 32.3574
61.5499 1000 31.6228
61.667 974 31.209
61.7841 872 29.5296
61.9013 812 28.4956
62.0185 819 28.6182
62.1357 883 29.7153
62.253 945 30.7409
62.3702 951 30.8383
62.4875 1124 33.5261
62.6049 1111 33.3317
62.7222 1242 35.242
62.8396 1202 34.6699
62.9569 1170 34.2053
63.0743 1171 34.2199
63.1918 1215 34.8569
63.3092 1289 35.9026
63.4267 1147 33.8674
63.5441 1175 34.2783
63.6616 1134 33.6749
63.7791 1057 32.5115
63.8966 1078 32.8329
64.0142 1054 32.4654
64.1317 1097 33.121
64.2492 1073 32.7567
64.3668 1050 32.4037
64.4843 1132 33.6452
64.6019 1131 33.6303
64.7195 1115 33.3916
64.837 1180 34.3511
64.9546 1183 34.3948
65.0722 1173 34.2491
65.1898 992 31.496
65.3074 968 31.1127
65.4249 904 30.0666
65.5425 740 27.2029
65.6601 795 28.1957
65.7777 940 30.6594
65.8952 1039 32.2335
66.0128 1183 34.3948
66.1304 1208 34.7563
66.2479 1271 35.6511
66.3655 1331 36.4829
66.483 1288 35.8887
66.6005 1332 36.4966
66.718 1270 35.6371
66.8355 1287 35.8748
66.953 1242 35.242
67.0705 1270 35.6371
67.1879 1196 34.5832
67.3054 1170 34.2053
67.4228 1097 33.121
67.5402 1049 32.3883
67.6576 1071 32.7261
67.7749 976 31.241
67.8923 995 31.5436
68.0096 1052 32.4345
68.1269 1092 33.0454
68.2442 1028 32.0624
68.3614 1054 32.4654
68.4787 1121 33.4813
68.5958 1092 33.0454
68.713 1070 32.7109
68.8302 1004 31.686
68.9473 860 29.3258
69.0643 763 27.6225
69.1814 702 26.4953
69.2984 742 27.2397
69.4154 925 30.4138
69.5323 1032 32.1248
69.6492 1064 32.619
69.7661 1131 33.6303
69.8829 1217 34.8855
69.9997 1260 35.4965
70.1165 1184 34.4093
70.2332 1220 34.9285
70.3499 1244 35.2704
70.4665 1205 34.7131
70.5831 1254 35.4119
70.6996 1207 34.7419
70.8161 1125 33.541
70.9326 1058 32.5269
71.049 1092 33.0454
71.1653 1018 31.9061
71.2817 907 30.1164
71.3979 969 31.1288
71.5141 894 29.8998
71.6303 923 30.3809
71.7464 839 28.9655
71.8624 0 1
71.9784 0 1
72.0944 0 1
72.2102 0 1
72.3261 0 1
72.4418 0 1
72.5575 0 1
72.6732 0 1
75.1054 0 1
75.2209 0 1
75.3365 0 1
75.4521 0 1
75.5678 0 1
75.6835 0 1
75.7993 0 1
75.9151 0 1
76.031 0 1
76.147 1055 32.4808
76.263 1075 32.7872
76.3791 1083 32.909
76.4952 999 31.607
76.6113 976 31.241
76.7276 954 30.8869
76.8438 984 31.3688
76.9601 997 31.5753
77.0765 1020 31.9374
77.1929 1061 32.573
77.3093 1089 33
77.4258 1102 33.1964
77.5423 1041 32.2645
77.6589 1100 33.1662
77.7755 1007 31.7333
77.8921 837 28.931
78.0088 833 28.8617
78.1256 651 25.5147
78.2423 639 25.2784
78.3591 734 27.0924
78.4759 856 29.2575
78.5928 1029 32.078
78.7097 1047 32.3574
78.8266 1105 33.2415
78.9436 1205 34.7131
79.0606 1168 34.176
79.1776 1130 33.6155
79.2946 1210 34.7851
79.4117 1196 34.5832
79.5288 1222 34.9571
79.6459 1153 33.9559
79.7631 1098 33.1361
79.8802 1013 31.8277
79.9974 975 31.225
80.1147 884 29.7321
80.2319 909 30.1496
80.3491 840 28.9828
80.4664 858 29.2916
80.5837 867 29.4449
80.701 892 29.8664
80.8183 913 30.2159
80.9357 955 30.9031
81.053 991 31.4802
81.1704 961 31
81.2877 935 30.5778
81.4051 881 29.6816
81.5225 748 27.3496
81.6399 664 25.7682
81.7573 690 26.2679
81.8747 611 24.7184
81.9922 600 24.4949
82.1096 771 27.7669
82.227 795 28.1957
82.3444 882 29.6985
82.4619 1011 31.7962
82.5793 1047 32.3574
82.6967 1052 32.4345
82.8142 974 31.209
82.9316 994 31.5278
83.049 985 31.3847
83.1664 999 31.607
83.2838 933 30.545
83.4012 893 29.8831
83.5186 841 29
83.636 814 28.5307
83.7534 732 27.0555
83.8708 788 28.0713
83.9881 757 27.5136
84.1055 769 27.7308
84.2228 766 27.6767
84.3401 795 28.1957
84.4575 818 28.6007
84.5747 839 28.9655
84.692 867 29.4449
84.8093 838 28.9482
84.9265 823 28.688
85.0437 768 27.7128
85.1609 662 25.7294
85.2781 629 25.0799
85.3952 628 25.0599
85.5123 577 24.0208
85.6294 668 25.8457
85.7465 821 28.6531
85.8636 912 30.1993
85.9806 925 30.4138
86.0976 1022 31.9687
86.2145 1089 33
86.3315 1133 33.6601
86.4484 1112 33.3467
86.5652 1136 33.7046
86.682 1128 33.5857
86.7988 1104 33.2265
86.9156 1127 33.5708
87.0323 1007 31.7333
87.149 947 30.7734
87.2657 886 29.7658
87.3823 840 28.9828
87.4988 858 29.2916
87.6154 882 29.6985
87.7318 914 30.2324
87.8483 1011 31.7962
87.9647 1025 32.0156
88.081 1073 32.7567
88.1973 1101 33.1813
88.3136 1072 32.7414
88.4298 1059 32.5423
88.546 1042 32.28
88.6621 865 29.4109
88.7781 760 27.5681
88.8942 0 1
89.0101 0 1
89.126 0 1
89.2419 0 1
89.3577 0 1
89.4734 0 1
89.5891 0 1
89.7047 0 1
89.8203 0 1
89.9358 0 1
92.3269 0 1
92.4424 0 1
92.558 0 1
92.6736 0 1
92.7893 0 1
92.905 0 1
93.0208 0 1
93.1366 0 1
93.2525 0 1
93.3685 0 1
93.4845 0 1
93.6005 1032 32.1248
93.7167 1052 32.4345
93.8328 1081 32.8786
93.949 981 31.3209
94.0653 952 30.8545
94.1816 922 30.3645
94.2979 774 27.8209
94.4143 748 27.3496
94.5307 757 27.5136
94.6472 758 27.5318
94.7637 852 29.189
94.8803 937 30.6105
94.9969 1085 32.9393
95.1135 1140 33.7639
95.2302 1229 35.0571
95.3469 1218 34.8999
95.4637 1229 35.0571
95.5805 1257 35.4542
95.6973 1193 34.5398
95.8142 1279 35.7631
95.9311 1194 34.5543
96.048 1159 34.0441
96.1649 1182 34.3802
96.2819 1060 32.5576
96.3989 1055 32.4808
96.516 952 30.8545
96.633 939 30.6431
96.7501 957 30.9354
96.8673 1002 31.6544
96.9844 998 31.5911
97.1016 1060 32.5576
97.2188 1048 32.3728
97.336 1117 33.4215
97.4532 1105 33.2415
97.5704 1130 33.6155
97.6877 957 30.9354
97.805 831 28.8271
97.9223 752 27.4226
98.0396 739 27.1846
98.1569 692 26.3059
98.2743 775 27.8388
98.3916 833 28.8617
98.509 986 31.4006
98.6264 1035 32.1714
98.7438 1138 33.7343
98.8612 1162 34.0881
98.9786 1250 35.3553
99.096 1232 35.0999
99.2134 1323 36.3731
99.3308 1270 35.6371
99.4482 1315 36.2629
99.5656 1249 35.3412
99.6831 1139 33.7491
99.8005 1149 33.8969
99.9179 1085 32.9393
100.035 1039 32.2335
100.153 1069 32.6956
100.27 974 31.209
100.388 1033 32.1403
100.505 1015 31.8591
100.622 1054 32.4654
100.74 1149 33.8969
100.857 1070 32.7109
100.975 1175 34.2783
101.092 1113 33.3617
101.209 1035 32.1714
101.327 985 31.3847
101.444 935 30.5778
101.561 887 29.7825
101.679 817 28.5832
101.796 786 28.0357
101.913 811 28.4781
102.03 963 31.0322
102.148 1160 34.0588
102.265 1132 33.6452
102.382 1328 36.4417
102.499 1354 36.7967
102.616 1308 36.1663
102.733 1336 36.5513
102.851 1386 37.229
102.968 1352 36.7696
103.085 1306 36.1386
103.202 1237 35.171
103.319 1330 36.4692
103.436 1225 35
103.552 1071 32.7261
103.669 1069 32.6956
103.786 1106 33.2566
103.903 1059 32.5423
104.02 1084 32.9242
104.137 1159 34.0441
104.253 1215 34.8569
104.37 1235 35.1426
104.487 1303 36.0971
104.603 1212 34.8138
104.72 1213 34.8281
104.836 1140 33.7639
104.953 993 31.5119
105.069 888 29.7993
105.186 922 30.3645
105.302 913 30.2159
105.418 936 30.5941
105.535 1138 33.7343
105.651 1165 34.1321
105.767 1312 36.2215
105.883 1355 36.8103
105.999 1451 38.092
106.115 0 1
106.231 0 1
106.347 0 1
106.463 0 1
106.579 0 1
106.694 0 1
106.81 0 1
106.926 0 1
107.041 0 1
107.157 0 1
109.576 0 1
109.692 0 1
109.807 0 1
109.923 0 1
110.039 0 1
110.155 0 1
110.27 0 1
110.386 0 1
110.502 0 1
110.618 1047 32.3574
110.735 1196 34.5832
110.851 1310 36.1939
110.967 1280 35.7771
111.083 1362 36.9053
111.199 1403 37.4566
111.316 1455 38.1445
111.432 1428 37.7889
111.549 1390 37.2827
111.665 1382 37.1753
111.782 1303 36.0971
111.898 1261 35.5106
112.015 1214 34.8425
112.132 1071 32.7261
112.248 1050 32.4037
112.365 1102 33.1964
112.482 1079 32.8481
112.599 1070 32.7109
112.716 1111 33.3317
112.832 1139 33.7491
112.949 1150 33.9116
113.066 1138 33.7343
113.183 1211 34.7994
113.3 1074 32.7719
113.417 1035 32.1714
113.534 899 29.9833
113.652 884 29.7321
113.769 850 29.1548
113.886 856 29.2575
114.003 925 30.4138
114.12 1044 32.311
114.238 1201 34.6554
114.355 1207 34.7419
114.472 1393 37.3229
114.589 1250 35.3553
114.707 1331 36.4829
114.824 1345 36.6742
114.942 1410 37.55
115.059 1321 36.3456
115.176 1339 36.5923
115.294 1323 36.3731
115.411 1228 35.0428
115.529 1212 34.8138
115.646 1165 34.1321
115.764 1138 33.7343
115.881 1044 32.311
115.999 1106 33.2566
116.116 1110 33.3167
116.234 1229 35.0571
116.351 1181 34.3657
116.469 1281 35.7911
116.586 1261 35.5106
116.704 1222 34.9571
116.821 1196 34.5832
116.939 1187 34.4529
117.056 1046 32.3419
117.174 1065 32.6343
117.291 944 30.7246
117.409 919 30.315
117.526 941 30.6757
117.644 1056 32.4962
117.761 1161 34.0735
117.879 1261 35.5106
117.996 1336 36.5513
118.114 1374 37.0675
118.231 1431 37.8286
118.349 1411 37.5633
118.466 1414 37.6032
118.584 1503 38.7685
118.701 1385 37.2156
118.819 1452 38.1051
118.936 1365 36.9459
119.053 1346 36.6879
119.171 1187 34.4529
119.288 1231 35.0856
119.405 1129 33.6006
119.523 1144 33.8231
119.64 1117 33.4215
119.757 1138 33.7343
119.875 1189 34.4819
119.992 1138 33.7343
120.109 1237 35.171
120.226 1210 34.7851
120.343 1184 34.4093
120.46 1241 35.2278
120.578 1132 33.6452
120.695 1072 32.7414
120.812 1002 31.6544
120.929 983 31.3528
121.046 987 31.4166
121.163 913 30.2159
121.279 1012 31.8119
121.396 1072 32.7414
121.513 1213 34.8281
121.63 1291 35.9305
121.747 1371 37.027
121.863 1369 37
121.98 1389 37.2693
122.097 1436 37.8946
122.213 1396 37.3631
122.33 1345 36.6742
122.446 1388 37.2559
122.563 1278 35.7491
122.679 1364 36.9324
122.795 1323 36.3731
122.912 1277 35.7351
123.028 1163 34.1028
123.144 1114 33.3766
123.26 1108 33.2866
123.377 0 1
123.493 0 1
123.609 0 1
123.725 0 1
123.84 0 1
123.956 0 1
124.072 0 1
124.188 0 1
124.303 0 1
124.419 0 1
126.852 0 1
126.968 0 1
127.083 0 1
127.199 0 1
127.315 0 1
127.431 0 1
127.547 0 1
127.663 0 1
127.779 0 1
127.895 0 1
128.011 0 1
128.127 0 1
128.243 0 1
128.359 1315 36.2629
128.476 1185 34.4238
128.592 1266 35.5809
128.708 1231 35.0856
128.825 1294 35.9722
128.941 1359 36.8646
129.058 1338 36.5787
129.174 1323 36.3731
129.291 1305 36.1248
129.408 1344 36.6606
129.524 1302 36.0832
129.641 1220 34.9285
129.758 1178 34.322
129.875 1143 33.8083
129.992 1052 32.4345
130.108 1014 31.8434
130.225 1125 33.541
130.342 1237 35.171
130.459 1237 35.171
130.576 1342 36.6333
130.693 1419 37.6696
130.81 1389 37.2693
130.928 1471 38.3536
131.045 1442 37.9737
131.162 1372 37.0405
131.279 1457 38.1707
131.396 1457 38.1707
131.513 1406 37.4967
131.631 1356 36.8239
131.748 1327 36.428
131.865 1322 36.3593
131.983 1139 33.7491
132.1 1169 34.1906
132.217 1282 35.805
132.335 1276 35.7211
132.452 1319 36.318
132.57 1324 36.3868
132.687 1321 36.3456
132.804 1382 37.1753
132.922 1294 35.9722
133.039 1230 35.0714
133.157 1262 35.5246
133.274 1222 34.9571
133.392 1138 33.7343
133.509 1154 33.9706
133.627 1106 33.2566
133.744 1137 33.7194
133.862 1161 34.0735
133.979 1239 35.1994
134.097 1311 36.2077
134.214 1371 37.027
134.332 1468 38.3145
134.449 1475 38.4057
134.567 1450 38.0789
134.684 1438 37.921
134.802 1424 37.7359
134.919 1503 38.7685
135.037 1369 37
135.154 1347 36.7015
135.272 1358 36.8511
135.389 1280 35.7771
135.507 1284 35.8329
135.624 1218 34.8999
135.742 1227 35.0286
135.859 1284 35.8329
135.977 1368 36.9865
136.094 1309 36.1801
136.211 1315 36.2629
136.329 1347 36.7015
136.446 1298 36.0278
136.564 1346 36.6879
136.681 1273 35.6791
136.798 1278 35.7491
136.915 1215 34.8569
137.033 1182 34.3802
137.15 1137 33.7194
137.267 1173 34.2491
137.384 1163 34.1028
137.502 1259 35.4824
137.619 1133 33.6601
137.736 1286 35.8608
137.853 1313 36.2353
137.97 1439 37.9342
138.087 1315 36.2629
138.204 1389 37.2693
138.321 1478 38.4448
138.438 1415 37.6165
138.555 1439 37.9342
138.672 1463 38.2492
138.788 1394 37.3363
138.905 1347 36.7015
139.022 1346 36.6879
139.139 1282 35.805
139.255 1271 35.6511
139.372 1254 35.4119
139.488 1320 36.3318
139.605 1289 35.9026
139.721 1429 37.8021
139.838 1302 36.0832
139.954 1369 37
140.071 1320 36.3318
140.187 1337 36.565
140.303 1283 35.819
140.419 1321 36.3456
140.535 1282 35.805
140.652 1259 35.4824
140.768 0 1
140.884 0 1
141 0 1
141.115 0 1
141.231 0 1
141.347 0 1
141.463 0 1
141.578 0 1
141.694 0 1
144.104 0 1
144.219 0 1
144.335 0 1
144.45 0 1
144.566 0 1
144.682 0 1
144.798 0 1
144.914 0 1
145.03 0 1
145.146 896 29.9333
145.262 1003 31.6702
145.378 1023 31.9844
145.494 1013 31.8277
145.61 1002 31.6544
145.726 1017 31.8904
145.842 958 30.9516
145.959 918 30.2985
146.075 874 29.5635
146.192 875 29.5804
146.308 894 29.8998
146.425 903 30.05
146.541 951 30.8383
146.658 907 30.1164
146.774 950 30.8221
146.891 1016 31.8748
147.008 1008 31.749
147.125 1101 33.1813
147.241 1083 32.909
147.358 1112 33.3467
147.475 1117 33.4215
147.592 1162 34.0881
147.709 1105 33.2415
147.826 1024 32
147.943 1057 32.5115
148.06 1013 31.8277
148.177 984 31.3688
148.294 990 31.4643
148.411 1030 32.0936
148.528 1067 32.665
148.645 1110 33.3167
148.762 1089 33
148.88 1088 32.9848
148.997 1036 32.187
149.114 1106 33.2566
149.231 1073 32.7567
149.349 974 31.209
149.466 1048 32.3728
149.583 1049 32.3883
149.701 1004 31.686
149.818 1016 31.8748
149.935 941 30.6757
150.053 891 29.8496
150.17 951 30.8383
150.287 941 30.6757
150.405 1000 31.6228
150.522 1045 32.3265
150.64 1085 32.9393
150.757 1149 33.8969
150.875 1091 33.0303
150.992 1126 33.5559
151.11 1156 34
151.227 1158 34.0294
151.344 1124 33.5261
151.462 1148 33.8821
151.579 1040 32.249
151.697 1104 33.2265
151.814 1050 32.4037
151.932 1022 31.9687
152.049 1040 32.249
152.167 1068 32.6803
152.284 1054 32.4654
152.402 1133 33.6601
152.519 1139 33.7491
152.636 1094 33.0757
152.754 1097 33.121
152.871 1118 33.4365
152.989 1152 33.9411
153.106 1090 33.0151
153.223 1084 32.9242
153.341 1070 32.7109
153.458 1026 32.0312
153.575 981 31.3209
153.693 1034 32.1559
153.81 1026 32.0312
153.927 1081 32.8786
154.044 999 31.607
154.162 1151 33.9264
154.279 1122 33.4963
154.396 1275 35.7071
154.513 1234 35.1283
154.63 1242 35.242
154.747 1241 35.2278
154.864 1216 34.8712
154.981 1259 35.4824
155.098 1191 34.5109
155.215 1208 34.7563
155.332 1171 34.2199
155.449 1223 34.9714
155.566 1197 34.5977
155.683 1266 35.5809
155.8 1281 35.7911
155.917 1198 34.6121
156.033 1260 35.4965
156.15 0 1
156.267 0 1
156.383 0 1
156.5 0 1
156.617 0 1
156.733 0 1
156.85 0 1
156.966 0 1
157.082 0 1
157.199 0 1
157.315 0 1
157.431 0 1
157.547 0 1
157.664 0 1
157.78 0 1
157.896 0 1
158.012 0 1
158.128 0 1
158.244 0 1
158.359 0 1
158.475 0 1
158.591 0 1
158.706 0 1
