
6.15755 0 1
6.2731 0 1
6.3887 0 1
6.50437 0 1
6.62009 0 1
6.73587 0 1
6.8517 0 1
6.96759 0 1
7.08353 0 1
7.19952 0 1
7.31557 0 1
7.43166 0 1
7.54781 0 1
7.664 0 1
7.78024 0 1
7.89653 0 1
8.01286 0 1
8.12924 0 1
8.24567 0 1
8.36213 0 1
8.47864 0 1
8.59519 0 1
8.71178 0 1
8.82841 0 1
8.94508 0 1
9.06179 0 1
9.17853 0 1
9.29531 0 1
9.41212 0 1
9.52897 0 1
9.64584 0 1
9.76276 0 1
9.8797 0 1
9.99667 0 1
10.1137 0 1
10.2307 0 1
10.3478 0 1
10.4648 0 1
10.5819 0 1
10.6991 0 1
10.8162 0 1
10.9334 0 1
11.0506 0 1
11.1678 0 1
11.285 0 1
11.4023 0 1
11.5196 0 1
11.6369 0 1
11.7542 0 1
11.8715 0 1
11.9888 0 1
12.1062 0 1
12.2235 0 1
12.3409 0 1
12.4582 0 1
12.5756 0 1
12.693 0 1
12.8104 0 1
12.9278 0 1
13.0452 0 1
13.1626 0 1
13.28 0 1
13.3974 0 1
13.5149 0 1
13.6323 0 1
13.7497 0 1
13.8671 0 1
13.9845 0 1
14.1019 0 1
14.2193 0 1
14.3367 0 1
14.4541 0 1
14.5714 0 1
14.6888 0 1
14.8062 0 1
14.9235 0 1
15.0408 821 28.6531
15.1581 846 29.0861
15.2755 878 29.6311
15.3927 827 28.7576
15.51 864 29.3939
15.6273 897 29.95
15.7445 839 28.9655
15.8617 830 28.8097
15.9789 873 29.5466
16.0961 809 28.4429
16.2132 805 28.3725
16.3304 878 29.6311
16.4475 843 29.0345
16.5646 814 28.5307
16.6816 862 29.3598
16.7986 799 28.2666
16.9156 835 28.8964
17.0326 842 29.0172
17.1496 806 28.3901
17.2665 813 28.5132
17.3833 798 28.2489
17.5002 800 28.2843
17.617 824 28.7054
17.7338 845 29.0689
17.8505 887 29.7825
17.9672 882 29.6985
18.0839 795 28.1957
18.2005 790 28.1069
18.3171 797 28.2312
18.4337 718 26.7955
18.5502 812 28.4956
18.6666 804 28.3549
18.7831 786 28.0357
18.8994 762 27.6043
19.0158 730 27.0185
19.1321 713 26.7021
19.2483 762 27.6043
19.3645 722 26.8701
19.4806 656 25.6125
19.5967 601 24.5153
19.7128 572 23.9165
19.8288 515 22.6936
19.9447 455 21.3307
20.0606 0 1
20.1764 0 1
20.2922 0 1
20.4079 0 1
20.5236 0 1
20.6392 0 1
20.7548 0 1
20.8702 0 1
23.3078 0 1
23.4233 0 1
23.539 0 1
23.6547 0 1
23.7704 0 1
23.8862 0 1
24.0021 0 1
24.118 0 1
24.234 0 1
24.35 0 1
24.4661 339 18.412
24.5822 363 19.0526
24.6984 404 20.0998
24.8146 475 21.7945
24.9309 528 22.9783
25.0472 612 24.7386
25.1636 669 25.865
25.28 742 27.2397
25.3965 769 27.7308
25.513 757 27.5136
25.6296 841 29
25.7462 813 28.5132
25.8628 812 28.4956
25.9795 841 29
26.0962 870 29.4958
26.213 829 28.7924
26.3298 834 28.8791
26.4466 822 28.6705
26.5635 797 28.2312
26.6804 760 27.5681
26.7973 732 27.0555
26.9143 703 26.5141
27.0313 626 25.02
27.1483 678 26.0384
27.2653 725 26.9258
27.3824 708 26.6083
27.4996 723 26.8887
27.6167 702 26.4953
27.7339 720 26.8328
27.8511 760 27.5681
27.9683 802 28.3196
28.0855 750 27.3861
28.2028 749 27.3679
28.3201 740 27.2029
28.4374 759 27.55
28.5547 705 26.5518
28.6721 693 26.3249
28.7894 686 26.1916
28.9068 723 26.8887
29.0242 723 26.8887
29.1416 722 26.8701
29.259 747 27.3313
29.3764 792 28.1425
29.4939 682 26.1151
29.6113 731 27.037
29.7288 783 27.9821
29.8463 701 26.4764
29.9638 767 27.6948
30.0812 706 26.5707
30.1987 751 27.4044
30.3162 689 26.2488
30.4337 612 24.7386
30.5512 651 25.5147
30.6687 637 25.2389
30.7862 641 25.318
30.9037 744 27.2764
31.0212 796 28.2135
31.1387 766 27.6767
31.2562 761 27.5862
31.3737 744 27.2764
31.4912 800 28.2843
31.6087 749 27.3679
31.7262 748 27.3496
31.8436 718 26.7955
31.9611 650 25.4951
32.0785 659 25.671
32.1959 644 25.3772
32.3134 688 26.2298
32.4308 659 25.671
32.5482 721 26.8514
32.6655 662 25.7294
32.7829 683 26.1343
32.9002 652 25.5343
33.0176 667 25.8263
33.1349 640 25.2982
33.2522 690 26.2679
33.3694 681 26.096
33.4867 694 26.3439
33.6039 728 26.9815
33.7211 739 27.1846
33.8383 711 26.6646
33.9554 681 26.096
34.0725 598 24.454
34.1896 629 25.0799
34.3067 597 24.4336
34.4237 654 25.5734
34.5407 710 26.6458
34.6577 740 27.2029
34.7746 732 27.0555
34.8915 765 27.6586
35.0084 682 26.1151
35.1252 700 26.4575
35.242 693 26.3249
35.3587 677 26.0192
35.4755 634 25.1794
35.5921 625 25
35.7088 551 23.4734
35.8254 618 24.8596
35.9419 640 25.2982
36.0584 645 25.3969
36.1749 667 25.8263
36.2913 683 26.1343
36.4077 641 25.318
36.524 647 25.4362
36.6403 559 23.6432
36.7565 545 23.3452
36.8727 498 22.3159
36.9889 506 22.4944
37.1049 499 22.3383
37.221 0 1
37.3369 0 1
37.4529 0 1
37.5687 0 1
37.6845 0 1
37.8003 0 1
37.916 0 1
38.0316 0 1
38.1472 0 1
40.5851 0 1
40.7008 0 1
40.8164 0 1
40.9322 0 1
41.048 0 1
41.1639 0 1
41.2798 0 1
41.3958 0 1
41.5118 0 1
41.6279 0 1
41.744 255 15.9687
41.8602 336 18.3303
41.9765 354 18.8149
42.0928 420 20.4939
42.2091 501 22.383
42.3255 500 22.3607
42.4419 505 22.4722
42.5584 493 22.2036
42.675 504 22.4499
42.7915 484 22
42.9081 473 21.7486
43.0248 455 21.3307
43.1415 485 22.0227
43.2582 486 22.0454
43.375 531 23.0434
43.4918 510 22.5832
43.6087 471 21.7025
43.7256 511 22.6053
43.8425 525 22.9129
43.9595 487 22.0681
44.0765 548 23.4094
44.1935 508 22.5389
44.3106 500 22.3607
44.4277 451 21.2368
44.5448 475 21.7945
44.6619 474 21.7715
44.7791 460 21.4476
44.8963 505 22.4722
45.0136 489 22.1133
45.1308 538 23.1948
45.2481 521 22.8254
45.3654 535 23.1301
45.4827 527 22.9565
45.6001 548 23.4094
45.7174 520 22.8035
45.8348 530 23.0217
45.9522 563 23.7276
46.0697 525 22.9129
46.1871 509 22.561
46.3046 470 21.6795
46.422 445 21.095
46.5395 399 19.975
46.657 407 20.1742
46.7745 491 22.1585
46.892 534 23.1084
47.0096 492 22.1811
47.1271 489 22.1133
47.2446 470 21.6795
47.3622 500 22.3607
47.4797 518 22.7596
47.5973 471 21.7025
47.7149 520 22.8035
47.8324 465 21.5639
47.95 439 20.9523
48.0675 413 20.3224
48.1851 415 20.3715
48.3027 449 21.1896
48.4202 459 21.4243
48.5378 524 22.891
48.6554 511 22.6053
48.7729 459 21.4243
48.8904 507 22.5167
49.008 486 22.0454
49.1255 526 22.9347
49.243 488 22.0907
49.3605 548 23.4094
49.478 526 22.9347
49.5955 477 21.8403
49.713 462 21.4942
49.8304 424 20.5913
49.9479 417 20.4206
50.0653 365 19.105
50.1827 386 19.6469
50.3001 422 20.5426
50.4175 482 21.9545
50.5348 461 21.4709
50.6521 466 21.587
50.7694 480 21.9089
50.8867 486 22.0454
51.004 493 22.2036
51.1212 474 21.7715
51.2384 490 22.1359
51.3556 458 21.4009
51.4727 412 20.2978
51.5899 397 19.9249
51.707 412 20.2978
51.824 429 20.7123
51.9411 468 21.6333
52.0581 476 21.8174
52.175 486 22.0454
52.2919 464 21.5407
52.4088 438 20.9284
52.5257 451 21.2368
52.6425 442 21.0238
52.7593 466 21.587
52.876 522 22.8473
52.9927 510 22.5832
53.1094 487 22.0681
53.226 490 22.1359
53.3426 446 21.1187
53.4591 393 19.8242
53.5756 367 19.1572
53.692 348 18.6548
53.8084 344 18.5472
53.9248 336 18.3303
54.0411 332 18.2209
54.1573 328 18.1108
54.2735 0 1
54.3896 0 1
54.5057 0 1
54.6217 0 1
54.7377 0 1
54.8537 0 1
54.9695 0 1
55.0853 0 1
55.2011 0 1
55.3168 0 1
55.4324 0 1
57.824 0 1
57.9396 0 1
58.0553 0 1
58.1711 0 1
58.2869 0 1
58.4028 0 1
58.5187 0 1
58.6347 0 1
58.7508 0 1
58.8669 0 1
58.983 446 21.1187
59.0992 553 23.516
59.2155 608 24.6577
59.3318 676 26
59.4482 746 27.313
59.5646 803 28.3373
59.681 847 29.1033
59.7975 854 29.2233
59.9141 852 29.189
60.0306 822 28.6705
60.1473 807 28.4077
60.2639 846 29.0861
60.3807 806 28.3901
60.4974 831 28.8271
60.6142 886 29.7658
60.731 886 29.7658
60.8479 844 29.0517
60.9648 827 28.7576
61.0818 876 29.5973
61.1987 801 28.3019
61.3158 745 27.2947
61.4328 807 28.4077
61.5499 770 27.7489
61.667 764 27.6405
61.7841 705 26.5518
61.9013 712 26.6833
62.0185 657 25.632
62.1357 627 25.04
62.253 631 25.1197
62.3702 595 24.3926
62.4875 590 24.2899
62.6049 599 24.4745
62.7222 603 24.5561
62.8396 625 25
62.9569 575 23.9792
63.0743 534 23.1084
63.1918 571 23.8956
63.3092 577 24.0208
63.4267 561 23.6854
63.5441 556 23.5797
63.6616 516 22.7156
63.7791 485 22.0227
63.8966 488 22.0907
64.0142 550 23.4521
64.1317 533 23.0868
64.2492 550 23.4521
64.3668 511 22.6053
64.4843 550 23.4521
64.6019 497 22.2935
64.7195 519 22.7816
64.837 539 23.2164
64.9546 512 22.6274
65.0722 499 22.3383
65.1898 548 23.4094
65.3074 532 23.0651
65.4249 498 22.3159
65.5425 504 22.4499
65.6601 476 21.8174
65.7777 423 20.567
65.8952 456 21.3542
66.0128 521 22.8254
66.1304 446 21.1187
66.2479 532 23.0651
66.3655 525 22.9129
66.483 520 22.8035
66.6005 527 22.9565
66.718 499 22.3383
66.8355 509 22.561
66.953 523 22.8692
67.0705 540 23.2379
67.1879 482 21.9545
67.3054 512 22.6274
67.4228 508 22.5389
67.5402 527 22.9565
67.6576 522 22.8473
67.7749 573 23.9374
67.8923 486 22.0454
68.0096 507 22.5167
68.1269 522 22.8473
68.2442 482 21.9545
68.3614 497 22.2935
68.4787 459 21.4243
68.5958 482 21.9545
68.713 506 22.4944
68.8302 479 21.8861
68.9473 488 22.0907
69.0643 476 21.8174
69.1814 471 21.7025
69.2984 477 21.8403
69.4154 505 22.4722
69.5323 499 22.3383
69.6492 423 20.567
69.7661 464 21.5407
69.8829 461 21.4709
69.9997 478 21.8632
70.1165 504 22.4499
70.2332 494 22.2261
70.3499 483 21.9773
70.4665 452 21.2603
70.5831 393 19.8242
70.6996 423 20.567
70.8161 402 20.0499
70.9326 336 18.3303
71.049 321 17.9165
71.1653 266 16.3095
71.2817 275 16.5831
71.3979 252 15.8745
71.5141 251 15.843
71.6303 217 14.7309
71.7464 192 13.8564
71.8624 0 1
71.9784 0 1
72.0944 0 1
72.2102 0 1
72.3261 0 1
72.4418 0 1
72.5575 0 1
72.6732 0 1
75.1054 0 1
75.2209 0 1
75.3365 0 1
75.4521 0 1
75.5678 0 1
75.6835 0 1
75.7993 0 1
75.9151 0 1
76.031 0 1
76.147 287 16.9411
76.263 297 17.2337
76.3791 352 18.7617
76.4952 393 19.8242
76.6113 361 19
76.7276 430 20.7364
76.8438 451 21.2368
76.9601 482 21.9545
77.0765 417 20.4206
77.1929 432 20.7846
77.3093 417 20.4206
77.4258 442 21.0238
77.5423 411 20.2731
77.6589 425 20.6155
77.7755 423 20.567
77.8921 417 20.4206
78.0088 423 20.567
78.1256 433 20.8087
78.2423 385 19.6214
78.3591 451 21.2368
78.4759 366 19.1311
78.5928 398 19.9499
78.7097 381 19.5192
78.8266 408 20.199
78.9436 469 21.6564
79.0606 451 21.2368
79.1776 411 20.2731
79.2946 437 20.9045
79.4117 453 21.2838
79.5288 408 20.199
79.6459 398 19.9499
79.7631 418 20.445
79.8802 414 20.347
79.9974 410 20.2485
80.1147 450 21.2132
80.2319 479 21.8861
80.3491 442 21.0238
80.4664 477 21.8403
80.5837 433 20.8087
80.701 445 21.095
80.8183 403 20.0749
80.9357 454 21.3073
81.053 460 21.4476
81.1704 477 21.8403
81.2877 436 20.8806
81.4051 424 20.5913
81.5225 491 22.1585
81.6399 439 20.9523
81.7573 403 20.0749
81.8747 414 20.347
81.9922 388 19.6977
82.1096 404 20.0998
82.227 387 19.6723
82.3444 359 18.9473
82.4619 441 21
82.5793 424 20.5913
82.6967 480 21.9089
82.8142 413 20.3224
82.9316 489 22.1133
83.049 477 21.8403
83.1664 432 20.7846
83.2838 450 21.2132
83.4012 438 20.9284
83.5186 438 20.9284
83.636 459 21.4243
83.7534 448 21.166
83.8708 475 21.7945
83.9881 494 22.2261
84.1055 431 20.7605
84.2228 466 21.587
84.3401 462 21.4942
84.4575 438 20.9284
84.5747 446 21.1187
84.692 430 20.7364
84.8093 478 21.8632
84.9265 458 21.4009
85.0437 449 21.1896
85.1609 447 21.1424
85.2781 461 21.4709
85.3952 437 20.9045
85.5123 404 20.0998
85.6294 433 20.8087
85.7465 404 20.0998
85.8636 423 20.567
85.9806 466 21.587
86.0976 438 20.9284
86.2145 472 21.7256
86.3315 455 21.3307
86.4484 498 22.3159
86.5652 469 21.6564
86.682 456 21.3542
86.7988 460 21.4476
86.9156 468 21.6333
87.0323 465 21.5639
87.149 427 20.664
87.2657 458 21.4009
87.3823 487 22.0681
87.4988 455 21.3307
87.6154 419 20.4695
87.7318 459 21.4243
87.8483 441 21
87.9647 387 19.6723
88.081 384 19.5959
88.1973 319 17.8606
88.3136 343 18.5203
88.4298 287 16.9411
88.546 266 16.3095
88.6621 252 15.8745
88.7781 245 15.6525
88.8942 0 1
89.0101 0 1
89.126 0 1
89.2419 0 1
89.3577 0 1
89.4734 0 1
89.5891 0 1
89.7047 0 1
89.8203 0 1
89.9358 0 1
92.3269 0 1
92.4424 0 1
92.558 0 1
92.6736 0 1
92.7893 0 1
92.905 0 1
93.0208 0 1
93.1366 0 1
93.2525 0 1
93.3685 0 1
93.4845 0 1
93.6005 321 17.9165
93.7167 363 19.0526
93.8328 423 20.567
93.949 427 20.664
94.0653 461 21.4709
94.1816 468 21.6333
94.2979 463 21.5174
94.4143 466 21.587
94.5307 429 20.7123
94.6472 444 21.0713
94.7637 438 20.9284
94.8803 430 20.7364
94.9969 436 20.8806
95.1135 454 21.3073
95.2302 496 22.2711
95.3469 465 21.5639
95.4637 482 21.9545
95.5805 483 21.9773
95.6973 493 22.2036
95.8142 491 22.1585
95.9311 456 21.3542
96.048 407 20.1742
96.1649 481 21.9317
96.2819 428 20.6882
96.3989 482 21.9545
96.516 457 21.3776
96.633 512 22.6274
96.7501 481 21.9317
96.8673 464 21.5407
96.9844 485 22.0227
97.1016 534 23.1084
97.2188 484 22
97.336 479 21.8861
97.4532 475 21.7945
97.5704 476 21.8174
97.6877 497 22.2935
97.805 492 22.1811
97.9223 474 21.7715
98.0396 504 22.4499
98.1569 465 21.5639
98.2743 471 21.7025
98.3916 482 21.9545
98.509 490 22.1359
98.6264 440 20.9762
98.7438 493 22.2036
98.8612 476 21.8174
98.9786 494 22.2261
99.096 507 22.5167
99.2134 514 22.6716
99.3308 510 22.5832
99.4482 500 22.3607
99.5656 531 23.0434
99.6831 475 21.7945
99.8005 567 23.8118
99.9179 543 23.3024
100.035 585 24.1868
100.153 527 22.9565
100.27 556 23.5797
100.388 571 23.8956
100.505 574 23.9583
100.622 491 22.1585
100.74 508 22.5389
100.857 509 22.561
100.975 479 21.8861
101.092 527 22.9565
101.209 520 22.8035
101.327 556 23.5797
101.444 539 23.2164
101.561 511 22.6053
101.679 517 22.7376
101.796 493 22.2036
101.913 513 22.6495
102.03 510 22.5832
102.148 532 23.0651
102.265 561 23.6854
102.382 492 22.1811
102.499 557 23.6008
102.616 563 23.7276
102.733 601 24.5153
102.851 627 25.04
102.968 560 23.6643
103.085 597 24.4336
103.202 589 24.2693
103.319 509 22.561
103.436 582 24.1247
103.552 568 23.8328
103.669 615 24.7992
103.786 606 24.6171
103.903 646 25.4165
104.02 610 24.6982
104.137 588 24.2487
104.253 617 24.8395
104.37 582 24.1247
104.487 614 24.779
104.603 595 24.3926
104.72 585 24.1868
104.836 543 23.3024
104.953 551 23.4734
105.069 516 22.7156
105.186 539 23.2164
105.302 423 20.567
105.418 431 20.7605
105.535 428 20.6882
105.651 391 19.7737
105.767 330 18.1659
105.883 307 17.5214
105.999 283 16.8226
106.115 0 1
106.231 0 1
106.347 0 1
106.463 0 1
106.579 0 1
106.694 0 1
106.81 0 1
106.926 0 1
107.041 0 1
107.157 0 1
109.576 0 1
109.692 0 1
109.807 0 1
109.923 0 1
110.039 0 1
110.155 0 1
110.27 0 1
110.386 0 1
110.502 0 1
110.618 268 16.3707
110.735 310 17.6068
110.851 373 19.3132
110.967 426 20.6398
111.083 448 21.166
111.199 486 22.0454
111.316 489 22.1133
111.432 546 23.3666
111.549 568 23.8328
111.665 557 23.6008
111.782 548 23.4094
111.898 554 23.5372
112.015 517 22.7376
112.132 525 22.9129
112.248 526 22.9347
112.365 561 23.6854
112.482 527 22.9565
112.599 573 23.9374
112.716 531 23.0434
112.832 523 22.8692
112.949 525 22.9129
113.066 514 22.6716
113.183 539 23.2164
113.3 530 23.0217
113.417 476 21.8174
113.534 530 23.0217
113.652 516 22.7156
113.769 534 23.1084
113.886 465 21.5639
114.003 442 21.0238
114.12 500 22.3607
114.238 531 23.0434
114.355 477 21.8403
114.472 464 21.5407
114.589 470 21.6795
114.707 484 22
114.824 532 23.0651
114.942 528 22.9783
115.059 515 22.6936
115.176 518 22.7596
115.294 510 22.5832
115.411 524 22.891
115.529 447 21.1424
115.646 488 22.0907
115.764 531 23.0434
115.881 509 22.561
115.999 464 21.5407
116.116 522 22.8473
116.234 540 23.2379
116.351 474 21.7715
116.469 479 21.8861
116.586 471 21.7025
116.704 484 22
116.821 487 22.0681
116.939 497 22.2935
117.056 538 23.1948
117.174 454 21.3073
117.291 511 22.6053
117.409 485 22.0227
117.526 467 21.6102
117.644 472 21.7256
117.761 409 20.2237
117.879 453 21.2838
117.996 435 20.8567
118.114 448 21.166
118.231 451 21.2368
118.349 432 20.7846
118.466 428 20.6882
118.584 483 21.9773
118.701 495 22.2486
118.819 480 21.9089
118.936 425 20.6155
119.053 463 21.5174
119.171 446 21.1187
119.288 467 21.6102
119.405 481 21.9317
119.523 447 21.1424
119.64 454 21.3073
119.757 468 21.6333
119.875 459 21.4243
119.992 451 21.2368
120.109 436 20.8806
120.226 469 21.6564
120.343 446 21.1187
120.46 441 21
120.578 462 21.4942
120.695 448 21.166
120.812 452 21.2603
120.929 462 21.4942
121.046 421 20.5183
121.163 457 21.3776
121.279 474 21.7715
121.396 402 20.0499
121.513 389 19.7231
121.63 411 20.2731
121.747 377 19.4165
121.863 374 19.3391
121.98 381 19.5192
122.097 367 19.1572
122.213 375 19.3649
122.33 371 19.2614
122.446 354 18.8149
122.563 352 18.7617
122.679 319 17.8606
122.795 293 17.1172
122.912 275 16.5831
123.028 254 15.9374
123.144 258 16.0624
123.26 206 14.3527
123.377 0 1
123.493 0 1
123.609 0 1
123.725 0 1
123.84 0 1
123.956 0 1
124.072 0 1
124.188 0 1
124.303 0 1
124.419 0 1
126.852 0 1
126.968 0 1
127.083 0 1
127.199 0 1
127.315 0 1
127.431 0 1
127.547 0 1
127.663 0 1
127.779 0 1
127.895 0 1
128.011 0 1
128.127 0 1
128.243 0 1
128.359 514 22.6716
128.476 474 21.7715
128.592 498 22.3159
128.708 525 22.9129
128.825 540 23.2379
128.941 588 24.2487
129.058 478 21.8632
129.174 537 23.1733
129.291 541 23.2594
129.408 535 23.1301
129.524 519 22.7816
129.641 494 22.2261
129.758 496 22.2711
129.875 516 22.7156
129.992 472 21.7256
130.108 552 23.4947
130.225 493 22.2036
130.342 516 22.7156
130.459 515 22.6936
130.576 529 23
130.693 500 22.3607
130.81 499 22.3383
130.928 521 22.8254
131.045 528 22.9783
131.162 574 23.9583
131.279 652 25.5343
131.396 628 25.0599
131.513 649 25.4755
131.631 684 26.1534
131.748 676 26
131.865 664 25.7682
131.983 722 26.8701
132.1 698 26.4197
132.217 736 27.1293
132.335 813 28.5132
132.452 772 27.7849
132.57 875 29.5804
132.687 894 29.8998
132.804 963 31.0322
132.922 916 30.2655
133.039 968 31.1127
133.157 975 31.225
133.274 948 30.7896
133.392 994 31.5278
133.509 979 31.289
133.627 936 30.5941
133.744 941 30.6757
133.862 933 30.545
133.979 962 31.0161
134.097 886 29.7658
134.214 858 29.2916
134.332 853 29.2062
134.449 865 29.4109
134.567 891 29.8496
134.684 859 29.3087
134.802 940 30.6594
134.919 945 30.7409
135.037 947 30.7734
135.154 986 31.4006
135.272 950 30.8221
135.389 870 29.4958
135.507 859 29.3087
135.624 813 28.5132
135.742 908 30.133
135.859 956 30.9192
135.977 924 30.3974
136.094 957 30.9354
136.211 954 30.8869
136.329 939 30.6431
136.446 949 30.8058
136.564 966 31.0805
136.681 1001 31.6386
136.798 996 31.5595
136.915 1013 31.8277
137.033 966 31.0805
137.15 1025 32.0156
137.267 1011 31.7962
137.384 932 30.5287
137.502 969 31.1288
137.619 918 30.2985
137.736 893 29.8831
137.853 838 28.9482
137.97 914 30.2324
138.087 838 28.9482
138.204 885 29.7489
138.321 933 30.545
138.438 966 31.0805
138.555 1013 31.8277
138.672 1056 32.4962
138.788 1032 32.1248
138.905 1026 32.0312
139.022 955 30.9031
139.139 855 29.2404
139.255 746 27.313
139.372 760 27.5681
139.488 783 27.9821
139.605 807 28.4077
139.721 784 28
139.838 777 27.8747
139.954 698 26.4197
140.071 682 26.1151
140.187 590 24.2899
140.303 574 23.9583
140.419 596 24.4131
140.535 525 22.9129
140.652 515 22.6936
140.768 0 1
140.884 0 1
141 0 1
141.115 0 1
141.231 0 1
141.347 0 1
141.463 0 1
141.578 0 1
141.694 0 1
144.104 0 1
144.219 0 1
144.335 0 1
144.45 0 1
144.566 0 1
144.682 0 1
144.798 0 1
144.914 0 1
145.03 0 1
145.146 1100 33.1662
145.262 1220 34.9285
145.378 1242 35.242
145.494 1301 36.0694
145.61 1281 35.7911
145.726 1376 37.0945
145.842 1388 37.2559
145.959 1433 37.855
146.075 1511 38.8716
146.192 1504 38.7814
146.308 1495 38.6652
146.425 1538 39.2173
146.541 1475 38.4057
146.658 1579 39.7366
146.774 1540 39.2428
146.891 1584 39.7995
147.008 1626 40.3237
147.125 1546 39.3192
147.241 1536 39.1918
147.358 1701 41.2432
147.475 1836 42.8486
147.592 1826 42.7317
147.709 1771 42.0833
147.826 1821 42.6732
147.943 1638 40.4722
148.06 1797 42.391
148.177 1694 41.1582
148.294 1781 42.2019
148.411 1811 42.5558
148.528 1831 42.7902
148.645 1803 42.4617
148.762 1819 42.6497
148.88 1839 42.8836
148.997 1932 43.9545
149.114 1764 42
149.231 1817 42.6263
149.349 1818 42.638
149.466 1657 40.7063
149.583 1833 42.8135
149.701 1745 41.7732
149.818 1705 41.2916
149.935 1724 41.5211
150.053 1677 40.9512
150.17 1613 40.1622
150.287 1584 39.7995
150.405 1606 40.0749
150.522 1532 39.1408
150.64 1553 39.4081
150.757 1381 37.1618
150.875 1399 37.4032
150.992 1544 39.2938
151.11 1518 38.9615
151.227 1544 39.2938
151.344 1588 39.8497
151.462 1580 39.7492
151.579 1452 38.1051
151.697 1424 37.7359
151.814 1415 37.6165
151.932 1493 38.6394
152.049 1466 38.2884
152.167 1526 39.064
152.284 1476 38.4187
152.402 1502 38.7556
152.519 1510 38.8587
152.636 1584 39.7995
152.754 1510 38.8587
152.871 1540 39.2428
152.989 1443 37.9868
153.106 1531 39.128
153.223 1426 37.7624
153.341 1436 37.8946
153.458 1469 38.3275
153.575 1404 37.47
153.693 1279 35.7631
153.81 1310 36.1939
153.927 1263 35.5387
154.044 1363 36.9188
154.162 1240 35.2136
154.279 1233 35.1141
154.396 1244 35.2704
154.513 1347 36.7015
154.63 1379 37.1349
154.747 1418 37.6563
154.864 1453 38.1182
154.981 1401 37.4299
155.098 1370 37.0135
155.215 1368 36.9865
155.332 1312 36.2215
155.449 1401 37.4299
155.566 1397 37.3765
155.683 1423 37.7227
155.8 1474 38.3927
155.917 1464 38.2623
156.033 1400 37.4166
156.15 0 1
156.267 0 1
156.383 0 1
156.5 0 1
156.617 0 1
156.733 0 1
156.85 0 1
156.966 0 1
157.082 0 1
157.199 0 1
157.315 0 1
157.431 0 1
157.547 0 1
157.664 0 1
157.78 0 1
157.896 0 1
158.012 0 1
158.128 0 1
158.244 0 1
158.359 0 1
158.475 0 1
158.591 0 1
158.706 0 1
